#Activity	standing 
#ActivityID	8 
#Date 08-22-14-05
acc_rf_x	acc_rf_y	acc_rf_z	gyro_rf_x	gyro_rf_y	gyro_rf_z	acc_rs_x	acc_rs_y	acc_rs_z	gyro_rs_x	gyro_rs_y	gyro_rs_z	acc_rt_x	acc_rt_y	acc_rt_z	gyro_rt_x	gyro_rt_y	gyro_rt_z	acc_lf_x	acc_lf_y	acc_lf_z	gyro_lf_x	gyro_lf_y	gyro_lf_z	acc_ls_x	acc_ls_y	acc_ls_z	gyro_ls_x	gyro_ls_y	gyro_ls_z	acc_lt_x	acc_lt_y	acc_lt_z	gyro_lt_x	gyro_lt_y	gyro_lt_z	EMG_r	EMG_l	act
-11196	-3376	11900	185	-1	33	-15776	1596	-2104	142	300	45	-15544	-152	-3952	-1	-11	18	-10364	7484	9780	-136	182	-188	-14576	5304	-4968	22	16	15	-15408	688	-3552	-25	-28	25	127	130	8
-11220	-3428	11808	189	23	-68	-15956	1556	-2348	204	342	68	-15728	-272	-4240	12	4	15	-10408	7420	9864	-185	28	-175	-14736	5112	-4712	3	27	8	-15384	336	-3992	-16	-31	30	127	129	8
-11208	-3388	11940	216	-19	-105	-15808	1572	-2528	331	337	42	-15488	32	-4120	26	0	15	-10348	7676	10212	-286	-64	-170	-15144	4912	-4920	-1	36	5	-15608	48	-4144	22	-29	34	127	127	8
-11244	-3496	11820	221	-31	-126	-16028	1500	-2592	212	280	35	-15616	-104	-4504	19	-2	19	-10256	7676	10208	-272	-31	-186	-15328	4984	-4936	5	29	17	-15672	64	-4656	22	-12	44	127	127	8
-11232	-3544	11816	155	-66	-166	-16176	1424	-2692	68	185	73	-15408	-160	-4664	12	18	17	-10328	7640	10240	-177	-4	-184	-15624	4808	-5032	8	31	18	-15824	16	-4440	42	-8	58	127	129	8
-11300	-3724	11932	129	-20	-116	-16244	1468	-2732	96	175	72	-15800	-144	-4824	19	22	20	-10304	7600	10204	-125	133	-192	-15392	4984	-4904	32	12	30	-15760	32	-4264	57	-7	50	126	129	8
-11216	-3460	11820	98	36	-136	-16024	1416	-2516	-375	9	48	-15568	-232	-4208	43	16	20	-10328	7564	10152	-67	183	-200	-15032	4976	-4992	17	7	29	-15664	480	-4184	42	-5	57	126	130	8
-11180	-3508	11796	96	33	-158	-15972	1488	-2176	-391	-27	48	-15880	-168	-3920	29	2	22	-10260	7616	10100	-55	184	-215	-15024	5128	-5000	8	5	23	-15528	600	-4248	33	-15	43	126	132	8
-11184	-3496	11744	115	43	-136	-16036	1420	-2144	-212	70	12	-15856	40	-3632	6	-17	17	-10340	7588	10008	-54	125	-155	-15112	5040	-5056	23	-1	26	-15648	744	-4200	10	-17	34	125	135	8
-11212	-3540	11948	181	29	-113	-16048	1508	-2216	36	80	68	-15888	-104	-3728	5	-8	12	-10296	7640	10004	-94	164	-170	-15160	5160	-4912	6	-2	27	-15488	808	-4000	-35	-16	29	125	136	8
-11232	-3588	11896	143	20	-149	-16144	1528	-2348	6	98	71	-15928	-88	-4208	2	5	10	-10344	7596	10088	-128	119	-135	-15216	4728	-5144	-7	2	22	-15712	296	-4104	-48	-20	11	125	135	8
-11284	-3592	11788	120	75	-154	-16144	1596	-2412	-163	95	42	-15808	-336	-4328	13	17	11	-10316	7548	10220	-95	123	-143	-15184	4952	-4920	16	-1	29	-15736	208	-4176	-29	-9	17	127	135	8
-11248	-3456	11828	139	-12	-146	-15932	1516	-2336	-230	98	22	-15552	-176	-4136	19	2	13	-10336	7640	10056	-87	119	-136	-15040	5192	-4888	3	-1	30	-15632	296	-3816	-22	-1	28	128	131	8
-11180	-3500	11864	165	43	-130	-15848	1516	-2320	-218	89	51	-15568	8	-3928	-4	-8	16	-10364	7508	10008	-96	147	-141	-15080	5048	-5048	-11	7	23	-15776	216	-3976	-10	2	42	128	133	8
-11220	-3528	11872	227	-29	-136	-16008	1536	-2472	-93	129	14	-15664	-200	-4072	-7	-7	10	-10380	7548	9944	-126	67	-143	-14952	5136	-4760	-2	-3	22	-15440	264	-3736	15	6	54	129	132	8
-11276	-3436	11816	237	-98	-110	-15992	1576	-2488	-57	114	13	-15552	-144	-4056	18	3	7	-10288	7552	9992	-162	17	-134	-15024	5064	-4808	6	6	24	-15464	400	-3712	31	3	47	130	132	8
-11316	-3472	11760	183	-12	-161	-16156	1544	-2404	70	106	4	-15744	-96	-4264	21	9	22	-10348	7524	10132	-197	-26	-89	-14976	5040	-4816	13	5	26	-15752	624	-3920	8	3	46	129	132	8
-11244	-3540	11992	163	-66	-209	-16120	1464	-2444	106	58	-6	-15744	-344	-4328	44	21	22	-10344	7520	10164	-180	17	-118	-15240	5176	-4776	-2	9	20	-15736	656	-3928	-24	11	38	129	132	8
-11204	-3620	11928	134	-42	-188	-16004	1516	-2496	57	24	19	-15672	-264	-4144	70	28	22	-10340	7580	10192	-212	-2	-110	-15216	5000	-5048	-40	24	12	-15680	472	-4296	-76	17	27	129	132	8
-11268	-3636	11800	156	-56	-183	-16052	1552	-2420	38	13	4	-15736	-80	-4080	27	17	21	-10392	7612	10060	-194	-13	-91	-15080	4984	-5320	-35	12	16	-15488	480	-4424	-88	34	25	130	129	8
-11216	-3468	11812	204	-67	-148	-15920	1432	-2320	-103	55	-9	-15640	-112	-3896	32	21	20	-10368	7448	9968	-213	-65	1	-14856	5096	-5008	-28	0	22	-15344	560	-4536	-105	49	34	129	129	8
-11276	-3488	11820	222	-57	-148	-15852	1524	-2316	9	74	28	-15712	-80	-3944	14	9	22	-10364	7508	10088	-201	-109	-22	-15008	4944	-5056	-36	4	25	-15360	264	-4056	-115	38	44	129	130	8
-11240	-3504	11832	277	-127	-155	-15892	1644	-2456	-11	144	68	-15608	-112	-4152	-1	7	18	-10284	7352	10200	-355	-204	80	-14976	5168	-4472	-27	15	30	-15696	136	-3632	-100	-3	44	128	130	8
-11236	-3412	11776	281	-141	-153	-16044	1648	-2512	236	123	52	-15464	-24	-3968	7	28	16	-10248	7552	10092	-460	-139	7	-15000	5688	-4280	-62	56	19	-16016	112	-2872	-83	-39	47	128	130	8
-11180	-3424	11824	282	-80	-174	-15880	1620	-2568	97	86	-7	-15424	-80	-4296	26	26	22	-10272	7720	10252	-520	-20	-160	-15272	5456	-4528	-116	92	4	-16120	520	-3384	-100	-24	57	128	129	8
-11212	-3532	11968	284	-57	-219	-16188	1500	-2620	412	53	70	-15816	-552	-4568	55	47	34	-10260	7812	10436	-429	65	-183	-15552	5160	-5064	-94	100	2	-16048	392	-3664	-88	2	60	127	131	8
-11180	-3560	12016	247	-89	-203	-16360	1520	-2724	235	-86	88	-15832	-456	-4440	82	52	45	-10248	7784	10372	-310	124	-166	-15736	5072	-4760	-20	65	13	-16000	272	-4288	-67	34	50	127	132	8
-11260	-3548	11860	164	-42	-186	-16232	1384	-2580	32	-106	117	-15688	-432	-4240	121	68	60	-10260	7636	10408	-140	216	-223	-15584	4792	-4816	2	63	28	-15968	-16	-4088	-71	36	44	126	132	8
-11256	-3420	11828	139	-11	-172	-15956	1364	-2344	-272	-108	140	-15600	-448	-3912	132	61	57	-10224	7488	10228	-52	299	-226	-15136	5032	-5104	-30	72	27	-15616	144	-4256	-75	25	55	127	131	8
-11248	-3452	11748	192	-82	-179	-15952	1324	-2268	-117	-107	189	-15608	-136	-3696	82	50	56	-10192	7504	10160	-50	327	-146	-15040	4952	-4896	-53	78	23	-15392	424	-4120	-80	31	66	126	130	8
-11232	-3564	11956	205	-110	-154	-16136	1472	-2592	5	-62	244	-15544	56	-3912	22	67	50	-10280	7568	10092	-102	301	-180	-15032	4832	-5208	-19	71	41	-15736	392	-4256	-73	39	65	127	130	8
-11144	-3220	11680	217	-121	-130	-16184	1748	-2312	-509	-73	221	-15360	48	-4368	-16	81	42	-10276	7592	10200	-97	324	-176	-15088	5024	-5280	-18	65	49	-15512	624	-4408	-92	41	53	125	129	8
-11236	-3620	11828	177	-74	-171	-16084	1500	-1940	-342	-28	333	-16120	-48	-4232	-31	79	47	-10264	7508	10200	-60	350	-157	-15136	5072	-4960	-47	66	53	-15648	624	-4320	-123	51	53	126	129	8
-11148	-3508	11768	198	-41	-140	-16020	1536	-1672	-125	148	336	-16024	-272	-3320	-17	20	41	-10316	7428	10052	-59	373	-148	-14896	5136	-5008	-25	54	57	-15632	208	-4280	-137	55	60	127	129	8
-11168	-3532	11856	258	9	-59	-15972	1280	-1636	-92	368	388	-16144	-440	-2968	-64	0	45	-10324	7416	10120	-149	338	-146	-14800	5296	-4720	-29	67	61	-15576	400	-3984	-120	37	71	126	128	8
-11236	-3736	11948	349	18	3	-16132	1356	-1692	67	628	427	-16176	-704	-3096	-71	-4	40	-10360	7564	10096	-183	315	-130	-14744	5424	-4520	-55	88	54	-15712	448	-3352	-99	25	84	126	127	8
-11244	-3744	11888	355	-39	12	-16108	1328	-1972	322	740	479	-16016	-736	-3608	-68	-17	57	-10292	7752	10156	-209	289	-164	-15088	5296	-5032	-54	101	50	-16024	368	-3528	-64	25	101	126	126	8
-11204	-3608	12108	276	-123	93	-16420	1428	-2164	358	803	608	-15856	-688	-4160	-66	9	61	-10256	7736	10304	-75	353	-211	-15392	5064	-5040	12	88	61	-16120	144	-3864	-28	25	94	127	125	8
-11228	-3376	11936	250	-24	160	-16180	1656	-2440	388	802	628	-15952	-320	-4216	-12	7	72	-10328	7528	10272	-25	506	-217	-15088	5320	-4880	61	70	73	-15816	320	-4064	-17	18	97	125	124	8
-11140	-3436	12028	318	-42	157	-16112	1656	-2352	269	879	654	-15552	-24	-4160	-22	-9	86	-10240	7644	10280	9	698	-220	-15232	5560	-4304	-7	113	62	-15760	168	-4088	-21	-5	108	126	124	8
-11256	-3936	12024	411	-101	282	-16144	1180	-2376	1338	822	705	-15832	-248	-3848	-62	-10	84	-10224	7764	10156	-23	951	-294	-15800	5288	-4000	-20	134	64	-16296	-528	-3792	19	-51	111	126	124	8
-11228	-3768	12236	522	-182	564	-16348	1448	-2824	1929	678	706	-15608	-256	-4536	-61	11	73	-10260	8104	10724	95	1384	-376	-15936	6048	-4488	-89	192	40	-17408	296	-3272	112	-121	103	126	124	8
-11216	-3440	12096	477	-52	687	-16556	1756	-2728	891	686	807	-16256	-520	-4440	-25	32	73	-10352	8040	10280	177	1682	-821	-15616	5504	-5016	-75	203	53	-16304	688	-3600	117	-104	120	126	124	8
-11148	-3368	12008	465	213	716	-16320	1612	-2148	-128	784	825	-16392	-280	-3864	10	1	74	-10560	7168	10276	220	1985	-952	-15288	4600	-5552	-6	189	55	-15784	0	-4240	171	-109	127	126	125	8
-11100	-3604	12036	466	354	932	-16272	1560	-1904	-318	948	807	-16520	-168	-3288	-52	-43	90	-10488	7216	10136	328	2048	-836	-14704	4816	-6008	63	161	72	-15152	544	-4488	245	-116	97	126	124	8
-11208	-3640	12028	522	450	1222	-16360	1692	-2360	-192	1060	783	-16064	176	-3536	-109	-97	100	-10592	7236	9616	390	1856	-748	-14416	5472	-6016	80	139	79	-14888	1424	-5272	260	-85	126	124	125	8
-11296	-3632	12196	741	423	1522	-16148	1948	-2428	312	1113	760	-15912	632	-4232	-133	-116	99	-10664	7708	9624	370	1622	-654	-14552	5216	-6112	49	112	84	-15024	1144	-5392	259	-51	147	117	126	8
-11264	-3364	12172	582	729	1566	-16072	2256	-2764	460	1163	742	-15800	896	-4064	-96	-127	86	-10736	7604	9736	364	1528	-646	-14744	5720	-5920	43	82	102	-15384	1216	-5688	222	-29	135	122	125	8
-11364	-2984	11868	652	764	1580	-15612	2236	-2720	311	1191	643	-15584	840	-3824	-93	-112	74	-10716	7804	9892	219	1332	-787	-14928	5520	-5904	-66	93	93	-15816	336	-5216	195	-57	113	120	123	8
-11380	-2940	11964	771	865	1419	-15684	2548	-3020	912	1228	556	-15296	408	-4304	-41	-101	79	-10700	8912	9588	404	1216	-892	-15096	5616	-5864	34	39	136	-15984	752	-4136	239	-74	94	120	120	8
-11272	-2096	12120	688	1056	1131	-15788	2820	-3284	1797	1162	645	-15976	800	-4624	69	-61	103	-10748	7068	9648	487	1211	-1105	-15200	5352	-5712	62	10	143	-15720	1280	-4024	234	-40	125	122	118	8
-11240	-2008	11844	567	1337	568	-15796	3020	-3184	1831	1186	813	-15472	824	-4376	210	-57	114	-10880	7080	9848	358	1391	-1063	-14904	4968	-5752	-20	50	116	-15720	736	-4096	171	-21	137	123	115	8
-11408	-2632	11988	553	1510	339	-16100	2132	-3116	2123	1128	849	-15960	560	-4328	230	-43	141	-10892	7260	9676	391	1443	-1016	-14632	5408	-5608	30	42	125	-15504	1312	-3800	256	-21	86	126	117	8
-11492	-3616	12036	799	1618	709	-16580	1412	-3140	2501	973	755	-16600	176	-4216	170	-33	152	-10952	7008	9808	246	1566	-825	-14272	6040	-5632	-53	57	89	-15536	2584	-4112	101	-5	121	127	127	8
-11720	-3660	11776	810	1635	1286	-16616	1540	-3328	2149	796	646	-16272	728	-5128	186	-24	111	-10964	7824	9248	56	1595	-822	-14536	6328	-5912	-138	83	66	-15632	2400	-4320	17	-5	125	128	119	8
-11420	-3508	11552	635	1669	1682	-16176	1956	-3460	755	633	480	-15912	1264	-4432	135	-59	80	-10980	7856	9296	95	1503	-877	-14296	6240	-5800	-82	50	64	-15512	2136	-4008	-2	-41	80	129	117	8
-11816	-2756	11440	446	1697	1915	-15692	1840	-3368	-173	720	339	-15520	1464	-4152	-24	-121	54	-11104	7340	8900	-146	1109	-1260	-13880	5968	-5520	-11	32	60	-15024	1984	-3624	8	-78	62	133	114	8
-11880	-3048	11348	268	1560	2010	-15720	2008	-3128	-606	667	222	-15712	1760	-3968	-196	-180	17	-11180	7196	9088	-273	905	-1219	-14040	5984	-5696	20	32	57	-15288	1432	-3408	54	-105	59	130	112	8
-11924	-2432	11000	101	1288	2063	-15316	2180	-3464	-1027	728	123	-15448	1784	-4128	-287	-242	-17	-11160	6836	9072	-376	796	-1163	-14176	5656	-5440	-4	62	28	-15560	1208	-3168	47	-143	84	128	116	8
-11884	-2304	11128	-83	995	1810	-15016	2844	-3680	-1202	677	4	-14984	1424	-3944	-314	-245	-39	-11168	7488	9380	-277	873	-982	-14808	5800	-5232	9	84	6	-16200	984	-3000	97	-158	94	122	117	8
-11828	-1572	10888	-8	722	1491	-14912	2552	-3692	-979	677	44	-14688	1064	-3912	-298	-220	-30	-11184	7680	9636	-211	1032	-1172	-15272	5688	-5816	-29	106	7	-16688	1144	-3768	86	-115	78	122	120	8
-11724	-1320	11348	238	690	894	-15384	2772	-3440	0	659	246	-15440	720	-4104	-182	-174	-23	-11192	6960	9988	-87	1306	-1163	-15480	5320	-6024	-28	97	-1	-16312	1064	-4424	26	-87	80	120	122	8
-11796	-1536	11576	16	956	152	-15936	3224	-3152	247	777	372	-16144	400	-3376	-54	-152	-11	-11252	6812	9896	-51	1737	-1012	-15104	5280	-5664	-20	88	-16	-16096	1520	-4168	-56	-120	89	136	124	8
-11944	-2376	11720	206	1199	-52	-16088	2536	-3032	1121	852	504	-16400	200	-2696	18	-146	17	-11472	7176	9780	-67	1892	-731	-14520	5448	-5560	-132	145	-44	-15712	368	-3616	-106	-183	78	131	125	8
-12236	-2636	11740	393	1464	5	-16328	2168	-3424	1943	857	501	-16392	-104	-2728	69	-104	61	-11468	7432	9128	-92	1847	-725	-14336	6168	-5464	-52	132	-27	-15752	576	-2968	-12	-261	51	128	126	8
-12232	-2364	11564	443	1734	91	-16204	2244	-3152	1344	983	475	-16416	-136	-2736	138	-52	93	-11324	7144	8592	-33	1686	-805	-13984	5416	-5448	-33	153	-27	-15208	-112	-2520	68	-310	81	128	126	8
-12204	-2384	11164	595	1855	275	-16280	1988	-2224	532	1286	532	-16896	-320	-2176	208	-36	104	-11472	7124	8700	-26	1529	-998	-14432	6000	-5968	59	133	-2	-15488	464	-2976	344	-282	100	125	127	8
-12196	-2724	10976	944	1974	538	-15676	760	-280	-542	2210	613	-18264	-48	592	251	-132	92	-11392	6324	8380	-251	1497	-945	-13904	5160	-5464	37	168	-30	-14240	848	-3216	410	-254	187	127	127	8
-12800	-4052	10688	2288	1606	1333	-15844	-2008	4092	7213	4866	721	-21280	-3208	5528	516	-935	75	-11416	6148	8372	-227	1540	-896	-13632	4624	-5416	-24	249	-70	-13768	-72	-2696	690	-308	208	129	127	8
-13364	-5940	8888	2664	-86	3607	-14628	-1660	8008	14856	9076	559	-22888	-10520	16888	1171	-2684	-216	-11568	7072	9060	-646	1790	-314	-14832	4744	-5440	-20	261	-39	-15616	-152	-3336	743	-300	120	124	127	8
-13752	-8704	10644	2007	108	7497	-17428	-692	9196	15571	13101	-1552	-23544	-2080	14184	-212	-2334	-535	-11532	7108	9904	-342	2119	-424	-15848	4944	-6056	110	238	1	-16040	-136	-3208	724	-302	109	147	130	8
-15444	-8720	13320	-1442	2492	11605	-21476	16	5176	14408	17010	-4162	-19232	176	9088	-829	-2944	-814	-11740	6372	9964	-619	2828	-303	-15256	5472	-7016	-136	297	-62	-17176	4360	-4152	87	-227	5	137	125	8
-14880	-10784	18624	-4834	7193	16310	-27976	984	-2540	12132	17473	-6864	-6480	4088	32767	25	-7262	-360	-12040	7148	9092	-606	3017	-2	-14376	6160	-7544	-230	282	-97	-15864	3784	-5224	-192	-238	-151	139	124	8
-13844	-15068	18648	-2207	9861	19342	-23516	2040	-7144	4189	15413	-7406	-17680	18976	-15016	-4914	-1511	-345	-12004	8492	8128	-388	2580	-225	-14248	6472	-7352	-74	167	-58	-16112	1704	-4288	-300	-302	-285	113	128	8
-7240	-26080	15584	5840	7774	3253	-15992	5060	-4904	-5251	10230	-7284	-24160	1672	-12992	-2283	-2722	-1111	-12020	7904	8076	212	1776	-857	-13880	6848	-7272	177	36	8	-16016	1672	-2424	-106	-368	-332	144	132	8
5836	-15728	18092	2367	3435	-15440	-17312	1164	-1272	-7442	121	-7541	-14688	-5952	-11424	-1511	-1905	-1345	-12036	7952	8240	308	1361	-1345	-14136	7560	-6440	317	-47	-13	-16504	2560	-1328	41	-288	-203	135	130	8
10820	-10668	21196	-4033	1192	-20741	-8756	-5700	-724	7466	-9599	-1897	-10624	-5536	-13344	-462	-869	-626	-12028	7964	8100	388	1009	-1924	-14176	6488	-5744	333	-17	-61	-16456	1056	16	154	-169	16	141	131	8
6036	-7984	20376	-5945	-7599	-22530	-6976	308	-1128	14282	-17348	1042	-12672	-5192	-9784	1433	-41	-648	-11964	7728	7956	301	640	-2514	-14168	5752	-6016	522	-45	-22	-15000	-416	752	542	4	45	126	130	8
-472	-5936	15316	-3809	-10695	-21461	-12932	5720	-2256	4402	-21750	3524	-12248	-5168	-7728	2165	387	-398	-12028	6696	8260	220	562	-2753	-14432	4712	-6000	559	-24	-11	-15280	-808	-352	834	212	-20	126	129	8
-7184	-7252	11356	1777	-6651	-18040	-15668	2204	-4796	-3028	-23242	3890	-12320	-1816	-3400	3231	331	-548	-12104	6164	8560	334	682	-2624	-14552	4016	-6528	557	-4	-8	-15632	-24	-2056	804	428	-30	124	131	8
-15736	-3740	8836	5933	-2543	-15375	-14916	676	-7420	-2241	-22813	2307	-12760	1216	896	3758	387	-471	-12132	5692	8848	780	825	-2043	-14832	3280	-6920	695	-34	13	-15920	192	-2624	485	471	-32	124	133	8
-17064	-1844	8388	5867	-2125	-15522	-13468	2520	-9412	-1527	-20920	1404	-13784	2408	6240	3044	403	-383	-12280	4968	8872	1543	1163	-768	-14448	2904	-6224	955	-65	-8	-15632	448	-464	311	279	-98	123	134	8
-15076	6896	5148	929	1425	-17503	-13192	4852	-9728	-6336	-18491	1525	-14136	3744	8480	1703	595	-318	-12488	5100	8200	2453	1119	862	-12936	3088	-2696	1393	-75	-28	-15176	376	-8	300	222	-113	111	132	8
-32768	32767	9344	26717	-869	30322	-12604	-8804	-18360	-15795	-13606	-559	-13392	3864	18672	606	-53	-588	-12244	6404	7616	1843	445	1077	-10496	8880	-2400	1299	177	-98	-13032	2096	6096	494	-317	-220	117	131	8
-32768	32767	-32196	-123	-11448	4431	-980	4284	-32768	7003	3470	-2729	-11896	5136	21848	-982	-780	-416	-12424	9160	7672	669	187	129	-13672	9848	-4280	653	579	-325	-16560	3376	5264	456	-226	-79	133	129	8
7216	-1304	32767	1534	-13448	-10036	-23340	20552	-252	-17289	11143	1611	-19984	8304	-16656	-3102	1331	-145	-12700	8492	8864	971	51	-581	-14744	5456	-4688	574	799	-464	-16656	2040	5704	333	-369	109	112	134	8
-7068	-24936	17516	4303	-4676	35	-31456	-4712	1680	2872	2043	-546	-32768	15632	6848	-2318	526	-258	-12480	8096	9744	1810	276	-452	-15520	5024	-2984	1386	740	-487	-15456	1432	5808	623	-852	-8	128	131	8
-10716	-2216	13160	1125	-587	-1989	-13840	4664	-6336	22144	4335	-5065	-11904	-17120	-320	-3574	-8	-4	-12148	11576	10836	1570	2211	-3483	-20704	8320	-4120	1415	949	-410	-20456	-1312	3952	1199	-1252	-135	146	146	8
-11112	-4560	11448	638	-78	-1832	-15576	-1928	-4744	2570	5184	3297	-14712	-7096	-5784	-1229	441	286	-12196	11028	13028	2350	5131	-7440	-23768	5072	-5232	1153	1235	-464	-21648	-4592	5816	1099	-1840	-188	138	150	8
-11528	-5704	10552	1596	-1089	4	-12552	-2732	-5104	-5635	3432	-3916	-15816	-7344	-5392	-16	43	-13	-13340	11248	14424	4162	9336	-11733	-24032	4832	-6456	1537	1182	-502	-22672	-3192	5648	802	-2253	-232	146	153	8
-11532	-5260	10760	1802	-1317	364	-16692	-4220	-5068	1222	2508	-523	-17296	-6800	-4208	866	347	-49	-15624	11168	13648	6115	12596	-14593	-20896	6024	-5768	1847	1185	-650	-21896	-2064	3520	1352	-2354	-305	120	143	8
-11144	-3328	12832	1474	-961	892	-18096	-80	-6336	7191	787	297	-18856	-1248	-1000	1182	236	-81	-16252	10620	11336	5596	13192	-14735	-17000	5424	-10720	1251	1521	-921	-20376	-1128	-5080	2606	-1537	170	124	149	8
-11200	-2688	12564	783	-265	256	-16344	2476	-6992	3214	-323	445	-16904	232	-1112	986	454	53	-16404	8272	9256	1824	10046	-13833	-13824	2808	-13328	277	1566	-940	-20696	-1456	-6480	1122	-1406	599	130	147	8
-11012	-3184	12384	449	-430	-566	-16424	544	-5332	890	-1099	205	-17280	-168	-256	926	594	79	-6360	12884	12432	1457	4733	-9742	-13048	-880	-9752	14	1201	-645	-19536	-4368	-9640	500	-1526	646	130	145	8
-10888	-3608	12496	239	-342	-524	-16580	40	-4832	1216	-2015	158	-17000	-424	-384	679	668	139	-9588	13004	14772	-600	-9535	-5346	-11504	-2616	-6024	436	288	-154	-18960	-7192	-8368	464	-1491	300	132	148	8
-10996	-3900	12128	25	20	-636	-16668	-176	-4536	880	-2692	312	-16776	-2040	-736	334	664	270	5024	8612	11104	-1340	-16544	-3526	-10872	-3776	-528	797	-517	233	-17592	-4272	-5928	496	-1432	159	135	141	8
-11132	-3640	12068	-166	133	-472	-16324	96	-4076	-63	-3366	348	-16064	-2040	-664	276	704	312	6532	4320	10864	2074	-18373	-2771	-10192	-2776	-2664	857	-1231	538	-15816	-416	-5960	607	-1066	7	127	141	8
-11116	-3544	12052	-244	314	-336	-15940	312	-3472	-2046	-3750	284	-15856	-832	736	240	802	303	3656	7448	10444	4909	-19197	2012	-9152	-2464	-3792	574	-1806	712	-13568	-312	-5600	335	-710	-163	124	141	8
-11044	-3732	12000	-208	206	-331	-15940	392	-3348	-2239	-3840	211	-16528	-704	896	-64	889	369	104	8708	9004	3502	-19139	8180	-8680	-1048	-4984	-86	-2130	792	-14208	944	-6568	-194	-309	-110	125	137	8
-11036	-3484	11896	-116	47	-329	-16136	-108	-1740	-2613	-3958	250	-15752	-2552	1824	-60	875	395	-1916	7732	8736	3324	-16481	15189	-10408	-560	-6376	-1196	-2236	809	-13376	32	-7704	-911	-78	-95	136	136	8
-10896	-3908	12116	-53	-117	-370	-16032	272	-1420	-2191	-3769	246	-15336	-3064	1408	71	924	394	-6020	8096	8044	2610	-11735	22191	-10728	-472	-6464	-1369	-2254	787	-13320	-1048	-5224	-1307	-119	-191	133	132	8
-11020	-3520	11992	-49	-200	-350	-15656	532	-1484	-2966	-3399	7	-15768	-3344	688	369	871	351	-9984	7296	8560	1048	-6475	27475	-12680	-56	-9448	-2593	-2354	564	-13552	-720	-4880	-1832	-133	-146	130	129	8
-10992	-3540	11896	-38	-190	-279	-16200	-76	-1828	-2823	-3519	265	-15096	-2248	328	424	879	440	-14296	7180	9512	878	-2450	29658	-14464	1208	-10648	-2520	-2440	420	-13944	208	-3512	-1948	-297	-121	128	157	8
-11048	-3556	12108	-92	-76	-285	-16520	236	-2420	-2575	-3706	275	-14544	-2232	-712	518	950	388	-18552	9132	9308	969	-2026	28143	-14984	2792	-11152	-2020	-2547	397	-15152	88	-456	-1745	-2	-299	130	154	8
-11148	-3448	12340	-293	90	-418	-16864	600	-2908	-2532	-4138	556	-13200	-1448	-824	947	1146	367	-32768	32767	5460	-9309	-5296	19623	-13584	6648	-16976	-1552	-2416	489	-15712	-2152	5688	-1352	627	-480	136	150	8
-10996	-3436	12268	-546	323	-557	-16804	704	-3348	-4168	-4805	710	-10888	736	848	1709	1659	401	-32768	-31632	-32768	-8075	3198	-17104	-12160	5904	-32768	-3405	837	165	-20248	-1184	32767	-3823	-2049	116	138	146	8
-11276	-4492	11684	-677	790	-783	-17208	-956	-1616	-5070	-5309	1028	-18072	-2344	-1816	1346	2086	530	16040	4424	20032	-2789	-6427	8393	-22680	-2576	7128	-961	555	-428	-6024	-5584	-28216	2988	2870	-266	120	156	8
-11192	-3816	11436	-340	204	-716	-14132	1364	3468	-4237	-4352	943	-26824	-6912	-6712	136	803	630	-11372	19608	6632	-6982	-3430	-335	-11032	-9248	-6296	1536	-969	320	-30736	-6168	7320	1921	178	-140	134	138	8
-10908	-3064	12664	-570	745	-1301	-15360	212	7684	-3449	-1587	814	-19704	5752	8968	1420	-285	49	-9140	2564	13244	-229	-1051	1805	-28064	13680	-4272	2395	-752	800	-14032	5120	-4688	688	376	532	139	140	8
-10072	-7132	11728	-63	731	-654	-15496	-3488	7612	1068	687	1311	-19064	-1368	12792	149	-518	43	-8340	9992	12244	-1251	-52	364	-15312	4656	-3808	-3	-464	324	-21296	-848	6856	-616	597	237	137	126	8
-10664	-5356	11640	422	357	651	-15960	-1232	3732	4748	2020	1471	-17304	-752	5120	-1041	-95	-59	-10184	5784	11824	806	1921	1780	-15256	5176	-3592	-1538	181	56	-12904	1464	-1232	-233	535	-214	134	144	8
-10976	-4484	11868	389	373	1070	-16732	1596	588	1439	2969	1679	-15832	944	824	-797	68	-199	-9680	9584	9780	1316	1837	1417	-16632	5040	-7864	-1676	131	177	-18784	1888	-352	-1196	598	-238	129	145	8
-11088	-3436	12000	238	373	932	-15848	1256	-1288	-459	3300	1746	-16208	-1496	-2416	-483	-33	-154	-9708	8892	9724	836	1169	1105	-15376	320	-5472	-545	-285	130	-16312	-840	-1072	-980	738	42	125	128	8
-11252	-3244	11704	284	213	793	-15724	1088	-1856	947	3181	1416	-17432	-1248	-5168	-960	-180	-55	-9504	7652	10564	406	741	1001	-15832	2816	-5000	554	-690	427	-15744	272	912	-1159	645	186	119	109	8
-11248	-3200	12052	123	380	453	-16556	2284	-2360	2388	2783	1771	-15272	2760	-3776	-627	-264	-120	-9432	8460	10376	484	723	1488	-15024	6608	-3320	251	-538	393	-16008	-488	1496	-1303	620	112	133	119	8
-11160	-3524	11632	221	230	242	-15360	2412	-2520	716	2578	1323	-13600	2360	-2280	-486	-272	-141	-9116	8600	10400	251	683	1146	-14808	6520	-2032	-617	-267	251	-15784	-2128	2448	-1279	536	-15	128	124	8
-11288	-3444	11648	400	-12	193	-15188	1180	-2908	91	2151	959	-13800	880	-2240	-358	-33	-74	-9344	7888	10596	257	523	1059	-16144	4264	-2504	-915	-60	180	-15672	-2600	3440	-1159	465	-9	126	128	8
-11348	-3324	11432	531	-271	67	-15328	1088	-2956	166	2074	943	-14464	-776	-3136	-392	193	-27	-9104	8736	10404	523	569	1157	-16336	3488	-2472	-334	-224	248	-16216	-2656	2688	-763	437	42	136	123	8
-11216	-3524	11700	775	-492	106	-15880	1440	-2864	371	1097	694	-16416	-2000	-5696	-330	181	17	-9028	8848	10444	503	602	1104	-15384	5408	-2752	53	-290	312	-16160	-928	2200	-472	442	57	133	144	8
-11196	-3652	11892	816	-587	115	-16304	1568	-2964	475	565	552	-17096	-840	-6560	41	100	0	-9344	8860	10304	363	573	805	-15128	6552	-2376	-65	-211	277	-15856	408	2024	-498	381	83	130	132	8
-11108	-3552	12088	545	-362	-74	-17104	1844	-3000	98	107	575	-16496	-776	-4656	434	80	42	-9008	8932	10352	201	612	751	-14576	6680	-1744	-381	-65	173	-16048	-544	2048	-452	411	97	123	120	8
-11160	-3628	12076	382	-103	-143	-16736	1920	-2592	-597	-311	654	-15680	-1272	-2800	608	85	153	-9244	8992	10344	67	561	390	-15456	6480	-2616	-403	-16	168	-16424	-136	1672	-373	343	87	128	123	8
-11000	-3724	12056	301	-110	-177	-15948	1692	-2180	-898	-770	256	-15576	-1528	-1888	635	218	185	-9176	8828	9960	-162	474	187	-15320	5720	-2152	-389	23	125	-16088	168	1696	-418	250	84	134	126	8
-11108	-3696	11880	197	-82	-244	-16564	1360	-1780	-22	-1042	231	-16096	-280	-1872	609	405	177	-9196	8464	10468	-65	338	127	-15288	4824	-2288	-220	19	127	-15784	-1104	1976	-442	180	102	134	132	8
-11152	-3644	11848	207	-12	-222	-16244	1536	-1204	656	-1155	252	-16328	832	-1880	573	437	167	-9116	8336	10704	158	489	229	-15384	5960	-2000	-45	-2	137	-16472	-440	1656	-396	94	90	134	122	8
-11008	-3692	11904	125	-30	-253	-15940	1696	-856	496	-1060	172	-16520	1192	-1600	503	344	133	-8944	9236	10164	177	652	48	-15360	7232	-2248	-227	85	97	-16240	408	640	-346	109	75	129	130	8
-11044	-3668	11896	104	-51	-279	-15932	1504	-668	-344	-826	87	-16760	1016	-1064	328	213	96	-9092	8728	10244	132	634	-180	-15352	6104	-2736	-390	158	38	-16784	328	264	-375	119	104	128	126	8
-11016	-3656	11848	100	-72	-224	-16080	968	-428	-471	-552	70	-16704	816	-744	124	123	52	-9356	8800	10224	-10	553	-331	-15592	5592	-3528	-251	104	34	-16496	-144	-344	-327	126	105	127	129	8
-11032	-3772	11912	122	-68	-127	-16252	1200	-484	-222	-325	29	-17016	192	-504	-45	118	7	-9348	8664	10316	-133	406	-362	-15288	5584	-3608	-27	11	54	-16208	-80	-352	-247	141	118	129	125	8
-11128	-3712	11984	140	-81	-161	-16140	1320	-428	-436	-24	7	-16928	-96	-928	-134	106	-39	-9320	8708	10260	-239	294	-346	-15376	5864	-3360	-69	21	59	-16176	24	-736	-333	125	72	138	129	8
-11048	-3824	11896	286	-147	-15	-16064	1336	-296	-404	-11	13	-16400	-480	-1248	-186	72	-63	-9376	8676	10376	-243	308	-350	-15728	5616	-3288	-171	35	32	-15800	-504	-480	-268	165	57	140	130	8
-11156	-3544	12008	325	-169	-60	-16120	1212	-780	441	324	-73	-16344	-528	-2232	-194	50	-60	-9360	8512	10328	-234	267	-297	-15336	5176	-3096	-141	12	38	-15296	-512	-144	-269	218	98	130	128	8
-11152	-3644	12108	373	-132	-65	-16144	1388	-1020	1562	360	-47	-16064	-688	-2216	-109	24	-51	-9188	8844	10168	-283	241	-311	-15384	5968	-2976	-111	-10	43	-16072	304	-352	-355	301	110	122	130	8
-11140	-3604	11920	432	-150	-38	-16008	1616	-1532	1350	385	-165	-15928	-664	-2968	40	57	-46	-9228	8872	10164	-412	155	-396	-15304	6032	-3032	-176	3	23	-16328	184	-1048	-407	322	143	118	127	8
-11080	-3552	11840	394	-213	-42	-16188	1192	-1604	912	377	-215	-16016	-656	-2800	111	86	-18	-9384	8596	10352	-531	132	-463	-15536	5488	-2976	-163	-3	23	-16456	-480	-984	-425	334	106	140	127	8
-11064	-3636	11860	411	-236	-77	-16180	1288	-1776	494	205	-198	-15880	-728	-3304	122	93	2	-9312	8620	10336	-425	139	-371	-15688	5400	-3304	-104	-25	38	-15272	-712	-408	-334	425	69	126	128	8
-11028	-3612	12016	426	-322	-40	-16200	1348	-1740	-189	106	-232	-15968	-456	-3192	76	89	-5	-9356	8768	10216	-284	218	-347	-15536	5528	-2808	-110	-25	44	-14720	-904	-920	-229	618	90	130	128	8
-11060	-3600	12032	345	-238	-24	-16340	1076	-1636	-393	7	-181	-16080	-32	-3048	53	81	-9	-9356	8384	10368	-291	228	-319	-15200	5672	-2816	-111	-22	38	-16016	-896	-1120	-258	747	138	135	125	8
-11048	-3596	12008	259	-226	-73	-16248	1424	-1716	-1017	-118	-184	-15888	0	-2792	9	58	-16	-9268	8512	10304	-317	157	-256	-15352	6088	-2672	-106	-17	28	-17480	-344	-1392	-228	624	151	147	120	8
-11016	-3620	11968	227	-307	-42	-16248	1500	-1548	-1456	-209	-197	-15912	-88	-2864	-55	60	-28	-9228	8724	10356	-345	87	-352	-15240	6288	-2136	-60	-9	19	-18056	-24	-1936	-63	374	107	140	122	8
-10992	-3448	12104	167	-201	-75	-16256	1360	-1468	-1670	-340	-293	-16088	-216	-2632	-123	81	-38	-9264	8592	10252	-342	63	-555	-15304	5816	-2248	-10	-4	1	-16888	-912	-1416	116	273	123	133	125	8
-11048	-3492	12152	51	-64	-124	-16220	1348	-1504	-1595	-298	-310	-16224	-256	-2360	-134	100	-34	-9248	8604	10392	-400	73	-539	-15352	5760	-2712	63	0	1	-15560	-1064	-1016	323	272	148	124	133	8
-11000	-3728	12036	-18	8	-231	-16316	1388	-1068	-762	-463	-161	-16088	-624	-2576	-122	119	-42	-9408	8356	10396	-412	-6	-516	-15216	5744	-2520	75	1	-13	-16016	-272	-1392	531	369	136	123	139	8
-10964	-3700	12032	-10	12	-179	-16100	1204	-912	-1074	-353	-254	-16240	-632	-2400	-118	81	-36	-9340	8524	10188	-360	-16	-492	-15376	6000	-3088	69	6	-16	-16776	304	-1864	548	446	117	122	150	8
-11040	-3716	11980	-64	-13	-101	-16244	980	-1100	-1036	-318	-176	-16248	-760	-2384	-125	52	-27	-9332	8596	10336	-288	-37	-488	-15624	5728	-2976	119	-16	-25	-17232	904	-2744	347	275	96	122	141	8
-11016	-3760	11904	-46	-66	-84	-16196	1124	-892	-842	-324	-149	-16152	-960	-2536	-84	72	-43	-9296	8632	10320	-251	-68	-572	-15696	5768	-2888	199	-42	-23	-16832	1000	-2784	134	129	64	125	146	8
-11040	-3680	12088	-83	-17	-22	-16184	1468	-1116	-1195	-274	-270	-16128	-744	-2760	-30	82	-39	-9332	8464	10248	-275	-75	-629	-15408	5568	-2776	207	-40	-20	-15960	616	-2408	101	84	29	124	142	8
-11004	-3532	12000	-114	14	-80	-16184	1188	-1056	-1096	-254	-216	-16144	-776	-2648	-12	77	-24	-9308	8388	10384	-285	-7	-620	-15424	5856	-2800	115	-5	-32	-15832	-48	-2080	154	96	-11	125	141	8
-11004	-3688	12012	-53	-23	-72	-16184	1328	-896	-429	-222	-216	-16112	-504	-2304	0	66	-11	-9300	8472	10428	-354	37	-642	-15432	5424	-2912	30	25	-37	-15768	-72	-2624	93	102	-14	130	140	8
-11036	-3684	11892	-63	10	-94	-16180	1452	-960	-132	-168	-337	-15896	-440	-2336	34	48	-12	-9340	8496	10328	-319	61	-637	-15504	5480	-2944	13	29	-28	-16160	16	-2872	-21	90	-18	131	139	8
-11108	-3632	12084	-49	0	-79	-16168	1096	-960	144	-183	-299	-16072	-520	-2440	35	53	-18	-9276	8608	10408	-376	76	-671	-15648	5616	-3376	-9	23	-29	-16096	-88	-2888	-64	80	-9	123	139	8
-11040	-3696	12096	-125	130	-110	-16288	1468	-1064	129	-129	-273	-16136	-488	-2688	40	57	-19	-9416	8432	10512	-342	79	-758	-15696	5392	-3208	6	1	-22	-16040	-216	-2936	-56	86	5	129	137	8
-11144	-3656	12024	-174	208	-124	-16188	1064	-1124	-56	-121	-302	-15904	-648	-2800	15	50	-30	-9400	8332	10368	-211	161	-704	-15744	5080	-3248	46	-23	-17	-16096	-424	-3040	-13	71	4	128	135	8
-11160	-3568	12004	-93	150	-94	-16132	1128	-1092	-83	-50	-240	-16040	-744	-2376	-10	43	-33	-9396	8276	10500	-134	233	-654	-15560	5240	-3128	50	-30	-3	-15928	-664	-2888	11	71	-1	127	134	8
-11140	-3512	11920	-46	95	-86	-15908	1136	-1008	-374	40	-201	-15984	-712	-2848	-22	8	-40	-9504	8116	10524	-144	300	-488	-15568	5248	-3184	32	-25	-2	-15968	-640	-2992	19	55	4	129	132	8
-11168	-3556	12024	40	28	-94	-16064	1148	-1116	-203	132	-229	-15904	-736	-2656	-35	-17	-28	-9384	8200	10420	-103	238	-411	-15352	5280	-3168	20	-26	1	-15712	-456	-2960	14	25	6	131	130	8
-11060	-3564	11940	89	-28	-122	-16060	1120	-1104	-58	170	-186	-16000	-712	-2928	-25	-11	-28	-9508	8216	10316	-120	148	-333	-15288	5400	-2912	37	-32	8	-15944	-208	-2648	21	8	15	132	129	8
-11124	-3592	11956	128	-53	-108	-16200	1284	-1144	-42	154	-177	-16040	-912	-2752	-8	15	-22	-9496	8240	10348	-175	54	-280	-15232	5432	-2856	64	-30	3	-15920	-192	-2304	30	-7	19	132	127	8
-10952	-3648	11884	216	-103	-133	-16188	1192	-1204	-82	157	-163	-15952	-824	-2768	20	41	-12	-9436	8316	10300	-290	-1	-249	-15264	5592	-2560	54	-20	1	-16168	-120	-2216	37	-9	19	131	127	8
-11148	-3548	11996	215	-76	-148	-16204	1120	-1196	231	191	-226	-16048	-976	-3176	50	41	4	-9364	8376	10316	-321	31	-272	-15536	5480	-2392	31	5	0	-16240	-336	-2112	21	-3	19	130	127	8
-11096	-3740	11940	237	-85	-130	-16068	1204	-892	238	248	-141	-16200	-960	-2816	93	26	3	-9384	8356	10412	-328	21	-302	-15496	5352	-2512	-16	26	2	-16112	-456	-2480	-12	-9	19	130	128	8
-11044	-3664	11984	329	-143	-120	-16140	1172	-944	588	308	-184	-16064	-832	-2840	124	16	8	-9496	8304	10352	-263	117	-280	-15504	5432	-3192	-76	58	-6	-16096	-600	-2584	-29	-14	22	130	130	8
-11052	-3632	11988	341	-78	-163	-16256	984	-1084	1058	333	-132	-16024	-568	-2680	130	-1	9	-9476	8352	10344	-157	175	-183	-15496	5288	-3176	-35	39	4	-15984	-240	-2584	-20	-7	19	130	131	8
-10972	-3740	12064	312	-91	-131	-16216	1016	-1256	1057	363	-40	-16000	-784	-2584	101	-4	13	-9480	8404	10480	-144	115	-224	-15368	5640	-2808	12	13	11	-16064	-56	-2960	-22	3	30	129	130	8
-11016	-3636	12036	289	-126	-88	-16364	928	-1412	602	300	-9	-15960	-800	-3048	67	19	3	-9388	8328	10464	-203	63	-246	-15512	5480	-2936	29	6	5	-15872	-96	-2872	15	-20	28	129	130	8
-11008	-3628	12004	249	-106	-97	-16272	1144	-1488	39	237	-65	-15928	-816	-3424	40	14	1	-9396	8356	10376	-196	110	-235	-15584	5624	-3000	38	-6	5	-16048	-208	-2912	50	-37	15	128	130	8
-11084	-3624	12024	209	-106	-124	-16120	1324	-1464	-147	153	-30	-15640	-616	-3320	17	9	4	-9456	8332	10492	-219	74	-280	-15592	5448	-3344	19	1	7	-15952	-192	-2824	50	-43	17	129	132	8
-11068	-3660	11984	262	-112	-107	-16036	1324	-1252	-119	120	-76	-15928	-536	-3112	2	3	0	-9468	8228	10476	-210	68	-301	-15512	5160	-2792	31	-7	10	-15920	-408	-2648	43	-40	27	128	133	8
-11076	-3624	12052	258	-64	-187	-16340	1180	-1264	279	111	-77	-16280	-304	-2800	11	-4	1	-9424	8116	10484	-169	39	-259	-15400	5072	-3176	48	-13	18	-15752	-600	-2624	75	-42	17	128	133	8
-11000	-3580	12048	255	-104	-214	-16152	1176	-1144	620	90	-55	-15992	-448	-2800	42	-16	-2	-9416	8268	10436	-133	52	-167	-15480	5608	-3096	44	-15	22	-16040	-128	-2584	114	-35	12	128	135	8
-10924	-3712	12012	258	-76	-152	-16216	1148	-1100	727	68	-127	-15912	-856	-3032	61	-8	2	-9412	8368	10376	-153	83	-229	-15536	5640	-2984	6	-9	16	-16136	168	-3040	52	-18	33	129	137	8
-11108	-3544	11996	289	-53	-101	-16144	1212	-1348	661	58	-163	-15888	-944	-2864	69	5	6	-9476	8312	10352	-188	66	-210	-15384	5384	-2920	12	-16	6	-16152	-168	-2752	20	-32	48	130	132	8
-10992	-3620	12068	250	-61	-110	-16300	1060	-1440	924	-40	-120	-15784	-824	-3448	108	31	14	-9380	8396	10428	-180	34	-239	-15536	5528	-2768	12	-20	15	-15984	-16	-2432	46	-49	28	130	131	8
-11008	-3624	12128	274	-100	-116	-16220	1300	-1408	707	-109	-118	-15936	-592	-3392	138	27	19	-9400	8304	10432	-275	21	-285	-15464	5616	-3088	-10	-4	4	-16040	104	-2640	55	-59	18	131	133	8
-11064	-3604	12020	207	-129	-198	-16188	1044	-1424	254	-133	-139	-15888	-472	-3496	134	26	18	-9380	8316	10452	-286	-32	-361	-15400	5496	-3192	-19	-4	0	-15976	-24	-2432	18	-60	28	131	135	8
-11036	-3540	12064	250	-108	-170	-16144	1128	-1392	-56	-116	-157	-16008	-648	-2792	100	12	11	-9396	8164	10544	-305	-73	-356	-15336	5112	-2920	-11	-11	-3	-15984	-376	-2560	13	-69	25	130	135	8
-11012	-3536	12052	178	-55	-152	-16188	1196	-1156	-165	-93	-174	-16088	-560	-2656	71	0	9	-9424	8164	10524	-320	-77	-307	-15480	5264	-2976	35	-20	7	-15928	-376	-2568	80	-73	13	129	133	8
-11080	-3620	12084	159	-33	-167	-16212	1148	-1064	-323	-32	-149	-16104	-624	-2520	24	-11	1	-9440	8272	10448	-253	-51	-263	-15632	5560	-3112	33	-25	5	-16112	-288	-2592	104	-61	18	129	133	8
-10956	-3644	12028	182	-60	-153	-16148	1236	-896	-469	34	-185	-16152	-632	-2560	3	-15	-7	-9464	8244	10596	-224	-26	-267	-15616	5256	-2840	-11	-7	-11	-16064	-368	-2200	92	-66	36	126	132	8
-10940	-3716	12080	230	-70	-163	-16100	1108	-844	-86	69	-165	-16016	-696	-2416	-6	-16	-13	-9376	8188	10532	-171	47	-235	-15584	5432	-2968	32	-23	-4	-16136	-376	-2336	130	-70	41	127	131	8
-10964	-3548	12092	255	-32	-142	-16232	1144	-1012	251	88	-186	-16080	-752	-2816	19	-8	-5	-9448	8320	10464	-185	5	-254	-15536	5472	-3152	43	-30	4	-16016	-40	-2512	152	-61	42	127	130	8
-11016	-3580	12160	211	-49	-177	-16272	916	-1296	677	79	-171	-15992	-800	-2976	63	4	1	-9452	8172	10500	-163	24	-269	-15560	5168	-3176	26	-26	-3	-15944	-80	-2784	134	-54	46	129	130	8
-11052	-3640	12044	187	-13	-138	-16216	1124	-1364	641	72	-159	-15944	-1016	-2984	108	19	8	-9436	8188	10528	-121	25	-271	-15648	5304	-3168	47	-43	7	-16048	24	-2808	133	-56	37	125	131	8
-10976	-3680	12096	178	-54	-156	-16144	1012	-1340	236	43	-192	-15872	-1000	-3376	133	28	13	-9428	8168	10404	-163	49	-282	-15520	5448	-2976	29	-42	4	-16008	168	-2664	108	-48	25	125	131	8
-10992	-3648	12020	181	-16	-136	-16208	844	-1316	198	-12	-229	-15936	-768	-3280	114	19	26	-9436	8264	10400	-146	27	-256	-15472	5360	-2968	18	-41	8	-16000	96	-2448	63	-40	23	126	131	8
-10988	-3576	12052	147	-25	-84	-16196	1176	-1412	468	-72	-188	-15848	-784	-3232	115	21	23	-9388	8204	10556	-176	27	-203	-15632	5256	-2856	24	-44	6	-15896	-112	-2536	32	-33	20	126	131	8
-11032	-3508	12108	167	-52	-84	-16164	1288	-1500	117	-127	-193	-15856	-432	-2888	113	36	13	-9504	8196	10456	-131	22	-245	-15648	5248	-3064	14	-41	10	-16064	-232	-2408	20	-32	14	126	131	8
-11004	-3568	12192	130	-70	-171	-16176	1244	-1460	93	-77	-269	-16024	-360	-2928	88	28	10	-9384	8160	10528	-180	46	-222	-15552	5328	-2808	1	-36	10	-16008	-384	-2248	14	-38	7	126	131	8
-11036	-3540	12156	111	-10	-205	-16240	1012	-1164	401	-163	-213	-16144	-552	-2840	68	24	8	-9368	8184	10588	-131	78	-212	-15552	5288	-2736	9	-28	11	-15888	-352	-2024	31	-34	6	127	131	8
-10952	-3620	12068	131	-66	-200	-16200	1088	-1092	5	-90	-196	-15968	-648	-2744	46	23	-4	-9408	8184	10496	-136	60	-226	-15576	5296	-2736	8	-37	12	-15976	-360	-2384	43	-23	15	127	131	8
-11000	-3612	12192	130	-37	-168	-16172	952	-1072	-211	-66	-193	-15984	-816	-2704	21	22	-11	-9420	8156	10528	-162	59	-206	-15576	5312	-2816	14	-30	4	-15896	-136	-2200	40	-14	24	127	131	8
-10928	-3652	11964	141	-63	-110	-16160	876	-1148	-298	-58	-208	-15960	-976	-2960	1	11	-13	-9304	8216	10556	-199	11	-214	-15528	5296	-2704	24	-27	7	-16048	-232	-2272	45	-12	26	129	131	8
-10928	-3636	12040	151	-98	-73	-16136	1108	-1176	10	-71	-266	-16024	-896	-2944	11	20	-7	-9400	8252	10456	-173	6	-217	-15608	5264	-2792	19	-20	5	-16040	-208	-2248	44	-14	19	130	132	8
-10928	-3560	12064	146	-82	-149	-16320	1084	-1300	222	-152	-204	-15736	-712	-3328	42	33	-2	-9348	8268	10444	-186	23	-233	-15672	5360	-2920	21	-21	7	-16048	-104	-2064	36	-12	17	130	132	8
-11036	-3512	12100	100	-12	-127	-16252	1096	-1376	338	-142	-178	-16000	-704	-3088	76	45	12	-9352	8284	10648	-163	94	-268	-15656	5336	-2504	16	-10	4	-15952	-80	-2296	21	-4	14	130	132	8
-10916	-3588	12188	103	41	-147	-16300	1116	-1132	58	-171	-184	-16032	-784	-3152	101	49	14	-9344	8160	10568	-158	91	-309	-15648	5392	-2752	1	-3	0	-16160	-336	-2384	-6	10	13	130	134	8
-11008	-3604	12144	93	41	-180	-16272	900	-980	-112	-76	-238	-16144	-816	-2792	93	39	13	-9364	8232	10656	-136	101	-302	-15576	5288	-2656	5	-5	7	-16064	-328	-2248	-20	11	19	130	134	8
-11004	-3644	12024	97	1	-151	-16136	820	-892	48	25	-198	-16144	-896	-2616	84	25	5	-9396	8184	10476	-132	127	-303	-15584	5240	-2768	-2	8	3	-15976	-248	-2144	-14	5	15	129	135	8
-10972	-3684	12084	169	12	-110	-16176	732	-840	157	71	-169	-16144	-736	-2608	60	18	-4	-9380	8184	10548	-135	135	-261	-15480	5368	-2760	-13	17	0	-16040	-392	-2232	-8	-1	12	130	133	8
-10972	-3660	12028	151	-22	-101	-16144	1088	-952	214	140	-161	-15952	-760	-2840	34	9	-10	-9412	8184	10524	-181	129	-283	-15592	5400	-2816	-3	17	-1	-15984	-376	-2320	1	3	20	130	133	8
-10992	-3524	12020	168	-2	-116	-16232	932	-1160	237	193	-176	-15992	-640	-2856	14	19	-4	-9376	8152	10500	-193	143	-335	-15592	5256	-2720	5	13	5	-16016	-232	-2440	-8	7	23	129	132	8
-10972	-3560	12068	160	-5	-86	-16264	1012	-1336	297	90	-168	-15832	-736	-3320	5	28	-5	-9408	8212	10556	-205	59	-319	-15632	5240	-2888	3	11	1	-16040	-216	-2368	-17	7	16	128	132	8
-10972	-3568	12148	142	1	-105	-16192	1068	-1448	58	53	-129	-15768	-728	-3160	15	38	-5	-9404	8144	10560	-230	82	-310	-15568	5312	-3008	2	9	5	-16088	-192	-2280	-27	3	19	128	132	8
-10968	-3640	12184	130	-43	-100	-16176	976	-1340	-88	41	-104	-15784	-768	-3392	12	31	-8	-9424	7984	10520	-210	95	-318	-15672	5240	-2944	-11	20	5	-16000	-336	-2328	-34	8	13	129	132	8
-10952	-3612	12136	133	-15	-122	-16284	916	-1164	-18	-39	-116	-15936	-992	-3144	3	25	-9	-9384	8140	10540	-257	89	-293	-15584	5240	-2952	2	12	12	-16120	-400	-2424	-23	18	19	130	131	8
-11060	-3528	12156	116	-21	-104	-16260	1028	-1340	-138	-26	-146	-15840	-936	-3176	18	29	-1	-9380	8160	10716	-239	101	-270	-15624	5344	-2968	-1	13	10	-16096	-296	-2448	-22	19	18	131	130	8
-10984	-3604	11992	108	24	-115	-16240	992	-1280	-269	-40	-120	-15832	-736	-3096	21	21	-4	-9460	8140	10564	-156	140	-255	-15544	5336	-3176	2	9	5	-15840	-312	-2456	-11	19	21	131	131	8
-11000	-3680	12064	71	21	-132	-16220	928	-1120	-177	-6	-117	-16024	-800	-2944	17	18	-2	-9452	8156	10564	-186	155	-284	-15688	5336	-2848	4	10	11	-16040	-232	-2656	-13	17	25	131	130	8
-10952	-3576	12144	97	19	-79	-16104	1108	-1168	-75	-46	-56	-15952	-936	-3016	34	25	2	-9432	8076	10556	-152	169	-260	-15584	5288	-2872	3	4	11	-16040	-232	-2656	-23	19	24	130	131	8
-10992	-3556	12080	84	24	-106	-16256	1020	-1168	-22	16	-68	-16064	-800	-3104	28	23	7	-9380	8056	10552	-156	152	-272	-15520	5296	-2984	-3	7	14	-15936	-344	-2824	-28	12	20	130	131	8
-11008	-3604	12072	100	-18	-104	-16296	856	-1132	194	-25	-4	-15928	-824	-3096	21	21	6	-9444	8056	10492	-187	176	-247	-15544	5264	-2960	0	2	16	-16008	-152	-2792	-37	12	15	130	131	8
-10976	-3608	12116	115	6	-114	-16192	1000	-1284	-181	-1	-110	-15848	-800	-3232	26	33	3	-9480	8156	10600	-134	127	-234	-15696	5288	-2944	5	7	18	-15968	-240	-2824	-43	19	12	129	131	8
-11024	-3640	12044	54	17	-101	-16176	908	-1112	-229	3	-76	-16080	-864	-3144	10	28	-2	-9400	8176	10524	-137	148	-229	-15680	5208	-3088	0	5	17	-16056	-376	-2520	-41	33	8	129	131	8
-10992	-3684	12112	119	-17	-65	-16212	944	-1116	-193	33	-102	-15904	-696	-3120	1	17	-3	-9432	8084	10588	-126	180	-216	-15672	5208	-2872	2	-1	23	-16016	-304	-2680	-40	36	10	129	131	8
-11008	-3548	12164	102	-33	-104	-16172	952	-1196	-160	56	-48	-16016	-768	-3016	-15	2	-7	-9396	8168	10516	-97	143	-238	-15584	5184	-3176	14	-5	26	-16168	-296	-2616	-45	33	19	129	132	8
-10968	-3572	12092	98	-29	-103	-16228	884	-1292	-123	98	-33	-15984	-760	-3192	-25	3	-12	-9388	8116	10504	-137	166	-211	-15536	5256	-2920	17	-6	21	-15944	-200	-2472	-36	23	12	129	131	8
-11056	-3512	12100	133	-36	-115	-16244	952	-1228	-233	52	-33	-15912	-816	-3232	-23	3	-11	-9444	8116	10464	-107	194	-203	-15520	5136	-2784	7	5	20	-15976	-328	-2360	-34	17	17	129	131	8
-10980	-3676	12112	158	30	-66	-16300	960	-1236	-342	47	4	-16016	-960	-3120	-23	11	-7	-9448	8116	10468	-108	183	-206	-15624	5296	-2752	3	11	18	-15992	-328	-2856	-28	15	17	130	131	8
-10980	-3640	12068	136	-5	-92	-16196	952	-1268	-351	50	-10	-15904	-800	-3272	-12	10	-5	-9428	8092	10540	-107	184	-193	-15616	5328	-3080	4	8	20	-16016	-312	-2600	-29	20	14	130	131	8
-11048	-3608	12032	110	11	-100	-16300	988	-1104	-156	15	-26	-15880	-888	-3208	-5	13	-2	-9392	8144	10576	-50	215	-241	-15800	5256	-2792	5	9	22	-16120	-264	-2728	-30	23	19	129	131	8
-11044	-3588	12028	84	41	-95	-16260	940	-1300	-136	-2	7	-16032	-928	-3072	3	10	0	-9368	8152	10524	-96	185	-252	-15512	5208	-2976	4	8	25	-16152	-176	-2304	-24	21	19	130	131	8
-11028	-3748	12040	81	47	-61	-16224	952	-1184	-71	-8	-10	-16024	-736	-3136	3	8	-1	-9448	8084	10620	-78	190	-215	-15648	5224	-2936	2	10	26	-16088	-416	-2624	-26	17	15	130	131	8
-11024	-3628	12104	134	47	-97	-16148	956	-1260	-90	41	-2	-15992	-712	-3056	13	7	5	-9356	8016	10568	-84	214	-289	-15616	5424	-2904	1	10	21	-16120	-392	-2720	-24	8	19	130	131	8
