#Activity	sitting 
#ActivityID	5 
#Date 08-18-11-49
acc_rf_x	acc_rf_y	acc_rf_z	gyro_rf_x	gyro_rf_y	gyro_rf_z	acc_rs_x	acc_rs_y	acc_rs_z	gyro_rs_x	gyro_rs_y	gyro_rs_z	acc_rt_x	acc_rt_y	acc_rt_z	gyro_rt_x	gyro_rt_y	gyro_rt_z	acc_lf_x	acc_lf_y	acc_lf_z	gyro_lf_x	gyro_lf_y	gyro_lf_z	acc_ls_x	acc_ls_y	acc_ls_z	gyro_ls_x	gyro_ls_y	gyro_ls_z	acc_lt_x	acc_lt_y	acc_lt_z	gyro_lt_x	gyro_lt_y	gyro_lt_z	EMG_r	EMG_l	act
-10096	-3084	12940	181	-27	-138	-12792	0	-10264	-10	9	-35	-5096	-2156	15828	39	-98	173	-9704	3696	12192	-10	17	-26	-12720	3792	-10032	13	-3	16	-4896	2224	16152	16	3	4	126	121	5
-10160	-3040	12896	152	0	-148	-12772	160	-10200	-49	-18	-27	-5088	-2216	15836	58	-89	169	-9528	3712	12216	-12	16	-28	-12800	3688	-9760	10	-4	13	-4728	2256	16248	21	1	3	126	121	5
-10196	-3132	12892	170	-19	-140	-12808	56	-10292	-49	-14	-20	-5128	-2196	15756	69	-110	161	-9712	3840	12328	-11	15	-24	-12592	3720	-9888	2	0	12	-4800	2184	16200	23	-2	8	126	122	5
-10072	-3028	12880	152	23	-151	-12776	108	-10228	-3	-67	-47	-5124	-2176	15824	32	-138	179	-9656	3632	12416	-14	14	-25	-12880	3776	-10088	6	-4	12	-4648	2288	16032	21	1	5	126	123	5
-10124	-3048	12860	165	-15	-133	-12792	136	-10256	41	-63	0	-5004	-2116	15696	-7	-110	158	-9552	3752	12112	-13	11	-28	-12800	3896	-10080	10	-8	12	-4784	2392	16272	14	3	6	126	124	5
-10084	-3040	12864	127	-31	-152	-12840	80	-10180	99	-128	-19	-5112	-2096	15812	4	-126	144	-9600	3656	12384	-9	15	-28	-12832	3808	-9896	14	-10	8	-4848	2360	16192	16	0	7	126	124	5
-10104	-3112	12888	125	-1	-140	-12796	152	-10224	57	-86	-43	-5044	-2096	15676	-10	-110	129	-9552	3688	12640	-10	12	-27	-12752	3760	-10040	13	-7	5	-4760	2400	15840	18	-1	5	126	123	5
-10172	-3080	12884	142	12	-128	-12828	160	-10140	25	-72	-74	-4936	-2060	15920	-39	-153	118	-9624	3816	12520	-11	11	-29	-12824	3752	-9816	11	-9	8	-4800	2168	16192	21	3	4	126	123	5
-10072	-3000	12960	149	-10	-147	-12872	116	-10348	14	-48	-70	-5016	-2116	15816	-48	-137	129	-9672	3632	12176	-10	10	-26	-12768	3632	-9904	15	-10	10	-4896	2216	16120	23	2	7	126	124	5
-10108	-3164	12852	131	12	-118	-12864	116	-10160	-56	-59	-75	-4948	-2188	15848	-45	-108	139	-9544	3592	12312	-14	10	-26	-12848	3664	-9776	13	-8	11	-4760	2176	16200	21	6	3	126	124	5
-10140	-3092	12744	95	28	-147	-12848	64	-10236	-10	-34	-43	-4964	-2192	15892	-26	-96	179	-9600	3856	12400	-8	10	-29	-12936	3744	-9720	10	-11	15	-4904	1960	15864	26	3	0	126	125	5
-10104	-3060	12784	112	50	-148	-12876	92	-10224	13	-64	-99	-4912	-2188	15856	-14	-98	156	-9664	3576	12592	-9	12	-26	-12864	3704	-9736	10	-10	13	-4656	2040	16088	30	7	3	126	127	5
-10100	-3048	12944	136	70	-148	-12912	12	-10208	-8	-51	-74	-4920	-2264	15676	29	-128	177	-9488	3600	12592	-11	18	-26	-12864	3712	-10016	2	0	14	-4608	2128	15864	19	-1	0	126	127	5
-10128	-3040	12928	121	78	-110	-12856	140	-10280	21	-1	-114	-4884	-2268	15764	38	-61	205	-9584	3648	12432	-9	23	-27	-12776	3616	-9928	9	5	19	-4792	2088	16144	18	0	-9	126	126	5
-10184	-3120	12884	115	60	-125	-12848	104	-10160	10	16	-53	-4996	-2272	15792	51	-44	228	-9632	3696	12408	-11	28	-31	-12928	3728	-10120	8	4	22	-4776	2144	16048	20	4	0	126	128	5
-10176	-3048	12864	151	49	-145	-12876	44	-10212	-17	67	-70	-5016	-2240	15816	55	-99	211	-9704	3824	12304	-7	26	-33	-12888	3632	-10120	3	4	23	-4736	2288	16032	17	2	-1	126	129	5
-10084	-3144	12888	145	41	-120	-12808	44	-10312	-47	42	-62	-5088	-2248	15768	69	-144	192	-9696	3824	12408	-7	19	-28	-12760	3688	-10120	1	1	19	-4760	2144	16072	21	1	0	126	128	5
-10192	-3108	12760	139	40	-96	-12800	40	-10344	-68	64	-14	-5108	-2352	15840	67	-104	189	-9640	3752	12592	-8	24	-29	-12864	3752	-9992	8	-2	20	-4928	2280	16096	26	0	2	126	128	5
-10092	-3080	12840	159	36	-118	-12788	28	-10204	-14	26	5	-5104	-2248	15772	78	-77	188	-9664	3672	12576	-5	19	-30	-12832	3672	-10080	13	-4	19	-5008	2408	16152	29	1	5	126	127	5
-10096	-3044	12876	149	17	-123	-12792	28	-10272	38	-40	-8	-5188	-2196	15800	72	-58	206	-9496	3696	12464	-12	23	-28	-12616	3952	-9920	5	-4	14	-4792	2216	16336	26	1	5	126	127	5
-10112	-3084	12840	160	-37	-132	-12760	80	-10328	49	-63	-14	-5136	-2164	15860	50	-118	149	-9712	3736	12296	-12	18	-25	-12696	3840	-10056	6	-3	17	-4792	2344	16264	20	4	9	126	126	5
-10148	-3072	12784	145	-73	-93	-12828	-20	-10276	-11	-72	28	-5112	-2120	15724	28	-123	132	-9720	3592	12440	-11	11	-23	-12680	3800	-9976	15	-12	12	-4792	2168	15992	24	1	11	126	125	5
-10164	-3140	12944	155	-52	-123	-12768	140	-10264	18	-122	-2	-5084	-2168	15840	26	-130	143	-9704	3640	12296	-9	8	-28	-12720	3712	-9952	12	-9	10	-4752	2304	16040	27	-4	9	126	125	5
-10100	-3052	12868	125	-75	-116	-12752	128	-10344	16	-90	19	-5064	-2160	15876	37	-126	154	-9616	3816	12488	-15	11	-30	-12768	3728	-10112	7	-12	12	-4776	2224	16456	25	-2	13	126	126	5
-10080	-3040	12836	175	-81	-144	-12892	156	-10196	63	-106	-32	-5084	-2008	15828	-19	-121	157	-9664	3672	12648	-17	9	-31	-12800	3648	-10272	7	-10	7	-4632	2184	16272	24	-3	8	125	126	5
-10112	-3048	12856	155	-19	-141	-12908	204	-10204	60	-57	-58	-4980	-2008	15764	-30	-110	160	-9528	3648	12608	-14	11	-27	-12728	3640	-9896	14	-15	11	-4760	2264	16256	25	-1	7	125	126	5
-10132	-3064	12760	131	3	-148	-12796	176	-10104	53	-98	-80	-4976	-2104	15808	-41	-147	136	-9464	3616	12272	-13	15	-29	-12704	3768	-9984	10	-11	11	-4832	2200	16136	20	-5	1	125	124	5
-10176	-3016	12804	145	-26	-128	-12804	104	-10188	8	-35	-97	-4936	-2164	15740	-58	-125	154	-9544	3696	12360	-14	13	-30	-12816	3520	-9736	17	-6	14	-4792	2008	16184	25	-4	2	125	122	5
-10112	-3044	12864	109	-16	-159	-12824	136	-10260	-3	-37	-77	-4944	-2152	15808	-17	-121	175	-9520	3640	12464	-10	16	-28	-12792	3688	-9944	16	-11	17	-4752	2152	16096	24	-1	0	126	120	5
-10112	-3016	12836	164	28	-172	-12784	-28	-10268	-16	2	-44	-5040	-2280	15908	-15	-109	168	-9608	3680	12160	-8	18	-28	-12808	3736	-10128	6	-7	19	-4792	2184	16064	25	1	-3	126	121	5
-10084	-3036	12916	126	-36	-151	-12872	16	-10216	-4	-30	-80	-5020	-2228	15808	-16	-133	173	-9592	3720	12488	-7	16	-23	-12752	3912	-9888	9	-6	22	-4768	2120	16168	21	-2	0	126	123	5
-10144	-3084	12828	140	-45	-113	-12920	56	-10268	-26	-39	-68	-4992	-2264	15748	48	-142	188	-9560	3696	12392	-9	16	-26	-12744	3800	-9744	10	-3	20	-4776	2144	16184	21	-3	3	126	123	5
-10140	-3072	12856	127	-3	-124	-12852	64	-10200	-33	-31	-57	-5008	-2216	15796	28	-112	191	-9552	3704	12448	-8	18	-21	-12872	3712	-9944	12	0	22	-4768	2272	16024	23	-7	2	126	124	5
-10108	-3108	12872	123	7	-140	-12868	72	-10176	55	-36	-20	-5008	-2264	15828	79	-90	171	-9568	3680	12552	-11	20	-25	-12760	3744	-9976	9	-5	25	-4880	2256	15984	27	-2	-1	126	124	5
-10140	-3064	12828	146	1	-108	-12852	72	-10188	72	25	32	-4928	-2404	15732	106	-101	193	-9512	3680	12560	-10	16	-29	-12880	3752	-9936	10	-7	18	-4752	2184	16256	29	-4	2	126	122	5
-10124	-3088	12896	117	29	-154	-12876	56	-10280	4	-16	0	-5028	-2308	15768	95	-144	160	-9712	3640	12344	-13	19	-26	-12656	3896	-9928	8	-2	21	-4776	2384	15936	26	-2	2	126	122	5
-10160	-3016	12920	171	-36	-149	-12852	76	-10204	19	-18	39	-5084	-2240	15756	84	-89	162	-9568	3728	12368	-10	14	-25	-12792	3680	-9936	10	-10	21	-4808	2288	15896	27	-3	5	126	123	5
-10140	-3072	12852	197	-19	-154	-12872	100	-10168	25	-31	39	-5104	-2164	15884	75	-119	149	-9648	3712	12360	-13	17	-30	-12872	3680	-9976	6	-8	19	-4800	2272	16064	24	-3	4	126	124	5
-10116	-3016	12892	161	-12	-139	-12848	120	-10232	45	-29	66	-5084	-2140	15832	86	-89	139	-9680	3576	12472	-11	15	-30	-12776	3640	-10024	7	-10	20	-4720	2120	16096	31	-4	0	126	124	5
-10168	-3088	12864	156	-19	-158	-12768	144	-10236	53	-55	42	-5064	-2088	15852	44	-100	125	-9448	3616	12328	-8	16	-26	-12768	3752	-9984	8	-10	20	-4760	2320	16016	29	-6	2	126	125	5
-10140	-3040	12900	123	-17	-107	-12852	108	-10244	12	-33	40	-5084	-2140	15760	62	-130	165	-9696	3648	12464	-12	14	-28	-12704	3832	-9928	14	-4	18	-4752	2152	16264	34	-4	5	125	125	5
-10200	-3080	12844	145	-44	-132	-12876	72	-10240	-23	-47	10	-5112	-2116	15768	5	-149	122	-9544	3768	12320	-8	14	-29	-12800	3760	-10032	11	-11	17	-4768	2200	16120	31	-5	1	126	125	5
-10124	-3076	12760	81	69	-133	-12916	124	-10320	-56	-15	-56	-4964	-2176	15748	39	-103	227	-9592	3720	12616	-8	24	-27	-12832	3768	-9912	13	3	16	-4760	2216	16184	15	-1	-2	126	127	5
-10076	-3020	12800	78	47	-102	-12832	96	-10232	-78	-12	-73	-5048	-2164	15620	80	-123	189	-9568	3672	12288	-7	25	-31	-12712	3856	-9960	10	4	19	-4600	2288	16184	14	-1	-2	126	127	5
-10160	-3108	12796	115	30	-140	-12784	128	-10184	14	-12	-56	-5092	-2172	15828	45	-139	198	-9648	3800	12408	-9	24	-27	-12776	3792	-10040	10	6	11	-4704	2248	16312	16	0	2	126	127	5
-10048	-3084	12816	126	20	-131	-12828	28	-10216	29	1	-91	-5152	-2208	15764	-4	-132	201	-9640	3816	12248	-14	16	-29	-12680	3936	-9768	7	1	16	-4936	2200	16016	24	4	4	126	128	5
-10140	-3004	12932	96	15	-133	-12856	24	-10352	-16	-37	-76	-5184	-2236	15840	11	-105	201	-9696	3768	12368	-17	18	-29	-12840	3688	-9992	1	-2	6	-4944	2312	15952	20	-1	10	126	128	5
-10112	-3128	12788	140	-11	-146	-12836	44	-10236	7	-94	-79	-5140	-2232	15932	13	-151	224	-9656	3728	12544	-9	18	-25	-12720	3808	-10024	11	-7	5	-4848	2408	16216	23	-2	13	126	128	5
-10152	-3064	12880	99	1	-137	-12788	68	-10320	0	-95	-90	-5180	-2192	15768	-21	-141	222	-9720	3744	12184	-15	10	-27	-12728	3592	-10016	11	-8	10	-4728	2200	16208	26	-1	14	126	127	5
-10112	-3048	12820	164	-12	-131	-12800	76	-10256	-1	-113	-34	-5072	-2220	15708	24	-161	217	-9624	3752	12472	-14	7	-27	-12808	3736	-10040	12	-13	6	-4896	2256	16048	29	-2	13	126	127	5
-10144	-3056	12832	143	-35	-131	-12812	-12	-10248	3	-132	-33	-4984	-2176	15732	-4	-184	197	-9640	3616	12264	-15	10	-30	-12824	3696	-9712	9	-15	12	-4768	2088	16392	28	-1	10	126	127	5
-10096	-3040	12748	163	-60	-156	-12856	84	-10224	33	-106	-15	-5084	-2124	15852	-54	-177	134	-9536	3720	12432	-13	9	-28	-12880	3656	-9936	8	-11	15	-4760	2120	16040	28	-5	6	126	127	5
-10096	-3064	12928	126	-41	-108	-12836	132	-10160	10	-152	-17	-4964	-2128	15752	-33	-187	103	-9544	3664	12200	-13	9	-21	-12864	3808	-9856	6	-14	14	-4864	2288	16096	27	-3	5	126	126	5
-10124	-3076	12884	149	-43	-135	-12896	156	-10188	111	-117	-13	-4956	-2152	15800	-61	-187	81	-9568	3664	12472	-13	12	-24	-12704	3688	-9960	12	-14	14	-4640	2184	16264	22	-6	-1	126	126	5
-10088	-3012	12936	119	-12	-190	-12880	100	-10188	75	-84	-1	-4936	-2212	15720	9	-183	165	-9456	3600	12224	-10	9	-29	-12776	3688	-9856	15	-13	19	-4728	2432	16392	18	-7	-4	126	127	5
-10188	-3048	12836	142	-21	-148	-12856	144	-10200	-7	-44	-58	-4932	-2136	15816	20	-141	157	-9632	3776	12472	-13	15	-30	-12744	3592	-10024	18	-10	18	-4688	2264	16152	20	-4	-1	126	127	5
-10172	-3048	12848	119	3	-156	-12868	112	-10232	2	-81	-14	-4924	-2208	15772	-14	-132	143	-9712	3632	12416	-10	12	-25	-12800	3696	-9960	10	-4	16	-4744	2152	16304	22	3	-4	126	127	5
-10136	-3072	12896	85	-11	-172	-12888	140	-10200	-2	-9	-78	-4932	-2196	15808	-7	-98	150	-9696	3776	12312	-11	19	-30	-12824	3568	-10056	16	-6	17	-4816	2088	16336	24	-1	0	126	127	5
-10120	-3052	12928	120	13	-135	-12920	88	-10140	43	-77	-86	-4952	-2276	15880	25	-102	165	-9600	3688	12352	-15	13	-28	-12888	3704	-9960	9	-6	17	-4776	2304	16208	25	3	-6	126	127	5
-10160	-3060	12788	126	-8	-124	-12884	56	-10092	2	18	-86	-4976	-2244	15668	6	-126	220	-9632	3776	12216	-16	16	-28	-12960	3824	-9896	12	1	17	-4656	2176	16104	17	2	-1	126	126	5
-10048	-3040	12912	129	55	-77	-12840	64	-10052	9	-7	-76	-5040	-2300	15816	49	-113	195	-9688	3840	12512	-14	13	-26	-12816	3616	-10048	10	0	16	-4744	2384	16200	14	-2	2	126	124	5
-10144	-3080	12800	84	10	-128	-12876	60	-10120	7	18	-74	-5024	-2264	15780	55	-114	185	-9664	3728	12320	-11	12	-27	-12968	3720	-9760	10	0	16	-4664	2208	16256	24	2	0	126	125	5
-10144	-3072	12892	155	-22	-145	-12776	20	-10196	-4	-2	-68	-5100	-2260	15804	36	-121	225	-9592	3848	12456	-12	16	-29	-12816	3712	-10272	11	2	14	-4816	2168	16184	20	3	6	126	124	5
-10108	-3072	12932	137	-27	-101	-12880	48	-10136	-44	-1	-68	-5036	-2268	15772	87	-90	205	-9504	3752	12320	-8	21	-27	-12776	3840	-10088	7	-6	14	-4808	2256	16256	21	1	5	126	125	5
-10140	-3044	12748	146	11	-131	-12836	80	-10244	-43	-44	-4	-5072	-2296	15840	65	-90	169	-9680	3632	12368	-14	19	-26	-12736	3672	-10080	13	-5	15	-4816	2256	16008	19	1	9	126	126	5
-10148	-3100	12956	146	-19	-155	-12792	32	-10232	-25	-23	-25	-5072	-2300	15764	88	-106	173	-9512	3856	12520	-12	14	-29	-12656	3744	-10040	10	0	13	-4944	2312	16328	26	7	4	126	126	5
-10072	-3084	12888	145	-2	-136	-12872	-4	-10204	-3	-32	4	-5092	-2240	15768	42	-118	153	-9640	3752	12312	-12	12	-31	-12728	3632	-10184	13	-6	13	-4832	2032	16312	24	-4	4	126	126	5
-10148	-3072	12840	140	-16	-141	-12868	20	-10276	20	-32	21	-5112	-2128	15748	54	-129	132	-9680	3712	12440	-12	16	-29	-12816	3680	-9952	10	-6	15	-4784	2240	16392	24	-2	6	126	126	5
-10164	-3052	12900	127	-19	-135	-12772	96	-10240	20	-37	23	-5076	-2152	15836	-2	-123	124	-9704	3736	12424	-11	12	-26	-12816	3576	-10056	5	-5	17	-4944	2072	16160	23	-3	4	126	126	5
-10080	-3036	12972	147	-78	-150	-12868	56	-10300	-154	-4	2	-5048	-2136	15748	44	-107	149	-9616	3776	12472	-12	9	-29	-12736	3704	-9792	4	-9	18	-4872	2080	16120	27	1	5	126	126	5
-10152	-3056	12920	149	-85	-124	-12796	116	-10092	-108	-70	-50	-4872	-2184	15864	32	-91	142	-9616	3752	12328	-7	10	-30	-12904	3736	-10048	12	-5	14	-4808	2280	16072	29	4	5	126	125	5
-10164	-3028	12804	141	-31	-138	-12896	92	-10256	-19	-26	-24	-4940	-2212	15828	26	-97	188	-9624	3688	12272	-12	13	-25	-12728	3664	-10072	15	-4	17	-4592	2128	15960	31	7	2	126	125	5
-10160	-3024	12768	121	-19	-172	-12920	76	-10144	6	-27	-15	-4816	-2128	15812	-19	-70	171	-9560	3712	12176	-6	17	-29	-12768	3648	-9920	9	-5	20	-4528	2232	16424	27	4	-1	126	126	5
-10084	-3056	12820	124	4	-122	-12908	124	-9968	15	13	-85	-4892	-2156	15764	24	-137	168	-9552	3752	12488	-6	24	-28	-12888	3648	-9808	4	0	22	-4712	2336	15760	11	-2	2	126	126	5
-10100	-3060	12848	135	1	-113	-12844	88	-10196	14	29	-67	-5004	-2216	15864	59	-109	211	-9656	3576	12440	-8	26	-31	-12792	3664	-9904	6	7	19	-4712	2280	16072	18	-3	-3	126	127	5
-10040	-3096	12876	134	24	-128	-12864	48	-10184	12	21	-78	-4960	-2168	15780	106	-91	192	-9624	3752	12528	-6	20	-33	-12672	3712	-10112	7	9	14	-4840	2256	16080	11	2	-2	126	127	5
-10112	-3044	12920	99	72	-168	-12824	16	-10324	0	73	-67	-5084	-2192	15884	79	-99	211	-9704	3648	12416	-12	23	-30	-12776	3792	-9800	8	6	16	-4872	2248	16192	12	-1	1	126	133	5
-10056	-3088	12868	88	34	-116	-12880	0	-10292	-19	36	-78	-5088	-2236	15840	38	-138	173	-9736	3736	12176	-9	21	-25	-12688	3840	-9984	7	3	11	-4880	2192	16304	16	-3	2	126	133	5
-10180	-3064	12840	141	50	-141	-12824	20	-10332	34	-6	-71	-5152	-2180	15704	48	-116	236	-9800	3688	12312	-10	18	-30	-12800	3832	-10232	14	-3	15	-4928	2232	15912	24	3	11	126	130	5
-10220	-3084	12860	151	35	-156	-12784	28	-10428	7	-43	-26	-5128	-2204	15860	1	-119	202	-9600	3448	12528	-11	21	-32	-12784	3768	-10176	10	-8	9	-4832	2104	16224	28	1	10	126	129	5
-10184	-3088	12772	166	-11	-155	-12796	32	-10160	-47	-68	-19	-5116	-2228	15824	77	-129	216	-9528	3808	12288	-12	11	-26	-12728	3760	-10120	6	-8	12	-4944	2256	16064	32	2	11	126	128	5
-10120	-3036	12856	164	-26	-139	-12832	24	-10336	40	-136	-34	-5164	-2156	15744	4	-137	181	-9680	3696	12440	-13	13	-29	-12704	3744	-9928	9	-8	12	-4880	1960	16152	27	2	10	125	129	5
-10100	-3048	12884	130	-73	-161	-12856	96	-10144	9	-123	-17	-5016	-2228	15832	-16	-123	160	-9640	3704	12344	-10	9	-24	-12808	3664	-10120	10	-20	16	-4752	2144	16136	30	3	11	125	129	5
-10124	-3072	12884	170	-72	-139	-12880	-20	-10144	84	-81	10	-4948	-2244	15848	49	-135	145	-9608	3688	12352	-12	7	-28	-12856	3680	-9760	5	-13	14	-4728	2176	15888	33	-2	6	125	128	5
-10108	-3148	12928	182	-49	-150	-12804	92	-10156	38	-90	-14	-4928	-2268	15736	41	-135	131	-9664	3664	12296	-16	12	-20	-12824	3792	-9904	9	-12	18	-4744	2104	16304	29	-2	0	125	128	5
-10048	-3092	12868	180	-81	-164	-12936	120	-10120	64	-66	16	-4904	-2148	15824	31	-147	112	-9600	3704	12392	-12	13	-25	-12856	3760	-9704	11	-10	19	-4648	2208	16040	25	-6	-1	125	128	5
-10136	-3116	12932	153	-11	-99	-12948	164	-10068	72	-9	1	-4940	-2220	15824	-12	-123	141	-9688	3672	12432	-10	16	-24	-12840	3696	-10024	15	-7	22	-4760	2184	15976	21	-5	-1	125	127	5
-10052	-3024	12904	139	1	-132	-12884	220	-10208	114	-6	25	-4912	-2108	15792	34	-118	94	-9584	3648	12480	-6	19	-29	-12936	3672	-9752	13	-7	22	-4672	2304	16280	23	-3	-1	126	127	5
-10200	-3016	12936	140	37	-173	-12904	104	-10312	85	6	-12	-4992	-2172	15812	47	-83	178	-9488	3672	12512	-11	16	-28	-12768	3808	-9728	11	-8	25	-4736	2160	16224	24	0	-4	126	128	5
-10152	-3084	12792	174	24	-152	-12820	36	-10256	63	28	-13	-5068	-2112	15708	93	-130	183	-9720	3832	12352	-10	19	-26	-12800	3656	-9888	14	-7	24	-4592	2280	16304	22	-3	-4	125	131	5
-10104	-3048	12864	130	28	-132	-12796	68	-10268	78	44	-62	-5056	-2080	15848	48	-99	175	-9792	3712	12648	-12	17	-25	-12704	3640	-10016	14	-5	21	-4888	2400	16424	20	-3	0	126	131	5
-10108	-3044	12920	138	-22	-135	-12872	48	-10208	-23	5	-109	-5100	-2160	15824	-20	-90	199	-9688	3656	12360	-9	17	-26	-12816	3824	-9744	10	-2	21	-4768	2312	16152	23	-2	2	126	133	5
-10116	-3128	12892	120	8	-157	-12812	68	-10152	-51	-38	-73	-5072	-2244	15788	9	-104	183	-9640	3592	12504	-10	17	-25	-12688	3832	-10016	9	-4	17	-4608	2280	15960	19	-1	3	126	131	5
-10184	-3108	12840	108	18	-156	-12856	44	-10244	-25	2	-42	-5020	-2260	15748	-7	-113	189	-9728	3656	12464	-10	13	-25	-12840	3808	-9792	7	1	13	-4984	2248	16128	22	1	5	126	131	5
-10092	-3136	12868	136	4	-169	-12816	24	-10160	-20	-18	-38	-5052	-2248	15724	-7	-118	185	-9600	3672	12528	-12	16	-30	-12784	3768	-10168	8	-6	13	-4776	2408	16248	22	4	1	126	130	5
-10104	-3096	12804	142	-26	-123	-12860	92	-10152	-11	-65	-42	-5016	-2276	15752	38	-112	182	-9688	3664	12448	-14	15	-29	-12816	3672	-9864	7	-2	11	-4832	2280	16240	22	2	7	126	130	5
-10104	-3108	12904	154	-6	-138	-12856	16	-10300	-34	-23	-35	-5064	-2260	15804	87	-141	171	-9800	3672	12312	-11	11	-26	-12848	3776	-9888	8	-3	10	-4856	2288	16280	19	1	7	125	129	5
-10128	-3060	12936	154	-30	-91	-12888	32	-10224	-81	-42	-12	-4980	-2184	15844	24	-150	156	-9496	3864	12352	-11	11	-26	-12680	3624	-10072	11	-7	8	-4704	2048	16304	23	-1	4	125	129	5
-10120	-3140	12940	131	-13	-127	-12836	36	-10184	-70	-48	-10	-5084	-2240	15768	30	-114	173	-9704	3744	12344	-9	15	-27	-12768	3728	-10032	17	-5	10	-4888	2160	16040	22	-2	5	125	128	5
-10184	-3068	12828	137	-2	-137	-12856	80	-10244	-28	-49	-25	-5008	-2196	15768	-12	-128	166	-9552	3696	12328	-12	13	-25	-12784	3696	-10184	13	-9	14	-4832	2160	15928	25	-5	4	125	127	5
-10084	-3048	12764	146	-9	-114	-12792	68	-10252	-49	-47	1	-5076	-2228	15672	3	-159	153	-9696	3728	12424	-6	18	-25	-12696	3712	-10040	9	-9	20	-4760	2176	16248	24	6	5	125	129	5
-10104	-3020	12808	152	-63	-131	-12772	64	-10220	-9	-67	13	-4964	-2228	15892	68	-70	159	-9632	3736	12328	-11	11	-26	-12824	3712	-10016	11	-4	15	-4752	2208	16064	28	8	4	125	127	5
-10160	-3060	12844	152	-81	-164	-12792	52	-10208	-9	-71	-53	-4984	-2188	15788	46	-50	188	-9640	3736	12440	-7	9	-24	-12856	3752	-10056	9	-5	21	-4840	2224	16168	34	9	5	125	127	5
-10084	-3096	12884	172	-45	-98	-12896	68	-10116	-3	-28	-7	-4928	-2232	15848	59	-86	162	-9632	3720	12456	-8	16	-29	-12968	3776	-10176	6	-4	21	-4552	2160	16224	27	10	-1	125	125	5
-10056	-3088	12908	161	-18	-161	-12864	44	-10208	51	28	20	-4988	-2184	15864	1	-53	169	-9632	3728	12392	-13	16	-28	-12984	3768	-9704	4	2	24	-4744	2344	16208	32	4	-2	125	120	5
-10068	-3056	12968	102	66	-103	-12872	140	-10192	14	8	2	-5024	-2156	15836	60	-94	123	-9808	3560	12328	-8	24	-26	-12944	3696	-9816	6	6	19	-4672	2424	16336	9	-2	0	126	125	5
-10124	-3060	12812	113	28	-132	-12860	160	-10196	6	45	-45	-5024	-2168	15756	58	-59	162	-9752	3688	12440	-6	25	-31	-12816	3536	-9840	17	4	15	-4736	2240	16296	11	-1	-2	126	125	5
-10160	-3056	12852	136	52	-108	-12836	108	-10288	37	84	-60	-5088	-2148	15816	81	-95	166	-9608	3736	12536	-7	27	-31	-12768	3712	-9872	17	3	17	-4752	2200	16256	9	-3	-3	126	126	5
-10120	-3044	12956	119	64	-153	-12836	144	-10272	12	91	-88	-5124	-2104	15832	103	-126	203	-9824	3656	12320	-8	24	-32	-12696	3768	-10016	9	5	16	-4736	2320	16128	16	-2	2	125	126	5
-10140	-3076	12896	100	56	-119	-12864	40	-10364	-20	-18	-72	-5200	-2080	15832	112	-143	216	-9664	3744	12352	-14	21	-28	-12696	3696	-10232	0	0	13	-4848	2248	16128	26	0	8	125	127	5
-10104	-3072	12880	101	61	-127	-12776	64	-10312	-25	-32	-60	-5224	-2132	15896	28	-119	243	-9744	3728	12616	-6	17	-32	-12712	3760	-9904	10	-4	14	-4848	2328	16144	26	4	9	125	126	5
-10168	-3056	12852	110	10	-141	-12784	44	-10312	-84	-111	-90	-5172	-2148	15776	4	-132	178	-9632	3712	12264	-13	15	-27	-12720	3736	-10104	8	-7	12	-4864	2392	15928	26	2	8	125	127	5
-10192	-3068	12768	118	-2	-154	-12740	20	-10320	10	-96	-77	-5128	-2216	15712	-27	-138	219	-9720	3576	12384	-11	12	-27	-12768	3696	-9984	7	-16	13	-4992	2080	16216	27	6	9	125	126	5
-10176	-2980	12964	163	-66	-138	-12840	-12	-10228	29	-90	-74	-5064	-2144	15640	-37	-141	187	-9720	3648	12400	-15	12	-24	-12648	3688	-9824	8	-11	10	-4832	2032	16016	26	3	8	125	126	5
-10128	-3144	12864	108	-44	-139	-12868	64	-10096	-20	-43	-78	-5000	-2252	15764	-21	-105	185	-9696	3856	12432	-12	10	-25	-12816	3704	-9888	11	-10	13	-4792	2128	16160	28	0	10	125	125	5
-10124	-3036	12808	134	-28	-134	-12804	48	-10168	40	-82	-40	-4904	-2240	15864	22	-128	162	-9688	3688	12208	-8	10	-26	-12832	3744	-9984	9	-7	11	-4776	2224	16088	30	-3	4	125	126	5
-10084	-3088	12876	175	-29	-126	-12876	68	-10112	19	-99	-68	-4928	-2180	15860	-12	-150	179	-9752	3632	12568	-9	14	-32	-12824	3672	-9920	11	-14	20	-4736	2088	16168	25	-8	3	125	126	5
-10072	-3104	12856	131	-26	-127	-12896	44	-10192	-43	-94	-11	-4916	-2196	15772	-7	-118	162	-9552	3576	12112	-8	15	-27	-12712	3688	-9904	15	-7	15	-4768	2224	16160	22	0	4	125	126	5
-10096	-3056	12760	176	12	-103	-12848	-16	-10132	-40	-45	9	-4912	-2200	15744	14	-106	153	-9632	3584	12464	-9	15	-30	-12864	3680	-9992	13	-10	15	-4616	2240	15912	17	0	0	125	126	5
-10124	-3076	12864	116	-26	-115	-12820	132	-10224	6	-5	-19	-5016	-2188	15740	47	-132	119	-9648	3712	12544	-8	17	-25	-12640	3744	-10032	12	-6	17	-4672	2192	16168	25	0	-2	125	126	5
-10152	-3020	12912	161	-25	-155	-12840	4	-10188	45	27	-27	-5008	-2236	15856	16	-110	139	-9760	3640	12352	-7	16	-28	-12648	3736	-10272	10	-7	18	-4856	2248	16192	24	-2	-3	125	126	5
-10172	-3012	12900	134	-14	-110	-12844	72	-10172	27	6	-60	-5104	-2188	15608	17	-104	127	-9664	3656	12432	-6	16	-25	-12848	3856	-10048	10	-8	22	-4848	2256	16008	23	3	-2	125	126	5
-10080	-3060	12828	145	17	-149	-12868	48	-10132	-10	3	-32	-5088	-2200	15784	67	-105	173	-9736	3712	12384	-11	15	-28	-12744	3776	-9664	8	-6	22	-4720	2320	16120	21	0	3	125	125	5
-10116	-3060	12888	147	-1	-143	-12796	-28	-10296	-15	5	8	-4976	-2180	15868	50	-98	160	-9632	3672	12464	-15	11	-23	-12880	3768	-10000	10	-8	18	-4768	2264	16168	26	4	4	125	125	5
-10076	-3140	12856	137	-31	-130	-12868	28	-10200	-14	-22	-10	-5048	-2228	15764	44	-83	137	-9552	3648	12440	-8	17	-29	-12832	3776	-9808	15	-5	17	-4808	2280	16376	23	-6	3	125	125	5
-10132	-3096	12956	153	-3	-139	-12808	40	-10252	-23	-57	0	-5104	-2188	15764	26	-125	148	-9584	3680	12480	-12	14	-28	-12728	3808	-9960	10	-3	18	-4616	2224	15976	24	2	2	125	125	5
-10100	-3072	12816	129	-11	-129	-12836	52	-10284	-17	-49	-28	-4992	-2156	15844	47	-132	143	-9744	3728	12272	-13	10	-29	-12840	3688	-10048	12	-4	15	-4656	2352	16352	25	-1	4	125	125	5
-10144	-3068	12888	109	29	-142	-12860	72	-10168	51	-41	1	-5056	-2112	15792	60	-127	165	-9568	3680	12240	-12	12	-26	-12832	3800	-10032	7	-6	17	-4792	2216	16160	22	-3	7	125	125	5
-10164	-3072	12832	128	-24	-149	-12840	52	-10184	15	-54	14	-5060	-2140	15912	61	-153	166	-9632	3576	12320	-12	12	-30	-12752	3696	-10184	12	-9	18	-4880	2176	15992	24	-2	7	126	125	5
-10136	-3052	12884	158	-22	-145	-12888	84	-10096	-14	-72	-41	-5012	-2140	15816	16	-147	162	-9696	3656	12672	-9	13	-27	-12856	3552	-10032	10	-9	15	-4856	2112	16160	23	-2	4	126	126	5
-10064	-3068	12904	126	28	-104	-12840	16	-10204	-9	-31	-25	-5028	-2152	15832	32	-150	182	-9696	3696	12616	-15	15	-27	-12656	3728	-10008	11	-11	14	-4648	2240	16224	26	-4	5	125	125	5
-10120	-3092	12940	152	-60	-125	-12748	24	-10196	-2	-88	-41	-4976	-2164	15864	32	-155	152	-9688	3672	12456	-11	10	-26	-12808	3720	-10072	6	-8	18	-4704	2288	16296	25	-1	6	125	125	5
-10176	-3088	12848	147	-35	-149	-12904	72	-10140	-25	-63	-56	-4940	-2180	15816	23	-124	184	-9512	3712	12328	-11	8	-26	-12768	3632	-10112	13	-7	22	-4672	2344	16104	31	4	6	125	125	5
-10144	-3108	12840	117	-30	-146	-12804	44	-10188	9	-59	-52	-5000	-2200	15872	17	-103	175	-9616	3808	12416	-5	13	-24	-12824	3752	-9984	12	-7	17	-4640	2168	15968	27	3	6	125	125	5
-10136	-3044	12944	149	-53	-165	-12876	92	-10136	15	-27	-21	-4960	-2292	15768	-6	-88	176	-9688	3760	12368	-12	14	-28	-12984	3816	-9840	5	-2	16	-4528	2328	16160	32	6	1	125	125	5
-10024	-2996	12872	156	26	-155	-12936	148	-10104	95	10	-21	-4944	-2252	15744	-8	-97	145	-9696	3720	12312	-7	15	-31	-12888	3712	-9848	9	7	19	-4688	2160	16320	29	3	1	125	125	5
-10112	-3052	12960	147	71	-172	-12980	12	-10176	122	54	-2	-4988	-2252	15836	95	-142	145	-9544	3736	12304	-11	26	-29	-12880	3752	-9744	11	2	15	-4760	2328	16120	9	-6	0	126	125	5
-10044	-3124	12836	125	78	-120	-12868	68	-10204	24	101	-49	-5028	-2168	15800	144	-67	199	-9696	3568	12320	-8	25	-31	-12768	3800	-10024	11	9	15	-4712	2216	16160	11	1	-1	126	125	5
-10156	-3036	12924	136	54	-83	-12860	100	-10212	-23	61	-108	-5156	-2116	15880	134	-103	260	-9544	3832	12456	-13	26	-30	-12712	3800	-9960	13	6	16	-4840	2288	16216	11	-2	0	126	125	5
-10148	-3056	12784	114	58	-119	-12816	80	-10168	-112	36	-90	-5172	-2152	15752	101	-128	233	-9680	3672	12136	-12	23	-30	-12704	3760	-9912	12	2	15	-4904	2168	16184	14	-2	4	126	125	5
-10176	-3052	12836	92	66	-120	-12772	16	-10364	-75	-24	-46	-5188	-2212	15764	12	-160	175	-9592	3728	12448	-13	19	-32	-12824	3712	-9872	10	-1	12	-4792	2304	16496	26	3	8	126	125	5
-10160	-3104	12804	139	38	-145	-12796	-64	-10392	-3	-67	-44	-5116	-2188	15800	9	-102	194	-9608	3688	12280	-13	13	-25	-12648	3752	-10088	9	-4	13	-5032	2248	16216	32	-3	9	126	125	5
-10144	-3020	12896	139	-7	-129	-12748	52	-10220	27	-94	-17	-5132	-2208	15768	25	-90	221	-9664	3664	12488	-6	13	-27	-12848	3936	-10224	11	-10	13	-4840	2216	16336	31	-3	10	125	125	5
-10128	-3072	12748	133	-45	-155	-12780	68	-10236	30	-120	-41	-5096	-2176	15764	-3	-155	185	-9656	3848	12312	-13	12	-26	-12568	3696	-10080	9	-20	11	-4944	2264	16128	26	1	8	125	126	5
-10096	-2964	12820	123	-88	-161	-12760	28	-10176	-58	-83	-13	-4988	-2224	15824	-2	-164	192	-9712	3680	12504	-7	9	-25	-12760	3608	-9824	14	-16	13	-4720	2176	16080	27	0	4	125	126	5
-10076	-3072	12776	126	-72	-171	-12844	28	-10088	-10	-95	-12	-4964	-2296	15768	12	-115	143	-9592	3616	12392	-13	4	-24	-12832	3760	-10016	7	-12	16	-4720	2112	16008	27	1	6	125	125	5
-10164	-3036	12864	123	0	-156	-12872	84	-10056	-5	-58	-16	-5012	-2248	15856	42	-152	107	-9696	3720	12576	-12	13	-25	-12832	3640	-9712	3	-13	18	-4688	2304	16032	31	-6	4	125	126	5
-10132	-3064	12880	157	-55	-134	-12860	-12	-10140	0	-71	-6	-4972	-2196	15680	-1	-156	140	-9568	3616	12544	-12	12	-29	-12752	3584	-9848	9	-18	20	-4656	2032	16224	29	-8	-1	125	126	5
-10080	-3080	12916	143	-31	-92	-12864	100	-10160	4	-84	34	-4912	-2172	15808	20	-126	103	-9712	3808	12504	-9	12	-27	-12840	3808	-9840	10	-8	19	-4680	2224	16208	25	-2	0	125	125	5
-10156	-3072	12928	157	13	-121	-12904	104	-10188	16	-21	14	-4956	-2160	15812	13	-137	112	-9528	3760	12192	-6	19	-26	-12760	3648	-9752	10	-5	24	-4584	2208	16128	25	-6	-3	125	126	5
-10104	-3064	12892	142	-20	-116	-12832	76	-10288	17	-18	16	-5004	-2128	15772	69	-110	128	-9552	3576	12328	-8	17	-30	-12816	3712	-9768	15	-9	20	-4672	2304	16016	24	-2	-6	126	125	5
-10064	-3012	12912	168	-51	-125	-12856	68	-10140	0	-11	-13	-5040	-2120	15840	50	-120	124	-9648	3712	12464	-8	19	-30	-12752	3872	-9992	15	-7	23	-4656	2120	16160	26	-3	-3	126	126	5
-10168	-3052	12852	171	1	-147	-12800	80	-10260	-5	-16	-19	-5072	-2140	15768	67	-102	154	-9624	3664	12072	-9	16	-33	-12696	3824	-9896	10	-5	22	-4576	2256	16264	25	-2	-2	126	125	5
-10112	-3056	12944	153	14	-142	-12868	92	-10288	-51	6	-33	-5028	-2176	15684	58	-94	145	-9808	3664	12632	-5	11	-29	-12800	3680	-10088	9	-7	19	-4704	2200	16008	22	-3	-2	125	125	5
-10112	-3032	12816	128	1	-118	-12912	72	-10236	20	-24	-47	-5096	-2168	15804	68	-144	157	-9744	3736	12400	-12	16	-28	-12832	3752	-9960	8	-9	16	-4712	2152	15856	24	-1	3	126	125	5
-10068	-3044	12916	131	-9	-154	-12872	40	-10260	-46	0	-36	-5080	-2156	15820	30	-127	177	-9736	3648	12616	-8	13	-25	-12800	3904	-10008	14	-9	18	-4808	2360	16064	20	-2	3	125	125	5
-10092	-3060	12828	117	46	-157	-12824	76	-10176	-40	-25	-48	-4996	-2172	15832	77	-117	186	-9672	3760	12240	-11	14	-28	-12840	3680	-9912	14	-7	13	-4800	2192	16320	23	0	7	125	125	5
-10140	-3032	12768	155	-11	-131	-12824	36	-10052	36	-26	-12	-5032	-2208	15748	33	-126	184	-9552	3696	12288	-14	13	-28	-12744	3664	-9752	9	-7	13	-4744	2384	16480	23	-6	4	126	125	5
-10100	-3108	12856	143	-5	-117	-12836	24	-10332	27	-51	-63	-5052	-2152	15864	68	-118	201	-9568	3768	12392	-12	18	-29	-12712	3704	-9944	4	-8	15	-4968	2104	15928	25	-1	6	126	125	5
-10104	-3056	12916	153	-85	-151	-12880	-12	-10240	40	-43	-12	-5060	-2172	15856	27	-149	146	-9712	3632	12480	-13	17	-30	-12768	3816	-10080	7	-4	12	-4872	2280	16208	24	-2	6	126	125	5
-10168	-3040	12972	155	-21	-134	-12884	128	-10244	27	-10	-53	-5080	-2192	15872	35	-138	174	-9664	3568	12448	-12	12	-26	-12688	3704	-10088	10	-8	19	-4736	2312	16256	22	-2	5	126	125	5
-10088	-3080	12824	131	15	-141	-12868	32	-10220	39	-49	-43	-5044	-2212	15752	23	-107	165	-9704	3736	12432	-14	9	-26	-12720	3704	-10080	9	-6	12	-4880	2184	16072	28	-5	8	126	125	5
-10152	-3104	12864	137	42	-159	-12860	12	-10204	-5	-59	-38	-5084	-2172	15696	47	-159	196	-9712	3488	12400	-13	8	-24	-12848	3792	-9944	10	-7	17	-4752	2288	16136	29	0	5	125	125	5
-10164	-3068	12880	170	-6	-95	-12876	52	-10284	-54	-91	-64	-5036	-2240	15800	27	-98	177	-9568	3592	12432	-7	9	-30	-12824	3736	-9936	9	-8	13	-4744	2096	15992	28	3	4	125	124	5
-10144	-3068	12820	164	-16	-151	-12808	96	-10264	-4	-96	-35	-4928	-2224	15680	-8	-62	166	-9776	3704	12320	-7	14	-21	-12832	3824	-10072	8	-9	17	-4680	2312	16416	30	7	3	126	124	5
-10132	-3116	13004	141	-79	-165	-12864	72	-10188	-14	-31	-24	-4928	-2176	15752	20	-93	174	-9640	3728	12304	-9	13	-29	-12912	3704	-9672	7	-7	20	-4528	2248	16256	31	3	1	125	125	5
-10112	-3112	12872	141	9	-142	-12916	108	-10156	71	21	-14	-5004	-2192	15848	5	-110	165	-9640	3592	12400	-12	18	-28	-12848	3832	-9872	9	-2	18	-4544	2208	16216	27	-1	2	125	125	5
-10080	-3036	12896	124	23	-139	-12888	108	-10112	23	30	-30	-4944	-2236	15700	74	-100	166	-9632	3680	12320	-9	19	-29	-12944	3848	-9920	8	5	15	-4624	2440	15888	18	-1	1	125	126	5
-10092	-3092	12820	114	82	-105	-12896	128	-10184	-41	48	-62	-4964	-2112	15844	135	-75	187	-9688	3688	12440	-4	22	-30	-12728	3760	-9904	14	4	14	-4944	2272	16192	11	1	0	125	126	5
-10112	-3060	12908	113	62	-122	-12860	4	-10128	-23	38	-55	-5084	-2188	15804	84	-99	203	-9632	3664	12696	-10	25	-28	-12752	3792	-10088	10	4	15	-4648	2360	16080	9	-2	1	126	126	5
-10152	-3076	12796	137	75	-104	-12792	-16	-10244	-59	7	-74	-5100	-2204	15724	105	-170	220	-9696	3808	12480	-16	20	-29	-12704	3768	-10024	7	4	11	-4944	2272	16088	14	-4	4	126	126	5
-10172	-3020	12892	110	52	-123	-12824	28	-10284	-44	35	-74	-5144	-2200	15880	36	-119	164	-9536	3768	12416	-12	17	-30	-12856	3760	-10032	13	-3	10	-4808	2184	16264	24	-2	10	126	126	5
-10152	-3036	12836	136	13	-116	-12808	-68	-10252	-33	-21	-42	-5108	-2188	15804	9	-107	172	-9664	3728	12416	-17	14	-28	-12640	3616	-10024	13	-2	12	-4904	2224	16336	33	0	7	126	126	5
-10060	-3092	12840	150	-21	-134	-12896	76	-10300	12	-72	-50	-5164	-2260	15840	35	-117	201	-9816	3616	12352	-15	13	-26	-12744	3824	-10048	7	-4	12	-4816	2280	16208	27	0	8	126	126	5
-10140	-3040	12780	145	-22	-156	-12816	40	-10200	22	-90	-52	-5116	-2160	15848	8	-150	186	-9728	3688	12192	-15	14	-24	-12720	3840	-9960	6	-13	13	-4880	2144	16312	28	-1	5	126	126	5
-10100	-3080	12960	117	-13	-140	-12800	44	-10244	15	-95	-36	-5060	-2208	15812	-34	-176	173	-9672	3544	12392	-8	11	-26	-12696	3720	-10000	9	-10	17	-4744	2240	16160	26	0	5	126	126	5
-10096	-3048	12884	149	16	-100	-12856	28	-10208	13	-60	-27	-5048	-2192	15780	25	-132	114	-9632	3688	12464	-11	9	-29	-12736	3832	-10072	11	-11	19	-4760	2216	16016	25	-2	1	126	126	5
-10120	-3076	12896	145	-54	-143	-12868	40	-10228	38	-127	-34	-4944	-2208	15720	4	-145	152	-9560	3600	12488	-14	11	-29	-12848	3560	-10080	10	-12	21	-4752	2072	16080	28	-6	-1	126	123	5
-10144	-3060	12820	153	-4	-147	-12856	68	-10236	9	-73	-30	-4924	-2184	15852	-9	-134	120	-9584	3728	12456	-13	12	-26	-12944	3736	-9816	12	-11	15	-4856	2144	16152	29	-4	-1	126	122	5
-10132	-3048	12856	154	45	-149	-12932	136	-10192	-19	-62	-20	-4968	-2216	15832	-19	-150	118	-9520	3720	12488	-5	16	-22	-12744	3608	-10032	8	-14	21	-4808	2328	16088	28	-7	-2	126	122	5
-10104	-3072	12912	183	-51	-131	-12840	32	-10172	19	-62	-44	-5028	-2188	15812	22	-133	148	-9648	3728	12352	-9	18	-29	-12880	3736	-9840	11	-9	21	-4656	2248	16192	22	-5	-2	126	123	5
-10068	-3032	12812	143	-62	-122	-12852	88	-10216	42	6	-58	-4976	-2164	15816	49	-128	145	-9696	3616	12624	-7	17	-28	-12736	3776	-9912	11	-9	21	-4736	2392	16072	25	-4	1	126	123	5
-10072	-3052	12844	137	-12	-148	-12900	112	-10180	31	-20	-15	-4980	-2160	15668	62	-177	153	-9528	3664	12392	-9	13	-26	-12800	3904	-10072	7	-7	20	-4584	2192	16200	20	-3	2	126	123	5
-10148	-3016	12856	184	9	-140	-12872	20	-10088	20	-12	-28	-4952	-2196	15764	27	-126	151	-9600	3728	12360	-10	15	-30	-12752	3848	-9816	9	-4	20	-4720	2336	16200	23	0	0	126	120	5
-10148	-3088	12892	147	8	-144	-12828	64	-10148	9	0	-29	-5024	-2204	15820	42	-76	159	-9552	3688	12288	-8	13	-30	-12736	3664	-9680	10	-4	16	-4792	2168	16200	25	-1	4	126	120	5
-10204	-3104	12868	161	-31	-138	-12804	92	-10268	31	-5	-41	-5020	-2168	15720	25	-110	218	-9520	3728	12248	-10	14	-30	-12824	3800	-9960	8	-5	16	-4704	2264	16072	23	-3	1	126	122	5
-10056	-3056	12940	171	-30	-128	-12900	44	-10196	-1	-12	-19	-5076	-2212	15844	50	-164	180	-9696	3856	12360	-14	14	-30	-12776	3840	-9768	10	-1	12	-4752	2232	16248	18	3	3	126	123	5
-10088	-3024	12836	158	-70	-136	-12904	56	-10240	-30	27	-29	-5080	-2196	15980	45	-120	177	-9712	3648	12544	-8	11	-28	-12640	3736	-10136	13	-11	14	-4704	2424	16016	22	-4	3	126	124	5
-10084	-3048	12916	156	-57	-123	-12880	144	-10188	11	-32	-41	-5052	-2136	15936	34	-157	165	-9592	3760	12328	-14	13	-30	-12656	3832	-10224	9	-7	13	-4792	2432	16296	21	-2	4	126	124	5
-10100	-3048	12912	151	-18	-139	-12932	72	-10308	109	-21	-43	-5100	-2132	15896	-19	-141	161	-9584	3704	12216	-8	15	-24	-12792	3832	-10016	8	-1	8	-4808	2232	16120	23	-2	5	126	124	5
-10100	-3040	12876	129	27	-135	-12916	44	-10276	14	-23	-40	-5048	-2196	15812	19	-192	145	-9512	3672	12384	-14	16	-29	-12704	3776	-9904	8	-6	12	-4832	2232	16296	23	-2	7	126	124	5
-10120	-3064	12840	159	44	-143	-12724	16	-10212	36	-10	-67	-5076	-2216	15832	40	-148	186	-9592	3632	12280	-10	12	-34	-12704	3744	-9856	9	-7	11	-4800	2016	16400	26	-2	8	126	124	5
-10140	-3100	12856	123	23	-157	-12856	44	-10256	-8	4	-47	-5064	-2132	15812	46	-148	150	-9664	3616	12312	-10	12	-31	-12848	3680	-9856	11	-12	8	-4744	2008	16048	23	-2	5	126	124	5
-10148	-3120	12788	148	-2	-149	-12804	0	-10296	-5	-36	-26	-5056	-2196	15708	26	-199	187	-9616	3720	12296	-13	16	-28	-12784	3712	-9864	13	-7	19	-4896	2208	16352	26	-1	4	126	124	5
-10148	-3044	12908	159	-63	-129	-12756	116	-10200	-24	-121	-23	-4980	-2180	15756	20	-153	164	-9560	3704	12360	-15	14	-29	-12912	3712	-9976	7	-7	17	-4760	2264	16136	29	2	5	126	124	5
-10188	-3024	12824	112	-39	-178	-12784	32	-10120	-36	-115	-39	-4828	-2240	15824	1	-75	213	-9488	3648	12472	-12	15	-27	-12760	3648	-9832	10	-16	17	-4704	2184	16208	30	4	6	126	123	5
-10124	-3048	12868	130	-81	-132	-12848	0	-10056	22	-66	-10	-4932	-2228	15892	-11	-117	203	-9552	3720	12400	-8	15	-29	-12736	3688	-9952	3	-9	22	-4680	2176	16024	32	1	-1	126	122	5
-10084	-3092	12916	139	32	-168	-12996	68	-10108	29	-42	-43	-4928	-2288	15916	18	-60	159	-9544	3688	12232	-10	16	-29	-12912	3736	-10000	7	-9	23	-4584	2144	16312	35	4	4	126	123	5
-10100	-3120	12880	143	-43	-111	-12912	76	-10264	44	-14	21	-4956	-2268	15824	79	-114	149	-9632	3792	12360	-7	23	-24	-12808	3680	-9824	6	2	20	-4544	2288	16200	26	-3	0	126	123	5
-10076	-3028	12912	142	47	-130	-12824	48	-10060	-28	22	-10	-4888	-2188	15788	87	-73	187	-9544	3736	12304	-5	25	-36	-12928	3768	-9776	14	4	17	-4568	2272	16048	20	2	-3	126	124	5
-10032	-3044	12872	118	99	-138	-12872	64	-10204	-55	50	-57	-5000	-2120	15768	128	-30	180	-9680	3728	12320	-6	22	-29	-12864	3888	-10072	13	3	17	-4832	2256	16192	15	-1	-3	126	124	5
-10112	-3044	12836	146	88	-115	-12864	16	-10260	-90	68	-32	-4980	-2160	15776	132	-109	183	-9552	3696	12584	-7	20	-33	-12848	3904	-9984	6	3	21	-4840	2488	16248	10	0	-4	126	125	5
-10080	-3056	12864	124	71	-117	-12780	76	-10292	-17	16	-24	-5124	-2176	15756	70	-108	139	-9640	3736	12384	-8	20	-33	-12808	3616	-9920	9	6	13	-4952	2280	16320	14	-2	1	126	127	5
-10160	-3036	12832	137	49	-101	-12844	-28	-10132	8	13	21	-5092	-2140	15828	27	-64	157	-9752	3736	12224	-7	19	-27	-12720	3680	-10040	16	0	16	-4864	2224	16360	23	1	6	126	127	5
-10152	-3088	12892	151	32	-120	-12808	52	-10304	-1	-31	-31	-5140	-2144	15884	25	-95	145	-9608	3680	12560	-11	15	-26	-12784	3584	-9936	6	-7	10	-4816	2232	16256	28	1	7	126	127	5
-10140	-3020	12816	151	-15	-96	-12828	36	-10220	2	-21	-31	-5128	-2188	15752	58	-116	173	-9656	3696	12136	-8	12	-23	-12744	3592	-9648	6	-10	15	-4904	2216	16296	28	5	9	126	127	5
-10160	-3072	12836	149	-69	-112	-12804	20	-10244	26	-44	-5	-5104	-2140	15892	14	-114	175	-9600	3672	12296	-12	12	-25	-12840	3672	-10048	10	-6	11	-4832	2248	16240	25	4	8	126	127	5
-10164	-3052	12808	117	0	-174	-12868	112	-10204	-2	-73	0	-5044	-2140	15688	18	-97	171	-9520	3664	12472	-11	12	-32	-12816	3664	-9912	7	-12	13	-4768	2200	16328	30	-1	4	126	127	5
-10128	-3072	12764	151	-25	-122	-12884	44	-10208	9	-123	-16	-4984	-2188	15816	12	-107	183	-9624	3840	12240	-13	10	-27	-12760	3832	-9888	12	-13	16	-4704	2272	16096	29	-3	5	126	127	5
-10140	-3112	12804	179	-46	-151	-12836	24	-10180	-39	-102	-3	-4888	-2176	15760	-19	-106	189	-9928	3648	12432	-11	10	-21	-12736	3824	-9872	11	-10	16	-4792	2272	16104	30	-5	6	126	127	5
-10080	-3096	12804	174	-48	-125	-12884	56	-10184	-3	-68	-7	-4972	-2180	15844	-9	-158	181	-9816	3664	12480	-12	18	-27	-12784	3864	-10000	8	-14	18	-4712	2384	16128	24	-4	3	126	126	5
-10104	-2988	12820	155	3	-134	-12908	108	-10348	-21	-14	-26	-4964	-2164	15876	9	-159	122	-9536	3560	12368	-7	18	-30	-12888	3776	-9848	11	-7	19	-4680	2168	16256	27	-5	2	126	126	5
-10096	-3048	12784	169	1	-101	-12792	8	-10188	-19	14	-65	-4992	-2236	15852	59	-114	145	-9680	3680	12400	-10	25	-30	-12840	3832	-10040	6	-11	19	-4664	2328	16152	26	-5	2	126	121	5
-10096	-3044	12824	182	2	-151	-12816	104	-10300	-41	21	-35	-5048	-2220	15768	53	-136	154	-9648	3600	12176	-7	23	-32	-12872	3800	-9976	15	-10	17	-4800	2272	16184	24	-6	-2	126	120	5
-10132	-3096	12848	166	-36	-147	-12836	68	-10208	12	-3	-1	-5028	-2180	15788	43	-113	142	-9632	3688	12440	-9	21	-34	-12584	3824	-9896	15	-13	16	-4720	2160	15896	24	-2	3	126	121	5
-10148	-3048	12876	154	-55	-145	-12852	-24	-10284	-2	-37	11	-5088	-2132	15804	49	-107	150	-9648	3792	12200	-8	14	-28	-12592	3760	-9960	9	-16	14	-4744	2192	16192	30	-2	2	126	122	5
-10116	-3064	12924	145	-13	-133	-12780	32	-10284	24	-57	-9	-5056	-2160	15768	33	-81	110	-9672	3744	12352	-14	11	-23	-12688	3768	-10200	8	-6	17	-4624	2248	16200	31	-1	6	126	123	5
-10064	-3072	12800	175	-41	-142	-12768	4	-10148	9	-65	38	-5036	-2200	15916	32	-103	133	-9744	3576	12280	-8	7	-26	-12720	3680	-10056	9	-3	17	-4680	2232	15800	27	6	7	126	124	5
-10132	-3064	12848	134	-55	-135	-12924	76	-10176	-12	-61	-19	-5036	-2136	15828	45	-107	117	-9600	3712	12400	-12	9	-27	-12952	3792	-9960	9	-3	15	-4632	2312	16096	20	-3	7	126	124	5
-10076	-3060	12936	143	-37	-120	-12928	112	-10156	-59	-53	-31	-4992	-2140	15792	11	-111	128	-9464	3832	12552	-15	11	-25	-12920	3872	-9888	11	-5	13	-4712	2216	16120	18	0	4	126	124	5
-10084	-3016	12920	159	-1	-125	-12900	160	-10248	31	-18	37	-5056	-2196	15800	55	-124	167	-9624	3824	12440	-8	18	-27	-12752	3968	-9928	12	-7	13	-4704	2096	16160	19	-2	1	126	124	5
-10068	-3072	12944	161	-5	-134	-12816	136	-10216	-21	-3	-27	-5072	-2164	15764	73	-108	181	-9600	3752	12392	-11	16	-25	-12704	3880	-10048	11	-1	14	-4648	2208	16136	23	0	4	126	124	5
-10140	-3080	12924	150	7	-132	-12824	104	-10252	-3	-35	-73	-5008	-2108	15788	75	-82	161	-9624	3632	12312	-11	19	-28	-12800	3608	-9760	10	2	10	-4872	2168	15984	22	2	7	126	124	5
-10128	-3072	12864	120	-9	-117	-12808	60	-10172	-15	-50	-14	-5052	-2136	15768	61	-139	218	-9624	3688	12328	-9	13	-30	-12768	3800	-9960	12	-1	13	-4664	2288	16184	21	-1	0	126	124	5
-10104	-3120	12876	143	-3	-132	-12796	48	-10244	6	-26	-66	-5040	-2136	15816	61	-138	220	-9728	3680	12520	-9	14	-28	-12808	3792	-10016	9	-3	17	-4792	2224	16128	19	-3	6	126	125	5
-10116	-3064	12948	118	-5	-130	-12872	8	-10240	-41	-15	-39	-5036	-2232	15824	2	-102	182	-9792	3744	12192	-12	12	-28	-12720	3808	-9872	7	-4	11	-4688	2272	16336	21	1	7	126	125	5
-10104	-3036	12972	134	-54	-132	-12824	88	-10292	-41	-17	-53	-5052	-2148	15956	31	-108	202	-9600	3736	12288	-13	9	-27	-12840	3744	-9872	12	-3	15	-4688	2336	16016	22	2	5	126	125	5
-10156	-3068	12852	158	-9	-167	-12772	60	-10120	-40	-17	-49	-5072	-2236	15720	41	-75	212	-9624	3792	12392	-10	15	-27	-12800	3624	-9920	11	-7	13	-4688	2200	16088	22	3	3	126	125	5
-10120	-3068	12804	144	-46	-118	-12868	16	-10212	-21	-9	-31	-5000	-2212	15856	-2	-68	120	-9552	3792	12320	-12	14	-26	-12736	3696	-9792	8	-4	18	-4704	2152	16016	29	2	5	126	125	5
-10084	-3096	12836	155	1	-153	-12908	60	-10132	6	-2	-21	-4980	-2236	15816	26	-95	127	-9464	3760	12344	-12	17	-26	-12816	3752	-9936	9	-6	18	-4712	2176	16040	26	2	4	126	124	5
-10068	-3004	12828	173	4	-119	-12860	32	-10212	23	29	-29	-4976	-2268	15704	82	-102	153	-9744	3632	12384	-5	19	-33	-12720	3800	-9800	5	-3	18	-4520	2400	16280	19	-1	0	126	125	5
-10156	-3028	13008	155	76	-160	-12852	104	-10180	-48	64	-16	-4972	-2192	15656	78	-114	164	-9616	3808	12544	-11	19	-30	-12784	3744	-9952	14	0	21	-4632	2408	16280	15	2	1	126	125	5
-10160	-3084	12876	158	83	-113	-12868	76	-10252	-44	22	-37	-5016	-2164	15800	87	-106	198	-9664	3616	12456	-6	23	-31	-12792	3872	-10016	12	3	13	-4832	2328	16008	10	-3	3	126	125	5
-10104	-2996	12868	141	30	-80	-12824	56	-10276	-52	50	-27	-5048	-2152	15816	103	-183	133	-9672	3632	12328	-14	18	-30	-12768	3920	-9896	10	5	12	-4784	2344	16584	16	0	-2	126	125	5
-10116	-3040	12764	140	40	-142	-12784	32	-10240	-58	51	-40	-4988	-2016	15872	67	-157	142	-9656	3584	12176	-10	21	-28	-12888	3768	-9992	11	-3	17	-4920	2232	16024	23	1	4	126	125	5
-10152	-3068	12888	136	81	-119	-12828	48	-10256	12	-36	-15	-5132	-2116	15812	31	-89	140	-9592	3680	12376	-15	17	-25	-12824	3720	-9952	11	0	13	-4880	2320	16312	25	3	4	126	125	5
-10200	-2996	12856	146	-8	-148	-12808	92	-10208	23	-56	-46	-5140	-2156	15868	-5	-104	123	-9752	3712	12408	-12	15	-29	-12784	3912	-9888	16	-7	13	-4872	2160	16192	22	-1	5	126	125	5
-10144	-3040	12844	154	21	-177	-12824	148	-10444	7	-66	-16	-5116	-2232	15788	-16	-144	171	-9600	3680	12408	-18	11	-25	-12600	3752	-10264	10	-4	10	-4672	2200	16264	17	1	3	126	124	5
-10088	-3084	12904	136	-19	-171	-12832	136	-10236	26	-72	-8	-5104	-2200	15748	1	-122	141	-9760	3752	12328	-14	9	-22	-12744	3752	-10032	6	-5	7	-4840	2168	16440	19	2	7	126	125	5
-10160	-3040	12840	110	-52	-137	-12812	80	-10264	28	-102	-50	-5084	-2188	15828	11	-153	168	-9560	3608	12416	-11	8	-28	-12856	3720	-10192	10	-10	12	-4856	2216	16304	20	3	8	126	125	5
-10152	-3036	12896	131	4	-155	-12824	108	-10292	4	-89	-47	-5020	-2180	15828	-4	-148	192	-9688	3704	12480	-9	10	-25	-12976	3584	-9912	12	-8	10	-4856	2160	16136	32	3	9	126	125	5
-10168	-3064	12896	135	-31	-140	-12824	76	-10092	16	-78	-29	-4944	-2232	15716	-43	-172	187	-9744	3744	12528	-13	12	-25	-13024	3760	-9776	8	-13	11	-4712	2032	16008	31	0	9	126	125	5
-10064	-3024	12880	152	-7	-116	-12820	60	-10300	-34	-73	-61	-4964	-2220	15824	3	-130	184	-9736	3584	12376	-16	12	-31	-12792	3656	-10088	9	-5	13	-4808	2112	16200	28	0	4	126	125	5
-10136	-3048	12844	96	21	-108	-12844	20	-10116	56	-54	-26	-4964	-2228	15672	55	-137	204	-9584	3600	12344	-7	16	-29	-12784	3704	-9888	10	-6	13	-4704	2024	16224	26	-6	7	126	125	5
-10144	-3084	12824	123	-66	-110	-12860	60	-10144	-22	-42	-45	-4872	-2244	15712	22	-135	171	-9648	3552	12320	-9	15	-27	-12720	3792	-10040	12	-5	15	-4744	2216	16160	28	-3	2	126	125	5
-10148	-2964	12740	156	-10	-162	-12828	64	-10216	-3	-41	-17	-4928	-2252	15776	38	-123	198	-9608	3736	12448	-10	15	-24	-12872	3792	-9840	15	-8	19	-4632	2248	16312	25	-2	3	126	125	5
-10112	-3036	12848	135	-15	-133	-12888	-8	-10208	11	0	9	-4964	-2248	15772	69	-126	186	-9504	3720	12232	-10	17	-29	-12752	3792	-9944	11	-8	15	-4712	2216	16280	22	2	-2	126	125	5
-10092	-3016	12880	139	-38	-104	-12880	80	-10252	14	-3	10	-4996	-2284	15832	57	-76	160	-9640	3736	12408	-8	18	-25	-12768	3672	-9984	8	-8	24	-4728	2312	16152	20	-4	1	126	125	5
-10068	-3052	12892	148	-36	-145	-12868	48	-10172	-29	-30	-36	-5020	-2144	15820	79	-106	186	-9720	3656	12256	-15	16	-28	-12824	3800	-10024	9	-2	18	-4632	2312	16352	26	-3	-1	126	123	5
-10160	-3044	12800	163	-3	-136	-12780	140	-10200	17	5	31	-5040	-2244	15792	62	-82	179	-9536	3744	12128	-11	15	-27	-12832	3728	-10088	13	-5	20	-4536	2280	16120	23	-3	0	126	121	5
-10068	-3076	12776	168	-28	-134	-12816	84	-10296	38	-52	-4	-5084	-2104	15744	69	-142	144	-9592	3680	12320	-8	13	-28	-12536	3648	-9960	8	-12	15	-4752	2376	16264	23	-3	1	126	121	5
-10144	-3016	12796	132	-34	-144	-12800	88	-10284	9	-28	-8	-5028	-2136	15864	37	-143	115	-9512	3672	12472	-10	13	-25	-12808	3680	-9680	11	-10	19	-4784	2368	16240	25	0	2	126	122	5
-10092	-3052	12936	199	12	-142	-12824	0	-10232	-24	-49	-30	-5116	-2124	15868	55	-104	147	-9624	3528	12576	-11	11	-28	-12760	3912	-9808	11	-6	20	-4760	2256	16400	25	-2	1	126	123	5
-10076	-3032	12848	139	-37	-144	-12868	152	-10284	-2	6	-20	-5112	-2184	15792	38	-112	113	-9688	3744	12408	-12	13	-30	-12936	3736	-9864	7	-6	14	-4752	2384	16088	22	-1	3	126	123	5
-10168	-3032	12876	145	-52	-133	-12904	84	-10176	3	-25	-16	-5032	-2080	15832	30	-117	151	-9688	3656	12112	-10	13	-27	-12912	3760	-10096	10	-8	19	-4752	2232	16280	22	-4	1	126	123	5
-10112	-3020	12888	122	-26	-122	-12856	124	-10232	-7	-62	-70	-5000	-2160	15960	6	-124	196	-9640	3688	12504	-10	12	-29	-12600	3760	-9992	16	-8	13	-4744	2240	16248	24	3	4	126	124	5
-10144	-3064	12852	130	-39	-104	-12840	92	-10156	-3	-66	-32	-5024	-2104	15748	13	-116	158	-9648	3672	12320	-13	14	-27	-12752	3728	-10008	7	-5	17	-4744	2192	16280	30	-4	1	126	124	5
-10152	-3044	12824	121	2	-160	-12832	20	-10144	-6	-75	-60	-5052	-2172	15740	37	-172	172	-9656	3720	12424	-10	10	-24	-12672	3736	-10040	9	-13	15	-4704	2216	16200	27	-1	3	125	125	5
-10196	-3016	12960	156	2	-129	-12792	124	-10232	-3	-41	-38	-5064	-2216	15840	41	-131	156	-9848	3704	12312	-5	13	-26	-12704	3832	-10032	11	-9	19	-4688	2272	16192	24	1	2	126	125	5
-10152	-3008	12848	128	16	-163	-12816	108	-10224	27	-93	-36	-4928	-2140	15868	-1	-99	172	-9536	3608	12280	-8	11	-24	-12752	3720	-9936	9	-10	16	-4736	2240	16200	21	-1	4	126	124	5
-10140	-3028	12840	126	-54	-161	-12900	-32	-10196	-28	-44	-82	-4968	-2232	15920	-21	-74	150	-9648	3808	12544	-12	9	-30	-12816	3816	-10144	10	-9	17	-4744	2216	16168	26	4	1	126	125	5
-10084	-3040	12876	142	-26	-117	-12976	24	-10128	-16	-79	-26	-4960	-2224	16012	6	-111	112	-9704	3776	12464	-8	13	-30	-12976	3768	-9792	10	-7	14	-4648	2264	16512	29	4	-2	126	124	5
-10132	-3088	12736	122	59	-90	-12852	104	-10224	22	-29	-44	-4904	-2260	15760	30	-103	165	-9600	3728	12400	-6	18	-35	-12880	3744	-9984	6	4	17	-4760	2376	16192	15	-8	-1	126	125	5
-10080	-3008	12924	133	30	-152	-12848	80	-10092	-28	31	-84	-4968	-2232	15828	93	-70	174	-9640	3568	12376	-7	21	-31	-12832	3656	-10120	11	4	16	-4704	2312	16168	12	3	-4	126	124	5
-10080	-3092	12880	115	40	-87	-12868	88	-10220	-34	63	-69	-5044	-2168	15740	111	-112	135	-9816	3824	12256	-9	21	-30	-12696	3768	-10016	17	7	15	-4760	2336	15976	14	-5	3	126	124	5
-10124	-3056	12864	156	83	-133	-12836	84	-10272	-36	73	-35	-5048	-2112	15744	87	-115	180	-9784	3544	12464	-8	20	-33	-12600	3840	-9808	3	3	12	-4840	2408	16272	17	0	4	126	124	5
-10096	-3088	12952	98	18	-146	-12784	60	-10292	-59	38	-54	-5056	-2128	15756	61	-120	171	-9632	3696	12464	-9	19	-33	-12704	3824	-10000	7	-1	15	-4784	2088	16064	16	3	4	126	125	5
-10212	-3076	12912	154	60	-127	-12804	24	-10248	-21	-8	-59	-5132	-2152	15728	24	-34	170	-9728	3688	12312	-6	21	-30	-12672	3752	-9992	8	-2	11	-4848	2232	16128	21	5	4	126	124	5
-10108	-3112	12948	140	19	-105	-12820	48	-10292	-30	-46	-59	-5156	-2152	15824	14	-70	207	-9600	3600	12248	-9	17	-29	-12728	3632	-10120	14	0	13	-4832	2344	15960	23	1	8	126	125	5
-10216	-3044	12852	134	-35	-122	-12788	20	-10288	9	-91	-41	-5164	-2088	15768	8	-98	197	-9640	3768	12272	-14	14	-27	-12680	3824	-9976	11	-11	16	-4936	2200	16272	16	4	6	126	124	5
-10144	-3052	12908	132	-10	-126	-12780	40	-10284	2	-104	-69	-5168	-2164	15788	-24	-120	177	-9736	3592	12248	-15	10	-30	-12672	3704	-9984	6	-8	11	-4928	2184	16184	20	2	8	126	123	5
-10184	-3064	12904	146	-29	-156	-12832	20	-10328	-7	-69	-57	-5068	-2188	15672	-16	-155	187	-9784	3696	12368	-9	10	-29	-12760	3824	-9896	4	-11	12	-4912	2184	16032	26	-5	12	126	123	5
-10132	-3000	12864	155	-21	-124	-12860	80	-10196	-21	-103	-67	-5044	-2232	15772	38	-108	132	-9672	3816	12224	-13	7	-27	-12752	3760	-9960	2	-9	14	-4808	2096	15952	34	-3	6	126	124	5
-10108	-3072	12808	155	-36	-164	-12832	-16	-10272	7	-111	-26	-5000	-2208	16044	-1	-142	158	-9688	3504	12352	-13	9	-24	-12768	3656	-10016	14	-10	8	-4896	2120	16360	30	-7	4	126	124	5
-10136	-3020	12824	131	-41	-148	-12848	20	-10288	-5	-100	25	-4992	-2176	15780	-34	-157	151	-9520	3648	12424	-6	14	-28	-12944	3608	-10056	13	-15	17	-4760	2120	16224	27	-7	1	126	124	5
-10160	-3000	12884	111	-5	-167	-12832	56	-10140	27	-120	24	-4928	-2172	15788	-5	-155	138	-9664	3680	12528	-8	16	-23	-12760	3736	-9896	11	-12	20	-4688	2144	15984	28	-6	-3	126	124	5
-10104	-3076	12876	153	-68	-157	-12828	88	-10172	46	-81	-9	-4952	-2156	15644	5	-141	135	-9520	3768	12344	-6	14	-25	-12728	3800	-10048	12	-8	22	-4624	2208	16128	29	-6	-6	126	122	5
-10160	-3052	12912	146	1	-138	-12836	96	-10148	-1	-4	-52	-4932	-2252	15856	44	-177	153	-9648	3688	12416	-9	16	-27	-12872	3736	-9992	7	-10	19	-4616	2312	16152	29	-8	-5	126	123	5
-10140	-2988	12860	161	19	-156	-12824	116	-10036	8	-33	-14	-4956	-2156	15756	28	-116	148	-9416	3760	12296	-7	18	-23	-12856	3944	-9840	8	-7	22	-4704	2320	16080	25	-4	-6	126	124	5
-10164	-3032	12792	124	7	-146	-12816	112	-10140	-9	-20	-26	-4944	-2216	15860	69	-116	153	-9600	3576	12512	-8	13	-28	-12704	3792	-10168	9	-11	22	-4640	2272	16320	25	-3	-4	126	124	5
-10136	-3056	12852	131	-14	-160	-12840	80	-10088	-4	-34	7	-5004	-2208	15828	30	-133	174	-9760	3848	12376	-9	13	-29	-12736	3840	-9888	10	-3	20	-4744	2360	15992	27	-1	-1	126	125	5
-10124	-3032	12876	162	-10	-131	-12900	88	-10184	12	-7	-55	-5040	-2236	15768	77	-114	195	-9656	3640	12536	-11	18	-21	-12640	3928	-9960	8	-3	20	-4568	2408	16368	23	3	3	126	124	5
-10104	-3072	12772	167	22	-125	-12856	84	-10268	-24	-15	-40	-4968	-2208	15820	50	-128	146	-9712	3800	12488	-10	17	-23	-12720	3688	-9744	10	-7	21	-4688	2200	16200	21	2	2	126	123	5
-10164	-3040	12808	136	-18	-108	-12864	80	-10176	-5	10	0	-4976	-2148	15744	51	-76	160	-9688	3800	12272	-5	14	-28	-12792	3848	-10016	13	-2	14	-4744	2232	16064	20	6	0	126	124	5
-10100	-3052	12900	180	1	-151	-12748	132	-10148	-18	10	13	-4884	-2216	15732	46	-81	161	-9536	3704	12368	-10	14	-30	-12760	3632	-9712	12	-3	19	-4632	2320	16096	22	5	0	126	122	5
-10100	-3120	12860	155	5	-147	-12816	92	-10180	-24	16	-5	-4936	-2152	15760	-7	-112	144	-9656	3576	12160	-10	11	-26	-12792	3904	-9960	12	-2	15	-4512	2392	16256	19	10	2	126	122	5
-10088	-2992	12908	125	20	-121	-12940	92	-10212	21	71	-31	-5000	-2124	15820	99	-82	124	-9656	3760	12344	-10	8	-27	-12960	3896	-9944	16	4	12	-4608	2144	16016	17	14	1	127	122	5
-10112	-3064	12876	140	39	-115	-12912	56	-10244	-10	70	-54	-4948	-2192	15848	58	-87	102	-9400	3696	12504	-13	10	-32	-12760	3632	-9752	12	11	13	-4768	2232	16032	21	13	0	127	123	5
-10120	-2972	12832	131	59	-112	-12772	124	-10136	-66	98	-2	-4812	-2156	15844	55	-29	104	-9552	3800	12504	-12	9	-30	-12824	3632	-10072	12	4	13	-4792	2048	16208	8	19	-4	126	125	5
-10108	-3080	12824	122	75	-91	-12844	76	-10004	-67	134	-69	-4840	-2140	15856	61	2	102	-9712	3640	12536	-10	13	-31	-12768	3592	-9960	28	4	22	-4608	1856	16192	14	25	-6	126	125	5
-10128	-3088	12936	158	45	-104	-12832	36	-10148	-133	152	-75	-4824	-2252	15780	-6	23	93	-9696	3776	12360	-9	15	-27	-12840	3840	-9696	28	2	19	-4856	2104	16168	23	23	-3	127	125	5
-10108	-2984	12792	152	66	-95	-12760	24	-10216	-76	180	-10	-4932	-2264	15704	71	62	85	-9672	3744	12576	-10	11	-32	-12736	3624	-10024	11	8	23	-4760	2088	16328	29	21	-6	127	125	5
-10120	-3044	12856	146	84	-125	-12808	36	-10108	-111	225	29	-4968	-2324	15736	22	52	100	-9704	3720	12504	-7	14	-30	-12840	3624	-10032	8	9	25	-4728	2120	16032	28	24	-9	127	125	5
-10172	-2976	12996	139	77	-79	-12820	52	-10240	-109	280	9	-4948	-2312	15764	37	32	83	-9560	3704	12576	-8	16	-25	-12808	3696	-9928	19	5	27	-4920	2160	16320	25	17	-12	127	127	5
-10084	-3040	12868	182	25	-123	-12876	96	-10208	-141	305	12	-5020	-2392	15792	76	12	89	-9656	3672	12488	-7	23	-32	-12976	3632	-9832	24	10	30	-4992	1952	16136	30	11	-4	126	127	5
-10048	-3052	12892	173	43	-93	-12896	28	-10272	-71	334	49	-5052	-2492	15808	191	-40	105	-9464	3584	12416	-2	27	-31	-12776	3696	-10016	17	9	29	-4952	1992	16128	28	-1	-7	126	128	5
-10100	-2976	12960	131	155	-103	-12796	44	-10276	-159	331	105	-5172	-2520	15880	235	-58	98	-9624	3808	12504	-8	29	-29	-12648	3640	-9952	4	3	35	-4848	1936	16184	43	-5	-8	127	131	5
-10156	-3040	12752	187	139	-78	-12720	-12	-10384	-199	265	154	-5228	-2460	15732	197	-113	105	-9728	3584	12592	1	39	-31	-12768	3712	-10144	3	7	45	-4888	1992	16144	42	-11	-15	127	129	5
-10200	-3044	12860	155	105	-91	-12724	-72	-10484	-163	246	186	-5320	-2416	15736	383	-76	124	-9624	3528	12232	-3	36	-25	-12776	3808	-10096	-3	8	44	-5008	2128	16152	44	-18	-13	127	128	5
-10208	-3048	12876	187	100	-93	-12684	-40	-10472	-137	181	240	-5416	-2296	15728	420	-109	140	-9720	3680	12448	3	36	-27	-12768	3760	-10016	-9	-3	48	-5128	2168	16496	54	-24	-7	126	124	5
-10184	-3016	12816	212	7	-90	-12644	4	-10456	-112	98	267	-5472	-2288	15792	424	-175	173	-9720	3632	12480	4	34	-28	-12728	3760	-10336	-5	-9	48	-5040	2328	16240	61	-28	-1	127	142	5
-10240	-3036	12904	229	-61	-72	-12596	52	-10612	-83	-6	234	-5404	-2192	15672	372	-177	180	-9664	3672	12304	4	35	-27	-12512	3880	-10048	-10	-16	46	-5128	2288	16208	66	-22	-1	127	144	5
-10252	-3000	12844	237	-142	-104	-12652	40	-10436	-147	-96	303	-5360	-2084	15872	316	-176	176	-9704	3752	12440	4	23	-26	-12688	3944	-9848	-15	-22	48	-4968	2456	16248	75	-18	-1	127	141	5
-10188	-3040	12788	221	-185	-140	-12636	144	-10556	-77	-184	284	-5288	-1988	15844	286	-156	172	-9704	3816	12328	2	19	-20	-12696	3872	-10040	-18	-29	49	-4936	2416	15968	78	-22	2	127	139	5
-10168	-3040	12832	205	-157	-117	-12736	248	-10324	-18	-252	289	-5228	-1852	15804	288	-153	153	-9680	3728	12552	-3	20	-22	-12768	3992	-10152	-11	-34	45	-4712	2576	16160	86	-17	5	126	139	5
-10152	-2984	12856	178	-194	-177	-12776	256	-10220	28	-267	240	-5092	-1800	15916	274	-191	141	-9640	3576	12200	-4	13	-27	-12800	4008	-9728	7	-36	41	-4704	2592	15920	80	-18	-5	126	136	5
-10088	-2964	12772	160	-169	-179	-12900	272	-10324	12	-203	225	-4964	-1772	15792	229	-197	118	-9800	3776	12304	-3	14	-26	-12696	4040	-9928	5	-30	34	-4520	2688	16128	51	-21	3	126	135	5
-10116	-3028	12940	144	-34	-195	-12844	368	-10220	-75	-214	103	-4888	-1720	15892	137	-173	174	-9552	3912	12256	-6	13	-25	-12912	3960	-9672	-6	-21	29	-4376	2624	16032	37	-26	5	126	135	5
-10116	-3048	12948	147	-92	-153	-12784	332	-10240	-19	-201	86	-4856	-1700	15864	41	-183	164	-9600	3696	12568	-1	12	-29	-12800	3896	-10056	8	-22	25	-4544	2624	16072	31	-25	4	126	133	5
-10148	-2992	12924	142	-14	-125	-12776	352	-10168	12	-85	-15	-4864	-1744	15760	10	-203	164	-9640	3712	12448	-9	11	-22	-12736	4096	-10072	14	-17	16	-4600	2680	16192	27	-23	1	127	137	5
-10148	-3004	12908	147	-43	-136	-12764	440	-10220	15	-57	-39	-4944	-1756	15860	-17	-211	184	-9616	3728	12224	-10	14	-27	-12792	3816	-9728	11	-11	15	-4432	2704	16152	15	-24	-2	126	141	5
-10116	-2964	12920	79	19	-150	-12704	340	-10312	-12	-72	-106	-5056	-1720	15780	-57	-213	158	-9728	3640	12224	-16	16	-27	-12808	3984	-9944	21	-13	14	-4528	2560	16024	2	-22	-7	126	133	5
-10196	-3056	12916	111	32	-163	-12768	288	-10252	18	-55	-174	-5124	-1736	15844	-82	-217	192	-9720	3608	12384	-15	15	-29	-12704	3800	-9832	18	-12	7	-4624	2400	16128	1	-17	-5	126	129	5
-10132	-2936	12832	57	56	-156	-12748	240	-10280	-8	-100	-219	-5032	-1876	15904	-188	-218	229	-9744	3768	12368	-11	13	-31	-12656	3888	-9776	14	-2	-3	-4720	2376	16088	-1	-18	-1	126	129	5
-10168	-3000	12772	49	5	-142	-12760	284	-10372	13	-130	-216	-5104	-2032	15724	-180	-207	263	-9696	3824	12504	-16	8	-29	-12760	3864	-9920	9	-7	3	-4704	2352	16184	4	-7	4	126	128	5
-10168	-3008	12868	60	7	-166	-12772	260	-10316	22	-119	-258	-5120	-2144	15836	-179	-202	293	-9704	3664	12248	-12	5	-29	-12696	3824	-10232	8	-6	4	-4768	2312	16264	8	-14	7	126	128	5
-10104	-3032	12784	78	-2	-182	-12804	120	-10368	76	-112	-272	-5080	-2216	15904	-148	-198	328	-9616	3632	12384	-15	8	-27	-12824	3808	-9944	10	-13	7	-4856	2176	16336	15	-7	7	127	128	5
-10108	-3024	12784	44	66	-166	-12780	100	-10340	29	-124	-303	-5052	-2252	15780	-118	-236	338	-9624	3688	12096	-13	8	-27	-12816	3792	-10056	18	-16	6	-4760	2144	16224	19	-16	10	127	127	5
-10120	-3060	12764	51	76	-177	-12776	132	-10248	19	-176	-241	-5168	-2300	15736	-99	-245	306	-9568	3840	12456	-11	9	-25	-12808	3712	-9864	16	-19	11	-4856	2168	16120	20	-15	4	127	127	5
-10180	-3052	12820	82	26	-161	-12712	16	-10276	60	-146	-166	-5056	-2280	15748	-78	-250	272	-9704	3744	12200	-9	11	-27	-12760	3712	-10048	5	-22	15	-4752	2160	16136	23	-14	2	127	127	5
-10120	-3040	12908	102	-3	-150	-12768	4	-10296	69	-181	-133	-5060	-2320	15752	-92	-247	241	-9648	3880	12248	-13	6	-23	-12712	3776	-9744	2	-20	16	-4664	2240	16200	30	-20	0	127	125	5
-10148	-3000	12784	102	-18	-150	-12784	0	-10180	21	-189	-83	-5016	-2372	15732	-46	-261	182	-9720	3664	12288	-5	5	-25	-12784	3744	-9904	11	-22	24	-4848	2096	16360	27	-18	-3	127	125	5
-10132	-3044	12844	136	-43	-138	-12796	-40	-10228	91	-173	-68	-5008	-2340	15820	-32	-266	138	-9664	3600	12416	-5	13	-24	-12648	3760	-9872	9	-20	27	-4632	2232	16296	26	-20	-9	127	126	5
-10136	-3024	12848	131	-74	-145	-12780	92	-10256	49	-186	27	-4928	-2248	15812	-24	-237	154	-9784	3832	12360	-7	14	-24	-12832	3840	-9944	6	-19	27	-4656	2392	16304	27	-14	-6	127	126	5
-10152	-3100	12712	163	-65	-148	-12756	104	-10172	3	-147	12	-4828	-2232	15804	-23	-213	119	-9704	3704	12464	-6	16	-24	-12688	3752	-9984	6	-21	27	-4640	2248	16120	29	-7	-7	127	130	5
-10124	-3016	12860	181	-108	-161	-12856	140	-10204	29	-131	28	-4724	-2200	15868	57	-145	164	-9696	3760	12352	-5	14	-23	-12680	3904	-9736	3	-11	24	-4416	2336	16224	30	-5	0	127	132	5
-10100	-3088	12816	180	-34	-153	-12904	208	-10056	-2	-76	6	-4740	-2264	15844	78	-87	173	-9792	3704	12392	-7	11	-24	-12912	3856	-9856	-1	-9	25	-4344	2280	16080	36	-2	-2	127	133	5
-10040	-3072	12856	170	13	-118	-12908	220	-9988	-28	-34	44	-4640	-2096	15800	92	-137	177	-9648	3560	12416	-10	20	-27	-12680	3856	-9632	6	-8	25	-4416	2368	16352	38	-3	1	127	131	5
-10088	-3044	12924	154	60	-105	-12900	188	-10076	6	68	9	-4780	-2092	15764	134	-130	192	-9616	3712	12280	-9	25	-29	-12904	3776	-9928	9	1	23	-4488	2352	16024	21	-4	-1	127	131	5
-10128	-3020	12884	153	50	-89	-12848	204	-10136	-63	132	13	-4780	-2072	15828	146	-107	185	-9664	3680	12400	-9	27	-30	-12832	3840	-9912	14	0	30	-4488	2240	16120	26	-4	-10	127	127	5
-10120	-3036	12884	134	118	-93	-12780	148	-10156	-74	180	2	-4840	-2088	15788	185	-116	106	-9680	3672	12344	-7	26	-29	-12848	3800	-9864	21	4	25	-4536	2240	16264	17	-5	-14	127	121	5
-10128	-3088	12868	137	93	-79	-12772	144	-10272	-18	227	28	-4972	-2056	15756	161	-84	53	-9664	3688	12368	-4	23	-28	-12776	3832	-10000	18	5	27	-4712	2432	16272	22	-5	-20	127	121	5
-10164	-3036	12856	151	75	-92	-12856	80	-10388	-42	242	37	-5072	-2016	15924	53	-94	-17	-9696	3600	12504	-11	21	-31	-12872	3848	-10032	11	5	25	-4752	2384	16248	14	-8	-22	127	122	5
-10088	-3000	12840	167	83	-102	-12764	148	-10300	16	213	51	-5148	-2100	15964	48	-102	-31	-9720	3616	12472	-10	19	-31	-12632	3840	-10104	14	1	21	-4728	2288	16072	13	-3	-19	127	124	5
-10052	-3024	12872	131	109	-75	-12808	176	-10400	-51	92	40	-5208	-2020	15812	-11	-72	-86	-9696	3760	12296	-12	21	-30	-12800	3840	-9768	14	-8	23	-4904	2272	15864	19	-10	-21	127	124	5
-10160	-3036	12848	137	98	-125	-12768	168	-10372	-24	129	34	-5320	-2064	15868	-34	-114	-15	-9728	3848	12656	-8	18	-27	-12720	3808	-10080	12	-13	19	-4952	2376	16304	22	-9	-14	127	124	5
-10228	-3056	12796	131	37	-113	-12648	196	-10424	33	-20	-5	-5248	-2024	15816	-231	-294	-55	-9680	3616	12512	-13	7	-26	-12712	3888	-9808	16	-17	27	-4672	2304	16064	36	-9	-11	127	123	5
-10116	-3020	12952	134	-18	-148	-12692	136	-10420	31	-85	12	-5128	-2120	15848	-52	-139	78	-9752	3696	12416	-10	10	-24	-12656	3888	-10080	14	-19	20	-4656	2416	16304	35	-3	-5	127	123	5
-10188	-2944	12880	162	-47	-182	-12760	240	-10352	42	-144	-13	-5168	-2156	15860	23	-165	120	-9648	3592	12352	-10	6	-22	-12736	3904	-9816	6	-22	21	-4608	2368	16216	41	-2	0	126	122	5
-10196	-3012	12952	135	-118	-158	-12760	228	-10352	3	-139	-23	-5136	-2016	15880	-79	-273	138	-9632	3808	12464	-14	4	-23	-12768	3880	-9920	-3	-21	19	-4600	2376	16128	38	-6	1	126	122	5
-10152	-2964	12952	129	-33	-200	-12792	220	-10344	-10	-170	-60	-5040	-2132	15996	-105	-253	171	-9632	3680	12384	-7	8	-21	-12832	3840	-9896	5	-15	19	-4432	2352	16136	34	-5	4	126	122	5
-10212	-2968	12876	83	-32	-152	-12780	188	-10228	-2	-173	-26	-4940	-2096	15816	-49	-221	203	-9688	3744	12616	-13	12	-28	-12784	3864	-9696	3	-13	17	-4512	2336	16072	22	-5	5	126	122	5
-10164	-2936	12856	102	-46	-151	-12776	112	-10272	-11	-197	-65	-4836	-2124	15688	-10	-146	225	-9648	3656	12568	-11	13	-27	-12768	3920	-9920	11	-12	17	-4384	2408	15840	23	-1	7	126	122	5
-10148	-2996	12808	125	-18	-171	-12804	116	-10120	-12	-124	-77	-4812	-2124	15808	-83	-209	239	-9680	3752	12344	-11	15	-31	-12704	3952	-9808	10	-8	18	-4512	2592	16168	17	2	4	126	123	5
-10060	-3100	12820	127	-28	-177	-12840	168	-10196	13	-127	-138	-4728	-2192	15800	-59	-208	211	-9808	3816	12424	-11	18	-27	-12816	3992	-9832	11	4	18	-4400	2424	16280	15	2	10	126	124	5
-10088	-3040	13040	130	-17	-181	-12868	224	-10208	-20	-96	-77	-4740	-2176	15788	-27	-221	199	-9520	3640	12248	-11	15	-28	-12752	4040	-9632	12	3	11	-4592	2344	16336	11	-2	5	126	125	5
-10096	-3024	12848	143	10	-151	-12888	176	-10260	-10	-46	-32	-4880	-2184	15812	24	-132	179	-9536	3680	12416	-11	16	-28	-12888	3968	-9936	14	13	6	-4552	2280	16136	4	5	8	125	124	5
-10144	-3088	12864	120	17	-161	-12784	92	-10136	-23	-42	-67	-4876	-2172	15840	30	-120	199	-9560	3728	12528	-13	14	-31	-12776	3840	-10048	17	7	7	-4440	2440	16424	6	4	14	125	123	5
-10136	-3092	12820	132	-2	-138	-12776	108	-10256	-27	-41	-79	-4924	-2200	15840	9	-131	202	-9608	3632	12224	-12	18	-30	-12824	4000	-9792	9	4	5	-4736	2408	16280	3	12	12	125	123	5
-10120	-3056	12796	150	-20	-145	-12780	124	-10324	-29	4	-36	-4980	-2160	15852	2	-151	179	-9640	3760	12368	-16	16	-27	-12720	3792	-9824	14	5	1	-4712	2320	16360	3	11	15	125	123	5
-10228	-2996	12884	125	-18	-131	-12772	152	-10364	-26	-6	-83	-5016	-2176	15784	79	-170	230	-9672	3752	12448	-11	15	-30	-12640	3936	-9856	13	12	7	-4760	2168	16272	7	11	21	125	123	5
-10092	-3044	12880	132	-32	-134	-12832	156	-10344	-53	-36	-27	-5028	-2184	15832	103	-155	227	-9624	3688	12312	-16	15	-31	-12712	3848	-9960	9	11	-3	-4712	2160	16368	12	8	27	125	124	5
-10152	-3012	12896	143	4	-172	-12776	184	-10268	-43	-68	-19	-5124	-2144	15836	39	-131	228	-9624	3760	12528	-13	11	-31	-12832	3904	-10016	7	1	2	-4864	2248	16208	18	8	24	125	122	5
-10192	-3056	12728	133	-64	-161	-12808	120	-10276	-8	-94	15	-5060	-2032	15808	27	-140	233	-9680	3776	12248	-14	11	-30	-12888	3872	-10016	12	1	2	-4688	2288	16104	27	7	25	125	122	5
-10084	-3028	12780	155	-31	-167	-12820	224	-10328	16	-74	-50	-5076	-2076	15928	-5	-136	200	-9720	3704	12408	-14	9	-27	-12776	3832	-9984	16	-6	5	-4752	2240	16168	22	-2	20	125	122	5
-10164	-3000	12916	148	-85	-111	-12780	180	-10412	26	-132	-54	-5000	-2112	15848	-8	-145	189	-9680	3752	12328	-11	11	-24	-12776	3928	-9840	10	-5	3	-4864	2168	16192	22	1	19	125	121	5
-10128	-2972	12820	132	-61	-200	-12800	216	-10272	54	-153	-47	-5000	-2112	15860	18	-196	192	-9696	3800	12472	-10	7	-28	-12808	3792	-9976	11	-8	9	-4752	2232	16080	23	5	16	125	120	5
-10148	-3004	12908	133	-99	-153	-12836	220	-10252	-58	-140	-47	-4912	-2120	15872	18	-118	192	-9728	3640	12408	-16	9	-22	-12760	3744	-9824	11	-13	11	-4664	2288	16064	28	7	13	125	121	5
-10092	-3036	12892	114	-102	-203	-12876	156	-10224	27	-176	-67	-4856	-2104	15880	-9	-118	216	-9752	3816	12480	-12	7	-27	-12872	3816	-9808	9	-9	15	-4544	2192	16144	33	4	11	125	122	5
-10072	-3064	12920	120	-53	-179	-12976	160	-10204	21	-118	-57	-4876	-2080	15924	-18	-122	226	-9664	3664	12344	-13	14	-22	-12848	3752	-9712	4	-5	18	-4568	2216	16120	35	3	9	125	123	5
-10028	-3080	12980	105	-1	-187	-12844	168	-10124	76	-118	-72	-4816	-2116	15868	-48	-195	187	-9584	3720	12288	-11	17	-26	-12832	3840	-9752	8	0	16	-4552	2272	16272	18	2	4	124	123	5
-10104	-3032	12888	121	45	-153	-12780	212	-10216	62	-61	-93	-4840	-2116	15820	-13	-142	212	-9680	3664	12528	-7	28	-31	-12872	3840	-9984	9	2	16	-4568	2344	16088	16	-1	0	125	124	5
-10108	-2992	12848	86	41	-138	-12808	172	-10168	-63	-30	-92	-4944	-2100	15856	63	-87	273	-9760	3688	12368	-8	25	-24	-12840	3816	-9848	16	5	21	-4712	2248	16144	15	5	3	124	124	5
-10132	-3076	12872	129	25	-166	-12868	116	-10228	-68	-23	-138	-4960	-2156	15812	54	-114	251	-9656	3744	12400	-9	23	-30	-12752	3904	-9928	16	4	20	-4768	2344	16024	18	-6	3	124	124	5
-10200	-3024	12968	103	82	-126	-12808	112	-10372	-4	-27	-119	-5004	-2212	15812	39	-190	230	-9800	3744	12432	-7	22	-30	-12760	4000	-10152	9	5	14	-4832	2368	16256	18	0	-1	125	124	5
-10152	-2984	12876	89	61	-120	-12828	88	-10248	13	-46	-70	-5040	-2112	15844	21	-177	226	-9544	3704	12112	-9	19	-26	-12816	3912	-9624	11	0	13	-4808	2472	16256	24	7	8	125	124	5
-10136	-3044	12944	102	21	-159	-12784	88	-10284	33	-100	-105	-5060	-2100	15864	-14	-180	207	-9560	3768	12408	-11	17	-28	-12760	3808	-9984	2	-3	10	-4624	2344	16152	22	-1	6	125	124	5
-10184	-3024	12860	136	-11	-172	-12820	116	-10384	-18	-126	-130	-5084	-2052	15856	-21	-211	225	-9704	3720	12432	-9	14	-25	-12728	3816	-9912	8	-2	8	-4688	2352	16160	15	-4	14	125	124	5
-10092	-3032	12820	86	-24	-166	-12848	144	-10264	53	-156	-76	-5004	-2148	15864	-43	-232	215	-9704	3808	12328	-13	13	-28	-12824	3680	-9920	12	-7	6	-4792	2360	16208	15	-3	12	124	124	5
-10160	-3060	12820	107	-29	-157	-12804	152	-10200	7	-165	-67	-5020	-2136	15752	-29	-195	234	-9688	3696	12560	-15	11	-27	-12800	3768	-9904	13	-7	5	-4704	2288	15960	19	0	14	125	125	5
-10120	-3048	12804	128	9	-171	-12788	60	-10224	14	-158	-98	-5016	-2072	15760	-48	-185	270	-9560	3712	12216	-16	11	-30	-12712	3880	-9792	10	-6	3	-4568	2160	16456	21	-4	12	125	125	5
-10088	-3044	12792	128	-73	-150	-12844	116	-10300	89	-223	-111	-5000	-2100	15836	-103	-200	284	-9696	3552	12320	-12	13	-29	-12728	3768	-9840	6	-6	9	-4592	2400	16120	22	-1	10	125	124	5
-10144	-3100	12872	106	-6	-191	-12884	180	-10348	52	-183	-100	-4924	-2084	15740	-79	-222	230	-9792	3872	12384	-11	13	-30	-12696	3752	-9872	11	-8	10	-4768	2320	16080	22	-5	9	124	124	5
-10096	-3052	12832	148	12	-181	-12816	132	-10116	18	-181	-139	-4852	-2084	15824	-91	-197	268	-9616	3648	12520	-12	11	-27	-12864	3704	-9992	13	-9	6	-4672	2128	16096	19	-6	13	124	124	5
-10100	-3020	12840	115	-31	-183	-12892	72	-10096	8	-151	-121	-4804	-2128	15868	-71	-161	267	-9680	3632	12400	-13	10	-31	-12912	3880	-9992	12	-8	13	-4656	2088	16040	22	-4	10	124	124	5
-10100	-3028	12872	145	-29	-155	-12864	148	-10336	-35	-151	-184	-4804	-2108	15868	-30	-160	245	-9592	3592	12256	-8	14	-26	-12792	3728	-9872	15	-10	14	-4640	2008	16208	26	-4	5	125	123	5
-10096	-3072	12828	112	6	-165	-12916	96	-10204	-8	-67	-135	-4772	-2212	15860	-100	-205	249	-9472	3640	12240	-8	18	-28	-12840	3808	-9952	10	-5	14	-4744	2328	16312	22	-8	3	125	124	5
-10040	-3076	12896	125	-9	-157	-12844	68	-10264	24	-43	-133	-4812	-2256	15816	-67	-150	209	-9832	3536	12448	-6	14	-28	-12752	3880	-9872	10	-5	16	-4720	2152	16248	25	-3	-1	125	125	5
-10132	-3048	12884	149	14	-149	-12868	68	-10116	18	-87	-81	-4908	-2156	15728	-26	-101	176	-9680	3608	12400	-10	17	-30	-12920	3680	-9824	11	-11	18	-4536	2176	16440	24	-7	-4	125	124	5
-10116	-3060	12908	113	26	-163	-12836	68	-10328	-3	-17	-57	-4864	-2332	15744	-99	-195	153	-9672	3656	12280	-8	18	-28	-12960	3840	-10072	14	-12	23	-4768	2144	16352	26	-11	-6	124	124	5
-10120	-3052	12932	133	-1	-148	-12964	68	-10188	20	-20	-36	-4876	-2300	15892	-11	-164	173	-9656	3648	12216	-6	16	-25	-12848	3848	-9960	12	-6	24	-4712	2152	16304	27	-12	-6	125	126	5
-10128	-3040	12872	153	7	-134	-12892	44	-10132	14	-24	-72	-4824	-2320	15820	44	-133	138	-9664	3576	12360	-4	19	-30	-12904	3864	-9632	17	-9	27	-4552	2280	16200	30	-7	-8	125	128	5
-10116	-3032	12828	130	10	-118	-12880	16	-10140	-5	19	-35	-4828	-2332	15748	62	-58	144	-9672	3768	12280	-9	21	-29	-12808	3896	-9904	4	-15	30	-4680	2360	16136	30	-4	-6	125	129	5
-10164	-3064	12948	145	-9	-132	-12844	20	-10180	28	46	-19	-4820	-2260	15856	65	-89	137	-9592	3648	12136	-4	18	-30	-12712	3696	-9624	2	-7	27	-4728	2280	16192	33	-4	-4	125	125	5
-10152	-3020	12792	183	21	-126	-12804	100	-10028	45	9	32	-4928	-2228	15856	76	-113	99	-9680	3728	12328	-14	17	-27	-12936	3768	-9872	15	-10	25	-4640	2272	16104	29	-6	-4	125	126	5
-10116	-3020	12944	191	-25	-91	-12824	24	-10116	-11	51	71	-4892	-2176	15876	118	-43	104	-9616	3792	12264	-2	17	-30	-12784	4016	-9816	11	-12	25	-4648	2432	16096	34	-11	-4	125	134	5
-10072	-3080	12804	166	-45	-116	-12848	68	-10272	35	72	79	-4880	-2212	15780	107	-69	105	-9584	3800	12528	-7	15	-24	-12824	3840	-10080	14	-13	28	-4664	2232	16064	35	-6	-4	125	133	5
-10164	-3024	12848	187	-21	-112	-12812	92	-10160	5	56	33	-4976	-2200	15848	105	-78	88	-9544	3832	12488	-6	18	-23	-12744	3768	-9952	11	-10	29	-4656	2328	16360	37	-7	-6	126	133	5
-10128	-3016	12844	182	-38	-95	-12796	100	-10112	-3	56	53	-4988	-2124	15808	70	-54	60	-9488	3648	12440	-9	14	-27	-12776	3752	-9944	9	-14	25	-4640	2432	16272	34	-5	1	125	131	5
-10092	-3020	12892	173	-41	-79	-12804	52	-10216	-43	65	55	-5008	-2208	15748	66	-73	104	-9688	3776	12536	-8	12	-26	-12800	3776	-9776	8	-12	23	-4552	2232	16328	36	-6	-6	125	125	5
-10100	-3040	12776	213	-67	-129	-12860	80	-10304	-16	6	96	-4908	-2116	15924	23	-50	71	-9608	3760	12368	-7	17	-26	-12840	3968	-9768	7	-14	25	-4624	2264	16120	41	-2	-4	125	125	5
-10156	-3072	12880	162	13	-106	-12848	184	-10216	47	15	47	-4956	-2112	15888	71	-78	94	-9624	3688	12608	-12	17	-24	-12848	3880	-9808	3	-12	24	-4728	2368	16080	35	-6	-4	125	128	5
-10104	-3028	12868	150	0	-90	-12876	224	-10200	70	9	64	-4976	-2076	15856	73	-97	96	-9664	3616	12488	-5	17	-32	-12704	3824	-9872	8	-7	27	-4536	2368	16184	35	-13	-6	125	130	5
-10120	-3016	12864	154	13	-110	-12788	192	-10152	4	43	15	-4968	-2132	15828	64	-63	129	-9592	3840	12320	-4	21	-32	-12912	3864	-9704	15	-8	21	-4632	2328	16168	32	-6	-4	126	129	5
-10180	-3116	12988	136	15	-158	-12832	120	-10316	-4	29	15	-4952	-2100	15924	111	-83	135	-9640	3752	12368	-4	23	-26	-12760	3944	-9848	15	-13	21	-4528	2352	16360	23	-11	-3	125	127	5
-10116	-3004	12980	142	-19	-144	-12856	128	-10248	-40	39	-41	-4952	-2080	15960	90	-120	133	-9680	3752	12416	-3	20	-27	-12800	3856	-9744	10	-13	25	-4728	2344	16088	28	-7	-4	125	127	5
-10172	-3024	12968	129	53	-158	-12856	164	-10176	-28	44	-56	-4988	-2176	15744	21	-136	151	-9680	3752	12256	-10	18	-26	-12784	3936	-10112	7	-13	20	-4640	2080	16160	35	-10	-3	125	126	5
-10100	-3084	12928	147	53	-145	-12824	156	-10192	-42	7	-51	-5012	-2180	15812	79	-97	166	-9752	3664	12328	-8	17	-30	-12728	3896	-9832	9	-11	22	-4672	2264	16320	35	-8	1	125	125	5
-10152	-3104	12816	146	4	-105	-12820	108	-10212	11	-11	-38	-4996	-2232	15852	28	-91	171	-9592	3808	12504	-9	15	-28	-12648	3880	-10120	3	-13	22	-4664	2392	15968	33	-8	-2	125	126	5
-10080	-2976	12884	112	26	-146	-12756	56	-10236	12	-42	-37	-4956	-2180	15772	27	-102	183	-9624	3640	12424	-8	15	-26	-12832	3912	-10136	10	-15	21	-4656	2328	16248	38	-11	-1	125	126	5
-10132	-3092	12812	160	-13	-129	-12812	180	-10224	0	-28	-32	-4944	-2160	15804	15	-127	171	-9664	3800	12392	-9	14	-29	-12912	3864	-9896	6	-18	23	-4616	2376	16360	31	-10	0	125	127	5
-10088	-3004	12860	158	-48	-152	-12824	64	-10184	-18	-40	-19	-4948	-2240	15832	10	-103	189	-9640	3720	12432	-8	16	-28	-12792	3848	-10032	6	-17	24	-4672	2264	16144	32	-9	-3	125	127	5
-10096	-3084	12872	171	28	-166	-12808	72	-10220	7	-81	-21	-4928	-2216	15784	70	-108	191	-9664	3720	12296	-9	11	-29	-12768	3992	-10152	15	-14	21	-4704	2280	16280	35	-7	-2	125	127	5
-10148	-3076	12800	190	-63	-102	-12768	80	-10312	-36	-48	5	-4936	-2236	15852	59	-99	151	-9752	3592	12376	-11	13	-27	-12688	3864	-9920	12	-15	24	-4528	2288	15960	34	-3	0	125	129	5
-10088	-3096	12896	171	-4	-148	-12868	144	-10236	17	-31	30	-4964	-2240	15780	26	-117	149	-9624	3672	12408	-6	14	-24	-12840	3896	-9720	5	-16	22	-4512	2232	16376	34	-7	-1	125	128	5
-10084	-3036	12860	174	-46	-93	-12828	116	-10200	23	-70	38	-4972	-2252	15836	31	-131	131	-9560	3632	12304	-6	11	-27	-12776	3840	-9808	5	-16	27	-4640	2320	16296	37	-6	-3	125	126	5
-10148	-3076	12912	153	4	-132	-12800	92	-10156	37	-66	57	-4992	-2196	15856	46	-136	123	-9672	3776	12240	-10	14	-27	-12824	3944	-9960	6	-14	25	-4576	2264	16160	35	-10	-2	125	124	5
-10096	-3016	12956	164	-34	-131	-12832	60	-10140	33	-29	81	-4976	-2036	15852	121	-101	126	-9584	3840	12200	-11	13	-33	-12800	3904	-9928	13	-12	28	-4528	2384	16216	29	-7	-2	125	127	5
-10140	-3024	12912	158	17	-166	-12808	140	-10236	20	-42	56	-4928	-2092	15776	70	-89	116	-9688	3616	12216	-6	14	-28	-12840	3904	-9744	12	-8	21	-4504	2264	16272	28	-4	-1	125	128	5
-10064	-3024	12880	192	-41	-140	-12844	140	-10192	-9	-34	14	-4948	-2104	15828	31	-115	148	-9464	3752	12120	-8	17	-32	-12952	3776	-9800	11	-6	20	-4448	2400	16088	25	-3	-1	125	128	5
-10084	-3072	12864	159	10	-153	-12856	188	-10284	25	-31	-8	-4956	-2044	15824	30	-98	147	-9656	3728	12440	-4	16	-25	-12888	3848	-9864	8	-4	21	-4488	2384	16120	26	-4	-4	125	126	5
-10132	-3072	12932	145	-62	-138	-12864	188	-10168	-7	-4	-25	-4904	-2096	15992	57	-97	170	-9592	3664	12400	-10	15	-27	-12944	3928	-9976	6	0	13	-4488	2480	16216	26	-6	2	125	127	5
-10100	-3016	12864	156	-7	-162	-12844	208	-10104	2	-16	-7	-4932	-2136	15844	79	-103	162	-9624	3680	12304	-10	19	-28	-12704	3960	-10008	6	2	18	-4544	2336	16160	21	0	4	125	127	5
-10156	-2996	12836	162	-7	-140	-12768	132	-10256	7	-10	-65	-4968	-2128	15884	47	-112	196	-9568	3688	12280	-14	19	-27	-12624	4016	-9760	5	-1	17	-4520	2416	16216	19	-4	6	125	126	5
-10012	-3004	12904	132	9	-121	-12844	184	-10180	4	-6	-82	-4968	-2000	15748	11	-98	193	-9528	3792	12432	-10	17	-30	-12800	3968	-10024	13	-3	9	-4504	2496	16264	14	-1	5	125	127	5
-10096	-2988	12844	128	-9	-132	-12880	112	-10236	-23	-58	-65	-5052	-2104	15800	29	-135	211	-9656	3704	12480	-11	16	-31	-12792	3984	-9816	6	0	5	-4640	2504	16080	17	-3	9	125	126	5
-10152	-3048	12912	132	-2	-130	-12856	124	-10216	14	-69	-78	-5008	-2152	15832	10	-117	243	-9696	3768	12352	-11	15	-25	-12712	3832	-9744	2	2	11	-4648	2536	15848	20	1	9	125	127	5
-10084	-3040	12804	143	-35	-158	-12900	104	-10268	1	-99	-54	-5012	-2132	15796	-17	-143	225	-9832	3672	12384	-12	11	-32	-12848	3896	-9872	7	0	5	-4720	2280	16248	18	-3	10	125	122	5
-10116	-3036	13008	126	44	-190	-12784	64	-10192	6	-121	-80	-5028	-2128	15828	10	-191	243	-9672	3672	12464	-17	13	-31	-12856	3856	-9944	6	-2	8	-4712	2352	16144	20	0	13	125	125	5
-10164	-3044	12896	144	-32	-159	-12796	148	-10244	11	-164	-57	-5052	-2108	15804	-71	-217	186	-9632	3768	12176	-17	11	-29	-12840	3936	-9976	8	-13	5	-4656	2400	16168	21	-3	14	125	126	5
-10112	-3096	12868	110	-16	-175	-12772	80	-10348	18	-149	-116	-4980	-2080	15860	-26	-141	180	-9648	3592	12304	-12	10	-28	-12864	3904	-9792	7	-7	8	-4448	2192	16128	21	1	14	125	127	5
-10060	-3040	12868	143	-45	-164	-12816	100	-10192	-2	-105	-50	-4828	-2112	15896	-46	-133	198	-9640	3696	12408	-14	11	-28	-12848	3768	-9896	9	-13	7	-4584	2104	16120	26	-2	12	125	123	5
-10108	-3052	12824	136	-54	-166	-12860	148	-10288	32	-153	-105	-4916	-2112	15760	-53	-137	212	-9624	3680	12272	-17	7	-31	-12912	3744	-9904	9	-11	11	-4584	2416	16432	25	1	13	125	124	5
-10096	-2992	12888	127	0	-121	-12892	76	-10072	70	-128	-69	-4808	-2192	15784	-7	-130	177	-9600	3792	12328	-8	13	-26	-12776	3880	-9944	5	-10	8	-4536	2112	16048	20	2	7	125	124	5
-10128	-3040	12832	132	31	-130	-12896	140	-10228	14	-96	-97	-4792	-2216	15856	-28	-66	203	-9648	3736	12296	-11	17	-28	-12792	3880	-9984	6	-2	12	-4456	2360	16384	24	-4	6	125	123	5
-10128	-3032	12912	108	50	-136	-12856	120	-10240	7	-68	-98	-4848	-2132	15832	4	-119	197	-9552	3560	12440	-8	20	-25	-12800	3904	-10008	11	-2	14	-4512	2216	16280	15	2	1	125	124	5
-10104	-3100	12880	90	53	-156	-12832	108	-10152	-19	-42	-87	-4812	-2156	15772	39	-160	193	-9704	3752	12160	-8	20	-27	-12920	3984	-9864	14	1	15	-4520	2352	16152	13	-6	0	125	122	5
-10100	-3092	12840	133	-2	-129	-12848	172	-10120	-12	-11	-63	-4984	-2140	15748	42	-185	221	-9704	3888	12520	-11	22	-27	-12944	4024	-9680	12	4	21	-4568	2216	16360	7	-4	-1	125	122	5
-10084	-3004	12912	145	12	-142	-12896	148	-10192	-25	-13	-90	-4916	-2152	15856	26	-143	182	-9664	3632	12304	-10	23	-27	-12808	3864	-9864	10	6	20	-4616	2456	16040	17	0	5	125	124	5
-10136	-3064	12888	112	48	-140	-12784	140	-10244	5	-59	-51	-4984	-2160	15836	-1	-110	219	-9624	3704	12288	-13	19	-31	-12736	3904	-9776	13	2	13	-4552	2256	16296	22	0	4	125	124	5
-10040	-3012	12808	134	30	-141	-12864	16	-10152	40	-91	-54	-5012	-2172	15860	-2	-133	124	-9656	3640	12584	-12	22	-31	-12848	3968	-9640	5	1	16	-4680	2408	16024	26	1	4	125	126	5
-10160	-3060	12772	141	-4	-124	-12868	96	-10192	10	-90	-94	-5052	-2120	15972	-21	-143	198	-9792	3648	12616	-15	15	-30	-12648	3912	-10032	6	-2	10	-4744	2448	16096	21	-1	9	125	126	5
-10148	-3140	12844	124	-7	-147	-12832	132	-10280	29	-98	-94	-5056	-2092	15856	-25	-173	171	-9696	3648	12472	-16	13	-32	-12856	4016	-9920	10	-7	11	-4640	2352	16184	14	0	6	125	126	5
-10144	-2980	12808	120	-16	-170	-12796	144	-10232	-19	-105	-59	-4972	-2156	15764	-69	-176	213	-9864	3864	12432	-15	6	-27	-12752	3848	-9816	13	-4	10	-4648	2344	16048	16	2	6	125	127	5
-10184	-3020	12780	122	-66	-136	-12856	52	-10316	-9	-102	-68	-4848	-2140	15844	-80	-103	171	-9712	3600	12464	-14	10	-28	-12800	3920	-9904	15	-10	8	-4608	2360	16304	18	-2	6	125	124	5
-10112	-3048	12868	132	-65	-166	-12852	116	-10168	19	-97	-86	-4868	-2156	15824	-83	-156	200	-9640	3576	12392	-12	15	-28	-12816	3832	-9696	9	-14	8	-4744	2216	16064	27	-6	8	125	125	5
-10104	-3008	12768	103	-32	-134	-12896	68	-10148	48	-98	-92	-4852	-2208	15952	-52	-144	169	-9728	3648	12152	-12	6	-25	-12864	3720	-9552	6	-9	9	-4584	2328	16280	23	3	7	125	124	5
-10080	-3008	12984	127	-34	-157	-12924	76	-10128	57	-58	-66	-4840	-2132	15812	-62	-112	156	-9552	3664	12304	-10	11	-27	-12848	3808	-9840	12	-8	12	-4568	2248	16160	25	-1	3	125	125	5
-10108	-3056	12828	153	3	-119	-12864	132	-10036	14	-81	-69	-4816	-2176	15804	-50	-105	176	-9584	3664	12288	-9	16	-28	-12832	3848	-9912	12	-8	14	-4520	2168	16352	20	-2	2	125	127	5
-10076	-3064	12904	115	14	-128	-12824	172	-10104	-7	-27	-73	-4856	-2276	15840	-9	-115	152	-9760	3728	12344	-12	13	-33	-12920	3936	-9520	14	-10	18	-4584	2280	16240	20	1	1	125	127	5
-10124	-3120	12828	109	50	-128	-12868	28	-10116	-30	-7	-61	-4892	-2312	15924	-14	-144	124	-9816	3656	12520	-9	15	-31	-12712	3880	-9848	21	-8	18	-4400	2128	16248	20	-3	0	125	127	5
-10132	-3064	12744	146	13	-146	-12844	68	-10188	31	-22	-79	-4912	-2232	15860	27	-111	154	-9800	3792	12328	-8	13	-32	-12872	3864	-10088	10	-2	19	-4496	2248	16432	25	0	-4	125	127	5
-10148	-3032	12896	154	19	-155	-12844	72	-10176	-9	-26	-95	-4924	-2288	15728	-10	-81	171	-9664	3640	12432	-9	19	-30	-12824	3832	-10040	8	-5	16	-4496	2272	16200	26	0	-4	125	126	5
-10124	-3076	12888	125	38	-151	-12864	48	-10168	12	-41	-48	-4928	-2288	15828	23	-115	148	-9728	3712	12680	-10	19	-24	-12760	3848	-9936	10	-2	21	-4704	2216	16264	23	0	-2	125	126	5
-10108	-3068	12892	151	-10	-137	-12900	44	-10184	-23	-21	-38	-4940	-2176	15824	21	-120	121	-9656	3800	12288	-6	19	-28	-12632	3704	-9928	16	-6	19	-4544	2280	16152	24	-5	0	126	126	5
-10120	-3084	12864	138	-26	-138	-12876	80	-10296	35	-30	9	-4988	-2180	15828	74	-114	168	-9680	3704	12408	-9	19	-24	-12768	4096	-9848	17	-7	24	-4504	2320	16320	23	-1	1	126	126	5
-10124	-3060	12820	173	-2	-122	-12792	48	-10272	-6	4	-34	-4948	-2252	15820	75	-122	183	-9672	3816	12192	-4	15	-24	-12696	3944	-10000	11	-6	25	-4600	2432	16216	22	-3	5	126	125	5
-10108	-3080	12856	178	-37	-118	-12876	120	-10280	-29	-25	-34	-4884	-2204	15892	87	-126	192	-9656	3768	12376	-7	15	-29	-12768	3912	-9984	1	-4	18	-4592	2328	16472	25	-1	3	126	125	5
-10092	-3040	12856	119	42	-140	-12884	68	-10252	-47	-33	5	-5000	-2148	15736	65	-141	223	-9816	3768	12280	-12	18	-23	-12816	4056	-9944	6	0	19	-4600	2376	16040	29	-1	2	125	125	5
-10156	-3008	12828	168	-28	-159	-12868	124	-10244	-11	-33	15	-4960	-2184	15868	65	-139	197	-9728	3656	12208	-10	13	-28	-12832	3920	-9824	8	-5	19	-4568	2424	16216	26	-5	6	125	125	5
-10172	-3020	12872	150	-35	-90	-12840	48	-10276	34	-42	-22	-4964	-2136	15848	51	-143	157	-9600	3696	12280	-6	17	-25	-12752	3816	-9976	13	-8	19	-4608	2392	16256	25	-3	5	125	127	5
-10072	-3076	12808	161	-50	-133	-12916	136	-10216	-7	-86	27	-4960	-2120	15852	67	-163	152	-9672	3752	12224	-12	18	-27	-12832	3912	-9952	11	-8	18	-4680	2368	16248	22	7	2	125	127	5
-10128	-3068	12864	159	-54	-150	-12904	176	-10276	14	-65	-26	-4964	-2084	15864	18	-173	151	-9696	3696	12440	-9	15	-28	-12680	3952	-9840	13	-14	13	-4624	2288	16120	22	0	2	126	127	5
-10084	-3044	12936	122	-55	-161	-12868	244	-10216	30	-76	-21	-4904	-2084	15832	-14	-117	152	-9656	3792	12504	-9	11	-26	-12800	3840	-9984	12	-6	13	-4488	2272	16392	24	-5	5	126	127	5
-10020	-3052	12852	131	-14	-174	-12928	52	-10128	-27	-64	-51	-4852	-2128	15956	-3	-113	141	-9704	3640	12264	-10	15	-27	-12848	3848	-9856	7	-7	15	-4584	2344	16152	35	2	5	125	126	5
-10132	-3068	12844	118	-23	-110	-12888	132	-10116	2	-50	-78	-4844	-2196	15776	-43	-98	160	-9608	3816	12368	-7	13	-28	-12816	3880	-9736	6	-10	13	-4584	2408	16376	29	2	4	126	127	5
-10168	-3052	12864	124	-25	-177	-12964	156	-10136	33	-67	-85	-4760	-2232	15832	14	-83	171	-9744	3696	12488	-10	20	-27	-12728	3752	-9856	8	-7	14	-4464	2216	16200	27	-4	-1	125	127	5
-10132	-2992	12844	146	7	-136	-12864	124	-10204	-35	-34	-93	-4800	-2248	15832	22	-71	199	-9552	3728	12440	-8	18	-26	-12768	3640	-9928	12	-4	20	-4464	2304	16224	21	1	0	126	127	5
-10096	-3044	12948	129	23	-148	-12928	60	-10124	-15	23	-96	-4912	-2276	15844	41	-93	222	-9584	3688	12440	-9	26	-30	-12944	3792	-9936	10	-4	20	-4520	2320	16216	16	-3	0	126	126	5
-10096	-3072	12876	113	58	-134	-12888	100	-10236	-28	-6	-65	-4920	-2260	15856	38	-125	215	-9688	3800	12328	-13	24	-33	-12792	3944	-9992	11	2	17	-4544	2472	16104	18	-2	0	126	126	5
-10076	-3044	12928	117	58	-133	-12912	48	-10204	9	-3	-70	-4984	-2208	15772	92	-150	195	-9704	3736	12480	-9	20	-32	-12856	3856	-9912	14	-6	20	-4672	2288	16120	22	0	-1	126	126	5
-10160	-3116	12884	154	6	-124	-12832	76	-10328	12	-6	-42	-5068	-2212	15864	-32	-130	174	-9784	3744	12320	-10	22	-30	-12640	3848	-10176	11	2	21	-4400	2368	16304	25	0	3	126	125	5
-10148	-3108	12884	154	-4	-153	-12816	24	-10248	-44	-80	-19	-4964	-2212	15904	-38	-101	161	-9752	3672	12224	-11	16	-32	-12960	3952	-9928	8	-1	14	-4712	2392	16240	26	-4	4	126	125	5
-10128	-3056	12856	142	-57	-143	-12844	156	-10316	-19	-81	-43	-4964	-2152	15852	16	-103	158	-9728	3720	12328	-11	18	-30	-12768	3912	-9976	8	-2	13	-4608	2520	16120	25	-5	1	126	125	5
-10156	-3016	12896	160	-45	-138	-12824	108	-10244	12	-26	-11	-4976	-2224	15840	-9	-150	176	-9752	3704	12464	-11	16	-28	-12688	3920	-10080	11	-9	13	-4600	2384	16200	21	-4	5	126	124	5
-10128	-3040	12868	159	-62	-166	-12808	72	-10224	39	-52	-32	-4912	-2268	15772	38	-160	200	-9648	3840	12208	-6	17	-25	-12840	4040	-10176	4	-15	15	-4632	2440	16144	28	-3	8	126	124	5
-10088	-3112	12904	137	-63	-163	-12800	52	-10188	-3	-76	-11	-4920	-2152	15800	58	-109	157	-9656	3496	12488	-14	15	-34	-12760	3888	-9960	7	-14	14	-4664	2264	16256	30	-4	5	126	124	5
-10088	-2972	12960	110	27	-161	-12880	44	-10172	11	-99	7	-4928	-2124	15852	35	-136	155	-9720	3704	12256	-12	11	-30	-12744	3840	-9696	6	-20	13	-4704	2208	16304	33	-2	6	126	124	5
-10064	-3100	12912	137	-58	-130	-12868	128	-10164	41	-76	-17	-4836	-2148	15776	-29	-154	122	-9680	3720	12472	-11	12	-30	-12920	3752	-9760	15	-22	14	-4640	2336	16104	29	-12	10	126	124	5
-10084	-3072	12868	168	-18	-131	-12964	124	-10136	40	-47	-11	-4824	-2224	15788	-39	-189	114	-9440	3744	12520	-8	12	-27	-12816	3832	-9640	11	-17	18	-4648	2072	16296	30	-9	-1	126	125	5
-10088	-3008	12940	128	-10	-167	-12908	192	-10152	23	-78	-6	-4860	-2144	15804	-2	-132	86	-9696	3720	12248	-4	15	-23	-12736	3864	-9648	14	-18	19	-4496	2248	16584	28	-12	1	126	125	5
-10116	-3032	12852	163	-39	-125	-12892	128	-10040	-7	-44	-15	-4912	-2228	15860	82	-83	176	-9512	3656	12472	-10	15	-28	-12816	3960	-9960	11	-10	21	-4472	2312	16096	27	-8	-2	126	125	5
-10144	-3096	12736	105	-23	-100	-12820	48	-10064	-31	-37	-16	-4852	-2200	15828	34	-116	139	-9560	3760	12400	-9	20	-28	-12768	4024	-9768	7	-5	19	-4352	2216	16304	31	-6	-4	126	125	5
-10076	-3032	12872	160	-28	-160	-12940	92	-10208	18	-17	-40	-4892	-2196	15936	2	-57	162	-9664	3800	12240	-6	17	-28	-12864	4032	-9792	6	-6	24	-4712	2320	16264	29	-9	-4	126	125	5
-10104	-3052	12740	154	27	-138	-12900	120	-10128	43	-34	-38	-4908	-2200	15788	41	-52	202	-9728	3680	12160	-12	23	-24	-12696	3904	-9840	7	-2	21	-4520	2344	16256	27	-14	1	126	126	5
-10148	-3060	12952	141	19	-116	-12920	132	-10136	-44	-2	-7	-4928	-2140	15712	76	-65	196	-9776	3744	12312	-8	22	-26	-12776	3952	-9816	12	-3	17	-4584	2320	16216	26	-9	3	126	126	5
-10092	-3088	12756	163	-28	-154	-12868	168	-10124	-24	14	-35	-4884	-2232	15868	89	-66	215	-9688	3800	12304	-9	21	-29	-12736	3992	-9896	12	-5	23	-4600	2280	15992	27	-9	2	126	126	5
-10068	-3068	12872	128	34	-117	-12852	100	-10112	-30	0	-22	-4880	-2216	15832	83	-98	209	-9624	3656	12584	-4	20	-31	-12768	3920	-9704	12	-9	16	-4512	2408	16376	28	-6	6	126	126	5
-10152	-3072	12884	136	2	-123	-12820	100	-10232	-25	6	-21	-5068	-2272	15912	90	-84	250	-9648	3632	12192	-7	18	-31	-12784	3984	-10000	8	-6	22	-4496	2408	16184	30	-8	5	126	126	5
-10100	-3008	12848	129	-22	-143	-12800	40	-10172	10	-29	-4	-5092	-2264	15904	48	-151	181	-9792	3616	12400	-14	22	-31	-12816	4016	-9872	1	-8	17	-4712	2440	16328	31	0	3	126	126	5
-10088	-2960	12956	146	-15	-135	-12864	116	-10272	4	-70	26	-5000	-2280	15932	66	-105	181	-9688	3696	12328	-14	20	-32	-12800	3880	-10056	6	-14	12	-4592	2416	16200	35	-10	6	126	126	5
-10120	-3096	12984	181	-8	-150	-12876	72	-10176	38	-85	29	-5112	-2372	15788	91	-154	140	-9792	3648	12400	-4	28	-31	-12800	3832	-9920	10	-17	13	-4800	2392	16400	19	-15	4	126	126	5
-10116	-3056	12820	139	-26	-154	-12828	112	-10352	23	-103	7	-5112	-2212	15892	17	-190	121	-9560	3776	12368	-11	23	-30	-12808	3736	-9896	9	-19	12	-4528	2504	16224	30	-7	5	126	125	5
-10100	-3108	12936	170	-32	-141	-12724	28	-10232	-2	-157	48	-5088	-2216	15904	99	-187	105	-9704	3688	12560	-10	14	-25	-12736	3776	-9832	4	-17	13	-4656	2272	16152	28	-8	7	126	126	5
-10132	-3060	12972	133	-101	-175	-12792	76	-10228	34	-204	32	-4996	-2180	15824	85	-130	138	-9648	3592	12192	-8	8	-29	-12880	3904	-9912	4	-19	12	-4600	2320	16128	30	-7	10	126	126	5
-10136	-3056	12876	147	-104	-133	-12852	184	-10136	73	-194	18	-4792	-2196	15840	27	-123	133	-9584	3832	12416	-13	11	-30	-12840	4040	-9976	3	-22	15	-4536	2440	16320	29	-15	10	126	125	5
-10140	-2908	12900	124	-83	-186	-12872	68	-10056	250	-194	25	-4896	-2036	15876	-59	-146	147	-9696	3752	12424	-8	8	-25	-12920	3936	-9776	0	-14	12	-4504	2232	16352	31	-2	12	126	125	5
-10024	-2948	12968	138	-40	-184	-12908	192	-10040	24	-200	-49	-4792	-2000	15804	-37	-134	144	-9680	3648	12144	-9	14	-29	-12872	3872	-9664	4	-20	15	-4504	2360	16184	24	-8	7	126	126	5
-10060	-3064	12904	123	-26	-157	-12932	96	-10212	27	-144	-65	-4836	-2052	15864	-25	-176	234	-9760	3760	12264	-8	21	-34	-12888	3880	-9832	4	-15	13	-4360	2368	16240	17	-13	9	126	126	5
-10088	-3096	12820	162	-52	-166	-12948	188	-9984	30	-113	-41	-4864	-2092	15852	-34	-141	198	-9784	3656	12568	-10	29	-26	-12776	3832	-9800	-4	-10	10	-4384	2336	16488	15	-11	1	126	127	5
-10088	-3004	12908	106	18	-147	-12868	76	-10212	35	-105	-102	-4892	-2092	15880	-59	-170	192	-9752	3664	12352	-7	25	-30	-12864	4008	-9680	18	0	14	-4344	2312	16240	22	-13	-3	126	129	5
-10120	-3016	12788	117	-13	-176	-12928	108	-10072	-3	-106	-135	-4788	-2208	15784	-15	-113	277	-9808	3776	12224	-9	23	-29	-12816	4032	-9736	9	-2	13	-4600	2392	16368	20	-8	2	126	129	5
-10128	-3044	12912	89	3	-182	-12900	100	-10112	31	-129	-105	-4936	-2160	15848	-6	-185	248	-9744	3608	12352	-8	15	-27	-12968	3944	-9904	2	-3	13	-4712	2312	16240	27	-9	5	126	129	5
-10116	-3080	12932	96	-6	-160	-12952	52	-10080	86	-130	-98	-4868	-2192	15936	-73	-161	217	-9568	3712	12080	-8	20	-30	-12864	3968	-10104	15	-7	11	-4400	2304	16248	22	-10	11	126	128	5
-10128	-3032	12924	117	-23	-138	-12940	60	-10216	56	-99	-96	-4964	-2148	15796	-76	-204	226	-9568	3664	12248	-9	17	-32	-13032	3864	-9928	10	-3	12	-4344	2344	15984	17	-8	2	126	128	5
-10032	-3088	12872	91	-14	-192	-12864	84	-10160	31	-116	-109	-4948	-2200	15772	-64	-181	227	-9720	3880	12392	-10	19	-30	-12912	4008	-9856	10	-6	10	-4472	2344	16400	10	-8	1	126	129	5
-10132	-3028	12952	124	-55	-143	-12952	36	-10244	14	-188	-43	-4932	-2232	15780	-69	-143	212	-9656	3736	12056	-13	17	-30	-12888	3960	-10048	9	-11	7	-4472	2576	16312	16	-8	6	126	128	5
-10108	-3116	12820	119	-47	-194	-12908	28	-10140	28	-183	-83	-5012	-2284	15908	-97	-154	198	-9840	3800	12304	-10	16	-33	-12752	3832	-9976	7	-11	4	-4568	2384	16208	20	-8	11	126	127	5
-10088	-3032	12912	136	-76	-191	-12924	0	-10124	24	-187	-60	-4932	-2216	15760	-79	-160	186	-9632	3696	12504	-10	18	-29	-12720	3920	-9832	9	-18	10	-4600	2240	16248	28	-1	14	126	127	5
-10124	-3040	12844	154	-47	-163	-12908	80	-10096	76	-155	-49	-4892	-2284	15864	9	-168	227	-9656	3664	12272	-12	8	-28	-12624	3880	-9904	6	-16	11	-4632	2456	16224	21	-2	13	126	127	5
-10160	-3124	12880	137	-95	-155	-12908	24	-10072	39	-140	-39	-4888	-2248	15772	-35	-215	197	-9632	3608	12304	-11	6	-25	-12872	3904	-9736	7	-16	4	-4552	2352	16192	15	-4	16	126	127	5
-10044	-3092	12836	167	-104	-181	-12924	24	-10116	29	-188	-53	-4932	-2248	15776	-2	-155	200	-9592	3696	12328	-11	5	-30	-12928	3816	-9952	8	-12	7	-4416	2232	16040	17	-7	12	126	127	5
-10048	-3108	12972	113	-72	-137	-12864	0	-10160	58	-172	-24	-4932	-2240	15756	25	-170	223	-9704	3768	12440	-15	9	-30	-13016	3752	-9736	18	-15	14	-4488	2256	16048	18	-7	5	126	127	5
-10060	-3048	12808	179	-56	-174	-12908	104	-10124	29	-144	-13	-4872	-2184	15912	73	-186	171	-9704	3672	12352	-8	12	-25	-12968	3896	-9760	15	-16	9	-4344	2192	16272	23	-5	3	126	127	5
-10092	-3036	12968	124	-113	-184	-12920	28	-10148	40	-156	-23	-4868	-2272	15816	68	-170	222	-9648	3800	12232	-7	12	-26	-12832	3856	-9736	14	-7	12	-4432	2352	16128	24	-4	3	126	126	5
-10124	-3072	12956	136	-68	-158	-12936	16	-10160	31	-147	-5	-4824	-2188	15840	-50	-225	141	-9608	3696	12648	-9	15	-31	-12976	3840	-9856	5	-14	14	-4504	2424	16312	25	-6	8	126	127	5
-10072	-3124	12812	132	-51	-132	-12928	44	-10192	37	-136	-35	-4888	-2184	15900	22	-129	143	-9720	3688	12464	-12	19	-28	-12840	3912	-9904	5	-14	13	-4352	2608	16312	24	-7	7	126	127	5
-10072	-3088	12932	148	-54	-152	-12908	108	-10080	43	-135	5	-4900	-2232	15888	40	-164	191	-9480	3808	12304	-13	21	-29	-12728	3992	-9912	6	-15	14	-4520	2280	16456	24	-10	7	126	127	5
-10128	-3056	12972	139	-19	-170	-12964	36	-10036	34	-167	-38	-4928	-2204	15764	3	-252	218	-9616	3872	12376	-10	14	-26	-12848	3888	-9760	6	-14	13	-4528	2312	15984	20	-11	10	126	130	5
-10056	-3108	12884	117	-28	-159	-12996	92	-10132	56	-173	-34	-4948	-2236	15968	57	-207	237	-9680	3840	12360	-7	14	-28	-12696	3952	-9888	7	-20	17	-4544	2360	16200	17	-12	8	126	129	5
-10088	-3028	12940	139	-51	-171	-12936	72	-10108	42	-166	-50	-4940	-2176	15824	77	-189	223	-9656	3536	12352	-11	15	-25	-12912	3944	-9832	7	-19	11	-4584	2424	16096	22	-11	7	126	130	5
-10052	-3096	12892	151	-75	-129	-12932	-40	-10060	19	-188	-85	-4908	-2164	15892	67	-207	215	-9840	3696	12352	-14	8	-26	-12824	3776	-9640	7	-19	12	-4480	2496	16536	25	-11	15	126	128	5
-10060	-3120	12948	126	-58	-180	-12936	24	-10088	75	-196	-8	-4880	-2184	15876	9	-234	241	-9688	3688	12344	-11	12	-29	-12928	3952	-10000	1	-27	6	-4584	2456	16224	18	-10	13	126	127	5
-10088	-3116	12876	162	-63	-171	-12828	256	-10188	79	-204	0	-5176	-2276	15736	-85	-323	168	-9920	3640	12464	-13	9	-21	-12864	4072	-9904	38	-25	5	-4848	2456	16456	24	-22	9	126	129	5
-9908	-3052	12984	155	-78	-190	-12900	32	-10168	-129	-263	-59	-4868	-2320	15988	-59	-206	187	-9480	3816	12224	-12	10	-26	-12992	3632	-9896	-3	-35	10	-4608	2304	16360	7	-10	9	126	129	5
-10048	-3112	12824	95	-89	-184	-12900	-68	-10108	78	-241	7	-4856	-2372	15848	94	-196	182	-9600	3712	12288	-9	5	-26	-12744	3720	-9696	7	-37	11	-4536	2256	16328	-5	-10	15	126	129	5
-10112	-3084	13080	157	-49	-168	-12920	-188	-9880	117	-282	-68	-4780	-2148	15720	-173	-132	169	-9784	3648	12400	-7	3	-21	-12872	3832	-9752	9	-46	13	-4256	2120	16296	26	-6	16	126	128	5
-10068	-3120	12848	166	-71	-135	-12916	88	-9940	196	-285	-2	-4700	-2300	15872	-58	-225	109	-9536	3808	12376	-5	1	-21	-12904	3888	-9696	17	-32	18	-3816	2208	16192	33	-5	23	126	129	5
-10096	-3052	13008	156	-114	-170	-13012	64	-9876	281	-221	40	-4424	-2232	15732	-13	-167	70	-9760	3744	12400	-9	5	-22	-12936	3888	-9312	11	-17	16	-3640	2272	16008	19	10	18	126	128	5
-10060	-3084	12948	147	-76	-157	-12924	100	-9768	251	-210	-5	-4396	-2224	15964	107	-83	132	-9656	3728	12360	-7	8	-27	-13032	3896	-9656	-2	4	17	-3856	2344	15992	25	20	0	126	128	5
-9932	-3056	12896	196	-107	-126	-12964	296	-9888	196	-74	-50	-4496	-2144	15816	84	3	153	-9544	3616	12192	-7	18	-29	-13240	4048	-9504	18	16	17	-4096	2688	16200	7	14	-7	126	127	5
-9968	-3036	13012	118	26	-153	-13164	160	-9900	-108	51	-57	-4556	-2076	15884	47	-44	132	-9720	3744	12240	-14	24	-35	-12880	3904	-9560	14	23	14	-4224	2568	16280	-10	18	-17	126	126	5
-9984	-3040	12920	122	82	-134	-13120	64	-9796	-206	93	-89	-4532	-1980	15904	92	-13	110	-9608	3744	12272	-15	30	-33	-12872	4176	-9576	26	25	6	-4376	2656	16400	-8	22	-13	126	127	5
-10032	-3168	12912	122	140	-86	-12984	44	-9896	-68	183	-96	-4596	-2008	15760	-134	30	95	-9680	3808	12304	-16	28	-33	-12720	3904	-10056	28	18	0	-4568	2576	15936	-6	21	-4	126	127	5
-10072	-3084	12952	129	71	-68	-13008	-52	-9832	-101	226	-146	-4588	-2072	15852	-244	-23	57	-9784	3696	12264	-19	20	-32	-12736	3880	-9744	15	19	-5	-4632	2472	16120	5	21	5	126	128	5
-10144	-3028	13016	146	118	-75	-12920	136	-9924	-46	272	-184	-4612	-2068	15788	-268	-71	91	-9664	3520	12216	-22	9	-35	-12864	3856	-9848	23	16	-3	-4608	2312	16192	6	22	16	126	127	5
-10028	-3100	12868	153	164	-103	-12964	16	-10068	-136	330	-166	-4764	-2348	15908	-104	-47	143	-9728	3816	12312	-18	4	-31	-12720	3696	-9696	25	12	-1	-4504	2144	16216	-5	20	13	126	126	5
-10120	-3072	12948	152	126	-102	-12972	84	-10028	-153	272	-170	-4980	-2524	15928	30	-31	182	-9688	3808	12472	-19	2	-30	-12808	3768	-10000	30	13	0	-4680	2176	16376	1	20	6	126	126	5
-10092	-3036	12912	161	232	-120	-12924	-80	-10060	-140	283	-125	-5116	-2512	15832	149	22	190	-9616	3648	12424	-14	6	-28	-12840	3712	-9824	25	8	7	-4600	2032	16248	7	16	3	127	125	5
-10152	-3084	12920	120	102	-100	-12860	-140	-10144	-43	192	-86	-5324	-2472	15848	61	21	171	-9640	3656	12520	-14	5	-28	-13000	3808	-10048	15	8	11	-4648	2008	16480	20	15	0	127	125	5
-10064	-3044	12812	155	76	-86	-12832	-128	-10244	1	150	-31	-5216	-2408	15800	-10	-41	107	-9712	3688	12240	-12	11	-28	-12920	3648	-9896	11	6	14	-4672	1928	16512	18	14	4	127	125	5
-10112	-3024	12908	192	3	-121	-12872	-108	-10180	76	82	11	-5096	-2364	15860	-57	-65	109	-9720	3632	12120	-7	10	-28	-12800	3664	-9568	5	2	17	-4520	2040	16376	28	14	2	127	124	5
-10068	-3088	12840	157	-58	-88	-12892	-12	-10172	69	58	26	-5188	-2384	15792	28	-73	65	-9720	3776	12408	-8	9	-23	-12616	3832	-9896	10	3	27	-4800	2056	16320	23	10	-2	127	125	5
-10120	-3016	12904	202	-51	-124	-12908	8	-10300	17	17	62	-5048	-2392	15872	103	-121	118	-9800	3720	12392	-9	11	-26	-12776	3872	-10072	8	0	32	-4680	2312	16368	34	4	0	127	126	5
-10108	-3032	12972	166	-59	-130	-13008	52	-10156	-8	-40	67	-4964	-2360	15848	161	-129	162	-9824	3760	12512	-7	7	-27	-12832	3800	-9872	10	0	29	-4552	2056	16240	34	7	-2	127	126	5
-10028	-3072	13000	162	24	-165	-12912	76	-10152	7	-34	31	-4916	-2252	15800	145	-107	160	-9632	3728	12376	-4	10	-25	-12928	3776	-9664	12	1	31	-4608	2240	16480	37	5	1	126	126	5
-10064	-3076	12828	166	-24	-139	-12936	88	-10112	37	-62	62	-4976	-2216	15780	91	-132	186	-9672	3688	12440	-9	11	-24	-13008	3880	-10104	7	-6	33	-4512	2336	16024	42	7	3	127	127	5
-10096	-3012	12848	168	-59	-132	-12868	64	-10036	22	-80	41	-4916	-2216	15856	113	-118	198	-9608	3760	12288	-5	22	-23	-12856	3864	-9744	0	-3	30	-4536	2456	16224	33	1	2	127	127	5
-10104	-3052	12920	114	-29	-132	-12912	152	-10108	27	-63	23	-4880	-2148	15824	114	-110	165	-9696	3632	12352	-8	18	-28	-12784	3840	-9864	3	1	31	-4616	2376	16200	30	-3	6	126	127	5
-10080	-3036	12880	118	-38	-149	-12900	76	-9944	-22	-69	23	-4824	-2088	15744	116	-124	178	-9736	3896	12280	-9	15	-27	-12984	3840	-9808	12	-1	26	-4416	2344	16320	27	4	4	126	126	5
-10072	-3040	12932	177	-24	-112	-12876	48	-9932	16	-45	-38	-4872	-2100	15888	78	-149	205	-9872	3696	12248	-8	17	-28	-12816	3824	-9984	10	2	24	-4520	2504	16184	26	6	5	126	127	5
-10080	-3016	12812	156	-50	-123	-13040	68	-10136	-27	-33	-65	-4864	-2148	15816	49	-140	201	-9664	3704	12320	-12	12	-25	-12920	4040	-10024	9	0	18	-4592	2336	16424	21	5	7	126	127	5
-10076	-3076	12836	122	-22	-146	-13036	144	-10068	-1	-43	-84	-4880	-2196	15828	78	-125	235	-9720	3680	12488	-12	11	-29	-12672	3912	-9736	1	-2	13	-4376	2376	16008	26	7	8	126	127	5
-10072	-3092	12792	146	32	-148	-12908	40	-10068	-24	-44	-72	-4844	-2228	15800	47	-136	241	-9736	3672	12504	-9	8	-32	-12704	3800	-9928	6	-5	10	-4480	2312	16168	20	8	10	126	126	5
-10096	-3164	12992	150	35	-112	-12888	56	-10076	-7	-9	-91	-4884	-2076	15852	33	-110	218	-9648	3712	12616	-13	6	-28	-12768	3872	-9952	10	-5	10	-4432	2504	16256	25	8	16	126	126	5
-10104	-3120	12820	152	-22	-146	-12924	12	-10076	-11	-63	-92	-4844	-2220	15864	-6	-99	202	-9688	3616	12352	-11	9	-27	-12632	3872	-9816	16	-1	5	-4440	2328	16304	18	11	12	126	126	5
-10088	-3052	12908	126	-54	-179	-12944	24	-10044	3	-68	-84	-4808	-2244	15864	-8	-123	199	-9616	3672	12520	-11	8	-30	-12888	3920	-9832	16	0	11	-4528	2352	16448	24	9	8	126	126	5
-10068	-3064	12892	133	3	-132	-13024	24	-10004	-31	-4	-67	-4812	-2236	15840	-16	-45	190	-9672	3752	12288	-15	13	-32	-12984	3896	-9936	16	0	8	-4552	2304	16224	21	10	9	126	126	5
-10064	-3044	12888	164	3	-148	-13024	56	-10056	-26	16	-83	-4828	-2244	15892	-10	-75	162	-9632	3704	12176	-12	19	-27	-12792	3848	-9808	20	8	9	-4440	2272	16016	11	11	9	126	126	5
-10108	-3116	12968	115	58	-130	-12904	100	-10048	-3	21	-94	-4808	-2176	15772	-11	-98	148	-9656	3712	12440	-11	21	-30	-12808	3840	-9776	12	10	8	-4512	2192	16280	13	11	1	126	126	5
-10044	-3080	12948	124	67	-122	-12872	80	-10148	-44	63	-62	-4756	-2208	15776	5	-57	184	-9744	3720	12592	-11	21	-38	-12776	3752	-9920	14	10	17	-4480	2144	16104	15	10	-6	126	126	5
-10036	-3040	12928	120	81	-135	-12876	40	-10104	-45	93	-67	-4816	-2228	15820	33	-86	194	-9752	3688	12312	-12	20	-27	-12856	3928	-10112	15	11	11	-4664	2280	16032	14	11	0	126	126	5
-10084	-3068	12948	111	73	-130	-12916	16	-10108	-49	97	-85	-4888	-2248	15960	35	-98	212	-9496	3656	12384	-12	18	-27	-12920	3744	-9912	14	15	13	-4600	2176	16256	18	3	3	126	126	5
-10080	-2992	12804	146	61	-128	-12900	4	-10136	-31	79	-60	-4992	-2228	15876	29	-92	211	-9640	3672	12672	-5	16	-25	-12864	3776	-10032	18	9	17	-4608	2376	16184	21	5	1	126	126	5
-10152	-3060	12932	105	41	-125	-12904	76	-10228	-53	93	-44	-5060	-2252	15860	25	-121	175	-9688	3720	12296	-11	20	-27	-12872	3896	-10072	10	2	15	-4776	2312	16448	19	-2	6	126	126	5
-10088	-3080	12996	136	65	-131	-12932	4	-10216	-12	11	-97	-5056	-2292	15796	41	-101	207	-9664	3848	12448	-12	16	-29	-12776	3848	-9856	9	-4	13	-4856	2376	16352	28	-1	7	126	126	5
-10080	-3016	12972	137	13	-150	-12920	-48	-10236	-54	-7	-45	-5072	-2308	15908	37	-170	184	-9504	3776	12376	-12	21	-32	-12800	3776	-9816	8	-4	16	-4776	2320	16304	27	-5	7	126	126	5
-10088	-3080	12944	138	-46	-150	-12848	-8	-10120	23	-9	-41	-5092	-2348	15784	59	-158	180	-9688	3768	12440	-10	15	-29	-12760	3856	-10000	7	-15	14	-4808	2280	16096	32	-3	6	126	126	5
-10080	-2996	12920	183	-56	-166	-12928	4	-10140	41	-104	25	-5080	-2356	15880	34	-144	157	-9736	3536	12344	-10	12	-27	-12816	3760	-10024	9	-19	24	-4704	2288	16088	35	-6	6	126	126	5
-10068	-3096	12844	140	-77	-165	-12992	-48	-10072	38	-156	22	-4936	-2332	15756	27	-150	139	-9664	3680	12384	-12	12	-22	-12840	3840	-9744	12	-20	21	-4728	2328	16368	36	-11	9	126	126	5
-10088	-3128	12876	160	-57	-176	-12856	72	-10140	52	-167	56	-4928	-2256	15908	18	-156	134	-9744	3632	12280	-8	9	-23	-12872	3768	-9856	5	-22	20	-4552	2272	16424	37	-7	7	126	126	5
-10048	-3024	12824	177	-41	-117	-12932	32	-10188	46	-173	34	-4876	-2172	15868	37	-159	138	-9584	3752	12152	-4	10	-25	-12848	3808	-9856	0	-16	18	-4496	2328	16320	37	-7	1	126	126	5
-10080	-3084	12796	131	-51	-124	-12924	108	-10088	10	-115	49	-4820	-2228	15852	31	-164	143	-9672	3712	12152	-9	15	-23	-12912	3656	-9768	7	-20	26	-4504	2256	16080	36	-6	2	126	126	5
-10100	-3016	12956	169	-54	-144	-12924	52	-10028	17	-114	31	-4708	-2148	15832	32	-143	114	-9744	3656	12400	-9	15	-27	-12840	3832	-9520	16	-14	22	-4456	2280	16200	30	-11	-2	126	126	5
-10124	-3024	12988	166	-31	-160	-12968	40	-9928	-22	-94	23	-4720	-2164	15840	37	-144	127	-9728	3680	12512	-5	15	-30	-12720	3904	-9776	15	-11	24	-4512	2328	16096	32	-4	-4	126	126	5
-10068	-3052	12956	184	-38	-133	-12968	76	-10032	36	-52	18	-4800	-2216	15844	55	-111	162	-9600	3816	12392	-5	18	-22	-12840	3872	-9728	18	-9	21	-4232	2432	16304	32	-4	-3	126	126	5
-10076	-3044	12828	169	-46	-106	-12964	104	-10084	44	-15	-13	-4884	-2216	15908	58	-113	117	-9656	3848	12368	-8	19	-34	-12776	3888	-9864	6	-7	23	-4496	2320	16392	28	-4	-1	126	126	5
-10124	-3080	12908	134	36	-125	-12900	28	-10216	39	-19	-23	-4872	-2180	15852	41	-121	173	-9616	3752	12208	-6	18	-26	-12904	3856	-9832	9	-4	18	-4616	2408	16272	21	-8	0	126	126	5
-10108	-3036	12812	131	20	-122	-12980	40	-10004	-29	11	-52	-4864	-2232	15744	46	-120	157	-9608	3776	12432	-12	21	-29	-12872	3880	-9712	13	-2	20	-4512	2448	16392	15	-8	-2	126	126	5
-10092	-3036	12940	140	21	-135	-12832	116	-10128	-17	23	-70	-4912	-2200	15832	31	-115	193	-9616	3696	12304	-10	21	-28	-12856	3888	-9840	12	-3	17	-4536	2344	16392	16	-3	0	126	126	5
-10112	-3140	12840	136	-6	-145	-12912	84	-10028	-41	27	-24	-4928	-2204	15760	30	-140	191	-9616	3664	12416	-11	21	-28	-12800	3832	-10176	13	1	15	-4496	2392	16216	20	-4	2	126	126	5
-10104	-3032	12896	168	-5	-173	-12972	4	-10184	-18	-5	-56	-5012	-2152	15860	13	-128	186	-9680	3608	12400	-7	16	-26	-12712	3896	-9816	16	-3	14	-4592	2504	15928	24	-4	5	126	126	5
-10104	-3024	12956	146	-7	-153	-12904	76	-10232	-10	-85	-62	-4956	-2244	15872	21	-132	200	-9712	3664	12376	-12	15	-30	-12728	3872	-9960	6	-6	12	-4592	2536	16264	26	-4	6	126	126	5
-10056	-3036	13000	128	22	-144	-12880	104	-10192	14	-7	-78	-4976	-2244	15880	2	-130	169	-9664	3616	12432	-10	9	-26	-12880	3744	-9888	9	-4	12	-4488	2264	16192	25	-2	9	126	126	5
-10056	-3036	12848	143	11	-138	-12896	44	-10160	-19	-75	-16	-4984	-2236	15816	14	-141	180	-9712	3616	12456	-10	8	-31	-12792	3920	-9752	7	-11	12	-4688	2360	16024	23	-5	11	126	126	5
-10080	-3152	12848	126	-20	-150	-12880	-28	-10272	23	-33	-29	-4924	-2276	15768	-10	-163	166	-9616	3720	12504	-11	10	-26	-12920	3728	-9912	8	-12	12	-4552	2216	16448	25	-1	8	126	126	5
-10064	-3068	12904	143	-21	-133	-12856	32	-10016	20	-78	-17	-4852	-2284	15880	-24	-127	170	-9536	3576	12256	-15	14	-27	-12840	3824	-9936	16	-12	16	-4480	2336	16168	31	-2	6	126	126	5
-10056	-3020	12892	136	-51	-139	-12980	60	-10132	-1	-73	-31	-4732	-2304	15844	12	-94	189	-9608	3664	12432	-10	13	-22	-12976	3872	-9824	11	-14	18	-4432	2272	16304	30	3	7	126	126	5
-10040	-3092	12856	150	-11	-153	-13008	44	-10116	17	-17	-32	-4728	-2252	15840	9	-92	161	-9632	3776	12440	-12	17	-27	-12840	3904	-9800	8	-8	15	-4432	2232	16304	27	4	7	126	126	5
-10052	-3024	12924	120	45	-130	-13024	152	-10056	29	-30	20	-4832	-2344	15880	74	-117	138	-9488	3720	12520	-8	13	-30	-12808	3696	-9584	2	-1	17	-4432	2344	16144	20	0	2	126	126	5
-10108	-3048	12880	158	33	-122	-12932	56	-10060	-12	17	3	-4744	-2280	15816	72	-114	159	-9608	3680	12504	-7	17	-28	-12816	3744	-9744	5	1	21	-4464	2264	16208	25	1	-3	126	126	5
-9992	-3096	12968	172	24	-115	-12940	108	-9960	6	22	7	-4796	-2192	15796	66	-74	175	-9712	3752	12520	-5	18	-29	-12880	3872	-9576	8	-2	23	-4408	2360	16216	18	0	-1	126	126	5
-10068	-3040	12900	213	58	-135	-12920	40	-9972	-27	55	-38	-4896	-2180	15780	49	-100	163	-9680	3816	12464	-5	21	-30	-12864	3912	-9888	12	0	16	-4496	2512	16048	13	3	-3	126	125	5
-10020	-3028	13028	155	16	-103	-12936	132	-10060	-32	28	-45	-4944	-2196	15900	59	-152	157	-9656	3568	12464	-7	24	-29	-12824	3944	-9944	8	7	21	-4664	2376	16152	16	4	-2	126	126	5
-10088	-3056	12936	126	33	-130	-12908	64	-10168	-3	27	-38	-4888	-2260	15956	35	-110	168	-9736	3760	12512	-15	18	-24	-12864	3864	-9816	6	3	20	-4608	2280	16072	13	-1	1	126	126	5
-10088	-3120	12916	148	8	-127	-12860	48	-10236	6	15	-38	-4988	-2156	15864	41	-75	170	-9680	3600	12368	-14	19	-25	-12808	3888	-10080	7	0	10	-4496	2248	16376	25	4	5	126	126	5
-10128	-3104	12828	154	1	-94	-12904	28	-10172	8	-34	-21	-5068	-2200	15916	43	-113	164	-9736	3560	12440	-13	16	-23	-12840	3824	-9976	15	-5	14	-4592	2328	16104	23	1	4	126	126	5
-10108	-3032	12860	135	22	-123	-12856	52	-10144	-42	-57	-62	-5004	-2192	15812	20	-149	183	-9712	3744	12504	-5	13	-26	-12832	3840	-9840	12	-4	13	-4568	2368	16280	21	-1	12	126	126	5
-10072	-3044	12936	149	-21	-114	-12912	52	-10160	40	-70	-35	-4932	-2220	15800	6	-150	186	-9720	3584	12368	-11	15	-24	-12776	3832	-9752	11	-2	10	-4624	2192	16392	19	2	10	126	126	5
-10064	-3036	12904	121	-59	-174	-12896	24	-10076	0	-35	-40	-4932	-2208	15772	1	-133	184	-9792	3576	12592	-13	7	-28	-12824	3768	-9920	9	-8	9	-4576	2272	15968	21	-1	5	126	126	5
-10096	-3056	12936	115	-72	-118	-12928	48	-10072	-2	-66	-63	-4828	-2248	15820	28	-114	170	-9688	3688	12128	-7	14	-28	-12904	3864	-9752	8	-11	12	-4600	2232	16296	26	-3	8	126	126	5
-10128	-3116	12944	125	1	-159	-12904	24	-9904	22	-87	-83	-4948	-2248	15808	3	-152	167	-9648	3656	12288	-13	11	-24	-12824	3736	-10000	6	-12	12	-4504	2208	16328	25	-2	3	126	126	5
-10032	-3060	12880	124	22	-169	-12884	40	-10240	11	-74	-33	-4864	-2196	15864	-20	-143	186	-9648	3616	12360	-10	8	-27	-12808	3656	-9984	7	-7	16	-4544	2232	16368	28	-6	5	126	126	5
-10100	-3028	12952	127	-50	-154	-12936	20	-9996	6	-58	-45	-4760	-2296	15788	21	-150	141	-9600	3712	12376	-10	11	-33	-12928	3944	-9712	11	-9	16	-4656	2232	16240	25	-6	2	126	126	5
-10000	-3068	12960	113	0	-116	-12940	64	-10076	43	-102	-45	-4820	-2256	15884	42	-122	167	-9568	3808	12248	-6	15	-28	-12856	3744	-9776	15	-8	17	-4448	2384	16256	28	-5	2	126	126	5
-10072	-3052	13008	156	-27	-121	-12908	128	-10124	-21	-63	-25	-4856	-2200	15836	39	-155	145	-9664	3680	12264	-8	15	-28	-12904	3904	-9904	17	-8	19	-4480	2288	16088	24	-3	0	126	126	5
-10104	-3080	12844	115	0	-130	-12984	68	-10040	-31	20	-65	-4840	-2260	15812	54	-159	170	-9640	3672	12400	-8	18	-26	-12752	3800	-9576	18	-5	17	-4512	2376	16096	26	-1	0	126	126	5
-10084	-3056	12952	186	14	-134	-12916	8	-10020	18	-30	-25	-4860	-2228	15828	7	-123	131	-9744	3696	12296	-9	17	-24	-12776	3752	-9680	15	-12	22	-4408	2368	15968	26	-2	0	126	126	5
-10136	-2980	12876	109	-23	-109	-12940	44	-10072	14	-78	-8	-4840	-2260	15828	26	-80	194	-9608	3720	12352	-5	18	-24	-12800	3888	-9792	11	-7	20	-4520	2304	16072	28	1	-1	126	126	5
-10140	-2992	12808	83	13	-130	-12844	64	-10080	-32	-48	-49	-4908	-2272	15716	23	-106	187	-9552	3696	12368	-12	14	-28	-12856	3872	-10048	7	-8	21	-4496	2328	16336	24	-3	-1	126	126	5
-10084	-3084	12876	160	-43	-121	-12908	48	-10028	2	-30	-10	-4872	-2240	15932	47	-120	178	-9632	3856	12288	-11	16	-31	-12752	3856	-9960	7	-2	21	-4440	2184	16224	24	0	3	126	126	5
-10028	-3144	12876	138	16	-140	-13020	68	-10152	-7	-39	-29	-4924	-2280	15856	38	-146	160	-9664	3952	12504	-10	13	-24	-12784	4032	-9888	2	-11	21	-4408	2496	16104	28	1	0	126	126	5
-10028	-3032	12820	103	17	-136	-12944	64	-10200	-17	-34	-1	-4964	-2288	15840	86	-155	170	-9688	3648	12536	-10	13	-27	-12832	3928	-9912	6	-8	19	-4624	2352	16432	23	-4	0	126	126	5
-10092	-3116	12864	143	20	-124	-12844	72	-10096	-22	-46	-38	-4908	-2228	15908	61	-135	172	-9600	3672	12152	-4	13	-28	-12800	3856	-9928	9	-12	18	-4592	2400	16392	24	-3	4	126	128	5
-10076	-3068	12944	175	-5	-135	-12916	36	-9988	-26	-47	-28	-4884	-2216	15728	40	-144	156	-9688	3656	12440	-7	11	-28	-12888	3816	-9960	5	-9	17	-4568	2288	16336	25	0	4	126	128	5
-10068	-3084	12872	129	-16	-151	-12932	44	-10112	11	-103	3	-4932	-2192	15860	22	-109	143	-9616	3600	12352	-12	12	-29	-12864	3864	-9840	11	-14	19	-4680	2280	16120	32	-4	7	126	128	5
-10076	-3052	12920	128	-4	-169	-12864	128	-10060	60	-69	12	-4952	-2240	15856	34	-136	183	-9568	3744	12376	-7	13	-28	-12864	3848	-9696	13	-11	12	-4528	2360	16080	29	-3	7	126	127	5
-10056	-3112	12900	189	-73	-157	-12956	28	-10128	16	-46	-41	-4932	-2252	15812	37	-135	115	-9608	3568	12504	-5	13	-26	-12872	3928	-9944	14	-8	14	-4464	2320	15968	26	-3	2	126	127	5
-10036	-3036	12916	149	-95	-157	-12960	48	-10068	-31	-41	-44	-4840	-2240	15940	31	-128	183	-9656	3704	12296	-12	11	-24	-12728	3864	-9624	8	-4	17	-4416	2256	16296	26	3	7	126	127	5
-10072	-3064	12900	135	-43	-151	-13012	76	-10104	-36	-42	-26	-4680	-2256	15888	-38	-76	166	-9752	3728	12552	-8	12	-27	-13080	3848	-9728	9	-1	16	-4360	2448	16248	25	3	0	126	127	5
-10012	-3024	12928	162	-11	-139	-13020	80	-10036	5	-38	-34	-4776	-2272	15848	31	-87	180	-9616	3824	12400	-9	15	-25	-12840	3912	-9912	6	-5	13	-4280	2280	16152	25	3	3	126	127	5
-10028	-3084	12916	133	27	-123	-12936	84	-10172	-28	-1	-65	-4720	-2244	15944	36	-81	180	-9632	3776	12376	-9	22	-29	-12888	3984	-9800	11	-1	13	-4432	2224	16064	22	-2	2	126	126	5
-10052	-3028	12964	121	67	-125	-12916	24	-9940	9	36	-62	-4764	-2200	15832	78	-68	195	-9760	3704	12280	-8	20	-29	-12912	3824	-9752	15	9	16	-4384	2392	16256	19	5	2	126	126	5
-10040	-3024	12844	145	35	-123	-12868	56	-9976	-9	63	-90	-4800	-2192	15944	68	-89	194	-9752	3720	12512	-8	24	-31	-12792	3848	-9960	13	8	16	-4576	2312	16384	9	4	-1	126	126	5
-10044	-3056	12944	154	47	-107	-12936	96	-9992	-66	67	-87	-4832	-2248	15892	55	-111	220	-9696	3632	12416	-12	26	-31	-12872	3856	-10048	7	8	14	-4608	2496	16152	7	5	3	126	126	5
-10104	-3044	12948	131	71	-118	-12924	16	-10164	-33	59	-46	-4856	-2244	15920	74	-95	216	-9696	3600	12272	-11	23	-30	-12808	3856	-10168	8	4	12	-4544	2392	16192	10	4	5	126	126	5
-10116	-3112	12808	100	46	-120	-12952	20	-10040	-34	52	-47	-4952	-2304	15928	70	-78	211	-9712	3760	12344	-11	23	-34	-12848	3920	-9952	10	4	11	-4664	2312	16224	19	2	5	126	126	5
-10080	-3076	12884	136	49	-93	-12888	-8	-10176	-17	26	-43	-4992	-2320	15924	76	-86	164	-9640	3728	12320	-15	18	-34	-12912	3840	-9952	10	-2	6	-4712	2304	16136	25	0	4	126	126	5
-10100	-3060	12872	174	12	-147	-12888	-56	-10232	15	-31	-19	-5028	-2224	15880	36	-108	126	-9560	3688	12344	-14	16	-28	-12792	3848	-9832	12	-2	11	-4632	2184	16080	22	-2	5	126	126	5
-10108	-3092	12920	171	23	-121	-12888	4	-10132	-2	-20	7	-5100	-2244	15772	5	-88	179	-9664	3664	12128	-14	15	-30	-12776	3912	-10048	7	-7	9	-4616	2176	16136	17	-5	7	126	126	5
-10100	-3040	12900	154	-7	-89	-12860	44	-10196	14	-64	-4	-4980	-2228	15856	14	-169	104	-9728	3888	12384	-10	11	-25	-12592	3928	-9904	7	-7	17	-4664	2312	16240	20	-4	4	126	126	5
-10060	-3128	12828	149	-74	-160	-12892	16	-10212	42	-85	-1	-4964	-2252	15896	26	-163	126	-9568	3736	12256	-13	8	-33	-12880	3688	-10008	8	-11	13	-4672	2328	16184	26	-6	4	126	126	5
-10068	-3068	12872	131	-17	-121	-12892	36	-10104	57	-91	1	-4956	-2208	15840	18	-163	144	-9864	3616	12248	-13	11	-30	-12840	3856	-9840	14	-21	16	-4688	2192	16392	28	-9	3	126	126	5
-10056	-3080	12900	138	-30	-158	-12944	20	-10084	21	-124	-9	-4944	-2256	15768	1	-138	105	-9704	3656	12592	-9	14	-25	-12872	3816	-9720	13	-17	20	-4776	2224	16312	36	-11	4	126	126	5
-10036	-3088	12872	141	-6	-125	-12976	28	-10064	35	-141	-8	-4876	-2292	15808	-29	-166	128	-9752	3544	12416	-8	12	-31	-12880	3824	-10008	8	-20	22	-4648	2272	16032	33	-11	1	126	126	5
-10100	-2984	12976	111	-74	-135	-12896	84	-10076	26	-120	-36	-4856	-2212	15844	30	-136	149	-9752	3592	12192	-7	10	-26	-12952	3816	-9920	9	-18	22	-4344	2224	16256	31	-7	-2	126	126	5
-10020	-3112	12864	125	-43	-164	-12944	40	-10144	12	-101	-15	-4852	-2264	15784	25	-164	172	-9688	3736	12448	-7	12	-27	-12816	3752	-9752	10	-15	21	-4328	2200	16208	29	-8	-1	126	126	5
-10072	-3092	12924	114	-13	-170	-12980	8	-10188	-18	-80	-43	-4804	-2244	15852	12	-178	161	-9744	3744	12584	-8	10	-24	-12736	3904	-9944	8	-18	25	-4448	2344	15984	31	-1	-3	126	126	5
-10032	-3064	12948	139	-82	-130	-12980	44	-10124	2	-69	-29	-4820	-2256	15800	18	-147	159	-9656	3656	12632	-7	15	-25	-12936	3936	-9728	6	-11	24	-4288	2224	16208	29	-3	-2	126	126	5
-9988	-3056	12932	136	-40	-167	-12972	4	-10176	-2	-93	-25	-4816	-2232	15876	-25	-145	169	-9696	3752	12520	-8	9	-23	-12856	3904	-9936	11	-11	23	-4504	2320	16488	28	-7	-2	126	125	5
-10044	-3036	12860	90	58	-187	-12908	52	-10072	11	-69	-20	-4848	-2308	15852	36	-164	167	-9656	3712	12288	-7	15	-25	-12936	3816	-9872	10	-10	24	-4496	2368	16256	28	1	1	126	125	5
-10108	-3068	12804	158	26	-140	-12988	44	-10148	41	-45	-20	-4848	-2308	15824	44	-148	148	-9632	3632	11976	-5	14	-29	-12872	3832	-9864	11	-12	19	-4456	2320	16208	23	-2	2	126	125	5
-10128	-3024	12912	131	35	-138	-12960	84	-10068	30	-31	-6	-4816	-2268	15784	21	-116	174	-9584	3696	12120	-5	12	-28	-12856	3688	-9728	14	-8	18	-4408	2416	16120	28	1	-2	126	126	5
-10088	-3092	12848	131	28	-142	-12876	24	-10004	-29	-21	-22	-4864	-2232	15816	30	-127	161	-9656	3704	12528	-11	14	-30	-12800	3992	-9848	7	-1	20	-4504	2376	16096	27	1	0	126	125	5
-10116	-3056	12864	146	5	-155	-12952	44	-9952	-5	-60	-25	-4804	-2268	15772	39	-130	147	-9664	3656	12424	-6	11	-28	-12824	3968	-9720	9	-4	19	-4464	2328	16272	23	1	5	126	125	5
-10088	-3040	12876	126	-16	-136	-12900	56	-10044	49	-31	25	-4792	-2304	15904	52	-114	137	-9664	3720	12520	-14	15	-31	-12952	4016	-9848	14	-6	17	-4360	2344	16184	20	-3	5	126	125	5
-9988	-3088	12960	164	23	-176	-12920	28	-10032	27	-3	-14	-4836	-2292	15848	34	-88	119	-9680	3824	12304	-13	19	-28	-12824	3992	-9744	12	-4	16	-4488	2352	16336	21	-1	4	126	125	5
-10104	-3032	12872	174	-40	-130	-12928	28	-10172	-15	6	-18	-4856	-2252	15756	56	-105	156	-9704	3800	12544	-12	16	-28	-12976	3888	-9944	9	-5	17	-4464	2376	16016	19	3	8	126	125	5
-10068	-3152	12944	129	41	-101	-12896	32	-10160	2	-32	-37	-4824	-2224	15804	46	-113	173	-9560	3632	12432	-9	14	-29	-12880	3872	-9712	10	-4	13	-4368	2344	16264	20	1	6	126	125	5
-10060	-3020	12908	131	22	-138	-12972	80	-10136	-66	13	-37	-4772	-2216	15792	49	-116	181	-9624	3544	12272	-7	12	-30	-12824	3920	-9664	8	1	11	-4704	2272	16536	21	7	5	126	125	5
-10064	-3004	12980	145	-24	-144	-12952	56	-10256	-18	19	-4	-4972	-2224	15896	33	-113	178	-9600	3704	12272	-13	13	-29	-12840	3832	-9824	13	1	13	-4544	2264	16240	21	1	7	126	125	5
-10072	-3060	12856	146	30	-127	-12924	44	-10128	-49	1	-18	-4924	-2200	15820	43	-96	186	-9696	3584	12400	-10	17	-27	-12992	3856	-9936	13	-1	17	-4592	2224	16136	21	3	5	126	126	5
-10120	-3104	12956	151	18	-162	-12868	44	-10076	-37	-10	-27	-4888	-2280	15740	18	-81	188	-9704	3688	12248	-10	15	-32	-12704	3840	-10056	7	-3	15	-4416	2328	16216	22	7	2	126	126	5
-10096	-3116	12900	163	-38	-69	-12976	28	-10120	-26	-3	-49	-4948	-2248	15832	37	-56	192	-9536	3720	12312	-12	11	-29	-12856	3816	-9912	10	-7	18	-4592	2392	16296	27	3	5	126	126	5
-10028	-3068	12836	129	2	-142	-13028	60	-10100	6	-40	-49	-4896	-2232	15848	12	-92	128	-9664	3800	12248	-9	19	-26	-12848	3928	-9712	10	-6	19	-4448	2240	15952	26	6	2	126	126	5
-10112	-3040	13064	134	23	-116	-12896	24	-10100	28	-42	-6	-4900	-2292	15860	21	-95	139	-9560	3728	12416	-10	14	-27	-12864	3896	-9648	10	-2	11	-4520	2216	16200	24	-2	-2	126	125	5
-9992	-3020	12928	158	24	-117	-12932	56	-10152	1	-24	-40	-4888	-2276	15844	89	-64	153	-9728	3712	12288	-5	20	-27	-12888	3824	-9776	12	-3	18	-4416	2200	15968	21	6	-2	126	126	5
-10044	-3116	12956	111	41	-136	-12964	60	-10100	-34	-7	-53	-4856	-2204	15824	56	-93	184	-9648	3824	12192	-6	18	-24	-12584	3944	-9992	10	-3	20	-4448	2216	16088	23	-1	0	126	126	5
-10048	-3032	12920	144	23	-118	-12972	84	-10008	-13	-3	-44	-4916	-2252	15844	39	-130	152	-9600	3752	12416	-11	20	-28	-12600	3872	-10040	5	2	17	-4504	2408	16272	23	1	0	126	126	5
-10108	-3128	12904	149	-2	-141	-12916	56	-10100	-27	32	-52	-4868	-2172	15932	45	-145	153	-9792	3760	12376	-11	13	-29	-12760	3768	-9888	10	-5	14	-4624	2280	16072	25	7	2	126	126	5
-10104	-3044	12892	159	-47	-163	-12940	72	-10260	15	4	-59	-4788	-2216	15824	3	-86	164	-9520	3808	12384	-8	12	-24	-12776	4056	-9656	8	0	12	-4384	2360	16304	27	7	7	126	126	5
-9992	-3124	12964	158	33	-135	-12996	60	-10220	-18	19	-54	-4864	-2340	15856	78	-102	201	-9728	3792	12432	-11	12	-25	-12928	3912	-9856	1	0	15	-4520	2312	16400	27	5	6	126	126	5
-10060	-3044	12896	174	-45	-122	-13024	80	-10148	-13	-41	-45	-4964	-2240	15896	12	-111	162	-9608	3824	12512	-11	14	-29	-12936	3904	-9856	13	-8	15	-4496	2440	16264	19	3	10	126	126	5
-10148	-3064	12872	163	38	-130	-12904	28	-10052	-35	-33	-74	-4764	-2232	15732	21	-79	183	-9688	3728	12208	-9	18	-28	-12688	3792	-9864	13	-2	13	-4472	2472	16096	16	13	12	126	127	5
-10084	-3064	12924	153	-8	-98	-12940	32	-10092	-51	20	-72	-4804	-2144	15824	67	-82	161	-9712	3792	12320	-11	15	-23	-12824	3968	-9928	0	-1	6	-4432	2424	16128	15	15	14	126	127	5
-10056	-3088	12844	162	-44	-155	-12904	52	-10016	-93	-5	-47	-4792	-2276	15828	37	-66	208	-9664	3672	12368	-17	12	-31	-12864	3928	-9816	0	3	4	-4496	2432	16208	14	23	16	126	127	5
-10120	-3080	13052	140	18	-138	-12936	88	-10164	-81	26	-55	-4708	-2272	15848	87	-83	208	-9736	3792	12504	-12	11	-29	-12752	3808	-9840	8	1	-2	-4304	2312	16248	25	22	21	126	126	5
-10068	-3096	12908	115	19	-163	-12960	48	-10136	-56	63	-37	-4832	-2240	15936	31	-54	185	-9736	3608	12448	-12	8	-25	-12792	3832	-9712	27	6	-5	-4240	2288	16256	19	26	19	126	127	5
-10044	-3064	12972	183	-1	-126	-13016	16	-10000	-93	43	-38	-4836	-2200	15916	36	-69	210	-9632	3536	12472	-12	12	-24	-12880	3680	-9704	23	11	0	-4232	2416	16088	7	24	13	126	127	5
-10012	-2968	12924	123	57	-103	-12940	12	-10108	16	104	-14	-4744	-2264	15876	77	-61	133	-9856	3888	12176	-13	17	-30	-12808	3760	-9864	6	22	-2	-4144	1960	16120	-7	27	30	126	125	5
-10064	-3060	12932	189	91	-83	-12940	-16	-9868	-175	49	-47	-4916	-2180	15768	186	-56	101	-9608	3696	12504	-11	10	-26	-12840	3696	-9760	19	29	4	-4536	1520	15776	50	9	35	126	123	5
-10084	-3048	12908	107	75	-133	-12876	84	-10128	-40	101	0	-4896	-2112	15780	142	-13	110	-9736	3736	12432	-18	7	-29	-12800	3736	-9744	34	42	13	-4440	1664	15872	176	-29	39	126	122	5
-10136	-3016	12804	139	65	-141	-12824	132	-10088	-66	105	21	-4900	-2020	15728	22	-61	94	-9592	3752	12432	-14	3	-25	-12760	3744	-9872	16	47	22	-4328	2248	16272	145	-21	66	126	123	5
-10096	-3044	12936	141	29	-90	-12844	144	-10084	-73	91	-90	-4880	-1924	15900	-50	-122	142	-9560	3744	12472	-13	11	-31	-13048	3824	-10080	14	45	20	-4576	2648	16528	65	22	36	126	126	5
-10064	-3012	12916	137	7	-102	-12852	176	-10032	-80	90	-143	-4804	-2064	15932	-45	-149	243	-9552	3616	12376	-7	27	-31	-13040	3800	-10096	26	33	33	-4880	2592	16320	42	26	-4	126	127	5
-10124	-3016	12884	125	80	-106	-12928	148	-10152	-162	127	-185	-4876	-2168	15932	-24	-64	335	-9688	3648	12248	-3	42	-29	-13008	3960	-10008	-5	30	32	-4992	2456	16416	49	9	-20	127	127	5
-10100	-3124	12916	128	59	-101	-12916	108	-10092	-139	116	-209	-4900	-2216	15860	18	-60	375	-9688	3744	12256	-5	48	-24	-12912	4088	-9976	-2	17	24	-5128	2704	16368	44	4	-5	127	127	5
-10040	-3068	12960	106	55	-127	-12924	20	-10164	-140	115	-214	-4992	-2312	15948	1	-85	338	-9656	3672	12232	-2	39	-25	-12592	4056	-9912	-10	2	25	-5056	2720	16104	47	2	5	126	126	5
