#Activity	running 
#ActivityID	2 
#Date 08-18-11-48
acc_rf_x	acc_rf_y	acc_rf_z	gyro_rf_x	gyro_rf_y	gyro_rf_z	acc_rs_x	acc_rs_y	acc_rs_z	gyro_rs_x	gyro_rs_y	gyro_rs_z	acc_rt_x	acc_rt_y	acc_rt_z	gyro_rt_x	gyro_rt_y	gyro_rt_z	acc_lf_x	acc_lf_y	acc_lf_z	gyro_lf_x	gyro_lf_y	gyro_lf_z	acc_ls_x	acc_ls_y	acc_ls_z	gyro_ls_x	gyro_ls_y	gyro_ls_z	acc_lt_x	acc_lt_y	acc_lt_z	gyro_lt_x	gyro_lt_y	gyro_lt_z	EMG_r	EMG_l	act
-16128	-23832	32767	-3701	-21822	7377	-31200	-1996	-1056	-10606	17798	-2014	-32768	-5212	-96	-1703	-26315	-5847	-32768	13184	32767	-2030	4480	-2410	3960	-5800	-19920	-410	4960	1464	18808	-32120	-5536	2848	-292	-78	78	58	2
-11436	-17444	32767	5785	-32768	5163	-21500	260	-1548	862	6024	2882	-32252	-5028	1068	7422	-31575	-7746	-32768	4280	30944	-2197	863	-1766	-1368	10640	-32768	5247	1572	2337	3312	15936	-25040	4606	-41	-819	117	59	2
-6684	-9656	27528	-4729	-32768	34	-17412	1156	-4672	-2391	-5066	3055	-32768	-7760	1736	10199	-31480	-7643	-13592	8424	12464	-708	281	-380	-28360	11312	-18320	3211	3209	870	-32768	31760	-18080	2187	1048	-478	109	29	2
-7904	-14676	22224	-11690	-32768	-4273	-16404	-2688	-9156	-9365	-16483	3668	-32768	-696	-2332	4087	-29680	-4709	-9976	5768	12776	-359	372	-374	-14032	14416	-15448	-46	2435	362	-27592	1648	-10344	216	1855	878	143	100	2
-10372	-17288	16700	-8344	-32768	-11410	-13708	-3176	-12460	-9780	-28149	5470	-32768	-4752	-10280	-2406	-25931	-5310	-10256	3488	13112	-161	415	-235	-11968	6328	-19568	-425	2405	723	-20712	10552	-12208	785	3093	-637	145	47	2
-10136	-12816	11584	-5563	-32768	-20461	-11736	-3312	-10636	-6048	-32768	7311	-27112	-4104	-13092	-453	-25841	-7507	-9360	5608	13304	-83	508	-262	-20120	9256	-16952	-325	1620	337	-25128	13040	-8216	1112	2774	-481	121	70	2
-16896	-9480	12152	-10317	-32768	-30823	-13156	-2820	-13928	-279	-32768	9412	-20536	-8132	-14724	487	-11040	-4875	-8672	4984	14256	131	1003	-345	-25352	10896	-15752	-107	817	256	-32416	17192	-2912	442	3202	-446	130	167	2
-20224	-7524	17396	-11829	-32768	-32768	-12192	-3676	-16468	2682	-32768	13406	-14736	-1628	-15332	2199	-13187	-5891	-5808	6624	18024	114	2433	-536	-32768	9048	-10048	-573	790	15	-32768	8392	13560	-1071	3353	-167	108	194	2
-29936	-3988	29160	-11977	-32768	-32156	-14616	-2208	-20512	-7087	-32768	11312	-6624	1544	-15196	9172	317	-1249	-4784	6440	18824	-177	4431	-975	-32768	736	-1752	-375	961	226	-32768	-4624	25752	-1583	3146	-233	129	158	2
-32768	-4728	32767	-13061	-32768	-21232	-16840	-3004	-22532	-21067	-32768	7410	-4560	5828	-16976	18397	12901	4442	-10272	4000	18688	-266	6416	-1689	-32768	-3640	4096	806	1085	433	-26864	-15240	30672	-459	2726	-560	124	172	2
-32768	948	27024	-15828	-32768	-16791	-21684	-1456	-24396	-22594	-32768	3085	-468	7740	-16652	18272	10930	2847	-23920	1616	22640	-255	7650	-1769	-31632	-2576	9936	2440	1270	640	-14344	-7456	32767	1842	2245	-367	115	209	2
-32768	1920	17016	-17452	-32768	-16387	-27336	-2520	-29464	-25661	-32768	5115	-2416	-5804	-6524	3773	4143	-4961	-16536	3464	22120	-1	8084	-1476	-27760	-672	19376	3218	1598	215	-10992	1528	32264	1956	1207	-344	129	172	2
-32768	6944	-4580	-11394	-32768	-10005	-23736	-4924	-32768	-20431	-32768	-1477	-10152	-8680	24000	-10457	-7526	-6304	-23368	8048	23992	-439	8339	-1679	-20136	7488	22120	2138	2248	-87	-4304	7880	25072	1430	-236	-377	162	178	2
-32768	17448	-32768	-16301	-25871	-5885	-3144	-5516	-32768	-6207	-18287	-4765	-10940	-5100	32767	-3240	-4084	-6620	-32768	11664	28664	-146	7645	-1473	-17976	8760	10184	677	3098	-213	-2248	7736	15544	407	-989	-597	132	207	2
-32768	15216	-32768	-4017	-2281	-6515	-828	-5068	-32768	-3809	-14526	-4792	-4052	1488	19712	-2682	-764	-1060	-21424	15392	32767	112	4615	-739	-16744	8024	-3376	-1442	3934	-354	-3936	3448	11736	-626	-1457	-320	143	132	2
-32768	17104	-18840	4382	11174	-6445	2740	-2872	-32768	10157	23040	-1290	-2444	2508	19164	-4953	325	-663	-19168	17280	32767	617	-328	-1078	-23600	-4256	8456	-1322	4106	158	-5504	-3072	7648	-1224	-1523	-522	132	56	2
-32768	15492	-32768	21454	32767	3084	-4080	-3860	-20672	14135	29178	-1228	4836	-8820	-8368	-7196	24724	-1089	-7232	11752	27912	439	-1102	-1375	-26624	-7304	12888	1829	2900	863	-14368	-4512	9152	-637	-2267	-727	99	23	2
-32768	4332	-32768	19597	31357	3931	-32768	31032	-32768	32767	32767	-18502	-32768	-32768	10156	-14431	-28063	-11598	-9792	25856	32767	458	-1474	-792	-26464	15680	-2144	3331	1817	-38	-31608	14128	9200	1665	-3017	-257	63	39	2
8544	14456	5140	7482	20814	8040	32767	16176	-1912	32767	32767	13514	-32768	-32768	-22428	-7522	-8199	-18310	-4960	32200	32767	-1274	-2955	10	-23616	13128	-880	1127	946	-682	-32768	12568	3264	490	-2684	-126	151	0	2
-32768	-19652	20356	11814	32767	23293	-10372	5608	-28088	20145	30173	-13852	14716	32767	-3388	-9664	-880	427	-2704	18312	27648	-1626	-4308	565	-19520	13320	-2224	-1050	182	-387	-32768	7560	6152	-421	-3097	-26	146	3	2
-32768	21268	32767	19653	14072	13732	3672	-5144	-32768	26934	21386	-14691	9880	-9424	-29716	-24252	732	7689	1736	12224	17664	-341	-5098	956	-17392	6528	-4096	-1730	-1134	-717	-32768	8128	1528	-1476	-3349	373	144	124	2
-12324	-19824	13452	5901	2470	3812	-32768	2104	-13428	-13702	27159	-7266	-32768	-26084	-14552	-17697	6220	2572	-2456	14504	16608	589	-5241	1133	-16288	7656	-12264	-1230	-2773	-742	-32768	4888	-184	-861	-3079	472	161	109	2
-10932	-7460	13300	1865	1065	3227	-9608	-7628	-14332	-5523	23720	-7381	-32436	-10940	-12032	-2395	20560	-8366	-6256	10520	12352	1065	-5544	1632	-13104	4304	-13048	-457	-4094	-606	-32768	744	-5776	-529	-3132	-47	161	106	2
-10352	-5296	13680	1985	417	2396	-14764	-10300	-15280	4057	18929	-6596	-21100	-7620	-12300	-4402	19507	7205	-10416	7808	15240	1527	-5302	1589	-14808	6832	-14784	-34	-5407	-526	-29568	2328	-10904	-492	-2720	3	139	104	2
-10168	-4756	13580	2318	1120	2448	-15952	-4368	-19332	8753	13251	-3540	-20628	-10480	-13416	-6257	23300	2376	-18800	5416	19200	1811	-5800	1229	-15008	6480	-20648	836	-7220	-237	-20528	1664	-11576	144	-2192	137	87	89	2
-10456	-3480	14044	1467	2179	2101	-16988	-4764	-19936	8605	12382	-3061	-31052	-11408	-13184	-6745	26725	4621	-19048	3728	17904	2419	-5560	605	-15512	4752	-18904	1394	-6711	155	-16136	6192	-8432	-160	-1620	75	116	88	2
-8480	-2820	15108	-50	6060	1925	-24628	-3956	-19420	8713	4933	-1617	-32768	-8908	-5552	-2209	31229	5258	-32104	11640	27552	2845	-5905	533	-13728	3248	-22432	766	-7400	723	-9328	-96	-12760	-292	-871	-137	120	119	2
-3168	-5532	17248	-731	22480	4403	-32768	5268	-14008	8067	2131	-1223	-32768	-1088	13788	-1351	32767	6571	-30136	14000	19648	2097	-6138	1098	-16616	2392	-21632	689	-7269	1219	-3912	-2096	-10608	-648	43	-471	133	106	2
-3696	-6064	20308	8520	32767	12930	-32768	16084	-532	112	1009	-5465	-32768	7896	27564	-1410	31037	7099	-32768	7656	17352	1955	-4748	2957	-18416	2432	-23552	-885	-6785	1003	-2192	-824	-9824	-624	335	57	109	106	2
-9816	-996	17064	9361	32767	20076	-32768	15456	7308	-9870	2428	-7291	-30196	6328	30396	-13249	31581	6619	-32768	-600	24656	1637	-3741	4812	-20528	5768	-30184	-1956	-5597	362	-4608	7800	-472	-367	-407	968	132	142	2
-20952	-96	18300	8447	32767	20588	-27148	10288	11840	-18164	3930	-5775	-16792	388	30816	-29467	30211	7098	-32768	-14624	11688	994	-3574	5261	-19296	4584	-30488	-2077	-4079	-367	-10016	14312	17168	446	-224	1204	115	136	2
-32768	2432	19420	-272	32767	11772	-17652	6888	10024	-24569	13331	-4247	-10316	-10396	27568	-29190	14128	4822	-32768	-25136	-17392	268	-2734	3296	-6216	3016	-28896	-1426	-1957	-581	-9096	432	22352	-794	1111	927	133	70	2
-23600	-3772	20252	-1347	32767	9822	-17828	2252	20624	-19282	25668	-1169	-8368	-16224	23488	-16768	852	3579	-32768	-27112	-28072	247	-1077	126	1832	4888	-30224	-582	-202	117	-5136	-6040	23776	-788	412	214	122	67	2
-29416	-6548	22344	2244	32767	11086	-18432	1580	19972	-417	25706	-2682	-8212	-13336	20788	3619	-14116	4183	-32768	-15584	-16944	-49	368	-1370	3848	2496	-30440	129	1517	360	6304	-7072	12208	1820	650	-1244	130	117	2
-32768	-6452	32767	3464	32767	10475	-22700	796	9596	17358	29458	-2851	-5392	-6112	11992	11706	-21883	2014	-32768	-4312	-5616	-802	819	-1602	2744	1968	-24920	733	2575	178	3144	8224	-19688	1508	3045	-555	132	141	2
-25200	6288	32767	3482	28192	9169	-18208	2088	1004	15352	32767	-4729	-4964	3192	8056	14042	-24172	2959	32767	-32768	-32768	-1446	4810	-3992	-6880	29672	-7768	1050	3348	309	-16808	20008	32767	-1057	-1100	1331	136	194	2
-23484	-13068	32767	-11635	-3967	7588	-26140	7648	5772	-6693	31071	-6220	-10524	2384	896	2156	-24073	1590	-32768	-7048	19768	-1889	2638	-1132	-32768	-25808	-32768	-5307	5392	645	-32768	-10480	-16992	-4114	1330	997	141	171	2
-14156	-22124	32767	-3669	-14068	8764	-32768	1880	4184	-14263	25247	-3927	-32768	-8064	4316	-5567	-23780	-3721	-5232	4528	17656	-1164	4940	-2104	22872	1856	-12384	-3618	5597	-799	-18256	-25384	-21992	260	1184	1178	116	115	2
-8248	-22156	32767	6443	-23025	4717	-24188	-2608	1224	-298	12920	1057	-31960	-3420	1656	1162	-30282	-7821	-9352	88	13616	-2360	1653	-2190	-4016	1680	-24280	1622	3287	1508	13416	216	-19888	3195	774	126	103	95	2
-9732	-14760	32767	1195	-32768	-1884	-20824	868	-2956	5730	1067	2681	-31528	-8264	3660	5488	-31297	-7176	1144	-432	10280	-1227	92	-830	-25048	-3704	-21072	1495	2635	1247	-17832	21912	-17808	3218	514	-223	123	105	2
-7856	-15536	27692	-7671	-32768	-6287	-21736	-1104	-6156	-1528	-10557	3426	-32768	-4120	2976	5533	-29545	-6868	-8808	2800	13624	-505	121	-438	-17088	13728	-15000	2260	3162	384	-32768	9688	-13864	-351	1934	326	138	140	2
-9692	-16372	22040	-9619	-32768	-11580	-18652	-4920	-10428	-4261	-21246	4013	-32768	-2548	-4080	3932	-29378	-6874	-9752	3064	13688	-292	269	-298	-11312	7376	-16776	218	2362	613	-20992	-200	-8832	-185	2570	112	133	115	2
-8892	-15772	13668	-5901	-32768	-18766	-14872	-1680	-12100	-3095	-32768	6165	-32768	-7812	-10268	3200	-29068	-7907	-9248	5424	12904	-226	422	-263	-17256	7832	-17520	-548	2196	597	-22080	7088	-9512	1012	2607	-408	139	129	2
-10208	-9876	10108	-6330	-32768	-26187	-14428	-2136	-13204	-2101	-32768	7993	-30028	-1212	-9884	9556	-22946	-6828	-9680	4528	13472	-130	520	-189	-18592	8536	-19784	-316	1512	279	-30280	14464	-9920	986	2747	-503	103	129	2
-20052	-5036	17820	-13828	-32768	-32768	-12220	-1928	-16092	-397	-32768	11943	-21748	-4856	-16696	467	-16971	-5519	-7952	4312	14616	77	951	-283	-25408	9144	-18704	-443	716	152	-32768	11552	-2656	162	3420	-430	131	196	2
-24588	-5960	24120	-12485	-32768	-32768	-15020	-4668	-19096	-9439	-32768	12307	-12476	-1900	-14836	4615	-13755	-6232	-5080	5432	18480	165	2436	-472	-32768	7376	-12408	-774	534	155	-32768	5576	13712	-582	3509	-460	129	140	2
-31740	-3296	28844	-8501	-32768	-24015	-16684	-4788	-20804	-9791	-32768	9614	-7884	-2476	-15084	12705	1624	-2731	-4808	5936	20296	-284	4649	-959	-32768	512	-1608	65	654	261	-32768	-1568	24872	-1087	3367	-1275	123	125	2
-32768	-6868	31156	-9040	-32768	-14312	-14900	-2120	-26320	-14069	-32768	6895	-3376	5020	-16112	15637	9333	285	-9352	4504	17496	-391	6676	-1841	-32768	-1520	5512	1391	664	501	-30512	-9128	31488	622	3021	-213	126	117	2
-32768	-5064	19204	-11608	-32768	-16931	-17004	-3264	-26840	-15139	-32768	6241	872	3856	-15556	16115	10469	-485	-28240	4184	24776	-438	8076	-2133	-32768	-216	12424	2917	904	658	-17248	1016	32767	1562	2593	-468	134	163	2
-32768	-3432	9200	-11319	-32768	-20359	-26392	-2528	-29096	-16089	-32768	5507	-1720	-1668	-2104	3026	6422	-3264	-17472	3056	22856	100	8505	-1709	-27872	-952	20928	3160	1266	-33	-9480	-600	32767	1222	1852	-259	131	143	2
-32768	9272	-7376	-13116	-32768	-19477	-21712	-2372	-32768	-14443	-32768	-1058	-11448	-576	23712	-2045	-3117	-1817	-24072	6424	23744	-5	8345	-1644	-16648	5192	20368	2241	1963	-513	-4656	3248	29424	774	82	-410	147	153	2
-32768	18192	-29336	-13138	-19894	-11914	-1560	-5684	-30964	-8085	-15991	-5039	-12972	-5040	32767	-1854	-4096	-4374	-31280	8072	23400	-708	8027	-1928	-21944	8912	18800	480	2848	-507	-5192	6744	20496	393	-1267	-664	124	193	2
-32768	20716	-25960	2875	-1674	-2135	3924	-8356	-31448	7251	3427	-4498	-6140	-420	21372	-7226	30	-3070	-30888	9208	24408	-851	7903	-1984	-22304	3384	14264	-1296	3504	-436	-5144	-88	10656	-652	-1558	-487	131	127	2
-32768	21472	-16516	8476	8124	5851	-416	-2680	-30528	12102	20643	-1526	4848	0	15536	-4527	818	-3837	-32768	18616	32767	396	4217	-405	-13296	3032	-10088	-1049	3599	-395	-5256	-240	10816	-874	-1711	-552	120	57	2
-32768	13316	-2400	8217	13133	11751	-1620	1512	-23836	11535	27566	-3114	7996	-5096	-12544	-15154	22641	-574	-14848	20032	32767	4	-261	-133	-17432	3144	9480	489	3890	242	-4936	-4344	6016	-1085	-1760	-657	135	49	2
-25072	23172	-31608	21311	28217	16588	60	-4688	-8028	1726	25083	-1433	6308	2520	-32768	6208	21066	6808	-3552	8592	26360	42	-1024	-579	-26328	1720	9936	767	2927	849	-11944	-3272	7416	147	-2499	-608	141	89	2
-32768	-32768	32767	7940	32767	23424	-32768	-15676	-32768	32767	32767	-28056	-32768	-28472	32767	-6717	-32768	-17664	-13064	15608	32767	683	-1550	-759	-22296	12200	-2144	1534	1642	12	-32768	12504	9016	2195	-2820	-171	65	70	2
28864	20048	-2532	12258	32754	4267	32767	-1924	21616	27202	32767	16572	-22396	21664	-16060	25782	23728	-19469	-9592	27184	31216	-539	-3054	-663	-21936	12384	-3448	1116	992	-396	-32768	12928	3720	759	-2642	-61	91	89	2
-32768	4636	32767	9132	32767	22941	-9008	5196	-22124	32767	30182	-15869	4884	26888	6808	10480	1856	3877	-8480	20568	25424	-1375	-4567	-348	-17736	13232	-7064	-392	41	-223	-32768	13384	4320	21	-2902	139	138	68	2
-21808	11952	21048	14163	6450	10578	2624	-6192	-32768	14544	24798	-15092	16980	-11344	-21392	-16726	5893	11210	-6304	17776	18384	-814	-5596	484	-15936	8744	-8088	-987	-1200	-555	-32768	9128	3432	-1360	-2846	376	149	111	2
-16556	-11196	12224	1893	1925	2837	-28584	3296	-17940	-18966	27016	-10860	12488	-14636	-21480	-12175	3980	12091	-7792	17496	16168	-230	-6218	1372	-14664	7008	-12456	-899	-2695	-993	-32768	9472	-5288	-1424	-3308	547	134	190	2
-10704	-4932	13548	1718	498	2743	-12656	-8204	-13764	-4803	24269	-9153	-31528	-10920	-13404	-6236	21325	-3812	-7072	11896	10992	498	-6513	2035	-13904	5448	-12264	-344	-4263	-816	-32768	1568	-10432	-1212	-3186	392	110	228	2
-10012	-4888	12960	1759	957	2216	-15760	-12516	-15172	10356	16824	-4023	-28532	-9816	-13412	-9025	21924	3965	-11472	7664	10216	1693	-6368	2343	-12816	5312	-13936	236	-5754	-516	-26672	-3096	-11184	-833	-2754	238	121	206	2
-10064	-3804	14004	1108	2181	1937	-17360	-1412	-24468	11732	11091	-2262	-23292	-12544	-14704	-8873	25940	1486	-14352	4208	13800	2463	-6097	1791	-11272	6216	-13992	525	-6515	-212	-18720	608	-14232	-547	-2407	212	86	210	2
-9788	-3868	14304	-97	4828	1520	-23740	-5340	-23768	6792	7615	-1464	-32768	-13884	-14440	-6429	30737	7181	-22256	9864	19640	2332	-6205	736	-13032	7112	-16784	976	-7342	474	-9944	856	-14536	-226	-1327	236	110	147	2
-5560	-4896	17028	-1810	15910	1860	-32768	712	-20812	7487	2460	-1314	-32768	-13884	-12612	-5661	31671	7234	-30688	14088	27224	2614	-6635	743	-13976	3424	-23312	483	-7767	961	-4704	-4328	-14264	424	213	-2	117	142	2
-2264	-6500	21476	7492	32767	7996	-32768	14604	-6428	5192	-1293	-2837	-32768	6228	23536	5499	32767	6340	-32768	17960	25032	3090	-6883	1526	-19664	2368	-20496	1178	-7788	1621	-3520	-5624	-14592	791	1139	-457	135	170	2
-7100	-2244	18244	10023	32767	17662	-32768	20568	5980	-4851	-1419	-5898	-32768	14184	32272	-2930	32767	7010	-32768	9168	21168	3372	-5481	3327	-24048	5904	-26192	-153	-7520	2083	-5024	-7008	-7696	267	864	-227	110	230	2
-20328	1312	18516	6451	32767	19741	-29704	16732	9932	-16713	-213	-5813	-22896	9524	31188	-20886	32767	8861	-32768	-6432	26096	4173	-3912	5149	-28272	3864	-28944	-559	-6059	1468	-8856	9848	4240	517	-1041	1129	154	177	2
-32768	5656	21756	-2263	32767	7910	-18612	11472	10056	-29732	8459	-4224	-12972	-8488	32108	-32674	23545	8106	-32768	-11248	9744	2892	-3252	5298	-19096	3848	-31184	649	-4194	699	-13480	22464	32648	2638	-1193	1648	118	143	2
-26324	-1184	23484	19	32767	4731	-19720	2792	24320	-23036	22520	1596	-7964	-23316	26476	-16497	6560	3837	-32768	-27520	-21176	507	-2364	2305	-1872	9064	-24944	969	-2200	539	-4688	8608	28784	1454	529	1242	127	50	2
-30832	-6680	21424	9389	32767	7993	-12780	-3356	21760	5134	25351	1507	-6836	-19444	26088	5524	-9720	5127	-32768	-25912	-28264	483	-485	-314	5320	3952	-28080	-2239	310	498	792	4088	18864	-356	395	1034	146	31	2
-32768	-3792	31376	21793	32767	8153	-19552	544	11600	29645	30378	-328	-3048	-6628	19928	17135	-19730	5106	-32768	-8456	-13416	-359	1279	-177	4312	-10840	-30248	-2869	2749	-166	10512	-144	6800	-69	132	-160	123	80	2
-32768	19660	32767	9675	32767	10628	-18756	7768	-3468	32767	32767	-4055	-5884	12716	3296	26324	-21673	5708	-26768	-6456	-3280	-1092	2078	554	-4872	-8304	-24016	-1081	3190	-93	2784	10144	-17504	-536	3325	-268	122	141	2
-27684	-2092	32767	-18376	1010	11664	-24376	17488	6084	-6607	32767	-8805	-7808	22436	5368	9719	-23690	9322	12640	-29848	-32768	-3921	5544	-2319	1400	26744	-4536	262	2518	294	-16216	3960	32016	-3473	-147	123	140	115	2
-17776	-13920	32767	-18249	-13182	20800	-25960	8392	4840	-30497	32767	-12365	-14660	9380	2068	-22674	-25824	3929	-32768	-24688	30120	-1325	2556	-1096	-32768	-32768	-32768	-11985	2968	2152	-32768	-4976	-3120	-6644	1804	1565	128	97	2
-15952	-23960	32767	-14346	-19619	19207	-31988	-4492	-684	-27502	25509	-5281	-32768	-17736	2632	-28224	-27328	-3712	-1792	32767	-1992	-1570	4927	-3286	32767	10248	-15648	-2935	8503	-2684	-32768	-32768	-27336	-402	1128	967	111	25	2
-10104	-29204	32767	124	-31786	12353	-28400	-5432	-1732	-8622	11049	2151	-32768	-14564	3988	-4721	-32186	-8316	-288	-20992	16504	-3076	1740	-2864	8376	-2184	-18880	3193	1279	3945	30704	3448	-20432	4050	514	146	114	82	2
-5196	-21380	26652	1961	-32768	6264	-22848	-4168	-5992	1616	-2142	2557	-32768	-17188	1024	16383	-28838	-6494	-11176	-9800	21336	-1459	208	-835	-32768	-4120	-19640	3559	3752	820	-22280	32767	-13984	3968	232	-275	106	0	2
-8376	-18648	24488	-7119	-32768	-4407	-17588	-2980	-13672	2930	-15368	3076	-32768	-5724	-1036	13142	-32053	-3988	-10104	6472	14408	-737	100	-437	-13912	24448	-14216	1263	2925	-271	-32768	4848	-12816	-1579	1999	693	95	99	2
-7392	-21036	16048	-8665	-32768	-17070	-14884	-2532	-13948	-3487	-27309	6421	-32768	-4632	-10340	8828	-28886	-3137	-10144	1944	13440	-581	103	-452	-8744	6152	-20920	-790	2570	725	-20240	-5464	-7408	-205	3287	-193	168	67	2
-9728	-15784	11176	-6568	-32768	-29297	-10612	-5524	-13900	-1151	-32768	7312	-32768	-4476	-14564	10283	-28124	-3340	-9520	5688	12952	-414	223	-369	-18936	5184	-18200	-681	2387	447	-17120	2656	-7952	1504	2790	-639	120	161	2
-18748	-11880	15416	-9000	-32768	-32768	-9384	-6016	-17088	3848	-32768	11078	-15080	1504	-5624	4085	-13385	-7601	-9264	4496	13320	-206	420	-404	-21112	10304	-20032	383	1215	365	-32768	19808	-9712	2029	2931	-848	136	91	2
-19220	-4976	15744	-9397	-32768	-32768	-10512	-4340	-14588	4326	-32768	15660	-15536	-2568	-18492	-5595	-26103	-11110	-6616	4792	16584	301	1268	-379	-31256	13976	-15256	42	586	46	-32768	21240	4136	554	3835	-377	135	150	2
-27052	1168	22472	-12078	-32768	-32768	-12312	-4988	-17720	-2942	-32768	14211	-6448	-4616	-16224	5217	-6605	-5278	-3816	6968	22384	-84	3560	-711	-32768	5840	-6432	-1001	968	-221	-32768	5648	23616	-1227	3948	-332	127	137	2
-32768	-6956	32767	-3724	-32768	-19094	-12688	-7508	-23256	-13240	-32768	11512	-2232	3980	-15204	14090	8534	1468	-6448	6048	19864	-457	5839	-1640	-32768	-5376	3488	20	1075	145	-32768	-13376	32120	-1719	3531	-841	126	134	2
-32768	-4100	30276	-6649	-32768	-9137	-17996	-1980	-24500	-19537	-32768	8603	140	7168	-15376	10999	12005	1234	-19744	5192	21512	-808	7993	-2366	-32768	-4048	7312	2104	1066	688	-22304	-12296	32767	80	2806	-687	127	118	2
-32768	-5360	21860	-15585	-32768	-13760	-24216	380	-27880	-20817	-32768	7007	-2340	3488	-11996	6723	13782	-1256	-16624	1720	20336	-269	8549	-2085	-30312	-992	15328	3395	1208	677	-13336	-1256	31344	1478	2390	-884	116	163	2
-32768	-148	7716	-15977	-32768	-18522	-25472	-1084	-26872	-27056	-32768	3807	-7032	-2368	2800	1093	5636	-3806	-21928	6112	22048	-102	8641	-1849	-21088	5944	20240	2905	1570	-148	-7680	1208	27160	1084	1198	-160	129	135	2
-32768	11032	-11864	-13239	-32768	-13971	-16888	-5112	-29396	-17859	-32768	-1676	-9980	-6804	29676	-8561	-9909	-4425	-32768	7984	22856	-374	8075	-1697	-14472	7392	22184	950	2481	-328	-1304	7336	24200	545	-420	-42	135	142	2
-32768	14980	-26388	-10452	-18102	-8167	-2700	-6324	-32744	-3366	-14583	-4601	-7300	-4532	31684	-2441	-4911	-4528	-32768	8360	32767	-508	5853	-1239	-14856	11824	384	-619	3850	-339	960	7952	17464	-154	-1096	-721	168	89	2
-32768	18432	-30172	-998	-579	-6531	7012	-4472	-30916	6846	6736	-2018	-6024	-3480	19808	-4212	-2689	-841	-32768	10280	32767	-117	1325	-869	-22056	5288	-2680	-1639	4500	33	-3848	2688	8312	-925	-1130	-445	95	80	2
-32768	13740	-16840	4652	11745	-1855	360	-3524	-30928	10586	21545	-73	6892	-588	8440	-2813	7245	-3503	-3424	10768	25480	-201	-199	-1525	-28472	-4944	14424	298	3934	514	-11080	-1480	10920	-1123	-1655	-442	131	66	2
-32768	-144	-32768	26136	32367	20778	-11912	-22396	-22648	9729	29851	-2118	-2944	-7732	10600	-5023	13203	-142	-12320	13592	29640	569	46	-1078	-22904	856	3576	2029	3271	186	-12336	192	7400	-414	-2173	-540	107	76	2
-32768	-32768	32767	14469	32767	19078	-32768	32767	-32768	32767	32767	-20221	-32768	-32768	-27584	-11980	191	-14768	-14264	29944	32767	61	-819	-578	-30144	15408	-4816	2803	2551	-437	-32376	12768	7864	1159	-2688	-194	143	88	2
32767	12216	-16120	8348	32767	10807	31128	-8180	17688	12731	32767	-1904	-19264	26304	-32768	11737	6999	-4538	-4816	30208	31904	-1853	-2283	-115	-23136	14008	-3016	612	1705	-668	-32768	4344	2888	325	-2720	-125	160	72	2
-32768	-12280	32767	23475	30754	27404	-488	-21896	-32768	32767	30741	-7120	19100	32767	-1648	-6531	-1712	-6982	232	14688	24400	-1579	-3328	335	-19448	9056	-4400	-1736	676	-344	-32768	2912	6400	-391	-3258	13	146	67	2
-32768	-22480	32767	28559	21452	24258	8456	-20036	-32768	32767	25379	-7782	7532	-13272	-26996	-16865	4705	5548	3400	14064	18912	-23	-3971	738	-17560	2808	-8240	-1105	-769	-526	-32768	5784	1680	-964	-3591	94	142	145	2
-11312	676	17552	2320	307	1973	-32768	580	-16136	-14037	29740	-12637	-32768	-18776	-11536	-15067	14100	-1941	-1440	14696	18040	632	-4712	1088	-13432	6440	-13088	-90	-2723	-409	-32768	1280	-2696	-441	-3283	122	143	181	2
-10416	-1692	14360	1994	1120	2012	-12900	-10484	-16832	-2012	25238	-11071	-32344	-8528	-13060	-8193	22217	-1476	-2712	7440	13616	1172	-5381	1619	-11072	2920	-11784	-13	-4216	-111	-32768	616	-4984	549	-3605	474	99	189	2
-9924	-3204	13692	1707	1177	2300	-13768	-11868	-14800	1702	24628	-10498	-15164	-12012	-13268	-7871	22136	9613	-7016	3616	15032	1752	-5502	1690	-10584	2616	-12648	-221	-5309	-256	-32424	2592	-13864	-458	-3143	-450	123	112	2
-10288	-2848	13900	571	2191	1862	-16952	-2492	-19836	8111	12915	-3778	-25264	-12032	-13300	-9176	24015	4217	-13760	2184	19640	2175	-5884	1440	-11624	1960	-15024	601	-6392	21	-19048	1728	-14224	-200	-2587	-141	68	153	2
-9156	-3808	14784	-282	5123	2532	-26200	-5552	-19700	3832	8938	-3552	-32768	-17396	-9380	-8097	29571	5795	-14864	2416	18048	2485	-5809	1088	-14296	1224	-15000	1045	-7135	273	-12560	5312	-13248	222	-1940	-111	117	125	2
-4504	-6360	17588	1119	18249	5325	-32768	-940	-17364	6094	4847	-1543	-32768	-7948	4124	-1381	32185	5797	-25688	8344	28752	2740	-5655	1360	-14120	1800	-24328	404	-7608	517	-8776	-480	-15424	581	-758	-353	114	103	2
-4560	-4124	20780	10403	32767	12145	-32768	12524	-7864	4814	1079	-3992	-32768	-4500	8364	-1059	32155	6044	-31152	11168	29744	2332	-6080	2051	-17696	544	-21824	-37	-7818	636	-4896	400	-14560	458	116	-597	127	72	2
-7180	-968	17684	13527	32767	20344	-32768	18600	2204	-5619	832	-6371	-32768	8672	26988	-6613	30180	8584	-32768	7976	25168	2166	-5746	3145	-17288	2384	-24064	-53	-7758	715	504	-872	-13896	-632	890	-148	114	94	2
-18028	-2160	16956	12943	32767	22596	-30004	13080	7504	-15596	962	-6050	-22944	4072	23760	-18859	32323	10431	-32768	3544	28896	1676	-5142	4538	-17208	8032	-29528	-987	-6670	208	-1168	7560	-8416	-1041	-113	653	118	101	2
-32768	2156	22140	2837	32767	13573	-21400	4508	2996	-23245	5867	-4413	-13604	-7812	24616	-32156	30830	8627	-32768	-8648	14064	1205	-5009	4961	-23976	4328	-27608	-879	-4964	-383	-8704	17976	15312	340	-1340	1184	127	103	2
-23988	-1320	19832	-1103	32767	9788	-22452	4052	18368	-26952	16388	-1341	-10224	-15500	21268	-17618	15959	3410	-32768	-17792	-17536	187	-3775	2832	-11224	6008	-29808	-528	-3446	-298	-10048	456	28560	-388	869	790	100	118	2
-32768	-3184	23936	567	32767	10399	-13288	-904	22724	-9596	21118	-634	-9888	-18592	28736	-4771	4	4323	-32768	-24416	-30256	1068	-1904	465	2912	4248	-32768	-338	-1265	224	-7224	-5776	29464	-1175	219	9	138	145	2
-32768	-5940	29852	8196	32767	12494	-18948	-2580	19188	13681	26652	-834	-5616	-15836	25388	9555	-11333	3546	-32768	-13376	-21928	288	168	-402	4320	1328	-32768	120	1248	229	7712	-9496	18000	1650	397	-1364	142	190	2
-3028	-6340	32724	13250	30102	8774	-20844	3952	7380	23185	31810	-2305	-4268	-2512	13964	18026	-21565	1617	-32768	-2744	-32768	-1783	2661	-1569	-5072	3592	-30248	-59	2568	65	-6832	10264	-4104	1202	2166	-200	122	110	2
-27980	-8236	32767	-3934	6279	3997	-24768	9992	6576	7748	32767	-4255	-4844	9060	6024	14806	-24615	3313	-32768	24384	32767	157	9944	-3763	-32608	32767	-27808	-423	4762	824	-10576	13768	6992	363	1480	415	121	138	2
-21636	-15088	32767	-7725	-2931	4872	-32276	7024	8332	-10224	31518	-6373	-16496	1620	4220	-6858	-23740	531	24680	-12120	-15008	-1980	2233	-2243	-18712	-4448	2264	-2874	7049	-1143	-11216	-14536	-32768	-3467	1084	861	127	54	2
-15844	-26872	32767	-1142	-15248	2290	-31072	-1456	1164	-7820	22646	-2445	-32768	-4552	1420	-5268	-23921	-6616	-32768	25424	32767	-3810	4574	-3464	23000	5736	-32768	-2012	4436	397	320	-24264	-7320	1211	-374	1171	114	68	2
-11360	-20764	32767	418	-31545	-5376	-25512	1384	-1476	-566	11192	1597	-31148	-4432	1680	2549	-31690	-7788	-24392	9304	32767	-2477	701	-1762	2200	-1776	-32768	-518	3239	752	-4264	14664	-25064	2539	938	104	104	126	2
-5600	-14124	30952	-10912	-32768	-11508	-21376	2088	-1636	-3187	-1511	1364	-32768	-9896	3004	6777	-30001	-6751	-7704	640	10792	-887	-165	-518	-2568	-2424	-32768	-473	3153	949	-32768	14600	-15136	379	1645	87	131	135	2
-2788	-16288	20032	-13614	-32768	-11220	-21388	-1896	-5020	-5590	-16327	-186	-32768	3232	-3152	8497	-30746	-4110	-10200	5152	13104	-693	48	-451	-10880	12696	-15000	1662	2315	760	-29672	1192	-12656	-1	2386	274	128	174	2
-3876	-14140	15780	-10368	-32768	-15443	-17024	2068	-12168	-7315	-26088	283	-32768	120	-8408	2332	-32768	-7246	-9840	5072	13048	-571	26	-386	-7560	9976	-18016	-170	2628	627	-15464	9704	-11056	398	2689	-177	133	151	2
-9444	-13048	16828	-6677	-32768	-25093	-13188	-756	-16884	-6355	-32768	3539	-32768	-10080	-13720	1340	-29604	-5715	-8856	4360	13424	-356	142	-380	-21568	7360	-18512	-1234	2123	324	-25896	11672	-11080	376	2889	-314	150	166	2
-14644	-7984	18716	-4126	-32768	-32768	-11532	444	-16900	4267	-32768	9101	-29072	-1012	-13312	6324	-22465	-9222	-8632	4144	13560	-97	337	-361	-19080	6800	-19752	-710	1303	88	-32752	8376	-8488	111	3527	-145	119	147	2
-20748	-2220	24636	-3257	-32768	-32768	-12676	1724	-17688	2476	-32768	13043	-20784	-3672	-16400	-2917	-19585	-5717	-6168	4664	17640	123	1332	-491	-32768	7200	-18568	-688	909	204	-32768	4976	6536	-177	3862	-427	119	176	2
-27756	1496	28116	-1819	-32768	-32768	-13372	-1828	-18984	-2937	-32768	14300	-10836	-3660	-16268	3541	-4228	-5882	-2592	7280	21424	-622	3695	-928	-32768	3024	-7872	-264	898	343	-32768	1768	23568	-635	3710	-537	126	131	2
-32768	-2272	27656	374	-32768	-20312	-17316	-2676	-23388	-5786	-32768	13757	-4744	3112	-15616	17168	3215	-192	-5576	4728	20304	-1178	6090	-1941	-32768	-2368	2264	1082	791	598	-32768	-7552	29880	-645	3419	-1044	116	104	2
-32768	-3608	28720	571	-32768	-18089	-19316	-2684	-27568	-7172	-32768	13451	388	4776	-18524	29704	6886	1624	-17440	4800	22920	-1383	8044	-2698	-32768	-2832	9936	2487	1005	904	-21392	-3368	32767	877	2952	-517	135	135	2
-32768	-32768	15408	10308	-32768	-10770	-23652	-1736	-28132	-20328	-32768	11173	-4048	3872	-4328	23774	3561	17	-20696	2232	28264	-823	8785	-2216	-31848	872	18728	3839	1393	571	-12712	2224	32767	1665	2155	-423	149	186	2
-32768	12048	4372	-15799	-32768	-9763	-24756	2212	-32768	-22432	-32768	4007	-10968	3720	21220	8872	-10144	478	-25560	8184	28376	-494	8899	-1895	-22592	8664	22872	2655	1966	-234	-8360	2776	30112	1075	586	-24	146	173	2
-32768	11688	-23200	-22483	-32768	-10057	-4896	-7392	-30448	-26210	-21406	-2304	-8836	8540	23512	-7696	215	580	-32768	12032	32536	-442	8187	-1672	-17728	11816	17264	396	2938	-392	-1888	6904	23992	609	-958	-216	134	219	2
-32768	13628	-32768	-6828	-10025	2288	-472	-10272	-29768	-13600	-4606	-6960	-3072	4112	22724	-24939	-4829	547	-24016	20768	32767	-1161	5256	-1669	-16752	13144	11208	289	3118	-380	-1952	5960	16560	-274	-1501	-198	116	136	2
-32768	11772	-18992	-3423	3320	2793	3696	-8684	-32292	4919	11759	-1172	5544	-7312	5640	-30612	10311	-3174	-32768	20144	32767	-270	1253	-161	-27688	-2984	-24	-2587	4748	477	-7800	-944	11136	-1260	-1693	-211	142	106	2
-32768	1132	-32768	18551	23790	9197	-1044	-8340	-32768	14821	22232	-1475	168	-18220	-6556	-6131	17287	-4125	-7552	14032	30728	472	916	-231	-31136	-5904	10568	1077	3885	855	-13368	-4336	7120	-1040	-1986	-482	126	86	2
-32768	-23532	32767	-446	32767	15585	-32768	48	-32768	32767	32767	-6990	-27020	-32768	4212	8807	-29071	-8675	-16384	24800	32767	861	185	305	-27984	12544	-1344	3374	2743	295	-28400	9320	8288	1177	-2846	-307	63	80	2
32767	22372	-26212	8643	28707	12505	3400	9120	24340	26644	32767	5947	-24112	23392	-32768	32767	20629	-6842	-3968	32264	32767	-533	-1369	1087	-26416	11768	320	1757	2030	-365	-32768	8896	4096	357	-2928	-59	145	78	2
-32768	-32768	32767	24685	32637	32767	9328	-32768	-22952	11574	32767	-9345	-5068	32767	-4792	-7908	-2606	-1312	344	18640	29032	-978	-2656	1987	-20936	10952	-2280	-890	1096	-268	-32768	5384	6112	-34	-3341	115	102	87	2
-30548	22892	21320	11786	-2602	12013	8916	-2160	-32768	32767	20663	-18040	4596	-16312	-32768	-27606	10597	4211	9288	11944	18648	-437	-3252	2376	-17712	6600	-4312	-2204	-285	-632	-32768	9320	1256	-357	-3616	501	112	126	2
-15564	1428	16276	3624	-1018	3247	-32768	6956	-19640	-9009	27675	-7282	-32768	-24784	-19136	-15510	12080	597	2960	11904	19128	-908	-3725	1753	-14496	7928	-11504	-1620	-2063	-638	-32768	3584	-2944	-159	-3331	537	182	249	2
-10572	756	14360	3082	-181	3121	-11520	-10144	-19524	43	22819	-10293	-32768	-1368	-12200	-2471	25160	-6183	-1664	3824	18808	-436	-4878	1800	-8968	4560	-12248	-2760	-3608	-784	-32768	6872	-7824	353	-3353	714	141	247	2
-10908	-3576	13292	2028	1484	3041	-16680	-7604	-17296	10720	16183	-7315	-31936	-2468	-12488	-3235	25563	-3322	-6152	3408	16080	279	-5577	1909	-9520	-1848	-13264	-2170	-4725	-1427	-31056	3080	-12704	-933	-1810	-79	105	247	2
-11688	-3628	13348	1163	4415	2149	-21312	-6008	-18992	8614	9573	-2273	-26136	-14616	-13180	-10139	28081	4439	-13968	1592	18760	660	-6126	1591	-8464	-1168	-14032	559	-5949	-1318	-16936	2480	-15032	-515	-2403	373	99	227	2
-8172	-4028	17424	-124	12387	3538	-32768	-1560	-17792	7475	7330	-1195	-32768	-17096	-204	-4321	30881	5075	-18264	6584	21464	929	-6818	1151	-8968	5336	-14888	1826	-6983	-791	-10336	2736	-17120	-218	-1507	250	131	224	2
-1172	-8216	19996	10132	30817	9549	-32768	6872	-8596	8125	5375	-2591	-32768	700	16676	5255	31286	5653	-20472	6848	23040	1323	-7191	990	-12616	6192	-16664	951	-7678	-458	-6264	536	-17224	-136	-655	-129	110	246	2
-6004	-3172	18788	14116	32767	17586	-32768	17572	2188	27	3793	-5193	-32768	13464	25068	-682	30168	5350	-29664	10944	28464	2202	-7427	809	-16912	3232	-20800	833	-8238	-81	-4192	-2552	-12120	247	27	-516	134	175	2
-10304	1960	17048	14284	32767	22790	-31312	16380	8024	-9896	2625	-6348	-25536	8004	21720	-14094	28105	7661	-32768	19688	23200	2001	-7497	1250	-18592	5296	-20928	1352	-8508	754	-208	-7120	-14920	-1328	296	-313	112	149	2
-25676	4692	18204	8301	32767	17299	-22164	8484	4592	-17097	5000	-5032	-14468	-3936	22504	-28023	31023	10333	-32768	4712	14432	2196	-5691	3243	-17984	7392	-29392	293	-7317	749	-1384	3984	-4672	-1565	-958	563	125	140	2
-32200	-1356	21400	-2684	32767	9965	-19348	4456	11084	-24187	12047	-3935	-13908	-5640	21416	-21589	26746	3447	-32768	-9744	13392	2503	-4139	4321	-19808	6888	-32768	-547	-4940	100	-4640	8664	7152	792	-1209	900	122	147	2
-23596	496	16192	-3600	32767	8094	-15684	5760	20288	-16741	17976	-3060	-10600	-13600	23308	-8676	7496	3811	-32768	-19312	-12712	1459	-3801	2650	-7472	4552	-30640	1248	-2933	282	-4480	4104	32767	381	-897	-141	137	129	2
-31292	-2864	25436	3555	32767	9120	-10760	1052	18728	-1824	22307	-477	-3280	-17896	26196	-4982	-495	4540	-32768	-24096	-29960	1351	-1921	-192	3816	8832	-31536	879	-1305	749	2096	-3112	26464	1227	1372	52	130	37	2
-28444	-5708	31864	16403	32767	7806	-12148	756	17708	1133	23398	145	-4576	-13416	17028	12805	-12780	2920	-32768	-9424	-15352	146	-313	-1032	6736	1416	-30448	-123	895	346	3680	4352	-704	554	1603	-139	129	54	2
-32768	-1560	32767	18753	27628	2589	-17716	4552	-2792	26858	31990	-1102	-7080	-800	12088	20315	-23927	3430	-32768	40	-32768	-2077	1280	-847	-888	5888	-19032	-304	1982	-18	-1760	15928	-12664	527	2244	346	129	63	2
-25640	-2116	32767	2006	2827	-171	-23812	9988	8320	5943	32767	-3767	-5916	10336	11572	16384	-23943	4302	-32768	8112	32767	443	13568	-3502	-32768	32767	-32768	-1276	4662	1875	-32768	32752	32767	-848	-6046	2539	111	77	2
-29460	-3984	32767	-9485	-4017	2600	-32768	5644	2660	-7056	32767	-6162	-16300	1716	1116	-2837	-23931	1978	26344	-32768	-2096	-2616	1875	-2631	-17504	-6376	10504	-4697	9052	-1983	-25392	-29336	-32768	-4770	3043	698	120	24	2
-19740	-19984	32767	-4266	-12774	7312	-32768	-28	-1984	-10365	26163	-1847	-32768	-2072	896	-3695	-23154	-3080	-32768	32767	32767	-3709	5821	-4070	23280	-10656	-29928	-2420	4405	1170	22376	-32768	-7088	1462	-1767	759	114	50	2
-13048	-17408	32767	4718	-22997	7686	-25680	660	-1640	-2525	15681	-162	-27896	-2344	1240	2095	-32768	-4407	-32768	-12304	32767	-2301	65	-1923	11872	4856	-32768	2145	2159	1798	-4760	27912	-32768	4687	162	-765	138	72	2
-11032	-11944	32444	-4176	-32768	3962	-19368	-788	-6888	-3291	6847	1088	-32768	-10764	3744	2567	-32768	-5828	-12224	6032	15952	-836	115	-383	-32768	8768	-19128	3711	4659	384	-32768	29144	-21992	1137	1580	176	122	46	2
-10140	-17812	31028	-10814	-32768	-341	-22100	-5616	-13908	-7063	-8533	2067	-32768	-6292	-2100	2196	-30535	-3670	-11240	3768	13264	-649	115	-451	-9584	11368	-13512	1030	1918	538	-29608	-2920	-11216	415	2447	566	125	82	2
-7488	-20588	20248	-6959	-32768	-7471	-17844	-3584	-13804	-4781	-23569	4679	-32768	-5856	-7024	4019	-32768	-10663	-9944	5712	12816	-364	287	-261	-6368	12784	-16384	88	2666	769	-13736	11352	-8648	860	2929	-530	139	155	2
-7940	-15556	14500	-3572	-32768	-16263	-12016	-2320	-15040	-3421	-32768	6267	-32768	-8240	-14784	6804	-30017	-6140	-10168	3808	13176	-173	335	-339	-23096	9832	-23560	-1262	1924	207	-27688	14984	-10336	1202	2838	-476	115	143	2
-15552	-9268	15076	-9701	-32768	-27515	-9608	-1328	-15876	-3771	-32768	8376	-24328	-5524	-12136	4799	-13329	-6435	-7456	3760	15912	155	795	-410	-27016	11888	-21040	-468	908	-44	-30888	15976	-10432	1231	3011	-610	160	214	2
-18332	-6204	16884	-13762	-32768	-32768	-11108	-3228	-16076	-4122	-32768	10989	-17240	-1232	-17832	-1170	-19517	-5915	-3184	8656	20784	-176	2621	-597	-32768	10224	-11736	-246	754	-172	-32768	11440	15896	-914	3913	-523	101	195	2
-27768	-488	24240	-16028	-32768	-32768	-6528	-576	-17372	-10365	-32768	11357	-6560	-56	-21956	9191	-235	-1352	-5176	4640	21264	-1092	4966	-1403	-32768	10448	-11440	-323	786	-191	-32768	-3984	30400	-1693	3577	-634	121	146	2
-32616	-1372	25892	-17991	-32768	-25527	-12520	-4896	-21548	-19624	-32768	7664	2428	2828	-22100	11190	10950	1306	-14720	3040	21320	-1566	7432	-2394	-32768	-4192	6168	1149	969	378	-30960	-14440	32712	-1395	3303	-1051	126	98	2
-32768	-11412	32767	-11849	-32768	-16904	-21172	-5996	-30192	-16946	-32768	3926	6260	5820	-20076	17699	13949	4087	-22832	3576	25800	-956	8298	-2193	-32768	-4728	14352	3290	1016	633	-12272	-7560	32767	1161	2394	-185	127	104	2
-32768	-3208	16288	-13899	-32768	-24676	-21292	-5696	-32728	-12674	-32768	5426	-664	-1876	-9812	6963	6090	-1082	-21240	6024	26360	-300	8632	-1691	-27920	5992	22968	3478	1072	-200	-9208	4696	32767	1477	1262	-179	149	67	2
-32768	8052	-10640	-15506	-32768	-24803	-23328	1120	-32768	-19854	-32768	2615	-8208	-5836	11208	-831	-10555	-5708	-32768	8432	26672	-383	8212	-1587	-17336	9040	22432	351	2021	-616	-2584	9704	30096	542	-31	-21	171	98	2
-32768	18020	-27736	-11823	-28433	-13077	-8232	-10868	-32768	-18622	-22956	-5530	-10816	-2788	32767	-7129	-16832	-3322	-22096	22096	32767	-1702	6190	-1725	-15064	14016	3864	-1861	3602	-484	2400	5984	24824	-745	-1371	-216	122	90	2
-32768	17480	-31908	660	-9833	4456	1788	-12888	-32768	3468	-3171	-6525	-15952	-3428	20568	-10036	-4571	-4114	-32768	19536	32767	-1535	2054	838	-24192	3088	-1320	-2457	4531	181	-2880	-2224	13528	-1852	-1450	-574	112	73	2
-32768	16080	-15936	6824	1090	6650	5472	-2076	-32768	20797	12489	-914	6764	-1768	11148	-8558	8261	-5981	3144	-1448	28440	-167	1186	761	-29280	-10792	17752	-885	4034	735	-9424	-7280	5664	-1610	-1759	-736	91	54	2
-32140	8852	-7236	8301	5701	1829	4884	-240	-31892	20598	14414	-402	3112	-14240	-16864	-10658	28412	-3476	-3480	7448	32767	1242	878	31	-18456	-6504	8208	1630	2862	382	-10896	-11712	7664	-773	-2189	-803	134	62	2
-32768	-11300	-32768	17584	26612	8087	-5160	-11100	-29632	11505	28733	-326	-3896	-1856	14668	13920	-3777	1033	-3392	17496	32767	917	-592	-340	-15552	488	1968	3133	2061	354	-21448	904	-2296	947	-2729	-937	117	82	2
-32768	-21048	32767	19485	32767	8666	-32768	32767	-32768	32767	32767	-23364	-32768	-10368	188	-13024	1167	-14807	-4072	21104	32767	-213	-1837	-506	-26824	17008	-4600	2839	1074	514	-32768	13136	7640	2374	-3217	-355	96	87	2
32767	30612	-1364	-1446	32767	13195	27108	3632	3540	1766	32767	-6000	-21920	27340	-23784	-10289	17114	-6513	-4080	19712	30288	-900	-3517	37	-17512	9848	-3424	312	-104	-165	-32768	14168	1728	1584	-2794	-267	192	93	2
-32768	-17428	26752	25028	21013	21770	2520	-25448	-32768	9237	32767	-11689	29672	23820	-7620	-12791	2744	562	-424	12824	20632	-542	-4780	553	-15552	8176	-4864	-933	-901	-362	-31448	14072	3232	54	-2957	316	125	58	2
-11976	-2804	10376	9729	921	6726	-11492	-9348	-32768	6329	24795	-16921	5944	-23600	-29796	-23585	7857	7724	-1504	13392	15264	55	-5228	995	-13872	8528	-8952	-1098	-2192	-611	-32768	11376	-2176	-1296	-2851	350	165	151	2
-11752	-6224	13820	1436	1973	1117	-32144	-3864	-13756	-11487	28822	-7791	-32768	-32768	-20312	-14910	21274	-2336	-6072	13944	13600	383	-5500	1538	-14504	6848	-13624	-1189	-3879	-950	-32768	7968	-7568	-1329	-2820	106	94	149	2
-11016	-2268	14652	1260	2286	2023	-13452	-14204	-22936	9867	22391	-3148	-31676	-10752	-16156	4105	28933	-1496	-8744	11624	12192	798	-5493	2072	-12616	4920	-13944	-952	-4756	-1034	-31240	-104	-12432	-1232	-2454	-70	124	177	2
-9780	-3036	13872	418	2972	1749	-16452	-2900	-23536	15208	13745	-4320	-15372	-5544	-13536	-925	27156	4428	-15288	12456	19256	1163	-5557	2251	-13216	7328	-16952	106	-6143	-956	-20488	-1736	-12040	591	-2007	256	124	152	2
-8888	-3312	15420	-1107	6945	1631	-26464	-460	-21512	6435	8720	-2513	-32768	-6276	-10268	-6225	29808	5126	-21352	10856	21464	1287	-6170	2063	-12144	8640	-16576	831	-6949	-436	-14168	6584	-13144	64	-1256	101	96	166	2
-4944	-2964	17364	-2353	20924	1713	-32768	3040	-18088	4463	5453	-3189	-32768	-8892	4196	-2316	32767	9614	-24584	6880	23104	2118	-6384	1516	-13608	8288	-17312	364	-7490	36	-8576	3480	-15336	-146	15	-100	97	183	2
-3556	-3332	20836	5624	32767	7497	-32768	14660	-6040	2788	2811	-4979	-32768	4768	22304	2413	31836	9130	-32744	16640	26944	2243	-6894	854	-16952	8288	-19376	1053	-7877	597	-2880	-112	-14056	-101	1013	-258	124	161	2
-9016	-2372	17064	5205	32767	14159	-32768	17256	5236	-6531	2858	-6988	-32768	9072	27148	-8305	31134	7177	-32768	22216	24768	1864	-6755	916	-24336	11984	-23360	660	-8028	1199	-2872	-4992	-12176	-310	785	282	114	131	2
-24740	280	21844	1175	32767	12613	-30252	14124	7164	-13984	4900	-4871	-20932	4328	30776	-24319	30667	5343	-32768	4840	18912	3031	-5402	3151	-24512	7104	-28416	-701	-7028	1200	-6776	-24	248	-791	285	1253	126	137	2
-28584	888	21680	-5609	32767	2211	-18748	12164	10872	-22471	12179	-990	-12496	-1640	25476	-24341	22861	6766	-32768	-3144	-304	3640	-3618	5004	-19768	4688	-30600	-40	-4799	885	-9408	5928	19160	-112	-691	1522	117	139	2
-26360	-4284	20812	-6236	32767	1480	-17944	12288	12832	-23752	13514	-771	-5280	-13508	24844	-14803	9038	7064	-32768	-26392	-16200	2008	-1915	3488	-6416	5912	-26992	49	-2642	1037	-6200	9216	32767	828	-937	660	129	87	2
-32768	-9244	25760	1935	32767	4938	-15348	-2956	22632	4052	25268	1638	-5532	-21652	20832	-343	-3846	6253	-32768	-32768	-20144	188	-283	583	5536	2792	-29464	-823	-455	702	-3032	3504	19240	717	-466	131	138	137	2
-29380	-10972	32767	18028	32767	5508	-20024	-844	9676	27838	30827	-1036	-6124	-7336	17440	19722	-17998	4212	-32768	-27872	-9296	-387	237	-1325	5040	-3464	-30944	-1300	1989	88	15688	3944	12568	1107	1202	245	130	89	2
-32768	3740	32767	18753	24354	5223	-19608	1644	8072	31211	31683	-1278	-5792	9652	7300	20467	-20119	5187	-32768	-32768	-32768	-4245	4267	-4751	-5640	-512	-23840	-1889	3368	350	-15016	9120	8152	-197	1173	116	131	123	2
-14044	2568	32767	-15692	-2269	4906	-23792	20772	10184	-4527	31105	-5846	-10896	18844	6416	8863	-21546	6971	-32768	32080	32767	-1901	4670	-2415	-32768	5600	-32768	-3099	6607	755	-32768	8520	-28592	-1642	628	506	113	180	2
-15028	-13512	32767	-24322	-12842	13935	-32440	1932	5164	-29107	27430	-6525	-29544	-4524	5068	-13041	-22662	3861	32767	22800	-23120	-1818	4717	-2081	6672	2592	4984	-2579	6324	-1625	-11976	-26848	-32768	-533	590	695	110	33	2
-13840	-31444	32767	-5678	-25806	19688	-31820	-7148	92	-20991	17813	-2556	-32768	-3400	2164	-9383	-29431	-2770	-26784	-23776	32767	-2659	435	-2119	12744	10472	-32768	-1206	3455	2027	10744	-5912	-27936	2326	194	189	136	39	2
-10976	-22932	32767	3551	-32768	21225	-24012	-6628	548	-874	4601	75	-29052	-9412	3956	-1538	-31783	-4434	-10360	840	16912	-1015	-50	-605	-22944	-13072	-28392	2504	3972	1152	-23464	25688	-19768	2758	119	-21	134	118	2
-6356	-22780	22544	-4041	-32768	17073	-23936	-2860	-6212	1800	-8525	289	-32768	-9900	1888	3082	-29761	-6470	-9336	5872	13624	-461	129	-295	-22312	18192	-11416	3793	2814	854	-32768	4304	-13328	-673	2031	-18	127	49	2
-6292	-26344	17224	-6069	-32768	5649	-19468	-2204	-13100	587	-18556	2202	-32768	-8544	652	2904	-29395	-6229	-9816	3296	13400	-442	22	-352	-8200	10480	-16384	887	2013	745	-20456	6168	-8944	167	2779	87	139	72	2
-4868	-22340	11576	-6608	-32768	-11157	-16440	1660	-14296	-7771	-29155	4489	-32768	-7140	-10712	3371	-26870	-6837	-9520	4240	13056	-314	77	-280	-12432	12600	-16576	-1493	2723	298	-16704	12360	-11488	600	2777	-323	120	142	2
-10952	-16500	14424	-12389	-32768	-29348	-12292	-3744	-16368	-10450	-32768	6492	-32768	-3564	-16332	993	-28168	-6831	-9176	4928	13856	-223	240	-369	-22712	7536	-19000	-1776	1598	-135	-32240	15808	-9000	492	3083	-272	149	144	2
-18544	-13096	20672	-14333	-32768	-32768	-12520	-4600	-17308	-7497	-32768	8211	-18312	-4472	-13304	2195	-10863	-5920	-8320	5256	14672	-11	794	-443	-26480	5840	-16408	-467	886	-125	-32768	10440	-104	-605	3727	-283	122	128	2
-23128	-4568	23600	-8587	-32768	-32768	-13336	-5928	-17516	-4254	-32768	9157	-13764	-3400	-18784	-6280	-15579	-6978	-3536	6208	19792	-144	2523	-676	-32768	6248	-8752	-77	625	128	-32768	-992	18872	-1169	3638	-323	124	122	2
-30084	4040	28864	-10407	-32768	-32768	-11760	-3700	-19592	-3263	-32768	10244	-5396	-4204	-20304	7058	2716	-1780	-6200	3232	21320	-1027	4916	-1426	-32768	-2008	336	234	792	430	-32768	-10800	30064	-1148	3107	-583	124	102	2
-32768	-1576	31864	-6673	-32768	-16603	-13472	-1064	-23460	-13133	-32768	9201	2040	2284	-20752	19439	7948	777	-9824	1280	17584	-1166	7069	-2237	-32768	-4040	8152	1867	1030	804	-25736	-15992	32767	64	2308	-759	121	83	2
-32768	-2176	24564	-6361	-32768	-9603	-18256	-1368	-27352	-23205	-32768	6629	5620	3052	-15704	28259	5994	476	-25272	3544	24736	-875	8167	-2235	-30320	-1680	12184	3473	1136	892	-11984	-5528	32767	2171	1769	-325	128	162	2
-32768	-1736	22324	-7008	-32768	-10088	-28104	-1604	-32768	-21106	-32768	5589	-2260	-1344	-924	17004	1579	-4276	-17928	7600	28032	-23	8432	-1648	-24832	2712	21832	4204	1732	296	-5640	-2464	32000	2953	911	-315	147	143	2
-32768	3304	-16864	-7297	-32768	-11735	-17460	-5944	-32768	-10097	-32768	-1098	-12892	1920	24560	-420	-6694	-2872	-28392	6264	25112	28	8349	-1799	-20640	10400	21928	2471	2287	-48	-3160	5584	25264	2881	-562	-645	153	229	2
-32768	16020	-32768	-10255	-15276	-10915	464	-6588	-32768	-1657	-12741	-3991	-11232	-88	32552	-178	-8342	-586	-32768	14704	32767	175	7234	-1924	-19600	15272	8416	473	3359	-214	-2536	14304	14000	1813	-1128	-578	143	236	2
-32768	13696	-31328	2296	3578	-7257	6632	-10932	-32768	7195	6687	-3670	-2488	2532	16088	-13980	-2998	-790	1088	8784	32767	-547	3256	-1056	-18808	13856	-1800	-1656	4186	-251	-4688	13168	13560	-694	-2280	22	99	74	2
-32768	14632	-16120	5076	12659	-1319	1336	-8304	-30852	12488	20039	-1898	10296	-4120	-1120	-9933	13654	-7310	7952	14656	25304	-317	935	93	-29560	304	16448	-980	4075	186	-10056	6216	8392	-1793	-1822	-34	117	28	2
-32768	7136	-32768	17870	32767	12627	-2080	-8292	-26632	18432	27392	-4481	128	-16468	5412	857	17254	-4676	-9544	13936	30304	-77	1555	156	-25176	2808	6952	463	3156	187	-15288	1152	6000	-1547	-2250	-195	127	58	2
-32768	-32768	32767	13631	32767	20005	-32768	32767	-32768	32767	32767	-11527	-32768	-32768	-21808	-6130	-9926	-10329	-12584	25744	32767	-516	151	197	-23136	16968	-4144	1098	2151	-427	-31696	9024	-464	-193	-2541	-288	59	99	2
32767	1052	-8784	5552	32767	15039	29152	4652	14892	32767	32767	-3041	-17176	24296	-32768	9230	10821	-8991	-5752	22536	32767	-1664	-2148	430	-21992	10808	-2560	-861	1357	-436	-32768	8128	4328	13	-2900	55	131	102	2
-32768	-11072	32767	24794	14451	18810	-6756	-30796	-32768	32767	28403	-8950	3488	26536	-8636	-4612	2984	-4593	-3312	12992	28432	-1357	-3733	570	-16912	6104	-3840	-1204	174	-333	-32768	4984	4168	-338	-2889	79	129	118	2
-32768	-21800	9292	6635	744	6463	-4100	14192	-32768	19424	22721	-17593	7416	-11168	-26492	-19781	7818	4058	-1128	12320	21976	-170	-5172	966	-13240	5032	-5984	-425	-1214	-704	-32768	7768	-392	-847	-3159	424	184	100	2
-12464	-11044	13152	-636	1318	-74	-30356	3220	-16364	-20287	26736	-8388	-32768	-19016	-12460	-13212	11125	-2700	-760	13112	15584	194	-5952	1186	-12000	6744	-8968	86	-2865	-831	-32768	5760	-4328	-727	-3125	540	120	99	2
-11020	-888	14204	589	1568	1397	-15268	-12020	-20488	-1634	22600	-10763	-31940	-7412	-13792	-7192	23324	-3454	-3120	7504	11624	660	-6268	1608	-10552	4192	-10880	-231	-4397	-857	-32768	1112	-9632	-626	-2825	372	155	113	2
-9608	-5884	13400	768	2733	1554	-17900	-6988	-14184	12410	14254	-8131	-22372	-9112	-13704	-7169	23412	7310	-8064	3032	10080	1540	-6108	1763	-11408	2136	-11392	171	-5652	-713	-24856	544	-12776	-431	-2380	205	101	124	2
-10152	-3948	14252	-84	4671	1343	-20532	-1676	-20344	10624	6986	-4878	-26136	-13572	-13468	-7491	24908	3471	-15256	5832	17480	1876	-6003	1293	-10848	3320	-15176	645	-6364	-568	-14944	2600	-14184	-621	-1718	430	93	130	2
-7952	-4072	15044	-2201	11064	1805	-30460	-652	-19260	5828	4893	-4004	-32768	-9992	-4536	-1444	30030	4063	-21048	7272	22536	2079	-6298	1116	-12672	2240	-16808	526	-7225	-41	-9992	-400	-13048	-612	-730	-8	99	151	2
-2656	-5124	17764	611	30260	4377	-32768	9796	-11604	3808	2685	-4705	-32768	3268	13216	1970	30650	6047	-28400	13104	28216	2215	-6721	1533	-14232	1664	-21176	666	-7618	300	-5464	-2392	-13824	-192	244	-489	126	126	2
-4568	-5668	18152	4156	32767	10995	-32768	14540	504	-3509	1686	-6991	-32768	11756	23988	-7603	28641	5168	-32768	14448	23872	2148	-6854	2687	-17504	3888	-21152	237	-7722	700	-2880	-2784	-12880	-205	956	-388	105	137	2
-11484	-3484	14548	4219	32767	17597	-32768	14712	2540	-4791	1614	-7036	-29388	-324	26784	-25086	28057	6339	-32768	9232	16672	1805	-5602	4312	-20544	7584	-27584	-1351	-7055	404	-1424	4536	-10672	-940	946	496	113	126	2
-26904	428	18364	1132	32767	14863	-23992	11220	7776	-17621	4177	-5304	-15072	-3228	28324	-26257	29665	7706	-32768	-3992	11136	1237	-3962	5120	-21752	6984	-30704	-2475	-5321	-203	-7512	10224	8976	-1331	-722	1430	132	166	2
-30140	-192	17616	-9249	32767	6276	-15200	7256	13548	-30072	13884	-3689	-8684	-10756	27068	-22537	18183	2933	-32768	-13544	-6376	741	-2921	4229	-12672	7424	-32768	-1506	-3055	-452	-8616	1760	32767	-490	-401	1063	120	142	2
-26080	-5152	17908	-3637	32767	9278	-17748	-1576	21932	-18219	23567	-3105	-6168	-15168	26132	-11197	4868	4983	-32768	-23768	-28600	861	-1702	1246	1840	8528	-30288	-277	-934	230	-8544	-6216	29440	-854	373	61	140	190	2
-32768	-7140	23472	4500	32767	11806	-15552	-404	18540	11778	25418	-1474	-6264	-16260	22052	5970	-11169	3316	-32768	-15176	-23776	831	-1	-838	4904	5128	-30088	411	922	656	6960	-6696	19832	2309	115	-844	131	143	2
-31208	-6504	30540	8833	32767	6932	-20304	4824	5432	25140	31554	-3150	-4440	-7440	15264	13887	-20047	1013	-32768	-1600	-32768	-1315	2630	-1775	-968	1760	-24288	123	2242	664	760	8640	-8904	2100	2843	-413	114	111	2
-32768	2676	32767	4091	23764	6874	-20080	6768	-6052	18976	32767	-5812	-5868	6652	6664	19067	-22533	3444	-32768	-21536	32767	700	11231	-3124	-22968	23176	-21136	1366	4108	843	-32376	32767	32767	338	-2647	2004	132	160	2
-27424	-7344	32767	-12131	-716	6752	-31252	9440	6404	-10581	32767	-7490	-13420	4244	688	2763	-23989	3435	15568	-20408	-14120	-2220	1541	-2572	-18720	-936	-5968	-4734	7269	-1462	-14048	-22952	-32768	-5792	1373	635	146	155	2
-19016	-22584	32767	-5846	-10072	13143	-32768	208	1200	-16293	28242	-5640	-32768	508	5296	-6959	-24303	-3121	-32768	32767	32767	-5013	3601	-3963	23824	18952	-32768	-3347	5050	388	-2864	-32768	-10760	728	-165	953	121	95	2
-11452	-20924	32767	2412	-22729	12302	-24176	-1420	820	-1988	16215	-2383	-31388	948	1712	-3641	-31539	-6005	-32768	18912	11408	-1116	-300	-862	4712	-16896	-32768	-1393	2632	1355	-1320	15992	-31304	3666	1207	-51	130	101	2
-6772	-14456	32767	-6469	-32604	7600	-23460	2008	-3368	-911	2887	-1734	-32768	-9892	2184	-2663	-31824	-4561	-9776	11200	11288	-639	4	-297	-32768	6544	-15752	3750	3773	501	-32768	23024	-15160	884	1383	376	101	128	2
-8320	-17144	30428	-14248	-32768	2061	-20988	-940	-11144	-5925	-9165	-1466	-32768	-6200	-1212	-3227	-29422	-3961	-10264	4768	13344	-526	33	-348	-11408	9784	-13416	2073	1788	901	-30832	-1416	-12176	-207	2428	248	146	70	2
-7640	-17288	22860	-12642	-32768	-7593	-16372	-1156	-13376	-8970	-22238	1378	-32768	-3432	-6840	-2449	-30733	-8408	-2992	-96	12784	-284	135	-253	-6920	13072	-15712	-521	2435	624	-15072	5096	-9464	921	2947	-166	132	34	2
-7372	-13740	16080	-6651	-32768	-18456	-11548	1784	-12652	-8956	-32768	4670	-32768	-8976	-14384	1613	-26026	-7920	-9232	3600	14184	-103	285	-366	-24400	9392	-21608	-2212	1647	565	-27696	15552	-11136	1151	2972	-502	142	68	2
-12688	-7264	15424	-5757	-32768	-28876	-10092	-388	-13268	-7088	-32768	7114	-26408	-2848	-21896	14197	-25262	-10821	-8000	4472	15376	167	861	-417	-25776	7992	-19952	-939	1042	-104	-32768	16856	-3856	277	3610	-297	132	74	2
-20216	-3852	17992	-7586	-32768	-32768	-11032	-572	-14904	-857	-32768	11364	-18664	-5248	-18664	4177	-17069	-5387	-3120	9256	19888	-169	2711	-739	-32768	7552	-9200	456	379	265	-32768	5848	16088	-756	3777	-472	117	136	2
-25032	-2664	24748	-3219	-32768	-32768	-10616	-848	-15868	549	-32768	15259	-10384	-116	-16096	12297	-4595	-3571	-6368	4728	21024	-857	4927	-1501	-32768	296	1312	580	585	345	-32768	-6584	28432	-1278	3339	-718	116	134	2
-31644	2192	30204	-3475	-32768	-27762	-15812	380	-19324	-3897	-32768	14060	-3916	2552	-19000	13187	4456	3516	-12392	3816	21480	-1190	6934	-2329	-32768	-2104	6760	1482	950	638	-26400	-9824	29456	-569	2641	-985	127	184	2
-32768	-4040	27860	-7272	-32768	-18485	-19068	2504	-23888	-12696	-32768	12386	-716	7180	-16716	17979	9836	5379	-19936	2880	21464	-1064	7764	-2299	-27424	496	8944	2777	1051	613	-23248	-9008	29464	-133	2527	-870	125	144	2
-32768	-7272	25276	-6180	-32768	-17838	-21808	-4684	-26248	-18213	-32768	10817	1136	6536	-12612	23488	7363	2035	-19224	5672	19200	-629	8092	-1866	-24416	6112	16440	2951	1230	38	-11472	5504	27048	1678	2003	-174	133	138	2
-32768	-2892	2652	-3504	-32768	-20240	-23180	-5296	-30412	-16593	-32768	9640	-2796	-5380	3604	8114	-3132	-4550	-24736	6392	22296	-642	7951	-1948	-18304	8320	20128	1705	1911	-314	-6872	7336	30232	434	672	384	164	117	2
-32768	11280	-24620	-6925	-32768	-13761	-14364	-7540	-32768	-9913	-30946	1900	-7864	2220	32767	-3248	-14710	-72	-32768	9960	29424	-626	7129	-1720	-16264	7928	17248	-360	3012	-477	-2040	10688	24648	-369	-625	14	153	153	2
-32768	15432	-32768	-12104	-17254	-4775	2096	-10544	-32768	-9799	-9347	-4217	-5716	1824	26916	-5691	-6880	1322	-17288	15976	30128	-1683	4646	-1316	-20712	10736	352	-1847	4167	-194	-2592	3504	19720	-1489	-1501	-82	135	234	2
-32768	12632	-29560	2477	-667	3102	5612	-11488	-32768	1896	9069	-2569	-1544	3600	16688	-21328	-3542	-3674	-28920	14688	32767	-872	1510	-91	-27000	-3520	4904	-2094	4688	152	-7144	-5696	11280	-2055	-1519	-333	117	184	2
-29824	5856	-19904	1881	9568	6135	2048	-5196	-22732	5668	18872	538	5236	-8532	-10296	-11734	21055	-6490	-5008	6816	29736	-383	1479	-444	-28416	-6280	12160	355	3977	711	-10840	-11592	5808	-1393	-1951	-604	109	192	2
32767	32767	-32768	-14906	32767	24050	-15876	-27596	1700	1754	32767	-859	-24120	-27976	32767	-2914	-32768	2781	-13104	13600	32767	1040	775	-269	-23888	5152	1776	2249	2680	460	-21248	1776	5088	1576	-2740	-673	110	114	2
-32768	14232	-2372	15804	18896	8619	-24628	3160	-30876	21382	32767	-35	-32768	16732	-32768	32767	13403	-11522	-9928	28712	32767	297	-908	125	-28968	12976	-4432	1999	1780	-12	-32768	11200	4624	1524	-2474	-342	96	107	2
-19116	-3824	11628	5117	32767	25616	32767	-7784	-19808	-4109	32767	-12359	-7160	30052	-19524	3713	-972	-6553	-4808	20456	31168	-1134	-2501	461	-21120	8920	-2536	501	891	2	-32768	2720	3232	966	-3211	-23	135	56	2
-13908	6588	10568	25654	18688	24616	8356	-16736	-32768	32767	22969	-12162	15804	6352	-29428	-19401	9207	63	-4448	12176	27184	-356	-3693	1056	-17064	5208	-6440	-528	-232	-28	-32768	6016	1944	-202	-3306	192	144	46	2
-6196	-14364	10168	8786	1770	7052	-25292	12800	-27872	312	23044	-9664	-12356	-28596	-19108	-18442	6278	2808	-5344	13352	22704	534	-5113	1589	-13784	7048	-10872	-432	-1521	-364	-32768	3368	-1552	-128	-3553	292	156	80	2
-12180	-7816	12764	2451	85	2627	-24220	-8500	-14732	-6895	22410	-10756	-32768	-12188	-18488	-261	20322	-6176	-4760	9672	17184	649	-6161	1789	-13048	6960	-13232	-668	-3279	-195	-32768	616	-8128	-389	-2610	-159	140	65	2
-10972	-4732	13404	1724	1232	2295	-15124	-12992	-20584	3611	20008	-6364	-24564	-8364	-14856	-1308	25356	6968	-5152	1608	12512	1196	-6479	1713	-12344	1600	-12048	-955	-4816	-196	-32768	3968	-12928	-265	-3069	-42	73	108	2
-10828	-2308	13416	1116	2043	2043	-14420	-5740	-24464	11295	12772	-5167	-19796	-11808	-16972	-4801	25456	3154	-12072	816	15216	2257	-6265	1496	-11352	360	-14672	-510	-5995	-158	-32768	2032	-14568	-287	-3272	34	115	108	2
-10120	-3624	13960	-49	4385	1789	-24004	-4096	-20584	7772	7559	-1194	-32768	-12608	-13920	-5623	29851	5921	-16416	3272	21000	2288	-6575	1070	-10672	704	-15408	729	-6796	-233	-13056	-560	-16216	-40	-1788	-187	100	149	2
-7576	-4068	15636	-3711	14277	2028	-32768	3532	-18064	8128	3174	-1604	-32768	-9040	2460	2657	32767	6878	-18192	2296	17728	2813	-6467	757	-14576	-832	-17064	1615	-7798	468	-8416	1584	-17632	869	-817	-356	105	146	2
-680	-8056	20176	4358	32767	6706	-32768	13952	-6520	4159	859	-2948	-32768	6804	21708	5576	31591	6074	-29696	11576	28248	3141	-6314	1094	-12752	1960	-25216	1740	-8197	859	-3744	0	-16288	1174	415	-383	121	132	2
-6736	-3804	17636	6996	32767	15688	-32768	19392	6616	-5315	666	-4989	-32768	16224	30260	-7088	28750	5703	-32768	13272	26144	2778	-6280	2415	-16032	5680	-25344	838	-7919	1386	3120	-3144	-16488	191	1045	41	128	113	2
-19152	-624	16984	4684	32767	19063	-28632	16236	10992	-15350	1611	-5931	-22268	6080	29940	-22520	29229	7607	-32768	2880	23208	2455	-5197	4503	-19032	7312	-29416	-1437	-7086	831	1576	10296	-13456	-449	186	966	132	71	2
-32768	2900	20468	-3259	32767	9577	-18004	9016	2676	-22556	7805	-3658	-10736	-3372	27748	-32665	25678	9218	-32768	-7432	15008	1663	-4561	5271	-22784	5440	-28192	-1759	-5005	-128	-10016	17488	13000	556	-1756	1287	113	108	2
-25432	-5008	19464	-8965	32767	5506	-14700	2712	17144	-31926	20338	-794	-5944	-12972	20608	-20592	14511	4273	-32768	-23544	-19904	474	-3272	3292	-10080	4952	-30552	-874	-3143	-74	-5624	7192	32767	-149	-52	903	119	102	2
-29860	-5580	19800	-501	32767	9858	-15924	-5564	21360	-6645	24604	-273	-9160	-22744	25180	-3924	-3319	3925	-32768	-27104	-28944	693	-1335	402	4800	6928	-32768	-791	-998	321	-4840	2776	26064	-1628	323	426	151	136	2
-32768	-7820	27636	10429	32767	12429	-18720	-2680	12212	23467	29398	-735	-4060	-16928	22372	15921	-15899	3258	-32768	-20000	-21568	-133	216	-1146	5336	1288	-32312	-626	1468	337	7656	-7832	15416	1218	617	-847	128	193	2
-25336	5696	24440	11900	31325	12229	-20408	5000	4664	27821	32767	-2185	-3016	-2820	13124	21945	-20579	3217	-32768	-10192	-23824	-2317	1454	-1666	-1048	2528	-25184	221	2818	190	-1832	5880	-13400	236	2666	-150	123	133	2
-27180	-4676	32767	-6348	8011	12303	-26300	11172	6820	6219	32767	-4336	-5188	11360	5004	21809	-20992	5559	-32648	-32768	3184	1328	9119	-2435	-24192	22736	896	1430	4194	480	-32768	32767	32767	-81	-4295	1429	115	139	2
-24116	-13280	32767	-10404	-3011	17871	-32356	5584	6640	-13746	32767	-6797	-13624	2288	4404	-4900	-23646	4090	-12344	-18032	-6712	-2769	1275	-2132	-15144	2136	-5472	-3382	7269	-1656	-13408	-21664	-32768	-5056	1022	520	133	119	2
-15196	-28276	32767	-2075	-10161	21404	-32768	-4256	2344	-13214	27189	-2212	-32768	-10556	5032	-9267	-23168	-4765	-32768	32767	32767	-5354	4369	-4008	30096	10048	-32768	-4153	5121	202	-1776	-32768	-10432	1542	-291	1154	86	92	2
-14116	-29772	32767	961	-11506	21757	-28848	-4792	1448	2831	13515	2150	-32768	-5504	5616	1827	-32353	-8493	-29504	9752	26320	-1814	0	-1262	3432	-20664	-32768	-140	2488	1253	5904	11048	-29304	3769	595	123	100	72	2
-8908	-24376	32767	5027	-28972	12692	-22784	-3736	-3708	10235	2206	2246	-32768	-14576	4600	5332	-32768	-8541	-8944	7080	14216	-809	22	-347	-32768	4752	-19208	4606	3806	825	-32768	20760	-13816	2177	1271	-285	140	103	2
-8460	-26600	27284	-748	-32768	850	-20812	-3784	-10692	7728	-12408	3484	-32768	-6836	-604	5541	-30621	-9562	-9864	3328	13808	-519	88	-373	-10728	14064	-15400	2542	2025	1144	-32768	19448	-15544	1987	1757	-426	160	118	2
-4664	-23776	19660	-1384	-32768	-16638	-16012	-1712	-14580	5992	-25709	7352	-32768	-4564	-8964	7172	-31803	-9670	-10384	6016	12264	-288	235	-336	-7848	14480	-15832	-458	2630	873	-12640	12224	-12232	1410	2845	-1027	107	47	2
-9492	-14244	17104	-3409	-32768	-32768	-8540	-812	-16076	2093	-32768	12843	-32768	-3128	-13488	1633	-31088	-14861	-10976	4528	13560	-118	431	-359	-21632	6816	-24080	-1338	1752	571	-30616	16136	-12368	1005	3098	-866	124	104	2
-18532	-5980	17536	-5075	-32768	-32768	-4184	-4156	-13808	819	-32768	14593	-19100	-832	-15764	12404	-18574	-9562	-11208	3296	16808	231	983	-333	-24272	-2104	1320	1494	1774	-541	-32768	17584	-3120	391	3904	-834	110	135	2
-23524	7108	17396	-8991	-32768	-32768	-5072	424	-14424	-2597	-32768	16706	-18316	224	-13228	11286	-8590	-10631	-1744	6056	20560	503	3103	-636	-32768	11016	-10840	210	569	387	-32768	11680	18344	-755	4252	-859	122	101	2
-24088	9116	17160	-10457	-32768	-32768	-7944	-1608	-15620	-18932	-32768	15782	-8452	4520	-17984	5294	2105	-899	-4728	7192	22120	-394	5874	-1500	-32768	-384	3904	508	732	218	-32768	-2384	31152	-1609	3734	-841	113	86	2
-32768	-1008	30468	-12956	-32768	-13848	-13524	-6004	-23196	-23037	-32768	8844	-1936	8300	-19196	6028	11933	5746	-11616	5392	19656	-1004	8520	-2697	-32768	-3600	12224	2052	776	486	-28968	-10232	32767	-1317	2766	-1026	136	124	2
-32768	-764	29856	-12968	-32768	-7962	-18796	2136	-28900	-24970	-32768	6987	5120	8320	-22040	9460	16389	4005	-31584	4136	26480	-761	9278	-2571	-30192	2800	16512	3503	841	434	-11896	-4632	32767	866	2212	-275	123	170	2
-32768	-1000	12052	-20775	-32768	-16455	-19376	-3944	-29620	-32768	-32768	5495	1248	736	-13988	2167	11439	-2838	-20856	5432	23056	-201	9123	-2208	-20440	6528	24920	3244	1383	-309	-5904	1424	31496	1450	1100	-206	144	160	2
-32768	2268	-8876	-14721	-32768	-19082	-20292	-5276	-29816	-32028	-32768	5460	-4920	-10632	8096	-7294	-4374	-5915	-32768	9224	28760	-536	8086	-1854	-11400	11512	20360	1287	2392	-524	7480	32767	32767	514	-720	-491	148	188	2
-32768	15904	-27236	-12141	-28762	-14370	-8948	-6268	-32768	-8210	-24858	-2708	-11216	-13680	32767	-11775	-15325	-3099	-32768	13944	32767	-1597	5080	-1800	-19392	14856	4648	-1364	4343	-564	-944	864	11984	-697	-1583	-245	108	232	2
-32768	10000	-32768	1467	-7003	-12757	2752	-9844	-32620	13650	-3958	-749	-6516	-7228	24956	8234	3097	-3176	-32768	25480	32767	-455	922	-1122	-26848	-1528	4984	-2473	4445	182	-5936	-4824	6944	-745	-1493	-489	119	229	2
-32768	17820	-20224	6508	8676	-13426	3740	-8796	-32108	17100	-343	-123	476	-1096	12552	8496	12434	-1990	-5976	10136	30792	-470	-47	-1475	-23560	-5192	13800	517	3508	809	-10864	-3136	6648	-383	-1959	-475	108	188	2
-31308	11092	-4424	5399	13539	-12074	-1016	692	-21244	20617	22188	3459	2736	-8692	-8748	-3933	19946	1375	-8368	16136	30360	385	-542	-985	-17056	1592	5600	2266	2693	456	-8848	-2640	7432	-26	-2518	-395	96	180	2
-32768	4016	-32768	-6114	28652	2234	-7388	-15796	-19936	4686	27417	1932	3388	-484	3332	12379	903	9539	-8672	19896	30528	54	-1792	-897	-16600	9648	1024	2355	2292	327	-14504	-1136	3256	1033	-2933	-576	142	148	2
-32768	-32768	32767	15471	32767	23364	-32768	32767	-32768	32767	32767	-30959	-32768	-21020	-12248	4614	-5768	-11945	-5688	19616	31544	-664	-2799	-1446	-24072	22592	-5968	1034	1208	446	-18872	2704	1416	1723	-3073	-620	43	72	2
32767	32767	8740	3343	32767	8283	25780	11920	4812	12783	32767	-1652	-7636	18156	-32768	-2655	22446	-15277	-3400	20320	29352	-791	-2947	-1483	-16912	7080	-3728	-1409	262	-122	-32768	9608	-896	868	-3093	637	140	44	2
-32768	-21568	17184	18992	16929	21690	6496	-22592	-32768	20781	30111	-12031	26720	22264	-26760	-12711	638	2122	4712	13496	13424	50	-4184	161	-14840	-760	-7256	-1287	-1069	-418	-32768	8528	232	-266	-3087	749	149	57	2
-28468	27356	30060	8981	400	7815	-9428	-6316	-32768	4730	26444	-11653	1808	-26764	-25500	-16974	7326	4402	-864	15192	16312	1001	-4284	1648	-11968	3968	-13080	-201	-2671	-613	-32768	9312	-6032	-1421	-3066	793	190	74	2
-9928	3860	17636	2635	800	2844	-32768	-15440	-13020	-2766	23327	-8058	-32768	-23456	-18404	-9538	22128	583	-6768	11712	19480	1397	-4933	3280	-12032	4440	-15536	-585	-4143	-619	-32768	5664	-9232	-1315	-3124	790	174	95	2
-10240	-3376	14696	769	1579	3366	-13704	-4848	-22304	6485	19710	-7762	-30700	-4336	-13144	-214	28998	4879	-8032	2952	16760	1697	-4990	4391	-12848	4640	-14176	-2109	-5004	-998	-30384	-1432	-9864	-1390	-2657	576	86	89	2
-10480	-3512	13552	970	2934	2667	-14168	-7060	-24340	8294	13464	-5520	-18716	-5792	-14128	-7001	23667	1599	-16120	-1880	20808	1816	-5037	4252	-13184	3288	-15640	-2527	-6078	-1054	-18360	-3864	-12080	-447	-1918	428	118	62	2
-10352	-4528	14244	701	5146	2934	-22956	-840	-23324	4353	8062	-4579	-32768	-5336	-13300	-11622	30187	5686	-19512	-3096	23528	1390	-5337	2560	-13720	3992	-17616	-2083	-6425	-1257	-11136	-1744	-11848	-1188	-1380	103	101	117	2
-6872	-5208	14864	-3327	15064	3788	-32768	-584	-18192	2185	3467	-4064	-32768	-12312	-320	-9469	32767	9878	-30512	-5128	32767	2196	-6346	805	-14752	-88	-22648	-547	-7465	-808	-4056	-176	-12240	-1176	-230	-442	103	131	2
564	-8092	21036	1504	32767	8556	-32768	15692	-5124	808	1088	-4682	-32768	-2940	22372	-3169	32767	6612	-32504	1608	30152	3363	-7305	-204	-19640	-2024	-18240	3217	-8148	-119	-1712	-2848	-12496	-461	891	-678	101	135	2
-7864	-4352	18112	3056	32767	15821	-32768	21020	8232	-6783	645	-4013	-32768	-608	24816	-2343	32767	6581	-32768	10400	23192	3592	-6772	-245	-24952	7336	-23624	4534	-8552	1276	-4800	-7320	-10440	293	1341	-482	133	155	2
-20228	-632	17380	287	32767	17880	-29832	16096	13432	-13114	1465	-2659	-21244	6636	31816	-18606	31356	9840	-32768	8192	22472	3575	-5340	1572	-24992	16712	-26504	2446	-7379	1570	-11376	416	2280	1115	109	617	117	109	2
-32768	3620	17392	-6274	32767	9100	-16928	7280	9196	-19233	7137	-1822	-12772	-6956	29080	-24414	24757	8863	-32768	-5032	4448	2843	-4240	3187	-20240	13064	-26632	-256	-4909	964	-13984	18784	30448	2375	-1425	1450	115	130	2
-32136	-9208	23872	-7882	32767	9684	-17388	-2340	23676	-22341	21596	81	-12192	-11044	28408	-23935	23248	7979	-32768	-20984	-25720	1074	-2013	2948	-5288	4048	-28488	-1872	-2203	268	-3728	9136	32767	1286	277	844	121	126	2
-32768	-8480	21256	8069	32767	16107	-14864	-4296	20916	12132	23859	-75	-5736	-22184	24652	8512	-5829	4437	-32768	-22840	-27208	771	-1594	2683	8896	1048	-30040	-1712	518	93	-2800	9688	21368	127	-484	649	141	145	2
-32768	-3572	31752	17600	32767	11520	-18652	2168	7388	32767	31292	271	-5964	-11396	20392	24268	-19556	738	-32768	-20944	-15520	-1069	1497	294	-64	1040	-29152	-1868	2574	-55	10544	1440	7448	120	-227	268	132	112	2
-32768	13800	32767	8645	29475	14609	-19672	9812	-824	29334	32767	-3057	-4024	6388	7584	30240	-21759	3396	-28600	936	-5744	-2098	1848	-143	-1288	-2584	-18648	-1437	3364	-283	6528	8176	-19480	-1011	2976	352	129	100	2
-32768	6024	32767	3289	25114	13829	-26532	14008	9436	-4351	32767	-5474	-7692	16436	3704	18383	-21554	7267	26648	-32768	-32768	3194	8430	-1618	-13968	21720	-26920	1544	4838	317	-31480	10888	32767	-2669	-5833	240	135	117	2
-20808	-11888	32767	-12479	-4413	23918	-29432	4424	5364	-19120	32328	-7113	-17592	4176	988	-14576	-24115	2609	-1832	-28032	-10640	-2666	966	-1863	-17768	-19616	-8336	-4079	7399	-752	-19368	-19520	-32768	-6294	1618	736	120	111	2
-18012	-25636	32767	-6298	-15012	22437	-32768	-2304	-1084	-13778	23732	-699	-32768	-11280	1320	-15328	-24356	-4946	-32768	32767	32767	-3803	2961	-3476	25528	9712	-31976	-1718	5493	688	-20128	-15000	-32768	-3833	1136	655	104	123	2
-12228	-26288	32767	7215	-28198	16713	-24992	-1636	-672	-690	10060	3628	-32768	-9916	2952	-1217	-30977	-8235	-32768	17520	9008	-1461	-131	-1298	6472	-9728	-32768	1949	2653	2372	11320	12096	-32144	4475	167	100	109	114	2
-11116	-19692	32036	1476	-32768	5970	-21240	-2884	-8712	4963	-3673	5245	-32768	-15132	352	11562	-30648	-9363	-9728	12496	11816	-519	55	-277	-32768	6888	-18848	3715	3667	472	-32768	26192	-19016	3209	1126	-227	116	88	2
-12264	-21420	24476	-5027	-32768	-5605	-18284	-3128	-12704	-1580	-14111	7287	-32768	-9116	-2488	12902	-29434	-5880	-8824	3704	14208	-540	39	-396	-12456	11608	-15984	1192	2350	1005	-32768	192	-10456	1006	2537	133	149	115	2
-9672	-21708	16116	-3465	-32768	-17129	-18484	-3812	-12804	-2944	-16171	7736	-32768	-3552	-11636	13915	-29797	-7110	-9976	5808	13064	-279	302	-323	-12976	13784	-17984	-644	2747	1009	-14744	14168	-10648	1231	3235	-1131	129	71	2
-11260	-16704	11916	-966	-32768	-29891	-11520	-5980	-15892	2157	-32768	13275	-32768	-1440	-14140	6465	-31764	-7397	-9512	4376	13536	-102	458	-384	-19624	8296	-21560	-963	1649	360	-29768	20328	-13168	1166	3199	-469	156	112	2
-23308	-10256	17816	-3603	-32768	-32768	-10560	-5584	-16828	4716	-32768	15681	-27000	-4588	-17056	-585	-14075	-8919	-6808	4152	15696	245	1126	-400	-30496	13520	-18968	-534	813	-74	-32768	21176	-2144	133	3829	-362	116	121	2
-25688	-3128	16596	-7352	-32768	-32768	-9528	-3612	-13820	-4487	-32768	16647	-12808	-1072	-19064	6296	-10271	-5732	-2592	9584	21896	18	3297	-694	-32768	9712	-10296	-369	711	-164	-32768	8576	18120	-1122	4380	-658	125	131	2
-27028	792	22864	-13210	-32768	-31311	-12648	-4568	-16292	-12623	-32768	14701	-5948	716	-19732	15922	1976	641	-5160	5448	19848	-745	5774	-1682	-32768	-4880	2568	199	712	208	-32768	-8352	31264	-1918	4012	-475	119	122	2
-32768	-6776	32767	-10938	-32768	-16668	-18520	-4508	-22864	-19395	-32768	11556	-1628	7248	-17808	10825	8215	5775	-13912	672	18416	-934	8340	-2596	-32768	-8608	6864	1935	643	655	-26960	-18328	31224	-1109	3494	-1071	122	101	2
-32768	-3576	32767	-12891	-32768	-7041	-20892	1712	-23684	-32768	-32768	6458	3636	11204	-14736	11058	11733	6946	-24408	-1944	24504	-140	9029	-2127	-29280	-3848	13112	3588	612	693	-11136	-12672	32640	1544	2907	-641	135	154	2
-32768	16	11196	-23665	-32768	-13293	-22444	-6228	-27100	-32768	-32768	1078	1356	852	-7492	-2265	8915	-721	-23696	3536	25296	398	8900	-1503	-22136	3216	23040	3690	962	-106	-9768	5032	31552	2183	1370	-206	138	183	2
-32768	3304	-11308	-16784	-32768	-15621	-23692	-1536	-32768	-20110	-32768	-636	-3580	-8472	14196	-12698	-5192	-4867	-32768	6648	28632	-459	7958	-1097	-12304	13888	23032	1081	2328	-591	-4856	18056	32767	697	-761	-62	176	141	2
-32768	17944	-29080	-12215	-26334	-11256	-6996	-7468	-32768	-13726	-21650	-4828	-8156	-12656	32767	-15991	-19090	-6972	-14280	12032	32767	-2258	5000	-1055	-20360	15360	3024	-2005	4566	-596	-208	9816	20440	-953	-1563	-227	126	139	2
-32768	15688	-32212	-11026	-22752	-10670	7100	-12132	-32768	10286	142	-2750	-6544	-4656	20024	-7653	-2311	-6738	-27096	17000	32767	-452	993	-792	-30064	-4272	5736	-3033	4999	76	-6696	-4152	5496	-2396	-3624	-222	124	126	2
-32768	16464	-22284	5292	6697	-4783	3376	-2524	-32768	15921	17667	-241	-1696	-1780	11028	-1342	2589	-8348	-3072	14112	30704	372	586	-1167	-27248	-10752	14424	591	3672	501	-11624	-8104	5784	-1748	-2133	-681	122	134	2
-32768	16156	-21120	6481	14675	2172	-3340	-1392	-15476	8789	24164	-438	5148	-9268	-13512	-6881	19240	-3161	-9432	19808	32767	949	54	-666	-20368	1224	5320	3402	2711	392	-9296	-7360	8760	-424	-2380	-937	144	146	2
32767	32767	-32768	-12553	32767	32767	-26840	-18336	32767	-19484	32767	-317	-25424	-19232	32767	2489	-32768	5443	-9840	21072	32767	803	-1140	-224	-26160	13424	2544	3557	2199	199	-21904	3304	4648	2412	-3268	-850	159	118	2
-25412	18340	-6204	18386	25934	11769	-10748	-5884	-25480	7069	32767	6267	-24644	26312	-30216	32767	12673	-13703	-856	26432	30880	-341	-2060	-184	-23992	17816	-2304	1629	1173	-109	-32768	11720	5080	1659	-2949	-358	132	113	2
-32768	-15120	32767	22567	32767	32767	7840	7252	10088	8836	32767	7981	-1324	31080	-21820	-6540	-2022	-1070	-656	19280	26624	-997	-3273	145	-18288	11632	-3568	-1225	344	-239	-32768	8840	4432	956	-3539	70	134	93	2
-14096	13200	18756	17316	1685	15428	23604	6680	-32768	32767	17902	-16517	17704	-1776	-32768	-24459	9457	-2398	3664	13672	19200	-115	-4161	694	-15760	5504	-6704	-1690	-1004	-386	-32768	11520	-120	-432	-3395	256	124	99	2
-16556	4308	17660	1154	-806	1333	-27176	6360	-21768	-6421	30373	-5248	-25548	-27108	-20480	-25352	7251	3301	-520	16608	17808	389	-4692	1137	-13888	9192	-12512	-1359	-2728	-571	-32768	11680	-5824	-1224	-3408	108	136	144	2
-8572	-3316	15408	1916	-7	2389	-20524	-6660	-17456	-4779	26190	-13784	-32768	-6604	-14892	-6345	24088	-9177	-5232	11104	16128	651	-5454	2073	-10312	2472	-14840	-1302	-4342	-734	-32768	1240	-11520	-938	-3168	138	116	152	2
-10028	-4820	14000	1860	1043	2444	-14256	-9908	-16960	6506	18789	-8532	-18732	-8032	-17044	-3738	29006	8961	-8456	6312	13856	1199	-5581	2554	-11968	104	-14112	-499	-5496	-938	-28464	-2696	-12712	-385	-2730	-99	123	179	2
-10060	-3548	14288	639	3247	2073	-15884	-3040	-22060	8507	9162	-5330	-26212	-13156	-15608	-11120	24539	2433	-16208	4312	20344	1605	-5692	2319	-12256	4560	-19184	879	-6889	-520	-18712	-160	-15424	661	-2067	247	90	139	2
-6724	-1224	16508	-1967	9129	2360	-30316	-3248	-23316	7973	5601	-2085	-32768	-17592	-8476	-7059	32767	7209	-25096	2904	28032	2047	-6093	1590	-11872	5136	-20496	788	-7536	-81	-10416	5816	-17536	249	-1147	86	92	165	2
-1852	-6888	18208	187	28838	4908	-32768	4444	-15572	6762	2145	-1716	-32768	-4548	11040	3211	32767	7596	-32768	9120	31696	2295	-7430	1164	-10952	3648	-19184	972	-7985	307	-4248	1160	-18360	-201	148	-410	115	193	2
-2648	-6372	20272	7854	32767	14273	-32768	18600	588	-1529	-859	-5590	-32768	11264	27932	-729	32767	5228	-32768	14016	23664	1900	-7523	1501	-21216	2520	-22848	877	-8170	817	-1056	-3712	-14032	-134	773	-532	127	140	2
-10116	-2488	16080	8445	32767	22781	-32768	19504	12040	-13976	-662	-5493	-30964	8072	31588	-9889	32052	7104	-32768	10632	17488	1733	-6095	3095	-23504	6416	-28040	-506	-7548	705	-1672	400	-10936	-1131	716	477	152	125	2
-31912	3228	23352	2645	32767	18750	-24892	12644	9464	-21850	2368	-5245	-16000	8036	32767	-27855	31222	9257	-32768	-2408	13256	1743	-4262	4547	-23880	6728	-31632	-1450	-5935	295	-2832	3304	-9408	-1568	472	731	121	126	2
-32768	-4044	24104	-9046	32767	8902	-23204	11024	8608	-23178	3793	-4991	-10028	-6620	32304	-32768	15015	4305	-32768	-18376	-7888	891	-3230	4028	-15224	8176	-32768	-1455	-3587	-1	-9736	6040	32767	299	-867	1065	100	134	2
-31748	-5628	23660	-1636	32767	11571	-17768	-3812	27388	-17070	26316	-1477	-7360	-27080	28960	-19149	-2460	2520	-32768	-30592	-28632	345	-1747	841	3104	5400	-32376	-1046	-1146	32	-6760	-432	28416	-447	432	201	141	111	2
-32768	-8508	31776	9913	32767	14754	-20052	-3216	16956	15089	28700	-2824	-5408	-22560	22420	2244	-17348	1319	-32768	-21048	-26480	519	-255	-1088	4512	1672	-32432	54	955	411	4720	-4616	18880	1374	-160	-196	126	89	2
-19644	9760	32767	8449	32767	13882	-22848	3596	3048	24680	32767	-3547	-3880	-5792	9304	19627	-22441	791	-18800	-8088	-17376	-430	1155	-1539	1864	1728	-24080	452	2566	248	6928	-3856	16128	1846	24	-294	119	21	2
-32660	-7600	32767	-10863	5220	12326	-27036	10836	4036	5386	32767	-5238	-8480	7636	5632	24239	-25323	4471	-32768	-32768	-32768	-2841	6850	-3078	-2056	9808	-22272	-683	3383	359	-19728	21800	32767	-896	-990	1232	125	129	2
-16636	-15160	32767	-8168	-6582	17634	-28292	8456	9260	-13694	32767	-6875	-8792	5072	3908	5267	-24654	2815	-32768	-12008	32767	-1632	2035	-1234	-32768	-7656	-32768	-4898	7833	28	-32768	-4368	-32768	-2645	1810	339	151	135	2
-11792	-22164	32767	-4273	-11610	16948	-29504	-1300	3488	-9139	24947	-2932	-32768	-7784	4452	-4459	-24574	-2369	-32768	32767	32767	-4458	5584	-3789	10072	7352	-20360	-4107	5811	-320	-10544	-32768	-13240	-539	543	1270	115	84	2
-7240	-26664	32767	4461	-22274	11849	-25536	1044	528	-873	11339	1526	-32768	-3036	308	-1407	-32419	-7683	-32768	10752	32767	-2175	359	-1558	17392	14456	-32768	-3402	5537	384	5600	2704	-27880	2598	1447	270	116	148	2
-6064	-18984	32767	-280	-32768	2964	-19884	908	-4768	738	-824	2791	-32768	-7912	1588	2510	-31958	-7261	-12104	7536	12680	-624	94	-337	-32768	-3520	-23328	4104	4017	799	-27112	16488	-16896	2363	843	25	119	143	2
-5056	-18932	26196	-8990	-32768	-7552	-17612	-1520	-7548	-2012	-14793	3079	-32768	-6440	-948	4806	-29372	-7650	-10544	4472	13464	-380	346	-324	-17104	17272	-17768	2923	2216	1051	-32768	2072	-16256	133	2565	-78	141	128	2
-7156	-17636	21460	-11768	-32768	-18392	-16696	-1916	-9240	-2841	-16479	3255	-32768	-2940	-8816	5106	-28125	-6807	-10280	3464	13032	-130	490	-229	-10816	11024	-23592	-95	2413	938	-19392	4016	-12648	1313	3085	0	139	79	2
-15104	-11916	20508	-15002	-32768	-29108	-11748	-1392	-17356	-7191	-32768	5238	-32768	1340	-14992	5190	-26437	-4098	-9000	4344	13752	38	633	-270	-23000	8744	-19096	-1421	1720	795	-28016	14368	-9248	1051	3240	-646	133	132	2
-18000	-8440	12836	-16442	-32768	-32768	-8392	-2908	-12828	-6280	-32768	5025	-32768	1852	-13628	5827	-24563	-3079	-7616	5768	16272	384	1553	-295	-32768	8608	-15264	-979	1103	143	-32768	14904	2144	546	3434	-375	122	140	2
-20660	1164	12512	-21814	-32768	-32768	-7720	852	-18896	-1919	-32768	6307	-12600	-6692	-22184	5676	-6246	-1183	-4512	6016	20624	127	3582	-601	-32768	4936	-8728	227	715	339	-32768	7528	16840	-443	3684	-644	118	127	2
-31924	-5276	29544	-16379	-32768	-32768	-13608	-5720	-19812	-14518	-32768	8299	-3940	-3284	-21284	2081	-962	-1311	-5608	5680	18488	-44	5680	-1225	-32768	-344	920	766	864	471	-32768	-5584	26656	-621	3459	-621	119	121	2
-32768	-7528	32767	-5349	-32768	-26197	-25076	-7300	-19628	-11714	-32768	8057	-2860	-4664	-15168	2523	166	725	-14272	4408	15984	-103	7725	-2012	-32768	-4536	7456	1619	903	421	-22936	-6176	29520	-187	3074	-970	132	136	2
-32768	-6732	28932	-4421	-32768	-19546	-26652	12	-23252	-12749	-32768	9595	-5652	-3844	-13708	7036	4023	-3500	-25920	2352	23880	292	8583	-1781	-28536	-4112	9736	2860	981	438	-12232	-4760	28960	1079	2854	-719	138	161	2
-32768	-2456	15124	-11802	-32768	-19192	-23464	340	-25880	-13640	-32768	6315	-9360	2184	-4476	14889	3016	-6905	-22312	4392	25128	616	8699	-1322	-23952	4120	19000	3446	1179	-125	-10016	7184	26304	2177	1875	-794	145	112	2
-32768	5924	-3196	-15841	-32768	-14224	-23024	-340	-26344	-23463	-32768	-672	-8180	4528	12868	11744	-8242	-1119	-32768	8456	28368	-293	8005	-1408	-16216	11848	21912	1087	1924	-630	-7880	12408	27560	664	251	-153	151	131	2
-32768	17072	-19956	-17287	-27913	-9746	-5836	-3856	-32768	-14299	-29381	-7798	-5504	1976	31656	-4265	-7976	671	-32768	15256	32767	-914	5850	-1257	-13928	16384	3384	-1583	3891	-948	-2216	12688	26064	-1158	-1216	-30	142	122	2
-32768	16380	-27872	-6735	-12770	-8605	3888	-5768	-32768	-6475	-6490	-3123	968	-2524	19848	-12870	-2544	521	-32768	-5600	32767	-1581	2613	-1936	-21672	6840	1096	-3238	4892	-99	-2456	1784	12104	-2050	-1042	-109	128	107	2
-32768	19620	-27100	4016	658	-5492	3928	-5940	-32768	11235	8958	-1131	7972	-4368	9724	-2659	2960	-3494	-9240	10984	30776	228	-1	-2436	-30912	-7512	13824	-1264	4405	430	-7456	-9144	10584	-2602	-2608	-579	102	163	2
-32768	13640	-14828	2881	7519	-7685	4668	212	-32024	19075	18952	219	4008	-12272	-14768	-2018	18088	-5262	-14688	18176	31472	859	-411	-2401	-25904	-5376	7512	2908	3469	672	-8976	-11064	10736	-788	-1834	-722	131	155	2
-32768	1944	-32768	10485	28997	-2450	-1152	-10368	-28152	18159	26199	1999	976	-408	-5472	6772	7174	-559	-10752	26992	30392	537	-1197	-1939	-24224	3944	3456	4540	2908	669	-11352	-4328	5416	1249	-2561	-1139	109	134	2
-32768	-32768	32767	21947	32767	26180	-32768	32767	-32768	32767	32767	-27636	-32768	-32768	-4788	3188	6808	-32768	-10528	29640	32767	-224	-1666	-1470	-32768	23856	-7664	3256	2038	230	-32768	21272	9080	3034	-2884	-409	119	101	2
32767	17860	-21212	8477	32767	14866	32767	9436	31088	22346	32767	-18	-29908	28232	-32768	12788	32767	475	-1904	30200	28816	-1332	-2821	-229	-22912	10952	-3304	-402	1215	-491	-32768	11288	456	488	-3275	-56	163	51	2
-32768	-16532	32767	26843	16151	22689	-3204	-32768	-32768	17546	32767	-11422	32767	32767	6924	89	-10428	-3191	3936	15800	22152	-1019	-3296	546	-19984	7752	-6816	-2000	104	-384	-32768	7672	5064	-967	-3286	394	159	65	2
-32768	-124	17096	6878	-5051	4714	-12144	8384	-32768	12983	26951	-14337	9848	-19964	-32768	-18616	4871	10873	2320	15752	19512	172	-3832	1471	-15440	7384	-12280	-2035	-1563	-614	-32768	8832	-2184	-1546	-3746	434	102	128	2
-9540	-9428	12736	2302	-382	1974	-32768	-5376	-18172	-15334	30123	-15130	-32768	-27644	-25132	-15347	20081	-8236	-2856	15120	21184	421	-4667	2241	-12872	4984	-14736	-1670	-3487	-837	-32768	520	-8616	-1074	-3537	276	126	70	2
-9832	-2780	14256	2457	766	1917	-15184	-11788	-22200	3339	21274	-8598	-32768	-5756	-15540	-10002	30280	2701	-5616	4816	19248	803	-5685	2644	-10224	1320	-13480	-1139	-4950	-928	-32768	-920	-12312	-383	-3471	161	130	130	2
-10368	632	14724	1032	2556	2413	-15248	-8420	-30984	13839	13205	-6451	-11540	-13404	-15900	-18439	24886	3968	-12736	952	20064	1595	-6225	2332	-10624	960	-13264	79	-6434	-851	-21920	-552	-15688	-43	-2727	387	135	153	2
-11084	-6836	13272	67	4462	2196	-22524	-6988	-22672	2078	8221	-3036	-32768	-20564	-16624	-14934	29083	6253	-15352	2328	19256	1754	-6537	1777	-11496	2200	-17120	687	-7282	-568	-12936	1360	-17136	734	-2042	174	75	155	2
-4704	-5096	17856	-1387	14929	4192	-32768	-1000	-13880	2069	3841	-2008	-32768	-16556	2088	-3036	32767	12844	-21912	1736	25704	2463	-6220	1256	-12712	1704	-21512	365	-7989	-237	-7168	4152	-20472	921	-775	-221	127	157	2
-888	-6012	20628	9153	32767	11262	-32768	11520	-3548	5308	1316	-2579	-32768	24	27124	8038	32767	9283	-32768	12392	32767	3072	-7269	1327	-12544	280	-26656	777	-8692	185	-696	-856	-18992	-774	866	-641	122	119	2
-5844	-992	18176	12468	32767	21650	-32768	20392	7116	-5630	1119	-7285	-32768	14516	32767	1437	32767	8295	-32768	16904	27304	2690	-7798	2513	-18624	2392	-27400	1539	-8678	1007	2160	-10688	-18672	-1294	1525	-507	131	134	2
-20200	-2064	17212	9579	32767	23989	-32224	17096	11996	-18373	807	-7088	-20976	15444	29812	-17786	32767	6968	-32768	4360	18856	2241	-5979	4785	-22048	11448	-31032	-665	-7496	623	96	5472	-10096	-1385	89	774	148	109	2
-32768	2100	21168	-7740	32767	12737	-17520	7076	5504	-29858	7019	-4079	-12596	1544	27664	-32768	25278	5179	-32768	-6928	7296	1486	-4355	5305	-26256	6464	-32768	-1864	-5284	-94	-10120	15224	14328	143	-2335	1643	111	145	2
-23840	-580	20292	-7842	32767	8969	-13524	4356	22820	-32768	21922	-961	-6404	-18180	24456	-30020	10438	2316	-32768	-25752	-19328	905	-2889	3255	-7000	6768	-32768	-1036	-2928	50	-8448	4440	32767	-3	-153	605	100	82	2
-32768	-4480	24808	2768	32767	11783	-14792	-4648	23272	-7392	26098	-965	-5040	-29996	23280	-9528	-5480	4070	-32768	-26864	-32296	1048	-1078	316	4776	4512	-32768	137	-445	359	-4368	-8	25528	-374	56	-76	158	110	2
-32768	-7116	32767	14208	32767	11765	-22604	-4076	13184	22867	31190	550	-4780	-20260	18948	17078	-21134	2458	-32768	-13936	-21152	65	540	-1265	4464	5664	-32768	800	1772	374	8216	-5752	17176	2256	210	-808	137	106	2
-32768	7848	32767	15267	25914	11571	-19828	4024	3208	28590	32767	-743	-4988	-260	12140	23359	-23614	1628	-32768	-4680	-12808	-718	1441	-1650	-144	2016	-25240	336	3204	267	-456	9792	-21712	1370	2889	-191	126	100	2
-21676	-7932	32767	-5529	-572	8877	-25088	11580	10948	4871	32767	-2524	-6440	9400	3892	22289	-24213	3097	-32768	-12088	-32768	-2392	6104	-2678	-2736	10368	-19160	-715	3311	-115	-1424	11560	-25600	947	3073	60	127	170	2
-14764	-13448	32767	-5211	-7587	14902	-25520	11816	11964	1551	32767	-3063	-10952	9356	3576	2892	-25134	472	-32768	-2328	32767	-1527	3570	-1418	-32768	336	-32768	-6911	6177	870	-32768	-520	-19888	-4176	729	1570	138	150	2
-15956	-20496	32767	-4987	-12590	15260	-29560	-1224	1472	-6270	23792	-2762	-32768	-8156	7044	-10892	-26455	-4570	-16336	5128	16008	-1686	5663	-2943	12880	-2240	-15032	-5906	6539	-1630	-27824	-32768	-15216	-2174	1260	1521	127	127	2
-10764	-26672	32767	2954	-23661	11256	-28704	136	-2536	-2676	10951	559	-32768	-2024	1188	-4563	-31377	-9065	-456	-12320	21624	-2190	685	-1775	2848	-8928	-24896	815	3127	1872	15056	-5752	-20040	2615	1002	-191	120	98	2
-8768	-19272	32767	-223	-32768	1665	-21644	420	-7348	314	-1444	1880	-32768	-10364	2768	4140	-32382	-8135	-10200	-7072	15120	-947	-134	-630	-23144	-4856	-26040	4524	3461	1501	-16392	19264	-17984	2764	578	-124	117	97	2
-5544	-18876	23756	-7014	-32768	-10387	-19368	440	-9372	-1487	-15330	4159	-32768	-7104	-744	8727	-31634	-7836	-11192	6288	12792	-653	112	-401	-19064	26112	-19256	2922	2656	578	-32768	13984	-16696	231	2412	210	128	148	2
-5856	-15556	19072	-7753	-32768	-21219	-14236	-1144	-12944	-6158	-27215	5829	-32768	-3988	-8200	7431	-29555	-7923	-10096	2928	12848	-424	60	-394	-9992	11496	-22216	-1169	2469	516	-23480	2544	-11112	449	3022	183	142	144	2
-11288	-10084	17756	-8964	-32768	-30441	-11284	-3128	-14484	-5689	-32768	7196	-32768	-8364	-11852	9400	-22579	-3211	-9928	4104	13104	-370	83	-374	-21840	6736	-22848	-2379	2065	475	-25112	15688	-11440	635	3631	-441	137	168	2
-18492	-7304	18612	-10217	-32768	-32768	-9992	-3144	-14884	2581	-32768	9638	-23848	-2244	-13980	8165	-17642	-4884	-7664	4528	15568	264	961	-428	-28480	7704	-19520	-852	1125	-22	-32768	15256	-2456	655	3605	-202	124	100	2
-21528	-3312	21132	-7217	-32768	-32768	-12520	-1276	-15744	6815	-32768	12993	-17416	-2972	-20652	4166	-1566	902	-4736	10136	20704	-69	2802	-885	-32768	7984	-9360	300	500	324	-32768	10808	16768	-776	3939	-649	115	166	2
-28096	4616	29204	-6954	-32768	-32768	-11396	628	-18100	1537	-32768	17122	-9148	4392	-20508	-657	-5945	-2668	-6480	4888	21472	-793	5074	-1672	-32768	7896	-8000	282	516	355	-32768	-3400	29352	-1753	3542	-607	130	143	2
-32768	3500	32767	-11549	-32768	-23908	-14148	4112	-21936	-18654	-32768	15392	-460	5332	-20268	7113	6135	2199	-12792	5648	20480	-1486	7593	-2673	-32768	-1200	9496	1399	1021	679	-29672	-7864	32767	-640	3000	-521	123	123	2
-32768	-2340	32767	-7610	-32768	-12411	-20408	-1776	-26844	-31512	-32768	10106	4400	6076	-18656	16146	14945	4442	-26600	3048	25312	-1048	8577	-2615	-32584	-1824	14328	2928	1177	644	-13008	-5272	32767	831	2464	-445	129	163	2
-32768	1856	17008	-12710	-32768	-14742	-26728	-6020	-32768	-25371	-32768	7545	1460	-2072	-7920	16896	8312	-1730	-21832	4456	22384	-24	8766	-2148	-25608	2960	24456	3528	1605	244	-8032	-3216	32767	1221	1065	131	128	107	2
-32768	4168	-14692	-12664	-32768	-14648	-26820	-6560	-32768	-16608	-32768	3942	-7440	-3956	15892	769	-5507	-4255	-28072	7408	27592	-148	8686	-2206	-24600	3896	25248	3438	1667	128	-1448	7848	29752	1769	-692	-88	172	117	2
-32768	19708	-32768	-13475	-28559	-8490	-3288	-8576	-32768	-11850	-19135	-4053	-14860	-1700	32767	-7451	-17168	-105	-32768	19240	32767	-1200	7258	-2591	-21640	14536	10560	-254	3504	-174	-488	11640	24472	846	-773	-329	148	124	2
-32768	14352	-32768	-8062	-2973	-4490	7236	-10304	-32768	-4911	5600	-4509	-5580	2496	19808	-14224	-1190	313	-32768	22544	32767	-1691	2883	-202	-19232	9536	-1336	-2297	4104	22	-5216	4704	11176	-1139	-1478	-144	98	124	2
-32768	14088	-18040	4687	9118	940	3192	-7888	-32768	5245	23888	-1288	8240	-1636	5408	-14513	19136	-4477	-2048	11248	32767	-874	219	245	-30648	-1168	19424	-776	4372	379	-11248	-1600	8376	-1846	-1870	-177	140	91	2
32767	32767	-32768	19658	32767	32615	-17320	-22552	-9204	2817	31985	-1267	-14696	-21536	32767	-13181	-3967	1419	-13768	8272	32767	96	287	34	-28120	3472	1680	741	3025	548	-19440	2584	5136	-262	-2688	-528	133	95	2
-32768	-17032	32767	15635	32767	19272	-32768	21232	-32768	32767	32767	-8861	-32768	-15996	-22292	17885	-2992	-8740	-15760	26408	32767	97	-1429	480	-26616	11968	-6944	1230	2123	-421	-32768	7880	6136	850	-2911	55	115	124	2
21876	2676	-1652	7902	32767	20922	32767	-11532	8088	1675	32767	-8873	-6544	28764	-32768	9386	4121	-2290	-1960	21616	29944	-1745	-3048	381	-23128	6584	-1640	-134	1425	-203	-32768	-2280	2584	432	-3349	-133	179	108	2
-32768	-1348	32767	30165	9091	20188	-1024	-32768	-32768	32767	27270	-9743	16964	20740	-13060	-7778	9991	-4605	1896	7408	23440	-1243	-3800	338	-17752	4288	-4096	-611	-190	66	-32768	3920	2200	88	-3509	-52	110	65	2
-26632	24980	32767	18871	1576	17350	-14384	15292	-32768	-869	24503	-12402	-2564	-21704	-26856	-17702	10382	5266	1160	11280	21216	414	-4757	640	-13184	6856	-9752	-260	-1714	-408	-32768	9984	-2848	28	-3503	65	118	166	2
-9104	-4292	15400	1813	-1038	1551	-32768	-5952	-13748	-12098	24028	-8150	-32768	-11144	-19800	-7480	20625	-7600	-320	13632	18688	835	-5730	1247	-10752	7456	-12872	-787	-3592	-551	-32768	-1320	-11768	120	-2936	264	124	189	2
-9740	-2628	14224	948	1204	1249	-32648	-8876	-11108	-8975	23883	-10467	-21904	-9744	-14812	-4203	28503	6031	-4520	9664	16456	1001	-6242	2157	-9616	2280	-12048	-1440	-5040	-562	-32768	2368	-15416	806	-2985	63	120	204	2
-10108	-2416	14168	41	3215	1693	-17228	-2936	-21460	10403	11381	-8359	-20676	-8104	-15328	-9958	27539	5430	-11464	3256	18144	1847	-6409	2870	-11768	-752	-12080	-1019	-5709	-831	-18472	-160	-17416	79	-2221	58	128	139	2
-8860	-4436	15016	-1635	8355	1802	-28200	-2784	-16884	3663	6844	-1659	-32768	-15680	-12372	-13689	31201	8922	-15800	600	20024	2613	-6348	2843	-9320	-1192	-13512	184	-7161	-752	-8184	4240	-18472	319	-1550	227	119	69	2
-3620	-4336	17532	-2789	26618	4143	-32768	3272	-13472	538	3828	-1683	-32768	-11964	9460	-2387	32767	9530	-19064	-160	27752	2669	-6434	1680	-9256	-1384	-13808	327	-7258	-895	-2792	4864	-21016	-72	-111	-507	116	156	2
-4596	-5780	20336	5798	32767	12325	-32768	14504	2256	-2393	1666	-4310	-32768	6100	25800	1347	32066	9229	-32768	8616	32767	2814	-7608	718	-17000	4120	-26328	1851	-8963	271	-776	2528	-14304	-755	607	-522	133	124	2
-9020	-2344	14652	6114	32767	21091	-32768	16860	12396	-11845	1280	-5212	-30404	7644	30180	-9318	31923	9008	-32768	5840	27624	3320	-7971	1791	-17656	3256	-26392	1950	-9041	348	2568	-3664	-15680	-1334	1109	243	117	145	2
-11404	-1960	14776	5681	32767	21457	-25248	12436	11116	-18346	3761	-3274	-16916	-3072	32767	-18462	32767	10696	-32768	5024	9216	2241	-6095	3590	-19952	11616	-28232	765	-7182	599	-1528	11576	-2568	-1201	-412	1301	128	160	2
-32768	-3452	20588	-13998	32767	7756	-14324	6144	14132	-31308	15174	-686	-8716	-6472	32060	-23568	24609	4349	-32768	-7696	-5440	880	-4124	4056	-22776	8424	-32768	-1334	-4090	50	-7768	9000	32767	912	-2281	1012	120	106	2
-27972	-2832	23324	-4426	32767	10289	-16740	-3860	27300	-17184	29534	3238	-5572	-22216	31484	-10880	219	3348	-32768	-24496	-32768	1146	-2095	2723	72	3168	-32768	-2188	-1820	185	-12576	984	25024	-1037	886	67	138	137	2
-30904	-9236	24612	13797	32767	17317	-18740	-4536	22980	20246	29284	1724	-7812	-20088	22048	6842	-13465	1985	-32768	-23296	-31296	70	466	539	7048	1456	-32768	-992	647	292	4248	360	21640	1082	434	-479	131	91	2
-19220	-1724	32767	19928	32767	13949	-23092	5720	8108	32767	32767	860	-5624	-7228	15720	20960	-22056	2938	-32768	-19400	-11392	-1080	1427	-765	6360	2696	-32768	-864	950	254	936	8912	-3608	267	1859	206	118	75	2
-32768	-4460	32767	9287	25732	11295	-21832	11504	-2924	26942	32767	-1774	-3856	10436	3240	27362	-23177	5411	-26744	-8488	-1152	-1311	1687	-937	-2136	-1152	-20920	-1758	3343	-172	-3952	10624	-22936	-891	3350	508	115	133	2
-21828	-8104	32767	-6306	329	12589	-25180	12660	9440	-8188	32767	-5977	-8152	17088	5952	11369	-24387	6219	32767	-32768	-32768	-569	5483	-4232	-5856	32767	9312	2584	3672	132	-13616	13360	32767	-1610	-7002	1121	123	154	2
-13612	-15564	32767	-9683	-11428	19755	-26468	2340	7412	-17132	29905	-7338	-16708	2728	956	-15638	-25996	1843	-27080	-32768	-23008	-2756	1325	-1376	-30480	-32768	-19640	-5035	6295	336	-32768	-13840	-32768	-3832	4228	1046	145	18	2
-15388	-24920	32767	-7239	-19780	19207	-31048	-6408	-1496	-11637	20730	-2619	-32768	-14224	800	-15865	-25858	-7004	-32768	30792	32767	-4224	2042	-3513	21536	5816	-32768	-1450	5448	429	18192	-25256	-25000	4191	37	690	100	163	2
-10036	-29256	32767	4616	-32768	13487	-25588	-4648	-3144	1191	5599	4067	-32768	-14852	2812	-934	-32463	-10669	-11968	15408	-880	-943	-323	-863	12768	5320	-32768	4587	1735	2665	19552	23640	-32768	5385	463	-603	110	121	2
-6612	-21812	25788	1952	-32768	3005	-20204	-2172	-10016	6388	-7336	4982	-32768	-14252	-364	13799	-30028	-11179	-9592	6912	13232	-1017	-17	-746	-32768	12472	-17064	3929	3389	378	-32768	32767	-20344	2513	1422	238	127	95	2
-8052	-21332	21344	-4478	-32768	-12151	-15168	-2140	-13324	2173	-19890	8053	-32768	-7408	-5392	13043	-31393	-9825	-9064	4928	14296	-324	203	-293	-32768	21472	-15952	3309	3626	250	-28848	-2264	-9336	-758	2538	308	143	160	2
-10352	-17272	17168	-4896	-32768	-26564	-12652	-1068	-16016	-4400	-32768	10840	-32768	-5324	-12896	13063	-27586	-6842	-10056	5800	12264	-135	416	-237	-12312	5768	-19912	-985	2788	475	-18464	5328	-12768	461	3580	-332	128	144	2
-13076	-10408	12308	-6456	-32768	-32768	-9824	-3416	-13264	-3657	-32768	11297	-32044	-832	-15252	9077	-25727	-4807	-10096	5232	12648	-115	422	-235	-25136	8384	-22864	-732	1519	136	-31920	14704	-9176	1549	3151	-344	124	41	2
-21032	-3956	15836	-9700	-32768	-32768	-10208	-3804	-15408	1856	-32768	12531	-20004	-1116	-15548	10546	-6918	-7361	-5504	6288	17056	355	1766	-396	-32768	11344	-18736	-700	661	11	-32768	17320	5168	-214	3777	-904	116	133	2
-26912	-2772	25028	-9109	-32768	-32768	-11232	-3796	-17800	-3457	-32768	13183	-8820	4756	-18612	6858	-6132	-606	-2648	7368	22040	-168	4359	-777	-32768	2224	-7632	-309	691	224	-32768	2048	23320	-1832	3872	-577	120	91	2
-32768	580	30452	-9925	-32768	-25753	-12628	-4972	-18976	-6504	-32768	11012	-3856	4284	-20064	2267	5171	2820	-6568	5920	19024	-412	6660	-1654	-32768	-4232	4000	700	863	434	-32768	-11952	30344	-2027	3529	-550	142	123	2
-32768	352	30908	-10699	-32768	-23359	-16124	1440	-23124	-20871	-32768	8209	2752	8212	-19688	759	13800	4382	-25496	4280	23792	-611	8623	-2311	-32768	-5424	7528	1744	967	640	-20760	-14200	32767	-40	2845	-876	130	115	2
-32768	-3412	29856	-22529	-32768	-14668	-25100	-956	-30472	-32768	-32768	2386	2828	8156	-14340	1670	14429	2833	-28176	3888	27048	-483	8732	-2238	-30320	-5528	19040	3529	1293	571	-10208	-7416	32767	1965	2266	-578	128	177	2
-32768	584	7604	-23255	-32768	-23242	-31064	-3656	-30972	-32768	-32768	2492	-5596	-12628	-1228	1321	-393	-6438	-25576	4656	27048	355	8824	-1307	-22480	5216	22264	3641	1512	-263	-5664	8400	32767	2684	954	-534	154	148	2
-32768	13716	-23728	-12168	-32768	-14902	-18876	-7088	-32768	-19484	-32768	-5405	-16588	-14232	32767	-17225	-23347	-8762	-32768	13224	32767	-675	8072	-1485	-18384	16864	22168	750	2840	-668	-7032	22832	28104	953	-1072	-313	175	148	2
-32768	18412	-32768	-10643	-14850	-6768	2024	-9528	-32768	453	-8727	-4685	-5984	-4108	31956	-4172	-4218	-5920	2032	6752	32767	-1667	4890	-1397	-18560	15104	3104	-2508	4523	-770	-3264	6688	10680	-1511	-1547	-165	93	133	2
-32768	19020	-28296	2512	2179	-2308	7348	-1636	-32768	13423	13104	-2271	1100	-312	20624	-5834	-3258	-4298	-11856	11624	32767	275	475	-1454	-26392	-5376	6712	-3024	4642	-139	-5712	-3192	5560	-1981	-1559	-626	111	125	2
-32768	24396	-27136	16264	21295	4512	-4036	-2312	-25216	10628	25986	776	52	-9608	-1248	-11018	17951	-4599	272	15464	30096	813	-356	-1744	-25464	-11456	14056	1152	3293	411	-10624	-6376	9000	-1352	-1868	-797	154	98	2
32767	32767	-32768	-3822	32767	30688	-18228	-25880	-820	2624	32767	-2516	-21872	-15944	32767	595	-31250	7081	-12400	23192	32767	782	-878	-1124	-21312	7912	-1272	3773	2182	129	-17392	3408	5760	1002	-2583	-755	172	111	2
-29936	19172	-1640	15016	19806	9183	-32768	23324	-27296	17481	32767	2687	-32768	10080	-32768	32767	11372	-11835	-10112	32767	32767	-351	-2356	-136	-30456	17504	-3448	2956	1492	-566	-32768	13680	5832	745	-2677	-240	106	132	2
-32768	-16648	16692	11933	32767	25956	30180	-22480	-21888	-5603	32767	-9472	-4244	32767	-15104	1086	-2592	-6988	-5632	27448	25280	-1913	-3815	570	-18168	16480	-3912	-21	977	-705	-32768	5888	4968	-177	-3281	19	90	103	2
-32768	24288	32767	23787	12090	19450	18032	404	-32768	32767	19512	-17143	-496	6056	-32768	-20723	8748	2032	2096	15136	14104	-1348	-4514	1064	-17144	10440	-4256	-2278	-149	-661	-32768	8000	3272	-920	-3237	431	124	146	2
-18392	-9664	12708	3858	1746	3840	-30128	5544	-26640	-15215	26753	-7058	-22120	-27396	-21212	-24688	11134	6664	2480	17712	12616	-339	-4326	1257	-17264	9912	-11904	-2484	-1675	-859	-32768	6664	-312	-602	-2953	519	148	113	2
-9844	-7192	14980	-100	1289	1293	-19748	-4896	-12928	-11859	22566	-12917	-32768	-10588	-12020	-6772	25540	-6131	-4520	16552	14184	-17	-4870	1839	-12152	6336	-14696	-1792	-3349	-724	-32768	3008	-8144	-71	-2936	220	154	104	2
-10124	-7172	12624	744	3049	1969	-15568	-16756	-15744	1209	18917	-6824	-20136	-12296	-14176	-5131	26222	11442	-7168	10136	14536	492	-5246	2237	-10856	2896	-13672	-1027	-4662	-941	-32768	3560	-8952	-55	-2898	233	80	162	2
-10868	-4680	13284	1070	4191	2592	-16264	-3728	-23240	3126	12086	-5334	-21556	-13172	-15724	-10323	23994	5052	-12056	3488	17920	1240	-5845	1896	-8776	3752	-13832	827	-6182	-590	-20024	1440	-15864	-500	-2299	-69	103	145	2
-7912	-3972	15596	-1255	8893	2823	-28040	-5916	-22656	4406	7925	-1860	-32768	-13084	-8976	-8129	31974	8469	-17272	3960	20400	1788	-6613	1162	-9168	3312	-15344	1863	-7090	-75	-11512	4224	-17048	-215	-1609	-96	86	144	2
-2080	-4776	16996	-2142	27615	5365	-32768	6184	-16928	5701	4052	-3066	-32768	-3912	8520	-1671	32767	9280	-19432	7744	22536	1993	-6869	782	-11344	4536	-16032	1439	-7657	469	-7496	-624	-19128	772	-452	-367	108	145	2
-3628	-7204	19832	2774	32767	11884	-32768	15872	-1564	-2518	2199	-4149	-32768	6860	23796	-3576	32767	6746	-23344	12440	28640	2395	-6771	1160	-18672	5552	-19096	499	-8045	641	-2744	-1848	-16696	1316	822	-325	146	131	2
-13352	-2704	16708	4143	32767	19851	-32768	16828	10476	-8248	1056	-3989	-30980	5376	27156	-7219	32767	8801	-32088	19656	27272	2203	-6276	1564	-20504	5712	-19952	334	-8075	683	-3040	-2520	-10384	270	733	428	121	130	2
-23844	3104	18948	1081	32767	17200	-24600	14728	9396	-14909	1539	-1930	-17524	-976	27084	-20106	32767	10281	-32768	8848	26888	2350	-4350	3505	-24216	4728	-32528	-1447	-7830	677	-5008	8288	-8760	-1781	193	1461	51	146	2
-32768	-1804	18052	-7233	32767	6992	-17144	5300	15872	-26917	11757	627	-12156	-14260	30772	-23342	22048	7939	-32768	-9608	17008	1878	-4083	4677	-18336	6328	-32368	-523	-4912	-110	-11184	14952	19968	-364	-1995	1971	118	129	2
-29752	-6600	20012	5283	32767	13158	-20148	-7748	26480	-10782	22726	2499	-10668	-20552	31452	-3821	3968	3908	-32768	-30736	-24624	1073	-3641	1912	-5608	9432	-31200	80	-2561	317	-3936	6176	32767	216	-416	437	140	108	2
-32768	-11756	29608	16777	32767	15523	-14300	-3284	19408	25857	25866	2486	-5656	-14328	26544	7736	-7356	3428	-32768	-23904	-32768	1146	-1364	-348	5632	2248	-32768	-199	-430	713	1368	-7824	22872	408	-314	-186	136	86	2
-23212	252	32767	17473	32767	7749	-21560	7136	4828	32767	32387	-562	-8704	-5556	15564	20365	-22689	2679	-32768	-12328	-22992	250	765	-649	5808	-456	-31560	-168	2251	178	4904	-1512	11144	1827	476	-178	124	105	2
-32768	-180	32767	-3172	15872	10217	-23332	14096	-4048	22060	32767	-5021	-6988	9200	4068	22755	-24801	3319	-32768	11400	-30088	-1540	1998	-263	-536	-352	-17632	-129	2837	165	-3056	13184	-23784	1050	3183	-233	123	85	2
-19412	-6884	32767	-11845	-1288	17535	-25368	14276	8760	-11284	32767	-8357	-6872	18544	2624	13572	-25690	6744	-32768	-32768	-7760	2486	11559	-3045	-1048	816	-17232	-585	2876	149	-24712	31120	32767	-1536	-6660	1218	125	146	2
-21836	-13224	32767	-14650	-13440	20394	-27120	3548	2212	-20942	28728	-8575	-19348	5032	3300	-19029	-26565	2229	29696	-20912	-12408	-1953	2468	-2707	-19048	-17632	1304	-6615	8068	-1796	-22568	-16192	-32768	-5046	1878	853	104	72	2
-15548	-26684	32767	-9917	-25517	16561	-32768	468	-2544	-23657	20396	-1783	-32768	-8456	-1648	-19445	-27220	-6157	-32768	16632	31632	-3860	2395	-3423	28600	24192	-32768	-1382	5128	1212	2448	-32768	-22560	2087	519	881	111	144	2
-13560	-26584	32767	-361	-32768	8186	-23672	-7196	-3924	-7931	7101	3617	-32768	-15000	2936	-6069	-32768	-8390	24	10280	1016	-1183	-381	-1103	3760	-6208	-32768	2114	2470	2108	8344	23040	-32768	5524	1163	-170	123	154	2
-9828	-22204	24348	-2122	-32768	-4743	-21244	-4948	-9296	6298	-10394	4430	-32768	-17976	400	12406	-31510	-10625	-7976	5808	15112	-502	-58	-264	-32768	20544	-14696	4132	3862	156	-32768	32767	-17624	1456	1758	563	102	115	2
-4252	-20556	16108	-1397	-32768	-16844	-18884	-2596	-12356	8236	-21528	8786	-32768	-8532	-7408	14482	-29467	-8241	-8416	5408	13048	-635	-134	-444	-13648	9208	-15624	468	2108	726	-29624	-2312	-11016	-619	2878	604	127	150	2
-6768	-13628	12248	-416	-32768	-28814	-14428	-768	-14492	7034	-32768	12714	-32768	-8272	-13608	13019	-29673	-8022	-9760	5152	12480	-440	128	-351	-9568	9336	-17816	-1396	2503	416	-19064	4632	-14800	540	3521	-373	124	150	2
-12828	-10268	15244	-1377	-32768	-32768	-10068	-2280	-14636	4612	-32768	16038	-28432	-7748	-13780	13971	-29308	-1397	-9920	5248	13264	-238	444	-361	-24560	6608	-20416	-1483	1437	189	-32768	12336	-11776	1312	3306	-551	123	108	2
-23548	-8692	22052	665	-32768	-32768	-8332	-4340	-15256	-2374	-32768	18382	-18148	-1040	-17896	8721	-12668	-2646	-7288	4008	16376	101	1259	-489	-31416	6728	-19248	-323	517	178	-32768	16088	2160	81	3942	-510	115	143	2
-23156	-1464	21632	2622	-32768	-31330	-9868	-7836	-13492	-8807	-32768	17290	-7152	328	-17024	9598	-9405	-2558	-2224	6992	21240	-279	3560	-721	-32768	6800	-5512	297	436	441	-32768	1336	23384	-1047	3851	-289	131	106	2
-28604	-396	22656	-4749	-32768	-18749	-12480	-5216	-18048	-12202	-32768	15104	-3084	-208	-19616	13247	4039	2368	-6328	4944	18288	-407	5993	-1617	-32768	-4184	4240	392	854	480	-32768	-15144	30904	-1538	3613	-918	135	108	2
-32768	-9208	23628	-5401	-32768	-8847	-15352	-4328	-22956	-17623	-32768	12290	-652	5460	-21960	15529	10099	2963	-16984	2576	19744	-512	8168	-2411	-32768	-3864	7288	2118	771	888	-21960	-9056	32616	899	3153	-499	122	111	2
-32768	-8260	20140	-7165	-32768	-8603	-22132	-3728	-27916	-18332	-32768	9868	-2980	4588	-13516	15489	8280	1277	-22408	1728	24688	-285	8757	-1982	-29176	2520	16080	4044	896	691	-12736	4664	32767	2500	2865	-598	130	152	2
-32768	1048	15592	-18769	-32768	-11868	-29824	1404	-32768	-31081	-32768	5623	-7736	6632	5052	6306	464	-603	-24760	8096	25464	67	8729	-1735	-22112	8328	22896	3249	1405	-97	-9048	2928	32568	1894	1471	-61	125	127	2
-32768	10892	-7528	-26222	-32768	-12028	-15972	-9732	-30420	-32768	-32768	-5298	-7788	-252	22016	-9395	-8416	-2739	-31408	6856	25440	-331	8248	-1900	-13544	9256	25088	1193	2542	-433	-4936	11416	30640	852	-208	-181	148	139	2
-32768	11796	-14136	-25082	-32768	-11258	-4332	-7848	-28752	-21357	-14233	-5436	-9716	-5248	30340	-24373	-9137	-4025	-32768	9848	32767	-512	7167	-1790	-18216	10704	12624	-624	3609	-312	1328	6688	25824	159	-742	-382	138	128	2
-32768	13984	-28216	-3415	-6265	7690	956	-9848	-32744	-2583	3276	-4736	-5528	-2672	19396	-23981	-10191	-6255	-32768	-2912	32767	-543	3718	-1259	-20976	6400	2704	-1650	4446	-219	-6536	-1024	11296	-816	-1506	-243	125	85	2
-32768	13776	-26512	-2143	-4378	7731	5380	-928	-29460	9402	16851	-892	8896	-11376	-4328	-14416	17024	-8397	-13648	17744	32767	-330	164	-1493	-27912	-472	11512	-82	4200	562	-12408	-7560	9920	-1169	-1959	-693	126	113	2
-32768	240	-32768	11581	23418	-1423	72	-3232	-27520	16411	21100	242	4744	-12436	-15572	-10393	23550	2600	-13848	9352	31144	369	-337	-1417	-27416	-1408	8264	1884	3336	1024	-13760	-2896	6312	-213	-2307	-724	121	98	2
-32768	-32768	32767	15288	32767	24711	-32768	-256	-32768	32767	32767	-17597	-32768	-32768	8192	-2371	-24566	-15256	-18544	23880	32767	1386	-1123	-695	-29448	12928	-3480	3109	2503	182	-32200	14280	7272	1972	-3083	-363	81	129	2
32767	12488	-29768	6061	32767	15187	26292	18744	32767	32767	32767	2587	-23460	26756	-32768	13362	17280	-1625	-9984	32767	32767	-236	-3469	404	-23976	11120	-5112	1544	1657	-459	-32768	14776	6080	1732	-2937	-264	119	114	2
-32768	-20516	32767	24711	5028	12522	32767	10688	27436	24623	32767	-6687	25788	32767	-11184	-5109	632	-1713	1272	19240	28104	-1354	-4922	942	-20888	10568	-2976	-589	466	-50	-32768	5696	5256	-219	-3321	92	135	83	2
-17444	-18408	6748	3936	-2877	4468	-8336	3148	-32768	7572	27032	-13595	22024	-16500	-32048	-14704	4966	6745	7768	9528	16288	102	-5485	1514	-17960	4592	-4624	-1314	-1250	-273	-32768	9432	-728	-669	-3614	396	137	135	2
-8096	6168	14128	5483	1276	4926	-32768	1708	-17960	-18684	26415	-13117	-32768	-31160	-17492	-16394	18457	-6618	5376	13048	13056	971	-5403	1641	-15632	7616	-11656	-928	-3177	-619	-32768	5864	-7800	-463	-3344	278	119	149	2
-9304	464	15376	3393	929	1975	-15752	-15012	-20680	2234	22553	-4668	-32768	-20616	-21984	-7031	21616	-11710	-2920	7824	15720	817	-5619	1517	-10816	4416	-13096	-1071	-4902	-331	-32768	1280	-12504	-271	-3235	-34	180	148	2
-10768	-3060	13380	1385	2209	2911	-15024	-6456	-26896	18093	12504	-9521	-10824	-12092	-16872	-14218	26320	5167	-12088	1992	19888	1790	-6236	1452	-8528	24	-12944	-647	-6096	-621	-25664	-1192	-16736	-360	-2457	209	118	152	2
-10264	-5040	14588	-515	4213	2228	-19948	-3608	-21076	2789	8094	-2234	-31252	-18588	-15176	-15247	29937	5108	-16360	8016	18832	2065	-6600	1351	-12032	928	-16432	1190	-7175	-294	-13496	-32	-19208	970	-1713	400	108	154	2
-5632	-6036	17584	-1558	16028	4093	-32768	416	-17152	1938	5215	-2926	-32768	-17084	3388	-3246	32767	11306	-16784	8480	18880	2034	-6578	1350	-16136	4672	-20424	1192	-7803	218	-4992	5968	-18680	1187	-885	233	85	142	2
-2164	-6624	21928	9292	32767	10631	-32768	12836	-3264	8231	2586	-3319	-32768	3516	25096	7634	32767	7344	-32768	12312	32767	2875	-6536	2260	-17384	5720	-25648	-69	-8180	424	-2272	880	-14320	413	308	-225	118	132	2
-7344	-1284	19164	12411	32767	21437	-32768	22656	8152	-5137	1455	-6318	-32768	16288	31896	-7598	32598	7057	-32768	14864	28008	2435	-6720	2759	-25768	3400	-26016	-333	-8225	826	-5992	-6608	-11600	-900	725	-212	110	137	2
-21716	1216	19660	11265	32767	23245	-30352	14612	13484	-19392	2693	-5295	-23108	6476	30988	-30096	32767	7917	-32768	1528	20256	2331	-4978	4088	-22072	7128	-29040	-1209	-7193	549	-6472	2928	-5464	-2315	-71	942	162	128	2
-32768	2776	21408	-1166	32767	12891	-18520	7228	9444	-26815	10493	-3931	-12260	-6924	26812	-32768	21967	6859	-32768	-10048	13344	2061	-4211	4364	-19064	4936	-30752	-839	-4861	127	-11640	8960	11456	-934	-1620	1457	111	115	2
-24356	-3356	23136	-4278	32767	9912	-16684	1744	24648	-25202	22474	289	-6192	-28188	23720	-18052	11869	7001	-32768	-21936	-12816	1839	-3457	2425	-10016	3832	-29840	276	-3238	523	-3520	-8	32767	46	-585	135	121	77	2
-32768	-6636	30720	6367	32767	12411	-14368	-5900	18580	2655	24580	-699	-6560	-21824	21048	4908	-4166	5286	-32768	-19696	-26048	1288	-1794	548	2560	5224	-29680	645	-1392	651	800	-6480	19272	688	-350	-401	156	126	2
-29056	-5556	32767	18806	32767	10532	-18460	184	5748	28139	29643	308	-5744	-8788	16468	20528	-16556	2667	-32768	-14800	-20472	220	48	-29	6296	528	-27864	-272	877	309	4392	3752	13808	1636	411	104	115	96	2
-32768	11292	32767	14944	22926	6148	-18128	8168	-2248	31112	32669	-1377	-6528	3816	8568	25318	-23745	3626	-32472	-5808	-9592	-749	1169	138	-608	-72	-22744	-1066	2260	-34	-3120	12480	-15832	1014	2311	274	118	87	2
-13256	-688	32767	-2896	2947	7503	-23316	14548	12612	3003	32767	-4339	-3136	14356	6796	18690	-24484	6010	-29720	-4976	-8232	-826	1309	259	120	-3744	-14688	-1924	2221	-414	2632	12352	-30728	-292	2231	301	129	121	2
-17712	-7208	32767	-11060	-5245	12123	-21556	8820	7504	-11598	30871	-7794	-9108	14260	5796	3480	-24291	3847	-17384	-32768	-32768	1412	11412	-4082	-19320	32767	-32768	999	4705	529	-32768	5016	32767	-3909	-9402	2146	137	101	2
-14496	-15560	32767	-12364	-13670	14325	-22724	1104	1620	-17975	24772	-5998	-22364	-960	2936	-19399	-27227	1020	31216	-31800	-15288	-2196	2184	-2589	-26496	-32768	-9216	-9313	8654	-1663	-31992	-24008	-32768	-3012	3337	1075	103	162	2
-11188	-24424	32767	-6281	-22376	11677	-31312	-3052	-4128	-20009	15324	-1709	-32768	-13764	-280	-13757	-27386	-4747	-32768	32767	15168	-2879	2416	-3157	19992	13776	-29440	3524	4218	2393	22352	-31248	-17736	2859	-974	169	107	72	2
-11512	-20524	29664	-83	-32768	2012	-30372	-3136	-3864	-17200	13252	-1054	-32768	-12440	740	2266	-30408	-7073	-25152	-4560	4704	-1267	-346	-1488	13696	13016	-32768	4663	1457	2849	13728	31984	-32768	5121	462	-465	131	162	2
-5244	-16728	19588	-2702	-32768	-7709	-17440	-3308	-8812	3378	-12719	3355	-32768	-13892	1084	5099	-29701	-8222	-9304	3352	13760	-478	154	-253	-32768	21720	-13096	2577	4619	-256	-32768	32767	-20464	867	1680	783	100	143	2
-5560	-17316	16708	-4175	-32768	-15969	-16300	-4872	-13108	1814	-23861	6570	-32768	-5608	-6452	12339	-28870	-8060	-9072	2152	14472	-518	198	-409	-15744	11528	-18608	-2497	2634	619	-31984	-9936	-8872	-1283	2694	592	143	123	2
-14160	-14376	17072	-5069	-32768	-27787	-12808	-2904	-16884	5031	-32768	8992	-32768	-5000	-11700	8569	-25626	-6186	-10552	4144	12760	-371	322	-364	-10352	-2384	-24168	-2086	3196	640	-18608	4072	-10672	650	3436	-30	138	171	2
-15696	-10440	13920	-5692	-32768	-32768	-10964	-2748	-14268	4699	-32768	11999	-29472	-9884	-14976	4793	-22762	-6327	-8808	6464	13544	-79	660	-246	-25400	6152	-19832	-195	1823	157	-32768	13704	-12312	2031	3407	-475	109	114	2
-19532	-3912	16512	-6449	-32768	-32768	-11736	-1540	-15416	851	-32768	14621	-32768	-1296	-9564	4540	-21077	-8548	-8800	6456	13816	-44	722	-276	-32768	12288	-16936	574	420	569	-32768	21920	3128	293	3840	-816	137	150	2
-24452	1108	24056	-8041	-32768	-32768	-12948	-5544	-16476	-8213	-32768	14310	-9948	-216	-13384	2953	-11518	-5447	-3640	8088	21640	-159	4061	-755	-32768	6992	-7448	-179	632	139	-32768	7016	21200	-1775	3953	-260	123	115	2
-28504	1896	30800	-9333	-32768	-18920	-14244	-4452	-20808	-13465	-32768	12265	-4040	1704	-16084	10632	7868	-522	-6128	5408	17792	-325	6352	-1726	-32768	-5616	2392	343	764	230	-32768	-11536	28832	-2515	3744	-610	125	118	2
-32768	560	32767	-14570	-32768	-4574	-17300	2368	-23528	-26978	-32768	8355	1344	5620	-17152	10108	20643	1126	-19896	4200	21736	-566	8737	-2426	-32768	-6920	6456	2161	661	668	-21792	-17120	32767	453	3051	-673	122	146	2
-32768	-688	32767	-16101	-32768	-3172	-24612	1248	-27032	-32768	-32768	776	-1288	12348	-14040	7131	15851	1171	-23288	6008	22656	207	8982	-1782	-27304	-1192	16816	3862	584	500	-12512	-3024	31080	2405	2464	-683	123	171	2
-32768	-3612	2200	-28268	-32768	-8957	-30004	-4780	-24932	-32768	-32768	-5225	-7604	-924	1916	-37	4252	-535	-27320	7984	23488	391	8754	-1600	-21072	9960	21672	3350	1108	-207	-7016	8784	29392	2157	988	-184	146	132	2
-32768	5812	-17548	-22644	-32768	-13871	-17200	-1528	-32768	-10054	-32768	-9061	-14952	-9512	32767	-13314	-18802	-1778	-32768	10936	28144	279	8023	-1396	-12448	13544	16968	387	2298	-540	-2080	12608	26168	747	-514	-106	169	128	2
-32768	11472	-26588	-8128	-9282	-22810	-80	-2980	-32768	-2517	-9369	-3655	-9608	-6692	32612	-12317	-10120	-4016	-32768	15088	32767	-602	5392	-1291	-17152	10024	7432	-1962	4038	-622	-1320	5832	20736	-788	-1327	-49	130	137	2
-32768	22028	-28072	7530	5619	-15433	6076	-8900	-30948	14357	10935	-960	-2176	-3440	15796	-7901	-4254	-8962	-32768	21520	32767	-318	558	-727	-23304	-336	4472	-2029	4186	234	-3232	-2064	9352	-1348	-1254	-552	127	106	2
-32768	17996	-5728	1460	12242	-10490	2792	-1328	-32072	21722	19088	1210	8260	-11212	-8620	2537	23810	-8794	-10064	9408	32767	-34	-614	-1102	-28072	-5200	18168	722	3590	583	-13616	-4416	10848	-1189	-1852	-543	129	88	2
-32768	22860	-18432	9510	19027	-4601	1108	580	-14444	12321	22412	629	7540	-12820	-13340	1430	25747	-6935	-4608	17456	32767	612	-1009	-1079	-22736	192	7376	2017	2654	231	-10600	-6688	9720	-406	-2538	-571	126	95	2
-32768	-26104	32767	-4387	32767	27504	-32768	-2280	-30448	32767	32767	-16447	-24588	-26544	32767	3956	-32768	-3343	-12968	23600	32767	639	-2021	-627	-30832	16736	936	2764	1753	10	-32328	17904	9120	1977	-2979	-300	87	143	2
32767	25696	-7456	8209	32767	6985	25756	-1644	32767	16020	32767	14917	-20776	26932	-32768	32767	19777	-16736	-2952	32767	30536	-1189	-3580	110	-21480	9936	-1456	814	962	-589	-32768	5432	1792	188	-2877	-154	132	110	2
-32768	-19932	32767	14202	32767	32273	-6008	-14308	-28228	32767	32767	-10198	13424	32767	-4672	-3409	350	2159	-3640	17080	25184	-1708	-4708	376	-18960	11056	-3696	-1173	-57	-279	-32768	856	4240	-487	-3292	-24	108	93	2
-32768	-3240	32767	24457	15581	18093	8560	2396	-32768	32640	20710	-16368	18092	-13596	-29132	-23027	2965	10254	1888	11688	13544	357	-5314	968	-19400	2504	-8440	-1423	-1530	-382	-32768	6608	248	-803	-3552	128	115	117	2
-26900	-13628	14856	5700	1340	5624	-32768	5608	-23548	-13868	24500	-9973	-32768	-32768	-18172	-20992	20427	-1429	-4816	17776	12896	1055	-5238	1236	-16216	6912	-15304	-318	-3450	-187	-32768	3760	-5168	-582	-3355	-275	147	170	2
-10568	-2840	13696	3705	-843	3790	-11688	-10192	-16772	-4327	22995	-8648	-24836	-6576	-11700	1542	24079	-3282	-6672	9592	14872	1305	-5436	1820	-13136	3544	-16168	-468	-4688	-175	-32768	-2384	-11616	209	-3156	-200	131	147	2
-10432	-4792	13716	3134	475	3334	-15884	-8944	-20784	12986	13528	-6741	-17488	-4740	-13848	-3708	25623	8037	-14376	3288	18848	2062	-5297	1992	-13320	-1456	-24496	603	-5330	-89	-29616	1336	-13176	358	-2764	-268	132	146	2
-9520	-3388	14172	1172	3241	2759	-21300	-2972	-23576	9252	6839	-2933	-29988	-9516	-13492	-12066	27057	3033	-16808	1792	20496	2273	-5456	1604	-12024	1296	-19912	1583	-7043	232	-18408	4984	-15960	701	-2272	-141	68	153	2
-6148	-1500	17072	-2471	10378	3131	-32768	508	-17784	1216	4630	-2151	-32768	-15964	-3288	-6971	32767	8038	-27296	3904	28432	2329	-5810	1443	-10704	4744	-22392	864	-7146	453	-7104	6592	-16768	1170	-1343	112	95	160	2
-732	-8388	18896	1193	31247	6974	-32768	6252	-8740	2520	3298	-3017	-32768	-520	17504	2213	32767	7973	-31288	5816	29176	2023	-6548	1578	-12640	1576	-21808	273	-7501	580	-1640	4744	-14840	620	44	-197	109	148	2
-3328	-5456	18740	6906	32767	16170	-32768	17320	3896	-2991	2037	-6056	-32768	9864	29904	-4243	32538	7036	-32768	6360	24592	1910	-6508	2152	-19584	968	-24712	211	-7436	592	2264	1712	-15320	-756	849	84	120	143	2
-11360	-2784	14812	8895	32767	23164	-32768	16344	14284	-12310	2248	-5306	-27096	7136	32767	-20481	32767	6537	-32768	3368	21600	1716	-5694	3206	-19760	4136	-26368	-533	-6892	354	-2512	1280	-10360	-1747	524	563	133	102	2
-28960	1408	20584	1220	32767	18710	-22404	10956	9564	-19717	4685	-3496	-12980	2308	27948	-29055	27844	7454	-32768	-6056	11408	1603	-4695	3855	-21840	3480	-28544	-629	-5429	70	-10760	5432	9776	-569	-1454	822	107	155	2
-29952	-2412	21120	-4432	32767	13253	-12796	1224	19788	-31062	17296	-2757	-10340	-20764	23748	-28574	16121	7192	-32768	-17616	-12056	1033	-3226	2870	-11224	5064	-30912	-543	-3320	46	-10744	2504	32767	436	-647	294	115	99	2
-26900	-5768	19972	7255	32767	16745	-16832	-5484	23068	-8337	23225	2	-6784	-25024	23560	-8427	3870	3689	-32768	-23544	-22736	689	-1469	715	-8	5976	-30624	-226	-1216	88	-10160	4184	21992	-2	-162	-260	144	105	2
-30476	-4408	22912	14073	32767	16560	-15288	-1032	13996	15771	24575	-143	-4616	-17792	17580	11986	-12914	2915	-32768	-15400	-17968	-66	-136	-585	3112	3000	-30120	-48	805	179	10880	680	18064	238	459	-752	136	90	2
-29008	688	31312	11664	32767	11579	-19768	4180	13172	20577	30605	576	-5372	-8748	13068	20497	-23446	-180	-32768	-4984	-11248	-608	717	-766	2696	3080	-29032	4	1077	137	3216	9312	-7192	1158	2410	-305	142	107	2
-32768	3904	32767	-5379	18885	18331	-17888	3244	-4516	19072	32767	-3663	-2564	5796	7744	24968	-21493	1489	-32504	24	-27912	-1792	1662	-177	2032	3816	-9952	-732	2436	-526	-1368	10592	-25440	-1941	3054	906	142	149	2
-29644	-9188	32767	-6838	-5533	22870	-23860	9232	6128	-5085	32767	-5286	-7484	9936	8624	15730	-23956	3010	-32768	29184	32767	-245	12695	-3712	-30544	32767	-32768	21	4464	417	-32768	-712	32767	-1412	-7880	1896	125	140	2
-22112	-10996	32767	-4586	-11003	23037	-30268	3652	3244	-9674	31335	-6101	-20036	760	2600	-5436	-24540	-769	29768	-27592	-12808	-2519	3231	-1663	-21064	-32768	4344	-8001	7832	-1673	-29376	-15152	-32768	-2676	2443	1134	136	138	2
-15360	-23064	32767	-3021	-16528	15950	-31248	3400	-3296	-5572	22616	582	-32768	-5308	2676	-7571	-26826	-7631	-32768	32767	32767	-3579	2749	-3533	15208	9240	-32768	710	4470	1648	8688	-23512	-8760	2191	-450	882	100	117	2
-11216	-23112	32767	3150	-25035	3955	-24212	3884	-5236	-2874	10722	3712	-32768	-4392	2508	465	-31802	-7473	-32768	600	19704	-1573	49	-1513	12952	15328	-32768	3745	2102	2016	12520	25792	-27376	3760	408	-31	90	75	2
-5856	-18048	28788	-243	-31245	-7911	-21260	336	-9524	-5035	-2799	5018	-32768	-10120	2136	9702	-32249	-9461	-9440	8808	13704	-656	45	-452	-32704	5776	-16760	2060	3846	183	-32768	31048	-16416	726	1491	61	135	85	2
-10700	-13256	27280	-7763	-32768	-17338	-15436	-2884	-13708	-6244	-14207	4534	-32768	-2996	-2172	8142	-32241	-4794	-11072	5488	12896	-669	12	-525	-15128	7000	-15096	-886	2803	575	-32768	-10120	-11824	-654	2475	848	123	137	2
-10200	-11148	20644	-13494	-32768	-23729	-11308	-4884	-13408	-7201	-28608	4274	-32768	-1052	-7608	6294	-30592	-3823	-10232	4064	13048	-421	158	-309	-7608	6536	-18328	-797	2756	732	-18592	504	-10216	927	3009	-516	143	137	2
-15284	-9940	16724	-15340	-32768	-29333	-10432	-6556	-14592	1167	-32768	4895	-32768	-1484	-13420	-1019	-27200	-4776	-9608	3080	13752	-216	336	-293	-21704	6968	-21808	-893	1917	469	-25208	15272	-9768	1882	2889	-98	110	103	2
-20116	-8248	11820	-15219	-32768	-32768	-9940	-2076	-13392	10566	-32768	6381	-18348	-8280	-11056	-166	-6080	-6564	-7176	3904	15144	76	968	-322	-27744	11000	-20744	-451	986	267	-32768	21976	-4736	863	3529	-497	125	141	2
-16672	-628	13212	-17848	-32768	-32768	-11508	480	-15220	5742	-32768	11710	-9432	-4000	-15928	9825	-13428	-2264	-3536	8600	19776	-54	2655	-386	-32768	10840	-15064	-731	759	59	-32768	12224	12784	-1048	3920	-346	127	133	2
-24520	1368	25968	-18948	-32768	-32768	-12504	2104	-18092	-10506	-32768	12392	-7284	2476	-16264	4491	-3694	-1408	-5464	5664	21224	-716	5015	-1043	-32768	-160	-3800	-560	898	320	-32768	-4672	28416	-1987	3832	-319	133	121	2
-32768	-520	32767	-14406	-32768	-21785	-14648	-1704	-20856	-30039	-32768	7032	-500	4364	-15220	9424	6508	2444	-12872	1536	16848	-1185	7466	-2102	-32768	-5608	3584	637	964	583	-31016	-17456	32544	-667	3288	-601	131	88	2
-32768	1688	32148	-15025	-32768	-10433	-18892	-2300	-24172	-32768	-32768	431	500	5712	-16320	9457	13745	2734	-21896	8600	29408	-701	8721	-2169	-32768	-8712	10736	2551	879	823	-16600	-10584	30056	1165	2787	-477	136	149	2
-32768	-884	20032	-18792	-32768	-11968	-19872	-2424	-24892	-32768	-32768	-301	-1828	-968	-8920	-9540	12444	-1481	-15688	-3144	19232	-562	8621	-2067	-27608	1272	18592	3906	767	467	-9216	5728	28832	2335	1831	-650	130	156	2
-32768	900	2120	-16685	-32768	-14435	-26868	-300	-28708	-15841	-32768	1526	-6876	-16172	8940	-21346	-298	-4344	-31600	8024	25208	-285	8992	-1634	-19000	6480	25112	2599	1391	-146	-5408	7864	32767	967	132	-561	149	125	2
-32768	12620	-22688	-13568	-30866	-13556	-7648	-1160	-31972	-10697	-27620	-3156	-13032	-10060	32767	-5570	-10583	-6344	-32768	5800	32767	-549	7274	-1573	-9104	13336	8064	91	3015	-413	1680	4384	28032	-405	-904	33	121	120	2
-32768	13944	-31512	-8300	-9981	-12751	764	-6596	-32768	-2385	-6272	-4966	-5236	-9900	24700	6078	-3431	-4030	-32768	312	32767	-1431	2927	-620	-20424	12656	4912	-1578	4220	176	-488	2008	17304	-763	-1531	-408	135	134	2
-32768	13620	-22424	3469	5732	-12175	5316	-5688	-31108	14899	12202	-299	-2456	260	17552	3208	-1182	-2023	-32768	14048	32767	-958	2220	-183	-32768	88	22200	-461	4020	781	-8760	-4264	8368	-1131	-1938	-720	110	114	2
-32768	15000	-6840	6419	11992	-10835	-756	-988	-26088	19915	19985	1884	3720	-5880	-4092	-868	23808	-2818	-11904	9552	32767	1078	630	-1851	-24656	-5216	5800	970	3434	656	-12696	-11464	8544	-578	-2487	-961	112	124	2
32767	32767	-32768	5427	32767	28962	-26280	-25992	11684	-4470	32107	-422	-30788	-18208	32767	5329	-32768	3752	-14520	22216	32767	1849	-813	-1176	-24512	3792	-1376	3262	2384	532	-22016	3336	4904	1988	-3021	-974	150	113	2
-32768	24240	12012	18561	21672	10465	-15528	5000	-32768	19936	32767	5059	-32768	15656	-19840	32767	9308	-15632	-5144	32472	32767	154	-2054	-715	-32192	17304	-2904	3789	1302	371	-32768	17344	6936	1825	-2887	-507	149	134	2
-14540	-13580	9172	6815	32767	25052	32767	-13788	-15924	140	32767	-8834	-8064	32767	-27540	9399	3050	-2278	-5224	18624	29272	-1657	-3297	-689	-19224	14432	-4688	524	366	-117	-32768	9496	4144	777	-3275	-215	195	92	2
-10268	11956	7760	28431	19289	27028	18464	-15584	-19360	9708	32767	-9842	15876	9628	-31780	-17260	7364	-1780	-3944	10032	23976	-487	-4478	-299	-16784	7736	-8008	-1477	-549	-187	-32768	10176	424	-662	-3485	317	92	127	2
-7784	-13688	13904	8637	-1091	6216	-25992	16340	-27388	-427	21498	-9645	-14900	-31292	-20736	-24827	5765	6238	-4752	16792	18720	412	-5373	236	-14456	9456	-14088	-1055	-2103	-581	-32768	10024	-3488	-397	-3561	304	112	166	2
-12584	-5432	14216	2834	-1152	3113	-22640	-5672	-15724	-10035	23743	-9074	-32768	-5928	-13644	-3537	25163	-13901	-5552	15064	13752	654	-6066	1249	-11768	4296	-16072	-1515	-3947	-729	-32768	1728	-13480	-529	-3309	294	162	177	2
-10064	-6764	13420	1543	937	2046	-16872	-9556	-11800	2987	15726	-8123	-21816	-3056	-11044	-3682	27448	9013	-9136	8928	10648	1865	-6029	2509	-10320	-1728	-14568	-936	-5222	-665	-30184	-3840	-12656	-714	-3407	349	154	172	2
-10248	-4144	13664	1467	3056	2662	-16796	-5448	-20160	7560	9543	-6969	-18764	-11016	-15184	-17002	24084	3128	-12960	9416	10960	2662	-5682	3650	-7560	1976	-14032	192	-6252	-601	-15560	-2328	-15320	30	-2345	515	125	119	2
-9076	-5376	15240	323	7490	3007	-28464	-2364	-18964	3064	6528	-1946	-32768	-21788	-10524	-16787	29833	7859	-14544	5136	14736	2267	-5151	3665	-8024	7944	-15912	114	-7003	-198	-8640	1656	-15688	-30	-1702	280	107	160	2
-2560	-6796	17556	-1495	25598	4782	-32768	4340	-11156	2214	4663	-1540	-32768	-12988	13096	-981	32767	8633	-26656	1712	28920	2558	-5162	2889	-10480	5792	-20616	-980	-7606	70	-2592	4976	-17064	-311	42	-365	123	149	2
-1724	-5076	20480	7406	32767	13380	-32768	18148	2248	-422	2786	-4930	-32768	9100	28636	1999	31611	8819	-32768	9888	32767	2856	-6929	2364	-11000	2160	-22976	119	-7936	388	1072	-6648	-16184	-349	1264	-527	112	121	2
-9636	332	15464	6745	32767	20550	-32768	21176	11364	-10904	2714	-6586	-31832	13700	31100	-9596	32767	7827	-32768	8448	23528	2393	-6899	2922	-19712	4696	-23808	188	-7943	910	-1104	-6216	-16176	-507	1308	29	119	101	2
-26296	4288	19688	-693	32767	15945	-23956	15696	8292	-18016	2404	-4100	-15324	7756	24952	-20132	32767	8389	-32768	7336	22544	2370	-6727	3142	-28144	2816	-28864	186	-6691	483	-6712	9168	-2752	-688	89	1204	112	77	2
