#Activity	sitting 
#ActivityID	5 
#Date 08-20-11-35
acc_rf_x	acc_rf_y	acc_rf_z	gyro_rf_x	gyro_rf_y	gyro_rf_z	acc_rs_x	acc_rs_y	acc_rs_z	gyro_rs_x	gyro_rs_y	gyro_rs_z	acc_rt_x	acc_rt_y	acc_rt_z	gyro_rt_x	gyro_rt_y	gyro_rt_z	acc_lf_x	acc_lf_y	acc_lf_z	gyro_lf_x	gyro_lf_y	gyro_lf_z	acc_ls_x	acc_ls_y	acc_ls_z	gyro_ls_x	gyro_ls_y	gyro_ls_z	acc_lt_x	acc_lt_y	acc_lt_z	gyro_lt_x	gyro_lt_y	gyro_lt_z	EMG_r	EMG_l	act
-8104	-4484	13120	-92	109	-169	-16372	-1164	-2148	63	41	155	-3260	1804	16872	148	0	45	-7616	5612	13892	122	6	-168	-15400	5140	-2228	-2	-5	-36	-1812	-2652	16692	18	-65	144	126	124	5
-8068	-4412	13128	-95	144	-158	-16392	-1208	-2284	54	-5	150	-3228	1764	16660	141	2	20	-7604	5600	13904	123	14	-165	-15340	5152	-2244	-1	-2	-27	-1872	-2648	16632	34	-88	171	126	125	5
-8048	-4468	13148	-119	130	-201	-16424	-1152	-2228	74	-63	140	-3260	1780	16688	142	-14	66	-7592	5612	13936	119	17	-184	-15392	5096	-2180	-5	25	-33	-1904	-2656	16692	9	-122	187	126	125	5
-8080	-4444	13264	-77	138	-184	-16364	-1220	-2308	91	-30	130	-3368	1752	16720	189	-23	43	-7600	5564	13812	133	-24	-191	-15392	5176	-2232	23	19	-34	-1884	-2616	16696	0	-72	181	126	125	5
-8060	-4408	13172	-124	163	-192	-16392	-1284	-2248	118	-7	120	-3280	1744	16716	190	-42	74	-7616	5612	13892	129	-32	-191	-15368	5200	-2204	48	35	-28	-1884	-2544	16708	32	-108	149	126	125	5
-8116	-4516	13152	-121	132	-148	-16392	-1228	-2272	57	-51	109	-3324	1732	16668	160	11	84	-7660	5724	13784	140	-35	-188	-15324	5188	-2208	5	7	-65	-1996	-2564	16660	11	-84	206	126	125	5
-8060	-4372	13140	-140	135	-188	-16384	-1148	-2084	74	-25	125	-3344	1656	16696	179	23	65	-7604	5636	13864	103	-14	-152	-15356	5176	-2232	-10	46	-50	-1912	-2552	16736	0	-79	201	126	125	5
-8108	-4480	13192	-90	136	-136	-16364	-1244	-2224	73	-26	99	-3316	1672	16736	184	-29	46	-7648	5560	13924	157	-11	-159	-15376	5160	-2128	-18	-11	-44	-1928	-2628	16800	36	-112	229	126	125	5
-8080	-4500	13140	-131	125	-179	-16340	-1244	-2248	65	-30	137	-3324	1660	16732	163	21	78	-7588	5600	13948	141	23	-155	-15384	5160	-2196	50	9	-52	-1936	-2652	16668	57	-111	186	126	125	5
-8120	-4444	13164	-90	142	-179	-16364	-1204	-2252	116	-34	110	-3348	1684	16636	167	14	30	-7576	5584	13764	132	-33	-142	-15396	5180	-2268	46	-22	-33	-1864	-2636	16724	29	-125	176	126	125	5
-8100	-4412	13220	-59	132	-178	-16396	-1204	-2152	60	-38	154	-3240	1656	16648	199	23	60	-7572	5548	13828	118	2	-168	-15472	5076	-2220	6	-13	-51	-1852	-2648	16728	26	-99	162	126	125	5
-8088	-4468	13180	-72	114	-167	-16428	-1172	-2248	99	3	123	-3276	1720	16716	163	57	19	-7596	5608	13824	113	-20	-142	-15332	5136	-2192	-9	-28	-48	-1904	-2648	16720	25	-86	163	126	125	5
-8092	-4452	13080	-88	146	-228	-16368	-1192	-2188	66	-29	137	-3256	1684	16732	214	19	59	-7568	5604	13904	135	2	-139	-15384	5172	-2308	5	-47	-8	-1888	-2616	16736	48	-86	185	126	125	5
-8012	-4524	13096	-75	116	-169	-16412	-1180	-2184	95	-12	160	-3228	1720	16720	178	0	17	-7592	5668	13804	159	-55	-149	-15372	5176	-2192	47	-33	-22	-1832	-2660	16724	20	-100	147	126	125	5
-8024	-4504	13176	-61	110	-174	-16380	-1204	-2324	89	-6	110	-3300	1704	16688	171	-11	30	-7544	5688	13840	134	-26	-145	-15348	5156	-2196	37	-25	2	-1868	-2644	16732	24	-113	143	126	125	5
-8120	-4472	13096	-68	121	-180	-16376	-1152	-2308	64	-23	138	-3204	1720	16612	173	-3	31	-7524	5588	13748	145	-16	-171	-15336	5172	-2192	29	12	-7	-1840	-2624	16596	-72	-135	173	125	125	5
-8072	-4476	13180	-85	83	-208	-16428	-1176	-2344	72	-5	139	-3240	1760	16716	200	-17	27	-7572	5624	13760	147	-54	-147	-15404	5220	-2232	-31	-7	17	-1880	-2536	16728	-52	-96	141	125	125	5
-8060	-4476	13104	-99	100	-218	-16352	-1200	-2296	66	-28	131	-3272	1748	16784	228	14	70	-7536	5692	13800	138	34	-199	-15356	5224	-2172	-39	19	-12	-1908	-2548	16660	-27	-106	174	125	125	5
-8108	-4472	13056	-88	101	-161	-16380	-1148	-2328	85	12	120	-3292	1764	16672	222	-9	82	-7560	5592	13936	128	-61	-152	-15400	5172	-2328	-21	39	-37	-1876	-2528	16800	21	-89	162	125	125	5
-8108	-4460	13248	-84	142	-203	-16388	-1204	-2268	91	-21	118	-3288	1692	16728	194	18	31	-7592	5644	13912	152	-17	-157	-15416	5112	-2184	-15	12	-51	-1900	-2572	16632	28	-113	187	125	125	5
-8112	-4500	13148	-79	124	-198	-16312	-1196	-2112	67	-12	148	-3316	1764	16696	189	-20	59	-7584	5644	13912	153	-36	-141	-15356	5240	-2200	35	-20	-25	-1948	-2540	16672	-1	-93	170	125	126	5
-8092	-4488	13180	-79	109	-191	-16388	-1156	-2224	88	-65	113	-3320	1720	16740	166	32	37	-7604	5600	13864	171	-37	-190	-15432	5120	-2316	32	-1	-71	-1956	-2556	16708	1	-118	161	125	126	5
-8096	-4404	13224	-116	138	-190	-16348	-1140	-2344	49	16	144	-3340	1696	16672	153	-20	21	-7632	5652	13948	163	-29	-150	-15360	5204	-2292	-4	-9	-68	-1848	-2644	16636	-17	-106	185	124	126	5
-8016	-4456	13128	-64	115	-187	-16412	-1164	-2268	55	-2	153	-3312	1804	16708	174	2	32	-7560	5644	13788	103	-20	-155	-15324	5148	-2160	25	-32	-25	-1852	-2620	16728	25	-55	161	124	126	5
-8048	-4520	13564	68	185	-257	-16376	-1228	-2288	66	-45	141	-3304	1808	16608	173	-35	45	-7604	5604	13892	139	-33	-133	-15404	5148	-2280	-19	18	-39	-1916	-2672	16680	20	-103	155	124	125	5
-8296	-4644	13156	-115	151	-164	-16388	-1032	-2272	81	-57	90	-3288	1740	16728	181	-26	70	-7604	5560	13864	130	9	-169	-15380	5144	-2232	-20	-44	-9	-1868	-2636	16672	37	-81	159	124	125	5
-7992	-4380	13104	-87	114	-194	-16372	-1236	-2328	69	-66	182	-3356	1876	16708	117	-8	71	-7592	5640	13960	162	5	-165	-15340	5132	-2264	-9	-16	-37	-1816	-2624	16680	21	-105	158	124	125	5
-8112	-4528	13132	-137	100	-164	-16432	-1140	-2248	70	-57	101	-3248	1756	16740	131	-12	58	-7572	5592	13828	116	-11	-168	-15444	5108	-2152	17	17	-31	-1900	-2604	16676	-8	-100	184	123	126	5
-8040	-4460	13252	-118	154	-186	-16356	-1260	-2208	37	-15	120	-3304	1732	16716	143	-9	55	-7612	5640	13864	127	-20	-149	-15380	5144	-2216	39	-8	-38	-1796	-2564	16620	-10	-107	156	123	126	5
-8072	-4444	13076	-133	134	-192	-16372	-1188	-2172	41	-63	118	-3256	1704	16812	137	11	53	-7612	5616	13828	137	-10	-176	-15388	5204	-2248	-29	0	-69	-1856	-2552	16716	31	-110	180	123	126	5
-8084	-4432	13224	-107	141	-174	-16344	-1256	-2320	59	-73	98	-3264	1720	16680	147	3	61	-7624	5604	13912	135	-28	-167	-15368	5200	-2204	-72	-1	-51	-1824	-2572	16776	-13	-114	188	123	126	5
-8060	-4408	13192	-123	121	-157	-16468	-1172	-2168	71	-34	119	-3280	1656	16748	168	7	43	-7680	5632	13856	120	13	-159	-15428	5152	-2140	-1	7	-79	-1896	-2520	16768	-6	-84	212	123	126	5
-8060	-4484	13220	-106	78	-193	-16404	-1200	-2228	106	-66	128	-3320	1640	16768	173	-7	43	-7652	5620	13784	102	2	-163	-15392	5180	-2216	-7	-2	-116	-1892	-2596	16660	11	-91	181	123	126	5
-8040	-4512	13092	-102	147	-171	-16384	-1160	-2188	86	-19	138	-3256	1628	16708	175	1	51	-7612	5656	13784	106	-32	-181	-15344	5140	-2128	9	-7	-55	-1884	-2608	16716	66	-71	182	122	126	5
-8048	-4440	13136	-127	130	-183	-16400	-1208	-2208	66	-13	145	-3268	1712	16564	139	5	50	-7592	5644	13964	105	-10	-184	-15344	5188	-2196	9	-4	-72	-1788	-2624	16684	15	-103	171	122	126	5
-8144	-4540	13056	-37	162	-228	-16416	-1144	-2220	112	-57	151	-3292	1736	16780	157	-19	39	-7632	5576	13904	110	-26	-164	-15360	5196	-2212	-16	8	-34	-1900	-2672	16752	-11	-110	177	122	126	5
-7676	-4100	13072	-19	109	-128	-16364	-1096	-2148	104	-22	140	-3336	1684	16720	173	-3	20	-7636	5592	13868	135	-76	-167	-15472	5176	-2292	-6	-4	-42	-1824	-2680	16596	-14	-103	199	122	126	5
-8056	-4572	13040	-91	99	-208	-16488	-1152	-2288	38	-7	116	-3272	1704	16720	144	-17	70	-7612	5588	13764	114	-8	-168	-15376	5128	-2296	-25	-17	-31	-1908	-2704	16800	-27	-99	180	122	127	5
-7952	-4332	13428	-115	116	-232	-16428	-1272	-2224	96	-9	101	-3252	1728	16712	169	4	60	-7648	5612	13888	112	-8	-199	-15392	5136	-2292	4	21	-11	-1840	-2648	16680	-14	-64	173	122	127	5
-8072	-4492	13080	-28	80	-191	-16388	-1200	-2268	100	-4	147	-3296	1672	16792	196	-1	54	-7616	5688	13896	146	-1	-164	-15372	5184	-2204	4	7	-10	-1924	-2624	16652	21	-89	175	122	127	5
-8124	-4464	13148	-75	118	-210	-16364	-1176	-2228	105	-18	189	-3280	1720	16688	192	6	16	-7584	5620	13840	160	-45	-152	-15388	5192	-2200	19	-17	-5	-1916	-2556	16772	-2	-132	172	123	127	5
-8084	-4420	13140	-63	149	-192	-16392	-1116	-2216	85	-30	155	-3324	1792	16784	201	-25	43	-7584	5692	13868	147	-16	-180	-15352	5176	-2204	15	-29	-7	-1852	-2576	16740	6	-107	177	123	127	5
-8008	-4392	13144	-48	111	-187	-16336	-1132	-2388	73	-39	147	-3300	1772	16772	175	49	50	-7560	5636	13892	95	-36	-172	-15392	5148	-2224	-3	-20	-40	-1816	-2604	16736	-13	-129	167	123	127	5
-8000	-4388	13132	-69	131	-212	-16392	-1200	-2264	67	-24	180	-3292	1824	16640	175	4	35	-7624	5600	13852	144	-3	-171	-15384	5120	-2228	30	5	-42	-1836	-2612	16836	-4	-80	159	123	127	5
-8044	-4436	13072	-108	103	-208	-16336	-1156	-2328	72	-35	105	-3288	1808	16704	140	-18	37	-7620	5584	13836	129	-20	-158	-15388	5220	-2272	-4	21	-29	-1848	-2572	16740	-8	-116	179	123	126	5
-8048	-4440	13180	-132	133	-225	-16400	-1216	-2184	84	-4	123	-3300	1736	16792	159	35	44	-7568	5676	13916	100	-43	-155	-15364	5168	-2180	-17	-18	-36	-1944	-2600	16656	22	-78	151	123	126	5
-8060	-4444	13204	-104	108	-193	-16436	-1240	-2292	85	-41	98	-3308	1688	16764	169	36	69	-7632	5628	13892	137	-34	-166	-15428	5140	-2156	-21	-2	-52	-1868	-2604	16724	-6	-135	155	123	126	5
-7996	-4436	13196	-115	73	-173	-16376	-1188	-2260	118	-39	120	-3268	1760	16704	169	-13	60	-7596	5608	13760	154	7	-162	-15384	5132	-2348	-7	-2	-46	-1892	-2596	16700	-3	-90	163	123	126	5
-8072	-4420	13140	-111	113	-180	-16380	-1176	-2216	128	-48	123	-3292	1724	16728	172	22	43	-7592	5648	13796	148	-14	-184	-15364	5224	-2216	14	5	-67	-1928	-2560	16724	-31	-97	172	123	127	5
-8036	-4456	13116	-60	123	-211	-16336	-1188	-2264	99	-40	106	-3332	1736	16644	182	-2	56	-7688	5596	13832	115	-36	-182	-15400	5164	-2316	44	-4	-54	-1860	-2552	16756	-60	-112	153	123	127	5
-8136	-4524	13000	31	156	-195	-16388	-1168	-2232	58	-28	130	-3312	1676	16692	144	7	39	-7652	5644	13892	142	7	-144	-15336	5260	-2296	3	3	-41	-1904	-2604	16732	-7	-105	199	123	127	5
-8144	-4452	13208	-88	118	-178	-16420	-1220	-2284	36	19	121	-3316	1676	16744	166	1	45	-7664	5604	13904	98	-33	-171	-15384	5148	-2172	-9	17	-60	-1844	-2588	16752	46	-129	193	123	127	5
-8052	-4500	13164	-70	119	-178	-16388	-1092	-2260	49	-67	129	-3380	1676	16672	157	-11	51	-7632	5612	13756	118	-40	-176	-15400	5176	-2256	2	13	-57	-1792	-2572	16812	18	-84	182	124	126	5
-8012	-4396	13216	-82	117	-175	-16400	-1212	-2292	75	-64	123	-3332	1660	16684	165	-11	36	-7648	5592	13888	98	-11	-166	-15368	5140	-2188	-5	7	-51	-1920	-2604	16720	-2	-102	159	124	126	5
-8152	-4492	12996	31	113	-166	-16376	-1236	-2244	100	-50	149	-3332	1748	16716	172	-9	48	-7632	5648	13932	121	-15	-174	-15360	5180	-2196	26	13	-36	-1892	-2572	16740	-24	-85	154	123	127	5
-8072	-4408	13148	-105	159	-189	-16348	-1108	-2236	76	-20	122	-3288	1740	16652	190	8	67	-7660	5640	13772	139	-51	-177	-15376	5184	-2240	-36	-6	-77	-1924	-2684	16708	-45	-81	169	124	126	5
-8012	-4460	13188	-112	115	-181	-16396	-1196	-2252	75	-7	132	-3256	1668	16792	163	0	43	-7600	5656	13960	133	29	-137	-15432	5176	-2124	-15	-22	-6	-1952	-2696	16740	-28	-124	181	124	126	5
-8020	-4496	13176	-131	160	-160	-16396	-1180	-2144	74	-6	80	-3288	1764	16808	167	40	49	-7592	5580	13748	130	-8	-190	-15364	5072	-2192	20	0	-51	-1884	-2672	16692	-16	-90	184	125	127	5
-8124	-4512	13228	-129	155	-214	-16380	-1148	-2152	59	7	134	-3248	1728	16732	162	13	80	-7600	5592	13904	143	21	-138	-15448	5192	-2152	15	-25	-15	-1848	-2688	16744	-19	-114	148	125	127	5
-8128	-4416	13160	-92	166	-160	-16392	-1160	-2268	78	5	138	-3372	1780	16804	186	19	68	-7600	5704	13804	144	22	-178	-15456	5216	-2188	11	6	-54	-1944	-2620	16768	-39	-126	228	125	127	5
-8060	-4492	13236	-126	139	-172	-16428	-1192	-2308	77	-85	124	-3312	1684	16664	200	2	61	-7604	5692	13968	138	-39	-146	-15408	5188	-2200	9	-2	-60	-1868	-2624	16684	-41	-94	191	125	126	5
-8056	-4436	13228	-101	128	-178	-16428	-1228	-2320	102	-31	112	-3352	1640	16848	163	-3	61	-7576	5624	13868	155	5	-179	-15372	5168	-2212	-33	13	-31	-1876	-2664	16636	14	-126	172	125	126	5
-8088	-4408	13080	-111	107	-177	-16372	-1196	-2128	58	-14	115	-3276	1688	16748	170	37	55	-7600	5604	13864	146	-71	-175	-15372	5112	-2204	-27	-25	-34	-1904	-2608	16708	1	-98	179	125	126	5
-8052	-4448	13256	-68	140	-171	-16388	-1204	-2276	64	5	142	-3332	1624	16700	186	9	28	-7592	5628	13880	123	15	-158	-15412	5168	-2216	6	-14	-55	-1852	-2516	16728	-17	-112	192	125	126	5
-8048	-4424	13076	-77	109	-165	-16388	-1208	-2212	76	-36	180	-3300	1752	16752	200	-11	36	-7652	5644	13864	148	52	-163	-15396	5060	-2312	19	14	-15	-1940	-2548	16700	-32	-106	174	126	126	5
-8012	-4424	13120	-103	141	-209	-16348	-1184	-2120	75	-42	166	-3304	1708	16576	198	5	43	-7564	5620	13824	142	-1	-176	-15348	5200	-2304	-5	20	-12	-1808	-2644	16620	21	-113	195	126	126	5
-8032	-4444	13180	-57	134	-213	-16392	-1168	-2360	68	-6	182	-3304	1792	16640	209	29	33	-7620	5632	13860	96	-13	-167	-15412	5168	-2180	19	-18	-33	-1888	-2604	16652	27	-117	184	126	127	5
-8088	-4400	13204	-57	93	-164	-16380	-1168	-2236	80	-10	183	-3248	1700	16724	205	-14	45	-7584	5592	13792	136	-2	-151	-15340	5204	-2252	10	-6	-17	-1916	-2684	16724	-19	-118	179	126	126	5
-8052	-4452	13228	-120	109	-198	-16404	-1132	-2248	106	-46	182	-3312	1660	16696	195	7	22	-7564	5572	13848	147	-5	-137	-15412	5128	-2264	47	-40	-8	-1868	-2548	16712	14	-98	135	126	126	5
-8080	-4484	13212	-86	155	-208	-16420	-1204	-2252	117	-26	150	-3296	1728	16720	199	-6	20	-7596	5676	13856	171	7	-172	-15368	5132	-2296	-1	-8	-60	-1816	-2576	16736	13	-82	152	126	126	5
-7912	-4100	13608	-70	69	-217	-16372	-1268	-2276	105	-11	204	-3300	1780	16732	194	33	10	-7660	5628	13820	131	-27	-129	-15416	5172	-2148	18	-9	-5	-1820	-2588	16756	16	-120	161	126	125	5
-8100	-4360	13092	-80	151	-165	-16336	-1100	-2320	39	-10	158	-3268	1776	16696	165	-15	40	-7576	5696	13924	133	0	-163	-15412	5176	-2076	-46	15	-35	-1844	-2544	16800	-28	-85	168	126	125	5
-8036	-4484	13080	-117	104	-219	-16368	-1224	-2176	58	-2	131	-3304	1756	16688	181	-27	38	-7636	5664	13868	141	41	-161	-15344	5208	-2128	8	15	-47	-1840	-2584	16836	22	-86	175	126	126	5
-8032	-4480	13156	-71	127	-208	-16360	-1124	-2224	45	-23	140	-3364	1752	16744	194	-4	34	-7592	5664	13856	135	-52	-181	-15316	5240	-2200	7	4	-39	-1832	-2520	16628	-20	-96	187	127	126	5
-8068	-4456	13040	-67	128	-181	-16448	-1204	-2184	72	-10	116	-3272	1736	16732	169	-11	63	-7592	5632	13852	133	-21	-163	-15324	5184	-2096	15	-3	-11	-1848	-2612	16628	-23	-127	160	127	126	5
-7888	-4352	13084	-100	106	-162	-16436	-1140	-2356	117	-33	116	-3316	1724	16720	186	-4	60	-7596	5664	13956	107	-17	-164	-15360	5180	-2220	35	35	-56	-1892	-2584	16664	-11	-86	193	127	126	5
-7956	-4492	13148	-98	116	-162	-16384	-1168	-2296	50	-21	149	-3284	1704	16772	167	-22	53	-7548	5684	13820	103	13	-186	-15380	5168	-2136	-4	5	-93	-1940	-2576	16716	-34	-97	180	127	126	5
-8060	-4512	13252	-102	114	-167	-16396	-1144	-2148	61	-45	128	-3332	1776	16660	192	-7	33	-7556	5648	13856	146	-2	-179	-15368	5148	-2164	14	-21	-63	-1960	-2636	16648	14	-92	204	127	126	5
-8092	-4500	13148	-131	137	-165	-16336	-1184	-2148	69	-11	105	-3288	1772	16784	170	31	47	-7608	5668	13880	107	-42	-184	-15364	5156	-2176	-29	2	-18	-1904	-2648	16720	65	-99	235	127	126	5
-8040	-4452	13264	-121	127	-186	-16384	-1164	-2164	79	-24	134	-3260	1760	16660	166	2	31	-7592	5664	13900	114	42	-187	-15360	5128	-2276	-1	-19	-92	-1880	-2632	16760	31	-87	178	127	126	5
-8084	-4436	13200	-75	126	-197	-16380	-1156	-2312	95	-27	152	-3284	1668	16708	148	-30	37	-7648	5696	13920	156	-38	-140	-15416	5176	-2212	-10	21	-78	-1908	-2652	16672	45	-91	170	127	126	5
-8072	-4436	13220	-103	116	-175	-16372	-1112	-2184	59	-50	157	-3324	1784	16748	158	31	36	-7552	5600	13940	133	-50	-137	-15360	5132	-2228	44	1	-63	-1864	-2564	16776	6	-109	162	127	126	5
-8068	-4412	13160	-108	129	-208	-16412	-1172	-2280	80	-21	118	-3248	1700	16644	165	6	64	-7560	5608	13936	156	-10	-149	-15356	5144	-2232	32	-6	5	-1828	-2656	16744	0	-134	175	127	126	5
-8048	-4452	13148	-94	167	-182	-16400	-1100	-2156	79	-48	129	-3284	1792	16720	181	-4	46	-7608	5628	13864	150	-40	-171	-15384	5168	-2168	25	-9	-40	-1844	-2644	16748	2	-86	170	127	126	5
-8032	-4440	13116	-72	117	-180	-16404	-1140	-2216	70	-10	111	-3240	1688	16736	151	16	36	-7608	5680	13932	158	-17	-171	-15448	5164	-2324	-7	6	-28	-1864	-2600	16640	-20	-58	176	128	126	5
-8048	-4444	13120	-113	129	-214	-16348	-1244	-2244	60	-21	156	-3236	1704	16764	177	-36	73	-7604	5628	13872	128	24	-192	-15384	5164	-2160	10	-26	-44	-1796	-2612	16740	13	-87	160	128	126	5
-8060	-4520	13156	-57	112	-165	-16364	-1144	-2228	66	-20	124	-3296	1684	16688	178	3	58	-7612	5676	13796	129	-21	-175	-15420	5228	-2156	52	-30	5	-1896	-2600	16640	-1	-102	198	128	125	5
-8028	-4464	13188	-86	142	-189	-16400	-1164	-2232	32	-6	123	-3336	1720	16708	203	-5	44	-7544	5616	13828	135	-28	-184	-15336	5192	-2272	13	27	-43	-1852	-2560	16704	-18	-124	172	128	125	5
-8052	-4396	13196	-113	135	-184	-16348	-1204	-2200	59	12	132	-3316	1712	16700	212	39	59	-7672	5676	13892	141	-5	-166	-15408	5176	-2220	25	3	-29	-1892	-2468	16740	-25	-91	192	128	125	5
-8048	-4460	13216	-67	134	-156	-16384	-1168	-2248	98	-1	155	-3348	1720	16796	181	-39	59	-7616	5660	13804	132	-35	-164	-15372	5224	-2216	23	13	-26	-1916	-2620	16700	11	-90	175	128	125	5
-8008	-4484	13192	-89	136	-174	-16328	-1172	-2264	46	-11	153	-3312	1768	16636	161	20	12	-7568	5648	13868	111	-22	-172	-15344	5212	-2160	0	0	-10	-1900	-2548	16632	-16	-94	190	129	126	5
-8092	-4508	13164	-57	125	-167	-16420	-1216	-2216	37	-57	138	-3264	1708	16712	174	-15	46	-7648	5648	13932	124	0	-141	-15372	5220	-2248	-1	-26	-66	-1872	-2628	16780	16	-69	171	129	126	5
-8028	-4464	13256	-96	137	-168	-16428	-1140	-2228	40	-10	126	-3344	1716	16764	152	-6	48	-7560	5672	13844	152	-36	-158	-15392	5208	-2140	17	-24	-50	-1884	-2588	16828	18	-81	194	129	126	5
-8044	-4448	13172	-78	149	-196	-16424	-1204	-2352	91	-32	151	-3268	1772	16720	216	19	36	-7648	5596	13844	151	-14	-149	-15360	5160	-2188	16	-14	-62	-1880	-2676	16624	17	-76	179	129	125	5
-8060	-4412	13180	-115	119	-201	-16396	-1156	-2244	92	-32	136	-3272	1772	16684	158	-10	48	-7664	5704	13892	144	-35	-142	-15360	5192	-2180	-12	-57	-40	-1844	-2668	16704	12	-116	208	129	125	5
-8004	-4436	13188	-59	178	-230	-16436	-1168	-2288	71	-6	104	-3308	1784	16748	185	-29	33	-7616	5656	13852	135	-4	-163	-15340	5164	-2156	-8	-67	-36	-1892	-2644	16696	-19	-98	168	129	125	5
-8024	-4444	13240	-76	138	-163	-16404	-1220	-2280	36	-62	157	-3272	1760	16648	151	5	38	-7580	5564	13800	114	-66	-135	-15364	5196	-2140	-6	-7	-5	-1872	-2640	16696	-28	-106	163	129	125	5
-8020	-4460	13204	-108	126	-187	-16432	-1140	-2248	63	-20	133	-3316	1768	16756	171	-35	49	-7636	5580	13844	130	16	-132	-15336	5164	-2212	23	-22	-17	-1880	-2552	16712	20	-90	211	128	125	5
-8004	-4448	13252	-103	125	-168	-16404	-1112	-2184	60	-13	112	-3340	1772	16744	183	-9	54	-7556	5632	13872	110	16	-169	-15380	5168	-2260	-27	5	-39	-1860	-2616	16712	-5	-128	183	128	125	5
-8040	-4428	13224	-81	102	-167	-16392	-1188	-2292	91	-2	123	-3372	1760	16792	152	13	75	-7636	5612	13900	118	31	-194	-15356	5112	-2100	4	-9	-51	-1812	-2684	16740	21	-91	174	129	125	5
-8024	-4488	13188	-98	144	-175	-16324	-1128	-2224	78	-25	146	-3340	1716	16688	172	-8	48	-7612	5628	13924	122	8	-206	-15348	5176	-2296	0	23	-50	-1852	-2632	16700	-49	-89	196	129	126	5
-8068	-4508	13236	-100	143	-195	-16404	-1180	-2164	44	-24	120	-3284	1772	16740	175	9	81	-7612	5656	13788	109	-7	-169	-15388	5160	-2328	16	-3	-54	-1880	-2580	16792	-30	-115	198	129	125	5
-8060	-4516	13176	-74	116	-177	-16396	-1200	-2284	59	0	136	-3256	1792	16612	159	-11	50	-7652	5660	13876	106	-29	-176	-15388	5184	-2188	-28	-38	-60	-1896	-2652	16684	-38	-126	184	129	125	5
-8020	-4460	13088	-124	146	-155	-16384	-1204	-2216	54	-19	124	-3280	1732	16872	171	-46	14	-7608	5636	13836	137	6	-152	-15380	5152	-2304	0	-32	-64	-1956	-2668	16680	-3	-85	215	129	125	5
-8012	-4468	13192	-116	170	-174	-16356	-1184	-2212	79	14	160	-3248	1692	16616	176	18	36	-7616	5592	13792	144	-15	-153	-15348	5148	-2388	-46	-26	-68	-1964	-2756	16676	56	-80	179	128	125	5
-8080	-4388	13236	-114	151	-178	-16380	-1252	-2280	94	-3	123	-3340	1644	16672	207	5	24	-7596	5692	13836	122	-16	-159	-15356	5032	-2424	28	-77	-34	-1936	-2708	16616	160	-70	199	127	126	5
-8140	-4528	13180	-60	106	-182	-16396	-1260	-2232	154	-16	190	-3308	1564	16792	190	21	-80	-7620	5616	13812	160	-54	-141	-15372	5124	-2256	120	-123	-45	-1976	-2764	16656	231	-63	119	128	125	5
-8044	-4508	13224	-29	133	-196	-16404	-1196	-2228	159	0	210	-3240	1516	16724	214	110	-112	-7560	5640	13904	204	-60	-128	-15352	5168	-2324	122	-103	18	-1984	-2728	16728	326	-32	107	127	125	5
-8004	-4476	13220	-25	146	-176	-16220	-1244	-2212	73	26	226	-3232	1632	16784	101	196	-208	-7600	5632	13884	190	-41	-132	-15396	5116	-2288	-19	-88	37	-1992	-2832	16616	293	-33	154	126	126	5
-8072	-4468	13196	-13	122	-196	-16344	-1240	-2224	89	14	183	-3184	1688	16736	-50	364	-243	-7596	5648	13908	161	31	-107	-15400	5168	-2256	-22	-79	78	-1940	-2848	16532	164	-151	159	123	126	5
-8108	-4484	13128	26	170	-173	-16368	-1152	-2168	-29	66	142	-3384	1800	16716	-219	439	-318	-7632	5548	13796	189	-39	-143	-15380	4952	-2184	25	-122	113	-1916	-2912	16552	88	-187	206	121	125	5
-8032	-4460	13096	46	115	-185	-16424	-1188	-2236	-28	10	145	-3616	1844	16728	-268	366	-338	-7588	5640	13864	250	-56	-136	-15452	4992	-2344	204	-163	149	-2008	-2836	16816	234	-170	118	120	126	5
-7996	-4444	13208	18	107	-177	-16468	-1144	-2224	-67	8	164	-3352	1524	16752	-141	219	-183	-7556	5588	13908	339	-74	-57	-15452	5104	-2152	292	-155	185	-1824	-2772	16740	297	-28	104	122	125	5
-8112	-4344	13108	-29	75	-160	-16456	-1148	-2340	1	-15	206	-3344	1296	16676	325	61	167	-7520	5556	13788	275	-88	-77	-15336	5244	-2144	86	-150	181	-1768	-2568	16736	340	-50	113	124	125	5
-8060	-4332	13128	-36	106	-207	-16432	-1200	-2268	60	-16	234	-3336	1316	16528	684	-90	295	-7572	5832	13852	300	-52	-61	-15296	5368	-2152	-120	-97	195	-1872	-2336	16652	300	-58	112	126	125	5
-8028	-4388	13200	-26	77	-182	-16308	-1224	-2168	236	-8	243	-3360	1628	16836	903	9	238	-7576	5780	13896	266	32	-78	-15332	5256	-2200	-172	-93	158	-1840	-2460	16640	218	-104	91	126	125	5
-8040	-4400	13192	-23	112	-184	-16408	-1260	-2208	204	-38	296	-3560	1704	16800	680	41	148	-7584	5608	13936	259	-27	-86	-15392	5232	-1920	53	-111	183	-1848	-2292	16760	1	-196	118	126	125	5
-8064	-4552	13176	-8	59	-171	-16384	-1232	-2248	136	20	351	-3580	1908	16744	370	-4	15	-7548	5792	13876	245	-39	-80	-15320	5380	-1880	153	-86	70	-1752	-2240	16696	-28	-160	141	126	125	5
-8112	-4412	13236	61	24	-168	-16392	-1000	-2296	-109	13	311	-3508	1956	16760	162	73	-81	-7576	5780	13816	149	-43	-127	-15268	5488	-2012	-32	-29	42	-1668	-2188	16832	-4	-194	265	127	125	5
-7988	-4360	13200	61	45	-157	-16424	-996	-2300	-274	44	300	-3428	1888	16712	132	138	-61	-7544	5784	13816	111	51	-163	-15388	5432	-1920	-222	64	-18	-1652	-2148	16928	23	-122	414	127	125	5
-8012	-4456	13220	58	41	-156	-16424	-980	-2244	-287	52	295	-3280	1956	16632	208	93	21	-7564	5648	13892	66	44	-185	-15360	5364	-2012	-151	119	-109	-1704	-2124	16904	18	-136	408	127	125	5
-7960	-4396	13152	-42	86	-168	-16388	-1084	-2332	-105	-10	214	-3196	1996	16696	313	15	123	-7604	5684	13884	31	128	-185	-15316	5360	-2104	-128	117	-157	-1696	-2204	16764	-8	-112	435	127	124	5
-7916	-4324	13256	-60	109	-167	-16372	-1028	-2272	65	-50	187	-3192	1972	16628	434	-34	213	-7640	5752	13804	4	5	-214	-15372	5340	-2116	-113	161	-176	-1692	-2316	16748	-51	-97	423	128	124	5
-8064	-4484	13216	-100	140	-168	-16428	-1040	-2336	177	-68	149	-3232	2160	16752	482	-81	201	-7600	5716	13836	8	51	-234	-15376	5296	-2156	-76	160	-186	-1784	-2276	16800	-194	-106	408	128	124	5
-8040	-4456	13156	-98	149	-169	-16428	-892	-2088	144	-59	99	-3208	2280	16612	378	-85	160	-7556	5672	13936	14	42	-256	-15364	5240	-2192	-54	116	-210	-1872	-2224	16860	-304	-50	327	128	124	5
-8044	-4412	13224	-131	150	-158	-16356	-972	-2144	65	-3	53	-3256	2304	16644	101	-57	14	-7616	5648	13792	-9	7	-243	-15384	5244	-2184	-49	156	-235	-1900	-2320	16712	-426	-29	294	128	125	5
-8036	-4432	13180	-151	104	-149	-16360	-1064	-2324	51	-19	12	-3384	2192	16716	-154	-52	-63	-7604	5640	13948	-7	3	-233	-15412	5292	-2256	-63	130	-279	-1972	-2320	16748	-481	-25	218	128	125	5
-8020	-4416	13152	-118	148	-201	-16396	-1116	-2300	100	-34	-28	-3380	2204	16724	-388	20	-139	-7612	5580	13860	3	-34	-242	-15372	5176	-2188	-2	94	-279	-2012	-2388	16716	-470	36	166	127	126	5
-8028	-4480	13136	-108	161	-221	-16416	-1076	-2372	143	-47	-80	-3456	2100	16700	-471	-27	-210	-7568	5692	13888	-35	-17	-204	-15396	5252	-2276	56	111	-296	-2000	-2436	16764	-422	68	89	128	125	5
-8036	-4336	13152	-167	176	-192	-16416	-1096	-2508	162	-122	-101	-3436	1956	16700	-434	-42	-123	-7592	5688	13824	0	-59	-232	-15224	5228	-2256	23	80	-341	-1984	-2440	16764	-435	55	82	128	125	5
-8052	-4312	13252	-214	224	-209	-16424	-1108	-2368	138	-167	-109	-3468	1856	16764	-336	-70	-55	-7596	5736	13824	-6	6	-210	-15424	5240	-2180	-36	67	-386	-1932	-2520	16736	-421	53	127	128	125	5
-8012	-4336	13192	-257	218	-210	-16344	-1084	-2320	172	-166	-101	-3520	1900	16696	-313	-45	-53	-7624	5660	13924	9	-64	-222	-15336	5192	-2188	34	72	-372	-1924	-2652	16760	-340	56	202	129	125	5
-8036	-4416	13252	-260	214	-235	-16372	-1196	-2292	151	-215	-196	-3468	1856	16644	-370	-102	40	-7544	5668	13884	-29	-9	-247	-15380	5156	-2068	103	78	-409	-1812	-2664	16604	-374	68	251	129	125	5
-8116	-4464	13132	-255	222	-208	-16348	-1084	-2376	79	-309	-227	-3576	1836	16568	-421	-77	90	-7572	5640	13888	-36	48	-269	-15364	5136	-2076	68	139	-405	-1828	-2692	16684	-373	62	325	129	125	5
-8032	-4376	13276	-298	230	-250	-16372	-1160	-2472	-36	-323	-188	-3420	1716	16660	-406	-71	98	-7604	5624	13920	-60	44	-304	-15384	5148	-2112	-33	165	-396	-1912	-2748	16688	-293	69	430	129	126	5
-8060	-4400	13152	-349	259	-266	-16316	-1080	-2340	-44	-301	-229	-3364	1660	16696	-377	-38	177	-7644	5620	13856	-103	56	-304	-15376	5016	-2292	-89	168	-411	-1964	-2884	16692	-192	68	495	129	125	5
-8080	-4508	13216	-332	218	-249	-16404	-1208	-2064	10	-314	-242	-3204	1460	16748	-356	-32	218	-7572	5488	13876	-68	31	-255	-15400	4980	-2432	-134	169	-390	-2100	-2860	16792	-141	95	526	129	125	5
-8040	-4444	13168	-322	226	-283	-16316	-1292	-1980	91	-289	-260	-3044	1240	16744	-293	-85	245	-7684	5616	13816	-25	6	-226	-15392	4848	-2480	81	95	-368	-2052	-3024	16600	-230	115	503	129	126	5
-8052	-4612	13156	-254	228	-228	-16364	-1472	-1932	298	-216	-196	-2960	1116	16548	-264	-45	197	-7672	5396	13864	74	-141	-182	-15468	4912	-2260	190	52	-342	-2028	-3220	16644	-279	177	420	130	126	5
-8228	-4844	13184	-21	150	-274	-16276	-1496	-1888	437	-183	-207	-3032	1204	16828	-257	-25	135	-7668	5588	13876	133	6	-175	-15464	4664	-2464	337	-32	-175	-1948	-3128	16604	-391	239	219	130	126	5
-8000	-4468	12764	157	-103	-102	-16256	-1528	-1828	459	-143	-215	-3076	1176	16600	-289	-22	82	-7596	5456	13784	177	-168	-104	-15524	4840	-2280	329	-60	-143	-2000	-2972	16520	-429	279	26	130	126	5
-7812	-4336	13256	176	-28	-217	-16468	-1376	-2300	418	-18	-82	-3548	872	16892	-437	-3	-341	-7692	5704	13792	199	-54	-115	-15448	4972	-2120	299	-48	-79	-1876	-2956	16608	-486	248	-115	130	127	5
-8108	-4460	13220	52	68	-187	-16640	-1244	-2420	95	2	44	-3604	884	16948	-428	-14	-363	-7576	5592	13976	184	-87	-126	-15344	5172	-1996	17	7	-1	-1804	-2688	16584	-428	112	-126	130	126	5
-8012	-4324	13188	2	129	-189	-16404	-1332	-2336	-32	-44	134	-3880	1520	16696	-181	-81	-300	-7596	5784	13900	106	37	-224	-15380	5276	-1956	-223	143	-82	-1916	-2468	16744	-342	-47	-3	130	126	5
-8000	-4456	13140	-86	136	-232	-16352	-1244	-2388	-163	-84	92	-3664	1532	16600	-251	-130	-113	-7568	5724	13884	-8	24	-269	-15312	5412	-1944	-339	194	-180	-1948	-2288	16852	-296	-122	225	129	125	5
-8056	-4276	13188	-195	134	-192	-16456	-1236	-2572	-327	-258	40	-3724	1588	16608	-267	-67	120	-7632	5704	13844	-104	71	-287	-15364	5348	-2208	-261	270	-324	-1904	-2276	16876	-297	-116	540	129	125	5
-7944	-4428	13200	-216	172	-222	-16376	-1272	-2348	-326	-359	22	-3624	1516	16744	-192	-24	363	-7684	5712	14008	-154	100	-264	-15312	5244	-2284	-188	325	-472	-1808	-2384	16804	-327	-103	826	129	125	5
-8112	-4396	13060	-281	166	-243	-16388	-1352	-2216	-209	-475	-3	-3496	1412	16728	-92	-16	500	-7592	5468	13980	-141	154	-231	-15380	5176	-2368	-67	388	-678	-1860	-2556	16760	-372	-38	915	129	125	5
-8080	-4468	13228	-225	173	-302	-16396	-1316	-2100	-126	-524	-33	-3304	1420	16684	15	36	524	-7548	5556	14008	-117	70	-355	-15476	5024	-2288	-26	306	-604	-2008	-2688	16576	-386	6	967	129	125	5
-8028	-4396	13164	-261	171	-276	-16396	-1236	-2040	-216	-489	-11	-3204	1420	16748	87	58	423	-7636	5696	13828	-262	-10	-354	-15328	5004	-2244	-86	335	-594	-2076	-2856	16516	-337	-31	889	129	125	5
-8004	-4516	13228	-296	192	-259	-16420	-1196	-1856	-193	-418	-12	-3076	1588	16688	35	13	225	-7576	5556	13992	-228	107	-354	-15432	4936	-2352	-282	303	-573	-2120	-2932	16520	-260	-49	845	129	126	5
-7988	-4568	13120	-273	223	-243	-16384	-1212	-1820	-162	-382	-8	-2956	1688	16556	-184	0	117	-7692	5540	13928	-242	2	-348	-15444	4832	-2444	-280	301	-619	-2176	-3060	16572	-244	-69	781	129	126	5
-7856	-4608	13016	-286	226	-227	-16532	-1136	-1704	-233	-285	-88	-2912	1624	16704	-280	-60	107	-7612	5272	14020	-202	84	-371	-15624	4648	-2264	-248	284	-537	-2216	-3168	16568	-237	-51	707	129	126	5
-7864	-4236	12968	-316	174	-155	-16416	-1244	-1868	-51	-225	-119	-2928	1228	16564	-249	-63	205	-7660	5336	13908	-112	44	-343	-15532	4508	-2520	117	222	-427	-2208	-3336	16436	-347	-49	591	129	126	5
-8008	-4592	13168	-302	264	-235	-16296	-1356	-2060	61	-148	-120	-3048	904	16756	-84	-103	258	-7712	5396	13932	21	-2	-216	-15496	4588	-2420	214	124	-328	-2204	-3332	16504	-360	-36	545	130	127	5
-8064	-4604	13236	-259	236	-188	-16492	-1508	-2020	285	-209	-126	-3264	868	16680	168	-134	274	-7700	5288	13912	59	29	-267	-15496	4548	-2432	230	93	-197	-2212	-3580	16308	-319	-106	281	130	127	5
-8092	-4556	13072	-224	271	-225	-16428	-1380	-1984	359	-142	-51	-3320	1052	16704	207	-165	284	-7660	5424	13840	46	-15	-210	-15528	4584	-2460	-5	137	-136	-2204	-3560	16444	-249	-135	132	130	126	5
-8064	-4500	13156	-195	205	-185	-16416	-1500	-1832	266	-117	5	-3292	1060	16776	198	-171	185	-7684	5308	13916	57	-187	-202	-15592	4680	-2388	-66	49	-29	-2232	-3476	16504	-160	-116	43	130	126	5
-8048	-4580	13072	-217	182	-159	-16388	-1552	-1896	93	-15	16	-3308	1024	16832	191	-146	70	-7688	5360	13852	148	12	-151	-15452	4676	-2528	4	20	52	-2236	-3332	16484	-167	-126	-38	129	126	5
-8128	-4548	13156	-94	160	-178	-16340	-1476	-1900	98	44	116	-3288	1004	16732	113	-113	16	-7640	5412	13948	225	-32	-165	-15576	4616	-2492	41	-14	109	-2264	-3312	16544	-126	-79	-24	130	125	5
-8072	-4532	13080	-73	124	-160	-16412	-1516	-1980	41	69	149	-3332	988	16720	85	-75	-53	-7716	5460	13900	227	-58	-89	-15416	4824	-2436	147	-102	171	-2216	-3156	16544	-34	-43	-83	129	125	5
-8072	-4604	13216	-9	161	-135	-16368	-1520	-2032	134	36	216	-3356	912	16824	168	-25	-76	-7672	5516	13820	284	-27	-91	-15472	4820	-2396	182	-151	151	-2112	-2944	16660	100	-1	-45	129	126	5
-8100	-4488	13088	8	109	-145	-16416	-1496	-1988	146	61	235	-3492	1004	16756	194	51	-74	-7660	5488	13884	272	-128	-125	-15392	4840	-2324	192	-154	158	-2124	-2916	16744	102	-39	-34	129	126	5
-8016	-4440	13184	45	110	-168	-16456	-1468	-2108	149	25	238	-3496	1176	16716	210	98	-85	-7596	5500	13952	246	4	-93	-15368	4968	-2288	91	-145	80	-2096	-2796	16520	108	-46	35	129	126	5
-8084	-4476	13156	22	96	-194	-16348	-1360	-2116	119	24	253	-3468	1240	16828	270	72	-112	-7632	5540	13964	206	-62	-118	-15356	5036	-2360	26	-118	38	-2012	-2776	16700	85	-80	94	129	126	5
-8084	-4556	13104	-4	103	-155	-16436	-1336	-2048	48	10	272	-3356	1392	16704	311	81	-66	-7620	5472	13924	175	5	-124	-15460	4964	-2248	-90	-53	-2	-2048	-2828	16604	93	-170	188	129	125	5
-8052	-4484	13196	10	87	-157	-16404	-1300	-2000	4	-12	231	-3188	1484	16720	324	19	3	-7604	5468	13832	165	5	-154	-15472	4948	-2192	-37	-45	10	-1916	-2884	16472	65	-188	176	129	125	5
-8000	-4432	13068	-86	112	-175	-16380	-1208	-2080	-1	4	212	-3128	1464	16788	321	28	55	-7628	5504	13960	143	-4	-146	-15436	4880	-2276	11	-43	-29	-1908	-2916	16504	21	-211	183	129	125	5
-8072	-4496	13120	-98	173	-155	-16472	-1312	-1908	60	7	178	-3148	1484	16712	280	8	71	-7640	5488	13960	150	-56	-146	-15448	4856	-2368	36	-91	35	-2076	-2976	16636	-53	-201	142	129	125	5
-8000	-4456	13156	-108	192	-151	-16388	-1268	-1988	142	-19	147	-3140	1540	16784	310	13	126	-7644	5436	14028	188	-49	-200	-15488	4792	-2452	1	-51	31	-2048	-3060	16696	-113	-237	27	129	125	5
-8032	-4464	13024	-95	174	-134	-16468	-1228	-1952	211	33	142	-3164	1464	16788	387	-48	83	-7640	5512	13904	176	-54	-172	-15392	4812	-2396	-22	-71	76	-2052	-3024	16544	-132	-202	-48	129	125	5
-7988	-4492	13092	-70	176	-137	-16440	-1212	-1964	234	57	130	-3092	1468	16712	370	-113	110	-7660	5408	14020	187	-75	-116	-15428	4764	-2468	-8	-75	98	-2104	-3104	16488	-107	-217	-156	128	125	5
-8028	-4524	13100	-153	164	-149	-16436	-1260	-2028	238	101	103	-3064	1432	16656	349	-128	39	-7656	5500	13944	224	-76	-121	-15480	4748	-2368	34	-149	142	-2168	-3156	16452	-85	-218	-234	129	125	5
-8060	-4532	13180	-115	188	-124	-16380	-1352	-2068	214	160	79	-3144	1396	16720	383	-173	40	-7656	5548	14012	268	-54	-80	-15404	4828	-2328	103	-183	151	-2096	-3148	16536	-74	-176	-273	129	125	5
-8076	-4524	13192	-138	165	-138	-16444	-1436	-2044	241	166	117	-3356	1304	16792	350	-88	-20	-7656	5488	14020	297	-106	-61	-15416	4888	-2420	120	-205	172	-2124	-3084	16640	-35	-181	-282	129	125	5
-8040	-4480	13176	-105	154	-161	-16428	-1372	-2056	258	161	109	-3376	1336	16696	338	-69	-34	-7624	5552	13904	281	-57	-74	-15412	4924	-2296	111	-216	162	-2092	-2964	16672	80	-180	-310	129	125	5
-8104	-4488	13180	-139	148	-146	-16412	-1344	-2084	261	90	146	-3472	1400	16772	269	-11	-54	-7584	5560	13956	280	-72	-73	-15448	4952	-2260	73	-208	198	-2072	-2992	16540	185	-160	-281	129	124	5
-8088	-4476	13196	-107	145	-132	-16404	-1380	-2208	228	102	133	-3476	1356	16752	206	-27	-25	-7600	5524	13984	266	-13	-72	-15488	4984	-2204	42	-194	209	-1968	-3060	16648	252	-160	-199	129	124	5
-8128	-4424	13096	-155	177	-183	-16300	-1432	-2204	154	12	130	-3496	1288	16740	262	-15	44	-7640	5588	13924	283	-52	-110	-15380	5016	-2228	67	-98	213	-1980	-3032	16632	401	-109	-41	129	124	5
-8104	-4468	13236	-147	141	-182	-16376	-1404	-2204	68	6	165	-3480	1220	16616	283	-10	140	-7576	5580	13888	223	-41	-117	-15436	4980	-2080	27	-107	170	-1928	-3036	16636	494	-131	121	129	125	5
-8056	-4480	13020	-177	132	-182	-16360	-1404	-2216	-18	8	203	-3384	1276	16748	410	7	216	-7564	5552	13888	226	40	-138	-15468	4880	-2200	-83	-55	179	-1880	-3028	16580	635	-104	209	129	125	5
-8064	-4420	13228	-149	123	-153	-16404	-1344	-2224	-27	-25	179	-3376	1288	16712	511	-39	293	-7620	5668	13876	188	10	-136	-15412	4996	-2144	22	-39	176	-1940	-2948	16512	663	-118	301	129	125	5
-8020	-4476	13124	-186	123	-173	-16372	-1368	-1992	26	-45	187	-3272	1232	16696	499	-15	273	-7636	5508	13856	187	18	-158	-15436	4960	-2288	94	-6	187	-1956	-2952	16536	626	-170	351	129	125	5
-8140	-4580	13032	-218	127	-150	-16388	-1368	-1952	-1	6	201	-3196	1128	16704	564	39	305	-7672	5544	13892	183	-23	-153	-15456	4956	-2212	3	9	173	-1984	-3004	16544	612	-206	398	129	125	5
-8100	-4552	13064	-156	109	-173	-16408	-1432	-1852	10	7	224	-3136	1112	16756	590	63	278	-7628	5604	13848	185	89	-143	-15424	4912	-2288	-93	-22	226	-2028	-3108	16628	661	-247	381	129	125	5
-8036	-4640	13176	-126	133	-135	-16400	-1412	-1980	27	100	269	-3192	1060	16844	652	91	240	-7608	5436	13836	205	30	-158	-15404	4824	-2384	-100	-15	269	-2052	-3056	16564	669	-205	388	129	125	5
-8104	-4600	13136	-29	82	-156	-16368	-1404	-1980	29	172	296	-3128	1084	16760	650	112	163	-7664	5508	13936	247	22	-122	-15436	4840	-2380	2	-54	301	-2052	-3036	16504	653	-273	281	129	125	5
-8092	-4656	13076	9	43	-114	-16372	-1368	-1892	38	221	375	-3072	1108	16800	700	173	87	-7580	5496	13876	312	-20	-92	-15488	4976	-2376	17	-112	375	-2104	-2976	16600	632	-285	180	129	124	5
-8008	-4456	13136	49	18	-61	-16276	-1488	-2044	101	283	422	-2504	292	17172	714	-253	216	-7720	5572	13864	321	39	-91	-15468	4868	-2420	33	-86	378	-1996	-2944	16620	601	-318	109	129	124	5
-8092	-4584	13192	118	32	-90	-16392	-1448	-1972	126	333	502	-3100	900	16780	974	55	8	-7680	5496	13880	319	-14	-42	-15436	4932	-2396	17	-147	428	-2048	-2932	16712	596	-302	128	129	124	5
-8128	-4532	13148	213	-5	-80	-16316	-1452	-2068	170	384	525	-3236	1200	16884	967	237	-142	-7668	5528	13924	383	-23	-18	-15424	5052	-2308	-10	-174	468	-2076	-2736	16580	570	-293	-29	129	124	5
-8068	-4512	13136	260	-26	-46	-16480	-1384	-1964	234	443	588	-3376	1264	16644	884	325	-191	-7648	5576	13940	399	-10	-42	-15428	5036	-2444	-52	-193	485	-2056	-2764	16596	570	-305	-85	129	124	5
-8072	-4440	13188	302	-44	-28	-16404	-1372	-1968	233	467	647	-3332	1384	16656	916	164	-228	-7620	5544	13924	384	24	-6	-15392	5040	-2492	-11	-238	524	-2004	-2728	16656	527	-287	-122	128	124	5
-8120	-4448	13104	359	-72	-53	-16368	-1412	-2080	147	508	656	-3332	1404	16608	952	110	-296	-7624	5636	13956	445	-13	-15	-15404	5072	-2248	234	-273	520	-1976	-2668	16740	527	-262	-180	128	125	5
-8100	-4516	13200	375	-103	-61	-16392	-1340	-2152	144	549	717	-3340	1512	16712	960	145	-297	-7564	5648	13824	449	2	38	-15408	5212	-2336	35	-276	529	-2016	-2528	16772	562	-268	-134	126	125	5
-8048	-4384	13232	459	-103	-52	-16420	-1236	-2280	174	541	696	-3920	1744	16508	791	103	-283	-7672	5696	13840	455	-31	23	-15368	5236	-2228	-33	-287	561	-2040	-2520	16844	652	-261	-85	127	124	5
-7928	-4360	13192	368	-156	-3	-16476	-1204	-2132	152	511	758	-4860	1936	16332	782	-594	70	-7588	5588	13756	424	-32	-14	-15316	5224	-2232	36	-292	504	-1880	-2624	16712	753	-280	29	133	125	5
-8040	-4304	13260	251	-299	63	-16896	-1120	-2368	339	452	1310	-3228	1284	16680	997	-1126	973	-7636	5660	13880	424	-68	29	-15380	5320	-2396	67	-290	433	-2192	-2468	16720	760	-335	31	138	124	5
-8272	-4192	13252	341	-279	-9	-15380	-808	-2712	31	508	849	-1340	2008	16980	1157	-1006	964	-7616	5872	13856	409	-60	3	-15464	5176	-2200	128	-300	541	-1904	-2868	16408	-240	-332	85	139	123	5
-7844	-4184	13384	371	-150	-207	-16476	-1428	-2436	262	571	869	-2768	464	17284	3800	-206	531	-7624	5528	14008	457	-74	-34	-15392	4948	-2228	160	-386	605	-964	-3428	16756	-208	-352	53	140	123	5
-7804	-4484	13312	350	-29	-135	-16384	-1340	-1920	687	522	971	-2780	2124	17076	3280	356	-423	-7668	5592	13760	578	-118	57	-15368	4808	-2388	459	-440	681	-1712	-2752	16524	590	-292	-516	138	123	5
-8236	-4696	13092	588	-10	-118	-15924	-1396	-2060	761	531	865	-2540	3700	16580	1194	724	-1319	-7588	5628	13828	654	-124	135	-15492	5176	-2216	350	-450	701	-1688	-2428	17056	1422	90	-768	132	123	5
-8232	-4504	13192	933	-159	-119	-15820	-1280	-2100	671	608	793	-3108	4280	16772	-924	1063	-2075	-7604	5656	14028	698	-23	170	-15428	5564	-1948	-62	-235	726	-1636	-1904	16852	930	158	-822	126	123	5
-7796	-4176	13196	869	-119	-62	-16884	-372	-2444	-570	867	562	-3772	3940	16480	-2331	953	-2519	-7480	5924	13708	534	122	51	-15196	5776	-2020	-643	-202	662	-1672	-1740	16912	874	185	-819	123	124	5
-7780	-3968	13124	622	-150	42	-16660	-276	-2780	-868	762	575	-3760	2960	16248	-2362	616	-2030	-7644	5816	13772	434	25	47	-15160	5816	-2004	-518	-100	473	-1768	-1276	16756	276	-90	-930	120	124	5
-7956	-4216	13316	366	-41	-56	-16328	-440	-2996	-566	545	441	-3736	2272	15960	-1008	-17	-1076	-7604	5800	13848	366	-16	-26	-15216	5808	-1884	133	-130	328	-1604	-1240	17108	-140	-102	-756	120	125	5
-7712	-3636	13212	217	37	-113	-16544	-420	-3276	266	224	251	-3812	2492	16216	802	-552	-282	-7528	6096	13712	281	-53	-156	-15136	6060	-1940	381	-63	98	-1384	-1120	17036	-192	-169	-332	120	125	5
-7700	-3756	13380	-260	166	-195	-16356	-292	-3240	776	-100	93	-3892	3364	16520	1402	-708	383	-7588	6016	13796	150	-114	-212	-15160	6228	-1704	498	31	-184	-1628	-1096	17164	-318	-245	-30	120	125	5
-7716	-3900	13124	-437	335	-243	-16360	-508	-3180	879	-377	-186	-3732	3968	16576	1048	-575	652	-7488	5944	13668	-118	-51	-319	-15196	6100	-1768	9	126	-404	-1528	-1408	17324	-170	-131	419	121	125	5
-8008	-4152	13388	-590	342	-266	-16340	-392	-2940	576	-616	-475	-3732	3832	16716	-167	-133	645	-7568	5948	13760	-218	51	-381	-15264	5852	-1996	-187	284	-647	-1656	-1648	17144	-52	-42	673	121	126	5
-7876	-4176	13360	-739	444	-328	-16468	-560	-2808	-18	-633	-606	-3736	3096	16784	-1014	193	629	-7572	5828	13704	-298	85	-418	-15228	5628	-2148	-329	348	-734	-1768	-2016	16796	-104	-13	799	121	127	5
-7988	-4200	13252	-864	481	-291	-16336	-748	-2584	-454	-729	-691	-3520	2124	16556	-1244	231	679	-7564	5792	13704	-296	122	-384	-15280	5332	-2096	-358	368	-785	-1832	-2068	16868	-121	-35	792	123	127	5
-8040	-4260	13292	-899	534	-280	-16276	-1112	-2492	-481	-758	-741	-3460	1584	16656	-1137	127	739	-7600	5716	13880	-311	107	-408	-15336	5216	-2280	-168	346	-772	-1956	-2604	16660	-302	-55	876	125	128	5
-8024	-4268	13260	-871	470	-308	-16384	-1244	-2324	-117	-814	-741	-3420	1128	16636	-800	-11	856	-7648	5644	13876	-297	27	-396	-15368	5068	-2376	-26	272	-735	-2004	-2876	16580	-352	-124	843	126	128	5
-8080	-4408	13288	-849	470	-336	-16464	-1292	-2212	179	-841	-679	-3436	1012	16616	-329	-232	995	-7652	5548	13904	-237	56	-385	-15360	5104	-2260	54	239	-664	-1964	-3056	16604	-316	-133	792	127	129	5
-8044	-4428	13236	-791	416	-361	-16388	-1344	-2080	249	-776	-534	-3504	964	16660	-302	-211	979	-7632	5600	13824	-170	10	-321	-15436	4980	-2236	-28	184	-538	-1972	-3128	16564	-182	-143	708	129	129	5
-8176	-4484	13160	-714	367	-318	-16396	-1460	-1848	65	-621	-442	-3152	844	16852	-7	-321	891	-7636	5596	13892	-149	-18	-288	-15452	4896	-2316	-113	204	-479	-1880	-3204	16612	-107	-107	548	130	129	5
-8052	-4520	13096	-574	324	-280	-16384	-1528	-1852	-96	-522	-259	-3196	756	16868	-155	-202	666	-7612	5600	13792	-8	31	-218	-15480	4804	-2436	-75	127	-282	-1964	-3248	16488	-103	-59	421	130	130	5
-8052	-4696	13236	-403	271	-211	-16384	-1628	-1768	-207	-271	-155	-3064	604	16960	-308	-124	453	-7624	5588	13864	-23	45	-225	-15448	4812	-2272	-104	71	-170	-1932	-3252	16460	-90	-39	279	130	130	5
-8020	-4584	13096	-257	191	-158	-16336	-1572	-1872	-157	-180	-33	-3036	420	16864	-227	-13	207	-7624	5508	14032	151	31	-138	-15440	4868	-2332	-74	42	-39	-1928	-3192	16644	33	-47	149	129	130	5
-8080	-4560	13156	-120	139	-176	-16388	-1604	-1992	0	-72	137	-3088	588	16728	-33	9	36	-7592	5660	13916	162	-37	-175	-15400	5036	-2260	-80	26	69	-2036	-2936	16596	21	-32	90	129	130	5
-8112	-4616	13124	37	114	-155	-16380	-1468	-2024	201	52	273	-3084	752	16776	239	56	-117	-7608	5612	13828	218	-23	-139	-15384	5076	-2328	-101	-40	146	-2036	-2768	16608	67	-66	26	127	130	5
-8044	-4384	13176	96	70	-177	-16324	-1408	-1976	226	133	384	-3020	772	16868	452	47	-241	-7636	5664	13876	232	-4	-125	-15428	5044	-2404	-60	-71	180	-2080	-2676	16572	27	-122	-4	126	129	5
-8076	-4484	13216	116	103	-161	-16384	-1372	-1992	159	309	423	-3072	1068	16784	568	128	-353	-7568	5684	13832	302	-69	-111	-15376	5120	-2420	60	-152	211	-2064	-2696	16644	39	-89	-20	124	129	5
-8088	-4540	13180	208	36	-118	-16292	-1304	-1956	188	356	469	-2516	1168	16896	451	216	-461	-7644	5628	13752	332	-124	-33	-15360	5184	-2260	211	-222	206	-2068	-2640	16732	-156	-53	-79	121	129	5
-8040	-4516	13220	297	16	-112	-15868	-1280	-2128	131	393	378	-3064	1200	16700	272	409	-543	-7592	5756	13792	357	-66	-18	-15388	5236	-2320	243	-282	274	-2004	-2624	16776	-113	-31	-182	119	128	5
-8028	-4332	13168	364	-25	-132	-16584	-1328	-2196	139	514	403	-3428	1480	16768	391	385	-661	-7516	5652	13872	380	-41	8	-15364	5200	-2276	156	-281	253	-1976	-2660	16644	-34	-76	-279	118	128	5
-7976	-4420	13312	377	-27	-124	-16452	-1212	-2124	203	464	391	-3536	1352	16716	516	328	-547	-7624	5652	13832	458	-103	24	-15420	5160	-2252	108	-298	306	-1936	-2656	16628	44	-22	-269	118	128	5
-8144	-4312	13260	345	14	-84	-16460	-1144	-2360	186	476	553	-3656	1556	16640	826	271	-487	-7672	5760	13820	436	-114	3	-15408	5228	-2240	159	-306	325	-1820	-2540	16784	91	-70	-258	118	128	5
-8052	-4280	13136	375	-32	-104	-16388	-1208	-2372	239	470	594	-3700	1752	16532	816	-1	-408	-7540	5760	13824	391	-51	16	-15328	5248	-2100	171	-293	331	-1756	-2504	16788	156	-65	-276	118	127	5
-8080	-4332	13260	387	-76	-92	-16308	-1068	-2552	190	401	603	-3664	2088	16544	710	-172	-287	-7592	5808	13852	422	-80	18	-15332	5332	-2036	187	-275	329	-1676	-2468	16804	234	-7	-149	118	127	5
-8080	-4164	13384	307	-88	-113	-16408	-1016	-2516	103	333	582	-3644	2136	16720	602	-149	-216	-7584	5780	13812	422	-62	6	-15264	5452	-2124	172	-220	323	-1688	-2400	16768	153	-35	-79	118	126	5
-8036	-4288	13348	280	-66	-101	-16448	-960	-2600	56	321	556	-3572	2092	16760	673	-66	-208	-7576	5836	13788	363	-35	-42	-15228	5464	-2084	127	-160	288	-1696	-2292	16784	170	-31	-13	119	126	5
-7976	-4216	13192	207	-19	-145	-16428	-956	-2620	46	206	539	-3572	2152	16712	664	45	-179	-7564	5856	13836	300	-56	-97	-15312	5512	-2012	62	-105	237	-1744	-2056	16772	170	-56	44	119	125	5
-7984	-4248	13300	208	25	-132	-16428	-832	-2564	-6	162	466	-3540	2456	16608	605	108	-160	-7508	5924	13828	205	16	-107	-15312	5544	-2000	-38	-59	161	-1584	-2060	16760	107	-62	139	119	125	5
-7924	-4196	13396	96	38	-144	-16324	-788	-2480	12	27	391	-3556	2504	16464	583	119	-160	-7632	5868	13824	175	1	-153	-15196	5640	-2100	-70	-7	86	-1600	-1912	16904	58	-66	179	119	125	5
-7940	-4256	13332	8	72	-188	-16412	-812	-2684	-43	20	286	-3424	2860	16552	64	-6	-101	-7552	5800	13820	88	-21	-149	-15268	5604	-2092	-2	50	-3	-1548	-1836	16840	-79	-24	223	119	125	5
-7876	-4140	13288	-101	80	-182	-16432	-644	-2592	-18	-64	150	-3384	2788	16612	-98	-60	-59	-7572	5832	13820	75	-27	-198	-15192	5608	-1928	62	89	-126	-1672	-1776	16856	-244	-22	246	120	125	5
-7900	-4156	13312	-177	132	-193	-16484	-636	-2712	-44	-121	20	-3264	2536	16632	-17	-115	87	-7548	5808	13732	5	39	-265	-15292	5668	-1896	-53	185	-191	-1656	-1748	16808	-328	-22	290	121	125	5
-7892	-4188	13292	-299	177	-199	-16412	-628	-2560	-43	-182	-89	-3256	2512	16584	101	-167	267	-7572	5900	13820	-8	6	-293	-15240	5644	-2056	-161	238	-301	-1608	-1776	16896	-467	-56	372	121	125	5
-7964	-4180	13416	-409	239	-216	-16348	-736	-2560	-5	-260	-176	-3240	2576	16612	63	-162	334	-7600	5904	13868	-123	41	-328	-15236	5588	-1984	-237	315	-404	-1780	-1900	17020	-549	-85	456	122	125	5
-7992	-4272	13256	-424	264	-235	-16376	-876	-2512	40	-325	-258	-3336	2520	16660	-183	-157	337	-7664	5828	13824	-173	48	-373	-15308	5444	-2248	-197	315	-517	-1880	-2084	16872	-625	-75	486	122	125	5
-8004	-4300	13272	-524	308	-224	-16344	-1032	-2320	71	-345	-365	-3392	2256	16524	-423	-88	308	-7596	5808	13812	-204	34	-344	-15348	5356	-2172	-80	296	-591	-1880	-2244	16752	-713	-38	456	123	126	5
-7976	-4288	13332	-504	327	-226	-16404	-992	-2408	103	-400	-411	-3452	1996	16608	-541	-118	243	-7636	5752	13784	-197	-11	-384	-15340	5264	-2156	-18	274	-627	-1996	-2408	16748	-786	3	474	123	126	5
-8016	-4340	13192	-551	337	-270	-16404	-1064	-2512	54	-450	-436	-3592	1780	16612	-503	-149	262	-7648	5696	13824	-212	-9	-353	-15352	5284	-2280	-81	238	-661	-2060	-2600	16672	-725	-21	420	123	126	5
-8064	-4320	13304	-485	353	-250	-16360	-1228	-2432	-27	-456	-377	-3716	1680	16684	-467	-121	236	-7640	5636	13920	-226	19	-331	-15348	5280	-2268	-127	236	-646	-2216	-2664	16684	-623	29	403	124	127	5
-8124	-4344	13280	-528	370	-281	-16428	-1244	-2436	-45	-534	-366	-3704	1664	16732	-406	-137	260	-7648	5652	13872	-166	9	-308	-15396	5140	-2472	-249	146	-689	-2320	-2820	16708	-464	40	418	124	127	5
-8060	-4440	13296	-490	334	-300	-16384	-1296	-2340	-26	-583	-319	-3588	1612	16680	-496	-128	301	-7648	5692	13952	-112	-5	-241	-15428	4944	-2292	6	118	-659	-2196	-2976	16572	-407	27	451	124	127	5
-8076	-4376	13304	-510	309	-325	-16364	-1252	-2336	-54	-602	-321	-3424	1560	16600	-567	-192	345	-7596	5592	13920	-64	-61	-202	-15376	5044	-2256	206	46	-597	-1976	-3128	16624	-332	-19	436	124	127	5
-8060	-4400	13200	-517	308	-295	-16336	-1208	-2236	-87	-573	-323	-3204	1404	16720	-629	-144	326	-7492	5728	13876	-64	-74	-276	-15392	5056	-2124	8	89	-541	-1880	-3228	16392	-197	-27	456	125	127	5
-7972	-4508	13252	-491	303	-291	-16368	-1236	-2176	-52	-547	-336	-3092	1196	16748	-472	-107	386	-7672	5512	13976	-98	3	-271	-15396	4920	-2244	-41	107	-447	-1740	-3340	16436	-124	-45	519	125	127	5
-8036	-4476	13252	-503	326	-266	-16424	-1208	-2092	-64	-491	-283	-3020	1064	16780	-242	-40	458	-7556	5652	13816	-74	-11	-261	-15420	4732	-2164	-28	165	-300	-1740	-3396	16576	-113	-50	490	126	127	5
-7996	-4516	13180	-484	286	-264	-16428	-1312	-2076	-30	-410	-230	-2972	1012	16752	-20	-55	486	-7516	5576	13880	-89	-11	-239	-15436	4788	-2188	-48	161	-234	-1832	-3364	16456	-75	-35	366	126	127	5
-8084	-4544	13220	-452	310	-198	-16404	-1456	-1832	61	-288	-207	-2992	988	16832	73	-89	442	-7564	5556	13924	15	43	-238	-15456	4796	-2244	-128	121	-62	-1920	-3220	16572	-88	-45	281	126	127	5
-8068	-4612	13100	-316	240	-207	-16360	-1448	-1772	124	-254	-130	-2972	972	16780	57	-108	355	-7560	5528	13800	102	-1	-220	-15396	4828	-2332	-46	121	-22	-2012	-3168	16628	-126	-19	217	126	127	5
-8044	-4524	13072	-255	233	-183	-16376	-1504	-1936	199	-69	-38	-2932	904	16872	53	-110	210	-7624	5552	13800	160	-20	-171	-15440	4924	-2400	76	66	54	-2032	-3120	16588	-143	-24	121	126	127	5
-8156	-4608	13032	-143	210	-171	-16368	-1504	-1960	117	14	9	-3152	780	16852	149	-92	102	-7640	5560	13924	242	-55	-138	-15408	4908	-2288	109	6	127	-2064	-3012	16572	-124	-35	44	126	126	5
-8056	-4440	13224	-53	140	-173	-16332	-1476	-1916	145	101	128	-3196	800	16852	242	-41	37	-7596	5580	13840	228	-32	-130	-15432	4988	-2356	142	-64	150	-2068	-2924	16692	-106	-18	-62	127	126	5
-8136	-4532	13196	36	96	-134	-16376	-1508	-1932	153	233	182	-3220	840	16756	382	-31	-78	-7616	5680	13816	317	-36	-93	-15356	5156	-2256	68	-100	191	-2120	-2860	16540	-64	-54	-116	126	126	5
-8108	-4504	13184	93	65	-142	-16368	-1508	-2188	224	282	279	-3268	1016	16756	493	-46	-166	-7624	5608	13848	280	-41	-85	-15340	5144	-2348	87	-124	183	-2128	-2784	16552	-89	-80	-101	126	126	5
-8052	-4516	13132	147	90	-126	-16404	-1476	-2156	263	294	380	-3364	1112	16880	424	34	-221	-7636	5672	13816	310	-38	-112	-15368	5152	-2312	109	-129	187	-2076	-2760	16728	-97	-91	-133	126	126	5
-8080	-4508	13100	191	53	-125	-16396	-1436	-2100	338	279	419	-3440	1304	16856	454	15	-295	-7692	5620	13880	295	-49	-103	-15428	5164	-2300	155	-134	142	-1988	-2688	16756	-72	-71	-86	125	126	5
-8088	-4516	13152	168	28	-127	-16364	-1292	-2132	249	312	456	-3424	1268	16812	412	15	-275	-7592	5664	13872	282	-61	-65	-15460	5204	-2084	155	-166	110	-1920	-2716	16828	3	-68	-53	125	126	5
-7992	-4448	13152	218	20	-171	-16340	-1244	-2228	158	276	447	-3440	1524	16652	477	64	-283	-7576	5744	13956	263	-30	-89	-15376	5252	-2032	80	-137	96	-1892	-2660	16812	117	-50	7	124	125	5
-8084	-4388	13212	213	17	-111	-16404	-1236	-2212	87	229	466	-3412	1552	16676	515	65	-247	-7632	5732	13796	272	-27	-109	-15356	5208	-2108	42	-144	84	-1932	-2728	16628	206	-58	84	124	125	5
-7988	-4364	13180	199	16	-131	-16384	-1156	-2300	53	249	409	-3420	1856	16772	530	77	-178	-7568	5724	13884	193	-15	-99	-15404	5192	-2140	29	-75	92	-1948	-2772	16608	288	-86	199	124	125	5
-8088	-4348	13256	136	-21	-167	-16408	-1064	-2344	87	184	397	-3412	1812	16608	504	83	-152	-7580	5712	13768	171	-5	-129	-15336	5160	-2104	74	-56	62	-1828	-2796	16680	316	-117	213	124	124	5
-8044	-4360	13196	172	14	-155	-16396	-1136	-2412	115	158	370	-3376	2048	16676	387	28	-69	-7560	5692	13800	180	11	-161	-15368	5204	-1980	28	-62	63	-1816	-2752	16636	281	-146	243	124	124	5
-8000	-4368	13232	27	35	-153	-16344	-1036	-2400	70	103	313	-3292	2060	16604	357	49	16	-7600	5720	13784	184	-4	-171	-15416	5192	-2264	3	-25	52	-1832	-2808	16708	260	-158	248	124	124	5
-7960	-4348	13232	-26	64	-135	-16376	-1052	-2280	50	72	245	-3308	2024	16756	386	28	83	-7676	5732	13784	151	-27	-140	-15332	5108	-2284	15	13	79	-1892	-2736	16640	280	-169	258	125	125	5
-8072	-4284	13236	-67	91	-157	-16372	-1032	-2456	28	-2	212	-3376	1936	16612	413	75	111	-7596	5736	13912	128	6	-128	-15416	5196	-2172	-16	10	103	-1900	-2656	16596	285	-197	228	125	125	5
-8020	-4276	13220	-88	95	-203	-16408	-1080	-2316	6	-32	170	-3364	1952	16684	336	65	158	-7556	5660	13804	163	12	-172	-15380	5208	-2168	-79	20	88	-1984	-2660	16724	290	-231	236	125	125	5
-8004	-4328	13236	-136	137	-182	-16428	-1088	-2372	31	-56	141	-3356	1992	16660	292	28	165	-7576	5704	13812	129	-29	-195	-15396	5204	-2248	-109	31	78	-1892	-2628	16592	286	-209	219	126	124	5
-8056	-4452	13192	-141	141	-232	-16388	-1104	-2360	30	-122	145	-3340	1960	16680	198	3	148	-7600	5708	13800	139	-38	-188	-15356	5188	-2272	-82	15	66	-1804	-2564	16748	198	-213	213	126	124	5
-8080	-4392	13232	-164	145	-194	-16384	-1128	-2348	22	-129	69	-3416	1948	16624	143	54	140	-7560	5684	13804	139	-42	-156	-15420	5244	-2092	-5	-35	5	-1828	-2452	16836	115	-113	226	126	124	5
-8056	-4344	13228	-165	104	-210	-16408	-1116	-2280	-44	-118	48	-3444	1896	16696	113	49	111	-7644	5652	13888	143	-41	-172	-15392	5296	-2248	9	19	-37	-1872	-2368	16892	139	-45	241	127	124	5
-8068	-4372	13164	-146	138	-215	-16396	-1080	-2276	-98	-127	73	-3372	1944	16720	51	53	107	-7608	5756	13816	72	-12	-177	-15344	5392	-2220	-102	24	-114	-1860	-2332	16840	149	7	326	127	124	5
-8068	-4456	13168	-228	168	-218	-16396	-1140	-2352	-61	-217	35	-3376	1968	16576	26	33	115	-7656	5764	13880	36	11	-173	-15280	5388	-2152	-166	81	-202	-1864	-2260	16856	147	-3	373	127	125	5
-7984	-4416	13220	-232	170	-204	-16396	-1144	-2288	-46	-251	-18	-3304	2008	16704	-74	50	132	-7572	5728	13836	16	13	-166	-15360	5232	-2028	-133	121	-260	-1836	-2328	16740	94	-69	445	127	125	5
-8044	-4324	13232	-253	192	-238	-16420	-1096	-2384	-46	-262	-47	-3332	1952	16556	-148	48	163	-7536	5668	13824	-38	42	-213	-15308	5240	-2364	-69	84	-285	-1924	-2360	16732	-9	-149	461	128	125	5
-7980	-4372	13196	-344	192	-229	-16420	-1108	-2228	-70	-268	-75	-3200	1788	16648	-135	-9	237	-7636	5720	13896	-16	20	-247	-15312	5260	-2128	-56	108	-306	-1856	-2552	16724	-61	-187	499	128	126	5
-8008	-4396	13192	-345	192	-223	-16376	-1056	-2192	-80	-279	-82	-3236	1632	16768	-78	-17	305	-7664	5668	13844	-57	-1	-250	-15348	5096	-2368	-83	106	-312	-2032	-2664	16688	-112	-223	447	128	126	5
-8064	-4460	13184	-329	223	-256	-16440	-1224	-2132	-18	-282	-141	-3244	1464	16776	17	-18	321	-7624	5584	13848	-51	-9	-219	-15440	5000	-2368	-25	95	-299	-2028	-2824	16724	-98	-167	419	128	126	5
-8076	-4508	13144	-327	201	-192	-16392	-1252	-2220	32	-280	-114	-3228	1440	16660	39	-37	319	-7612	5672	13896	21	13	-183	-15476	4936	-2348	-49	113	-276	-2088	-2964	16560	-33	-104	328	128	126	5
-8084	-4484	13248	-303	258	-221	-16376	-1304	-2044	72	-230	-92	-3212	1460	16872	39	-53	232	-7564	5564	13852	31	9	-172	-15452	4924	-2444	-84	28	-190	-1860	-3116	16692	59	-43	313	128	126	5
-8108	-4528	13048	-260	184	-219	-16460	-1300	-2188	64	-161	-52	-3224	1320	16836	25	-32	176	-7588	5604	13860	95	22	-187	-15368	4892	-2368	-62	6	-155	-2064	-3080	16528	173	-18	218	129	126	5
-8092	-4480	13124	-190	190	-215	-16396	-1300	-2016	68	-131	2	-3180	1272	16632	41	-46	111	-7620	5592	13904	107	28	-160	-15420	4956	-2240	52	-33	-76	-2116	-3036	16628	165	-90	167	129	127	5
-8084	-4572	13148	-183	185	-212	-16396	-1356	-2028	55	-107	75	-3216	1240	16764	113	-32	87	-7628	5596	13824	186	-21	-127	-15480	4924	-2388	30	-74	34	-2168	-3148	16592	149	-146	130	129	128	5
-8148	-4456	13084	-143	161	-149	-16344	-1332	-1968	114	-21	101	-3252	1132	16840	186	-34	62	-7628	5536	13836	216	-47	-117	-15460	4872	-2352	79	-132	101	-2132	-3080	16552	226	-215	26	127	130	5
-8064	-4468	13100	-91	147	-207	-16408	-1468	-2000	126	-20	111	-3348	1012	16816	234	10	60	-7580	5568	13972	263	-51	-105	-15460	4876	-2460	94	-206	166	-2060	-3060	16580	248	-204	7	129	129	5
-8056	-4492	13232	-44	134	-164	-16380	-1464	-2044	146	36	176	-3336	1088	16784	345	28	51	-7588	5604	13864	359	-83	-40	-15404	4924	-2272	218	-249	249	-2052	-3028	16612	354	-200	-56	129	129	5
-8036	-4468	13128	14	132	-165	-16384	-1460	-2156	173	92	256	-3388	1136	16748	419	45	-22	-7624	5644	13784	379	-96	-33	-15400	4984	-2396	197	-263	316	-1996	-2936	16592	464	-145	-94	129	130	5
-8068	-4420	13116	87	55	-174	-16384	-1420	-2148	185	89	356	-3396	1240	16692	453	37	-59	-7572	5640	13864	406	-84	-10	-15404	5136	-2276	158	-309	326	-2012	-2824	16676	594	-141	-98	129	130	5
-8048	-4424	13216	87	51	-202	-16404	-1368	-2160	115	134	399	-3356	1328	16824	452	82	-95	-7560	5644	13948	490	-57	38	-15348	5140	-2240	128	-290	334	-1876	-2768	16732	662	-93	-73	129	129	5
-8040	-4464	13296	142	-1	-162	-16344	-1264	-2100	95	200	394	-3396	1484	16760	438	106	-147	-7580	5700	13868	434	-88	7	-15352	5188	-2272	151	-313	349	-1800	-2672	16712	577	-82	-13	129	128	5
-8044	-4444	13136	178	3	-139	-16356	-1316	-2100	86	227	428	-3252	1488	16676	453	127	-153	-7596	5768	13848	418	-77	-7	-15380	5236	-2140	157	-271	336	-1876	-2456	16660	555	-124	7	129	128	5
-8000	-4448	13180	173	15	-159	-16368	-1256	-2352	69	203	448	-3296	1564	16688	508	156	-165	-7584	5804	13692	434	-144	-10	-15356	5244	-2060	182	-271	359	-1936	-2396	16672	582	-198	1	129	128	5
-8008	-4408	13172	181	21	-158	-16368	-1160	-2220	123	203	452	-3332	1680	16776	553	158	-158	-7548	5784	13972	383	-138	-2	-15352	5244	-2024	191	-260	309	-1772	-2316	16784	548	-195	22	129	128	5
-8016	-4372	13204	170	25	-144	-16364	-1172	-2216	138	177	441	-3312	1792	16648	516	101	-156	-7520	5816	13820	391	-85	-21	-15412	5332	-1940	177	-259	331	-1808	-2228	16824	512	-128	-38	128	128	5
-8084	-4356	13104	156	24	-160	-16376	-1192	-2180	140	215	433	-3376	1912	16712	478	105	-202	-7580	5808	13756	339	-37	-59	-15340	5404	-2076	116	-163	312	-1612	-2140	16748	381	-158	-28	128	128	5
-8012	-4352	13220	177	21	-153	-16416	-1052	-2336	117	230	398	-3404	1960	16592	417	59	-188	-7496	5880	13800	304	-58	-100	-15288	5432	-1892	17	-143	232	-1680	-1980	16804	354	-140	42	128	128	5
-8036	-4340	13320	129	59	-183	-16380	-1036	-2276	47	177	378	-3308	2008	16792	443	58	-122	-7516	5880	13696	241	-52	-142	-15220	5524	-1976	-70	-95	177	-1764	-2008	16784	221	-169	69	128	128	5
-8052	-4296	13248	76	55	-166	-16396	-956	-2408	51	131	333	-3396	2016	16684	400	61	-100	-7536	5920	13864	189	-1	-140	-15268	5424	-2036	-109	-60	75	-1812	-2032	16820	206	-167	84	128	127	5
-8000	-4316	13328	52	15	-147	-16356	-1068	-2260	64	79	307	-3408	1996	16740	334	76	-38	-7632	5848	13700	140	34	-157	-15324	5492	-2044	-67	-11	23	-1760	-2112	16852	137	-170	116	128	127	5
-8020	-4308	13280	7	93	-155	-16412	-1020	-2448	97	50	246	-3444	1984	16708	294	81	10	-7552	5836	13800	135	-6	-155	-15280	5480	-1976	-32	-22	-12	-1852	-2056	16828	105	-148	212	128	127	5
-7988	-4332	13216	-2	106	-178	-16412	-1092	-2444	104	-10	211	-3544	2076	16736	191	83	-31	-7576	5772	13848	82	3	-195	-15332	5348	-2092	-102	12	-70	-1916	-2108	16816	111	-124	274	128	127	5
-8008	-4336	13180	-72	103	-193	-16468	-1068	-2344	96	-45	240	-3560	2148	16656	125	32	32	-7524	5748	13804	100	109	-193	-15404	5372	-2060	-61	-13	-101	-1996	-2172	16892	76	-135	290	127	127	5
-8024	-4328	13220	-112	94	-168	-16540	-1004	-2448	69	-56	206	-3824	2300	16524	-6	-126	71	-7580	5720	13828	97	-14	-157	-15364	5344	-2056	-36	7	-148	-1940	-2152	16672	97	-159	244	127	127	5
-8052	-4324	13168	-141	65	-189	-16428	-1008	-2348	-10	-150	227	-3684	2248	16536	-190	-253	192	-7528	5820	13812	69	6	-191	-15328	5348	-2048	-36	8	-174	-1884	-2292	16808	53	-218	243	128	127	5
-7944	-4276	13284	-175	70	-191	-16484	-972	-2396	-20	-175	223	-3600	2096	16604	-217	-400	386	-7552	5800	13904	62	-6	-164	-15344	5368	-2156	-81	20	-192	-1968	-2312	16816	-17	-218	231	129	127	5
-7992	-4312	13136	-249	90	-197	-16444	-1052	-2476	2	-246	234	-3428	1884	16704	-52	-406	525	-7512	5744	13964	17	-58	-175	-15396	5244	-2076	-76	10	-182	-1976	-2232	16892	-60	-135	173	131	126	5
-8004	-4300	13228	-307	144	-184	-16344	-996	-2452	98	-270	188	-3092	1880	16728	-15	-372	529	-7580	5736	13808	63	-43	-156	-15308	5292	-2028	19	-23	-215	-1796	-2160	16732	-84	-96	123	133	126	5
-8032	-4356	13208	-320	190	-226	-16180	-1080	-2328	118	-344	39	-2796	1968	16884	52	-176	403	-7568	5804	13740	36	7	-176	-15260	5344	-2080	-69	4	-237	-1780	-2176	16720	-145	-118	100	133	125	5
-7992	-4372	13260	-314	244	-283	-16296	-932	-2180	60	-347	-122	-2776	2012	16916	-123	172	58	-7532	5908	13804	41	20	-200	-15352	5400	-2088	-151	23	-225	-1688	-2344	16756	-179	-151	115	134	125	5
-8048	-4428	13144	-330	266	-202	-16420	-1012	-2060	-64	-297	-171	-2928	1976	16880	-517	401	-123	-7632	5772	13812	27	18	-213	-15412	5352	-1988	-108	74	-259	-1716	-2308	16848	-125	-78	165	134	125	5
-8064	-4488	13196	-314	259	-215	-16352	-1072	-2032	-145	-250	-219	-3084	1624	16672	-766	405	-170	-7516	5716	13744	-4	8	-268	-15412	5288	-2012	20	70	-279	-1816	-2188	16892	-124	45	232	133	125	5
-7992	-4432	13180	-294	231	-207	-16440	-1120	-2096	-143	-200	-220	-3176	1276	16752	-660	236	-115	-7556	5856	13780	-46	36	-263	-15388	5300	-1988	81	144	-287	-1636	-2288	16724	-225	-9	248	132	125	5
-8000	-4388	13172	-303	242	-209	-16496	-1232	-2028	-34	-142	-191	-3400	1136	16616	-243	61	27	-7548	5764	13772	-72	-10	-277	-15332	5292	-1860	-25	157	-291	-1672	-2376	16784	-242	-69	327	131	125	5
-8028	-4492	13224	-228	241	-166	-16432	-1220	-2132	87	-174	-89	-3460	1136	16760	86	-87	177	-7564	5768	13772	-82	4	-289	-15356	5312	-2112	-51	227	-306	-1812	-2456	16724	-255	-120	356	131	125	5
-8068	-4452	13168	-241	200	-178	-16388	-1252	-2160	155	-101	-50	-3412	1212	16620	326	-252	284	-7540	5776	13868	-108	6	-323	-15368	5232	-2028	-75	244	-314	-1924	-2464	16800	-298	-159	303	132	125	5
-8000	-4472	13280	-242	148	-172	-16416	-1304	-2076	144	-78	-5	-3440	1372	16760	344	-287	348	-7644	5692	13820	-74	62	-336	-15420	5128	-2280	-78	216	-281	-1944	-2544	16720	-364	-202	294	132	126	5
-8136	-4488	13176	-221	141	-163	-16444	-1304	-2116	83	-65	52	-3440	1432	16808	260	-205	300	-7592	5708	13816	-61	20	-291	-15412	5080	-2316	-113	167	-243	-1964	-2628	16716	-381	-207	291	132	126	5
-8072	-4444	13104	-130	125	-152	-16452	-1396	-2072	16	-57	99	-3384	1412	16780	140	-89	164	-7692	5744	13820	-66	57	-248	-15368	5024	-2308	-88	139	-231	-1996	-2812	16800	-265	-181	275	131	126	5
-8052	-4524	13296	-104	125	-161	-16416	-1300	-2160	27	-48	152	-3388	1412	16788	73	-23	59	-7596	5628	13880	-4	27	-260	-15420	5048	-2304	-50	89	-175	-1984	-2832	16708	-192	-168	242	131	125	5
-8108	-4456	13188	-98	125	-168	-16352	-1304	-2044	61	-65	163	-3328	1436	16680	15	33	-12	-7652	5568	13856	57	-16	-189	-15432	5028	-2224	-93	59	-192	-1992	-2892	16616	-112	-84	263	131	125	5
-8060	-4444	13028	-77	160	-160	-16420	-1272	-2096	107	-51	193	-3316	1444	16796	123	15	-14	-7636	5624	13800	91	-19	-185	-15416	4964	-2156	-7	39	-79	-2028	-2904	16628	-28	-48	296	131	124	5
-8008	-4472	13188	-55	134	-166	-16424	-1224	-2192	93	-45	206	-3340	1460	16676	168	-34	34	-7672	5652	13868	128	-22	-131	-15440	4952	-2172	-8	-55	-23	-1988	-2944	16556	27	-84	248	130	124	5
-7984	-4464	13144	-76	131	-218	-16380	-1204	-2192	105	5	201	-3256	1500	16588	278	-59	67	-7624	5656	13828	175	-33	-109	-15388	4940	-2208	62	-95	0	-1908	-2804	16612	41	-120	126	130	124	5
-8092	-4464	13256	-82	100	-189	-16372	-1208	-2204	130	-63	196	-3324	1560	16712	284	-93	63	-7568	5656	13876	239	-51	-76	-15428	5000	-2172	121	-95	46	-1888	-2828	16724	27	-92	71	130	124	5
-8028	-4472	13244	-62	93	-185	-16424	-1112	-2040	120	-22	234	-3256	1508	16816	302	-100	84	-7612	5628	13864	237	-14	-120	-15404	5028	-2160	98	-81	86	-1884	-2676	16728	1	-95	12	130	124	5
-8020	-4456	13168	-94	114	-193	-16404	-1136	-2172	79	-4	162	-3164	1628	16904	191	-23	27	-7616	5696	13876	245	-50	-89	-15332	5152	-2084	15	-72	119	-1828	-2540	16804	90	-48	35	130	124	5
-8032	-4376	13232	-99	127	-183	-16408	-1132	-2080	98	-27	169	-3204	1644	16780	161	-18	53	-7632	5768	13772	260	-33	-87	-15360	5192	-2120	-17	-57	183	-1816	-2476	16592	115	-71	47	130	125	5
-8064	-4500	13140	-99	111	-139	-16420	-1108	-2164	96	-8	115	-3228	1544	16748	98	19	36	-7552	5736	13900	223	-20	-80	-15344	5128	-2100	-10	-45	151	-1852	-2444	16860	150	-107	48	130	124	5
-8044	-4432	13252	-83	107	-172	-16392	-1216	-2144	93	7	104	-3224	1484	16756	134	-17	47	-7580	5764	13732	208	-50	-110	-15380	5260	-2032	74	-43	115	-1768	-2408	16696	135	-111	79	130	124	5
-8052	-4464	13284	-86	126	-169	-16384	-1164	-2184	85	8	113	-3296	1460	16816	245	-11	52	-7524	5744	13828	233	-85	-143	-15420	5284	-2088	104	-39	124	-1848	-2236	16712	64	-104	105	130	124	5
-8020	-4432	13068	-84	135	-187	-16384	-1220	-2232	93	37	146	-3392	1508	16740	286	11	45	-7612	5764	13968	190	-42	-162	-15352	5316	-2200	137	-22	67	-1880	-2124	16720	-1	-84	88	130	124	5
-8032	-4464	13180	-34	177	-186	-16392	-1184	-2200	130	36	165	-3300	1556	16744	310	12	35	-7620	5676	13916	168	17	-120	-15348	5380	-2144	56	-25	35	-1820	-2180	16720	-3	-129	100	130	124	5
-8040	-4468	13128	-42	107	-151	-16424	-1144	-2160	80	42	110	-3356	1576	16692	252	-16	-15	-7616	5828	13808	163	-25	-135	-15256	5404	-2140	-83	-23	-14	-1836	-2368	16800	12	-157	178	130	124	5
-8108	-4448	13240	-21	129	-169	-16388	-1196	-2208	88	26	143	-3288	1580	16832	197	43	-15	-7556	5764	13848	120	14	-150	-15352	5292	-2160	-131	21	-72	-1908	-2444	16968	66	-130	262	130	125	5
-8112	-4428	13216	-36	123	-207	-16336	-1216	-2212	84	38	191	-3412	1600	16712	179	51	-1	-7524	5724	13808	86	1	-169	-15384	5156	-2040	14	-9	-80	-1916	-2464	16756	144	-38	279	130	125	5
-8092	-4428	13156	-60	118	-172	-16336	-1152	-2156	90	24	144	-3316	1616	16724	194	80	31	-7636	5688	13828	125	-17	-179	-15424	5152	-2204	155	-34	-107	-1956	-2368	16696	165	-35	262	130	125	5
-8036	-4396	13148	-24	129	-179	-16344	-1164	-2216	56	1	215	-3368	1604	16700	213	52	31	-7568	5752	13752	147	34	-197	-15276	5268	-2160	74	-1	-86	-1804	-2384	16540	117	-131	221	130	125	5
-8016	-4352	13200	-70	114	-188	-16416	-1156	-2272	66	-17	173	-3392	1712	16676	218	14	35	-7612	5764	13744	82	-44	-162	-15348	5248	-2156	-81	22	-102	-1844	-2700	16708	6	-148	282	130	125	5
-8016	-4420	13224	-75	103	-176	-16436	-1136	-2292	75	-53	165	-3340	1752	16696	189	-1	60	-7580	5664	13952	131	-21	-197	-15428	5148	-2160	-95	-24	-37	-1912	-2616	16760	20	-155	218	130	125	5
-8040	-4352	13056	-83	113	-181	-16380	-1052	-2120	98	-19	163	-3224	1744	16668	186	-28	79	-7596	5660	13828	115	-53	-184	-15432	5000	-2192	-10	-3	-13	-1824	-2596	16716	-9	-159	193	130	124	5
-8036	-4380	13280	-104	151	-180	-16368	-1128	-2200	71	-23	108	-3216	1664	16708	188	-9	70	-7576	5700	13740	138	-2	-187	-15364	5096	-2124	104	-22	-19	-1720	-2624	16668	-7	-123	145	130	124	5
-8016	-4432	13212	-107	139	-196	-16444	-1132	-2252	69	-29	118	-3204	1640	16760	221	-10	43	-7552	5688	13800	155	-60	-205	-15428	5108	-2132	97	4	20	-1788	-2592	16748	12	-83	158	130	125	5
-8004	-4472	13216	-133	178	-184	-16448	-1180	-2256	106	-25	121	-3312	1612	16720	178	0	63	-7564	5708	13836	178	6	-161	-15420	5224	-2020	53	10	-12	-1828	-2464	16648	61	-74	210	130	125	5
-8080	-4460	13096	-107	132	-197	-16448	-1212	-2272	118	-6	123	-3352	1652	16660	124	4	38	-7544	5716	13840	162	-3	-166	-15392	5188	-2048	-67	13	9	-1892	-2348	16768	43	-92	199	130	125	5
-8052	-4420	13260	-108	152	-175	-16344	-1200	-2308	92	18	111	-3280	1584	16780	137	24	41	-7560	5764	13980	143	6	-172	-15352	5196	-2180	-118	7	14	-1892	-2384	16664	-37	-150	153	130	125	5
-8048	-4388	13180	-115	123	-169	-16344	-1232	-2136	68	1	129	-3320	1560	16756	170	-2	84	-7624	5708	13824	120	-32	-182	-15340	5228	-2112	-6	17	-4	-1860	-2328	16788	-119	-169	139	130	124	5
-7984	-4460	13152	-57	144	-162	-16344	-1160	-2224	47	12	160	-3376	1524	16696	251	-51	41	-7588	5680	13828	165	-34	-170	-15416	5272	-2092	77	11	-56	-1920	-2420	16808	-123	-89	179	130	124	5
-8004	-4392	13248	-88	141	-179	-16400	-1180	-2180	43	2	141	-3352	1484	16700	233	-33	62	-7552	5744	13820	152	-47	-117	-15360	5276	-2228	71	-28	-47	-1968	-2372	16812	-43	-61	170	130	124	5
-8052	-4452	13272	-77	100	-148	-16328	-1208	-2248	102	-23	183	-3292	1544	16732	268	2	35	-7576	5720	13852	144	-40	-168	-15392	5304	-2132	42	-10	-73	-1928	-2348	16724	71	-30	188	129	124	5
-8056	-4440	13272	-72	152	-197	-16464	-1172	-2268	114	-9	165	-3368	1660	16724	226	17	1	-7568	5764	13796	89	-18	-181	-15348	5260	-2096	-56	24	-56	-1904	-2356	16728	74	-99	181	129	124	5
-8064	-4436	13092	-42	139	-204	-16388	-1136	-2264	104	-14	162	-3328	1648	16796	191	14	2	-7580	5780	13860	92	-11	-212	-15388	5204	-2112	-70	-11	-50	-1908	-2364	16780	29	-92	200	129	124	5
-8008	-4416	13268	-42	136	-168	-16404	-1132	-2284	44	2	159	-3300	1708	16772	144	24	13	-7540	5720	13860	107	-16	-190	-15400	5248	-2092	16	2	-84	-1828	-2536	16664	-34	-147	173	129	125	5
-7988	-4404	13200	-57	136	-170	-16436	-1120	-2248	38	-24	160	-3364	1732	16696	139	19	24	-7600	5644	13820	108	5	-200	-15396	5176	-2160	62	-9	-90	-1888	-2528	16656	-38	-90	163	129	125	5
-8008	-4412	13260	-55	145	-182	-16416	-1156	-2292	81	-39	118	-3412	1680	16648	160	-4	22	-7524	5676	13900	98	-21	-168	-15396	5148	-2132	54	-19	-58	-1812	-2608	16648	1	-66	182	129	125	5
-8108	-4452	13192	-82	131	-193	-16360	-1172	-2272	68	-53	113	-3348	1720	16664	140	-36	33	-7652	5732	13788	123	-3	-188	-15300	5196	-2144	27	2	-79	-1804	-2596	16608	15	-133	213	129	124	5
-8040	-4396	13208	-108	154	-162	-16376	-1132	-2248	93	-73	125	-3256	1732	16788	118	-23	90	-7628	5732	13888	116	-14	-189	-15352	5152	-2092	-5	-4	-65	-1820	-2544	16768	6	-164	225	129	124	5
-8024	-4416	13176	-137	174	-184	-16452	-1116	-2156	88	-103	95	-3260	1640	16740	156	-47	80	-7644	5732	13808	124	-83	-194	-15424	5060	-2132	-21	-30	-53	-1824	-2656	16756	23	-68	196	129	124	5
-8044	-4464	13216	-134	147	-168	-16364	-1132	-2212	78	-63	90	-3216	1648	16772	163	27	103	-7608	5668	13884	124	14	-151	-15428	5136	-2192	21	14	-23	-1904	-2512	16732	45	-48	210	129	125	5
-8064	-4416	13144	-148	167	-205	-16416	-1240	-2160	65	-44	104	-3216	1512	16760	157	14	61	-7612	5712	13888	180	7	-127	-15372	5200	-2148	63	-40	7	-1932	-2380	16748	36	-8	147	129	125	5
-8044	-4476	13212	-147	154	-163	-16404	-1276	-2240	63	-50	110	-3308	1444	16752	129	35	22	-7568	5736	13916	160	59	-166	-15364	5208	-2176	-14	-2	-48	-1872	-2468	16712	82	-57	141	129	125	5
-8012	-4452	13152	-106	122	-189	-16396	-1180	-2188	126	-31	108	-3412	1476	16696	77	-9	33	-7556	5768	13800	122	-23	-132	-15308	5264	-2140	-22	42	-14	-1908	-2500	16816	19	-127	139	129	126	5
-8060	-4428	13192	-62	121	-192	-16424	-1220	-2192	75	24	135	-3328	1400	16756	140	14	6	-7564	5756	13800	129	-41	-139	-15424	5184	-2252	-27	21	-53	-1948	-2484	16788	-6	-100	152	129	126	5
-8016	-4416	13152	-51	99	-151	-16424	-1196	-2164	45	-8	187	-3320	1456	16684	201	-1	47	-7588	5628	13932	153	-47	-136	-15372	5160	-2216	29	-67	-38	-1852	-2472	16800	-66	-132	134	129	125	5
-8068	-4464	13228	-65	115	-166	-16396	-1268	-2156	70	40	210	-3324	1516	16700	272	-43	46	-7576	5680	13888	165	-26	-129	-15380	5136	-2168	97	-44	-4	-1772	-2420	16704	-58	-155	147	129	125	5
-8056	-4448	13148	-37	102	-158	-16348	-1188	-2296	66	7	182	-3380	1676	16680	261	-53	27	-7616	5808	13736	158	3	-128	-15352	5296	-2128	20	-65	0	-1848	-2428	16860	30	-68	158	129	126	5
-8016	-4352	13276	-54	128	-141	-16420	-1176	-2268	76	27	160	-3300	1748	16660	179	-9	-5	-7552	5724	13904	157	-27	-148	-15384	5256	-2084	-15	-40	-22	-1848	-2464	16756	87	-47	165	129	126	5
-8004	-4424	13188	-78	98	-158	-16452	-1124	-2232	44	-19	138	-3296	1708	16632	148	26	1	-7568	5716	13732	182	-33	-120	-15328	5184	-2116	-21	-6	-24	-1824	-2424	16676	84	-98	176	129	127	5
-8004	-4384	13252	-70	110	-161	-16396	-1124	-2028	58	-27	137	-3336	1764	16708	136	77	-3	-7584	5756	13864	109	-59	-147	-15340	5212	-2092	-50	14	-28	-1748	-2512	16648	32	-125	209	129	127	5
-7984	-4448	13136	-82	178	-183	-16380	-1092	-2312	40	9	153	-3304	1676	16652	133	49	31	-7572	5688	13720	126	-46	-163	-15408	5180	-2224	-46	-34	-41	-1904	-2548	16652	-34	-150	217	129	127	5
-7972	-4352	13124	-121	123	-198	-16392	-1120	-2160	101	-73	141	-3440	1636	16588	163	0	91	-7596	5668	13920	145	-9	-155	-15428	5224	-2144	-5	7	-61	-1868	-2444	16696	11	-121	167	129	127	5
-8040	-4440	13200	-69	128	-188	-16420	-1024	-2276	58	-44	150	-3448	1612	16696	164	-26	64	-7640	5688	13928	139	-15	-172	-15332	5232	-2240	98	-13	-33	-1836	-2404	16688	-13	-109	218	129	126	5
-7996	-4412	13208	-121	97	-192	-16364	-1156	-2196	52	-67	137	-3400	1612	16696	162	-33	120	-7544	5780	13748	152	-19	-118	-15340	5224	-1944	13	-18	-63	-1916	-2400	16740	15	-65	217	129	126	5
-8008	-4488	13324	-134	160	-176	-16416	-1192	-2164	69	-67	113	-3332	1600	16732	213	-59	94	-7612	5720	13864	123	-15	-146	-15328	5236	-2012	-69	11	-24	-1976	-2352	16756	57	-91	182	129	125	5
-7984	-4400	13160	-121	144	-181	-16376	-1236	-2228	71	-75	150	-3292	1516	16732	142	0	60	-7620	5768	13764	131	16	-175	-15364	5208	-2068	-82	-11	-37	-1792	-2428	16704	69	-114	152	129	125	5
-8044	-4428	13244	-106	140	-188	-16380	-1168	-2272	101	-44	152	-3248	1616	16728	108	27	39	-7588	5680	13792	102	17	-193	-15336	5152	-2228	24	4	-48	-1840	-2488	16708	7	-165	118	129	125	5
-8012	-4440	13188	-93	138	-182	-16388	-1140	-2280	57	-15	177	-3300	1592	16788	133	-8	30	-7604	5700	13868	104	-18	-164	-15384	5264	-2176	77	-25	-46	-1780	-2552	16716	-106	-177	175	129	125	5
-8012	-4436	13060	-54	111	-169	-16488	-1152	-2196	67	-15	132	-3208	1568	16716	134	-5	35	-7600	5740	13796	117	8	-199	-15416	5212	-2044	31	-29	-28	-1912	-2548	16848	-78	-155	194	129	125	5
-8024	-4376	13280	-78	111	-174	-16428	-1124	-2104	50	22	143	-3220	1548	16760	227	-44	38	-7560	5744	13928	132	-12	-186	-15428	5232	-2124	18	2	-53	-1908	-2544	16860	47	-48	193	129	125	5
-8020	-4412	13212	-95	124	-163	-16400	-1112	-2268	79	-6	122	-3312	1544	16844	238	9	40	-7540	5708	13860	151	3	-201	-15348	5248	-2080	-10	-8	-39	-1888	-2448	16664	49	1	161	129	126	5
-8028	-4440	13204	-148	108	-162	-16332	-1176	-2156	118	-20	141	-3292	1584	16736	200	0	43	-7600	5676	13872	148	-3	-152	-15312	5268	-2080	-13	27	-28	-1856	-2500	16664	148	-41	189	129	126	5
-7992	-4472	13212	-78	137	-129	-16416	-1184	-2176	104	6	146	-3372	1664	16688	139	28	17	-7604	5776	13808	142	-34	-190	-15288	5168	-2240	-61	27	-66	-1916	-2488	16636	65	-120	186	129	125	5
-8044	-4436	13208	-69	132	-156	-16352	-1128	-2308	97	-43	167	-3316	1620	16808	137	-23	7	-7544	5692	13808	112	-36	-146	-15448	5216	-2084	-14	-44	-8	-1880	-2464	16784	-22	-105	137	129	125	5
-8064	-4356	13340	-67	117	-167	-16416	-1108	-2236	71	-6	144	-3260	1576	16720	178	-42	53	-7572	5708	13932	133	-37	-148	-15340	5236	-2140	46	-9	-5	-1996	-2404	16772	-83	-126	131	129	125	5
-8084	-4388	13248	-96	124	-150	-16356	-1112	-2292	47	-3	152	-3320	1580	16688	195	-23	47	-7592	5704	13792	103	4	-156	-15392	5284	-2176	23	-39	-52	-1816	-2448	16748	-116	-99	150	129	125	5
-7992	-4412	13272	-97	120	-189	-16380	-1196	-2084	90	-10	140	-3328	1628	16704	236	-32	43	-7584	5740	13760	136	-43	-127	-15312	5300	-2140	-16	-10	-70	-1848	-2488	16864	-33	-117	184	129	126	5
-8048	-4408	13124	-103	127	-213	-16348	-1124	-2168	88	-52	123	-3356	1612	16560	179	-27	47	-7580	5788	13832	109	-31	-153	-15384	5208	-2232	-20	-12	-53	-1912	-2564	16820	71	-46	196	129	126	5
-8004	-4420	13204	-66	152	-177	-16360	-1144	-2192	95	-63	116	-3308	1640	16728	163	-3	17	-7568	5716	13768	140	-37	-139	-15388	5212	-2208	35	-32	-57	-1888	-2424	16672	82	-62	242	129	126	5
-8012	-4420	13112	-86	161	-216	-16388	-1104	-2200	96	-14	112	-3256	1672	16660	125	22	-35	-7592	5724	13836	116	13	-204	-15392	5228	-2120	81	-23	-53	-1888	-2424	16704	72	-71	202	129	126	5
-7948	-4476	13232	-83	135	-197	-16360	-1128	-2216	68	-31	130	-3264	1580	16780	56	92	-4	-7536	5732	13936	118	-10	-171	-15404	5176	-2092	8	-1	-57	-1876	-2452	16672	12	-104	171	128	125	5
-7984	-4428	13264	-89	151	-168	-16392	-1148	-2308	69	-34	70	-3248	1604	16612	97	79	40	-7568	5700	13860	126	20	-167	-15416	5176	-2072	-22	-26	-32	-1852	-2476	16736	-3	-120	168	128	125	5
-8036	-4384	13256	-101	140	-177	-16360	-1124	-2172	62	15	116	-3348	1604	16672	112	13	13	-7592	5764	13900	108	-25	-126	-15376	5148	-2196	-4	27	-58	-1836	-2472	16680	-41	-128	175	128	125	5
-8024	-4408	13304	-108	139	-142	-16428	-1076	-2192	106	-21	132	-3364	1512	16716	153	-71	75	-7596	5708	13832	91	-47	-163	-15416	5216	-2196	-20	15	-26	-1848	-2472	16680	-26	-101	152	128	125	5
-8064	-4404	13244	-67	121	-176	-16408	-1144	-2220	67	-23	109	-3336	1496	16652	212	-63	128	-7580	5744	13976	148	-38	-155	-15388	5256	-2160	10	-7	-18	-1868	-2456	16808	15	-85	154	128	125	5
-7984	-4392	13200	-52	131	-184	-16456	-1200	-2100	62	-28	150	-3260	1536	16768	279	-80	128	-7520	5732	13916	121	-70	-162	-15316	5200	-2100	23	2	-33	-1804	-2428	16604	-47	-143	181	128	126	5
-7988	-4384	13216	-88	135	-169	-16328	-1252	-2228	98	-8	129	-3292	1544	16848	256	-38	101	-7636	5808	13888	155	-12	-150	-15356	5296	-2176	-10	33	-45	-1792	-2464	16784	-20	-181	219	128	126	5
-8044	-4412	13288	-61	131	-176	-16416	-1172	-2220	94	-38	127	-3212	1584	16804	179	18	62	-7580	5760	13768	116	-61	-166	-15372	5204	-2068	-78	-19	-43	-1876	-2484	16840	-24	-109	240	128	126	5
-8044	-4404	13212	-56	117	-200	-16324	-1116	-2204	103	-10	142	-3292	1600	16836	160	-23	71	-7576	5748	13808	144	-48	-133	-15468	5184	-2156	2	-8	-73	-2048	-2544	16752	5	-153	245	128	126	5
-8028	-4384	13252	-71	126	-222	-16368	-1180	-2268	54	-34	106	-3328	1568	16808	81	80	14	-7568	5712	13804	143	-10	-152	-15476	5128	-2112	35	-27	-48	-1968	-2400	16792	55	-26	158	128	126	5
-8032	-4444	13152	-49	120	-186	-16352	-1164	-2184	62	-40	157	-3244	1556	16708	98	101	-10	-7552	5704	13860	131	-11	-158	-15380	5152	-2264	95	-36	-62	-1832	-2440	16732	70	-18	177	128	125	5
-7956	-4380	13220	-73	104	-148	-16428	-1156	-2140	33	-9	110	-3316	1616	16612	96	30	10	-7592	5736	13984	138	-35	-148	-15300	5272	-2112	6	-39	-3	-1812	-2416	16692	46	-90	173	127	125	5
-7960	-4452	13212	-46	127	-191	-16408	-1152	-2236	79	-15	167	-3380	1632	16736	182	-18	-1	-7552	5816	13784	147	-56	-177	-15364	5304	-2108	-79	-1	-29	-1912	-2444	16700	49	-128	185	127	125	5
-8000	-4360	13208	-103	127	-175	-16372	-1092	-2172	64	-7	122	-3340	1608	16700	182	-29	93	-7568	5772	13900	116	-17	-128	-15440	5192	-2040	-67	-24	-57	-1896	-2452	16804	68	-87	181	127	125	5
-7988	-4420	13256	-97	117	-148	-16444	-1144	-2220	91	-51	149	-3372	1544	16540	223	-50	95	-7596	5780	13872	132	-37	-193	-15332	5164	-2076	63	3	-11	-1780	-2388	16792	-20	-149	131	127	125	5
-8036	-4428	13252	-131	141	-169	-16400	-1184	-2272	91	-67	145	-3332	1676	16780	244	-71	75	-7588	5740	13824	153	-26	-165	-15348	5184	-2176	87	4	-56	-1804	-2420	16704	-88	-134	142	127	125	5
-7996	-4404	13228	-101	128	-175	-16404	-1116	-2184	113	-20	121	-3280	1664	16732	185	-36	89	-7596	5752	13800	142	-7	-163	-15356	5276	-2060	3	-16	-59	-1728	-2512	16720	-72	-148	204	127	125	5
-7952	-4400	13140	-127	157	-200	-16380	-1136	-2136	48	-36	123	-3284	1672	16756	152	-36	63	-7604	5748	13844	86	5	-176	-15340	5236	-2240	-44	31	-39	-1852	-2524	16780	24	-174	248	128	126	5
-7996	-4428	13128	-149	147	-190	-16400	-1156	-2156	41	-22	140	-3288	1664	16612	173	18	40	-7568	5732	13780	160	-68	-160	-15360	5152	-2256	-54	15	-51	-1996	-2476	16908	60	-90	231	128	125	5
-8040	-4460	13260	-103	140	-188	-16352	-1112	-2308	47	-3	143	-3144	1568	16632	153	26	42	-7576	5676	13748	152	-18	-194	-15480	5172	-2164	42	-2	-65	-1900	-2456	16780	125	20	249	126	126	5
-8032	-4396	13128	-79	129	-191	-16372	-1132	-2140	47	-26	102	-3224	1604	16768	158	70	30	-7520	5684	13828	151	51	-166	-15384	5200	-2080	79	-17	-24	-1860	-2360	16752	107	-26	172	127	125	5
-8088	-4436	13108	-98	129	-224	-16404	-1172	-2204	112	-46	108	-3344	1604	16836	129	79	12	-7572	5720	13804	147	6	-165	-15332	5216	-2120	3	-23	-46	-1768	-2444	16564	63	-55	158	127	125	5
-8096	-4408	13252	-57	112	-181	-16388	-1056	-2172	78	2	94	-3304	1596	16812	91	69	17	-7568	5692	13828	156	3	-165	-15356	5300	-2124	-71	27	-5	-1824	-2496	16724	1	-76	168	127	125	5
-8024	-4436	13244	-122	136	-202	-16412	-1144	-2228	30	-14	127	-3276	1588	16676	114	-31	33	-7584	5692	13860	104	-42	-189	-15416	5180	-2196	-40	7	6	-1928	-2480	16632	-45	-90	151	127	125	5
-8056	-4380	13216	-106	130	-179	-16404	-1132	-2172	67	-10	133	-3332	1548	16684	183	-34	59	-7516	5788	13836	98	41	-214	-15348	5248	-2140	34	7	-24	-1824	-2424	16752	-79	-99	183	127	125	5
-8048	-4360	13180	-98	119	-149	-16404	-1136	-2320	62	-8	148	-3304	1544	16724	213	-25	61	-7544	5684	13904	88	41	-166	-15416	5164	-2048	38	5	-70	-1820	-2432	16728	-34	-80	154	127	125	5
-8052	-4432	13164	-81	149	-188	-16424	-1136	-2220	104	36	123	-3364	1516	16684	216	-53	105	-7532	5704	13876	94	-10	-186	-15344	5180	-2220	43	-14	-26	-1816	-2484	16684	10	-102	191	128	125	5
-8036	-4392	13228	-63	116	-167	-16392	-1172	-2120	114	-56	123	-3308	1564	16732	196	-15	86	-7584	5720	13948	106	26	-214	-15376	5220	-2080	12	77	-31	-1808	-2464	16660	39	-107	209	128	125	5
-8016	-4468	13284	-110	107	-141	-16396	-1184	-2108	110	-19	144	-3288	1592	16764	174	19	69	-7564	5652	13868	111	31	-182	-15340	5168	-2196	-35	4	-63	-2000	-2504	16688	13	-111	192	128	125	5
-8040	-4428	13104	-110	133	-179	-16380	-1120	-2220	62	-33	133	-3308	1540	16740	162	26	30	-7480	5772	13800	117	30	-141	-15368	5108	-2272	-10	-17	-30	-1948	-2504	16764	35	-46	153	128	125	5
-8024	-4428	13268	-83	162	-180	-16396	-1120	-2160	37	-3	102	-3280	1656	16664	141	21	20	-7564	5704	13744	151	24	-161	-15424	5172	-2148	-11	-11	-48	-1896	-2440	16736	-12	-43	148	128	125	5
-8040	-4408	13112	-68	126	-165	-16324	-1176	-2160	41	-1	129	-3316	1640	16736	135	41	4	-7532	5740	13760	155	-33	-149	-15372	5216	-2176	0	-30	-50	-1876	-2460	16668	73	-99	171	127	125	5
-7964	-4384	13208	-81	129	-170	-16356	-1172	-2272	43	-2	157	-3320	1536	16584	124	28	-19	-7580	5832	13824	151	-26	-137	-15332	5240	-2072	4	-17	2	-1900	-2500	16700	95	-53	197	127	125	5
-8032	-4436	13292	-77	118	-200	-16432	-1156	-2200	103	-52	156	-3344	1532	16704	131	2	-6	-7536	5784	13796	146	-5	-149	-15356	5196	-2236	13	-58	5	-1928	-2416	16780	102	-76	192	127	125	5
-8032	-4448	13280	-79	95	-149	-16436	-1084	-2172	46	-28	138	-3300	1556	16616	193	-1	36	-7640	5716	13836	151	-41	-148	-15372	5104	-2164	42	-57	-16	-1860	-2428	16768	13	-129	171	127	125	5
-8072	-4392	13164	-80	141	-197	-16436	-1076	-2068	82	2	136	-3348	1524	16652	222	-31	59	-7572	5724	13772	135	-70	-152	-15360	5228	-2056	28	-70	-17	-1824	-2468	16700	3	-164	107	127	125	5
-8036	-4440	13208	-104	122	-191	-16368	-1120	-2112	96	-39	130	-3304	1636	16676	196	-20	76	-7576	5740	13840	171	-2	-120	-15392	5244	-2176	24	-39	-39	-1816	-2476	16816	-47	-129	149	127	124	5
-8056	-4412	13104	-95	139	-193	-16380	-1144	-2144	69	-53	118	-3284	1604	16796	175	15	61	-7552	5760	13792	111	-14	-177	-15324	5204	-2172	12	-17	-14	-1808	-2504	16768	5	-81	180	127	124	5
-8080	-4408	13224	-34	136	-187	-16432	-1156	-2272	53	-56	119	-3380	1604	16660	154	5	13	-7568	5800	13900	141	16	-178	-15348	5228	-2100	-20	-51	-50	-1820	-2416	16644	33	-64	211	127	124	5
-8048	-4444	13188	-73	119	-194	-16412	-1180	-2240	62	-25	130	-3264	1568	16812	147	33	58	-7568	5692	13880	138	-10	-138	-15356	5228	-2120	-46	-18	-26	-1856	-2408	16760	42	-124	218	127	124	5
-7976	-4432	13208	-107	129	-172	-16360	-1116	-2236	43	-12	135	-3316	1512	16696	165	7	49	-7548	5672	13896	104	-7	-180	-15316	5208	-2084	1	-9	-13	-1880	-2376	16740	5	-127	201	127	125	5
-8060	-4448	13144	-102	145	-176	-16424	-1144	-2220	29	6	98	-3216	1540	16704	193	17	69	-7544	5720	13856	153	18	-142	-15404	5192	-2092	40	-38	-28	-1928	-2404	16740	1	-103	186	127	125	5
-7976	-4468	13188	-94	143	-166	-16376	-1128	-2260	48	-75	159	-3272	1556	16752	199	23	49	-7572	5732	13880	153	3	-158	-15344	5196	-2096	56	2	-26	-1804	-2336	16676	-31	-107	195	127	125	5
-8064	-4512	13220	-93	150	-163	-16384	-1200	-2184	50	-27	115	-3304	1592	16780	189	0	47	-7620	5680	13860	135	-27	-136	-15360	5252	-2188	4	-8	-67	-1912	-2344	16800	-26	-116	168	127	125	5
-7932	-4392	13168	-102	158	-161	-16368	-1168	-2220	107	-28	162	-3316	1588	16772	185	12	61	-7588	5724	13792	108	-19	-170	-15392	5196	-2128	-90	-27	-21	-1920	-2468	16796	12	-75	196	127	124	5
-7996	-4448	13296	-85	141	-225	-16408	-1164	-2300	92	-25	134	-3348	1648	16680	146	-11	21	-7588	5776	13748	110	15	-188	-15452	5232	-2152	18	3	-34	-1836	-2532	16600	25	-74	180	127	124	5
-8072	-4412	13144	-85	117	-172	-16360	-1168	-2216	85	-53	139	-3320	1564	16784	193	7	52	-7568	5780	13848	139	-3	-173	-15388	5180	-2192	-2	-26	-54	-1820	-2480	16724	32	-101	187	127	124	5
-7992	-4424	13164	-81	142	-158	-16384	-1116	-2260	45	-12	121	-3336	1628	16620	183	15	73	-7576	5716	13892	101	9	-174	-15412	5164	-2296	102	-24	-60	-1892	-2344	16752	32	-107	169	127	124	5
-8056	-4356	13240	-95	99	-177	-16396	-1084	-2272	55	11	142	-3424	1588	16812	162	9	76	-7508	5728	13820	143	-21	-183	-15340	5264	-2072	34	43	-31	-1880	-2376	16640	-25	-91	170	127	125	5
-8032	-4400	13200	-107	132	-148	-16480	-1192	-2172	117	-62	125	-3324	1608	16704	173	-22	55	-7608	5756	13884	129	24	-160	-15352	5208	-2148	28	9	-41	-1816	-2404	16784	-5	-88	157	127	125	5
-8024	-4420	13120	-123	130	-191	-16400	-1088	-2140	102	-59	133	-3292	1596	16716	131	-25	18	-7616	5788	13856	115	17	-220	-15320	5172	-2140	-65	2	-36	-1856	-2496	16692	65	-99	187	127	125	5
-7992	-4428	13128	-118	157	-189	-16408	-1084	-2212	86	-30	131	-3276	1628	16808	154	3	68	-7544	5808	13736	106	20	-168	-15368	5128	-2212	4	3	-36	-1884	-2444	16796	56	-70	149	127	125	5
-8064	-4436	13172	-105	119	-190	-16432	-1132	-2168	86	-53	115	-3324	1592	16652	155	-4	83	-7604	5744	13884	129	-53	-149	-15404	5244	-2288	77	-14	-5	-1852	-2436	16700	7	-83	144	127	124	5
-8028	-4400	13176	-102	165	-175	-16484	-1216	-2216	69	-47	147	-3228	1500	16656	168	-17	22	-7540	5712	13804	134	8	-202	-15352	5236	-2140	103	4	-34	-1892	-2424	16788	30	-80	111	127	124	5
-8028	-4412	13176	-118	142	-202	-16428	-1136	-2208	101	-49	169	-3216	1548	16596	173	3	58	-7560	5676	13916	138	-32	-145	-15416	5272	-2032	42	-2	-52	-1868	-2452	16788	3	-85	136	127	124	5
-8088	-4348	13228	-127	164	-194	-16356	-1140	-2212	74	-40	139	-3296	1596	16772	141	39	40	-7584	5728	13756	130	-1	-158	-15380	5176	-2208	-40	11	-59	-1900	-2428	16740	-18	-109	171	127	124	5
-8024	-4444	13156	-111	138	-203	-16392	-1136	-2152	69	-1	141	-3304	1528	16932	129	31	57	-7564	5772	13776	151	-8	-172	-15324	5176	-2200	-21	35	-44	-1760	-2400	16708	-19	-104	177	127	125	5
-7988	-4492	13192	-63	124	-208	-16412	-1144	-2220	82	-8	130	-3316	1496	16756	126	-28	63	-7592	5732	13804	111	-57	-160	-15312	5116	-2148	26	25	1	-1912	-2476	16800	29	-103	183	127	125	5
-8056	-4412	13124	-102	118	-164	-16352	-1128	-2144	84	-41	130	-3240	1520	16620	171	-13	53	-7584	5680	13828	124	-12	-194	-15388	5160	-2148	37	-8	-42	-1836	-2428	16648	10	-84	195	127	125	5
-8040	-4432	13160	-103	129	-174	-16420	-1164	-2172	121	-15	136	-3304	1508	16692	184	7	77	-7576	5772	13836	96	-9	-196	-15312	5232	-2120	58	6	-30	-1860	-2496	16728	38	-89	207	127	125	5
-8004	-4400	13100	-91	162	-164	-16364	-1144	-2160	86	-36	179	-3316	1560	16692	204	-9	55	-7588	5780	13864	127	-5	-205	-15352	5240	-2024	-17	17	-42	-1844	-2396	16688	-1	-103	200	127	124	5
-8052	-4420	13232	-112	139	-182	-16388	-1156	-2232	74	-6	122	-3340	1536	16712	187	-40	107	-7624	5832	13828	116	-34	-207	-15392	5292	-2204	-41	1	-16	-1940	-2408	16772	-23	-95	170	127	124	5
-8060	-4364	13260	-67	121	-190	-16440	-1132	-2252	51	34	110	-3388	1540	16804	217	-7	73	-7636	5760	13840	92	14	-220	-15324	5208	-2164	-16	-1	-22	-1848	-2412	16840	-13	-119	191	127	124	5
-8048	-4404	13212	-107	112	-176	-16376	-1120	-2104	89	-72	145	-3364	1612	16664	203	0	61	-7572	5748	13864	140	-41	-162	-15416	5208	-2260	18	-29	-55	-1904	-2464	16752	17	-87	205	127	124	5
-8056	-4444	13220	-106	117	-219	-16392	-1128	-2196	50	-33	151	-3308	1648	16556	176	40	28	-7524	5752	13868	144	-28	-204	-15420	5224	-2220	38	-2	-34	-1936	-2444	16712	25	-89	180	127	124	5
-8048	-4404	13120	-89	100	-209	-16392	-1164	-2272	71	35	116	-3292	1632	16676	170	3	37	-7552	5676	13916	150	-58	-176	-15396	5204	-2196	53	-37	-35	-1940	-2460	16808	1	-93	179	127	125	5
-8068	-4420	13200	-70	155	-204	-16420	-1136	-2264	68	-46	133	-3324	1644	16640	182	38	57	-7564	5740	13888	129	3	-134	-15344	5204	-2164	18	-36	-34	-1900	-2368	16744	39	-73	190	127	125	5
-8020	-4404	13172	-68	102	-203	-16440	-1100	-2404	74	-58	134	-3296	1644	16832	159	-4	46	-7632	5728	13832	147	-11	-142	-15360	5228	-2172	-28	-6	-23	-1884	-2432	16760	27	-113	156	127	125	5
-8036	-4416	13184	-78	122	-170	-16420	-1148	-2152	95	-42	123	-3324	1608	16716	158	-24	61	-7592	5760	13900	151	-23	-184	-15376	5148	-2200	6	-17	-39	-1864	-2464	16764	42	-83	173	127	124	5
-7960	-4456	13272	-126	163	-196	-16432	-1136	-2180	103	7	161	-3308	1560	16660	189	-1	77	-7580	5752	13840	142	-24	-144	-15444	5256	-2132	27	-15	-12	-1812	-2412	16580	-26	-101	137	127	124	5
-8036	-4456	13172	-94	136	-148	-16404	-1044	-2176	59	-35	86	-3336	1584	16608	184	8	34	-7568	5724	13756	114	-20	-144	-15388	5252	-2224	13	-38	-54	-1828	-2392	16884	0	-104	172	127	124	5
-8004	-4496	13208	-106	135	-190	-16368	-1124	-2280	59	-21	92	-3268	1624	16812	166	-2	34	-7572	5740	13912	107	-24	-173	-15364	5280	-2016	-16	4	-29	-1864	-2476	16740	-4	-94	173	127	124	5
-8080	-4404	13220	-78	148	-167	-16368	-1120	-2232	60	-38	128	-3288	1560	16668	151	-16	34	-7520	5716	13828	134	-28	-163	-15312	5180	-2136	4	-24	-33	-1816	-2488	16824	8	-62	150	127	124	5
-8040	-4436	13248	-97	119	-202	-16452	-1112	-2172	68	-20	123	-3300	1592	16744	152	-14	15	-7544	5732	13784	124	-44	-160	-15356	5252	-2064	21	36	-29	-1836	-2384	16712	8	-81	163	127	124	5
-7992	-4452	13216	-109	127	-127	-16412	-1104	-2220	71	-18	96	-3272	1532	16736	151	29	42	-7620	5660	13912	110	3	-172	-15372	5280	-2068	-42	3	-44	-1852	-2416	16776	2	-100	153	127	125	5
-8016	-4440	13208	-77	115	-172	-16376	-1076	-2216	68	-44	125	-3308	1632	16688	194	37	24	-7512	5748	13736	113	-10	-159	-15408	5208	-2172	-21	27	-63	-1888	-2460	16780	-19	-89	197	127	125	5
-7996	-4416	13120	-87	147	-178	-16388	-1152	-2128	56	-27	148	-3372	1572	16728	193	2	41	-7556	5764	13876	118	-33	-181	-15356	5224	-2108	3	37	-47	-1924	-2500	16804	-10	-109	164	128	125	5
-8068	-4368	13216	-101	142	-186	-16436	-1140	-2248	92	-44	128	-3316	1552	16708	150	-36	44	-7516	5716	13832	120	-29	-164	-15404	5212	-2152	16	26	-44	-1868	-2516	16816	16	-123	204	128	124	5
-8012	-4452	13212	-125	114	-189	-16360	-1132	-2264	44	-92	134	-3324	1664	16748	172	-19	64	-7592	5752	13732	121	-49	-151	-15364	5168	-2204	4	7	-63	-1876	-2400	16740	4	-86	183	128	124	5
-7976	-4364	13200	-130	127	-208	-16436	-1168	-2176	68	-3	126	-3316	1516	16700	194	-26	58	-7500	5672	13872	146	-9	-186	-15376	5160	-2248	17	-27	-3	-1912	-2400	16792	30	-80	195	127	124	5
-8012	-4432	13152	-125	146	-197	-16412	-1160	-2236	69	-30	144	-3332	1612	16700	163	-14	46	-7564	5768	13848	121	18	-168	-15376	5204	-2112	20	-10	-76	-1880	-2452	16744	28	-82	186	127	124	5
-8048	-4380	13268	-89	138	-183	-16428	-1136	-2224	36	2	139	-3260	1580	16656	147	-1	49	-7572	5708	13808	93	5	-157	-15356	5236	-2168	-10	10	-71	-1856	-2456	16752	9	-100	141	127	124	5
-8084	-4408	13240	-123	133	-181	-16324	-1144	-2108	48	-28	113	-3328	1592	16608	169	0	66	-7544	5736	13980	124	18	-165	-15364	5208	-2168	11	-36	-18	-1844	-2484	16712	-14	-84	174	128	125	5
-8060	-4440	13152	-110	114	-176	-16364	-1132	-2248	46	-57	123	-3340	1556	16712	136	-8	62	-7592	5716	13800	130	-75	-159	-15304	5224	-2200	41	-30	-42	-1848	-2396	16672	-9	-103	164	128	125	5
-7940	-4364	13204	-107	164	-176	-16360	-1168	-2124	54	-34	105	-3336	1664	16688	119	26	60	-7564	5736	13840	88	-18	-190	-15396	5268	-2140	18	-22	-25	-1912	-2468	16840	4	-85	174	128	125	5
-8028	-4476	13132	-113	146	-142	-16428	-1192	-2208	72	-23	123	-3248	1608	16576	168	2	65	-7568	5752	13860	121	31	-160	-15328	5200	-2184	7	11	30	-1884	-2424	16800	22	-103	161	128	124	5
-7984	-4428	13176	-82	133	-173	-16396	-1152	-2200	50	-15	121	-3308	1540	16668	175	7	71	-7652	5720	13740	120	-25	-144	-15356	5216	-2112	13	-12	-6	-1864	-2360	16820	31	-105	177	128	124	5
-8004	-4424	13276	-84	140	-195	-16368	-1144	-2236	72	-38	127	-3272	1508	16800	164	2	48	-7588	5752	13884	143	-63	-149	-15384	5232	-2160	8	18	-23	-1868	-2360	16740	-11	-92	139	128	124	5
-8020	-4436	13148	-116	136	-175	-16408	-1216	-2204	91	-37	139	-3320	1560	16724	184	-29	73	-7564	5732	13876	138	-26	-157	-15364	5272	-2144	7	-29	10	-1900	-2348	16752	-21	-93	177	128	124	5
-8000	-4448	13204	-89	140	-186	-16400	-1272	-2260	114	-51	118	-3324	1592	16772	172	-41	23	-7628	5708	13864	108	42	-140	-15332	5232	-2088	33	-14	-38	-1888	-2436	16680	48	-91	183	128	124	5
-8044	-4440	13168	-78	109	-154	-16392	-1212	-2096	95	-34	140	-3292	1516	16736	160	-11	47	-7544	5800	13856	136	-51	-188	-15344	5232	-2120	3	-1	-38	-1788	-2424	16664	9	-108	165	128	124	5
-8024	-4392	13184	-90	144	-179	-16372	-1200	-2124	68	-19	179	-3336	1592	16732	185	31	52	-7580	5760	13948	131	7	-151	-15356	5204	-2116	-2	-41	-66	-1876	-2556	16920	3	-79	191	128	125	5
-8036	-4444	13308	-56	140	-175	-16396	-1120	-2220	64	8	166	-3396	1668	16740	175	3	27	-7568	5680	13828	141	9	-181	-15432	5184	-2192	50	8	-39	-1956	-2500	16828	31	-49	188	128	125	5
-7932	-4428	13204	-105	117	-164	-16460	-1108	-2188	38	-34	120	-3284	1636	16720	171	48	34	-7580	5724	13884	150	-55	-130	-15360	5192	-2052	33	18	5	-1888	-2452	16724	-7	-96	178	127	124	5
-8064	-4388	13184	-101	149	-202	-16424	-1112	-2188	31	-62	142	-3288	1572	16664	162	6	49	-7600	5744	13844	166	0	-143	-15340	5156	-2184	-9	7	-39	-1816	-2436	16744	-3	-89	188	128	124	5
-7936	-4436	13268	-89	159	-155	-16364	-1104	-2268	57	-67	122	-3268	1596	16716	148	6	58	-7596	5712	13904	112	-42	-154	-15372	5224	-2176	-39	21	-6	-1876	-2440	16656	-4	-116	150	128	124	5
-8036	-4332	13132	-123	148	-182	-16384	-1180	-2264	80	-62	158	-3328	1592	16696	174	-6	46	-7608	5752	13860	125	-34	-162	-15392	5104	-2224	-19	15	-33	-1892	-2488	16776	-1	-101	183	125	125	5
-8020	-4448	13224	-101	131	-177	-16416	-1176	-2284	104	-25	107	-3384	1564	16792	209	-33	92	-7480	5804	13748	144	-36	-139	-15368	5264	-2100	21	-18	-16	-1964	-2336	16792	-23	-124	162	127	124	5
-8036	-4416	13180	-88	125	-170	-16380	-1176	-2284	65	-37	109	-3264	1540	16676	188	-25	87	-7544	5740	13784	135	-28	-140	-15356	5248	-2120	16	-35	-49	-1832	-2360	16740	-25	-95	170	128	124	5
-8028	-4396	13168	-80	132	-174	-16332	-1156	-2264	76	-59	149	-3424	1600	16516	206	-1	77	-7528	5688	13776	143	7	-182	-15388	5224	-2072	19	-6	-59	-1900	-2476	16728	-13	-116	196	128	124	5
-8024	-4464	13252	-71	122	-164	-16400	-1164	-2148	59	-39	111	-3336	1560	16828	199	24	72	-7620	5788	13856	82	-5	-187	-15376	5248	-2112	5	-11	-90	-1808	-2412	16724	-7	-129	172	129	124	5
-8016	-4416	13264	-132	127	-184	-16372	-1100	-2100	35	-22	155	-3240	1552	16836	154	-33	66	-7576	5700	13928	122	-76	-156	-15412	5144	-2068	3	8	-95	-1820	-2440	16672	4	-105	216	129	124	5
-8080	-4440	13188	-105	109	-211	-16376	-1180	-2108	70	-27	149	-3228	1588	16744	163	-12	43	-7568	5720	13816	123	-20	-169	-15344	5140	-2208	9	-1	-74	-1864	-2480	16824	-15	-41	216	129	124	5
-8024	-4412	13192	-74	124	-188	-16488	-1104	-2200	93	-67	144	-3228	1624	16724	170	43	17	-7564	5768	13868	141	15	-166	-15388	5136	-2104	31	-6	-57	-1880	-2460	16736	-5	-29	203	129	124	5
-8052	-4456	13260	-103	149	-165	-16432	-1084	-2152	81	-15	125	-3240	1600	16676	204	81	25	-7592	5740	13880	146	-19	-150	-15400	5220	-2204	0	-19	3	-1876	-2544	16660	87	-88	198	128	124	5
-8112	-4428	13176	-87	138	-197	-16452	-1140	-2104	89	-48	111	-3252	1576	16628	174	59	25	-7588	5784	13832	161	-16	-175	-15332	5152	-2152	19	2	-4	-1936	-2504	16696	47	-89	222	128	124	5
-8004	-4472	13108	-120	145	-160	-16372	-1120	-2108	88	2	101	-3324	1540	16696	137	-18	16	-7524	5780	13800	142	-10	-196	-15364	5172	-2060	41	-28	-1	-1860	-2464	16752	39	-133	155	128	124	5
-8028	-4380	13256	-77	129	-194	-16424	-1172	-2128	115	-14	146	-3360	1600	16732	132	3	36	-7540	5744	13924	160	17	-186	-15380	5168	-2180	72	40	2	-1900	-2368	16748	-12	-123	115	128	125	5
-8028	-4376	13116	-81	121	-162	-16376	-1132	-2256	74	-42	140	-3372	1556	16696	168	-75	56	-7560	5632	13816	167	-33	-176	-15408	5208	-2228	4	-57	48	-1928	-2380	16828	-66	-94	99	128	125	5
-8060	-4424	13228	-66	100	-161	-16376	-1208	-2236	46	7	161	-3372	1440	16636	245	-69	77	-7572	5736	13812	161	-21	-129	-15348	5252	-2248	-9	6	-14	-1848	-2440	16816	-42	-104	108	128	125	5
-7988	-4376	13288	-110	137	-173	-16420	-1140	-2232	57	-14	161	-3296	1568	16764	265	-9	62	-7556	5780	13796	149	14	-166	-15344	5324	-2180	-31	11	-26	-1852	-2384	16784	3	-90	172	128	125	5
-8000	-4476	13252	-106	136	-158	-16412	-1200	-2132	78	-10	144	-3276	1556	16656	301	-3	62	-7560	5756	13832	134	-31	-167	-15344	5272	-2192	-25	1	-66	-1844	-2444	16900	12	-84	204	128	124	5
-8032	-4428	13224	-48	128	-154	-16380	-1180	-2132	96	-32	146	-3308	1664	16804	125	25	11	-7612	5740	13812	139	-35	-134	-15364	5212	-2184	2	-49	-66	-1892	-2432	16844	52	-64	224	128	124	5
-8020	-4440	13216	-107	119	-183	-16432	-1108	-2368	106	-43	167	-3288	1624	16656	104	42	-6	-7588	5740	13900	141	-32	-150	-15384	5204	-2180	25	-20	-68	-1856	-2384	16840	14	-85	212	128	124	5
-8036	-4408	13284	-57	118	-153	-16392	-1096	-2352	39	5	149	-3284	1636	16696	148	11	17	-7548	5712	13924	110	-44	-181	-15384	5188	-2160	64	-24	-46	-1828	-2420	16780	-20	-87	184	128	124	5
-8004	-4360	13156	-87	137	-167	-16380	-996	-2304	25	-17	114	-3328	1624	16708	221	-3	51	-7568	5776	13984	125	-13	-145	-15376	5248	-2056	49	-3	-41	-1844	-2420	16740	-49	-101	190	128	124	5
-8016	-4408	13228	-93	130	-185	-16396	-1124	-2312	67	-26	135	-3268	1600	16780	230	17	85	-7560	5772	13784	118	-30	-183	-15372	5248	-2152	-31	29	-42	-1852	-2440	16764	-38	-102	169	128	125	5
-7952	-4492	13172	-93	164	-154	-16388	-1184	-2188	72	-35	99	-3256	1636	16768	189	13	69	-7620	5768	13904	106	-30	-186	-15372	5268	-2156	-25	-9	-44	-1884	-2404	16740	-22	-74	166	128	125	5
-8028	-4460	13216	-112	146	-148	-16384	-1124	-2164	129	-20	107	-3296	1628	16744	145	-15	76	-7604	5780	13876	119	-31	-202	-15368	5176	-2092	-7	-26	-13	-1844	-2480	16688	-18	-114	203	128	124	5
-8008	-4408	13152	-136	118	-196	-16404	-1168	-2232	87	-1	110	-3344	1588	16752	117	17	19	-7576	5772	13848	125	-18	-187	-15396	5224	-2248	50	7	-12	-1912	-2376	16716	-9	-103	190	128	124	5
-8084	-4424	13176	-111	157	-191	-16380	-1188	-2152	68	-8	98	-3296	1560	16892	116	6	57	-7588	5736	13856	123	14	-204	-15372	5260	-2188	49	-1	-13	-1920	-2460	16676	-12	-103	193	128	124	5
-8048	-4380	13188	-116	137	-146	-16352	-1116	-2168	30	1	90	-3364	1580	16684	179	8	35	-7556	5760	13908	121	14	-173	-15392	5224	-2012	34	-17	-35	-1880	-2468	16652	-49	-97	199	128	124	5
-8020	-4444	13224	-80	136	-184	-16500	-1188	-2096	31	-40	78	-3340	1560	16668	219	10	82	-7476	5740	13904	139	-9	-157	-15400	5180	-2140	20	30	-84	-1932	-2440	16784	-23	-128	182	128	124	5
-7996	-4396	13216	-113	126	-197	-16452	-1172	-2188	68	-26	106	-3348	1516	16664	195	17	97	-7572	5748	13896	129	-33	-124	-15320	5296	-2212	-101	-19	-46	-1864	-2488	16724	17	-114	195	128	124	5
-8052	-4436	13140	-103	128	-215	-16384	-1172	-2200	96	-84	153	-3300	1576	16648	172	23	46	-7632	5760	13768	87	-53	-177	-15396	5180	-2272	-74	21	-48	-1880	-2544	16688	40	-98	168	128	124	5
-7980	-4396	13220	-86	139	-197	-16356	-1168	-2260	113	-66	119	-3320	1608	16784	151	-2	28	-7532	5680	13828	152	-13	-166	-15368	5152	-2204	29	-21	-38	-1880	-2504	16680	-11	-83	211	128	124	5
-7992	-4356	13252	-91	110	-200	-16332	-1092	-2160	67	-16	108	-3304	1624	16660	104	24	53	-7568	5704	13900	129	3	-166	-15364	5228	-2304	35	-55	-43	-1912	-2472	16784	53	-77	207	128	125	5
-8048	-4456	13160	-97	142	-196	-16408	-1168	-2052	69	-36	175	-3304	1540	16740	140	25	50	-7592	5744	13924	160	-48	-182	-15412	5244	-2156	64	-22	-36	-1816	-2532	16604	27	-106	190	128	124	5
-8024	-4400	13180	-100	113	-168	-16384	-1128	-2160	68	-52	124	-3280	1544	16684	222	15	38	-7560	5724	13852	126	-22	-148	-15328	5188	-2084	1	-27	-58	-1848	-2472	16748	-5	-105	170	128	124	5
-8000	-4416	13208	-66	103	-185	-16372	-1112	-2064	-3	23	145	-3224	1584	16800	208	-6	33	-7560	5728	13812	128	16	-148	-15376	5224	-2160	-43	18	7	-1788	-2460	16752	-31	-110	151	128	124	5
-7956	-4428	13128	-61	107	-162	-16392	-1052	-2024	99	41	134	-3336	1604	16800	175	-28	37	-7596	5712	13860	129	22	-176	-15360	5164	-2116	-5	-12	30	-1844	-2460	16748	6	-106	168	128	124	5
-8028	-4396	13228	-76	123	-220	-16384	-1148	-2284	92	-4	152	-3296	1592	16788	183	-50	61	-7576	5728	13864	162	-7	-125	-15404	5284	-2140	9	3	20	-1860	-2448	16816	4	-109	139	128	124	5
-8040	-4492	13280	-78	137	-180	-16448	-1156	-2188	73	-2	132	-3304	1620	16724	156	19	42	-7564	5784	13960	145	-31	-173	-15332	5276	-2084	-3	-30	-32	-1828	-2388	16768	-1	-72	180	128	124	5
-8024	-4396	13268	-115	156	-175	-16364	-1132	-2256	87	-8	166	-3312	1604	16704	158	-8	37	-7572	5728	13796	121	-43	-180	-15384	5244	-2204	3	39	-42	-1864	-2348	16764	14	-105	207	128	124	5
-8040	-4388	13156	-101	126	-209	-16432	-1148	-2096	62	-11	145	-3352	1556	16688	161	-6	53	-7568	5720	13828	130	-10	-157	-15408	5184	-2036	-29	-4	-61	-1884	-2396	16704	9	-105	209	128	125	5
-8012	-4432	13276	-96	127	-200	-16396	-1172	-2216	70	-17	116	-3380	1604	16724	188	15	47	-7592	5792	13860	95	-13	-167	-15324	5208	-2164	18	12	-60	-1872	-2324	16688	-23	-114	227	128	125	5
-8060	-4364	13200	-86	140	-170	-16380	-1188	-2152	45	-14	159	-3328	1592	16684	194	-12	52	-7516	5772	13876	112	-23	-162	-15304	5264	-2276	-10	8	-31	-1916	-2380	16760	-4	-106	198	128	124	5
-7996	-4424	13196	-88	139	-182	-16380	-1180	-2180	71	-43	138	-3288	1696	16748	222	25	78	-7580	5764	13836	113	5	-183	-15408	5264	-2124	4	-20	-76	-1856	-2436	16676	-6	-82	202	128	124	5
-8124	-4376	13260	-121	152	-192	-16468	-1136	-2276	90	-58	148	-3324	1648	16696	196	7	62	-7604	5736	13820	132	-3	-189	-15352	5196	-2232	-31	-7	-48	-1868	-2520	16772	10	-89	166	128	124	5
-7988	-4400	13176	-118	149	-192	-16380	-1140	-2204	50	-22	170	-3344	1624	16640	182	12	49	-7560	5692	13816	141	-31	-142	-15368	5160	-2240	11	-15	-54	-1900	-2468	16676	-9	-119	192	128	124	5
-8036	-4360	13260	-91	146	-170	-16412	-1176	-2156	70	-33	113	-3308	1564	16708	147	22	63	-7556	5676	13812	149	4	-171	-15404	5132	-2140	36	-4	-43	-1824	-2440	16712	-7	-94	190	128	124	5
-8016	-4436	13180	-133	142	-205	-16432	-1100	-2284	64	-54	151	-3312	1580	16836	139	-10	64	-7532	5732	13900	113	7	-144	-15352	5220	-2120	30	-1	-69	-1852	-2396	16772	-5	-53	152	128	124	5
-8028	-4444	13220	-99	127	-201	-16388	-1140	-2268	65	-60	110	-3340	1568	16780	173	-3	45	-7564	5700	13900	149	-8	-139	-15364	5232	-2092	-4	5	-30	-1804	-2440	16764	-21	-79	152	128	124	5
-8004	-4440	13080	-121	117	-177	-16316	-1120	-2240	55	-67	116	-3232	1512	16688	140	-27	40	-7624	5768	13812	129	-3	-159	-15364	5212	-2200	-10	5	-34	-1852	-2452	16724	-44	-86	178	128	124	5
-8032	-4348	13240	-115	134	-168	-16384	-1128	-2232	45	-8	114	-3288	1584	16676	152	-13	52	-7484	5716	13788	96	-9	-155	-15388	5216	-2052	-5	-3	-31	-1880	-2436	16804	-18	-84	171	128	124	5
-8052	-4380	13180	-77	111	-202	-16380	-1128	-2192	81	-62	108	-3240	1576	16724	164	-33	45	-7576	5776	13876	112	-1	-181	-15408	5188	-2112	13	-23	-40	-1892	-2420	16696	-18	-97	205	128	124	5
-8024	-4424	13208	-127	129	-179	-16376	-1172	-2284	48	-34	135	-3368	1552	16672	171	17	64	-7576	5712	13836	129	-67	-189	-15392	5184	-2136	49	-12	-40	-1828	-2348	16740	13	-101	179	128	124	5
-8020	-4444	13224	-73	125	-171	-16376	-1128	-2204	88	-11	96	-3316	1512	16696	191	11	36	-7564	5720	13868	94	-26	-169	-15392	5248	-2120	9	21	-11	-1872	-2360	16764	-26	-92	191	128	124	5
-8056	-4432	13160	-89	128	-176	-16432	-1184	-2288	73	6	146	-3348	1576	16680	219	18	38	-7616	5732	13932	132	-16	-170	-15368	5240	-2192	19	-26	-28	-1908	-2460	16696	1	-99	182	128	124	5
-8032	-4456	13284	-95	143	-177	-16356	-1164	-2200	79	-20	104	-3324	1576	16804	191	9	38	-7592	5772	13848	122	-26	-173	-15352	5172	-2196	-30	12	-39	-1932	-2432	16828	2	-105	179	128	125	5
-8044	-4424	13204	-96	134	-181	-16376	-1144	-2224	47	4	126	-3372	1636	16656	180	-9	24	-7580	5684	13792	124	-37	-199	-15364	5208	-2228	2	2	-49	-1900	-2480	16828	25	-90	172	127	125	5
-8008	-4408	13200	-91	154	-191	-16396	-1176	-2204	52	-39	128	-3340	1556	16712	156	-7	46	-7608	5800	13732	140	-39	-199	-15380	5168	-2152	-24	-9	-43	-1924	-2512	16700	45	-94	173	127	125	5
-7980	-4420	13236	-96	118	-217	-16440	-1180	-2212	64	-35	105	-3384	1564	16676	178	-4	58	-7576	5692	13804	102	10	-154	-15336	5192	-2204	-10	12	-51	-1896	-2492	16692	61	-81	221	128	125	5
-7976	-4488	13304	-106	102	-133	-16396	-1140	-2180	64	-42	153	-3336	1580	16640	219	-1	71	-7528	5732	13768	104	21	-181	-15420	5196	-2156	43	16	-26	-1828	-2520	16620	54	-112	167	127	125	5
-8008	-4392	13332	-116	146	-196	-16368	-1176	-2220	100	-67	167	-3284	1564	16716	182	-21	44	-7512	5744	13892	150	2	-173	-15404	5136	-2092	56	-32	-48	-1916	-2492	16792	35	-96	149	127	124	5
-8056	-4480	13112	-102	106	-199	-16472	-1156	-2224	46	-18	147	-3396	1584	16552	193	-4	30	-7580	5664	13804	128	-11	-166	-15304	5216	-2088	61	-34	-40	-1884	-2400	16760	2	-116	146	127	124	5
-8056	-4420	13272	-120	117	-166	-16428	-1152	-2200	6	-46	95	-3388	1564	16788	146	15	50	-7556	5820	13852	157	-71	-178	-15360	5264	-2176	39	-33	-18	-1876	-2384	16752	-20	-99	135	127	124	5
-8004	-4476	13260	-125	149	-187	-16396	-1212	-2256	44	-2	147	-3348	1652	16836	155	16	37	-7592	5756	13936	106	37	-194	-15320	5236	-2132	0	-13	-37	-1852	-2416	16764	16	-81	144	127	124	5
-8032	-4424	13144	-88	127	-186	-16356	-1100	-2220	58	-31	134	-3300	1560	16768	140	30	49	-7588	5764	13740	157	24	-155	-15392	5212	-2156	-8	36	-5	-1880	-2408	16716	32	-74	168	127	125	5
-7988	-4444	13168	-29	121	-175	-16400	-1192	-2288	80	-35	119	-3320	1532	16664	185	-25	58	-7608	5752	13804	151	0	-171	-15336	5228	-2136	2	-4	-16	-1820	-2460	16692	40	-91	170	127	125	5
-8052	-4404	13212	-92	122	-179	-16352	-1152	-2184	121	-72	115	-3384	1584	16636	185	-3	54	-7592	5744	13788	122	-6	-141	-15384	5188	-2184	45	-1	-10	-1840	-2388	16880	62	-88	183	127	125	5
-8052	-4400	13200	-107	146	-201	-16436	-1096	-2200	89	-71	113	-3328	1596	16724	214	32	70	-7596	5696	13884	147	-28	-149	-15416	5272	-2128	52	-35	-12	-1884	-2424	16776	1	-113	202	126	125	5
-8008	-4408	13252	-119	149	-174	-16476	-1136	-2152	82	-40	160	-3360	1636	16676	170	47	69	-7576	5700	13828	124	-3	-181	-15336	5236	-2184	34	-14	-21	-1912	-2376	16728	-2	-112	195	126	124	5
-7972	-4436	13160	-66	101	-194	-16424	-1060	-2252	68	4	142	-3280	1640	16716	151	-6	29	-7576	5656	13828	128	-24	-130	-15352	5228	-2060	-5	8	-54	-1884	-2408	16736	10	-88	213	126	124	5
-8020	-4400	13164	-108	119	-161	-16368	-1116	-2228	62	-36	151	-3316	1556	16756	119	-2	16	-7596	5748	13828	101	-32	-178	-15404	5180	-2172	-24	7	-50	-1876	-2556	16764	52	-95	165	126	124	5
-8044	-4392	13216	-101	135	-167	-16416	-1084	-2260	57	-70	121	-3304	1568	16816	154	-10	39	-7548	5740	13872	120	0	-169	-15380	5180	-2180	28	31	-59	-1848	-2500	16784	45	-85	173	126	125	5
-8012	-4460	13160	-98	123	-204	-16404	-1080	-2204	81	-46	126	-3312	1548	16808	184	6	29	-7540	5804	13852	115	2	-155	-15324	5192	-2140	50	6	-30	-1860	-2444	16744	8	-106	130	126	125	5
-7952	-4408	13348	-110	150	-168	-16408	-1176	-2236	83	-16	119	-3368	1656	16708	166	-13	61	-7516	5756	13728	115	-17	-173	-15352	5252	-2172	13	16	-63	-1840	-2404	16744	-10	-94	154	126	125	5
-8008	-4424	13228	-100	135	-154	-16396	-1112	-2160	85	-56	126	-3348	1672	16672	150	-15	64	-7576	5684	13832	140	14	-147	-15340	5216	-2116	-21	14	-40	-1872	-2492	16660	-17	-78	162	126	125	5
-8072	-4372	13284	-126	143	-195	-16364	-1104	-2288	68	-51	112	-3324	1516	16732	115	5	63	-7552	5760	13860	132	-2	-200	-15316	5304	-2168	10	-7	-48	-1880	-2412	16804	-35	-104	170	126	125	5
-7952	-4412	13140	-128	144	-170	-16368	-1152	-2200	63	-43	112	-3344	1476	16652	138	-35	67	-7516	5704	13916	121	17	-170	-15376	5220	-2160	-13	9	-39	-1884	-2420	16792	9	-116	146	125	125	5
-8028	-4376	13200	-104	146	-209	-16392	-1168	-2184	43	7	138	-3336	1560	16668	152	1	96	-7560	5752	13824	145	-23	-142	-15372	5228	-2052	27	-28	-18	-1912	-2464	16788	-15	-79	194	125	125	5
-8028	-4392	13200	-132	144	-180	-16316	-1148	-2140	67	-54	100	-3324	1544	16684	197	-8	63	-7568	5692	13784	127	0	-189	-15332	5244	-2208	14	-5	-63	-1920	-2412	16696	-18	-94	186	125	125	5
-8016	-4452	13180	-131	144	-175	-16372	-1120	-2196	51	-54	130	-3324	1532	16760	134	5	64	-7556	5736	13836	116	30	-174	-15424	5244	-2268	-7	7	-38	-1852	-2464	16828	33	-94	147	125	125	5
-8052	-4432	13180	-107	115	-176	-16388	-1152	-2312	79	-56	132	-3288	1576	16720	166	-1	74	-7540	5716	13852	133	26	-178	-15444	5208	-2188	-20	-17	-71	-1872	-2480	16696	7	-120	179	125	125	5
-8076	-4444	13168	-92	118	-179	-16456	-1192	-2184	65	-35	131	-3324	1544	16708	177	20	43	-7540	5804	13848	122	-12	-181	-15416	5196	-2148	10	-24	-33	-1848	-2480	16752	12	-84	182	125	125	5
-8008	-4404	13200	-89	125	-192	-16432	-1136	-2152	67	-28	160	-3304	1560	16600	161	-7	40	-7508	5740	13852	151	-28	-147	-15428	5128	-2172	22	-43	-70	-1848	-2500	16728	2	-134	189	125	125	5
-8048	-4368	13176	-61	128	-171	-16392	-1160	-2252	64	-28	169	-3256	1552	16748	175	11	27	-7612	5748	13812	122	-59	-148	-15360	5168	-2088	34	-16	-79	-1868	-2536	16736	9	-110	139	125	125	5
-7984	-4412	13208	-67	138	-180	-16404	-1136	-2156	65	18	106	-3336	1636	16708	184	3	27	-7524	5728	13848	174	12	-182	-15396	5168	-2080	15	-14	-45	-1868	-2468	16788	6	-73	131	125	125	5
-7968	-4404	13104	-106	139	-190	-16404	-1144	-2188	80	-4	124	-3308	1592	16676	180	27	34	-7472	5732	13784	158	3	-156	-15352	5168	-2092	14	4	10	-1820	-2436	16752	-11	-98	169	124	125	5
-7956	-4372	13156	-123	130	-198	-16412	-1172	-2112	87	20	117	-3272	1620	16644	166	3	68	-7576	5756	13832	130	-10	-152	-15384	5212	-2176	-10	6	-19	-1884	-2404	16788	0	-123	115	125	124	5
-8012	-4420	13192	-88	135	-180	-16400	-1128	-2228	83	1	142	-3324	1632	16680	163	-33	42	-7560	5724	13908	144	-15	-169	-15344	5180	-2132	-37	18	-1	-1856	-2468	16712	5	-74	173	125	124	5
-7960	-4436	13188	-122	143	-180	-16432	-1156	-2152	115	6	132	-3344	1604	16772	165	36	37	-7572	5768	13864	152	-22	-161	-15372	5148	-2220	41	-7	15	-1816	-2396	16760	12	-97	144	125	124	5
-8072	-4424	13208	-93	139	-167	-16420	-1084	-2120	88	-18	163	-3368	1564	16792	176	-10	54	-7612	5676	13852	165	-33	-131	-15456	5232	-2220	15	-19	-30	-1860	-2388	16772	-8	-102	184	125	125	5
-8028	-4416	13172	-107	138	-148	-16376	-1080	-2216	78	-28	148	-3368	1604	16716	223	-22	69	-7616	5748	13932	158	-43	-151	-15400	5232	-2108	1	21	8	-1880	-2368	16776	-20	-82	144	126	125	5
-8052	-4424	13128	-70	131	-206	-16384	-1192	-2260	89	-10	145	-3380	1524	16812	203	36	58	-7512	5728	13856	114	14	-151	-15392	5276	-2100	-45	-10	-8	-1908	-2412	16808	-52	-104	134	125	125	5
-8012	-4452	13208	-102	140	-211	-16440	-1096	-2124	64	-47	161	-3332	1688	16728	152	42	58	-7572	5696	13832	104	8	-117	-15428	5236	-2044	-5	-19	11	-1904	-2428	16672	-45	-97	131	126	125	5
-8004	-4416	13184	-64	141	-171	-16456	-1112	-2176	66	-33	150	-3344	1664	16696	170	-3	51	-7560	5808	13832	127	9	-141	-15388	5236	-2188	-25	20	-6	-1896	-2464	16676	14	-90	171	125	124	5
-7968	-4504	13208	-78	115	-206	-16356	-1124	-2192	61	-4	104	-3372	1600	16692	144	1	66	-7564	5732	13892	119	-19	-146	-15372	5252	-2100	1	5	-35	-1832	-2492	16816	58	-103	143	126	124	5
-8008	-4392	13172	-116	143	-178	-16468	-1184	-2180	101	-29	97	-3320	1500	16636	126	0	64	-7556	5736	13704	132	-36	-157	-15408	5224	-2076	7	-10	-38	-1880	-2452	16652	46	-103	160	126	124	5
-8076	-4456	13204	-103	115	-184	-16420	-1140	-2168	63	0	145	-3308	1580	16720	149	12	44	-7548	5800	13824	146	-32	-167	-15340	5168	-2116	50	6	-24	-1880	-2408	16624	35	-98	164	126	124	5
-7964	-4400	13176	-110	157	-152	-16416	-1128	-2144	60	-23	135	-3284	1572	16884	193	-19	36	-7480	5712	13844	160	-26	-177	-15368	5232	-2072	29	-34	-61	-1812	-2420	16724	-18	-93	178	125	124	5
-8004	-4488	13228	-91	123	-212	-16296	-1088	-2148	29	-30	158	-3288	1472	16800	186	-2	68	-7632	5752	13852	130	52	-178	-15352	5260	-2192	-15	0	-103	-1856	-2316	16836	-26	-83	202	125	124	5
-8040	-4408	13212	-133	126	-210	-16396	-1152	-2236	51	-40	119	-3288	1612	16684	167	7	71	-7496	5752	13856	142	21	-155	-15412	5212	-2212	-41	3	-65	-1868	-2460	16704	-14	-101	212	126	125	5
-8076	-4400	13204	-124	162	-176	-16456	-1160	-2304	35	-10	140	-3288	1596	16692	198	-5	62	-7644	5792	13952	143	-4	-158	-15496	5192	-2140	5	13	-86	-1780	-2512	16620	24	-106	207	125	125	5
-8000	-4484	13252	-106	159	-174	-16428	-1176	-2184	56	-37	114	-3312	1584	16724	165	-26	51	-7560	5732	13876	142	40	-186	-15408	5220	-2056	16	25	-40	-1808	-2488	16684	14	-106	204	125	124	5
-8000	-4400	13324	-71	107	-181	-16360	-1172	-2240	88	-56	113	-3364	1548	16664	171	9	70	-7580	5752	13812	103	21	-155	-15388	5188	-2088	33	-42	-49	-1896	-2468	16716	30	-111	192	125	124	5
-8012	-4412	13116	-125	125	-159	-16420	-1208	-2216	109	-26	99	-3340	1612	16720	180	-25	55	-7552	5784	13848	122	-50	-140	-15360	5244	-2272	5	16	-29	-1892	-2376	16692	16	-98	213	126	124	5
-7972	-4452	13236	-114	174	-205	-16416	-1176	-2116	71	-50	129	-3252	1564	16684	160	28	66	-7556	5724	13892	130	-5	-166	-15416	5240	-2000	-16	14	-63	-1964	-2464	16788	-20	-125	188	126	124	5
-8096	-4388	13260	-78	155	-181	-16416	-1120	-2208	65	-24	104	-3332	1600	16760	160	29	48	-7488	5780	13800	151	-50	-156	-15416	5208	-2116	-16	-1	-44	-1940	-2468	16720	6	-95	154	126	125	5
-7980	-4392	13192	-135	156	-186	-16416	-1220	-2184	79	-26	156	-3264	1496	16572	150	11	52	-7532	5768	13808	130	-7	-188	-15340	5172	-2012	49	-1	-19	-1904	-2480	16812	28	-95	142	126	125	5
-8056	-4452	13188	-134	144	-181	-16380	-1172	-2144	92	-29	132	-3304	1504	16720	148	-7	38	-7532	5712	13820	142	-10	-131	-15332	5148	-2116	45	5	0	-1892	-2456	16820	36	-126	133	126	125	5
-8016	-4380	13124	-86	127	-200	-16412	-1136	-2168	80	-35	107	-3320	1560	16672	202	-30	45	-7584	5708	13812	118	-35	-147	-15340	5232	-2144	1	-6	-43	-1896	-2468	16732	58	-101	163	126	125	5
-8068	-4420	13276	-92	148	-174	-16408	-1128	-2264	72	-53	138	-3320	1556	16808	188	-11	50	-7548	5764	13864	154	-10	-163	-15360	5216	-2164	3	-9	14	-1816	-2408	16804	19	-119	153	126	125	5
-8008	-4480	13212	-120	129	-185	-16436	-1128	-2224	54	-1	131	-3316	1564	16688	154	7	57	-7608	5756	13820	154	31	-170	-15304	5240	-2200	-36	38	-12	-1904	-2480	16740	30	-89	187	126	124	5
-8040	-4464	13184	-103	126	-198	-16372	-1140	-2208	81	-20	148	-3268	1564	16792	195	-2	59	-7560	5768	13840	157	-6	-147	-15368	5148	-2048	14	23	1	-1892	-2460	16812	46	-97	177	126	124	5
-8044	-4412	13172	-123	157	-170	-16380	-1168	-2176	84	-8	180	-3344	1596	16724	177	12	35	-7564	5756	13916	147	3	-129	-15348	5192	-2184	39	0	-29	-1900	-2456	16668	17	-70	172	126	124	5
-8000	-4428	13216	-89	101	-148	-16428	-1132	-2176	94	10	116	-3352	1604	16720	185	-26	52	-7516	5796	13796	133	36	-155	-15420	5244	-2192	-2	3	-11	-1888	-2384	16732	33	-134	158	126	124	5
-8052	-4412	13288	-80	140	-166	-16380	-1112	-2268	77	-24	154	-3336	1640	16564	208	16	36	-7604	5756	13892	166	-16	-161	-15380	5212	-2192	3	6	-23	-1892	-2488	16704	22	-110	190	126	125	5
-7996	-4408	13160	-111	134	-208	-16344	-1068	-2136	42	-7	136	-3292	1600	16648	211	21	63	-7556	5776	13876	144	-35	-168	-15356	5168	-2124	21	-26	-45	-1984	-2500	16700	10	-85	185	126	125	5
-8028	-4436	13192	-78	139	-181	-16396	-1100	-2104	59	-13	153	-3344	1552	16668	183	5	49	-7536	5744	13896	106	16	-139	-15360	5232	-2200	41	-13	-31	-1904	-2456	16500	8	-150	170	126	125	5
-8040	-4412	13256	-118	122	-178	-16368	-1164	-2308	82	15	143	-3392	1592	16680	185	-5	41	-7560	5780	13732	133	-39	-169	-15388	5176	-2136	68	-21	-41	-1792	-2488	16848	39	-104	182	126	125	5
-8012	-4456	13152	-40	131	-171	-16460	-1108	-2120	72	-31	120	-3364	1556	16676	133	-5	40	-7604	5768	13860	141	-19	-146	-15388	5176	-2196	40	-26	-11	-1888	-2412	16708	3	-98	125	126	124	5
-7968	-4440	13136	-67	125	-158	-16432	-1112	-2224	88	-23	160	-3284	1636	16668	158	-25	51	-7604	5720	13800	167	-54	-147	-15316	5268	-2188	22	-13	-23	-1868	-2412	16764	30	-83	132	126	124	5
-8044	-4392	13272	-103	108	-137	-16332	-1176	-2176	45	-46	145	-3364	1644	16644	162	-17	84	-7572	5784	13904	118	28	-140	-15392	5248	-2036	39	-8	-28	-1880	-2340	16776	29	-68	164	126	124	5
-8052	-4444	13180	-105	131	-168	-16360	-1136	-2208	97	-42	126	-3284	1544	16724	183	22	43	-7524	5812	13744	135	5	-147	-15380	5280	-2088	-23	-17	22	-1816	-2444	16732	45	-75	182	127	124	5
-7996	-4384	13200	-88	126	-189	-16460	-1180	-2212	92	-45	86	-3296	1664	16764	197	27	40	-7556	5724	13788	134	-14	-147	-15396	5228	-2196	13	7	-38	-1888	-2428	16724	37	-76	197	127	125	5
-8004	-4428	13184	-53	167	-193	-16404	-1192	-2296	89	-34	119	-3308	1684	16700	123	24	57	-7548	5756	13804	128	14	-208	-15364	5220	-2204	48	13	-43	-1872	-2408	16704	31	-104	209	126	125	5
-8012	-4468	13248	-102	147	-198	-16408	-1060	-2204	55	-15	128	-3320	1568	16728	150	-28	50	-7556	5756	13828	108	-39	-188	-15280	5248	-2176	37	2	-64	-1836	-2472	16772	-27	-183	217	127	125	5
-7980	-4396	13168	-140	100	-191	-16440	-1148	-2268	46	-45	104	-3376	1584	16632	169	-8	65	-7548	5740	13816	99	-11	-181	-15344	5152	-2120	40	-27	-40	-1940	-2432	16820	-3	-129	182	127	125	5
-8016	-4472	13212	-151	121	-187	-16348	-1152	-2216	72	-30	117	-3296	1572	16736	181	-54	65	-7584	5732	13804	117	30	-192	-15376	5168	-2156	34	9	-23	-1872	-2456	16800	-16	-83	157	127	125	5
-8072	-4392	13212	-122	125	-169	-16388	-1148	-2192	81	-27	109	-3260	1576	16712	222	-44	98	-7656	5756	13800	132	49	-178	-15356	5256	-2124	16	-33	-43	-1892	-2380	16732	-11	-32	138	127	125	5
-8040	-4408	13156	-97	89	-175	-16400	-1132	-2196	89	-33	89	-3256	1636	16696	179	-5	56	-7580	5740	13792	114	10	-161	-15396	5320	-2076	-33	40	-45	-1888	-2424	16840	11	-84	168	127	124	5
-8012	-4452	13152	-121	151	-205	-16404	-1148	-2300	75	-15	133	-3348	1580	16828	161	79	2	-7552	5728	13808	147	63	-187	-15348	5236	-2224	-84	13	-52	-1896	-2512	16740	48	-78	177	127	124	5
-7940	-4464	13144	-97	153	-201	-16388	-1172	-2220	71	-56	167	-3348	1564	16760	110	52	20	-7604	5832	13784	141	-3	-165	-15364	5160	-2236	-10	5	-44	-1892	-2500	16696	31	-104	207	127	125	5
-8024	-4388	13100	-92	145	-157	-16376	-1172	-2212	93	-41	124	-3344	1492	16620	82	14	38	-7528	5728	13832	133	-60	-153	-15380	5188	-2188	90	-14	-44	-1856	-2436	16724	5	-109	176	127	125	5
-7992	-4404	13376	-120	108	-178	-16428	-1172	-2176	50	4	142	-3316	1540	16744	144	-29	2	-7544	5728	13876	137	-69	-128	-15332	5232	-2184	111	-3	-21	-1912	-2436	16624	-1	-93	153	127	125	5
-8020	-4456	13128	-94	139	-193	-16412	-1140	-2212	51	-39	118	-3312	1492	16784	218	-37	67	-7532	5732	13836	103	-19	-149	-15352	5288	-2148	22	-20	-14	-1896	-2376	16676	-33	-121	161	127	125	5
-8020	-4352	13228	-108	123	-206	-16372	-1140	-2180	49	-24	136	-3320	1576	16852	264	-10	70	-7568	5812	13832	134	25	-145	-15364	5216	-2076	-27	9	-65	-1908	-2424	16764	-10	-98	174	127	125	5
-7964	-4440	13216	-112	135	-196	-16376	-1100	-2240	32	-2	134	-3264	1528	16668	232	-4	28	-7548	5820	13792	111	2	-184	-15404	5256	-2092	-66	6	-43	-1828	-2496	16796	74	-93	137	127	125	5
-8000	-4464	13040	-99	124	-204	-16404	-1160	-2232	98	-37	89	-3264	1592	16664	137	55	38	-7528	5764	13908	150	-10	-139	-15340	5220	-2064	-42	4	-41	-1852	-2524	16628	85	-97	236	127	125	5
-8044	-4416	13248	-97	143	-181	-16380	-1160	-2216	93	-67	132	-3312	1544	16796	85	7	50	-7584	5712	13780	152	-6	-207	-15368	5180	-2088	18	13	-51	-1876	-2420	16644	57	-91	198	127	125	5
-8052	-4396	13208	-82	126	-164	-16400	-1164	-2244	56	-21	111	-3272	1632	16776	92	37	27	-7560	5736	13816	145	-55	-177	-15408	5252	-2112	102	-44	-70	-1864	-2384	16700	17	-109	189	127	125	5
-8016	-4412	13124	-115	108	-159	-16384	-1056	-2232	51	-42	144	-3324	1568	16744	152	-31	70	-7504	5748	13864	114	-7	-157	-15392	5256	-2072	90	-22	-4	-1832	-2420	16772	-61	-111	151	127	125	5
-8032	-4408	13184	-96	103	-184	-16468	-1116	-2192	39	-34	112	-3244	1628	16788	238	-35	89	-7508	5796	13792	112	10	-146	-15340	5216	-2004	-52	11	-23	-1860	-2372	16756	-42	-115	179	127	125	5
-8016	-4396	13120	-121	124	-157	-16424	-1152	-2192	63	-71	109	-3292	1612	16548	267	4	85	-7572	5712	13860	80	25	-153	-15356	5196	-2276	-76	14	-34	-1880	-2440	16696	-1	-137	206	127	125	5
-7968	-4448	13132	-106	141	-179	-16400	-1240	-2132	69	-56	168	-3340	1540	16768	199	36	66	-7524	5696	13800	128	-57	-136	-15388	5240	-2156	-90	7	-52	-1924	-2412	16700	49	-90	211	127	125	5
-7944	-4400	13112	-86	153	-181	-16436	-1112	-2228	97	-40	129	-3288	1624	16564	131	17	15	-7492	5768	13840	97	28	-156	-15392	5300	-2204	-29	16	-132	-1892	-2492	16800	69	-103	205	127	125	5
-7996	-4456	13168	-78	140	-175	-16380	-1144	-2212	127	-22	141	-3332	1576	16744	69	16	-2	-7472	5772	13788	112	0	-154	-15364	5164	-2196	107	-5	-45	-1900	-2424	16776	69	-84	212	127	125	5
-8048	-4388	13156	-112	112	-181	-16460	-1140	-2304	84	12	133	-3372	1548	16736	53	32	28	-7528	5756	13828	123	-35	-151	-15372	5248	-2160	49	34	-19	-1888	-2356	16632	40	-89	180	127	125	5
-7964	-4428	13236	-65	142	-162	-16420	-1092	-2208	51	-20	133	-3356	1600	16624	204	-17	45	-7516	5788	13900	130	-20	-171	-15276	5236	-2156	-2	-2	-31	-1836	-2448	16672	25	-104	142	127	125	5
-8048	-4356	13296	-94	116	-158	-16432	-1088	-2260	34	-24	124	-3292	1568	16624	225	-28	76	-7520	5828	13748	140	-26	-189	-15348	5208	-2192	-44	-1	-46	-1828	-2412	16796	-19	-95	189	127	125	5
-8004	-4396	13252	-124	114	-189	-16404	-1092	-2128	33	-22	128	-3288	1576	16788	221	-35	72	-7600	5708	13920	133	-44	-191	-15416	5216	-2136	-43	-15	-12	-1856	-2456	16712	8	-101	182	127	125	5
-8076	-4416	13200	-95	121	-155	-16504	-1116	-2200	91	-51	142	-3316	1532	16784	216	-25	58	-7512	5732	13876	130	-2	-174	-15412	5200	-2204	11	49	-38	-1876	-2476	16704	39	-92	191	127	126	5
-8008	-4456	13180	-82	134	-176	-16448	-1136	-2292	142	-17	131	-3316	1628	16648	159	18	49	-7556	5776	13860	102	-75	-171	-15404	5212	-2144	68	11	-40	-1888	-2528	16704	25	-74	193	127	126	5
