#Activity	sitting in car 
#ActivityID	12 
#Date 09-19-15-13
acc_rf_x	acc_rf_y	acc_rf_z	gyro_rf_x	gyro_rf_y	gyro_rf_z	acc_rs_x	acc_rs_y	acc_rs_z	gyro_rs_x	gyro_rs_y	gyro_rs_z	acc_rt_x	acc_rt_y	acc_rt_z	gyro_rt_x	gyro_rt_y	gyro_rt_z	acc_lf_x	acc_lf_y	acc_lf_z	gyro_lf_x	gyro_lf_y	gyro_lf_z	acc_ls_x	acc_ls_y	acc_ls_z	gyro_ls_x	gyro_ls_y	gyro_ls_z	acc_lt_x	acc_lt_y	acc_lt_z	gyro_lt_x	gyro_lt_y	gyro_lt_z	EMG_r	EMG_l	act
-4496	-10004	13772	24	10	8	-12448	-8232	6592	34	25	25	-2424	-2872	16480	81	-11	7	1312	8912	13344	-66	37	-67	-12704	9008	8544	29	2	63	-3792	2864	16760	-17	-39	0	127	137	12
-3324	-8448	13848	15	28	-3	-12104	-7920	6624	70	29	-13	-2272	-2816	16064	68	-22	4	920	8264	13840	11	43	-47	-12344	8208	8616	55	0	23	-3384	3344	16896	-29	-21	21	129	138	12
-2844	-6664	12524	-53	30	-19	-11664	-7192	6320	16	13	21	-1768	-2928	15912	39	10	2	824	8280	12776	101	64	-14	-11472	8304	7976	61	25	-45	-2848	3112	16128	-12	2	24	128	138	12
-3760	-8564	12812	-64	15	-34	-10912	-7872	6120	-27	42	40	-1696	-2856	15864	4	45	12	2512	10608	12024	93	39	4	-10888	8736	8248	42	29	-43	-2872	2624	15808	-13	18	23	129	137	12
-2772	-10684	12960	-29	29	-6	-11088	-7992	6648	-105	12	10	-1560	-2744	16192	-38	63	27	1952	11616	12624	-9	43	-30	-10928	9272	8544	-23	36	-16	-2920	2352	16104	-2	30	-2	129	138	12
-2968	-9784	13528	62	5	32	-11992	-8856	7080	-128	-5	-23	-1904	-3208	16664	2	18	15	2304	10384	13072	-83	66	-84	-11808	9072	8544	-103	46	33	-3392	2584	16464	-20	36	-7	132	140	12
-3208	-8784	14284	33	-3	15	-12968	-8744	7400	1	28	-41	-2104	-3688	17488	35	-3	-2	1600	9128	13232	-99	53	-91	-12336	8128	8192	-72	35	19	-3408	2784	16504	-38	29	9	133	140	12
-3816	-7636	13188	-45	42	-14	-12584	-7816	6640	34	43	14	-2040	-3720	16736	37	37	1	424	8624	13424	-37	50	-67	-12088	7848	8320	48	48	-13	-3344	2376	16336	-28	-10	25	128	139	12
-3236	-8180	13348	-43	42	-16	-11512	-8448	6296	8	53	49	-2152	-3248	16448	-6	57	14	1672	10296	13760	-22	43	-46	-12120	8400	8592	138	30	-32	-3304	1792	16280	4	-34	26	125	137	12
-2980	-9904	14356	-13	-4	-19	-11648	-9120	6960	-36	17	17	-2072	-3272	16152	-31	33	29	2224	10408	14224	-84	22	-47	-12368	9496	9416	153	-15	10	-3208	2000	16952	17	-26	13	126	136	12
-3124	-9932	13728	48	-2	20	-12616	-9096	7432	6	-20	-60	-2280	-3512	16912	28	-28	9	1648	9632	14048	-113	57	-74	-12552	9112	8736	-32	-4	53	-3728	2760	17208	-21	3	7	128	138	12
-3840	-9116	13876	40	-9	0	-12952	-8488	6880	78	28	-60	-2496	-3648	16920	52	-32	0	1168	8152	13264	-24	34	-37	-12640	8072	8272	-104	13	0	-3416	2792	16808	-55	16	25	129	140	12
-3904	-9368	14848	-37	-11	-48	-12072	-7976	6664	-11	28	20	-2144	-3608	16656	38	5	-5	2568	10432	13536	60	-11	21	-12256	8568	8952	13	3	-36	-3296	2008	16592	-29	-28	34	127	137	12
-3304	-10448	13728	-34	8	-32	-11976	-8544	6728	-121	-28	13	-1808	-3456	16952	2	15	32	1752	9536	14040	13	15	1	-11904	8928	9080	-15	-11	9	-3168	1952	16944	33	-33	6	127	135	12
-2920	-9136	14476	66	-45	-2	-12360	-9712	7920	-103	-41	-31	-1928	-3728	17400	11	20	29	2368	9672	14080	17	-4	1	-12088	8904	9000	-32	-32	30	-3304	2440	16744	37	-7	-5	129	139	12
-3808	-8324	14920	13	-44	-36	-12608	-8864	7896	10	-35	-42	-1832	-3744	17464	47	11	-4	1640	8320	12464	33	-1	-13	-11960	8592	8376	-25	-47	38	-2984	2968	16968	5	-7	4	129	141	12
-4508	-9220	13688	-5	4	-30	-12264	-8312	7048	63	2	-4	-2176	-3288	17136	51	6	-16	1208	10232	13056	9	4	-17	-11768	8792	8240	25	-14	17	-3216	2928	16744	-4	-31	12	126	139	12
-3208	-10148	13556	-3	-14	-39	-12024	-8544	6816	49	14	38	-2064	-3144	16992	-11	-11	-6	1792	10928	14000	-50	-13	-26	-12152	9144	9408	84	-3	10	-3072	2384	16672	27	-61	2	125	138	12
-3096	-10404	14484	23	-28	-34	-12680	-9208	7456	-5	-31	-12	-2320	-3368	17224	-28	-50	-8	2048	10832	14720	-139	6	-60	-12824	9352	9432	9	-22	53	-3568	2696	17400	3	-85	4	128	139	12
-3744	-9860	14616	34	-26	-27	-13288	-9632	7264	65	-23	-66	-2520	-3752	17552	36	-99	-32	1368	8952	14280	-136	22	-76	-13248	8792	9144	-79	-32	45	-3720	2904	17520	-42	-86	12	129	140	12
-3748	-9376	14272	-32	-15	-73	-12760	-8584	6744	62	-11	-44	-2192	-3928	17120	41	-70	-35	1720	9112	14400	-35	-19	-20	-13136	8016	8952	-16	-29	-14	-3176	2368	17592	-54	-78	37	129	138	12
-3248	-10264	13532	-73	-14	-95	-11896	-8536	6552	-31	-24	-13	-1864	-3848	17048	-7	-11	-13	2472	10224	14408	21	-23	9	-12632	8632	9232	35	-36	-38	-2944	1496	17744	6	-65	37	128	136	12
-3316	-10928	14496	-49	-48	-91	-11968	-9656	7272	-106	-62	-23	-1672	-4096	17000	-48	18	19	2600	9640	13608	-3	-11	-15	-12368	8904	9480	-59	-49	0	-2776	1808	17136	54	-27	20	130	137	12
-3084	-10368	13856	4	-24	-41	-12472	-9512	7312	-53	-59	-54	-1712	-4608	17136	7	10	13	1864	9592	13120	2	-17	-2	-12224	8448	9064	-70	-31	28	-2864	2016	16880	37	-2	24	130	139	12
-2924	-8588	13588	27	-40	-34	-12104	-8992	7328	22	-28	-32	-1352	-4280	16976	40	20	0	1424	9584	13136	29	4	0	-11728	7736	8552	-18	-24	18	-2648	1984	16088	30	10	29	129	139	12
-3664	-9372	12860	6	-21	-49	-11440	-8592	6856	24	-14	12	-1472	-4024	16568	47	26	9	1024	8968	11904	61	0	-10	-11184	7632	7808	-2	-3	17	-2616	1928	15912	61	8	24	125	138	12
-3784	-10136	12876	12	-9	-41	-11048	-8624	6432	42	13	50	-1664	-3752	15984	25	39	20	2424	10088	13240	28	-31	-1	-11320	8152	8904	110	0	37	-2584	1728	15776	85	-5	17	124	138	12
-2692	-11408	13400	35	-36	-36	-11304	-9120	7072	13	-22	30	-1816	-3536	16272	46	-10	12	2472	10896	13800	-84	0	-52	-12064	8448	8736	41	-42	92	-3024	2128	16536	56	-41	1	126	137	12
-3196	-10320	13856	110	-39	9	-12400	-9600	7080	77	-17	-40	-1728	-3560	16648	53	-16	13	1432	8224	14104	-100	-5	-62	-13008	8456	9112	16	-42	95	-3624	2688	17176	-3	-68	-4	128	138	12
-3200	-8780	13368	52	-15	-18	-12440	-8168	6832	131	-1	-34	-2224	-3632	16784	99	-103	-28	400	7624	14000	61	-12	6	-12632	7664	8616	33	-30	35	-3192	2712	16992	-26	-49	10	127	139	12
-3328	-7872	12872	-18	-8	-51	-11568	-7320	6744	40	-9	28	-1608	-3576	16304	52	-35	-22	1440	8776	12992	178	3	38	-11448	7800	8264	57	-18	-14	-2520	2536	16208	20	-30	25	126	138	12
-3052	-9988	13004	9	-21	-52	-10640	-8272	6528	-41	-7	62	-1544	-3480	16152	51	-26	-24	2784	10392	12760	166	-46	54	-10816	8912	9520	136	-33	-8	-2176	2144	16256	68	-10	4	127	135	12
-2180	-9924	13460	59	-14	-11	-11488	-9056	7408	-122	-55	10	-1080	-3312	16704	15	38	19	2720	10760	13072	46	0	-1	-11032	9416	9424	43	-31	53	-2168	2648	16200	69	9	-24	130	137	12
-3036	-9460	13864	72	-26	-5	-12288	-9480	7968	-35	-39	-44	-1384	-3592	17496	78	10	-2	2672	8904	12656	-56	30	-59	-11576	8760	8792	-113	-17	79	-2576	2944	17120	14	11	-19	131	141	12
-3384	-8252	14060	47	-19	-21	-12400	-8744	7672	78	15	-20	-1408	-3912	17280	67	21	-11	1304	7832	12800	-15	17	-57	-11968	7752	8904	-67	17	41	-2504	2944	16728	-8	21	3	129	140	12
-3392	-7888	12944	-42	32	-48	-11240	-7640	6952	72	36	58	-1528	-3640	16392	34	60	-5	1536	8536	12920	1	31	-46	-11328	7976	8544	68	46	-5	-2560	2264	16688	9	8	36	126	138	12
-3296	-10888	12904	-43	7	-67	-10600	-9080	6512	31	47	89	-1480	-3056	16280	2	46	30	3096	9880	13800	-42	-3	-42	-11944	8928	9872	160	26	14	-2496	2144	16704	24	2	40	124	136	12
-1400	-9824	14048	56	-5	8	-11416	-9240	7392	-38	-24	-4	-1464	-3568	16072	3	2	39	2976	11384	14712	-127	37	-74	-12184	9488	9568	69	3	61	-3216	2488	17304	41	-33	24	127	136	12
-2632	-9640	14256	69	-32	12	-12400	-9760	7440	55	-6	-78	-1728	-3784	17096	109	-100	5	2136	7992	14336	-107	46	-84	-13152	8736	9504	-76	-18	62	-3280	2816	17576	-24	-34	32	130	139	12
-2680	-8520	14796	29	-17	-15	-12784	-8224	7416	55	6	-58	-1768	-3904	17328	118	-100	-3	1872	7864	13896	44	10	9	-12592	7544	8928	-62	-17	-1	-2736	2984	17240	-35	-17	45	130	138	12
-3048	-8412	13468	-39	3	-44	-11488	-7736	7336	-35	-11	39	-1056	-3592	16712	81	1	-5	1832	8800	13152	197	-2	75	-11312	8080	9088	67	-6	-46	-2136	2304	16592	33	1	40	126	136	12
-2628	-9200	13332	-41	-28	-44	-10696	-8752	7648	-120	-16	69	-736	-3056	16760	17	67	27	3120	9296	12872	147	-11	48	-10728	8736	9112	72	-20	-6	-1968	2360	16168	86	21	7	125	135	12
-2000	-8636	13592	57	-25	10	-11040	-9464	8040	-105	-38	7	-744	-3040	16792	-7	83	24	3168	10528	12072	89	12	23	-10672	9016	9000	9	-27	42	-1968	2352	15912	91	29	-7	126	138	12
-2512	-9096	13704	74	-19	15	-11488	-8800	7688	62	8	-30	-944	-3344	16600	24	68	-12	2120	8840	11808	55	20	-8	-10552	8328	8624	-29	-19	50	-2216	3568	15464	22	48	-24	128	141	12
-3172	-8016	13184	32	-2	10	-11520	-7464	7280	136	39	13	-1104	-2720	16256	29	61	-22	1496	9760	11808	20	26	-17	-10536	8136	8416	5	13	20	-2392	3272	15560	-21	21	-8	126	140	12
-3056	-9056	13008	27	11	-3	-11160	-7392	6888	97	60	54	-1424	-2608	15704	0	31	-7	2584	8912	12328	-28	12	-27	-10576	8216	7864	1	13	15	-2552	2680	15560	-8	-9	-3	125	139	12
-2348	-9104	13932	-24	-8	-29	-11352	-8120	7200	4	9	40	-1384	-2616	15800	-14	-16	4	2680	10064	13104	-112	10	-68	-11512	9128	9136	98	8	37	-2624	2944	16648	-15	-55	-4	127	137	12
-2456	-10084	13452	26	8	7	-12104	-8888	7120	-7	-6	-44	-1848	-3056	16584	28	-96	-1	2528	10280	14704	-189	44	-74	-12360	9392	9824	43	-3	51	-3264	3240	17320	-44	-88	-2	130	138	12
-3332	-9332	14052	-84	-13	-59	-12248	-8408	7640	-1	-10	-72	-1648	-3288	16936	56	-95	-18	1320	7704	13576	-78	40	-86	-12728	8200	8768	-78	-27	-2	-3232	3360	18120	-98	-83	31	131	138	12
-3532	-9204	14036	-15	17	-24	-12056	-8528	7008	-5	15	-40	-1408	-3720	17400	40	-55	-17	2800	9768	14464	21	4	-4	-12432	8960	9864	31	8	-49	-2768	2640	17616	-68	-49	33	131	138	12
-1844	-10616	14576	-50	-15	-81	-11984	-8816	7992	-110	-28	-8	-1136	-3912	17312	-15	4	7	3304	9344	13512	52	1	2	-11872	8512	9688	-4	-2	-51	-2200	2160	16952	15	-12	38	129	136	12
-2932	-11008	13668	-42	13	-58	-12000	-9576	7632	-103	-32	-9	-1072	-4080	17632	-7	33	20	2712	8976	13104	-6	14	-30	-11304	8896	9232	-60	16	-16	-2296	2184	16896	43	19	13	130	138	12
-2576	-9772	14284	12	-15	-35	-11576	-9984	7672	-35	2	-26	-1176	-4208	17344	-2	56	11	3576	10176	13808	-88	16	-55	-11912	8552	9576	-35	5	15	-2408	2216	17040	2	10	4	129	138	12
-2456	-10332	14588	17	-25	-35	-11800	-9952	8112	-2	0	-22	-1112	-4032	17472	18	51	1	2496	8264	13696	-83	3	-45	-12736	8504	9872	-8	-23	36	-2488	2136	17184	-3	4	-10	128	139	12
-2856	-9088	13524	11	1	-10	-11888	-9000	7544	38	-10	-31	-1312	-4136	17120	-1	45	3	1848	10400	14472	-7	10	-19	-12176	8096	9104	32	1	31	-2496	2160	17256	8	0	11	127	139	12
-2412	-9444	13856	28	-27	-28	-11760	-9144	7624	83	26	25	-1240	-3912	17096	26	23	1	2120	10912	14032	39	2	0	-11984	8456	9416	85	-19	14	-2680	2168	16936	31	-6	25	124	139	12
-2544	-10956	14356	27	-34	-36	-11928	-9120	7408	28	-12	21	-1544	-3632	16832	29	-24	3	3256	10840	14424	-18	-20	-5	-11992	9248	9872	71	-38	47	-2592	2472	17016	54	-42	21	125	136	12
-2296	-9804	14492	63	-46	-16	-12416	-9424	7968	0	-37	-39	-1544	-3456	17184	50	-87	-4	2752	8736	13352	-12	-1	-19	-12280	8752	9096	-57	-47	50	-2720	2432	17024	52	-46	21	126	137	12
-3488	-8784	13964	32	-34	-18	-11832	-8696	7320	71	-14	-36	-1648	-3648	17096	56	-97	-18	1984	7800	13576	38	-17	11	-12008	8392	8912	-48	-31	34	-2776	2912	16648	-9	-65	25	127	139	12
-2916	-8348	13592	-12	-30	-43	-11488	-8072	7360	26	-25	6	-1552	-3296	16680	49	-59	-27	2504	9744	13536	65	-15	20	-11312	8120	9128	7	-33	-4	-2400	2648	16768	-4	-54	36	127	138	12
-3276	-9928	13672	22	-40	-50	-11336	-8856	7592	-35	-31	12	-1136	-3192	17048	23	-27	-6	3488	10648	13088	45	-30	25	-11424	9024	9240	49	-44	6	-2176	2360	16880	35	-54	11	127	136	12
-2220	-9980	14680	0	-44	-58	-11800	-9232	7712	-42	-48	-20	-1096	-3248	17072	15	-12	-3	2528	9032	13184	-49	-23	-9	-11872	9096	9520	-21	-69	45	-2656	3176	17248	27	-38	-9	129	138	12
-3216	-9408	13076	35	-3	-14	-12216	-8768	7272	39	-37	-66	-1360	-3392	16856	14	10	-12	1376	7816	12424	-17	5	-8	-11616	8392	8640	-78	-26	28	-2272	3176	16488	7	-9	-5	129	141	12
-2296	-7384	13612	16	-40	-49	-10864	-7904	7184	79	-6	-12	-1016	-3536	16472	-5	53	-32	2368	9208	12760	87	-11	21	-10936	7832	8856	36	-4	-34	-1792	2632	15968	16	8	20	128	138	12
-3244	-8196	12804	-57	-12	-67	-10824	-7912	7048	9	-16	43	-976	-3440	16312	-4	35	-2	2800	8576	11792	56	9	-22	-10312	8312	8216	44	6	-14	-1888	2264	15976	40	-11	21	127	137	12
-2920	-10420	13320	-9	-9	-59	-10904	-8912	6936	-44	7	37	-952	-3088	16352	4	8	17	3696	8896	12800	-91	-11	-56	-11128	8920	9448	73	-5	21	-2040	2280	16320	26	-28	7	127	138	12
-1864	-10588	12908	22	-1	-12	-11536	-9400	7272	-56	-22	-34	-1320	-3728	16648	4	-27	9	3024	9984	13712	-205	54	-109	-11848	8760	9160	-60	7	62	-2560	2416	17024	-43	-60	7	127	139	12
-2556	-9800	13972	32	-14	-15	-11760	-9576	7608	40	15	-66	-1440	-4016	16880	34	-67	-11	1376	8784	13936	-170	39	-92	-12944	8216	9144	-87	10	49	-3032	2432	17784	-63	-67	19	128	138	12
-3272	-8284	13604	-3	11	-20	-11864	-8296	6856	87	18	-25	-1568	-4144	16632	32	-38	-5	520	8544	13808	3	31	-26	-12752	7480	9144	-19	31	-4	-2952	2184	17360	-26	-9	43	127	139	12
-2788	-7840	13020	-13	7	-20	-11384	-7824	6728	11	16	34	-1224	-3872	16128	42	-5	9	1848	8424	12704	105	28	7	-11552	7784	8408	81	25	-34	-2472	1864	16312	25	17	52	125	137	12
-2612	-9788	13124	19	-12	-17	-10784	-8536	6848	-60	15	52	-920	-3424	16104	23	35	35	2640	8592	12752	110	-4	24	-11112	8496	9016	116	0	-7	-2256	1864	15760	77	27	28	124	135	12
-2284	-9004	13576	55	-11	11	-10696	-8768	7072	-73	13	49	-1000	-3480	16184	36	63	37	3048	9064	12376	83	22	-5	-11080	8592	9080	90	-4	-3	-2296	2600	15920	71	55	2	126	137	12
-2408	-8136	12792	74	-5	29	-11272	-8832	7584	18	7	-10	-976	-3400	16560	74	76	12	2368	9448	12328	69	27	-11	-10672	8032	8136	-4	-2	52	-2208	2696	15760	34	60	-11	127	140	12
-2276	-8716	13824	54	-15	4	-11448	-8112	7488	87	37	22	-1184	-3112	16592	69	77	1	2496	9728	13080	31	4	-2	-11160	8352	9224	69	-8	41	-2424	2896	15752	24	41	-16	127	139	12
-2460	-9616	12752	24	16	-7	-11584	-7800	7080	33	6	34	-1272	-2960	16320	51	63	3	2128	9880	12088	46	36	-23	-10952	8080	8512	-1	5	39	-2424	3200	15936	34	22	-15	125	138	12
-2752	-8492	13012	8	18	-17	-10976	-8064	6672	57	40	55	-1320	-2776	15848	15	52	4	2800	8672	13208	-5	13	-26	-11120	8472	9544	135	8	18	-2296	3096	15856	29	6	-10	127	139	12
-1832	-10976	13920	20	-6	-32	-10800	-8800	7768	-32	8	31	-920	-2760	15920	36	10	0	3712	9712	13376	-9	-7	-19	-11328	8944	9880	135	-32	22	-2216	2992	16688	5	-37	-9	128	137	12
-2728	-9948	13812	16	-2	-11	-10584	-8840	8096	-43	-3	21	-1264	-2856	16648	35	-46	0	2552	8656	13448	-72	36	-63	-11624	9544	9656	1	-21	41	-2616	3512	17496	-32	-62	-2	129	137	12
-2644	-8516	13748	29	-11	-6	-12168	-8480	7352	70	1	-57	-1352	-3376	16992	41	-70	-7	2928	9368	13936	-15	36	-50	-11736	8656	9560	-73	15	13	-2408	3328	17024	-47	-31	24	131	140	12
-1992	-9456	14236	-61	-1	-50	-11584	-8096	7808	-35	3	-1	-1208	-3560	17512	28	-53	-10	2928	10336	13624	-57	28	-43	-11992	8992	10032	6	7	-20	-2336	2952	17824	-70	-55	36	130	137	12
-2552	-10672	13576	-5	10	-16	-12016	-9608	7856	-115	-1	-15	-984	-3616	18072	19	-28	11	3056	11256	14472	-113	46	-46	-12144	9656	10320	1	29	-18	-2520	2560	18272	-47	-61	20	129	136	12
-2376	-9484	15084	-10	-24	-18	-12128	-10048	8584	-94	-10	-39	-880	-4232	17808	-18	1	20	2408	9608	14064	-46	42	-36	-12408	8856	10000	-73	14	10	-2400	2976	17944	-17	-6	17	128	138	12
-2656	-9272	14152	-60	24	-30	-11872	-8976	8176	16	3	-27	-696	-4000	17584	-17	66	8	1976	8512	13888	67	36	-8	-11560	8080	9272	-22	4	-18	-2120	2904	17112	-2	37	29	128	140	12
-2440	-9732	13816	-40	2	-42	-11024	-8504	7760	56	35	21	-816	-3528	16840	-12	99	13	3384	8928	13088	67	17	-1	-10872	8368	9368	32	-1	-41	-2168	2408	16176	32	42	25	125	138	12
-1872	-9116	13556	-2	-14	-25	-11032	-8712	7920	-10	4	41	-776	-3136	16400	-26	79	27	3200	9984	12256	17	20	-2	-10680	8648	8752	27	11	-11	-1992	2384	16096	69	22	7	124	137	12
-3728	-9580	13552	-2	-18	-3	-11296	-8824	7664	2	-1	-9	-1440	-3424	16776	-11	26	24	2400	7648	12128	-62	46	-60	-10928	8784	8560	-43	18	49	-2616	2760	15928	22	13	6	126	139	12
-2488	-7452	14336	16	-11	1	-11464	-8272	7112	28	35	-1	-1448	-3344	15920	15	7	-12	2800	9720	13728	-64	8	-38	-11336	8024	8848	40	-1	44	-2448	2880	15784	-26	-16	8	127	140	12
-1716	-9092	14196	-5	-29	-19	-11280	-8552	7688	11	2	8	-1448	-3200	16528	47	-58	-25	2856	11264	13480	-47	-7	-3	-11856	8984	9360	31	-42	43	-2856	2520	16528	-46	-93	5	128	137	12
-2576	-10328	14016	20	-27	-25	-12280	-8480	7312	46	-19	-40	-1504	-3184	16584	14	-79	-7	2336	7864	13704	-60	4	-23	-12024	8488	9256	-56	-46	42	-2880	3056	16704	-6	-68	2	128	138	12
-2516	-7952	13136	19	-17	-33	-11568	-7912	7096	29	-24	-41	-1264	-3584	16448	18	-46	-17	1888	7456	12600	35	14	-1	-11264	7808	8472	6	-21	-15	-2584	3000	16000	-2	-42	20	129	141	12
-3084	-8484	13376	-54	-28	-77	-10392	-8168	7056	-33	-5	12	-928	-3232	16240	34	-27	-24	2744	9928	12600	54	-25	21	-11056	8560	9296	115	-43	-20	-1984	2824	16576	-13	-63	27	130	136	12
-2660	-10596	13368	-17	-17	-42	-10952	-8872	7352	-100	-37	-18	-1064	-3128	16800	4	-23	7	3104	10408	13440	-36	2	-13	-11224	9536	9888	29	-27	11	-2184	2680	16968	13	-49	3	129	136	12
-1788	-8900	13960	17	-12	-17	-11608	-8944	8264	-62	-44	-69	-736	-3616	16736	-8	9	6	2544	8960	13296	-62	21	-37	-11328	8472	9664	-74	-16	21	-1832	3096	17000	-1	1	-3	132	140	12
-3136	-8504	13260	-20	-10	-37	-11576	-8616	8128	19	-8	-46	-912	-3744	17488	24	20	-15	2832	9688	12792	-66	46	-52	-11488	8392	8992	-101	7	-8	-2112	2720	17048	-47	-21	23	130	138	12
-3332	-9952	14264	-42	-15	-62	-11520	-9272	7720	17	25	2	-832	-3752	17360	0	20	8	2904	8160	13304	-74	17	-49	-12048	8368	9744	-44	13	-13	-2032	2552	17208	-28	-24	21	127	137	12
-2644	-9324	13176	-45	37	-25	-11432	-8504	7280	-35	-3	2	-904	-3784	16656	-34	30	25	1624	8888	12280	-10	52	-35	-11416	8168	8496	-22	34	-15	-2328	2480	16856	-1	1	15	126	139	12
-3120	-8908	13048	-44	26	-26	-10752	-8224	6560	17	49	12	-1112	-3728	15984	-32	49	14	1712	9712	12312	-22	43	-38	-10936	8144	8664	60	47	-19	-2224	2408	16312	-38	5	41	125	140	12
-2304	-9320	13344	61	3	18	-10864	-8784	6736	-34	46	27	-1104	-3784	16016	-24	11	20	2336	11248	13336	-71	36	-50	-11384	9200	9184	83	53	4	-2560	1816	16096	-35	-16	46	125	137	12
-2676	-8464	14044	64	-25	40	-12384	-9256	7088	-25	4	-11	-1584	-3720	16720	-1	-59	21	2224	9728	14032	-127	52	-81	-12288	9128	9112	-37	40	63	-3128	2240	16552	-2	-27	24	127	138	12
-2944	-8912	13612	57	-6	24	-13080	-8616	7056	43	15	-47	-2328	-3808	17016	55	-82	0	1592	7856	12504	-78	87	-94	-12264	7592	7320	-224	36	68	-3552	2416	15912	-23	3	14	128	141	12
-3620	-8672	13756	19	21	-14	-11776	-7464	5640	90	73	21	-2104	-3672	15776	41	7	-9	1288	8248	13040	44	-10	3	-11920	7232	8072	59	28	-18	-3440	2360	15672	-39	2	30	127	139	12
-2700	-8396	13000	-15	2	-22	-11040	-7912	6504	-61	10	75	-1848	-3440	15888	35	55	5	1712	9808	13272	59	20	-3	-11472	8416	8416	207	-8	-18	-3016	1688	16344	20	-20	19	126	135	12
-2972	-9824	13624	54	-31	-7	-11640	-9536	6928	-79	-20	15	-1976	-3216	16712	16	39	30	3120	10736	14744	-14	4	-28	-12016	9680	9792	140	-23	59	-3112	2176	16784	93	1	-23	128	136	12
-2904	-10020	15636	72	-53	-6	-13080	-9728	8312	-7	-47	-74	-2008	-3512	17720	66	-14	6	2864	11320	13504	-34	4	-47	-12528	9520	9448	-46	-78	99	-3328	2944	17632	37	-11	-27	131	141	12
-3536	-8972	15108	36	-5	-19	-13672	-8792	7720	111	-14	-67	-2088	-3792	18120	119	-40	-31	1408	9360	14744	-29	-10	-26	-12832	8608	9480	-53	-41	52	-3232	3152	17776	-31	-35	-2	132	140	12
-3572	-9328	14788	-48	-19	-83	-12552	-8688	7856	46	-16	23	-1896	-3648	17880	81	-28	-26	2400	9272	14272	41	-14	3	-12648	8536	9672	30	-33	-4	-2584	2616	18088	-5	-65	18	128	138	12
-3384	-9588	13680	-63	-8	-86	-11784	-9384	7816	-39	-40	35	-1504	-3896	17744	-3	-2	9	1752	10048	13464	5	13	-28	-12720	8592	9792	44	-33	-4	-2632	2552	18136	46	-52	20	126	137	12
-3496	-12252	13788	-16	-29	-61	-11448	-10376	7288	0	-12	-10	-1464	-3880	17584	0	-27	10	3568	11368	14808	-121	-19	-46	-12696	10032	10432	62	-19	36	-2920	2368	18800	10	-77	29	126	138	12
-2076	-12660	15032	80	-43	-18	-13032	-10648	8040	-7	-40	-75	-1744	-4128	18120	29	-81	4	3360	10136	16080	-190	14	-75	-14056	9864	10608	-81	-26	58	-3408	2688	19112	-16	-80	39	129	138	12
-3488	-9708	16200	78	-61	25	-13800	-10032	8080	43	-34	-95	-2192	-4776	19216	53	-109	-7	1336	10696	15944	-104	6	-26	-14872	9784	10248	-101	-27	36	-3728	2416	19872	-75	-109	47	128	137	12
-3212	-9476	15988	39	-49	-32	-14400	-8928	8296	36	-36	-35	-1768	-4552	18104	42	-86	-3	1104	6904	14584	148	-17	54	-13312	7680	9008	-150	-22	13	-3256	2528	17448	24	8	59	128	141	12
-2936	-7548	12904	-81	-4	-75	-11912	-7536	6824	-7	-38	59	-1584	-4264	17016	21	15	3	1608	9056	11704	297	-30	110	-10808	7184	7696	30	-3	-60	-2824	2072	15680	101	28	91	123	137	12
-2764	-7984	12408	-58	-30	-97	-9752	-8200	5960	-5	14	134	-936	-3048	15416	-16	107	12	2264	10576	11544	226	-51	98	-9584	7968	7856	161	-10	-45	-2232	1952	14408	192	24	48	119	133	12
-2800	-9360	11744	43	-48	-2	-9808	-8952	6616	-76	-50	67	-1536	-2632	15608	-30	73	39	3216	11712	11432	-18	5	3	-10152	9632	7760	51	-25	57	-2504	2224	14552	165	19	-7	122	134	12
-2180	-9016	14048	133	-75	15	-11760	-8744	7184	88	-18	-72	-1472	-2680	15032	14	60	12	1544	10064	11888	-94	-20	-44	-11064	7976	7464	-73	-62	127	-3096	3056	14992	41	23	-14	128	142	12
-2840	-9564	12304	136	-7	41	-12416	-6768	5928	227	1	-63	-2360	-2840	15680	89	-19	-38	1384	8560	12824	-86	3	-19	-11384	7576	8016	-26	-30	86	-3160	3120	14728	-45	-10	-4	129	141	12
-3440	-5244	13116	30	-44	-35	-11088	-5976	6496	90	9	26	-1864	-2376	15024	57	-40	-43	-160	7560	10352	70	-7	-1	-10944	7328	6784	22	-23	2	-3032	3176	15600	-28	-64	19	128	137	12
-4008	-8600	11480	-1	7	-54	-10992	-6496	5104	45	7	74	-1624	-2408	14856	10	-51	-9	1016	7568	10832	151	-12	43	-10256	7456	7360	86	5	-8	-2568	2704	14384	54	-32	10	128	136	12
-3296	-5364	10832	-40	19	-37	-9952	-6160	5944	-84	-4	62	-1416	-2408	14456	-21	0	9	1464	10192	10616	99	29	-13	-9248	7904	7432	176	5	-15	-2160	2888	14664	31	-25	20	129	137	12
-3212	-9440	11948	29	-4	-9	-9784	-8544	6112	-128	16	35	-1512	-2448	15872	41	-20	10	3112	9976	11112	-134	46	-92	-10608	9792	8248	76	1	45	-2696	2528	16056	-44	-54	-4	128	137	12
-3376	-8840	13496	89	11	62	-12264	-9192	6784	-72	8	-73	-1704	-2872	17000	34	-46	8	1608	10136	13976	-293	77	-157	-12512	9728	9216	-56	38	101	-3072	3248	17432	-103	-36	-25	133	138	12
-2956	-8932	13528	7	26	26	-13856	-8488	7648	25	19	-91	-2256	-3792	17664	90	-56	-16	728	9208	14176	-165	123	-146	-13152	7712	8760	-207	68	38	-3448	3264	17824	-129	7	-6	135	143	12
-4816	-7716	13556	-114	64	-31	-12496	-7480	6544	70	81	7	-2112	-3920	17400	52	18	-7	760	7152	14120	-40	90	-102	-12976	7544	8984	-16	91	-60	-3168	2600	17864	-99	18	34	132	140	12
-2772	-9404	13864	-134	65	-77	-11096	-8336	6784	-82	79	96	-1096	-3864	15976	-32	125	38	1720	9080	13032	115	61	-10	-12288	8280	9040	127	65	-100	-2680	1952	17168	29	64	50	125	137	12
-4144	-10672	11960	-54	64	20	-11032	-8840	6064	-124	19	51	-1576	-3464	16704	-74	151	93	1928	12128	11256	38	112	-48	-11448	10304	7432	20	103	-24	-3328	2128	17136	14	77	43	123	136	12
-3064	-11028	15516	158	5	82	-11736	-9648	7016	-65	85	-11	-1512	-4104	16632	0	128	88	2224	7728	14112	-19	30	-62	-11992	8992	9664	65	93	21	-2984	2392	15480	29	152	28	126	140	12
-2436	-7128	13020	79	48	105	-13224	-7784	7816	-71	5	-10	-2136	-3928	17536	111	58	36	968	11328	12352	-36	143	-116	-11472	8936	6448	-103	109	52	-3600	2320	16032	-49	86	39	126	136	12
-4132	-9784	15492	80	17	24	-13432	-8896	6784	48	116	66	-2424	-3352	17328	111	31	20	2320	8440	14928	-91	21	-92	-12752	7936	9216	66	82	36	-3816	2056	15856	-17	60	16	125	138	12
-4176	-8028	12560	-52	77	25	-12576	-8040	6728	-30	37	80	-2440	-3464	17008	99	35	22	1120	12136	13520	-100	133	-115	-12968	9024	7216	3	84	38	-4304	2160	16912	17	-1	-6	123	136	12
-4788	-10848	15200	32	-8	-15	-12072	-9752	6424	34	102	39	-3048	-3184	16160	-5	33	35	1984	8128	14280	-34	9	-53	-13704	8536	8712	94	2	29	-4536	2376	17512	38	1	-10	123	139	12
-4696	-11316	13732	88	21	69	-12688	-8272	6440	88	20	-12	-3416	-3136	17064	28	-13	6	2240	10560	14968	-16	61	-30	-13216	10312	8544	121	4	49	-4960	2824	17504	-10	-28	-7	125	139	12
-3848	-9960	16276	124	-54	36	-13984	-8760	7376	48	37	-25	-3720	-3128	17304	97	-68	-10	1120	11072	13976	16	4	-15	-13952	9760	8792	-8	-22	36	-5056	2744	18224	-18	-40	7	128	138	12
-4360	-9992	14392	69	5	51	-14568	-8048	6680	69	-8	-36	-3832	-2792	18696	127	-117	-21	1336	9896	16200	-10	29	-4	-13520	9792	8616	-71	10	45	-4808	2888	17264	-4	-22	26	129	138	12
-4240	-7876	16168	-4	-52	-57	-14136	-7864	7560	-75	-18	-12	-3416	-2936	17664	30	-44	1	456	8240	13264	113	13	11	-12952	8504	8264	-106	-20	0	-4576	3344	18240	21	-60	7	130	140	12
-5516	-8680	12976	-44	-10	-66	-12744	-7904	6320	-51	-43	9	-3496	-3208	17224	-5	12	9	1456	9448	12216	140	11	30	-11592	8864	6440	-87	-11	-12	-4576	2336	15800	28	-6	41	127	139	12
-4672	-10684	15768	-36	-59	-106	-11912	-8944	6176	-26	-5	46	-3152	-2640	15104	-80	98	25	2456	10944	13416	-19	-99	12	-12272	10088	8744	136	-51	-8	-4112	1904	16120	75	-55	31	129	135	12
-3860	-12300	13188	39	-16	-26	-12064	-9200	6648	-32	-15	39	-3496	-3120	18048	-1	-33	26	792	13328	14208	-221	2	-68	-13312	10824	8088	-88	-36	100	-4768	2352	17440	39	-101	25	130	136	12
-5268	-8816	15788	38	-77	-58	-14376	-9376	6696	118	-48	-111	-3480	-3792	17760	45	-79	-16	1136	7632	14832	-204	-18	-96	-14336	8168	8784	-130	-54	74	-4624	3024	17608	-20	-103	39	135	138	12
-4232	-7916	14828	-53	-41	-94	-13960	-7832	6672	112	-50	-40	-3008	-3736	17584	92	-111	-58	-152	10944	15008	-100	-21	-37	-14376	8952	8080	19	-65	-1	-4640	2288	18944	-65	-167	50	132	136	12
-5172	-10592	13520	-92	-37	-114	-13288	-9352	5712	15	-51	-9	-3024	-3592	18416	38	-141	-24	384	9560	15560	-70	-27	-3	-14840	9456	9304	64	-60	6	-4352	2144	18592	-8	-139	40	129	134	12
-3564	-8364	14084	-20	-49	-63	-13224	-8608	6864	-81	-78	-46	-2592	-3928	17096	-67	-57	4	552	8096	13032	144	-10	49	-12904	8712	7720	-63	-40	-26	-3992	2520	17528	66	-32	45	128	141	12
-4964	-8780	12896	-8	-41	-43	-12296	-8016	6120	-20	-39	-7	-2368	-3920	17176	-35	-3	-16	616	10744	11920	127	-2	43	-12488	8656	7912	-37	-29	-31	-3936	2088	16264	36	-3	64	125	139	12
-4816	-9324	12912	28	-39	-23	-11824	-8072	5672	-39	0	45	-2944	-3216	16760	-7	4	7	1328	11448	12872	2	10	5	-11672	9008	7272	-61	30	11	-3744	1904	15760	57	0	51	126	136	12
-4036	-10268	14136	46	-63	-16	-13016	-8752	6504	-95	-13	22	-2808	-3168	16848	-14	4	24	440	9912	12520	-75	1	-32	-12984	8536	7960	-110	21	53	-3808	2296	16032	49	-4	13	126	137	12
-4408	-7660	12788	52	4	39	-13264	-7712	5800	10	-14	-23	-2920	-3120	16976	30	20	14	-1248	10128	13152	-98	48	-54	-12656	8144	6856	-52	35	61	-4440	2440	16344	-34	0	7	127	139	12
-4916	-7572	12860	1	-10	-14	-12504	-7592	5624	56	48	-1	-3232	-3080	16200	31	38	26	-824	7632	12848	1	27	-22	-12872	7576	6752	43	21	19	-4544	2288	15816	-23	7	12	126	139	12
-5076	-7572	13300	9	-9	-10	-12136	-7224	5520	52	42	35	-2800	-2872	15352	24	45	39	744	9608	12040	100	14	22	-12264	8480	6432	174	1	0	-4312	2224	15648	37	14	15	124	136	12
-4540	-8892	13084	34	-17	-8	-12112	-7272	5416	63	27	30	-2912	-2520	15872	36	33	43	944	10248	11904	83	13	18	-11560	9240	7048	139	-1	20	-4248	2344	15456	72	16	14	124	136	12
-4472	-8732	13340	26	-10	1	-12544	-7280	5912	5	13	15	-3176	-2432	16312	62	-13	38	960	10624	12704	-15	26	-26	-11736	9496	7648	46	-4	45	-4384	3056	15824	41	-5	16	126	137	12
-4828	-8764	13724	14	-14	-2	-13200	-8096	6216	-41	0	-13	-3376	-2440	17128	98	-72	9	992	9600	12840	-73	38	-53	-12624	9192	7624	-75	2	53	-4416	3368	16168	-31	-35	7	128	138	12
-4488	-8504	14256	20	5	9	-13360	-7712	6296	-25	-1	-44	-3072	-2904	17008	74	-47	-9	800	9376	13256	-39	39	-35	-12840	8520	7384	-57	4	23	-4232	3248	16920	-77	-47	2	132	140	12
-5180	-8488	13388	-46	5	-26	-12984	-7848	6272	-40	2	-7	-3120	-2856	17264	46	-24	-9	-120	10056	13032	-20	51	-39	-12960	8896	7712	-7	37	-17	-4352	2560	17416	-79	-44	8	131	140	12
-5064	-9608	13908	-10	6	-19	-12976	-7912	6088	-43	-1	-3	-3136	-3088	17208	-24	24	11	1496	9520	13568	-42	32	-43	-13104	9344	8248	55	25	-8	-4320	2360	17400	-35	-8	10	130	138	12
-4344	-8676	13364	-24	16	0	-13024	-8536	6312	-57	6	-12	-3096	-3184	17280	-65	60	19	312	10536	12872	-17	69	-45	-12768	9248	7696	-28	36	-2	-4432	2512	17008	1	30	16	129	139	12
-5048	-7804	14224	-3	3	9	-13144	-8248	6208	3	32	-7	-3200	-3592	17072	-49	69	15	936	10872	13112	-33	54	-50	-12648	9056	7368	1	43	-17	-4584	2328	16592	-25	39	37	130	139	12
-4980	-9624	13456	-21	14	-15	-13400	-8288	6160	-9	36	19	-3528	-3080	17152	-30	39	16	104	12480	13728	-124	70	-84	-13016	9560	7616	-31	65	8	-4688	1984	16896	-55	-4	49	128	137	12
-5316	-10568	15012	28	1	11	-13840	-9008	6096	-27	35	-7	-3776	-3592	17608	-37	-6	33	680	9080	14768	-158	47	-86	-14088	9208	8304	-51	60	27	-4832	1704	16800	-41	-9	38	130	138	12
-4856	-7800	13988	-23	11	2	-14168	-7712	6320	-23	-2	-34	-3640	-3840	17112	-1	-11	22	-560	8664	13432	-26	84	-74	-13560	8168	6640	-134	57	12	-5000	2000	16512	-40	13	40	128	139	12
-5920	-7432	12912	-78	25	-39	-12712	-7400	5088	1	44	41	-3560	-3848	16040	20	33	24	-968	8976	12384	79	55	-27	-12528	7520	5880	-26	56	-29	-4688	1648	15648	-29	30	61	127	139	12
-5556	-9496	13404	-33	14	-42	-11224	-7760	4968	-53	35	77	-3320	-3472	16040	7	63	37	984	11320	13048	42	-8	-2	-12336	8840	7352	204	26	-15	-4512	1168	15912	26	9	58	123	134	12
-4472	-11824	13152	73	-27	7	-13112	-9304	5568	-56	-12	33	-3488	-3072	16864	29	2	42	1288	10856	13800	-106	25	-69	-13224	9784	7696	12	18	72	-4960	1496	16456	67	2	16	125	136	12
-5240	-10028	14640	87	-28	25	-14392	-8968	6016	48	-12	-60	-4048	-3544	17072	61	-46	8	112	9136	13864	-115	37	-87	-14208	8544	7024	-121	6	94	-5568	2336	16928	23	-8	-4	129	140	12
-6140	-8100	14192	68	-8	25	-14128	-7704	5600	110	12	-24	-4344	-3712	17176	121	-59	-34	-792	8632	13872	-4	26	-38	-14008	8296	6672	-51	16	49	-5720	2488	17888	-49	-42	19	130	142	12
-5520	-8116	14444	-2	-32	-39	-13448	-7424	5432	43	20	54	-3832	-3128	16744	84	-22	-8	376	7464	12784	135	-12	22	-13488	8216	6640	52	-13	7	-4968	1840	16552	2	-8	38	127	138	12
-4772	-10144	13044	3	2	-37	-12832	-7440	4744	-26	-17	69	-3592	-2904	16800	20	19	33	112	10640	12888	133	-27	48	-12440	9192	6936	123	-8	20	-4904	1536	16216	91	-11	17	124	137	12
-4660	-9900	12088	47	0	7	-12984	-8072	5128	-34	-28	29	-3976	-2952	16448	9	40	31	152	12016	13520	10	21	-14	-12480	9416	6856	65	-6	61	-4976	2496	16256	93	1	6	125	138	12
-5220	-9512	14216	109	-52	14	-13536	-8976	6136	-4	-9	8	-3928	-3304	17088	55	-1	8	384	11000	13344	-102	30	-76	-13648	9648	7160	0	-17	77	-5424	2760	17208	26	-26	7	128	138	12
-6380	-10504	14416	55	-23	-7	-14920	-8816	5664	66	5	-15	-4080	-3168	18168	94	-69	-16	552	9152	15448	-164	9	-99	-14904	9496	8096	-17	-4	77	-5632	2512	18144	-23	-65	12	130	139	12
-5296	-8488	15124	27	-26	-5	-15128	-8816	5928	32	0	-33	-4440	-3464	17880	88	-91	-10	-304	9960	15792	-81	29	-41	-15752	9328	7784	-31	-6	33	-5976	2384	18832	-47	-89	10	130	138	12
-6112	-10152	14964	-61	-23	-39	-14712	-8456	5624	46	6	-19	-4440	-3224	17984	64	-73	2	-600	10216	15072	-3	21	5	-15352	9720	8000	-22	-29	11	-5744	2352	18928	-46	-90	9	128	137	12
-5788	-9972	14576	-13	-15	-24	-14312	-8200	5672	-13	6	-22	-3872	-3264	18568	39	-45	20	-216	10448	14408	131	15	67	-14280	9400	7600	3	-14	-19	-5432	2672	17800	-12	-10	29	126	138	12
-5304	-7656	13904	-29	-9	-5	-13648	-7480	5888	-71	-14	-4	-3544	-3032	17264	-35	38	41	-976	10704	12776	190	18	78	-12816	9600	6896	30	-2	-46	-5264	2752	16648	27	20	42	125	139	12
-5644	-7664	13368	6	-19	2	-13464	-7640	5984	-68	3	26	-3720	-2736	17488	-15	56	31	256	12472	12792	128	18	63	-12056	9952	6664	16	27	-28	-4944	2440	15792	70	53	30	125	138	12
-5128	-9328	14356	27	-38	0	-13688	-8096	6432	-88	-4	20	-3576	-2528	17080	-9	48	27	1040	11968	12144	9	19	-2	-12232	10016	6480	-83	37	15	-4824	2384	15128	78	57	15	126	139	12
-5908	-8968	14556	31	-21	6	-14384	-7984	6008	8	11	-8	-3840	-2480	17232	31	32	11	328	10912	12472	-107	27	-53	-12632	9216	6344	-116	29	62	-5224	3024	16104	24	3	2	127	139	12
-5412	-8360	13720	-15	0	-23	-13704	-7264	5520	59	30	-12	-3976	-2224	16592	46	38	-2	-160	9616	12928	-106	27	-59	-12872	8320	6040	-26	10	29	-5480	3048	15744	-24	4	6	128	139	12
-5188	-7052	13516	-43	-15	-44	-12680	-7208	5208	45	28	-2	-3904	-2320	16168	17	41	-5	-408	10312	12712	-25	8	-25	-13016	8200	6096	7	13	21	-5200	2528	15704	-25	-41	6	127	138	12
-5380	-7684	13532	-32	-22	-42	-12888	-7176	5264	38	-1	-16	-3824	-2376	15696	-33	19	-1	-536	9888	12152	-38	8	-30	-12384	9160	6616	118	-34	-3	-5040	2360	15816	-8	-50	12	127	137	12
-5508	-8516	12572	-30	-1	-40	-12920	-7208	4816	35	-13	-34	-4000	-2272	15848	-36	9	-4	-352	10112	12032	-88	24	-47	-12336	9176	6600	14	-5	3	-5064	2680	15944	-9	-45	12	128	139	12
-5792	-8612	12824	-22	-9	-27	-13168	-7272	4616	19	-5	-34	-4136	-2720	16320	-35	-54	-33	-248	9920	12760	-141	30	-69	-12944	8840	6808	-44	5	0	-5048	2536	16120	-67	-52	20	131	138	12
-5396	-7668	13140	-5	-6	-18	-13392	-7432	5288	-52	-18	-41	-4144	-3072	16272	-35	-49	-37	-1096	9720	12864	-172	60	-98	-13336	8712	6664	-117	42	-8	-5392	2176	16792	-117	-67	32	133	140	12
-6044	-10592	13512	-21	-14	-35	-13752	-8352	4896	-82	4	-28	-4184	-3304	17192	-25	-55	-22	200	9504	14288	-160	24	-76	-14048	8568	7576	-94	57	-25	-5336	1432	16968	-118	-76	45	133	140	12
-5068	-8644	13700	-32	-6	-34	-13792	-8216	5680	-135	-38	-43	-4120	-3888	16592	-48	2	15	-1080	10016	13320	-39	50	-44	-13952	8264	6592	-128	41	-23	-5280	1144	16896	-77	-39	50	133	138	12
-4840	-8160	13632	-38	12	-33	-13112	-8272	4712	-18	-10	-21	-4096	-4136	16632	-19	34	22	-1296	9944	13184	-35	46	-44	-13496	8128	6936	-26	36	-15	-5248	1168	16368	-37	2	59	130	139	12
-5416	-8612	12772	-56	1	-38	-13200	-8376	5248	-50	-9	19	-3928	-3944	16424	-21	59	45	-1232	10496	13320	-30	45	-33	-13320	7984	6440	32	26	-9	-5080	1000	15976	16	30	56	127	137	12
-5180	-8668	13264	-19	-9	-28	-13024	-8496	5296	-40	10	13	-3480	-4072	16104	8	58	44	-112	10160	13664	-38	38	-36	-13184	8368	6896	73	4	9	-4928	1016	15904	53	21	42	125	135	12
-4796	-10660	13784	-13	-18	-42	-13136	-8712	5640	8	10	13	-3448	-3672	16392	71	24	39	608	10320	14608	-37	13	-21	-13448	8336	7896	65	-25	47	-4656	1344	16416	52	15	22	127	136	12
-4080	-9048	14032	7	-25	-18	-13088	-8568	6408	-40	-16	-29	-3192	-3608	16800	95	-20	45	-64	9984	14056	13	12	-1	-13792	8432	7648	23	-57	52	-4608	1792	16960	26	-20	6	126	136	12
-4732	-9940	14168	24	-26	-10	-13208	-8688	6144	16	-26	-37	-2808	-3896	17352	131	-41	22	1112	9768	14856	61	1	30	-13448	8496	8232	37	-64	49	-4344	2320	17008	27	-15	-2	127	136	12
-3936	-8748	14496	-1	-44	-40	-12976	-8328	7088	-47	-46	-5	-2344	-3568	17304	113	-11	15	600	9216	13344	174	-12	72	-12904	8512	8352	80	-102	19	-3816	2480	17528	56	-19	-9	125	135	12
-4032	-9800	13644	46	-21	9	-12560	-8616	6784	-48	-57	14	-2040	-3296	17600	109	9	12	1712	10792	13632	182	-21	88	-12304	9480	8552	104	-81	36	-3448	2808	17304	83	-10	-17	123	136	12
-3852	-9748	14420	37	-54	-25	-12648	-8824	7648	-21	-44	9	-1904	-3032	18176	90	3	-1	2000	10552	12928	159	-22	57	-12128	9352	8952	80	-72	45	-3408	3264	17552	83	-5	-21	124	135	12
-4104	-9840	14460	36	-20	2	-13064	-8912	7512	-10	-25	7	-1944	-2808	18304	88	-1	-10	2160	10320	13784	35	10	15	-12104	9784	9328	60	-41	52	-3304	3536	17376	58	-2	-30	125	137	12
-3768	-9992	14304	21	-20	-7	-12992	-8984	7632	39	-2	-1	-2080	-2552	18272	48	-1	-9	2184	10536	13856	-29	20	-37	-12496	9768	9072	15	-21	46	-3216	3776	17408	54	-4	-33	126	137	12
-3432	-9820	14152	17	-11	-10	-13088	-8616	7552	72	24	-8	-2352	-2704	17944	-28	16	4	1808	10000	13744	-14	31	-24	-12632	9480	8928	-23	19	11	-3480	3936	17648	-33	-9	-7	127	140	12
-3680	-8832	14876	-39	-11	-25	-12768	-8040	7048	45	24	9	-2280	-2944	17256	-77	41	-3	1384	9672	13296	-3	22	-22	-12120	9280	8640	37	22	-24	-3544	3352	16856	-48	-14	25	128	138	12
-3792	-8696	13652	-56	11	-33	-12360	-7904	6424	-7	20	19	-2384	-2992	16608	-72	39	-5	1224	9576	13712	-65	26	-56	-11800	9400	8576	-7	36	-32	-3536	2952	16552	-35	-24	43	129	137	12
-3564	-9384	13708	-22	-20	-38	-12352	-8584	6592	-61	-1	-14	-2504	-2936	16832	-88	15	16	1920	10760	12856	-134	44	-70	-12304	9384	8016	-105	41	-9	-3840	2512	16200	-36	-40	58	129	136	12
-4040	-9152	13736	-47	-17	-61	-12832	-8192	6208	-30	-3	-54	-2680	-3504	16168	-61	-4	5	1416	9176	13664	-164	36	-91	-12232	8232	7960	-115	46	-7	-3656	2400	15944	-34	-26	67	132	138	12
-3648	-8412	13184	-67	3	-67	-12336	-7800	5888	-52	-7	-39	-2504	-3552	15664	-17	-6	-2	592	8680	12776	-102	47	-72	-12136	7408	7160	-115	38	-36	-3600	1752	15328	-39	-22	68	131	137	12
-4328	-7776	12864	-81	-4	-72	-11344	-7688	5584	-42	-13	-10	-2392	-3552	15200	-19	18	-3	976	7672	11960	-38	15	-42	-11712	7088	6984	-41	21	-38	-3512	1344	15064	-8	-20	61	129	136	12
-3484	-8692	12336	-40	-7	-62	-11000	-7976	5752	-40	-24	0	-2120	-3720	15080	-15	32	14	1384	9288	12176	-38	6	-31	-11312	7520	7184	49	0	-11	-3176	1160	14744	42	-3	45	129	135	12
-3308	-9596	12308	-7	-22	-54	-11216	-8296	6040	-53	-30	-16	-2256	-3688	15488	11	21	19	1712	9568	12680	-76	5	-49	-11600	7480	7544	65	-22	28	-3224	1312	15064	42	-4	25	130	135	12
-3628	-8548	12952	24	-29	-38	-11552	-8752	6392	-32	-38	-38	-2256	-3872	16104	46	-1	9	616	8880	12928	-78	14	-65	-12128	7640	7944	6	-42	60	-3232	1808	15936	3	-20	2	129	137	12
-3780	-8880	12888	36	-13	-19	-12168	-8768	6560	32	-28	-35	-2136	-3864	16688	73	-30	-10	880	8792	13712	-76	11	-41	-12704	7744	8312	2	-30	61	-3488	1752	16632	-21	-40	-7	129	139	12
-4012	-9176	13512	19	-30	-39	-12312	-8816	6512	35	-8	-5	-2128	-4152	17152	71	-45	-1	1000	8976	13904	-34	5	-38	-13144	7856	8600	21	-26	52	-3384	1672	17136	-20	-56	-3	127	138	12
-3972	-9884	13452	29	-13	-20	-12160	-9024	6640	2	-11	14	-2152	-4040	16976	68	-50	14	1144	8984	14352	10	5	-9	-13344	8512	9048	54	-19	49	-3592	1960	17944	-8	-59	-1	126	138	12
-3724	-9096	14080	35	-22	-6	-12336	-9312	7128	-7	-10	5	-2152	-3944	17120	66	-46	11	1568	9888	14992	67	3	25	-13392	8680	9600	70	-33	49	-3360	2344	18184	7	-40	0	124	138	12
-3272	-10516	14048	32	-25	2	-12712	-9424	7096	3	-11	9	-2096	-3912	18032	69	-44	13	1600	9472	13968	95	9	42	-12960	8864	9016	24	-41	43	-3488	2696	17800	9	-27	2	125	138	12
-3816	-8264	14084	61	-15	29	-12584	-8760	6952	23	-12	1	-2040	-3848	17488	53	-11	13	1000	7848	13168	158	18	44	-12160	8648	8216	-7	-12	24	-3096	2896	17264	31	12	17	126	138	12
-3840	-10092	13692	40	-24	5	-12248	-8352	6680	46	13	60	-1904	-3440	17544	37	26	15	2112	9456	12912	160	-11	53	-11792	9008	8176	47	14	1	-3088	2656	16400	49	34	29	125	138	12
-3116	-8636	13892	70	-23	28	-12128	-8224	6792	-22	0	65	-1952	-3072	16688	8	69	27	1880	10720	12296	109	23	29	-11416	9296	8304	10	25	33	-3168	2624	16032	71	44	24	126	137	12
-3868	-8812	13348	42	-14	18	-12200	-8224	6464	11	5	45	-2216	-2920	16584	20	63	23	1888	10368	12784	0	33	-28	-11352	9016	7848	-11	29	50	-3576	2824	15976	72	41	23	126	138	12
-3948	-10328	14284	71	-37	6	-12608	-8600	7056	27	19	25	-2472	-2616	16824	64	35	20	2192	10008	12848	-86	8	-54	-12248	9072	7912	7	-1	72	-3888	2784	16440	37	3	13	127	137	12
-3816	-8884	14444	55	-18	8	-13080	-8160	6800	47	0	-26	-2616	-2704	16800	57	-1	13	1304	9240	14440	-123	18	-66	-12968	8936	8448	40	-13	71	-4216	3192	16960	15	-30	4	128	138	12
-3188	-9344	14156	1	-17	-34	-13168	-8096	6856	60	-6	-24	-2728	-2736	16960	60	-54	-10	1664	9712	14392	-82	14	-47	-13424	8768	8344	70	-33	29	-4168	3216	17640	-23	-67	17	129	138	12
-3508	-9184	14156	-6	-12	-35	-12728	-8296	6784	1	-10	-19	-2616	-2856	17288	30	-69	-11	856	9496	13760	-1	33	-19	-13088	9016	8328	20	-17	-5	-4024	2888	17376	-31	-69	20	130	139	12
-4496	-9436	14900	-36	-22	-55	-12336	-8400	6816	-10	-6	-20	-2032	-3208	17096	5	-42	-13	2024	9408	13248	39	-8	0	-12472	9104	8816	46	-33	-26	-3416	2808	17480	-22	-46	25	131	138	12
-3540	-9252	13360	-25	25	-26	-12568	-8288	6944	-68	-32	-27	-1768	-3096	17616	10	-13	-4	1856	9568	13528	-5	18	-21	-12056	9352	8632	-16	2	-14	-3208	2784	17320	-16	-25	10	130	138	12
-3212	-9484	13904	-15	-17	-41	-12600	-8560	6704	-64	-14	-29	-1936	-3392	17344	11	-3	-5	2464	10192	14072	-81	30	-45	-12648	8944	9200	-69	13	-16	-3024	2616	17288	-19	-17	11	130	138	12
-3756	-9868	14380	-60	-3	-51	-12584	-9240	7456	-57	2	-36	-1792	-3384	17464	-31	72	3	1928	9784	14192	-92	37	-56	-12960	8696	9032	-91	16	-17	-3208	2688	17912	-44	7	-10	130	139	12
-3340	-9264	14056	-42	13	-28	-12264	-8968	7376	-38	4	-45	-1808	-3704	17168	-53	85	4	1424	9344	14088	-42	29	-25	-12856	8288	9384	-10	10	-24	-3168	2464	17344	-54	9	-2	130	139	12
-2896	-8776	13568	-68	10	-48	-11888	-8472	6888	-15	5	-21	-1584	-3784	16072	-59	87	5	1672	9160	13640	-37	26	-20	-11840	8024	8344	7	3	-49	-2984	2272	16136	-11	32	21	129	139	12
-3144	-9220	13024	-59	-7	-61	-11080	-8024	6664	0	18	10	-1560	-3664	15392	-68	91	22	2208	8440	11952	73	12	13	-10800	7912	8176	29	2	-47	-2600	2288	15128	28	48	46	126	136	12
-2812	-8640	12884	-3	-20	-24	-10584	-8000	6408	-25	8	14	-1376	-3136	15312	-48	70	27	2072	9792	11664	12	7	-3	-10296	8360	8128	46	9	-19	-2504	1952	14624	41	27	43	125	135	12
-2432	-9400	13080	34	-27	-11	-11000	-8248	6704	-47	-21	-12	-1752	-3080	15368	-2	13	18	2464	10248	12344	-75	2	-28	-10648	8360	8328	-15	-7	32	-2584	1968	14672	22	-11	27	127	135	12
-2560	-8880	13848	45	-50	-17	-11856	-8320	7024	-30	-43	-61	-1832	-3392	16104	58	-59	-11	2568	8168	12840	-104	0	-48	-11392	7952	8560	-51	-35	63	-2760	2184	15568	-16	-55	18	129	136	12
-2332	-8668	13716	17	-30	-33	-11968	-8128	7240	30	-48	-39	-1768	-3704	16136	84	-92	-27	2048	8360	13264	-80	-6	-30	-11888	7176	8768	-10	-61	41	-2848	2400	16336	-27	-96	3	130	137	12
-2376	-8820	13332	-52	-17	-81	-11104	-8352	7000	16	-46	-5	-1528	-3568	16664	73	-75	-29	1968	7928	13648	2	-21	1	-11816	7344	9320	103	-79	18	-2416	2360	16688	6	-93	-2	127	137	12
-2104	-9412	12760	-79	-17	-87	-10608	-8696	7072	-25	-59	-2	-1024	-3400	16656	28	-34	-17	2592	9720	13672	10	1	4	-11472	8304	10032	149	-98	17	-1784	2544	17664	37	-87	-18	126	136	12
-2308	-10236	13408	-54	-24	-63	-10992	-9664	7648	-49	-61	-28	-432	-3704	17360	9	-19	1	3240	9432	14072	-27	6	-14	-12072	9056	10552	83	-72	27	-1504	2968	18424	27	-72	-18	128	138	12
-2208	-10160	14208	-21	-28	-36	-11552	-9896	8312	-64	-55	-65	-488	-3952	17768	3	-13	12	3176	8944	14160	3	8	-8	-12304	8928	10880	-14	-50	17	-1512	3056	18496	-7	-31	-6	130	140	12
-1916	-9240	13628	-18	-7	-8	-11760	-9248	8320	-33	-41	-53	-264	-4136	18048	2	-1	5	2472	9392	13640	32	44	-5	-11872	8576	10208	-83	5	-7	-1520	2992	18160	-39	-7	16	131	139	12
-2380	-9088	14048	-25	-15	-31	-11432	-9072	8000	-35	5	15	-72	-4424	17560	-11	34	25	2824	8696	13600	74	22	18	-11504	8192	10352	-45	41	-32	-1376	2680	17240	-17	18	38	128	138	12
-1952	-9708	13344	-44	-1	-28	-10904	-9152	8240	-90	-5	55	-128	-4480	17256	-14	38	27	2952	9560	12544	52	44	-7	-10888	8328	9280	-50	55	-20	-1416	2416	16808	18	26	55	125	136	12
-2456	-9388	13416	17	3	10	-10888	-9128	7992	-88	0	58	-376	-3752	16400	0	57	61	2800	8784	12568	48	51	-15	-10760	8320	8944	-12	61	7	-1856	2216	15984	39	41	55	122	137	12
-1628	-9792	13404	64	-8	22	-10848	-9008	7432	21	40	22	-760	-3792	16360	37	34	55	2808	9640	12776	-53	28	-51	-10992	8024	8936	37	41	39	-2072	2192	15496	38	45	44	123	136	12
-2172	-8336	13200	66	-2	23	-11320	-8696	7352	81	44	5	-1112	-3480	15816	78	19	30	2312	9328	12840	-68	41	-58	-11032	7656	8360	60	27	49	-2528	2408	15368	36	35	28	124	136	12
-2576	-9416	13412	49	-2	-3	-11280	-8056	6720	123	52	13	-1408	-3224	15928	79	-12	4	2528	8648	13376	-52	6	-41	-11440	7832	9032	111	-1	42	-2632	2456	15760	32	-1	11	126	136	12
-1924	-9364	13588	50	-20	-10	-11224	-8024	7384	26	10	14	-1480	-2976	15848	66	-31	-8	3104	9416	13536	-10	6	-26	-11800	8280	9008	93	-32	44	-2736	2808	15984	26	-30	-5	128	136	12
-1848	-8732	13572	36	-15	-14	-11336	-8544	7200	-7	-18	-18	-1264	-2904	16248	40	-41	-8	2192	9200	13520	-8	11	-19	-11496	8336	9360	64	-53	42	-2592	2968	16352	4	-51	-12	130	138	12
-2520	-9348	13716	7	-24	-33	-11512	-8624	7544	-20	-20	-23	-1216	-2960	16880	45	-44	-23	2760	8632	13536	35	-8	3	-11832	8400	9688	40	-62	18	-2336	3176	16984	-12	-56	-13	130	137	12
-2116	-8904	13968	6	-20	-30	-11384	-8552	7736	-45	-37	-30	-840	-3256	16776	20	-2	-30	3040	8640	13808	64	-3	13	-11336	8496	10048	9	-52	2	-1976	3208	17152	-9	-48	-28	131	139	12
-2008	-9176	13388	-19	-14	-41	-11368	-8840	8016	-40	-38	-26	-536	-3248	17432	0	21	-30	3064	9200	13128	30	18	-5	-11120	8544	9704	-20	-31	-6	-1584	3408	17568	-17	-29	-21	130	139	12
-2336	-9864	13960	-40	-14	-56	-11016	-9064	7816	-49	-9	-17	-344	-3304	17304	-41	52	-13	3272	8336	13192	-7	7	-11	-11336	8800	10328	3	-8	-17	-1224	3096	17432	-18	-10	-16	131	140	12
-2140	-9588	13424	-49	7	-34	-10928	-9072	7976	-59	-16	-26	-272	-3648	16944	-47	45	1	2720	9576	12744	-36	43	-38	-11208	9136	9792	-2	19	-19	-1640	3072	17808	-53	-25	3	130	139	12
-2072	-9436	13516	-47	11	-28	-11200	-9272	7808	-8	18	-26	-408	-3776	16848	-32	20	18	3192	9696	13544	-34	53	-29	-11192	8616	9664	-29	56	-12	-1592	2664	16616	-43	17	32	129	140	12
-2152	-8800	14536	-29	-12	-24	-11128	-8584	8176	-7	27	7	-416	-4056	16560	-23	25	33	2944	9808	12120	-4	50	-38	-10784	8144	9264	-27	50	-27	-1680	2488	16136	-31	26	66	126	138	12
-3272	-9996	13044	-28	24	-13	-11128	-8712	7184	4	30	24	-816	-3560	16920	27	11	36	2432	9240	12888	-119	55	-86	-10824	8648	9192	-32	63	12	-2024	2072	16176	-17	4	71	124	136	12
-2112	-9932	13768	34	-9	-4	-11304	-9528	7464	-27	30	5	-1080	-3672	16432	21	-19	54	3584	9256	13904	-183	36	-86	-11768	8488	9352	-18	50	34	-2776	2144	16152	1	-23	58	125	133	12
-1756	-8856	14340	30	-35	5	-11936	-9448	7960	-12	-3	-37	-1488	-3800	16480	34	-64	33	2424	7984	14168	-152	59	-89	-12528	8016	9304	-63	16	60	-3152	2408	16416	3	-34	32	127	137	12
-2792	-9172	13976	-5	-6	-6	-11816	-8624	7160	66	9	-30	-1736	-3880	16656	56	-68	-1	1616	7904	14088	-74	31	-41	-12408	7528	8968	-3	-11	24	-3032	2496	16848	-20	-46	31	128	138	12
-2624	-10424	13468	-14	-11	-36	-11328	-8704	6624	42	11	19	-1288	-3320	16528	56	-51	-9	2736	8912	14232	37	-13	22	-12440	8128	9304	111	-30	-13	-2448	2144	16632	-6	-51	23	127	137	12
-1720	-9592	13744	-12	-26	-30	-11416	-8800	7320	-51	-38	-8	-896	-3352	16704	-1	6	3	2344	9304	13440	81	-7	26	-11560	8248	9296	55	-54	1	-2232	2504	16696	36	-20	-4	129	137	12
-3004	-9864	13648	25	-27	-15	-11496	-9016	7560	-24	-24	-33	-952	-3536	17024	4	34	-15	3088	8688	13392	69	-2	19	-11216	8448	9560	28	-45	12	-2224	2720	16704	27	9	-23	129	139	12
-2472	-8884	14088	2	-35	-37	-11424	-8848	8040	-45	-26	-13	-816	-3416	17072	5	51	-17	2504	8384	13176	47	-10	0	-11184	8568	9368	-13	-38	13	-1960	3152	16656	0	5	-27	131	140	12
-2540	-8956	13080	-4	0	-23	-11352	-8664	7488	-9	-16	-17	-816	-3536	16968	6	49	-23	2224	9728	12944	22	21	-1	-11056	8544	9568	-40	-8	6	-1880	2776	16664	-22	-14	-15	129	140	12
-2584	-9772	13660	-15	-12	-50	-11080	-8736	7664	-2	4	-5	-832	-3480	16624	-20	32	3	2720	9216	12944	-22	11	-27	-11136	8520	9360	-27	4	8	-2016	2680	17048	-30	-26	-1	128	138	12
-2600	-9828	13816	11	-3	-21	-11400	-9112	7472	-20	-3	-4	-1000	-3704	17008	-14	5	8	2960	8792	13504	-70	13	-51	-11640	8952	9768	14	10	21	-2112	2664	16888	-27	-34	8	127	139	12
-2380	-9372	13708	9	-5	-22	-11848	-9344	7664	24	1	-30	-1168	-3944	16816	15	-43	3	2616	9640	13568	-105	38	-78	-11800	8536	9328	-1	11	27	-2688	2544	17032	-22	-51	29	128	138	12
-2856	-10404	13624	-7	2	-42	-12000	-9328	6776	55	28	-22	-1408	-4064	16864	32	-75	7	2752	9344	14896	-126	14	-67	-12384	8584	9944	49	15	16	-2472	2240	17256	-23	-59	41	129	137	12
-1928	-9472	14440	-18	-20	-49	-11872	-9352	7768	-27	-13	-31	-1320	-4000	16848	31	-60	3	2944	8664	14352	-107	27	-74	-12760	8272	9808	-17	-2	18	-2528	2264	17368	-10	-56	33	128	136	12
-2128	-9756	14192	-23	-11	-45	-11848	-9600	7400	-2	-18	-30	-1384	-4344	17144	31	-45	2	2392	8536	14464	-35	17	-39	-12472	8024	9424	-34	5	0	-2336	1928	17552	11	-34	41	129	138	12
-2316	-9712	14440	-1	-35	-42	-11344	-9392	7512	-33	-21	-7	-1192	-4632	16760	28	-14	5	2224	9200	14512	-19	13	-31	-12248	8048	9480	9	-21	3	-2488	1776	17144	24	-23	43	129	138	12
-2696	-9300	13352	-5	-18	-36	-11616	-9408	7384	-36	-36	2	-1096	-4464	16848	24	17	14	2344	8904	13760	21	3	0	-11632	8136	9232	-16	-16	29	-2200	1640	16920	56	-2	35	127	137	12
-2624	-9964	13344	22	-32	-40	-11200	-9464	7424	4	-18	13	-1064	-3944	16536	28	36	16	2552	8984	12936	18	2	-1	-11656	7744	9024	-37	-17	40	-2248	1784	16688	65	6	16	126	137	12
-2480	-9652	13316	47	-29	-15	-11200	-9136	7128	34	-21	22	-960	-3968	16648	34	39	13	2360	8736	13672	18	-7	4	-11768	7984	9200	18	-24	51	-2192	2088	16352	65	5	10	126	139	12
-2208	-9444	13320	47	-39	-9	-11200	-8944	7304	39	-25	17	-1056	-3736	16416	58	16	10	2256	8624	13192	34	7	4	-11704	7736	8984	35	-34	58	-2576	2304	16424	42	-13	7	125	137	12
-2420	-9580	13344	54	-32	-4	-11320	-8784	7272	73	-7	19	-1248	-3456	16368	67	-19	9	2184	8608	13432	66	-16	27	-11824	7768	9224	39	-33	64	-2512	2616	16224	36	-30	0	126	138	12
-2456	-8828	13344	33	-35	-11	-11264	-8512	7192	45	-20	11	-1360	-3376	16256	67	-52	4	2264	9352	12880	112	-13	37	-11288	8400	8824	62	-42	45	-2568	3040	16648	26	-46	11	126	135	12
-2780	-8772	13376	30	-44	-7	-11328	-8368	6808	60	-6	10	-1176	-3064	16208	65	-68	-7	2512	9608	13264	72	-20	31	-11296	8672	9040	60	-39	37	-2384	3032	16024	27	-47	11	125	137	12
-2396	-9128	13324	9	-31	-22	-11488	-8144	7384	17	-21	4	-1232	-2784	16448	49	-58	4	1816	9256	12632	54	-9	19	-11192	8664	8928	7	-35	29	-2640	3064	16536	3	-46	10	126	138	12
-3300	-8748	13016	52	-13	12	-11360	-8312	6976	24	-4	-7	-1480	-2864	16736	37	-39	-11	2720	9176	12904	13	12	6	-11320	8880	8752	-29	3	28	-2496	3376	16472	-9	-35	7	127	139	12
-2436	-8392	13948	33	-39	-25	-11312	-8080	7552	1	1	3	-1208	-2968	16296	6	-2	-8	2416	8304	12504	57	-8	6	-11080	7984	8976	-8	-9	6	-2328	3288	16056	-5	-2	12	129	140	12
-2800	-8292	12704	-2	7	-15	-11160	-7616	6728	-25	-14	3	-1176	-3008	16824	13	21	1	2032	10784	12048	39	17	-6	-10520	8584	8336	20	8	-6	-2352	2832	16192	-1	-6	12	129	137	12
-2900	-9452	13748	6	-16	-36	-11376	-8728	7096	-11	19	4	-1088	-3024	16712	12	28	3	2984	9120	13608	-78	-2	-48	-11360	8864	9696	72	-16	13	-2312	2976	16392	21	0	0	129	136	12
-2120	-8928	13308	-27	2	-36	-11768	-8624	7864	-59	-27	-30	-1152	-2880	16632	3	31	7	1952	9712	12984	-98	43	-64	-11632	8752	9008	-16	-19	15	-2520	3096	17112	4	-12	-5	130	137	12
-2796	-8880	13500	-4	8	-20	-11544	-8720	7256	35	25	-53	-1104	-3424	16664	-4	39	-15	2368	8464	13528	-73	28	-40	-11640	8832	8728	-27	-10	17	-2312	3056	16456	-36	0	6	131	141	12
-2368	-8392	13996	-50	4	-59	-11040	-7888	7800	-15	-1	-19	-832	-3416	16224	-15	41	-10	2128	8672	12200	10	25	-30	-11104	8104	8968	24	7	-46	-2080	2616	16240	-44	-3	27	129	138	12
-3060	-9992	12684	-44	22	-49	-10976	-8688	6832	-31	13	4	-784	-3272	16704	-11	13	-1	3040	9160	12944	-62	23	-46	-10880	8520	9200	25	30	-24	-1936	2088	16048	-5	-16	17	128	137	12
-2216	-9608	13612	-19	-5	-45	-10992	-9120	7488	-68	6	-30	-1016	-3376	16264	-34	-7	17	3080	9608	13176	-108	36	-74	-11264	8192	9368	-45	21	-2	-2056	2480	15864	-12	-19	8	128	137	12
-2472	-9800	13284	-2	12	-22	-11640	-9200	7376	-54	2	-59	-1368	-4120	16632	-11	-19	-2	2568	8840	13128	-145	54	-92	-11712	8080	8872	-99	21	21	-2440	2256	16368	-59	-28	2	129	140	12
-2928	-9804	13924	-6	-6	-36	-11400	-9448	7376	13	25	-49	-1400	-4224	16560	23	-19	-17	2472	7904	13968	-128	28	-80	-12320	7776	9304	-31	11	0	-2488	1864	16992	-74	-48	14	130	138	12
-2612	-9696	13840	-11	6	-29	-11736	-9184	7384	-12	-1	-20	-1376	-4264	16792	16	-23	-5	2368	8128	14064	-67	28	-58	-12520	7976	9576	7	13	6	-2496	1696	17384	-24	-45	9	128	138	12
-2620	-9744	13736	-29	1	-41	-11488	-9472	7328	-19	-8	-14	-1312	-4440	17056	4	-9	2	1752	9128	14176	-14	19	-27	-12368	8080	9560	12	1	6	-2328	1976	17280	8	-23	14	128	139	12
-2888	-9504	13096	-6	6	-26	-11568	-9328	6984	0	-6	-4	-1304	-4464	17168	15	8	1	2032	9944	13736	31	32	-18	-11832	8144	9032	25	-4	6	-2448	1832	17264	24	-3	21	128	139	12
-2896	-10252	13940	3	-25	-37	-11488	-9560	7472	-1	4	19	-1000	-4448	16904	36	19	6	2624	8224	12976	23	10	-21	-11864	8168	9304	8	-7	11	-2376	1920	17056	26	-2	18	127	138	12
-3008	-9804	13256	25	16	-1	-11608	-9024	6928	21	-6	16	-1064	-4208	16912	46	19	11	2400	9104	14112	-23	18	-34	-11832	8344	9664	19	9	29	-2296	2080	17016	35	1	17	127	137	12
-2248	-9764	13464	15	-8	-21	-11624	-9432	7496	-1	10	23	-1176	-4064	16896	51	11	12	2168	8864	13944	-3	28	-29	-12272	7712	9776	-6	2	30	-2280	1984	17008	25	4	14	127	138	12
-3060	-10788	13672	8	1	-14	-11616	-9368	7232	6	7	12	-1184	-3968	16816	43	2	16	2272	9632	14352	-15	13	-25	-12336	8360	9488	33	-4	34	-2552	2280	17392	-8	-17	10	127	139	12
-2388	-10084	13596	58	-4	9	-11752	-9640	7280	22	13	-8	-1344	-3952	17056	44	-9	14	1704	9328	14168	8	23	-11	-12432	8496	9368	47	0	27	-2704	2368	17536	-1	-21	10	126	139	12
-2940	-9556	13720	51	-16	16	-11920	-9040	7256	28	9	-2	-1568	-3800	17048	38	-14	11	2216	9040	13816	61	25	-10	-12120	8680	9288	30	10	19	-2736	2320	17024	16	-1	14	127	138	12
-2752	-9384	14176	65	-27	6	-12032	-8816	7320	26	20	11	-1424	-3896	16920	40	-8	15	2736	9096	13696	58	8	4	-12240	8752	9320	39	9	23	-2696	2664	16792	29	9	15	127	138	12
-2776	-9520	13780	36	-8	-6	-11984	-8536	7584	-26	0	16	-1504	-3504	17024	52	-1	18	2224	8936	12992	85	22	-5	-11624	8352	8800	-2	-3	21	-2560	2720	16392	34	16	16	127	138	12
-3032	-9372	13908	25	-6	-16	-11776	-8552	7224	-8	18	28	-1368	-3280	16704	52	24	11	2544	9376	13128	51	1	0	-11368	8520	9184	48	4	15	-2672	2656	16320	35	15	8	127	138	12
-2144	-9088	13204	13	8	-15	-11456	-8784	7568	-17	4	21	-1344	-3136	16728	48	40	9	2248	9752	12880	34	25	-18	-11264	8264	8880	44	-7	26	-2520	2728	16304	32	19	-2	127	138	12
-2764	-10156	13436	9	3	-27	-11416	-8792	6960	20	14	10	-1320	-3024	16688	27	52	1	2872	9416	13104	-25	9	-43	-11432	8608	8912	51	-6	21	-2704	2952	16656	23	10	-9	128	138	12
-2348	-9692	13708	27	5	-21	-11504	-8744	7240	43	22	-2	-1432	-3080	16400	15	51	-12	2176	9104	13192	-23	13	-48	-11408	8656	9192	44	-1	25	-2520	3040	16720	8	8	-14	128	138	12
-2412	-8384	13140	3	13	-24	-11320	-8224	7104	36	13	-11	-1528	-3296	16336	1	45	-16	1632	8848	13344	5	29	-40	-11456	8496	8928	36	8	0	-2624	2816	16376	-11	2	0	130	139	12
-2688	-8940	13716	0	-14	-32	-11192	-8312	7320	23	20	1	-1232	-3448	16328	-4	27	-21	2904	8920	12864	12	13	-27	-11104	8288	9416	34	-6	-7	-2168	2528	16200	-8	-6	0	129	139	12
-2656	-10064	13500	2	1	-36	-11408	-8216	7184	-39	-8	-5	-1200	-3416	16264	-4	-10	-7	2848	8960	12928	-23	9	-45	-11192	8616	9000	10	-2	4	-2272	2560	16312	-2	-32	8	129	138	12
-2452	-9572	13344	21	2	-28	-11576	-8976	7304	-58	-13	-27	-1488	-3704	16712	10	-27	-6	2936	9472	13416	-82	32	-65	-11520	8560	9184	-34	13	24	-2384	2384	16800	-14	-46	12	130	139	12
-2812	-10176	14216	-1	-15	-44	-11696	-9400	7400	-41	-8	-21	-1344	-4096	17168	29	-45	-8	2488	8576	13600	-104	19	-79	-12208	8472	9432	-44	2	17	-2744	2328	17376	-37	-60	20	129	139	12
-3196	-9564	13952	-8	2	-37	-12032	-9376	7168	-2	0	-28	-1744	-4144	17208	39	-37	-7	2232	8816	14544	-112	29	-71	-12360	8080	9744	-25	5	23	-2672	2072	17288	-21	-49	26	128	139	12
-2436	-9088	13732	-24	-14	-45	-11512	-9256	7392	26	-2	-13	-1352	-4288	16608	35	-9	-5	2384	8056	13416	0	23	-33	-12280	7592	9368	-11	-13	3	-2408	2008	16904	24	-13	30	128	138	12
-2912	-9512	13528	-26	-1	-54	-11064	-8880	7104	41	-3	18	-976	-4000	16568	20	19	6	2352	9176	13312	56	-8	8	-11456	8008	9216	90	-18	-3	-2080	1880	16760	49	8	30	127	138	12
-2728	-10004	12888	-15	-5	-45	-10768	-9040	7048	6	-17	24	-976	-4024	16424	21	25	8	2464	9080	12824	31	9	-6	-11160	8352	9008	34	-16	15	-2176	2016	16376	62	12	14	127	136	12
-2932	-9540	13080	48	-16	-4	-11056	-9040	6976	-6	-8	8	-1104	-3616	16328	21	31	18	2680	9152	13056	-7	12	-22	-11296	8520	9072	-1	0	35	-2240	2040	16040	55	9	12	127	137	12
-2584	-9620	13448	67	-27	-1	-11624	-8848	7480	12	-1	-4	-1112	-3944	16368	29	13	12	2408	8688	12904	-5	18	-21	-11664	8104	8744	-45	-1	51	-2160	2272	16240	47	8	9	127	138	12
-3072	-9020	13460	55	-21	10	-11624	-8496	6920	33	1	10	-1456	-3808	16336	54	-7	4	1888	8824	13248	-1	20	-21	-11840	8024	8816	-16	12	40	-2736	2320	16104	3	-21	19	127	138	12
-2676	-9492	13496	32	-20	-13	-11448	-8720	6848	28	7	36	-1496	-3464	16296	63	-31	1	2568	8968	13632	6	0	-14	-12024	8144	8872	55	-12	37	-2760	2296	16632	10	-44	10	126	137	12
-2680	-10132	13412	20	-20	-17	-11552	-8744	6928	4	-14	18	-1472	-3168	16952	46	-52	1	2152	9896	13728	11	2	-11	-12048	8728	9136	73	-35	46	-2808	2552	17032	18	-60	3	126	137	12
-3112	-9760	13936	45	-23	2	-12080	-9240	7360	29	-14	-18	-1536	-3392	17008	49	-67	-10	2168	8096	13752	-14	4	-33	-12448	8936	8824	40	-29	54	-2976	2864	17376	8	-55	2	127	139	12
-2656	-9844	14108	48	-19	-15	-12216	-8744	7104	65	0	-17	-1512	-3368	16960	56	-50	-17	2224	9112	13984	20	-15	-1	-12088	8944	9488	62	-28	14	-2808	3176	17432	-9	-34	15	128	139	12
-2864	-9220	13864	9	-18	-24	-12000	-8368	7456	26	-11	-11	-1576	-3320	17256	42	-25	-11	2288	10040	13704	56	-3	13	-11928	9032	9264	11	-11	2	-2832	2872	17184	1	-28	10	129	138	12
-2804	-8916	13916	-4	-26	-43	-11912	-8488	7568	-8	-7	-9	-1456	-3248	17304	7	13	7	2296	8776	13240	29	6	-16	-11784	8616	8976	-32	-6	-1	-2528	2856	16568	15	-4	9	128	138	12
-2500	-9920	13860	10	-8	-45	-11552	-8728	7224	-33	-6	-4	-1248	-3208	16728	5	40	7	2744	9656	13024	12	-11	-9	-11552	8688	9184	12	-23	0	-2448	2840	16688	21	4	6	129	138	12
-2328	-9336	13492	8	-12	-36	-11704	-8784	7208	-53	-26	-26	-1224	-3352	16864	9	47	3	2072	10224	13400	-20	11	-31	-11408	8728	9000	5	-12	10	-2456	2768	16600	11	-7	9	130	138	12
-2872	-9236	13488	10	-13	-37	-11752	-8872	7240	4	-8	-26	-1352	-3512	17312	20	25	-2	2296	8904	13552	-68	12	-60	-11712	8584	8952	13	-6	14	-2672	2576	16632	6	-11	8	130	138	12
-2728	-9280	13908	-5	-10	-47	-11824	-8824	7432	6	0	-19	-1384	-3416	17208	19	24	-3	2384	8984	13520	-72	12	-61	-11824	8088	9104	20	-8	7	-2600	2752	16712	8	-14	8	128	138	12
-3036	-8884	13448	-32	2	-53	-11496	-8720	7104	24	4	-21	-1224	-3488	16632	8	-1	-20	2000	9216	13184	-44	20	-44	-11656	8320	8904	16	-7	-3	-2504	2456	16728	-4	-36	7	128	139	12
-2844	-9580	13492	-27	1	-57	-11064	-8720	7112	41	16	-4	-1288	-3536	16368	2	-13	-20	2728	9096	14040	-46	0	-32	-11792	8424	9376	75	-10	-6	-2288	2424	17000	-10	-43	3	128	139	12
-2136	-9612	13184	0	-10	-35	-11424	-9056	7552	-22	-15	-28	-1280	-3816	16648	-1	-31	-12	2400	9216	13120	-34	30	-45	-11840	8424	8984	-12	-3	4	-2432	2368	16848	-21	-36	7	128	138	12
-2992	-9472	14208	38	-19	-22	-11728	-9144	7080	10	10	-35	-1232	-3984	16912	2	-27	-11	2176	9816	13416	-28	30	-41	-11888	8264	9464	-28	-3	9	-2360	2312	16608	-21	-28	11	129	140	12
-2728	-9040	13844	-1	4	-33	-11480	-8432	7384	-31	-7	-17	-1248	-4008	16848	23	-2	-11	2248	8712	13104	-1	12	-28	-11448	8088	8944	-47	3	3	-2280	2112	16592	-13	-14	16	128	139	12
-2832	-9360	12952	-38	10	-56	-11168	-9112	7016	-35	-3	-1	-1184	-3840	16608	24	25	3	2376	8240	13264	-19	12	-37	-11640	7872	9040	-9	2	2	-2192	1928	16328	14	-7	6	128	138	12
-2404	-10056	13468	-5	-6	-46	-11032	-9136	7224	-22	-7	6	-1184	-3864	16384	8	46	13	3000	8752	13432	-33	6	-37	-11488	8096	9488	43	-10	16	-2176	2000	16744	34	-4	1	127	137	12
-1996	-10504	13172	5	-11	-39	-11144	-9360	7072	4	-11	-11	-912	-3984	16552	18	33	10	2304	9032	13608	-33	10	-33	-11784	7848	9576	60	-17	30	-2264	2200	16632	33	2	3	127	138	12
-1964	-9248	13384	21	-14	-23	-11120	-9128	7072	33	-9	-22	-1160	-4144	16400	41	21	0	2200	9664	13752	4	14	-18	-11640	8144	9232	53	-16	11	-2240	2216	16952	10	-15	15	128	138	12
-2424	-9536	13516	14	-25	-31	-11216	-8880	7232	43	-10	-3	-984	-3848	16456	53	-4	-2	2360	8432	13448	17	11	-17	-11728	8144	9392	9	-21	28	-2024	2432	16432	20	-15	24	127	138	12
-2392	-9468	13256	9	-18	-34	-11152	-8440	7232	12	-11	-2	-1008	-3632	16584	47	-20	6	2496	8272	13080	50	8	-7	-11176	7984	9120	5	-11	20	-1992	2288	16632	21	-17	27	127	138	12
-2300	-9160	13084	17	-11	-29	-10952	-8552	7096	-13	-3	19	-720	-3712	16224	49	-26	3	2496	8664	12656	69	8	-1	-11048	7776	8896	7	-9	21	-2024	2496	16272	27	-17	29	126	138	12
-2448	-9536	13132	24	-20	-20	-10856	-8584	7128	-31	-4	27	-888	-3576	16328	52	-15	8	2680	9424	12696	6	7	-21	-10968	8272	9072	40	-4	33	-2136	2352	15928	27	-21	26	126	137	12
-2532	-9940	13020	65	-17	-1	-10728	-8616	7176	-26	-10	23	-1040	-3312	16544	51	-24	15	2376	9328	12936	-22	17	-38	-11488	8448	9120	1	4	50	-2584	2400	16472	30	-17	11	127	137	12
-2380	-9632	13060	76	-19	4	-11736	-8864	7264	45	9	-3	-1264	-3600	16888	49	-20	6	2472	8800	12776	-26	24	-39	-12112	8568	9920	66	-7	50	-2488	2496	16512	26	-15	7	129	138	12
-2156	-9736	14012	70	-19	4	-12128	-9256	7920	48	-4	3	-1480	-3456	17464	79	-40	-6	2512	9160	14480	-55	26	-50	-12584	8856	9576	46	-22	57	-2872	2672	17752	0	-39	0	129	138	12
-2900	-9220	14352	41	-16	-12	-12536	-9200	7824	61	2	-8	-1592	-3640	17608	68	-42	-4	2656	7976	14360	14	9	-31	-12648	8528	9616	20	-10	28	-2808	2776	17464	-1	-38	-1	129	139	12
-2452	-9032	14868	-9	-11	-55	-11888	-8424	7760	52	15	19	-920	-3632	16792	50	15	-9	2864	7776	13912	101	-14	19	-11712	8136	9992	75	-37	-9	-2056	2872	16632	48	11	6	127	140	12
-1968	-8756	12496	-77	14	-78	-10592	-7896	7304	-20	-22	23	-816	-3432	16816	52	21	-14	2368	9968	12688	116	-1	19	-10472	8232	9208	66	-27	-18	-1736	2800	16880	60	6	7	126	138	12
-3112	-11536	13068	10	-32	-49	-10448	-9864	7400	-30	3	14	-1112	-2944	17024	15	39	10	3872	11536	12920	-62	7	-35	-11528	10024	9744	36	-18	18	-1976	2712	16704	42	-3	7	126	137	12
-3140	-10488	14660	103	-34	20	-12440	-10296	7784	-26	-16	-72	-1504	-3296	17488	-35	-34	7	3408	8448	14264	-191	39	-103	-12784	9656	9792	-135	7	75	-2800	3072	17552	-27	-28	-14	131	141	12
-1920	-9008	15516	49	-23	-16	-12960	-8816	8296	46	9	-81	-1056	-4120	16832	20	-39	-38	2240	6432	14560	-14	-14	-28	-12392	7256	9744	-86	-14	3	-2256	3312	16912	-67	-11	19	131	142	12
-1596	-7556	13168	-70	12	-78	-11104	-7088	7656	25	-1	17	-480	-3536	16296	55	26	-40	1576	9256	12640	189	3	46	-10704	7344	8664	40	-26	-69	-1976	2072	16528	-20	-24	29	127	138	12
-3560	-10256	12648	-79	-13	-80	-9768	-8664	7056	-29	-2	63	-856	-3096	16920	18	25	9	3304	11024	12008	56	-11	-1	-10672	9360	8912	136	-15	-21	-2144	1824	16704	54	-42	12	124	133	12
-2360	-11024	14148	81	-27	-9	-11368	-10200	7712	-92	-25	-12	-1072	-2944	17072	4	21	19	4472	9296	13352	-113	5	-66	-11120	9416	9928	49	-16	56	-1944	2856	16344	98	-4	-12	127	139	12
-1648	-9932	14536	39	-13	-25	-12240	-9696	8496	-16	-29	-77	-664	-4088	16888	23	-16	-15	2776	7408	13224	-118	23	-89	-11304	8016	9760	-84	-20	51	-1992	3440	16472	-14	-11	9	130	140	12
-2404	-8112	12844	-44	23	-50	-11096	-8064	7384	127	30	-24	-800	-3664	16648	99	14	-43	1632	8792	14256	-47	22	-45	-11688	7440	9120	-42	6	-11	-2096	2680	16880	-77	-37	19	129	137	12
-2388	-9748	13248	-37	-17	-49	-10320	-8736	7264	52	27	31	-976	-3344	16776	30	18	-2	3352	10128	13760	-34	20	-28	-12168	8592	9608	57	1	-14	-2136	1936	17696	-20	-41	-3	126	136	12
-2004	-9484	12992	-15	-7	-38	-11816	-9912	8000	-64	-25	-19	-1088	-3480	17128	-51	-31	26	3608	7904	13984	-52	12	-42	-12296	8816	10256	34	-15	32	-2248	2912	17336	32	-11	-4	128	139	12
-1516	-9728	14884	41	-9	-10	-11896	-9080	8152	-57	-11	-50	-576	-4016	16568	-16	-11	-5	3000	7984	13896	66	-11	20	-12008	8672	10064	14	-15	36	-1600	3056	16536	5	0	9	129	141	12
-1432	-8480	13120	-53	3	-46	-10864	-8360	7816	-7	-16	-11	-456	-4104	16680	1	-7	-9	2280	10024	13120	85	16	24	-10640	8424	9504	-12	-34	-27	-1744	2776	16808	-32	-24	21	126	136	12
-2972	-10120	12456	0	-34	-15	-10576	-9312	7672	5	-1	-2	-904	-3120	17520	40	8	15	3112	11248	12624	-52	48	-42	-11352	9264	9080	-58	24	9	-2312	2192	17152	0	-42	13	126	136	12
-3072	-10396	15128	62	-43	1	-12256	-9704	8312	-32	8	-26	-1032	-3592	17288	-58	-36	39	3544	7560	13112	-96	15	-51	-11920	8344	9408	-77	30	46	-2248	3040	16272	26	-3	12	128	141	12
-624	-8260	14876	-12	7	-35	-11648	-8224	7856	-20	-8	-5	-168	-4152	15456	3	10	-20	2928	6928	14552	58	-30	22	-10568	7008	10312	78	-22	-2	-960	3032	15440	21	15	28	129	140	12
-764	-7556	11728	-131	-7	-85	-9544	-7896	8128	6	-36	25	0	-3240	15672	95	56	-19	1896	8048	10592	148	32	7	-9632	7096	7896	-29	-42	-27	-1616	2528	15160	7	1	22	126	134	12
-3560	-8836	11104	-66	36	-50	-8928	-7688	5656	129	36	31	-512	-2704	15200	33	86	17	2712	9752	11664	37	9	-1	-9616	8216	8040	92	4	-20	-1584	2216	15496	66	4	8	125	134	12
-1308	-10560	12956	17	-45	-50	-9216	-8664	6888	-13	21	28	-80	-2672	15256	-33	68	30	4672	8936	12936	-106	-36	-37	-10464	8496	10472	189	-27	26	-1352	3008	15656	76	16	6	127	137	12
-1028	-11164	13564	30	-53	-48	-11040	-9168	8400	-141	-71	-75	-184	-3384	15968	-12	3	17	3624	9400	13416	-140	35	-73	-10832	8664	10408	1	-40	68	-1488	3328	16576	0	-34	-6	132	138	12
-1956	-8776	13752	37	-17	-3	-11704	-9024	8232	44	-13	-104	-536	-3952	17184	84	-73	-27	2736	7848	13896	-103	39	-69	-11504	7848	10032	-154	-9	37	-1896	3176	16952	-92	-66	-9	131	140	12
-1808	-7972	14028	-60	0	-64	-11208	-8448	8032	44	8	-8	-208	-3792	16712	75	-54	-32	2576	6992	13128	33	2	-16	-11528	7040	9704	-27	-4	-38	-1192	2824	17008	-64	-50	14	130	140	12
-1784	-9120	12404	-96	31	-74	-9816	-8688	7256	-79	-1	34	80	-3624	16192	-20	-12	-7	2808	9040	12800	74	7	8	-10256	7680	10136	128	-7	-49	-880	2352	16904	-10	-43	29	125	138	12
-1256	-9852	12304	-45	8	-47	-9576	-9240	7592	-95	8	28	408	-3680	16312	-75	22	19	3200	8816	12704	63	7	5	-10184	8848	10336	85	13	-19	-720	2304	16552	26	-21	12	126	137	12
-1004	-11432	13760	33	-23	-20	-10232	-10312	8552	-59	-4	-21	144	-3928	17000	-23	12	27	4688	9264	13256	-115	26	-73	-11136	8776	10712	-37	5	29	-1424	2592	16656	-13	-6	6	128	139	12
-1384	-9872	13908	64	2	20	-11456	-9872	8456	33	-11	-96	-248	-4280	17344	41	-4	-4	3112	8752	13744	-141	55	-90	-11568	8024	10016	-101	12	39	-1600	2744	17248	-49	1	13	131	141	12
-1840	-9000	14088	40	-4	-5	-11712	-9016	7824	88	35	-35	-664	-4592	17144	53	-9	-15	3168	8184	14336	-60	29	-43	-11704	7480	10160	-51	26	8	-1816	2360	16784	-23	-4	28	128	140	12
-1432	-9164	14304	-36	-12	-65	-10768	-8752	8272	-9	10	40	-248	-3912	16424	20	17	3	3728	8432	13792	43	-2	-7	-11184	7624	10136	42	0	-13	-1392	1920	16528	49	-3	33	126	136	12
-1340	-10088	13352	-34	-4	-47	-10384	-9272	8128	-54	-31	23	-80	-3736	16504	22	29	24	3672	9176	13392	21	11	-4	-10960	8280	9984	71	-36	16	-1480	2232	16768	73	-18	14	125	135	12
-1580	-10872	13788	34	-33	-21	-10432	-9904	8072	-34	-21	-10	128	-3528	17072	46	9	20	4216	8904	13416	-6	-8	-8	-11464	8712	10320	70	-59	41	-1376	2944	17104	51	-26	-3	127	137	12
-1268	-9848	14228	69	-37	4	-11216	-9696	8680	-6	-41	-52	112	-3832	17192	65	-36	-9	3184	8768	13272	29	2	-3	-11400	8368	10256	25	-62	37	-1568	3256	17328	11	-34	-5	128	139	12
-1724	-8816	13988	48	-20	1	-11480	-8872	8504	66	-5	-30	96	-3640	17224	70	-47	-34	3096	7896	13344	56	0	3	-10920	8240	10512	9	-26	12	-1216	3416	16992	-4	-35	5	128	139	12
-1200	-9180	13536	-5	-10	-39	-10648	-8456	8368	60	21	40	136	-3320	17072	37	-20	-28	3112	7960	13216	63	-1	5	-10456	8080	10224	24	-1	-17	-752	3248	16432	17	-22	2	127	139	12
-1196	-9668	12988	-44	-4	-59	-9936	-8952	8160	-19	3	42	160	-3080	16768	-4	14	-6	3768	8968	12560	40	14	-20	-10448	8392	9960	34	-6	-1	-928	2856	16880	10	-23	-13	127	138	12
-1580	-9992	13244	21	-1	-11	-10216	-9560	7928	-22	15	-17	304	-3296	16632	-20	29	2	4648	8640	13432	-51	29	-40	-10480	8840	10312	44	-7	20	-1064	3256	16576	1	-5	-28	129	140	12
-600	-10184	14508	1	-13	-41	-10568	-9096	9000	-30	-2	-35	384	-3680	16360	-4	39	-5	4512	8008	13384	-49	1	-47	-10744	8088	11032	34	-40	5	-888	3400	16896	-20	11	-13	129	140	12
-1368	-9800	13164	6	10	-14	-10704	-8864	8576	-4	-5	-46	88	-3568	17264	17	39	-11	3560	9136	12536	-22	42	-43	-10784	8648	9944	-57	7	-2	-1264	3040	17328	-46	-7	7	129	140	12
-1692	-8448	14192	18	-10	-22	-10672	-8912	8184	33	30	-18	-216	-3896	16608	-24	35	0	3704	8976	12976	-31	19	-40	-10696	8488	9952	-36	40	-8	-1216	2784	16544	-11	-3	36	127	140	12
-1544	-10504	13580	-29	5	-38	-10952	-9104	7888	-32	6	24	-424	-3792	17072	-6	-19	10	4104	9376	13240	-94	35	-80	-10904	8600	10288	-7	44	5	-1280	2392	16592	5	-22	40	128	138	12
-712	-10240	14588	22	-1	-31	-11200	-9832	8416	-79	-2	-16	-232	-4216	16768	9	-36	13	4352	7928	14664	-124	28	-81	-11120	7776	11016	21	7	22	-952	2376	16208	24	-25	24	130	137	12
-576	-9552	14132	-31	-8	-63	-10744	-9552	9008	-40	-32	-35	-8	-4392	16896	49	-18	-8	3336	8664	13448	-64	28	-74	-10952	7376	10000	-23	-28	22	-1240	2480	16960	-12	-42	27	127	137	12
-2376	-11060	13380	-40	-2	-71	-10360	-10104	7736	47	-6	-17	-184	-4288	17232	47	-8	-10	3064	8472	14336	-90	1	-71	-11656	8048	10520	42	-21	20	-1352	2112	17040	0	-41	27	127	138	12
-1340	-9840	13540	23	-8	-40	-10704	-10184	8120	18	-22	-8	-240	-4432	16824	-8	-5	-1	3688	8792	14240	-84	18	-63	-11608	8320	10720	10	-12	32	-1440	2016	17632	40	-41	31	127	137	12
-1044	-10668	13972	36	-28	-42	-11040	-10216	8176	54	-17	-7	-144	-4496	17112	14	-34	-6	4744	7528	15088	-60	1	-39	-11896	7760	11208	-22	-17	54	-1032	2208	17048	55	-16	18	130	138	12
-500	-9736	14588	-27	-35	-82	-10792	-9200	8848	3	-32	-6	120	-4512	16584	38	-4	-2	3544	7112	14000	60	-22	-2	-11368	6888	10616	10	-71	21	-944	2552	17256	-9	-16	24	127	139	12
-1484	-10008	12836	-11	-2	-46	-9920	-9360	8032	-26	-41	13	472	-4360	16608	58	17	-1	3480	9016	13464	103	-9	38	-11056	8120	10256	50	-48	14	-616	1896	17176	12	-26	13	125	138	12
-1328	-9864	12968	6	-42	-44	-9680	-9720	7760	-28	-37	29	608	-4336	16416	15	29	19	3408	8272	12800	90	-21	22	-10496	7984	10352	32	-31	30	-680	2544	16968	68	-6	18	125	136	12
-1724	-9600	12272	80	-20	20	-9944	-9512	7792	5	-20	20	504	-3928	17048	29	12	33	3640	8832	12552	85	18	7	-10416	8360	9696	-7	11	45	-920	2592	16360	76	4	25	126	138	12
-792	-9172	14208	121	-43	22	-10328	-9200	8112	55	12	12	544	-4112	15952	59	9	24	3968	7272	13472	88	-19	22	-10520	7816	10360	52	-9	46	-704	3040	15856	43	23	21	128	141	12
-596	-8148	12724	53	-10	10	-10384	-7872	8728	33	-15	31	448	-3488	16192	137	-6	-1	2936	8928	11880	146	18	20	-9752	7632	9000	13	-5	43	-944	2816	15672	16	1	22	126	140	12
-1980	-9056	12988	76	-14	10	-9808	-8712	7712	73	36	60	-24	-2992	16192	137	-22	-4	3304	9128	11520	79	2	-2	-9984	8336	9088	66	6	42	-1368	2616	15952	49	-17	8	126	138	12
-1776	-9692	13032	115	-4	40	-10424	-8888	7200	81	30	52	-272	-2704	16800	79	-42	19	3432	9968	12872	-36	24	-39	-10632	9240	9496	102	11	80	-1552	3240	16416	99	-26	-7	126	137	12
-808	-9644	14012	128	-14	32	-11384	-9152	7840	80	28	13	-264	-2784	16672	52	-35	14	4584	8248	14992	-36	4	-21	-11416	8456	10936	112	-10	89	-1592	4200	16248	67	13	-23	128	139	12
-140	-8216	15548	17	-27	-34	-11016	-8056	9376	19	-10	-17	168	-2736	16016	92	16	-18	3688	6840	12584	121	-4	8	-10600	7744	10120	63	-95	21	-1264	4216	16768	-12	-2	-26	129	141	12
-2212	-8440	12276	-34	32	-13	-9800	-7328	7712	48	-1	0	-72	-2464	16440	111	27	-34	2952	10032	12224	142	10	49	-9976	9072	9304	74	-38	-13	-1504	3880	16632	-26	-33	-12	127	139	12
-796	-9672	13764	-12	-47	-67	-9552	-8672	8080	-11	10	23	136	-2080	15448	-31	49	2	4672	8168	12720	74	-51	33	-9952	8920	10544	77	-22	-22	-1024	3616	15800	56	4	-3	127	137	12
-744	-9228	13052	-4	-27	-17	-10192	-8560	8424	-69	-54	-33	-96	-2376	16024	-90	41	10	4696	10864	11728	-3	18	-10	-9472	9344	9776	-24	-21	5	-1144	3696	16000	64	-14	-11	129	136	12
-1028	-9732	13668	40	-37	-8	-10744	-8768	8240	29	9	-79	-144	-2728	16592	-27	7	-15	4328	9440	13240	-108	10	-35	-10008	8984	10528	-72	-23	23	-1272	3888	16048	-46	-31	-10	134	140	12
-900	-8320	14320	-13	-30	-29	-11360	-8056	8952	-48	-30	-72	88	-3088	16800	29	-38	-28	3696	8536	12728	-109	19	-55	-10728	8504	10184	-64	-17	-10	-1184	3544	16760	-116	-87	7	132	139	12
-1396	-9332	14444	-56	-16	-78	-10856	-8752	8480	-65	-28	-52	96	-3304	17144	24	-68	-26	4344	8520	13624	-85	0	-42	-10824	8216	10896	17	-30	-21	-872	3136	17232	-53	-95	17	130	138	12
-888	-9356	13940	-114	10	-106	-10360	-8880	8816	-74	-35	-36	616	-3648	17200	-52	-30	4	3384	8224	12984	-61	5	-41	-10352	8520	10608	32	-33	-36	-656	3304	17136	14	-72	26	127	137	12
-1104	-9372	12604	-119	23	-90	-9976	-9432	8144	-35	-18	-27	496	-3696	16664	-59	8	2	3824	8704	12672	-93	29	-65	-10184	8568	10456	-1	4	-37	-608	3336	17096	0	-41	31	127	139	12
-884	-9904	13140	-85	4	-83	-9704	-9792	8256	22	12	-38	632	-3776	16560	-46	25	-13	4640	9208	13208	-151	33	-87	-10384	8272	10616	14	20	-44	-448	2832	16896	-47	-22	40	128	139	12
-676	-10704	13264	-53	6	-47	-9984	-9520	8336	-27	9	-35	600	-3976	16632	-48	1	-12	4272	8776	13784	-196	54	-110	-10944	8232	10928	-64	34	-19	-440	2360	17128	-62	-25	29	129	138	12
-988	-9692	13940	12	-5	-9	-10312	-9736	8504	-36	14	-55	256	-4248	16864	-43	-9	-5	3896	8008	13672	-171	50	-93	-11304	7888	10568	-137	34	-4	-1088	2208	17072	-71	-22	26	129	139	12
-1464	-9740	14020	-15	1	-30	-10712	-9376	8352	-6	13	-43	136	-4720	16608	-36	-10	1	3480	7312	13880	-97	37	-64	-11376	7336	10312	-101	30	-10	-960	1944	17016	-56	-14	32	128	139	12
-1420	-9904	13312	-33	3	-38	-10360	-9568	7856	-52	3	-14	224	-4696	16656	-7	6	6	3576	7736	13872	-82	34	-58	-11336	7512	10160	1	10	-9	-1088	1696	16952	-24	-19	38	127	138	12
-1208	-9812	13316	-2	-6	-19	-10472	-9616	7912	-53	10	-10	56	-4712	16680	-4	5	6	3600	9008	13712	-34	27	-25	-11264	7824	10464	46	-4	11	-1248	1720	16984	17	-20	25	126	137	12
-1220	-10272	13708	15	-18	-24	-10464	-10000	8416	-43	-7	-14	120	-4416	16880	30	0	22	4016	8456	13816	-10	13	-16	-11320	7840	10608	44	-21	27	-1224	2064	16760	36	-16	13	126	137	12
-1096	-9932	14056	47	-16	-3	-10736	-9848	8776	3	-15	-22	152	-4256	16976	62	-17	12	3928	8224	13896	32	12	1	-11120	7912	10408	30	-26	40	-984	2496	16696	28	-7	3	126	139	12
-932	-9620	14224	24	-22	-20	-10816	-9424	8488	48	-2	5	368	-3936	16680	71	-18	3	3672	7776	13216	94	-12	26	-10960	7808	10232	32	-40	26	-896	2664	16792	22	-7	-1	127	139	12
-952	-9088	13508	14	-16	-17	-10152	-8992	8024	52	-8	18	384	-3768	16768	68	-4	-1	3896	8944	13312	112	-17	45	-10344	8080	10536	85	-38	23	-800	2736	16472	34	-11	-3	126	138	12
-684	-9524	13476	19	-31	-18	-9896	-9232	8488	13	-11	23	432	-3336	16792	44	18	9	4472	8776	13040	88	-9	30	-10240	8456	10800	39	-37	39	-728	3112	16376	55	-3	-12	126	137	12
-920	-9388	13512	36	-37	-9	-10064	-8944	8408	6	-19	0	520	-3424	16256	33	27	15	4048	9176	12944	54	-4	16	-10160	8632	10232	23	-33	41	-720	3240	16624	40	-9	-7	126	139	12
-1172	-9712	13168	58	-29	2	-10360	-9096	8616	18	-12	-6	304	-3280	16552	49	9	11	3592	9128	12368	38	7	-4	-10256	8584	10064	-15	-20	43	-1040	3520	16608	7	-21	7	126	140	12
-1468	-8936	13624	72	-23	14	-10728	-8704	8328	29	-6	-9	128	-3280	16584	34	-15	7	3776	8576	12944	-4	6	-15	-10360	8616	9680	-24	-13	44	-1000	3464	16376	11	-20	21	129	139	12
-1212	-8496	13700	35	-25	-12	-10768	-8544	8432	13	-2	10	96	-3336	16496	38	-44	-10	3608	8416	12584	15	17	-32	-10136	8048	9808	-11	7	23	-1088	3328	16056	19	-28	25	129	139	12
-1492	-8996	13608	18	-2	-25	-10320	-8592	8152	14	4	25	96	-3552	16400	33	-40	-11	3968	8912	12576	-13	8	-35	-10096	8120	10032	54	7	14	-896	3032	16128	14	-38	28	130	138	12
-1028	-9892	13532	-23	9	-45	-10144	-8864	8072	-8	-10	27	296	-3376	16440	27	-20	-12	3896	8712	13176	-83	22	-66	-10416	8392	10456	73	-11	25	-808	2928	16832	2	-41	18	130	138	12
-1152	-10244	13092	-11	4	-33	-10224	-9656	8168	-10	-18	-8	320	-3736	17008	23	-3	-5	3944	8848	13608	-136	46	-95	-11208	8600	10880	8	7	33	-1016	3000	17320	-2	-35	14	130	137	12
-1168	-10088	13844	-5	2	-30	-10752	-9744	8368	30	6	-28	176	-4192	17120	-2	12	0	3688	8224	14424	-129	42	-88	-11520	8104	11224	-22	16	18	-928	2880	17744	-16	-7	23	130	139	12
-1188	-9668	13560	-27	17	-27	-10560	-9280	8304	7	1	-13	224	-4336	16840	8	25	3	3192	7984	13616	-65	50	-69	-11456	7816	10776	-55	40	-3	-872	2536	17680	-28	1	37	129	140	12
-1268	-9676	13576	-20	8	-32	-10304	-9464	8064	-19	21	11	176	-4208	16392	-2	33	19	3952	8272	13984	9	34	-34	-11216	7736	10520	-15	45	-16	-896	1720	17032	-3	13	51	127	138	12
-652	-9772	13476	7	-4	-16	-10032	-9408	8096	-68	5	17	312	-4448	16336	1	34	41	3928	8888	13192	41	40	-23	-10808	7816	10048	-11	33	2	-1032	1792	16344	27	30	50	126	137	12
-1296	-10072	13564	38	-14	1	-10152	-9560	8096	-46	4	12	216	-4440	16360	42	28	47	4088	8960	13256	28	22	-11	-10656	7928	10016	12	14	34	-1096	1888	16320	39	32	46	126	138	12
-1032	-9472	13720	81	-18	27	-10496	-9560	8520	-23	-12	6	56	-4024	16496	92	13	45	3736	9312	13240	34	22	-7	-10712	7968	9520	4	-4	66	-1472	2232	16088	47	23	32	126	137	12
-992	-9272	13884	101	-40	34	-10824	-9344	8144	35	-2	21	0	-3816	16744	121	-8	38	3544	8624	13408	58	3	10	-10864	7960	9688	39	-13	77	-1568	2608	16112	69	12	20	125	137	12
-1064	-8772	13712	72	-23	15	-10856	-8744	8296	71	-3	37	-88	-3376	16472	137	-14	18	3184	8336	13384	125	-8	27	-10576	7960	9424	81	-25	71	-1408	2944	16096	83	6	10	125	138	12
-1212	-8952	13744	72	-20	6	-10448	-8544	8576	82	11	57	8	-2888	16320	123	-11	7	3648	8648	12752	157	-23	54	-10400	8168	9880	144	-56	65	-1360	3304	16080	84	-6	-6	125	137	12
-1044	-8584	13340	49	-11	3	-10224	-8312	8096	85	0	55	40	-2520	16584	98	-7	-8	3688	8736	12808	145	-27	49	-9984	8632	10248	165	-59	56	-1312	3944	16024	78	-10	-20	125	137	12
-1000	-9844	13496	55	-32	-3	-10224	-8720	8264	68	-7	34	16	-2120	16632	70	-10	-19	4288	9096	12808	90	-19	32	-10264	9288	10280	104	-59	48	-1176	4352	16840	30	-27	-37	127	139	12
-1292	-10004	13828	71	-31	7	-10600	-8544	8448	41	-4	-6	80	-2032	16720	15	-16	-17	4336	9288	13440	23	-8	3	-10592	9648	10760	50	-42	39	-1312	4504	17296	-20	-40	-39	129	140	12
-1144	-9036	14276	54	-26	15	-11152	-8400	8712	-1	-16	-37	40	-2384	17256	-22	-21	-23	4232	9208	13240	-11	20	-5	-10936	9704	10984	-48	-17	18	-1208	4472	17672	-67	-52	-26	131	142	12
-1496	-9012	14304	-2	-13	-14	-11488	-8376	8872	-30	-10	-41	-112	-2688	17328	-52	-26	-23	3792	8656	13504	15	25	-10	-10680	9056	10560	-74	11	-19	-992	4200	17016	-69	-43	-1	132	142	12
-1340	-8300	14232	-53	-4	-38	-11072	-8152	8784	-76	-7	-9	184	-3104	17056	-63	0	-16	3952	9200	12296	6	48	-20	-10192	9024	10344	-56	21	-52	-768	3744	16720	-52	-34	29	131	140	12
-1408	-9376	13840	-67	-3	-48	-10464	-8744	8488	-85	0	-2	336	-3168	16656	-69	21	11	4088	9440	12104	-48	43	-35	-9784	8952	10064	-46	34	-40	-888	3112	16480	-22	-16	48	131	138	12
-1488	-9872	13524	-74	2	-44	-10360	-9088	8176	-76	-6	-26	440	-3240	16624	-68	28	20	3928	10088	12528	-159	60	-81	-9944	8840	9768	-49	49	-19	-872	3128	16368	-22	-12	51	129	138	12
-1456	-9036	13584	-56	-1	-26	-10840	-9424	8256	-31	-4	-42	-72	-3840	16856	-17	6	33	3408	9608	12976	-256	78	-133	-10640	8592	9664	-71	56	9	-1432	2656	16312	-45	-15	70	129	137	12
-1720	-9624	13564	-58	3	-27	-10824	-9456	7928	-25	2	-41	-224	-4000	16680	11	-17	29	3128	7936	13352	-250	65	-133	-11216	7832	9792	-90	60	10	-1584	2272	16328	-43	-14	76	129	136	12
-1820	-9468	13660	-70	10	-52	-10864	-8792	7800	44	22	-24	-416	-4176	16200	11	-24	24	3104	8072	13304	-182	53	-104	-11552	7536	9312	-51	43	-5	-1800	1888	16600	-20	-30	71	128	136	12
-1788	-9956	13464	-57	3	-49	-10696	-8800	7616	45	20	-14	-584	-4136	16536	7	-27	28	3024	7896	13904	-137	34	-78	-11840	7640	9720	2	20	8	-2024	1616	16576	-4	-32	59	127	135	12
-1616	-9944	13076	-24	-4	-37	-10600	-9648	7432	-56	-24	-10	-528	-4280	16416	3	-27	31	3040	8288	13616	-78	28	-51	-11680	7704	9880	0	0	17	-1944	1632	17024	2	-29	43	128	137	12
-2012	-10188	13392	19	-21	-19	-10848	-9864	7664	-29	-12	-14	-752	-4240	16856	17	-31	10	2968	7896	13904	-39	30	-33	-12048	7672	9640	-20	-2	31	-2032	1776	16968	-14	-30	30	128	139	12
-1928	-9648	13860	44	-27	-4	-11080	-9496	7512	-17	-7	-2	-584	-4472	16624	30	-15	-2	2856	7824	13928	14	12	-5	-11848	7664	10000	-4	-5	29	-1784	1856	16736	-12	-20	16	127	140	12
-1804	-10084	13480	34	-19	-1	-11128	-9440	7968	-18	-13	20	-536	-3944	16856	42	-7	-3	3112	8656	13896	55	4	12	-11712	7848	9824	16	-12	31	-1648	2152	17288	1	-22	3	127	139	12
-1712	-9848	13200	31	-18	-4	-10952	-9368	7824	-18	-9	17	-648	-3920	16816	31	8	15	2760	8464	13680	95	16	35	-11440	7816	9616	12	-11	29	-1920	2264	17160	0	-18	-3	126	140	12
-1996	-9324	13608	31	-16	-1	-10664	-9064	7624	9	-2	29	-528	-3728	16592	21	31	14	2880	8800	13136	112	-6	39	-10952	8224	9560	52	-16	26	-1792	2728	16728	22	11	-4	126	140	12
-2068	-9816	13240	53	-20	15	-10856	-9152	7632	35	11	24	-416	-3680	16376	34	30	16	3104	9136	13400	75	4	27	-10952	8656	9880	74	-9	30	-1624	2752	16536	22	11	4	126	138	12
-2084	-9444	13604	63	-34	16	-11024	-9144	7792	33	1	10	-648	-3272	16800	38	14	21	3272	9440	13184	45	17	3	-10912	8968	9720	7	-8	45	-1840	2840	16704	21	4	5	127	138	12
-2620	-9512	13976	56	-15	15	-11384	-8688	7760	44	6	-1	-872	-3256	16936	60	-14	17	3016	8488	12928	6	25	-25	-11224	8728	9640	-32	-1	48	-2216	3152	16648	20	-6	10	127	139	12
-2152	-8852	13868	37	-9	-2	-11376	-8376	7640	21	13	3	-792	-3264	16744	68	-19	11	3136	8584	13056	28	12	-1	-11096	8296	9408	17	-4	29	-1960	3296	16440	11	-17	29	128	138	12
-2052	-8640	13788	4	-13	-15	-10984	-8384	7664	-18	-7	22	-584	-3112	16368	52	-23	14	3064	9264	13192	52	10	10	-10800	8816	9528	49	-7	14	-1896	3096	16216	20	-24	30	127	137	12
-1880	-9280	13592	5	-23	-14	-10928	-8544	7928	-34	-17	5	-608	-3056	16776	34	-18	18	3456	9576	13008	51	6	14	-10856	8888	9576	26	-14	29	-1960	3312	16304	26	-13	26	127	136	12
-1992	-9544	13496	32	-27	-6	-10960	-8896	7672	-6	-7	-12	-696	-3056	16768	30	-1	15	3736	9360	12728	-14	13	-17	-10760	8904	9696	21	-10	24	-1848	3392	16632	23	-1	23	128	138	12
-1984	-9532	14092	11	-19	-15	-11176	-8936	8088	-2	-9	-8	-552	-3080	16816	27	3	2	3328	8952	13224	-53	17	-34	-11264	8744	9808	2	-16	28	-1808	3408	17040	-3	-18	18	128	137	12
-2100	-9128	13632	8	-6	-8	-11368	-8784	8160	0	-9	-17	-808	-2976	17048	19	1	-1	2952	8624	13344	-56	30	-33	-11232	8680	9696	-32	7	18	-2040	3304	16872	-15	-27	15	129	137	12
-1968	-9272	13896	-28	-10	-33	-11296	-8680	7888	16	3	-10	-640	-3112	17072	-7	7	2	3224	8816	13400	-27	14	-27	-11352	8448	9760	-6	8	-7	-1832	2976	16744	-14	-23	13	129	140	12
-1940	-8948	13932	-36	-10	-37	-11088	-8584	7944	-21	-6	-7	-544	-3248	17048	-5	9	-3	2920	9096	12800	-5	32	-25	-10928	8488	9584	-4	1	-7	-1840	3072	16704	-21	-18	20	129	140	12
-2116	-9452	13420	-25	10	-27	-10984	-8568	7512	-17	0	-3	-512	-3464	16704	-13	21	8	3120	9416	13080	-30	20	-26	-10656	8576	9928	24	14	-10	-1432	2560	16176	-10	-16	21	129	138	12
-1908	-9640	13636	-36	-12	-39	-10976	-9096	8160	-51	-15	-8	-584	-3576	16656	-11	9	13	3256	9128	12920	-72	47	-54	-11096	8504	9488	-58	14	8	-1712	2616	16576	-13	-20	25	129	138	12
-2236	-9620	13752	-13	-3	-24	-11056	-9432	7632	-30	-2	-29	-688	-3920	16504	-7	-5	18	3216	8736	13280	-98	36	-58	-11376	8264	9792	-58	16	16	-1920	2560	16688	-27	-26	31	128	138	12
-1948	-9504	13788	-16	1	-20	-11104	-9152	7288	-12	-2	-20	-584	-3960	16328	21	-17	10	2800	9008	13456	-78	37	-43	-11584	8168	9784	-31	12	9	-1816	2360	17000	-27	-29	34	128	139	12
-1720	-9100	13384	-28	-5	-22	-11088	-9080	7592	-21	-6	-6	-640	-3960	16400	26	-18	13	2928	8648	13976	-55	37	-35	-11624	7768	9968	2	10	4	-1736	2344	17136	-7	-17	37	128	138	12
-1920	-9740	13652	-7	-20	-21	-10696	-9456	7712	-11	6	-2	-392	-4024	16784	26	-4	18	3232	9112	13224	1	21	-6	-11408	8272	9656	42	-6	7	-1840	2256	16848	8	-11	33	127	137	12
-2184	-9744	13468	9	-16	-5	-10952	-9056	7616	-23	-14	-16	-488	-3832	16864	9	5	28	2896	8864	13192	25	33	-10	-11128	8264	9464	-3	2	24	-1784	2496	16680	18	4	31	128	137	12
-2056	-9484	14040	47	-28	7	-11160	-9280	8104	-6	0	2	-648	-3744	16832	28	3	19	3488	8648	12968	28	14	1	-11072	8384	9400	11	-6	26	-1808	2720	16536	12	7	34	126	138	12
-1776	-9128	13796	32	-19	4	-11144	-9112	7968	-11	-1	8	-632	-3472	16744	37	4	18	2944	9344	13272	31	22	0	-10968	8232	9464	-7	2	34	-1824	2696	16200	18	4	24	126	138	12
-2116	-9312	13564	30	-18	5	-11072	-9096	7888	-2	-3	19	-776	-3504	16912	38	-3	15	3144	8952	13016	14	29	-7	-11104	8424	9520	-24	10	32	-1984	2632	16272	7	-6	15	127	138	12
-1972	-9128	13756	22	-18	-18	-10960	-8688	7784	27	0	17	-736	-3344	16488	23	11	14	2984	8336	13264	32	12	-5	-10872	7808	9400	0	-1	30	-1776	2832	16208	19	-5	9	128	139	12
-2008	-9512	13580	-2	-14	-19	-10664	-8680	7576	7	-10	24	-640	-3312	16080	30	10	1	3056	8736	12632	4	8	-19	-10968	8328	9360	55	-21	29	-1832	2896	16568	8	-27	9	127	137	12
-1852	-9920	13156	29	-12	-15	-10952	-9064	7544	30	-7	5	-704	-3120	16240	26	-1	5	3328	8968	13520	-34	9	-20	-11280	8792	10096	46	-13	35	-2032	2936	16560	8	-29	7	128	138	12
-1984	-9264	13612	9	-25	-22	-11096	-8912	7800	23	-19	-15	-768	-3320	16544	15	-21	4	3032	8640	13280	-43	25	-37	-11192	8600	9648	-18	3	31	-1960	2872	17016	-6	-28	23	129	139	12
-2200	-10032	13812	3	-9	-29	-11320	-8880	7184	24	-5	-15	-768	-3544	16824	24	-32	-3	3024	8688	13504	-40	10	-36	-11504	8520	10000	-11	-3	14	-1920	2760	16832	-23	-35	31	130	139	12
-1804	-9400	13468	5	-9	-24	-11144	-8768	7784	-28	-14	-14	-688	-3888	16680	22	-24	8	3008	8904	13392	-28	29	-29	-11456	8312	9488	-38	9	14	-1768	2504	16920	-18	-36	42	129	138	12
-2452	-9900	13628	-25	-23	-40	-11048	-9168	7456	-35	-11	3	-840	-3776	17128	23	-23	14	2936	8864	13472	-55	26	-46	-11688	8216	9952	-22	11	14	-1744	2472	17192	-12	-33	40	129	138	12
-2172	-9676	13204	-1	3	-22	-11152	-9584	7496	-54	-18	-11	-592	-3968	16832	6	-1	26	2880	8696	13464	-58	30	-49	-11664	7904	9672	-26	20	14	-1768	2288	17016	5	-6	38	128	139	12
-2292	-9232	13440	-1	-6	-11	-10848	-9264	7560	-24	1	10	-744	-4432	16768	9	27	16	2784	9312	13296	-12	37	-27	-11464	8232	9664	3	15	14	-2112	2248	16936	-5	1	38	127	138	12
-2340	-10240	13428	29	-19	6	-11008	-9376	7392	15	9	20	-792	-4088	17048	24	19	27	2464	8504	13304	6	42	-26	-11744	8240	9304	-27	26	29	-2064	2184	16784	8	16	38	127	137	12
-2172	-9152	13520	42	-6	19	-11152	-8760	7432	33	9	26	-904	-3936	16456	18	22	31	2600	9432	13408	46	31	-5	-11184	8048	9176	9	29	28	-2232	2024	16328	24	25	39	127	138	12
-2172	-9324	13328	43	-17	15	-11360	-8768	7416	47	14	47	-952	-3712	16784	61	7	23	2552	9416	13200	24	28	-4	-11304	8288	9088	37	18	51	-2208	2168	16104	44	16	32	126	138	12
-2484	-9556	13604	56	-32	17	-11328	-8848	7408	11	4	41	-1008	-3488	16456	76	-9	30	2696	8744	13168	13	23	-9	-11360	8384	8888	20	4	63	-2408	2520	16152	47	4	20	126	137	12
-2680	-9440	13656	63	-21	23	-11688	-8896	7280	25	0	24	-1248	-3272	16744	87	-20	24	2544	9152	13344	6	19	-13	-11712	8568	8992	32	-2	70	-2720	2656	16664	44	-18	12	126	137	12
-2484	-9564	14016	60	-27	12	-11720	-8848	7664	36	4	11	-1448	-3064	16760	90	-35	11	2856	8800	14096	7	4	-9	-12080	8544	9552	59	-18	61	-2776	3384	17000	25	-16	9	127	138	12
-2360	-9308	14076	57	-29	10	-11680	-8728	7728	16	-13	8	-1216	-2968	16744	71	-31	4	2632	9016	13632	48	4	13	-11968	8960	9568	44	-24	46	-2776	3264	17072	10	-26	12	127	138	12
-2520	-9468	14224	34	-25	-10	-11624	-8304	7336	27	-12	7	-1224	-2928	17168	42	-20	-2	2656	9048	13784	80	-12	26	-11584	8760	9608	38	-15	24	-2488	3320	17080	10	-17	10	128	138	12
-2344	-9188	13996	18	-25	-19	-11544	-8320	7672	-9	-19	5	-1248	-2880	17192	41	-19	-2	2912	10024	13112	64	3	26	-11112	9232	9640	45	-26	8	-2272	3448	16840	8	-17	15	128	139	12
-2488	-10004	13724	15	-20	-17	-11608	-8792	7592	-29	-14	-2	-1056	-2888	17496	13	0	9	3080	9776	13128	-9	14	-7	-11400	9456	9696	-11	-9	21	-2376	3360	16992	-1	-17	9	129	138	12
-2644	-9396	13780	-3	-18	-19	-12040	-8744	7848	-41	-20	-27	-1224	-3040	17480	-3	6	13	2584	9416	13240	-54	25	-37	-11520	8952	9304	-63	7	11	-2304	3360	16944	-17	-17	22	130	138	12
-2608	-9120	13800	-16	-7	-27	-11840	-8680	7704	-19	-1	-25	-1016	-3256	16896	4	18	5	2600	9600	13584	-66	37	-40	-11784	8776	9368	-40	23	-7	-2304	3168	17232	-34	-22	31	130	139	12
-2784	-9360	13996	-23	-13	-25	-11696	-8872	7744	-26	-5	-15	-1304	-3248	16992	-8	10	7	2496	9224	12928	-59	41	-50	-11728	8880	9088	-34	18	-13	-2528	2712	16896	-30	-22	33	128	138	12
-2912	-9232	13820	-33	9	-31	-11720	-8712	7280	-3	9	-15	-1224	-3432	16704	-29	6	10	2392	8464	12968	-64	34	-43	-11512	8600	8912	-8	34	-19	-2552	2600	16600	-7	-6	34	128	139	12
-2580	-9172	13476	-34	5	-31	-11200	-8600	7160	-17	16	-1	-1072	-3512	16616	-29	11	12	2592	9176	13096	-52	38	-46	-11232	8216	8912	20	22	-19	-2224	2464	16152	-9	-7	36	127	138	12
-2192	-9176	13324	-29	7	-29	-11176	-8696	7232	-35	4	-7	-1336	-3416	16328	-38	17	9	2576	9352	13136	-66	44	-47	-11184	8320	8752	-20	19	-8	-2336	2296	16168	-14	-8	31	128	137	12
-2700	-9640	13252	-29	1	-29	-11224	-8760	6784	-9	6	-12	-1192	-3584	16184	-30	18	13	2320	8904	13256	-79	43	-58	-11456	8024	9128	-20	22	3	-2216	2152	16264	-17	-13	23	128	138	12
-2600	-9680	13476	-17	-7	-18	-11160	-8760	7056	-27	1	-17	-1216	-3680	16264	0	11	9	2592	8784	13720	-86	39	-48	-11792	7960	9096	-20	9	15	-2376	2160	16592	-23	-14	14	129	138	12
-2548	-9528	13740	-14	-15	-22	-11360	-8992	7400	-51	-11	-22	-1152	-3976	16304	9	11	14	2536	8192	13408	-33	24	-34	-11840	7984	9184	-29	-4	17	-2264	2016	16472	-23	-16	14	129	139	12
-2456	-9192	13776	-16	-15	-22	-11336	-8936	7264	-30	-12	-17	-1064	-3944	16272	17	12	9	2184	8680	13224	0	16	-13	-11824	8040	9328	16	-9	15	-2352	2136	16960	-11	-16	14	128	138	12
-2556	-9616	13000	-2	-11	-16	-11296	-9088	7112	-23	-13	-8	-1136	-3984	16552	24	2	23	2376	9040	13216	8	23	-1	-11704	8272	9192	14	0	23	-2240	2160	16712	10	-11	19	127	138	12
-2452	-9632	13520	13	-19	-16	-11296	-9056	7200	1	1	-3	-1264	-3840	16672	24	-1	22	2456	8976	13088	7	19	-13	-11504	8136	9448	25	1	22	-2336	2328	16544	15	-9	26	127	138	12
-2480	-9652	13348	16	-11	-6	-11504	-8928	7456	-2	-6	5	-1264	-3904	16960	38	-17	24	2408	9072	13224	-20	26	-18	-11688	8312	9272	18	8	30	-2496	2472	16280	-1	-21	26	126	138	12
-2468	-9292	13144	-1	-13	-11	-11416	-9008	7232	6	-8	12	-1288	-3488	16704	40	-15	15	2488	8864	13920	-12	28	-23	-11728	8056	9016	-17	13	21	-2464	2536	16592	1	-22	29	127	138	12
-2652	-9740	13980	7	-26	-15	-11272	-9256	7200	17	2	11	-1296	-3608	16912	36	-18	8	2776	8712	13400	-23	18	-20	-11976	8472	9224	4	-11	22	-2512	2344	16848	-5	-31	18	127	137	12
-2672	-9984	13576	25	-3	-9	-11608	-9136	7184	9	-16	-12	-1264	-3504	16784	23	-12	12	2392	8192	13768	1	13	-12	-11856	8192	9288	9	-11	29	-2424	2648	16968	10	-20	15	128	137	12
-2396	-8956	13564	14	-15	-16	-11288	-8624	7336	5	-17	-3	-1040	-3744	16456	19	8	1	2416	9384	13408	46	21	4	-11504	8144	9336	18	-9	9	-2168	2552	16856	12	-11	20	128	138	12
-2892	-9868	13728	-6	-28	-27	-11280	-8824	7392	-11	-7	15	-1064	-3568	16712	24	2	5	2592	8976	13192	18	11	-10	-11544	8704	9128	19	-16	22	-2184	2736	16960	4	-13	16	128	138	12
-2668	-9092	13324	27	-4	-2	-11560	-8848	7456	-42	-18	-2	-1080	-3568	16336	5	18	17	2512	9208	13472	26	15	-1	-11272	8456	9384	1	0	24	-2040	2520	16368	20	0	16	128	138	12
-2356	-9852	13940	11	-30	-20	-11360	-8704	7232	-30	-10	-5	-968	-3616	17024	30	2	11	3128	9776	13472	-9	9	-16	-11496	8584	9608	22	-15	27	-2264	2520	16664	-2	-20	17	127	138	12
-2736	-10028	13880	32	-23	-8	-11928	-9240	8024	-27	-18	-17	-1232	-3504	17312	42	-22	17	2416	9080	13488	-40	25	-35	-11728	8784	9400	-40	0	48	-2576	2776	17072	-9	-31	13	128	138	12
-2520	-9164	13924	21	-14	-11	-11880	-8944	7656	32	-3	-21	-1232	-3800	17096	40	-26	11	2432	8776	13568	-3	13	-14	-11840	8104	9512	1	5	20	-2488	2752	16968	1	-21	28	127	139	12
-2576	-9088	13680	-10	-12	-24	-11448	-8560	7552	19	-3	19	-1080	-3336	16952	40	-15	13	2544	9288	13264	6	22	-15	-11736	8368	8976	45	-8	15	-2408	2736	16792	15	-24	32	127	137	12
-2752	-9988	13332	1	-16	-29	-11088	-9080	7320	8	1	16	-1264	-3528	16744	23	2	18	2752	8984	13392	-4	14	-18	-11456	8504	9224	17	-3	20	-2304	2680	16568	26	-16	26	127	138	12
-2428	-9576	13924	20	-21	-16	-11352	-8768	7360	5	-6	-3	-1008	-3456	16664	15	11	11	2784	9544	13576	-8	12	-17	-11440	8688	9040	21	-9	23	-2432	2480	16424	31	-11	24	128	139	12
-2588	-9604	13484	26	-16	-3	-11720	-8968	7504	0	-16	-12	-1168	-3456	16768	24	-7	5	2320	9416	13312	-28	29	-33	-11624	8752	9112	-35	-7	33	-2632	2904	16568	-2	-19	20	129	138	12
-2904	-9272	13564	27	-26	-14	-11960	-8792	7160	15	4	-5	-1544	-3512	16760	20	-13	1	2352	8736	13264	-20	21	-32	-11672	8240	8904	-49	14	20	-2616	2728	16544	-10	-17	27	129	139	12
-2840	-9096	14120	8	-18	-22	-11656	-8472	7208	-16	-3	20	-1264	-3480	16608	19	6	-1	2480	8240	12880	17	8	-15	-11616	8136	9064	14	-2	7	-2320	2504	16448	6	-9	18	128	139	12
-2556	-9220	13220	-9	-1	-22	-11032	-8688	7168	-33	-11	23	-960	-3416	16104	13	30	8	2352	9104	12784	19	18	-13	-11200	8216	8512	28	-10	20	-2464	2392	16576	16	-8	14	128	138	12
-2508	-9920	13424	7	-15	-23	-11080	-8840	7112	-1	-4	13	-1176	-3520	16336	13	26	9	3112	9544	13792	-23	8	-19	-11408	8608	9600	67	-13	30	-2176	2512	16720	22	-18	3	128	138	12
-2272	-9756	13896	11	-18	-12	-11464	-9144	7856	-26	-25	-25	-1088	-3608	16720	24	-13	9	2304	8744	13072	-50	40	-45	-11848	8472	9384	-22	-13	42	-2464	2856	16944	-6	-21	5	129	138	12
-2972	-9280	13256	6	1	-7	-11960	-8856	7016	47	12	-32	-1320	-3680	16632	23	-18	5	2088	8784	13464	-25	21	-24	-11944	8304	9464	-3	14	13	-2416	2552	17016	-33	-26	23	129	140	12
-2536	-9632	13976	-34	-21	-31	-11280	-8840	7360	14	9	12	-1224	-3640	16672	26	-15	6	2584	8736	13520	-17	22	-22	-11864	8480	9304	-2	9	2	-2424	2272	17168	-29	-28	32	128	138	12
-2536	-9296	13132	-12	-7	-12	-11464	-8928	7088	-31	-13	-6	-1368	-3704	16432	8	-4	21	2040	9088	13104	-4	36	-20	-11560	8376	9136	-44	17	13	-2456	2232	16440	4	-14	31	127	137	12
-2620	-9376	13560	7	-24	-15	-11352	-8832	6808	9	3	-7	-1216	-3944	16488	10	5	23	2928	9384	13648	3	15	-5	-11608	8240	9376	19	11	15	-2360	2280	16504	19	-3	34	127	138	12
-2344	-10092	14056	-1	-30	-22	-11416	-8944	7568	-62	-17	2	-1096	-3728	16848	34	-7	23	2344	9040	13312	-30	19	-26	-11760	8576	9104	-16	-18	38	-2584	2472	16712	7	-14	34	128	136	12
-2792	-9280	13168	47	-13	14	-11904	-9040	7128	-15	-19	-18	-1456	-3672	16768	29	-9	26	2184	9128	13680	-25	19	-16	-11752	8208	8992	-9	9	29	-2552	2600	16672	11	-18	29	127	137	12
-2348	-8832	14088	19	-34	-10	-11656	-8752	7584	16	-3	14	-1480	-3560	16896	42	-11	11	2056	8856	13880	-17	8	-9	-12040	8336	9080	33	-12	28	-2504	2464	16856	17	-19	27	128	138	12
-2944	-10320	13684	5	-30	-21	-11728	-9264	7336	7	-12	13	-1240	-3408	17208	50	-21	11	2192	8808	13056	-1	8	-7	-11984	8576	9048	24	-18	39	-2776	2728	16912	11	-27	18	126	137	12
-2948	-9328	13652	24	1	-8	-11632	-9272	7616	8	-10	11	-1192	-3224	16432	22	0	3	2312	9256	13864	27	3	9	-11704	8504	9104	54	-13	14	-2512	2856	16728	18	-18	8	127	138	12
-2232	-9008	13788	9	-23	-22	-11352	-8512	7664	1	-15	2	-1032	-3264	16800	22	2	-3	2432	9320	13136	37	9	5	-11656	8712	8952	28	-28	16	-2456	3024	17080	0	-17	8	127	138	12
-3044	-9584	13372	26	-23	-11	-11560	-8616	7288	3	-6	-16	-1184	-3032	16904	6	-1	8	2496	8792	13120	28	11	-2	-11232	8832	9240	-9	2	15	-2408	2984	16560	2	-12	12	128	138	12
-2412	-8880	14184	26	-15	-14	-11648	-8288	7360	-6	-5	-11	-1232	-3272	16712	7	8	4	2864	9760	13080	19	6	-3	-11256	8752	9216	-3	1	8	-2376	2992	16592	-7	-13	12	128	140	12
-2656	-9400	13412	2	-7	-21	-11720	-8576	7568	-44	-16	-1	-1192	-3224	16856	19	-13	-1	2608	9720	12856	-40	33	-42	-11360	8840	8832	-42	8	23	-2520	2872	16568	-12	-19	11	128	139	12
-2892	-10176	14040	-5	-17	-48	-11584	-9064	7344	-15	15	-11	-1288	-3344	16864	8	0	7	2928	8688	13712	-59	9	-47	-11856	8328	9552	1	-3	3	-2472	2840	16936	-12	-30	11	128	138	12
-2520	-8924	13860	-16	8	-20	-11632	-8736	7400	-29	-12	-25	-1112	-3528	16704	2	9	-1	1992	9112	13528	-76	34	-52	-11784	8616	9256	5	2	12	-2496	2624	17144	-16	-26	6	127	138	12
-2832	-9904	13092	-25	-6	-40	-11648	-9112	7184	42	17	-28	-1224	-3600	16992	2	8	-4	2496	8624	13640	-62	22	-45	-11792	8392	9352	26	4	-4	-2496	2520	16832	-13	-15	17	128	138	12
-2372	-9612	13928	-45	-3	-48	-11440	-8720	7320	1	5	-18	-1184	-3640	16256	-17	20	-2	2440	8968	13664	-41	20	-39	-11640	8280	9680	41	-1	-22	-2192	2344	16960	-16	-15	25	129	138	12
-2548	-9652	13244	-30	3	-24	-11336	-8960	7048	-37	-10	-15	-1240	-3760	16528	-2	5	0	2712	9216	13608	-56	43	-42	-11632	8336	9520	-15	13	-3	-2168	2232	16872	-16	-19	25	129	138	12
-2320	-9528	13608	-14	-19	-32	-11464	-9192	7552	-36	-7	-25	-1168	-3840	16704	-8	-2	11	2552	8488	13528	-41	30	-39	-11792	7952	9512	-64	13	-6	-2120	1984	16880	-20	-14	25	129	139	12
-2500	-9512	13644	-7	-5	-17	-11256	-9024	7456	-44	-10	-17	-976	-4008	16720	5	7	16	2456	9200	13192	-17	22	-20	-11592	8056	9216	-31	11	5	-2296	1952	16600	-19	-19	28	128	139	12
-2520	-9364	13216	-6	-15	-15	-11216	-9128	7240	-40	-11	-5	-1024	-4008	16456	14	6	19	2240	8536	13368	-6	31	-17	-11528	7864	9048	-25	11	14	-2200	2072	16376	4	-6	26	127	138	12
-2332	-9180	13368	11	-23	-11	-11104	-9144	7488	-37	-4	14	-1192	-3944	16496	22	9	22	2640	9152	13144	20	20	1	-11344	7936	8984	20	5	19	-2376	1984	16064	25	-2	25	126	138	12
-2616	-9728	13680	19	-22	-10	-11296	-9056	7184	7	-4	17	-1000	-3720	16656	40	-1	24	2496	9016	12800	15	13	-6	-11392	8200	9112	28	-4	43	-2272	2208	16256	32	-9	25	125	137	12
-2632	-9708	13524	44	-23	7	-11336	-9040	7256	40	-6	12	-1232	-3696	16528	52	-18	16	2728	8744	13304	-4	8	-7	-11456	8416	9368	34	-11	50	-2528	2344	16208	30	-15	20	126	138	12
-2264	-8984	13452	37	-23	-2	-11544	-8576	7304	47	-9	11	-1136	-3504	16256	61	-28	7	2352	9080	13488	3	12	-17	-11568	8152	8992	35	-16	47	-2432	2800	16248	23	-21	20	126	138	12
-2748	-9644	13408	14	-25	-15	-11472	-8752	7040	44	1	11	-1344	-3368	16976	53	-34	-3	2528	9064	13720	-1	13	-11	-11848	8520	9328	39	-21	37	-2432	2888	17032	-5	-37	12	127	138	12
-2432	-9840	13936	30	-19	-17	-11472	-8704	7264	-1	-11	4	-1232	-3240	16680	33	-20	4	2696	8816	13896	-5	5	-12	-11936	8656	9712	21	-20	31	-2392	2888	16928	3	-35	8	127	139	12
-2692	-9600	13556	6	-18	-22	-11584	-8720	7312	-19	-26	-18	-1240	-3544	17096	28	-12	1	2384	9152	13224	22	15	-9	-11816	8608	9368	-13	-16	21	-2512	2784	17288	0	-32	13	128	138	12
-2748	-9240	13864	14	-24	-19	-11576	-8816	7344	-8	-6	-12	-1112	-3488	17112	19	-1	2	2904	8960	13712	16	8	0	-11672	8664	9648	8	-11	5	-2176	2872	17120	-4	-19	22	129	138	12
-2240	-9576	13960	-14	-26	-28	-11512	-8808	7856	-47	-16	3	-984	-3384	17112	14	2	7	3104	9456	13832	-22	15	-19	-11648	8752	9736	6	-7	9	-2200	2672	16944	1	-20	18	128	137	12
-2256	-10148	13452	-16	-13	-39	-11464	-9392	7472	-44	-18	-28	-928	-3592	16912	8	10	23	2560	8808	13520	-19	25	-28	-11592	8248	9336	-42	7	8	-2088	2616	16704	7	-3	19	129	138	12
-2460	-9144	13916	-32	-12	-39	-11008	-8872	7640	-9	-5	-20	-856	-3864	16760	3	28	12	2752	9368	13280	-15	12	-25	-11360	8392	9400	11	-4	-4	-2000	2408	16736	-5	-12	31	129	138	12
-2188	-9816	13240	-14	-7	-37	-11176	-9240	7672	-1	-9	-16	-928	-3712	16768	26	15	9	2576	8792	13272	-38	25	-29	-11336	8248	9288	-8	7	12	-1944	2328	16344	13	-11	26	128	137	12
-2216	-9456	13436	-6	-18	-35	-10896	-9096	7408	0	-3	-8	-688	-3728	16856	4	11	15	2800	8992	12976	-31	11	-27	-11320	8200	9336	16	-5	5	-2088	2168	16384	16	-13	28	127	137	12
-2340	-9700	13616	13	-13	-21	-11256	-8872	7360	-2	-10	-7	-880	-3896	16568	27	-12	10	2688	9208	13720	-50	14	-28	-11344	8432	9496	12	-6	36	-2024	2304	16568	1	-25	17	128	138	12
-2232	-9724	13808	20	-29	-17	-11496	-9176	7648	-13	-17	-21	-1008	-3832	16760	33	-25	7	2464	8376	13376	-22	22	-27	-11728	8000	9216	-30	-11	34	-2136	2424	16712	1	-27	13	129	138	12
-2336	-9100	13532	11	-16	-22	-11272	-8920	7488	16	-5	-4	-896	-3784	16528	40	-24	-12	2616	8656	13240	27	1	1	-11440	7864	9376	28	-14	16	-1976	2312	16440	3	-32	10	128	140	12
-2140	-9368	13240	8	-18	-24	-10920	-8680	7640	-8	-15	18	-888	-3576	16488	24	-7	-4	2792	8448	13120	29	7	-3	-11120	8080	9336	52	-27	23	-1840	2504	16576	17	-22	8	127	139	12
-2156	-9668	12888	14	-21	-22	-10680	-8912	7624	-13	-13	18	-936	-3536	16456	13	9	6	2768	8608	13016	31	3	-5	-11072	8184	9200	18	-11	28	-1840	2552	16688	28	-14	6	127	139	12
-2272	-9808	13688	30	-19	-11	-10984	-9088	7552	13	-7	4	-920	-3576	16776	12	8	2	2904	9008	12816	-15	16	-20	-11464	8448	9456	17	-12	33	-1976	2872	16552	7	-15	2	128	139	12
-2136	-9124	13404	31	-7	3	-11336	-8816	7440	16	-12	-10	-840	-3528	16416	23	0	0	2568	8560	13480	-21	31	-28	-11528	8296	9408	-13	3	33	-2128	2840	16576	-11	-14	12	128	140	12
-2360	-9304	13296	-1	-12	-22	-11200	-8656	7400	44	13	8	-952	-3544	16440	27	5	1	2656	8816	13184	11	21	-13	-11392	7992	9512	6	12	7	-2008	2704	16432	-8	-15	19	129	139	12
-2288	-9132	13372	-14	-15	-21	-10880	-8656	7392	-5	-1	18	-1000	-3608	16224	21	7	14	2568	8616	13152	13	29	-22	-11128	8320	9376	7	8	8	-2008	2464	16664	-7	-16	24	128	138	12
-2208	-9292	13076	-10	-9	-18	-10752	-8792	7088	-18	-2	5	-768	-3664	16040	19	14	21	3024	9008	12752	15	19	-19	-10912	7992	8992	6	1	20	-1920	2432	16088	29	-2	34	128	138	12
-2124	-9536	13452	5	-21	-14	-10808	-8656	7248	-19	-5	8	-848	-3688	16096	19	11	21	3136	9392	13184	-24	13	-25	-11160	8456	9544	45	0	25	-2000	2472	16240	22	-13	35	128	136	12
-2276	-9724	13336	33	-22	1	-11328	-9224	7816	-31	-22	-8	-1120	-3760	16800	57	-23	26	2504	9280	13488	-64	35	-44	-11624	8600	9368	-25	6	58	-2224	2488	16992	3	-22	26	128	136	12
-2732	-9640	13832	36	-19	-4	-11792	-9352	7576	21	0	-18	-1328	-3736	17344	55	-43	18	2448	9256	13544	-70	34	-47	-12072	8128	9496	-10	9	45	-2520	2584	17288	-8	-24	25	128	139	12
-2464	-9220	14024	17	-14	-6	-11832	-8928	7768	12	-1	9	-1048	-3728	17360	47	-23	1	2408	8672	13768	7	15	-15	-12136	8216	9448	34	1	22	-2456	2464	17144	-5	-20	30	127	139	12
-2520	-9656	13532	-9	-9	-24	-11376	-8968	7392	13	4	28	-1024	-3688	16936	37	-4	7	2696	8928	13856	36	11	-7	-11616	8224	9608	46	-1	19	-2392	2384	17064	20	-9	25	126	138	12
-2092	-9992	14080	27	-22	-24	-11048	-9208	7440	-6	-9	18	-920	-3472	16736	26	19	13	3304	9680	13472	30	0	1	-11568	8928	9872	57	-26	24	-2248	2616	17032	40	-8	11	126	137	12
-2424	-10216	13712	40	-22	2	-11592	-9112	7704	-11	-24	-10	-912	-3352	17344	28	-1	18	2680	9576	13584	-1	22	-19	-11752	9088	9504	-20	-16	51	-2392	3016	17064	21	-4	5	128	139	12
-2248	-9120	14100	47	-28	-9	-11880	-8984	7920	14	-5	-21	-1064	-3568	16840	28	5	5	2584	8904	13416	22	14	-8	-11576	8360	9648	-31	-9	25	-2168	3032	16824	-7	-4	16	129	140	12
-2400	-9356	13912	9	-16	-20	-11552	-8552	7848	9	-7	17	-944	-3464	17280	41	2	-2	2936	9584	13616	5	12	-3	-11504	8608	9504	14	-5	11	-2208	2624	17056	-7	-22	18	127	138	12
-2412	-10024	13920	13	-23	-29	-11480	-9192	7920	-15	-10	7	-1000	-3232	16976	22	-4	9	3032	8960	13616	-12	11	-18	-11584	8640	9328	-2	-12	24	-2256	2792	16824	22	-27	12	127	137	12
-2480	-9664	14076	0	-19	-29	-11440	-9024	8024	-7	-13	-15	-1024	-3296	16992	5	-5	3	2840	9560	13848	-31	9	-24	-11752	8688	9720	29	-28	20	-2448	3064	17368	9	-37	7	127	138	12
-2484	-9736	13708	3	-8	-24	-11776	-9112	7712	6	-15	-31	-1032	-3392	16920	16	-17	-8	2632	9224	13832	-42	24	-30	-11784	8736	9560	8	-16	18	-2376	3064	17448	-21	-38	10	128	139	12
-2400	-9332	14040	-15	-17	-33	-11592	-8888	7616	17	2	-22	-1000	-3440	16856	-4	-16	-10	2768	9128	13528	-29	10	-17	-11680	8760	9824	15	-6	-17	-2160	2896	17248	-28	-38	27	128	138	12
-2468	-9900	13804	-31	-16	-41	-11432	-8952	7776	-5	-8	-11	-936	-3400	17224	-11	-14	-4	2840	8816	13312	-33	21	-28	-11464	8696	9640	-39	4	-4	-2056	2728	16800	-14	-31	23	128	138	12
-2364	-9176	13512	-20	-4	-34	-11424	-8736	7312	-30	-11	-31	-1144	-3752	16720	-29	4	9	2792	8928	13384	-32	25	-29	-11128	8200	9352	-52	10	-14	-1936	2384	16808	-10	-16	26	129	138	12
-2288	-9424	13476	-39	-15	-39	-11000	-8848	7472	-41	-6	-5	-760	-3840	16544	-6	15	5	2720	8952	12952	-47	27	-32	-11336	8272	9240	-29	8	-5	-1904	2296	16424	-12	-17	27	129	138	12
-2344	-9544	13428	-7	-8	-20	-11088	-9136	7528	-60	-7	-17	-952	-3904	16472	-7	22	21	2376	9120	13192	-51	29	-30	-11376	8224	9008	-20	7	11	-2208	2224	16472	-8	-11	25	129	138	12
-2396	-9368	13432	-10	-17	-18	-11120	-8936	7240	-5	-3	-13	-848	-4008	16336	4	16	18	2488	8936	13248	-54	29	-33	-11344	7976	9168	-6	13	12	-2112	1992	16472	8	1	25	127	139	12
-2340	-9232	13516	-12	-13	-23	-11208	-8864	7576	-5	-8	0	-1056	-3976	16384	25	8	16	2536	8504	12824	-27	31	-30	-11496	7928	8984	-2	0	21	-2184	2248	16360	6	-8	26	127	137	12
-2560	-9388	12912	8	-3	-15	-10920	-8784	7016	31	3	5	-912	-3648	16360	38	-4	18	2368	8744	12712	1	21	-16	-11208	8016	8816	13	9	17	-2176	2160	16120	9	-17	27	127	138	12
-2240	-9180	13460	8	-21	-10	-10864	-8696	7112	19	-1	20	-896	-3592	16032	32	-10	16	2968	8912	13288	-3	14	-12	-11368	8112	9304	63	0	23	-2016	2344	16200	19	-16	25	127	138	12
-2132	-9620	13128	12	-20	-10	-11096	-8888	7488	-26	-17	5	-1040	-3456	16536	45	-16	17	2320	8880	13072	-10	30	-26	-11256	8336	9144	8	-12	38	-2152	2560	16392	8	-15	20	127	137	12
-2536	-9588	13296	38	-6	0	-11040	-8864	6904	18	4	-9	-1160	-3480	16472	36	-12	9	2792	8808	13560	-4	16	-15	-11448	8224	9424	16	-4	33	-2152	2632	16624	-3	-14	12	128	139	12
-2068	-9496	13844	9	-20	-16	-11264	-8752	7656	-21	-14	4	-904	-3568	16472	47	-10	4	2544	8896	13088	3	25	-15	-11560	8280	9408	-7	-13	30	-2256	2808	16936	-15	-22	16	128	138	12
-2592	-9792	13220	19	-2	-12	-11384	-8864	7208	-7	2	-4	-1160	-3464	17048	29	-1	6	2472	8536	13568	2	16	-16	-11760	8216	9232	8	-3	20	-2248	2664	16736	-1	-15	14	128	138	12
-2056	-9204	13632	2	-10	-21	-11160	-8792	7584	-8	3	7	-872	-3504	17016	14	9	7	2848	9016	13704	13	17	-16	-11448	8296	9544	46	-1	6	-2104	2760	16808	12	-10	15	128	139	12
-2344	-10020	13508	-1	-18	-23	-11232	-9048	7816	-26	-8	-1	-936	-3272	16760	14	9	6	3008	9088	13136	-19	24	-32	-11384	8536	9408	4	-1	22	-2192	2688	16872	7	-10	15	129	137	12
-2376	-9628	13620	11	-12	-16	-11224	-8984	7320	15	5	-17	-904	-3632	16768	1	17	12	2728	8816	13688	-28	13	-25	-11400	8520	9488	6	4	3	-1984	2712	16816	3	-7	16	129	139	12
-1968	-9436	13596	-16	-9	-30	-11152	-8896	7632	-12	-4	-10	-808	-3640	16528	18	16	3	2840	9216	13640	-35	28	-32	-11584	8488	9608	4	1	3	-2000	2616	16784	-14	-18	22	128	139	12
-2384	-9784	13500	0	-10	-28	-11304	-9256	7624	-18	-7	-20	-1056	-3616	16792	14	-1	3	2816	8640	13272	-36	29	-37	-11544	8248	9312	-28	4	7	-2200	2512	16736	-16	-31	24	128	139	12
-2332	-9652	13808	-11	-10	-27	-11136	-8952	7392	-4	-1	-21	-752	-3704	16624	8	-12	1	3016	8984	13752	-39	13	-26	-11552	8248	9664	11	1	4	-1944	2376	16656	-4	-31	15	129	138	12
-2084	-10080	13900	-6	-14	-30	-11208	-9336	7872	-34	-13	-13	-888	-3832	16944	15	-22	3	2896	8800	13272	-24	19	-30	-11768	8288	9616	-9	-17	14	-2080	2336	16856	-9	-32	17	128	138	12
-2416	-9388	13496	14	-10	-15	-11280	-9200	7416	-2	-8	-29	-920	-3848	17088	12	-11	3	2720	8936	13568	2	16	-11	-11464	8184	9448	-7	-2	12	-2016	2336	16920	-6	-23	18	128	140	12
-1992	-9528	13956	5	-22	-30	-11096	-9136	7736	4	-4	5	-840	-4008	16816	23	-4	1	3128	9064	13704	12	3	-12	-11448	8040	9696	27	-15	11	-1880	2264	16656	11	-16	24	128	138	12
-2272	-9860	13556	17	-20	-15	-11328	-9312	7576	-27	-24	1	-928	-3736	16832	25	-8	11	2664	8960	12888	1	17	-14	-11456	8416	9376	-4	-10	30	-1976	2440	16568	17	-15	15	127	137	12
-2184	-9144	13552	22	-9	-13	-11208	-8992	7560	20	-4	0	-912	-3840	16664	21	7	3	2872	8936	13920	5	6	-2	-11368	8232	9608	22	-6	28	-2016	2520	16512	21	-7	15	127	139	12
-1872	-9680	13820	-2	-30	-31	-11128	-9040	7712	-2	-15	10	-584	-3632	16568	39	-2	3	2952	9128	13424	1	16	-18	-11392	8296	9736	14	-20	32	-1888	2544	16712	16	-16	20	127	138	12
-2196	-9768	13652	16	-17	-15	-11064	-9224	7616	14	-14	-7	-688	-3600	16432	32	3	16	2992	8672	13480	0	14	-15	-11528	8424	9664	3	-19	33	-2056	2760	16936	16	-22	15	128	135	12
-1804	-9232	13784	12	-24	-18	-11008	-8888	7912	26	-16	-6	-656	-3648	16504	38	-3	12	3008	8736	13624	14	4	-1	-11344	8216	9608	17	-20	30	-1832	2696	16904	24	-18	19	127	138	12
-1892	-9668	13252	-16	-22	-33	-11240	-8800	7688	-8	-29	3	-544	-3528	16776	49	-10	12	2768	8816	13256	12	14	-9	-11224	8240	9664	16	-17	25	-1704	2944	16832	15	-18	26	128	138	12
-2180	-9348	13336	-10	-24	-28	-10848	-8920	7336	-1	-8	1	-576	-3528	16528	34	-8	17	3152	8528	13080	4	11	-10	-10936	8200	9752	5	-3	16	-1568	2664	16552	11	-19	27	127	137	12
-1780	-9680	13600	-5	-27	-27	-10648	-8896	7672	-7	-11	9	-456	-3616	16384	25	-6	10	3312	8832	12928	-9	7	-16	-11032	8416	9688	23	-8	16	-1688	2576	16680	16	-22	22	127	137	12
-1888	-9700	13044	-3	-10	-23	-10928	-9024	7688	-17	-25	-13	-528	-3552	16504	23	-4	17	2744	8912	13072	-29	28	-34	-11120	8344	9856	5	-9	23	-1784	2752	16784	0	-20	23	128	138	12
-2144	-9200	13416	12	-15	-18	-10880	-9056	7320	24	4	-2	-648	-3768	16480	19	-10	2	3304	8824	13264	-42	18	-33	-11224	8128	9712	7	1	18	-1896	2512	16688	-10	-22	22	128	139	12
-1968	-9892	13552	8	-18	-22	-11040	-9000	7640	-7	-9	0	-504	-3616	16472	24	-15	2	2880	8336	12952	-35	26	-38	-11376	8304	9720	-10	-5	14	-1984	2512	16768	-7	-27	25	127	138	12
-1976	-9720	13392	8	-19	-17	-11072	-8864	7112	12	-1	-6	-872	-3720	16608	6	2	4	2568	8352	13280	-11	25	-22	-11376	8080	9472	-9	15	9	-1984	2480	16592	-1	-15	21	128	138	12
-1792	-9192	13556	8	-9	-26	-10640	-8768	7536	9	5	12	-456	-3680	16440	14	20	-1	2976	8832	12824	12	18	-22	-10984	7936	9552	37	-3	3	-1640	2488	16432	9	-3	24	127	139	12
-1964	-9660	13092	6	-4	-19	-10720	-8912	7496	-23	-12	8	-712	-3608	16312	21	18	7	2952	8968	12848	-7	22	-28	-11096	8240	9280	22	-2	25	-1800	2408	16304	15	-9	17	128	138	12
-1900	-9564	13584	35	-15	-13	-10944	-9152	7488	-10	1	-11	-584	-3712	16312	20	8	12	3360	9056	13624	-25	14	-28	-11320	8280	9808	17	-7	24	-1776	2496	16544	12	-14	10	128	138	12
-1884	-9996	13856	22	-24	-17	-11216	-9248	8048	-23	-10	-19	-640	-3736	16960	40	-12	6	3160	8904	13728	-32	18	-28	-11688	8400	10000	-7	-16	39	-1848	2720	17080	-13	-24	7	128	139	12
-2208	-9476	13736	14	-10	-17	-11320	-9152	7728	-2	-11	-23	-664	-3792	16904	45	-19	5	2608	8248	13600	4	17	-16	-11568	8176	9832	-16	-11	21	-1928	2744	16968	-19	-24	13	128	139	12
-1844	-9024	13792	3	-13	-26	-10888	-8888	7624	19	5	7	-368	-3664	16552	29	4	1	3208	8936	13552	44	7	2	-11256	8200	10056	53	-10	0	-1584	2552	16960	6	-9	18	127	139	12
-1784	-9964	13520	-8	-13	-33	-10680	-9176	7872	-33	-13	15	-384	-3424	17048	27	10	11	3400	9096	12784	36	14	-9	-11032	8720	9800	24	-15	14	-1688	2552	16832	27	-8	15	127	137	12
-1984	-9532	13464	26	-5	-7	-10920	-9064	7768	-2	-1	-13	-504	-3416	16864	5	13	20	3520	9176	13432	5	22	-17	-10816	8568	10096	13	2	19	-1456	3144	16832	24	2	11	127	139	12
-1536	-9820	14224	22	-19	-11	-11152	-9280	8272	-12	-8	-6	-312	-3568	16824	34	-3	9	3752	9288	13520	-30	13	-29	-11344	8600	10352	7	-7	22	-1656	2864	16856	-5	-17	14	127	138	12
-2020	-9804	13716	25	-12	-1	-11304	-9280	8032	-16	-16	-19	-752	-3416	17304	32	-9	9	2832	8784	13312	-32	30	-32	-11440	8696	9848	-55	9	34	-1776	2816	16880	-26	-23	20	128	139	12
-2008	-9056	14112	8	-16	-18	-11288	-8888	7696	38	12	-3	-616	-3688	16832	18	-3	4	3208	8664	13752	-3	12	-14	-11336	8040	9992	5	7	4	-1752	2624	16840	-8	-16	27	127	139	12
-1620	-9480	13680	-21	-19	-32	-10816	-8784	8032	-12	-10	21	-512	-3472	16680	18	10	5	3128	9168	13136	-2	22	-21	-11160	8384	9888	24	-4	11	-1784	2552	16560	9	-18	31	127	138	12
-2128	-9720	13128	-6	-2	-15	-10768	-9120	7592	-7	-8	2	-568	-3416	16416	8	5	15	3160	9096	13360	-28	25	-23	-11040	8528	9504	11	4	18	-1728	2784	16448	21	-11	21	127	137	12
-1680	-9708	13784	-2	-23	-24	-10816	-9096	7648	-3	-4	-15	-344	-3416	16600	13	3	10	3568	9104	13640	-40	14	-28	-11256	8392	10072	25	-5	14	-1688	2736	16808	7	-15	15	128	139	12
-2036	-10080	13664	4	-19	-15	-11104	-9376	7808	-31	-19	-31	-672	-3576	16832	21	-19	8	2800	8632	12984	-53	38	-38	-11536	8496	9568	-46	-2	26	-2080	2728	17016	-26	-34	20	128	138	12
-2120	-9320	13612	2	-5	-18	-11376	-8880	7384	29	9	-25	-680	-3840	16856	11	-14	7	2960	8200	13856	-28	11	-25	-11336	8144	10048	-21	11	2	-1824	2520	16536	-15	-20	25	129	139	12
-1500	-9428	13772	-23	-20	-44	-10936	-8784	7840	-23	-15	9	-416	-3880	16680	22	-4	2	3080	8864	13016	7	18	-19	-11152	7992	9672	0	-5	0	-1848	2264	16920	-1	-24	27	127	138	12
-2248	-9832	12916	-18	0	-28	-10864	-9272	7480	-20	-9	-6	-672	-3760	16592	7	3	14	2896	8552	12968	-19	28	-25	-10960	8152	9336	-20	0	13	-1768	2248	16680	17	-16	21	127	137	12
-1740	-9592	13520	1	-11	-30	-10648	-9000	7232	-1	-3	-2	-448	-3928	16336	6	16	13	3368	8904	13736	-31	4	-18	-10992	7968	9992	37	-6	10	-1496	2304	16464	23	-5	16	127	138	12
-1784	-10032	13288	-5	-20	-24	-10448	-9088	7608	-6	-4	-2	-504	-3624	16656	23	2	8	2728	8736	13048	-43	30	-32	-11296	8160	9560	-10	-6	29	-1856	2584	16712	7	-18	11	128	139	12
-2260	-9468	13368	15	-7	-17	-10856	-9264	7416	33	3	-24	-736	-3976	16584	13	1	4	2872	8184	13560	-37	18	-34	-11408	7856	9672	-6	1	15	-1728	2544	16760	-9	-15	15	129	140	12
-1504	-9532	13640	2	-17	-25	-10848	-8896	7896	10	-1	2	-552	-3736	16624	35	-6	-7	3120	8472	13400	-10	10	-21	-11512	7840	9784	27	-12	6	-1576	2320	16616	-9	-24	17	128	139	12
-1936	-9604	13012	-1	-7	-23	-10776	-9104	7720	-19	-12	-5	-472	-3568	16368	16	-7	3	2808	8488	13048	10	21	-16	-11112	8056	9456	5	-6	21	-1624	2464	16632	2	-21	14	129	138	12
-1948	-9464	13328	11	-16	-19	-10544	-8968	7640	7	3	1	-392	-3832	16480	13	3	9	3416	8752	13344	8	12	-6	-11032	8112	9864	30	-5	13	-1400	2440	16792	11	-12	16	127	138	12
-1528	-9828	13632	9	-17	-18	-10696	-9216	8120	-44	-15	2	-368	-3632	16688	17	2	11	3288	8584	12776	-6	20	-21	-11040	8184	9600	-9	-11	26	-1536	2608	16488	6	-10	12	128	138	12
-2136	-9412	13224	21	-4	-4	-10784	-9088	8120	-48	-20	-3	-528	-3768	16840	27	7	15	2896	8504	13336	-16	24	-25	-10992	8072	9528	-29	14	25	-1632	2696	16504	-3	-11	18	128	138	12
-1680	-9416	13596	11	-9	-18	-10720	-8912	7888	15	8	12	-568	-3688	16440	34	3	5	3392	8704	13560	3	11	-16	-11200	7912	9864	30	3	13	-1552	2424	16656	2	-8	18	128	139	12
-1600	-9836	13520	3	-9	-17	-10744	-9240	7888	-27	-8	11	-584	-3696	16592	35	-1	11	3048	8776	13224	-11	21	-32	-11080	8288	9656	17	-3	28	-1960	2384	16600	8	-20	16	127	137	12
-2056	-9416	13236	31	-10	-7	-10944	-9104	7416	36	1	-7	-672	-3808	16712	22	4	11	3288	8808	13752	-17	18	-23	-11208	8096	9888	18	2	26	-1696	2488	16632	22	-6	18	128	139	12
-1668	-9820	13920	12	-25	-21	-10920	-9088	8160	9	-3	13	-472	-3760	16856	34	-4	5	3312	8912	13480	-12	16	-21	-11592	8328	9872	45	-14	28	-1512	2728	16584	6	-17	19	128	138	12
-1944	-9636	13360	19	-10	-7	-11152	-9144	7928	-2	-9	-9	-736	-3648	17024	36	-11	9	2800	8800	13592	-15	28	-26	-11264	8360	9736	0	-5	31	-1856	2656	17016	1	-18	18	127	138	12
-1900	-9732	13620	8	-13	-20	-10960	-8968	7616	20	6	1	-776	-3624	16656	30	-8	6	3352	9176	14016	-1	16	-18	-11456	8200	10224	22	-5	19	-1680	2656	17000	9	-21	14	128	139	12
-1876	-10004	13912	-15	-18	-24	-11048	-9184	8256	-30	-16	1	-440	-3600	17120	36	-10	6	2896	8616	13240	-7	22	-25	-11568	8544	9920	-14	-11	26	-1720	2760	17352	-1	-29	13	128	139	12
-2096	-9440	13552	4	-4	-8	-10936	-9360	7688	9	2	-16	-552	-3760	16592	19	-5	8	3056	8784	13712	1	16	-13	-11528	8232	9784	4	2	12	-1760	2784	17048	-5	-20	22	128	138	12
-1700	-9672	13896	-6	-22	-27	-11032	-9304	7848	16	1	-7	-400	-3736	16744	25	-3	3	3240	9320	13352	18	7	-14	-11264	8472	9856	21	-8	8	-1728	2560	16936	6	-16	22	128	138	12
-2164	-9708	13488	18	-9	-8	-11176	-9080	8064	-11	-15	2	-760	-3560	16776	19	1	14	2952	9008	13288	-3	26	-26	-11000	8648	9568	-20	-3	28	-1960	2784	16768	6	-9	19	127	138	12
-2052	-9396	13700	32	-13	-8	-11224	-8888	7704	34	13	2	-760	-3664	16792	24	-1	11	3144	9088	13816	-17	11	-23	-11208	8288	10032	23	7	21	-1720	2728	16672	11	-7	20	127	139	12
-1928	-9912	13800	7	-18	-16	-11256	-9136	8048	-13	-7	11	-944	-3488	17120	34	-13	1	2768	9120	13064	-36	22	-34	-11552	8552	9424	1	-7	24	-2056	2680	16968	-3	-27	15	127	138	12
-2540	-9624	13392	24	1	-6	-11312	-9368	7464	19	6	-10	-1008	-3480	16960	20	-13	8	2448	8744	13696	-36	25	-32	-11696	8304	9312	-11	11	24	-2264	2744	16888	-2	-30	16	128	138	12
-2152	-9492	13852	3	-4	-22	-11432	-9280	7168	32	13	-12	-960	-3464	16424	10	-8	-6	2872	8784	13936	-32	17	-26	-11920	8264	9696	31	3	5	-2080	2640	16856	-8	-20	15	128	138	12
-2228	-9648	13280	1	-3	-18	-11224	-8928	7320	-15	-6	-1	-1008	-3440	16392	0	3	4	2416	9032	13184	-15	32	-29	-11528	8488	9224	-3	1	3	-2136	2560	17160	-20	-19	16	129	137	12
-2612	-9408	13332	15	-13	-15	-11072	-8792	7128	2	4	-9	-984	-3480	16544	-18	14	8	2512	8928	13072	7	19	-15	-11536	8392	9256	-3	6	4	-2104	2392	16392	-13	-7	24	129	138	12
-2320	-9392	13652	15	-8	-11	-11176	-8616	7408	-32	-2	-2	-952	-3696	16496	-3	9	10	2720	9272	12944	-5	21	-20	-11240	8488	9520	2	10	2	-2248	2344	16416	-7	-4	26	129	138	12
-2588	-9576	13264	16	-8	-3	-11384	-8856	7480	-42	-7	-12	-1104	-3760	16456	1	9	8	2352	8816	13032	-33	34	-38	-11216	8416	8952	-38	17	24	-2304	2280	16552	-3	-5	27	128	137	12
-2608	-9224	13528	14	-10	-11	-11488	-8808	7152	-4	10	-9	-1216	-3768	16480	27	4	22	2456	9160	13400	-40	31	-35	-11624	8016	9232	-11	21	10	-2448	2216	16272	1	-12	22	129	139	12
-2684	-9560	13644	-1	-9	-22	-11360	-8856	7552	-6	-6	2	-1240	-3552	16704	40	2	12	2200	8896	13320	-44	27	-42	-11880	8128	9040	12	2	22	-2608	2264	16776	-5	-21	17	127	138	12
-2860	-9576	13080	5	3	-19	-11544	-9056	6864	29	3	-5	-1472	-3712	16840	25	-1	14	1928	8520	13480	-29	25	-33	-11840	8104	8952	31	6	21	-2736	2312	16544	6	-18	13	127	138	12
-2516	-9580	13616	-3	-5	-25	-11344	-8912	6976	36	11	8	-1328	-3536	16296	23	-2	2	2608	9160	13832	-14	11	-21	-11872	8240	9704	75	-7	12	-2464	2368	16672	6	-25	10	128	138	12
-2672	-9880	13260	6	-7	-14	-11400	-9040	7200	0	-7	-11	-1440	-3536	16744	20	-16	-5	2032	9272	13344	-17	25	-31	-11976	8640	9080	6	-14	22	-2768	2528	17016	-9	-28	12	128	137	12
-2924	-9464	13484	15	-9	-13	-11656	-8848	6704	16	6	-16	-1544	-3688	16712	2	-11	-5	2392	8736	13872	-15	22	-26	-11960	8304	9168	-14	7	8	-2384	2536	16776	-10	-18	17	129	139	12
-2700	-9744	13648	0	-20	-22	-11560	-8712	7288	-35	-2	-1	-1448	-3864	16968	14	-7	-5	2160	9112	13408	-14	21	-26	-12120	8456	8976	-20	2	7	-2568	2320	16736	-23	-28	21	129	138	12
-3128	-9688	13268	14	-4	-14	-11712	-9048	6904	-41	-8	-11	-1616	-3688	16824	5	-1	12	1904	8888	13400	-17	27	-27	-11848	8400	8856	-41	10	18	-2640	2208	16712	-9	-21	26	128	138	12
-2836	-9512	13860	7	-16	-22	-11704	-8896	7184	-22	1	-2	-1568	-3760	16632	6	6	10	2200	9416	13456	-11	18	-24	-11904	8200	9408	6	3	11	-2632	2192	16800	-1	-16	26	128	138	12
-2916	-9820	13320	6	-10	-14	-11856	-9080	7112	-23	-9	2	-1616	-3856	17128	25	-1	9	1888	9248	13272	-22	31	-33	-12056	8240	8944	3	0	24	-2816	2224	16776	9	-14	21	128	138	12
-3064	-9516	13560	18	-10	-15	-11760	-9112	6936	34	10	0	-1616	-3880	16744	18	2	10	2080	8920	13768	-6	19	-23	-11856	8144	8704	30	4	21	-2776	2312	16536	16	-13	24	128	138	12
-2840	-9648	13760	11	-15	-24	-11800	-8896	7032	30	0	8	-1496	-3800	16768	35	-7	7	2216	9320	13360	-16	14	-23	-12264	8304	9112	43	-12	25	-2680	2208	17024	17	-17	21	127	138	12
-3044	-9864	13268	23	-14	-9	-11840	-9176	7008	15	-17	-4	-1848	-3576	16944	37	-15	11	1920	9136	13648	-10	23	-27	-11960	8456	8728	0	-3	39	-2776	2304	16744	12	-17	17	127	138	12
-3012	-9436	13704	24	-22	-19	-11992	-8736	6848	30	3	-2	-1704	-3680	16544	32	-12	6	2240	9064	13760	-5	9	-19	-12000	8304	8992	17	-5	24	-2816	2312	16848	13	-21	19	128	138	12
-2960	-9792	13828	6	-23	-20	-11848	-8744	7128	-22	-11	4	-1696	-3544	17016	38	-11	5	2032	9160	13480	-3	21	-20	-11944	8472	8712	-7	-8	26	-2832	2496	17016	3	-23	17	127	137	12
-3096	-9428	13440	17	-7	-7	-11848	-9008	6816	-14	-10	-11	-1640	-3592	16848	19	2	13	1936	9040	13488	7	15	-12	-12000	8192	8728	-9	-5	21	-2744	2352	16592	7	-15	19	128	138	12
-2760	-9444	13684	9	-18	-23	-11648	-8688	6944	-12	-2	8	-1536	-3576	16648	20	6	3	2216	9232	13568	17	8	-12	-11776	8344	9184	31	-8	15	-2712	2352	16968	9	-11	17	129	138	12
-3064	-9876	13456	16	-11	-10	-11664	-8920	7232	-18	-12	-3	-1496	-3512	16824	28	0	8	1888	9384	13104	-7	23	-24	-11880	8632	8728	8	-12	27	-2912	2576	17072	9	-18	17	128	138	12
-3140	-9372	13420	28	-14	-8	-11856	-8752	6968	15	2	-13	-1672	-3528	16888	15	0	11	2064	9072	13712	-19	19	-27	-12104	8496	9000	8	3	26	-2760	2656	16872	10	-13	15	128	140	12
-3008	-9484	13660	8	-19	-14	-11768	-8840	7024	6	1	5	-1704	-3456	16736	24	1	0	1800	9472	13272	-23	23	-27	-12112	8488	9000	12	-3	15	-3024	2448	16896	2	-23	18	128	139	12
-3452	-9504	13268	16	-6	-8	-11888	-8712	6776	16	4	-3	-1768	-3472	16784	24	-4	6	1536	9040	13136	-20	36	-35	-11976	8472	8800	-19	17	15	-2976	2552	16680	0	-22	21	127	138	12
-3272	-9144	13660	18	-4	-15	-11864	-8416	6824	19	13	10	-1960	-3568	16456	10	1	8	1856	9208	13360	-4	23	-25	-12136	8320	8512	14	19	-1	-2888	2336	16368	3	-13	23	128	139	12
-3216	-9624	13564	5	-11	-20	-11848	-8552	6952	-19	6	7	-1944	-3344	16824	19	-2	7	1784	9480	13040	-19	27	-34	-12216	8544	8424	5	11	17	-3136	2272	16544	-2	-15	20	127	138	12
-3532	-9436	13324	27	-10	-2	-12040	-8656	6736	-10	4	-10	-2120	-3416	16824	7	-5	12	1648	9296	13232	-39	31	-35	-12032	8416	8312	-15	20	22	-3240	2320	16440	-5	-22	14	127	138	12
-3408	-9336	13692	12	-6	-16	-12168	-8664	6656	2	11	1	-2096	-3672	16648	7	-7	1	1680	9232	13616	-36	19	-37	-12352	8416	8560	6	8	16	-3264	2120	16648	-9	-17	12	128	139	12
-3572	-9684	13532	8	-4	-15	-12248	-8784	6664	-4	3	-3	-2200	-3536	16816	14	-10	1	1592	9208	13488	-33	35	-43	-12504	8568	8496	-3	3	21	-3376	2192	16672	-11	-21	8	128	138	12
-3548	-9344	13588	9	0	-16	-12264	-8688	6408	23	12	-3	-2056	-3528	16840	11	3	1	1576	9008	13616	-20	26	-31	-12504	8344	8624	10	4	15	-3208	2088	16432	1	-15	7	128	139	12
-3336	-9608	13848	-18	-3	-31	-12200	-8752	6744	12	1	3	-2056	-3720	16672	15	8	-5	1768	9376	13680	-12	15	-26	-12376	8392	8592	33	-13	12	-3296	2184	16880	2	-17	8	128	138	12
-3532	-9912	13304	-8	-8	-20	-12192	-8952	6528	-7	-10	-13	-2288	-3640	16736	20	4	1	1440	9256	13776	-27	21	-30	-12256	8616	8624	-2	-10	22	-3192	2296	16704	1	-15	13	128	138	12
-3416	-9432	13696	-1	-15	-23	-12184	-8824	6784	8	-4	-18	-2056	-3744	16560	11	3	1	1856	9280	13688	-15	11	-21	-12448	8424	8800	7	-1	9	-3136	2144	16768	2	-16	18	128	139	12
-3304	-9800	13780	-11	-22	-31	-12128	-8816	7024	-27	-15	-5	-2040	-3768	17008	25	-3	5	1552	9328	13456	-14	16	-26	-12464	8560	8512	-15	-4	17	-3160	2192	16856	-8	-21	22	128	137	12
-3568	-9568	13388	11	-14	-17	-12216	-8952	6728	-12	-6	-16	-2104	-3792	16952	20	-6	13	1432	9032	13560	-15	20	-22	-12152	8352	8536	-24	7	14	-3208	2192	17040	0	-12	27	128	138	12
-3324	-9372	13724	0	-17	-28	-11896	-8672	6864	-14	-7	5	-1968	-3872	16736	20	9	9	1808	9328	13472	3	13	-15	-12152	8312	8728	20	-3	8	-3080	2056	16592	15	-12	26	128	138	12
-3560	-9784	13312	11	-10	-19	-11936	-8896	6680	-19	-6	1	-1992	-3856	17016	31	2	14	1416	9504	13280	-9	25	-27	-12184	8352	8560	2	-6	26	-3344	2144	16648	13	-8	24	126	137	12
-3536	-9380	13584	33	-16	-6	-12056	-8872	6552	26	4	3	-2056	-3800	16624	22	5	12	1736	9240	13560	-9	11	-17	-12200	8336	8656	23	3	25	-3128	2112	16744	23	-9	20	126	137	12
-3332	-9600	13868	20	-20	-15	-12032	-8688	7032	15	-5	15	-2120	-3648	16592	35	-3	1	1600	9368	13456	-14	15	-22	-12328	8488	8760	26	-9	25	-3272	2392	16680	12	-11	16	127	138	12
-3684	-9624	13260	39	-12	-6	-12104	-8816	6672	21	-2	3	-2232	-3360	16840	35	-13	6	1264	9064	13696	-13	20	-30	-12384	8400	8600	-4	0	33	-3424	2160	16896	2	-20	10	127	138	12
-3376	-9180	13776	31	-20	-11	-12280	-8544	6520	30	3	7	-2104	-3440	16840	29	-5	-2	1800	9096	13408	5	8	-15	-12416	8416	8568	32	-5	17	-3360	2264	16584	8	-16	9	128	138	12
-3520	-9672	13560	16	-21	-20	-12128	-8576	7056	-10	-1	11	-2032	-3504	16768	30	-2	-3	1248	9144	13232	-1	19	-20	-12464	8664	8464	13	-10	24	-3272	2384	17024	5	-18	11	128	137	12
