#Activity	sitting 
#ActivityID	5 
#Date 10-10-18-30
acc_rf_x	acc_rf_y	acc_rf_z	gyro_rf_x	gyro_rf_y	gyro_rf_z	acc_rs_x	acc_rs_y	acc_rs_z	gyro_rs_x	gyro_rs_y	gyro_rs_z	acc_rt_x	acc_rt_y	acc_rt_z	gyro_rt_x	gyro_rt_y	gyro_rt_z	acc_lf_x	acc_lf_y	acc_lf_z	gyro_lf_x	gyro_lf_y	gyro_lf_z	acc_ls_x	acc_ls_y	acc_ls_z	gyro_ls_x	gyro_ls_y	gyro_ls_z	acc_lt_x	acc_lt_y	acc_lt_z	gyro_lt_x	gyro_lt_y	gyro_lt_z	EMG_r	EMG_l	act
-10472	-3776	11368	-14	65	-157	-16056	-1756	8	101	-15	61	-2896	-1928	16496	296	-152	42	-9460	3936	13272	168	-14	-147	-16596	2040	-932	178	-83	236	-920	3340	16764	234	-41	-90	126	127	5
-10472	-3708	11372	-41	99	-125	-16112	-1740	-4	108	-28	68	-2876	-1868	16388	191	-102	65	-9464	3880	13244	212	-32	-126	-16472	2144	-1040	34	-44	183	-840	3456	16852	235	-97	-156	126	127	5
-10336	-3712	11424	-72	98	-176	-16144	-1720	-64	-53	-56	-16	-2876	-1804	16428	44	-67	83	-9464	3924	13376	200	-23	-147	-16532	2048	-968	13	-53	200	-764	3524	16748	200	-96	-114	126	127	5
-10476	-3712	11476	-76	141	-178	-16116	-1732	-44	-34	-58	-24	-3008	-1840	16448	-46	-85	113	-9540	3876	13344	169	18	-148	-16552	2056	-1092	6	-72	186	-756	3408	16812	148	-98	-121	126	126	5
-10440	-3720	11488	-83	99	-190	-16136	-1736	-48	-25	-82	-63	-2880	-1944	16424	-82	-94	102	-9508	3840	13216	115	-10	-188	-16612	2116	-992	83	-58	144	-368	3392	16880	232	42	-72	126	126	5
-10404	-3772	11528	-114	122	-207	-16064	-1840	68	6	-65	-89	-2780	-2008	16372	-76	-57	176	-9556	3764	13188	166	-30	-173	-16568	2152	-948	182	-37	123	-424	3516	16800	299	125	-24	126	125	5
-10448	-3780	11460	-143	113	-242	-16072	-1768	172	22	-95	-118	-3072	-2128	16348	4	-118	264	-9496	3936	13336	126	-58	-152	-16584	2228	-952	161	-21	50	-824	3580	16844	307	113	35	127	126	5
-10396	-3720	11356	-137	132	-232	-16068	-1800	88	-18	-54	-124	-3228	-2124	16348	138	-243	430	-9436	3880	13300	130	-30	-188	-16524	2228	-916	89	-28	40	-768	3544	16868	374	106	99	127	126	5
-10412	-3744	11476	-140	141	-225	-16192	-1948	144	-14	-50	-97	-2832	-2264	16472	175	-178	444	-9504	3872	13252	109	-56	-199	-16572	2124	-876	-65	10	29	-892	3448	16840	405	132	212	127	126	5
-10460	-3788	11384	-78	132	-179	-16084	-2092	100	9	-55	-84	-2836	-2304	16396	189	-216	350	-9492	3868	13352	108	-43	-181	-16548	1932	-956	21	-50	6	-1292	3508	16748	312	27	207	127	126	5
-10404	-3756	11392	-65	127	-209	-16016	-2108	124	67	-38	-59	-2812	-2148	16264	162	-212	172	-9468	3868	13276	69	-21	-179	-16500	1880	-968	53	-38	38	-1156	3284	16760	92	-7	307	127	126	5
-10440	-3780	11372	-32	118	-160	-16112	-2016	88	95	-23	7	-2660	-2184	16328	137	-122	129	-9504	3816	13328	80	-51	-188	-16608	1748	-876	113	-74	45	-976	3052	16844	175	6	377	128	126	5
-10476	-3732	11412	-20	121	-179	-16140	-1956	120	39	-36	25	-2488	-1976	16504	12	13	-11	-9516	3808	13336	144	-30	-183	-16640	1636	-904	276	-44	95	-968	2956	16836	282	44	320	127	127	5
-10432	-3712	11328	-61	117	-194	-16060	-1896	-4	-120	-51	50	-2568	-1964	16272	-187	130	-133	-9544	3816	13336	170	-9	-134	-16524	1712	-916	382	-65	182	-1228	3196	16924	395	1	73	127	127	5
-10432	-3720	11420	-54	112	-132	-16064	-1888	116	-115	-30	52	-2952	-1996	16388	-290	121	-203	-9524	3884	13276	197	-13	-136	-16528	1928	-860	271	-43	247	-1148	3304	16808	300	-133	-61	127	127	5
-10428	-3712	11388	-20	106	-153	-16092	-1828	-8	-44	-15	37	-2888	-2016	16452	-319	110	-222	-9428	3856	13324	166	13	-146	-16588	2096	-904	41	-18	313	-824	3344	16928	208	-193	-100	126	127	5
-10440	-3748	11384	-40	124	-166	-16148	-1808	28	-5	-33	23	-2976	-2048	16424	-295	57	-181	-9484	3884	13240	204	13	-160	-16500	2104	-932	-184	19	312	-792	3440	16716	207	-195	-113	125	127	5
-10404	-3700	11392	-78	119	-171	-16096	-1748	-48	-23	-35	8	-3100	-2072	16500	-257	-24	-88	-9468	3852	13332	212	61	-160	-16536	2072	-900	-148	36	264	-716	3536	16864	164	-112	-103	125	127	5
-10464	-3720	11468	-54	116	-185	-16132	-1784	-32	0	-35	-30	-3128	-2104	16384	-111	-76	0	-9492	3864	13272	189	12	-155	-16604	2172	-1056	-21	57	209	-668	3608	16772	132	-74	-116	124	127	5
-10464	-3800	11392	-65	142	-199	-16104	-1780	72	41	-29	-36	-3072	-2064	16468	-8	-145	103	-9508	3900	13216	166	-5	-157	-16540	2244	-1096	93	-41	156	-628	3732	16868	174	-38	-51	124	127	5
-10440	-3696	11460	-85	103	-174	-16140	-1728	48	50	-15	-82	-3060	-2092	16352	79	-193	157	-9488	3892	13324	98	-20	-198	-16616	2300	-1012	207	-22	123	-724	3784	16612	136	7	15	124	127	5
-10468	-3716	11584	-70	117	-217	-16040	-1668	-48	3	-48	-94	-2980	-2036	16428	112	-197	211	-9544	3844	13336	110	-51	-185	-16532	2376	-1012	211	-38	58	-656	3764	16884	175	99	71	124	127	5
-10464	-3664	11472	-90	130	-218	-16144	-1756	4	-23	-75	-111	-2984	-2004	16616	124	-174	264	-9508	3880	13324	79	2	-187	-16536	2308	-1032	160	-97	-12	-736	3696	16752	160	90	150	124	127	5
-10420	-3708	11524	-92	120	-214	-16124	-1776	-56	-62	-72	-137	-2876	-1928	16492	101	-189	285	-9444	3872	13288	61	-94	-206	-16524	2248	-1048	34	-85	-111	-704	3616	16796	155	125	206	125	127	5
-10420	-3716	11412	-150	155	-240	-16144	-1736	156	-47	-54	-172	-2828	-1956	16432	29	-128	279	-9420	3812	13188	66	-86	-216	-16604	2064	-1032	-18	-52	-67	-880	3584	16724	106	158	222	125	127	5
-10396	-3836	11420	-131	149	-231	-16080	-1840	36	-85	-76	-154	-2852	-1984	16416	-6	-106	215	-9500	3896	13324	51	-99	-195	-16548	1980	-900	-44	-58	-69	-872	3332	16728	-5	139	182	125	127	5
-10416	-3760	11340	-123	180	-219	-16064	-1880	44	-9	-63	-193	-2896	-1952	16488	-115	-121	187	-9444	3860	13260	83	-22	-206	-16528	1852	-908	64	-99	-86	-872	3244	16832	51	117	136	126	127	5
-10420	-3776	11384	-146	167	-218	-16168	-1824	48	-15	-35	-184	-2888	-2068	16488	-178	-136	195	-9452	3796	13308	87	-60	-179	-16616	1784	-912	145	-50	-73	-916	3144	16864	75	107	53	126	127	5
-10408	-3728	11496	-163	182	-224	-16044	-1924	128	-27	-59	-175	-2884	-2144	16508	-165	-133	180	-9416	3784	13244	123	-46	-172	-16576	1828	-864	140	-48	11	-912	3196	16892	94	88	-23	126	127	5
-10464	-3764	11380	-172	197	-211	-16140	-1964	56	-90	7	-167	-2952	-2124	16424	-172	-103	184	-9520	3828	13348	95	-40	-176	-16540	1848	-1024	99	-49	26	-1052	3348	16808	54	77	-73	126	127	5
-10360	-3772	11368	-150	186	-190	-16068	-2048	-80	-76	-38	-127	-2952	-2312	16296	-134	-102	119	-9424	3872	13336	123	-5	-166	-16620	1980	-860	35	-10	47	-1136	3308	16772	6	25	-74	126	127	5
-10424	-3792	11384	-144	191	-173	-16072	-2084	156	30	-40	-110	-2928	-2392	16380	-124	-131	81	-9496	3840	13364	132	-40	-178	-16540	2020	-860	-82	-31	109	-1048	3276	16820	-21	-38	-75	126	127	5
-10448	-3772	11408	-67	123	-190	-16056	-2016	124	42	-27	-84	-2904	-2404	16340	-47	-153	66	-9504	3784	13300	137	-24	-187	-16560	1944	-884	-108	-33	92	-852	3232	16888	-15	-20	-52	126	127	5
-10420	-3784	11436	-57	108	-200	-16060	-1968	4	3	-44	-70	-2836	-2388	16308	31	-131	26	-9456	3764	13340	133	-27	-153	-16600	1812	-960	3	-53	142	-864	3288	16712	-50	-7	-70	126	127	5
-10440	-3756	11348	-68	96	-174	-16136	-1956	64	-27	-41	13	-2864	-2320	16456	115	-114	44	-9448	3828	13368	171	-35	-158	-16596	1868	-1004	172	-74	164	-864	3316	16840	-70	-26	-64	126	127	5
-10444	-3724	11452	-109	115	-156	-16104	-1888	-28	-74	-9	8	-2960	-2208	16404	112	-158	94	-9492	3944	13348	200	-43	-167	-16596	1920	-976	225	-17	127	-948	3236	16732	-13	-3	-110	126	127	5
-10412	-3796	11444	-81	115	-191	-16100	-1868	72	-96	-55	22	-2856	-2120	16380	133	-133	101	-9508	3832	13328	154	13	-152	-16548	2016	-908	188	-47	204	-940	3244	16748	58	2	-71	125	126	5
-10408	-3764	11544	-124	105	-172	-16176	-1876	20	-57	-67	-2	-2892	-2184	16288	113	-71	96	-9464	3844	13320	145	-6	-134	-16508	2052	-908	95	6	174	-912	3356	16704	166	-7	-17	126	127	5
-10492	-3772	11444	-106	103	-170	-16092	-1840	8	23	-84	-24	-2892	-2092	16464	99	-61	183	-9472	3788	13308	154	13	-144	-16488	2068	-940	30	-60	161	-892	3348	16756	145	-44	20	126	126	5
-10452	-3808	11476	-72	156	-202	-16112	-1840	60	71	-43	-35	-2848	-2060	16316	122	-56	134	-9520	3772	13268	167	-7	-152	-16616	2036	-952	-27	-39	178	-932	3288	16668	143	-65	45	126	126	5
-10396	-3772	11440	-89	145	-181	-16068	-1828	112	102	-42	-33	-2820	-1988	16476	139	-28	176	-9424	3900	13248	144	-29	-179	-16604	1884	-996	0	-44	149	-892	3252	16928	235	-23	46	126	126	5
-10436	-3784	11476	-81	129	-184	-16124	-1840	112	66	-57	-31	-3052	-2076	16424	64	-47	188	-9476	3912	13304	140	15	-171	-16552	1980	-1028	132	-11	172	-776	3288	16832	279	-39	4	126	126	5
-10452	-3716	11436	-86	123	-202	-16092	-1852	96	-2	0	-8	-3004	-2128	16416	56	-39	223	-9488	3812	13384	126	11	-167	-16576	1980	-892	246	-32	147	-764	3408	16744	292	-5	28	126	126	5
-10468	-3812	11340	-64	147	-188	-16076	-1976	84	-20	-55	-27	-2852	-2172	16388	62	-51	169	-9412	3848	13256	159	-45	-148	-16504	2016	-932	207	-77	118	-780	3500	16696	216	-48	19	126	126	5
-10380	-3788	11408	-64	109	-169	-16052	-1936	36	-23	-46	-63	-2932	-2196	16348	42	-93	157	-9400	3856	13424	144	30	-119	-16500	2092	-952	137	-17	107	-816	3496	16780	55	-61	11	127	126	5
-10428	-3760	11360	-37	119	-193	-16084	-1844	96	15	-54	-35	-2928	-2172	16472	134	-199	175	-9452	3888	13260	144	-63	-169	-16572	2080	-880	21	-3	101	-800	3348	16852	-67	-55	-13	126	126	5
-10412	-3740	11496	-37	116	-197	-16100	-1832	48	-31	-19	-24	-2992	-2096	16468	171	-216	178	-9484	3812	13316	143	-47	-152	-16584	2076	-888	23	4	113	-804	3308	16860	-13	12	1	126	126	5
-10416	-3764	11448	-58	132	-173	-16100	-1924	-52	-64	3	6	-2788	-2060	16404	115	-155	124	-9468	3900	13184	130	-31	-179	-16524	2056	-1036	32	9	93	-800	3324	16672	46	18	-62	126	126	5
-10444	-3776	11508	-88	125	-140	-16044	-1884	16	-33	-11	-6	-2784	-2060	16396	39	-145	67	-9436	3816	13232	164	-3	-185	-16540	2048	-1024	72	-17	110	-816	3312	16772	132	24	-32	126	126	5
-10432	-3720	11300	-92	105	-163	-16136	-1816	92	15	-12	-14	-2792	-2028	16272	6	-93	79	-9500	3828	13292	117	6	-181	-16596	2000	-1076	58	4	69	-768	3392	16768	189	88	-2	126	126	5
-10372	-3756	11392	-95	120	-162	-16104	-1752	64	57	12	-23	-2868	-2064	16392	-44	-91	41	-9508	3864	13272	120	-30	-203	-16568	1984	-1028	105	-25	79	-840	3356	16792	265	80	42	126	126	5
-10440	-3756	11412	-91	88	-186	-16084	-1764	48	-30	2	-12	-2928	-1996	16380	-4	-94	99	-9556	3816	13292	107	-30	-194	-16588	2028	-1012	99	-56	46	-940	3232	16768	278	60	81	126	126	5
-10420	-3668	11376	-79	109	-200	-16088	-1792	56	-66	-62	-67	-2908	-1948	16484	13	-85	101	-9528	3832	13284	132	-30	-174	-16548	2024	-876	113	-64	100	-952	3284	16908	271	53	117	126	126	5
-10468	-3784	11420	-113	147	-191	-16088	-1816	68	-64	-34	-109	-2964	-1896	16416	-30	-74	182	-9504	3864	13324	132	-55	-199	-16620	1972	-988	103	-33	75	-944	3276	16768	281	-2	139	126	127	5
-10420	-3784	11516	-116	141	-207	-16128	-1824	36	-33	-29	-109	-3044	-1928	16344	-98	-95	161	-9460	3804	13160	114	-37	-162	-16552	1896	-880	126	-33	115	-976	3260	16808	191	-24	144	126	127	5
-10364	-3764	11448	-128	145	-180	-16140	-1872	112	14	-34	-147	-2976	-2124	16364	-121	-107	181	-9468	3864	13336	137	-12	-175	-16568	1932	-840	120	-54	118	-924	3308	16792	161	-9	91	126	127	5
-10416	-3756	11408	-144	147	-221	-16092	-1960	76	29	-6	-129	-2896	-2184	16388	-119	-105	162	-9468	3848	13312	139	3	-170	-16596	1976	-884	87	-1	157	-928	3304	16752	144	2	57	126	127	5
-10452	-3756	11472	-143	168	-210	-16064	-1932	64	63	-54	-130	-2980	-2272	16388	-48	-125	158	-9544	3828	13256	138	23	-163	-16528	2000	-1016	23	-36	126	-856	3320	16776	156	-25	-12	126	127	5
-10416	-3796	11424	-72	151	-191	-16064	-2000	148	13	-41	-83	-2992	-2368	16280	21	-123	195	-9488	3856	13396	182	-48	-140	-16568	1996	-892	27	-25	163	-840	3316	16844	148	-4	-55	126	127	5
-10524	-3756	11452	-113	136	-199	-16116	-1988	88	11	-26	-66	-2888	-2344	16436	102	-146	188	-9488	3860	13232	122	-48	-127	-16548	2064	-988	29	-57	141	-844	3432	16884	117	17	-42	126	127	5
-10460	-3728	11392	-106	109	-180	-16112	-2020	8	20	-46	-31	-2896	-2292	16356	122	-176	166	-9444	3816	13260	150	-23	-166	-16564	2048	-940	48	4	99	-868	3356	16744	74	18	-87	126	127	5
-10428	-3744	11424	-71	101	-147	-16120	-1912	36	-53	-58	-10	-2928	-2272	16428	145	-128	147	-9492	3860	13280	111	9	-170	-16536	2028	-1016	67	-40	98	-820	3440	16664	56	19	-45	126	127	5
-10372	-3764	11348	-61	126	-196	-16120	-1924	-20	-76	-49	38	-2900	-2244	16364	201	-110	182	-9520	3880	13420	108	-5	-186	-16560	2036	-1044	81	-46	98	-876	3312	16828	50	48	-6	126	126	5
-10428	-3688	11380	-75	117	-170	-16080	-1976	52	-69	-37	27	-2832	-2072	16316	128	-86	126	-9504	3852	13360	120	-31	-179	-16564	2064	-1052	72	-38	93	-872	3208	16828	169	82	66	126	126	5
-10472	-3712	11348	-83	82	-169	-16036	-1884	-72	17	-39	23	-2852	-2020	16416	90	-92	25	-9428	3768	13208	91	-18	-184	-16632	1976	-968	117	-25	79	-892	3148	16772	302	96	82	126	126	5
-10404	-3740	11488	-76	100	-187	-16068	-1796	-20	43	-32	7	-3048	-1932	16420	25	-90	48	-9464	3836	13332	119	-42	-210	-16576	1880	-716	193	-49	100	-936	3176	16872	361	68	75	126	126	5
-10500	-3732	11344	-50	98	-153	-16124	-1708	40	-15	-55	-15	-2996	-1888	16424	37	-139	96	-9484	3840	13360	161	-25	-174	-16592	1960	-856	145	-5	109	-936	3176	16856	410	28	67	126	126	5
-10424	-3756	11504	-48	136	-185	-16148	-1724	-16	-52	-38	-86	-2976	-1952	16392	-18	-141	102	-9468	3836	13312	150	-15	-160	-16588	1964	-912	115	-16	102	-872	3224	16808	476	78	98	126	126	5
-10436	-3704	11412	-134	155	-199	-16188	-1740	16	-71	-72	-97	-2932	-1992	16392	-93	-153	128	-9468	3864	13256	160	-48	-179	-16616	1984	-896	55	-7	161	-888	3292	16840	436	47	104	126	126	5
-10444	-3732	11440	-145	123	-235	-16116	-1880	132	-48	-85	-118	-2936	-2008	16456	-56	-133	136	-9508	3852	13320	122	1	-189	-16548	1892	-1044	42	-11	176	-844	3376	16876	491	60	109	125	127	5
-10492	-3692	11352	-150	170	-219	-16140	-1832	108	52	-27	-135	-2980	-2084	16376	-8	-148	139	-9516	3840	13232	144	14	-181	-16544	1952	-904	77	-72	189	-748	3328	16712	524	90	131	125	127	5
-10476	-3672	11416	-121	144	-207	-16096	-1836	-4	33	-54	-152	-2928	-2176	16384	49	-190	226	-9476	3868	13264	187	-32	-168	-16564	2008	-980	99	-70	218	-848	3448	16936	566	91	124	125	127	5
-10432	-3740	11336	-99	106	-246	-16088	-1848	76	15	-66	-140	-3004	-2240	16400	194	-256	310	-9480	3872	13308	155	-40	-151	-16540	2048	-1072	119	-60	141	-968	3588	16752	517	90	125	126	127	5
-10416	-3748	11400	-94	137	-184	-16128	-1936	-40	22	-85	-121	-3028	-2332	16484	322	-327	436	-9432	3860	13292	127	-30	-148	-16584	2164	-920	44	-2	124	-948	3584	16740	412	21	126	126	127	5
-10416	-3804	11480	-87	136	-198	-16096	-1988	-64	-83	-78	-92	-2868	-2288	16380	394	-264	422	-9448	3920	13216	121	-54	-172	-16592	2108	-956	39	-72	45	-988	3560	16668	348	-11	124	127	127	5
-10416	-3808	11516	-94	108	-204	-16136	-2028	172	-16	-50	-66	-2648	-2288	16396	392	-223	354	-9452	3904	13408	117	-65	-165	-16556	2048	-968	22	-75	61	-896	3516	16720	297	-7	121	127	128	5
-10452	-3816	11408	-62	145	-185	-16088	-2088	136	37	-78	-34	-2684	-2296	16360	354	-174	253	-9476	3888	13304	128	-44	-191	-16572	1964	-972	126	-99	83	-796	3388	16704	248	39	128	127	128	5
-10400	-3768	11444	-66	73	-151	-16108	-2036	140	148	-53	22	-2756	-2124	16496	286	-99	158	-9432	3888	13340	117	-20	-196	-16588	1892	-852	176	-73	57	-844	3300	16804	195	2	101	128	127	5
-10420	-3732	11388	-65	70	-168	-16152	-1896	224	34	-46	22	-2636	-1940	16536	132	-34	76	-9508	3872	13428	134	-26	-191	-16560	1880	-888	182	-56	100	-808	3208	16844	174	-73	104	128	127	5
-10424	-3784	11428	-55	130	-158	-16148	-1816	72	-55	-37	44	-2688	-1856	16552	-70	-1	-51	-9456	3812	13240	132	-34	-184	-16496	1836	-840	160	-15	136	-844	3248	16848	-131	-69	7	128	127	5
-10488	-3724	11460	-50	107	-200	-16044	-1880	132	-121	1	58	-2916	-1912	16480	-199	-70	-14	-9472	3876	13328	142	-50	-186	-16692	1752	-812	168	7	225	-748	3160	17004	-204	-98	-155	127	127	5
-10412	-3792	11524	-70	153	-180	-16116	-2000	104	-45	32	55	-2776	-2068	16448	-278	13	-70	-9492	3808	13260	183	-22	-162	-16652	1736	-840	184	19	256	-580	3136	16760	-189	-8	-249	127	127	5
-10420	-3792	11444	-67	145	-167	-16124	-1904	40	87	26	62	-2844	-2088	16468	-258	0	-118	-9524	3800	13364	202	-5	-143	-16608	1928	-932	163	31	213	-788	3204	16940	-60	5	-335	126	127	5
-10496	-3732	11412	-85	119	-175	-16112	-1880	-28	25	-13	45	-3072	-2292	16444	-183	29	14	-9496	3836	13328	166	21	-131	-16584	2120	-860	30	33	261	-1044	3344	16764	57	11	-373	126	127	5
-10444	-3736	11384	-93	76	-181	-16100	-1884	24	7	-44	79	-3160	-2212	16388	30	-53	132	-9524	3868	13312	217	35	-143	-16508	2204	-956	-118	70	272	-1000	3396	16744	220	15	-267	126	126	5
-10448	-3764	11348	-51	106	-184	-16080	-1996	-116	67	-5	64	-2992	-2244	16384	126	-53	156	-9552	3828	13308	155	-3	-147	-16540	2168	-1084	-116	26	239	-984	3496	16696	418	-6	-174	126	126	5
-10484	-3788	11424	-20	126	-177	-16056	-1924	-28	125	-70	55	-2852	-2212	16284	185	-11	53	-9476	3904	13352	169	-47	-169	-16556	2156	-1044	-57	10	212	-948	3620	16784	459	5	-22	126	126	5
-10380	-3724	11420	-57	59	-170	-16080	-1824	20	151	-51	56	-3016	-2036	16452	224	-75	9	-9476	3888	13284	140	-30	-157	-16532	2148	-1040	68	-63	125	-972	3612	16820	439	4	170	126	126	5
-10388	-3752	11424	-18	52	-150	-16100	-1644	-16	22	-71	49	-2976	-2012	16416	216	-43	16	-9472	3848	13192	115	-58	-170	-16572	2128	-1004	167	-80	109	-924	3592	16836	412	6	307	125	127	5
-10448	-3700	11428	-48	94	-184	-16152	-1552	52	-105	-81	17	-3060	-1712	16364	201	-108	-11	-9528	3904	13360	102	-38	-177	-16524	2036	-1088	292	-111	105	-836	3456	16676	413	48	360	125	126	5
-10416	-3704	11428	-90	121	-146	-16160	-1564	92	-276	-62	-49	-2856	-1676	16476	-21	-157	85	-9440	3868	13228	68	-51	-178	-16592	1976	-872	375	-111	80	-884	3484	16896	362	-33	353	125	127	5
-10456	-3712	11456	-111	135	-214	-16124	-1568	148	-180	-48	-73	-2876	-1720	16516	-73	-124	111	-9480	3932	13364	122	-12	-198	-16564	2064	-824	293	-110	50	-824	3504	16764	312	0	235	125	127	5
-10364	-3696	11400	-124	164	-199	-16140	-1708	88	-52	-42	-176	-2904	-1848	16476	-170	-158	166	-9468	3828	13352	132	-15	-169	-16568	2096	-884	86	-45	68	-728	3408	16812	247	-51	182	125	127	5
-10432	-3700	11392	-154	199	-212	-16092	-1732	204	73	-14	-209	-2900	-1888	16452	-163	-128	209	-9452	3872	13264	119	-19	-178	-16624	2076	-848	-80	1	100	-672	3400	16856	191	-14	44	125	127	5
-10412	-3796	11536	-114	162	-215	-16116	-1836	-20	205	-2	-220	-2892	-1972	16336	-199	-117	221	-9500	3836	13284	116	-6	-177	-16572	1984	-976	-161	-47	55	-736	3372	16800	234	22	11	125	127	5
-10464	-3804	11440	-129	174	-211	-16084	-1844	20	186	-42	-259	-2896	-2084	16480	-222	-104	203	-9500	3860	13280	131	-18	-217	-16568	1984	-996	-131	-3	65	-812	3404	16804	185	71	-13	125	127	5
-10392	-3736	11408	-185	174	-243	-16084	-1816	-52	18	-65	-261	-2964	-2224	16392	-200	-61	213	-9408	3852	13172	130	-76	-176	-16596	2036	-1036	13	-51	31	-840	3508	16712	238	92	7	125	127	5
-10380	-3772	11396	-172	172	-233	-16064	-1932	8	-109	-91	-181	-2964	-2316	16192	-207	-110	203	-9516	3844	13356	112	-19	-178	-16592	2036	-1140	123	-44	70	-924	3424	16704	238	75	65	125	127	5
-10492	-3800	11352	-130	164	-202	-16052	-2024	8	-180	-60	-146	-2932	-2420	16224	-165	-106	144	-9460	3876	13284	105	-45	-192	-16560	1944	-976	158	-37	22	-860	3452	16684	238	130	120	125	127	5
-10432	-3760	11376	-113	115	-234	-16056	-2080	68	-136	-71	-133	-2992	-2444	16444	-60	-144	117	-9492	3824	13328	106	-42	-199	-16592	2016	-868	223	-79	27	-840	3424	16844	244	140	136	125	127	5
-10464	-3756	11360	-99	106	-215	-16040	-1992	164	-79	-66	-57	-2852	-2392	16420	59	-148	91	-9480	3852	13200	116	-24	-161	-16580	2028	-916	185	-119	45	-836	3372	16816	244	155	147	125	127	5
-10428	-3804	11396	-94	137	-204	-16132	-2020	84	-1	-59	-33	-2844	-2264	16484	114	-163	104	-9476	3876	13344	117	-46	-156	-16604	1956	-992	59	-42	54	-924	3400	16804	255	120	99	125	127	5
-10396	-3744	11460	-92	121	-187	-16208	-1916	140	50	-36	-43	-2820	-2144	16440	142	-154	137	-9528	3876	13276	126	-36	-174	-16584	1920	-900	15	-50	64	-1068	3368	16824	103	32	38	125	127	5
-10492	-3728	11516	-98	126	-171	-16112	-1908	0	37	-57	-27	-2812	-2116	16432	144	-172	186	-9488	3832	13260	144	10	-180	-16556	1960	-812	16	-42	108	-1016	3344	16860	46	-49	-35	125	127	5
-10384	-3776	11552	-98	168	-172	-16032	-1864	64	50	19	-24	-2808	-2140	16404	154	-180	194	-9524	3808	13260	131	-49	-163	-16616	1956	-872	46	-12	125	-944	3380	16776	-15	-48	-64	126	126	5
-10432	-3708	11420	-110	157	-198	-16128	-1828	60	-25	-1	21	-2856	-2056	16428	142	-154	200	-9464	3840	13324	124	-25	-167	-16576	1916	-800	46	16	124	-876	3324	16796	-5	-79	-55	126	126	5
-10476	-3808	11408	-93	139	-177	-16148	-1904	44	-44	9	-35	-2896	-2072	16468	78	-76	164	-9468	3884	13256	148	14	-161	-16524	1908	-1032	53	-29	147	-848	3284	16784	-24	-65	-45	126	126	5
-10468	-3740	11628	-72	106	-201	-16164	-1904	20	0	-21	-42	-2956	-2188	16352	75	-65	149	-9520	3872	13220	141	-40	-179	-16680	1944	-1056	92	0	152	-868	3316	16892	40	-34	-17	126	126	5
-10376	-3800	11380	-93	127	-190	-16108	-1956	-4	-39	-33	-20	-2988	-2096	16428	85	-66	149	-9472	3840	13340	139	29	-180	-16632	1964	-948	111	-61	124	-888	3352	16852	160	-28	-13	126	126	5
-10460	-3756	11432	-67	110	-160	-16156	-1884	96	3	-45	-50	-2984	-2200	16316	97	-65	173	-9504	3876	13380	165	-38	-169	-16560	2076	-1060	105	-22	182	-928	3364	16808	287	30	33	126	126	5
-10412	-3748	11432	-92	134	-169	-16084	-1944	144	27	-75	5	-2916	-2176	16352	128	-94	168	-9416	3844	13336	147	-12	-171	-16512	2048	-876	84	-22	170	-804	3388	16756	277	-6	26	126	126	5
-10448	-3776	11476	-78	84	-229	-16088	-1896	112	69	-43	-22	-2904	-2168	16372	183	-90	205	-9484	3812	13284	157	-61	-180	-16576	2008	-932	35	-40	148	-860	3368	16676	321	48	94	126	126	5
-10408	-3716	11452	-76	118	-139	-16116	-1892	116	63	-70	15	-2940	-2108	16380	164	-115	167	-9440	3860	13356	107	-50	-158	-16564	2028	-868	31	-28	125	-828	3460	16768	328	9	96	127	127	5
-10464	-3704	11488	-82	128	-171	-16176	-1820	104	23	-57	-9	-2844	-2048	16416	160	-131	133	-9468	3876	13368	164	-34	-153	-16544	1996	-864	99	-27	156	-820	3324	16820	347	34	128	127	126	5
-10468	-3784	11452	-74	103	-182	-16148	-1920	88	8	-37	-3	-2840	-2036	16444	109	-95	94	-9500	3796	13296	170	-92	-152	-16592	1964	-828	106	-38	122	-872	3332	16820	302	6	169	127	127	5
-10420	-3852	11360	-44	158	-159	-16084	-1828	124	-46	-42	40	-2860	-2036	16488	23	-104	108	-9492	3868	13288	152	-50	-159	-16548	1884	-948	155	-5	177	-920	3396	16760	286	-30	114	127	127	5
-10420	-3724	11448	-76	76	-174	-16096	-1824	96	-39	-40	3	-2884	-1960	16356	13	-98	81	-9512	3908	13332	151	-42	-141	-16564	1948	-940	169	-39	143	-840	3388	16764	290	-26	38	127	127	5
-10436	-3732	11428	-79	139	-177	-16080	-1844	20	-60	6	5	-2896	-2044	16380	15	-135	119	-9476	3804	13300	129	15	-192	-16628	2004	-916	162	1	160	-852	3444	16796	240	-58	-1	126	126	5
-10444	-3680	11420	-57	105	-184	-16120	-1940	-16	-21	-56	-9	-2912	-2124	16464	33	-96	127	-9504	3904	13216	150	21	-148	-16528	2060	-960	67	25	153	-928	3572	16700	275	-33	-16	126	127	5
-10456	-3768	11408	-87	113	-162	-16032	-1844	-32	52	14	-31	-2944	-2120	16324	-4	-86	130	-9556	3816	13240	152	-40	-159	-16560	2140	-988	-39	36	141	-944	3556	16640	275	-13	-25	126	126	5
-10404	-3808	11532	-103	114	-175	-16188	-1788	-36	66	-17	-55	-2976	-2088	16480	16	-94	111	-9496	3864	13264	145	-22	-197	-16544	2060	-948	-57	-12	112	-776	3564	16692	216	-9	51	126	126	5
-10520	-3740	11332	-70	105	-161	-16128	-1812	-24	15	-58	-17	-2956	-2148	16480	21	-42	99	-9520	3908	13228	142	-53	-187	-16572	2004	-996	8	-25	75	-836	3480	16824	199	28	95	126	126	5
-10420	-3780	11380	-42	124	-169	-16032	-1900	164	-31	-14	-36	-2880	-2128	16332	18	-26	68	-9504	3856	13308	137	-22	-178	-16596	2000	-1008	103	-57	81	-824	3508	16712	281	51	115	126	126	5
-10420	-3752	11340	-95	127	-174	-16128	-1852	28	3	-58	-17	-2848	-2048	16464	6	-19	42	-9496	3848	13272	100	-22	-197	-16564	2032	-984	183	-68	85	-844	3468	16712	319	78	86	126	126	5
-10412	-3720	11376	-55	96	-193	-16092	-1808	164	49	-20	-20	-2948	-2084	16444	36	-89	75	-9516	3932	13212	121	-72	-193	-16520	2092	-884	191	-72	86	-916	3512	16804	306	17	111	126	127	5
-10460	-3740	11440	-64	107	-181	-16140	-1752	176	-8	5	-60	-3012	-1932	16452	39	-134	138	-9452	3844	13360	125	-75	-181	-16620	2028	-820	188	-65	56	-784	3504	16880	247	35	66	126	127	5
-10432	-3728	11404	-114	113	-161	-16156	-1844	80	-88	-30	-72	-2872	-2032	16436	64	-133	153	-9420	3800	13316	117	-44	-179	-16564	1936	-868	88	-31	56	-752	3476	16724	222	22	90	126	126	5
-10416	-3768	11484	-114	135	-201	-16128	-1800	40	-51	-18	-71	-2900	-2064	16408	64	-140	156	-9508	3868	13304	106	-18	-172	-16540	2068	-1004	40	-39	72	-888	3436	16712	251	37	40	126	126	5
-10440	-3736	11376	-94	141	-164	-16084	-1836	0	14	-34	-72	-2872	-2016	16424	58	-136	206	-9492	3860	13352	106	-21	-203	-16520	2064	-1020	-26	-4	27	-920	3464	16900	245	37	35	126	126	5
-10520	-3672	11408	-130	160	-160	-16076	-1792	96	46	13	-119	-2976	-2112	16456	71	-170	231	-9528	3828	13388	134	-29	-191	-16520	2020	-952	-61	9	71	-976	3332	16668	240	22	51	126	126	5
-10448	-3700	11428	-150	128	-195	-16056	-1928	0	62	-4	-106	-2828	-2120	16380	43	-130	195	-9572	3864	13312	131	-85	-157	-16588	1944	-904	-5	-11	98	-800	3356	16804	212	68	74	126	127	5
-10464	-3732	11464	-122	144	-183	-16096	-1856	144	35	-23	-97	-2768	-2156	16448	31	-84	203	-9480	3844	13316	95	-17	-176	-16564	1964	-948	107	-2	83	-828	3388	16892	274	64	85	126	126	5
-10404	-3872	11336	-114	161	-222	-16040	-1884	72	12	0	-79	-2852	-2088	16380	4	-81	182	-9452	3872	13212	148	-30	-182	-16600	2008	-992	223	15	89	-828	3480	16760	375	83	55	126	126	5
-10404	-3772	11404	-81	137	-156	-16084	-1960	88	38	-9	-82	-2968	-2192	16292	-30	-110	163	-9516	3844	13340	128	-39	-195	-16564	2016	-868	208	20	69	-944	3476	16692	385	54	50	126	126	5
-10372	-3800	11300	-68	119	-190	-16120	-1844	-8	9	-30	17	-2868	-2164	16344	-25	-97	186	-9504	3856	13232	124	-31	-211	-16588	2052	-924	96	-12	57	-1036	3608	16804	257	-30	63	127	126	5
-10428	-3748	11436	-80	105	-127	-16108	-1960	180	-89	-13	-58	-2876	-2252	16360	4	-102	115	-9504	3900	13328	140	-34	-196	-16576	1968	-1112	62	-23	107	-1064	3552	16692	56	9	66	126	126	5
-10388	-3860	11360	-67	92	-174	-16092	-2008	20	-55	-22	-9	-2800	-2220	16348	45	-61	77	-9468	3864	13256	148	-29	-197	-16532	2012	-960	55	11	128	-872	3404	16820	49	-30	24	126	126	5
-10432	-3768	11316	-63	120	-170	-16112	-1944	76	13	-21	10	-2888	-2080	16436	-38	-67	40	-9492	3872	13212	118	-23	-171	-16616	2008	-1004	35	-8	110	-824	3400	16844	-1	-28	-31	126	126	5
-10416	-3804	11404	-61	121	-170	-16092	-1796	24	-33	-30	-6	-2888	-2124	16416	32	-87	81	-9420	3936	13184	132	-21	-195	-16500	1996	-976	66	42	107	-804	3328	16852	59	-32	-41	126	126	5
-10416	-3700	11420	-61	86	-169	-16124	-1788	-36	-36	-18	13	-2964	-2048	16384	38	-111	149	-9468	3836	13384	139	13	-188	-16556	1952	-992	60	-2	135	-844	3376	16740	145	35	-84	126	126	5
-10412	-3740	11508	-62	90	-168	-16112	-1856	72	-54	-25	29	-2992	-2080	16392	42	-71	140	-9440	3856	13320	144	46	-158	-16540	1952	-1056	102	16	125	-828	3544	16828	108	78	-53	126	126	5
-10416	-3740	11416	-84	119	-147	-16104	-1824	-24	-5	-64	-1	-3012	-2072	16348	96	-60	122	-9496	3936	13312	146	-14	-180	-16512	2080	-936	115	12	115	-896	3536	16700	135	45	-55	126	126	5
-10392	-3788	11420	-21	123	-178	-16128	-1816	-36	59	-11	-26	-2996	-2080	16444	54	-98	116	-9452	3900	13304	166	2	-158	-16600	2252	-1024	22	-9	98	-964	3672	16632	110	52	-15	126	126	5
-10372	-3776	11444	-97	116	-177	-16040	-1780	4	102	-37	-70	-2940	-2024	16396	47	-143	151	-9504	3888	13208	137	24	-190	-16568	2096	-1100	-79	22	113	-968	3596	16820	92	55	-3	126	127	5
-10380	-3728	11424	-102	123	-195	-16132	-1816	-60	-16	-59	-6	-3000	-2052	16396	103	-107	171	-9488	3860	13280	132	-19	-170	-16576	1972	-1088	-8	-47	4	-900	3564	16864	119	34	97	126	127	5
-10464	-3776	11428	-85	123	-181	-16104	-1848	40	-22	-97	-53	-2968	-2020	16424	99	-138	189	-9532	3840	13268	100	-69	-188	-16560	1920	-1004	71	-63	30	-892	3472	16676	83	14	86	126	127	5
-10436	-3724	11340	-59	97	-240	-16116	-1748	100	-58	-58	-46	-2972	-1996	16488	68	-111	175	-9472	3864	13152	135	-53	-156	-16596	1952	-908	145	-82	55	-896	3408	16856	32	37	66	126	127	5
-10468	-3740	11384	-104	130	-226	-16132	-1764	0	-88	-68	-86	-2892	-1964	16384	43	-136	141	-9488	3900	13220	122	-24	-181	-16548	1920	-928	180	-94	33	-996	3424	16840	-58	12	50	126	127	5
-10436	-3696	11448	-135	131	-179	-16108	-1824	60	-48	-64	-42	-2932	-1956	16432	-8	-100	132	-9496	3844	13320	124	-23	-161	-16636	1956	-960	146	-70	93	-936	3416	16760	-60	15	-22	126	127	5
-10404	-3764	11464	-115	168	-231	-16160	-1840	-4	16	-38	-116	-2916	-1948	16412	-40	-143	135	-9508	3828	13380	137	-56	-162	-16588	1988	-880	114	-64	93	-832	3400	16748	66	37	-125	126	127	5
-10396	-3724	11400	-132	136	-217	-16144	-1904	32	40	-51	-121	-2920	-2048	16392	-59	-157	141	-9504	3860	13292	133	1	-187	-16612	2084	-900	27	-68	74	-744	3416	16672	213	73	-157	126	127	5
-10472	-3728	11404	-108	153	-222	-16096	-1888	20	46	-37	-157	-2944	-2116	16508	-61	-167	150	-9508	3868	13320	121	-4	-193	-16556	2164	-872	-147	-40	42	-768	3440	16656	242	101	-57	126	127	5
-10428	-3752	11432	-131	168	-191	-16092	-1868	-28	54	-48	-132	-2892	-2052	16392	-39	-155	172	-9468	3856	13268	110	-42	-204	-16572	1980	-916	-191	-51	41	-888	3492	16724	273	95	58	126	127	5
-10424	-3800	11372	-138	151	-206	-16180	-1876	-24	-40	-47	-133	-2916	-2132	16420	-23	-101	150	-9444	3904	13244	138	-46	-132	-16540	1836	-980	-10	-70	57	-976	3380	16728	267	73	68	126	127	5
-10464	-3788	11440	-121	141	-233	-16084	-1920	28	-68	-63	-56	-2848	-2176	16308	-29	-142	207	-9516	3812	13212	115	-44	-176	-16564	1872	-964	222	-110	21	-1016	3448	16808	229	60	71	126	127	5
-10440	-3800	11328	-134	183	-187	-16148	-1948	-36	-98	-67	-107	-2956	-2220	16292	4	-135	183	-9472	3792	13316	126	-23	-185	-16608	2024	-1020	286	-72	57	-964	3488	16740	196	-1	90	126	127	5
-10476	-3780	11404	-99	151	-222	-16064	-2024	-68	-13	-40	-81	-3020	-2312	16476	100	-147	152	-9508	3832	13320	117	-78	-202	-16636	2020	-912	217	-118	78	-1004	3416	16768	123	-9	120	126	127	5
-10436	-3732	11416	-89	109	-173	-16000	-2052	76	51	-88	-33	-3028	-2280	16352	179	-209	180	-9468	3808	13332	100	-17	-163	-16544	1964	-864	127	-104	70	-972	3352	16820	62	-56	130	127	126	5
-10456	-3764	11360	-70	118	-168	-16156	-1932	-28	97	-68	-44	-3044	-2220	16424	239	-169	171	-9496	3856	13348	118	-70	-199	-16596	1808	-832	33	-97	108	-940	3256	16884	22	-57	113	127	127	5
-10448	-3772	11396	-70	100	-193	-16132	-1888	-24	58	-72	-26	-2940	-2156	16448	227	-160	168	-9464	3796	13268	126	-16	-170	-16560	1856	-892	-7	-71	109	-888	3196	16732	52	-71	68	127	126	5
-10468	-3796	11412	-86	112	-185	-16116	-1880	32	-28	-101	-16	-2800	-2116	16444	204	-120	196	-9484	3788	13348	146	-21	-175	-16544	1692	-912	-30	-32	194	-772	2984	16732	167	-95	39	127	126	5
-10356	-3776	11340	-101	110	-195	-16108	-1908	192	-80	-92	54	-2660	-2084	16464	79	-67	101	-9532	3804	13244	171	-13	-148	-16568	1772	-764	64	-56	209	-832	3020	16860	320	-16	28	127	126	5
-10448	-3724	11336	-60	91	-133	-16116	-1968	32	14	-59	39	-2692	-2096	16396	-51	34	41	-9476	3900	13336	186	-27	-150	-16572	1804	-968	144	21	296	-808	3180	16824	442	-40	-30	127	126	5
-10448	-3724	11400	-46	94	-176	-16084	-1964	116	80	-39	44	-2776	-2056	16480	-44	22	-65	-9444	3788	13276	188	-15	-105	-16604	1880	-980	213	-26	293	-844	3236	16868	526	-18	-17	127	126	5
-10388	-3800	11416	-42	137	-177	-16136	-1764	-8	70	-21	34	-2776	-2012	16532	-128	-1	-115	-9524	3856	13284	241	28	-162	-16552	1972	-860	188	-18	323	-816	3336	16820	512	-17	0	126	126	5
-10404	-3696	11376	-59	93	-169	-16096	-1760	52	-69	-52	15	-2992	-2068	16432	-94	-11	-51	-9476	3872	13380	194	-8	-171	-16556	2060	-920	154	22	318	-832	3456	16744	550	-24	16	126	126	5
-10364	-3716	11332	-34	79	-179	-16120	-1904	4	-90	-58	31	-3080	-2080	16432	-19	-1	-4	-9508	3888	13252	208	-11	-140	-16572	2028	-1052	115	3	343	-852	3648	16796	585	-35	9	126	126	5
-10476	-3772	11408	-62	76	-158	-16156	-1928	-40	-13	-33	36	-3008	-2132	16460	-11	-36	-10	-9516	3896	13304	219	10	-130	-16516	2128	-904	66	15	294	-892	3684	16836	519	-9	25	125	126	5
-10424	-3728	11500	-55	92	-161	-16132	-1796	100	-2	-42	39	-2968	-2104	16428	-11	-51	22	-9540	3928	13380	175	6	-146	-16616	2200	-940	47	-10	273	-892	3788	16732	490	-25	50	125	127	5
-10428	-3780	11300	-49	101	-185	-16152	-1788	160	50	-56	-24	-2904	-2024	16420	-4	-72	28	-9504	3896	13244	181	-30	-152	-16608	2240	-976	58	-1	214	-836	3852	16692	355	-9	114	125	127	5
-10404	-3716	11408	-96	132	-159	-16124	-1756	56	31	-76	1	-2952	-2060	16476	69	-108	153	-9468	3928	13316	165	-7	-175	-16568	2132	-980	64	28	191	-808	3808	16764	276	-21	115	125	127	5
-10396	-3768	11364	-83	142	-191	-16124	-1804	40	-29	-27	-47	-2936	-2056	16412	131	-110	211	-9456	3812	13336	175	-15	-176	-16576	2204	-948	95	-12	133	-832	3768	16728	250	12	88	125	127	5
-10464	-3804	11416	-119	137	-184	-16132	-1932	72	33	-45	-62	-2920	-2128	16324	180	-134	273	-9488	3856	13352	157	-46	-170	-16596	2120	-896	165	-38	100	-792	3752	16688	270	44	11	125	127	5
-10392	-3736	11412	-80	112	-194	-16092	-1916	24	1	-1	7	-2848	-2152	16436	181	-130	241	-9496	3852	13292	117	-16	-177	-16624	2172	-1036	136	-50	40	-752	3692	16664	305	74	58	125	127	5
-10408	-3680	11376	-88	112	-177	-16144	-1904	64	63	-33	-41	-2888	-2108	16360	177	-103	176	-9464	3792	13336	143	-32	-186	-16536	2132	-1060	79	-36	2	-868	3784	16684	121	63	32	126	127	5
-10460	-3800	11404	-78	109	-181	-16100	-1832	144	42	-15	14	-2908	-1960	16420	137	-105	105	-9496	3860	13208	77	-86	-195	-16548	2056	-948	25	-47	27	-1012	3688	16692	-115	27	47	126	127	5
-10448	-3768	11436	-55	129	-159	-16144	-1752	52	13	-13	17	-2952	-1876	16392	59	-65	103	-9544	3844	13312	74	-42	-204	-16576	2000	-996	75	-100	31	-1096	3420	16772	-154	76	-26	126	127	5
-10480	-3700	11512	-93	150	-214	-16088	-1688	44	-25	-27	-26	-2884	-1948	16376	36	-117	86	-9516	3796	13312	108	-33	-174	-16552	1852	-1016	85	-78	72	-1040	3372	16836	-141	26	-89	126	127	5
-10464	-3740	11444	-105	100	-178	-16132	-1752	-44	-80	-30	-22	-3064	-1884	16220	28	-113	100	-9504	3860	13288	140	24	-164	-16516	1988	-908	114	-75	95	-1016	3356	16728	-150	-16	-120	126	127	5
-10512	-3656	11448	-117	159	-195	-16144	-1764	60	-92	-57	-96	-3088	-1896	16472	-50	-142	116	-9504	3880	13264	131	-53	-131	-16564	2004	-876	90	-98	105	-820	3340	16668	-52	-71	-137	126	127	5
-10456	-3712	11404	-117	109	-216	-16144	-1764	-24	-44	-62	-131	-2900	-1836	16528	-91	-135	63	-9452	3896	13216	122	-39	-184	-16564	2048	-844	34	-65	105	-844	3388	16856	-30	-10	-46	126	126	5
-10412	-3744	11392	-132	157	-223	-16140	-1660	44	-5	-97	-133	-2812	-1772	16364	-181	-67	28	-9548	3844	13364	131	-40	-158	-16560	2004	-944	-3	-45	103	-840	3400	16876	-26	-57	-23	126	126	5
-10396	-3720	11400	-123	137	-246	-16152	-1684	-20	12	-86	-201	-3036	-1872	16532	-258	-155	77	-9432	3892	13316	143	34	-187	-16576	2028	-856	29	-59	109	-656	3232	16836	138	3	98	126	126	5
-10424	-3708	11420	-119	144	-210	-16068	-1696	36	-6	-139	-169	-3084	-1972	16440	-272	-186	174	-9480	3820	13304	147	-28	-157	-16600	2068	-888	52	-70	141	-552	3332	16804	378	75	124	125	126	5
-10404	-3836	11436	-163	157	-200	-16032	-1824	68	-147	-109	-257	-2972	-1956	16364	-265	-216	167	-9488	3936	13124	146	-36	-187	-16476	2076	-836	58	-12	94	-668	3352	16648	551	108	227	125	126	5
-10432	-3792	11356	-170	170	-225	-16144	-1900	-40	-82	-101	-196	-2728	-2168	16380	-310	-158	188	-9520	3872	13316	105	-47	-212	-16532	2028	-884	89	21	73	-732	3464	16680	687	144	283	125	126	5
-10412	-3772	11476	-153	181	-213	-16096	-1940	152	-59	-98	-239	-2764	-2204	16400	-297	-138	129	-9516	3872	13308	97	-46	-193	-16544	1944	-968	115	11	53	-992	3664	16760	576	66	294	124	127	5
-10408	-3764	11344	-150	179	-231	-16096	-1968	128	-91	-69	-219	-2840	-2292	16352	-319	-155	143	-9472	3780	13268	112	0	-201	-16556	1984	-1024	135	12	88	-1176	3800	16760	308	18	238	124	127	5
-10380	-3756	11364	-152	171	-201	-16072	-2056	100	-72	-48	-184	-2900	-2460	16416	-227	-159	192	-9552	3880	13236	130	-36	-194	-16668	1996	-924	118	-43	72	-1060	3728	16820	210	7	127	124	127	5
-10436	-3820	11476	-160	186	-233	-16092	-2068	168	-80	-45	-161	-2840	-2468	16376	-120	-185	154	-9508	3892	13240	131	-40	-186	-16572	2000	-996	54	-44	69	-900	3568	16692	171	30	31	124	127	5
-10408	-3744	11316	-116	170	-215	-16112	-2188	124	-3	-4	-130	-2752	-2496	16372	-56	-122	111	-9476	3852	13264	106	-11	-194	-16540	1992	-1108	26	-81	62	-860	3592	16752	253	-11	-53	124	127	5
-10484	-3788	11304	-69	159	-174	-15996	-2200	-16	105	-21	-63	-2824	-2584	16472	45	-107	14	-9468	3860	13264	140	-17	-163	-16536	2032	-876	-17	-75	86	-716	3504	16812	269	47	-64	124	126	5
-10460	-3808	11380	-40	137	-177	-16096	-2028	44	117	-20	11	-3144	-2544	16440	138	-143	37	-9468	3876	13260	133	-77	-185	-16572	1932	-856	20	-70	50	-800	3448	16696	184	51	21	124	126	5
-10420	-3740	11436	-43	120	-193	-16092	-1892	32	19	-26	73	-3152	-2480	16336	268	-141	211	-9480	3872	13344	114	-50	-134	-16568	1944	-880	32	-64	83	-948	3332	16752	89	-37	154	125	126	5
-10480	-3796	11460	-56	112	-154	-16124	-1844	-20	-81	-20	40	-2836	-2436	16280	467	-215	326	-9440	3892	13304	94	-19	-163	-16656	1972	-872	114	-33	79	-932	3428	16916	97	-42	163	125	126	5
-10444	-3844	11372	-43	84	-169	-16108	-1992	76	-121	-9	71	-2736	-2248	16396	578	-187	338	-9532	3848	13232	111	-45	-173	-16568	1976	-768	162	-5	92	-804	3496	16856	-56	-58	101	126	126	5
-10472	-3744	11280	-55	130	-179	-16100	-1908	108	-54	-45	75	-2860	-2180	16456	493	-144	398	-9492	3848	13376	100	11	-147	-16640	1956	-792	181	-36	68	-824	3556	16780	-181	-113	56	127	127	5
-10412	-3780	11464	-48	92	-141	-16140	-1988	80	52	-17	80	-2952	-2176	16412	421	-170	378	-9528	3864	13328	106	9	-184	-16544	1968	-884	71	68	46	-784	3508	16748	-314	-101	-28	127	127	5
-10356	-3760	11436	-7	90	-159	-16088	-2060	-8	160	46	124	-2720	-2032	16316	339	-113	293	-9504	3868	13284	144	16	-176	-16564	1996	-920	-19	75	61	-780	3476	16772	-328	-32	-156	128	127	5
-10484	-3828	11352	-18	87	-159	-16120	-1912	124	256	22	84	-2772	-1896	16288	272	-61	82	-9480	3812	13236	132	-22	-174	-16524	1968	-980	-100	34	69	-776	3428	16632	-360	-27	-233	127	127	5
-10452	-3692	11400	38	56	-123	-16128	-1644	-72	94	-31	65	-3060	-1728	16496	142	-76	-70	-9500	3848	13196	135	-43	-146	-16492	1996	-1056	-123	-3	82	-800	3424	16640	-396	10	-189	127	126	5
-10424	-3664	11496	-34	85	-155	-16180	-1464	4	-124	-18	76	-2996	-1608	16508	-107	-59	-142	-9500	3864	13332	144	-57	-178	-16612	1932	-1200	-56	-26	95	-1024	3440	16748	-279	-7	-192	127	126	5
-10384	-3852	11352	-51	128	-198	-16124	-1580	-56	-324	-61	26	-3020	-1452	16456	-277	-121	-252	-9564	3844	13188	115	-51	-149	-16532	1924	-1192	-11	-98	99	-1112	3480	16752	-201	0	-214	126	126	5
-10408	-3728	11448	-112	136	-160	-16184	-1628	-68	-222	-74	-100	-3092	-1628	16488	-352	-171	-178	-9492	3844	13348	131	-58	-169	-16636	1972	-1060	138	-109	82	-832	3348	16848	16	44	-156	126	126	5
-10416	-3752	11408	-93	117	-190	-16200	-1480	84	-76	-101	-160	-2948	-1616	16436	-368	-133	-229	-9532	3872	13224	97	-62	-156	-16524	2108	-1064	247	-184	83	-676	3356	16804	113	86	46	125	126	5
-10492	-3708	11552	-173	170	-212	-16152	-1516	-12	-14	-103	-217	-2868	-1532	16540	-501	-68	-139	-9468	3880	13244	80	-113	-118	-16632	2052	-900	203	-158	85	-664	3260	16732	281	158	121	124	126	5
-10420	-3652	11496	-199	186	-253	-16232	-1628	88	29	-124	-294	-2936	-1740	16468	-645	-65	8	-9504	3812	13404	79	-38	-140	-16588	2012	-800	109	-144	42	-736	3216	16860	298	149	156	123	126	5
-10400	-3800	11324	-239	244	-273	-16036	-1716	60	134	-79	-348	-3008	-1744	16548	-629	-57	20	-9488	3876	13352	102	-14	-175	-16508	1896	-780	135	-123	30	-744	3160	16736	420	173	145	123	126	5
-10396	-3772	11428	-240	246	-290	-16024	-1764	120	135	-90	-446	-3004	-2208	16448	-457	-275	361	-9472	3812	13260	142	-34	-162	-16544	1968	-740	123	-56	22	-824	3284	16840	515	145	153	123	127	5
-10452	-3812	11312	-253	232	-258	-16152	-1976	76	-19	-67	-411	-2800	-2596	16300	-295	-283	518	-9428	3812	13268	102	-33	-178	-16504	1944	-684	18	-28	117	-992	3224	16724	519	91	225	123	127	5
-10380	-3776	11432	-246	239	-251	-16052	-2264	104	-116	-63	-362	-2760	-2908	16356	-90	-277	455	-9460	3856	13188	125	7	-159	-16560	1880	-920	-18	18	95	-1040	3288	16764	524	65	285	123	127	5
-10424	-3844	11376	-202	195	-208	-15952	-2448	76	-94	-69	-244	-2832	-3004	16184	13	-268	449	-9496	3840	13320	124	-37	-195	-16524	1760	-860	91	29	108	-1004	3316	16724	502	69	188	124	127	5
-10468	-3872	11268	-123	120	-217	-16056	-2496	68	94	-44	-107	-2692	-3064	16244	131	-200	308	-9516	3820	13356	123	-16	-193	-16612	1872	-892	254	6	174	-1080	3476	16920	443	41	47	124	127	5
-10448	-3856	11336	-72	103	-171	-15964	-2392	-24	104	-23	20	-2900	-2984	16356	266	-165	215	-9460	3808	13252	127	25	-190	-16664	2080	-980	217	37	126	-952	3696	16904	231	25	-37	125	128	5
-10476	-3744	11364	-6	64	-143	-16012	-2112	52	-103	-81	122	-2808	-2712	16372	472	-109	97	-9488	3832	13276	136	-7	-167	-16580	2248	-904	-9	33	96	-824	3756	16688	22	53	9	125	127	5
-10436	-3752	11436	-10	19	-135	-16096	-2036	132	-200	-84	161	-2716	-2240	16440	529	-97	62	-9480	3872	13304	123	4	-182	-16612	2156	-940	-238	11	61	-816	3916	16740	-252	50	-19	125	127	5
-10436	-3740	11456	13	40	-166	-16088	-1884	60	-156	-62	180	-2580	-2060	16672	415	-7	-24	-9540	3764	13328	119	-10	-198	-16560	1980	-1148	-328	4	42	-832	3744	16780	-462	64	-86	125	127	5
-10428	-3732	11476	-28	60	-122	-16168	-1860	272	-103	-39	205	-2480	-1956	16544	359	33	-5	-9448	3852	13248	130	-51	-200	-16540	1876	-1016	-87	-41	17	-960	3500	16700	-531	38	-192	125	127	5
-10432	-3708	11484	-22	88	-150	-16040	-1720	268	-60	42	154	-2740	-1580	16520	-34	43	-190	-9444	3808	13276	72	-49	-159	-16608	1812	-1008	113	-65	21	-1056	3272	16700	-424	16	-324	125	127	5
-10400	-3768	11380	-46	94	-147	-16112	-1556	196	55	101	73	-3032	-1528	16440	-194	-61	-226	-9448	3812	13400	96	-107	-178	-16624	1940	-1148	288	-108	23	-984	3284	16812	-264	12	-400	125	127	5
-10444	-3736	11392	-50	132	-155	-16212	-1512	108	217	90	-35	-3052	-1692	16496	-269	-150	-190	-9488	3836	13268	103	-68	-167	-16544	1940	-1052	254	-97	47	-960	3264	16872	-153	19	-344	125	127	5
-10500	-3696	11408	-150	159	-192	-16136	-1468	8	167	61	-122	-2872	-1636	16328	-349	-28	-117	-9492	3828	13272	104	-103	-200	-16620	1944	-1056	228	-129	14	-924	3212	16864	-81	28	-178	124	127	5
-10472	-3696	11432	-164	182	-215	-16160	-1520	-224	-29	-21	-195	-2960	-1724	16416	-528	87	-80	-9484	3860	13400	98	-65	-199	-16672	1952	-940	83	-103	40	-876	2964	16900	112	69	-2	124	127	5
-10408	-3776	11440	-236	219	-262	-16064	-1752	-208	-110	-35	-280	-3160	-1996	16404	-637	173	51	-9460	3804	13312	90	6	-168	-16580	1828	-804	-16	-103	65	-896	2880	16860	396	102	105	123	127	5
-10412	-3720	11372	-196	212	-252	-16100	-1884	-132	15	-111	-323	-3248	-2428	16308	-585	92	219	-9524	3776	13352	129	-51	-177	-16580	1756	-856	-26	-62	92	-948	2864	16800	556	86	194	123	127	5
-10460	-3772	11336	-251	190	-259	-16076	-2084	-8	108	-97	-311	-3336	-2740	16284	-319	-79	322	-9444	3788	13288	156	-58	-177	-16564	1728	-768	112	-29	178	-940	2796	16792	744	70	284	123	127	5
-10396	-3764	11420	-196	215	-284	-16108	-2100	-140	90	-127	-237	-3248	-2872	16284	33	-235	447	-9488	3780	13400	175	-39	-217	-16492	1724	-952	186	-77	180	-1060	2804	16876	931	2	466	124	127	5
-10412	-3772	11412	-146	145	-234	-16048	-2208	0	-15	-156	-192	-2864	-2932	16424	347	-348	523	-9492	3864	13268	162	-10	-160	-16576	1676	-852	247	50	284	-992	2848	16904	1122	-6	480	124	127	5
-10452	-3860	11344	-130	131	-221	-16056	-2332	104	-50	-85	-78	-2688	-2868	16392	520	-374	489	-9456	3800	13228	195	20	-126	-16592	1656	-792	340	-8	361	-1004	2968	16884	1263	-3	434	125	128	5
-10480	-3836	11344	-84	102	-183	-15996	-2392	136	1	-80	-8	-2700	-2820	16284	686	-385	435	-9492	3844	13404	191	31	-142	-16568	1748	-836	309	0	429	-976	3252	16780	1161	-44	345	125	128	5
-10340	-3788	11344	-59	83	-162	-16076	-2312	176	16	-64	75	-2864	-2752	16440	782	-451	364	-9436	3820	13376	245	104	-123	-16568	1836	-936	216	23	473	-1060	3492	16940	950	-94	237	126	129	5
-10476	-3772	11404	-10	37	-129	-16112	-2268	0	-14	-81	239	-2964	-2632	16448	899	-457	378	-9448	3800	13328	258	31	-112	-16624	1840	-932	79	39	526	-1056	3548	16692	847	-134	-7	127	129	5
-10400	-3840	11416	67	56	-171	-16084	-2268	20	-27	-39	342	-2608	-2580	16500	954	-291	329	-9444	3824	13348	280	55	-105	-16552	2024	-1016	69	25	522	-948	3612	16728	723	-121	-178	127	129	5
-10444	-3784	11392	83	14	-123	-16072	-2304	108	149	-43	403	-2472	-2404	16360	869	-174	154	-9516	3880	13372	262	34	-125	-16504	2136	-904	27	48	521	-888	3752	16588	665	-115	-190	128	130	5
-10500	-3752	11428	84	6	-82	-16016	-2068	84	320	-7	446	-2536	-2244	16184	734	5	-87	-9504	3820	13256	248	57	-122	-16416	2132	-960	54	-1	508	-896	3752	16608	588	-95	-224	128	130	5
-10440	-3796	11400	118	-23	-96	-16140	-2004	36	349	-23	494	-2660	-2000	16412	578	132	-310	-9532	3904	13340	246	13	-123	-16596	2128	-1072	187	-24	473	-780	3848	16820	563	-66	-212	128	129	5
-10496	-3768	11412	144	-32	-98	-16068	-1680	120	224	-57	508	-2816	-1812	16368	481	156	-379	-9528	3880	13268	250	19	-116	-16556	2164	-1036	333	-70	406	-828	3732	16640	485	-51	-163	128	129	5
-10420	-3760	11404	99	-52	-113	-16108	-1528	92	91	1	447	-3004	-1720	16440	409	52	-356	-9496	3904	13284	224	33	-145	-16532	2264	-924	351	-60	335	-748	3776	16776	483	-37	-77	127	129	5
-10376	-3744	11424	85	-17	-108	-16132	-1472	40	-116	-31	387	-2956	-1672	16556	395	49	-178	-9492	3952	13244	206	23	-128	-16524	2304	-848	264	-39	294	-808	3844	16640	459	-82	73	127	128	5
-10436	-3712	11452	69	17	-149	-16204	-1608	224	-150	-21	355	-2756	-1616	16468	436	49	-2	-9488	3884	13280	178	43	-187	-16528	2220	-880	166	-30	317	-800	3708	16808	461	-87	157	127	128	5
-10396	-3632	11452	18	52	-113	-16044	-1624	132	38	5	241	-2704	-1580	16528	360	82	35	-9512	3844	13132	189	-4	-159	-16476	2028	-896	229	19	269	-920	3588	16756	367	-165	180	127	128	5
-10404	-3696	11288	30	45	-132	-16076	-1612	164	213	13	227	-2780	-1620	16532	255	80	92	-9508	3828	13232	161	19	-159	-16496	1976	-848	162	-5	316	-916	3544	16836	271	-115	71	127	128	5
-10452	-3712	11452	-30	113	-171	-16100	-1588	176	378	67	152	-2876	-1648	16444	265	54	83	-9500	3984	13348	220	22	-140	-16592	1936	-820	230	51	354	-944	3448	16848	162	-79	-191	127	128	5
-10424	-3716	11364	-4	84	-159	-16136	-1500	96	325	84	82	-2904	-1584	16432	215	5	75	-9500	3720	13444	220	29	-133	-16528	1924	-896	351	100	406	-872	3712	16884	205	-71	-610	127	127	5
-10384	-3644	11396	-49	84	-163	-16132	-1448	44	137	84	26	-2940	-1484	16476	149	-34	-1	-9504	4056	13228	253	29	-106	-16536	2132	-884	339	79	445	-528	3928	16804	151	66	-874	127	127	5
-10432	-3704	11388	-63	87	-171	-16128	-1444	-4	-92	49	-46	-3152	-1512	16400	98	-155	30	-9440	3932	13184	254	21	-126	-16580	2592	-912	25	56	369	-664	4100	16740	131	59	-1021	127	127	5
-10460	-3656	11456	-131	107	-167	-16112	-1492	-92	-218	-4	-77	-3360	-1648	16520	48	-242	216	-9464	3808	13392	168	36	-123	-16620	2760	-1128	-346	96	271	-808	4260	16652	118	116	-845	127	126	5
-10404	-3656	11368	-137	192	-197	-16196	-1592	-56	-306	1	-109	-3080	-1848	16420	67	-284	344	-9416	4036	13224	214	65	-93	-16528	2700	-1212	-502	45	207	-908	4248	16564	140	182	-539	127	125	5
-10404	-3712	11460	-98	175	-240	-16108	-1828	52	-165	-9	-135	-2864	-2012	16456	70	-306	335	-9556	3968	13152	138	-14	-159	-16524	2728	-1100	-389	-9	50	-1000	4284	16504	170	79	-176	127	125	5
-10408	-3700	11436	-94	152	-207	-16052	-2044	-16	174	-1	-143	-2956	-2104	16328	177	-326	313	-9528	3936	13312	39	-46	-181	-16500	2512	-1260	-74	-76	-73	-816	4084	16536	153	0	264	127	125	5
-10400	-3692	11408	-103	133	-198	-16084	-1860	-16	384	28	-104	-2952	-2076	16404	186	-264	258	-9488	3948	13248	8	-67	-237	-16548	2396	-1076	269	-146	-190	-760	3880	16588	200	14	691	128	125	5
-10420	-3688	11432	-77	104	-200	-16100	-1656	-136	326	-42	-116	-2960	-1864	16324	153	-216	185	-9500	3924	13412	-24	-139	-253	-16568	2204	-984	493	-218	-298	-724	3788	16824	232	11	991	128	125	5
-10368	-3732	11416	-67	101	-181	-16136	-1556	-80	6	-100	-117	-2996	-1784	16396	39	-186	150	-9528	3936	13292	-16	-81	-250	-16648	2176	-928	531	-200	-341	-704	3592	16780	430	28	1041	128	126	5
-10412	-3720	11432	-115	146	-205	-16100	-1504	-48	-272	-144	-126	-2848	-1664	16472	-81	-129	153	-9468	3864	13380	-29	-121	-233	-16512	2168	-684	409	-159	-333	-700	3592	16712	414	95	1021	127	126	5
-10428	-3716	11488	-146	159	-177	-16128	-1660	-8	-496	-187	-155	-2872	-1780	16604	-204	-80	208	-9500	3832	13384	-18	-124	-236	-16528	1912	-664	-29	-101	-226	-1008	3208	16872	207	49	929	127	126	5
-10424	-3792	11408	-141	148	-195	-16136	-1804	24	-392	-125	-120	-2808	-1876	16356	-299	-76	239	-9412	3840	13284	72	-136	-237	-16536	1548	-760	-274	-50	-93	-1044	3020	16912	12	-14	559	127	127	5
-10452	-3744	11416	-149	174	-200	-16076	-1860	116	-88	-141	-198	-2644	-1984	16424	-231	-46	195	-9480	3704	13344	131	-43	-219	-16632	1340	-856	-119	8	58	-1140	3036	16884	-68	-106	85	127	127	5
-10448	-3732	11436	-115	141	-174	-16124	-1824	124	180	-72	-231	-2820	-1940	16504	-201	-48	122	-9476	3848	13248	165	-6	-137	-16632	1632	-880	67	29	168	-904	3364	16892	-41	-64	-404	127	127	5
-10380	-3760	11372	-150	179	-216	-16196	-1688	236	204	-30	-172	-2832	-1836	16500	-193	-37	75	-9428	3852	13360	202	-2	-135	-16620	1936	-984	61	46	290	-832	3648	16728	-128	-44	-709	126	127	5
-10460	-3748	11488	-131	155	-214	-16080	-1640	172	70	-33	-232	-2824	-1784	16392	-239	-43	30	-9480	3900	13272	192	18	-118	-16532	2224	-1096	-36	42	232	-848	3680	16736	-115	10	-643	126	127	5
-10408	-3752	11444	-165	209	-181	-16132	-1776	232	-24	-6	-248	-2932	-1892	16440	-422	-115	78	-9472	3900	13344	216	-3	-138	-16548	2380	-1000	-190	40	225	-660	3784	16692	-21	64	-449	125	127	5
-10344	-3688	11476	-155	192	-216	-16172	-1776	88	-229	-36	-221	-3064	-2084	16412	-426	-205	117	-9528	3836	13236	158	-2	-130	-16540	2316	-1008	-172	8	181	-772	3960	16776	70	70	-341	125	127	5
-10440	-3768	11500	-148	187	-220	-16088	-1828	-80	-271	-16	-240	-3112	-2360	16352	-282	-255	238	-9532	3924	13268	153	-39	-179	-16536	2360	-1084	-60	-77	110	-740	3960	16636	41	105	-120	125	126	5
-10356	-3732	11512	-132	217	-213	-16164	-2020	-12	-231	-67	-212	-2932	-2364	16308	-121	-213	296	-9448	3836	13288	93	-43	-156	-16536	2292	-1172	65	-52	34	-876	3996	16640	-19	114	39	125	126	5
-10452	-3748	11412	-96	186	-208	-16028	-2080	0	-29	-68	-176	-2712	-2264	16296	-22	-156	183	-9496	3904	13320	46	-61	-162	-16524	2348	-1116	243	-109	-83	-896	3940	16620	-73	123	245	125	126	5
-10460	-3716	11400	-117	149	-185	-16060	-2064	16	211	-50	-142	-2692	-2144	16360	-50	-97	6	-9552	3912	13304	64	-49	-200	-16592	2300	-968	278	-146	-138	-928	3772	16772	-127	123	350	125	126	5
-10420	-3692	11448	-93	128	-183	-16176	-1848	92	252	-34	-96	-2652	-1904	16420	-124	-57	-47	-9484	3932	13316	53	-101	-230	-16612	2068	-960	176	-89	-162	-852	3484	16844	-147	64	351	125	126	5
-10400	-3760	11468	-119	155	-208	-16176	-1700	276	213	-19	-161	-2744	-1860	16460	-235	-40	-74	-9480	3816	13428	67	-32	-199	-16572	1752	-784	168	-40	-106	-856	3276	16808	-146	59	176	124	126	5
-10436	-3792	11484	-144	159	-181	-16112	-1572	244	-276	-56	-153	-2736	-1772	16304	-365	-36	16	-9464	3852	13328	108	-65	-211	-16576	1764	-836	173	-28	-58	-816	3228	16812	-107	67	-78	124	126	5
-10432	-3724	11352	-177	154	-188	-16148	-1752	144	-341	-6	-213	-2792	-1908	16460	-461	-74	64	-9484	3864	13356	98	12	-190	-16532	1868	-832	32	5	21	-936	3188	16704	-189	4	-262	123	126	5
-10428	-3672	11448	-198	152	-213	-16104	-1828	56	-251	28	-188	-2944	-2128	16496	-465	-123	180	-9548	3828	13328	138	-37	-178	-16588	2036	-908	-163	63	62	-1044	3268	16940	-121	27	-375	123	125	5
-10480	-3684	11304	-190	207	-214	-16148	-2036	12	-85	-4	-220	-2944	-2436	16460	-401	-94	244	-9500	3860	13256	134	-21	-188	-16572	2068	-1032	-285	94	120	-972	3460	16868	24	50	-347	123	125	5
-10472	-3808	11276	-187	193	-202	-16088	-2148	-52	132	-15	-207	-3008	-2508	16344	-147	-107	284	-9508	3892	13260	147	-34	-164	-16544	2040	-1008	-296	44	76	-940	3532	16764	165	135	-156	124	125	5
-10392	-3792	11452	-149	138	-203	-16048	-2020	-224	403	-35	-168	-3120	-2512	16284	142	-187	304	-9492	3816	13252	115	-43	-153	-16484	1996	-1096	-87	-71	69	-924	3448	16568	257	155	6	124	125	5
-10484	-3788	11460	-85	110	-211	-16148	-1844	-152	280	-49	-141	-3248	-2284	16364	339	-212	205	-9516	3896	13336	112	-32	-176	-16556	2004	-1056	167	-108	56	-1040	3492	16728	298	135	177	124	126	5
-10420	-3788	11464	-101	128	-197	-16220	-1700	-128	-84	-119	-120	-3176	-2084	16520	267	-197	233	-9516	3896	13304	115	-64	-178	-16596	2084	-1088	303	-131	56	-1000	3468	16724	350	124	260	124	127	5
-10488	-3700	11456	-96	173	-213	-16172	-1832	-72	-383	-184	-56	-2936	-1976	16344	115	-158	245	-9468	3872	13308	103	-58	-212	-16548	2088	-936	302	-123	35	-1036	3528	16788	444	95	342	125	127	5
-10436	-3764	11372	-136	132	-235	-16084	-2000	112	-344	-204	-77	-2916	-2124	16372	-37	-161	306	-9520	3824	13240	115	-16	-176	-16564	2144	-964	310	-112	40	-1004	3596	16800	479	76	351	125	127	5
-10444	-3800	11436	-93	106	-214	-16064	-2060	80	-102	-171	-73	-2856	-2288	16332	-5	-221	301	-9532	3876	13184	49	-79	-199	-16568	2096	-812	-18	-67	39	-904	3452	16764	409	10	373	125	128	5
-10436	-3800	11388	-71	113	-203	-16080	-1964	220	91	-120	-64	-2700	-2328	16408	94	-230	301	-9508	3916	13244	140	-100	-195	-16576	1940	-856	-115	-90	69	-944	3416	16844	272	16	265	126	128	5
-10500	-3776	11268	-100	128	-162	-16056	-1912	252	136	-94	-30	-2692	-2336	16432	124	-220	282	-9496	3784	13344	112	-86	-155	-16640	1796	-660	-25	-73	111	-884	3444	16928	102	-16	171	126	128	5
-10432	-3752	11400	-106	96	-183	-16112	-1916	216	179	-36	-22	-2620	-2044	16492	197	-153	142	-9440	3808	13264	159	7	-160	-16548	1892	-816	67	-21	117	-1036	3284	16768	24	-123	162	126	127	5
-10428	-3740	11416	-55	115	-152	-16088	-1812	296	165	-29	-24	-2836	-2008	16520	134	-198	132	-9532	3900	13296	177	8	-152	-16584	1868	-820	149	17	142	-1192	3256	16988	228	-193	74	126	128	5
-10448	-3748	11464	-35	101	-148	-16084	-1848	16	-15	14	-55	-2808	-2020	16452	34	-228	143	-9476	3872	13424	144	-22	-163	-16648	1924	-880	167	-41	229	-836	3316	16776	394	-155	-3	126	127	5
-10424	-3760	11476	-88	111	-142	-16164	-1896	104	-134	10	36	-2448	-2164	16384	-55	-103	96	-9476	3808	13320	209	17	-177	-16564	1932	-972	224	-19	236	-544	3372	16704	337	-53	27	126	127	5
-10448	-3792	11432	-39	132	-177	-16104	-1952	32	-143	-16	22	-2512	-2060	16424	-121	65	-164	-9432	3880	13336	191	1	-141	-16488	1984	-1012	242	-10	251	-700	3548	16740	257	-29	-44	126	126	5
-10432	-3760	11336	-43	104	-172	-16144	-1872	4	-36	-12	30	-2696	-1908	16456	-268	187	-383	-9476	3836	13408	175	39	-145	-16560	1996	-976	157	-2	294	-908	3664	16628	77	-38	-159	125	126	5
-10396	-3728	11464	-61	120	-175	-16144	-1748	-28	83	-17	17	-2936	-1748	16496	-437	201	-286	-9472	3892	13284	180	64	-129	-16600	2068	-1000	117	-71	279	-912	3712	16752	-127	-34	-274	124	127	5
-10412	-3740	11400	-86	131	-169	-16124	-1700	64	8	10	-21	-3168	-1980	16364	-498	48	-186	-9496	3900	13220	214	30	-155	-16564	2164	-896	79	13	262	-716	3716	16664	-161	-43	-330	124	127	5
-10416	-3692	11412	-110	163	-201	-16144	-1724	84	-28	-2	-66	-3224	-2240	16272	-295	-67	-13	-9524	3980	13208	188	-10	-148	-16548	2272	-944	-13	12	209	-788	3800	16656	-247	-30	-360	123	127	5
-10404	-3760	11432	-65	144	-205	-16072	-1824	80	-58	-36	-99	-3224	-2340	16396	10	-212	231	-9512	3908	13296	170	1	-162	-16556	2288	-812	-73	-12	143	-812	3772	16796	-257	-37	-281	123	128	5
-10452	-3740	11424	-121	127	-209	-16112	-1904	-52	19	-27	-125	-3164	-2228	16344	250	-282	312	-9496	3904	13120	146	-48	-138	-16524	2240	-1040	-62	-15	100	-944	3652	16832	-184	-52	-215	123	128	5
-10464	-3684	11460	-114	151	-179	-16160	-1788	-120	10	-106	-118	-3060	-2060	16452	338	-322	380	-9480	3932	13304	135	6	-180	-16600	2180	-1028	49	-46	35	-944	3572	16696	-9	16	-149	124	128	5
-10420	-3724	11432	-105	151	-205	-16128	-1880	-64	-21	-93	-142	-2936	-2028	16384	292	-290	389	-9488	3864	13388	89	-41	-180	-16612	2148	-1076	134	-101	12	-892	3568	16792	120	64	-35	124	128	5
-10452	-3708	11464	-109	148	-210	-16104	-1864	80	-46	-91	-146	-2788	-2032	16456	250	-261	366	-9540	3984	13252	57	-37	-196	-16572	2248	-772	138	-102	-12	-788	3552	16616	171	92	52	125	128	5
-10456	-3708	11420	-145	101	-235	-16152	-1880	-4	-19	-130	-116	-2776	-2020	16324	175	-214	296	-9444	3880	13192	101	-36	-203	-16584	2048	-180	-48	55	-48	-852	3512	16732	291	151	260	125	128	5
-10416	-3752	11392	-165	150	-252	-16152	-1820	-56	-3	-130	-93	-2736	-1960	16376	91	-169	280	-9548	3916	13300	155	57	-220	-16436	1632	-1224	-159	-157	11	-948	3232	16688	258	118	237	126	128	5
-10392	-3732	11484	-136	163	-245	-16088	-1812	168	-44	-118	-104	-2540	-1980	16472	-121	-62	160	-9516	3808	13324	151	38	-197	-16624	1684	-1060	267	-91	44	-928	3084	16992	485	113	130	126	128	5
-10444	-3772	11440	-133	134	-201	-16120	-1944	112	-68	-70	-148	-2436	-2076	16432	-345	58	53	-9436	3836	13268	184	78	-199	-16500	1868	-784	448	-55	74	-832	3036	16768	740	237	100	125	127	5
-10416	-3760	11496	-137	177	-194	-16064	-1984	140	-8	-72	-104	-2532	-2148	16344	-477	131	-73	-9088	4084	13044	509	311	-137	-17148	1904	-468	80	-35	103	-884	3212	17248	1101	171	143	125	127	5
-10472	-3804	11388	-127	141	-203	-16108	-1920	136	-13	-46	-124	-2692	-2288	16384	-484	185	-97	-9700	4968	12996	578	452	12	-16184	812	-1844	729	-130	108	-1020	3184	16444	1139	254	303	125	126	5
-10388	-3788	11404	-80	149	-203	-16140	-2032	156	-6	-36	-58	-2976	-2432	16452	-406	227	-74	-7256	3752	13236	688	519	196	-16576	1736	-596	1572	448	-13	-1236	3244	17288	1091	42	175	125	126	5
-10468	-3844	11400	-96	137	-188	-16036	-2040	40	-33	-26	-40	-2884	-2540	16452	-174	181	51	-9820	4300	13332	983	982	-136	-16432	2468	-264	1265	-56	55	-1344	3608	16928	1112	-19	211	124	127	5
-10432	-3812	11352	-56	92	-192	-16048	-2032	188	-1	19	-16	-2948	-2632	16256	12	59	142	-9656	4236	13228	996	1236	-34	-16812	1440	-1560	905	343	190	-1160	3924	16900	874	-145	292	125	127	5
-10472	-3808	11408	-53	96	-164	-16000	-2100	140	49	0	53	-3140	-2676	16436	308	-54	319	-9568	3640	13284	1753	1205	146	-17060	2864	312	286	96	-196	-1344	4184	16796	608	-252	339	125	127	5
-10428	-3776	11448	-44	55	-118	-16052	-2148	64	111	13	67	-3176	-2684	16284	686	-219	381	-9536	4136	13284	1662	1359	35	-16412	3172	-1184	-1572	397	-74	-1052	4316	16588	482	-284	383	126	127	5
-10432	-3736	11404	1	28	-169	-16068	-2028	92	150	-13	144	-3160	-2452	16516	966	-320	317	-9700	4304	13032	1379	1275	-21	-16688	3164	-1392	-2467	329	-385	-824	4464	16632	358	-235	468	127	127	5
-10488	-3756	11428	27	26	-137	-16180	-1948	-4	183	-56	170	-3000	-2184	16448	953	-317	232	-9748	3872	13400	1254	1085	-20	-16444	2592	-1136	-4024	232	-346	-928	4332	16684	-10	-186	514	127	127	5
-10440	-3716	11384	30	32	-138	-16116	-1856	52	113	-52	190	-2724	-1796	16364	698	-172	136	-9832	4296	13064	986	987	-34	-16352	1424	-1912	-3485	171	-362	-908	3716	16524	-298	-166	357	128	127	5
-10460	-3708	11420	17	46	-153	-16084	-1732	12	53	-28	190	-2652	-1804	16364	403	-82	11	-9656	4396	12684	928	804	-19	-16448	1080	-1008	-1648	-43	-231	-1076	3248	16724	-323	-109	178	129	127	5
-10420	-3740	11400	26	55	-168	-16096	-1872	124	109	-34	209	-2708	-1932	16468	254	10	-108	-9848	4000	13084	718	739	-113	-16456	1172	-832	-1295	-75	-172	-992	3192	16720	-56	-91	21	129	125	5
-10404	-3740	11320	25	37	-169	-16092	-1836	-16	196	-43	211	-2800	-2000	16336	176	72	-138	-9808	4688	12736	658	578	-94	-16680	1868	-420	-338	22	-18	-736	3344	16900	95	-152	-48	129	124	5
-10436	-3648	11368	10	45	-196	-16172	-1744	60	211	-29	170	-2848	-1972	16440	201	93	-146	-9612	3584	13244	871	798	67	-16992	2212	-920	-1443	-99	-105	-856	3540	17000	294	-86	58	130	123	5
-10360	-3708	11472	13	38	-164	-16180	-1768	68	215	-16	202	-3060	-1944	16468	343	-63	-336	-9648	4356	12900	1003	1141	32	-17336	1652	-576	-1811	4	-141	-616	3352	17220	512	-73	152	129	122	5
-10420	-3824	11512	15	45	-146	-16120	-1648	80	265	29	174	-3020	-1616	16456	312	-215	-466	-9768	3892	13300	1449	1462	202	-16880	1892	-776	-2340	-156	-194	-664	3236	17140	864	-200	202	128	119	5
-10388	-3752	11416	-21	100	-129	-16192	-1432	140	208	43	116	-2892	-1680	16588	287	-267	-469	-9308	4212	13284	784	2021	867	-17180	1332	-508	-2599	-254	-336	-872	3672	16788	819	-413	322	127	120	5
-10464	-3684	11420	-72	166	-154	-16160	-1540	-20	-6	81	103	-2576	-1652	16532	-262	12	-481	-10400	4280	13368	303	2572	1832	-16828	744	-840	-2304	-326	-862	-600	4164	16776	420	-517	575	126	120	5
-10412	-3800	11400	-105	142	-197	-16088	-1724	-92	-74	17	44	-2608	-1688	16444	-297	39	-491	-10236	3988	12948	-664	2984	2854	-16604	1252	-728	-1796	-509	-1279	-496	3996	16920	96	-462	742	125	120	5
-10396	-3676	11412	-123	116	-204	-16160	-1676	-104	33	33	-33	-3292	-2124	16424	-137	-6	-9	-9884	4344	12952	-2222	3803	4323	-17008	1844	-384	-3057	-716	-1647	-808	4136	17000	-56	-443	722	125	121	5
-10420	-3720	11384	-109	109	-206	-16108	-1728	-80	142	-33	-68	-3308	-2292	16356	179	-113	253	-10500	4140	12900	-3102	4566	5586	-17420	1100	-656	-3739	-643	-2322	-792	4552	17148	-452	-470	620	125	120	5
-10432	-3708	11464	-149	119	-215	-16172	-1652	-188	128	-167	-97	-3196	-2248	16248	359	-77	504	-10424	4256	12628	-4229	5407	6895	-17172	1316	-1160	-4072	-896	-2532	-816	4128	16932	-1201	-391	618	126	120	5
-10480	-3772	11348	-143	102	-248	-16096	-1900	-200	4	-195	-44	-3000	-2244	16260	445	3	546	-11176	4460	12160	-5253	5584	7793	-16132	1524	-776	-4377	-893	-2970	-756	3016	16168	-1799	-111	621	127	121	5
-10396	-3792	11392	-133	83	-216	-16060	-2024	44	16	-198	-46	-2984	-2224	16420	413	32	567	-11140	4356	11708	-6050	5096	8182	-14832	912	-1176	-4916	-779	-3022	-60	3180	15908	-1461	93	129	128	122	5
-10428	-3712	11484	-105	65	-224	-16144	-1916	192	40	-251	-3	-2820	-2200	16400	374	97	546	-12388	5064	10684	-5001	3407	7387	-13264	-156	-2680	-3172	-514	-2547	332	2744	14312	-2703	612	-208	128	124	5
-10360	-3784	11468	-58	64	-186	-16112	-1824	144	-148	-187	62	-2620	-2188	16460	341	41	554	-13776	5612	8440	-4345	81	5999	-10316	-124	-4080	1590	-395	-1331	252	1188	12632	-2335	1432	-1388	129	125	5
-10352	-3772	11376	-25	48	-152	-16088	-1924	380	-294	-132	89	-2680	-2064	16452	440	-128	530	-8376	10056	11076	-2395	-5174	2291	-12668	2536	-3844	7698	1381	-215	-208	992	15556	-2009	1204	-2302	129	125	5
-10412	-3824	11348	-17	41	-149	-16104	-2032	228	-200	-80	121	-2580	-1952	16560	391	-273	282	-7920	8524	12956	-6372	-5798	-1398	-17524	8880	1044	10461	840	4078	-1832	156	18588	381	199	-2534	128	127	5
-10420	-3828	11460	48	56	-104	-16100	-2008	312	25	51	221	-2452	-1780	16480	160	-146	-114	-8804	-3288	18104	-4551	-3786	-2055	-25064	2512	5068	3312	-195	4266	-2248	6064	19580	4273	-462	-752	127	129	5
-10432	-3756	11428	60	61	-99	-16140	-1632	64	76	95	221	-2692	-1488	16364	-103	-68	-453	-10176	3964	13212	-1974	-935	-594	-18220	-1204	-2556	-386	945	-240	588	7012	17336	1521	-350	1250	127	128	5
-10420	-3672	11484	5	81	-120	-16172	-1176	-44	-172	72	130	-2896	-1188	16604	-293	24	-452	-10312	5648	12028	-1413	-746	-300	-16640	2148	-420	2238	-268	-1381	1640	4732	17260	1151	33	1150	126	127	5
-10360	-3628	11648	-27	106	-144	-16188	-1032	52	-426	25	-18	-2944	-1244	16556	-393	71	-71	-9832	4344	12864	-1066	-557	-271	-16752	2892	-332	2136	-837	-542	-424	5324	16632	1093	531	1086	126	125	5
-10364	-3692	11488	-123	147	-182	-16164	-1224	-36	-317	66	-186	-3024	-1332	16532	-306	57	276	-9780	4224	12988	-606	-410	-274	-16792	2872	-256	1530	-837	-531	-1072	4468	16560	-170	484	1258	125	124	5
-10432	-3600	11572	-216	235	-212	-16148	-1344	72	-185	2	-359	-3252	-1380	16508	-261	105	522	-9892	4564	12556	-448	-630	-310	-16396	2340	-884	-3149	791	-507	-1360	3576	16764	-158	442	1129	125	124	5
-10420	-3652	11472	-220	234	-273	-16136	-1492	60	25	-9	-425	-3292	-1476	16500	-276	115	608	-9848	4192	12880	-520	-750	-375	-16876	880	-784	-3468	520	-658	-1576	3656	16892	-115	334	979	126	124	5
-10432	-3712	11424	-265	269	-301	-16136	-1608	64	205	-27	-492	-3292	-1644	16356	-298	34	628	-9784	4104	12996	-413	-491	-334	-17004	-976	-964	-1649	60	-476	-1168	3296	17008	-331	237	522	126	125	5
-10388	-3756	11448	-281	279	-269	-16184	-1664	48	274	1	-531	-3108	-1868	16444	-347	-49	654	-9828	4008	12968	-168	-340	-170	-16852	-336	-948	1007	-320	-526	-1064	2864	16868	-462	213	-38	126	125	5
-10432	-3788	11440	-326	298	-280	-16068	-1708	112	-13	-47	-558	-3016	-2000	16428	-390	-108	630	-9772	4212	12968	-69	-148	-188	-16776	804	-920	2119	-199	-449	-1260	2776	16932	-595	206	-481	127	125	5
-10400	-3728	11444	-296	270	-287	-16024	-1872	196	-299	-43	-544	-2900	-2196	16432	-435	-107	619	-9824	4044	12888	27	-125	-244	-16788	1264	-816	2067	-103	-320	-1160	2840	16924	-310	254	-663	127	124	5
-10488	-3688	11412	-324	248	-279	-16028	-2132	72	-418	-63	-456	-2900	-2416	16368	-415	-76	473	-9820	4076	13044	62	-106	-212	-16636	1620	-904	1361	-11	-282	-1056	3280	16760	17	228	-582	127	124	5
-10380	-3856	11312	-248	210	-234	-16064	-2264	156	-304	-37	-378	-2912	-2476	16376	-436	-70	221	-9728	4140	13016	8	-96	-207	-16636	1732	-900	295	-91	-259	-804	3656	16748	197	253	-288	127	124	5
-10444	-3800	11440	-215	255	-254	-16076	-2332	104	-77	-33	-292	-2992	-2520	16260	-479	-32	73	-9852	4124	13020	-17	-101	-211	-16572	1632	-808	-556	-74	-290	-808	3692	16688	33	371	178	127	124	5
-10432	-3800	11376	-166	185	-206	-16060	-2208	12	109	-20	-204	-3116	-2504	16388	-421	-69	-78	-9848	4164	12848	-13	-159	-192	-16664	1348	-884	-922	-52	-368	-940	3488	16612	-164	392	512	126	124	5
-10468	-3808	11400	-191	165	-221	-16172	-2020	-32	55	-31	-179	-3148	-2368	16304	-402	-116	-141	-9824	4092	13020	-9	-116	-195	-16720	1016	-816	-894	-4	-318	-1052	2992	16780	-155	418	575	126	123	5
-10444	-3744	11336	-130	152	-236	-16144	-1968	-16	-111	-82	-135	-3264	-2340	16404	-255	-54	-102	-9808	4040	13000	-14	-141	-238	-16764	596	-688	-574	-17	-253	-1340	2656	16768	-90	252	557	125	123	5
-10388	-3792	11396	-106	166	-204	-16028	-1876	-36	-157	-107	-127	-3144	-2268	16300	-213	-60	-15	-9792	4096	13044	5	-113	-192	-16684	396	-712	15	-82	-130	-1368	2504	16968	62	50	403	125	122	5
-10424	-3844	11328	-127	123	-223	-16100	-1916	-4	-258	-91	-104	-3080	-2244	16372	-108	-119	126	-9804	4008	13060	81	-70	-192	-16816	464	-544	564	-101	-36	-1088	2732	17044	128	44	65	124	122	5
-10432	-3764	11448	-99	127	-202	-16136	-1936	120	-159	-104	-99	-2900	-2280	16372	-37	-95	151	-9732	4100	13052	156	-13	-194	-16748	656	-692	927	-69	35	-1008	3048	16992	145	71	-209	124	122	5
-10476	-3832	11552	-111	124	-209	-16100	-1924	188	-61	-83	-127	-2992	-2248	16448	44	-130	225	-9784	4148	12952	139	-12	-139	-16680	1080	-720	906	-19	50	-976	3288	16820	70	93	-343	124	122	5
-10424	-3748	11384	-130	134	-214	-16108	-1964	76	80	-87	-66	-2972	-2240	16384	68	-138	227	-9788	4120	13016	182	-3	-137	-16600	1420	-732	370	-26	127	-1064	3376	16800	-91	40	-395	124	123	5
-10456	-3832	11420	-116	165	-202	-16064	-1984	136	106	-15	-105	-2916	-2220	16364	91	-171	309	-9764	4072	13036	158	-27	-171	-16676	1380	-752	-376	1	147	-1060	3400	16832	-340	-4	-442	125	123	5
-10468	-3820	11372	-103	137	-207	-16096	-2052	-4	141	1	-42	-2924	-2276	16432	59	-138	291	-9812	4108	12952	147	0	-158	-16700	1048	-912	-622	30	185	-1092	3284	16772	-386	-14	-440	125	123	5
-10448	-3832	11528	-54	128	-196	-16028	-2068	-44	68	-21	-27	-2840	-2308	16332	72	-137	199	-9888	4044	13052	184	8	-139	-16684	1004	-788	-610	45	149	-1072	3128	16732	-407	-47	-507	125	123	5
-10448	-3812	11412	-85	109	-189	-16060	-1972	92	2	2	39	-2892	-2268	16444	43	-35	83	-9820	4056	13048	195	9	-130	-16656	856	-724	-87	9	185	-976	2996	16828	-423	-92	-531	125	123	5
-10420	-3724	11400	-75	100	-159	-16132	-1948	28	-23	12	39	-2992	-2216	16444	-19	-3	3	-9792	4112	12916	202	-48	-134	-16688	1012	-864	205	-76	220	-972	3124	16716	-302	-78	-548	126	123	5
-10480	-3728	11312	-65	104	-151	-16124	-1852	-48	-125	3	55	-3120	-2132	16360	-47	-18	-124	-9804	4076	12968	171	-7	-178	-16688	1156	-872	407	-100	179	-964	3180	16728	-230	-119	-431	126	122	5
-10424	-3820	11332	-24	109	-144	-16024	-1876	64	-113	-12	64	-3192	-2124	16296	-84	-79	-154	-9752	4072	12960	135	-6	-157	-16588	1176	-832	456	-141	152	-1020	3300	16656	-187	-109	-280	125	123	5
-10476	-3772	11372	-67	89	-162	-16168	-1808	-16	5	-37	65	-3184	-2080	16452	-102	-125	-129	-9764	4156	12948	161	-6	-168	-16620	1204	-892	363	-142	139	-1000	3236	16764	-172	-90	-90	125	123	5
-10436	-3784	11364	-76	97	-181	-16088	-1724	-128	63	-102	42	-3128	-2040	16484	-50	-168	-98	-9812	4076	13004	148	-37	-189	-16684	1168	-748	227	-130	123	-920	3112	16796	-173	-34	-60	124	124	5
-10372	-3776	11448	-77	126	-188	-16084	-1688	-108	45	-111	-15	-3228	-2036	16328	-48	-153	-10	-9768	4152	13056	131	-23	-158	-16680	1036	-768	126	-150	148	-940	2960	16776	-165	-4	-51	124	125	5
-10440	-3744	11492	-99	124	-216	-16092	-1680	12	-21	-159	-72	-3076	-2036	16428	-33	-135	144	-9760	4064	12916	173	10	-134	-16684	988	-744	49	-145	159	-880	2820	16824	-98	39	-100	124	125	5
-10460	-3744	11400	-141	127	-213	-16056	-1744	12	-22	-154	-95	-2908	-2180	16424	51	-125	248	-9796	4156	13060	164	-47	-159	-16700	848	-644	68	-114	217	-840	2724	16964	54	115	-88	124	125	5
-10500	-3832	11416	-116	132	-229	-16088	-1836	160	-4	-141	-76	-2868	-2256	16432	124	-127	309	-9744	4052	12924	174	47	-155	-16684	964	-676	101	-113	272	-856	2772	16888	181	121	-183	124	125	5
-10432	-3792	11392	-152	124	-246	-16112	-2060	152	104	-74	-98	-2904	-2276	16392	181	-135	291	-9760	4072	12948	232	-4	-103	-16704	1040	-548	183	-72	306	-872	2764	16948	296	109	-251	125	125	5
-10496	-3764	11336	-115	149	-209	-16080	-2020	112	177	-84	-83	-2904	-2292	16420	174	-138	295	-9840	4136	12996	201	76	-137	-16584	992	-660	234	-41	326	-956	2892	16928	279	74	-289	125	125	5
-10392	-3736	11384	-157	123	-205	-16088	-1976	188	105	-27	-91	-2872	-2232	16444	148	-175	210	-9772	4076	12896	272	31	-178	-16652	1120	-640	251	27	364	-932	2980	16928	270	15	-325	125	126	5
-10404	-3828	11408	-114	151	-189	-16060	-1980	64	-8	-29	-32	-2996	-2300	16388	96	-233	183	-9736	4040	13080	226	59	-122	-16764	1076	-668	177	40	397	-1132	3032	16900	393	20	-547	126	125	5
-10424	-3800	11292	-90	129	-173	-16120	-1960	12	-54	-35	-39	-2876	-2280	16500	69	-218	138	-9764	4120	12960	256	51	-130	-16620	1032	-744	220	40	400	-1196	3116	16840	179	-121	-571	126	125	5
-10440	-3804	11324	-112	118	-190	-16096	-2020	64	-125	0	15	-3004	-2292	16304	81	-205	107	-9828	4144	12904	247	71	-120	-16608	1188	-840	237	40	428	-1272	3244	16852	-2	-142	-599	125	125	5
-10404	-3788	11324	-53	74	-186	-16072	-2016	92	-78	-30	57	-2940	-2352	16292	95	-152	23	-9776	4072	12992	258	70	-124	-16608	1244	-860	194	-8	407	-1248	3236	16768	-32	-217	-566	125	125	5
-10396	-3772	11352	-66	103	-177	-16052	-1944	-68	63	-57	68	-3008	-2196	16352	80	-118	-77	-9784	4160	12872	225	-18	-125	-16608	1348	-820	123	-21	420	-948	3108	16740	-67	-260	-483	125	124	5
-10468	-3776	11404	-47	109	-177	-16096	-1836	-140	142	-45	72	-3056	-2172	16420	94	-89	-96	-9840	4112	12824	216	25	-130	-16640	1248	-776	136	-57	398	-992	3128	16768	-170	-298	-479	125	124	5
-10432	-3740	11424	-25	105	-195	-16132	-1784	-96	108	-92	71	-2988	-2064	16408	108	8	-59	-9824	4080	12828	213	47	-131	-16684	1088	-908	233	-82	371	-256	3008	16980	-69	-112	-442	125	124	5
-10464	-3796	11520	-67	100	-176	-16080	-1716	-8	51	-113	38	-3084	-2044	16392	76	-23	-42	-9804	4092	13008	237	34	-172	-16644	1184	-808	338	-107	373	-788	3052	16968	50	-36	-488	124	123	5
-10448	-3748	11380	-90	91	-195	-16068	-1704	120	-11	-114	17	-2824	-1944	16372	-68	30	61	-9808	4128	12952	230	96	-111	-16676	1372	-708	351	-92	341	-700	3068	16772	28	22	-419	124	123	5
-10440	-3784	11348	-73	88	-208	-16012	-1784	240	-99	-127	9	-2776	-1936	16400	-112	15	16	-9852	4164	12960	203	35	-117	-16632	1476	-612	300	-44	326	-1236	2988	16684	113	-127	-287	124	123	5
-10432	-3848	11436	-60	91	-160	-16028	-1828	276	-88	-120	-59	-2720	-2076	16480	-206	41	31	-9788	4144	13020	205	6	-155	-16664	1496	-588	189	-50	249	716	2864	16840	416	247	-303	124	123	5
-10436	-3692	11496	-83	109	-190	-16144	-1844	308	-53	-21	-22	-2556	-2284	16492	-319	73	-46	-9800	4204	13032	226	14	-142	-16644	1412	-628	122	5	295	756	2948	16660	235	58	-315	124	123	5
-10460	-3832	11324	-97	122	-195	-16112	-1992	448	12	33	-18	-2540	-2316	16556	-333	90	16	-9816	4168	12888	183	22	-181	-16620	1280	-556	175	75	266	1072	2768	17372	417	284	-534	124	122	5
-10508	-3800	11476	-57	167	-167	-16112	-2172	300	213	118	57	-2608	-2444	16604	-333	67	-82	-9828	4192	12980	182	59	-172	-16620	1376	-536	168	101	233	-1168	3384	17004	-101	-100	-732	123	120	5
-10464	-3792	11364	-15	130	-146	-16056	-2056	284	291	177	134	-2840	-2348	16360	-315	39	-193	-9796	4192	12956	196	91	-192	-16676	1444	-796	153	149	207	-260	3280	16824	-236	-17	-814	123	118	5
-10516	-3828	11432	-10	133	-104	-16088	-1972	108	172	206	141	-2968	-2536	16280	-162	-45	-209	-9824	4200	12920	170	105	-198	-16568	1496	-664	180	162	158	-368	3268	16656	-643	257	-913	122	116	5
-10380	-3784	11468	-11	128	-114	-16044	-2004	-124	49	218	191	-3232	-2516	16224	19	-141	-262	-9824	4184	12928	174	36	-196	-16612	1488	-776	109	193	103	88	3072	16656	-507	497	-917	122	115	5
-10412	-3784	11420	6	81	-87	-16052	-1852	-136	-5	174	211	-3384	-2264	16176	109	-243	-339	-9848	4036	12984	141	23	-190	-16624	1536	-688	1	189	15	-760	2996	16768	-440	706	-615	122	115	5
-10416	-3784	11444	33	93	-89	-16136	-1640	-236	-72	165	170	-3448	-2152	16384	215	-438	-193	-9824	4208	12800	120	20	-171	-16632	1376	-852	-90	136	-32	-1296	2908	16796	-359	672	-433	122	117	5
-10408	-3672	11484	-18	66	-115	-16116	-1676	-288	-187	80	169	-3500	-2108	16180	181	-434	-144	-9864	4152	12996	159	-36	-191	-16680	1248	-856	-74	131	-8	-1440	2812	16860	-222	580	-356	121	119	5
-10496	-3716	11436	-2	62	-159	-16248	-1808	-172	-129	71	165	-3580	-1064	16512	124	-533	-50	-9848	4180	12844	129	22	-205	-16700	1196	-948	49	83	-10	-1320	2736	16740	-116	515	-333	121	119	5
-10380	-3704	11388	-4	107	-153	-16124	-1704	-136	135	4	112	-3208	-2040	16496	404	-634	74	-9868	4236	12932	145	-33	-215	-16664	1172	-912	165	49	17	-944	2644	16848	117	650	-223	121	120	5
-10436	-3688	11388	-52	125	-162	-16180	-1604	-224	280	-26	68	-3380	-1840	16332	409	-685	179	-9840	4168	13044	129	16	-210	-16700	1212	-1028	184	-30	36	-1656	2544	16452	150	685	288	120	125	5
-10424	-3752	11436	-73	102	-210	-16188	-1508	-304	199	-42	5	-3308	-1628	16512	247	-567	439	-9788	4200	12996	85	-35	-175	-16672	1324	-948	92	-89	29	-3232	4108	17440	1165	947	-106	120	126	5
-10460	-3748	11352	-86	164	-224	-16156	-1640	-128	79	-145	-44	-3164	-1904	16480	322	-619	641	-9796	4228	12972	159	-60	-196	-16684	1220	-908	-15	-110	74	-3228	3308	16604	164	194	-56	120	125	5
-10500	-3724	11448	-146	186	-244	-16096	-1620	-108	-32	-163	-91	-3116	-2008	16352	264	-730	720	-9836	4128	13024	125	-55	-179	-16740	1124	-888	20	-133	100	-1876	3196	16868	250	-25	-9	120	124	5
-10448	-3736	11348	-166	143	-280	-16148	-1768	-56	-112	-174	-74	-2988	-2164	16380	273	-672	914	-9876	4116	12952	148	-57	-149	-16664	1300	-708	109	-127	98	-1072	3072	16948	-96	-48	31	121	123	5
-10448	-3724	11408	-143	174	-237	-16148	-1812	20	-74	-201	-106	-2808	-2580	16440	380	-632	1036	-9844	4152	12836	124	-72	-165	-16616	1436	-724	0	-100	64	-972	2996	16752	-126	136	129	122	123	5
-10488	-3772	11380	-150	172	-239	-16072	-2096	-8	-68	-210	-23	-2728	-2672	16404	588	-681	1112	-9828	4196	12892	90	-87	-166	-16644	1372	-824	-118	-133	30	-1124	2840	16848	222	261	328	124	123	5
-10448	-3772	11396	-93	146	-234	-16096	-2212	-60	110	-207	7	-2832	-2624	16512	722	-497	948	-9868	4212	13016	86	-37	-180	-16636	1256	-868	-129	-113	40	-1024	2664	16416	144	129	289	126	124	5
-10520	-3796	11336	-62	105	-176	-16072	-2028	16	145	-200	87	-1996	-2312	16380	812	-283	1037	-9864	4212	12924	111	-38	-175	-16672	1220	-800	29	-132	15	-1880	2844	16440	56	-42	294	128	124	5
-10416	-3704	11424	-27	106	-166	-16032	-1756	68	113	-209	134	-2480	-2052	16488	830	-205	752	-9796	4176	13008	133	-92	-169	-16668	1188	-828	152	-137	48	-2136	3596	16348	-334	28	160	129	122	5
-10444	-3856	11432	32	52	-185	-16012	-1880	180	-162	-100	209	-648	-1640	16232	582	-339	123	-9780	4192	13012	110	-47	-185	-16632	1176	-768	224	-102	92	-1532	2936	16844	320	227	124	130	122	5
-10428	-3808	11312	20	64	-129	-15972	-1904	108	-30	-77	151	-1760	-1412	16436	-129	644	-261	-9820	4168	12964	112	-62	-160	-16612	1140	-568	208	-116	105	-1172	2776	16948	144	69	110	130	121	5
-10428	-3840	11456	78	79	-91	-16084	-1508	184	-70	-20	147	-1772	-1712	16940	-601	2041	-426	-9744	4180	12840	124	-59	-146	-16676	1180	-756	144	-76	106	-228	1864	16828	485	-364	365	130	123	5
-10472	-3676	11548	27	69	-135	-16220	-1420	96	-134	-1	110	-4436	-1900	15424	-409	822	-410	-9828	4240	12964	144	1	-193	-16608	1048	-676	51	-34	99	-1360	2904	17064	610	-112	250	126	129	5
-10424	-3680	11412	-2	99	-127	-16128	-1520	68	-187	22	88	-3940	-1940	16444	-485	-212	-156	-9796	4140	12972	142	2	-157	-16704	1056	-672	9	36	201	-1568	2876	17032	431	64	-186	127	129	5
-10344	-3628	11416	-11	125	-153	-16204	-1588	-4	-83	26	8	-3372	-2176	16480	90	212	59	-9788	4160	12888	175	-58	-130	-16676	1064	-712	107	28	198	-1192	2780	16812	233	-114	-194	127	129	5
-10440	-3668	11416	-81	141	-153	-16168	-1684	-4	135	43	-36	-3628	-1908	16512	77	-345	62	-9816	4156	12964	167	36	-176	-16680	1304	-860	182	26	191	-1288	2924	16928	149	-107	-108	127	129	5
-10480	-3732	11440	-73	154	-150	-16100	-1656	-92	299	35	-103	-3024	-1876	16312	187	-172	134	-9816	4156	13076	165	-3	-119	-16652	1476	-828	68	19	178	-1248	3104	16828	289	14	-130	127	129	5
-10460	-3640	11500	-96	154	-189	-16080	-1472	-48	222	-14	-116	-2948	-1812	16412	181	-240	149	-9808	4212	12988	150	25	-166	-16648	1432	-880	-109	17	177	-1288	3024	16828	243	15	-22	126	129	5
-10444	-3716	11476	-123	175	-227	-16148	-1392	16	189	-10	-76	-2848	-1740	16356	148	-239	193	-9900	4216	12884	171	-11	-158	-16640	1324	-816	-75	28	134	-1344	3096	16876	232	21	1	127	128	5
-10432	-3680	11456	-150	206	-214	-16112	-1588	16	-94	-84	-162	-2960	-1704	16424	55	-195	366	-9808	4104	12972	112	-39	-180	-16660	1332	-804	20	-31	108	-1208	3092	16836	270	43	-2	126	128	5
-10384	-3744	11444	-181	200	-215	-16128	-1668	-52	-92	-49	-183	-2976	-1832	16352	-118	-207	304	-9888	4168	12824	90	-21	-213	-16600	1356	-900	87	-2	67	-1172	3172	16772	223	6	28	126	128	5
-10480	-3748	11452	-168	193	-248	-16104	-1744	-4	-83	-70	-238	-3016	-1912	16300	-262	-255	239	-9808	4148	12936	108	-72	-195	-16624	1368	-728	59	-24	16	-1180	3220	16788	126	40	54	126	128	5
-10420	-3704	11372	-188	229	-274	-16060	-1820	-108	-92	-79	-250	-3052	-2044	16336	-298	-233	188	-9836	4160	12936	123	-106	-205	-16620	1408	-848	97	-11	-35	-1152	3196	16804	29	50	114	126	128	5
-10436	-3752	11500	-155	186	-224	-16160	-1784	-100	-87	-86	-207	-3100	-2288	16376	-279	-247	139	-9840	4180	13008	103	-106	-187	-16656	1400	-740	29	-88	-43	-1320	3148	16796	0	32	138	125	128	5
-10420	-3684	11412	-206	198	-245	-16024	-1740	4	-98	-162	-182	-2940	-2328	16352	-177	-227	194	-9816	4176	12944	65	-98	-207	-16652	1416	-940	-59	-65	-74	-1256	3104	16728	-13	65	220	125	127	5
-10428	-3736	11404	-206	186	-245	-16200	-1832	-36	-118	-141	-148	-2924	-2380	16428	-76	-180	224	-9828	4176	12968	30	-83	-211	-16608	1284	-744	-122	-44	-92	-1508	3000	16800	-11	86	253	125	127	5
-10528	-3564	11620	-270	267	-280	-16188	-1860	-32	-145	-188	-126	-2868	-2364	16368	80	-82	195	-9952	4196	12960	45	-105	-243	-16640	1096	-816	-12	-87	-45	-1396	2752	16868	-9	39	250	125	127	5
-10492	-3848	11300	-155	146	-240	-16028	-2060	176	-173	-139	-131	-2776	-2140	16360	131	-91	283	-9832	4112	13004	39	-59	-195	-16696	1092	-908	71	-62	-55	-1320	2780	16876	61	79	244	125	127	5
-10500	-3528	11432	-115	187	-211	-16096	-2000	132	18	-164	-86	-2952	-2260	16332	104	-105	244	-9760	4156	13004	89	-104	-190	-16664	1088	-820	108	-64	-66	-1432	2700	16908	95	42	204	125	127	5
-10444	-3752	11380	-110	116	-264	-16108	-1872	236	3	-115	-78	-2792	-2160	16460	138	-156	178	-9800	4060	13020	63	-62	-190	-16672	1056	-800	99	-61	-39	-1208	2796	16760	168	46	168	125	127	5
-10432	-3812	11424	-87	115	-202	-16104	-1964	112	18	-72	9	-2764	-2244	16504	53	-116	74	-9824	4180	12960	108	-10	-210	-16676	1092	-656	75	-108	8	-1272	2760	16856	167	45	120	125	127	5
-10460	-3872	11480	-46	100	-215	-16124	-1980	32	66	-90	43	-2776	-2144	16348	41	-116	-14	-9780	4084	13016	78	-32	-205	-16632	1080	-788	-26	-54	19	-1312	2880	16852	63	69	67	125	127	5
-10356	-3808	11288	-29	114	-175	-16032	-1848	108	3	-74	68	-2864	-2196	16396	35	-114	-34	-9860	4104	12892	122	-20	-192	-16624	1056	-836	-64	-85	28	-1356	2812	16756	44	20	-2	125	127	5
-10448	-3808	11368	-43	133	-161	-16120	-1808	20	-31	-55	87	-2840	-2260	16344	-10	-155	-40	-9848	4096	12896	113	-11	-165	-16700	1056	-744	45	-88	101	-1460	2728	16916	6	33	-17	125	127	5
-10460	-3824	11428	-21	84	-180	-16064	-1880	60	9	-30	76	-2912	-2356	16388	50	-129	-69	-9840	4196	12872	164	-19	-154	-16712	1084	-808	44	-103	153	-1304	2620	16752	50	14	-40	125	127	5
-10524	-3748	11504	-55	80	-178	-16068	-1884	44	15	-61	92	-2884	-2148	16420	180	-116	-88	-9832	4152	12840	137	-27	-178	-16652	1104	-840	92	-71	134	-1276	2636	16848	168	26	-56	124	127	5
-10468	-3804	11412	-7	69	-146	-16116	-1852	108	86	-90	111	-2944	-2076	16372	189	-95	-11	-9840	4112	13020	126	-27	-162	-16576	1136	-664	170	-71	185	-1356	2688	17084	192	23	-30	124	126	5
-10448	-3716	11400	-42	37	-150	-16048	-1680	-28	127	-103	106	-2916	-1952	16428	220	-108	39	-9792	4120	12992	133	-23	-142	-16588	1132	-764	134	-51	178	-1224	2792	16932	256	-10	-9	125	126	5
-10448	-3800	11416	-58	74	-154	-16072	-1676	124	25	-40	101	-2072	-1792	16068	-258	-950	-732	-9736	4164	12968	179	-43	-143	-16636	1148	-768	121	-70	183	-1136	2772	16876	273	20	53	124	127	5
-10436	-3808	11480	-27	61	-167	-16152	-1668	-24	8	-74	79	-3076	-1996	16208	-333	-595	-655	-9832	4112	12916	170	-64	-148	-16664	1160	-712	85	-61	215	-1064	2804	16960	324	76	14	123	126	5
-10472	-3784	11384	-72	76	-145	-16108	-1720	272	61	-58	59	-2668	-1848	16484	-254	-826	-389	-9824	4084	12964	133	-8	-155	-16680	1184	-808	76	16	209	-1160	2896	16880	315	93	-39	122	126	5
-10428	-3768	11420	-76	66	-132	-16080	-1428	44	57	-26	-12	-2916	-1900	16352	36	-637	-211	-9784	4144	12996	155	-6	-146	-16604	1212	-700	50	29	201	-1116	2944	16924	272	99	-69	121	126	5
-10360	-3720	11396	-67	103	-156	-16228	-1260	88	-191	-2	-63	-2468	-1524	16904	-210	-456	-277	-9772	4172	12928	175	-33	-153	-16644	1284	-792	64	26	183	-1136	3012	16880	252	82	-80	121	126	5
-10464	-3744	11468	-121	173	-188	-16188	-1444	220	-459	-26	-116	-2964	-1368	16452	-411	-407	-47	-9808	4172	12964	146	17	-170	-16624	1296	-640	40	44	145	-1216	3036	16932	211	88	-98	120	126	5
-10396	-3728	11476	-133	186	-166	-16164	-1552	228	-399	20	-211	-2996	-2120	16456	-549	-591	264	-9784	4124	12888	163	-25	-180	-16664	1352	-728	73	70	146	-1192	3092	16824	178	128	-73	120	126	5
-10416	-3736	11400	-153	185	-218	-16104	-1732	196	-137	39	-269	-2972	-2496	16248	-85	-739	418	-9872	4156	12936	101	-12	-142	-16660	1288	-720	99	66	94	-1176	3028	16776	155	146	-89	121	126	5
-10476	-3784	11356	-174	170	-200	-16116	-2084	140	145	74	-196	-3864	-3240	15876	723	-960	606	-9844	4180	13020	124	8	-186	-16668	1304	-864	171	112	41	-1180	2992	16756	96	88	-70	121	126	5
-10464	-3776	11308	-144	157	-184	-16144	-2272	196	332	116	-155	-3432	-2704	16276	381	-1207	-223	-9788	4208	13040	98	-27	-221	-16652	1336	-840	196	83	34	-1140	3036	16852	51	100	-90	122	126	5
-10464	-3892	11324	-40	109	-160	-16088	-2048	16	482	110	-80	-1516	-2116	16336	196	-1077	-185	-9800	4148	12904	101	-2	-219	-16612	1388	-816	121	108	-18	-1224	3156	16748	84	40	-24	122	126	5
-10408	-3788	11416	-41	67	-140	-16180	-1720	-44	421	114	-82	-1492	-1640	16716	-292	-257	-178	-9808	4148	12852	103	-53	-183	-16600	1356	-816	3	123	-58	-1224	3060	16796	116	69	63	121	126	5
-10472	-3728	11392	-80	126	-154	-16168	-1396	100	-123	79	-58	-2360	-1884	16492	-387	31	-67	-9808	4204	12980	46	-16	-212	-16664	1352	-844	-58	106	-60	-1296	3112	16796	61	72	102	121	126	5
-10476	-3664	11316	-77	123	-174	-16100	-1596	4	-636	52	-62	-2704	-1992	16500	-408	30	-135	-9840	4232	12996	95	-55	-208	-16656	1124	-900	-60	102	-73	-1376	2940	16812	-9	77	121	121	126	5
-10480	-3796	11380	-82	124	-148	-16108	-2020	132	-718	71	2	-2764	-2292	16380	-480	-68	-116	-9796	4128	13036	70	-10	-231	-16584	1132	-856	-8	90	-95	-1480	2880	16856	-64	94	133	120	126	5
-10428	-3804	11368	-64	122	-160	-16076	-2108	-4	-150	100	-1	-2936	-2496	16300	-311	-264	-169	-9764	4200	12976	59	-84	-200	-16684	1012	-1060	74	12	-84	-1676	2784	16812	-25	42	130	120	126	5
-10476	-3744	11468	-33	106	-141	-16120	-1956	-124	255	101	0	-3008	-2476	16324	-88	-328	-218	-9824	4128	12876	69	-66	-190	-16656	1044	-1024	156	-19	-65	-1596	2796	16824	11	25	127	120	126	5
-10444	-3688	11404	-36	112	-152	-16172	-1656	-292	332	98	-11	-2972	-2348	16444	79	-393	-169	-9852	4072	12968	87	-53	-171	-16688	1036	-944	171	-78	-41	-1572	2712	16924	84	51	132	120	126	5
-10456	-3776	11444	-45	102	-141	-16168	-1592	-188	155	18	-30	-3112	-2244	16496	257	-417	-27	-9828	4104	12888	112	-40	-142	-16684	1040	-888	107	-112	10	-1556	2748	16916	84	59	125	120	126	5
-10468	-3716	11368	-90	117	-184	-16128	-1572	-168	11	-48	-37	-3120	-2160	16404	320	-408	264	-9808	4120	12976	110	-47	-171	-16684	1028	-840	50	-116	49	-1484	2692	16848	80	33	127	121	126	5
-10432	-3724	11388	-119	134	-212	-16196	-1596	-116	-60	-105	-85	-2668	-2020	16436	412	-280	301	-9816	4120	12992	139	-18	-213	-16672	1040	-856	-16	-87	50	-1428	2632	16892	79	-5	79	122	126	5
-10476	-3736	11404	-127	138	-203	-16156	-1600	-172	-150	-167	-108	-2444	-1948	16416	237	-19	245	-9852	4092	12948	112	1	-165	-16628	1056	-760	-7	-126	124	-1264	2672	16796	78	-17	58	123	126	5
-10480	-3724	11440	-134	123	-203	-16100	-1748	-88	-126	-175	-149	-2524	-1900	16420	118	25	103	-9820	4072	13004	133	-73	-155	-16564	996	-744	30	-88	81	-1284	2652	16952	143	-1	57	123	126	5
-10392	-3708	11520	-143	153	-236	-16148	-1716	116	-27	-176	-140	-2520	-1708	16372	-66	-47	-83	-9792	4132	13028	157	-33	-156	-16672	1168	-792	32	-93	162	-1364	2744	16852	242	15	11	123	126	5
-10476	-3724	11488	-164	140	-246	-16128	-1684	76	53	-154	-191	-2512	-1876	16488	-220	-63	-22	-9836	4104	13000	141	-10	-184	-16676	1108	-748	66	-85	152	-1308	2796	16840	264	5	20	123	126	5
-10424	-3704	11404	-164	168	-235	-16164	-1616	172	10	-137	-294	-2644	-1896	16480	-494	-136	33	-9804	4124	12992	142	-4	-162	-16652	1144	-892	101	-55	143	-1316	2920	16824	198	-21	47	123	126	5
-10420	-3756	11468	-195	176	-210	-16220	-1540	88	-125	-99	-287	-2896	-2144	16548	-505	-277	296	-9768	4132	12956	143	-29	-123	-16668	1212	-736	114	-91	145	-1248	2916	16756	167	-26	39	123	126	5
-10464	-3728	11456	-201	168	-236	-16136	-1764	104	-283	-131	-300	-2928	-2472	16356	-246	-459	604	-9784	4132	12940	137	-21	-125	-16640	1244	-680	62	-43	126	-1052	2868	16852	183	-26	24	124	126	5
-10520	-3752	11384	-216	209	-230	-16072	-1956	212	-231	-74	-349	-2320	-2468	16364	-100	-478	655	-9792	4176	12908	112	-33	-208	-16612	1272	-768	-9	-5	92	-1180	2812	16904	211	-36	67	125	126	5
-10396	-3780	11372	-209	202	-222	-16052	-2004	56	-42	-73	-263	-1984	-2412	16444	-13	-376	549	-9796	4128	12992	132	-48	-193	-16644	1184	-888	-53	45	118	-1236	2832	16932	263	16	76	126	126	5
-10456	-3764	11396	-133	182	-211	-16120	-2044	16	80	-34	-232	-2564	-2456	16492	-77	-346	469	-9764	4108	13016	121	-33	-162	-16652	1112	-864	-18	-1	59	-1360	2964	16784	238	6	103	126	126	5
-10480	-3784	11416	-137	159	-232	-16004	-2060	-4	139	-37	-212	-2508	-2508	16348	19	-341	474	-9784	4100	12988	118	-9	-165	-16660	1080	-868	62	-39	69	-1380	2940	16884	230	16	105	127	126	5
-10476	-3812	11344	-120	145	-190	-16036	-2020	176	55	-41	-167	-2420	-2500	16484	50	-258	428	-9840	4128	12948	141	-64	-175	-16628	1076	-964	105	-53	80	-1488	3000	16848	140	47	102	127	126	5
-10408	-3780	11428	-89	133	-190	-16128	-2048	48	25	-34	-74	-2452	-2580	16280	-15	-220	453	-9828	4108	12928	149	-19	-214	-16608	1056	-1008	100	-81	94	-1552	2896	16912	148	56	66	128	126	5
-10432	-3796	11356	-94	103	-195	-16096	-2084	144	-32	-44	-62	-2512	-2692	16388	99	-166	367	-9752	4152	12924	143	-55	-146	-16628	1068	-892	75	-74	110	-1468	2872	16904	156	67	34	128	126	5
-10496	-3752	11248	-32	128	-157	-16088	-2216	-152	-99	-44	61	-2456	-2700	16308	253	-211	313	-9780	4104	12928	166	-14	-173	-16612	1064	-912	70	-150	150	-1480	2812	16884	152	25	29	129	126	5
-10456	-3768	11412	-8	60	-137	-16088	-2160	28	-40	-11	144	-2480	-2592	16404	337	-165	205	-9772	4116	12964	152	-53	-124	-16668	1064	-876	55	-140	192	-1400	2704	16804	114	15	-33	129	126	5
-10444	-3800	11396	47	67	-118	-16092	-1952	124	73	-46	164	-2484	-2496	16304	392	-100	66	-9772	4068	13104	146	-32	-166	-16656	1048	-736	76	-124	202	-1356	2668	16880	126	33	-28	129	126	5
-10448	-3680	11428	71	55	-133	-16024	-2012	-84	51	-42	195	-2500	-2408	16384	406	-34	-2	-9836	4100	12876	138	-17	-151	-16648	1088	-824	98	-122	211	-1244	2604	16880	176	-41	-18	129	126	5
-10460	-3720	11396	26	38	-136	-16168	-1852	40	96	-54	290	-2568	-2276	16500	422	39	-35	-9784	4152	12944	184	-39	-139	-16684	1076	-784	127	-67	253	-1256	2604	16916	288	-41	-35	129	126	5
-10436	-3712	11392	38	42	-145	-16060	-1752	28	159	-65	265	-2520	-2044	16480	462	20	-34	-9800	4084	12908	194	-1	-128	-16596	1112	-732	166	-63	308	-1236	2652	16892	423	-38	-61	129	126	5
-10416	-3712	11460	-9	43	-130	-16176	-1664	52	124	-58	264	-2588	-1900	16504	398	6	-89	-9836	4136	13024	181	-1	-157	-16660	1060	-768	171	-75	273	-1152	2776	16868	455	-50	-91	128	126	5
-10420	-3740	11364	-28	52	-162	-16176	-1504	64	147	-57	229	-2544	-1764	16428	342	-46	-119	-9792	4148	12952	214	-33	-119	-16640	1212	-796	182	62	308	-1160	2872	16856	440	-52	-130	128	126	5
-10436	-3656	11392	6	43	-162	-16112	-1508	36	12	-88	104	-2528	-1552	16500	152	-29	-117	-9784	4160	13040	185	19	-150	-16608	1244	-672	134	32	268	-1148	2968	16860	393	-99	-164	128	126	5
-10420	-3724	11432	-83	69	-181	-16172	-1400	-8	4	-104	134	-2548	-1516	16560	-42	3	-106	-9824	4148	12988	195	-13	-134	-16604	1440	-600	93	52	284	-976	3068	16848	307	-95	-129	128	126	5
-10396	-3704	11400	-104	115	-186	-16148	-1312	136	-144	-103	-46	-2600	-1524	16488	-133	26	-35	-9784	4176	12992	168	20	-152	-16680	1448	-604	3	126	210	-904	3180	16832	313	-55	-65	127	126	5
-10404	-3640	11500	-142	157	-221	-16196	-1400	76	-155	-86	-145	-2740	-1664	16632	-191	-109	258	-9820	4160	13008	144	42	-190	-16628	1436	-812	-27	157	98	-1028	3220	16760	365	22	-66	127	127	5
-10404	-3728	11396	-164	168	-241	-16140	-1416	124	-132	-55	-294	-2932	-1716	16468	-129	-376	510	-9792	4208	13060	123	-22	-200	-16644	1476	-800	15	103	-6	-1248	3428	16816	306	30	-13	127	126	5
-10412	-3760	11408	-190	206	-257	-16112	-1552	96	-6	-6	-330	-2684	-1880	16408	-89	-654	636	-9804	4200	13028	139	-24	-221	-16668	1496	-1016	36	104	-34	-1388	3448	16776	181	69	17	128	127	5
-10480	-3712	11424	-221	218	-238	-16096	-1764	88	63	25	-407	-2516	-1936	16604	-61	-752	694	-9812	4220	13060	82	-22	-211	-16680	1516	-1068	25	75	-110	-1480	3476	16876	27	66	107	129	127	5
-10404	-3744	11356	-229	237	-226	-16124	-1852	8	116	11	-402	-2288	-1960	16456	-256	-554	499	-9796	4140	12916	47	-58	-214	-16608	1384	-1020	-7	-37	-160	-1568	3360	16692	-128	96	161	130	127	5
-10484	-3776	11328	-178	225	-241	-16076	-1892	-52	87	-15	-402	-2124	-2220	16320	-367	-277	477	-9812	4120	13052	22	-101	-224	-16720	1308	-1040	-4	-68	-201	-1660	3176	16784	-285	126	254	130	127	5
-10504	-3804	11420	-220	221	-222	-16132	-1988	-88	-44	-22	-370	-2724	-2560	16540	-190	-350	501	-9808	4148	13000	0	-89	-225	-16640	1148	-1108	35	-110	-230	-1504	3036	16772	-285	126	250	131	127	5
-10444	-3788	11524	-202	189	-210	-16216	-2028	-160	-155	-76	-301	-2324	-2380	16484	-209	-70	379	-9768	4100	12900	58	-109	-221	-16584	1212	-1192	53	-223	-307	-1484	3008	16792	-353	157	324	132	127	5
-10476	-3804	11344	-149	152	-263	-16036	-2160	-124	-192	-108	-250	-2576	-2824	16232	-101	-183	441	-9780	4148	12912	10	-144	-205	-16624	1164	-860	-15	-236	-267	-1428	2820	16792	-404	162	394	132	127	5
-10496	-3796	11368	-145	136	-221	-16040	-2220	-176	-174	-159	-168	-2472	-2648	16340	17	-88	271	-9796	4176	13044	36	-118	-215	-16664	1052	-840	-135	-283	-278	-1308	2508	16928	-335	145	437	132	127	5
-10412	-3872	11432	-92	86	-191	-16064	-2228	40	57	-152	-106	-2416	-2728	16424	67	4	226	-9824	4084	12936	39	-183	-199	-16688	884	-688	-132	-224	-208	-1396	2416	16932	-227	117	478	132	127	5
-10420	-3848	11388	-88	108	-194	-16036	-2064	104	138	-170	-32	-2308	-2664	16436	201	-1	187	-9916	4092	12980	30	-92	-222	-16588	720	-852	-60	-224	-165	-1332	2216	16860	-124	134	389	132	127	5
-10408	-3832	11404	-38	95	-181	-16060	-1988	192	30	-132	110	-2260	-2548	16480	314	39	208	-9804	4000	13164	91	-68	-207	-16628	728	-628	75	-146	-82	-1196	2164	16912	-4	122	280	132	127	5
-10444	-3784	11400	-26	79	-186	-16192	-1960	228	-31	-92	141	-2348	-2444	16364	422	23	320	-9800	3976	12996	109	-65	-203	-16616	668	-472	180	-67	0	-1140	2180	16988	135	42	255	132	127	5
-10424	-3768	11404	-2	76	-135	-16124	-1912	200	-20	-69	112	-2176	-2284	16504	473	-3	334	-9768	4072	12984	155	-71	-166	-16616	724	-692	130	-50	94	-1220	2248	16936	278	25	102	132	127	5
-10420	-3784	11360	13	60	-166	-16020	-1932	268	25	-7	194	-2172	-2172	16552	429	39	176	-9812	4076	13008	180	39	-171	-16752	692	-660	188	-10	180	-1416	2344	17072	384	-29	-38	132	127	5
-10456	-3800	11324	30	41	-140	-16096	-1956	284	37	2	210	-2444	-2116	16580	380	-45	88	-9812	4044	13064	191	-32	-145	-16656	868	-664	129	27	238	-1408	2468	16768	351	-54	-176	132	127	5
-10424	-3764	11356	21	72	-113	-16136	-1836	124	144	83	202	-2340	-2072	16468	378	-51	17	-9864	4108	12928	187	31	-161	-16636	948	-728	74	47	266	-1372	2640	16880	361	-29	-279	132	127	5
-10472	-3732	11328	3	89	-132	-16140	-1768	80	163	89	208	-2376	-1924	16512	310	-5	-55	-9792	4080	12952	195	11	-127	-16688	1024	-780	28	78	346	-1396	2680	16928	326	-37	-311	131	127	5
-10432	-3780	11408	46	98	-125	-16104	-1676	-24	108	142	177	-2556	-1856	16464	213	-15	-94	-9864	4056	13008	206	-2	-129	-16680	1088	-848	77	61	329	-1380	2824	16896	276	-24	-270	131	127	5
-10452	-3768	11472	-1	89	-150	-16148	-1620	4	114	72	130	-2584	-1780	16444	131	27	-132	-9772	4136	12936	225	105	-113	-16632	1108	-816	59	61	323	-1308	2768	16828	276	-49	-259	131	127	5
-10460	-3744	11428	-16	112	-128	-16108	-1552	-80	54	67	106	-2788	-1772	16432	97	-56	-72	-9776	4072	12968	213	7	-149	-16660	1152	-820	162	10	301	-1224	2816	16864	308	-32	-225	130	127	5
-10464	-3676	11424	-19	103	-174	-16196	-1512	16	-44	66	73	-2900	-1776	16360	61	-149	-98	-9744	4152	12944	215	10	-152	-16628	1224	-852	245	23	237	-1276	2840	16912	367	-42	-116	130	127	5
-10484	-3732	11484	-89	122	-154	-16164	-1640	-68	-34	-28	28	-2712	-1784	16544	-8	-160	19	-9804	4124	12876	215	-2	-183	-16728	1348	-936	184	12	295	-1244	2944	16720	445	13	-86	129	127	5
-10440	-3720	11472	-100	108	-202	-16044	-1624	-224	-31	-36	-20	-2776	-1804	16456	-103	-190	-22	-9828	4112	12968	169	30	-189	-16736	1284	-844	116	10	186	-1288	3080	16836	385	11	-36	129	127	5
-10452	-3736	11340	-152	109	-211	-16128	-1576	-140	7	-38	-85	-2676	-1924	16420	-59	-234	117	-9780	4108	13036	121	-27	-148	-16664	1276	-848	125	7	216	-1408	3116	16720	289	28	-8	129	127	5
-10496	-3676	11480	-195	137	-179	-16120	-1676	-48	2	-66	-148	-2772	-1968	16480	-4	-285	241	-9776	4160	13032	155	-25	-171	-16680	1276	-976	-7	-9	130	-1392	3092	16760	236	39	62	128	127	5
-10432	-3716	11428	-131	155	-228	-16092	-1636	16	-76	-114	-167	-2696	-1948	16452	73	-344	327	-9756	4068	12928	124	-49	-172	-16652	1304	-952	-3	-43	114	-1408	3092	16840	127	39	128	129	127	5
-10436	-3692	11544	-154	140	-263	-16148	-1768	76	-14	-132	-186	-2544	-2092	16516	103	-323	364	-9696	4156	12916	100	-24	-181	-16672	1244	-928	1	-72	78	-1340	2996	16948	73	40	114	129	127	5
-10456	-3732	11412	-175	144	-232	-16076	-1824	36	3	-122	-180	-2292	-2052	16388	112	-281	392	-9744	4176	13012	82	-12	-197	-16712	1168	-928	51	-104	18	-1276	2904	16812	48	41	105	129	127	5
-10476	-3728	11380	-187	134	-218	-16080	-1844	132	-55	-153	-195	-2076	-2004	16408	88	-168	301	-9800	4156	12988	99	-98	-166	-16672	1144	-860	117	-42	24	-1300	2928	16740	7	34	154	129	127	5
-10448	-3788	11460	-127	153	-217	-16084	-1788	8	-30	-111	-178	-2112	-1828	16392	-70	-31	165	-9768	4124	12936	82	-9	-216	-16672	1172	-856	121	-71	-33	-1232	2852	16824	41	60	122	129	127	5
-10436	-3776	11484	-148	158	-206	-16068	-1760	84	-84	-85	-175	-2228	-1888	16572	-275	112	84	-9840	4144	12916	79	-71	-194	-16644	1156	-776	56	-7	-32	-1184	2792	16976	40	30	125	129	127	5
-10412	-3776	11384	-142	160	-230	-16140	-1804	132	-134	-84	-205	-2392	-1916	16484	-390	102	54	-9828	4096	12952	82	-11	-190	-16768	1144	-708	20	-36	-24	-1228	2776	16836	61	50	116	129	127	5
-10420	-3792	11328	-126	171	-186	-16068	-1756	128	-160	-64	-187	-2420	-1968	16540	-380	93	43	-9772	4112	13028	58	-63	-227	-16660	1012	-720	-10	-13	-44	-1228	2784	16892	87	16	116	128	127	5
-10452	-3756	11312	-122	162	-200	-16140	-1796	160	-108	-22	-189	-2556	-2156	16408	-318	-38	180	-9768	4144	13116	131	-82	-163	-16636	1032	-864	22	11	-19	-1360	2712	16940	70	27	89	128	127	5
-10452	-3800	11372	-162	165	-187	-16108	-1892	96	-76	-33	-174	-2644	-2248	16488	-224	-137	204	-9824	4120	13032	84	-35	-169	-16648	1008	-784	59	54	-13	-1324	2704	16908	56	29	47	128	127	5
-10452	-3812	11428	-154	164	-198	-16112	-1900	32	-23	-11	-158	-2588	-2316	16428	-185	-182	208	-9780	4124	12908	101	-28	-225	-16660	1004	-800	72	16	24	-1364	2680	16908	63	21	13	128	127	5
-10420	-3808	11488	-109	194	-199	-16164	-1852	-4	38	4	-160	-2576	-2288	16336	-99	-227	146	-9776	4080	12980	118	-23	-197	-16656	1096	-844	76	3	40	-1164	2640	16916	58	32	33	127	127	5
-10420	-3764	11392	-102	154	-200	-16060	-1904	-8	24	8	-158	-2548	-2376	16376	-54	-299	243	-9812	4112	12908	135	-48	-187	-16628	1020	-840	62	32	19	-1460	2640	16840	130	17	26	127	127	5
-10400	-3780	11484	-118	132	-196	-16132	-1916	-80	-9	5	-145	-2544	-2300	16380	10	-250	239	-9816	4144	13100	142	-12	-178	-16684	924	-812	16	-10	61	-1468	2660	16816	178	21	47	128	127	5
-10464	-3768	11464	-117	130	-187	-16144	-1948	-116	-43	-60	-54	-2616	-2376	16428	23	-241	293	-9776	4068	12944	130	6	-189	-16644	1032	-940	46	-40	69	-1496	2616	16868	201	33	27	128	127	5
-10404	-3784	11400	-98	126	-196	-16116	-1924	-16	-88	-89	-74	-2548	-2232	16372	8	-157	180	-9788	4144	12960	149	-37	-141	-16684	972	-856	44	-36	98	-1444	2692	16896	198	-2	19	128	127	5
-10500	-3796	11436	-97	106	-226	-16032	-1960	-76	-114	-95	-108	-2576	-2272	16392	-2	-131	210	-9848	4084	13028	131	-24	-150	-16748	1020	-816	54	-69	111	-1488	2752	16824	234	39	48	127	127	5
-10420	-3780	11468	-95	122	-200	-16032	-1940	16	-49	-145	-34	-2476	-2196	16324	51	-84	149	-9812	4084	13052	148	27	-131	-16672	1000	-968	71	-105	164	-1424	2772	16828	190	-3	44	128	127	5
-10508	-3744	11272	-125	121	-197	-16040	-1960	116	2	-128	-30	-2436	-2264	16524	63	-109	135	-9812	4168	12972	146	-36	-166	-16704	976	-800	90	-100	189	-1384	2676	16920	185	6	46	127	127	5
-10408	-3852	11324	-85	105	-192	-16132	-1964	152	17	-108	-31	-2568	-2156	16564	58	-172	79	-9764	4064	13024	142	-6	-159	-16696	1044	-820	108	-75	161	-1404	2712	16848	194	23	47	128	127	5
-10440	-3804	11428	-70	94	-175	-16124	-1884	32	37	-80	40	-2304	-2296	16476	148	-180	171	-9740	4048	12984	161	5	-130	-16668	1024	-792	107	-116	185	-1332	2684	16852	217	16	8	127	127	5
-10460	-3756	11352	-97	97	-161	-16040	-1964	96	33	-62	3	-2336	-2172	16512	199	-194	134	-9788	4120	12996	159	-58	-164	-16684	1048	-848	143	-126	201	-1296	2604	16904	230	12	-30	127	127	5
-10460	-3820	11380	-60	67	-176	-16104	-1880	204	12	-36	12	-2272	-2112	16500	152	-147	94	-9752	4124	12912	155	-3	-132	-16640	1080	-744	144	-98	242	-1312	2636	16892	253	12	-42	128	126	5
-10452	-3748	11428	-30	93	-175	-16120	-1940	56	18	-14	77	-2272	-2244	16512	208	-131	143	-9740	4092	12936	169	-2	-153	-16632	1028	-620	135	-76	254	-1240	2724	16828	291	-23	-99	128	127	5
-10520	-3760	11400	-41	87	-199	-16104	-1896	140	38	1	77	-2256	-2176	16520	168	-113	134	-9792	4100	12992	210	-17	-149	-16636	1000	-688	118	-48	250	-1256	2796	16996	277	-21	-97	128	126	5
-10488	-3836	11404	-45	112	-144	-16104	-1852	144	9	-4	45	-2312	-2168	16464	150	-32	110	-9792	4112	12908	193	9	-118	-16700	1160	-684	95	7	239	-1224	2776	16864	291	-14	-114	128	126	5
-10404	-3732	11408	-1	102	-161	-16132	-1856	-44	74	0	92	-2292	-2104	16448	153	30	113	-9784	4144	12960	194	26	-147	-16688	1112	-744	90	-44	249	-1308	2764	16828	289	-22	-80	128	126	5
-10396	-3756	11416	-5	87	-157	-16132	-1828	72	67	-8	77	-2392	-2060	16344	83	24	47	-9736	4168	13024	177	-28	-122	-16604	1140	-792	93	-20	242	-1320	2824	16880	293	-38	-86	127	126	5
-10476	-3732	11352	4	87	-149	-16100	-1880	68	61	1	84	-2432	-2008	16456	26	37	50	-9768	4108	13016	163	0	-162	-16628	1172	-696	82	28	245	-1216	2884	16884	293	-44	-95	127	126	5
-10444	-3784	11416	-47	98	-135	-16148	-1772	-4	4	1	42	-2564	-2008	16536	66	40	43	-9816	4116	12944	176	-17	-166	-16644	1144	-716	124	-36	211	-1268	2784	17000	301	13	-53	127	126	5
-10480	-3656	11388	-42	99	-170	-16160	-1780	-56	-20	-37	24	-2680	-2092	16472	73	-16	120	-9732	4156	12976	170	-17	-153	-16668	1128	-736	153	2	199	-1220	2932	16904	305	-10	-25	127	126	5
-10432	-3692	11504	-28	122	-152	-16132	-1748	56	18	-36	50	-2488	-1896	16544	93	-26	69	-9860	4156	13036	164	59	-193	-16608	1208	-720	111	24	156	-1316	3044	16812	282	-52	-38	127	126	5
-10432	-3736	11356	-31	102	-186	-16116	-1712	12	49	-63	13	-2580	-2012	16508	95	-42	55	-9796	4124	12920	179	-20	-188	-16684	1196	-780	109	1	153	-1340	2988	16856	241	0	-48	127	126	5
-10440	-3768	11468	-104	118	-181	-16080	-1644	-12	71	-32	-21	-2512	-1928	16372	40	-32	116	-9796	4120	12904	112	-20	-204	-16640	1192	-788	63	26	89	-1348	3024	16824	214	-29	4	127	126	5
-10432	-3752	11292	-113	100	-197	-16140	-1648	-16	-31	-73	-53	-2576	-1904	16488	9	-20	155	-9828	4164	12948	133	-12	-190	-16652	1264	-828	6	-17	61	-1336	3004	16820	181	-3	55	127	126	5
-10456	-3760	11416	-90	114	-181	-16156	-1692	-160	-72	-102	-63	-2592	-1876	16544	54	-18	132	-9780	4172	12976	114	-46	-198	-16660	1244	-860	49	-12	69	-1284	2960	16844	137	39	98	127	126	5
-10472	-3720	11408	-104	129	-205	-16184	-1748	-32	-26	-108	-105	-2596	-1880	16508	-41	-59	198	-9832	4124	12964	128	-67	-174	-16676	1208	-820	60	-20	42	-1312	2960	16768	112	75	93	127	126	5
-10448	-3764	11416	-135	140	-228	-16144	-1632	108	-37	-76	-124	-2704	-1900	16464	-87	-120	247	-9808	4132	13064	113	-17	-162	-16652	1152	-840	93	-54	-9	-1336	2932	16820	77	83	99	127	126	5
-10464	-3792	11456	-138	151	-228	-16148	-1748	80	-46	-58	-137	-2572	-1996	16484	-77	-173	325	-9824	4152	12960	91	-57	-172	-16632	1228	-736	76	-45	15	-1276	2860	16716	40	87	81	127	126	5
-10452	-3760	11340	-166	174	-230	-16132	-1932	104	-2	-83	-156	-2472	-2092	16596	-51	-221	329	-9764	4108	12996	98	-79	-200	-16584	1152	-776	21	-11	-24	-1264	2792	16928	41	63	128	127	126	5
-10408	-3764	11440	-131	149	-199	-16112	-1868	88	11	-56	-143	-2500	-2136	16488	-1	-244	303	-9784	4088	12944	76	-76	-186	-16660	1168	-792	-17	-40	4	-1280	2760	16856	43	47	144	127	125	5
-10480	-3776	11408	-105	151	-196	-16096	-1780	68	13	-47	-155	-2004	-2208	16488	-30	-107	246	-9780	4124	13016	111	-82	-186	-16700	960	-808	-10	5	-18	-1308	2664	16912	89	42	121	127	125	5
-10452	-3812	11436	-150	143	-210	-16048	-1876	36	26	-53	-128	-2500	-2308	16548	2	-249	334	-9792	4120	13032	70	-83	-218	-16708	1020	-848	29	-18	-3	-1356	2696	16860	112	45	140	127	125	5
-10436	-3772	11432	-151	152	-197	-16088	-2000	68	-39	-55	-114	-2300	-2212	16484	93	-192	167	-9764	4100	12956	112	-63	-187	-16704	972	-808	43	0	4	-1436	2620	16840	126	80	121	127	125	5
-10452	-3760	11376	-89	119	-159	-16084	-1988	-40	-67	-22	-71	-2320	-2176	16512	10	-156	119	-9776	4048	12960	106	-39	-181	-16644	944	-800	54	-9	51	-1436	2620	16852	170	26	54	128	125	5
-10440	-3820	11372	-60	144	-165	-16088	-1948	100	-12	-6	-13	-2300	-2188	16464	7	-175	136	-9816	4088	13044	122	-80	-187	-16684	956	-780	80	-8	87	-1420	2608	16788	161	41	7	128	125	5
-10404	-3756	11388	-38	110	-166	-16036	-1916	32	-29	-11	-66	-2432	-2180	16428	-15	-67	93	-9804	4084	12996	156	-20	-157	-16668	960	-804	103	-7	114	-1464	2592	16768	171	18	25	128	125	5
-10480	-3800	11460	-46	113	-185	-16132	-1904	24	-38	-27	27	-2476	-2188	16416	-1	-80	47	-9784	4172	12960	184	-36	-178	-16704	972	-884	64	-10	148	-1384	2684	16836	189	-10	-14	128	125	5
-10400	-3764	11424	-34	126	-173	-16100	-1872	68	-15	-5	26	-2516	-2176	16432	42	-88	43	-9852	4080	13004	150	-17	-156	-16620	1000	-860	70	-35	180	-1388	2712	16948	205	-14	-61	128	125	5
-10484	-3760	11412	-18	86	-137	-16064	-1820	-24	2	-27	-8	-2648	-2072	16520	145	-112	94	-9784	4128	12964	170	-28	-141	-16608	1020	-764	59	-62	173	-1344	2664	16996	192	42	-62	128	125	5
-10452	-3812	11416	-37	87	-184	-16032	-1852	44	20	-28	4	-2472	-2088	16492	157	-111	85	-9740	4220	12980	155	28	-160	-16660	1020	-720	103	-61	167	-1348	2712	16924	219	31	-45	127	125	5
-10444	-3768	11424	-68	120	-171	-16128	-1732	20	26	-21	11	-2440	-2052	16560	121	-47	101	-9788	4132	13000	158	-67	-130	-16668	1076	-868	82	-48	208	-1300	2704	16884	234	5	-58	127	125	5
-10400	-3752	11432	-66	126	-195	-16132	-1764	56	8	-57	-36	-2448	-2016	16468	126	-57	101	-9780	4084	12976	176	-16	-181	-16580	1156	-852	141	-33	166	-1212	2748	16888	234	33	-12	127	125	5
-10416	-3744	11440	-71	131	-179	-16132	-1760	96	12	-56	12	-2524	-1900	16500	88	-78	132	-9784	4156	12996	167	14	-145	-16580	1192	-772	123	-14	112	-1196	2820	16868	259	20	-25	127	125	5
-10424	-3780	11464	-112	117	-177	-16112	-1772	-16	1	-57	-53	-2440	-1900	16548	13	-88	159	-9820	4160	12940	165	-7	-170	-16628	1196	-704	94	-35	150	-1188	2836	16916	264	7	10	127	125	5
-10436	-3808	11340	-116	102	-211	-16112	-1704	-16	-18	-33	-50	-2468	-1916	16528	-5	-67	162	-9796	4092	12980	114	-18	-149	-16620	1216	-708	73	-28	142	-1216	2884	16880	219	12	33	127	125	5
-10456	-3780	11356	-91	149	-209	-16076	-1764	68	-26	-46	-70	-2428	-1992	16460	-4	-108	186	-9768	4112	13044	139	-78	-174	-16652	1192	-788	61	14	100	-1264	2876	16804	184	30	5	127	125	5
-10432	-3800	11356	-87	164	-194	-16136	-1812	12	-31	-14	-82	-2368	-2012	16620	-83	-81	223	-9792	4132	12968	150	-59	-201	-16664	1180	-716	40	5	42	-1308	2932	16840	139	9	51	127	125	5
-10480	-3792	11364	-101	133	-177	-16124	-1860	84	-15	26	-95	-2516	-2140	16388	-53	-87	224	-9780	4080	12908	121	25	-184	-16616	1104	-776	31	-2	55	-1400	2928	16792	127	35	7	127	125	5
-10476	-3796	11416	-113	145	-175	-16192	-1824	-4	4	-53	-64	-2544	-2200	16460	21	-122	222	-9844	4136	12904	122	-83	-188	-16616	1152	-860	78	-28	48	-1412	2840	16772	74	31	52	127	125	5
-10416	-3780	11432	-93	142	-172	-16092	-1920	-8	28	-27	-66	-2680	-2060	16380	78	-68	76	-9804	4160	13016	92	-34	-173	-16656	1012	-888	102	-27	37	-1376	2756	16848	93	44	85	127	125	5
-10488	-3736	11392	-88	117	-208	-16044	-1796	-48	73	-37	-72	-2604	-2068	16424	61	-149	54	-9780	4120	12992	89	-33	-177	-16608	1024	-808	95	-10	44	-1376	2736	16856	130	48	76	127	125	5
-10436	-3752	11340	-106	122	-156	-16152	-1688	0	-2	-71	-96	-2712	-1952	16592	52	-199	70	-9824	4044	12980	122	-90	-190	-16688	1108	-828	105	-84	24	-1332	2724	16892	126	47	89	127	125	5
-10432	-3756	11396	-63	112	-193	-16144	-1696	-88	-181	-62	-95	-2220	-1956	16532	-216	-212	194	-9840	4092	12924	100	-102	-190	-16696	1024	-724	26	-48	52	-1336	2720	16964	127	56	89	127	125	5
-10448	-3748	11416	-152	190	-229	-16096	-1932	-16	-223	-103	-85	-2788	-2548	16356	130	-345	528	-9772	4108	13056	79	-14	-178	-16648	1032	-888	17	-28	32	-1380	2720	16944	130	27	90	127	125	5
-10512	-3804	11336	-142	143	-211	-16140	-2084	104	12	-70	-82	-1924	-1528	16576	-71	37	-161	-9796	4104	13108	120	-36	-169	-16724	976	-828	36	-72	67	-1364	2604	16916	132	25	91	127	125	5
-10420	-3852	11332	-99	97	-171	-16020	-1836	92	361	-34	-94	-2956	-2792	16412	67	-285	400	-9760	4172	12896	111	-31	-161	-16624	896	-860	37	-56	96	-1356	2660	16988	163	-4	41	127	125	5
-10448	-3708	11440	-88	131	-181	-16248	-1640	28	86	-69	-64	-2332	-1776	16684	304	-132	36	-9760	4132	12928	132	-29	-157	-16636	960	-996	54	-20	129	-1324	2632	16888	179	-10	55	127	125	5
-10480	-3852	11344	-71	132	-187	-16076	-1772	36	-151	-90	-27	-2512	-1784	16512	-125	-118	-27	-9812	4092	13020	142	-23	-196	-16628	984	-832	75	-44	115	-1372	2656	16880	239	18	11	127	125	5
-10436	-3744	11384	-91	132	-189	-16092	-1784	32	-81	-36	-76	-2388	-1888	16516	-196	-151	25	-9772	4184	12976	124	18	-177	-16676	972	-732	92	-45	141	-1336	2788	16856	204	32	-44	127	125	5
-10412	-3704	11432	-86	109	-181	-16172	-1744	144	-49	-70	-67	-2456	-2056	16480	-179	-123	-2	-9836	4084	12980	168	-9	-163	-16620	1028	-872	104	-40	164	-1372	2800	16976	192	25	-6	127	125	5
-10476	-3776	11392	-117	139	-195	-16076	-1776	84	-217	-47	-97	-2372	-2064	16488	-258	-60	-27	-9740	4108	13024	168	-11	-134	-16648	1052	-856	98	-21	143	-1392	2796	16756	182	-29	-55	127	125	5
-10468	-3804	11452	-108	178	-173	-16120	-1824	64	-100	-44	-110	-2480	-2104	16556	-193	-59	-11	-9768	4144	13040	151	-3	-143	-16604	1048	-840	61	-87	173	-1400	2720	16988	156	-6	-43	127	125	5
-10428	-3800	11400	-96	149	-232	-16084	-1908	68	106	-49	-121	-2660	-2044	16464	-70	-105	67	-9824	4120	12988	114	5	-162	-16648	1020	-828	74	-42	162	-1364	2744	17004	156	-1	-35	126	125	5
-10552	-3780	11376	-101	135	-195	-16088	-1824	80	175	-56	-108	-2656	-2244	16424	-39	-157	176	-9760	4116	12944	163	-13	-141	-16684	1056	-800	93	-53	165	-1320	2692	16932	258	2	-7	126	125	5
-10480	-3772	11544	-99	125	-170	-16132	-1832	-8	98	-55	-108	-2468	-2168	16584	-5	-126	156	-9808	4088	12920	146	-19	-180	-16664	1100	-796	115	-49	158	-1264	2800	16908	203	3	-1	126	125	5
-10428	-3760	11404	-102	109	-214	-15988	-1776	-56	-42	-64	-49	-2448	-2272	16460	31	-139	147	-9736	4152	13044	160	-30	-156	-16636	1104	-804	131	-75	168	-1408	2756	16888	238	-3	12	126	125	5
-10408	-3784	11508	-85	120	-193	-16120	-1876	4	-67	-67	-87	-2468	-2280	16464	82	-155	148	-9780	4092	12952	152	-47	-148	-16628	1076	-820	116	-58	162	-1336	2760	16860	236	-8	-2	126	125	5
-10416	-3768	11380	-88	128	-201	-16036	-1996	124	-4	-78	-38	-2456	-2228	16492	63	-163	134	-9772	4204	12980	123	-57	-177	-16704	1100	-844	129	-42	148	-1332	2700	16736	199	51	18	126	125	5
-10452	-3840	11444	-54	83	-149	-16156	-1996	56	32	-52	-41	-2388	-2272	16484	9	-152	149	-9776	4088	12948	138	17	-177	-16648	1092	-800	97	-11	155	-1264	2752	16960	211	-30	-26	126	125	5
-10468	-3756	11444	-80	124	-183	-16076	-1904	72	28	-72	-7	-2536	-2292	16456	56	-211	171	-9808	4100	12984	143	34	-154	-16688	1064	-724	70	-17	178	-1220	2740	16832	173	19	-28	126	125	5
-10508	-3836	11476	-58	114	-207	-16108	-1880	76	-35	-29	-13	-2432	-2296	16516	160	-215	234	-9804	4124	13136	136	-7	-167	-16636	1124	-784	79	-2	145	-1308	2724	16780	247	29	-21	127	125	5
-10460	-3796	11408	-72	124	-186	-16124	-1964	12	-5	-27	-35	-2304	-2212	16400	229	-155	262	-9816	4128	13024	154	-29	-166	-16676	1104	-868	35	31	134	-1376	2776	16916	268	-5	24	127	125	5
-10556	-3800	11428	-76	107	-151	-16112	-1916	4	83	-43	27	-2444	-2172	16512	287	-136	202	-9848	4148	12892	170	-41	-164	-16600	1088	-788	6	-7	148	-1432	2848	16836	246	-24	11	127	125	5
-10424	-3752	11408	-69	95	-178	-16120	-1880	-88	51	-44	32	-2520	-2120	16416	201	-70	158	-9856	4088	12888	152	-27	-184	-16676	1032	-912	2	26	130	-1420	2840	16732	259	34	-4	127	125	5
-10452	-3780	11436	-59	101	-178	-16104	-1792	64	-21	-15	58	-2468	-2032	16452	194	-51	96	-9800	4132	13016	151	-58	-174	-16688	1012	-816	53	-27	159	-1512	2812	16700	229	16	26	127	125	5
-10392	-3772	11364	-69	85	-206	-16084	-1760	8	-58	-12	51	-2408	-1868	16440	34	26	-17	-9812	4152	12952	135	-59	-153	-16680	1076	-820	134	-45	156	-1480	2852	16788	242	-10	10	127	125	5
-10424	-3808	11400	-53	98	-190	-16124	-1700	60	-2	-50	-14	-2584	-1900	16540	-37	-41	32	-9736	4136	12940	150	-35	-164	-16684	1108	-928	142	-96	152	-1484	2820	16840	167	20	-17	127	125	5
-10468	-3708	11344	-71	113	-171	-16188	-1696	16	0	-48	17	-2508	-1888	16460	-1	-52	-27	-9852	4144	13024	156	-37	-185	-16620	1088	-876	174	-97	152	-1356	2792	16912	193	-19	-38	127	125	5
-10444	-3760	11492	-101	140	-177	-16172	-1704	108	-16	-59	-39	-2572	-2044	16612	-158	-58	-10	-9736	4124	13040	167	-18	-181	-16640	1100	-832	152	-67	136	-1236	2776	16844	154	-17	-39	126	125	5
-10468	-3732	11392	-68	152	-178	-16152	-1740	92	-15	-68	-78	-2544	-1880	16496	-201	-15	-27	-9796	4148	12972	161	-23	-150	-16696	1124	-840	128	-68	197	-1188	2760	16888	177	-4	-40	126	125	5
-10416	-3760	11440	-129	130	-182	-16140	-1764	108	-11	-42	-47	-2512	-2116	16428	-133	-52	96	-9788	4148	13072	149	-29	-137	-16672	1120	-896	106	-39	136	-1184	2768	16864	210	-10	-26	126	125	5
-10416	-3732	11464	-102	126	-209	-16120	-1792	-12	34	-78	-96	-2516	-2312	16512	-39	-63	216	-9776	4140	12972	149	14	-176	-16604	1120	-824	17	6	163	-1196	2820	16860	217	-9	-18	126	125	5
-10456	-3756	11324	-112	137	-192	-16096	-1856	148	59	-55	-121	-2488	-2196	16448	42	-86	209	-9820	4136	13000	136	8	-189	-16652	1124	-640	51	4	124	-1204	2848	16860	251	-38	5	126	125	5
-10428	-3812	11404	-122	151	-221	-16124	-1816	80	49	-59	-125	-2548	-2272	16492	114	-99	275	-9752	4180	12976	132	-49	-185	-16640	1184	-704	69	-2	94	-1192	2864	16888	272	-13	36	126	125	5
-10388	-3804	11396	-92	156	-184	-16092	-1932	20	15	-54	-88	-2644	-2156	16480	107	-115	259	-9776	4156	12824	137	-25	-166	-16676	1152	-812	67	-20	87	-1280	2864	16884	281	5	40	126	125	5
-10436	-3760	11388	-111	170	-191	-16096	-1932	-16	-35	-74	-77	-2632	-2228	16316	130	-142	307	-9736	4132	12984	119	-13	-210	-16584	1196	-784	79	16	45	-1300	2924	16844	187	-21	88	126	125	5
-10472	-3788	11468	-133	136	-203	-16080	-1868	88	-7	-44	-73	-2516	-2072	16464	95	-160	186	-9800	4076	12952	90	-21	-174	-16672	1212	-756	127	10	22	-1240	2916	16772	159	18	101	126	125	5
-10488	-3828	11316	-91	115	-181	-16084	-1796	48	-64	-63	-55	-2320	-1984	16460	-55	-14	173	-9760	4040	12980	106	-13	-234	-16676	1236	-724	75	25	-14	-1236	2964	16868	141	55	133	126	125	5
-10428	-3780	11452	-86	79	-212	-16124	-1824	24	-79	-114	-49	-2468	-2012	16500	-129	-64	166	-9776	4116	13008	100	-18	-189	-16704	1160	-876	-26	26	-30	-1328	2904	16864	126	15	159	126	125	5
-10500	-3748	11400	-102	118	-200	-16072	-1824	32	-179	-35	-73	-2592	-1984	16496	-78	-141	170	-9780	4068	13016	108	-27	-231	-16692	1064	-948	-84	2	-25	-1508	2900	16760	103	87	144	126	125	5
-10448	-3776	11380	-81	123	-175	-16080	-1800	164	-146	-42	-126	-2472	-2040	16492	-80	-181	124	-9728	4128	13028	106	-39	-180	-16620	1040	-928	-66	-8	-39	-1576	2812	16768	100	87	86	126	126	5
-10468	-3768	11364	-99	129	-187	-16108	-1832	136	20	-10	-120	-2508	-1956	16524	-164	-252	39	-9764	4140	12972	74	-26	-197	-16692	968	-816	49	-47	7	-1600	2804	16804	16	98	45	126	126	5
-10524	-3792	11392	-106	156	-208	-16124	-1848	104	97	5	-136	-2532	-2100	16544	-181	-302	-35	-9860	4020	13084	122	-43	-209	-16664	996	-872	138	-94	15	-1564	2804	16768	-23	50	-4	126	126	5
-10408	-3800	11468	-77	150	-199	-16128	-1808	20	69	-5	-147	-2404	-2044	16500	-257	-210	-66	-9776	4084	13064	128	-10	-189	-16696	960	-952	176	-142	11	-1404	2676	16968	-81	7	-21	126	126	5
-10452	-3776	11416	-122	169	-173	-16128	-1816	-8	66	-13	-106	-2440	-2204	16468	-245	-220	-42	-9824	4104	12976	116	-25	-161	-16592	1060	-808	163	-107	80	-1452	2660	16808	-53	43	-47	125	125	5
-10516	-3744	11312	-100	161	-193	-16144	-1900	36	12	-24	-122	-2388	-2092	16604	-272	-104	-62	-9736	4124	12952	98	-6	-196	-16644	932	-760	87	-129	88	-1336	2576	16928	-20	34	-40	125	125	5
-10420	-3788	11376	-110	154	-217	-16040	-1852	-52	-78	-27	-159	-2448	-2392	16456	-193	-78	57	-9732	4136	13028	154	-3	-177	-16688	1052	-692	68	-124	115	-1296	2608	16856	20	0	-57	125	125	5
-10508	-3768	11380	-116	164	-189	-16104	-1948	44	-60	-25	-125	-2504	-2352	16352	-126	-28	92	-9780	4100	12940	156	-41	-158	-16624	1072	-732	32	-72	121	-1360	2512	16988	119	13	-55	125	125	5
-10472	-3724	11392	-99	174	-222	-16104	-2056	-16	28	-37	-146	-2416	-2464	16376	-57	61	71	-9756	4052	13068	158	-34	-160	-16680	944	-740	-5	-4	108	-1336	2456	16876	227	21	17	125	125	5
-10484	-3780	11388	-92	118	-169	-16072	-2012	-100	46	-64	-53	-2476	-2452	16396	-31	55	72	-9840	4160	12988	157	-30	-148	-16652	1012	-820	77	-34	167	-1360	2532	16844	300	-5	20	124	125	5
-10440	-3836	11336	-71	104	-183	-16124	-2060	24	123	-63	-49	-2444	-2464	16428	81	65	114	-9844	4112	12984	127	-4	-199	-16620	972	-732	105	-60	194	-1288	2612	16872	305	-14	-18	124	125	5
-10444	-3744	11368	-80	116	-183	-16092	-1956	40	91	-62	-9	-2540	-2392	16448	78	55	121	-9824	4068	12968	119	-12	-194	-16680	1060	-752	151	-50	144	-1252	2692	16824	299	-13	-18	124	125	5
-10464	-3696	11324	-24	85	-176	-16108	-1976	-12	-34	-53	50	-2540	-2404	16476	54	91	94	-9808	4116	12972	144	4	-185	-16676	1120	-804	187	-55	129	-1308	2788	16908	225	-31	29	124	125	5
-10476	-3752	11508	-70	89	-172	-16072	-2004	80	-57	-85	58	-2564	-2452	16400	140	31	115	-9816	4124	13028	130	-20	-153	-16692	1072	-792	82	-25	164	-1320	2744	16848	198	-27	42	124	125	5
-10492	-3840	11440	-71	96	-162	-16112	-2008	228	-11	-55	163	-2456	-2324	16452	143	-27	117	-9796	4140	12940	145	-31	-156	-16676	1076	-740	48	24	155	-1356	2692	16984	235	-47	33	124	125	5
-10480	-3788	11348	-6	40	-123	-16156	-1936	76	41	-40	101	-2492	-2376	16524	206	-69	133	-9796	4108	13044	154	-7	-149	-16640	1000	-820	100	-36	171	-1400	2684	16956	237	-28	24	125	125	5
-10428	-3736	11392	-24	88	-145	-16092	-1960	120	91	0	173	-2452	-2320	16404	298	-129	77	-9804	4116	13000	167	-32	-125	-16656	916	-776	174	-42	192	-1400	2588	16868	301	-89	-11	125	125	5
-10460	-3744	11388	5	105	-127	-16080	-1956	60	160	27	164	-2524	-2240	16408	342	-130	6	-9728	4068	12976	183	26	-148	-16588	968	-868	233	-6	239	-1400	2636	16916	315	-48	-63	125	125	5
-10364	-3720	11440	-24	61	-111	-16092	-1860	20	182	34	179	-2536	-2284	16416	406	-204	51	-9808	4116	12936	166	12	-162	-16656	1012	-720	250	37	256	-1348	2652	16808	326	-71	-74	125	125	5
-10480	-3788	11420	1	53	-120	-16132	-1732	68	86	49	192	-2424	-1984	16520	381	-152	-24	-9840	4068	13072	157	31	-147	-16696	1128	-776	169	-18	288	-1320	2692	16948	348	-75	-121	126	125	5
-10472	-3720	11468	8	65	-114	-16124	-1772	-132	24	24	209	-2460	-2056	16408	331	-156	23	-9804	4104	13012	176	-35	-142	-16696	1064	-836	86	39	262	-1448	2772	16940	375	-44	-90	126	125	5
-10460	-3800	11384	-10	43	-116	-16148	-1660	-32	5	-12	154	-2484	-2008	16420	308	-35	38	-9724	4112	12984	166	7	-175	-16628	1128	-900	69	40	258	-1404	2828	16808	348	-48	-93	126	126	5
-10520	-3680	11436	-19	100	-131	-16212	-1652	-152	11	-31	165	-2444	-1956	16548	300	57	56	-9756	4112	12980	202	-12	-124	-16664	1096	-892	75	32	294	-1444	2768	16820	373	-46	-82	126	126	5
-10456	-3712	11508	-50	72	-179	-16128	-1636	8	23	-46	95	-2424	-1856	16460	260	135	84	-9816	4108	13052	180	18	-143	-16624	1080	-832	88	-4	266	-1404	2772	16876	391	-51	-32	126	126	5
-10428	-3752	11440	-93	123	-180	-16060	-1720	-8	115	-70	94	-2540	-1932	16512	194	202	39	-9804	4092	12984	172	12	-111	-16688	1144	-944	160	-45	290	-1332	2868	16948	443	-42	-20	126	126	5
-10492	-3724	11412	-6	74	-217	-16164	-1740	-32	184	-101	108	-2664	-1892	16384	123	185	114	-9756	4160	12944	180	29	-149	-16704	1152	-784	223	-76	281	-1312	2900	16928	478	-60	-36	126	126	5
-10408	-3768	11400	-73	96	-196	-16144	-1660	12	144	-119	57	-2740	-1936	16448	126	152	99	-9724	4076	12924	189	7	-138	-16664	1240	-836	207	-38	277	-1300	2924	16864	409	-62	-36	126	126	5
-10416	-3712	11384	-19	77	-187	-16200	-1676	-96	51	-143	30	-2712	-1904	16496	109	70	230	-9852	4168	12904	202	-17	-152	-16652	1268	-856	124	-48	177	-1240	3100	16836	361	-20	1	126	125	5
-10440	-3752	11388	-115	80	-191	-16088	-1656	-28	-75	-182	-33	-2724	-1980	16468	134	-77	261	-9848	4116	12904	164	-22	-130	-16640	1360	-808	63	-62	173	-1256	3080	16832	273	-8	-9	126	126	5
-10448	-3692	11336	-84	100	-163	-16128	-1704	128	-156	-155	-76	-2692	-1956	16532	90	-97	249	-9780	4132	12992	150	-38	-151	-16692	1360	-668	-18	-47	154	-1260	3068	16804	168	23	49	126	126	5
-10464	-3696	11404	-110	93	-199	-16136	-1804	-16	-71	-143	-30	-2552	-1992	16392	56	-143	216	-9848	4128	13000	132	-8	-204	-16632	1348	-780	27	-73	91	-1160	2976	16988	144	0	111	126	126	5
-10340	-3776	11448	-119	118	-219	-16104	-1792	124	-27	-121	-12	-2584	-2028	16540	98	-247	217	-9824	4168	12892	128	-71	-178	-16656	1288	-776	19	-75	66	-1168	2980	16832	143	35	127	127	126	5
-10420	-3772	11408	-84	114	-190	-16144	-1808	244	8	-74	-72	-2416	-1996	16556	90	-276	176	-9732	4164	13076	117	-23	-209	-16624	1180	-764	55	-44	62	-1192	2916	16812	131	44	114	127	126	5
-10432	-3668	11456	-78	118	-166	-16080	-1764	232	100	-2	-24	-2248	-1932	16564	73	-270	60	-9852	4164	12964	98	-12	-200	-16684	1104	-832	113	3	28	-1272	2928	16904	156	15	79	127	126	5
-10444	-3740	11388	-51	103	-174	-16152	-1752	208	89	56	-41	-2168	-1992	16500	-2	-233	31	-9812	4072	12968	83	-11	-211	-16716	1116	-800	149	5	19	-1304	2868	16792	94	32	12	127	126	5
-10464	-3780	11328	-87	136	-172	-16100	-1720	132	5	55	-41	-2300	-2056	16456	-19	-214	-4	-9792	4156	13052	122	-52	-212	-16708	1176	-856	139	-74	-10	-1356	2852	16840	30	17	-53	127	126	5
-10452	-3756	11444	-70	121	-163	-16100	-1688	92	-67	76	-51	-2368	-1940	16520	-107	-148	-46	-9792	4140	12952	109	-84	-179	-16648	1120	-844	96	-6	19	-1340	2816	16872	-10	42	-61	127	126	5
-10380	-3760	11444	-67	117	-158	-16116	-1720	-84	-74	47	-50	-2524	-2072	16496	-133	-121	-61	-9760	4080	12912	136	-55	-186	-16680	1244	-772	92	0	26	-1400	2820	16824	-27	-8	-94	126	126	5
-10436	-3716	11436	-98	158	-154	-16172	-1756	-292	-48	12	-93	-2628	-1988	16400	-181	-11	-28	-9752	4104	13004	109	-5	-195	-16664	1116	-780	-2	-41	39	-1396	2748	16948	7	29	-46	126	126	5
-10464	-3744	11412	-101	136	-182	-16092	-1704	-156	-38	-16	-92	-2740	-2032	16500	-111	42	21	-9752	4140	12968	142	-38	-193	-16676	1104	-776	34	-54	50	-1448	2752	16808	22	32	16	126	126	5
-10468	-3756	11484	-138	128	-223	-16128	-1700	-60	29	-29	-101	-2756	-2072	16344	-45	67	134	-9792	4140	12964	103	-40	-205	-16712	1060	-836	69	-97	77	-1376	2612	16924	68	18	61	126	126	5
