#Activity	sitting 
#ActivityID	5 
#Date 08-20-11-37
acc_rf_x	acc_rf_y	acc_rf_z	gyro_rf_x	gyro_rf_y	gyro_rf_z	acc_rs_x	acc_rs_y	acc_rs_z	gyro_rs_x	gyro_rs_y	gyro_rs_z	acc_rt_x	acc_rt_y	acc_rt_z	gyro_rt_x	gyro_rt_y	gyro_rt_z	acc_lf_x	acc_lf_y	acc_lf_z	gyro_lf_x	gyro_lf_y	gyro_lf_z	acc_ls_x	acc_ls_y	acc_ls_z	gyro_ls_x	gyro_ls_y	gyro_ls_z	acc_lt_x	acc_lt_y	acc_lt_z	gyro_lt_x	gyro_lt_y	gyro_lt_z	EMG_r	EMG_l	act
-8088	-4476	13168	-68	139	-200	-16448	-1184	-2224	49	-48	147	-3348	1848	16680	166	21	40	-7572	6504	13552	153	13	-160	-15400	5376	-2032	-24	-26	-44	-1660	-2508	16816	14	-78	163	127	123	5
-8068	-4484	13188	-113	151	-180	-16448	-1308	-2204	23	-52	112	-3376	1752	16708	119	-22	72	-7604	6576	13432	124	15	-144	-15352	5364	-2056	10	-35	-30	-1668	-2516	16860	33	-47	161	127	124	5
-7984	-4488	13204	-132	153	-225	-16356	-1176	-2192	37	-57	70	-3300	1788	16760	78	-20	60	-7616	6460	13452	147	-70	-141	-15376	5288	-2032	23	-3	-80	-1648	-2460	16740	6	-76	167	127	124	5
-8036	-4456	13212	-156	139	-201	-16400	-1236	-2132	79	-91	88	-3392	1708	16684	41	-46	77	-7616	6480	13464	129	8	-205	-15336	5348	-2112	41	-29	-59	-1600	-2440	16856	-29	-97	175	127	125	5
-7996	-4440	13152	-125	153	-191	-16404	-1224	-2132	47	-59	75	-3332	1752	16712	80	20	74	-7588	6496	13416	109	-36	-146	-15344	5276	-2064	-23	1	-64	-1608	-2508	16760	-30	-88	151	127	125	5
-7972	-4468	13300	-158	171	-189	-16396	-1324	-2144	75	-120	106	-3280	1672	16688	31	4	84	-7604	6544	13480	100	-4	-158	-15356	5332	-2152	-4	14	-75	-1664	-2460	16776	-22	-81	134	127	124	5
-8044	-4492	13144	-168	159	-219	-16388	-1280	-2208	56	-119	73	-3324	1624	16740	36	-24	51	-7592	6500	13540	112	-2	-165	-15424	5324	-2072	-8	-23	-98	-1608	-2560	16820	-71	-69	155	127	124	5
-8080	-4544	13172	-154	151	-223	-16372	-1292	-2160	32	-86	66	-3292	1632	16744	55	-2	46	-7588	6520	13520	95	-14	-128	-15364	5332	-2112	7	-6	-132	-1620	-2496	16848	-28	-76	184	127	123	5
-8020	-4496	13184	-172	176	-166	-16400	-1312	-2076	45	-105	87	-3308	1592	16684	56	-3	54	-7616	6500	13424	110	-71	-158	-15372	5308	-2136	13	26	-124	-1624	-2592	16736	-33	-74	207	127	123	5
-8028	-4456	13168	-149	162	-197	-16448	-1272	-2068	53	-81	50	-3280	1472	16560	64	-23	60	-7640	6480	13480	77	-26	-178	-15420	5328	-2036	2	-10	-101	-1588	-2556	16780	-38	-44	209	127	124	5
-8072	-4504	13204	-166	158	-174	-16420	-1320	-2132	65	-95	91	-3264	1504	16808	106	-21	67	-7616	6492	13576	57	-5	-178	-15364	5248	-2160	-25	55	-56	-1588	-2652	16796	-59	-94	212	127	124	5
-8048	-4544	13196	-61	144	-164	-16396	-1296	-2128	77	-80	90	-3240	1488	16804	139	12	107	-7576	6484	13524	118	4	-156	-15364	5200	-2232	-12	29	-103	-1720	-2664	16740	-37	-99	204	127	125	5
-8072	-4532	13176	-157	125	-203	-16368	-1316	-2008	92	-28	137	-3292	1520	16772	167	6	83	-7628	6500	13468	104	21	-194	-15256	5264	-2100	23	16	-69	-1660	-2596	16848	-17	-59	189	127	125	5
-8052	-4536	13128	-132	108	-136	-16432	-1300	-2080	31	-44	130	-3328	1588	16724	169	14	42	-7584	6488	13468	87	8	-177	-15400	5220	-2236	-9	23	-69	-1696	-2684	16696	-18	-108	208	127	125	5
-8072	-4584	13132	-104	103	-185	-16380	-1284	-2120	50	-28	137	-3304	1556	16688	162	-17	48	-7576	6516	13540	75	13	-160	-15316	5224	-2136	-36	23	-45	-1692	-2656	16752	44	-110	172	127	124	5
-8072	-4544	13200	-70	151	-187	-16420	-1328	-2136	32	-19	135	-3300	1540	16800	184	-6	47	-7624	6508	13424	116	-34	-168	-15412	5180	-2000	11	-3	-33	-1684	-2588	16744	8	-107	208	128	124	5
-8092	-4504	13136	-113	144	-158	-16412	-1284	-2176	31	-23	118	-3252	1516	16760	217	10	47	-7588	6524	13540	133	-40	-177	-15376	5236	-2192	-12	3	0	-1668	-2596	16916	-5	-103	171	127	124	5
-7996	-4464	13204	-106	125	-162	-16384	-1276	-2148	56	-23	139	-3272	1612	16784	222	-1	123	-7592	6512	13516	125	11	-175	-15368	5212	-2056	-14	11	-21	-1592	-2572	16916	38	-83	168	127	124	5
-8028	-4468	13268	-49	140	-146	-16396	-1296	-2228	115	-8	152	-3384	1660	16688	197	6	96	-7644	6452	13456	131	-2	-165	-15316	5304	-1976	9	-26	-5	-1628	-2616	16772	19	-98	189	127	124	5
-8024	-4496	13044	-68	112	-174	-16348	-1324	-2080	38	6	132	-3344	1604	16812	211	19	78	-7656	6508	13540	102	-16	-151	-15348	5308	-2140	-7	-34	-3	-1660	-2516	16892	69	-84	176	127	125	5
-8080	-4496	13268	-91	110	-165	-16388	-1300	-2096	40	-14	136	-3368	1700	16620	222	-5	73	-7644	6520	13484	138	-10	-159	-15392	5308	-2124	-24	-11	-30	-1740	-2508	16772	17	-107	164	127	125	5
-7996	-4492	13080	-105	100	-191	-16360	-1224	-2172	29	-3	117	-3300	1632	16700	187	0	67	-7632	6488	13436	123	7	-168	-15368	5300	-2020	-20	2	5	-1640	-2440	16752	33	-104	185	127	125	5
-8104	-4460	13124	-141	126	-174	-16412	-1332	-2164	16	-22	136	-3276	1632	16664	150	8	49	-7596	6484	13436	131	-21	-191	-15332	5276	-2096	19	17	-29	-1704	-2508	16852	44	-85	215	128	124	5
-8048	-4476	13172	-104	105	-181	-16388	-1300	-2204	46	-39	144	-3316	1612	16684	158	37	71	-7588	6500	13532	133	8	-149	-15348	5280	-2196	49	15	-44	-1656	-2528	16836	39	-80	239	128	124	5
-8032	-4552	13236	-83	162	-236	-16452	-1256	-2208	63	-58	146	-3376	1632	16712	214	16	62	-7584	6492	13428	95	-42	-171	-15336	5304	-2040	39	11	-31	-1636	-2568	16756	55	-117	238	128	124	5
-7992	-4448	13224	-114	151	-235	-16408	-1264	-2108	72	-34	154	-3308	1696	16712	207	34	106	-7612	6532	13328	118	3	-231	-15328	5324	-2016	-20	46	-44	-1612	-2516	16712	44	-100	243	127	124	5
-8084	-4508	13084	-96	89	-206	-16372	-1268	-2144	28	-35	128	-3284	1668	16656	148	6	93	-7604	6472	13472	89	-29	-181	-15340	5296	-2184	-23	8	-61	-1572	-2584	16744	80	-116	203	127	124	5
-7996	-4468	13220	-100	150	-195	-16408	-1220	-2176	44	-50	135	-3256	1684	16588	156	-19	83	-7560	6428	13452	91	-40	-205	-15340	5272	-2048	-55	2	-18	-1652	-2500	16828	36	-71	209	127	124	5
-8040	-4524	13128	-139	125	-171	-16396	-1332	-1980	34	-25	144	-3268	1640	16676	134	33	67	-7580	6380	13484	97	-5	-171	-15316	5264	-2108	23	20	1	-1664	-2476	16828	-10	-108	199	127	125	5
-8044	-4452	13192	-97	142	-191	-16372	-1308	-2100	49	-57	103	-3292	1584	16628	129	-5	43	-7612	6468	13436	135	-23	-161	-15404	5296	-2164	-4	0	-47	-1628	-2480	16848	-28	-95	213	127	125	5
-8044	-4496	13076	-115	121	-161	-16428	-1304	-2072	71	-57	110	-3332	1664	16688	161	22	36	-7608	6484	13528	147	-32	-163	-15336	5280	-2148	17	-18	-33	-1700	-2520	16904	-22	-95	160	128	124	5
-8056	-4612	13108	-113	129	-160	-16404	-1284	-2020	145	-27	132	-3260	1584	16712	167	12	46	-7552	6456	13444	126	-54	-198	-15372	5308	-2228	-12	-25	-47	-1700	-2532	16716	-13	-84	128	128	124	5
-8056	-4528	13140	-86	162	-184	-16356	-1244	-2108	120	-19	86	-3352	1680	16788	125	-44	16	-7656	6488	13488	141	-49	-163	-15348	5308	-2044	23	-8	-58	-1708	-2508	16728	-43	-87	141	127	124	5
-8092	-4452	13168	-68	146	-217	-16408	-1172	-2124	97	-26	129	-3244	1632	16740	136	26	-11	-7632	6484	13564	124	-4	-183	-15408	5260	-2112	50	-25	-37	-1676	-2504	16764	-75	-96	133	127	124	5
-8004	-4560	13224	-59	121	-218	-16412	-1268	-2128	83	-14	139	-3312	1632	16760	121	-23	-17	-7548	6464	13452	132	-32	-127	-15360	5232	-1968	86	-60	-64	-1616	-2584	16856	-69	-76	99	127	123	5
-8036	-4468	13204	-69	136	-171	-16448	-1180	-2168	93	9	123	-3284	1564	16672	109	-35	-5	-7612	6400	13332	137	-37	-143	-15348	5316	-2148	26	-56	-74	-1608	-2608	16940	-35	-48	122	127	124	5
-8060	-4516	13112	-99	165	-204	-16364	-1256	-2188	118	-42	149	-3352	1688	16656	120	-25	10	-7568	6488	13440	130	-13	-145	-15340	5300	-2080	-8	-32	-53	-1628	-2576	16912	-7	-65	165	127	124	5
-8028	-4484	13212	-94	174	-241	-16360	-1292	-2104	102	8	134	-3288	1604	16784	92	-13	3	-7616	6512	13504	120	-24	-143	-15312	5280	-2044	48	-9	-65	-1604	-2520	16752	-13	-69	160	127	125	5
-8024	-4516	13196	-107	152	-205	-16384	-1280	-2200	71	-51	76	-3380	1632	16812	91	-13	32	-7592	6452	13456	149	0	-186	-15400	5312	-1936	52	-4	-36	-1652	-2560	16808	-17	-80	160	127	125	5
-8056	-4436	13036	-106	158	-212	-16316	-1280	-2176	75	-13	94	-3364	1560	16692	120	-10	70	-7616	6476	13552	129	-10	-165	-15416	5280	-2024	54	-13	-53	-1656	-2552	16832	-43	-97	192	127	124	5
-8012	-4560	13132	-94	130	-184	-16428	-1284	-2152	38	-63	104	-3284	1560	16640	134	-58	81	-7616	6556	13352	134	-38	-148	-15372	5244	-2012	29	21	-31	-1704	-2620	16872	-37	-84	156	127	124	5
-8108	-4480	13164	-138	136	-170	-16392	-1280	-2084	71	-23	117	-3296	1548	16752	148	-18	100	-7576	6488	13440	129	-82	-159	-15360	5280	-2148	-33	4	-27	-1632	-2540	16832	-12	-90	157	127	124	5
-8064	-4508	13208	-141	144	-198	-16396	-1320	-2104	51	-33	139	-3328	1532	16728	154	-18	63	-7604	6516	13444	125	16	-170	-15340	5284	-2156	11	-10	-37	-1640	-2568	16780	-9	-93	161	127	123	5
-8064	-4504	12980	-114	120	-213	-16368	-1380	-2180	77	-36	87	-3316	1508	16760	163	-33	48	-7660	6496	13400	146	-27	-166	-15348	5268	-2224	12	31	-25	-1740	-2580	16756	-8	-78	183	127	123	5
-8060	-4520	13176	-51	137	-165	-16412	-1324	-2180	90	-38	128	-3276	1524	16700	163	-36	26	-7596	6468	13448	150	-23	-142	-15328	5260	-2200	36	-7	-61	-1668	-2548	16804	40	-97	201	127	124	5
-8128	-4600	13104	-94	113	-199	-16388	-1312	-2048	58	-21	93	-3332	1512	16816	147	-1	11	-7716	6488	13532	163	4	-172	-15340	5280	-2128	37	-24	-43	-1656	-2596	16696	46	-78	183	127	125	5
-8072	-4512	13264	-60	103	-174	-16384	-1296	-2088	76	-52	138	-3372	1516	16776	182	-28	39	-7636	6504	13464	136	-11	-182	-15320	5288	-2112	48	-26	-73	-1732	-2704	16624	53	-78	223	127	125	5
-8084	-4552	13064	-62	94	-170	-16388	-1324	-2120	56	-47	166	-3272	1572	16628	252	-3	72	-7672	6440	13484	150	-47	-154	-15412	5228	-2028	-36	-58	-22	-1692	-2544	16888	80	-109	178	127	125	5
-8068	-4496	13244	-41	161	-192	-16396	-1312	-2156	69	-45	135	-3312	1704	16568	189	-12	27	-7584	6440	13592	139	-27	-165	-15376	5220	-2124	55	-32	-37	-1668	-2592	16816	-10	-106	149	127	124	5
-8008	-4412	13124	-75	146	-164	-16400	-1232	-2120	98	-52	114	-3248	1612	16680	207	-43	40	-7656	6468	13468	151	-14	-121	-15368	5224	-2048	52	-19	-31	-1612	-2592	16788	57	-66	134	127	124	5
-8036	-4572	13116	-63	167	-202	-16416	-1264	-2100	68	9	163	-3332	1676	16704	201	-6	58	-7648	6528	13524	156	-14	-116	-15352	5300	-2004	76	-27	23	-1608	-2580	16820	63	-56	156	127	123	5
-8032	-4404	13208	-104	131	-190	-16488	-1340	-2164	105	-19	126	-3316	1628	16732	152	-1	63	-7600	6524	13556	172	-33	-170	-15360	5212	-2156	36	-11	24	-1584	-2596	16964	-7	-104	152	127	123	5
-8072	-4564	13216	-90	129	-158	-16440	-1352	-2188	116	-22	160	-3272	1664	16744	154	5	85	-7596	6436	13536	162	10	-150	-15316	5312	-2040	-19	-16	15	-1596	-2528	16816	-19	-89	159	127	124	5
-8084	-4492	13160	-53	130	-180	-16372	-1252	-2140	94	-58	98	-3304	1576	16620	109	-24	42	-7648	6456	13384	118	-47	-183	-15364	5328	-2072	-26	20	8	-1652	-2500	16728	16	-104	159	127	124	5
-8008	-4432	13184	-128	136	-147	-16348	-1248	-2100	-18	32	112	-3304	1584	16764	196	2	50	-7668	6436	13492	106	23	-128	-15344	5352	-2128	-38	36	78	-1652	-2432	16836	16	-110	132	127	125	5
-8128	-4536	13108	-132	123	-173	-16512	-1360	-2056	4	-13	185	-3316	1560	16664	246	41	83	-7664	6472	13580	146	-10	-156	-15368	5340	-1984	31	4	-13	-1652	-2460	16880	10	-76	150	127	125	5
-8076	-4504	13112	-79	135	-211	-16368	-1356	-2152	65	-69	138	-3360	1608	16752	236	16	70	-7660	6520	13508	114	-11	-157	-15368	5324	-2076	24	11	-49	-1696	-2496	16848	28	-94	220	127	125	5
-8000	-4536	13068	-105	148	-180	-16404	-1292	-2132	47	-33	154	-3320	1636	16676	175	3	93	-7592	6492	13556	129	-8	-164	-15292	5324	-2092	-20	54	-74	-1716	-2472	16800	40	-86	236	127	124	5
-8004	-4564	13116	-98	120	-173	-16448	-1320	-2136	66	-40	143	-3328	1640	16708	130	10	96	-7584	6496	13404	88	20	-162	-15380	5320	-2112	-15	32	-83	-1700	-2460	16836	73	-89	268	127	124	5
-8056	-4532	13136	-73	103	-174	-16380	-1340	-2160	59	-48	153	-3324	1640	16712	158	7	61	-7632	6480	13460	98	2	-170	-15452	5260	-2064	6	43	-69	-1636	-2492	16768	52	-81	229	127	123	5
-8084	-4496	13188	-81	137	-163	-16404	-1304	-2156	29	-58	135	-3372	1628	16696	150	22	46	-7568	6504	13420	96	11	-203	-15364	5204	-2048	13	-8	-87	-1632	-2496	16792	31	-123	206	127	124	5
-7968	-4532	13148	-67	104	-183	-16412	-1280	-2172	33	-81	117	-3308	1612	16680	213	-14	72	-7600	6536	13600	97	-17	-199	-15304	5260	-2140	3	-8	-60	-1652	-2516	16736	-11	-104	224	127	124	5
-8024	-4536	13192	-123	121	-215	-16400	-1280	-2112	19	-13	72	-3280	1680	16824	154	-13	68	-7632	6452	13408	106	34	-170	-15384	5332	-2004	39	5	-47	-1628	-2532	16800	-58	-107	194	127	125	5
-8040	-4500	13140	-114	124	-191	-16380	-1212	-2104	75	-45	160	-3284	1712	16672	164	-13	71	-7616	6432	13468	104	-34	-175	-15356	5304	-2120	-22	4	-46	-1660	-2588	16764	-25	-59	190	127	125	5
-8000	-4496	13164	-138	144	-216	-16388	-1244	-2172	107	-53	125	-3300	1704	16652	156	-7	67	-7624	6520	13516	137	-40	-199	-15428	5300	-2080	-12	9	-57	-1624	-2512	16824	-22	-82	199	127	125	5
-8008	-4556	13140	-136	162	-193	-16420	-1216	-2040	64	-65	96	-3376	1588	16744	108	1	62	-7644	6524	13496	92	8	-186	-15352	5328	-2028	-20	25	-54	-1624	-2540	16796	-9	-71	214	127	124	5
-8028	-4520	13080	-125	143	-193	-16384	-1276	-2172	68	-68	120	-3296	1592	16764	115	-15	70	-7640	6484	13476	87	11	-164	-15372	5228	-2132	12	20	-58	-1632	-2448	16836	0	-90	186	127	124	5
-8048	-4472	13144	-142	153	-195	-16336	-1268	-2100	23	-59	98	-3324	1548	16716	106	12	83	-7612	6448	13400	110	-33	-185	-15376	5292	-2080	-17	19	-59	-1632	-2532	16760	-44	-94	209	127	123	5
-8020	-4504	13152	-154	165	-179	-16400	-1328	-2060	67	-76	115	-3364	1532	16736	121	43	82	-7560	6472	13452	93	44	-166	-15364	5320	-2160	16	1	-62	-1640	-2464	16848	-75	-104	226	127	123	5
-8076	-4572	13196	-113	143	-218	-16480	-1324	-2140	42	-66	106	-3336	1472	16764	151	0	85	-7560	6568	13552	119	-1	-178	-15412	5256	-2148	24	30	-67	-1648	-2464	16824	-61	-98	208	127	124	5
-8052	-4552	13136	-120	133	-192	-16448	-1320	-2036	55	-56	116	-3260	1512	16680	126	-8	81	-7620	6480	13468	116	-15	-188	-15400	5304	-2104	-23	14	-55	-1684	-2568	16820	-45	-82	185	127	124	5
-8036	-4540	13124	-112	140	-157	-16412	-1308	-1980	46	-67	125	-3312	1464	16724	201	9	77	-7548	6440	13468	95	-29	-174	-15416	5284	-2212	-21	30	-101	-1640	-2612	16812	-5	-85	214	127	125	5
-8024	-4528	13144	-102	140	-196	-16408	-1304	-2076	73	-36	146	-3300	1600	16744	153	-3	58	-7636	6484	13504	102	38	-190	-15392	5284	-2104	-16	10	-121	-1672	-2604	16688	40	-92	219	127	125	5
-8092	-4508	13148	-107	138	-183	-16412	-1276	-2064	41	-68	107	-3320	1576	16688	180	14	75	-7568	6424	13624	135	-56	-168	-15408	5288	-2216	11	20	-75	-1636	-2600	16760	8	-96	227	127	125	5
-8044	-4544	13124	-102	120	-183	-16384	-1292	-2040	68	-40	145	-3188	1620	16800	135	14	12	-7616	6496	13436	117	8	-147	-15368	5276	-2064	20	0	-62	-1692	-2564	16748	-12	-78	172	127	124	5
-8008	-4552	13244	-117	160	-154	-16432	-1340	-2144	26	-12	149	-3256	1544	16744	144	12	39	-7632	6444	13440	154	-33	-153	-15372	5200	-2076	0	-26	2	-1652	-2576	16792	-71	-102	164	127	124	5
-8056	-4592	13264	-78	131	-150	-16380	-1328	-2176	63	-87	128	-3268	1552	16644	175	-13	37	-7584	6456	13344	123	-14	-162	-15368	5268	-2076	25	12	-18	-1632	-2632	16776	-11	-109	164	127	124	5
-8024	-4472	13176	-101	130	-185	-16408	-1292	-2116	72	-20	144	-3360	1596	16756	162	-1	31	-7608	6496	13428	143	2	-155	-15336	5256	-2052	10	-28	-34	-1680	-2596	16912	-10	-102	136	127	124	5
-8084	-4524	13096	-113	146	-188	-16476	-1280	-2212	85	-41	136	-3284	1620	16724	189	-1	62	-7596	6492	13488	138	0	-184	-15368	5332	-2236	29	-5	-39	-1684	-2552	16812	-3	-69	145	127	124	5
-8020	-4500	13180	-112	100	-214	-16492	-1264	-2172	39	-34	118	-3368	1556	16724	186	0	51	-7604	6444	13596	125	21	-167	-15340	5256	-2076	52	-8	16	-1656	-2584	16800	-6	-91	156	126	125	5
-8040	-4544	13148	-62	148	-165	-16380	-1408	-2216	52	6	102	-3308	1612	16768	179	-21	55	-7632	6532	13432	146	-34	-154	-15364	5292	-2004	39	-6	-11	-1680	-2532	16776	22	-94	197	126	125	5
-8060	-4496	13172	-95	157	-198	-16408	-1360	-2148	47	7	115	-3332	1588	16692	154	2	98	-7552	6432	13464	106	10	-205	-15396	5324	-2132	5	-4	-26	-1660	-2464	16852	10	-110	179	126	125	5
-8032	-4520	13108	-115	114	-170	-16372	-1296	-2128	67	-32	91	-3284	1572	16740	161	42	53	-7628	6520	13432	101	-1	-149	-15388	5328	-2112	-13	-12	-65	-1656	-2492	16916	16	-73	198	126	125	5
-8112	-4500	13140	-133	150	-186	-16400	-1312	-2060	54	-57	132	-3304	1608	16796	189	-7	65	-7600	6452	13468	127	-28	-172	-15368	5268	-2064	-13	-9	-22	-1624	-2548	16788	-4	-111	145	126	124	5
-8036	-4520	13228	-69	126	-186	-16396	-1292	-2180	30	-40	132	-3312	1588	16740	189	-5	67	-7632	6492	13508	102	1	-160	-15332	5240	-2052	6	-6	-45	-1704	-2492	16784	-44	-93	147	125	124	5
-8056	-4540	13144	-25	115	-147	-16348	-1308	-2088	57	-28	126	-3296	1616	16772	165	-9	14	-7632	6484	13568	127	10	-169	-15384	5308	-2132	53	27	-29	-1716	-2556	16780	-44	-65	172	125	124	5
-8032	-4524	13116	-100	166	-155	-16480	-1292	-2076	72	-22	99	-3252	1632	16776	178	-8	35	-7600	6492	13500	142	-52	-169	-15284	5352	-2052	19	-9	-63	-1668	-2552	16840	26	-93	143	125	124	5
-8024	-4412	13228	-101	125	-168	-16424	-1284	-2188	111	-29	96	-3340	1588	16664	180	-7	2	-7604	6472	13588	113	45	-147	-15384	5224	-2092	19	-3	-33	-1652	-2524	16780	-24	-68	163	124	125	5
-7984	-4516	13164	-130	155	-193	-16424	-1236	-2124	77	-49	115	-3328	1688	16792	98	-12	-19	-7596	6468	13536	139	-22	-175	-15324	5288	-1972	20	3	-58	-1616	-2560	16792	-103	-81	152	124	125	5
-8028	-4456	13172	-107	125	-177	-16432	-1316	-2104	83	-5	104	-3320	1580	16796	97	-13	-18	-7600	6484	13460	74	-36	-135	-15356	5268	-2044	21	-28	-60	-1684	-2508	16760	-70	-84	133	124	125	5
-8060	-4520	13188	-119	169	-178	-16392	-1272	-2168	60	-38	87	-3284	1660	16680	124	49	2	-7584	6500	13516	133	0	-183	-15360	5280	-2056	-25	-21	-52	-1640	-2492	16804	-77	-109	159	124	125	5
-8092	-4524	13108	-108	131	-204	-16400	-1340	-2052	36	-66	74	-3328	1596	16696	117	-15	40	-7672	6508	13448	127	-23	-168	-15408	5324	-1980	-14	24	-60	-1604	-2588	16852	-91	-73	172	123	125	5
-8096	-4584	13140	-107	165	-175	-16436	-1252	-2100	55	-44	84	-3320	1568	16652	105	-11	55	-7572	6512	13448	131	28	-154	-15348	5312	-2156	-34	6	-84	-1644	-2572	16804	5	-85	227	123	125	5
-8048	-4532	13272	-123	152	-204	-16388	-1344	-2088	48	-4	109	-3324	1452	16728	147	-31	71	-7620	6396	13476	130	-3	-183	-15404	5244	-2148	-2	-17	-44	-1660	-2680	16760	64	-47	204	123	124	5
-8040	-4504	13092	-93	135	-189	-16400	-1328	-2040	76	-22	132	-3288	1520	16824	181	6	81	-7616	6532	13540	122	-22	-203	-15360	5196	-2008	2	13	-83	-1688	-2632	16752	33	-90	229	123	125	5
-8064	-4592	13092	-120	116	-149	-16440	-1328	-2052	72	-54	127	-3260	1488	16708	175	17	75	-7580	6440	13452	115	53	-178	-15428	5204	-2072	62	-2	-25	-1664	-2604	16732	42	-75	192	123	125	5
-8024	-4548	13100	-99	161	-183	-16364	-1280	-2120	53	-9	140	-3276	1500	16720	192	-25	65	-7640	6360	13532	134	49	-187	-15324	5252	-2000	15	2	-52	-1700	-2580	16840	7	-120	174	122	126	5
-8096	-4472	13092	-53	154	-156	-16388	-1356	-2132	45	6	160	-3304	1528	16688	184	7	56	-7608	6492	13412	145	3	-173	-15356	5268	-2104	-21	38	-7	-1672	-2656	16772	0	-117	184	122	126	5
-8012	-4516	13172	-46	155	-174	-16384	-1368	-2092	39	-25	160	-3248	1496	16696	177	14	51	-7604	6492	13524	135	-34	-120	-15364	5220	-2096	-2	-22	17	-1664	-2624	16812	44	-64	189	122	126	5
-8048	-4536	13176	-37	130	-155	-16436	-1404	-2080	37	15	129	-3312	1516	16776	220	21	63	-7644	6480	13520	169	-27	-165	-15332	5248	-2024	-32	-25	10	-1764	-2596	16728	78	-72	179	122	126	5
-8028	-4572	13080	-78	148	-146	-16392	-1288	-2172	67	35	156	-3308	1552	16692	241	8	43	-7576	6524	13500	114	-18	-146	-15384	5276	-2100	52	-36	24	-1644	-2520	16824	80	-83	182	121	125	5
-8064	-4528	13132	-40	79	-192	-16408	-1244	-2128	63	-23	167	-3376	1600	16748	280	11	58	-7608	6512	13484	147	-32	-162	-15452	5212	-2112	43	-41	9	-1672	-2500	16748	55	-110	165	121	125	5
-8008	-4552	13140	-63	108	-204	-16404	-1328	-2128	67	-17	181	-3284	1548	16744	264	33	20	-7592	6456	13548	163	-51	-140	-15372	5272	-2116	0	-33	10	-1708	-2516	16912	69	-106	175	121	125	5
-8040	-4520	13176	-38	121	-160	-16344	-1272	-2100	52	32	213	-3340	1624	16680	269	-1	51	-7580	6460	13456	174	-5	-147	-15304	5288	-2032	5	-16	13	-1652	-2504	16852	30	-90	159	121	126	5
-8096	-4540	13084	-44	131	-179	-16412	-1264	-2136	46	4	180	-3324	1624	16624	236	18	49	-7588	6504	13488	170	-5	-165	-15412	5260	-2080	-41	-23	-33	-1756	-2472	16892	12	-98	171	121	127	5
-8020	-4496	13284	-38	130	-205	-16428	-1236	-2172	48	-28	190	-3324	1700	16772	218	31	49	-7672	6556	13456	177	-28	-159	-15428	5316	-2020	-12	-59	12	-1720	-2496	16892	42	-70	196	121	127	5
-8052	-4464	13072	-39	102	-174	-16460	-1272	-2140	95	36	177	-3360	1660	16672	215	22	41	-7580	6464	13576	114	-6	-131	-15368	5308	-2088	3	-42	-40	-1684	-2556	16852	71	-100	174	121	127	5
-8068	-4480	13208	-53	113	-169	-16376	-1224	-2032	57	5	154	-3332	1692	16756	198	36	45	-7680	6504	13532	182	-83	-144	-15280	5256	-2060	57	-14	-42	-1668	-2444	16780	61	-80	160	121	126	5
-8068	-4476	13224	-39	119	-179	-16400	-1260	-2096	66	-9	140	-3312	1724	16748	205	-4	18	-7600	6404	13484	156	-29	-157	-15380	5300	-2064	23	-25	-6	-1644	-2500	16740	44	-67	162	121	126	5
-8056	-4476	13160	-64	149	-209	-16420	-1280	-2124	110	-34	147	-3300	1648	16644	189	-13	55	-7584	6540	13536	162	-41	-172	-15312	5312	-2088	8	-70	10	-1624	-2480	16840	-16	-94	128	121	126	5
-8068	-4532	13220	-65	136	-182	-16356	-1312	-2180	107	-17	138	-3324	1664	16768	198	-20	38	-7632	6508	13528	120	-61	-129	-15336	5308	-1980	40	-6	-34	-1680	-2424	16884	-44	-106	137	121	126	5
-8064	-4532	13220	-87	114	-178	-16376	-1284	-2056	85	-46	112	-3284	1616	16680	192	-12	9	-7608	6476	13480	120	-15	-168	-15340	5332	-2044	39	-33	-47	-1588	-2488	16852	-41	-63	135	121	126	5
-8000	-4524	13080	-96	176	-181	-16404	-1272	-2096	84	-39	125	-3352	1656	16704	146	-12	-2	-7624	6536	13444	105	-31	-160	-15356	5396	-2032	-15	-11	-44	-1636	-2488	16768	-36	-77	194	121	127	5
-8012	-4472	13104	-88	164	-188	-16408	-1232	-2124	53	-17	131	-3336	1692	16780	138	32	6	-7620	6616	13404	94	-19	-225	-15364	5408	-2120	21	-14	-51	-1656	-2432	16796	-29	-70	212	122	127	5
-8044	-4460	13232	-91	136	-164	-16436	-1248	-2088	92	-35	124	-3312	1552	16708	127	16	26	-7572	6508	13456	62	-4	-153	-15352	5320	-2064	21	22	-73	-1688	-2532	16884	-21	-110	201	122	127	5
-8028	-4564	13144	-81	136	-197	-16400	-1300	-2136	64	-11	123	-3332	1620	16704	186	-19	32	-7660	6548	13428	105	-41	-193	-15332	5272	-2152	12	34	-75	-1708	-2576	16820	-50	-86	213	122	127	5
-8112	-4540	13156	-129	176	-204	-16424	-1368	-2100	100	-50	133	-3308	1584	16764	160	-68	38	-7604	6464	13500	90	13	-233	-15372	5312	-2140	35	-6	-72	-1688	-2600	16836	-34	-113	192	122	127	5
-8032	-4436	13132	-118	114	-187	-16408	-1368	-2104	90	-7	106	-3276	1612	16660	211	7	48	-7576	6364	13452	107	-26	-195	-15392	5260	-2120	31	-7	-58	-1596	-2632	16836	-4	-118	144	122	126	5
-8068	-4476	13148	-89	119	-178	-16436	-1308	-1976	80	-30	129	-3312	1596	16760	212	3	37	-7620	6460	13344	82	-9	-196	-15376	5276	-2088	33	-29	-78	-1576	-2596	16760	-46	-109	144	123	126	5
-8068	-4520	13212	-90	128	-196	-16372	-1232	-2156	83	-50	150	-3312	1632	16904	120	-13	6	-7556	6444	13588	133	-5	-178	-15376	5244	-2076	16	-14	-14	-1704	-2596	16812	-42	-78	144	123	126	5
-8124	-4560	13228	-87	162	-169	-16400	-1284	-2128	40	-19	171	-3424	1644	16648	105	16	33	-7572	6488	13552	142	70	-158	-15388	5304	-2080	-12	26	-29	-1660	-2592	16884	0	-47	179	123	127	5
-8056	-4456	13128	-128	129	-191	-16376	-1336	-2120	33	-29	120	-3368	1680	16724	84	-5	61	-7616	6520	13368	135	-52	-153	-15344	5352	-2124	-19	-16	-25	-1648	-2576	16804	32	-80	204	124	127	5
-8060	-4520	13236	-128	103	-179	-16432	-1252	-2176	29	-80	124	-3424	1592	16688	77	21	95	-7636	6512	13464	131	51	-183	-15348	5256	-2072	-50	29	-29	-1664	-2528	16764	51	-86	241	124	127	5
-8048	-4540	13116	-144	124	-182	-16384	-1256	-2040	-6	-100	103	-3384	1608	16724	146	-12	137	-7612	6524	13424	117	5	-204	-15352	5212	-2072	-22	4	-13	-1692	-2556	16820	84	-119	246	124	127	5
-8040	-4532	13172	-121	111	-161	-16388	-1348	-2252	7	-55	92	-3248	1488	16728	223	-14	186	-7540	6544	13412	115	34	-162	-15404	5248	-2124	9	-9	-36	-1708	-2488	16744	68	-143	258	125	127	5
-8044	-4524	13180	-148	110	-170	-16428	-1368	-2164	59	-86	108	-3236	1556	16704	277	6	128	-7608	6456	13548	96	-30	-187	-15360	5328	-2144	51	-3	-55	-1600	-2536	16740	44	-118	213	125	126	5
-8052	-4528	13044	-84	130	-209	-16376	-1324	-2048	78	-83	151	-3212	1608	16712	216	-41	82	-7652	6516	13544	107	-1	-188	-15360	5316	-2088	22	-13	-47	-1668	-2548	16832	29	-65	193	125	126	5
-8028	-4532	13152	-110	119	-197	-16412	-1244	-2044	115	-22	122	-3272	1592	16780	158	0	50	-7620	6432	13504	101	-52	-190	-15364	5280	-2136	13	18	-16	-1660	-2476	16756	4	-39	175	125	126	5
-8032	-4576	13080	-91	179	-188	-16360	-1256	-2032	42	-37	114	-3260	1632	16756	107	27	36	-7584	6516	13488	83	10	-168	-15308	5352	-1968	-2	-22	-59	-1576	-2472	16792	-1	-101	176	126	126	5
-8016	-4524	13168	-83	124	-200	-16396	-1232	-2136	17	-60	137	-3256	1676	16692	110	7	46	-7620	6480	13464	154	-7	-180	-15320	5336	-2076	26	16	3	-1604	-2516	16956	-58	-90	170	126	127	5
-8076	-4572	13152	-101	185	-173	-16336	-1264	-2140	20	-28	120	-3360	1604	16696	145	-9	5	-7648	6488	13408	94	-46	-179	-15408	5252	-2048	10	30	-52	-1616	-2480	16792	-62	-64	205	126	127	5
-8036	-4532	13228	-138	157	-184	-16436	-1244	-2096	54	-15	105	-3324	1640	16744	176	-22	69	-7632	6464	13512	116	-14	-193	-15404	5284	-2056	44	34	-56	-1648	-2476	16872	-36	-82	221	126	127	5
-8040	-4528	13220	-114	144	-182	-16452	-1252	-2104	88	-68	99	-3292	1668	16616	205	-39	69	-7588	6448	13524	93	-5	-218	-15340	5272	-2064	11	60	-81	-1696	-2400	16772	-28	-84	216	127	126	5
-8044	-4496	13136	-79	142	-180	-16400	-1360	-2140	88	-53	87	-3388	1692	16688	208	-50	101	-7636	6520	13364	70	53	-225	-15356	5348	-2036	-19	59	-99	-1704	-2496	16732	-85	-75	230	127	126	5
-8000	-4464	13196	-135	141	-193	-16392	-1272	-2144	75	-46	95	-3420	1728	16820	123	-38	108	-7652	6464	13424	75	-6	-209	-15464	5316	-2060	-44	66	-111	-1676	-2500	16860	-67	-74	247	127	126	5
-8056	-4496	13196	-114	143	-206	-16448	-1292	-2124	46	-70	71	-3416	1664	16732	117	-35	101	-7628	6492	13472	43	35	-170	-15388	5264	-2056	-37	60	-84	-1724	-2532	16804	-34	-61	266	127	126	5
-8072	-4468	13180	-114	133	-183	-16400	-1324	-2140	17	-79	81	-3312	1604	16656	97	-9	85	-7644	6480	13472	87	0	-171	-15344	5224	-2152	-54	52	-121	-1680	-2584	16800	-15	-78	283	127	125	5
-8092	-4532	13188	-147	135	-197	-16416	-1352	-2088	15	-93	97	-3268	1588	16768	122	-13	84	-7584	6484	13460	91	-17	-207	-15340	5384	-2072	-40	25	-122	-1660	-2544	16836	-41	-76	269	127	125	5
-8104	-4576	13128	-139	166	-199	-16456	-1352	-2088	22	-64	95	-3272	1576	16724	136	-16	73	-7604	6448	13432	56	-54	-178	-15320	5216	-2176	-5	27	-116	-1720	-2604	16720	-6	-68	254	127	126	5
-8056	-4540	13208	-118	151	-211	-16336	-1240	-2168	79	-75	93	-3308	1528	16840	148	-14	57	-7628	6456	13432	130	-12	-195	-15336	5204	-2116	5	-9	-123	-1760	-2608	16768	-20	-50	190	127	126	5
-8080	-4548	13172	-132	167	-184	-16396	-1364	-1992	38	-73	102	-3372	1588	16712	158	-29	42	-7664	6496	13408	99	5	-174	-15312	5184	-2204	-19	-22	-48	-1744	-2588	16752	-78	-79	179	127	126	5
-8044	-4556	13160	-95	177	-201	-16404	-1372	-2104	69	-25	108	-3324	1552	16708	132	-11	30	-7640	6464	13528	127	-46	-159	-15436	5216	-2156	-6	-29	-58	-1740	-2648	16820	-59	-76	144	128	125	5
-8036	-4536	13056	-153	134	-164	-16368	-1320	-2084	49	-27	117	-3312	1612	16704	109	-19	31	-7636	6512	13440	141	-24	-150	-15372	5220	-2168	-3	-15	-65	-1716	-2560	16776	-27	-79	157	128	125	5
-8060	-4520	13200	-116	164	-197	-16400	-1312	-2160	17	-41	135	-3300	1536	16792	95	-20	14	-7604	6420	13444	132	-62	-130	-15400	5216	-2048	61	-21	-49	-1652	-2636	16852	24	-58	166	128	123	5
-7992	-4568	13164	-104	138	-188	-16380	-1348	-2028	53	-45	143	-3244	1508	16680	107	12	50	-7648	6496	13520	149	-51	-150	-15412	5272	-2148	15	-48	-53	-1688	-2640	16716	23	-58	181	128	124	5
-8084	-4608	13116	-78	128	-150	-16392	-1292	-2092	85	-77	133	-3312	1452	16760	141	-22	27	-7680	6304	13584	68	-77	-230	-15380	5212	-2088	-56	-30	14	-1648	-2572	16772	-19	-101	134	128	124	5
-8036	-4460	13252	-87	141	-161	-16384	-1304	-2084	86	12	140	-3248	1544	16692	155	-3	21	-7624	6460	13388	143	7	-139	-15416	5152	-2032	13	-70	33	-1748	-2588	16848	6	-80	159	129	124	5
-8140	-4496	13148	-93	130	-147	-16384	-1312	-2080	77	30	156	-3220	1440	16756	215	-23	43	-7684	6548	13476	155	22	-110	-15368	5240	-2076	42	-58	2	-1624	-2600	16720	-5	-98	135	129	125	5
-8068	-4524	13092	-51	138	-173	-16444	-1304	-2160	131	-1	162	-3316	1528	16680	228	-21	44	-7572	6464	13408	141	-26	-121	-15356	5248	-2080	-18	-36	28	-1660	-2704	16848	12	-66	97	129	125	5
-8048	-4532	13216	-45	116	-167	-16404	-1320	-2028	74	14	157	-3280	1516	16700	240	3	13	-7624	6468	13540	149	-37	-156	-15380	5264	-2152	-5	-27	51	-1716	-2624	16844	22	-97	145	129	125	5
-8040	-4472	13108	-41	111	-179	-16432	-1388	-2104	96	38	180	-3308	1544	16780	240	-3	41	-7592	6420	13400	188	-5	-166	-15408	5188	-2188	38	-26	40	-1668	-2596	16712	12	-80	132	129	125	5
-8020	-4556	13256	-38	123	-171	-16400	-1292	-2020	94	21	164	-3304	1620	16808	260	-6	23	-7608	6468	13456	184	-36	-139	-15344	5284	-2100	45	-13	9	-1656	-2640	16792	19	-73	141	129	124	5
-8036	-4492	13220	-71	112	-158	-16376	-1364	-2020	93	13	177	-3328	1544	16800	220	14	33	-7572	6504	13420	166	-24	-178	-15340	5232	-1972	14	16	57	-1668	-2516	16832	28	-108	160	129	123	5
-8064	-4492	13204	-69	102	-196	-16392	-1312	-2196	75	12	168	-3304	1556	16672	259	-5	48	-7676	6512	13484	175	-21	-142	-15392	5268	-2172	36	-2	20	-1676	-2536	16804	42	-95	147	130	123	5
-8020	-4496	13168	-66	94	-154	-16404	-1284	-2068	99	4	144	-3316	1604	16676	262	-22	35	-7652	6392	13452	133	-54	-150	-15316	5264	-2052	-8	-12	56	-1672	-2484	16776	46	-72	138	130	124	5
-8036	-4508	13052	-61	119	-178	-16368	-1328	-2016	96	20	143	-3296	1708	16760	249	6	60	-7588	6460	13524	175	53	-174	-15412	5308	-2080	38	4	-6	-1664	-2444	16852	0	-102	149	130	124	5
-8056	-4516	13188	-94	134	-191	-16356	-1292	-2136	96	46	119	-3208	1644	16776	225	-11	53	-7604	6528	13492	156	12	-144	-15376	5264	-2168	15	8	20	-1624	-2528	16732	14	-93	153	130	125	5
-8020	-4524	13112	-59	134	-171	-16424	-1276	-2068	87	33	157	-3288	1596	16696	215	-35	37	-7664	6524	13400	124	22	-173	-15300	5264	-1976	70	10	-1	-1560	-2524	16788	-40	-82	151	130	124	5
-8020	-4440	13140	-92	125	-195	-16424	-1268	-2164	120	8	137	-3276	1644	16676	216	4	40	-7568	6548	13428	136	-21	-148	-15412	5356	-1960	24	68	26	-1572	-2424	16840	-37	-97	156	130	124	5
-8100	-4540	13144	-104	147	-192	-16472	-1248	-2048	77	-2	127	-3288	1716	16672	230	-29	53	-7616	6468	13424	95	60	-228	-15388	5348	-2096	-1	72	-5	-1644	-2468	16808	-75	-99	171	130	123	5
-8020	-4492	13288	-86	122	-173	-16408	-1252	-2068	62	-9	124	-3340	1748	16868	224	-38	90	-7596	6520	13428	101	-28	-211	-15364	5300	-2180	-31	64	-17	-1600	-2368	16840	-116	-121	180	130	123	5
-8100	-4512	13236	-142	150	-172	-16376	-1300	-2148	60	12	113	-3276	1724	16724	200	-63	98	-7648	6484	13524	92	93	-238	-15332	5348	-2156	-31	103	-37	-1712	-2468	16824	-132	-92	202	130	123	5
-8024	-4532	13092	-138	143	-178	-16388	-1248	-2200	76	-20	70	-3308	1720	16704	180	-26	123	-7648	6496	13408	64	15	-229	-15388	5272	-2076	-21	107	-25	-1648	-2488	16860	-149	-88	231	130	124	5
-8004	-4548	13128	-138	154	-132	-16396	-1296	-2140	65	-4	81	-3372	1608	16676	161	-40	134	-7608	6480	13448	25	42	-228	-15360	5348	-2024	6	117	-56	-1720	-2496	16788	-158	-76	212	130	124	5
-8068	-4516	13248	-179	140	-141	-16448	-1320	-2164	81	-5	38	-3240	1680	16704	189	-69	120	-7592	6492	13512	8	62	-286	-15332	5300	-2080	-44	83	-84	-1672	-2520	16772	-144	-102	269	131	124	5
-7972	-4464	13088	-135	144	-197	-16352	-1304	-2236	82	-60	62	-3320	1612	16708	172	-37	118	-7624	6472	13360	52	30	-263	-15396	5296	-2092	-5	113	-104	-1668	-2568	16752	-101	-92	282	131	125	5
-8172	-4492	13148	-134	186	-168	-16400	-1364	-2108	85	-106	88	-3276	1596	16712	140	-9	97	-7648	6480	13556	40	13	-238	-15376	5284	-2040	-16	95	-117	-1716	-2560	16828	-72	-79	256	130	125	5
-8020	-4524	13260	-128	164	-222	-16420	-1320	-2208	70	-13	70	-3332	1568	16732	78	-32	114	-7580	6376	13512	58	-14	-255	-15336	5272	-2192	-21	85	-130	-1700	-2608	16912	-135	-88	246	130	125	5
-8100	-4480	13072	-152	146	-173	-16368	-1320	-2140	81	-68	83	-3304	1592	16776	114	-54	97	-7636	6412	13572	38	-47	-218	-15332	5204	-2132	-49	70	-117	-1716	-2648	16784	-115	-97	228	131	124	5
-8056	-4496	13116	-109	152	-181	-16396	-1348	-2168	60	-60	60	-3300	1552	16884	116	-18	61	-7668	6448	13496	62	9	-188	-15508	5144	-2132	14	26	-113	-1680	-2660	16752	-115	-62	198	131	124	5
-8008	-4516	13100	-151	158	-147	-16344	-1308	-2008	65	-34	81	-3296	1528	16700	147	-29	65	-7660	6416	13540	86	-19	-200	-15392	5136	-2200	25	28	-60	-1752	-2692	16816	-102	-66	172	131	124	5
-8112	-4540	13060	-100	176	-181	-16432	-1360	-2184	86	-49	98	-3276	1504	16812	118	-16	48	-7568	6420	13436	104	-32	-181	-15372	5128	-2088	-8	4	-63	-1756	-2788	16808	-58	-96	195	131	124	5
-8100	-4480	13112	-106	155	-154	-16372	-1400	-2084	79	-11	87	-3256	1508	16676	196	-38	70	-7640	6440	13464	91	9	-174	-15388	5264	-2024	-12	54	-87	-1716	-2644	16812	-30	-84	169	131	125	5
-8028	-4560	13080	-105	169	-185	-16340	-1348	-2112	104	-66	81	-3252	1504	16724	144	-15	36	-7676	6436	13452	133	3	-187	-15336	5184	-2076	-28	-20	-45	-1728	-2708	16736	-25	-95	186	131	125	5
-8096	-4520	13212	-112	118	-166	-16376	-1388	-2020	74	-26	126	-3276	1472	16880	146	-14	65	-7596	6456	13452	140	-8	-204	-15348	5200	-2148	0	-18	-14	-1724	-2660	16812	-15	-96	159	131	125	5
-8096	-4580	13164	-97	121	-193	-16440	-1360	-2108	70	-17	119	-3224	1584	16776	146	-10	37	-7688	6496	13512	154	-6	-167	-15332	5240	-2160	37	-20	-26	-1720	-2672	16660	-32	-104	117	130	125	5
-8048	-4508	13172	-100	119	-188	-16420	-1420	-2148	100	42	131	-3272	1480	16708	184	-23	49	-7716	6428	13612	136	-28	-179	-15356	5240	-2140	13	-39	-2	-1708	-2680	16696	-51	-64	144	131	125	5
-8104	-4552	13232	-103	130	-176	-16428	-1388	-2056	100	-29	128	-3252	1524	16680	185	22	40	-7628	6440	13468	155	17	-127	-15356	5224	-2048	18	-31	-12	-1700	-2628	16800	-27	-95	125	131	124	5
-8092	-4532	13080	-46	120	-178	-16364	-1292	-2088	109	-16	149	-3276	1516	16816	211	4	34	-7684	6444	13424	167	-33	-149	-15336	5264	-2128	-4	-4	-23	-1724	-2676	16788	4	-111	152	130	124	5
-8084	-4572	13112	-78	73	-171	-16384	-1364	-2068	96	11	161	-3288	1552	16688	228	20	20	-7632	6452	13484	120	-42	-159	-15348	5296	-2088	14	-16	-29	-1676	-2628	16864	25	-90	128	130	124	5
-8032	-4552	13164	-64	119	-176	-16392	-1356	-2168	116	49	141	-3280	1564	16772	236	6	-3	-7620	6392	13512	167	-53	-146	-15380	5228	-2136	31	-44	-11	-1668	-2660	16752	32	-91	152	130	124	5
-8036	-4548	13172	-100	112	-182	-16388	-1296	-2120	115	6	154	-3308	1568	16692	185	33	16	-7688	6452	13492	126	-54	-166	-15424	5300	-2188	48	-11	47	-1660	-2628	16752	-46	-103	139	130	124	5
-8072	-4488	13052	-91	120	-189	-16416	-1324	-2112	71	16	167	-3308	1592	16712	219	-13	28	-7632	6512	13400	123	-22	-163	-15380	5256	-2044	58	-15	-17	-1664	-2588	16748	-64	-82	156	130	125	5
-8036	-4488	13248	-27	115	-184	-16368	-1240	-2092	101	23	130	-3280	1604	16748	243	21	12	-7660	6460	13432	147	-28	-130	-15392	5320	-2048	23	10	-33	-1636	-2592	16796	-37	-119	160	130	125	5
-8088	-4492	13240	-77	125	-165	-16356	-1344	-2192	79	-9	146	-3292	1652	16660	248	-13	46	-7668	6480	13496	107	7	-196	-15436	5252	-2044	-45	-9	-55	-1648	-2568	16776	-31	-95	175	130	125	5
-8032	-4508	13160	-84	108	-162	-16376	-1368	-2188	68	-16	184	-3364	1648	16728	225	5	40	-7648	6452	13604	135	-8	-193	-15432	5244	-2028	-18	11	-50	-1740	-2696	16856	12	-104	193	130	124	5
-8076	-4528	13120	-74	123	-166	-16464	-1284	-2176	76	-59	105	-3316	1592	16728	197	-23	82	-7616	6488	13396	107	-11	-194	-15356	5276	-2048	-44	7	-10	-1684	-2688	16788	46	-104	189	130	124	5
-8088	-4456	13168	-76	116	-196	-16380	-1292	-2180	65	2	105	-3292	1712	16680	222	-19	100	-7600	6456	13516	131	-40	-184	-15352	5228	-2108	47	37	-12	-1624	-2652	16768	36	-118	222	130	124	5
-8076	-4508	13232	-122	168	-170	-16384	-1308	-2044	65	-23	139	-3320	1612	16720	204	-8	103	-7596	6408	13448	72	15	-210	-15360	5284	-2112	11	48	33	-1748	-2608	16768	24	-88	189	130	124	5
-8120	-4528	13096	-123	141	-195	-16356	-1380	-2152	87	-11	151	-3304	1628	16648	198	51	70	-7664	6436	13516	128	0	-168	-15388	5340	-2128	-41	35	-19	-1736	-2524	16752	-10	-111	211	130	124	5
-8052	-4484	13128	-80	130	-182	-16384	-1328	-2116	17	-35	169	-3320	1700	16692	221	17	62	-7656	6468	13352	107	8	-200	-15412	5316	-2112	-58	15	-42	-1768	-2608	16768	-8	-95	193	130	125	5
-8064	-4540	13304	-41	143	-176	-16424	-1316	-2224	31	-20	151	-3292	1696	16740	172	39	63	-7632	6480	13556	137	20	-179	-15344	5296	-2112	-48	23	-42	-1716	-2572	16872	-1	-129	175	131	125	5
-8052	-4524	13180	-92	130	-149	-16400	-1352	-2240	39	-21	155	-3280	1644	16640	187	-10	66	-7668	6444	13404	129	-30	-190	-15344	5300	-1868	10	24	-85	-1708	-2664	16804	17	-91	204	131	125	5
-8100	-4496	13152	-74	131	-180	-16388	-1312	-2024	41	-19	149	-3224	1640	16804	162	-14	65	-7672	6444	13416	133	-26	-178	-15372	5316	-2096	14	-23	-34	-1708	-2616	16768	30	-77	210	131	124	5
-8084	-4500	13116	-94	117	-192	-16348	-1320	-2100	138	-89	188	-3220	1624	16776	178	-3	71	-7664	6460	13388	134	-82	-158	-15396	5272	-2244	21	-35	-35	-1684	-2556	16892	64	-87	185	130	124	5
-8060	-4512	13072	-131	153	-207	-16424	-1292	-2032	173	-64	113	-3264	1680	16640	133	19	44	-7612	6440	13420	146	4	-167	-15372	5300	-2264	32	-15	-76	-1720	-2568	16812	38	-67	193	130	124	5
-8152	-4528	13232	-111	153	-218	-16416	-1300	-2092	93	-32	103	-3232	1644	16740	176	46	45	-7684	6424	13580	134	-86	-143	-15316	5284	-2180	23	-50	-24	-1696	-2532	16708	30	-73	149	131	124	5
-8068	-4484	13180	-102	123	-205	-16348	-1320	-2072	74	-41	121	-3232	1628	16672	117	34	-14	-7648	6416	13496	136	37	-185	-15328	5324	-2068	38	-17	-42	-1640	-2612	16856	30	-71	113	130	124	5
-8112	-4460	13208	-105	145	-203	-16388	-1412	-2072	86	5	163	-3228	1592	16788	128	-15	-3	-7704	6424	13436	120	-33	-154	-15356	5292	-2116	12	-7	-66	-1660	-2548	16856	-15	-91	115	130	124	5
-8112	-4532	13204	-125	110	-179	-16372	-1312	-2048	22	-20	124	-3244	1648	16708	114	4	4	-7668	6436	13492	108	-62	-157	-15380	5324	-2148	-8	0	-30	-1672	-2580	16856	-80	-119	167	130	124	5
-8052	-4456	13168	-79	124	-182	-16436	-1368	-2148	16	0	138	-3248	1624	16760	145	-14	-1	-7604	6504	13464	129	20	-124	-15336	5340	-1976	35	10	-45	-1668	-2544	16828	-82	-74	162	130	125	5
-8068	-4504	13188	-84	129	-185	-16444	-1332	-2220	64	-4	143	-3304	1620	16900	143	-19	33	-7632	6416	13528	141	21	-146	-15364	5264	-2064	16	12	-34	-1740	-2632	16844	-22	-104	190	130	125	5
-8048	-4476	13040	-63	140	-180	-16444	-1368	-2048	87	-66	111	-3288	1524	16728	196	-10	31	-7620	6440	13452	93	-48	-128	-15332	5260	-2076	23	1	-79	-1708	-2672	16736	20	-72	213	130	124	5
-8004	-4448	13228	-143	134	-135	-16372	-1356	-2072	47	-36	120	-3312	1588	16704	193	-22	70	-7600	6448	13456	121	10	-145	-15308	5296	-2208	39	-5	-75	-1676	-2624	16844	-8	-88	176	131	123	5
-8100	-4492	13004	-121	124	-155	-16408	-1288	-2164	28	-38	132	-3324	1636	16708	170	-4	60	-7632	6468	13564	133	-36	-192	-15316	5240	-2088	-2	39	-80	-1704	-2640	16776	-14	-98	225	131	123	5
-8044	-4504	13120	-105	94	-172	-16376	-1292	-2144	32	-3	134	-3240	1568	16684	199	-27	66	-7656	6412	13492	100	-2	-170	-15360	5248	-2208	22	11	-53	-1724	-2712	16824	-37	-108	198	130	123	5
-8076	-4492	13188	-79	134	-191	-16388	-1344	-2188	29	-41	130	-3260	1600	16700	158	4	56	-7676	6444	13500	121	8	-150	-15324	5308	-2168	18	7	-7	-1768	-2652	16852	-3	-85	208	130	124	5
-8084	-4512	13232	-112	130	-185	-16364	-1332	-2208	44	-21	149	-3308	1620	16692	197	-25	67	-7676	6408	13544	130	-30	-145	-15380	5228	-2100	12	-36	-48	-1732	-2716	16672	19	-77	222	131	124	5
-8084	-4540	13100	-46	114	-166	-16412	-1300	-2116	64	-43	120	-3364	1560	16736	187	19	39	-7640	6364	13464	128	-7	-151	-15352	5280	-2168	-4	-79	-2	-1732	-2748	16856	23	-91	153	130	124	5
-8092	-4608	13132	-104	141	-167	-16468	-1360	-2160	96	-38	138	-3296	1588	16764	189	0	35	-7588	6484	13456	148	-18	-169	-15308	5232	-2128	73	-38	-10	-1708	-2700	16772	19	-100	161	130	124	5
-8020	-4516	13132	-91	139	-169	-16408	-1284	-2168	67	5	166	-3248	1624	16720	206	12	15	-7608	6420	13560	138	18	-134	-15236	5256	-2136	46	-24	6	-1720	-2692	16940	18	-81	160	130	124	5
-8036	-4516	13112	-112	100	-165	-16460	-1280	-2080	68	-67	147	-3292	1632	16668	185	2	31	-7664	6472	13444	169	-50	-141	-15368	5328	-2280	10	-26	-8	-1708	-2568	16756	-52	-76	114	130	123	5
-8132	-4508	13232	-82	116	-151	-16428	-1288	-1980	70	-35	135	-3264	1608	16616	171	19	35	-7604	6432	13424	155	17	-141	-15320	5236	-2144	19	0	9	-1680	-2612	16748	-34	-91	129	130	123	5
-8080	-4500	13084	-113	96	-154	-16412	-1296	-2208	65	-46	146	-3288	1648	16712	182	-7	35	-7568	6504	13516	146	3	-175	-15328	5300	-2104	13	-11	-2	-1628	-2572	16772	-11	-85	175	130	123	5
-8060	-4472	13164	-38	109	-189	-16340	-1296	-2060	64	-16	146	-3268	1664	16800	163	-22	21	-7620	6516	13392	165	-51	-152	-15392	5312	-2068	29	5	-20	-1604	-2512	16816	-11	-70	177	130	123	5
-8016	-4464	13184	-91	140	-180	-16380	-1304	-2228	80	-21	126	-3296	1600	16676	184	-12	72	-7676	6528	13412	127	-27	-185	-15432	5292	-2116	25	-12	-13	-1684	-2608	16768	1	-99	167	130	124	5
-8040	-4556	13192	-114	101	-206	-16400	-1296	-2060	92	5	147	-3304	1608	16780	158	7	30	-7608	6472	13452	139	-45	-137	-15296	5292	-2196	20	-30	-39	-1656	-2576	16836	-16	-91	176	130	124	5
-8080	-4580	13160	-94	141	-181	-16440	-1376	-2176	53	-35	127	-3344	1676	16820	178	7	40	-7604	6452	13376	138	-13	-173	-15384	5376	-2060	-3	0	-73	-1684	-2528	16788	-59	-112	192	130	124	5
-8076	-4528	13140	-86	122	-178	-16408	-1264	-2076	74	-10	117	-3308	1644	16656	163	-10	66	-7636	6444	13476	124	25	-157	-15440	5308	-2132	-23	16	-70	-1632	-2592	16820	-63	-108	203	130	124	5
-8036	-4488	13224	-105	142	-168	-16468	-1276	-2164	84	-38	112	-3364	1616	16828	173	11	73	-7664	6480	13384	90	-23	-177	-15344	5312	-2188	-24	53	-94	-1696	-2620	16944	-47	-88	224	130	123	5
-8044	-4496	13224	-123	146	-173	-16452	-1244	-1984	49	-42	138	-3300	1656	16656	148	-4	51	-7644	6428	13568	113	14	-158	-15384	5304	-2048	-30	1	-54	-1776	-2660	16812	16	-83	204	130	123	5
-8088	-4440	13156	-112	129	-170	-16360	-1328	-2156	67	-52	109	-3324	1636	16768	127	12	34	-7648	6476	13500	117	9	-196	-15320	5224	-2172	19	1	-95	-1680	-2672	16896	8	-78	185	130	123	5
-8036	-4540	13216	-109	142	-168	-16412	-1244	-2132	81	-60	110	-3264	1604	16712	144	-13	67	-7664	6396	13548	88	-28	-180	-15408	5236	-2132	-25	35	-61	-1684	-2668	16716	-28	-91	224	130	123	5
-8112	-4484	13076	-139	146	-195	-16388	-1316	-2076	46	-56	98	-3292	1660	16704	127	34	47	-7660	6432	13420	99	-26	-164	-15320	5220	-2124	27	36	-60	-1728	-2644	16792	-21	-111	228	129	123	5
-8088	-4496	13108	-146	140	-154	-16440	-1332	-2188	45	-51	114	-3300	1628	16692	136	-23	72	-7584	6480	13496	159	-39	-187	-15408	5220	-2208	9	12	-54	-1680	-2692	16708	-28	-95	159	129	124	5
-8104	-4512	13168	-98	149	-176	-16440	-1260	-2028	29	-47	120	-3296	1572	16732	158	-57	63	-7616	6460	13344	94	-3	-150	-15344	5284	-2224	-11	-35	-45	-1692	-2644	16652	-13	-110	179	129	124	5
-8076	-4496	13120	-137	165	-181	-16376	-1348	-2048	30	-45	121	-3292	1536	16708	163	14	31	-7680	6436	13472	100	32	-172	-15352	5196	-2160	-36	12	-51	-1720	-2684	16808	-1	-117	163	129	124	5
-8100	-4508	13140	-127	130	-174	-16380	-1332	-2024	53	-83	111	-3236	1568	16560	161	-13	74	-7664	6412	13468	126	-41	-174	-15320	5192	-2008	14	19	-4	-1696	-2740	16680	28	-92	168	129	124	5
-8096	-4556	13100	-99	125	-172	-16352	-1344	-2028	75	-61	125	-3244	1568	16712	206	-8	67	-7652	6392	13356	103	11	-157	-15352	5272	-2180	25	-8	-29	-1696	-2656	16804	31	-90	159	129	123	5
-8060	-4564	13072	-84	155	-193	-16348	-1332	-2088	66	-27	138	-3264	1468	16760	190	36	55	-7596	6424	13496	107	2	-171	-15348	5248	-2220	-10	-23	-22	-1740	-2632	16788	-24	-99	153	129	123	5
-8068	-4508	13140	-89	132	-169	-16360	-1388	-2084	80	-9	144	-3228	1568	16816	206	18	44	-7640	6456	13404	147	-13	-171	-15356	5300	-2192	61	-17	44	-1684	-2664	16752	-12	-108	130	129	123	5
-8080	-4572	13116	-24	114	-183	-16356	-1392	-1992	41	-12	183	-3308	1672	16696	210	7	34	-7580	6468	13460	117	-58	-162	-15420	5300	-2144	68	-48	-22	-1708	-2680	16792	6	-94	119	129	123	5
-8064	-4488	13160	-48	137	-192	-16392	-1308	-2184	57	-30	200	-3300	1596	16688	188	-9	20	-7584	6436	13488	132	-8	-110	-15392	5276	-2200	7	-24	-32	-1716	-2700	16780	-19	-116	159	129	124	5
-8052	-4548	13120	-63	121	-182	-16408	-1324	-2160	36	7	156	-3288	1568	16780	213	18	24	-7656	6452	13332	150	-14	-142	-15432	5248	-2156	-21	-72	0	-1720	-2636	16672	39	-114	147	129	124	5
-8092	-4516	13288	-94	107	-158	-16428	-1284	-2180	69	-34	159	-3336	1644	16700	195	13	46	-7632	6484	13464	128	-37	-131	-15300	5304	-2292	22	-22	-9	-1684	-2596	16852	47	-86	210	128	124	5
-8028	-4520	13120	-60	141	-191	-16416	-1268	-2056	48	-19	150	-3248	1656	16744	209	19	65	-7640	6480	13428	134	-17	-163	-15336	5316	-2176	18	-46	4	-1712	-2604	16752	39	-88	169	128	124	5
-8056	-4432	13152	-94	131	-201	-16380	-1308	-2060	93	-16	173	-3224	1736	16636	180	46	43	-7664	6436	13440	155	12	-127	-15332	5244	-2168	28	-35	-11	-1644	-2568	16848	40	-59	180	128	124	5
-8084	-4508	13176	-76	113	-166	-16412	-1272	-2164	88	-31	156	-3264	1684	16724	179	-28	35	-7568	6432	13540	152	21	-158	-15336	5280	-2124	51	-56	18	-1636	-2556	16768	23	-84	146	128	123	5
-8088	-4532	13192	-62	106	-167	-16396	-1268	-2124	78	-33	146	-3304	1692	16740	140	-20	14	-7656	6480	13516	162	-5	-178	-15320	5232	-2024	19	-6	-24	-1660	-2540	16720	-20	-109	87	128	123	5
-8012	-4488	13072	-107	125	-180	-16380	-1292	-2184	105	-17	136	-3220	1680	16616	174	6	26	-7660	6488	13416	144	-45	-165	-15332	5328	-2096	9	11	-36	-1656	-2576	16900	-40	-118	159	128	123	5
-8040	-4488	13216	-107	141	-190	-16428	-1284	-2136	71	-35	145	-3300	1668	16792	166	-8	48	-7700	6460	13556	137	-59	-163	-15320	5376	-1956	25	-17	-3	-1656	-2592	16852	-43	-110	150	128	123	5
-8104	-4484	13092	-160	144	-176	-16400	-1320	-2128	70	-3	105	-3328	1672	16724	126	3	30	-7648	6392	13508	138	-19	-143	-15348	5304	-2068	5	1	-52	-1652	-2564	16836	4	-78	198	128	124	5
-8048	-4496	13120	-117	154	-182	-16416	-1288	-2060	52	-68	113	-3368	1604	16668	122	15	65	-7600	6520	13532	110	-20	-141	-15300	5332	-2208	-8	20	-94	-1664	-2628	16876	11	-82	205	128	124	5
-8024	-4548	13180	-145	145	-213	-16380	-1320	-2148	69	-20	122	-3292	1624	16752	118	10	78	-7656	6444	13456	113	22	-154	-15352	5276	-2072	17	34	-75	-1704	-2708	16820	15	-110	248	128	124	5
-8068	-4444	13148	-117	142	-178	-16380	-1256	-2204	53	-43	78	-3308	1612	16704	124	13	94	-7680	6432	13452	122	-20	-180	-15384	5264	-2096	1	13	-15	-1720	-2604	16748	42	-90	221	128	124	5
-8068	-4508	13176	-130	153	-171	-16472	-1324	-2048	47	-44	79	-3288	1572	16656	184	0	90	-7624	6380	13488	62	-4	-146	-15360	5304	-2120	37	-15	-57	-1664	-2604	16724	-21	-86	216	128	123	5
-8084	-4476	13156	-140	156	-193	-16344	-1320	-2188	41	-64	94	-3280	1584	16664	168	23	54	-7600	6492	13492	104	24	-185	-15368	5256	-2136	25	43	-87	-1712	-2604	16800	5	-108	175	128	123	5
-8060	-4488	13164	-166	143	-210	-16348	-1408	-2040	38	-12	131	-3252	1584	16788	156	14	34	-7644	6468	13472	106	46	-166	-15384	5260	-2188	-34	24	-80	-1688	-2712	16816	11	-97	182	128	123	5
-8052	-4484	13120	-112	137	-177	-16360	-1344	-2028	36	-36	147	-3324	1532	16712	136	11	19	-7672	6424	13492	133	28	-161	-15336	5228	-2156	-18	7	-74	-1660	-2700	16784	-7	-104	200	128	124	5
-8012	-4488	13100	-97	114	-228	-16400	-1276	-2112	39	-69	126	-3256	1512	16780	132	29	68	-7624	6480	13580	148	-33	-126	-15376	5224	-2064	-12	-43	-29	-1644	-2736	16792	4	-82	199	128	124	5
-8072	-4508	13220	-82	142	-186	-16384	-1252	-2124	61	-56	96	-3252	1560	16740	150	5	57	-7620	6480	13440	150	-16	-168	-15380	5220	-2196	35	0	-57	-1704	-2724	16756	48	-96	159	128	124	5
-8064	-4476	13148	-112	126	-160	-16336	-1324	-2052	85	-26	128	-3264	1552	16692	180	16	67	-7628	6480	13448	131	-59	-171	-15360	5276	-2024	24	-43	-42	-1640	-2680	16832	61	-61	138	128	124	5
-7976	-4580	13096	-70	115	-183	-16388	-1348	-1992	33	1	119	-3232	1560	16720	221	39	40	-7648	6464	13492	166	-5	-144	-15352	5272	-2076	43	-33	33	-1724	-2692	16748	29	-84	149	128	124	5
-8104	-4528	13188	-102	113	-175	-16392	-1312	-2176	75	-53	147	-3144	1564	16720	200	-28	50	-7632	6428	13460	140	-16	-168	-15344	5296	-2192	26	10	20	-1676	-2668	16716	27	-92	160	128	123	5
-8068	-4532	13120	-46	109	-174	-16356	-1292	-2100	65	26	154	-3340	1560	16780	218	15	60	-7724	6448	13432	144	-25	-143	-15356	5232	-2240	10	5	-6	-1692	-2624	16836	21	-91	133	128	123	5
-7984	-4480	13112	-57	137	-161	-16400	-1336	-2164	91	18	165	-3276	1648	16612	209	-17	40	-7640	6448	13564	144	-9	-154	-15344	5276	-2172	7	-48	-2	-1724	-2664	16796	4	-87	157	127	123	5
-8048	-4516	13096	-30	133	-175	-16380	-1272	-2188	88	3	150	-3260	1572	16752	205	-22	34	-7632	6468	13452	130	-40	-147	-15312	5224	-2188	60	13	9	-1740	-2628	16716	42	-81	147	127	124	5
-8092	-4484	13116	-68	96	-190	-16432	-1260	-2112	50	6	155	-3316	1640	16724	214	14	26	-7644	6448	13468	161	-8	-172	-15324	5292	-2100	67	-21	11	-1668	-2584	16936	20	-104	141	127	124	5
-8084	-4504	13228	-47	123	-171	-16408	-1296	-2060	103	6	187	-3320	1648	16708	215	5	11	-7628	6460	13328	160	-23	-174	-15360	5276	-2096	48	-20	-32	-1684	-2604	16816	20	-90	155	127	124	5
-8068	-4512	13148	-55	102	-191	-16344	-1296	-2080	78	1	143	-3324	1720	16728	215	20	13	-7668	6408	13496	140	-53	-118	-15324	5288	-2120	33	-32	-32	-1732	-2572	16864	30	-84	157	127	124	5
-8064	-4472	13088	-72	143	-185	-16416	-1372	-2192	81	-41	122	-3340	1656	16656	226	-5	32	-7632	6476	13536	151	-43	-145	-15368	5292	-2124	8	18	-26	-1700	-2580	16780	3	-70	118	127	124	5
-8060	-4504	13140	-76	145	-147	-16400	-1336	-2064	72	-4	132	-3332	1788	16724	164	-5	43	-7604	6480	13424	128	-25	-145	-15352	5264	-2108	41	-44	-8	-1696	-2560	16848	-17	-94	142	127	124	5
-8084	-4508	13140	-82	117	-149	-16348	-1280	-2240	75	-8	123	-3260	1700	16780	155	-17	24	-7580	6388	13528	109	-34	-159	-15436	5344	-2280	48	-44	-25	-1604	-2568	16912	-54	-78	133	127	123	5
-8100	-4536	13116	-84	140	-203	-16380	-1284	-2136	113	-24	118	-3284	1740	16800	147	16	43	-7636	6452	13448	138	-67	-137	-15356	5356	-2056	29	-25	-2	-1704	-2512	16820	-12	-96	152	127	123	5
-8020	-4492	13220	-79	113	-177	-16440	-1328	-2128	76	-62	118	-3316	1688	16720	139	1	67	-7644	6460	13408	130	-47	-158	-15352	5328	-2032	15	33	-31	-1680	-2560	16764	-1	-101	195	127	123	5
-8068	-4492	13140	-97	151	-175	-16388	-1336	-2080	56	-65	124	-3292	1632	16724	156	-15	48	-7580	6484	13556	125	-1	-202	-15308	5288	-2132	2	4	-33	-1660	-2648	16824	-3	-89	180	127	124	5
-8024	-4484	13172	-130	131	-204	-16416	-1320	-1984	85	-38	79	-3236	1580	16736	143	-33	86	-7636	6452	13536	124	-38	-168	-15376	5248	-2104	-1	-7	-68	-1652	-2584	16808	-11	-85	162	127	124	5
-8044	-4476	13224	-103	140	-162	-16392	-1312	-2168	94	-62	110	-3300	1508	16780	141	-11	71	-7592	6440	13492	144	1	-175	-15340	5244	-2108	31	5	-43	-1752	-2516	16824	-28	-94	203	127	125	5
-8084	-4544	13112	-139	152	-147	-16336	-1312	-2204	64	-49	100	-3300	1544	16756	152	19	61	-7644	6428	13440	130	-35	-159	-15400	5332	-2156	6	12	-62	-1704	-2624	16764	-74	-97	169	127	124	5
-8012	-4492	13128	-98	149	-188	-16412	-1368	-2164	61	-15	105	-3244	1540	16688	185	-4	36	-7664	6452	13560	113	4	-184	-15336	5340	-2188	-25	-33	-67	-1740	-2616	16724	-18	-94	195	127	124	5
-8056	-4476	13064	-103	114	-226	-16396	-1316	-2120	60	-33	104	-3284	1524	16732	150	1	39	-7684	6468	13480	117	-4	-179	-15352	5280	-2196	-7	19	-71	-1644	-2612	16772	-35	-108	191	127	124	5
-8056	-4472	13116	-94	131	-187	-16388	-1308	-2104	67	-40	147	-3228	1596	16824	157	-15	54	-7620	6460	13404	145	-36	-159	-15340	5248	-2120	54	19	-34	-1676	-2680	16676	-32	-85	176	127	123	5
-8104	-4596	13068	-95	147	-187	-16408	-1328	-2108	93	-56	145	-3292	1572	16700	145	-24	54	-7648	6452	13436	129	7	-187	-15312	5292	-2092	1	-5	-17	-1708	-2656	16796	41	-98	171	127	124	5
-8088	-4572	13200	-97	123	-187	-16388	-1268	-2100	78	-24	129	-3264	1572	16744	174	-11	77	-7704	6480	13480	122	-13	-197	-15372	5272	-2156	-7	17	1	-1728	-2692	16820	5	-85	192	127	124	5
-8036	-4536	13032	-64	118	-203	-16352	-1344	-2136	51	-55	144	-3324	1600	16720	174	-12	60	-7652	6416	13496	125	23	-145	-15400	5192	-2172	-14	31	-38	-1728	-2692	16812	14	-90	212	127	124	5
-8040	-4564	13256	-107	130	-171	-16404	-1300	-2172	83	-25	140	-3320	1636	16724	203	41	60	-7644	6444	13508	161	-9	-178	-15348	5220	-2092	8	-3	38	-1740	-2688	16788	1	-84	164	127	125	5
-8104	-4596	13160	-78	110	-174	-16304	-1288	-2028	54	-46	112	-3320	1644	16560	155	17	71	-7696	6432	13508	166	-27	-137	-15376	5324	-2156	20	3	22	-1768	-2676	16716	16	-114	161	127	125	5
-8024	-4488	13236	-93	113	-178	-16420	-1336	-2208	53	17	97	-3260	1556	16800	154	-5	65	-7668	6496	13524	132	3	-148	-15340	5212	-2176	69	-17	-8	-1696	-2620	16768	58	-93	165	127	124	5
-8084	-4528	13172	-73	116	-172	-16332	-1312	-2120	76	-53	158	-3256	1588	16708	185	-3	23	-7660	6428	13488	159	-36	-154	-15396	5276	-2064	7	-3	12	-1640	-2628	16808	44	-104	164	127	123	5
-8096	-4544	13120	-102	143	-183	-16448	-1344	-2040	83	-1	135	-3216	1544	16768	186	-14	47	-7728	6384	13496	106	13	-117	-15404	5300	-2080	-24	10	7	-1632	-2548	16828	-2	-75	142	127	123	5
-8072	-4556	13160	-75	119	-160	-16436	-1328	-2164	62	-9	146	-3288	1624	16780	200	22	30	-7640	6344	13436	158	2	-159	-15368	5240	-1988	25	1	8	-1736	-2612	16844	32	-85	164	127	124	5
-8052	-4492	13056	-76	113	-197	-16364	-1248	-2028	51	5	163	-3332	1700	16820	171	-13	51	-7628	6480	13448	151	-11	-182	-15372	5320	-2068	5	10	-4	-1708	-2552	16860	-15	-128	166	127	124	5
-8084	-4492	13224	-50	126	-171	-16408	-1324	-2184	54	-16	154	-3288	1624	16768	195	3	-21	-7644	6460	13384	93	-46	-168	-15304	5292	-2132	-12	7	-52	-1668	-2620	16796	-19	-118	183	127	124	5
-8112	-4508	13068	-145	155	-152	-16408	-1332	-2076	46	8	129	-3292	1644	16608	198	10	48	-7588	6456	13516	109	-4	-124	-15352	5296	-2152	-32	31	-68	-1756	-2584	16784	-7	-100	170	127	125	5
-8044	-4536	13108	-93	110	-189	-16404	-1324	-2076	57	-61	124	-3284	1620	16812	178	-19	52	-7600	6452	13564	126	-26	-168	-15368	5288	-2064	23	3	-68	-1692	-2620	16844	4	-90	212	127	124	5
-8088	-4504	13212	-118	112	-214	-16348	-1320	-2156	67	-13	135	-3312	1668	16704	187	-35	83	-7652	6364	13364	110	-5	-178	-15380	5292	-2268	-5	-22	-60	-1752	-2620	16844	-47	-111	175	127	124	5
-8004	-4508	13128	-129	110	-190	-16356	-1264	-2056	45	-55	122	-3328	1712	16812	189	10	70	-7676	6412	13448	139	19	-166	-15332	5300	-2176	21	-19	-60	-1716	-2632	16716	29	-107	178	127	123	5
-8068	-4560	13184	-124	128	-214	-16396	-1232	-2284	73	-54	107	-3240	1724	16736	187	-8	53	-7588	6464	13504	107	12	-161	-15384	5272	-2076	-8	-10	-45	-1736	-2704	16692	16	-91	191	127	123	5
-8068	-4512	13228	-108	122	-230	-16376	-1248	-2184	85	-61	136	-3248	1696	16672	121	11	48	-7648	6496	13492	136	-20	-175	-15400	5284	-2208	14	21	-35	-1648	-2628	16788	21	-72	183	127	123	5
-8012	-4460	13180	-131	111	-175	-16396	-1352	-2136	73	-65	87	-3272	1660	16636	144	11	46	-7616	6468	13380	118	-12	-157	-15360	5252	-2116	17	12	-34	-1652	-2660	16788	13	-86	171	127	123	5
-8032	-4520	13168	-107	134	-179	-16388	-1256	-2128	24	-38	99	-3272	1624	16728	132	7	30	-7652	6456	13580	153	-18	-117	-15368	5304	-2120	80	-34	-69	-1672	-2584	16732	-30	-74	136	127	124	5
-8064	-4532	13228	-125	158	-174	-16332	-1344	-2096	96	-48	112	-3252	1556	16764	134	4	61	-7628	6464	13476	137	16	-161	-15336	5248	-2076	57	-28	-48	-1628	-2580	16772	-22	-89	141	127	125	5
-8096	-4556	13160	-99	162	-171	-16408	-1284	-1940	80	-39	113	-3224	1596	16844	173	-13	50	-7628	6532	13460	136	-26	-130	-15376	5276	-2116	77	-37	-32	-1660	-2584	16640	5	-81	190	127	124	5
-8076	-4580	13188	-98	142	-178	-16364	-1284	-2124	70	8	118	-3268	1560	16732	183	1	45	-7616	6528	13312	115	7	-197	-15428	5328	-2124	-20	-11	-9	-1696	-2580	16948	18	-95	188	127	124	5
-8004	-4548	13140	-70	124	-172	-16372	-1292	-2128	94	3	133	-3260	1588	16716	195	-8	42	-7632	6444	13456	98	-16	-186	-15352	5280	-2040	-16	-9	-29	-1696	-2624	16824	9	-89	196	127	124	5
-8040	-4556	13208	-68	130	-157	-16356	-1316	-2144	94	-8	101	-3312	1636	16768	186	-47	29	-7660	6544	13548	110	-13	-205	-15352	5236	-2068	-2	-23	-23	-1696	-2576	16748	-12	-91	191	127	123	5
-8060	-4516	13140	-95	93	-196	-16384	-1400	-2096	55	-21	116	-3304	1612	16632	202	-9	21	-7640	6516	13428	147	-26	-149	-15376	5296	-2212	7	26	-50	-1652	-2624	16824	-25	-118	180	127	123	5
-8020	-4504	13156	-84	124	-155	-16384	-1312	-2088	80	22	107	-3348	1604	16708	191	12	48	-7676	6476	13480	143	-13	-185	-15404	5280	-2212	-18	-14	-36	-1744	-2616	16784	-45	-97	171	127	124	5
-8108	-4480	13212	-90	127	-168	-16412	-1252	-2188	66	-22	156	-3332	1632	16700	181	14	65	-7640	6436	13444	97	30	-168	-15360	5324	-2248	-34	13	-52	-1712	-2644	16732	-4	-109	165	127	124	5
-8064	-4540	13144	-109	114	-183	-16440	-1316	-2212	73	-13	121	-3336	1736	16700	170	29	29	-7552	6432	13528	138	4	-173	-15376	5256	-2224	-42	-14	-35	-1684	-2608	16864	21	-94	197	127	125	5
-8052	-4480	13188	-77	129	-184	-16416	-1332	-2156	102	0	123	-3232	1632	16700	169	4	51	-7616	6488	13504	139	-27	-163	-15328	5252	-2252	-24	-7	-44	-1720	-2636	16736	23	-69	171	127	125	5
-8076	-4476	13136	-132	113	-178	-16392	-1264	-2124	77	-65	127	-3244	1648	16684	189	-4	47	-7676	6460	13564	135	4	-128	-15372	5280	-2152	25	-31	-10	-1680	-2644	16784	32	-106	173	127	125	5
-8052	-4540	13168	-126	123	-191	-16372	-1324	-2140	54	-46	115	-3284	1624	16628	187	18	66	-7672	6392	13480	146	-20	-105	-15336	5256	-2080	31	-4	-24	-1668	-2636	16776	9	-96	175	127	124	5
-8100	-4500	13164	-114	108	-154	-16408	-1388	-2164	77	11	133	-3236	1648	16680	147	-6	52	-7612	6504	13420	156	-18	-112	-15304	5288	-2184	44	0	-23	-1696	-2608	16656	7	-102	150	127	124	5
-8040	-4524	13128	-122	151	-162	-16424	-1296	-2176	45	-41	87	-3284	1556	16756	151	19	69	-7620	6484	13464	150	-11	-151	-15348	5324	-2156	11	1	-19	-1616	-2576	16860	-8	-113	154	127	123	5
-8060	-4552	13184	-88	162	-179	-16388	-1324	-2076	60	-58	115	-3304	1640	16772	191	34	63	-7608	6440	13468	135	-2	-162	-15376	5276	-2068	-26	1	-22	-1684	-2660	16712	20	-70	162	127	124	5
-8072	-4596	13156	-118	129	-180	-16376	-1344	-1992	81	-20	142	-3224	1500	16704	173	1	79	-7640	6416	13516	160	2	-140	-15308	5324	-2180	16	-12	-44	-1656	-2564	16712	-18	-93	160	127	124	5
-8048	-4508	13168	-126	157	-163	-16368	-1320	-2116	79	-42	117	-3308	1576	16780	182	-17	33	-7600	6448	13532	127	8	-139	-15348	5248	-2052	-19	-3	-10	-1684	-2652	16760	21	-77	165	127	124	5
-8084	-4540	13148	-82	120	-186	-16432	-1340	-2068	90	-52	96	-3292	1596	16604	172	-12	62	-7664	6420	13496	132	11	-152	-15344	5324	-2012	29	-20	-48	-1656	-2584	16792	2	-86	179	127	125	5
-8116	-4568	13056	-76	129	-173	-16408	-1296	-2172	64	-29	171	-3256	1556	16680	217	-2	36	-7672	6456	13440	102	-20	-166	-15352	5288	-2212	14	13	30	-1704	-2596	16852	-32	-116	191	127	125	5
-8092	-4460	13120	-114	142	-145	-16396	-1316	-2064	68	-30	113	-3256	1656	16648	215	-1	46	-7632	6452	13460	126	4	-209	-15344	5324	-2140	2	7	-20	-1640	-2648	16736	-17	-127	187	127	124	5
-8072	-4540	13192	-45	129	-174	-16360	-1368	-2160	69	-68	150	-3348	1684	16756	203	-3	49	-7656	6504	13500	120	-11	-157	-15384	5228	-2160	-2	11	-31	-1700	-2652	16768	-3	-102	202	127	124	5
-8084	-4520	13204	-63	144	-163	-16480	-1300	-2220	83	-2	153	-3384	1676	16636	198	-8	18	-7608	6472	13504	110	-19	-161	-15372	5300	-2176	37	-6	4	-1700	-2636	16896	12	-98	185	127	123	5
-8092	-4504	13144	-98	165	-203	-16388	-1272	-2108	88	-18	120	-3256	1676	16800	170	-7	34	-7636	6432	13484	124	-2	-177	-15352	5320	-2196	3	8	-29	-1656	-2652	16788	45	-104	166	127	123	5
-8056	-4496	13188	-111	127	-194	-16432	-1316	-2088	48	-10	145	-3264	1592	16632	153	-27	35	-7684	6472	13396	181	3	-187	-15376	5392	-2096	-18	-4	-12	-1692	-2568	16772	29	-116	173	127	124	5
-8044	-4536	13268	-102	138	-165	-16376	-1320	-2184	63	-76	126	-3292	1644	16776	166	17	52	-7656	6516	13404	147	9	-178	-15384	5272	-2120	7	-36	-1	-1760	-2592	16868	-4	-88	177	127	124	5
-8076	-4512	13148	-85	108	-224	-16424	-1348	-2124	60	-41	143	-3312	1600	16820	177	23	39	-7644	6456	13464	155	-51	-154	-15316	5292	-2076	30	-21	-23	-1688	-2620	16748	18	-109	155	127	125	5
-8028	-4536	13040	-64	135	-179	-16396	-1356	-2060	109	-27	108	-3220	1648	16600	179	18	36	-7592	6416	13424	150	-34	-195	-15388	5276	-2040	19	-45	-15	-1668	-2688	16780	62	-78	155	127	125	5
-8104	-4512	13188	-88	145	-172	-16368	-1288	-2108	108	-33	150	-3216	1600	16648	148	14	67	-7616	6516	13424	132	-18	-159	-15364	5240	-2128	-17	-36	-40	-1688	-2600	16776	18	-103	141	127	124	5
-8084	-4536	13196	-77	145	-208	-16404	-1332	-2064	107	-22	148	-3252	1596	16752	199	-29	68	-7640	6488	13536	147	-53	-160	-15340	5352	-2084	12	10	-50	-1680	-2628	16612	-7	-118	119	127	124	5
-8080	-4552	13060	-106	107	-190	-16380	-1348	-2172	67	-9	164	-3188	1632	16832	180	-6	38	-7620	6468	13420	128	8	-206	-15384	5272	-2048	-23	-18	-16	-1600	-2608	16800	-12	-100	157	127	124	5
-8072	-4524	13180	-113	113	-164	-16388	-1224	-2216	61	-18	116	-3248	1644	16732	172	5	44	-7680	6512	13448	137	5	-178	-15364	5284	-2112	-2	18	-10	-1712	-2656	16852	-19	-67	180	127	123	5
-8144	-4460	13232	-101	140	-193	-16416	-1304	-2128	58	-1	95	-3232	1596	16676	155	-1	50	-7708	6396	13424	138	10	-153	-15408	5264	-2172	-2	11	-54	-1632	-2592	16736	-4	-90	177	127	123	5
-8004	-4448	13196	-133	125	-171	-16432	-1300	-2152	99	-19	128	-3264	1628	16760	191	19	58	-7680	6440	13440	122	-28	-192	-15376	5320	-2184	-11	-8	-25	-1668	-2588	16820	-6	-99	173	127	124	5
-8104	-4528	13120	-123	151	-172	-16308	-1332	-2136	84	-46	111	-3332	1640	16688	177	-21	54	-7604	6432	13448	120	-28	-148	-15380	5292	-2088	24	51	-35	-1644	-2584	16780	-34	-87	216	127	125	5
-8064	-4560	13172	-134	124	-147	-16364	-1336	-2104	50	-57	119	-3268	1644	16744	198	-10	64	-7620	6436	13536	98	-33	-184	-15336	5288	-2140	15	19	-36	-1676	-2600	16768	5	-123	209	127	125	5
-8064	-4528	13180	-106	148	-205	-16420	-1268	-2068	49	-63	153	-3252	1684	16684	173	-2	64	-7572	6412	13500	129	-35	-145	-15444	5324	-2084	34	43	-58	-1632	-2644	16816	-25	-98	210	127	125	5
-8052	-4500	13152	-114	124	-150	-16444	-1308	-1932	42	-16	108	-3276	1572	16744	183	-25	63	-7656	6460	13420	110	3	-153	-15332	5300	-2180	13	0	-64	-1672	-2640	16808	-13	-86	163	127	125	5
-8072	-4532	13172	-78	148	-150	-16372	-1324	-2216	57	-51	137	-3304	1644	16556	191	8	51	-7700	6484	13460	131	18	-137	-15344	5292	-2124	-18	-7	-27	-1664	-2604	16840	32	-63	187	127	124	5
-8024	-4512	13080	-114	142	-200	-16392	-1352	-2048	46	-58	122	-3224	1596	16804	193	6	59	-7572	6492	13456	148	43	-133	-15320	5308	-2140	-24	-10	-71	-1696	-2648	16752	9	-78	178	127	123	5
-8092	-4460	13112	-92	135	-187	-16356	-1256	-2124	47	-15	152	-3300	1668	16684	161	17	44	-7624	6504	13508	125	26	-178	-15376	5300	-2140	12	17	-7	-1668	-2628	16892	42	-84	188	127	123	5
-8024	-4496	13152	-93	141	-174	-16408	-1272	-2188	37	-72	100	-3264	1604	16668	160	-6	37	-7688	6456	13452	139	-11	-147	-15420	5292	-2096	26	-11	-29	-1692	-2656	16880	-2	-127	179	127	124	5
-8048	-4536	13140	-109	139	-177	-16388	-1336	-2124	48	-8	151	-3272	1576	16652	143	26	31	-7612	6528	13460	82	-10	-151	-15316	5328	-2144	66	22	-3	-1656	-2624	16848	-14	-120	147	127	124	5
-8036	-4528	13224	-74	106	-165	-16376	-1312	-2084	30	-24	69	-3308	1668	16776	142	19	40	-7632	6468	13500	129	-1	-141	-15332	5312	-2156	31	-27	-28	-1636	-2624	16788	-29	-101	140	127	125	5
-8060	-4548	13216	-84	133	-166	-16412	-1384	-2044	69	-21	114	-3236	1616	16696	171	-32	51	-7624	6488	13380	120	-8	-159	-15344	5272	-2100	-29	-11	-12	-1628	-2628	16880	0	-89	154	127	125	5
-8052	-4520	13188	-104	140	-198	-16368	-1336	-2084	93	-30	127	-3264	1644	16700	223	16	38	-7568	6452	13460	140	-23	-168	-15396	5256	-2092	-27	-20	-49	-1672	-2616	16824	12	-93	187	127	125	5
-8068	-4516	13028	-86	107	-190	-16408	-1348	-2144	74	-25	135	-3272	1648	16680	195	-23	17	-7640	6476	13388	97	14	-203	-15408	5244	-2196	1	5	-30	-1664	-2636	16716	31	-92	192	127	124	5
-8116	-4500	13096	-78	110	-195	-16336	-1264	-2132	62	11	104	-3288	1588	16656	170	5	33	-7608	6424	13464	146	3	-177	-15324	5292	-1940	-3	39	-87	-1636	-2620	16840	10	-85	205	127	124	5
-8132	-4488	13228	-71	126	-169	-16428	-1328	-2136	83	13	108	-3324	1564	16660	197	5	58	-7680	6460	13356	118	27	-184	-15436	5308	-2112	27	7	-32	-1724	-2596	16772	-27	-82	188	127	124	5
-8108	-4556	13224	-111	116	-204	-16416	-1324	-2108	56	-6	115	-3316	1652	16668	199	21	37	-7660	6464	13432	122	29	-157	-15316	5204	-2096	-22	8	-75	-1700	-2612	16900	-25	-103	182	127	124	5
-8024	-4536	13160	-126	144	-200	-16376	-1288	-2148	120	-36	115	-3316	1636	16652	165	-6	31	-7648	6448	13464	129	-17	-159	-15332	5324	-2076	-25	9	-73	-1672	-2600	16816	27	-96	166	127	124	5
-8028	-4476	13148	-95	124	-176	-16404	-1284	-2152	109	-23	100	-3284	1624	16800	176	15	36	-7656	6484	13556	144	-58	-163	-15348	5308	-2192	-9	-17	-9	-1696	-2616	16756	11	-79	165	127	125	5
-8080	-4512	13124	-111	153	-154	-16432	-1340	-2096	104	-3	124	-3248	1672	16700	164	-19	22	-7652	6464	13464	131	-9	-171	-15348	5268	-2120	-9	9	-88	-1656	-2668	16832	11	-97	147	127	125	5
-7984	-4564	13144	-90	148	-174	-16388	-1300	-2100	89	-48	133	-3248	1600	16696	150	-14	44	-7592	6468	13524	124	-7	-146	-15352	5256	-2096	11	11	-74	-1672	-2636	16736	20	-79	179	127	125	5
-8096	-4500	13184	-56	155	-193	-16340	-1348	-2104	83	-9	132	-3260	1620	16672	158	-1	17	-7616	6464	13488	136	-3	-166	-15352	5288	-2068	18	-5	-33	-1640	-2664	16776	16	-86	185	127	124	5
-8028	-4484	13052	-108	129	-187	-16480	-1292	-2212	41	-56	150	-3260	1644	16680	170	0	39	-7692	6468	13360	145	4	-162	-15368	5288	-1972	25	4	-44	-1620	-2576	16864	10	-100	154	127	124	5
-8108	-4476	13100	-79	143	-194	-16340	-1276	-2152	72	-9	131	-3232	1596	16792	162	-3	44	-7612	6472	13472	149	-18	-179	-15324	5340	-2132	5	-3	-54	-1648	-2580	16700	-38	-96	173	127	123	5
-8032	-4516	13172	-114	136	-164	-16388	-1308	-2108	106	-55	79	-3280	1588	16580	192	-26	50	-7648	6500	13472	108	-42	-173	-15336	5292	-2164	19	-4	-38	-1632	-2612	16752	-42	-90	184	127	124	5
-8072	-4620	13092	-111	136	-171	-16428	-1360	-2160	62	6	132	-3260	1592	16708	195	25	56	-7644	6440	13500	151	0	-159	-15340	5244	-2076	35	-1	-49	-1680	-2640	16792	-30	-108	141	127	124	5
-8072	-4524	13096	-71	136	-189	-16392	-1320	-2152	58	-36	137	-3260	1652	16692	181	-38	57	-7660	6512	13440	106	14	-159	-15420	5260	-2236	10	44	-11	-1616	-2572	16768	-5	-112	187	127	124	5
-8012	-4544	13164	-97	144	-182	-16364	-1360	-2136	84	-25	124	-3284	1596	16728	151	-7	45	-7644	6504	13504	138	6	-126	-15388	5324	-2184	-4	9	7	-1700	-2592	16780	15	-100	156	127	125	5
-8028	-4508	13216	-93	100	-142	-16380	-1348	-2096	89	-45	110	-3336	1552	16772	182	43	47	-7632	6464	13516	112	-16	-171	-15372	5312	-2196	-3	12	-29	-1664	-2632	16796	27	-78	172	127	125	5
-8112	-4508	13228	-62	124	-143	-16404	-1312	-2044	51	-49	99	-3316	1584	16732	161	18	63	-7692	6420	13520	129	20	-187	-15392	5304	-2068	4	-24	-32	-1640	-2648	16824	-25	-94	194	127	124	5
-8100	-4500	13156	-94	139	-173	-16472	-1332	-1956	83	-55	148	-3216	1528	16720	160	3	32	-7672	6492	13476	111	-12	-139	-15360	5296	-2060	46	-18	-55	-1696	-2700	16708	-47	-77	175	127	124	5
-8004	-4560	13176	-69	138	-174	-16396	-1264	-2108	94	-14	123	-3264	1636	16736	185	-25	56	-7668	6492	13540	100	31	-186	-15336	5300	-2088	-11	-24	-27	-1640	-2648	16840	-3	-100	157	127	124	5
-7996	-4460	13116	-101	150	-139	-16400	-1312	-2148	54	-24	119	-3360	1620	16816	171	-18	54	-7640	6480	13460	106	-25	-189	-15320	5292	-2200	-2	-8	-57	-1644	-2652	16772	0	-89	153	127	123	5
-8036	-4576	13096	-116	140	-176	-16392	-1272	-2152	54	-29	118	-3336	1604	16680	164	-28	36	-7572	6460	13424	124	12	-205	-15384	5320	-2084	-26	16	-14	-1668	-2644	16828	-5	-113	176	127	124	5
-8084	-4532	13112	-57	119	-156	-16460	-1288	-2116	67	-7	145	-3240	1588	16728	163	-8	88	-7668	6484	13380	123	10	-139	-15408	5304	-2200	-4	-21	-26	-1680	-2556	16840	13	-88	195	127	125	5
-8060	-4568	13100	-68	128	-171	-16396	-1364	-2112	46	-18	143	-3192	1548	16752	192	18	68	-7620	6452	13356	165	-30	-176	-15412	5252	-2136	28	-41	-33	-1700	-2636	16840	7	-76	184	127	125	5
-8052	-4492	13140	-81	136	-174	-16424	-1320	-2036	88	-24	153	-3316	1676	16780	151	2	24	-7632	6464	13472	117	1	-176	-15304	5280	-2076	52	-9	-17	-1676	-2580	16728	41	-80	187	127	125	5
-8104	-4532	13136	-81	132	-155	-16420	-1332	-2088	102	-2	93	-3232	1596	16688	207	-12	30	-7644	6468	13404	106	-68	-166	-15312	5228	-2032	33	-19	-37	-1644	-2592	16764	31	-107	163	127	125	5
-8048	-4512	13180	-94	142	-210	-16432	-1308	-2120	68	-35	136	-3272	1616	16708	189	16	14	-7660	6428	13456	123	18	-181	-15376	5328	-2156	-3	-27	-26	-1676	-2608	16812	-8	-113	116	127	124	5
-8028	-4556	13124	-95	139	-194	-16360	-1276	-2152	45	-15	170	-3280	1644	16724	201	-7	33	-7608	6496	13416	133	-37	-169	-15364	5264	-2184	30	-8	-33	-1652	-2608	16800	-46	-79	161	127	124	5
-8052	-4520	13180	-130	120	-181	-16408	-1352	-2128	47	-29	138	-3312	1644	16752	191	-2	31	-7580	6444	13404	130	-7	-153	-15388	5284	-2116	37	3	-11	-1668	-2668	16764	-31	-113	133	127	123	5
-8036	-4516	13104	-90	123	-192	-16444	-1316	-2060	50	-52	126	-3260	1636	16764	211	-17	25	-7664	6448	13528	110	12	-158	-15344	5276	-2064	-17	0	-49	-1640	-2604	16796	-12	-106	190	127	124	5
-8088	-4480	13160	-138	131	-192	-16420	-1280	-2096	82	12	149	-3240	1644	16756	186	-3	20	-7668	6456	13428	148	11	-188	-15368	5296	-2272	21	25	-29	-1660	-2600	16860	26	-92	188	127	124	5
-8044	-4528	13016	-144	132	-173	-16444	-1364	-2140	96	-21	135	-3288	1660	16704	160	-23	72	-7572	6452	13504	128	36	-152	-15360	5352	-2208	5	9	-1	-1660	-2568	16804	22	-93	191	127	125	5
-8048	-4576	13116	-142	179	-180	-16380	-1312	-2056	80	-26	129	-3228	1708	16708	183	19	55	-7648	6488	13368	116	-20	-182	-15332	5268	-2296	11	11	-42	-1740	-2636	16740	2	-80	181	127	125	5
-8076	-4528	13176	-120	128	-205	-16352	-1336	-2208	63	-24	99	-3308	1612	16764	192	7	56	-7580	6456	13516	106	49	-162	-15364	5344	-2156	39	-36	-54	-1696	-2596	16864	-31	-112	184	127	125	5
-8136	-4524	13088	-110	146	-188	-16312	-1324	-2128	55	-50	155	-3252	1540	16656	179	-3	58	-7636	6448	13468	101	-8	-186	-15384	5264	-2112	30	-18	-38	-1692	-2564	16696	-10	-113	169	127	124	5
-8104	-4484	13160	-66	139	-192	-16364	-1384	-2164	62	-59	147	-3312	1588	16740	169	-9	63	-7692	6424	13448	107	-62	-146	-15388	5304	-2112	-9	-28	-71	-1668	-2552	16836	7	-94	184	127	124	5
-8092	-4536	13168	-69	135	-218	-16400	-1328	-2116	86	-29	134	-3300	1604	16760	181	-3	40	-7624	6480	13476	161	-31	-138	-15408	5304	-2240	4	-31	-52	-1680	-2656	16736	35	-82	165	127	124	5
-8036	-4516	13172	-104	127	-151	-16376	-1336	-2060	73	-57	138	-3332	1616	16884	182	45	47	-7624	6424	13476	146	-19	-186	-15404	5232	-2100	25	3	-52	-1680	-2668	16804	32	-94	152	127	123	5
-8096	-4516	13152	-94	123	-177	-16436	-1296	-2128	59	-18	135	-3260	1596	16660	174	23	41	-7692	6480	13444	129	-13	-150	-15416	5284	-1984	41	20	-6	-1692	-2660	16648	40	-112	161	127	124	5
-8052	-4508	13184	-88	149	-207	-16448	-1276	-2020	76	-28	129	-3308	1652	16768	172	-6	54	-7684	6484	13572	123	11	-168	-15416	5264	-2152	27	-42	-2	-1632	-2676	16868	-1	-86	130	127	124	5
-7964	-4508	13112	-46	132	-175	-16448	-1292	-2208	69	-15	122	-3300	1604	16652	174	4	74	-7628	6468	13560	127	-14	-140	-15336	5276	-2080	42	-40	-1	-1608	-2632	16708	-24	-59	152	127	125	5
-8056	-4492	13148	-116	115	-214	-16452	-1308	-2124	65	-49	138	-3356	1632	16748	182	18	67	-7572	6408	13584	140	-18	-188	-15464	5296	-2104	-3	-44	-29	-1704	-2620	16820	-42	-89	139	127	125	5
-8044	-4492	13140	-79	156	-166	-16492	-1376	-2040	55	-5	108	-3260	1624	16708	158	20	53	-7660	6524	13400	152	-6	-172	-15328	5364	-2056	-10	-2	-12	-1676	-2576	16808	-29	-89	186	127	125	5
-8080	-4512	13264	-81	147	-168	-16392	-1316	-2244	46	-33	126	-3320	1604	16812	181	-1	42	-7640	6500	13444	125	-57	-162	-15296	5292	-2172	12	-10	-13	-1696	-2600	16696	16	-69	172	127	124	5
-8060	-4556	13224	-89	112	-147	-16384	-1260	-2128	77	3	140	-3212	1548	16712	183	-6	34	-7656	6492	13464	127	-24	-188	-15404	5352	-2048	23	-12	-51	-1680	-2616	16872	-1	-115	203	127	124	5
-8040	-4524	13076	-113	130	-166	-16416	-1360	-2136	67	-18	129	-3300	1620	16708	186	6	37	-7692	6496	13496	103	23	-136	-15352	5308	-2128	27	5	-17	-1620	-2616	16796	4	-95	192	127	124	5
-8120	-4500	13136	-91	132	-174	-16372	-1272	-2172	81	-6	137	-3260	1604	16752	178	-18	43	-7612	6480	13596	95	19	-158	-15356	5268	-2092	12	2	-69	-1616	-2548	16848	-55	-75	190	127	124	5
-7972	-4504	13112	-91	131	-211	-16352	-1276	-1996	78	-9	137	-3220	1676	16824	166	9	32	-7676	6444	13432	87	30	-190	-15360	5272	-2112	16	29	-11	-1612	-2580	16836	-53	-79	130	127	124	5
-8008	-4464	13176	-73	126	-170	-16364	-1312	-2216	88	-38	117	-3176	1684	16764	140	-18	25	-7648	6496	13528	104	-17	-185	-15320	5288	-2188	-24	16	-24	-1596	-2640	16752	-83	-86	141	127	125	5
-8072	-4444	13204	-89	117	-183	-16364	-1388	-2060	72	11	103	-3268	1632	16764	150	15	46	-7636	6452	13464	91	5	-175	-15340	5372	-2108	-18	54	-61	-1716	-2560	16892	-50	-73	170	127	125	5
-8096	-4468	13184	-115	153	-177	-16372	-1376	-2192	96	-76	100	-3344	1604	16712	194	-16	21	-7684	6400	13448	119	-23	-201	-15348	5248	-2152	2	2	-85	-1692	-2628	16748	4	-61	205	127	125	5
-8020	-4464	13112	-147	144	-152	-16364	-1304	-2128	56	-37	122	-3348	1668	16740	146	0	54	-7644	6456	13452	114	-14	-151	-15384	5316	-2188	-10	42	-74	-1668	-2616	16760	37	-78	220	127	124	5
-8068	-4516	13140	-76	123	-159	-16404	-1292	-2064	44	-47	113	-3312	1628	16756	129	-22	61	-7640	6460	13464	98	3	-163	-15352	5308	-2124	-23	20	-23	-1672	-2648	16828	26	-77	193	127	124	5
-8104	-4512	13132	-111	122	-190	-16392	-1260	-2184	65	-73	89	-3312	1588	16708	154	62	64	-7648	6456	13464	113	-39	-201	-15360	5204	-2120	53	-26	-40	-1704	-2688	16692	-10	-69	228	127	124	5
-8056	-4548	13120	-98	147	-198	-16356	-1320	-2160	54	-48	106	-3316	1600	16804	180	-1	57	-7676	6484	13548	99	10	-206	-15328	5236	-2148	26	25	-66	-1588	-2712	16804	-22	-88	192	127	124	5
-8032	-4544	13236	-77	146	-176	-16472	-1304	-2084	72	-61	114	-3252	1536	16732	195	-19	66	-7656	6468	13560	135	26	-159	-15404	5264	-2148	13	28	-46	-1672	-2736	16760	-20	-98	160	127	124	5
-7996	-4584	13212	-98	143	-219	-16388	-1352	-2212	73	-33	139	-3184	1660	16780	178	19	59	-7644	6408	13516	130	-7	-213	-15372	5324	-2168	-20	29	-25	-1668	-2668	16792	3	-66	155	127	125	5
-7996	-4472	13192	-95	147	-182	-16396	-1264	-2128	116	-58	125	-3248	1600	16724	130	7	80	-7620	6440	13472	117	-9	-186	-15376	5324	-2152	-17	17	-38	-1740	-2688	16860	-9	-64	197	127	125	5
-8112	-4540	13104	-93	145	-204	-16392	-1368	-2176	64	-18	124	-3228	1564	16732	144	4	33	-7672	6476	13408	140	43	-145	-15348	5364	-2300	-8	2	-60	-1668	-2664	16808	24	-86	148	127	125	5
-8072	-4516	13148	-78	104	-143	-16356	-1308	-2160	41	0	153	-3308	1540	16708	169	43	52	-7672	6480	13460	145	-53	-132	-15332	5312	-2256	35	-1	-20	-1716	-2620	16776	5	-110	206	127	125	5
-8044	-4524	13176	-93	124	-182	-16392	-1320	-2148	97	8	135	-3280	1548	16652	177	-7	70	-7604	6452	13472	151	-15	-170	-15336	5296	-2216	15	2	-57	-1740	-2644	16804	-38	-77	199	127	124	5
-8080	-4548	13180	-66	150	-174	-16408	-1388	-2144	132	-12	175	-3336	1604	16704	223	-13	38	-7600	6420	13560	112	-21	-125	-15336	5284	-2172	51	8	-30	-1748	-2644	16764	40	-91	164	127	124	5
-8072	-4532	13204	-57	147	-161	-16400	-1348	-2060	98	33	163	-3288	1584	16776	220	-33	10	-7644	6460	13468	116	4	-190	-15352	5368	-2096	-21	6	-30	-1672	-2608	16688	22	-90	154	127	124	5
-8092	-4536	13076	-62	160	-168	-16404	-1332	-2136	79	-10	183	-3320	1680	16652	211	-8	33	-7672	6464	13416	127	-52	-143	-15448	5296	-2008	21	-39	-45	-1716	-2660	16764	7	-92	177	127	124	5
-8092	-4536	13216	-104	134	-190	-16448	-1304	-2096	64	15	157	-3260	1720	16652	189	11	56	-7620	6408	13484	109	-20	-184	-15364	5288	-2056	-26	-22	-30	-1700	-2696	16856	-8	-108	183	127	124	5
-8056	-4516	13228	-81	154	-189	-16448	-1336	-2132	50	-49	124	-3252	1740	16740	198	15	70	-7604	6452	13468	123	-35	-170	-15312	5312	-2116	15	-18	-6	-1708	-2680	16856	23	-87	195	127	125	5
-8064	-4592	13224	-129	111	-147	-16400	-1276	-2188	58	-68	137	-3284	1728	16796	157	-13	56	-7624	6420	13496	106	-35	-122	-15388	5256	-2212	4	-16	-34	-1700	-2656	16840	53	-88	203	127	125	5
-8064	-4500	13184	-96	121	-177	-16432	-1336	-2156	84	-30	134	-3260	1704	16760	183	-6	52	-7652	6392	13460	118	23	-143	-15364	5216	-2100	3	-24	-36	-1756	-2688	16688	87	-72	177	127	125	5
-8012	-4436	13216	-77	146	-185	-16348	-1368	-2248	77	-29	133	-3312	1704	16648	131	-24	54	-7644	6488	13460	135	49	-158	-15356	5264	-2204	48	-56	-43	-1720	-2628	16748	64	-97	118	127	124	5
-8072	-4572	13108	-84	156	-230	-16416	-1336	-2124	93	-44	131	-3284	1592	16724	141	-15	53	-7612	6460	13400	142	-47	-129	-15376	5292	-2048	33	-28	-28	-1668	-2680	16664	26	-125	137	127	124	5
-8104	-4516	13056	-87	94	-182	-16392	-1320	-2128	50	-20	148	-3192	1648	16808	141	19	40	-7684	6440	13520	145	12	-133	-15376	5236	-2072	38	-40	-19	-1608	-2624	16724	6	-97	143	127	124	5
-8016	-4552	13140	-77	134	-218	-16468	-1316	-2152	49	14	111	-3272	1652	16764	149	-17	39	-7620	6480	13524	145	-40	-131	-15388	5164	-2084	37	-30	6	-1648	-2564	16748	-16	-112	143	127	124	5
-8024	-4564	13088	-136	109	-150	-16392	-1304	-2188	43	-55	127	-3288	1608	16760	174	-27	73	-7628	6404	13484	174	-30	-152	-15356	5304	-2088	15	-30	-24	-1576	-2588	16904	29	-93	147	127	124	5
-8048	-4528	13268	-154	134	-181	-16456	-1288	-2148	78	-4	128	-3224	1544	16776	176	-17	36	-7532	6476	13476	188	-11	-152	-15340	5320	-2124	28	12	2	-1632	-2564	16804	45	-62	171	127	125	5
-8092	-4536	13120	-132	128	-176	-16348	-1292	-2136	73	-25	132	-3284	1548	16664	185	-20	57	-7616	6492	13464	129	0	-164	-15344	5340	-2136	-15	20	-39	-1632	-2528	16812	2	-92	177	127	125	5
-8132	-4536	13172	-115	115	-147	-16332	-1360	-2228	40	-9	112	-3340	1620	16600	179	26	50	-7620	6520	13416	91	-16	-165	-15348	5308	-2068	24	32	-38	-1632	-2552	16836	-11	-119	228	127	125	5
-8052	-4536	13180	-144	123	-126	-16424	-1332	-2128	47	-37	147	-3284	1616	16644	172	9	71	-7612	6500	13424	72	-34	-173	-15324	5304	-2132	25	10	-31	-1752	-2596	16728	-29	-91	203	127	124	5
-8004	-4492	13204	-69	128	-180	-16388	-1324	-2128	49	-3	145	-3248	1604	16680	218	-36	32	-7608	6428	13424	88	-39	-185	-15368	5308	-2084	12	30	-62	-1692	-2592	16832	-13	-86	191	127	124	5
-8112	-4516	13040	-66	136	-222	-16336	-1308	-2124	65	-31	91	-3292	1624	16780	190	-19	37	-7624	6372	13456	106	-1	-191	-15332	5316	-2176	-7	-23	-92	-1664	-2592	16772	0	-93	192	127	123	5
-8072	-4504	13236	-80	137	-190	-16432	-1308	-2188	73	-51	118	-3288	1660	16680	181	-24	42	-7696	6464	13468	126	-32	-159	-15360	5276	-2148	3	28	-51	-1728	-2648	16788	13	-75	169	127	123	5
-8060	-4488	13188	-110	136	-182	-16368	-1308	-2188	71	-53	146	-3272	1688	16712	181	-4	55	-7604	6488	13492	134	6	-179	-15300	5280	-2184	12	-7	-44	-1676	-2660	16840	25	-67	158	127	124	5
-8060	-4428	13152	-89	137	-201	-16428	-1320	-2176	68	-20	114	-3276	1780	16604	129	26	56	-7616	6464	13408	149	17	-128	-15400	5264	-2072	2	7	-38	-1676	-2720	16864	-1	-76	197	127	124	5
-8064	-4492	13128	-129	142	-182	-16364	-1292	-2072	39	-33	94	-3304	1692	16612	142	30	33	-7608	6356	13428	137	-34	-157	-15396	5256	-2172	53	-19	-33	-1672	-2748	16832	-5	-98	131	127	125	5
-8056	-4472	13136	-134	152	-164	-16364	-1300	-2100	50	-68	113	-3236	1648	16760	116	31	43	-7644	6472	13448	112	-6	-163	-15312	5348	-2168	22	9	-29	-1668	-2600	16736	20	-73	148	127	125	5
-8092	-4508	13136	-117	153	-190	-16420	-1300	-1980	43	-48	76	-3236	1584	16620	147	50	63	-7608	6504	13416	145	1	-141	-15376	5296	-2204	-3	-15	-7	-1644	-2548	16900	1	-85	137	127	124	5
-8064	-4476	13220	-126	137	-168	-16432	-1312	-2152	65	-82	130	-3240	1548	16680	159	-43	75	-7588	6436	13512	111	-9	-143	-15376	5300	-2160	-30	-9	-57	-1664	-2580	16868	-2	-97	177	127	124	5
-8076	-4492	13120	-119	137	-174	-16384	-1340	-2056	76	-57	115	-3268	1532	16760	161	-22	54	-7728	6460	13376	150	23	-171	-15380	5288	-2156	-39	14	-51	-1712	-2584	16884	9	-112	215	127	123	5
-8056	-4476	13088	-62	150	-207	-16400	-1324	-2076	79	-42	107	-3260	1504	16708	184	1	76	-7660	6400	13436	133	-44	-175	-15356	5352	-2144	-16	16	-37	-1636	-2516	16856	10	-125	175	127	123	5
-8036	-4488	13104	-44	169	-172	-16384	-1384	-2124	96	-42	145	-3224	1484	16628	169	-4	75	-7568	6468	13488	106	-31	-187	-15444	5336	-2148	20	18	-59	-1724	-2576	16756	0	-93	210	127	124	5
-8084	-4572	13184	-41	120	-171	-16388	-1340	-2020	72	-27	113	-3272	1528	16748	192	-14	42	-7624	6416	13436	131	11	-155	-15352	5356	-2108	31	16	-66	-1696	-2592	16816	-15	-104	179	127	124	5
-8012	-4476	13156	-76	115	-184	-16352	-1376	-2128	72	-3	131	-3268	1600	16700	218	10	43	-7692	6460	13564	122	1	-209	-15352	5328	-2064	8	19	-58	-1664	-2580	16808	-28	-98	197	127	125	5
-8056	-4520	13092	-92	146	-173	-16400	-1296	-2180	57	32	130	-3264	1616	16812	191	-16	36	-7608	6436	13400	139	19	-164	-15364	5268	-2256	7	4	-57	-1668	-2668	16784	-11	-73	184	127	125	5
-8060	-4488	13160	-73	129	-156	-16388	-1252	-2008	73	7	141	-3308	1620	16700	196	-8	19	-7656	6512	13556	98	-14	-141	-15324	5268	-2104	-7	-44	-14	-1652	-2680	16752	-3	-83	155	127	124	5
-8124	-4464	13104	-100	96	-172	-16376	-1308	-2108	66	-16	133	-3260	1636	16784	177	21	41	-7648	6432	13376	147	-5	-165	-15408	5288	-2276	31	-14	-35	-1748	-2740	16772	11	-107	163	127	124	5
-7992	-4456	13072	-82	90	-191	-16372	-1304	-2120	63	-43	137	-3304	1668	16724	174	14	47	-7572	6480	13388	115	-15	-166	-15360	5264	-2216	51	-27	-41	-1676	-2680	16764	38	-58	180	127	123	5
-7992	-4476	13204	-113	138	-209	-16404	-1288	-2092	59	-20	111	-3252	1640	16776	168	-26	64	-7708	6480	13460	165	-37	-160	-15316	5272	-2284	14	-24	7	-1688	-2620	16744	22	-89	195	127	123	5
-8000	-4500	13172	-115	124	-198	-16360	-1296	-2192	56	-35	121	-3304	1664	16668	137	10	83	-7656	6424	13560	145	18	-151	-15408	5296	-2092	18	-57	-30	-1668	-2620	16684	60	-76	152	127	123	5
-8056	-4540	13204	-91	134	-177	-16316	-1272	-2016	52	-65	112	-3344	1640	16660	178	14	64	-7596	6468	13548	124	-5	-130	-15384	5272	-2180	25	-9	-32	-1700	-2508	16792	-9	-95	174	127	124	5
-8036	-4560	13152	-89	168	-177	-16364	-1300	-2176	61	-49	84	-3292	1560	16840	183	-60	61	-7636	6500	13408	109	21	-130	-15376	5308	-2224	-9	-7	-17	-1664	-2636	16784	3	-94	183	127	125	5
-8040	-4508	13084	-120	131	-172	-16384	-1360	-2060	39	-38	114	-3304	1572	16712	184	5	50	-7652	6492	13428	116	-55	-133	-15304	5312	-2132	24	-21	-19	-1672	-2596	16784	-28	-77	202	127	125	5
-8112	-4496	13192	-72	140	-221	-16452	-1292	-2056	1	-11	118	-3288	1556	16772	185	-29	63	-7596	6484	13456	134	-46	-165	-15344	5392	-2144	4	10	-48	-1644	-2596	16784	-4	-100	192	127	125	5
-8072	-4496	13172	-94	110	-161	-16380	-1256	-2212	33	-24	153	-3292	1552	16680	173	-24	40	-7652	6492	13456	100	-12	-210	-15344	5316	-2024	24	43	-48	-1664	-2596	16680	-18	-95	182	127	124	5
-8092	-4484	13072	-70	132	-209	-16396	-1288	-2088	77	3	133	-3280	1584	16732	181	-7	52	-7664	6492	13512	145	-25	-170	-15304	5300	-2124	7	-44	-48	-1628	-2544	16800	-5	-107	196	127	124	5
-8008	-4508	13164	-54	135	-159	-16372	-1336	-2152	61	-20	135	-3296	1648	16776	183	-7	17	-7652	6496	13440	146	35	-172	-15348	5228	-2136	19	2	-49	-1664	-2556	16712	-57	-92	160	127	124	5
-8028	-4460	13060	-81	143	-171	-16392	-1324	-2180	82	-40	129	-3276	1728	16764	151	4	68	-7612	6476	13544	108	-28	-145	-15352	5256	-2148	14	34	-46	-1660	-2704	16696	37	-70	182	127	123	5
-8044	-4496	13104	-88	155	-173	-16404	-1320	-2172	85	-30	128	-3296	1660	16660	126	14	50	-7672	6376	13548	123	-27	-169	-15360	5240	-2088	7	3	-36	-1684	-2708	16788	203	6	109	127	124	5
-8132	-4468	13208	-126	134	-200	-16432	-1248	-2208	58	26	109	-3268	1724	16808	188	-21	28	-7668	6512	13436	118	-17	-194	-15364	5212	-2220	30	-26	-52	-1688	-2612	16720	151	-47	120	127	124	5
-8048	-4448	13200	-89	139	-166	-16380	-1360	-2152	70	-22	92	-3328	1660	16648	173	-10	63	-7624	6500	13420	97	-13	-177	-15456	5276	-2160	12	-16	-62	-1684	-2572	16924	30	-69	129	127	123	5
-8008	-4492	13188	-108	117	-204	-16360	-1232	-2148	77	-51	107	-3308	1668	16752	157	8	60	-7656	6492	13432	134	-21	-183	-15368	5300	-2232	16	-19	-35	-1704	-2532	16832	-44	-53	172	127	123	5
-8044	-4516	13208	-95	133	-202	-16360	-1388	-2116	81	-9	77	-3332	1628	16656	150	-4	60	-7644	6452	13484	125	7	-139	-15312	5320	-2312	-42	20	-89	-1676	-2580	16868	-26	-88	219	127	123	5
-8088	-4492	13172	-136	119	-205	-16408	-1368	-2152	84	-82	102	-3332	1580	16712	151	7	73	-7584	6408	13400	138	-14	-175	-15368	5268	-2040	5	-31	-53	-1736	-2624	16868	-56	-96	234	127	122	5
-8080	-4476	13164	-132	117	-170	-16380	-1320	-2180	78	-25	130	-3260	1580	16728	163	-4	53	-7664	6412	13480	108	-34	-142	-15332	5316	-2144	20	-1	-41	-1688	-2592	16788	-42	-109	196	127	122	5
-8044	-4548	13176	-116	119	-196	-16432	-1316	-2104	61	-22	140	-3304	1552	16784	178	-35	75	-7636	6436	13548	115	-11	-183	-15340	5276	-2220	65	-11	-53	-1680	-2572	16872	-59	-137	174	127	123	5
-8044	-4464	13224	-73	150	-201	-16432	-1344	-2068	86	-33	164	-3220	1540	16624	184	23	20	-7616	6492	13408	130	14	-171	-15384	5252	-2244	20	-1	-40	-1624	-2612	16712	-117	-160	171	127	123	5
-8064	-4456	13124	-85	133	-214	-16408	-1244	-2076	83	-18	153	-3300	1604	16736	158	-14	21	-7664	6452	13452	111	-13	-149	-15384	5300	-2108	-35	14	-14	-1636	-2580	16712	-84	-136	179	127	124	5
-8084	-4460	13196	-86	100	-173	-16388	-1312	-2264	62	-3	128	-3248	1592	16684	187	-24	21	-7676	6392	13568	119	-40	-162	-15424	5280	-2116	-11	-31	-26	-1672	-2660	16784	-62	-88	220	127	124	5
-8036	-4500	13236	-74	148	-174	-16364	-1312	-2068	76	17	128	-3296	1620	16832	170	-4	43	-7680	6476	13528	166	-22	-155	-15436	5216	-2124	23	20	-33	-1660	-2636	16868	-14	-113	165	127	125	5
-8020	-4480	13032	-97	150	-197	-16400	-1296	-2180	91	-27	147	-3240	1632	16700	201	-35	46	-7624	6436	13472	126	0	-146	-15432	5292	-2104	44	35	-34	-1656	-2648	16700	-16	-95	177	127	125	5
-8060	-4488	13076	-100	156	-176	-16380	-1340	-2100	83	-6	158	-3300	1628	16696	185	3	71	-7656	6456	13392	140	13	-193	-15308	5260	-2056	-11	21	-4	-1644	-2556	16852	-14	-98	222	127	125	5
-8048	-4504	13132	-78	144	-207	-16344	-1336	-2124	84	0	115	-3312	1608	16716	191	-2	69	-7656	6444	13464	152	-46	-189	-15372	5332	-2144	23	7	4	-1668	-2588	16828	-13	-149	182	127	124	5
-8064	-4500	13104	-113	140	-184	-16348	-1300	-2116	47	5	135	-3260	1624	16736	166	-2	80	-7616	6532	13488	113	-2	-196	-15332	5220	-2220	-25	-36	-36	-1732	-2644	16848	-27	-99	181	127	124	5
-8032	-4512	13120	-112	126	-184	-16360	-1288	-2120	57	-38	115	-3276	1580	16756	187	-13	72	-7596	6400	13504	126	-18	-177	-15352	5300	-2124	-14	27	-26	-1784	-2624	16860	-5	-85	198	127	124	5
-8064	-4472	13192	-104	138	-199	-16368	-1336	-2140	76	-46	119	-3288	1648	16692	198	22	41	-7636	6480	13556	136	36	-149	-15380	5308	-2088	34	-41	-18	-1724	-2628	16752	13	-80	192	127	124	5
-8092	-4496	13092	-97	88	-173	-16396	-1332	-2084	60	-21	149	-3244	1600	16708	166	27	42	-7628	6448	13484	163	-79	-154	-15400	5300	-2020	-8	-22	-58	-1676	-2592	16812	9	-102	182	127	125	5
-8080	-4580	13116	-72	133	-197	-16404	-1316	-2020	60	-39	151	-3276	1616	16708	172	15	-3	-7620	6464	13472	122	-32	-157	-15336	5312	-2040	-3	-22	-47	-1700	-2628	16776	12	-91	157	127	125	5
-8068	-4576	13060	-63	107	-169	-16388	-1312	-2192	65	-40	154	-3244	1608	16712	161	8	18	-7636	6424	13464	130	-20	-188	-15372	5328	-2200	55	-41	-35	-1604	-2640	16768	-4	-111	143	127	125	5
-8052	-4520	13168	-68	111	-182	-16396	-1320	-2040	53	-32	148	-3232	1608	16644	131	6	26	-7604	6492	13456	116	8	-162	-15360	5304	-2036	18	-36	-21	-1684	-2588	16676	-28	-96	163	127	125	5
-8084	-4460	13140	-62	114	-147	-16352	-1280	-2044	74	-35	174	-3260	1656	16736	178	23	29	-7656	6444	13484	130	-38	-156	-15384	5336	-2156	-4	-4	-6	-1644	-2616	16808	-49	-110	139	127	124	5
-8068	-4520	13172	-77	112	-201	-16388	-1288	-2108	90	-2	152	-3272	1660	16812	154	-1	56	-7576	6468	13504	124	-7	-167	-15404	5328	-2152	9	19	-20	-1552	-2608	16764	-42	-84	176	127	124	5
-8072	-4556	13124	-81	117	-178	-16392	-1320	-2064	67	-28	129	-3304	1608	16744	161	0	65	-7640	6460	13420	133	-46	-176	-15308	5368	-2152	-25	22	-23	-1584	-2608	16868	-26	-100	181	127	124	5
-8120	-4496	13224	-67	139	-197	-16404	-1372	-2108	89	8	126	-3232	1644	16776	177	-6	47	-7612	6496	13528	135	-17	-179	-15388	5324	-2184	-8	4	-45	-1652	-2552	16728	13	-112	176	127	124	5
-8128	-4488	13140	-109	130	-163	-16352	-1380	-2132	114	34	126	-3300	1624	16660	178	25	63	-7588	6428	13520	127	11	-161	-15432	5296	-2036	47	3	-28	-1740	-2536	16696	-3	-116	202	127	124	5
-8052	-4540	13160	-103	139	-150	-16428	-1280	-2196	62	-16	135	-3356	1592	16696	163	24	10	-7660	6492	13480	131	-31	-147	-15340	5316	-2104	13	-35	-43	-1680	-2620	16796	0	-97	190	127	125	5
-8076	-4492	13188	-109	138	-181	-16408	-1276	-2116	65	-39	149	-3288	1624	16740	209	22	20	-7684	6436	13472	93	9	-156	-15348	5308	-2192	1	5	-66	-1708	-2616	16712	-31	-83	200	127	125	5
-8064	-4532	13200	-92	126	-165	-16392	-1284	-2180	60	0	144	-3336	1644	16692	163	-7	55	-7676	6480	13480	108	-27	-186	-15424	5244	-2228	16	-16	-78	-1704	-2608	16856	-22	-110	193	127	125	5
-8068	-4516	13124	-67	138	-171	-16396	-1280	-2076	36	-14	132	-3332	1676	16688	139	23	70	-7688	6436	13516	92	-25	-136	-15320	5248	-2120	-10	-48	-41	-1668	-2672	16848	2	-96	182	127	124	5
-8024	-4504	13264	-85	145	-181	-16416	-1220	-2196	47	-18	166	-3268	1644	16740	198	-28	35	-7600	6440	13456	146	-31	-151	-15320	5260	-2024	-11	-7	-27	-1664	-2672	16772	8	-88	206	127	124	5
-8096	-4496	13180	-93	159	-180	-16384	-1300	-2068	40	-14	127	-3308	1660	16756	185	20	45	-7596	6460	13408	139	-6	-164	-15384	5296	-2120	18	-21	-53	-1688	-2600	16744	45	-67	175	127	123	5
-7996	-4488	13220	-64	157	-217	-16400	-1316	-2160	53	-28	125	-3288	1648	16804	163	18	54	-7624	6428	13404	136	3	-164	-15320	5292	-2120	12	-22	-61	-1672	-2696	16832	21	-101	187	127	124	5
-8040	-4620	13152	-89	138	-187	-16412	-1352	-2080	86	-35	112	-3204	1612	16732	115	5	43	-7552	6520	13548	122	-36	-151	-15388	5288	-2108	20	-3	-4	-1648	-2596	16784	-14	-99	139	127	124	5
-8116	-4540	13156	-99	108	-179	-16412	-1292	-2156	33	-53	100	-3284	1636	16712	151	2	60	-7644	6400	13460	149	20	-156	-15364	5344	-2188	-1	-33	-24	-1632	-2648	16752	27	-109	169	127	125	5
-8104	-4572	13164	-96	120	-177	-16420	-1324	-2092	55	-35	131	-3328	1580	16704	121	10	47	-7700	6496	13428	120	10	-172	-15396	5272	-2088	-7	-11	-24	-1664	-2592	16840	-30	-118	177	127	125	5
-8072	-4548	13160	-84	150	-202	-16452	-1308	-2096	88	-32	135	-3244	1556	16884	136	-6	36	-7680	6488	13488	126	-10	-174	-15424	5340	-2128	-12	-19	-17	-1652	-2584	16848	-14	-90	175	127	125	5
-8088	-4576	13168	-98	137	-173	-16412	-1344	-2084	78	-20	121	-3220	1600	16832	196	31	59	-7688	6492	13544	117	-5	-179	-15392	5344	-2068	-2	-24	-56	-1676	-2668	16828	1	-113	193	127	125	5
-8072	-4500	13040	-87	76	-148	-16356	-1372	-2088	69	-17	131	-3312	1576	16744	195	2	34	-7720	6440	13480	143	-5	-137	-15288	5344	-2080	1	8	-27	-1700	-2572	16780	28	-74	179	127	124	5
-8016	-4476	13092	-85	113	-188	-16380	-1420	-2064	100	-25	126	-3268	1568	16736	191	22	73	-7644	6476	13436	97	-9	-182	-15312	5320	-2132	24	24	-60	-1692	-2620	16800	-26	-111	214	127	124	5
-8064	-4520	13060	-124	145	-173	-16300	-1288	-2124	58	-38	151	-3296	1632	16792	177	1	47	-7604	6488	13372	123	2	-166	-15424	5256	-2108	-6	8	-23	-1680	-2672	16708	-15	-97	178	127	123	5
-8048	-4496	13020	-43	96	-185	-16408	-1324	-2108	87	-42	140	-3232	1628	16708	174	-13	46	-7612	6408	13524	142	-55	-204	-15388	5220	-2192	38	13	-25	-1652	-2608	16816	-20	-96	183	127	124	5
-8072	-4532	13244	-94	121	-169	-16428	-1272	-2084	62	-35	158	-3288	1684	16724	162	10	15	-7640	6428	13480	129	21	-162	-15380	5340	-2236	-14	-32	-13	-1684	-2648	16752	-27	-105	147	127	124	5
-8000	-4548	13156	-87	131	-215	-16376	-1272	-2244	47	-37	167	-3252	1656	16580	159	3	65	-7652	6476	13432	147	12	-136	-15360	5308	-1992	-18	-20	12	-1716	-2620	16764	-14	-76	162	127	125	5
-8096	-4516	13104	-87	129	-198	-16384	-1232	-2088	90	-46	115	-3312	1628	16712	154	37	44	-7584	6468	13516	127	-46	-178	-15384	5300	-2068	-2	-37	4	-1672	-2684	16892	1	-101	192	127	125	5
-8004	-4484	13224	-112	116	-179	-16432	-1340	-2124	74	7	95	-3328	1632	16700	155	9	65	-7660	6488	13452	166	-60	-117	-15360	5272	-2076	1	-4	-30	-1696	-2684	16780	16	-99	154	127	125	5
-8044	-4520	13200	-78	145	-160	-16404	-1276	-2176	68	-29	76	-3284	1556	16728	188	6	92	-7612	6516	13472	148	-36	-152	-15320	5296	-2100	17	-18	-43	-1712	-2572	16852	-13	-65	169	127	124	5
-8064	-4484	13220	-135	113	-166	-16428	-1252	-2044	80	-74	131	-3316	1628	16780	154	36	69	-7628	6420	13496	139	14	-181	-15356	5288	-2148	63	-2	-30	-1724	-2576	16872	21	-68	170	127	124	5
-8116	-4488	13100	-102	131	-167	-16428	-1288	-2068	53	-6	127	-3280	1608	16764	157	10	49	-7596	6424	13440	145	16	-150	-15444	5340	-2176	46	-14	-17	-1636	-2568	16768	30	-81	168	127	123	5
-8052	-4572	13152	-68	103	-199	-16392	-1396	-2052	79	-19	145	-3300	1516	16776	149	0	3	-7652	6496	13504	153	0	-166	-15336	5356	-2116	-14	11	-26	-1644	-2600	16760	3	-79	158	127	124	5
-8028	-4560	13288	-74	124	-174	-16424	-1300	-2112	61	-43	150	-3208	1560	16680	200	-14	10	-7644	6544	13484	95	-2	-192	-15320	5236	-2224	17	11	-46	-1684	-2576	16800	-24	-87	155	127	124	5
-8096	-4516	13124	-127	111	-187	-16424	-1368	-2164	64	24	141	-3224	1608	16764	203	-22	20	-7668	6472	13480	111	8	-150	-15400	5260	-2140	7	9	-40	-1660	-2624	16828	-7	-99	165	127	124	5
-8048	-4524	13132	-107	106	-143	-16484	-1280	-2212	56	-17	118	-3256	1552	16672	187	12	10	-7648	6472	13508	111	5	-134	-15412	5320	-2044	-27	18	-31	-1668	-2648	16824	-9	-106	188	127	125	5
-8108	-4504	13140	-96	124	-196	-16380	-1256	-2076	75	0	162	-3336	1616	16840	135	-26	69	-7664	6412	13520	113	-16	-180	-15344	5260	-2112	-8	-5	-69	-1680	-2624	16776	23	-104	202	127	125	5
-8080	-4524	13184	-85	146	-208	-16416	-1288	-2084	61	-10	118	-3344	1612	16780	153	-18	33	-7648	6432	13596	109	26	-159	-15388	5284	-2040	-10	40	-46	-1656	-2608	16812	22	-106	212	127	124	5
-8072	-4508	13128	-112	128	-193	-16424	-1268	-2232	80	-8	148	-3328	1652	16764	175	-14	73	-7664	6380	13424	111	-13	-174	-15344	5276	-2212	22	-9	-32	-1708	-2692	16764	22	-103	223	127	124	5
-8032	-4528	13060	-77	131	-183	-16408	-1280	-2228	53	-70	169	-3276	1616	16708	198	-14	44	-7636	6456	13500	117	-1	-163	-15372	5260	-2268	31	-18	-29	-1684	-2604	16700	47	-120	196	127	124	5
-8100	-4528	13084	-124	144	-168	-16396	-1352	-2144	45	-54	118	-3208	1684	16716	177	-11	59	-7676	6472	13564	139	-39	-157	-15376	5288	-2172	0	-21	-24	-1724	-2648	16816	-4	-78	154	127	123	5
-8068	-4484	13176	-96	135	-160	-16404	-1292	-2128	68	-61	106	-3264	1624	16704	166	17	30	-7680	6436	13536	136	39	-169	-15296	5312	-2176	23	-16	0	-1684	-2556	16692	3	-86	206	127	124	5
-8092	-4524	13180	-87	104	-142	-16424	-1336	-2080	76	-15	138	-3320	1592	16672	129	-15	15	-7636	6456	13504	124	-24	-169	-15356	5268	-2084	-1	-7	-31	-1676	-2636	16792	22	-70	187	127	124	5
-8068	-4500	13184	-74	116	-160	-16416	-1320	-2068	81	-34	140	-3288	1608	16664	162	25	36	-7588	6460	13472	171	-15	-151	-15320	5268	-2032	71	-20	-10	-1656	-2616	16784	20	-83	145	127	125	5
-8040	-4480	13152	-88	119	-197	-16396	-1328	-2156	70	-48	145	-3212	1620	16788	156	8	28	-7644	6432	13404	125	32	-158	-15356	5308	-2136	51	-44	-46	-1700	-2592	16848	43	-89	171	127	125	5
-8092	-4476	13164	-79	131	-147	-16424	-1308	-2152	64	-40	110	-3320	1632	16708	164	2	24	-7704	6484	13384	129	-36	-171	-15348	5340	-2132	8	-29	-45	-1604	-2564	16660	14	-101	161	127	124	5
-8096	-4524	13160	-87	115	-178	-16376	-1304	-2156	69	-44	170	-3208	1636	16740	195	-8	65	-7616	6516	13484	117	24	-199	-15356	5280	-2020	10	-25	-29	-1652	-2636	16600	-23	-88	172	127	124	5
-8068	-4560	13172	-78	129	-201	-16404	-1268	-2152	68	-71	110	-3228	1644	16852	189	-22	61	-7688	6520	13440	124	-20	-156	-15320	5424	-2056	-30	25	-34	-1680	-2616	16748	-48	-116	160	127	124	5
-7992	-4548	13156	-69	123	-178	-16404	-1316	-2084	60	-6	134	-3280	1608	16788	180	-5	68	-7612	6480	13404	138	27	-168	-15352	5368	-2028	-8	13	-37	-1672	-2640	16760	-22	-93	154	127	124	5
-8032	-4548	13172	-68	118	-168	-16432	-1312	-2028	52	-34	122	-3304	1632	16820	178	-26	67	-7616	6468	13436	104	-5	-211	-15324	5292	-2056	-5	-1	-47	-1732	-2592	16800	-5	-90	199	127	124	5
-8052	-4480	13068	-98	136	-198	-16324	-1320	-2160	89	-51	123	-3320	1632	16704	146	1	26	-7592	6420	13380	117	-8	-199	-15328	5288	-2160	19	18	-26	-1704	-2588	16724	66	-88	214	127	124	5
-8104	-4512	13096	-99	131	-176	-16388	-1296	-2056	99	-19	141	-3284	1608	16736	181	24	70	-7684	6464	13504	137	-1	-159	-15380	5320	-2124	9	-12	-37	-1684	-2616	16768	22	-86	176	127	125	5
-8052	-4496	13188	-94	138	-158	-16404	-1300	-2116	71	-38	163	-3296	1644	16700	185	-8	22	-7628	6428	13576	141	-46	-109	-15364	5292	-2160	8	27	-53	-1696	-2580	16688	2	-93	165	127	125	5
-8092	-4492	13124	-116	133	-198	-16424	-1312	-2100	83	-44	97	-3260	1660	16700	150	-17	46	-7616	6396	13556	123	-24	-155	-15308	5352	-2092	-15	1	-51	-1660	-2600	16816	8	-72	165	127	125	5
-8104	-4508	13188	-114	138	-181	-16400	-1296	-2184	56	-79	119	-3344	1684	16592	189	-42	42	-7628	6468	13500	157	26	-165	-15396	5296	-2080	1	-3	-15	-1688	-2592	16724	-21	-96	158	127	124	5
-8064	-4456	13256	-80	163	-159	-16424	-1316	-2124	64	-35	144	-3356	1564	16716	161	4	25	-7636	6488	13556	142	-25	-135	-15392	5324	-2144	12	-14	-32	-1636	-2700	16772	18	-111	176	127	124	5
-8084	-4520	13160	-102	143	-173	-16420	-1308	-2096	68	-62	133	-3288	1692	16728	139	9	49	-7660	6524	13456	108	-26	-162	-15368	5264	-2136	24	5	-79	-1608	-2600	16772	9	-77	170	127	123	5
-7980	-4468	13188	-85	124	-185	-16452	-1284	-2092	46	-39	118	-3272	1636	16740	196	-33	68	-7696	6460	13464	150	-29	-163	-15420	5308	-2164	41	-11	-7	-1620	-2680	16868	42	-70	181	127	124	5
-8072	-4520	13208	-134	125	-171	-16424	-1288	-2148	43	-44	135	-3180	1584	16788	161	56	71	-7632	6456	13460	156	-11	-153	-15352	5308	-2056	42	16	-55	-1696	-2672	16844	19	-82	165	127	124	5
-8048	-4560	13156	-89	140	-188	-16372	-1292	-2176	52	5	99	-3244	1572	16756	170	-50	73	-7636	6488	13420	101	15	-145	-15376	5304	-2100	0	-10	-46	-1572	-2640	16740	20	-89	161	127	125	5
-8112	-4452	13128	-95	143	-185	-16416	-1320	-2092	55	40	147	-3208	1580	16708	144	-8	83	-7616	6432	13480	128	-9	-148	-15368	5360	-2060	12	13	-40	-1740	-2608	17000	-12	-93	158	127	125	5
-8080	-4552	13112	-82	112	-182	-16384	-1372	-2132	78	-50	111	-3252	1560	16692	194	6	51	-7652	6452	13424	96	15	-149	-15308	5300	-2068	5	-1	-25	-1708	-2628	16768	22	-85	199	127	125	5
-8060	-4556	13172	-129	123	-167	-16372	-1376	-2196	74	-19	119	-3292	1632	16736	188	11	48	-7708	6376	13516	114	2	-189	-15308	5328	-2092	2	-11	-58	-1688	-2628	16724	-4	-86	194	127	124	5
-8100	-4480	13144	-118	126	-162	-16452	-1352	-2148	71	-56	141	-3296	1556	16716	190	-3	50	-7668	6440	13460	127	-37	-173	-15308	5304	-2168	35	13	-49	-1660	-2588	16712	8	-101	189	127	124	5
-8088	-4540	13192	-91	131	-149	-16388	-1324	-2116	51	16	139	-3324	1632	16712	179	17	35	-7636	6464	13544	140	-24	-164	-15372	5300	-2112	20	-33	-29	-1684	-2644	16700	-25	-109	198	127	123	5
-8060	-4488	13172	-74	117	-181	-16396	-1324	-2148	86	-13	139	-3244	1640	16792	207	6	60	-7592	6488	13432	145	3	-161	-15376	5312	-2124	27	-19	-40	-1672	-2640	16880	17	-93	190	127	124	5
-8040	-4492	13088	-97	144	-196	-16368	-1268	-2164	98	23	139	-3248	1620	16712	203	8	14	-7668	6452	13424	122	6	-164	-15328	5324	-2056	-9	24	-7	-1632	-2632	16860	3	-77	171	127	124	5
-8048	-4524	13148	-92	136	-181	-16348	-1292	-2136	92	-6	123	-3216	1664	16812	172	-9	51	-7628	6468	13428	122	3	-164	-15352	5332	-2144	-2	-40	-51	-1676	-2624	16784	-21	-87	170	127	125	5
-8148	-4444	13100	-69	144	-172	-16376	-1336	-2136	72	-68	129	-3268	1632	16768	167	1	56	-7656	6500	13392	121	-54	-175	-15364	5284	-2124	7	10	19	-1728	-2620	16828	14	-70	178	127	125	5
-8084	-4480	13124	-87	118	-188	-16412	-1248	-2116	57	-38	152	-3236	1604	16740	193	3	84	-7636	6432	13388	115	-9	-153	-15328	5240	-2192	5	2	-50	-1716	-2668	16844	-6	-81	190	127	125	5
-8072	-4472	13184	-90	91	-187	-16384	-1284	-2132	95	-33	129	-3324	1612	16800	162	-14	64	-7584	6500	13416	162	-26	-141	-15320	5256	-2132	4	11	-57	-1644	-2636	16792	32	-77	144	127	124	5
-8032	-4520	13116	-105	136	-166	-16420	-1312	-2152	85	-31	127	-3200	1588	16804	144	-7	42	-7652	6488	13504	173	-68	-182	-15428	5316	-2120	61	-8	-9	-1652	-2624	16784	9	-94	159	127	124	5
-7988	-4516	13168	-92	125	-180	-16404	-1264	-2188	80	-5	112	-3280	1608	16796	159	11	45	-7572	6492	13440	138	10	-173	-15384	5244	-2088	-35	13	-22	-1596	-2604	16852	14	-85	148	127	124	5
-8056	-4532	13116	-94	135	-202	-16400	-1364	-2052	76	-5	124	-3288	1588	16828	193	-17	33	-7580	6460	13524	127	-7	-145	-15436	5296	-2200	16	20	1	-1664	-2628	16752	-7	-86	162	127	124	5
-8068	-4496	13112	-99	133	-168	-16388	-1364	-2136	52	-16	92	-3324	1688	16808	181	-27	31	-7700	6484	13536	151	-24	-134	-15416	5292	-2068	-27	15	-31	-1624	-2624	16780	-14	-104	158	127	124	5
-8120	-4520	13132	-103	148	-170	-16364	-1364	-2064	61	-26	134	-3276	1680	16712	169	-33	61	-7688	6524	13568	138	9	-188	-15372	5324	-2056	0	-7	-39	-1696	-2620	16920	-11	-108	200	127	125	5
-8116	-4492	13168	-101	124	-189	-16416	-1252	-2164	57	-29	132	-3328	1624	16720	141	32	63	-7640	6484	13428	103	-24	-171	-15372	5304	-2036	-14	20	-65	-1632	-2620	16772	-6	-101	206	127	125	5
-8068	-4500	13148	-136	147	-202	-16344	-1328	-2120	70	-31	113	-3264	1692	16780	146	-1	41	-7652	6464	13476	137	2	-161	-15372	5288	-2196	24	13	-66	-1736	-2652	16780	0	-117	216	127	125	5
-8068	-4492	13132	-108	145	-183	-16412	-1296	-2060	28	-59	129	-3364	1596	16792	200	-9	65	-7640	6432	13444	105	-4	-177	-15336	5276	-2072	23	-5	-70	-1680	-2664	16808	-9	-91	187	127	124	5
-8036	-4500	13228	-87	136	-184	-16384	-1292	-2112	50	-45	125	-3352	1636	16660	210	21	97	-7628	6452	13468	110	-24	-199	-15344	5276	-2152	25	-6	-24	-1716	-2688	16744	-4	-105	205	127	124	5
-8060	-4588	13048	-163	136	-185	-16376	-1384	-2100	48	-19	132	-3256	1572	16716	182	5	59	-7632	6440	13516	148	-40	-135	-15300	5332	-2200	0	-15	-50	-1732	-2652	16768	8	-93	201	127	123	5
-8096	-4492	13220	-124	114	-185	-16396	-1364	-2024	72	-63	154	-3216	1604	16656	147	-16	52	-7616	6424	13520	121	4	-172	-15400	5288	-2184	-35	28	-35	-1700	-2612	16796	-12	-87	155	127	124	5
-8076	-4556	13232	-83	127	-211	-16396	-1356	-2028	58	-62	123	-3296	1552	16752	137	-13	16	-7704	6528	13456	119	-20	-142	-15332	5284	-2176	-7	-53	-61	-1716	-2656	16676	8	-93	158	127	124	5
-8060	-4496	13284	-67	138	-170	-16396	-1304	-2248	89	-66	151	-3240	1544	16788	123	17	33	-7604	6380	13400	141	-34	-176	-15344	5352	-2144	31	-9	-49	-1652	-2592	16712	-7	-91	116	127	125	5
-8108	-4500	13144	-102	121	-186	-16420	-1320	-2088	88	-28	180	-3232	1632	16736	141	24	28	-7652	6476	13336	107	-37	-159	-15352	5240	-2196	45	-13	-23	-1592	-2628	16752	-36	-105	149	127	125	5
-8108	-4528	13228	-82	122	-187	-16416	-1308	-2084	105	-37	157	-3264	1560	16728	209	-33	37	-7668	6484	13512	116	-57	-171	-15372	5268	-2108	63	-30	-50	-1620	-2652	16812	-54	-84	165	127	125	5
-8068	-4488	13204	-88	139	-177	-16380	-1228	-2076	62	-55	139	-3252	1552	16676	170	5	37	-7564	6512	13564	103	11	-188	-15372	5352	-2004	11	24	12	-1564	-2632	16792	-37	-123	154	127	125	5
-8044	-4540	13100	-89	121	-150	-16380	-1288	-2084	93	7	107	-3292	1596	16676	191	-16	69	-7624	6488	13540	95	37	-185	-15400	5336	-2024	-18	50	-30	-1600	-2540	16788	-15	-70	165	127	124	5
-8076	-4528	13196	-109	141	-152	-16416	-1284	-2188	99	-37	180	-3264	1612	16712	224	-48	35	-7608	6440	13424	85	29	-154	-15312	5248	-1944	14	11	-15	-1676	-2632	16784	-8	-90	196	127	124	5
-8020	-4484	13164	-109	161	-140	-16348	-1388	-2116	107	1	148	-3312	1608	16676	174	-10	83	-7672	6440	13496	111	-7	-222	-15360	5348	-2100	-12	-10	12	-1664	-2592	16760	20	-84	197	127	123	5
-8116	-4460	13120	-83	128	-154	-16356	-1332	-2024	114	-23	151	-3344	1608	16816	198	2	20	-7644	6476	13400	91	-27	-211	-15332	5252	-2204	20	3	-34	-1748	-2672	16812	15	-85	201	127	124	5
-8040	-4440	13172	-98	130	-161	-16392	-1276	-2112	70	-4	184	-3320	1620	16708	197	36	52	-7632	6444	13480	93	-27	-166	-15352	5284	-2280	18	-13	-48	-1772	-2580	16720	-1	-80	226	127	124	5
-8012	-4512	13160	-77	107	-191	-16392	-1308	-2152	66	-39	182	-3364	1668	16792	185	-12	40	-7664	6440	13576	77	9	-164	-15340	5268	-2172	9	-17	-63	-1752	-2640	16804	18	-83	194	127	125	5
-8012	-4504	13152	-100	104	-187	-16392	-1296	-2156	72	-32	139	-3316	1676	16560	179	-6	45	-7648	6480	13536	116	-64	-163	-15376	5248	-2092	15	-19	-42	-1708	-2708	16744	54	-73	206	127	125	5
-8028	-4452	13244	-105	110	-188	-16392	-1236	-2128	67	-81	169	-3320	1696	16716	160	-5	21	-7632	6444	13496	123	-39	-139	-15348	5224	-2212	-8	-44	-17	-1620	-2692	16736	75	-81	177	127	125	5
-8120	-4476	13224	-88	124	-207	-16416	-1288	-2164	62	-69	107	-3248	1724	16776	168	-6	36	-7648	6456	13448	149	2	-132	-15408	5272	-2040	35	-54	-14	-1628	-2628	16832	35	-93	172	127	124	5
-8080	-4512	13128	-74	128	-201	-16428	-1284	-1956	78	-53	83	-3220	1664	16784	179	32	54	-7604	6456	13464	125	-24	-137	-15364	5260	-2064	9	-52	28	-1668	-2576	16800	10	-104	145	127	124	5
-8072	-4504	13032	-113	138	-192	-16436	-1396	-2140	68	-19	83	-3236	1624	16716	173	35	53	-7660	6420	13468	123	-21	-168	-15380	5296	-2128	22	-29	8	-1600	-2648	16820	-33	-92	139	127	123	5
-8020	-4520	13232	-108	132	-154	-16444	-1320	-2180	87	-23	105	-3208	1604	16836	142	-16	76	-7608	6476	13548	146	16	-190	-15412	5240	-2072	-18	5	18	-1676	-2548	16752	-25	-89	152	127	123	5
-8092	-4508	13212	-118	115	-145	-16448	-1308	-2156	74	-22	67	-3248	1512	16796	152	20	39	-7660	6476	13540	144	-26	-168	-15316	5392	-2056	-10	-29	-24	-1640	-2512	16804	-42	-91	175	127	124	5
-8080	-4524	13144	-93	138	-156	-16384	-1340	-2116	44	-12	129	-3268	1556	16664	162	18	38	-7592	6468	13388	82	7	-189	-15244	5336	-2108	15	-2	-30	-1724	-2600	16736	-10	-104	201	127	124	5
-8052	-4492	13216	-101	141	-203	-16376	-1364	-2168	26	4	142	-3372	1544	16812	201	14	35	-7564	6468	13492	95	-52	-164	-15404	5296	-2092	28	1	-52	-1664	-2616	16684	33	-111	179	127	125	5
-8060	-4516	13140	-91	129	-175	-16348	-1312	-2152	46	3	132	-3304	1620	16688	236	-15	69	-7640	6448	13468	126	-3	-203	-15348	5336	-2108	-11	9	-56	-1664	-2664	16796	-14	-86	203	127	125	5
-8056	-4516	13052	-73	122	-164	-16432	-1320	-2144	65	12	135	-3260	1596	16712	209	6	38	-7692	6424	13464	101	-27	-183	-15340	5252	-2196	40	9	-10	-1660	-2640	16780	-30	-87	228	127	125	5
-8084	-4448	13156	-59	142	-203	-16456	-1312	-2112	34	-19	145	-3264	1684	16860	171	15	23	-7648	6520	13524	110	-13	-153	-15360	5324	-2116	18	-19	-87	-1656	-2672	16676	-26	-106	198	127	124	5
-8048	-4516	13112	-71	159	-173	-16372	-1196	-2084	74	-63	92	-3260	1672	16756	154	2	34	-7612	6492	13444	130	-1	-159	-15380	5236	-2144	-2	12	-56	-1668	-2704	16680	-45	-104	146	127	124	5
-8044	-4512	13156	-81	157	-188	-16440	-1276	-2152	63	5	107	-3252	1704	16716	169	2	51	-7652	6468	13476	126	8	-175	-15356	5352	-2168	7	11	-37	-1696	-2688	16816	53	-88	146	127	124	5
-8044	-4524	13060	-117	116	-183	-16364	-1292	-2160	27	-26	84	-3256	1664	16784	123	0	37	-7640	6496	13464	163	-13	-175	-15308	5312	-2088	21	-13	-57	-1648	-2684	16724	39	-80	206	127	124	5
-8060	-4528	13184	-138	119	-201	-16432	-1284	-2128	64	-14	79	-3280	1628	16784	129	24	55	-7664	6476	13492	145	0	-160	-15324	5232	-2112	51	-22	-16	-1704	-2628	16848	15	-60	169	127	124	5
-8028	-4536	13136	-133	118	-222	-16372	-1304	-2144	64	-13	133	-3268	1616	16692	161	-25	23	-7640	6496	13516	107	-22	-168	-15400	5308	-2196	30	-51	-75	-1704	-2604	16840	36	-84	128	127	125	5
-8060	-4568	13264	-80	161	-209	-16400	-1344	-2060	105	-23	120	-3260	1524	16748	209	-36	61	-7660	6412	13516	128	-17	-171	-15396	5248	-2024	57	-25	-11	-1732	-2612	16732	78	-71	141	127	125	5
-8040	-4508	13092	-76	106	-159	-16408	-1308	-2012	94	-20	127	-3272	1492	16668	185	4	68	-7640	6432	13532	141	-23	-136	-15352	5308	-2220	9	-8	-54	-1736	-2620	16760	36	-114	133	127	125	5
-8136	-4524	13188	-74	125	-200	-16392	-1348	-2152	54	-6	128	-3236	1556	16812	202	7	67	-7552	6480	13464	114	16	-142	-15392	5308	-2064	29	23	-24	-1712	-2640	16812	6	-88	153	127	124	5
-8048	-4540	13120	-92	129	-201	-16400	-1316	-2036	39	-12	119	-3220	1596	16840	143	-8	39	-7668	6456	13516	125	-12	-141	-15380	5336	-2148	30	-2	-15	-1644	-2564	16848	28	-113	141	127	124	5
-8076	-4516	13296	-98	129	-172	-16412	-1284	-2116	28	-49	152	-3224	1624	16648	173	-16	39	-7676	6440	13364	177	-14	-143	-15364	5316	-2160	62	-45	-9	-1656	-2580	16804	55	-94	167	127	123	5
-8088	-4532	13256	-133	128	-173	-16408	-1300	-2080	24	-6	140	-3212	1600	16716	203	20	31	-7592	6492	13392	181	-7	-129	-15344	5268	-2000	34	10	-53	-1640	-2604	16732	14	-75	175	127	124	5
-8052	-4508	13184	-103	128	-158	-16324	-1304	-2196	62	5	167	-3232	1596	16616	215	-2	71	-7680	6476	13456	149	-36	-185	-15376	5308	-2024	2	2	-41	-1776	-2564	16740	18	-102	174	127	124	5
-8092	-4516	13136	-129	153	-171	-16396	-1356	-2124	71	-23	116	-3332	1724	16700	214	5	63	-7612	6520	13412	131	-25	-132	-15376	5288	-2144	-27	3	-35	-1684	-2604	16784	19	-84	175	127	125	5
-8084	-4520	13104	-97	146	-170	-16444	-1296	-2240	69	-36	141	-3308	1696	16732	202	4	60	-7620	6448	13468	139	-5	-175	-15320	5272	-2144	-20	-7	-29	-1720	-2640	16824	-24	-113	186	127	125	5
-8124	-4540	13080	-113	125	-172	-16356	-1332	-2208	55	-44	111	-3340	1660	16776	181	-31	77	-7704	6508	13444	118	-5	-196	-15364	5316	-2180	26	29	-64	-1676	-2624	16776	-23	-126	173	127	125	5
-8068	-4524	13108	-136	134	-184	-16388	-1288	-2176	36	-45	104	-3280	1588	16648	135	16	33	-7692	6472	13532	114	-22	-200	-15300	5280	-2036	14	-23	-26	-1696	-2600	16856	-36	-114	190	127	124	5
-8072	-4468	13120	-73	150	-158	-16408	-1372	-2072	52	-26	145	-3316	1672	16816	161	-3	59	-7640	6424	13512	123	-42	-169	-15312	5352	-2212	24	-16	-51	-1684	-2604	16816	-7	-68	197	127	124	5
-8080	-4504	13108	-104	144	-191	-16368	-1288	-2116	33	-31	130	-3240	1584	16688	187	3	42	-7648	6532	13560	131	2	-175	-15380	5328	-2068	5	1	-61	-1700	-2640	16868	30	-63	166	127	124	5
-8012	-4516	13120	-149	124	-200	-16392	-1336	-2104	98	-53	120	-3296	1652	16684	146	14	54	-7620	6468	13496	145	-16	-156	-15416	5356	-2072	-13	-16	-64	-1640	-2572	16748	7	-98	160	127	124	5
-8080	-4552	13064	-105	146	-193	-16420	-1280	-2108	84	-63	118	-3312	1600	16728	157	3	42	-7548	6448	13448	106	-39	-163	-15416	5288	-2152	18	-17	-46	-1616	-2708	16836	-12	-114	176	127	124	5
-8100	-4476	13116	-103	143	-198	-16428	-1276	-2044	80	-50	108	-3164	1604	16692	140	17	72	-7624	6480	13572	116	-32	-145	-15360	5292	-2124	28	-16	-34	-1632	-2568	16752	-36	-93	189	127	124	5
-8004	-4528	13148	-98	136	-173	-16428	-1308	-2264	57	-38	106	-3236	1632	16824	162	-30	71	-7600	6488	13412	101	-4	-161	-15384	5332	-2148	-18	31	-35	-1648	-2632	16740	-9	-88	169	127	125	5
-8048	-4496	13280	-86	138	-200	-16380	-1312	-2028	43	-78	142	-3244	1572	16764	147	-26	69	-7672	6440	13388	121	-57	-148	-15412	5312	-2096	12	13	-13	-1724	-2640	16784	-30	-108	187	127	125	5
-8108	-4524	13160	-96	117	-161	-16356	-1344	-2072	53	-39	112	-3264	1532	16708	136	17	63	-7648	6488	13380	113	-8	-174	-15360	5288	-2120	-23	7	-45	-1668	-2640	16820	-27	-57	209	127	125	5
-8092	-4488	13196	-125	138	-166	-16420	-1332	-2252	102	-35	73	-3228	1560	16808	160	39	47	-7620	6480	13472	92	-53	-146	-15356	5348	-2016	-22	-36	-47	-1732	-2660	16768	22	-82	179	127	124	5
-8084	-4544	13172	-56	167	-219	-16424	-1364	-2088	104	16	110	-3252	1580	16736	189	-5	82	-7588	6492	13444	98	37	-128	-15392	5280	-2156	-22	-24	-46	-1676	-2640	16712	-10	-78	210	127	124	5
-8112	-4496	13080	-67	122	-209	-16400	-1320	-2184	97	-48	110	-3276	1568	16704	190	7	29	-7684	6452	13456	103	-30	-166	-15392	5360	-2072	-22	-19	-31	-1736	-2604	16772	12	-108	170	127	123	5
-8048	-4492	13164	-87	144	-176	-16412	-1304	-2064	69	-41	142	-3276	1596	16644	169	-22	58	-7688	6520	13444	146	-40	-162	-15344	5272	-2044	18	-31	-58	-1712	-2592	16808	8	-81	181	127	123	5
-8108	-4500	13184	-57	110	-169	-16388	-1304	-2192	84	4	156	-3328	1520	16748	187	31	-12	-7680	6500	13396	105	17	-118	-15380	5260	-2112	27	-19	-39	-1668	-2604	16764	4	-97	176	127	124	5
-8044	-4520	13168	-95	125	-184	-16380	-1344	-2024	66	-34	151	-3288	1644	16620	178	18	27	-7692	6432	13568	125	-35	-138	-15324	5292	-2228	0	-27	-38	-1736	-2620	16672	-12	-80	142	127	125	5
-8068	-4492	13152	-134	130	-181	-16480	-1304	-2120	55	-3	153	-3276	1628	16828	196	-6	32	-7620	6480	13496	114	4	-139	-15332	5300	-2048	28	-24	-10	-1660	-2600	16732	7	-109	172	127	125	5
-8064	-4472	13136	-46	145	-191	-16324	-1276	-2132	87	6	84	-3220	1668	16804	195	-9	36	-7672	6496	13460	132	-36	-167	-15384	5284	-2072	-17	-16	-65	-1620	-2656	16764	12	-119	173	127	125	5
-8052	-4500	13020	-89	115	-165	-16372	-1324	-2152	85	-38	119	-3268	1712	16652	193	19	48	-7548	6484	13400	145	-35	-135	-15420	5280	-2112	-6	-9	-7	-1676	-2664	16892	25	-110	190	127	125	5
-8072	-4476	13212	-94	133	-204	-16412	-1304	-2048	94	-30	123	-3224	1672	16736	179	-6	21	-7572	6508	13560	152	24	-162	-15316	5300	-2056	33	17	-37	-1684	-2620	16692	5	-85	182	127	124	5
-8068	-4536	13168	-104	124	-144	-16400	-1288	-2208	82	-79	108	-3276	1636	16708	129	-22	49	-7608	6440	13432	148	-9	-177	-15384	5344	-1976	48	-7	-26	-1672	-2556	16760	0	-101	210	127	123	5
-8120	-4552	13072	-115	123	-172	-16392	-1384	-2020	58	-65	102	-3288	1596	16720	163	10	67	-7696	6472	13368	160	6	-174	-15408	5368	-2132	29	-32	-22	-1728	-2584	16856	-26	-107	207	127	123	5
-8076	-4436	13096	-119	136	-169	-16404	-1260	-2056	55	-59	119	-3224	1644	16808	196	-51	68	-7700	6468	13388	126	-47	-143	-15344	5316	-2212	-9	18	-27	-1728	-2592	16852	13	-94	183	127	124	5
-8044	-4556	13112	-93	127	-179	-16400	-1336	-2092	60	-16	127	-3300	1620	16636	165	22	45	-7668	6452	13468	141	-23	-125	-15392	5288	-1912	11	19	-21	-1708	-2616	16808	-23	-90	139	127	124	5
-8040	-4516	13204	-106	158	-212	-16308	-1332	-2180	47	-63	135	-3252	1628	16724	175	35	58	-7592	6444	13504	94	8	-146	-15376	5348	-2108	-16	14	-26	-1680	-2560	16792	-9	-112	196	127	125	5
-8032	-4556	13172	-82	136	-204	-16392	-1308	-2240	72	-36	121	-3232	1624	16728	173	15	42	-7636	6504	13408	140	-19	-204	-15368	5352	-2248	9	-18	-36	-1724	-2636	16772	-5	-57	206	127	125	5
-8108	-4508	13084	-69	97	-176	-16408	-1260	-1996	72	-35	138	-3200	1732	16712	159	-23	49	-7628	6492	13444	132	-39	-152	-15380	5276	-2080	9	8	-48	-1660	-2648	16784	-12	-99	204	127	125	5
-8072	-4496	13068	-71	140	-124	-16392	-1272	-2140	76	-41	138	-3300	1628	16628	181	-16	45	-7572	6468	13516	133	5	-174	-15332	5252	-2080	10	13	-87	-1648	-2632	16748	-9	-82	190	127	124	5
-8060	-4496	13256	-48	153	-190	-16404	-1328	-2112	62	-20	110	-3336	1552	16688	180	6	36	-7696	6492	13552	115	-50	-144	-15344	5276	-2116	1	-4	-28	-1636	-2612	16716	-14	-65	143	127	124	5
-8064	-4520	13152	-67	134	-161	-16392	-1320	-2132	82	-38	118	-3288	1596	16780	149	-17	45	-7612	6452	13456	125	-53	-148	-15388	5320	-2180	42	-36	-57	-1648	-2640	16676	19	-85	179	127	124	5
-8020	-4552	13176	-111	101	-171	-16364	-1316	-2144	82	-43	124	-3304	1532	16704	155	22	41	-7628	6496	13464	113	-9	-160	-15452	5252	-2108	4	-47	-40	-1632	-2676	16920	23	-85	152	127	124	5
-8080	-4568	13152	-86	144	-176	-16352	-1348	-2064	115	-55	137	-3320	1628	16728	155	23	25	-7652	6468	13512	148	-36	-109	-15336	5324	-2120	10	-21	8	-1680	-2632	16768	43	-77	146	127	124	5
-8068	-4488	13164	-56	148	-216	-16400	-1300	-2064	70	-26	168	-3284	1628	16740	176	27	70	-7664	6496	13512	162	2	-163	-15348	5320	-2124	29	-22	-26	-1648	-2604	16780	39	-83	156	127	125	5
-8052	-4552	13204	-69	126	-211	-16448	-1328	-2108	73	-28	134	-3208	1556	16748	178	-3	31	-7584	6496	13468	151	26	-175	-15392	5280	-2132	6	-2	-53	-1652	-2604	16904	-18	-96	142	127	125	5
-8068	-4520	13136	-128	117	-158	-16384	-1304	-2176	47	-10	161	-3212	1644	16808	175	-11	52	-7572	6460	13572	129	-25	-162	-15376	5280	-2160	-12	-7	-33	-1608	-2516	16796	-3	-92	180	127	125	5
-8056	-4568	13108	-129	181	-171	-16364	-1328	-2104	51	-21	113	-3260	1616	16692	160	-19	34	-7560	6508	13496	171	-41	-140	-15420	5308	-2068	19	-2	-31	-1628	-2648	16740	-27	-73	184	127	124	5
-8044	-4512	13112	-80	150	-190	-16444	-1292	-2088	81	-42	163	-3216	1612	16776	180	4	42	-7644	6492	13416	123	-7	-184	-15372	5352	-2036	5	8	-39	-1652	-2608	16708	-32	-136	176	127	124	5
-8052	-4544	13236	-112	142	-197	-16436	-1348	-1992	70	-44	135	-3256	1540	16632	164	26	72	-7696	6424	13416	148	-31	-178	-15376	5228	-2168	-65	-19	-47	-1616	-2564	16780	-40	-117	179	127	124	5
-8072	-4516	13164	-103	133	-173	-16408	-1280	-2076	70	-43	172	-3296	1632	16700	179	-36	53	-7636	6444	13480	81	-29	-163	-15376	5288	-2320	5	48	-20	-1764	-2600	16864	-33	-99	189	127	123	5
-8064	-4500	13128	-110	134	-186	-16392	-1304	-2140	60	-51	102	-3372	1616	16764	188	17	35	-7652	6504	13524	98	2	-155	-15344	5300	-2088	40	8	-61	-1664	-2608	16732	-16	-104	219	127	124	5
-8068	-4572	13184	-84	112	-196	-16372	-1336	-2084	52	-31	139	-3300	1580	16780	164	14	49	-7604	6496	13572	82	6	-215	-15396	5284	-2120	16	25	-41	-1688	-2664	16704	-11	-72	195	127	124	5
-8052	-4452	13136	-81	102	-165	-16416	-1324	-2032	31	-30	98	-3224	1588	16700	168	-24	34	-7648	6476	13576	162	-44	-138	-15420	5232	-2188	-11	8	-45	-1624	-2684	16776	-13	-96	201	127	125	5
-8028	-4456	13112	-127	108	-205	-16408	-1332	-2112	77	-24	136	-3280	1580	16796	193	11	44	-7624	6420	13464	110	-17	-150	-15404	5264	-2180	-13	-47	-51	-1684	-2700	16772	5	-85	173	127	125	5
-8052	-4512	13096	-109	104	-193	-16356	-1272	-2192	94	-24	137	-3240	1588	16856	180	26	73	-7624	6460	13428	133	-16	-149	-15372	5332	-2264	14	3	-20	-1656	-2684	16844	7	-81	144	127	125	5
-8020	-4520	13184	-107	113	-187	-16404	-1284	-2096	105	-1	141	-3256	1632	16664	172	-15	49	-7608	6436	13452	102	18	-150	-15372	5232	-2112	17	-36	18	-1692	-2644	16668	-6	-77	170	127	124	5
-8068	-4520	13224	-93	103	-188	-16408	-1320	-2116	70	7	104	-3248	1568	16736	177	12	54	-7604	6488	13512	138	13	-159	-15372	5276	-2100	1	0	-42	-1652	-2648	16796	-20	-106	166	127	124	5
-8124	-4564	13184	-106	129	-142	-16448	-1324	-2080	57	-11	116	-3220	1616	16696	161	-41	39	-7596	6524	13528	143	4	-167	-15396	5316	-2088	-18	1	-27	-1628	-2616	16692	-23	-99	156	127	123	5
-8092	-4572	13184	-87	102	-170	-16400	-1336	-2232	54	-22	152	-3272	1592	16820	175	-11	49	-7652	6432	13496	162	-8	-147	-15328	5312	-2084	-1	13	-41	-1576	-2624	16760	26	-94	168	127	124	5
-8076	-4564	13204	-71	104	-191	-16380	-1348	-2100	64	-1	159	-3336	1604	16740	195	2	59	-7644	6424	13444	122	-2	-174	-15388	5336	-2076	4	-23	-11	-1708	-2576	16732	-15	-86	170	127	124	5
-8072	-4532	13244	-111	89	-128	-16372	-1360	-2112	58	12	117	-3312	1600	16868	192	16	67	-7596	6480	13464	159	-3	-158	-15392	5340	-2048	8	-5	-22	-1688	-2612	16772	-10	-90	181	127	125	5
-8056	-4636	13048	-52	115	-153	-16440	-1280	-2092	58	-1	131	-3324	1560	16728	250	-20	54	-7652	6436	13448	89	-33	-202	-15388	5336	-2092	6	10	-7	-1640	-2532	16848	2	-84	174	127	125	5
-8036	-4456	13120	-87	146	-189	-16396	-1312	-2120	58	-15	122	-3280	1556	16744	192	-11	32	-7628	6468	13472	109	0	-177	-15372	5332	-2212	7	8	-46	-1696	-2608	16960	-4	-111	162	127	125	5
-8096	-4532	13152	-70	136	-181	-16384	-1420	-2156	61	-37	153	-3284	1656	16596	176	30	42	-7692	6432	13332	133	1	-170	-15384	5304	-2132	-30	-6	-78	-1668	-2628	16712	-12	-102	176	127	124	5
-8096	-4548	13244	-87	121	-184	-16380	-1300	-2172	67	-41	147	-3268	1672	16776	192	11	48	-7640	6500	13484	136	-20	-156	-15364	5264	-2044	12	-32	-35	-1684	-2660	16828	4	-108	186	127	124	5
-8032	-4444	13148	-103	96	-153	-16380	-1276	-2188	67	-47	92	-3264	1696	16744	151	-9	27	-7636	6452	13388	121	-52	-156	-15344	5248	-2168	18	-34	-90	-1720	-2648	16864	12	-83	193	127	124	5
-8068	-4484	13196	-87	147	-164	-16392	-1308	-2192	64	-44	135	-3272	1668	16604	181	0	27	-7640	6416	13420	132	34	-178	-15332	5300	-2012	17	7	-54	-1684	-2680	16792	30	-73	177	127	124	5
-8024	-4476	13124	-104	126	-163	-16424	-1324	-2168	68	-50	131	-3300	1688	16748	153	-21	31	-7564	6504	13448	132	-42	-176	-15276	5312	-2068	-12	20	-87	-1616	-2600	16760	17	-92	163	127	124	5
-8044	-4512	13188	-96	139	-195	-16400	-1316	-2088	99	-38	110	-3264	1648	16712	154	25	29	-7580	6428	13460	129	-8	-138	-15348	5304	-2148	24	-8	-25	-1724	-2612	16780	16	-96	207	127	125	5
-8064	-4464	13144	-102	116	-186	-16464	-1336	-2184	71	-56	117	-3256	1592	16680	131	16	36	-7636	6472	13476	133	-24	-147	-15408	5296	-2100	-12	11	-37	-1684	-2712	16732	-4	-68	171	127	125	5
-8068	-4488	13068	-135	121	-154	-16400	-1296	-2076	64	-47	123	-3316	1588	16688	144	17	58	-7644	6428	13444	131	-24	-172	-15372	5244	-2104	-7	-22	-55	-1624	-2548	16760	8	-108	158	127	125	5
-8100	-4528	13208	-90	140	-197	-16420	-1296	-2184	78	-32	104	-3268	1576	16688	154	-10	41	-7616	6440	13516	131	2	-168	-15368	5344	-2116	-7	9	-38	-1736	-2660	16768	-5	-94	223	127	124	5
-8116	-4532	13260	-77	143	-153	-16324	-1324	-2084	58	-28	125	-3304	1580	16680	178	5	56	-7640	6476	13432	128	-25	-130	-15356	5260	-2192	8	-33	-39	-1652	-2616	16792	6	-87	173	127	124	5
-8104	-4572	13136	-89	142	-205	-16428	-1424	-2124	78	-17	119	-3332	1568	16716	226	-28	36	-7688	6436	13516	112	-8	-169	-15328	5328	-2144	7	2	-41	-1648	-2620	16656	9	-62	157	127	123	5
-8104	-4488	13168	-87	160	-178	-16408	-1348	-2108	80	-40	152	-3256	1624	16740	204	-9	42	-7636	6476	13512	127	19	-186	-15376	5256	-2056	34	-17	-57	-1728	-2696	16804	-1	-107	195	127	124	5
-8096	-4512	13116	-71	145	-167	-16416	-1324	-2168	65	-13	131	-3260	1572	16600	189	58	60	-7648	6476	13412	146	24	-191	-15356	5304	-2120	-14	-5	-29	-1648	-2624	16676	-8	-107	187	127	124	5
-8060	-4544	13140	-87	151	-207	-16388	-1292	-2176	79	-67	161	-3260	1600	16776	180	-12	24	-7632	6412	13352	85	22	-165	-15368	5272	-2004	-16	-17	-24	-1636	-2628	16684	2	-74	208	127	124	5
-8084	-4468	13228	-67	111	-181	-16392	-1360	-2088	71	3	128	-3300	1640	16808	170	1	19	-7720	6452	13432	130	22	-165	-15356	5272	-2128	-9	-2	-11	-1684	-2624	16788	4	-82	168	127	125	5
-8048	-4492	13152	-55	127	-191	-16388	-1328	-2180	62	-23	156	-3292	1620	16740	173	-1	23	-7644	6452	13460	114	6	-198	-15408	5276	-2136	-12	-21	-14	-1704	-2684	16784	19	-65	187	127	125	5
