#Activity	sitting in car 
#ActivityID	12 
#Date 09-19-15-29
acc_rf_x	acc_rf_y	acc_rf_z	gyro_rf_x	gyro_rf_y	gyro_rf_z	acc_rs_x	acc_rs_y	acc_rs_z	gyro_rs_x	gyro_rs_y	gyro_rs_z	acc_rt_x	acc_rt_y	acc_rt_z	gyro_rt_x	gyro_rt_y	gyro_rt_z	acc_lf_x	acc_lf_y	acc_lf_z	gyro_lf_x	gyro_lf_y	gyro_lf_z	acc_ls_x	acc_ls_y	acc_ls_z	gyro_ls_x	gyro_ls_y	gyro_ls_z	acc_lt_x	acc_lt_y	acc_lt_z	gyro_lt_x	gyro_lt_y	gyro_lt_z	EMG_r	EMG_l	act
-5364	-7260	13936	-25	49	-19	-12280	-6744	5296	-61	79	59	248	-3104	14952	53	88	7	-2528	7272	13872	33	62	-22	-12936	8400	6896	316	19	-55	-504	3064	15288	-201	-38	-45	123	140	12
-4956	-7680	13348	7	36	9	-11720	-7528	5368	-106	28	27	120	-3216	14920	-48	-5	0	-2640	6984	13976	15	60	-36	-11440	8488	6624	41	19	-30	96	2056	15080	-48	13	28	125	125	12
-4656	-6812	14040	62	-21	27	-11744	-7544	5448	-96	25	9	352	-3808	15840	-46	-52	5	-2792	7704	12944	-47	53	-46	-11856	7952	6232	-212	51	-4	-136	1992	15176	82	64	48	127	130	12
-5720	-6604	14084	74	-36	33	-13768	-6432	5592	-22	9	-20	248	-4048	16584	14	-25	-8	-3232	7664	12936	-53	47	-54	-13216	6672	5872	-309	96	28	-928	2232	16224	56	79	34	127	136	12
-5396	-7324	14764	27	-11	-14	-13416	-6912	5656	-109	-6	23	504	-3712	17016	52	26	1	-3264	5368	15368	-50	6	-40	-14904	5872	7016	-70	50	24	-1312	2160	16712	-22	43	0	126	140	12
-5416	-7160	13876	-10	23	-15	-13208	-8024	6528	-142	-61	-9	512	-3808	16584	73	27	14	-3264	5432	15496	-16	34	-26	-14912	6128	6848	123	-80	50	-1456	2256	17168	-41	28	-5	128	140	12
-5160	-7868	13336	-55	35	-45	-12176	-8352	6240	14	1	-39	576	-3936	16016	69	33	14	-2848	5368	14704	22	32	-19	-13632	6552	7096	234	-122	6	-688	2736	16912	-47	-43	-32	128	142	12
-5032	-8228	13000	-59	39	-50	-11800	-8352	5912	115	20	-18	1008	-3856	15792	18	30	13	-1848	5272	14392	-33	14	-27	-13456	7080	8192	123	-55	-14	472	3152	16536	10	-42	1	128	143	12
-5048	-8416	12848	-53	48	-34	-11496	-7840	5776	107	14	-41	1392	-3848	15320	-50	40	20	-3280	7152	13736	-14	31	-28	-12784	7472	7024	-2	-2	-47	1048	2848	16832	20	-24	28	127	139	12
-5476	-7484	13232	7	3	-12	-11936	-7048	5376	70	28	-59	1144	-4104	16096	-79	37	20	-2848	6808	14456	-23	25	-25	-12992	7536	7360	-44	38	0	488	2632	16768	3	10	25	128	137	12
-4388	-8796	14320	-5	-22	-26	-13208	-6984	6408	-93	4	-11	1048	-4304	16512	-43	3	28	-2600	7192	14992	-38	17	-34	-13776	7640	7816	-88	52	-6	-304	2920	17080	-19	7	18	127	137	12
-5200	-6744	13644	0	-4	2	-13400	-7816	5888	-193	-34	-30	832	-4560	16856	7	-37	34	-4032	6296	14352	-30	29	-23	-13544	7416	6304	-215	68	20	-600	3040	16624	-54	-10	26	127	136	12
-4924	-7340	14576	-7	-30	-17	-13136	-7784	5832	-138	11	-6	936	-4480	16368	36	-69	22	-3328	7048	15088	-35	-4	-20	-13864	7272	7480	30	22	-1	-1064	3136	16512	-53	-51	43	126	134	12
-5088	-6924	14908	-2	-23	-10	-13368	-8728	6584	-72	-14	15	1000	-4016	17248	61	-81	12	-3912	7280	15248	-48	11	-25	-13696	7336	6592	-10	-11	34	-1072	3064	16720	-36	-80	45	124	136	12
-5724	-7864	14608	12	-37	-21	-13728	-8712	6200	68	20	-33	608	-4104	17656	35	-63	3	-4032	6312	15136	-62	4	-36	-14400	7160	7024	108	-40	-11	-848	2928	17000	-27	-79	37	125	137	12
-5632	-8800	14420	-33	12	-50	-14008	-8280	6312	130	27	-30	456	-3624	17320	14	-17	-19	-4112	5608	15144	-33	0	-46	-14680	7128	6504	60	-14	-33	-688	2960	17736	-49	-71	21	125	137	12
-6084	-8388	15152	0	-27	-43	-13816	-7928	5736	117	29	-65	248	-3984	17752	-25	1	-26	-3480	5888	16048	-30	-29	-34	-15160	7672	7984	96	-33	-33	-368	2736	18256	-59	-48	-9	127	139	12
-5432	-8256	15300	0	-24	-44	-14416	-7920	6288	29	-39	-73	352	-4616	17584	-43	-20	-31	-2592	7256	17000	0	-36	-13	-14744	7768	8176	21	-42	-3	-320	2296	18112	-29	-27	-22	129	141	12
-5040	-8116	15340	-27	-32	-59	-14352	-8408	6936	-69	-79	-72	568	-4872	17640	-33	-35	-24	-3256	6880	15088	25	-9	-10	-14304	7248	7528	-167	-68	-2	-160	2480	17048	-2	-18	-2	130	142	12
-5764	-6064	13348	-40	3	-61	-12952	-7912	5480	-81	-76	-78	752	-4912	16208	-45	-4	-2	-3024	6568	14024	35	-23	6	-12632	6312	6712	-178	-44	2	-96	1856	15928	30	-9	35	128	141	12
-5048	-7172	13596	-44	-35	-76	-11432	-8248	5752	-106	-57	-3	1504	-4976	15336	-42	16	0	-2216	6504	14272	-18	-32	-13	-12864	6232	7696	-37	-30	-11	384	1432	16112	64	-30	64	127	136	12
-6236	-8556	12236	-44	-36	-77	-11648	-9424	5560	-29	-75	-32	1136	-4904	16192	-6	-24	20	-4160	5368	15640	-91	-34	-51	-14360	6136	6896	-76	-11	15	-488	1832	17680	63	-73	68	125	135	12
-6480	-9216	13848	10	-93	-59	-12584	-9632	5640	58	-21	-93	848	-5280	17112	35	-63	20	-3592	6152	17080	-126	-49	-58	-17112	6664	7512	100	-56	3	-1368	2448	19488	-46	-134	46	125	136	12
-6672	-9616	14896	14	-97	-47	-14840	-9784	6192	109	-28	-116	168	-5144	18192	96	-141	1	-3784	5904	16952	-31	-33	-29	-17472	7384	7672	69	-82	5	-1512	2704	19584	-124	-180	2	127	139	12
-5392	-6472	15552	12	-50	-29	-15376	-8480	6736	93	-38	-89	752	-5600	18272	92	-143	-15	-3664	4688	14224	89	15	11	-14536	6808	6984	42	-101	-7	352	2480	17440	-90	-141	-17	128	135	12
-4876	-6124	13852	-53	32	-49	-13240	-7264	6136	16	-42	37	2336	-5168	17064	48	-71	-29	-2840	6896	13776	93	11	26	-11536	6872	7696	63	-44	-13	2200	1904	16144	85	-49	6	127	130	12
-5320	-7888	12000	-54	68	-34	-12952	-7344	5856	-13	-38	55	2848	-4360	16136	10	9	-12	-3936	7304	13280	22	40	-24	-11144	7104	6952	-120	22	31	2008	2224	16024	141	57	34	124	130	12
-5648	-7940	12624	46	-22	-3	-10872	-9128	5784	-74	33	69	2128	-4096	16280	-73	79	-7	-2688	7064	14256	-48	20	-49	-13568	6688	7264	-89	62	53	432	2088	16584	149	91	30	123	136	12
-5696	-7880	13804	85	-42	14	-12728	-8568	6264	42	51	29	984	-4440	16592	-61	92	-17	-3576	5792	15504	-90	17	-71	-14664	6320	6832	-31	79	51	-1072	3112	16888	75	66	20	124	143	12
-5988	-8880	13836	93	-30	4	-13920	-8424	5808	113	79	-14	-152	-4664	17024	14	81	-14	-3872	4200	15712	-55	29	-67	-15464	6104	6704	110	24	13	-1624	3168	17328	-65	8	-7	124	145	12
-5720	-7744	14048	17	9	-20	-13384	-7176	5064	61	60	5	80	-4240	16032	43	81	-22	-2912	5056	15056	-8	36	-39	-14496	6400	6936	157	-23	-21	-888	3000	16224	-127	-28	-25	125	143	12
-4848	-8248	13008	-18	43	-34	-11872	-7352	5064	-29	22	15	608	-3672	14736	22	71	-19	-2904	5352	13256	23	35	-26	-12384	6560	6640	95	-26	-39	112	2184	15424	-85	-22	-5	125	137	12
-5056	-7796	12664	-2	25	-33	-10880	-7216	4864	-25	2	-16	736	-3672	14624	-32	46	-5	-2576	6640	14032	0	7	-27	-11832	7152	7320	54	-10	-25	536	1624	15536	20	16	24	125	132	12
-4824	-7864	12920	13	-26	-26	-11704	-7704	5288	4	-8	-42	672	-4080	15416	-27	-11	5	-3688	6048	14080	-65	5	-56	-13240	7184	6888	-145	26	9	-272	1904	16480	65	29	32	127	132	12
-5560	-7964	13384	38	-43	-19	-13288	-7680	5424	22	1	-81	392	-4312	16368	14	-39	16	-2912	4832	14384	-58	3	-46	-14536	6024	6568	-181	40	12	-992	2488	16648	22	19	15	129	137	12
-5048	-6180	13696	-3	2	-33	-13344	-7072	5984	-54	-23	-57	624	-4448	16536	61	-22	13	-3696	5368	14144	-21	17	-38	-14064	5888	6504	31	-16	-1	-832	2496	16616	-57	-28	-13	129	140	12
-5828	-8204	13716	-14	15	-39	-12800	-8248	6256	-102	-13	-20	1000	-4696	17072	99	-22	18	-3360	5832	15664	-15	16	-44	-14360	7024	7680	173	-59	16	-104	2224	17288	-81	-74	-22	128	140	12
-4828	-9612	14116	-46	11	-59	-12760	-9568	6680	-63	-7	-17	1352	-4392	17056	54	-25	22	-3328	5560	14616	-22	38	-45	-14528	6992	7376	29	-45	1	-32	2688	17376	-57	-69	-7	127	138	12
-5928	-7344	13252	-24	39	-31	-12368	-8872	5824	77	24	-49	1096	-4472	16744	-21	15	7	-3392	4912	14632	-17	40	-44	-13120	6448	6840	-1	-9	-5	672	2864	16744	-2	-13	3	127	138	12
-5020	-7684	13252	-35	42	-35	-11696	-7744	5728	104	64	3	1456	-4512	15800	-63	46	-6	-2928	6424	13760	-10	33	-43	-12408	6880	7224	97	33	-50	808	2416	16248	25	24	9	126	137	12
-5468	-8184	12664	-33	38	-35	-11592	-7688	4872	29	42	27	1200	-4128	15496	-74	54	-14	-3272	6224	14368	-53	28	-54	-13152	6784	7072	-41	69	-19	296	2288	16464	23	31	14	125	136	12
-5516	-8180	13764	26	-22	-14	-12312	-8104	5408	-50	33	-1	688	-4392	15736	-73	31	-5	-3216	6608	14864	-61	31	-54	-14496	7016	7096	-53	49	-6	-728	2512	16792	-21	17	11	125	137	12
-5508	-6984	14032	34	-24	1	-13272	-7776	5704	-64	13	-36	432	-4952	16016	-21	3	0	-3304	5408	13472	-19	36	-44	-13560	6264	6032	-66	17	5	-1304	2664	15712	-51	3	15	125	139	12
-5728	-6084	13532	20	4	-6	-12712	-7112	5208	-49	23	-11	344	-4944	15792	30	16	-7	-2800	6568	13552	-5	19	-34	-12496	6488	6224	72	-1	-12	-528	1864	15496	-62	-22	29	126	139	12
-5592	-8348	13376	-14	-4	-39	-12392	-8168	5304	-31	15	36	824	-4264	16240	49	5	-9	-2280	6992	15120	-49	-13	-38	-13736	6928	7520	78	-5	-4	-312	1688	16536	-10	-45	28	127	135	12
-5380	-8552	14148	-4	-18	-34	-12864	-8720	6008	-17	-24	-37	520	-4072	16824	22	-12	0	-3208	4504	15192	-83	-4	-60	-15000	6336	6800	-42	-26	23	-712	2360	17440	6	-41	8	126	136	12
-5760	-7652	13812	2	-3	-37	-13392	-8280	5952	74	-3	-92	440	-4104	16896	8	-10	-8	-3664	4776	15528	-50	-9	-41	-15048	5864	6912	93	-40	-7	-496	2648	17800	-40	-41	-22	127	140	12
-5396	-8500	13272	-21	17	-44	-13104	-8000	5760	59	-3	-61	736	-4240	16776	8	-1	-15	-3080	6520	15272	-4	8	-16	-14576	6776	7488	125	-36	-26	-40	2320	17296	-63	-40	-44	128	141	12
-5100	-8136	13820	-33	4	-52	-12608	-8296	6176	3	-7	-54	952	-4504	16552	-17	-6	-22	-3464	6080	14336	14	21	-22	-13680	7120	7528	-35	-49	-13	544	2304	17048	-37	-28	-38	128	138	12
-5412	-7944	13948	17	-10	-35	-12576	-8104	5784	-27	-8	-61	1472	-5016	16320	-32	-6	3	-2376	5976	14048	41	12	-24	-12904	6888	7392	-61	-14	4	736	2312	16360	8	3	-10	128	137	12
-4720	-7088	13572	-22	9	-43	-12544	-7416	6200	-92	-20	-14	1224	-5208	16584	-13	14	16	-3240	5856	13184	14	22	-40	-11984	6544	6816	-94	17	6	472	2088	15672	31	27	27	127	139	12
-5256	-7688	12944	6	7	-38	-11880	-8688	5688	-74	10	15	1112	-5080	15672	13	33	21	-3072	5808	14176	-35	13	-59	-12672	6352	6856	-36	51	-1	-72	1656	16208	41	13	53	125	137	12
-5728	-9480	13392	2	-18	-47	-11864	-9152	4984	12	18	23	848	-5160	16104	25	19	17	-2728	6360	15736	-92	-21	-69	-15288	6488	7568	47	40	10	-872	1800	17592	15	-39	53	124	136	12
-5532	-8928	14048	32	-27	-37	-13240	-9448	5512	63	1	-30	336	-5104	16680	32	-20	6	-3592	3904	16232	-76	-5	-69	-16272	5888	6848	54	-10	25	-1264	2296	17848	-26	-64	26	126	139	12
-5044	-8256	13168	22	3	-27	-13240	-8400	5288	118	6	-40	384	-5160	16224	51	-32	-21	-4080	4520	14544	14	22	-33	-14584	5864	6528	136	-35	-17	-648	2288	16952	-58	-67	3	127	139	12
-5264	-7732	13080	2	1	-36	-12112	-7816	5064	82	17	19	984	-4856	15608	55	-23	-31	-2328	6872	14832	46	9	-7	-13296	6584	7712	166	-35	-25	592	1416	16280	-17	-49	7	127	135	12
-5156	-8952	12936	4	-4	-32	-11856	-8248	5576	-37	-23	15	1168	-4424	15896	13	-14	-17	-3072	5488	13920	-2	31	-33	-13048	7032	6840	-102	-14	26	688	1544	16304	59	1	14	126	132	12
-5116	-7164	13420	36	-16	-18	-12264	-8016	5672	-36	-4	-17	952	-4832	15968	-5	11	-8	-2688	5320	13384	8	23	-25	-13248	5528	6704	-108	12	27	56	1888	16024	100	40	14	127	135	12
-5752	-7220	12676	37	-8	-9	-12224	-7632	5320	-40	-18	13	1104	-4888	16104	29	38	-8	-3432	5648	13592	8	20	-28	-13152	6360	6448	4	10	40	-264	1872	16168	53	30	6	127	138	12
-5360	-7600	12904	44	-12	-7	-12320	-8144	5864	-44	7	47	984	-4616	16312	45	57	-5	-3272	5392	14104	20	27	-29	-13392	6136	6536	25	5	51	-352	1816	15944	21	6	-4	126	140	12
-5164	-8544	13344	33	-15	-17	-12400	-8416	5720	11	23	48	1088	-4432	16096	44	38	-4	-3456	6008	15336	-12	9	-38	-14352	6352	7520	125	-19	56	-440	2472	17104	-4	-27	-11	125	140	12
-5284	-7828	13404	55	1	4	-12920	-8472	5912	44	10	6	664	-4480	16544	56	14	-2	-3672	5792	15520	4	33	-37	-14472	6648	6992	83	-36	69	-664	2680	16984	-12	-25	-27	125	142	12
-5748	-7848	13860	32	-7	-9	-13064	-8168	5808	100	39	12	584	-4392	16720	63	3	-9	-2808	5408	14808	46	41	-33	-13848	6568	7040	109	-30	29	-32	2680	16784	-9	-25	-28	126	140	12
-5288	-8348	13732	-3	16	-20	-12560	-7792	5432	72	31	32	504	-3912	16320	37	1	-10	-2800	5832	14224	16	31	-31	-13408	6904	7224	52	-7	18	240	2672	16528	13	-6	-26	126	137	12
-6112	-8180	13328	5	23	-24	-12072	-7824	5208	24	26	9	808	-3776	15832	-6	8	-6	-2800	7144	14856	-1	22	-42	-13776	7072	7384	-6	27	6	80	2656	17064	9	4	-12	126	135	12
-5616	-8196	13580	9	-6	-28	-12352	-8064	5336	-27	12	-17	800	-4560	16400	-19	-9	0	-2752	5896	15288	-1	10	-40	-14584	7120	7568	-15	17	6	-592	2496	17352	-10	-5	-5	127	137	12
-5268	-8900	14780	50	-42	-19	-13712	-8272	6232	-61	-14	-45	528	-5344	16968	17	-26	8	-3344	5720	15224	-19	32	-48	-14704	7296	7232	-55	-17	26	-1040	2368	17168	-37	-16	10	128	139	12
-5592	-8200	14144	40	-21	-16	-14000	-8200	5712	-19	-3	-39	552	-5416	17256	56	-21	16	-3080	5752	14552	30	33	-36	-13760	6520	6568	-41	0	16	-600	2136	16656	-18	-19	23	127	139	12
-4696	-7452	14064	-13	8	-51	-12736	-8056	5424	-26	1	24	1080	-4896	15792	68	10	10	-1904	7224	14968	32	1	-19	-13192	6216	7800	111	-10	0	184	1752	16048	58	-21	38	127	137	12
-5364	-8308	12744	-50	19	-50	-11928	-8880	5760	-31	-37	27	1072	-4384	16248	47	22	7	-3928	5320	15424	-61	0	-60	-13736	6736	6856	0	-28	42	-272	2160	17032	72	-28	42	126	135	12
-5768	-8472	13592	19	-44	-41	-12184	-9536	5640	75	11	-25	720	-4400	16296	2	6	-6	-2784	5672	16016	-45	-15	-42	-15528	6304	7224	83	-18	5	-760	2400	17872	63	-36	22	126	137	12
-5036	-9196	13996	3	-29	-39	-13256	-8480	6168	118	-6	-32	616	-4720	16608	6	-20	-23	-3656	5384	14592	-13	5	-31	-15056	6464	6920	9	-42	9	-728	2744	17568	4	-52	-7	127	139	12
-6160	-6452	13352	18	-20	-26	-12928	-7440	4896	119	9	-53	696	-4496	16368	15	-21	-27	-3528	5208	14368	28	-9	-4	-13608	6600	6944	44	-45	2	-88	2448	16648	-53	-46	-14	128	139	12
-5244	-7904	13780	6	-22	-39	-12536	-7192	5624	-34	-16	20	1312	-4448	16248	20	-30	-21	-2680	7184	14512	53	-4	-4	-12984	7248	7424	17	-31	-5	552	2136	16304	-16	-39	-5	127	136	12
-5436	-8568	14016	16	-35	-37	-12784	-8224	6112	-134	-53	-11	1320	-4512	17024	23	-44	-4	-3464	6280	14248	-12	3	-40	-13472	7232	7128	-121	-35	44	144	2232	16736	15	-21	7	127	136	12
-5468	-7744	13664	17	-19	-30	-13160	-8480	6016	-70	-30	-27	888	-4872	16656	16	-26	-1	-3048	5936	13480	-7	-1	-28	-13504	6296	6720	-47	3	37	-288	2328	16544	30	-12	10	127	138	12
-5868	-7412	13208	18	-9	-22	-12704	-8232	5888	27	4	29	1008	-4664	16632	31	9	-18	-3096	5200	14944	-25	4	-47	-13904	6504	7256	72	3	23	-456	2432	16496	29	-13	7	126	139	12
-5516	-8560	13308	14	0	-30	-12136	-8440	5480	48	18	25	1312	-4176	16320	14	36	-14	-3112	5992	14960	-25	15	-44	-14464	6696	7000	111	-12	15	-216	2576	17040	-1	-30	-4	125	138	12
-5504	-8420	13784	36	-5	-12	-12584	-8184	5664	74	21	-7	968	-4336	16360	10	23	-19	-3472	5736	15240	-4	23	-37	-14376	7072	7056	126	-29	19	-72	2888	17584	-9	-23	-11	126	138	12
-5536	-8976	13932	1	2	-35	-13224	-7824	5808	51	25	-19	808	-4360	16456	17	11	-14	-3184	5192	15320	-41	10	-42	-14216	7288	7648	93	-35	7	-240	3136	17376	-31	-12	-1	127	139	12
-5628	-8320	14032	-1	5	-37	-13408	-8224	5568	11	20	-28	680	-4272	16616	8	2	0	-2936	4464	15040	-37	11	-43	-14384	7176	7528	-30	17	-17	-72	2728	17184	-19	-1	0	127	138	12
-5556	-8272	14232	0	1	-29	-12744	-7888	5640	-22	6	-43	880	-4280	16208	-23	17	4	-3792	6016	14224	-11	24	-34	-13248	6672	6672	-110	40	-27	48	2400	16392	-8	10	10	127	135	12
-5328	-6464	13456	-15	15	-23	-11824	-7600	5728	-57	23	-18	1112	-4536	15672	-20	25	11	-3264	6672	14176	-5	36	-37	-12704	6288	7008	-31	20	-21	64	2200	15992	-1	18	15	127	135	12
-5664	-8624	13812	-3	-5	-41	-12024	-8048	5760	-99	6	-11	1024	-4640	16080	-7	25	22	-3312	6672	13672	-33	24	-49	-13496	6848	6696	-26	23	-1	-496	2056	16384	-13	2	27	127	138	12
-6152	-7768	13908	19	-14	-30	-13112	-8312	5448	-33	10	-33	424	-4784	16616	12	5	22	-3032	5088	15024	-37	-11	-49	-14200	6328	7016	38	24	16	-960	2248	16736	-4	-15	31	126	138	12
-5528	-8480	14144	26	-17	-24	-13728	-8624	5944	23	5	-25	264	-4792	16960	45	-9	0	-3904	5136	15576	-70	3	-62	-14736	7032	7032	74	-9	9	-1224	2288	17160	-10	-46	21	126	139	12
-5844	-8676	14320	0	-10	-42	-13608	-8792	5864	80	15	-30	384	-4552	17048	51	-30	-10	-3200	4880	15912	-51	-6	-45	-15296	6264	7544	85	-22	-12	-464	2424	17784	-29	-66	-2	127	138	12
-5612	-8336	13600	-43	24	-48	-12984	-8296	5832	46	-18	-29	752	-4480	16528	20	-22	-23	-3792	4080	15064	0	13	-39	-14392	6384	6832	38	-39	-13	-32	2424	17360	-46	-52	-26	127	140	12
-5420	-7196	13700	-47	12	-55	-11928	-8208	5400	6	6	-34	1160	-4688	15872	-17	-8	-25	-2512	5520	15064	-12	-7	-25	-13968	6736	7960	73	-49	-30	456	2136	16984	-27	-33	-14	127	138	12
-5676	-8972	13424	-5	-17	-41	-12448	-8744	5536	-26	-32	-38	1072	-4808	16336	-49	-4	-11	-2752	6800	14280	-9	8	-27	-13480	7288	7408	-102	-15	8	240	1976	16904	3	-11	1	127	137	12
-5424	-7780	13856	-2	-28	-44	-12728	-8200	5416	6	4	-45	976	-5128	16592	-38	-5	-10	-2736	5984	14672	-28	-15	-29	-14096	6592	7416	-75	0	-2	-128	1968	17216	22	-16	19	127	137	12
-5280	-8944	13832	31	-24	-30	-13464	-8232	5784	-51	-34	-38	864	-5416	16840	9	-14	-2	-3256	4624	15216	-36	-16	-45	-14056	6648	7376	-47	10	13	-200	1936	16952	16	-26	21	127	138	12
-4968	-8336	13536	16	-16	-28	-13064	-8568	5968	-44	-18	-17	1024	-5280	16496	55	-17	-1	-3752	5216	14688	-4	10	-35	-14128	6304	6432	-6	-6	3	-360	1888	16616	-14	-39	21	127	139	12
-5616	-7124	13548	-7	-9	-44	-12360	-8600	5536	-4	0	12	720	-4896	16024	44	-1	-5	-3024	5136	14720	-4	13	-37	-13624	6136	6848	73	-20	13	-128	1800	16424	13	-41	23	125	138	12
-5840	-8960	14024	7	-31	-51	-11984	-8888	5680	21	0	16	1080	-4584	16504	24	-1	-6	-2864	6416	14624	-16	-3	-39	-14336	7024	7400	113	-50	19	-208	1832	17032	35	-49	21	125	135	12
-6524	-8416	13708	37	-39	-36	-13168	-8760	5512	123	0	-32	368	-4520	17056	22	-28	-16	-3296	4336	15728	-51	-11	-45	-14632	6528	7384	22	-28	42	-536	2504	17536	32	-36	10	126	136	12
-5388	-8440	14004	11	-25	-46	-13448	-8152	6064	80	-1	-26	600	-4304	17080	13	-34	-26	-3344	4952	14920	-10	9	-33	-14712	6336	7256	-6	-26	-9	-192	2552	17560	-13	-39	-20	127	139	12
-5532	-7560	13540	-8	4	-45	-12688	-7872	5528	-6	-12	-25	952	-4552	16024	8	-10	-32	-3504	3904	13288	26	17	-26	-13648	6288	6864	-23	-24	-9	336	2184	16624	-49	-28	-38	127	139	12
-5680	-8020	12956	-6	6	-40	-11568	-7568	5048	-60	-9	1	1344	-4712	15520	-13	4	-21	-2608	5608	14216	20	-5	-25	-13048	6656	7424	53	-11	10	512	1816	16464	-10	-17	-14	127	139	12
-4896	-7920	13544	12	-19	-34	-11944	-8472	5960	-85	-29	-5	1312	-4872	16200	-9	3	5	-3048	5688	14672	-18	-3	-40	-13568	7048	7200	-15	-14	33	200	1896	16728	28	-4	14	127	137	12
-5896	-7288	13460	42	-33	-11	-13152	-8720	5912	0	-6	-42	888	-5144	17080	19	4	19	-3408	5184	14264	-17	14	-43	-13872	6400	6624	-76	5	42	-480	2224	16584	30	-1	18	127	139	12
-5324	-6704	13768	31	-11	-22	-13304	-7816	5824	37	18	3	544	-4944	16488	49	24	5	-3288	5192	14632	-8	21	-42	-13472	5880	6504	47	13	16	-472	2232	16328	30	-8	25	126	139	12
-5248	-9276	13392	0	1	-47	-12280	-8480	5552	19	14	47	848	-4664	15872	71	16	-5	-2904	4992	14696	-11	16	-53	-13976	6440	7296	89	-4	4	-80	2032	16688	27	-28	11	125	136	12
-5616	-8700	13260	8	-9	-37	-12136	-8584	5112	42	6	3	920	-4416	15832	38	0	-9	-3088	4904	14744	-34	15	-48	-14448	6440	6984	69	-13	32	-272	2200	17120	2	-35	4	125	136	12
-5492	-8340	13340	17	-10	-33	-12056	-8784	5336	51	5	2	768	-4616	16096	22	-15	-16	-2992	4824	15576	-21	-7	-36	-14720	6488	7496	102	-28	17	-360	2624	17304	-12	-37	-5	125	138	12
-5144	-8896	13444	23	-8	-31	-12880	-8416	5824	48	6	-23	680	-4576	16560	15	-15	-18	-3304	5352	15184	-6	12	-33	-14368	6848	7088	36	-23	0	-112	2456	17296	-21	-29	-10	127	139	12
-5624	-7472	13388	12	-4	-23	-12976	-7856	5472	7	-3	-34	672	-4680	16240	2	5	-18	-3240	5808	13944	24	29	-22	-13256	6512	6400	-100	-4	2	40	1936	16368	-16	-4	-6	127	137	12
-5156	-7156	13904	1	-4	-35	-12424	-7640	5728	-44	11	6	1224	-4808	16048	8	16	-9	-2672	4944	13936	17	17	-33	-13096	6216	7240	2	-2	-3	344	1856	15936	17	3	1	127	137	12
-5500	-7124	13648	-3	-3	-33	-12280	-8384	5664	-108	-26	8	1264	-4928	16200	26	18	0	-2520	6520	14768	-38	12	-37	-13736	6624	7408	-12	-1	33	-168	2216	16512	33	7	12	127	137	12
-5996	-7800	13540	35	-9	-14	-12496	-9040	5656	-45	-3	-15	760	-4848	16440	24	25	-2	-3480	5928	14008	-12	32	-44	-14040	6552	6408	-30	10	30	-656	2112	16960	22	0	8	126	140	12
-5936	-6956	13892	15	-16	-33	-12712	-8480	5632	70	41	12	832	-4752	16864	27	31	-12	-2688	5920	15064	-20	9	-41	-14328	6368	7416	106	-14	17	-632	2184	17136	22	-27	13	126	140	12
-5484	-8752	14048	38	-15	-19	-13168	-8784	5704	71	6	6	608	-4512	16728	39	9	-11	-3008	5856	15712	-37	11	-56	-14720	6784	7208	85	-30	26	-360	2640	17536	-5	-50	-2	126	138	12
-5692	-8568	13632	17	-8	-28	-13408	-8552	5288	92	22	-22	408	-4304	16720	30	-25	-20	-3328	5680	15464	4	22	-38	-14864	6488	7304	38	-12	-3	-376	2504	17472	-37	-49	-15	127	137	12
-5108	-7692	13956	-31	0	-45	-12888	-7608	5640	27	7	-19	776	-4416	16632	15	-23	-24	-3328	5256	15000	14	12	-33	-14200	6640	7280	25	-26	-4	0	2456	17304	-43	-42	-21	127	138	12
-5088	-8772	13092	-19	7	-44	-12856	-7784	5712	22	1	-18	976	-4640	15912	-4	-13	-13	-2776	5576	14352	-4	11	-31	-13696	6696	7144	-33	-11	-9	88	2016	16568	-21	-19	-5	127	138	12
-5440	-7728	13172	-3	-4	-29	-12144	-8192	5320	-29	-1	-19	968	-4920	16136	-22	1	-3	-3168	6656	14456	-19	19	-30	-13328	6560	6960	-42	8	-5	-64	1784	16680	14	-8	7	127	137	12
-6120	-8264	14092	17	-40	-39	-12808	-8568	5552	-28	6	-25	800	-5096	16784	7	-2	7	-2472	6960	14632	-34	12	-37	-14232	6960	7328	-57	-1	26	-664	1928	17280	24	-17	19	127	137	12
-5784	-7628	14252	27	-22	-28	-13736	-8512	6064	-21	-5	-30	680	-5224	16760	39	-1	11	-3552	4760	14720	-22	-2	-47	-14528	6184	6552	-17	6	21	-856	2216	16992	12	-30	25	127	139	12
-5760	-6976	13144	14	7	-25	-13008	-8280	5432	17	3	1	792	-4960	16552	58	13	-2	-3448	5608	14088	5	6	-31	-13648	6160	6256	70	-4	12	-408	2016	16120	5	-28	17	126	139	12
-5048	-7456	13476	19	1	-34	-11960	-8064	5128	18	12	35	904	-4592	15632	41	25	-10	-2704	6728	14776	5	6	-37	-13336	6512	6960	161	-25	9	104	1920	16424	39	-27	17	125	136	12
-6120	-9996	12784	2	-7	-43	-11928	-8864	5048	50	10	9	736	-4152	16240	23	8	-13	-2688	6352	15656	-56	-14	-45	-14736	6808	7240	62	-27	28	-432	2296	17384	29	-38	7	126	135	12
-5372	-8144	13716	51	-26	-17	-13272	-8528	5592	71	3	-49	224	-4472	16496	-11	-16	-22	-3472	5448	14880	-15	-2	-41	-14920	6448	6600	-10	-18	18	-848	2600	17056	-3	-20	-12	127	139	12
-5592	-7508	13368	-2	-16	-35	-13304	-7552	5336	86	16	-26	400	-4448	16360	11	-15	-39	-4176	4648	14696	10	18	-36	-13792	6240	6552	-9	-28	-8	-464	2576	16656	-45	-19	-22	128	138	12
-5512	-7664	13092	-1	8	-40	-12480	-7472	4968	-48	6	-7	800	-4352	15912	10	2	-21	-3152	5776	14256	24	10	-32	-13240	6448	6760	9	-9	-17	64	1848	16256	-35	-23	-19	127	139	12
-5028	-8220	13612	14	-7	-33	-12432	-8336	5320	-99	-9	-8	1032	-4720	16080	2	3	-5	-2808	6184	14632	-3	15	-38	-13792	6944	7128	-16	-18	12	168	1792	16848	3	-7	-3	127	136	12
-5208	-8128	13752	11	-6	-30	-12896	-8440	6104	-46	-15	-34	816	-4880	16432	13	4	5	-2744	5728	13752	-8	27	-40	-13824	6640	6528	-72	-9	34	-600	2272	16600	29	3	12	127	139	12
-6216	-7212	13844	20	-5	-30	-13008	-8272	5408	7	14	-19	888	-5032	16544	33	30	4	-3216	5112	13456	-9	15	-42	-13664	6336	6896	67	3	9	-544	2312	16224	19	-3	15	126	139	12
-5904	-7140	12916	17	17	-23	-12680	-8032	5264	39	9	22	584	-4616	16096	40	44	-3	-2984	6592	14240	3	6	-38	-13056	6464	6800	92	18	18	-408	2040	16168	30	-3	10	124	139	12
-5832	-8588	13216	8	6	-36	-12416	-8504	5248	54	32	30	536	-4368	16168	35	22	-11	-3208	5312	15200	-35	27	-67	-14296	6504	6840	77	-2	9	-432	2384	17184	21	-27	12	125	136	12
-5968	-9104	13736	27	-15	-33	-12744	-8760	5264	39	19	-12	248	-4312	16384	9	-6	-12	-3856	5152	15616	-65	12	-70	-15584	6640	6856	48	-5	14	-960	2560	17744	-31	-40	-9	126	138	12
-5960	-8404	13808	36	-5	-22	-13448	-8272	4792	58	23	-46	152	-4800	16352	14	-23	-20	-3096	4760	15040	-10	19	-39	-14944	6408	6856	34	-3	-14	-1104	2464	17920	-38	-47	-4	127	140	12
-5908	-7900	13380	-16	20	-35	-12768	-7368	5208	21	14	-21	408	-4624	16320	7	-2	-16	-3856	5592	13760	15	39	-36	-13496	6656	6072	-14	-5	-25	-256	1760	16304	-62	-25	-20	127	139	12
-6328	-7800	13516	8	-5	-36	-12400	-8088	4808	-32	26	-13	648	-4840	15984	-13	6	1	-2472	6840	14904	7	2	-32	-13680	6704	7400	6	9	-1	-64	1472	16784	-17	-6	3	127	135	12
-5232	-7964	13996	-9	-3	-35	-13080	-8448	5664	-83	-16	-20	776	-5112	16400	-2	-5	13	-3144	5832	14288	-18	12	-39	-14184	7024	6400	-80	7	22	-520	1560	16624	41	3	14	127	136	12
-6176	-7432	13288	16	-2	-22	-13320	-8344	5416	-37	-14	-41	344	-5232	16440	33	6	17	-3592	6008	14240	-15	20	-31	-14000	6152	6208	-41	11	25	-1064	2072	16472	34	-1	23	127	138	12
-6264	-6988	12856	21	6	-13	-12760	-8040	5248	9	7	13	440	-4896	16264	55	28	4	-3608	6144	14112	13	30	-32	-13720	6384	5888	63	6	10	-880	1888	16064	21	-12	21	125	139	12
-5468	-7992	13104	13	1	-30	-12296	-8296	4976	47	36	44	568	-4472	15608	41	35	-7	-3136	5960	14184	-11	18	-37	-13392	6048	6528	101	-5	14	-528	2008	16104	38	-14	17	124	136	12
-6512	-8284	13556	21	-13	-26	-12304	-8288	5104	59	16	10	448	-4344	16200	27	16	-13	-3776	4928	14728	-38	13	-52	-14296	6936	6864	78	-23	32	-760	2328	17080	26	-23	4	125	136	12
-6156	-7932	13688	37	-20	-19	-13104	-8056	5120	70	30	-18	48	-4136	16416	14	-1	-28	-3136	5304	15168	-27	1	-35	-14840	6768	7208	58	-15	16	-1056	2512	16944	-10	-26	-12	127	138	12
-6204	-6800	13956	7	-13	-32	-13384	-7656	5560	22	1	-17	40	-4016	16480	7	-7	-29	-3768	6456	14416	14	15	-26	-14080	6936	6176	-5	-17	2	-808	2448	16896	-42	-27	-23	127	139	12
-6112	-8008	13404	1	3	-30	-13176	-7384	5016	-2	13	-12	496	-4352	16624	2	-6	-17	-3552	5456	15048	6	6	-30	-14056	6856	7096	25	-7	-2	-504	2384	17016	-55	-31	-27	126	138	12
-5312	-7476	13592	6	13	-20	-12816	-7728	5824	-105	-20	-12	672	-4464	16216	-13	-1	-8	-4296	4968	14552	-10	32	-36	-13416	7080	6568	-48	-8	6	-256	2264	16456	-24	-8	-16	126	138	12
-5732	-6752	13452	-2	12	-17	-12712	-8152	5368	-58	9	-24	608	-4600	16320	-3	14	4	-3744	4856	14048	1	31	-38	-13352	6520	6440	-40	2	0	-368	2264	16608	7	6	4	126	138	12
-5988	-6976	13704	11	-10	-21	-12864	-7864	5536	-27	7	-16	424	-4848	16488	12	27	10	-3376	7072	13752	-15	19	-32	-13480	6944	6520	23	9	11	-728	2232	16320	24	11	20	126	138	12
-6544	-7916	13516	-11	1	-34	-13024	-8048	4840	38	33	1	408	-4672	16320	13	29	12	-3288	6016	14864	-42	11	-58	-14008	6568	6432	29	23	6	-984	2432	17008	15	-5	29	126	137	12
-5980	-7664	13804	-14	10	-43	-13160	-8352	5400	40	24	-15	168	-4456	16672	23	24	13	-3328	4960	15216	-48	7	-63	-14984	6616	6592	57	11	-16	-1048	2360	17304	-14	-35	21	125	138	12
-6240	-7916	13860	7	1	-26	-13296	-8416	5288	44	15	-45	-72	-4704	16568	17	-9	4	-3224	5920	15240	-66	7	-47	-15192	7072	6976	68	-8	-7	-1216	2504	17592	-49	-50	5	127	138	12
-6056	-7992	14140	-31	10	-44	-13344	-8120	5384	22	3	-40	248	-4544	16448	13	-20	-1	-3592	5856	15048	-19	15	-33	-14584	6736	6336	25	-15	-24	-712	2112	17264	-53	-46	-1	127	138	12
-6292	-8012	13400	-19	6	-42	-13040	-8208	4944	-4	2	-50	-8	-4584	16656	10	-21	-1	-3200	4824	14416	-10	9	-30	-13928	6528	6672	-16	-7	-22	-528	1920	16464	-29	-23	4	127	137	12
-5448	-7248	13332	-31	15	-41	-12600	-7800	4880	-56	-7	-25	688	-4832	16016	-25	-1	2	-3160	5688	14256	-16	8	-27	-13536	6496	7056	-24	0	-26	-128	1864	16040	19	3	14	127	136	12
-5968	-7800	12760	-17	10	-29	-12240	-8160	5200	-77	-19	-27	744	-4872	15904	-13	25	2	-4032	6736	14640	-55	-4	-36	-13664	6504	6416	-53	6	2	-576	1792	16736	22	-1	17	127	136	12
-6100	-8544	13568	25	-27	-24	-12824	-8936	5632	-46	1	-36	504	-5104	16728	-1	16	6	-3144	6464	15168	-43	0	-37	-15104	6784	6656	-21	4	15	-1376	1896	17288	0	-20	16	126	139	12
-5864	-7632	14660	32	-41	-18	-13784	-8448	5896	13	-3	-33	128	-5184	16976	19	-7	-2	-3416	6440	14128	-2	21	-26	-14192	6432	6256	-18	-24	20	-1264	2080	16488	-7	-27	8	127	139	12
-6008	-7396	12980	0	15	-33	-13016	-7576	5288	49	10	-1	312	-4728	16216	44	9	-11	-4080	4608	12984	34	27	-31	-12808	5904	5552	51	-25	15	-368	2184	15600	1	-24	15	126	137	12
-5928	-7676	12024	-16	27	-33	-11616	-7432	4416	31	32	62	576	-3936	15344	25	37	-19	-3240	6896	14224	10	10	-31	-12632	6368	6664	157	-2	-12	32	1800	15632	37	-16	15	125	135	12
-5372	-9004	13092	-10	-18	-41	-11704	-8664	5360	11	14	33	656	-3856	15848	-10	17	-24	-3264	5936	15160	-81	-3	-61	-14672	7032	7216	42	-20	19	-600	2296	17208	24	-19	-2	126	136	12
-6676	-8420	13044	35	-15	-14	-13432	-8448	5216	76	6	-68	-80	-4192	16800	-36	-18	-29	-4448	5776	15936	-52	-3	-55	-15296	6520	6056	-43	1	22	-1544	2840	17944	-45	-28	-27	127	141	12
-5876	-7932	14016	-4	-19	-31	-13968	-7920	5608	51	35	-58	-192	-4600	17080	-4	-23	-26	-3760	4720	15632	-23	14	-41	-15584	6600	6912	40	-31	-37	-1232	2368	17936	-130	-50	-37	128	141	12
-5960	-6856	14056	-19	15	-33	-13832	-7704	5400	-51	3	-48	320	-4936	16608	0	-9	-11	-3560	5408	14080	34	33	-20	-13768	6960	6920	-37	-23	-31	8	1952	16632	-111	-32	-38	127	140	12
-5772	-7192	12980	-48	45	-35	-12520	-7656	5016	-82	-6	-23	1032	-4992	15952	-9	8	2	-3760	6168	13432	17	47	-32	-12088	6304	6208	-57	8	-29	344	1480	15752	-10	2	10	127	136	12
-6120	-7440	12860	-29	16	-40	-11608	-8248	5072	-88	14	-6	976	-4992	15760	-19	32	27	-2824	6608	14408	-20	22	-44	-12824	6616	6944	24	33	-19	80	1320	15984	75	28	42	126	134	12
-5628	-8472	13868	-12	-23	-32	-12632	-9080	5832	-40	3	-36	440	-5160	16656	-1	31	34	-3744	5840	14592	-74	21	-81	-14512	7056	6448	-80	24	21	-1056	1824	16888	54	22	35	126	138	12
-6480	-7424	12972	12	-9	-19	-13984	-8576	4800	107	44	-59	-432	-5296	16760	10	27	22	-4240	5184	15216	-49	3	-61	-14920	5192	5752	0	52	5	-1992	2344	16848	-20	-3	36	126	140	12
-5952	-9220	13660	-10	-4	-44	-13328	-8424	5136	72	44	-4	-72	-5088	16280	28	12	-4	-3304	5400	15656	-28	8	-52	-15416	6184	6944	181	-11	-36	-1264	1416	17056	-70	-57	7	126	139	12
-5604	-8876	13240	12	14	-29	-12904	-8400	5000	13	-4	-25	216	-5160	16152	30	-19	-5	-3376	4856	14672	-2	25	-46	-14216	6408	6288	27	-32	4	-680	1664	16632	-37	-57	-10	127	137	12
-5548	-8204	12948	-9	19	-44	-12000	-8120	4992	15	8	-15	520	-4840	15568	17	-21	-12	-3080	5488	14208	13	9	-35	-13504	6080	6352	58	-30	-5	0	1224	16920	-1	-32	-5	127	135	12
-6596	-8384	13176	1	-18	-45	-12104	-8864	4664	-17	-6	-6	304	-4744	16424	0	-11	-15	-3784	5352	15736	-49	-28	-51	-14888	7120	6936	10	-14	23	-632	1352	17680	-3	-24	-10	127	138	12
-6080	-9400	14552	36	-49	-33	-13856	-9576	5368	-14	-2	-48	96	-5296	17464	-26	-19	-10	-3480	4880	16456	-50	-23	-41	-16424	6616	7176	-94	3	20	-1304	1448	18376	-5	-34	-20	127	139	12
-5764	-7916	14580	35	-24	-30	-14632	-8544	5632	5	-26	-72	-24	-5856	17400	12	-26	-15	-3800	4960	14496	12	12	-14	-15120	6280	6128	-80	-39	25	-1080	1696	17392	-24	-36	-30	128	138	12
-5836	-6400	13124	-8	28	-33	-13136	-7424	5104	-20	-16	-8	752	-5336	16128	59	3	-12	-3664	5608	13880	77	13	6	-13088	5904	6048	84	-57	21	0	1552	15760	-5	-27	-11	127	139	12
-5648	-7472	12392	-37	30	-52	-11216	-8240	5104	-62	-9	65	1160	-4808	15232	41	34	1	-3136	5752	13040	36	16	-16	-12288	6360	6280	85	-23	21	384	1840	15472	51	-4	13	125	136	12
-6368	-7660	12136	34	3	-19	-11192	-8896	4712	-10	-4	35	984	-4608	15392	-8	43	5	-3344	5824	14328	-19	-2	-42	-12256	6464	6120	57	-18	17	432	1776	15296	69	2	21	125	132	12
-5896	-8564	13380	72	-61	-15	-12648	-8840	5192	103	36	-2	-56	-4616	16432	1	24	-8	-3800	6200	15728	-72	-7	-63	-14840	7016	6832	72	-7	55	-1312	2280	17288	76	-5	22	126	136	12
-6364	-9200	14340	64	-69	-19	-14656	-8600	5344	135	25	-45	-648	-4688	17784	39	-14	-30	-3480	5392	15720	-68	-6	-61	-16368	6824	6456	-24	-9	40	-1896	2720	18232	-27	-47	-19	126	140	12
-6008	-7352	14552	28	-11	-33	-14960	-7576	5376	54	0	-40	-496	-4872	17208	60	-43	-38	-4264	4176	14848	24	21	-36	-15416	5936	6280	25	-40	-13	-1248	2760	17320	-97	-66	-41	128	140	12
-6256	-7468	12812	-35	42	-52	-12704	-7424	4848	-42	-11	10	608	-4312	15776	50	-33	-31	-3176	4880	13504	60	29	-11	-13176	6232	6808	63	-37	-30	256	1912	15904	-81	-56	-29	127	138	12
-5552	-7600	12512	-76	45	-69	-10560	-7656	4632	-108	-9	34	1112	-4168	14640	-24	15	-14	-2656	5600	13984	-4	1	-33	-12328	6464	7304	21	-17	-28	720	1704	16016	23	-6	14	126	135	12
-6320	-9084	11892	1	0	-29	-11032	-9168	4528	-48	-8	-28	864	-4552	15776	-65	29	10	-4856	6272	14992	-79	-5	-61	-14064	7240	6728	-77	20	15	-480	1592	17280	50	20	22	127	133	12
-5932	-8228	14456	81	-79	-3	-13512	-8880	5152	76	34	-95	-40	-5384	16896	-36	21	16	-3704	6136	15264	-78	-7	-58	-15432	6720	6848	-78	31	10	-1720	1880	17520	36	16	19	128	139	12
-6084	-7648	14564	82	-73	-1	-15240	-7840	5792	79	14	-62	-360	-5768	17520	59	0	4	-4152	5688	14864	-25	20	-51	-15336	6336	6184	-42	1	2	-1608	2408	17696	-46	-28	5	127	139	12
-6284	-7104	13460	-13	26	-30	-14296	-7808	4824	-32	5	-14	248	-5000	17120	91	-2	12	-3896	4976	15504	-15	11	-40	-14616	6096	6904	120	-19	-5	-688	2104	16888	-63	-53	4	126	139	12
-5628	-9084	13604	-38	38	-53	-12408	-8888	5712	-121	-12	32	936	-4696	16048	46	5	7	-3568	6120	14552	9	32	-33	-13952	6896	6840	113	-29	-24	48	1632	16792	-7	-41	7	125	136	12
-6656	-8220	12920	-33	26	-47	-11752	-9392	4960	1	5	-14	784	-4720	16448	-6	9	3	-4224	5472	15848	-55	-14	-49	-13912	6816	7264	59	-19	21	-360	2144	17128	38	-22	18	126	133	12
-5884	-9216	13612	40	-18	-21	-13120	-9584	5728	96	28	-41	296	-4808	16904	-49	11	-10	-4008	4688	15864	-51	-3	-56	-15168	6776	7040	-25	4	1	-1056	2088	17504	30	2	-2	126	137	12
-5924	-8148	13496	10	-20	-34	-13944	-8168	4888	134	48	-58	-8	-5072	16888	-47	6	-38	-4048	4840	15128	-27	4	-47	-14904	6032	6744	-75	14	-27	-1032	2472	17296	-28	-10	-23	127	138	12
-5756	-7608	13820	-4	-1	-44	-13104	-7416	4832	-15	8	-28	208	-4920	15992	-15	12	-46	-3344	4808	14912	-12	-2	-39	-13744	6288	6456	20	-31	-27	-584	1784	16344	-67	-27	-32	127	139	12
-5616	-7788	13680	-7	-2	-42	-12336	-7840	5000	-108	-24	-8	832	-4936	15808	-1	-1	-34	-2688	5688	14752	-8	-12	-34	-13528	6448	6864	30	-34	-19	-464	1792	16000	-65	-25	-27	127	139	12
-5752	-8744	13896	-8	-27	-58	-12384	-9216	5584	-87	-31	-45	440	-5056	16488	-2	-11	-11	-3152	5704	15224	-44	-17	-47	-14496	6712	7240	-11	-41	0	-552	1672	17032	-3	-37	6	127	140	12
-5712	-7960	14216	9	-28	-49	-13368	-9112	5400	10	-23	-85	504	-5232	16848	-13	-7	-4	-3312	5464	14904	-50	-17	-47	-14560	6832	7072	-20	-40	2	-544	1992	17192	-2	-35	11	127	140	12
-6360	-7544	12756	-13	8	-50	-13400	-8752	5320	74	-1	-64	336	-5240	16624	5	3	-13	-4064	4040	14728	-37	-1	-51	-13912	5872	6152	-14	-10	-22	-472	1560	16552	-10	-32	16	127	139	12
-5636	-8360	12908	-69	18	-91	-12112	-8424	4824	32	25	-11	960	-4760	15456	-4	7	-23	-3256	4936	15200	-43	-7	-47	-14672	5728	7144	115	-21	-65	-112	1624	17056	-17	-56	6	126	135	12
-6212	-8716	13080	-28	5	-61	-11712	-8920	5288	-35	-25	-47	1000	-5120	15864	-13	-23	-18	-3736	4728	15368	-60	-9	-59	-14520	6536	7112	-4	-32	-9	-128	1776	17384	-26	-53	-4	126	136	12
-5972	-8876	13376	14	-25	-49	-12576	-9112	5352	38	11	-92	792	-5608	16544	-9	-41	-5	-3336	4808	16136	-46	-16	-54	-14856	6160	7392	38	-29	-29	-464	1848	17696	-42	-53	-2	127	139	12
-5460	-9328	13544	-24	-8	-62	-13208	-8984	5504	22	8	-75	688	-5608	16888	-3	-32	-4	-3744	5360	15224	-19	1	-49	-14448	6272	6960	-51	-18	-38	-120	1616	17384	-54	-54	-4	127	139	12
-5404	-7684	13064	-12	11	-52	-12960	-8616	5360	-32	5	-75	848	-5632	16320	-24	-2	-1	-3512	4408	14512	-14	3	-48	-13376	5592	6640	-74	0	-35	144	1296	16240	-33	-27	-6	127	136	12
-5216	-7476	12612	-42	30	-58	-11984	-8424	5240	-53	18	-5	1248	-5624	15392	-19	27	-16	-2872	5832	14464	-4	11	-48	-12992	5664	6816	29	4	-39	528	984	15992	16	-8	8	126	134	12
-5576	-8760	12656	-24	13	-55	-11560	-9184	5384	-68	4	-1	1232	-5440	15928	-10	31	-18	-3696	5240	14936	-52	11	-72	-13856	5944	6640	26	-12	-10	-192	1280	17000	23	-3	5	126	136	12
-5776	-9172	13228	32	-15	-40	-12304	-9504	5368	22	28	-38	848	-5472	15808	-13	23	-21	-3168	5256	14784	-35	8	-65	-14736	5840	6640	44	-10	6	-632	1376	17000	8	-5	-5	126	139	12
-5764	-8916	13324	35	-6	-39	-13112	-8816	5272	110	43	-32	288	-5640	16208	4	25	-40	-3328	3400	14432	-17	22	-74	-13976	5512	6632	50	-24	1	-720	1792	16464	-11	-10	-19	126	139	12
-5376	-7612	12668	8	19	-47	-12344	-8240	4768	82	41	-5	424	-5240	15736	18	31	-48	-3280	4800	14624	14	8	-58	-13448	5320	6560	90	-10	-35	128	1488	16488	-22	-23	-17	126	137	12
-5380	-8612	13048	14	7	-50	-11736	-8584	4920	-6	16	0	784	-5208	15776	4	28	-46	-2576	5744	15128	-40	-1	-62	-14272	6120	7424	65	-15	-18	88	1248	17112	-35	-29	-28	126	136	12
-5868	-9872	13100	0	5	-61	-12344	-9120	5176	-9	1	-41	688	-5016	15544	-4	22	-46	-2744	4760	15184	-27	3	-66	-15136	5744	7448	-24	-10	-5	-208	1408	17504	-41	-30	-32	128	139	12
-5536	-8824	13060	3	21	-45	-12424	-8968	5200	7	13	-72	560	-5568	15808	-15	1	-34	-3224	4680	15256	-20	-7	-56	-14712	5384	7200	20	-26	-23	-256	1288	17304	-63	-22	-31	128	141	12
-5460	-8380	12576	-9	26	-49	-12032	-8792	4920	-10	8	-52	1056	-5488	15840	-24	24	-19	-3480	4912	14792	4	-2	-47	-13952	5672	7104	49	-24	-34	472	944	16872	-57	-22	-30	127	140	12
-5176	-8556	12224	-20	26	-51	-11976	-8712	5200	-23	13	-43	1224	-5880	15600	-24	26	-14	-3080	5592	14200	10	10	-44	-13216	5560	7072	9	-6	-14	336	992	15968	8	-6	-15	127	137	12
-4968	-8276	12916	7	8	-46	-11704	-8816	5520	-28	9	-19	1088	-5968	15504	2	18	-10	-2968	5280	14280	-3	30	-57	-13088	5680	6440	29	-6	-4	408	1120	16128	48	5	6	126	135	12
-5436	-9256	12868	26	-2	-44	-11872	-9232	5376	9	16	-16	1072	-5792	15928	37	18	-4	-2792	4128	14248	-22	29	-80	-13672	5656	6656	1	11	9	-144	1208	16248	55	1	12	126	137	12
-5584	-8312	12916	6	11	-48	-12072	-9192	5288	15	20	-16	736	-5552	15776	41	29	-5	-3192	4368	14536	-29	26	-75	-14144	5296	6760	22	25	-8	-384	1304	16528	19	-9	11	126	137	12
-5432	-7764	12540	17	26	-41	-11936	-8960	4936	50	35	6	648	-5512	15352	31	36	-22	-3512	3752	14520	-15	25	-69	-13808	5040	6688	72	9	-8	-336	1240	16200	-9	-18	-6	125	137	12
-5492	-8904	12464	-12	21	-54	-11480	-8720	4696	60	46	15	656	-5264	15416	17	25	-38	-2792	5376	15528	-24	-2	-63	-14504	5680	7112	154	-15	-11	-152	1160	17000	-34	-50	-19	126	135	12
-5576	-8844	12684	28	11	-32	-12216	-9096	4960	25	7	-20	552	-5368	15896	8	-6	-40	-3432	3968	15496	-14	8	-66	-14624	5840	7128	52	-27	14	-224	1360	17224	-32	-33	-42	127	138	12
-5196	-8852	13192	38	-3	-31	-12712	-8728	5000	32	28	-32	584	-5600	16448	26	-11	-41	-3232	4776	15616	0	16	-58	-14360	5856	7096	51	-33	1	48	1240	17072	-22	-20	-48	128	138	12
-5844	-9008	13528	14	4	-47	-12864	-9056	5664	-12	13	-25	832	-5512	16856	32	-5	-30	-3512	4984	15464	5	13	-55	-14488	6168	7176	-8	-19	8	160	1112	17496	-29	-9	-44	127	139	12
-5712	-8308	13476	14	24	-45	-12736	-8936	5456	-33	14	-25	1064	-5696	16392	3	23	-23	-2624	5080	14880	8	9	-49	-14032	5640	7400	-15	-6	0	232	1216	16944	9	7	-33	127	137	12
-5384	-8708	12876	3	27	-50	-12112	-9064	5504	-15	10	-11	1272	-5744	15688	9	36	-15	-3032	5432	14184	22	23	-41	-13736	5816	7040	27	-23	5	328	1272	16576	41	11	-15	126	137	12
-5520	-8416	12524	16	23	-44	-11792	-8568	5352	18	19	-7	1008	-5608	15776	16	53	-7	-2864	4944	14800	-18	9	-67	-13432	5712	6688	66	-9	23	-8	1504	16416	46	13	3	126	138	12
-5520	-8964	12884	29	6	-42	-11960	-9368	5448	50	42	12	672	-5368	15936	25	50	-9	-3120	5240	14472	-30	20	-70	-14032	5848	6976	49	7	3	-216	1504	16440	37	8	6	125	137	12
-6012	-9140	13152	35	10	-39	-12288	-8920	5072	79	40	-12	480	-5272	15616	15	35	-19	-2824	4912	14800	-14	-3	-70	-14456	5632	6808	80	15	-8	-648	1632	16808	12	-18	3	126	137	12
-5780	-8920	13092	36	2	-44	-12400	-8672	4904	57	28	-23	152	-5376	15904	25	12	-34	-3216	4960	15664	-35	-4	-74	-14680	6032	7224	79	-13	-4	-616	1480	17024	-25	-35	-11	127	136	12
-5288	-9144	13464	19	-4	-55	-12776	-8896	5120	29	14	-20	632	-5280	16208	38	-23	-34	-3168	5184	15768	-22	0	-60	-15144	5944	7496	52	-24	-18	-360	1440	17328	-35	-55	-31	128	138	12
-5632	-9264	12844	3	18	-56	-12552	-8808	5184	-5	-9	-48	672	-5160	16072	24	-31	-38	-3608	4536	14904	11	14	-59	-14360	5544	6656	-14	-34	-8	96	1424	17232	-48	-49	-44	127	137	12
-5132	-7404	12852	-12	22	-60	-11992	-8568	5040	-26	3	-30	1088	-5512	15928	-1	-2	-38	-3168	4168	15640	8	-14	-47	-13712	5544	7552	64	-45	-11	432	1248	16872	-20	-27	-36	128	138	12
-5020	-9588	12632	7	6	-55	-12088	-9400	5600	-39	1	-23	1168	-5320	16376	-7	12	-31	-3416	5288	14448	10	5	-50	-13712	6160	6768	-6	-24	-5	496	1080	16776	4	-6	-30	126	137	12
-5104	-8836	12752	6	18	-57	-12256	-8632	5296	44	32	-37	1024	-5704	15784	-17	27	-24	-2560	5696	14544	3	0	-51	-13712	5536	6744	1	-10	0	40	1240	16424	36	1	-17	127	138	12
-5104	-8724	13040	16	11	-49	-12240	-8832	5664	30	25	-11	776	-5528	15856	6	36	-26	-3208	4576	14104	-10	16	-66	-13736	5768	6752	17	0	1	-168	1464	16368	28	-3	-14	127	138	12
-5692	-8448	12644	11	22	-50	-12136	-8600	4768	59	42	-6	920	-5224	15936	22	38	-25	-3336	4728	14560	-19	10	-71	-13848	5440	7016	90	3	-17	-264	1704	16432	3	-18	-14	126	139	12
-5528	-8372	12584	21	33	-41	-12088	-8568	4960	53	31	-3	848	-5296	15568	15	30	-29	-2976	5192	14192	-17	24	-65	-13784	5624	6624	67	-1	0	-104	1512	16032	-10	-13	-23	126	139	12
-5484	-7320	12640	16	15	-49	-11760	-8544	4712	43	43	-5	600	-5096	15544	6	35	-35	-3232	3848	14352	-17	17	-76	-13696	5552	6576	109	-15	-8	24	1608	16192	-18	-16	-21	127	138	12
-5868	-9612	12788	4	18	-57	-11816	-8992	4648	27	35	-11	544	-5128	15672	9	14	-42	-3264	4376	15072	-55	3	-86	-14536	5936	7488	70	-10	-10	-200	1296	17256	-32	-28	-30	127	137	12
-5680	-9136	13024	33	21	-38	-12704	-9176	4736	-1	20	-53	640	-5352	15960	-6	-1	-35	-2688	4272	16080	-46	-3	-73	-15128	5504	7608	16	7	-12	-304	1384	17472	-39	-16	-46	128	138	12
-5416	-8468	12520	-6	37	-46	-12392	-8976	5264	-3	12	-61	576	-5576	15904	-5	6	-36	-4056	4144	14928	-4	27	-67	-14336	5336	6408	-2	-12	-24	8	1136	16896	-74	-14	-52	127	139	12
-5348	-7520	12716	-18	38	-54	-11768	-8696	4664	-3	43	-42	968	-5744	15624	-4	27	-24	-2816	4888	15456	6	5	-55	-14016	5448	7672	104	-20	-40	344	792	16736	-57	-9	-33	127	139	12
-5036	-9048	12592	-16	36	-51	-11816	-9176	5624	-66	12	-30	1152	-5744	15720	-12	32	-10	-3432	5264	13800	-3	38	-62	-13248	5808	6752	-28	1	-10	424	760	16208	-5	13	-18	126	137	12
-5872	-7928	12932	11	3	-49	-12040	-9088	5024	31	54	-43	984	-5952	15776	-2	42	1	-3320	4624	14360	-13	28	-75	-13656	5360	6960	24	6	-9	40	1096	16248	42	23	2	126	136	12
-5756	-9520	12980	21	18	-52	-12392	-8976	5288	29	38	-12	608	-5880	15904	27	44	-3	-2992	5008	14680	-14	14	-74	-14040	5784	6816	37	14	3	-304	1056	16472	38	6	6	125	137	12
-5260	-7124	13168	21	14	-41	-12712	-9208	5248	38	47	-8	496	-5824	15864	47	36	-16	-3008	4984	14256	1	21	-62	-14112	5352	6240	3	17	4	-568	1048	16368	25	-8	-1	125	138	12
-5260	-8748	12948	28	23	-47	-12248	-8744	4920	57	31	18	664	-5736	15776	50	21	-31	-3016	4424	14440	9	20	-74	-13984	5320	6616	84	-1	8	-328	1048	16208	12	-21	-18	125	137	12
-5812	-9424	12644	28	22	-54	-11784	-9216	4944	34	26	23	512	-5416	15392	42	6	-44	-2792	4920	15576	-13	11	-72	-14424	5296	7312	123	-26	2	-104	1088	16808	0	-37	-29	126	136	12
-5916	-9916	13160	40	-3	-56	-11968	-9752	5216	44	16	-14	504	-5416	16032	21	-7	-53	-3160	3824	15904	-21	8	-78	-15240	5888	7072	56	-44	17	-400	1200	17576	-20	-38	-47	127	138	12
-4744	-8032	12612	33	25	-44	-12384	-8920	4952	69	26	-35	560	-5608	15504	-4	7	-62	-2832	2760	14408	53	15	-47	-13952	4856	6512	12	-37	-4	208	1144	16112	-3	-2	-57	128	139	12
-5356	-7832	11980	3	25	-54	-11256	-7856	4408	43	29	-3	984	-5664	15144	6	34	-66	-2576	4784	13872	63	15	-37	-12488	5688	6456	67	-32	-7	680	824	16016	-4	6	-39	128	138	12
-5648	-9952	12776	10	-6	-69	-11384	-8680	4744	-25	21	25	1104	-5528	15408	4	36	-41	-2408	4576	15408	-25	-10	-80	-14152	6120	7816	41	-5	4	344	808	17352	6	-4	-18	126	137	12
-5100	-9476	13684	61	-22	-43	-12528	-9800	5528	-69	-23	-40	760	-6008	16280	4	11	-19	-3200	3880	15528	-34	0	-79	-15392	5968	7288	-88	4	36	-504	1304	17400	31	-8	-15	127	138	12
-5904	-8504	13020	33	5	-47	-13184	-9040	5048	65	16	-69	352	-6152	16512	49	8	-19	-3312	4384	14776	11	6	-59	-15072	5400	6720	11	-20	4	-704	1376	17392	-3	-36	-7	127	139	12
-5632	-8248	13608	12	11	-61	-12696	-8760	5224	49	25	-3	688	-5928	16088	70	12	-12	-2760	5392	15192	7	1	-49	-14488	5704	7560	171	-26	-11	-216	976	17304	-10	-56	-7	126	138	12
-5780	-9612	13164	13	17	-62	-12320	-9648	5176	11	5	11	1136	-5464	16280	64	-10	-13	-3472	4992	15248	15	14	-58	-14336	6032	7136	61	-22	21	480	1016	17024	28	-38	-10	125	134	12
-5744	-8256	13384	27	5	-41	-12464	-9224	5440	56	14	-12	800	-5552	16336	34	-15	-24	-3456	4632	15616	-8	-5	-65	-14600	5992	6896	68	-24	25	-144	1496	17464	49	-28	-15	125	134	12
-6296	-9564	13840	36	-18	-56	-13064	-9760	5384	70	23	-8	408	-5696	17280	39	-26	-37	-3408	5360	17144	-25	-31	-66	-15904	6560	7480	98	-24	20	-776	1648	18456	22	-46	-18	126	138	12
-5612	-10884	14648	34	-27	-69	-13840	-10096	5576	73	10	-27	432	-5792	17488	38	-31	-40	-2568	4984	15848	17	-19	-44	-16016	6368	7704	-1	-31	5	-848	1488	17984	6	-46	-42	126	139	12
-5196	-7548	13212	25	33	-44	-13424	-8168	5192	53	-20	-45	696	-6048	16392	21	-2	-58	-3632	4952	14184	65	2	-36	-13312	5312	6576	-11	-47	20	232	1600	16416	5	-24	-44	127	139	12
-5292	-8064	12576	-21	22	-75	-11360	-8568	4864	13	18	38	1144	-5304	15736	22	31	-59	-3048	5960	15008	4	-19	-46	-13216	5824	7616	168	-57	-15	776	1256	16512	10	-27	-24	126	138	12
-5868	-10168	13228	37	-18	-60	-11456	-10080	5408	-55	-20	15	1128	-5224	16120	-22	34	-45	-2904	5672	15904	-37	-22	-63	-14920	6824	8088	40	-36	16	96	1256	17976	41	-23	-20	127	139	12
-5472	-8648	14332	61	-53	-49	-13088	-9696	6016	42	-13	-83	736	-5856	16656	-19	12	-49	-3232	5304	14944	-23	-32	-48	-15552	6144	7208	-45	-51	32	-784	1736	17688	26	-31	-29	127	139	12
-6164	-8376	13156	58	-17	-34	-13976	-8680	5216	137	3	-71	32	-5712	16856	26	-3	-47	-3464	4888	15528	26	-30	-41	-14288	5664	6840	48	-24	11	-648	1816	16736	-9	-41	-17	127	142	12
-4360	-6948	13620	-8	-6	-71	-12776	-8424	5688	27	4	3	944	-5416	15744	47	-9	-48	-2560	5376	14336	30	2	-33	-13488	5624	7096	77	-48	-35	672	1368	16160	4	-55	-18	125	139	12
-5756	-8412	11672	-26	34	-71	-11376	-8448	5032	9	-20	11	1264	-5024	15008	26	-8	-43	-3288	5136	13688	12	20	-50	-12392	5184	6472	-30	-31	20	736	1208	15816	51	-30	-12	125	133	12
-5736	-8480	12076	-12	-14	-75	-10736	-8696	4440	29	14	7	1008	-5008	15160	6	-7	-29	-2336	5176	15544	-40	-21	-67	-13984	5768	7496	106	-41	10	128	1152	17120	50	-44	7	126	135	12
-5540	-10800	13544	37	-68	-62	-12112	-10160	5592	45	3	-32	680	-5184	16384	13	-32	-19	-3608	5560	16712	-54	-27	-85	-16312	6696	7552	14	-41	18	-832	1336	18960	-8	-72	-13	126	141	12
-6384	-8660	14604	44	-64	-54	-14384	-9592	5376	133	19	-118	184	-5896	17752	34	-67	-25	-3600	4072	15632	-27	-27	-56	-16592	5856	7120	-48	-51	18	-1040	1720	18704	-80	-91	-42	128	139	12
-6196	-7556	13856	-1	20	-53	-14560	-8232	5200	69	6	-53	528	-6072	17352	55	-53	-37	-2848	4592	15512	39	-16	-31	-14888	5584	7432	95	-56	-27	264	1616	17504	-92	-92	-50	128	137	12
-4952	-8236	12400	-68	76	-74	-12248	-8896	5456	-89	-13	25	1552	-5680	16160	32	-13	-35	-3640	5464	14328	50	16	-35	-13160	5904	7280	72	-27	-32	1512	1232	16760	-15	-35	-30	127	136	12
-5556	-8124	12452	-65	85	-70	-10504	-9184	5184	-81	8	26	2288	-5664	15144	-35	38	-16	-2904	5872	13472	29	35	-47	-12408	6216	7176	3	3	-17	1456	1272	15912	95	43	-3	126	134	12
-5692	-8508	12240	3	26	-38	-10600	-8896	5048	18	59	8	1928	-5296	15200	-43	88	-13	-3168	5304	13960	-32	13	-74	-12944	5992	7056	17	24	22	472	1600	16448	122	68	17	125	135	12
-5360	-8600	12760	92	-20	-9	-12256	-9240	5320	77	68	-23	896	-5392	16136	-12	95	-7	-2872	4872	15472	-76	2	-83	-14232	5952	7184	28	41	12	-568	1864	16720	68	58	17	124	138	12
-5468	-7892	13764	79	-24	-13	-13424	-8536	5600	84	57	-34	336	-5296	16416	19	73	-19	-3232	5072	14064	-33	38	-73	-14760	5688	6192	-19	33	-7	-1264	1984	16432	-32	24	-11	124	139	12
-5812	-6636	12676	33	37	-27	-12760	-7400	4968	39	57	-4	-128	-5088	15336	43	50	-43	-3024	3800	13432	21	33	-65	-14392	5528	6048	-18	30	-5	-680	1912	14904	-66	-5	-31	125	139	12
-5032	-7168	12280	-4	36	-58	-11072	-8064	4488	-38	47	59	576	-4552	14472	49	31	-46	-2464	5200	14368	0	19	-65	-12760	5952	7096	198	-14	-38	272	1024	15656	-47	-32	-22	126	137	12
-5484	-9904	12896	30	3	-48	-11208	-9200	5216	-26	17	9	744	-4440	15560	3	5	-33	-2688	5744	15472	-57	1	-81	-14224	6544	7520	43	-26	5	-64	1320	16944	-16	-26	-30	127	135	12
-5812	-8896	13348	60	-16	-30	-13088	-9144	5192	75	17	-101	288	-5104	16600	-19	-12	-32	-3296	3536	15992	-52	-7	-81	-15400	5544	6904	-67	-23	27	-768	1472	17744	-22	-14	-42	128	139	12
-5196	-7992	14024	31	-6	-46	-13928	-8568	5728	67	22	-89	176	-5584	16552	3	-10	-37	-2800	4624	15064	21	26	-54	-14864	5424	6928	-19	-25	-27	-344	1392	17048	-51	-22	-57	129	143	12
-5624	-7912	12868	-44	55	-77	-12592	-7896	5416	-7	-1	-35	784	-5576	15936	25	1	-35	-2664	4568	13456	66	30	-48	-12904	5312	6744	7	-33	-28	584	984	16136	-32	-17	-53	129	141	12
-5604	-7728	12424	-50	53	-82	-10984	-8376	4912	-80	2	9	1584	-5632	15096	19	16	-16	-1880	6120	14128	21	12	-52	-12768	5960	7760	76	-23	-4	952	864	16008	22	-10	-17	128	137	12
-5504	-10276	12792	-23	16	-72	-11120	-9920	5416	-66	-7	-4	1728	-5704	15888	8	9	9	-2520	5064	15816	-45	3	-85	-14664	6488	8032	23	-3	7	352	1280	17560	52	-20	12	127	137	12
-5404	-9676	13104	55	-7	-36	-12728	-10384	5728	41	13	-79	1072	-6352	16720	9	15	25	-3488	4280	15944	-54	10	-84	-15480	5872	7176	-13	-2	33	-768	1680	18016	16	-17	8	126	140	12
-5532	-8360	13608	24	5	-41	-13384	-9192	5272	135	51	-55	632	-6520	16360	43	24	0	-3136	4216	13912	33	29	-51	-14640	5304	6440	40	19	-26	-432	1200	16632	-19	-17	0	126	138	12
-5568	-6960	12472	-12	49	-50	-12520	-8072	4832	59	32	24	768	-6080	15416	60	32	-25	-2816	4416	13920	30	18	-47	-12336	5184	6800	83	19	-5	576	864	15152	10	-10	6	126	134	12
-5424	-8832	12168	-7	31	-58	-10664	-9024	4576	-36	17	80	1352	-5488	14736	50	18	-29	-2680	5776	14264	-11	17	-61	-13080	5696	6984	95	7	0	792	736	15632	61	-2	13	125	128	12
-5452	-10084	12312	46	-8	-39	-10816	-9432	4744	-22	1	31	1040	-5216	15000	27	6	-25	-2952	5096	14848	-54	11	-79	-14520	5944	6896	-5	2	44	-536	1248	17024	69	3	11	126	132	12
-5996	-7972	12904	86	-33	-10	-12104	-9376	4816	69	25	-31	456	-5400	15968	34	9	-34	-3024	4072	15280	-23	0	-61	-15280	5384	6672	28	-17	36	-1184	1256	17184	25	-15	-14	128	139	12
-5600	-9580	13172	93	-37	-26	-13304	-8632	5488	90	18	-31	144	-5576	16552	52	5	-43	-3208	4648	15032	19	18	-47	-14600	5840	6544	81	-42	30	-576	1264	16768	-28	-32	-44	127	142	12
-5620	-6784	13520	48	0	-24	-13232	-8016	5136	38	7	7	600	-5400	16368	51	12	-50	-3312	4920	14272	60	21	-30	-13464	5512	7000	57	-48	28	336	1216	16248	-19	-26	-53	126	138	12
-5456	-7288	12800	14	25	-33	-11776	-8096	5352	-31	-3	52	1104	-5000	15512	33	22	-51	-2712	4816	14048	55	21	-38	-12752	5848	6736	52	-40	45	664	1208	16024	44	-2	-44	126	137	12
-5256	-8396	12784	26	15	-46	-11448	-8888	5128	-33	-5	48	1192	-4864	15552	28	35	-37	-2464	5416	14576	13	21	-50	-13728	5856	7424	73	-25	49	456	1680	16504	86	14	-33	127	138	12
-5256	-8832	12500	55	19	-26	-11784	-8840	5448	52	15	3	1056	-5048	15792	20	50	-24	-3080	5008	14568	17	22	-62	-13728	6168	6864	35	-6	47	-32	1888	16816	73	23	-33	126	140	12
-5472	-8384	12880	49	5	-30	-12280	-8248	4952	134	56	0	712	-4920	15888	19	51	-23	-2456	6144	14208	41	24	-52	-13936	6056	6800	59	-4	29	-208	2016	17016	22	9	-34	126	140	12
-5068	-7792	13520	54	-4	-24	-12688	-8112	5496	57	41	11	560	-5296	16048	39	30	-20	-3144	5824	15464	-5	12	-60	-14136	6520	7456	106	-7	29	-336	2040	16928	-20	-13	-23	125	140	12
-5632	-9996	13704	41	1	-45	-12920	-9056	5344	-6	21	7	656	-5192	16272	72	-17	-11	-2496	5960	15360	-16	21	-61	-14944	6344	7464	40	-1	14	-464	1976	17480	-26	-33	-13	127	136	12
-6248	-7824	13412	15	33	-35	-12768	-8608	5288	1	-1	-31	480	-5472	16432	61	-17	-6	-2792	4888	14848	-9	11	-61	-14256	6072	7168	18	-4	0	-256	1952	17032	-30	-31	-6	127	138	12
-5572	-7836	12724	13	37	-35	-11912	-8840	5328	12	17	-15	1032	-5392	15600	43	7	-10	-3432	4768	14264	6	30	-54	-13616	5848	6664	34	12	-20	368	1408	16616	6	-12	3	127	137	12
-5528	-9468	12916	-7	27	-55	-11464	-8872	5040	28	34	-2	1424	-5320	15624	14	26	-5	-2584	4984	15064	-15	16	-67	-14064	5776	7472	54	17	-26	376	1096	16936	28	3	16	127	135	12
-5552	-7636	12876	37	7	-31	-12192	-9088	5472	-25	2	-39	976	-5608	15640	-2	31	-5	-3336	5448	14920	-19	15	-59	-14088	5920	6864	-17	13	16	-248	1176	16936	31	26	5	127	134	12
-5928	-7732	13128	38	-9	-28	-12424	-8856	5624	28	27	-25	792	-5736	16160	27	33	-16	-2648	5112	15056	4	9	-52	-14256	5712	6688	37	6	11	-536	1328	16592	35	10	13	127	138	12
-5264	-8576	13400	49	-1	-27	-12728	-8792	5856	4	18	5	784	-5712	16216	55	23	-19	-3384	5040	14656	21	22	-49	-13832	5992	6736	48	-13	14	-496	1200	16312	40	-11	4	127	139	12
-5380	-8160	13348	57	-3	-26	-12712	-8704	5376	24	8	17	688	-5440	15936	71	18	-17	-3368	4016	14168	14	31	-57	-13576	5784	6728	-1	-16	43	-168	1296	15928	50	-13	-8	127	137	12
-5220	-8276	12552	6	19	-50	-11792	-8320	5000	49	27	47	888	-4960	15376	51	22	-25	-3120	3424	13760	18	17	-55	-13464	4944	6440	46	-8	24	8	1760	15696	51	-11	-8	126	137	12
-5584	-8412	11780	23	37	-36	-11168	-8616	4752	17	14	44	1080	-4712	14872	25	48	-39	-2816	5088	14408	14	7	-53	-13488	5488	6592	112	-14	22	192	1392	16368	36	-6	-25	126	138	12
-5892	-9384	12360	19	5	-46	-11088	-8920	4880	72	38	26	752	-4552	15296	4	32	-53	-3024	5616	15904	-31	3	-67	-14928	6288	7504	116	-32	29	-216	1736	17832	-6	-29	-45	127	139	12
-5716	-8820	13808	80	-26	-20	-12848	-9080	5944	65	20	-33	560	-4888	16336	-4	-6	-44	-3352	4848	15792	-20	12	-60	-15768	6424	7520	25	-55	38	-808	2096	18136	-54	-31	-69	128	141	12
-5700	-8600	13944	58	-16	-26	-13712	-8024	5512	61	27	-60	448	-5296	17000	32	-30	-40	-3568	5216	14336	54	30	-34	-14480	6640	6944	15	-47	9	-320	2160	17320	-85	-29	-58	128	142	12
-5460	-7048	13864	3	18	-39	-13312	-7456	5384	-20	9	-7	896	-5376	16552	49	-15	-19	-2440	5304	14456	42	17	-34	-12872	6424	7568	17	-9	0	520	1832	16424	-21	-15	-29	128	138	12
-5124	-8456	12816	-36	42	-54	-12192	-8624	5552	-112	-11	18	1576	-4936	16104	36	18	5	-3016	5696	14104	13	27	-47	-12944	6272	7168	-34	16	-5	824	1640	16208	56	17	2	126	133	12
-5496	-8608	12624	-6	31	-39	-11752	-9088	5496	-40	20	-5	1320	-5136	15992	1	55	16	-2712	6048	14184	-24	36	-70	-13424	6248	6640	-7	22	16	0	1944	16816	77	28	15	126	137	12
-5776	-9268	13392	18	1	-39	-12056	-9080	5176	56	49	-12	968	-5216	16016	-8	65	4	-2832	4720	15224	-55	22	-84	-14416	6160	7456	91	6	7	-416	2128	16896	50	21	14	126	140	12
-5524	-9220	13412	12	15	-40	-12472	-9080	5488	99	53	-24	440	-4920	16400	4	49	-14	-3664	5792	14656	-31	18	-76	-14640	6432	6568	72	7	-14	-792	2112	17168	-19	-13	1	126	141	12
-5780	-8924	13408	22	8	-29	-13224	-8488	4944	122	54	-39	176	-5208	16424	22	23	-30	-2848	4792	14616	-19	2	-59	-14576	6360	7280	95	-4	-12	-704	1952	17128	-36	-21	-5	127	139	12
-5400	-7824	13900	28	9	-36	-13144	-7808	5448	28	8	-5	416	-5200	15848	36	-4	-38	-3368	6080	14960	11	3	-49	-13472	6312	7008	85	-1	-9	-176	1680	16280	-31	-32	-10	127	138	12
-5588	-7960	13196	7	10	-51	-12336	-8856	5104	-35	-2	-7	384	-5120	15968	41	-20	-34	-3184	4944	15696	-21	-7	-56	-13912	6112	7256	2	-5	-13	-152	1344	16824	7	-26	-2	127	137	12
-5232	-8832	13112	8	9	-51	-12400	-9048	5248	-38	-13	-27	672	-5376	15912	2	-16	-20	-2768	5416	15816	-20	-4	-59	-14520	5840	7056	-65	8	-5	-152	1128	17224	27	-24	-12	127	137	12
-5524	-9780	13340	35	-11	-53	-12464	-9280	5280	9	1	-51	792	-5552	16328	6	-9	-30	-2688	4904	15552	-17	6	-64	-14800	5584	7048	-12	-37	1	-208	1160	17304	-7	-26	-21	128	139	12
-5356	-9160	13392	-2	-2	-67	-12608	-8768	5480	13	-2	-49	896	-5624	16168	8	2	-22	-2672	4992	14888	2	-1	-50	-14624	5352	7136	61	-46	-2	40	1208	17280	-36	-39	-22	128	141	12
-5916	-8684	13064	4	7	-63	-12224	-9336	5280	-15	-6	-28	984	-5888	15984	23	5	-21	-2800	4664	14832	-4	-3	-45	-14624	6008	7304	73	-44	3	72	1000	17280	-15	-38	-16	127	139	12
-5072	-8720	12972	10	8	-53	-11944	-8792	5296	18	-7	-34	1248	-5880	15416	9	15	-10	-2896	4928	14640	42	-8	-41	-13480	5904	7008	39	-26	1	336	1120	16232	50	-18	0	126	137	12
-4396	-8148	12976	28	-3	-46	-11632	-8664	5632	43	-8	-18	1680	-5752	15400	37	20	-8	-2480	5032	14088	30	0	-32	-12608	5616	7376	34	-30	18	832	1384	15752	92	4	10	126	136	12
-5052	-8340	12552	8	0	-54	-11448	-8744	5456	47	-8	-2	1480	-5360	15576	50	26	-9	-2816	4728	14312	-7	-5	-56	-13288	5616	7104	11	-12	25	512	1496	16120	72	-3	5	126	136	12
-4928	-8376	12248	53	0	-35	-11784	-9168	5432	29	1	-4	1424	-5032	15840	42	23	-19	-2680	5272	14288	6	-1	-46	-13680	5192	6888	10	-5	34	344	1488	16040	49	-11	-11	125	138	12
-4884	-7688	12880	56	-11	-39	-11616	-8784	5712	32	24	13	1344	-5184	15568	36	23	-36	-2840	5272	14184	28	21	-45	-13256	5640	6832	102	-44	37	248	1736	15968	10	-18	-31	125	139	12
-5124	-8424	13096	52	-10	-38	-11848	-8688	5656	35	17	36	1416	-5032	15528	60	-1	-49	-2792	4512	15624	-5	3	-68	-13696	5880	7496	120	-51	47	312	1992	16952	-10	-43	-35	125	139	12
-5924	-9728	12672	61	-9	-30	-12120	-9352	5552	35	10	1	976	-4760	16608	50	-26	-53	-3736	5256	14952	-20	21	-75	-15088	6616	6800	-11	-22	41	-432	1968	17800	-36	-52	-50	125	137	12
-5016	-7948	13816	50	-16	-32	-12776	-8672	5360	98	60	-6	840	-5192	16208	16	-19	-54	-1928	3672	15024	29	13	-53	-14752	5264	7800	72	-16	-3	200	1904	17048	-18	-35	-51	127	138	12
-5316	-7696	12904	-7	44	-35	-12056	-7960	5584	22	13	21	1216	-5056	15696	21	6	-54	-2968	5112	13896	20	30	-50	-14392	5384	7448	72	-20	-13	872	1776	16464	-21	-12	-46	127	138	12
-5020	-8424	12732	3	40	-48	-11344	-8504	4920	5	40	22	1584	-4632	15496	-11	41	-28	-2168	5960	15392	24	8	-49	-13480	5856	7904	119	11	-28	1080	1512	16816	17	13	-24	127	137	12
-4600	-8648	13044	-2	30	-44	-11896	-8912	6088	-40	2	-16	1528	-5224	15984	-19	50	-9	-3216	5672	14184	-22	41	-70	-13664	6768	7104	-57	1	28	856	1480	16760	24	19	-23	127	137	12
-5812	-7520	13216	45	6	-21	-11976	-8936	5792	-16	2	-27	952	-5688	16024	12	51	8	-1496	5984	14712	-3	30	-56	-13792	5752	7504	18	9	1	112	1664	16560	41	29	7	127	139	12
-4568	-9008	13608	27	20	-38	-12400	-8280	6176	11	28	2	1064	-5744	15968	48	59	4	-2752	5472	13880	-3	51	-73	-13072	6368	6792	-6	21	-11	168	1776	16392	16	20	17	127	140	12
-5620	-9124	12816	16	19	-45	-11800	-8960	5016	11	42	1	1328	-5032	15936	64	53	4	-2512	4616	14432	-11	14	-79	-13816	5768	7456	34	38	-8	128	1416	16416	1	3	12	125	135	12
-4808	-7804	13260	35	18	-24	-11776	-8760	5600	-9	21	-13	976	-5208	15432	37	43	-1	-2792	4224	14912	-24	8	-73	-13664	5744	7096	99	19	16	-48	1456	16288	21	7	-2	126	136	12
-4312	-9580	12916	26	17	-50	-11904	-9232	5576	32	23	-6	880	-5016	15664	43	10	-21	-2440	5824	15112	-8	8	-59	-13880	5496	7504	111	-12	4	160	1432	16288	24	-12	-9	126	137	12
-4920	-9052	12464	11	22	-45	-11720	-8872	5352	59	17	-24	912	-5080	15600	31	5	-28	-3048	5200	15744	-12	-6	-59	-14304	5640	7368	89	-18	7	-80	1448	17128	-9	-27	-21	128	138	12
-5132	-7840	12988	31	-2	-35	-12128	-8984	5552	30	8	-35	832	-5352	15816	19	-6	-41	-2960	5120	15376	-27	12	-52	-14496	5936	7552	28	-38	8	32	1368	16784	-30	-26	-47	127	139	12
-5252	-8044	13252	27	5	-39	-12344	-8576	5552	27	6	-20	1000	-5520	15976	11	-7	-41	-3144	5800	14512	45	25	-32	-13536	5584	7208	12	-39	11	432	1432	16872	-22	-29	-41	127	139	12
-5080	-7948	13588	35	-11	-38	-12320	-8536	5720	-10	5	7	1360	-5704	16496	33	-6	-33	-2344	5112	14680	32	9	-37	-13648	6360	7840	18	-27	28	464	1216	16784	5	-19	-26	128	139	12
-4520	-9148	14060	55	-22	-37	-12560	-8960	6048	-31	-13	19	1544	-5696	16368	36	2	-18	-1440	6688	14176	45	21	-32	-13584	6472	7664	-44	-12	39	592	1216	16560	74	-4	-13	127	137	12
-5024	-8848	13612	9	12	-49	-12320	-8768	5904	40	-1	17	1560	-5344	16104	62	15	-12	-1784	5552	13728	18	14	-45	-13544	5360	7224	-12	-24	52	472	1944	16392	92	-3	-3	127	136	12
-5664	-8192	12436	34	25	-29	-11544	-8792	5608	42	7	27	1456	-5024	15728	55	39	-12	-2808	3824	14232	16	12	-55	-13456	5736	6880	119	-8	39	360	1960	16376	55	-5	-4	125	137	12
-5008	-8884	12988	51	1	-40	-11128	-9000	5456	81	34	43	1448	-4968	15576	35	45	-24	-2376	4792	14344	8	21	-59	-13720	6144	7488	146	-11	16	288	1912	16200	35	-13	-11	124	137	12
-4924	-8900	12952	55	5	-36	-11816	-8504	5336	94	19	17	1224	-5056	15432	33	26	-35	-2408	5192	14824	16	8	-55	-13624	6248	7272	115	-13	21	240	1984	16696	29	-12	-15	126	136	12
-5572	-8732	13464	54	-22	-43	-12016	-8752	5016	76	35	-3	744	-4960	15920	51	-4	-37	-2528	5024	16088	-15	-12	-60	-14768	6592	8304	104	-25	18	-72	2208	16712	18	-19	-11	127	137	12
-4824	-8896	14720	54	-32	-40	-13240	-8976	6056	9	-22	-21	928	-5072	16776	52	-34	-33	-2048	5816	15752	-9	-10	-44	-15144	6864	8032	-22	-33	21	160	1920	17856	-20	-41	-31	128	138	12
-5148	-8640	14060	35	-14	-45	-13368	-8664	6144	-3	-35	-58	1168	-5432	16736	54	-37	-29	-2928	4856	14240	28	17	-38	-14048	5728	7024	-82	-35	26	320	1672	16872	-21	-34	-35	128	138	12
-5420	-7396	12928	11	30	-51	-12128	-8056	5704	-32	-21	1	1696	-5304	15976	48	0	-20	-2336	5320	14256	34	9	-26	-12784	5560	7544	55	-19	7	1088	1360	16376	37	-13	-17	127	137	12
-4956	-8876	12816	-6	28	-61	-10928	-9016	5968	-62	-13	41	2360	-5128	15744	34	39	-7	-1888	5744	14600	1	9	-50	-13312	6048	7872	103	-18	11	1224	1656	16664	64	5	2	126	136	12
-5164	-8572	13240	31	-3	-39	-11192	-9688	6320	3	0	-4	2032	-5120	15792	16	45	-9	-2888	5176	15552	-44	12	-63	-14328	6400	7904	58	-20	45	480	2000	17576	70	10	-4	126	137	12
-5200	-9324	13924	56	-23	-27	-12520	-9384	6048	95	25	-39	1416	-5400	16944	18	32	-14	-3104	6072	15864	-4	2	-50	-15144	6664	7880	72	-15	28	-368	2352	18136	28	-13	-6	126	139	12
-4988	-8120	14040	52	-24	-23	-13600	-8728	6080	120	21	-44	840	-5368	17120	43	5	-18	-2848	5464	15440	27	17	-40	-14232	6688	7408	30	-13	28	-344	2256	17192	-10	-38	-13	126	140	12
-4416	-6956	14064	22	7	-34	-13264	-7960	6104	57	14	19	1208	-5240	16152	66	-12	-23	-2472	4080	14296	51	42	-37	-12936	5792	7192	16	-14	4	776	1960	15432	11	-27	-17	125	136	12
-4716	-7492	12408	-12	36	-49	-11152	-7832	5456	-18	12	72	1976	-4744	14880	56	8	-28	-2024	5400	12192	81	45	-37	-11368	5816	6728	-19	3	4	1336	1696	14872	59	0	4	126	134	12
-5124	-8008	12436	4	11	-48	-9944	-7984	4968	-20	18	83	1768	-4528	14688	22	36	-30	-1280	7264	14432	10	-14	-44	-12064	6296	7832	132	-12	35	904	1680	15984	85	6	12	126	133	12
-5124	-9968	13636	69	-53	-27	-11608	-9816	6048	-2	-9	28	1208	-4472	16256	11	2	-32	-2616	5792	16384	-96	-18	-86	-15208	7272	7992	17	-35	81	-392	2224	18008	50	-19	-10	127	137	12
-5532	-8972	14748	90	-68	-24	-14136	-9264	6432	116	9	-79	504	-5080	17384	22	-31	-42	-2576	4048	16344	-44	-6	-65	-16576	5840	7528	-54	-26	36	-1168	2792	18472	-34	-45	-42	128	142	12
-5240	-6752	14060	26	2	-34	-13920	-7632	5928	88	5	-52	688	-5208	16760	62	-15	-57	-3280	5280	15144	56	13	-24	-14296	6024	7280	102	-72	-8	-8	2376	17328	-103	-68	-52	128	144	12
-5308	-8256	13572	-29	25	-69	-12080	-8048	5680	-24	9	19	1440	-4752	16088	58	-5	-42	-1992	6200	14712	57	9	-22	-12992	6768	8328	130	-60	-26	1464	1672	16704	-51	-51	-28	127	138	12
-4716	-8596	13828	1	5	-56	-11296	-8968	6032	-77	-28	14	2240	-4808	15928	-5	4	-14	-2032	7080	14248	29	7	-28	-12800	7168	8512	-5	-12	10	1536	1768	16552	71	-2	6	127	134	12
-5032	-7964	13436	38	-5	-30	-12160	-8840	5912	0	-24	-36	1688	-5248	16568	-6	12	18	-3000	5832	14384	-15	3	-43	-13280	6304	7688	-60	1	53	704	2144	16768	126	36	26	127	132	12
-5112	-8292	13780	41	-21	-34	-12872	-8680	6264	72	18	-33	1376	-5360	16864	36	30	14	-2256	5968	14584	-14	1	-48	-14000	6384	7432	-33	25	24	40	2128	17096	76	21	32	126	139	12
-5096	-8032	13752	11	3	-42	-12992	-8448	5992	33	8	6	1192	-5360	16296	56	30	4	-2864	4896	14632	-11	7	-49	-14040	5704	7224	-27	31	10	-296	2144	16680	21	-15	18	125	141	12
-5156	-8572	12496	19	22	-48	-11712	-8528	5424	17	6	17	1392	-5136	15616	65	16	-6	-2776	5080	14664	25	6	-43	-13480	5544	7112	110	-8	11	64	1832	16032	-5	-39	10	125	138	12
-4700	-8292	12856	2	0	-52	-11216	-8640	5520	24	11	33	1352	-4872	15448	61	-6	-20	-2528	5744	15200	2	1	-48	-13792	6632	7552	157	-47	18	144	1760	16792	1	-63	14	126	137	12
-4704	-8784	14276	79	-55	-25	-12040	-9392	6408	32	-12	-2	1032	-4880	16312	54	-34	-26	-2736	5744	16112	-19	1	-49	-14568	7184	7984	73	-58	47	264	1624	17864	23	-52	-3	127	138	12
-5484	-9148	14464	71	-58	-29	-13928	-8952	6448	96	-19	-38	968	-5136	17400	65	-54	-28	-2648	5536	15336	17	4	-34	-14928	6680	7408	-51	-44	61	-256	2168	17720	24	-37	-22	128	137	12
-5216	-6500	14596	44	-27	-30	-13640	-7664	6400	32	-17	0	1144	-5048	17048	60	-25	-35	-2600	5640	14520	61	9	-14	-13472	6240	7448	-18	-23	36	552	2152	16672	27	-14	-30	127	137	12
-5204	-7948	13024	-11	20	-52	-13616	-7560	6264	26	-17	9	1872	-4528	16040	54	10	-29	-3032	5576	13472	71	18	-15	-12936	6424	7192	2	-25	32	960	2096	16264	45	-1	-17	126	136	12
-4844	-8284	12764	12	2	-44	-10944	-8256	5808	-68	-20	62	1960	-4640	15456	15	33	-22	-2056	6184	14704	31	-7	-26	-13184	6792	8040	77	-23	51	728	2248	16312	95	6	8	126	136	12
-4700	-8824	13464	53	-41	-22	-11456	-9024	6464	-20	-31	33	1776	-4632	16080	26	23	-8	-2296	7480	15024	5	11	-30	-13552	7088	7400	11	-35	72	-8	2520	16784	93	1	9	127	138	12
-5700	-8340	14108	78	-72	-17	-12856	-8880	6032	114	15	-23	944	-4648	17064	51	13	-7	-2984	5584	15320	-7	6	-42	-14344	6968	7328	27	-36	67	-512	2872	17616	29	-23	6	127	142	12
-5736	-7868	14548	62	-48	-14	-13920	-8200	5864	97	6	-10	744	-4552	17096	67	3	-16	-2720	5672	15656	0	7	-29	-14688	6904	7664	56	-19	35	-336	2816	17520	-16	-47	-6	126	143	12
-5336	-8200	14172	23	-20	-35	-13640	-8064	6416	20	-7	14	1032	-4472	16992	69	-34	-18	-2520	5144	14472	54	25	-22	-13808	6736	6960	16	-20	18	248	2784	16616	-12	-49	-8	127	137	12
-4724	-7700	13344	-22	16	-45	-13512	-8080	6312	11	-15	21	1600	-4392	15744	49	-28	-22	-2264	6056	13512	42	22	-19	-12472	6608	7280	57	-28	13	1192	2472	16040	31	-20	3	127	135	12
-5288	-8160	12956	-8	11	-37	-11096	-8072	5512	-9	-7	43	1888	-3960	15808	29	1	-11	-1968	6288	14392	-16	16	-34	-12808	7008	7656	38	-9	32	992	2464	16392	54	8	20	126	135	12
-4940	-8900	13208	24	-16	-32	-11736	-8512	5976	-2	4	3	1656	-4040	16136	-4	19	6	-2256	6760	14936	-25	10	-45	-13776	6744	7624	-20	19	25	8	2504	16928	50	16	18	126	136	12
-5188	-7604	14264	59	-40	-3	-12840	-8296	6312	25	2	-39	1112	-4728	16392	11	15	6	-3096	6376	14920	-39	8	-42	-14328	7216	7336	-36	2	42	-728	2688	17384	1	-6	13	127	139	12
-5216	-7868	14152	35	-32	-20	-13568	-7864	5880	50	16	-23	656	-4720	16800	53	-1	6	-2416	5904	15240	17	6	-23	-14024	6328	7520	20	8	16	-632	2656	16792	-21	-25	22	126	142	12
-4456	-7092	13824	0	-2	-28	-12728	-7704	6256	-53	-18	10	1008	-4680	16136	70	-4	4	-3272	6008	13936	40	26	-24	-12992	6864	7088	18	-11	4	272	2136	16176	-8	-33	18	126	140	12
-5236	-7772	13512	9	-15	-37	-12136	-8296	5408	-30	-5	28	1208	-4600	16096	67	-10	3	-2464	6680	14032	9	17	-31	-12920	6880	7200	46	-15	32	296	2096	16464	39	-27	30	126	136	12
-5524	-8812	14392	38	-32	-25	-12064	-8560	5888	-26	-13	28	1192	-4704	16960	50	-23	7	-2456	6152	16336	-49	-2	-48	-14608	7176	8120	60	-24	58	-64	2304	17720	78	-32	26	127	136	12
-5124	-9040	14444	60	-34	-19	-13584	-9304	6888	39	-25	-23	1096	-4608	17376	49	-27	0	-3592	4808	15296	7	21	-38	-15104	6824	6984	-54	-20	57	-248	2632	17552	42	-23	-3	127	139	12
-4500	-6684	13756	16	2	-29	-13056	-7640	5896	109	16	-8	1272	-4736	16400	45	10	-20	-2568	5384	13752	90	21	-2	-13152	6024	7168	23	-22	29	248	2488	16104	23	-3	-21	127	140	12
-4456	-7380	12708	-15	24	-37	-11216	-7192	5600	22	6	72	1792	-4544	15200	46	36	-26	-2040	6088	13216	95	19	-1	-11728	6192	7448	118	-29	23	1224	2160	15016	53	15	-9	126	137	12
-4968	-8188	12864	19	-7	-31	-10472	-8024	5712	-24	-6	66	1896	-4032	15256	25	34	-8	-2336	7064	14960	-16	11	-32	-12320	7472	8248	83	-16	55	824	2384	16512	66	16	18	126	134	12
-5068	-9484	14004	80	-62	-11	-12288	-9208	6280	-5	-15	3	1240	-4256	16600	29	-5	8	-2968	6272	15704	-68	19	-48	-14904	7592	7992	-71	-12	87	584	2504	16832	68	10	23	127	138	12
-5552	-7704	14812	76	-72	9	-13992	-8472	6328	62	-5	-59	632	-4824	17576	48	-22	5	-2728	5160	15504	-35	11	-33	-15552	6472	7368	-81	13	47	-1056	3320	17936	-24	-30	9	128	142	12
-5456	-6804	14292	34	-14	-8	-13696	-7608	6136	33	-4	-12	984	-4640	17008	81	-9	-7	-3008	5504	14432	44	25	-6	-14040	6624	6816	42	-10	1	-32	2680	16800	-70	-48	-1	127	142	12
-4912	-6636	13460	-16	18	-24	-12216	-7392	6128	-36	-4	58	1760	-4040	15608	68	-4	-1	-1896	6080	13488	91	29	6	-12304	6768	7464	88	-18	-4	1184	2120	15840	8	-31	14	126	136	12
-4412	-7368	13408	-3	6	-25	-10992	-7720	6056	-70	-24	67	1856	-4280	15144	27	3	7	-2296	7216	12736	38	24	-10	-11472	7312	7160	21	-15	48	1120	2336	15512	97	22	41	126	130	12
-5316	-8208	13144	59	-32	0	-11424	-8152	5784	13	-7	26	1496	-4184	16008	20	7	23	-2192	7000	14448	-25	7	-28	-12736	7448	7496	26	12	72	16	2728	16064	148	37	58	126	133	12
-4916	-8604	14652	73	-73	-1	-13008	-8504	6544	51	2	0	912	-4088	17032	53	-5	18	-2784	6512	15248	-41	21	-46	-14808	7384	7656	-44	15	56	-816	3072	17464	98	-5	38	126	139	12
-5552	-6944	14524	78	-40	8	-14368	-7672	6248	71	-4	-24	584	-4480	17072	83	-9	8	-3232	4944	14960	11	40	-30	-14480	6448	6800	-62	21	59	-1048	3296	16880	3	-29	1	126	143	12
-5364	-6628	14532	63	-31	5	-14320	-7440	6280	77	-2	-28	1048	-4176	16472	102	-10	-10	-3160	5504	14176	55	40	-8	-13448	6424	7160	138	-38	23	192	2984	16648	-51	-62	-10	126	142	12
-5300	-7724	13268	-21	11	-28	-11736	-7984	6096	-31	-10	69	1608	-3792	16448	70	-13	-5	-1992	7464	15256	16	15	-13	-13264	7680	8120	151	-49	41	832	2608	17184	-18	-56	-3	127	139	12
-5048	-9300	14496	2	-36	-27	-12168	-9144	6928	-27	-32	11	1528	-3880	16856	22	-24	-1	-2440	6080	15736	-28	23	-34	-14704	8032	8232	-35	-42	59	432	2888	17808	34	-20	-1	128	135	12
-5108	-7864	14444	34	-21	-3	-13344	-8496	6776	42	-5	-53	1376	-4232	17192	-2	-2	0	-2272	5272	13880	26	32	-18	-13752	6816	7568	-129	6	32	200	3240	17056	49	23	-7	128	137	12
-4612	-6964	13712	5	16	-17	-12704	-6872	6256	54	14	-7	1664	-4584	16136	12	41	2	-2520	6448	13680	40	20	-4	-12280	6736	7640	23	22	-3	936	2816	16200	27	36	9	127	138	12
-5128	-7864	13016	-19	10	-29	-11568	-7488	5816	-35	5	36	1640	-4136	15576	25	41	13	-2272	6704	14432	-2	13	-25	-12400	7264	7600	45	32	11	728	2696	15880	21	31	32	125	135	12
-4640	-8712	14084	19	-39	-24	-11568	-8480	6280	-92	-12	15	1448	-4376	15752	15	16	33	-1984	6664	15400	-51	4	-44	-14016	7376	8216	-12	4	29	-160	2784	16936	41	1	48	126	135	12
-4824	-7748	14028	45	-36	-2	-12736	-8672	6408	-40	-32	-48	1160	-4600	16656	44	-10	36	-3336	5640	14352	-40	22	-27	-14136	6872	6704	-80	-10	46	-968	2976	16792	15	-24	53	127	141	12
-5108	-6896	13732	28	-27	-9	-13064	-8720	6368	-20	-29	-60	816	-4544	16528	70	-11	20	-2328	5840	13696	11	20	-17	-13016	6496	6704	58	-8	3	-248	2784	15888	-15	-45	46	127	143	12
-4600	-7620	13632	-3	-8	-31	-12208	-7464	6112	20	0	47	1504	-4136	15920	71	-3	9	-1592	6936	13832	23	12	-16	-12568	6960	7360	101	2	-9	760	2152	15888	16	-48	31	126	137	12
-4684	-7836	13520	22	2	-18	-11720	-7952	6360	-43	-30	41	1728	-3864	15528	33	-5	-1	-2616	6520	13760	2	22	-18	-12280	7032	7288	-3	-10	43	1008	2544	16016	61	-11	21	126	134	12
-4828	-8548	13564	24	-25	-18	-11984	-8040	5912	12	-12	17	1584	-3928	16320	20	-16	-13	-2376	6688	15392	-29	-1	-30	-13824	7024	8072	33	-16	59	-72	2896	17552	50	-10	16	127	137	12
-4772	-8536	14648	46	-37	-12	-13024	-8560	7000	27	-14	-8	1400	-4040	17304	31	-31	-10	-2576	6224	16128	-39	-6	-28	-15176	7576	8208	13	-26	47	-312	3064	18136	5	-30	-7	127	142	12
-4700	-7968	14392	31	-15	-8	-13792	-8256	7048	27	-11	-37	1440	-4336	17384	37	-28	-7	-2888	4760	14832	28	33	-14	-14088	6560	7184	-64	-25	24	16	3352	17224	-41	-34	-28	127	142	12
-4968	-6588	13564	-5	10	-17	-12456	-7376	6336	12	8	1	1952	-4056	16552	33	5	-6	-2128	6176	13664	69	33	1	-12392	6872	7296	36	-32	10	1176	2976	16328	-37	-26	-16	127	141	12
-4376	-8088	13504	-41	20	-45	-11512	-8048	6120	-41	10	48	2120	-4000	15896	9	30	15	-1472	6592	14160	11	14	-18	-12152	7128	8440	95	-7	-2	1144	3056	16016	-26	-24	-11	126	137	12
-4748	-8256	13508	6	-4	-14	-11432	-8616	6408	-56	-15	5	1960	-4136	15720	-33	30	18	-2176	7296	15088	-45	15	-41	-13120	7728	8072	-27	21	22	840	2808	17080	40	16	27	126	135	12
-4768	-8272	14736	41	-43	-11	-12688	-8720	6824	21	1	-42	1280	-4784	16664	-14	9	14	-2712	7064	15056	-45	19	-40	-14224	7128	7616	-78	19	34	-384	3016	17240	34	8	35	127	138	12
-4968	-7480	14680	23	-29	-19	-13680	-8040	6472	60	4	-39	1176	-4872	16824	37	-3	10	-2736	5152	14632	-28	18	-29	-13792	6616	7600	-25	15	9	-200	3048	16728	-8	-15	32	127	140	12
-4580	-6648	13488	-5	13	-13	-12664	-7400	6056	-2	-8	-1	1728	-4440	15800	67	-4	10	-2600	5360	13592	19	28	-21	-12456	6400	7096	48	3	-19	696	2696	15584	-18	-27	37	126	139	12
-4452	-7756	12312	-30	27	-34	-10768	-7728	5784	-48	-7	40	2080	-3928	15168	43	8	8	-1960	6624	13880	4	30	-25	-11992	6416	7040	66	6	-10	1112	2432	15608	22	-18	45	126	133	12
-4116	-8132	13104	-22	-5	-42	-10488	-8224	6424	-63	-6	29	2160	-4040	15320	12	13	16	-1536	6936	14432	-25	16	-33	-12528	6872	7856	55	-2	9	848	2496	16376	47	-1	42	127	134	12
-5004	-8912	13920	29	-33	-12	-11936	-8936	6472	4	-15	-27	1616	-4408	16512	7	-1	14	-2360	6776	15848	-61	-5	-46	-14568	7512	8152	2	-6	44	8	2440	17696	20	-12	25	128	139	12
-5040	-8292	15492	76	-74	2	-13920	-8792	7104	62	-3	-60	1184	-4912	17672	36	-29	10	-2336	6176	16008	-39	6	-33	-15376	7096	8448	-31	-13	45	-360	2824	18120	-34	-32	-3	127	140	12
-4504	-7632	15144	29	-22	-21	-14168	-7872	7048	26	-13	-36	1368	-4648	17312	65	-44	0	-2568	5464	14688	51	23	-7	-13968	6592	7576	-37	-23	24	440	2840	17240	-41	-43	-12	127	140	12
-4508	-7184	13436	-47	37	-44	-12240	-7672	5816	-39	-9	33	2040	-4384	16048	66	-13	-6	-2144	6424	14040	75	15	8	-12336	6472	7896	64	-32	6	1168	2632	16024	-7	-39	-6	126	137	12
-4136	-7236	13220	-35	25	-40	-10320	-8304	6264	-72	-26	59	2552	-4040	15168	19	15	2	-2272	6536	13776	32	17	-14	-11624	7392	7816	33	-21	26	1656	2648	15784	69	-1	18	125	133	12
-4312	-9432	13664	17	-37	-26	-10888	-9008	6496	13	-2	27	2464	-4144	16040	-13	20	6	-1704	6856	14600	-34	12	-33	-12984	7248	8056	-4	-15	59	784	2968	16712	83	7	22	126	134	12
-4992	-8272	14356	81	-51	8	-12824	-8440	6544	73	-5	-36	1560	-4272	16952	-5	16	6	-2304	6192	15720	-46	-6	-40	-14216	7520	8136	12	-3	64	112	3320	17736	33	-5	12	127	139	12
-4176	-8132	15228	66	-62	-4	-13944	-8152	6928	66	9	-27	1456	-4672	17408	40	0	-13	-2128	5880	15680	-11	9	-19	-14656	7216	8440	35	-14	25	160	3520	17456	-39	-26	-9	128	142	12
-4584	-7128	14348	-9	1	-27	-13608	-7456	6984	-11	-24	-3	1424	-4280	16768	62	-11	-24	-2584	4840	13984	32	26	-16	-13080	6592	7432	2	-30	13	688	3288	16208	-42	-42	-6	127	140	12
-4360	-7824	13096	-38	22	-47	-11336	-7680	6320	-64	-8	44	2200	-4128	15344	33	-4	-16	-1664	6480	13712	30	14	-19	-12024	6776	8016	81	-9	-18	1376	2760	15904	6	-29	28	127	135	12
-4268	-8300	13572	-12	-15	-35	-10336	-8560	6656	-52	-19	39	2512	-4024	15504	-6	-1	4	-1328	6640	15504	-47	5	-40	-12736	7640	8896	45	-16	9	1496	2600	16768	48	-9	48	127	132	12
-4240	-9592	14424	37	-48	-19	-12160	-9256	7088	9	-24	-51	1976	-4080	16672	-7	-23	16	-2304	5576	15384	-97	7	-59	-14400	7408	8320	-121	5	38	312	2944	18064	22	-8	40	127	136	12
-4592	-7392	14372	53	-36	0	-13600	-8024	6552	60	0	-95	1504	-4576	16960	4	-10	12	-2176	5680	15080	-11	11	-20	-13848	6168	7584	-93	29	-6	160	3080	16800	-18	-18	24	127	140	12
-4020	-6812	14132	-37	-3	-41	-12400	-7240	6776	14	6	-17	1920	-4736	15936	52	5	5	-2152	6200	14344	37	4	-4	-12800	6512	7800	50	-15	-28	712	2464	16000	-31	-34	26	127	139	12
-4224	-7340	14020	-43	8	-46	-11296	-7776	6248	-70	-21	15	2104	-4288	15392	45	-5	20	-2128	6672	14056	15	11	-3	-11752	6768	7368	24	-8	12	1160	2384	15712	9	-32	39	125	135	12
-4412	-8040	13996	-8	-40	-33	-11096	-8672	6784	-63	-20	17	2336	-4232	15568	18	-23	24	-1528	6808	14336	-14	18	-28	-12880	6928	7896	3	-33	28	920	2424	16088	54	-26	40	126	134	12
-4612	-8464	14224	39	-47	-7	-12584	-8800	6800	30	-26	-27	2416	-4480	15800	17	-23	25	-1824	5896	14712	-37	23	-41	-13720	6800	7992	-51	-19	57	520	2976	16928	50	-21	24	127	138	12
-4508	-8200	14368	27	-24	-19	-13016	-8352	6736	80	7	-23	1920	-4520	17200	42	-19	0	-1648	5408	14976	-7	9	-28	-14144	6440	8176	39	-4	11	704	2912	17224	-9	-41	-1	127	141	12
-4024	-7328	14180	-9	13	-26	-12600	-7840	6904	7	-11	15	2184	-4344	16400	38	3	-18	-2160	5728	14120	27	33	-16	-13224	6656	7680	25	-17	15	1088	3048	16504	-27	-31	-23	127	139	12
-4548	-7492	13028	-11	25	-19	-11432	-7896	6320	-9	1	39	2424	-4048	15832	25	13	-21	-1736	7448	14728	31	23	-11	-12208	6880	8168	98	-25	28	1296	2864	16528	-18	-27	-24	126	136	12
-3884	-8832	13732	16	-24	-15	-11160	-8808	7120	-21	-3	35	2264	-4200	16064	2	0	-5	-1776	7296	15520	-24	25	-32	-13008	7680	8416	42	-27	36	944	3040	17136	20	-5	14	126	136	12
-4564	-8760	14480	37	-50	-7	-12592	-8912	7088	29	1	-25	1832	-4280	16824	-7	-13	5	-2152	5512	15464	-35	22	-38	-14104	7336	8208	-113	-6	40	400	3480	17576	20	-4	13	127	138	12
-4252	-7832	14624	24	-30	-12	-13288	-7904	7040	58	15	-41	1968	-4328	16976	15	2	4	-1632	4928	14184	3	34	-26	-13256	6536	7832	-84	15	-1	752	3280	16760	-13	-5	10	128	139	12
-4700	-7060	13864	-34	7	-31	-12192	-7128	6472	-17	7	5	2152	-4104	16136	31	31	10	-1672	6152	14056	-9	17	-29	-12688	6512	8112	46	13	-14	1160	2840	16448	-30	-9	14	126	138	12
-4176	-7872	13636	-17	13	-34	-11144	-8160	6624	-97	-3	18	2456	-3864	15464	7	31	16	-1448	6848	14256	-9	5	-21	-12944	7392	8248	86	-1	-11	1288	2776	16440	-12	-10	31	126	136	12
-4364	-7812	14332	4	-16	-16	-11768	-8680	6816	-63	-20	-15	1904	-4240	16240	-17	7	17	-1816	6544	15016	-53	5	-38	-13192	7528	8448	7	-8	29	768	2984	16792	37	-10	40	127	136	12
-4412	-8668	14588	46	-32	-3	-13024	-8656	7392	29	-12	-41	1768	-4520	16896	19	-20	12	-2176	5576	15040	-40	7	-38	-13696	7336	8168	-26	-1	18	488	3024	17168	27	-16	36	128	138	12
-3760	-7628	14272	26	-9	-14	-13232	-8048	7112	43	-6	-34	2112	-4496	16952	54	-11	7	-2304	5896	14272	-5	29	-21	-12936	6480	7656	-56	18	-1	752	3040	16096	-5	-17	24	127	140	12
-3960	-7444	13344	-18	20	-30	-11792	-7536	6632	-8	8	18	2168	-4112	15464	55	11	2	-1656	5992	13440	27	29	-19	-11920	6168	7656	9	18	-5	1272	2480	15360	5	-11	17	126	136	12
-4108	-7368	12668	-33	20	-44	-10528	-7896	6464	-44	-8	41	2288	-4000	15008	25	17	10	-1640	6256	14136	2	18	-29	-11752	6344	7960	68	0	18	1328	2480	15608	30	-2	26	126	136	12
-4124	-9016	13700	0	-31	-40	-10824	-8984	6552	-21	1	22	2120	-4040	15816	0	-2	11	-1848	5976	15752	-75	13	-51	-13872	7024	8808	54	-23	31	776	2768	17240	27	-16	20	127	138	12
-4880	-9488	14580	45	-52	-12	-12648	-9408	6848	54	-7	-62	1736	-4392	16976	13	-29	7	-1752	5424	15920	-84	5	-49	-15416	7184	8504	-74	-27	45	32	3064	18048	-27	-40	-1	128	142	12
-4392	-7880	14668	49	-31	-4	-13728	-8016	6968	74	3	-80	1568	-4760	16792	28	-23	0	-1944	6224	14192	17	29	-13	-14128	6320	7488	-48	-15	6	336	3096	17432	-75	-42	-13	127	143	12
-4696	-6780	13712	-39	20	-36	-12344	-7264	6160	10	11	7	2128	-4584	16248	42	-8	-3	-2000	5544	13904	39	17	-3	-12520	6528	8088	70	-8	-18	1384	2528	16424	-55	-43	6	127	139	12
-4088	-7820	13412	-34	22	-37	-11000	-8104	6528	-123	-19	43	2624	-4440	15800	18	-1	18	-1496	6824	14640	6	15	-16	-12240	7344	8608	37	9	-1	1824	2464	16528	34	-6	29	126	132	12
-3644	-8780	13608	20	-13	-11	-11360	-8880	7072	-88	-23	9	2656	-4512	16136	-5	1	33	-1840	7216	14480	-28	35	-27	-12720	7128	7944	-79	14	35	1280	2792	16728	87	26	37	126	132	12
-4652	-7672	13964	32	-27	-1	-12256	-8800	6976	31	6	-26	2144	-4584	16688	17	17	21	-2480	6448	14616	-32	30	-38	-13536	6800	7616	-53	11	45	216	3112	16832	49	14	33	126	139	12
-4976	-7204	14404	37	-28	-4	-12824	-8120	6784	59	36	-8	1808	-4440	16840	32	35	9	-2184	4848	14360	4	36	-34	-13432	6696	7576	-34	13	42	224	2872	16368	5	-1	22	125	142	12
-4264	-6848	14064	4	-3	-16	-12496	-7504	6896	23	18	30	1864	-4264	16216	45	34	-4	-1632	5408	13232	8	31	-30	-12416	6672	7312	37	-3	13	712	2992	15496	-9	-15	12	124	138	12
-4540	-7404	12708	4	34	-15	-11344	-7320	5856	4	19	48	1816	-3896	15224	32	29	-15	-1968	5912	13704	17	23	-27	-11832	6472	7272	105	15	12	808	2824	15424	7	-13	20	125	137	12
-3804	-8964	13568	27	-7	-18	-10656	-8056	6520	-33	3	50	1640	-3528	15448	9	14	-19	-1456	7256	15176	-51	2	-41	-12936	7208	8528	138	-8	18	712	2736	16376	17	-23	20	127	138	12
-4756	-9288	14220	52	-38	-2	-12536	-9024	6824	23	-18	-22	1368	-4016	16448	0	-30	-15	-2592	6592	16488	-79	12	-60	-14832	7632	8312	-56	-6	54	104	2992	18256	-10	-36	1	127	141	12
-5088	-8204	15292	44	-57	-8	-14120	-8320	6976	87	7	-77	952	-4336	17904	16	-51	-5	-2072	5736	16000	-33	14	-30	-15800	6944	8080	-91	-10	17	-328	3056	18360	-76	-54	-26	129	143	12
-4980	-7152	15476	-4	-8	-24	-14072	-7576	6736	-4	-21	-46	1144	-4416	18008	21	-52	-8	-2496	5744	15016	36	26	-14	-14088	6832	8168	-9	-39	4	688	2816	17504	-88	-57	-25	129	142	12
-4768	-7152	14356	-63	24	-52	-12456	-8304	6768	-90	-30	-1	2280	-4760	16648	46	-20	20	-1960	6104	14584	34	17	-4	-13016	6928	8512	44	-40	-10	1552	2608	16848	-9	-34	11	128	136	12
-4416	-8356	13600	-48	26	-50	-11088	-8928	6864	-111	-33	10	2376	-4608	16560	39	-20	26	-1912	6656	14136	8	19	-14	-12120	7256	8512	-13	-3	5	1784	2616	16344	75	16	44	126	132	12
-4548	-8444	12928	-16	-2	-28	-11040	-9136	6432	4	-11	-23	2480	-4864	15888	-7	29	41	-2376	5712	14064	-35	24	-38	-12312	6840	7592	-61	19	24	1008	2792	16312	97	32	68	126	134	12
-4292	-7976	13800	21	-43	-25	-11920	-8736	6488	80	30	-31	1832	-4888	16208	3	45	32	-2080	5576	14632	-65	14	-53	-13432	6464	7848	-8	47	2	184	2816	16504	51	12	66	126	138	12
-4720	-7628	13908	37	-21	-4	-12632	-8096	6176	51	16	-10	1464	-4568	15904	25	35	16	-2456	5856	14136	-46	9	-36	-13760	6640	7568	3	47	7	-304	2664	16656	-16	-21	53	125	138	12
-4784	-6852	13420	34	0	-2	-12192	-7592	5928	44	17	15	1216	-4544	15624	40	12	0	-2352	6160	13672	12	23	-20	-12744	6248	6848	41	23	7	-48	2400	15648	-27	-33	32	125	138	12
-4448	-6904	13336	1	-6	-22	-11520	-7424	5976	-9	1	60	1360	-4184	15416	53	-12	-15	-2096	6856	14064	16	16	-17	-12400	6440	7240	102	-8	13	320	2128	15448	-5	-42	34	126	136	12
-4756	-8168	13604	32	-29	-9	-11816	-8504	6328	-47	-12	41	1368	-3760	16008	40	-40	-9	-2440	6480	15208	-41	9	-34	-13560	7208	7784	30	-27	43	392	2240	16664	22	-40	23	127	135	12
-4908	-7804	14056	68	-42	11	-12896	-8560	6416	2	-24	-17	1376	-3976	16920	16	-49	-13	-3200	5920	15216	-44	23	-27	-14184	6976	7776	-81	-13	61	-176	2808	17520	19	-23	-14	127	138	12
-5116	-8456	14080	30	-28	-13	-13056	-7856	6592	43	8	-17	1400	-4048	17056	26	-29	-29	-2352	6048	14760	22	27	-5	-14248	6320	7328	-19	-25	27	-32	3128	17008	-27	-27	-33	128	141	12
-4892	-6796	13852	3	15	-19	-12728	-7280	6656	-12	1	4	1720	-4016	16536	24	11	-15	-2368	5464	14552	26	15	-12	-13016	6920	7736	88	-38	23	544	2872	16664	-26	-19	-36	127	139	12
-4576	-8700	13624	-6	5	-26	-11840	-8176	6528	-36	-6	23	1992	-4000	16280	14	16	1	-2624	7112	14264	25	31	-19	-12944	7640	7840	35	-17	23	968	3192	16824	4	-2	-13	126	137	12
-4600	-7480	14120	-4	-3	-22	-12104	-8112	6416	-2	15	-9	1800	-4048	16136	-12	23	22	-2688	6264	14456	-22	35	-36	-13256	7592	7952	-5	0	27	512	3408	17040	17	0	11	126	138	12
-5620	-7904	14296	23	-2	-5	-12784	-8376	6744	22	18	-31	1584	-4336	16936	5	25	27	-3016	6272	14600	-23	39	-45	-13656	7560	7456	-24	28	21	192	3360	17152	4	8	22	127	139	12
-5204	-6596	14444	21	-10	-3	-13336	-7952	6768	48	35	-22	1216	-4528	16816	23	31	30	-2632	6392	14640	-4	43	-36	-13272	7232	7696	-2	51	-8	-104	3368	16504	-1	9	27	127	138	12
-4896	-7328	14160	-34	19	-32	-12768	-7632	6504	-5	19	26	1376	-4176	16440	37	31	18	-2464	5656	13848	13	46	-45	-12640	6824	6888	-22	35	-3	488	3016	15904	6	10	33	127	136	12
-4632	-8372	13580	-12	21	-30	-11728	-7944	5608	-34	21	24	1472	-4216	15608	23	29	13	-2440	6960	13736	1	46	-39	-12760	6656	7624	77	24	-5	464	2672	16024	15	5	42	126	135	12
-4864	-8724	13744	-5	-7	-29	-11616	-8680	6240	-33	-3	2	1320	-4096	15864	15	9	4	-2544	6624	15552	-72	16	-58	-14048	7176	7704	43	14	4	-80	2480	17064	8	-15	40	127	137	12
-5148	-9060	14016	36	-28	-16	-12704	-8872	5824	29	7	-57	776	-4432	16400	6	-20	-1	-2888	5128	15576	-69	5	-55	-14592	6736	7304	-34	10	3	-744	2664	17096	-24	-26	26	127	139	12
-4944	-8104	14208	24	-21	-25	-13176	-8104	6040	48	8	-58	864	-4872	16656	13	-19	-6	-2784	5600	14784	-8	16	-33	-14216	6256	7080	-16	-1	-24	-360	2112	16936	-55	-39	18	128	139	12
-5024	-7472	13604	0	-3	-36	-12496	-7656	5648	0	-10	-22	1080	-4824	16192	30	-8	-6	-2592	6280	15056	4	-1	-25	-13320	6680	7352	45	-9	-21	392	1688	16544	-41	-44	20	128	138	12
-4804	-8408	13760	2	-21	-44	-12184	-8592	6184	-69	-38	0	1352	-4712	16416	30	-21	5	-2704	7040	15568	-6	-2	-17	-13696	7120	7656	-9	-20	19	528	1560	16984	15	-36	30	127	135	12
-4728	-8352	14296	19	-42	-32	-12808	-8960	6496	-39	-42	-25	1272	-4952	16864	25	-38	20	-2936	6160	15216	-15	3	-27	-14408	6904	7504	-88	-33	60	-200	1984	17480	67	-31	28	127	138	12
-4820	-7496	14312	37	-33	-20	-13104	-8696	6480	19	-30	-27	1584	-5304	16784	44	-27	24	-2656	6200	14304	48	15	-4	-13664	6376	7024	-15	-36	43	112	2200	16696	73	-24	15	127	138	12
-4972	-7172	13548	8	-16	-21	-12504	-7816	6128	28	-23	38	2064	-4960	16624	79	-3	12	-2984	5000	13904	40	21	-9	-12800	6544	7216	51	-34	57	648	2608	16264	59	-19	8	126	137	12
-5064	-8648	12732	5	7	-31	-11768	-8248	5728	20	0	67	2024	-4296	15872	61	14	1	-2752	6520	14440	23	5	-11	-12760	6352	7520	100	-19	50	640	2776	16216	56	-13	7	124	135	12
-4536	-7640	13432	23	-28	-16	-11576	-8720	6472	17	-2	58	1672	-4048	15856	33	16	-15	-2440	6360	15064	-3	3	-27	-12976	6504	7480	120	-18	52	328	3264	17120	43	-14	1	124	136	12
-5496	-8592	13628	63	-40	-1	-12352	-8664	5808	83	17	-4	1080	-4064	16648	22	-4	-27	-3256	5712	15536	-43	2	-34	-14744	7808	7568	30	-26	63	-496	3416	17800	-10	-37	-12	125	139	12
-5260	-8180	14560	78	-58	0	-13880	-7864	6448	102	22	-22	568	-3912	16904	28	-28	-34	-2712	5616	15240	5	15	-21	-14768	7432	7832	-21	-12	33	-424	3472	17136	-42	-36	-25	126	140	12
-4976	-7152	14028	25	-6	-6	-13472	-6736	6336	33	-6	6	944	-3872	16536	25	-18	-26	-2928	5880	13744	51	34	-14	-12768	7160	6912	-39	-12	9	368	3144	16032	-45	-30	-17	127	138	12
-4956	-6524	13412	-12	4	-28	-12048	-6864	6128	-53	-3	31	1488	-3632	15904	14	10	-13	-2864	6776	13928	18	20	-17	-11904	7120	7616	36	-21	1	768	3032	16112	-8	-7	9	126	135	12
-4976	-7900	13448	10	-2	-19	-11864	-8024	6184	-130	-16	23	1496	-3432	16120	-16	16	5	-2528	6920	14104	-27	14	-26	-12936	7736	7384	-17	10	15	392	2880	16192	57	15	24	126	136	12
-4856	-7628	13820	10	-15	-21	-12384	-7976	6032	-46	-13	-23	1440	-3936	16096	-23	23	12	-2808	5792	14400	-42	21	-49	-13056	6824	7216	-41	21	16	-88	3208	16664	58	16	35	127	138	12
-5104	-7632	13660	9	-2	-20	-12744	-7792	6360	44	15	-37	968	-4176	16504	16	27	11	-2808	5752	14568	-53	24	-55	-13760	6736	6952	36	5	1	-288	3184	16776	-3	-2	21	127	140	12
-5116	-7248	13900	-13	6	-33	-12744	-7768	6264	50	28	-26	1264	-3968	16216	35	24	15	-2808	5272	14296	-33	28	-45	-13624	6776	7448	67	9	-18	0	2928	16560	-60	-19	9	127	141	12
-4768	-7624	13204	-34	31	-35	-12248	-7520	5904	8	12	-24	1272	-4008	15632	25	17	18	-2744	5296	13608	-14	37	-41	-12704	6432	6848	40	14	-26	408	2720	15984	-42	-11	18	127	138	12
-4900	-7556	13032	-43	32	-41	-11600	-7536	5680	-9	24	-13	1528	-4240	15392	12	11	27	-2552	5496	13568	-12	40	-40	-12736	6808	7616	69	25	-33	728	2304	16392	-24	-5	30	127	137	12
-4892	-8888	13308	-11	14	-30	-11576	-8408	5904	-48	9	-37	1328	-4440	15736	-2	0	32	-2792	6184	14528	-57	26	-53	-13568	7296	7392	-50	35	-6	248	1992	16616	-17	3	23	127	137	12
-4936	-8624	13548	12	-2	-22	-11824	-8424	6032	-48	6	-37	1176	-4912	16392	0	-12	32	-2568	5664	14624	-36	35	-48	-13816	6080	6976	-113	42	6	-256	2032	16528	-11	11	14	127	138	12
-4780	-6840	13508	-5	7	-17	-12704	-7744	5824	6	19	-30	1192	-5224	16016	26	-2	26	-3456	5224	14752	-33	33	-47	-13496	6192	6704	0	21	0	-224	2296	16480	-42	-5	19	127	138	12
-5496	-8556	13128	-15	15	-30	-11944	-8624	5800	-47	26	9	1272	-4792	15968	47	7	23	-2944	5800	15008	-28	20	-37	-14144	6432	7712	80	10	-10	-88	1880	16936	-37	-29	17	126	138	12
-4804	-7504	13660	7	6	-4	-12144	-8744	5800	-81	-6	-2	1312	-4952	15800	22	16	19	-2608	5800	14216	0	31	-26	-13664	6768	7040	33	-8	15	-304	2088	16512	12	-14	19	126	137	12
-4996	-6992	13416	13	4	0	-12200	-8376	5976	13	13	4	1352	-5128	16088	21	8	11	-3056	6352	13736	15	34	-19	-12736	6520	6792	38	-20	33	160	2520	16264	47	9	19	126	134	12
-5088	-7488	13512	24	2	-6	-12304	-7840	5760	75	25	39	1360	-4616	16376	27	35	-8	-2520	6520	14192	7	30	-25	-12864	7008	7360	80	2	26	424	2552	16400	63	16	16	127	137	12
-4844	-7824	13360	36	10	3	-12288	-7952	6008	12	7	48	1352	-4176	16200	22	42	-26	-3096	5312	13736	-7	48	-35	-12944	6800	6856	-28	17	42	216	2864	16000	53	27	2	126	136	12
-4960	-7196	12792	36	16	9	-11864	-7512	5776	21	24	50	1448	-3680	15928	6	62	-35	-2976	5736	13240	36	51	-29	-12496	6304	6688	-1	13	40	104	2944	15776	37	32	-13	127	137	12
-4560	-7228	12664	37	15	-1	-11384	-6936	5800	4	35	72	1360	-3680	15272	9	61	-37	-2280	5680	13728	-2	38	-35	-12560	6472	7032	115	6	24	208	3040	15592	12	25	-7	127	138	12
-4932	-7372	13220	42	-2	5	-11512	-7640	6112	-13	29	50	1168	-3480	15344	6	55	-30	-2792	6376	13944	-16	40	-53	-12672	7048	7336	63	15	19	240	2968	16048	-3	19	-10	126	139	12
-4820	-7432	13592	50	-3	8	-12184	-7448	5840	20	39	7	944	-3440	15728	2	33	-18	-2008	6336	13432	-9	49	-41	-13040	6840	7040	-19	15	21	-88	2944	16016	-14	12	-15	127	139	12
-5016	-7820	13060	19	20	-6	-12304	-6800	5328	12	30	-9	800	-3536	15816	6	22	-10	-2944	5552	13512	-11	38	-50	-12616	6488	6600	13	24	8	16	3280	16208	-50	6	-13	127	139	12
-5248	-6920	13412	10	7	-12	-12448	-7328	5536	-16	33	-10	640	-3896	16136	23	10	3	-3024	5096	15608	-54	10	-61	-13536	7040	7856	122	22	-14	-216	2600	17024	-72	-15	-2	127	138	12
-4864	-8472	14580	-6	-11	-30	-13256	-8712	6384	-57	3	-35	696	-3968	17016	26	-24	15	-3136	6720	16288	-90	17	-67	-15072	7912	8096	-12	13	3	-488	2624	18088	-72	-37	-3	127	139	12
-5336	-8028	14676	-12	16	-37	-13896	-8784	6064	0	7	-90	760	-4464	17224	21	-35	33	-2648	5680	15680	-32	42	-44	-15304	6544	7680	-64	10	-14	-672	2592	17752	-60	-34	6	128	139	12
-4884	-7760	14216	-51	45	-45	-13040	-7712	6264	0	0	-72	1432	-5024	16536	31	-14	43	-2600	5312	15624	-8	41	-45	-13512	6640	7200	22	-5	-29	632	2360	16712	-33	-25	15	128	141	12
-5132	-7760	13024	-85	60	-55	-12024	-8328	5800	-15	13	-22	1864	-5104	16072	26	12	59	-2688	6888	14472	-16	31	-38	-12856	6696	7712	25	24	-32	1048	2024	16792	8	4	41	128	135	12
-4988	-8304	13632	-40	15	-37	-11632	-9200	5864	-55	8	-13	2040	-5016	15984	-3	23	53	-2664	6824	14200	-18	32	-39	-13576	6992	7752	-14	31	-15	672	2000	16728	58	24	45	126	134	12
-5384	-7396	13536	-13	2	-11	-12120	-8712	5816	-8	13	-30	1320	-5160	16472	1	38	41	-3528	5040	14064	-33	27	-41	-13392	6456	6760	-38	36	26	-128	2352	16400	50	27	48	126	136	12
-5156	-7208	14252	37	-29	-7	-12864	-8688	6216	29	30	-6	1056	-5368	16552	38	34	18	-2128	7232	15456	-30	1	-25	-13992	6752	7520	88	21	15	-544	2056	16568	18	4	40	126	138	12
-4692	-8468	14404	29	-22	-12	-13136	-8792	6320	-2	-1	29	976	-4888	16560	74	12	-1	-2384	6168	14704	-12	22	-26	-14000	6768	7400	-24	3	35	-552	2152	16688	16	-1	38	126	136	12
-4816	-7620	12788	17	11	-10	-12304	-7984	5592	2	-14	25	1088	-4448	15656	50	12	-25	-3080	5176	13144	17	29	-21	-12808	5720	6048	-34	-25	45	-256	2504	15424	4	-17	2	125	136	12
-4672	-7036	12076	12	15	-13	-10880	-7536	4992	23	25	76	1504	-3928	14624	23	29	-50	-2080	5720	13472	31	12	-15	-12728	5720	5856	0	-24	39	376	2240	15120	23	-17	7	125	136	12
-4484	-8788	12792	70	-30	-7	-10664	-8024	5784	-7	0	71	1336	-3520	14904	-14	29	-56	-1784	7512	13720	0	9	-15	-12336	7344	7456	100	-36	34	536	2120	15312	30	-15	4	126	138	12
-5288	-7924	13264	89	-57	5	-12176	-7552	5760	77	-4	7	800	-3576	15800	-22	5	-55	-2168	5992	14136	-4	9	-30	-13072	6864	6792	-68	-20	85	-384	2576	16328	56	4	-20	127	138	12
-4620	-7004	14184	108	-75	9	-13304	-7048	6504	53	-1	-9	424	-3808	16336	8	-1	-46	-3072	5760	13096	22	37	-23	-13256	6672	6384	-65	-27	50	-320	2832	15760	12	-6	-28	127	141	12
-5608	-6044	14004	57	-27	-12	-12976	-6512	5456	27	1	20	712	-3920	16208	61	-11	-31	-2368	5408	14168	28	6	-17	-12848	6568	7584	88	-29	39	16	2952	16328	-16	-42	-15	127	141	12
-5324	-7272	13280	0	3	-31	-12584	-7504	5840	-66	-42	37	1208	-3632	16784	84	-34	-9	-2856	6184	15104	-14	18	-25	-13832	7440	7384	26	-16	57	216	2800	17280	-8	-60	-10	128	139	12
-5004	-8416	13844	-1	-2	-35	-12592	-8616	6576	-53	-18	-2	1616	-3840	16864	58	-35	22	-2904	6024	15624	-12	34	-38	-14808	6584	7776	38	-26	23	480	3224	17856	10	-52	-10	127	139	12
-5096	-7940	13932	-16	18	-33	-12816	-8352	6672	7	-5	-43	1608	-4240	17264	41	-13	39	-3088	5664	14760	-10	45	-41	-14288	7192	7336	29	-24	20	816	3272	18024	-30	-27	-1	127	140	12
-5944	-8052	14120	-24	21	-34	-12536	-8488	5712	55	46	-54	1592	-4584	17080	31	9	51	-2264	6696	15832	-14	17	-28	-14488	7552	8840	108	35	-25	672	2808	18368	-37	0	19	126	138	12
-4732	-9448	14768	-27	25	-34	-13280	-8920	6720	-17	23	-36	1808	-4848	16616	21	6	54	-2176	6608	14832	-10	43	-36	-14296	7856	8224	-60	51	-11	504	2736	17360	-9	31	26	126	133	12
-5316	-6760	13420	-5	35	-5	-12736	-7840	5704	8	17	-52	1192	-5224	16272	20	28	53	-3480	5384	13464	8	62	-35	-12136	6440	6480	-114	76	1	232	2768	15424	22	68	56	125	134	12
-4440	-6680	12672	1	35	-18	-11384	-7272	5800	-20	41	31	1672	-4832	15216	37	69	44	-2784	6504	13632	10	52	-39	-11200	6504	6752	38	96	-30	320	2104	14752	42	73	90	125	135	12
-4672	-8228	13244	19	-20	-21	-11208	-8640	5656	-74	28	59	1632	-4432	15280	40	74	44	-2800	6960	15264	-74	27	-56	-13008	7152	7568	-4	61	18	-440	1480	16208	56	33	89	124	134	12
-5588	-8320	14292	84	-61	9	-12664	-9208	5960	-34	-2	-6	432	-4608	16368	37	39	29	-3480	6200	15528	-98	11	-67	-13440	7152	7328	-10	56	22	-1720	2192	17232	37	-1	55	125	137	12
-5688	-8464	15408	87	-78	-2	-14280	-8816	6416	60	1	-19	-128	-4624	17480	75	-10	-4	-2848	6008	15928	-29	-7	-32	-16224	6432	7376	103	-49	51	-2080	2504	17856	-19	-65	14	127	141	12
-5260	-7056	14916	70	-29	2	-14496	-7896	6216	41	-39	-2	240	-4504	17128	95	-46	-43	-3224	5296	15096	53	12	-4	-14296	6880	6944	125	-85	54	-664	2640	16840	-26	-85	-33	128	141	12
-4676	-7456	13604	2	6	-34	-12912	-7584	6032	21	-37	54	1312	-4024	16072	72	-42	-70	-2784	6000	13480	129	24	18	-12344	6328	6856	61	-71	19	-560	2376	16536	-18	-81	-38	128	136	12
-4884	-6632	13012	-11	11	-41	-10704	-7336	5856	1	-34	88	1856	-3600	15040	15	-15	-67	-2104	6848	13560	82	-2	8	-11272	6824	7384	48	-71	57	1536	2536	15640	134	-3	-31	128	134	12
-5420	-9532	13680	29	-58	-42	-11008	-8752	5968	26	-30	49	1736	-3272	16504	-16	-6	-48	-2304	7560	15760	-17	-24	-21	-13784	7928	8480	5	-68	91	464	2832	17984	92	-7	-19	127	137	12
-5412	-8776	15280	83	-105	-10	-14264	-9072	6904	80	-36	-59	808	-4080	18120	-15	-44	-16	-3000	6000	16792	-66	-27	-35	-16384	7608	8472	-139	-30	88	-1008	3768	19424	7	-51	-29	127	144	12
-5488	-7772	15412	49	-56	-14	-15288	-8080	6592	93	-16	-72	784	-4736	18592	45	-56	-7	-3504	5344	15984	25	7	-3	-16016	6816	7624	-53	-63	42	-928	3888	18600	-95	-91	-41	128	145	12
-5156	-6500	14232	-42	12	-46	-13592	-7064	5960	5	-10	-1	1464	-4688	16784	70	-44	4	-2672	6136	14696	84	1	19	-13272	7272	7760	138	-74	-3	648	3432	17032	-93	-114	-17	127	143	12
-4780	-8652	13312	-83	34	-73	-11656	-8152	6008	-119	-31	56	2272	-4264	15864	35	-34	18	-2312	7208	13968	31	9	2	-11856	8176	8256	82	-12	-13	1752	2760	16896	5	-64	45	126	132	12
-5112	-7936	13620	-12	-12	-32	-11280	-9016	6384	-69	-25	-4	2088	-4176	16240	-23	-25	37	-2856	6808	14160	-62	5	-35	-12688	8008	7880	-68	11	28	1016	2936	16712	117	15	86	125	126	12
-5212	-7800	14252	48	-53	-5	-12736	-8576	6352	70	3	-57	1408	-4520	16896	-4	2	28	-2952	5744	14168	-70	7	-49	-13584	7264	6888	-78	48	17	-224	3384	16704	119	39	79	126	134	12
-4948	-7816	14400	50	-60	-10	-13528	-7208	6104	103	17	-40	928	-4296	16904	34	24	6	-3184	6128	13880	-34	4	-34	-13536	6616	6696	-46	53	-2	-656	3208	16472	32	14	57	126	139	12
-4872	-6692	13784	5	-9	-26	-13016	-6960	5816	11	11	20	952	-4112	15888	62	22	-7	-2480	6632	14112	-7	0	-17	-13280	6376	7008	73	8	-10	-568	2664	15696	-32	-26	39	125	139	12
-4860	-7660	12972	-15	1	-34	-11888	-7464	5728	-55	-22	36	1272	-3776	15728	47	4	-10	-2960	5976	14416	-41	14	-45	-13072	6904	6880	52	-21	10	-208	2488	16232	-38	-56	35	125	138	12
-5420	-8736	13740	24	-47	-30	-11760	-8624	5760	-33	-14	7	1104	-3848	16296	23	-15	-6	-2624	6488	15760	-66	3	-39	-14328	7112	7504	68	-38	8	-400	2392	17256	-27	-65	31	127	140	12
-5052	-8088	14768	37	-48	-15	-13416	-8616	6472	22	-24	-50	976	-4192	17432	6	-37	-8	-3160	5656	15744	-48	-6	-30	-15168	7200	7688	-51	-43	40	-272	2552	18128	-12	-53	-6	129	140	12
-5092	-7292	14704	10	-22	-16	-14144	-7776	6584	57	-13	-52	1056	-4344	17456	15	-32	-16	-3112	5464	14576	17	19	-3	-14472	6472	7304	-64	-30	16	176	2880	17072	-5	-21	-42	129	139	12
-5140	-6768	13492	-38	29	-24	-12632	-6928	6288	-18	-15	6	1832	-4032	16336	5	2	-13	-2640	7064	13008	84	32	13	-12288	6768	7200	18	-23	6	1136	2816	16160	18	0	-39	127	137	12
-4704	-6488	12952	-59	32	-44	-11008	-7256	5976	-71	7	44	2328	-3896	15280	-23	36	-7	-2152	6720	13144	43	30	2	-11544	7240	7960	64	-7	6	1208	3040	15672	41	25	0	126	135	12
-4440	-8024	13056	-1	-2	-17	-10784	-8048	6288	-79	-13	33	2040	-4080	15408	-32	42	15	-2064	6960	13560	-25	39	-34	-11984	7616	7568	-14	10	39	792	3144	15864	56	29	29	125	136	12
-5316	-8084	13440	45	-28	15	-12192	-8304	5952	29	23	-24	1368	-4296	16488	-8	35	29	-2840	6296	14464	-75	40	-56	-13272	7408	7304	-36	31	45	-304	3600	16672	11	15	40	126	140	12
-5236	-7336	14368	41	-42	8	-13440	-7680	6232	76	43	-31	664	-4128	16944	25	29	24	-2864	5488	14536	-48	40	-55	-14216	6880	6936	-15	50	5	-744	3568	16784	-58	-10	30	125	142	12
-5108	-7048	14556	4	-7	-10	-13784	-7272	5960	36	49	1	432	-4096	16688	57	9	15	-2200	6280	14120	-7	27	-37	-13640	6872	7096	53	38	-22	-456	3064	16264	-90	-41	21	126	141	12
-4908	-6852	13660	-21	27	-20	-12408	-7136	5712	-46	8	25	888	-3856	15616	42	-4	10	-2592	6080	13832	-2	26	-33	-12616	6968	7024	108	12	-16	216	2608	15832	-42	-32	29	126	136	12
-4704	-8192	13168	-13	15	-29	-11464	-7888	5776	-67	-1	27	1264	-3696	15560	22	-15	3	-2648	6240	14336	-33	26	-42	-12824	7280	7496	56	8	-2	248	2376	16128	27	-4	41	127	134	12
-4908	-8512	13596	1	-3	-27	-11960	-8344	6040	-4	-5	-22	1232	-4056	16144	-6	-10	5	-2872	5872	15320	-80	6	-49	-14256	7016	7664	-21	13	14	32	2608	17040	39	3	29	128	136	12
-5376	-7916	14048	30	-18	-12	-13232	-8328	6112	17	-10	-68	1064	-4432	16824	-1	-3	8	-2856	6344	15520	-52	14	-31	-14448	6968	7488	-41	14	8	-608	2576	17736	-14	-5	7	129	139	12
-5396	-7460	14592	6	-21	-25	-13560	-7856	6136	23	6	-60	1032	-4640	17136	26	-4	11	-3456	5384	16160	-23	12	-30	-14904	6640	7736	26	-14	-9	-192	2544	17800	-69	-37	-6	128	140	12
-4984	-8192	14164	-36	7	-38	-13248	-8336	6568	-81	-20	-38	1280	-4720	17120	41	-8	30	-3088	5824	15272	12	19	-13	-14160	7128	7600	6	-24	-4	-192	2528	17760	-76	-45	-3	127	139	12
-4892	-7508	14280	-15	5	-28	-12624	-8480	6448	-85	-22	-35	1592	-4760	16704	20	-1	42	-2560	6320	14264	22	26	-8	-13352	7432	7576	-22	-19	12	344	2424	17488	-59	-42	4	126	137	12
-4836	-7984	13968	-25	4	-30	-12360	-8376	6552	-34	-10	-5	1856	-4616	16384	10	10	34	-2624	7088	14104	0	27	-17	-12592	7192	7128	-42	6	23	648	2504	16280	66	16	39	126	135	12
-5304	-8224	13644	4	-9	-21	-12296	-8576	6160	18	10	10	1504	-4536	16544	10	21	28	-2608	6360	14064	-23	21	-27	-12824	7024	7240	-30	26	27	104	2696	16320	86	20	41	124	135	12
-5040	-7764	13992	36	-26	-13	-12504	-8104	5992	51	23	17	1400	-4256	15992	6	33	9	-3280	5392	14136	-34	16	-39	-13344	6856	7224	18	23	29	-408	3024	16240	49	13	30	125	135	12
-5288	-7860	13400	42	-25	-5	-12632	-7680	5584	53	17	21	864	-4080	16272	32	10	-18	-3328	5696	14672	-29	3	-36	-13472	6912	7016	49	8	33	-704	3080	16008	5	-23	24	124	139	12
-5036	-7820	13912	29	-34	-22	-12448	-7864	5720	26	14	30	640	-4064	15952	36	-14	-30	-2248	6368	14840	-19	-6	-27	-13888	7016	7376	95	-12	5	-720	3008	16424	-31	-55	12	126	139	12
-5100	-7748	14232	23	-37	-23	-12680	-8000	6032	21	-13	-3	680	-3696	16256	30	-44	-42	-2936	6656	15288	-28	-7	-28	-14136	7352	7272	27	-52	24	-504	2784	17288	-45	-82	-6	127	140	12
-5160	-7352	14020	20	-37	-17	-13416	-7888	5680	46	-18	-36	568	-3888	16888	9	-53	-35	-2928	5368	15256	-24	-8	-15	-14376	6864	7424	-2	-44	17	-232	2736	17392	-43	-64	-11	128	139	12
-5092	-7416	14336	9	-17	-22	-13120	-7456	6280	-32	-40	-33	1056	-3840	16592	-10	-39	-23	-3384	6032	14008	21	22	-13	-13192	7224	7432	-33	-31	-11	648	2648	16576	-22	-40	-18	129	137	12
-5400	-7520	13364	-18	4	-38	-12592	-7424	5664	-44	-24	-19	1704	-4136	16440	-8	-3	-5	-2648	5936	14088	30	15	-4	-12528	6656	7552	-21	-15	3	1008	2632	16200	31	-2	2	128	137	12
-4708	-7704	13716	-26	-7	-41	-11928	-7912	6448	-92	-36	-4	2056	-4328	16040	-9	13	22	-2264	6888	14064	-7	15	-18	-12992	7352	7760	3	-9	24	920	2544	16568	51	13	19	127	135	12
-5100	-8312	13500	-17	-14	-34	-12304	-8536	6296	-29	-18	-28	1408	-4608	16424	13	10	31	-3232	5440	14544	-47	16	-48	-13672	6872	6984	-58	13	32	-96	2936	16984	37	7	41	127	138	12
-5132	-8268	13844	13	-24	-23	-12728	-8688	6272	56	18	-39	1048	-4792	16592	42	6	35	-2984	6336	14536	-41	25	-41	-14176	7048	7296	6	15	4	-552	2848	17304	-6	-22	48	126	139	12
-5644	-7832	13840	-6	-7	-25	-12872	-8352	5584	83	24	-29	1016	-4736	16632	63	-5	35	-2568	5512	14800	-29	12	-28	-14192	6560	7504	44	22	-8	-320	2640	16944	-35	-44	44	126	139	12
-5208	-6940	13716	0	0	-15	-12496	-7984	6096	39	4	-13	1152	-4480	16048	52	-10	29	-3512	5448	13904	2	29	-30	-13216	6944	6952	50	8	4	216	2384	16344	-36	-32	27	125	137	12
-5284	-7504	13168	-5	7	-24	-12256	-7888	5280	9	12	11	1224	-4352	15832	33	-9	13	-2872	5832	14128	15	16	-27	-12640	6984	6840	41	14	11	264	2192	16096	7	-4	33	126	136	12
-4932	-8456	13940	28	-31	-18	-12352	-8224	6208	-33	-4	20	1016	-4480	16440	31	-13	5	-2144	7432	14136	9	15	-24	-13936	7448	7760	1	4	35	-328	2104	17008	41	-1	34	127	135	12
-4908	-8024	14100	44	-33	-7	-13360	-8616	6048	-30	-26	-10	1016	-4536	16848	32	-23	-3	-3144	5968	14744	-26	27	-33	-14360	6832	6656	-133	12	59	-704	2560	17128	48	5	14	127	137	12
-5656	-7876	13776	30	-19	-10	-13144	-7784	5784	16	2	3	704	-4552	16936	42	-1	-8	-2632	6120	15048	3	13	-17	-14432	6144	7224	33	-16	28	-440	2720	17064	4	-18	6	127	138	12
-5296	-8248	13756	15	-5	-20	-12712	-8072	6136	-49	-16	28	1280	-4280	16672	45	14	-6	-2576	6120	14920	21	23	-14	-13968	6984	7352	92	-34	24	32	2360	17032	-13	-26	-9	127	139	12
-5200	-8120	13704	10	-6	-17	-12152	-8200	6176	-29	-8	14	1368	-4104	16272	18	27	2	-2824	6008	14080	28	29	-12	-13296	7088	7192	37	-29	28	256	2768	16928	8	-4	-3	126	138	12
-5600	-7404	14156	35	-25	-1	-12384	-8016	5808	17	0	7	1184	-4168	16568	4	24	-2	-2560	6168	14440	7	17	-17	-13216	7624	7552	52	-22	44	448	2744	16824	38	9	8	126	138	12
-5240	-7792	14260	33	-23	-4	-13064	-7992	6520	34	-1	10	1272	-4328	16664	-2	22	1	-2856	6856	14376	2	24	-20	-13264	7640	7176	-26	5	45	-80	3128	16856	51	11	16	127	137	12
-5372	-7208	14572	43	-28	-8	-13464	-7672	6248	47	5	0	944	-4056	16856	41	2	4	-2896	5888	14656	7	20	-21	-13568	7216	7192	-43	23	39	-264	3288	16432	33	3	11	126	137	12
-4784	-6604	13576	18	-3	-9	-12800	-7304	6136	7	-9	19	1016	-4072	16280	45	4	6	-2808	6208	13568	40	25	-14	-12680	6744	6856	-18	15	33	-224	3152	15416	16	-2	12	125	137	12
-4440	-6664	12484	-26	19	-28	-11504	-7008	5552	-19	10	47	1360	-3784	15272	46	20	3	-2488	6576	13616	19	25	-15	-12064	6400	6600	60	4	6	184	2928	15184	18	-5	33	126	138	12
-4876	-8148	12920	27	-11	-16	-11088	-7984	5608	-30	3	36	1080	-3664	15456	26	12	9	-2704	8024	14864	-44	9	-37	-12928	7664	7448	114	0	19	-168	2376	16392	18	-22	34	126	138	12
-5748	-8784	14056	44	-57	-17	-12944	-8584	5928	35	-7	-27	624	-3848	17144	27	-31	10	-3416	6256	16912	-113	-4	-65	-15440	7864	7600	-1	-23	55	-1080	2968	18400	-16	-49	21	127	139	12
-5436	-8360	15176	45	-63	-13	-14840	-8568	6712	49	-6	-85	32	-4216	18080	42	-66	12	-3520	5656	15952	-49	17	-41	-16200	6904	7232	-75	-19	20	-1288	3112	18472	-65	-63	-6	128	142	12
-5460	-6972	14884	3	0	-25	-14432	-7552	5984	21	-11	-62	536	-4784	17352	55	-38	4	-3072	5880	14584	56	21	2	-14184	6832	7328	44	-28	-20	-56	2752	17104	-78	-56	-7	128	139	12
-5052	-6348	13680	-63	36	-43	-12648	-7336	5856	-62	-28	22	1792	-4344	16240	42	-10	13	-2768	6504	14200	68	29	9	-12328	7168	7656	43	-12	-16	1104	2152	16280	22	-21	14	128	134	12
-5044	-8388	13152	-50	13	-40	-11336	-8456	6408	-99	-28	47	2112	-4272	15696	-7	7	30	-2368	6496	13688	18	33	-13	-12072	7208	7576	-60	-4	20	952	2376	15800	105	24	40	127	133	12
-4832	-7948	13540	16	-25	-11	-11680	-8840	6248	-10	-3	3	1736	-4296	16024	-24	35	31	-2624	7128	14248	-42	29	-35	-12872	6992	6880	-78	14	54	-8	2720	16568	122	33	47	126	136	12
-5596	-8328	13864	19	-46	-10	-12928	-8360	5912	96	31	-17	1064	-4400	16800	13	35	17	-2512	6264	15144	-52	8	-40	-14520	6680	7216	-28	28	37	-968	3104	16992	43	1	45	126	140	12
-4896	-6848	14060	27	-17	2	-13456	-7712	6184	36	12	-9	752	-4432	16168	37	34	2	-3240	6296	14496	-4	28	-21	-14080	6808	6432	11	19	11	-856	3032	16648	-36	-27	11	125	141	12
-5428	-6768	12912	-9	2	-5	-12544	-6968	5528	30	13	34	872	-3984	15624	54	16	-12	-3016	5968	13568	28	31	-14	-12816	6552	6152	100	-12	13	-256	2824	15592	-66	-45	4	124	139	12
-4604	-7064	13424	3	0	-17	-11768	-7432	5504	-30	13	63	1168	-3536	15328	37	-3	-14	-2288	7360	14272	2	6	-9	-12680	7528	7616	199	-34	11	224	2464	16040	-10	-35	16	125	136	12
-5724	-8208	13656	18	-28	-8	-12520	-8168	6016	-47	-26	12	720	-3464	16792	12	-42	-3	-3328	6312	15792	-70	0	-49	-13872	8248	7216	-34	-20	60	-232	3112	17496	29	-25	14	127	135	12
-5472	-8880	14816	52	-56	2	-14064	-8592	6632	30	-1	-46	520	-3464	17664	-9	-49	-1	-2544	6432	15552	-38	13	-26	-15688	7208	7352	-133	4	26	-848	3304	18000	5	-14	-8	128	139	12
-4860	-6676	14568	9	0	-8	-14120	-6928	6520	10	0	-50	1088	-4136	17176	11	-16	-5	-3448	4776	13856	12	38	-10	-13824	6560	6848	-72	-7	0	-224	3560	16880	-51	-11	-29	128	139	12
-5268	-6568	13004	-40	39	-26	-12224	-6680	5408	-30	15	-7	1528	-3696	15744	17	30	7	-2688	6592	13384	61	28	5	-11888	6872	6976	100	-21	-23	624	2984	15872	-36	-7	-8	127	136	12
-5200	-6880	13520	-62	18	-36	-11184	-7488	5840	-101	3	40	1624	-3520	15888	-18	41	24	-2376	8336	14928	-34	9	-21	-12472	8248	8152	76	-3	-2	528	2920	16512	2	-1	28	126	135	12
-5544	-9276	14284	-1	-36	-23	-12712	-9104	6344	-83	-15	-32	1040	-4016	17288	-36	5	41	-2976	6632	15200	-103	18	-55	-14480	8408	7400	-99	-4	29	-504	3256	17888	11	-8	38	127	138	12
-5356	-8412	15320	20	-39	-11	-14888	-8512	6312	67	20	-105	512	-4576	17840	-14	-13	40	-2576	6288	15512	-76	-2	-38	-15464	7216	7432	-50	22	-7	-1208	3808	17936	-45	-30	29	128	141	12
-5276	-6800	14784	-15	25	-17	-14376	-7168	6200	52	7	-61	800	-4504	17016	34	7	14	-3272	6144	13808	-4	28	-22	-13664	6968	6656	3	33	-49	-200	3280	16536	-95	-32	10	128	140	12
-5280	-6584	13172	-77	57	-44	-12432	-6928	5512	-8	22	9	1432	-3960	16072	22	14	13	-3144	6184	13600	19	36	-17	-12088	6736	6912	88	17	-57	680	2352	15432	-44	-21	30	127	134	12
-4920	-7640	13088	-58	36	-43	-11128	-7960	5960	-121	-7	36	1640	-3792	15456	-25	4	14	-2536	6672	13528	8	24	-16	-12104	7520	7120	46	11	-20	640	2352	15712	40	10	54	126	131	12
-4948	-8852	13668	26	-27	-22	-11736	-8936	5680	-54	-1	-31	1320	-4264	16040	-38	-7	15	-2728	7928	15208	-101	4	-49	-13864	7392	7400	-16	13	18	-288	2552	16848	49	10	48	127	136	12
-5388	-8548	14556	24	-54	-11	-13848	-8728	5888	63	0	-79	376	-4520	17344	-3	-15	6	-3144	5512	16320	-123	-14	-54	-15632	6888	7472	-106	20	19	-1512	2840	17904	-35	-19	25	127	142	12
-5520	-7580	14792	30	-38	-13	-14576	-8296	6144	43	-3	-81	128	-4720	17368	19	-12	-6	-3056	5456	15416	-26	7	-22	-15368	6256	6928	-63	-1	-30	-1368	2352	17288	-103	-53	-2	127	142	12
-5188	-6548	14160	-47	-3	-47	-13344	-7656	5856	-13	-25	-29	816	-4752	16200	24	-19	-14	-3128	5224	14400	12	11	-7	-13440	6344	6808	47	-42	-29	-64	2008	16528	-87	-74	7	127	137	12
-5148	-8100	13000	-63	19	-59	-11680	-8160	5384	-98	-38	12	1288	-4360	15432	-4	-24	-4	-2800	6496	14264	10	3	-5	-12800	6768	7176	36	-40	-14	824	1584	16200	0	-38	26	127	136	12
-4916	-8072	13388	-14	-17	-33	-11136	-8968	5856	-69	-35	0	1632	-4616	15752	-39	-13	9	-2888	6696	14008	-10	-4	-16	-13424	7224	7392	-8	-32	16	504	1768	16832	71	-4	32	127	135	12
-5524	-7988	14292	35	-55	-15	-12704	-8816	6256	59	-28	-45	1128	-4864	17112	-16	-18	2	-3152	5864	14520	-27	-12	-18	-14104	7064	7072	-80	-23	57	-208	2312	17160	71	-2	19	128	137	12
-5492	-7824	14536	36	-53	-18	-14224	-7920	6096	96	-9	-32	864	-5072	17688	33	-17	-4	-2808	5712	14824	-10	-11	-14	-14352	6488	7240	-35	-20	45	-560	2912	17072	15	-24	11	127	138	12
-5308	-6996	13956	18	-19	-15	-13472	-7576	6136	-11	-24	6	1176	-4568	16472	69	-15	0	-3472	5888	14288	21	16	-2	-13336	6592	6944	37	-23	25	-136	2744	16200	-16	-40	3	125	137	12
-5060	-6688	12748	-26	5	-36	-11624	-7736	5624	-37	-11	54	1448	-4216	15328	55	-8	1	-3040	5176	13848	18	22	-12	-12696	6480	6600	55	-19	25	448	2648	15816	6	-42	18	125	136	12
-5488	-8544	12676	1	-2	-42	-10736	-8400	5208	-43	9	51	1624	-3800	15576	25	-4	2	-2352	6232	14088	0	3	-24	-13296	7056	7552	103	-22	14	472	2576	16608	18	-36	26	125	136	12
-5092	-8208	13644	69	-44	-10	-11824	-8544	5888	50	11	-15	1168	-3984	16360	-19	2	1	-3008	6648	14664	-44	8	-33	-13832	7704	7272	14	-13	48	-136	2952	17168	16	-15	13	127	137	12
-5464	-7836	13888	79	-57	-12	-14016	-7920	5880	150	35	-46	624	-4048	16920	-2	-1	-13	-3264	4912	14864	-38	12	-36	-14184	6728	7128	-65	14	25	-632	3160	17352	-16	-8	7	127	138	12
-4916	-6888	14088	34	-17	-24	-13520	-7080	5688	54	22	-13	608	-4168	16496	10	15	-17	-2968	5496	14784	-17	11	-32	-13568	6864	6832	-22	10	-11	-216	2896	16504	-38	-12	2	127	138	12
-5304	-7044	13284	-21	13	-36	-12464	-6736	5344	-60	8	24	1088	-3864	15664	15	13	-2	-2864	5592	13624	12	28	-20	-12720	6752	7088	-1	4	-1	152	2584	15928	-11	-8	15	127	137	12
-4740	-7160	13368	-5	5	-27	-11480	-7456	5600	-110	-17	28	1392	-3952	15152	0	23	12	-2352	6520	13472	4	20	-19	-12288	6872	7360	26	9	6	296	2632	15472	38	13	35	127	137	12
-5288	-7860	12868	8	3	-10	-11880	-7904	5792	-42	-10	-4	1376	-3960	15912	3	32	26	-2968	6464	14208	-28	23	-40	-12856	7080	6816	-3	17	24	16	2624	16264	40	11	41	127	137	12
-5048	-7896	14208	28	-35	-7	-12912	-8232	6184	35	20	-33	664	-4064	17016	14	24	29	-2488	6272	15048	-64	24	-47	-14288	7104	7544	5	14	27	-312	2800	17112	10	-2	29	127	140	12
-5468	-7408	14432	2	-7	-10	-14048	-7872	6120	26	6	-37	552	-4520	17200	41	3	18	-3200	5368	14592	-40	27	-43	-14504	6616	7192	-30	27	12	-440	3120	17112	-45	-15	6	128	140	12
-5532	-7288	13648	-21	35	-23	-13032	-7600	5632	-10	9	-20	1032	-4176	16368	53	8	10	-2976	5368	13912	22	40	-19	-13512	6320	6856	41	18	-17	-112	2672	16568	-69	-9	2	127	140	12
-4864	-6712	12600	-54	51	-25	-11448	-7392	5880	-55	-5	25	1392	-4328	15152	25	25	6	-2896	5840	14000	19	39	-26	-12096	6800	6888	58	19	-16	416	2104	15728	-6	7	21	126	137	12
-5044	-8448	13292	-4	-3	-22	-10984	-8736	5976	-44	2	26	1480	-4360	15672	-3	16	21	-2768	7408	14552	-28	37	-35	-12928	7544	7576	-6	20	12	360	1928	16480	42	13	37	126	133	12
-5380	-8604	14568	44	-37	2	-12912	-8840	5968	31	5	-23	944	-4632	16792	-3	-10	31	-2712	6048	15272	-72	26	-51	-14792	7192	7424	-81	17	47	-864	2352	17728	33	1	30	127	138	12
-5696	-7876	14452	35	-28	5	-14248	-8240	6104	46	2	-45	520	-4904	17408	37	-16	21	-3088	4272	15168	-36	19	-39	-14976	6424	7040	-47	25	30	-792	2576	17824	27	-3	24	127	141	12
-4932	-6884	14028	6	19	-5	-13344	-7696	6192	-21	-5	-3	1096	-4784	16160	60	13	15	-3320	5096	14560	37	46	-19	-13528	6272	6920	76	3	-5	-176	2248	16192	-40	-30	9	126	141	12
-5004	-7448	12984	-39	25	-31	-11632	-7704	5664	-70	-2	54	1496	-4384	15664	54	21	10	-3152	6624	14096	37	41	-5	-12624	6936	7208	92	-16	20	544	1848	16208	9	-23	26	125	135	12
-4768	-8616	13824	-7	-26	-24	-11432	-8736	5928	-64	-19	45	1448	-4408	15752	26	2	17	-2176	6520	14880	-3	20	-22	-13408	7304	7768	42	-25	57	72	2424	16680	83	-6	38	126	134	12
-4948	-8504	14184	48	-47	3	-12912	-8784	6464	32	-28	-7	1152	-4672	16888	25	-13	11	-2632	6784	14728	-22	15	-20	-14040	7488	6928	-35	-13	78	-552	2960	17288	88	-4	35	127	136	12
-5252	-7668	14408	51	-46	1	-13816	-7992	6216	117	2	-16	968	-4392	17248	36	-15	11	-2560	6272	15344	17	4	-6	-14192	6808	7704	3	0	45	-504	3152	16872	42	-14	19	127	138	12
-4988	-6968	14012	3	-2	-9	-13400	-7136	6480	29	-9	31	1296	-3896	16424	71	4	-10	-2896	5648	14360	29	18	-13	-13304	6936	6960	-4	-10	28	64	2984	16448	-1	-32	4	126	138	12
-5240	-8092	13392	-6	1	-37	-12184	-7872	5928	-30	-3	46	1360	-3696	15928	47	-5	-8	-2584	5904	13392	41	22	-15	-12968	6944	7360	53	-34	27	216	3120	16416	2	-31	5	126	137	12
-5004	-7956	13624	6	-3	-31	-11816	-7568	5888	-36	-17	33	1296	-3904	15992	20	-12	-1	-1896	7680	14304	3	-2	-9	-13016	7680	7904	99	-31	45	216	2968	16632	23	-28	24	127	138	12
-5784	-7848	14460	13	-18	-32	-12976	-8368	6320	24	-16	8	1080	-3896	16944	23	-29	1	-2912	6216	15616	-62	2	-35	-14360	7912	7432	5	-22	51	-368	3192	17752	22	-30	22	127	139	12
-5552	-7956	15004	6	-12	-37	-14200	-8048	6424	31	-18	-32	1040	-3864	17664	27	-30	5	-3016	6088	15264	-25	9	-21	-14840	7272	7584	-75	4	22	-560	3256	17640	-9	-39	9	128	139	12
-5220	-7152	14360	-46	38	-50	-13720	-7320	6096	-12	-12	-23	1232	-4136	17016	38	-18	5	-2408	5920	14384	4	5	-5	-14008	6528	7312	-9	-4	-3	144	3248	17176	-38	-38	9	127	138	12
-4796	-8188	13340	-94	61	-80	-12272	-7352	5960	-72	-21	4	1600	-4088	15968	27	-1	17	-2752	6880	14024	11	14	-12	-12888	7080	7424	72	-17	-22	576	2848	16376	-22	-24	17	127	137	12
-5144	-8252	13392	-93	37	-82	-11464	-8096	5864	-94	-14	12	1760	-3896	15920	-5	0	28	-2464	6944	14592	-33	5	-22	-13088	7664	7984	30	-10	-6	472	2616	16928	17	-12	40	126	135	12
-5024	-7684	14172	-8	-10	-29	-12240	-8744	6664	-88	-31	-26	1320	-4424	16392	-17	-5	35	-2600	6720	14072	-37	13	-26	-13424	7640	7408	-77	-3	25	-112	2728	16664	47	-1	42	127	137	12
-4884	-7160	14036	7	-19	-21	-13056	-8088	6296	20	-5	-49	1264	-4560	16712	21	-1	26	-2768	5552	14104	-42	14	-32	-13216	6656	6992	-64	15	13	-136	2936	16368	11	-8	42	127	138	12
-4788	-7680	13808	-12	8	-39	-12984	-7608	5784	30	11	-7	1280	-4208	16128	45	12	14	-2576	6192	13440	0	18	-16	-13072	6608	6904	27	26	-12	200	2576	15952	-27	-21	22	127	138	12
-5008	-6520	12956	-30	28	-26	-12184	-7240	5520	-18	-10	34	1288	-4104	15440	26	20	2	-3000	5648	14000	-28	20	-26	-12576	6768	7024	57	4	23	72	2552	15816	-11	-20	22	125	137	12
-4632	-8268	12972	-17	2	-40	-11680	-8032	5728	-48	-5	44	1416	-4040	15632	5	1	0	-2408	6176	14536	-14	20	-27	-13000	6832	7168	91	-4	15	72	2560	16040	22	-19	29	126	138	12
-4712	-7752	13556	12	-21	-13	-12048	-8248	6192	-45	-5	4	1176	-4040	16064	1	-7	3	-2872	6760	15136	-37	22	-36	-13608	7296	7144	12	-16	39	-256	2696	16808	17	-17	20	127	138	12
-5416	-8144	14088	20	-34	-13	-12944	-8272	5976	26	10	-25	1080	-4176	16712	27	-20	3	-2664	6128	15248	-24	27	-24	-14280	6896	7432	-24	-10	22	-272	2816	17304	-9	-22	7	127	139	12
-5468	-7760	14140	0	-11	-19	-13328	-7448	6320	14	-4	-20	1008	-4136	16688	38	-18	3	-2944	5360	13704	6	43	-22	-13728	6648	6864	-64	0	18	160	2824	17056	-37	-15	2	128	139	12
-5432	-7124	13448	-18	12	-19	-12272	-7304	5536	-29	-3	3	1504	-4192	16168	33	1	12	-2328	5688	14056	24	22	-8	-12992	6600	7432	46	7	1	432	2664	16320	-21	-8	12	127	137	12
-4592	-7820	13100	-22	17	-20	-11824	-7856	5992	-85	-21	27	1760	-4336	15784	23	18	32	-2392	6792	14040	-9	35	-18	-12872	7368	7600	28	11	14	744	2504	16224	28	9	32	127	137	12
-4840	-7972	13496	-3	-12	-8	-11864	-8416	6096	-61	-14	-2	1560	-4368	16088	14	21	41	-2888	6136	14272	-39	38	-35	-13416	7112	7480	-28	19	26	32	2888	16944	41	13	42	126	136	12
-5384	-7856	14032	32	-28	14	-12672	-8360	6096	6	10	-14	1312	-4424	16736	22	20	37	-2704	6200	14592	-40	32	-27	-13952	7144	7304	-24	25	35	-296	2896	16680	16	5	41	126	138	12
-5208	-6972	14352	26	-20	9	-13056	-8000	6584	7	10	-8	1048	-4424	16664	44	12	30	-3152	5672	15000	-21	29	-32	-13920	7032	7392	0	21	14	-360	2944	16784	-15	-12	33	126	137	12
-5172	-7484	13544	11	-6	-4	-12824	-8128	5944	-6	4	11	1168	-4200	16192	49	3	15	-3072	5496	14064	14	38	-13	-13360	6824	6560	13	20	11	-56	2744	16352	-26	-15	27	126	137	12
-4892	-7100	13360	2	-2	-3	-12104	-7464	5512	-13	9	33	1328	-4248	15608	27	7	5	-2168	6424	13720	19	31	-13	-12600	6712	7088	51	14	16	144	2624	15768	16	2	30	126	136	12
-4620	-7840	13208	25	-12	-1	-11584	-7928	5824	-29	-7	47	1496	-4000	15352	8	10	1	-2456	6488	13520	11	29	-20	-12448	7000	6944	37	15	23	232	2536	15640	25	3	32	125	136	12
-4980	-7904	13476	49	-28	6	-12104	-7848	5760	15	-1	21	1216	-4016	16152	12	19	1	-1936	6656	14784	-44	18	-31	-13320	6992	7608	9	17	42	-136	2408	16576	48	8	24	127	137	12
-5516	-8456	14152	53	-47	7	-12896	-8232	6016	8	-5	-3	784	-4056	16704	19	3	2	-3096	6176	15672	-57	15	-35	-14816	7216	7504	-38	6	43	-816	2736	17744	-15	-28	6	127	140	12
-5360	-8744	14236	66	-51	9	-13696	-8064	6216	8	-6	-39	656	-4224	16800	34	-8	2	-2776	4848	15328	-13	24	-14	-15096	6824	7176	-28	-9	27	-768	2928	17416	-53	-45	-9	127	141	12
-4916	-7348	13984	-2	-4	-11	-13168	-7656	5808	-2	-9	-14	1056	-4336	16568	45	-15	-2	-3144	5648	14424	28	26	-1	-13848	6840	7216	61	-24	7	112	2880	17016	-57	-53	-2	127	139	12
-4656	-7948	13556	-14	5	-23	-12360	-7872	5960	-42	-13	15	1536	-4224	16208	30	-2	8	-2360	6624	14304	38	28	7	-12904	7208	7952	58	-32	5	984	2664	16320	17	-20	4	127	137	12
-4480	-7512	13364	-21	3	-18	-11640	-7840	6200	-56	-25	19	1832	-4096	15968	4	16	20	-2768	6632	13768	8	32	-8	-12224	7520	7424	-47	-5	33	768	3048	16120	65	25	26	127	135	12
-5084	-7524	13048	13	-7	-1	-11800	-8000	5704	-4	5	-3	1656	-4008	16024	-1	30	29	-2416	6520	13912	-4	24	-15	-12608	6992	7016	-62	34	31	296	3008	16216	72	36	47	126	136	12
-4860	-7188	14052	23	-28	-8	-12536	-7864	6216	-1	17	3	1072	-4120	16352	19	21	29	-2408	6672	14400	-21	28	-26	-13272	7256	7360	-21	37	22	-368	2928	16528	41	12	47	126	137	12
-5496	-8044	14004	20	-31	-9	-13264	-7944	6240	3	4	0	800	-4128	16648	43	4	19	-3000	5840	14024	-54	32	-37	-13696	7032	6792	-57	27	32	-768	3192	16464	-23	-16	39	125	138	12
-5440	-7508	13736	14	5	-11	-13080	-7448	5488	28	21	20	816	-3952	16096	51	2	8	-2688	5568	13888	-13	32	-21	-13512	6544	6608	23	25	2	-712	2904	16160	-38	-36	31	126	139	12
-4944	-7540	13036	-27	26	-29	-11904	-7376	5648	5	11	44	1032	-3768	15584	42	1	-2	-2656	5736	14088	-13	22	-17	-12904	6792	6960	83	10	-4	88	2792	16224	-31	-40	34	126	138	12
-5004	-7844	12976	-27	31	-27	-12056	-7840	5584	37	-3	20	912	-3640	15872	12	-6	1	-2872	6440	14728	-30	33	-27	-13280	7336	7448	54	-3	7	128	2312	16688	2	-19	23	127	137	12
-5412	-8820	14044	-34	8	-39	-13048	-7832	5456	16	-2	-10	832	-3616	16976	1	-30	12	-2720	6512	15728	-74	22	-30	-14672	7296	7664	-12	-6	30	-192	2832	17752	2	-20	10	127	138	12
-5472	-7772	14368	-19	14	-20	-13920	-8096	6440	-48	-19	-49	848	-3664	17096	0	-34	11	-3304	5624	15048	-7	43	-17	-14904	7040	6976	-89	-3	20	-512	3168	17352	-33	-8	-7	128	138	12
-5244	-6368	14316	-57	37	-32	-13816	-7768	6232	-45	-17	-61	1176	-4528	16776	37	-9	24	-2848	5976	14056	27	53	-4	-13392	7160	6936	-17	-11	2	88	2792	16768	-45	-15	0	129	139	12
-5356	-6428	14276	-69	46	-34	-12480	-7696	5896	-104	-3	20	1688	-4208	16320	43	11	47	-2232	6456	14264	23	34	0	-12728	7160	7800	21	6	-9	848	2616	16256	8	4	32	127	134	12
-4608	-8012	13312	-91	48	-51	-11824	-8288	6424	-144	-28	21	1816	-4024	16192	5	28	56	-3040	6464	14160	-42	37	-28	-12584	7528	7392	-69	22	23	432	2944	16208	40	16	44	125	135	12
-5588	-8864	13448	-48	9	-42	-12216	-8832	5648	-42	16	-12	1352	-4336	16712	0	25	41	-2656	6176	14376	-55	26	-37	-13912	6984	7000	-47	27	9	-416	2968	16760	28	8	52	125	138	12
-5368	-7436	14324	3	-9	-10	-13144	-8240	6264	-11	23	-43	936	-4304	16688	13	19	27	-2424	6616	14640	-43	20	-25	-14128	7104	7096	23	30	6	-576	3016	16928	-19	-7	33	126	141	12
-5328	-6816	14084	-1	-3	-11	-13144	-7744	5872	12	14	-13	976	-4336	16608	38	0	3	-2848	6024	13744	-7	32	-16	-13424	7032	7040	20	15	-1	-384	2840	15976	-44	-16	21	126	138	12
-5404	-7420	13212	-5	15	-15	-12576	-7320	5584	12	5	27	984	-4080	15888	27	2	-1	-2896	5696	13504	1	31	-21	-12496	6848	6800	22	15	-1	16	2472	15632	-17	-12	33	126	136	12
-5304	-7920	13340	-2	-2	-25	-11856	-7632	5360	-44	0	45	936	-4032	15752	14	-4	-2	-2176	6416	14416	-39	11	-29	-12392	6880	6632	20	24	-3	48	2504	16328	24	-11	48	126	136	12
-4944	-8896	13496	31	-32	-14	-12448	-8424	5904	-62	-22	6	720	-3960	16240	1	-14	0	-2832	7056	14896	-53	12	-31	-13992	7296	6992	-52	4	30	-616	2344	17208	29	-18	32	127	138	12
-5520	-8048	14356	38	-44	-2	-13280	-8304	5552	9	-18	-37	752	-4312	17192	13	-23	3	-3088	5584	16080	-70	5	-33	-15112	6784	7320	-39	-8	36	-888	2688	17920	-15	-38	17	128	140	12
-5328	-8496	14388	36	-40	-11	-13688	-8184	6384	-20	-22	-31	1064	-4384	17264	34	-27	6	-3184	6040	15048	19	20	-5	-14800	6680	7560	-1	-21	7	-256	2720	17584	-57	-47	-7	128	141	12
-5424	-6616	13628	-37	2	-22	-13024	-7448	5856	-22	-20	-23	1312	-4440	16848	40	-6	10	-3392	5848	14344	24	14	3	-13024	6672	7008	14	-32	23	456	2616	16848	-31	-32	3	128	139	12
-5188	-7984	13708	-40	-16	-43	-11976	-8048	5672	-63	-18	12	1608	-4256	15928	16	5	23	-2664	6280	14048	19	5	-1	-13312	7128	7992	61	-30	3	648	2384	16568	37	-10	24	126	136	12
-5164	-7908	13452	7	-22	-16	-11928	-8376	6496	-74	-37	-10	1512	-4392	16152	-2	2	30	-2680	7032	14080	-10	13	-6	-12792	7592	7312	-46	-7	51	208	2840	16544	83	11	39	126	136	12
-5444	-7780	13816	25	-36	-6	-12768	-8376	5856	46	0	-17	1184	-4504	16536	15	3	32	-2664	7136	13744	-19	17	-17	-13264	7072	6984	-49	15	40	-432	2968	16736	62	4	48	127	136	12
-5732	-7712	14108	21	-29	-11	-12992	-7872	5880	60	15	-2	1048	-4304	16744	40	2	24	-2896	6160	14528	-20	19	-25	-13872	6824	7352	-21	27	20	-400	3096	16728	12	-23	35	126	139	12
-5496	-7536	13480	30	-23	-2	-12888	-7776	5632	3	0	12	1104	-4168	16536	50	-12	9	-2840	6040	14936	-17	20	-19	-13776	6840	6880	23	3	30	-400	3016	16312	-30	-40	23	126	138	12
-5148	-7632	13352	4	-17	-13	-12344	-7872	5984	-22	-14	21	1056	-3864	16048	29	-20	-7	-3760	5768	14184	-18	25	-24	-13440	6968	6464	51	-21	21	-128	2704	16480	-33	-44	23	125	137	12
-5504	-8328	13932	24	-47	-14	-12312	-8352	5584	-7	16	19	880	-3816	16376	12	-26	-9	-2080	7352	14880	-16	8	-14	-13968	7248	7624	80	-26	9	-136	2544	16792	-6	-35	25	126	137	12
-5084	-7788	14260	43	-43	0	-13224	-8000	6336	-10	-19	-18	1040	-4072	16568	-6	-22	-10	-2624	6088	14528	-16	9	-16	-13312	7424	7056	-58	-4	39	160	2664	16672	33	-6	8	127	137	12
-5560	-7316	13500	13	-15	-7	-12928	-7256	6032	30	-11	-10	1072	-4056	16552	11	-1	-12	-2872	6024	13744	-1	19	-14	-13240	6712	6928	-55	5	21	-24	2872	16496	25	3	15	128	137	12
-5068	-7456	13400	-1	-12	-19	-12488	-7344	5672	-25	-4	26	1168	-3920	16048	14	21	5	-2672	5464	14456	-13	18	-23	-13464	6824	7432	30	9	7	96	2720	16736	4	-8	23	127	138	12
-5144	-8204	13648	-25	-10	-29	-12200	-8152	6168	-82	-23	5	1296	-3960	16312	15	8	18	-2984	6528	15056	-38	14	-35	-13896	7232	7448	-10	-1	20	-152	2760	17368	-3	-24	24	127	138	12
-5076	-8008	13628	-2	-13	-14	-12752	-8416	5984	-24	-8	-36	1008	-4168	16536	8	2	29	-3088	5688	14976	-28	17	-22	-14536	6912	7208	18	-7	15	-392	2968	17400	-28	-31	25	127	140	12
