#Activity	sitting 
#ActivityID	5 
#Date 09-30-14-00
acc_rf_x	acc_rf_y	acc_rf_z	gyro_rf_x	gyro_rf_y	gyro_rf_z	acc_rs_x	acc_rs_y	acc_rs_z	gyro_rs_x	gyro_rs_y	gyro_rs_z	acc_rt_x	acc_rt_y	acc_rt_z	gyro_rt_x	gyro_rt_y	gyro_rt_z	acc_lf_x	acc_lf_y	acc_lf_z	gyro_lf_x	gyro_lf_y	gyro_lf_z	acc_ls_x	acc_ls_y	acc_ls_z	gyro_ls_x	gyro_ls_y	gyro_ls_z	acc_lt_x	acc_lt_y	acc_lt_z	gyro_lt_x	gyro_lt_y	gyro_lt_z	EMG_r	EMG_l	act
-8520	-3556	13208	-198	220	-244	-15832	1564	-4852	265	-53	14	-2532	-5400	15816	-34	-57	189	-7716	4516	14276	89	-3	-147	-15964	1316	-2996	-26	-52	-111	-2080	-2616	16784	-66	22	24	128	124	5
-8520	-3600	12996	-157	159	-182	-15824	1560	-5020	244	-54	27	-2564	-5288	15680	41	-144	224	-7668	4476	14396	109	-114	-116	-15936	1316	-3000	-99	-40	-65	-1796	-2652	16740	114	0	55	128	124	5
-8456	-3416	13068	-130	132	-165	-15784	1712	-4768	112	-71	8	-2320	-5180	15720	-34	-208	183	-7664	4488	14292	92	-35	-148	-16000	1240	-2936	-43	11	-47	-1800	-2684	17004	271	-12	37	128	125	5
-8448	-3392	13208	-148	133	-207	-15776	1740	-4852	37	-67	66	-2332	-5160	15832	-18	-219	177	-7664	4540	14296	107	36	-177	-16044	1240	-2920	-57	23	14	-1860	-2488	16772	203	100	-5	128	123	5
-8476	-3408	13148	-120	122	-180	-15684	1884	-4988	24	-124	156	-2460	-5256	15772	159	-145	209	-7676	4468	14276	143	35	-168	-15988	1408	-3016	70	60	31	-2108	-2316	16600	354	88	-33	127	123	5
-8436	-3428	12956	-159	99	-230	-15740	1976	-4748	-230	-105	89	-2496	-5176	15804	180	-117	286	-7736	4464	14316	93	-14	-147	-15932	1532	-3044	-52	114	-8	-2024	-2488	16704	216	-23	28	128	124	5
-8452	-3480	13184	-188	61	-251	-16024	1768	-4716	-232	-108	45	-2384	-5108	15836	114	-149	368	-7736	4540	14348	92	-9	-178	-15840	1464	-3184	-217	96	47	-1800	-2572	16980	360	-2	118	127	124	5
-8372	-3492	13188	-171	109	-172	-16248	1788	-4436	-83	-9	17	-2132	-5080	15916	228	-291	355	-7676	4456	14408	104	0	-155	-15812	1224	-2968	-171	14	27	-1744	-2368	16936	331	74	148	128	124	5
-8376	-3468	13160	-128	175	-167	-16128	1708	-4256	139	19	53	-2044	-4968	15964	252	-157	221	-7636	4456	14332	113	24	-147	-15856	1252	-3052	58	68	-35	-1824	-2128	16840	178	164	19	128	125	5
-8396	-3468	13192	-86	209	-157	-15928	1632	-4348	343	137	65	-2212	-4972	15844	49	-6	142	-7640	4532	14288	102	57	-159	-15888	1380	-3160	219	-10	-11	-2052	-2132	16644	-124	57	-74	128	125	5
-8492	-3440	13072	2	218	-173	-15836	1668	-4752	399	102	177	-2512	-5216	15744	-306	-32	24	-7728	4504	14332	140	53	-181	-15816	1496	-3124	79	-46	-50	-2244	-2496	16536	-46	-56	-141	128	124	5
-8516	-3540	13140	-66	172	-130	-15980	1720	-4964	129	76	191	-2796	-5332	15776	-233	-179	-1	-7720	4372	14308	136	-27	-141	-15848	1392	-3260	39	-38	-10	-2236	-2612	16788	-54	-127	-168	128	125	5
-8428	-3436	13100	-59	190	-133	-15932	1736	-4944	36	49	184	-2776	-5212	15824	5	-98	43	-7748	4452	14452	136	-23	-157	-15940	1408	-3220	206	-71	-33	-2256	-2588	16908	-32	-84	-57	127	125	5
-8500	-3492	13084	-31	146	-128	-15760	1788	-4756	121	-12	185	-2484	-5124	15944	90	-46	29	-7704	4476	14360	146	5	-149	-15840	1640	-3168	145	-187	-173	-2164	-2396	16820	-55	-46	83	127	125	5
-8492	-3368	13140	-35	128	-149	-15604	1820	-4876	241	-44	167	-2416	-4936	15656	27	-184	46	-7736	4448	14348	110	-37	-128	-15880	1552	-3148	-83	-231	-167	-2064	-2376	16700	-38	-29	129	127	125	5
-8384	-3332	13164	-93	86	-188	-15640	1976	-4816	174	-43	152	-2544	-4888	15956	-48	-209	57	-7732	4480	14248	164	-39	-99	-15976	1300	-2984	-63	-229	-215	-2004	-2328	16748	-9	-4	119	127	125	5
-8436	-3424	13092	-128	123	-229	-15840	1984	-4908	84	-75	150	-2608	-4900	16040	-152	-207	118	-7708	4464	14284	108	-48	-150	-16036	1304	-2892	-61	-190	-164	-2004	-2668	16860	62	-88	91	127	125	5
-8436	-3516	13176	-178	96	-178	-15920	2012	-4876	-77	-174	124	-2616	-5044	16068	-132	-182	226	-7668	4528	14432	142	-49	-135	-15900	1352	-3016	-11	-125	-102	-1952	-2564	16916	195	-84	120	127	124	5
-8424	-3472	13068	-158	123	-208	-15908	1912	-4572	-119	-167	16	-2388	-4868	15832	-18	-138	260	-7688	4528	14432	122	-36	-132	-15848	1736	-3160	-34	-204	-234	-2068	-2096	16852	139	24	189	127	124	5
-8504	-3384	13144	-176	126	-235	-15908	1912	-4616	-126	-174	22	-2300	-4896	15712	-15	-150	259	-7740	4552	14256	100	-51	-149	-15816	1672	-2864	-161	-164	-297	-1936	-1940	16688	-120	105	285	127	126	5
-8344	-3316	13052	-143	105	-220	-15904	1884	-4404	200	0	-24	-2176	-4772	15924	-133	-211	120	-7688	4504	14352	53	-139	-146	-15916	1176	-2736	-209	-113	-332	-1560	-2180	16864	-477	95	119	128	126	5
-8400	-3432	13116	-161	145	-239	-16096	2052	-4472	416	44	-10	-2156	-4816	15840	-153	-198	104	-7668	4588	14272	66	-106	-137	-16004	1076	-2620	110	0	-247	-1536	-2360	16972	-626	-33	-7	128	125	5
-8416	-3500	13244	-206	267	-218	-16140	1952	-4424	123	105	-76	-2268	-5180	15988	-128	-142	181	-7704	4528	14308	110	-19	-217	-15888	1584	-2720	362	76	-324	-1844	-2404	16880	-389	89	-74	127	125	5
-8404	-3568	13184	-177	282	-179	-16128	1660	-4524	91	213	-74	-2192	-5152	15832	-138	-157	236	-7732	4560	14300	42	52	-210	-15936	1800	-3112	-2	23	-367	-2272	-2472	16768	-369	11	143	127	126	5
-8444	-3612	13144	-127	319	-136	-15832	1312	-4696	353	244	-54	-2200	-5528	15648	-311	-172	78	-7752	4524	14240	12	-18	-226	-15924	1500	-3088	-447	19	-419	-2396	-2900	16576	-254	-34	334	127	125	5
-8444	-3476	13096	-73	311	-129	-15844	1052	-5276	636	148	140	-2836	-5732	15724	-388	-272	-60	-7704	4452	14372	34	-122	-152	-16176	856	-3052	-251	1	-371	-2344	-3008	16548	-294	-196	303	127	125	5
-8580	-3496	13048	-29	249	-94	-15416	1084	-5392	545	-34	298	-2804	-5772	15644	-356	-224	-100	-7668	4336	14340	45	-14	-188	-15916	824	-3152	221	-15	-362	-2096	-3352	16688	11	-179	231	127	126	5
-8560	-3396	13056	-26	120	-107	-15628	1716	-5208	387	-193	316	-2856	-5364	15596	-221	142	-63	-7728	4444	14400	82	-53	-154	-15876	980	-3068	304	-27	-184	-1976	-3172	16776	182	-211	96	127	126	5
-8488	-3384	13116	-52	83	-145	-15652	1968	-5060	-122	-184	271	-2372	-5484	15776	69	-77	147	-7680	4500	14416	130	-42	-124	-15804	1276	-3224	-37	-148	-154	-2100	-2952	16832	253	-97	159	127	125	5
-8464	-3364	13236	-60	66	-162	-15448	1924	-4896	-398	-192	262	-2144	-5340	15712	199	-214	386	-7772	4496	14312	176	11	-122	-15888	1304	-3196	-514	-264	-149	-2292	-3052	16592	226	-19	359	127	125	5
-8448	-3468	13228	-87	85	-217	-15668	1696	-4756	-404	-161	304	-2304	-5124	15796	282	-184	455	-7724	4428	14392	169	-43	-122	-16016	948	-3188	-503	-275	-74	-2212	-3176	16632	222	-131	373	127	125	5
-8492	-3500	13124	-40	32	-183	-16088	1684	-4576	-37	-171	319	-2524	-5068	15872	283	-139	430	-7696	4488	14360	209	-28	-96	-16052	924	-3064	-150	-322	19	-2052	-3184	16760	701	-106	247	128	125	5
-8384	-3504	13188	12	81	-169	-16444	1852	-4576	106	-145	308	-2644	-5068	16044	192	-91	321	-7696	4496	14344	212	43	-101	-16020	976	-3004	44	-338	156	-1920	-2900	16752	941	-100	52	128	125	5
-8408	-3412	13176	-45	167	-79	-16060	1868	-4740	-21	-170	301	-2208	-4980	15880	155	-124	242	-7628	4492	14328	231	12	-102	-15852	1052	-2876	77	-267	230	-1304	-2588	16796	894	-68	-125	128	125	5
-8528	-3428	13004	-63	145	-110	-15484	1952	-4720	-159	-82	257	-2012	-4848	15776	215	-228	203	-7716	4528	14292	275	-18	-71	-15760	1276	-2520	273	-209	328	-1120	-2268	16756	573	-44	-157	127	126	5
-8484	-3372	13076	-58	69	-156	-15500	2120	-4620	-74	-39	221	-1844	-4664	16124	243	-162	337	-7628	4580	14300	227	72	-140	-16008	1380	-2572	-44	-63	341	-1328	-2244	16964	356	-53	-194	127	125	5
-8348	-3408	13188	-97	96	-193	-15656	2144	-4604	-217	-30	217	-2348	-4996	15848	40	-185	372	-7728	4624	14344	188	109	-159	-16160	1624	-2636	-20	46	343	-1920	-2220	16872	560	-60	-198	128	124	5
-8384	-3512	13248	-106	264	-157	-16212	1792	-4544	-4	70	131	-2468	-5068	15988	95	-242	341	-7668	4472	14376	199	125	-144	-16072	1728	-2984	-96	105	230	-2200	-2076	17012	622	-83	-71	128	125	5
-8472	-3568	13156	-69	279	-149	-15968	1544	-4736	63	53	118	-2640	-5124	15772	148	-254	292	-7772	4588	14300	75	85	-212	-15992	1736	-2972	-61	169	131	-2304	-2040	16848	748	62	62	129	125	5
-8528	-3296	13080	-40	270	-85	-15720	1580	-5072	341	-35	223	-2692	-5288	15808	141	-161	141	-7804	4436	14340	93	38	-190	-15988	1420	-2932	-106	208	114	-2092	-2100	16724	557	-64	-3	128	124	5
-8568	-3356	13060	-64	137	-174	-15548	1600	-5144	-9	-106	299	-2624	-5192	15796	198	-24	119	-7704	4460	14260	50	-38	-195	-15764	1312	-2920	164	254	77	-1676	-2328	16640	476	-200	-147	128	125	5
-8576	-3432	13080	-72	130	-178	-15648	1748	-4812	-163	-190	317	-2608	-4924	15816	70	-37	129	-7728	4504	14316	50	-29	-193	-15708	1284	-2952	274	241	50	-1564	-2352	16800	283	-122	-179	128	126	5
-8524	-3388	13188	-96	61	-150	-15796	2012	-4628	-60	-233	281	-2276	-4760	15932	-108	-118	179	-7700	4456	14236	57	12	-157	-15784	1508	-3152	138	204	73	-1952	-2308	17024	66	-81	-135	128	125	5
-8424	-3328	13284	-123	65	-203	-15996	2288	-4308	-51	-167	146	-2012	-4752	16144	82	-281	185	-7692	4572	14412	59	74	-207	-15872	1640	-3276	-195	44	-29	-1968	-2296	16928	26	-121	-132	128	126	5
-8460	-3540	13048	-125	140	-228	-16092	2152	-4400	-33	-28	101	-2120	-4764	16160	115	-76	293	-7792	4440	14200	71	-9	-163	-15820	1348	-3280	-343	12	-93	-2268	-2616	16624	59	-27	124	128	126	5
-8444	-3472	13284	-161	265	-162	-16152	1872	-4540	183	19	9	-2312	-4972	16004	-70	-84	292	-7740	4440	14372	106	-74	-146	-15908	1020	-3240	-68	-24	-78	-2128	-2760	16600	171	-111	68	129	126	5
-8528	-3488	13336	-130	334	-191	-16204	1648	-4584	157	26	56	-2480	-5232	15780	-214	-148	216	-7756	4476	14356	122	-68	-134	-15912	924	-3140	290	-11	-28	-1924	-2904	16688	301	-93	-42	128	126	5
-8496	-3640	13100	-94	330	-111	-16032	1632	-4776	77	-2	116	-2500	-5368	15908	-73	-194	122	-7704	4476	14468	171	-17	-108	-15884	1192	-3156	262	-109	94	-1976	-2892	16740	350	-52	-103	128	126	5
-8544	-3516	13048	-46	271	-108	-15644	1528	-4636	24	-5	152	-2304	-5396	15468	-131	-68	105	-7696	4452	14300	181	29	-104	-15780	1344	-3184	45	-186	141	-1804	-2692	16716	269	-138	-215	128	126	5
-8476	-3352	12920	-74	140	-117	-15512	1632	-4844	178	22	209	-2188	-5332	15456	7	-30	123	-7664	4520	14276	205	-20	-92	-15792	1236	-3016	78	-206	157	-1812	-2468	16796	165	-27	-171	128	126	5
-8524	-3292	13072	-37	40	-189	-15564	1724	-4744	213	53	247	-2292	-5176	15644	105	-67	145	-7696	4656	14336	223	19	-122	-15912	1312	-3004	221	-208	186	-1976	-2504	16924	204	157	-185	128	125	5
-8392	-3448	13200	-46	26	-213	-15964	1912	-4824	156	6	288	-2572	-5204	15920	86	-134	111	-7728	4592	14312	243	18	-119	-16020	1552	-2880	285	-220	141	-2032	-2272	16712	310	-26	-203	128	126	5
-8440	-3404	13236	-18	74	-193	-15976	1916	-4828	79	-2	296	-2664	-5172	16036	93	-64	143	-7740	4596	14228	162	-47	-99	-16004	1744	-2876	102	-186	132	-2068	-2196	16840	453	-64	-83	127	125	5
-8504	-3500	13244	-51	125	-166	-16044	1888	-4832	60	-50	327	-2608	-4948	15868	242	45	215	-7680	4588	14220	156	-30	-120	-16148	1724	-2756	-47	-107	64	-2052	-2152	16948	497	-26	-125	128	126	5
-8496	-3344	13128	-97	105	-155	-15688	2068	-4692	-51	-120	148	-2296	-4788	15892	122	-166	303	-7704	4576	14304	106	4	-150	-16060	1608	-2900	-205	-61	81	-1688	-2280	16972	427	21	109	127	125	5
-8528	-3348	13080	-107	84	-245	-15696	2072	-4488	-81	-8	90	-2124	-4716	15952	166	-183	354	-7716	4508	14320	139	-21	-173	-15920	1360	-2904	-63	-7	9	-1620	-2204	16712	291	99	116	128	126	5
-8440	-3412	13148	-109	75	-229	-15832	1800	-4652	75	-23	84	-2240	-4980	16024	71	-167	304	-7680	4540	14304	88	-16	-153	-15836	1368	-2852	205	98	-8	-1752	-2216	16692	163	-6	72	128	125	5
-8472	-3580	13200	-159	112	-233	-16164	1908	-4676	126	40	115	-2344	-5048	15924	115	-100	242	-7676	4528	14240	105	-16	-139	-15884	1572	-3028	62	56	-36	-1784	-2388	16772	100	-11	46	128	127	5
-8416	-3540	13156	-118	193	-169	-16048	1792	-4544	185	76	89	-2392	-4988	15880	93	-8	219	-7700	4528	14392	85	25	-167	-15956	1412	-3104	-73	106	17	-1808	-2452	16916	323	44	-20	127	125	5
-8424	-3480	13076	-67	203	-166	-15880	1808	-4720	120	74	70	-2420	-5016	15756	-2	-78	209	-7752	4576	14312	66	52	-202	-15964	1372	-3016	-50	58	-36	-1928	-2304	16928	284	95	0	129	126	5
-8540	-3292	13056	-86	143	-154	-15728	1932	-4792	60	65	84	-2436	-4924	15688	-86	-155	141	-7756	4544	14304	113	25	-150	-15808	1488	-3100	73	60	-27	-2064	-2152	16736	188	96	-22	128	125	5
-8508	-3424	13116	-118	80	-240	-15752	1824	-4872	50	48	100	-2488	-5060	15836	-230	-256	123	-7704	4520	14240	106	11	-175	-15992	1536	-2896	95	41	-44	-2060	-2284	16648	103	119	-1	128	125	5
-8460	-3584	13164	-126	106	-225	-16120	1820	-4716	74	48	86	-2572	-5232	16028	-62	-212	146	-7756	4568	14300	79	-19	-207	-16016	1528	-3116	-101	42	-90	-2148	-2588	16784	66	-93	50	128	126	5
-8464	-3532	13184	-120	151	-171	-16064	1824	-4736	165	-15	76	-2508	-5320	15792	106	-85	225	-7724	4552	14292	91	-40	-177	-16024	1376	-3100	-84	-4	-90	-2112	-2656	16884	173	-115	61	128	125	5
-8464	-3416	13048	-92	180	-146	-15708	1772	-4872	130	-32	134	-2440	-5108	15740	109	-48	195	-7712	4504	14320	91	-18	-174	-15960	1336	-3120	118	-3	-103	-1912	-2436	16968	165	-49	129	128	125	5
-8616	-3452	13020	-134	121	-207	-15632	1780	-4784	54	-24	112	-2396	-4856	15664	78	-138	216	-7688	4448	14364	130	59	-201	-15940	1444	-3032	84	-57	-135	-1900	-2404	16784	199	76	126	128	126	5
-8480	-3444	13208	-102	94	-193	-15796	1904	-4764	40	-58	111	-2440	-4932	15952	-71	-212	163	-7692	4504	14232	91	8	-194	-15788	1500	-3092	-114	-42	-126	-1908	-2264	16664	280	9	82	128	126	5
-8480	-3420	13124	-115	100	-172	-15936	1948	-4808	-46	-94	83	-2440	-5168	16148	20	-73	207	-7672	4572	14348	117	-17	-185	-15868	1608	-3108	-111	-29	-147	-2060	-2184	16984	102	-39	84	128	127	5
-8444	-3432	13156	-172	181	-214	-16024	1896	-4656	-124	-53	55	-2440	-4960	15828	4	-46	227	-7772	4480	14260	99	8	-133	-15828	1476	-3264	-179	-185	-258	-2264	-2436	16772	50	34	181	128	126	5
-8480	-3400	13116	-135	162	-182	-16028	1728	-4544	64	-34	60	-2384	-5080	15728	-111	-79	169	-7672	4452	14384	81	-82	-149	-15820	1272	-3292	-42	-213	-246	-2212	-2492	16676	-87	-28	231	127	125	5
-8504	-3404	13124	-75	146	-195	-15900	1712	-4620	363	-8	110	-2416	-5152	15836	-194	-188	91	-7700	4500	14296	98	-54	-151	-15972	1128	-2972	161	-185	-221	-1716	-2780	16700	-123	-22	120	128	126	5
-8560	-3480	13148	-60	191	-163	-15648	1660	-4892	322	-64	163	-2472	-5412	15892	-218	-249	62	-7704	4596	14312	111	-69	-110	-16012	1124	-2756	256	-123	-86	-1576	-2812	16944	-39	-157	-9	127	126	5
-8580	-3364	13108	-98	113	-170	-15680	1836	-4920	12	-103	165	-2364	-5364	15856	17	-45	145	-7684	4472	14364	113	-28	-122	-16068	1548	-2648	85	-37	-19	-1536	-2592	16940	298	-42	-20	128	126	5
-8440	-3432	13284	-89	118	-185	-15840	1996	-4740	-185	-134	183	-2360	-5092	15992	193	-63	241	-7728	4548	14328	105	5	-156	-15980	1556	-2692	-353	15	47	-1752	-2504	16832	573	20	34	128	126	5
-8412	-3472	13104	-94	163	-169	-16068	2132	-4408	-256	-57	145	-2276	-5004	15808	352	-113	312	-7688	4544	14320	78	-17	-194	-16004	1304	-3008	-485	35	78	-1908	-2580	16832	423	38	52	127	126	5
-8520	-3352	13080	-107	143	-188	-15916	1820	-4496	-75	46	82	-2080	-4868	15800	331	-180	351	-7704	4528	14384	112	-6	-151	-15868	1092	-3056	-79	95	1	-1844	-2460	16804	381	13	89	127	125	5
-8452	-3444	13112	-104	146	-198	-15788	1588	-4516	151	94	118	-2128	-5036	15684	39	-252	266	-7716	4440	14396	108	78	-174	-15756	1204	-3064	440	15	1	-1980	-2392	16780	225	20	73	128	126	5
-8432	-3568	13160	-59	186	-185	-16064	1512	-4688	358	73	168	-2520	-5128	15952	-117	-156	123	-7780	4528	14224	139	-6	-146	-15848	1392	-3068	323	33	7	-1936	-2388	16680	223	10	-41	128	126	5
-8460	-3572	13112	-42	215	-139	-16124	1760	-4768	293	60	227	-2548	-5228	15984	-94	-58	51	-7728	4564	14308	120	-26	-139	-15776	1488	-3152	-51	-70	68	-1904	-2436	16808	170	-63	-119	128	127	5
-8480	-3420	13128	-24	181	-72	-15720	1920	-4796	85	21	211	-2568	-5140	15904	-37	-7	22	-7760	4516	14364	155	-4	-108	-15948	1296	-3236	-103	-115	69	-2136	-2412	17040	156	-86	-139	127	126	5
-8432	-3324	12960	-50	141	-158	-15556	1900	-4892	-97	33	208	-2436	-5120	15648	50	-88	107	-7732	4508	14336	170	-14	-122	-16032	1356	-3156	113	-170	9	-2248	-2432	16940	26	-3	-42	129	126	5
-8484	-3416	13192	-48	108	-170	-15880	1664	-4876	-120	13	222	-2524	-5236	15832	85	-176	133	-7752	4464	14364	208	18	-116	-15984	1424	-3144	77	-147	-2	-2192	-2488	16716	153	39	21	127	126	5
-8400	-3540	13168	-39	149	-169	-16288	1528	-4572	71	3	228	-2576	-5156	15880	21	-131	80	-7760	4520	14196	187	34	-110	-15768	1284	-3160	-26	-285	-11	-2044	-2528	16752	160	47	-24	128	126	5
-8484	-3524	13060	11	181	-60	-16088	1444	-4492	519	-47	246	-2364	-5080	15996	-118	-63	-34	-7812	4500	14268	202	-73	-118	-15792	1084	-3064	257	-299	20	-1720	-2568	16904	177	-38	-206	128	126	5
-8512	-3460	13160	21	120	-85	-15712	1884	-4640	592	-37	198	-2084	-4992	15704	-179	30	-70	-7624	4636	14340	199	3	-119	-15888	1268	-3040	564	-216	48	-1672	-2604	16864	31	-16	-299	128	126	5
-8424	-3276	13124	56	76	-96	-15564	2152	-4600	227	27	258	-2040	-5184	15832	-146	22	-62	-7704	4564	14324	223	34	-105	-16236	1448	-2692	435	-221	131	-1704	-2720	16784	-26	-18	-300	127	126	5
-8424	-3276	13060	-13	138	-126	-15756	2020	-4756	-104	74	343	-2324	-5316	15912	-146	-103	50	-7700	4536	14424	220	50	-133	-16096	1440	-2680	-32	-110	200	-1672	-2864	16812	160	-50	-230	128	126	5
-8476	-3536	13208	-6	211	-63	-15976	1908	-4904	-77	41	344	-2644	-5360	16000	152	-118	168	-7704	4528	14332	208	18	-115	-16160	1292	-2700	-291	-24	304	-1896	-2860	16896	401	-26	-119	126	127	5
-8492	-3508	13168	-30	250	-66	-16016	1904	-4864	-13	0	229	-2800	-5104	15824	427	31	264	-7688	4608	14376	228	148	-124	-16200	1392	-2920	-15	0	314	-2244	-2556	16880	781	-54	-121	127	126	5
-8500	-3288	13008	-4	198	-33	-15640	1864	-4868	1	-40	210	-2540	-5020	15580	317	-173	289	-7712	4604	14344	220	161	-175	-15844	1652	-3196	224	-47	251	-2248	-2200	16728	878	9	-33	127	127	5
-8568	-3244	13008	-36	112	-78	-15544	1824	-5044	52	-38	293	-2440	-4964	15648	326	-253	257	-7788	4600	14284	220	72	-117	-15660	1776	-3128	106	-90	198	-2060	-1908	16672	770	62	13	127	127	5
-8472	-3172	13084	-11	48	-170	-15604	1848	-4940	-9	-56	324	-2460	-4852	15928	345	-221	176	-7796	4552	14244	160	-41	-158	-15672	1616	-2904	-4	-99	148	-1952	-1912	16560	760	43	0	128	127	5
-8452	-3400	13184	-42	36	-216	-15880	1952	-4996	37	-204	412	-2712	-4640	16080	135	-25	34	-7700	4596	14308	122	-32	-139	-15996	1584	-2852	111	-130	57	-1848	-1848	17044	194	-32	-102	127	126	5
-8476	-3384	13208	-82	31	-192	-16064	2264	-4944	158	-259	335	-2860	-4524	16108	-72	51	-67	-7788	4592	14212	122	36	-180	-15968	1792	-2768	53	-107	-18	-2004	-1784	16856	93	8	-117	127	127	5
-8428	-3188	13188	-161	69	-198	-15996	2592	-4860	-19	-211	213	-2584	-4516	15964	43	-11	-23	-7760	4572	14240	84	-34	-142	-15876	1840	-2688	14	-42	-86	-1764	-1836	16812	-155	78	-89	127	128	5
-8428	-3264	13216	-192	87	-237	-15756	2460	-4596	-172	-262	133	-2228	-4492	16016	-51	-138	134	-7728	4664	14252	66	-70	-165	-15912	1712	-2672	23	32	-153	-1652	-2040	16992	-187	5	-4	127	129	5
-8488	-3456	13068	-237	103	-298	-15736	2216	-4372	-42	-178	-53	-2056	-4524	16068	-60	-214	306	-7704	4692	14296	-11	-16	-158	-16088	1676	-2844	-24	131	-226	-1708	-2072	17060	-211	20	22	127	128	5
-8456	-3364	13112	-282	154	-345	-15864	2260	-4536	124	-85	-180	-2084	-4660	16028	-175	-315	384	-7704	4576	14248	-26	-46	-239	-16104	1540	-2760	-103	191	-282	-1708	-2524	16828	63	115	247	127	129	5
-8368	-3360	13240	-294	170	-325	-16084	2216	-4480	22	-63	-249	-2400	-4792	16084	-166	-300	449	-7708	4544	14228	-28	-6	-236	-16016	1392	-2744	-154	296	-183	-1780	-2524	16804	249	75	230	126	129	5
-8452	-3508	13160	-322	226	-314	-16012	1976	-4584	-203	-17	-283	-2260	-5028	15980	-93	-326	479	-7680	4536	14296	-24	36	-225	-15948	1308	-3012	-175	296	-181	-1860	-2612	16780	239	152	182	126	129	5
-8424	-3476	13124	-281	176	-287	-15736	1616	-4552	-159	43	-330	-2164	-5104	15736	-174	-367	462	-7676	4508	14340	7	-49	-201	-15844	1164	-3024	-116	340	-151	-1916	-2616	16688	91	141	124	126	131	5
-8428	-3340	13096	-263	154	-303	-15772	1548	-4644	-47	55	-223	-2144	-5500	15764	-112	-369	418	-7696	4520	14340	-10	15	-225	-15792	1304	-3260	5	229	-87	-1812	-2572	16928	-42	65	93	126	131	5
-8432	-3472	13148	-244	136	-289	-15996	1388	-4572	57	64	-129	-2340	-5648	15888	1	-237	367	-7748	4528	14332	21	-8	-179	-15824	1292	-3312	24	143	-91	-1996	-2572	16728	40	43	3	125	130	5
-8396	-3528	13244	-169	136	-284	-16100	1412	-4692	208	29	-59	-2416	-5516	15836	18	-165	259	-7740	4444	14280	43	23	-176	-15876	1432	-3284	87	83	-76	-2188	-2488	16812	-81	80	26	125	131	5
-8440	-3504	13180	-180	189	-206	-16004	1536	-4632	242	35	24	-2316	-5272	15736	-55	-67	148	-7744	4516	14456	82	7	-162	-15940	1552	-3312	49	15	-91	-2432	-2576	16888	10	90	28	125	132	5
-8448	-3484	13172	-100	162	-208	-15916	1568	-4704	125	74	88	-2344	-5404	15648	-56	-99	120	-7772	4496	14228	66	61	-200	-15940	1544	-3292	-52	-73	-146	-2340	-2512	16808	166	94	155	124	133	5
-8452	-3508	13156	-55	139	-152	-15856	1640	-4860	98	82	183	-2472	-5436	15776	13	-166	88	-7744	4548	14400	105	-28	-145	-15812	1400	-3100	-113	-117	-140	-2148	-2464	16780	149	18	208	124	132	5
-8528	-3560	13100	-48	179	-117	-16008	1528	-4892	99	0	261	-2560	-5324	15696	29	-200	28	-7772	4488	14188	119	-46	-158	-15856	1452	-3200	-47	-186	-193	-2084	-2488	16740	171	37	201	124	133	5
-8480	-3468	13088	4	149	-107	-15664	1740	-4820	219	-14	283	-2540	-5076	15776	141	-83	40	-7676	4468	14328	95	-61	-149	-15852	1444	-3084	-53	-192	-212	-2008	-2520	16680	63	26	176	124	133	5
-8536	-3428	13124	11	80	-127	-15620	1892	-4948	213	-81	243	-2576	-4952	15884	-32	-87	74	-7728	4452	14288	140	-42	-153	-15944	1284	-2920	8	-203	-128	-1880	-2612	16812	92	-11	124	124	133	5
-8480	-3284	13164	-50	28	-188	-15724	2136	-4932	36	-129	214	-2504	-4852	15964	98	-59	144	-7756	4528	14348	139	-48	-116	-15964	1416	-2908	81	-130	-139	-1948	-2400	16984	133	-3	103	123	133	5
-8432	-3424	13212	-167	99	-219	-15888	2176	-4856	-186	-154	168	-2488	-4712	15924	160	-90	180	-7788	4500	14360	109	-19	-148	-15916	1500	-2956	-47	-169	-159	-1816	-2360	16688	147	116	153	123	133	5
-8500	-3448	13152	-150	95	-230	-15964	2000	-4700	-75	-169	109	-2340	-4684	16056	94	-131	247	-7704	4540	14264	95	-29	-149	-15984	1396	-2768	-140	-73	-152	-1880	-2368	16692	51	-3	133	123	134	5
-8372	-3444	13228	-186	146	-203	-15960	2080	-4676	56	-149	-30	-2268	-4732	16072	-15	-123	278	-7672	4572	14372	103	-24	-145	-16016	1344	-2764	-138	-31	-136	-1980	-2476	16876	145	-13	96	123	135	5
-8408	-3456	13164	-168	167	-230	-15936	2104	-4652	-103	-97	-33	-2248	-4932	15884	-144	-121	323	-7772	4488	14344	68	-16	-150	-15992	1348	-2956	-39	-28	-97	-1844	-2548	16808	236	-26	141	124	134	5
-8428	-3364	13124	-200	188	-235	-15836	1840	-4504	-70	-58	-76	-2156	-5100	15616	-233	-292	344	-7728	4532	14284	79	-35	-184	-15844	1364	-3000	-38	24	-82	-1752	-2504	16836	204	34	200	123	134	5
-8448	-3488	13152	-243	161	-209	-15952	1628	-4616	1	-33	-19	-2216	-5360	15880	27	-196	269	-7704	4524	14268	88	11	-164	-15904	1308	-2992	-14	-7	-64	-1828	-2400	16868	135	42	82	123	135	5
-8484	-3532	13268	-134	201	-218	-16148	1484	-4756	115	-28	91	-2736	-5396	15760	41	-151	224	-7744	4436	14300	131	17	-177	-15960	1348	-3036	102	33	-45	-2048	-2432	16724	114	6	-26	124	133	5
-8492	-3476	13060	-119	142	-178	-15820	1496	-4644	90	-26	102	-2072	-5456	15716	-105	-181	159	-7800	4508	14248	64	19	-146	-16000	1448	-3016	9	-32	-62	-2024	-2520	16860	146	-42	-44	123	135	5
-8464	-3488	13168	-43	153	-138	-15440	1532	-4656	-95	-31	182	-1968	-5376	15848	142	-151	212	-7720	4544	14328	109	-4	-170	-15928	1416	-3016	-103	28	-66	-1864	-2536	16840	184	6	179	123	134	5
-8492	-3484	13136	-51	125	-147	-16028	1648	-4528	63	27	209	-2484	-5132	15724	112	57	211	-7704	4488	14240	73	58	-176	-16132	1396	-2996	-190	82	-80	-1924	-2588	16916	262	35	207	123	134	5
-8400	-3436	13040	-55	92	-151	-16124	1884	-4732	180	45	192	-2724	-5128	15848	-61	-271	229	-7672	4544	14236	94	36	-175	-15904	1276	-2952	-181	87	-58	-1752	-2464	16908	300	83	82	123	134	5
-8472	-3304	13176	-87	137	-158	-15904	1960	-4884	43	25	214	-2508	-5036	15972	232	-213	160	-7688	4436	14284	80	-5	-154	-15984	1252	-2908	44	158	7	-1844	-2388	16760	309	83	75	122	133	5
-8488	-3404	13104	-131	140	-197	-15648	1868	-4844	-143	-10	230	-2168	-4960	15848	387	-37	218	-7792	4588	14360	99	34	-169	-15916	1476	-3064	75	138	-43	-2160	-2384	16792	283	-23	24	123	135	5
-8460	-3584	13080	-108	108	-176	-15668	1740	-4632	-123	-11	153	-2228	-4752	15976	106	-129	296	-7732	4464	14348	72	5	-174	-15800	1620	-3124	-1	117	-138	-2020	-2456	16972	199	44	215	123	133	5
-8384	-3628	13228	-85	114	-137	-15920	2036	-4712	115	-32	107	-2460	-4748	15916	-139	-199	322	-7668	4560	14208	77	-3	-157	-15944	1464	-2908	-232	79	-143	-1964	-2420	16844	331	111	220	123	133	5
-8420	-3332	13184	-95	106	-177	-15944	2132	-4788	168	21	79	-2680	-4916	15940	-72	-299	206	-7740	4556	14328	35	6	-176	-15856	1408	-2908	-228	123	-70	-1900	-2160	16736	188	134	190	123	132	5
-8384	-3284	13116	-185	151	-262	-15820	1932	-4848	-53	-44	133	-2560	-4848	16064	83	-105	141	-7780	4508	14376	61	14	-197	-15752	1556	-3088	-195	40	-160	-2044	-2092	16620	-23	26	123	123	132	5
-8508	-3640	13132	-182	120	-267	-15828	1916	-4720	-56	-32	46	-2404	-4796	15952	94	-29	210	-7760	4420	14320	42	-101	-147	-15868	1504	-3128	-97	44	-265	-2192	-2308	16812	-86	64	187	123	131	5
-8388	-3488	13176	-210	76	-211	-15892	1840	-4720	-66	-22	-27	-2344	-5108	15872	-189	-245	313	-7740	4496	14384	17	10	-174	-16036	1484	-3052	-20	27	-283	-2324	-2612	16780	-31	-3	270	123	131	5
-8488	-3488	13104	-202	154	-220	-16000	1748	-4604	-75	-46	-37	-2400	-5196	15936	-166	-273	349	-7744	4540	14400	13	-56	-154	-16052	1432	-2980	-261	8	-274	-2100	-2776	16728	218	-4	368	123	131	5
-8448	-3636	13300	-136	195	-219	-16000	1504	-4580	-36	-52	67	-2384	-5284	15828	16	-337	322	-7760	4440	14296	53	-55	-127	-15832	1184	-3080	-324	-1	-220	-2048	-2816	16628	318	8	307	123	129	5
-8416	-3484	13040	-138	222	-159	-15964	1652	-4620	209	-41	56	-2356	-5176	15976	90	-173	225	-7708	4368	14396	38	-28	-171	-15756	940	-3396	-187	-35	-173	-2076	-2844	16820	368	-106	194	124	129	5
-8504	-3512	13000	-133	184	-180	-15908	1800	-4560	44	27	97	-2160	-5152	15836	76	-96	194	-7692	4392	14336	137	-90	-148	-15892	1012	-3384	45	-169	-152	-2132	-2644	16784	196	-74	131	124	129	5
-8436	-3508	13176	-62	154	-157	-15860	1612	-4644	27	-1	139	-2216	-5248	15748	-97	-129	148	-7720	4472	14180	201	-31	-115	-15820	1056	-3356	198	-218	-116	-1964	-2648	16692	-74	23	97	124	128	5
-8472	-3504	13184	-13	215	-106	-16012	1504	-4864	129	29	214	-2392	-5296	15824	-64	-176	38	-7732	4448	14328	226	53	-128	-15840	1164	-3152	179	-266	-80	-1880	-2628	16632	-16	-67	-98	125	128	5
-8472	-3504	13132	-2	240	-106	-16000	1628	-4852	271	-23	309	-2420	-5252	15872	-47	-131	4	-7732	4492	14216	198	13	-103	-15872	1360	-3004	143	-301	32	-1932	-2460	16924	81	-136	-209	125	127	5
-8416	-3452	13036	-37	188	-104	-15900	1844	-4792	367	-48	261	-2544	-4840	15904	-149	61	-63	-7752	4536	14252	199	-7	-140	-16068	1408	-2948	94	-220	24	-2116	-2368	16900	231	-89	-214	125	127	5
-8496	-3408	13108	-45	189	-103	-15676	2160	-4684	170	-105	178	-2304	-4840	15896	-282	-10	7	-7768	4540	14420	153	-4	-155	-16044	1596	-2896	24	-225	-38	-2000	-2288	16876	51	-71	-71	126	127	5
-8480	-3356	13148	-65	145	-145	-15548	2160	-4908	-44	-55	126	-2236	-4944	15892	-169	-190	150	-7736	4516	14320	149	-41	-137	-15960	1556	-2912	14	-177	-95	-1892	-2204	16932	40	-4	85	126	127	5
-8452	-3384	13096	-121	146	-230	-15768	1988	-4784	-81	-56	88	-2380	-5020	15984	43	-170	295	-7760	4548	14348	103	-28	-190	-16004	1544	-2856	64	-88	-209	-1892	-2188	16832	47	-26	179	126	127	5
-8468	-3388	13252	-148	159	-223	-16068	1800	-4728	63	-117	70	-2584	-4948	16044	48	-174	285	-7760	4532	14296	57	22	-185	-16056	1608	-2788	60	-77	-230	-2004	-2128	16940	39	-52	229	126	125	5
-8496	-3612	13124	-138	204	-175	-16088	1856	-4624	84	-107	13	-2536	-4828	15904	-55	-124	254	-7692	4604	14352	73	-52	-194	-16084	1636	-2852	-175	-43	-272	-2068	-2168	16816	138	-45	224	127	126	5
-8436	-3468	13136	-146	204	-170	-15892	1904	-4540	90	-98	-37	-2312	-4880	15864	-187	-176	212	-7776	4476	14324	39	7	-208	-15880	1456	-3052	-387	17	-318	-1920	-2292	16704	79	-49	226	127	125	5
-8432	-3420	13144	-112	193	-194	-15728	1840	-4644	12	-102	-58	-2108	-5032	15820	-273	-277	171	-7720	4456	14296	11	-130	-176	-15868	1160	-2904	-261	66	-350	-1788	-2456	16788	-123	-52	233	127	125	5
-8464	-3488	13160	-142	175	-235	-15848	1816	-4672	-10	-38	-53	-2056	-5156	15984	-257	-179	250	-7768	4528	14264	-10	-96	-209	-15932	1168	-3004	62	80	-334	-1816	-2636	16800	-166	-120	182	127	123	5
-8464	-3496	13144	-171	197	-174	-16012	1728	-4616	33	-8	-29	-2236	-5224	15888	-170	-85	293	-7676	4512	14420	33	-67	-226	-16100	1340	-2856	109	48	-322	-2072	-2684	16852	-16	-180	234	127	125	5
-8444	-3500	13224	-140	235	-188	-16060	1656	-4624	73	47	-14	-2420	-5392	15696	-111	-171	257	-7692	4420	14296	49	-2	-191	-15912	1368	-3100	-269	51	-323	-2144	-2708	16584	186	-9	273	127	124	5
-8536	-3516	13108	-158	170	-156	-15892	1504	-4728	118	41	23	-2316	-5380	15720	-39	-197	226	-7760	4516	14204	42	-45	-163	-15776	1028	-3236	-379	13	-299	-2048	-2824	16548	217	-53	262	128	124	5
-8532	-3456	13068	-104	204	-162	-15812	1488	-4800	140	17	89	-2344	-5368	15724	28	-79	197	-7784	4500	14244	59	-91	-118	-15744	988	-3076	-86	16	-215	-1848	-2936	16712	139	-76	202	127	124	5
-8480	-3528	13032	-77	138	-157	-15752	1568	-4592	151	15	154	-2236	-5300	15716	82	-50	195	-7668	4528	14276	104	-129	-159	-15864	1020	-3188	144	-23	-140	-2020	-2896	16684	198	-86	113	128	123	5
-8392	-3536	13036	-83	127	-139	-15932	1648	-4584	33	52	189	-2240	-5412	15780	4	-106	195	-7712	4488	14288	138	-29	-144	-15960	1180	-3224	95	-108	-136	-2196	-2884	16816	196	-138	104	128	123	5
-8496	-3524	13160	-40	149	-146	-16108	1600	-4660	30	78	217	-2328	-5408	15796	4	-96	168	-7744	4404	14300	129	3	-141	-15932	1224	-3112	-141	-152	-30	-2176	-2836	16708	202	-133	110	128	123	5
-8468	-3452	13052	-9	169	-105	-16012	1712	-4596	220	78	261	-2312	-5272	15768	142	-89	169	-7708	4388	14416	167	-33	-79	-15868	956	-3140	-206	-168	-29	-2000	-2924	16608	334	-152	30	129	124	5
-8540	-3432	13092	12	166	-123	-15768	1544	-4700	398	27	335	-2360	-5180	15928	144	-5	117	-7680	4452	14248	224	-81	-113	-15892	916	-3088	127	-172	70	-1816	-2816	16844	295	-171	-89	129	122	5
-8476	-3492	13156	6	134	-138	-15756	1752	-4856	221	109	327	-2408	-5144	15768	95	-1	136	-7700	4520	14440	218	9	-93	-16108	1292	-3008	371	-226	137	-2056	-2504	16916	357	-66	-126	129	123	5
-8500	-3360	13272	-16	122	-132	-15868	1824	-4796	101	47	364	-2436	-5044	15800	41	-98	82	-7736	4548	14332	199	34	-122	-15960	1488	-2968	87	-238	116	-2064	-2360	16680	402	-93	-120	129	122	5
-8440	-3408	13132	-17	120	-134	-15892	1968	-4696	28	48	364	-2436	-4996	15868	172	-138	125	-7688	4576	14156	185	22	-105	-15892	1440	-2864	-232	-139	129	-1680	-2488	16768	335	-234	-91	129	124	5
-8464	-3500	13164	-3	106	-153	-15816	1836	-4644	35	47	350	-2340	-4932	15884	131	9	114	-7688	4496	14256	153	-53	-77	-15940	1136	-2740	-131	-134	171	-1452	-2552	17004	302	-119	-115	129	123	5
-8460	-3364	13108	-42	122	-126	-15812	1968	-4708	196	30	270	-2316	-4848	15812	117	-35	169	-7724	4568	14264	168	-35	-107	-15948	1000	-2772	173	-6	137	-1480	-2436	16932	186	-68	-55	128	121	5
-8472	-3392	13152	-67	131	-178	-15968	2136	-4468	16	52	237	-2164	-4772	15968	212	-87	191	-7604	4524	14388	173	44	-147	-16024	1540	-2936	209	-13	101	-1832	-2252	16964	267	52	-39	129	122	5
-8372	-3440	13248	-38	177	-159	-16152	1980	-4528	27	100	184	-2320	-4800	15936	104	-232	166	-7732	4508	14280	104	79	-169	-15976	1576	-3036	34	-4	78	-1964	-2228	16764	365	30	-6	128	122	5
-8424	-3364	13128	-84	228	-137	-15904	1788	-4704	224	150	139	-2316	-4940	16036	55	-144	113	-7756	4508	14252	97	31	-161	-15824	1320	-3004	-168	90	113	-1784	-2192	16772	161	-87	-102	129	122	5
-8496	-3392	13136	-86	200	-139	-15804	1788	-4732	313	140	145	-2320	-5052	15904	45	2	86	-7700	4468	14320	85	1	-148	-15884	1168	-2968	49	130	44	-1784	-2264	16696	210	-35	-122	128	123	5
-8484	-3360	13184	-75	187	-149	-15700	1772	-4892	204	103	175	-2524	-5116	15888	29	3	95	-7676	4512	14420	83	-22	-175	-15940	1320	-3048	185	121	11	-2024	-2556	16940	8	-82	-68	129	122	5
-8516	-3476	13080	-103	209	-163	-15740	1792	-4848	179	86	181	-2620	-5176	15640	16	-102	180	-7728	4480	14268	105	37	-169	-16028	1436	-3040	69	74	-29	-2104	-2560	16872	117	-11	18	129	122	5
-8484	-3512	13152	-102	198	-180	-15768	1784	-4924	74	8	141	-2640	-5068	15712	14	-172	208	-7756	4476	14256	80	52	-183	-15780	1400	-3120	-111	23	-4	-2028	-2556	16816	121	-18	14	129	122	5
-8440	-3356	13052	-94	160	-151	-15680	1716	-4864	107	-49	157	-2552	-5092	15848	-2	-242	124	-7688	4484	14156	91	-36	-141	-15848	1204	-3112	-32	-27	-17	-2048	-2588	16780	47	33	22	128	122	5
-8440	-3316	13208	-147	121	-239	-15632	1792	-4856	109	-137	216	-2408	-5052	15860	176	-6	122	-7780	4416	14320	120	-38	-149	-15984	1232	-2980	124	-22	-17	-1976	-2620	16740	145	20	-17	129	122	5
-8488	-3444	13020	-127	78	-207	-15780	1924	-4820	82	-141	173	-2444	-4996	15940	89	-76	156	-7692	4492	14296	118	-4	-161	-16048	1280	-3008	139	21	37	-1976	-2700	16740	247	-54	-41	129	122	5
-8456	-3432	13116	-125	112	-180	-15928	1928	-4672	19	-136	115	-2364	-5120	15912	-30	-147	267	-7672	4516	14336	130	-62	-112	-15972	1288	-2992	-107	6	92	-1896	-2804	16924	358	-90	-72	129	123	5
-8476	-3512	13284	-155	164	-207	-16036	1940	-4704	-82	-135	137	-2296	-5080	16076	-23	-182	321	-7712	4480	14232	168	10	-184	-15908	1204	-3076	-128	-37	152	-1880	-2628	16804	419	-41	-36	129	123	5
-8392	-3492	13152	-110	165	-193	-15948	1736	-4632	-36	-85	82	-2288	-5048	15892	135	-118	295	-7708	4388	14228	150	62	-185	-15864	1260	-3172	37	-19	105	-2020	-2552	16916	435	-22	-22	129	123	5
-8504	-3504	13056	-137	187	-188	-15788	1652	-4596	35	-16	117	-2312	-5176	15724	180	-99	275	-7724	4508	14244	134	20	-142	-15928	1368	-3176	69	-55	79	-2008	-2500	16740	464	-55	28	128	123	5
-8548	-3416	13104	-114	164	-174	-15904	1700	-4616	97	10	148	-2320	-5288	15740	129	-136	291	-7720	4552	14296	166	56	-146	-15924	1332	-3136	18	-111	39	-2068	-2512	16792	350	-63	36	130	124	5
-8420	-3480	13172	-111	143	-146	-15976	1728	-4736	81	36	193	-2420	-5244	15844	195	-136	257	-7692	4408	14372	177	7	-160	-15836	1296	-3264	9	-171	62	-2016	-2524	16816	341	-64	-13	130	122	5
-8500	-3468	13220	-35	177	-155	-16080	1688	-4620	31	43	233	-2376	-5136	15988	239	-40	195	-7760	4488	14300	127	-43	-119	-15736	1396	-3104	236	-239	75	-2016	-2308	16968	371	-39	-31	130	123	5
-8488	-3420	13140	-47	214	-128	-15940	1772	-4636	146	-4	251	-2276	-5008	15732	155	-71	117	-7744	4492	14308	177	0	-104	-15928	1672	-3032	159	-262	-16	-1992	-2260	16764	348	-22	9	129	123	5
-8492	-3396	13040	-60	231	-96	-15952	1916	-4644	179	42	284	-2296	-4980	15796	9	-114	146	-7712	4584	14320	128	-10	-160	-15960	1496	-2992	-173	-294	-18	-1940	-2372	16788	233	-33	75	129	123	5
-8480	-3320	13100	-58	219	-142	-15840	2040	-4720	136	31	253	-2364	-4944	15868	114	-24	180	-7748	4552	14196	173	-45	-176	-15984	1280	-2848	-223	-187	-27	-1644	-2496	16852	177	-72	51	128	123	5
-8460	-3348	13164	-38	230	-138	-15840	1928	-4780	86	57	241	-2360	-4832	15916	158	-88	229	-7624	4480	14332	118	-1	-152	-15908	1160	-2860	43	-129	-14	-1496	-2516	16952	284	-43	8	128	125	5
-8572	-3536	13104	-98	195	-161	-15740	1916	-4776	72	109	177	-2344	-4860	15828	183	-122	251	-7720	4552	14364	150	-17	-173	-15964	1344	-2976	242	-85	4	-1744	-2380	17064	278	-17	22	129	123	5
-8492	-3432	13068	-72	195	-149	-15744	1636	-4780	31	72	125	-2300	-4984	15972	47	-103	250	-7720	4516	14352	134	34	-151	-15948	1552	-2972	144	-99	-29	-1892	-2312	16824	272	25	38	128	123	5
-8516	-3452	13092	-97	200	-161	-15824	1580	-4920	147	70	166	-2392	-5068	15708	17	20	190	-7812	4464	14244	108	-19	-152	-15824	1460	-2872	-11	-53	-5	-1776	-2476	16736	206	27	6	129	123	5
-8476	-3452	13080	-45	153	-112	-15868	1608	-4696	267	11	246	-2472	-5196	15884	26	-121	104	-7728	4488	14328	108	-37	-116	-16004	1176	-2900	106	-32	74	-1860	-2472	16752	180	-4	-84	129	123	5
-8460	-3428	13152	-70	165	-133	-15848	1756	-4808	311	-6	298	-2520	-5060	15932	-76	-8	57	-7664	4560	14264	102	30	-168	-16144	1204	-2956	149	8	75	-1920	-2488	16872	149	-3	-127	128	123	5
-8460	-3368	13152	-87	154	-149	-15752	2048	-4836	149	-1	276	-2452	-5064	15676	37	113	115	-7740	4584	14336	97	40	-128	-16040	1480	-2908	108	68	126	-1876	-2564	16844	212	-60	-125	129	123	5
-8516	-3436	13108	-93	148	-183	-15908	2036	-4652	-101	-7	275	-2460	-5036	15740	169	-145	235	-7760	4496	14280	132	17	-144	-16008	1544	-3000	-18	55	96	-2016	-2544	16820	326	-42	-65	130	123	5
-8504	-3488	13160	-105	126	-188	-15952	1872	-4648	-154	38	184	-2388	-4992	15932	262	-196	310	-7740	4552	14368	93	1	-165	-16004	1448	-2928	-137	59	63	-1964	-2440	16852	444	45	12	129	124	5
-8540	-3348	13092	-66	147	-166	-15864	1680	-4756	93	35	222	-2352	-4940	15796	272	-96	273	-7708	4448	14352	114	36	-152	-15952	1332	-2996	-156	62	90	-1876	-2504	16756	409	-5	16	129	123	5
-8604	-3352	13064	-103	188	-159	-15800	1852	-4608	171	53	224	-2312	-4924	15796	241	-27	219	-7800	4464	14384	84	-43	-139	-15792	1256	-3072	-32	108	72	-1740	-2432	16804	445	13	-10	128	124	5
-8524	-3432	13176	-37	172	-162	-15908	1716	-4828	164	65	226	-2440	-4848	15936	57	-62	143	-7732	4464	14392	88	71	-143	-15792	1320	-3152	174	21	73	-1900	-2332	16832	457	23	-125	129	123	5
-8532	-3460	13176	-67	210	-191	-15980	1868	-4744	220	48	218	-2584	-4836	15948	1	-66	70	-7768	4544	14308	126	29	-156	-15960	1460	-3072	192	-13	72	-1932	-2332	16740	269	20	-157	128	124	5
-8492	-3380	13164	-96	219	-144	-15892	2028	-4828	81	34	215	-2516	-4824	15940	-2	-68	70	-7712	4500	14264	129	62	-160	-15908	1592	-3024	79	-58	86	-2040	-2308	16712	160	-14	-170	128	123	5
-8528	-3324	13008	-95	168	-167	-15748	1980	-4900	76	43	136	-2264	-4844	15956	17	-66	90	-7796	4568	14332	101	-20	-129	-15820	1584	-3036	101	-26	49	-2064	-2252	16776	110	-35	-95	128	124	5
-8480	-3452	13072	-105	162	-200	-15796	1844	-4844	79	25	173	-2372	-4980	15820	-23	-74	143	-7772	4480	14384	118	-91	-148	-15896	1480	-3064	-93	-82	-88	-2040	-2372	16928	74	-20	28	129	123	5
-8556	-3412	13132	-97	179	-196	-15844	1792	-4924	242	45	138	-2508	-5092	15768	-21	-114	190	-7692	4528	14328	133	-22	-150	-16016	1280	-2964	46	-49	-87	-1940	-2500	16820	107	14	69	128	124	5
-8468	-3484	13176	-79	160	-162	-15912	1760	-4736	184	-7	121	-2508	-5120	15944	-107	-80	181	-7668	4576	14348	108	37	-132	-15912	1340	-3000	82	-96	-93	-1776	-2480	16976	162	-11	110	128	123	5
-8504	-3424	13152	-62	147	-192	-15852	1800	-4792	165	-17	170	-2364	-5136	15856	40	-57	160	-7684	4456	14344	152	4	-156	-16036	1428	-2976	60	-92	-88	-1848	-2468	16696	213	31	64	128	123	5
-8488	-3312	13132	-76	123	-135	-15700	1864	-4748	155	-2	208	-2352	-4928	15776	74	-54	123	-7724	4528	14332	116	-23	-141	-15832	1188	-3052	5	-112	-43	-1832	-2520	16640	213	18	17	127	123	5
-8428	-3432	13124	-92	116	-149	-15832	1968	-4776	32	3	226	-2464	-5076	15860	53	-127	131	-7748	4376	14312	119	-43	-106	-15944	1196	-2992	134	-67	15	-1764	-2576	16808	181	-1	-108	129	122	5
-8520	-3428	13168	-103	171	-183	-15884	2060	-4960	-16	-20	172	-2532	-5028	16036	68	-133	140	-7692	4592	14300	171	-19	-119	-16112	1436	-2696	215	-4	50	-1900	-2532	16720	236	-19	-44	128	123	5
-8544	-3348	13224	-117	202	-152	-15780	1944	-4964	-44	-70	178	-2536	-4976	15932	174	-71	253	-7668	4540	14384	125	-11	-134	-16128	1548	-2892	-38	33	126	-1892	-2592	16928	266	-43	-6	128	123	5
-8512	-3320	12964	-107	167	-169	-15676	2080	-4812	-143	-101	124	-2416	-4856	15700	185	-166	370	-7724	4596	14304	131	35	-157	-16068	1516	-2904	-261	108	211	-1936	-2424	16916	463	3	74	129	123	5
-8452	-3384	13080	-138	88	-192	-15656	1980	-4768	-58	-66	48	-2392	-4904	15832	219	-299	419	-7672	4528	14248	113	33	-165	-16020	1364	-2864	-119	132	180	-1928	-2436	16744	514	-23	58	129	123	5
-8460	-3436	13156	-171	112	-236	-15984	1924	-4696	-83	-68	83	-2412	-5004	16088	236	-283	477	-7740	4488	14420	100	-11	-159	-15828	1520	-2940	-73	147	92	-2044	-2208	16712	718	-77	85	129	123	5
-8456	-3476	13228	-150	160	-206	-16204	1820	-4640	-63	-6	83	-2372	-4996	15984	338	-180	401	-7684	4528	14360	107	17	-154	-15696	1560	-3216	-18	57	98	-1948	-2128	16784	694	-45	134	128	124	5
-8452	-3492	13164	-148	236	-193	-16000	1760	-4708	-67	-66	137	-2384	-4984	15824	271	-159	341	-7740	4504	14436	112	-42	-145	-15736	1428	-3224	-66	-13	-12	-2032	-2076	16732	353	9	86	129	123	5
-8496	-3396	13072	-115	209	-147	-15776	1600	-4732	52	-7	149	-2284	-4896	15784	65	-78	226	-7752	4504	14288	130	-15	-140	-15808	1336	-3096	9	-90	-17	-1984	-2156	16732	209	18	16	129	123	5
-8540	-3496	13016	-50	169	-199	-15764	1556	-4716	153	36	193	-2556	-4788	15776	12	-56	68	-7724	4456	14444	145	-43	-146	-15860	1428	-3092	210	-158	-61	-2040	-2160	16952	-24	-31	-108	129	123	5
-8432	-3464	13048	-35	132	-165	-15988	1748	-4784	431	-25	239	-2616	-5012	15900	-162	-142	-19	-7760	4472	14252	132	-56	-123	-15780	1664	-3036	224	-188	-68	-2060	-2084	16840	50	-49	-122	129	123	5
-8488	-3464	13092	-41	156	-149	-15996	2164	-4864	271	-30	219	-2568	-4792	16076	-130	-104	13	-7716	4524	14296	120	-113	-124	-15808	1748	-2960	4	-185	-138	-1872	-2196	16824	-76	-67	-42	128	123	5
-8500	-3356	13104	-87	196	-162	-15640	2116	-4860	2	-38	165	-2360	-4728	15940	-126	36	51	-7680	4500	14240	91	-95	-153	-15892	1624	-2972	-75	-212	-224	-1880	-2164	16948	-177	-56	147	128	123	5
-8516	-3368	12948	-109	144	-170	-15420	1876	-4812	31	-29	125	-2212	-4868	15832	-6	5	131	-7680	4608	14312	52	-27	-169	-16096	1504	-2848	-127	-126	-279	-1800	-2444	16884	-91	48	283	129	123	5
-8496	-3380	13092	-108	81	-204	-15692	1864	-4844	118	-55	65	-2488	-5000	15676	-67	-190	262	-7736	4536	14356	48	-37	-201	-16104	1304	-2692	-134	-48	-240	-1632	-2596	16828	24	46	231	129	123	5
-8472	-3412	13152	-128	60	-230	-16048	1884	-4808	107	-47	49	-2660	-4916	16080	-53	-268	243	-7692	4524	14260	52	-83	-165	-16076	1324	-2512	-31	122	-98	-1640	-2524	16832	294	44	88	129	125	5
-8464	-3388	13076	-147	102	-179	-16088	2112	-4752	79	-71	56	-2408	-4848	16096	20	-155	190	-7640	4528	14412	30	30	-179	-16040	1388	-2720	-14	174	-60	-1624	-2320	16948	470	-29	-29	128	123	5
-8456	-3444	13228	-173	131	-157	-15888	2104	-4632	-66	-41	-41	-2176	-4808	15860	98	-125	237	-7660	4532	14364	57	38	-195	-15948	1496	-2876	-124	167	-74	-1792	-2300	16788	330	10	25	129	123	5
-8496	-3392	13128	-167	212	-168	-15844	1944	-4524	-162	35	2	-2048	-5024	15988	113	-198	257	-7748	4524	14316	58	46	-216	-15776	1408	-3072	-180	174	-42	-1896	-2484	16796	191	-11	99	129	123	5
-8524	-3472	13116	-138	237	-158	-15880	1536	-4564	-24	103	-19	-2228	-5204	15816	-9	-187	265	-7656	4484	14288	62	32	-175	-15824	1208	-3196	-105	118	-120	-2096	-2540	16648	109	18	147	129	124	5
-8548	-3520	13224	-56	252	-150	-16036	1476	-4692	293	119	83	-2544	-5268	15832	-141	-142	248	-7824	4336	14428	95	-5	-157	-15736	1320	-3296	150	40	-107	-2264	-2388	16652	114	-13	71	129	123	5
-8484	-3432	13164	-33	252	-108	-15928	1492	-4828	355	81	166	-2560	-5252	15884	-113	-137	228	-7708	4472	14388	106	-37	-136	-15760	1256	-3340	250	-80	-93	-2196	-2640	16752	93	-35	-55	128	124	5
-8536	-3424	13184	-14	191	-137	-15808	1584	-5188	218	-20	298	-2696	-5348	15720	-154	-37	122	-7756	4492	14344	167	-51	-130	-15892	1324	-3268	178	-207	11	-2232	-2672	16724	130	-32	-95	128	123	5
-8524	-3424	13124	-7	151	-103	-15688	1768	-5148	108	-101	348	-2696	-5080	15832	139	-17	-53	-7752	4600	14320	190	-5	-111	-15924	1492	-3140	138	-298	-7	-2132	-2468	16784	112	-63	-63	129	123	5
-8588	-3396	13116	-27	76	-152	-15592	1984	-4812	-11	-116	297	-2416	-4836	15952	8	-49	44	-7696	4500	14320	186	-10	-73	-15856	1476	-3064	-51	-334	-66	-1884	-2476	16880	171	-25	58	128	124	5
-8544	-3332	13144	-13	29	-173	-15688	2096	-4712	15	-104	229	-2316	-4712	15952	61	-19	110	-7700	4532	14244	150	-26	-116	-16040	1336	-2848	-146	-245	-31	-1700	-2512	16944	156	-49	69	129	123	5
-8524	-3316	13160	-55	-13	-220	-15764	2108	-4760	70	-93	200	-2336	-4720	16036	107	-87	185	-7684	4496	14336	195	-93	-131	-16088	1312	-2660	26	-178	-19	-1556	-2372	16944	264	45	107	129	123	5
-8516	-3464	13212	-123	92	-229	-16024	2092	-4752	103	-73	149	-2432	-4800	16036	31	-227	282	-7664	4524	14264	160	-44	-133	-16000	1496	-2592	193	-68	-9	-1592	-2108	16976	324	8	71	128	124	5
-8404	-3476	13180	-105	206	-168	-16008	2224	-4764	-44	-85	59	-2516	-4760	16108	62	-256	327	-7664	4568	14360	116	-12	-170	-16076	1612	-2692	31	21	2	-1676	-2184	17004	380	3	49	128	123	5
-8512	-3368	13140	-141	194	-154	-15904	2088	-4748	-171	-58	8	-2408	-4816	15896	115	-185	326	-7768	4548	14192	110	31	-164	-16052	1540	-2704	-177	74	54	-1844	-2164	16848	406	-4	39	128	123	5
-8528	-3364	13176	-155	187	-220	-15800	2080	-4668	-163	-91	0	-2340	-4848	15776	62	-175	349	-7688	4488	14360	51	42	-201	-15956	1396	-2852	-86	101	0	-1988	-2164	16956	368	-32	54	128	124	5
-8452	-3360	13148	-182	208	-201	-15832	1880	-4736	-43	-28	-1	-2404	-4932	15868	12	-197	308	-7708	4480	14348	58	-12	-141	-15896	1476	-3060	72	110	-50	-1984	-2252	16904	253	-49	88	128	124	5
-8512	-3412	13064	-176	162	-212	-15748	1712	-4668	28	-57	39	-2496	-5056	15888	28	-219	316	-7684	4496	14376	81	12	-167	-15940	1584	-2980	23	94	-108	-2000	-2172	16880	126	-17	97	128	123	5
-8528	-3452	13160	-166	140	-232	-15788	1664	-4928	108	-66	30	-2452	-4972	15948	79	-179	316	-7792	4512	14304	66	-6	-181	-15768	1524	-3068	-83	62	-107	-1972	-2188	16716	58	-6	92	128	123	5
-8484	-3476	13068	-133	122	-221	-15824	1796	-5020	72	-126	88	-2560	-5028	15872	-2	-142	212	-7704	4560	14300	68	13	-178	-15792	1476	-3168	-57	3	-164	-2084	-2208	16708	75	-62	129	128	123	5
-8524	-3452	13152	-137	110	-201	-15856	1808	-4932	-52	-174	72	-2552	-5076	15876	-122	-156	223	-7728	4460	14308	62	-81	-142	-15864	1360	-3192	-80	-61	-206	-2076	-2388	16744	37	51	121	128	123	5
-8480	-3424	13160	-154	147	-188	-15892	1800	-4704	-83	-144	88	-2488	-5080	15932	-69	-84	224	-7700	4484	14328	48	-24	-171	-16044	1316	-3048	-102	-90	-187	-2068	-2512	16784	3	-77	135	128	124	5
-8484	-3428	13096	-135	96	-193	-15832	1832	-4704	-7	-121	73	-2288	-4980	15804	-55	-61	243	-7680	4500	14356	120	-22	-147	-16004	1292	-3040	-79	-134	-202	-1900	-2612	16912	77	-23	162	128	123	5
-8504	-3384	13076	-100	92	-198	-15936	1864	-4576	-13	-73	74	-2248	-5020	15816	-145	-158	214	-7668	4424	14312	137	0	-155	-15856	1208	-3196	28	-167	-177	-1836	-2576	16772	123	-61	146	127	123	5
-8448	-3448	13188	-121	131	-178	-15996	1744	-4692	178	-51	133	-2292	-5072	15876	-28	-171	147	-7764	4536	14208	140	-12	-134	-15828	1176	-3044	113	-146	-31	-1664	-2620	16696	112	-21	26	129	124	5
-8400	-3484	13196	-103	170	-157	-16060	1652	-4636	167	-24	183	-2260	-5164	16160	62	-98	101	-7728	4472	14356	153	-24	-104	-15920	1136	-2872	150	-188	23	-1772	-2664	16788	53	-85	-73	128	123	5
-8380	-3520	13100	-63	189	-155	-16064	1744	-4488	193	71	214	-2320	-5128	15816	-98	-40	124	-7684	4540	14340	192	-17	-150	-16036	1284	-2884	213	-180	61	-1852	-2512	16772	219	-49	-154	127	124	5
-8476	-3464	13124	-20	212	-151	-15788	1788	-4720	166	36	230	-2280	-5112	15664	-13	-29	92	-7720	4488	14308	174	-3	-111	-15944	1380	-2904	108	-145	35	-1784	-2464	16844	246	-43	-94	127	123	5
-8512	-3436	13132	-19	201	-106	-15720	1776	-4688	159	83	219	-2356	-4956	15820	-5	-112	103	-7624	4576	14324	183	47	-132	-16040	1500	-2756	25	-98	127	-1840	-2364	16876	425	7	-123	128	125	5
-8528	-3260	13020	-45	130	-137	-15732	1824	-4832	112	52	182	-2460	-4892	15984	-1	-76	101	-7716	4560	14320	144	6	-147	-15912	1376	-2800	-21	-61	128	-1684	-2268	16852	291	62	-130	128	124	5
-8504	-3360	13108	-62	138	-119	-15732	2080	-4840	204	57	237	-2500	-4880	16044	94	-52	101	-7764	4548	14284	151	7	-151	-15892	1520	-2984	125	23	82	-1760	-2108	16948	183	19	-87	128	124	5
-8444	-3420	13112	-83	135	-154	-15724	2056	-4836	56	25	183	-2548	-4932	15984	122	-87	160	-7688	4532	14312	119	19	-155	-16068	1620	-3016	256	36	16	-2120	-2072	16916	130	35	16	127	124	5
-8528	-3416	13088	-127	160	-141	-15692	2048	-4932	-49	-38	110	-2484	-4836	15936	72	-131	287	-7704	4632	14340	133	-8	-192	-15956	1872	-3048	21	10	-82	-2092	-2048	16884	112	-52	139	128	123	5
-8556	-3328	13200	-135	170	-204	-15676	1924	-4836	-106	-46	111	-2392	-4820	15848	50	-237	323	-7700	4596	14256	69	-45	-178	-16012	1720	-3060	-242	20	-123	-2100	-2140	16916	303	51	221	128	124	5
-8496	-3296	13044	-151	138	-215	-15928	1896	-4636	40	-89	87	-2504	-4752	15992	22	-198	232	-7700	4516	14416	69	-26	-154	-15984	1392	-3052	-273	51	-136	-1916	-2268	16696	296	38	147	128	125	5
-8500	-3376	13152	-111	82	-217	-15876	1888	-4728	146	-18	61	-2432	-4928	15904	-75	-183	205	-7680	4512	14448	67	-53	-161	-15880	1192	-3020	-97	51	-150	-1736	-2416	16856	144	12	103	127	125	5
-8392	-3492	13148	-120	112	-205	-16016	1908	-4636	-2	-13	25	-2308	-4956	15964	-80	-167	178	-7716	4488	14260	99	-14	-182	-15852	1244	-2984	72	7	-112	-1836	-2448	16772	24	-122	39	128	125	5
-8468	-3404	13156	-93	245	-142	-16164	1784	-4696	30	-24	87	-2380	-5036	15904	22	-232	178	-7712	4500	14344	92	-33	-148	-15964	1360	-2992	113	-34	-99	-1872	-2392	16864	58	-102	-36	128	125	5
-8440	-3492	13128	-77	248	-130	-15928	1716	-4528	58	-51	93	-2280	-4960	15904	-43	-194	158	-7720	4480	14236	116	43	-149	-15840	1488	-3020	68	-66	-142	-1840	-2288	17000	2	-30	46	128	124	5
-8480	-3372	13080	-116	204	-185	-15572	1644	-4788	233	12	103	-2288	-4896	15868	-32	-186	85	-7692	4472	14232	105	-102	-140	-15804	1436	-3024	-68	-79	-161	-1880	-2264	16804	99	135	119	128	125	5
-8552	-3348	13124	-96	117	-164	-15612	1740	-4840	223	-53	148	-2452	-5204	15768	-197	-58	111	-7720	4468	14376	94	-64	-167	-16040	1416	-2912	-100	-44	-143	-1936	-2416	16824	75	50	138	128	124	5
-8488	-3508	13128	-119	35	-193	-15760	1912	-5052	80	-75	173	-2756	-5288	15908	28	-112	198	-7648	4560	14284	79	-1	-175	-16108	1348	-2832	-83	-27	-173	-1972	-2420	16844	229	36	106	128	125	5
-8512	-3468	13256	-104	115	-190	-16028	2032	-4916	-109	-118	129	-2684	-4976	16064	152	-116	246	-7728	4560	14328	56	-63	-189	-16056	1556	-2948	-116	54	-88	-1964	-2496	16888	230	-35	123	127	124	5
-8516	-3396	13148	-82	108	-201	-15820	2024	-4728	-134	-148	142	-2432	-4800	15900	192	-138	262	-7732	4432	14332	69	-29	-171	-15988	1368	-2948	-218	47	-109	-1820	-2496	16872	318	-19	175	128	124	5
-8532	-3392	13064	-165	101	-210	-15664	1844	-4576	-72	-95	90	-2160	-4816	15836	180	-131	268	-7708	4488	14260	40	-14	-171	-15788	1204	-2924	-191	-17	-75	-1696	-2492	16808	240	29	204	128	125	5
-8552	-3412	13068	-175	74	-250	-15752	1824	-4624	38	-69	71	-2144	-5020	15912	12	-247	348	-7700	4420	14364	108	-66	-131	-15764	1036	-3084	66	20	-112	-1804	-2508	16756	136	-37	168	128	125	5
-8408	-3412	13228	-136	119	-212	-16048	1808	-4576	8	-36	64	-2192	-5004	16116	-101	-153	306	-7640	4568	14324	117	17	-145	-15928	1132	-3080	176	-70	-86	-1936	-2544	16828	68	-21	53	128	125	5
-8504	-3512	13292	-119	207	-123	-16204	1700	-4564	28	27	82	-2408	-5096	15848	-89	-107	242	-7668	4504	14352	122	7	-175	-15992	1260	-3240	53	-129	-6	-2088	-2688	16604	195	-42	-43	128	124	5
-8480	-3468	13172	-71	198	-146	-16036	1612	-4648	145	-6	167	-2360	-5136	15672	-79	-122	103	-7664	4492	14364	158	8	-131	-15804	1320	-3124	-121	-132	54	-1884	-2592	16820	299	-12	-140	128	125	5
-8496	-3444	12996	-25	209	-112	-15840	1616	-4632	225	29	220	-2312	-5148	15684	37	-102	25	-7828	4428	14352	240	1	-147	-15672	1200	-3180	144	-222	65	-1892	-2428	16748	205	32	-193	128	124	5
-8540	-3424	13064	-3	180	-141	-15732	1676	-4856	286	17	228	-2368	-5116	15848	-34	-9	-16	-7676	4468	14356	237	-11	-100	-15892	1320	-3000	409	-231	77	-2000	-2280	16868	18	-9	-195	128	125	5
-8548	-3396	13108	-49	110	-135	-15700	1840	-4912	227	-11	272	-2452	-5144	15804	-114	-1	17	-7700	4536	14328	200	-10	-119	-16056	1636	-2896	335	-261	-13	-2072	-2352	16712	-60	-37	-87	127	125	5
-8524	-3376	13280	-9	127	-99	-15848	1948	-4860	177	-61	256	-2700	-5108	15896	-35	-70	122	-7720	4536	14272	206	-18	-108	-16140	1712	-2872	-20	-251	12	-2116	-2364	16868	83	-74	-34	128	124	5
-8556	-3352	13056	-40	119	-168	-15824	2068	-4864	46	-96	269	-2720	-5020	15944	106	-48	184	-7724	4568	14264	140	-39	-139	-16104	1528	-2844	-132	-184	-16	-1868	-2424	17004	313	7	66	128	125	5
-8536	-3424	13068	-96	87	-164	-15736	1956	-4928	5	-107	229	-2500	-4868	15836	140	-50	253	-7652	4560	14296	125	-42	-121	-15936	1512	-2988	-51	-156	-35	-1864	-2424	16968	326	4	84	129	124	5
-8536	-3388	13104	-85	68	-160	-15752	2020	-4864	-7	-104	167	-2380	-4820	15800	121	-155	278	-7656	4500	14300	118	33	-155	-15924	1476	-2856	-70	-112	-25	-1772	-2292	16820	478	39	190	128	125	5
-8512	-3376	13128	-121	83	-180	-15828	2020	-4604	-80	-126	136	-2256	-4792	15896	194	-122	296	-7736	4524	14320	125	-32	-122	-16016	1428	-2756	-119	-53	-44	-1632	-2208	16872	413	-84	179	128	126	5
-8424	-3388	13212	-150	99	-209	-15888	1996	-4592	-35	-111	117	-2168	-4876	15900	219	-75	328	-7680	4628	14308	121	6	-161	-15920	1276	-2700	-53	7	-28	-1500	-2272	16892	350	26	124	127	125	5
-8448	-3444	13084	-135	179	-201	-16068	2076	-4560	-125	-67	108	-2348	-4684	15964	43	-138	366	-7688	4492	14280	113	-20	-165	-15936	1432	-2764	-113	79	5	-1620	-2200	16776	340	-32	62	128	125	5
-8448	-3480	13096	-148	162	-139	-16108	1924	-4508	-64	-1	89	-2260	-4904	15912	72	-175	295	-7728	4552	14400	58	-15	-177	-15976	1324	-2848	-66	92	66	-1740	-2320	16904	340	-37	-3	128	125	5
-8476	-3420	13240	-146	219	-152	-15940	1692	-4648	83	57	107	-2240	-4908	15804	57	-163	346	-7724	4500	14368	114	1	-183	-15832	1376	-3044	26	88	31	-1856	-2276	17008	242	-2	-7	129	125	5
-8504	-3476	13180	-64	239	-138	-15972	1592	-4616	203	51	161	-2452	-5064	15872	-65	-113	135	-7636	4500	14400	130	23	-171	-15792	1400	-2960	64	89	32	-2008	-2180	16920	143	16	-26	128	125	5
-8548	-3404	13000	-71	255	-120	-15860	1780	-4728	220	93	179	-2444	-5016	15776	-73	-99	131	-7752	4508	14360	118	-1	-142	-15920	1444	-3060	185	26	-57	-2068	-2292	16920	48	28	-44	128	125	5
-8636	-3432	13088	-22	175	-157	-15724	1840	-4876	302	104	164	-2392	-4984	15812	-84	-33	-30	-7732	4528	14340	149	-37	-151	-15884	1436	-2976	152	-4	-68	-2012	-2256	16848	33	76	-50	127	125	5
-8508	-3348	13200	-44	140	-143	-15764	1920	-4920	288	41	247	-2616	-5064	15936	-96	-21	3	-7728	4532	14368	101	-72	-185	-15872	1400	-2996	156	-67	-48	-1928	-2308	16804	39	14	-53	128	125	5
-8492	-3344	13164	-95	155	-189	-15776	2024	-4944	128	-46	174	-2740	-5004	15772	-81	-62	83	-7672	4600	14376	112	2	-176	-16072	1540	-2988	70	-17	-66	-1988	-2224	16980	52	-19	-31	128	125	5
-8488	-3336	13140	-106	205	-198	-15772	2056	-5112	50	-98	200	-2692	-4888	16056	-7	-127	124	-7764	4572	14328	48	5	-157	-16032	1600	-2956	-171	21	-119	-1988	-2296	16824	48	12	60	128	125	5
-8512	-3424	13120	-142	146	-221	-15668	2024	-5024	9	-155	88	-2628	-4840	15928	116	-203	238	-7676	4544	14260	79	-31	-154	-15936	1520	-2884	-224	32	-142	-1956	-2380	17024	102	62	160	127	125	5
-8516	-3352	13044	-184	132	-218	-15712	2144	-4788	-45	-150	6	-2492	-4752	15952	99	-153	348	-7752	4536	14356	0	-70	-164	-16068	1348	-2964	-31	110	-126	-1988	-2332	16804	309	49	183	127	125	5
-8488	-3340	13020	-209	56	-268	-15632	2092	-4668	-174	-172	-40	-2352	-4796	15772	13	-237	406	-7660	4540	14308	30	-56	-169	-15984	1420	-2888	-51	126	-163	-1744	-2372	16772	345	13	199	127	125	5
-8548	-3412	13084	-202	48	-276	-15772	1920	-4680	-193	-120	-58	-2244	-4900	15996	23	-275	452	-7688	4564	14260	50	-18	-176	-15852	1332	-2912	-213	127	-140	-1576	-2380	16828	337	36	222	127	125	5
-8500	-3500	13092	-244	42	-287	-16092	1788	-4648	-149	-125	-95	-2268	-5000	16004	29	-272	420	-7688	4540	14408	58	10	-192	-15880	1316	-2820	-220	105	-109	-1768	-2368	16800	317	62	153	128	126	5
-8420	-3500	13204	-212	109	-261	-16256	1832	-4536	-121	-64	-72	-2236	-5060	16008	30	-226	337	-7716	4496	14292	24	11	-174	-15788	1252	-3020	-158	115	-80	-1804	-2476	16908	228	39	70	128	126	5
-8504	-3388	13172	-159	197	-193	-16012	1608	-4512	-39	-35	19	-2112	-5140	15828	5	-85	262	-7756	4428	14284	91	-63	-177	-15820	1092	-3172	31	55	-64	-1932	-2436	16856	39	13	25	128	125	5
-8436	-3460	12976	-138	198	-198	-15864	1508	-4380	138	59	72	-2244	-5096	15604	-79	-70	193	-7664	4420	14316	79	17	-188	-15928	1256	-3180	219	12	-68	-2084	-2500	16708	-72	-17	-22	128	126	5
-8520	-3536	13048	-102	149	-174	-15836	1520	-4632	249	79	124	-2336	-5256	15648	-199	-151	112	-7716	4432	14300	145	9	-150	-15924	1304	-2968	180	-38	-17	-1996	-2596	16776	20	-95	-105	128	126	5
-8604	-3416	13096	-49	163	-115	-15964	1656	-4732	226	20	198	-2540	-5260	15732	-131	-134	38	-7700	4496	14244	162	1	-135	-15840	1336	-3160	87	-113	-7	-1936	-2516	16720	123	-11	-99	128	126	5
-8444	-3480	13060	-22	152	-121	-15928	1780	-4724	156	35	235	-2420	-5108	15752	2	-74	4	-7716	4492	14296	163	-65	-146	-15780	1360	-3116	58	-162	39	-1880	-2544	16856	201	-36	-86	128	126	5
-8480	-3468	13196	-44	153	-136	-15816	1820	-4728	123	51	302	-2456	-5200	15836	11	-22	-27	-7668	4532	14336	203	-40	-150	-15980	1376	-3040	167	-150	4	-2068	-2372	17032	165	-42	-96	128	125	5
-8516	-3496	13108	-44	127	-122	-15824	1856	-4720	178	30	265	-2556	-4960	15944	99	64	46	-7696	4528	14276	183	10	-124	-16008	1484	-3068	157	-200	6	-2036	-2360	16884	91	-22	-38	127	125	5
-8480	-3448	13060	-33	134	-123	-15740	1908	-4924	200	-10	222	-2520	-4892	15784	75	-124	130	-7716	4528	14336	199	23	-131	-15728	1712	-2940	-243	-191	10	-1744	-2384	16692	74	24	26	128	125	5
-8520	-3380	13076	-72	89	-161	-15720	2020	-4936	114	-43	187	-2496	-4808	15864	-14	-154	208	-7712	4576	14344	145	4	-159	-15984	1432	-2788	-310	-198	26	-1952	-2424	16776	212	2	16	127	126	5
-8452	-3340	13196	-84	-3	-158	-15708	2000	-4736	68	-60	184	-2456	-4704	16012	-63	-65	182	-7676	4512	14344	130	-48	-132	-16080	1384	-2760	-67	-125	4	-1932	-2328	16852	238	45	30	128	125	5
-8444	-3424	13120	-108	13	-236	-15872	2112	-4812	-33	-80	138	-2436	-4904	15944	21	-56	226	-7704	4524	14216	166	27	-115	-16000	1600	-2776	-58	-124	0	-1904	-2264	17044	276	-2	62	127	126	5
-8496	-3496	13136	-137	52	-215	-16004	2016	-4768	-81	-37	49	-2356	-4960	15884	75	-188	290	-7688	4516	14376	154	-21	-153	-15980	1524	-2832	-177	-127	-30	-1848	-2352	16828	256	23	137	127	125	5
-8404	-3452	13152	-101	115	-182	-16068	1900	-4648	-8	-71	59	-2440	-4932	15960	125	-283	297	-7728	4588	14316	133	-45	-131	-15984	1332	-2912	-236	-123	-6	-1728	-2284	16800	239	-38	60	127	126	5
-8476	-3396	13176	-130	159	-203	-15940	1816	-4672	49	-40	87	-2300	-4908	16008	73	-147	246	-7660	4588	14220	101	-1	-178	-15868	1280	-2888	22	-47	23	-1844	-2300	16748	245	7	56	128	126	5
-8452	-3420	13060	-149	145	-201	-15852	1896	-4576	106	-15	60	-2280	-4816	16040	3	-107	192	-7700	4536	14360	116	-3	-135	-16040	1352	-2916	182	10	-1	-1760	-2176	16888	209	9	-87	128	125	5
-8468	-3412	13092	-115	140	-169	-15864	1844	-4612	43	-23	91	-2372	-4912	15912	-104	-186	175	-7688	4576	14252	128	-35	-159	-15984	1528	-2892	163	41	-84	-1816	-2192	16768	100	-1	-33	128	125	5
-8436	-3396	13148	-154	157	-192	-15872	1892	-4660	98	30	94	-2372	-4940	15976	-75	-222	176	-7748	4592	14284	120	-22	-147	-15944	1524	-2900	54	34	-114	-1816	-2260	16768	104	-10	5	128	125	5
-8520	-3428	13024	-122	174	-206	-15888	1844	-4648	54	-1	89	-2400	-5040	15868	29	-55	180	-7692	4572	14348	98	-18	-188	-15968	1488	-2868	84	56	-84	-1836	-2264	16840	74	35	53	128	126	5
-8544	-3412	13124	-103	123	-179	-15852	1916	-4576	104	47	80	-2428	-4936	15856	-18	-39	187	-7648	4520	14316	73	5	-190	-15976	1400	-2900	53	76	-109	-1860	-2288	16836	90	22	72	128	125	5
-8480	-3348	13160	-147	137	-202	-15856	1888	-4920	126	19	58	-2480	-5068	15820	-52	-104	200	-7668	4460	14324	71	-25	-230	-16004	1524	-2960	60	143	-140	-1948	-2324	16896	143	24	55	128	126	5
-8496	-3404	13104	-124	161	-205	-15908	1860	-4828	26	62	46	-2464	-5040	15888	8	-154	216	-7752	4548	14340	38	-24	-177	-15924	1496	-2992	-48	142	-114	-1900	-2364	16680	205	32	73	127	126	5
-8484	-3440	13116	-153	163	-221	-15848	1764	-4812	87	-11	75	-2488	-5040	15868	72	-113	181	-7684	4440	14332	45	-21	-180	-15892	1368	-2988	-15	165	-119	-1992	-2388	16892	150	-2	112	127	125	5
-8508	-3452	13204	-133	158	-216	-15960	1724	-4788	101	-53	71	-2560	-5012	15892	-14	-37	211	-7764	4512	14276	34	16	-197	-15952	1384	-3136	44	122	-110	-2120	-2428	16704	114	-16	104	128	126	5
-8540	-3428	13084	-145	144	-202	-15860	1832	-4792	43	-53	76	-2488	-4976	15800	52	-117	218	-7708	4544	14344	38	-17	-146	-15912	1384	-3132	-71	106	-127	-1976	-2524	16752	164	29	99	128	125	5
-8560	-3428	13020	-163	112	-202	-15792	1832	-4808	-11	-63	86	-2444	-5020	15784	85	-127	211	-7708	4480	14284	75	-15	-147	-15936	1308	-3200	-114	84	-138	-2044	-2480	16824	208	-22	114	128	125	5
-8456	-3416	13044	-150	91	-206	-15836	1788	-4776	50	-62	57	-2468	-5116	15888	-35	-278	279	-7664	4560	14356	72	34	-149	-15884	1416	-3100	-88	69	-129	-1988	-2492	16872	250	-24	168	127	126	5
-8452	-3452	13108	-107	132	-225	-15872	1760	-4800	-51	-93	48	-2432	-5132	15928	79	-196	317	-7708	4468	14240	84	-42	-164	-15824	1380	-3244	-131	-40	-96	-2012	-2596	16740	245	-13	225	127	126	5
-8472	-3528	13148	-162	106	-209	-15852	1744	-4788	0	-107	71	-2488	-5064	15908	35	-92	318	-7772	4520	14384	96	-36	-163	-15964	1196	-3008	-128	-65	-127	-1980	-2488	16800	249	29	222	128	126	5
-8492	-3440	13180	-147	72	-211	-15836	1764	-4712	10	-112	64	-2460	-5036	15792	38	-90	277	-7700	4468	14336	118	-47	-133	-15896	1244	-2996	-74	-75	-131	-1864	-2440	16800	264	-33	153	128	125	5
-8472	-3452	13088	-124	71	-223	-15852	1832	-4500	-110	-99	96	-2352	-5000	15800	37	-148	276	-7656	4520	14312	112	48	-148	-15868	1320	-2844	-40	-126	-74	-1828	-2436	16756	154	-65	93	128	126	5
-8496	-3508	13236	-113	103	-232	-16088	1744	-4696	-89	-55	88	-2292	-5040	16180	69	-128	228	-7704	4432	14304	145	-43	-128	-15888	1300	-3304	4	-139	-55	-1956	-2352	16712	176	-55	58	127	125	5
-8424	-3524	13100	-68	137	-186	-16000	1720	-4516	58	-66	131	-2212	-5044	15940	-17	-82	241	-7696	4532	14272	145	-78	-108	-15916	1332	-3056	10	-156	-86	-1856	-2452	16696	-16	-109	83	128	125	5
-8508	-3528	13220	-107	186	-167	-16084	1752	-4544	98	10	127	-2276	-5088	15892	-98	-54	230	-7796	4388	14356	150	-66	-118	-15852	1332	-2984	-67	-139	-47	-1892	-2476	16856	-11	-110	115	128	125	5
-8432	-3436	13232	-61	195	-161	-15984	1788	-4496	107	62	168	-2256	-5136	15776	41	24	209	-7708	4528	14304	117	-38	-100	-15960	1156	-2844	39	-120	-22	-1848	-2624	16720	-24	-151	114	128	126	5
-8448	-3496	13096	-16	167	-114	-15944	1716	-4552	124	98	216	-2272	-5244	15752	4	-71	178	-7632	4556	14308	104	-26	-94	-15940	1228	-2876	87	-125	57	-1708	-2620	16760	35	-213	80	128	125	5
-8488	-3444	13128	-23	171	-86	-15960	1640	-4536	207	150	294	-2356	-5272	15848	66	-61	147	-7652	4456	14308	179	-11	-91	-15988	1316	-2844	28	-95	120	-1748	-2604	16740	159	-130	-1	128	126	5
-8508	-3428	13240	22	185	-88	-16064	1684	-4628	221	154	379	-2396	-5216	15812	188	44	77	-7700	4440	14332	147	-47	-124	-15992	1332	-3104	-22	-40	175	-1716	-2568	16828	234	-138	-4	128	125	5
-8468	-3496	13228	27	239	-71	-15980	1812	-4736	238	177	385	-2480	-5012	15776	300	62	24	-7668	4592	14344	156	2	-146	-15944	1180	-2948	20	-9	188	-1892	-2288	16788	645	52	-161	128	126	5
-8460	-3436	13120	11	272	-79	-15812	1872	-4952	283	106	366	-2576	-4904	15832	232	-24	36	-7680	4500	14396	177	65	-150	-15928	1436	-3020	198	-12	155	-1900	-2444	16872	165	-79	-28	127	125	5
-8496	-3284	13036	-13	223	-49	-15524	2040	-5032	156	23	387	-2544	-4848	15868	233	-42	135	-7744	4544	14272	141	3	-135	-15976	1580	-3064	141	13	146	-1972	-2240	16628	403	-87	-41	127	126	5
-8576	-3280	12960	-42	149	-152	-15520	2076	-4832	29	54	342	-2660	-4664	15788	260	-25	210	-7740	4464	14300	144	-4	-133	-15904	1668	-2904	17	30	86	-1884	-2064	16820	444	44	-16	128	126	5
-8556	-3380	13132	-48	94	-176	-15640	2056	-5016	45	-52	287	-2608	-4640	15872	163	-67	275	-7736	4464	14404	131	9	-171	-15912	1616	-2880	-96	25	41	-1980	-2076	16948	548	58	31	128	125	5
-8552	-3400	13236	-119	89	-223	-15736	2188	-4892	7	-111	208	-2680	-4572	16052	173	-162	308	-7724	4496	14256	103	15	-166	-15960	1628	-2924	-161	43	-20	-1884	-2268	16904	464	73	142	128	126	5
-8504	-3404	13128	-172	92	-245	-15900	2244	-4940	-179	-139	100	-2656	-4620	16060	243	-161	370	-7728	4468	14308	87	-57	-160	-15912	1468	-2884	-152	70	-36	-1880	-2172	16992	427	-4	168	128	125	5
-8416	-3408	13248	-188	143	-241	-15928	2124	-4692	-250	-141	49	-2488	-4496	15944	248	-97	378	-7656	4556	14288	61	-23	-127	-15936	1424	-2976	-69	60	-83	-1796	-2020	17044	481	105	99	128	125	5
-8472	-3436	13252	-199	119	-272	-15928	1872	-4524	-108	-85	4	-2268	-4572	15980	58	-147	362	-7700	4504	14296	79	-19	-171	-15868	1480	-3028	-16	58	-166	-1896	-2072	16824	400	80	79	128	125	5
-8460	-3500	13140	-190	157	-215	-15980	1784	-4496	42	-67	-76	-2220	-4740	15920	-126	-223	260	-7696	4480	14408	60	-6	-143	-15752	1488	-3168	-44	35	-150	-1988	-2120	16668	34	-29	55	127	125	5
-8440	-3488	13236	-157	187	-221	-15984	1628	-4476	156	28	-35	-2196	-4992	15916	-256	-169	177	-7700	4536	14332	104	-45	-176	-15820	1312	-3116	5	-75	-176	-1952	-2360	16720	-164	-60	30	128	127	5
-8512	-3460	13108	-102	204	-203	-16032	1640	-4536	310	28	29	-2412	-5148	15896	-294	-59	61	-7720	4440	14344	90	-53	-122	-15812	1248	-3180	214	-133	-244	-1912	-2372	16856	-249	-95	-9	128	125	5
-8440	-3524	13176	-73	264	-178	-16052	1724	-4764	307	70	105	-2524	-5220	15824	-214	-22	-70	-7676	4508	14380	145	-70	-152	-15920	1364	-3124	330	-145	-257	-1996	-2404	16768	-119	-1	-52	128	126	5
-8484	-3548	13064	-38	239	-118	-15704	1632	-4804	227	43	134	-2432	-5268	15844	-188	-99	-43	-7740	4516	14340	108	-61	-134	-15984	1468	-2860	82	-175	-216	-1892	-2664	16912	-196	-83	-2	128	126	5
-8552	-3456	13112	-86	198	-155	-15632	1752	-4808	181	20	194	-2436	-5388	15728	-56	40	72	-7720	4484	14360	125	-58	-178	-16156	1292	-2680	-115	-112	-158	-1856	-2716	16820	-81	-20	70	128	125	5
-8444	-3288	13104	-41	109	-188	-15696	1948	-4988	159	-15	228	-2528	-5116	15728	76	-71	223	-7668	4512	14360	81	-27	-174	-16088	1324	-2824	-161	-33	-117	-1788	-2672	16836	282	67	160	128	125	5
-8524	-3348	13156	-80	128	-185	-15828	2072	-4744	-21	-43	189	-2452	-4916	15976	214	-174	276	-7696	4520	14396	90	40	-164	-15928	1368	-2984	-160	1	-20	-1848	-2500	16792	576	63	196	127	126	5
-8504	-3448	13180	-115	156	-209	-15776	1980	-4820	-135	27	108	-2316	-5072	16060	293	-140	364	-7704	4460	14280	106	-59	-129	-15864	1416	-2972	-190	20	-65	-1980	-2508	16768	537	13	338	128	125	5
-8424	-3476	13156	-157	171	-195	-15944	1820	-4736	-74	-37	160	-2484	-4964	15984	370	-50	401	-7600	4484	14328	72	-26	-157	-16056	1236	-3144	-131	18	-32	-2176	-2516	16648	415	-48	290	128	126	5
-8476	-3464	13148	-112	239	-170	-16032	1768	-4848	39	-40	188	-2496	-4956	16016	454	-46	389	-7704	4468	14468	160	-5	-133	-16024	1240	-3216	-5	-44	5	-2036	-2564	16788	401	-70	154	128	123	5
-8480	-3472	13168	-115	260	-166	-15996	1876	-4680	103	-68	203	-2608	-4868	15900	245	-57	358	-7704	4512	14344	128	49	-134	-15852	1316	-3032	-21	-45	81	-1848	-2340	16788	627	10	-10	128	125	5
-8496	-3004	13148	-79	218	-221	-15720	1680	-4624	-129	-16	190	-2464	-4784	15924	373	94	320	-7728	4428	14272	181	-5	-123	-15624	1344	-3136	-87	-155	82	-1672	-2284	16712	383	-45	-52	128	125	5
-8452	-3640	13048	-108	203	-201	-15904	1708	-4676	3	-89	282	-2500	-4844	15868	309	45	247	-7696	4460	14336	172	-94	-101	-15792	1312	-2900	54	-118	91	-1848	-2084	16776	258	-74	-86	127	125	5
-8492	-3500	13036	-125	168	-199	-15960	1896	-4632	125	-70	186	-2456	-4656	15952	339	1	234	-7696	4556	14272	161	-2	-141	-15952	1476	-2912	167	-169	6	-1968	-2108	16892	126	-71	-125	128	125	5
-8512	-3460	13132	-102	217	-151	-16140	1968	-4352	157	26	85	-2256	-4544	16020	128	67	152	-7700	4612	14292	145	-85	-142	-15960	1492	-3052	-5	-225	7	-1900	-2204	16736	147	-65	-131	127	125	5
-8452	-3360	13160	-57	231	-148	-16068	1904	-4468	276	138	127	-2200	-4600	15848	-79	-64	-4	-7684	4480	14280	134	3	-160	-15888	1280	-2944	259	-211	-18	-1684	-2240	16856	-4	-84	-153	129	125	5
-8444	-3472	13240	-56	264	-180	-15940	1608	-4732	413	113	233	-2352	-4996	16040	-122	-148	-131	-7680	4464	14316	122	-8	-161	-15944	1420	-2676	583	-48	-9	-1544	-2280	16852	39	-94	-183	129	125	5
-8516	-3556	13164	-22	365	-137	-15904	1672	-4968	526	44	306	-2580	-5268	16140	-144	30	-129	-7708	4508	14260	137	-15	-139	-16080	1612	-2604	246	1	27	-1668	-2264	16852	61	-73	-198	127	125	5
-8492	-3596	13216	-27	436	-66	-15952	1984	-5032	245	43	287	-2664	-5132	15996	31	51	22	-7708	4524	14220	100	-32	-164	-16068	1680	-2692	-217	94	54	-1764	-2304	16952	235	-65	-96	128	126	5
-8616	-3380	13148	-92	449	-91	-15644	2048	-4752	-147	17	206	-2580	-4948	15772	140	-7	224	-7756	4512	14352	46	13	-161	-16040	1536	-2964	-329	123	19	-1892	-2464	17044	213	45	109	128	126	5
-8636	-3328	12844	-104	287	-95	-15308	1932	-4576	-339	79	185	-2348	-4856	15408	277	-64	334	-7668	4456	14224	53	11	-184	-16020	1364	-3048	-224	149	-63	-2056	-2464	16896	280	39	255	128	125	5
-8624	-3340	12932	-139	78	-173	-15320	1536	-4804	43	113	176	-2260	-4900	15440	343	-199	354	-7704	4500	14384	73	-3	-143	-15932	1268	-3080	-63	176	-104	-2016	-2588	16716	420	76	276	128	124	5
-8560	-3396	12988	-58	-101	-225	-15880	1584	-4720	278	119	226	-2648	-4936	15808	369	-172	260	-7716	4448	14296	71	37	-154	-15928	1304	-3028	-35	141	-34	-2024	-2444	16792	580	72	164	129	127	5
-8444	-3512	13292	-6	-21	-159	-16328	1800	-4908	351	68	328	-2748	-5004	16324	117	-89	138	-7728	4492	14332	127	-33	-190	-15916	1340	-3176	7	75	14	-2008	-2356	16880	381	-71	28	129	126	5
-8472	-3592	13492	35	188	-104	-16368	1948	-5172	95	-21	346	-2992	-4996	16308	27	-119	51	-7704	4432	14284	132	54	-228	-15892	1340	-3256	-24	-18	52	-2080	-2340	16876	267	-61	22	128	125	5
-8564	-3548	13172	-3	330	-55	-15844	1976	-5112	-226	-171	346	-2808	-4936	15984	283	-128	98	-7696	4396	14304	144	47	-118	-15904	1524	-3236	-93	-75	-15	-2136	-2276	16828	302	-27	23	128	125	5
-8600	-3340	13072	-33	307	-62	-15476	1972	-4852	-239	-211	258	-2608	-4668	15696	159	-119	244	-7708	4488	14316	156	47	-133	-15808	1516	-3164	-238	-152	-60	-2052	-2300	16904	147	-55	174	128	125	5
-8644	-3300	12772	-105	108	-151	-15264	1932	-5008	-172	-172	168	-2460	-4432	15600	68	-198	348	-7644	4496	14388	171	0	-104	-15984	1324	-3148	-181	-207	-111	-2048	-2292	16864	209	-30	235	128	125	5
-8564	-3340	12940	-117	-62	-216	-15464	1892	-4720	-44	-204	116	-2500	-4472	15784	43	-226	333	-7700	4512	14244	158	14	-129	-15888	1312	-3068	141	-217	-107	-1884	-2312	16904	270	-4	249	128	126	5
-8504	-3312	13084	-88	-148	-287	-15904	1876	-4696	29	-159	109	-2492	-4592	16064	-43	-287	290	-7640	4440	14368	150	-19	-158	-15864	1436	-2932	53	-235	-119	-1880	-2240	16768	287	-17	221	128	125	5
-8468	-3388	13224	-83	-169	-265	-15896	1940	-4680	61	-131	119	-2416	-4568	16188	87	-98	155	-7724	4544	14332	149	-58	-125	-15824	1488	-2896	16	-297	-137	-1640	-2100	16928	225	-18	17	129	126	5
-8384	-3508	13276	-153	7	-228	-16444	2188	-4532	3	-107	119	-2504	-4620	16264	-9	-96	74	-7684	4476	14448	128	18	-128	-15992	1360	-2904	106	-169	-37	-1752	-1960	17116	56	-18	-149	128	125	5
-8460	-3436	13248	-95	195	-157	-16200	2004	-4616	15	-88	93	-2464	-4592	16052	-254	-226	22	-7712	4468	14300	169	-16	-132	-16024	1448	-2708	249	-148	-88	-1708	-1928	16748	-124	31	-172	129	126	5
-8496	-3296	13148	-97	320	-128	-15828	1996	-4724	120	-89	52	-2352	-4632	15928	-468	-353	-16	-7684	4504	14324	115	-29	-144	-15868	1676	-2696	225	-63	-127	-1596	-2064	16876	-294	6	-109	128	126	5
-8540	-3284	13068	-111	231	-146	-15492	2008	-4776	165	-95	-16	-2356	-4620	15912	-406	-175	85	-7736	4572	14200	76	-42	-149	-15988	1752	-2600	-2	29	-185	-1760	-2096	16980	-198	0	51	128	125	5
-8580	-3252	13016	-139	136	-249	-15352	2124	-4888	166	-93	-83	-2512	-4892	15784	-291	-153	252	-7720	4600	14336	-6	10	-217	-16152	1768	-2760	-94	115	-187	-2000	-2156	17012	1	17	188	128	126	5
-8624	-3384	13060	-186	24	-274	-15668	2180	-4940	-126	-72	-106	-2848	-4860	15696	-57	-194	352	-7672	4484	14384	-10	-46	-205	-16176	1608	-2836	-250	162	-307	-1980	-2224	16804	299	175	304	128	125	5
-8544	-3336	13100	-261	-15	-312	-15844	1912	-4968	-311	-141	-162	-2784	-4856	15924	0	-374	454	-7744	4504	14356	-62	-60	-199	-15932	1392	-3056	-398	232	-275	-1880	-2216	16800	266	105	294	128	125	5
-8524	-3512	13124	-267	13	-300	-15864	1816	-4672	-249	-145	-144	-2496	-4816	16044	-46	-302	425	-7716	4448	14392	19	-90	-176	-15808	1352	-3004	-155	203	-309	-1900	-2204	16716	190	116	312	128	125	5
-8528	-3444	13304	-217	-2	-299	-15836	1892	-4624	-45	-161	-183	-2288	-4900	15960	-195	-262	443	-7720	4524	14276	-30	-4	-181	-15828	1360	-3208	-55	192	-341	-2012	-2332	16820	47	49	306	128	127	5
-8388	-3564	13212	-251	56	-310	-16028	1944	-4668	-90	-183	-146	-2268	-4944	16032	-220	-265	428	-7772	4456	14344	-14	-99	-147	-15908	1392	-3264	-166	84	-337	-2084	-2528	16832	-167	8	326	129	125	5
-8432	-3504	13020	-234	80	-247	-16080	1748	-4532	-190	-99	-159	-2316	-5016	15864	-196	-256	416	-7660	4452	14516	26	-49	-204	-15940	1340	-3196	-179	96	-409	-1968	-2752	16820	-128	19	301	128	125	5
-8460	-3528	13048	-184	112	-266	-16144	1584	-4368	-98	-13	-101	-2324	-5140	15808	-165	-182	334	-7692	4416	14316	63	0	-190	-15868	1076	-3168	-283	33	-305	-1836	-2764	16696	86	77	167	128	126	5
-8504	-3492	13064	-147	77	-272	-16056	1628	-4456	179	-2	-3	-2300	-5076	15772	-127	-100	139	-7668	4396	14312	77	-48	-122	-15892	828	-2908	133	-10	-113	-1620	-2792	16688	78	88	-76	128	125	5
-8484	-3500	13164	-80	69	-235	-15884	1680	-4536	279	77	52	-2072	-5116	15888	-66	-181	52	-7636	4440	14408	100	-46	-138	-15788	1076	-2840	301	-35	39	-1420	-2648	16884	57	-30	-233	128	125	5
-8452	-3536	13324	-70	83	-168	-16040	1716	-4572	221	55	119	-2268	-5072	15956	-123	-109	-3	-7680	4400	14500	171	3	-142	-15952	1236	-2756	268	37	47	-1628	-2496	16972	165	56	-245	128	125	5
-8392	-3588	13168	-53	188	-131	-16208	1844	-4568	243	78	150	-2456	-4992	15916	-137	-105	-19	-7784	4548	14352	164	-4	-119	-16084	1388	-2760	109	69	103	-1716	-2280	16872	197	107	-327	129	126	5
-8476	-3480	13192	-68	242	-90	-16120	1880	-4676	332	166	138	-2504	-4912	16020	-54	-94	-37	-7652	4532	14360	122	26	-150	-16064	1692	-2856	-62	170	117	-1948	-2116	16852	374	138	-306	128	125	5
-8500	-3376	13096	-79	300	-101	-15892	1976	-4788	369	144	106	-2552	-4880	15896	-29	19	-2	-7764	4544	14328	85	38	-188	-15924	1776	-3040	-58	194	35	-2200	-1896	16872	376	37	-202	128	126	5
-8568	-3308	13016	-113	244	-140	-15572	1952	-4896	273	148	83	-2524	-4928	15772	-143	0	-6	-7708	4492	14276	21	-66	-152	-15736	1692	-3232	41	176	-102	-2296	-2004	16780	82	13	-14	128	126	5
-8620	-3432	13200	-99	231	-211	-15596	1904	-4888	288	116	125	-2600	-5244	15728	-212	-184	78	-7720	4424	14228	29	-93	-199	-15820	1656	-3248	123	157	-301	-2268	-2068	16996	-192	-82	213	128	125	5
-8552	-3504	13016	-88	171	-173	-15628	1536	-5168	213	6	91	-2760	-5084	15704	-13	-91	154	-7684	4544	14428	3	-68	-183	-16076	1600	-3192	42	97	-397	-2196	-2300	16948	-119	-14	344	129	125	5
-8520	-3480	12992	-64	107	-193	-15788	1736	-4916	137	-127	115	-2756	-4916	15872	-69	-116	150	-7752	4428	14364	-8	-101	-178	-15840	1512	-3196	-281	-15	-440	-2044	-2308	16748	-29	64	356	127	126	5
-8496	-3384	13096	-107	32	-218	-15864	1948	-4748	68	-91	180	-2468	-4828	15912	-24	-71	120	-7764	4520	14336	-21	-141	-148	-15796	1256	-3168	-271	-36	-413	-2036	-2944	16776	-126	60	324	128	126	5
-8468	-3356	13144	-66	44	-240	-15912	1940	-4640	80	-88	171	-2436	-4916	16012	100	-61	117	-7644	4364	14276	13	-162	-149	-16032	1036	-2984	-143	-15	-355	-1844	-2608	16892	-156	-38	264	128	125	5
-8456	-3528	13160	-126	78	-245	-15852	1992	-4840	30	-150	78	-2360	-4856	16004	-31	-200	222	-7648	4396	14340	16	-101	-181	-16088	1104	-2960	-105	-2	-281	-1748	-2768	17032	159	-33	311	129	126	5
-8408	-3448	13188	-158	156	-219	-15932	1944	-4576	-68	-88	68	-2396	-4708	16008	-103	-243	324	-7632	4448	14416	55	-72	-117	-16052	1172	-2840	-177	64	-224	-1684	-2688	16828	347	-67	300	128	126	5
-8520	-3376	13188	-169	165	-206	-15880	1920	-4612	-120	-124	26	-2348	-4920	15888	-19	-227	313	-7652	4540	14360	33	-38	-157	-16076	1152	-2872	-273	109	-111	-1608	-2672	16928	335	158	137	128	125	5
-8456	-3480	13088	-179	201	-193	-15928	1772	-4508	-88	-89	-23	-2436	-4952	15812	-21	-204	298	-7644	4372	14440	22	-28	-158	-15872	1076	-3052	-214	152	-77	-1768	-2584	16880	499	267	76	128	125	5
-8456	-3512	13108	-163	215	-161	-16012	1708	-4612	65	12	-4	-2300	-5044	15648	18	-185	235	-7640	4400	14436	106	-42	-151	-15904	1112	-3184	94	123	-56	-1940	-2388	16580	-138	-419	48	128	125	5
-8468	-3464	13104	-114	158	-195	-15944	1632	-4528	130	29	40	-2224	-5020	15764	43	-183	206	-7652	4364	14324	93	-38	-165	-15868	1228	-3204	189	47	-43	-2012	-2248	16900	315	112	0	128	126	5
-8496	-3552	13164	-96	198	-187	-16052	1660	-4752	224	0	81	-2488	-5124	15984	-87	-278	111	-7652	4440	14384	106	26	-184	-15976	1352	-3160	153	79	-85	-2060	-2236	16972	143	98	-63	128	126	5
-8556	-3436	13232	-105	233	-162	-16024	1728	-4792	202	26	170	-2608	-5060	16004	-70	-76	44	-7720	4384	14296	65	50	-151	-15868	1412	-3144	33	68	-58	-1828	-2436	16824	146	59	-125	129	125	5
-8504	-3492	13080	-76	217	-125	-15860	1876	-4948	137	-77	134	-2620	-4964	15916	-39	-73	60	-7668	4400	14344	84	15	-172	-15932	1460	-3136	0	41	-76	-2028	-2220	16892	146	-112	-61	128	126	5
-8528	-3424	12976	-95	168	-153	-15584	1960	-4884	-86	-87	79	-2596	-4832	15716	-37	-76	195	-7652	4464	14352	67	23	-160	-15912	1532	-3004	-156	6	-165	-2124	-2364	16816	-63	3	160	128	127	5
-8540	-3400	13036	-129	128	-175	-15528	1788	-4876	-92	-91	19	-2600	-4848	15792	-189	-246	267	-7684	4396	14328	50	-4	-173	-15904	1384	-3136	-295	12	-233	-2212	-2524	16788	-29	38	320	128	125	5
-8508	-3484	13120	-158	41	-228	-15776	1796	-4808	-97	-94	23	-2532	-4936	15708	-20	-273	282	-7640	4408	14340	50	-11	-202	-15916	1148	-3104	-75	-21	-304	-2004	-2624	16772	117	66	351	128	125	5
-8476	-3460	13172	-138	87	-262	-16000	1760	-4700	31	-161	-3	-2500	-5048	15940	0	-320	301	-7628	4308	14420	63	-25	-161	-15940	900	-3252	-25	-80	-248	-2032	-2556	16740	269	38	249	128	125	5
-8476	-3488	13160	-164	123	-201	-16056	1816	-4632	66	-126	19	-2416	-5052	16108	27	-146	223	-7724	4596	14432	138	18	-139	-15820	1080	-3288	243	-56	-213	-1976	-2556	16776	222	-40	94	128	125	5
-8496	-3540	13168	-155	160	-216	-15988	1648	-4492	-115	-60	17	-2236	-5064	15796	-19	-27	175	-7564	4424	14368	158	50	-125	-15724	1196	-3436	20	-255	-141	-2044	-2560	16800	-16	-33	42	128	126	5
-8496	-3600	13144	-104	159	-162	-16008	1464	-4540	7	-54	86	-2400	-5056	15784	-272	-236	110	-7744	4280	14356	190	-12	-119	-15624	1068	-3296	-23	-291	-145	-1940	-2744	16636	-190	32	54	127	126	5
-8540	-3476	12964	-60	124	-131	-15788	1472	-4632	240	-93	91	-2424	-5064	15812	-434	-288	76	-7664	4444	14236	198	-48	-110	-15852	912	-3204	163	-418	-112	-2032	-2736	16676	-326	11	23	128	125	5
-8524	-3360	12932	-59	61	-130	-15696	1824	-4696	188	-36	96	-2384	-5140	15804	-209	-83	47	-7584	4448	14408	221	11	-76	-15996	1160	-3084	219	-387	-84	-1992	-2712	16876	-350	5	20	128	125	5
-8544	-3428	13132	-66	41	-119	-15812	1952	-4740	-9	-31	122	-2408	-5160	15844	-67	-123	129	-7668	4400	14432	283	49	-103	-16040	1304	-3024	41	-424	-94	-2000	-2696	16884	-171	-10	67	128	125	5
-8512	-3372	13192	-57	28	-184	-15828	1756	-4816	18	-56	111	-2512	-5096	15784	-29	-284	190	-7696	4468	14308	276	37	-105	-15976	1304	-2984	27	-383	-124	-1904	-2612	16756	87	85	136	128	126	5
-8560	-3424	13156	-32	1	-175	-15768	1732	-4732	-121	-13	106	-2408	-4984	15928	92	-243	244	-7656	4632	14324	249	-11	-122	-15904	1192	-2700	8	-285	-34	-1688	-2512	16728	183	26	54	128	126	5
-8468	-3460	13236	-65	27	-190	-15952	1740	-4692	151	-73	130	-2464	-4928	16104	51	-183	209	-7604	4508	14324	168	-31	-107	-16008	1156	-2724	-4	-235	15	-1716	-2372	16964	319	35	-51	128	125	5
-8420	-3452	13136	-83	78	-208	-16064	2000	-4688	123	-61	134	-2600	-4772	15984	-54	-41	203	-7612	4468	14304	177	17	-141	-16096	1300	-2640	172	-163	37	-1792	-2348	16900	246	83	-37	128	125	5
-8448	-3376	13140	-160	135	-153	-15788	2044	-4736	58	-97	65	-2424	-4832	15640	-98	-185	196	-7684	4536	14420	129	0	-174	-16036	1412	-2712	187	1	11	-1764	-2184	16756	257	34	-39	128	126	5
-8520	-3308	13116	-125	81	-205	-15652	2020	-4752	-76	-54	18	-2308	-4720	15800	-7	-342	238	-7736	4624	14336	85	-11	-144	-15944	1504	-2612	-18	69	5	-1592	-2104	16972	138	-15	14	128	125	5
-8416	-3420	13144	-184	40	-248	-15716	2012	-4584	-146	-44	-17	-2088	-4824	16200	14	-265	347	-7688	4556	14352	38	-20	-185	-15904	1456	-2656	-160	219	-86	-1576	-2076	17060	149	23	74	128	125	5
-8404	-3456	13140	-172	72	-275	-16232	2028	-4372	-245	-13	-94	-2228	-4844	16176	74	-91	389	-7608	4336	14356	24	3	-176	-16112	1272	-2644	-225	317	-124	-1696	-2196	16988	194	79	97	128	126	5
-8380	-3572	13248	-247	230	-214	-16436	1756	-4180	-88	89	-134	-2052	-5056	15968	-88	-127	328	-7620	4520	14416	15	-27	-179	-16032	1136	-2720	-122	407	-207	-1676	-2412	16888	-5	33	132	128	126	5
-8420	-3540	13180	-149	294	-185	-16092	1340	-4272	321	193	-20	-2012	-5324	15800	-174	-210	216	-7588	4528	14392	10	74	-232	-15992	1208	-2828	-171	416	-150	-1976	-2544	16788	86	28	41	127	125	5
-8520	-3548	13024	-71	335	-150	-16096	1200	-4512	554	209	42	-2124	-5336	15748	-199	-229	207	-7676	4416	14332	7	29	-239	-15696	1136	-3360	-40	372	-97	-2132	-2512	16624	240	11	-65	129	125	5
-8560	-3504	13000	-19	261	-106	-15656	1220	-4844	678	191	110	-2528	-5280	15560	-237	-64	-27	-7708	4464	14324	39	-41	-186	-15464	1172	-3448	224	254	-169	-2316	-2512	16520	8	89	-32	127	125	5
-8572	-3536	12944	11	161	-95	-15668	1552	-5020	399	146	191	-2500	-5352	15656	-318	84	-132	-7768	4368	14248	58	-42	-156	-15720	1192	-3408	393	83	-215	-2508	-2600	16716	-308	53	-9	128	125	5
-8436	-3400	13180	10	101	-126	-15748	1656	-5068	183	103	269	-2596	-5352	15756	-354	74	-125	-7660	4452	14372	89	-37	-167	-16020	1256	-3332	224	-53	-269	-2696	-2772	16684	-473	21	45	128	125	5
-8520	-3476	13044	-2	128	-138	-15764	1648	-4892	43	18	339	-2652	-5284	15716	107	115	-4	-7752	4456	14360	125	-24	-129	-15936	1200	-3396	-108	-227	-267	-2392	-3032	16636	-207	-27	122	128	125	5
-8484	-3456	13096	-65	81	-176	-15768	1640	-4924	125	-33	292	-2600	-5172	15588	128	-21	115	-7680	4448	14344	133	-88	-114	-15800	1156	-3208	-218	-251	-221	-2164	-3212	16716	-6	-66	232	127	126	5
-8476	-3508	13068	-57	77	-183	-15752	1876	-4824	216	-59	224	-2544	-4960	15964	49	-125	247	-7652	4496	14360	154	-73	-132	-16060	1032	-2992	-207	-294	-103	-2132	-3204	16924	238	-29	293	128	125	5
-8464	-3464	13172	-65	63	-163	-15716	1988	-4820	70	-115	177	-2500	-4940	15856	19	-175	347	-7604	4424	14432	177	-20	-156	-16044	968	-3068	-178	-332	-62	-2012	-3104	16908	510	30	328	127	125	5
-8512	-3384	13148	-129	52	-198	-15668	2068	-4932	-101	-138	133	-2508	-4980	15960	139	-200	395	-7648	4468	14320	210	-33	-98	-16012	936	-3044	-14	-261	53	-1872	-2880	16656	655	54	223	127	126	5
-8420	-3412	13268	-157	69	-240	-15836	1992	-4904	-432	-162	112	-2548	-4948	16040	405	-196	507	-7648	4504	14328	214	4	-151	-16028	948	-2992	1	-243	31	-1792	-2780	16784	741	-49	76	127	125	5
-8364	-3548	13324	-164	85	-235	-15948	1636	-4996	-436	-215	140	-2668	-5080	15984	375	-185	478	-7640	4556	14440	214	20	-134	-16084	1136	-2820	63	-163	240	-1860	-2548	16672	827	-72	-74	128	126	5
-8452	-3560	13132	-192	169	-231	-15892	1720	-4888	-318	-325	78	-2564	-5036	15912	316	-239	548	-7720	4416	14332	171	48	-94	-15916	1256	-2872	-57	-86	282	-1716	-2376	16752	829	-87	-54	128	125	5
-8472	-3428	13012	-178	92	-232	-15780	1776	-4676	-237	-349	55	-2344	-4820	15856	100	-235	603	-7716	4476	14388	135	28	-134	-15904	1472	-2796	-221	16	236	-1720	-2184	16980	869	-58	26	128	126	5
-8464	-3440	13092	-196	84	-221	-15872	2028	-4268	-328	-242	-15	-2100	-4656	15828	0	-187	678	-7668	4516	14404	147	12	-149	-15928	1496	-3032	-380	-13	139	-1832	-2104	16972	811	64	223	129	125	5
-8396	-3436	13188	-198	39	-240	-15872	1888	-4336	-243	-99	-40	-1976	-4860	15956	-90	-318	637	-7676	4536	14392	142	21	-116	-15880	1164	-2948	-182	9	34	-1792	-2132	16780	602	68	317	128	126	5
-8404	-3564	13188	-194	101	-272	-16080	1756	-4448	-209	-9	19	-2128	-5136	16072	35	-270	593	-7700	4392	14388	104	-47	-178	-15804	1012	-2992	72	59	41	-1716	-2220	16796	354	56	201	128	127	5
-8396	-3556	13244	-188	163	-211	-16192	1396	-4644	-38	-93	40	-2508	-5228	16124	212	-98	439	-7696	4488	14412	97	-18	-123	-15996	1272	-2836	348	117	5	-1924	-2036	16964	390	19	24	128	125	5
-8444	-3616	13112	-121	212	-192	-15964	1428	-4708	16	-146	87	-2628	-5028	15736	171	12	314	-7672	4480	14436	102	2	-174	-15916	1544	-3064	98	101	-11	-2084	-2032	16672	407	-39	-63	129	125	5
-8500	-3484	13052	-104	141	-190	-15860	1664	-4648	-3	-159	111	-2516	-4860	15736	-152	-50	281	-7664	4460	14360	49	-4	-187	-15700	1568	-3296	-276	-10	18	-2324	-2124	16936	217	-106	-60	127	126	5
-8488	-3496	12960	-98	109	-184	-16020	1816	-4440	-125	-62	54	-2228	-4992	15856	-162	-34	207	-7784	4388	14444	75	-52	-152	-15712	1176	-3428	-342	-156	-117	-2484	-2380	16624	12	-96	38	128	125	5
-8352	-3564	13220	-80	110	-198	-16220	1644	-4212	-6	40	109	-2104	-5296	15852	-272	-158	196	-7652	4404	14400	127	-102	-120	-15796	912	-3528	102	-262	-226	-2424	-2716	16672	-297	-217	122	129	125	5
-8348	-3700	13316	-52	176	-142	-16192	1384	-4468	443	108	212	-2340	-5220	15888	-173	-163	49	-7648	4444	14312	199	-85	-106	-15920	792	-3264	536	-301	-218	-1956	-3008	16776	-236	-127	46	127	126	5
-8472	-3560	13220	-15	240	-102	-15796	1400	-4804	648	56	303	-2452	-5128	15936	-44	-19	-70	-7616	4444	14308	206	-30	-104	-15872	884	-2912	656	-307	1	-1424	-2752	16812	-63	-157	-206	128	125	5
-8512	-3492	13160	-11	223	-126	-15860	1792	-4904	337	-41	365	-2616	-5044	16092	30	97	-163	-7712	4436	14380	221	-35	-84	-15740	1296	-2992	319	-333	87	-1560	-2360	16912	168	16	-380	128	125	5
-8428	-3456	13060	3	165	-116	-15864	1976	-4828	-79	-42	320	-2580	-4828	15888	-39	144	-60	-7736	4512	14336	206	-5	-106	-15888	1500	-2744	104	-274	126	-1860	-2240	16900	351	72	-404	127	126	5
-8464	-3404	13208	-53	195	-94	-15744	2020	-4700	-61	-46	201	-2300	-4840	15864	-270	-6	-15	-7656	4528	14396	148	-87	-136	-16072	1500	-2872	-238	-205	70	-2060	-2316	16784	169	-30	-220	127	126	5
-8484	-3396	13124	-82	158	-148	-15600	1900	-4784	168	-71	213	-2300	-4944	15768	-130	-80	96	-7720	4500	14340	115	-118	-125	-16224	1216	-2684	-170	-107	-4	-1896	-2492	16808	15	-72	-31	127	125	5
-8508	-3400	13144	-98	148	-168	-15644	1956	-4836	159	-94	184	-2584	-4976	15908	2	-200	245	-7688	4464	14360	59	-33	-132	-16224	1264	-2548	258	83	6	-1820	-2604	16884	91	-91	87	127	125	5
-8524	-3480	13012	-159	117	-262	-15792	2064	-4688	-12	-91	80	-2464	-4968	15880	213	-123	414	-7688	4424	14364	95	-43	-188	-16184	1368	-2732	210	191	37	-1680	-2644	16888	442	-10	221	128	125	5
-8424	-3476	13132	-194	106	-232	-15928	1948	-4544	-166	-92	-10	-2564	-5020	15780	201	-326	529	-7712	4480	14288	55	-36	-177	-15992	1380	-2776	-196	281	81	-1648	-2544	16864	827	56	212	127	125	5
-8472	-3384	13148	-170	94	-225	-15848	1808	-4720	-229	-54	8	-2464	-5016	15928	275	-320	522	-7620	4460	14352	68	-41	-172	-15884	1172	-2880	-322	281	154	-1804	-2508	16968	988	158	92	128	126	5
-8464	-3388	13148	-230	103	-268	-16068	1568	-4764	-207	-97	87	-2672	-5096	15868	384	-210	396	-7624	4440	14348	53	-55	-182	-15776	1068	-3148	-179	316	229	-1972	-2152	16812	983	143	-154	128	126	5
-8480	-3612	13032	-209	112	-238	-15988	1620	-4484	-196	-152	100	-2260	-4984	15860	327	-74	398	-7724	4396	14324	102	-31	-180	-15536	1316	-3448	21	228	150	-2100	-2288	16696	682	246	-121	128	126	5
-8420	-3648	12980	-156	27	-191	-15784	1680	-4168	-34	-55	-5	-1728	-4728	15636	-23	-197	464	-7736	4372	14368	97	-6	-139	-15596	1340	-3376	-98	65	20	-2048	-2456	16680	0	7	89	128	127	5
-8384	-3444	13128	-178	56	-196	-16052	1744	-4024	2	113	-21	-1772	-5020	15944	-352	-315	388	-7664	4504	14468	124	-69	-112	-16016	1000	-3300	-111	-55	42	-2236	-2900	16904	-70	0	123	128	125	5
-8340	-3704	13204	-108	152	-218	-16236	1440	-4148	176	272	105	-2124	-5492	15688	144	-185	150	-7628	4368	14396	167	38	-139	-15936	768	-3136	233	-176	119	-1848	-2808	16904	9	119	20	128	125	5
-8448	-3620	13108	-15	214	-157	-16016	1208	-4600	545	243	283	-2464	-5376	15776	206	-41	24	-7696	4480	14408	213	35	-78	-15648	1096	-3008	545	-108	196	-1548	-2408	16776	282	245	-174	129	126	5
-8544	-3472	13020	48	115	-141	-15852	1476	-4872	496	242	383	-2696	-5004	15732	133	56	-101	-7676	4516	14228	215	78	-141	-15904	1396	-2936	415	-83	276	-1632	-2244	16928	388	173	-433	128	126	5
-8460	-3444	13208	5	96	-110	-15776	1796	-4956	250	189	403	-2588	-5052	15964	-24	-86	-140	-7660	4536	14360	186	58	-130	-16088	1536	-2788	264	-49	330	-2072	-1968	16928	483	137	-525	128	125	5
-8452	-3728	13220	-1	146	-116	-15792	1708	-5120	-37	78	394	-2652	-5368	16072	-1	-127	-79	-7652	4484	14344	155	76	-161	-16216	1852	-2960	80	-23	204	-2404	-1844	17016	396	77	-270	128	125	5
-8476	-3480	13116	9	209	-110	-15832	1708	-5164	-48	87	407	-2884	-4940	15836	195	100	51	-7684	4452	14264	159	108	-178	-15952	1884	-2932	-223	71	53	-2376	-1984	16760	290	37	-44	127	126	5
-8496	-3396	12988	12	86	-149	-15772	1996	-4576	234	0	277	-2512	-4596	15592	253	-49	115	-7728	4484	14388	18	-37	-179	-15876	1508	-3204	-292	95	-39	-2080	-2036	16924	69	-69	142	127	126	5
-8376	-3508	13112	-59	81	-202	-15840	1988	-4576	274	105	189	-2172	-4604	15972	157	-253	88	-7704	4372	14456	14	-96	-152	-15804	1340	-3144	184	106	-176	-1984	-2008	16924	58	-59	173	127	126	5
-8404	-3544	13240	-39	128	-186	-15924	1896	-4576	400	109	222	-2192	-4620	16196	141	-143	11	-7660	4508	14320	71	-84	-172	-15848	1296	-2968	484	112	-236	-1820	-2136	16944	-143	52	186	128	125	5
-8432	-3468	13136	-109	143	-146	-16000	1964	-4556	282	192	133	-2276	-4844	16072	-192	-141	38	-7680	4412	14360	54	2	-161	-15892	1508	-2988	86	151	-205	-1716	-2488	16764	-232	44	96	128	126	5
-8460	-3508	13208	-114	191	-143	-15928	1920	-4828	22	142	71	-2428	-4888	15808	-80	-48	89	-7608	4416	14480	58	-37	-169	-15932	1464	-2980	19	113	-200	-2004	-2720	16772	-61	-10	85	128	127	5
-8488	-3436	13132	-121	177	-166	-16008	1700	-4648	-37	168	21	-2604	-5172	15544	59	-169	184	-7668	4436	14360	71	-40	-128	-16048	1136	-3152	-340	108	-65	-2164	-2948	16912	274	177	198	127	126	5
-8424	-3328	13156	-99	184	-140	-15852	1640	-4904	257	153	67	-2512	-5204	15792	17	-334	238	-7708	4508	14316	81	32	-183	-15972	1108	-3168	-150	105	-31	-1932	-2880	16872	342	240	258	128	125	5
-8532	-3452	13156	-113	153	-202	-15628	1524	-4908	241	134	172	-2392	-5320	15856	265	-216	248	-7704	4480	14296	98	25	-125	-15860	1164	-3192	-92	96	19	-2020	-2560	16792	522	261	162	128	126	5
-8540	-3584	13076	-108	131	-200	-15724	1516	-4968	189	105	291	-2504	-5420	15824	508	-53	184	-7672	4468	14328	107	-7	-171	-15844	1108	-3080	87	76	73	-1984	-2484	16652	468	126	85	127	125	5
-8468	-3540	13100	-75	69	-189	-15728	1472	-4924	103	71	277	-2552	-5412	15784	412	-109	222	-7628	4432	14324	138	-10	-123	-15940	1208	-3108	203	118	114	-2052	-2572	16740	346	22	85	128	125	5
-8460	-3576	13128	-55	67	-144	-15932	1564	-4700	-97	-11	379	-2624	-5160	15848	314	-110	265	-7744	4460	14444	111	13	-132	-16076	1400	-3072	-132	107	185	-2188	-2556	16852	599	61	73	127	126	5
-8364	-3460	13140	-17	90	-111	-16052	1728	-4592	-74	-49	339	-2480	-4828	15828	468	-112	265	-7684	4508	14368	119	27	-161	-16040	1300	-3280	-350	67	277	-2168	-2496	16784	774	33	-6	128	126	5
-8424	-3532	13176	-43	45	-110	-15996	1824	-4624	132	15	350	-2436	-4676	15956	303	-195	172	-7700	4412	14412	140	48	-133	-15888	1124	-3316	-63	14	303	-2248	-2376	16744	657	-7	-92	128	126	5
-8360	-3424	13388	16	157	-106	-15864	1888	-4876	175	-33	383	-2456	-4896	16132	252	-287	169	-7660	4412	14364	155	-14	-101	-15872	1144	-3128	118	0	254	-2056	-2464	16824	421	-13	-96	127	125	5
-8432	-3504	13100	-52	189	-107	-15676	1852	-4804	-87	-70	350	-2428	-5100	15912	340	-197	268	-7616	4404	14364	205	-15	-110	-15868	1552	-3268	167	-2	226	-2060	-2248	17064	466	-50	47	128	125	5
-8480	-3452	13056	-55	147	-124	-15468	1860	-4740	-104	-89	293	-2480	-4720	15816	506	-72	429	-7708	4528	14344	171	54	-79	-16020	1744	-2928	12	-55	152	-1984	-2068	16892	800	160	202	128	126	5
-8432	-3368	13144	-62	78	-140	-15780	1952	-4796	47	-107	258	-2604	-4544	15836	245	-164	429	-7684	4476	14332	129	48	-136	-15944	1708	-2964	-473	-4	171	-2052	-1988	16952	885	182	242	128	126	5
-8392	-3424	13212	-105	53	-206	-16092	2136	-4804	-139	-107	191	-2680	-4540	15728	185	-202	443	-7676	4500	14396	106	36	-184	-15916	1540	-3056	-586	1	159	-2044	-1828	16756	943	-15	159	127	125	5
-8452	-3424	13116	-123	115	-193	-16020	1968	-4636	-249	-100	224	-2364	-4564	16112	663	-194	393	-7728	4460	14324	106	-4	-177	-15808	1300	-3156	-10	52	72	-1996	-1856	16748	730	-31	93	127	125	5
-8420	-3536	13176	-132	146	-163	-16004	1784	-4580	-30	-77	121	-2252	-4556	15948	325	-203	385	-7640	4440	14352	89	10	-151	-15904	1336	-3020	280	21	3	-2036	-1936	16736	338	33	68	129	124	5
-8400	-3564	13136	-91	190	-189	-15940	1768	-4544	123	-114	103	-2300	-4628	15936	12	-196	338	-7620	4588	14380	118	10	-158	-15996	1408	-3144	166	60	-7	-2048	-2168	16960	68	-60	8	128	126	5
-8420	-3396	13016	-110	177	-168	-15908	1828	-4712	142	-49	120	-2432	-4464	15956	-87	-129	255	-7680	4512	14368	108	31	-183	-15816	1420	-3196	107	24	16	-2012	-1924	16820	-143	-155	-34	128	125	5
-8404	-3484	13060	-104	153	-170	-15896	1920	-4856	215	-46	103	-2476	-4364	16072	-208	-129	94	-7724	4488	14368	114	11	-143	-15728	1540	-3320	20	-31	-6	-1968	-1968	16732	264	-64	-128	128	126	5
-8540	-3456	13220	-138	177	-174	-15916	2004	-4736	175	-42	54	-2620	-4736	15940	-275	-108	36	-7704	4476	14352	99	-28	-182	-15864	1512	-3204	47	-8	-58	-2060	-2092	16720	264	-213	-179	128	126	5
-8428	-3332	13160	-148	242	-157	-15912	2032	-4884	141	-102	86	-2576	-4884	15876	-227	-133	164	-7692	4508	14316	102	-8	-123	-15888	1384	-3048	107	-13	-39	-2192	-2248	16876	141	165	-184	128	125	5
-8540	-3376	13172	-181	192	-233	-15632	1884	-4964	-105	-165	-8	-2484	-4772	15964	-63	-192	318	-7636	4496	14336	113	-20	-167	-16084	1492	-3132	68	-11	-81	-1984	-2472	16652	-161	-787	-51	128	126	5
-8496	-3504	13088	-174	142	-242	-15804	1892	-4660	-52	-129	-106	-2440	-4528	16004	-58	-230	374	-7712	4464	14412	93	-27	-155	-15948	1664	-3120	-39	-3	-163	-1896	-2224	16924	400	74	86	127	125	5
-8428	-3376	13124	-187	130	-248	-15876	1936	-4668	-26	-139	-122	-2392	-4656	15916	-119	-210	362	-7768	4436	14320	83	6	-155	-15868	1432	-3200	-151	-71	-138	-2084	-2152	16780	576	154	141	127	125	5
-8420	-3452	13036	-188	149	-239	-15920	1820	-4628	-15	-82	-153	-2228	-4812	15920	-192	-243	248	-7648	4440	14372	69	-4	-170	-15796	1116	-3360	-15	-86	-85	-2048	-1872	16920	205	31	-80	128	125	5
-8396	-3540	13208	-158	120	-239	-16040	1404	-4548	-65	-73	-44	-2296	-5128	15888	-295	-164	135	-7808	4392	14424	88	9	-139	-16212	1156	-3240	397	-64	-71	-2520	-2192	16948	959	447	-319	128	125	5
-8460	-3604	13040	-127	184	-228	-16004	1068	-4652	150	-72	109	-2468	-5128	15824	-302	25	-89	-7688	4464	14416	111	-6	-141	-15376	1504	-3392	389	-212	-159	-1896	-2192	16476	-109	136	-356	127	124	5
-8420	-3468	13068	-50	89	-191	-15872	1424	-4624	531	-132	136	-2300	-4864	15716	-503	111	-286	-7756	4448	14272	130	-27	-139	-15028	1516	-3156	231	-289	-259	-1392	-1936	16468	-110	-343	-170	128	124	5
-8420	-3400	13096	12	58	-167	-15932	1884	-4536	427	-41	210	-2348	-4520	15940	-924	115	-345	-7784	4396	14252	103	-151	-115	-15592	1444	-3088	299	-268	-307	-2104	-1788	16684	-599	-188	-234	128	125	5
-8428	-3464	13204	-23	55	-166	-16136	2192	-4416	160	-8	53	-2160	-5056	16072	-1089	47	-443	-7648	4520	14484	71	-160	-107	-16052	1412	-2964	284	-308	-247	-2036	-2140	16856	-1309	-639	-236	128	125	5
-8324	-3656	13256	-68	152	-135	-15920	2008	-4448	11	130	106	-2016	-5560	16200	-507	46	-197	-7620	4456	14436	109	-42	-140	-16284	1296	-3128	225	-221	-409	-2068	-2568	17124	-1309	-374	66	128	125	5
-8436	-3500	13112	-60	244	-126	-15920	1604	-4864	202	90	95	-2524	-5040	15796	-428	123	85	-7664	4484	14392	134	15	-155	-16028	1168	-2976	241	-209	-364	-1976	-2840	16744	-961	127	67	129	124	5
-8516	-3384	13136	-64	177	-154	-15620	1728	-4900	541	148	15	-2392	-4968	15584	-391	65	108	-7704	4488	14224	124	11	-151	-15928	1236	-2912	294	-181	-282	-1948	-2852	16680	-617	-193	30	127	125	5
-8432	-3404	13148	-61	167	-144	-15608	1956	-4924	354	61	32	-2488	-5192	15700	-182	-255	121	-7672	4460	14240	156	-40	-126	-16048	1276	-2948	96	-103	-199	-2052	-2920	16992	-27	-30	-90	127	125	5
-8524	-3428	13144	-92	116	-220	-15848	1880	-4836	50	57	51	-2668	-5160	15912	-22	-142	160	-7652	4440	14440	150	1	-140	-16292	1296	-2968	-182	-99	-62	-2176	-2932	16872	-8	-168	45	128	125	5
-8396	-3508	13100	-139	120	-213	-15728	1764	-4828	-65	35	117	-2552	-5200	15980	-153	-267	254	-7680	4556	14452	172	29	-100	-16052	1244	-2928	-256	-51	-56	-2080	-2796	17080	214	38	109	127	125	5
-8436	-3548	13244	-124	129	-187	-15828	1716	-4828	-237	-64	68	-2556	-5304	15952	118	-69	395	-7688	4528	14236	153	117	-130	-15884	1196	-3064	-218	-80	62	-2048	-2416	16820	751	18	28	128	125	5
-8404	-3508	13312	-96	129	-198	-15872	1544	-4700	-157	-75	94	-2500	-5224	15744	384	103	461	-7700	4448	14292	204	19	-148	-15832	1392	-3152	-1	-92	60	-2228	-2372	16568	609	15	41	127	125	5
-8452	-3400	13048	-95	105	-199	-15908	1540	-4712	-121	-76	100	-2460	-4996	15488	15	-226	386	-7748	4456	14288	102	-26	-128	-15916	1400	-3092	150	-102	33	-2212	-2168	16732	416	-196	-1	127	126	5
-8428	-3488	13184	-66	70	-177	-15940	1604	-4504	115	-88	155	-2416	-5036	16064	156	85	352	-7624	4540	14348	130	-13	-145	-15940	1428	-3172	147	-165	-27	-2028	-2104	16908	385	-182	-47	127	124	5
-8428	-3576	13060	-74	94	-162	-16048	1660	-4644	77	-12	158	-2256	-4992	15868	139	-153	277	-7656	4480	14300	150	36	-128	-15896	1328	-3024	119	-202	-48	-1908	-2060	16964	383	-8	-69	128	125	5
-8400	-3516	13100	-27	96	-157	-15912	1664	-4632	-33	-19	206	-2308	-5064	15876	47	47	124	-7680	4520	14332	128	-38	-106	-15732	1368	-2972	184	-187	-98	-1688	-2252	16824	-29	-45	-90	127	125	5
-8452	-3528	13196	-10	131	-113	-15980	1576	-4740	141	-5	266	-2388	-5052	16124	-419	-89	37	-7648	4492	14292	132	-25	-145	-15920	1348	-2924	41	-126	-57	-1704	-2380	16788	-146	-42	-116	127	127	5
-8436	-3452	13108	-32	142	-136	-16032	1956	-4716	125	-49	227	-2400	-4908	15836	-126	256	-27	-7640	4588	14456	119	63	-164	-15952	1540	-2796	-36	-147	-82	-1988	-2216	17092	13	-161	-38	128	125	5
-8408	-3400	13192	-40	127	-155	-15880	2088	-4424	55	44	160	-2240	-4720	15860	-50	306	81	-7692	4464	14364	97	9	-182	-16116	1744	-2896	36	-30	-244	-1960	-1988	17136	211	41	200	127	125	5
-8408	-3372	13196	-20	191	-161	-15700	1736	-4560	287	96	45	-2416	-4768	15820	-449	-13	85	-7724	4468	14280	88	-16	-185	-16220	1736	-2488	-185	106	-308	-1624	-1924	16984	419	242	341	128	125	5
-8468	-3500	13236	-37	158	-217	-15468	1816	-4864	254	99	110	-2632	-5056	15592	-372	-310	92	-7660	4568	14264	-14	0	-262	-16216	1688	-2528	-222	182	-347	-1596	-1860	17008	443	187	345	127	126	5
-8460	-3504	13220	-118	157	-158	-15808	1916	-5156	44	-127	69	-2812	-5080	16308	-34	-420	237	-7692	4508	14332	-98	-6	-276	-15748	1756	-2948	-633	397	-356	-1872	-1712	16952	294	56	364	127	126	5
-8400	-3468	13152	-136	143	-183	-15976	2288	-4748	-359	-80	-27	-2660	-4816	16004	277	93	374	-7696	4528	14372	-110	-35	-265	-15916	1592	-3100	-344	498	-490	-2228	-1868	17032	194	102	443	127	125	5
-8368	-3408	13120	-162	142	-224	-15896	2020	-4620	-313	-11	-79	-2484	-4736	15628	-107	-240	403	-7620	4444	14412	-114	29	-278	-16092	1496	-3108	-291	412	-669	-2340	-1952	16908	-156	41	536	127	125	5
-8428	-3428	13024	-216	145	-261	-15896	1596	-4636	-62	-17	-116	-2316	-5000	15912	-208	-367	390	-7760	4580	14336	-123	58	-282	-15868	1316	-3344	-444	332	-738	-2444	-2388	16536	-624	-49	644	127	126	5
-8392	-3668	13292	-166	150	-260	-15944	1324	-4980	261	-29	-43	-2536	-5332	15996	-310	-480	276	-7716	4384	14248	-86	-94	-268	-15652	964	-3464	-512	255	-711	-2168	-2708	16584	-757	-191	615	127	125	5
-8444	-3636	13200	-110	223	-216	-16108	1416	-5028	369	-203	38	-2992	-5312	16024	-273	-378	148	-7728	4440	14332	-41	-68	-274	-15788	884	-3392	-67	250	-655	-2224	-2888	16740	-634	-246	514	127	125	5
-8472	-3384	13112	-138	231	-168	-15864	1656	-5048	191	-279	47	-2920	-4968	16032	-266	175	88	-7676	4512	14308	29	-93	-366	-15740	1292	-3392	-408	14	-614	-2472	-2720	16984	-393	-233	498	126	125	5
-8472	-3428	13096	-176	129	-201	-15692	1912	-4736	-122	-349	32	-2688	-5072	15484	-441	256	91	-7800	4284	14260	86	-98	-363	-15628	1396	-3536	-1100	-154	-592	-2372	-2592	16692	-383	-136	642	127	125	5
-8428	-3488	13072	-197	51	-248	-15820	1680	-4780	-223	-337	-2	-2504	-5352	15668	-549	-109	213	-7720	4308	14416	78	-135	-282	-15788	988	-3488	-1182	-265	-710	-2364	-2744	16640	-737	-203	768	127	126	5
-8372	-3492	13196	-181	110	-248	-16116	1568	-4676	-172	-359	81	-2660	-5396	15744	-540	-197	226	-7612	4292	14372	77	-202	-222	-16352	560	-3152	-888	-229	-664	-1812	-3056	16540	-767	-225	710	127	125	5
-8396	-3488	13108	-181	149	-234	-16128	1696	-4296	50	-264	79	-2024	-5212	15808	-30	-169	307	-7720	4688	14316	24	-163	-182	-16020	568	-2700	-328	-40	-435	-1600	-3228	16844	-594	-264	472	126	125	5
-8448	-3444	13156	-112	116	-237	-15484	1720	-4384	304	-225	76	-1844	-4980	15644	135	-125	336	-7636	4264	14340	50	-111	-155	-15280	1108	-3176	-369	-60	-351	-1232	-2928	16984	13	-97	416	127	125	5
-8424	-3392	13076	-117	22	-234	-15580	1812	-4268	46	-107	107	-1584	-5132	15552	-172	-244	249	-7824	4376	14372	53	-200	-107	-15440	1248	-3176	55	36	-355	-1696	-2432	16788	122	69	540	127	125	5
-8456	-3316	13168	-158	28	-284	-16136	1940	-4012	-208	91	163	-1836	-5312	15736	-160	-469	285	-7692	4420	14432	-40	-208	-59	-15948	1812	-3060	-83	-10	-524	-2640	-2044	16864	-11	94	766	127	126	5
-8252	-3712	13144	-62	102	-196	-16520	1760	-3856	-52	276	94	-1944	-5564	15844	-4	-510	442	-7644	4660	14432	-168	-291	-135	-16080	1404	-3292	-1119	-183	-643	-2644	-2640	17020	-89	252	947	127	126	5
-8364	-3640	13172	-36	140	-98	-16208	1552	-4312	279	471	44	-2200	-5424	15800	118	-455	564	-7732	4236	14388	-160	-273	-141	-16256	196	-3356	-800	-246	-487	-2100	-3156	16692	-119	73	760	128	124	5
-8424	-3408	13240	-70	171	-146	-15756	1436	-4700	161	530	221	-2060	-5588	15824	137	-140	453	-7540	4084	14536	-42	-115	-85	-15924	52	-3208	484	-221	-512	-1792	-3240	16560	-336	-54	584	128	125	5
-8412	-3372	13212	-53	160	-97	-15632	1168	-4912	184	446	373	-2352	-5692	15632	264	72	373	-7612	4244	14432	69	-123	-64	-15436	416	-3188	849	-216	-440	-1424	-3336	16600	-70	110	231	127	125	5
-8432	-3616	13176	51	117	-54	-15840	1212	-4996	331	389	450	-2764	-5528	15804	507	147	288	-7648	4248	14380	138	-132	-57	-15692	676	-3000	507	-235	-161	-1432	-3332	16528	17	76	-54	127	125	5
-8464	-3492	13252	64	67	-110	-15840	1596	-4912	222	332	497	-2776	-5196	15692	357	313	213	-7664	4412	14428	131	-120	-35	-15700	752	-3088	499	-222	-138	-1752	-3288	16812	-16	76	-108	127	125	5
-8520	-3336	13092	105	-53	-132	-15544	1744	-4804	44	340	545	-2600	-4896	15516	300	166	138	-7640	4328	14504	137	-78	-81	-16152	740	-2900	-130	-161	183	-1792	-3364	16844	285	188	-75	127	126	5
-8380	-3536	13192	60	-78	-159	-15804	1752	-4792	158	253	527	-2476	-4764	16084	187	-49	44	-7632	4440	14428	157	-33	-40	-15992	776	-2956	-256	-92	277	-1688	-3256	16764	539	191	9	127	126	5
-8368	-3492	13236	66	-49	-168	-15916	2104	-4848	212	267	403	-2468	-4764	16012	293	-64	106	-7600	4412	14488	201	-32	-91	-15956	672	-2996	-55	-23	297	-1676	-2932	16720	640	191	66	128	126	5
-8348	-3436	13248	-8	-1	-153	-15896	2320	-4728	31	261	340	-2448	-4716	15912	346	-165	234	-7648	4360	14476	173	6	-94	-16032	664	-2768	364	68	399	-1676	-2756	16692	583	235	-83	127	126	5
-8308	-3412	13216	-6	34	-135	-15848	2236	-4732	-40	306	234	-2356	-4688	16012	369	-225	327	-7556	4376	14508	205	20	-111	-16088	852	-2836	591	131	453	-1760	-2612	16704	654	222	-275	127	124	5
-8348	-3464	13224	-52	60	-164	-15932	2024	-4636	100	386	99	-2408	-4600	15924	278	-269	370	-7508	4576	14340	193	107	-124	-16180	952	-2892	573	176	459	-1864	-2540	16840	705	194	-286	127	125	5
-8336	-3360	13192	-93	112	-225	-15944	1960	-4784	200	362	94	-2428	-4708	15932	138	-305	273	-7780	4272	14356	200	144	-145	-15884	1312	-3180	17	135	530	-2388	-2528	16540	988	344	-392	127	125	5
-8332	-3444	13148	-111	116	-208	-15948	1780	-4944	341	362	66	-2636	-4764	15968	23	-312	216	-7660	4396	14336	162	41	-126	-15780	1196	-3212	-68	139	489	-2276	-2404	16676	728	225	-342	127	126	5
-8440	-3480	13140	-117	140	-211	-15852	1772	-5096	333	326	5	-2672	-4852	15860	15	-266	177	-7680	4440	14344	175	40	-111	-15860	1292	-3292	229	121	370	-2416	-2024	16936	833	211	-224	127	126	5
-8348	-3472	13116	-137	144	-230	-15756	1908	-5000	225	259	-32	-2660	-5000	15816	-88	-289	183	-7644	4428	14396	97	-28	-148	-15816	1852	-3124	224	36	143	-2524	-1624	16928	434	281	97	127	126	5
-8348	-3468	13216	-113	148	-214	-15648	1784	-5152	96	225	-22	-2796	-5124	15756	-63	-331	270	-7700	4428	14440	65	-20	-147	-16160	1760	-3148	-259	50	-55	-2376	-1816	16896	162	326	329	127	126	5
-8488	-3424	13312	-180	140	-207	-15688	1760	-5160	-30	93	-63	-2736	-5208	15972	89	-359	401	-7636	4508	14460	14	-89	-165	-16012	1492	-3068	-689	49	-202	-2260	-2084	16984	388	321	507	127	126	5
-8356	-3548	13156	-194	136	-237	-15916	1744	-4968	-218	90	-48	-2620	-5172	15748	266	-306	426	-7644	4440	14372	-15	-54	-142	-15572	1256	-3240	-515	-16	-302	-2188	-2108	16692	277	294	648	127	126	5
-8304	-3428	13172	-139	119	-211	-16064	1568	-4676	-134	24	-53	-2412	-5048	15812	315	-264	403	-7644	4396	14384	-9	-141	-184	-15600	996	-3372	143	-3	-426	-2168	-2240	16640	-48	276	566	127	126	5
-8356	-3448	13188	-149	160	-211	-16064	1540	-4752	100	83	24	-2280	-4828	15812	202	-290	247	-7556	4332	14432	22	-148	-152	-15848	948	-3256	338	-42	-481	-2096	-2268	16736	-416	160	326	127	126	5
-8384	-3504	13248	-107	161	-219	-16024	1540	-4664	281	77	60	-2336	-4744	15992	-12	-178	27	-7588	4408	14388	49	-123	-123	-15892	856	-3236	319	-143	-459	-2024	-2420	16524	-633	103	34	127	126	5
-8412	-3472	13164	-76	159	-171	-15892	1556	-4668	530	117	42	-2372	-4684	16004	-328	-38	-178	-7696	4328	14480	47	-101	-129	-15928	828	-3012	359	-73	-319	-1856	-2688	16644	-797	37	-193	127	126	5
-8372	-3464	13264	-111	146	-177	-15864	1836	-4900	584	112	37	-2368	-4672	16020	-645	-9	-298	-7672	4436	14484	96	-94	-119	-15916	856	-2908	250	-79	-207	-1932	-2944	16712	-794	2	-308	127	126	5
-8352	-3384	13256	-97	166	-168	-15820	2028	-4984	453	67	19	-2444	-4784	16024	-714	-20	-273	-7552	4424	14428	99	-91	-128	-16028	1028	-3068	86	4	-170	-1980	-2864	16892	-692	98	-325	127	126	5
-8364	-3492	13144	-111	152	-160	-15640	2084	-4916	293	99	-100	-2420	-4856	16028	-733	-72	-122	-7552	4416	14356	124	-15	-144	-16032	1080	-2908	81	44	-84	-2128	-2904	16812	-474	160	-222	127	126	5
-8300	-3416	13136	-133	155	-184	-16028	1964	-5176	331	-88	-108	-2464	-5100	15880	-591	-91	49	-7616	4392	14404	93	-28	-128	-16120	1128	-3024	170	144	-82	-2296	-3064	16772	-83	196	-59	127	126	5
-8348	-3392	13152	-217	190	-211	-15604	1892	-5088	101	72	-244	-2528	-5352	15744	-360	-191	264	-7592	4476	14420	76	21	-189	-16124	1192	-2984	14	179	-90	-2296	-3032	16764	233	140	66	127	126	5
-8440	-3404	13168	-179	206	-235	-15736	1756	-4940	16	82	-244	-2504	-5428	15620	-66	-244	423	-7636	4380	14464	48	5	-172	-16052	1032	-3120	-128	205	-63	-2396	-2980	16644	385	49	178	127	125	5
-8380	-3464	13256	-231	165	-285	-15728	1492	-5024	-121	103	-265	-2488	-5420	15684	142	-268	526	-7664	4340	14472	86	-15	-170	-15880	928	-3288	-74	157	-37	-2360	-2980	16684	387	6	183	127	126	5
-8432	-3552	13156	-210	170	-255	-15820	1380	-5232	-71	-11	-160	-2524	-5472	15624	134	-338	489	-7556	4340	14328	81	-31	-161	-15860	896	-3296	-6	115	-41	-2380	-2892	16612	224	-42	101	127	126	5
-8408	-3540	13168	-164	85	-244	-15736	1228	-5084	-97	-39	-85	-2460	-5504	15864	157	-242	437	-7572	4384	14488	107	10	-117	-15828	896	-3484	21	-14	39	-2360	-2896	16588	128	-90	17	128	126	5
-8364	-3560	13176	-83	93	-200	-15888	1204	-4884	-73	-107	13	-2384	-5508	15664	103	-223	289	-7592	4332	14300	145	17	-150	-15808	952	-3384	10	-52	37	-2312	-2880	16608	154	-99	-34	128	126	5
-8376	-3548	13216	-110	96	-215	-15904	1368	-5020	73	-88	120	-2360	-5404	15816	55	-174	247	-7568	4392	14348	126	-4	-130	-15804	1072	-3320	-93	-115	72	-2320	-2936	16724	249	-93	6	128	125	5
-8392	-3524	13184	-83	121	-180	-15848	1632	-4876	-20	-83	152	-2336	-5276	15892	134	-156	287	-7624	4388	14440	158	3	-122	-15872	1020	-3328	-148	-176	15	-2244	-2952	16708	339	-52	28	128	126	5
-8280	-3536	13292	-67	100	-153	-15856	1772	-4728	-115	-19	105	-2204	-5016	15800	239	-190	323	-7552	4408	14404	175	1	-89	-15852	932	-3272	40	-265	79	-2232	-2928	16728	402	-26	81	128	126	5
-8332	-3464	13200	-100	156	-168	-15840	1716	-4844	-233	14	158	-2336	-5112	15764	268	-171	315	-7572	4316	14440	179	-5	-97	-15920	876	-3004	6	-213	94	-2100	-2836	16644	396	-2	47	128	126	5
-8344	-3496	13336	-64	150	-170	-15840	1448	-4844	-103	47	158	-2372	-5116	15812	263	-170	292	-7560	4284	14352	228	-10	-109	-15936	784	-3036	207	-239	171	-2052	-2756	16788	330	-61	-3	128	125	5
-8440	-3472	13224	-11	103	-165	-15728	1236	-4960	190	39	187	-2356	-5184	15784	112	-105	244	-7676	4324	14408	205	11	-135	-15972	1056	-2964	297	-143	187	-1896	-2636	16732	395	-2	-109	128	126	5
-8400	-3480	13168	74	30	-149	-15856	1292	-4876	159	-9	268	-2448	-5232	15648	-80	-7	180	-7656	4412	14404	199	79	-106	-15940	1272	-2924	82	-133	254	-1944	-2516	16828	457	-22	-165	128	126	5
-8404	-3452	13204	56	35	-127	-15884	1408	-5004	423	-49	303	-2424	-5204	15892	-165	-103	40	-7632	4388	14492	167	62	-125	-15968	1220	-3080	-68	-95	238	-2056	-2328	16756	492	-5	-248	128	126	5
-8344	-3556	13292	45	111	-94	-15916	1688	-4808	202	7	331	-2336	-5140	16012	-81	-18	-33	-7636	4340	14448	157	30	-125	-15980	1176	-3028	53	-42	189	-2136	-2144	16892	442	1	-211	128	126	5
-8344	-3448	13244	52	76	-129	-15784	1776	-4872	132	8	336	-2268	-5136	15856	-6	39	-5	-7624	4416	14440	126	32	-169	-15988	1412	-3024	277	11	59	-2316	-2140	16740	280	-4	-137	128	126	5
-8368	-3432	13212	26	87	-93	-15856	1796	-4912	183	56	314	-2336	-5152	15832	59	-21	33	-7644	4472	14396	90	30	-167	-15936	1516	-3016	114	17	-55	-2236	-2232	16760	106	-2	9	127	125	5
-8348	-3488	13116	12	137	-87	-15788	1764	-5004	103	72	279	-2460	-5044	15900	138	-37	90	-7628	4392	14376	64	-32	-137	-15964	1400	-2928	-120	72	-112	-2272	-2260	16720	69	-20	45	128	126	5
-8364	-3380	13156	-37	123	-128	-15796	1712	-5044	110	43	226	-2560	-4972	15992	140	-74	146	-7668	4396	14400	53	-45	-154	-15904	1232	-3136	-118	105	-175	-2268	-2512	16748	55	-12	157	127	126	5
-8296	-3456	13216	-12	98	-168	-15748	1728	-5020	123	35	180	-2616	-4852	15904	29	-87	156	-7636	4396	14372	14	-23	-162	-15896	1056	-3288	-44	67	-192	-2232	-2644	16816	143	12	175	127	126	5
-8360	-3408	13228	-50	140	-161	-15772	1776	-5032	160	-51	172	-2536	-4796	15848	-86	-144	148	-7604	4428	14376	45	-8	-180	-15988	1128	-3188	6	58	-185	-2120	-2816	16776	129	-32	122	128	126	5
-8352	-3456	13192	-72	138	-186	-15780	1816	-5048	31	-101	119	-2540	-4836	16044	-103	-158	122	-7616	4396	14420	61	-19	-144	-15868	984	-3232	-129	52	-125	-2200	-2752	16764	93	-37	102	127	126	5
-8324	-3444	13212	-109	113	-185	-15784	1892	-4936	10	-59	50	-2472	-4860	15908	-65	-175	164	-7612	4444	14452	77	-40	-137	-15940	952	-3116	-96	33	-129	-2168	-2868	16736	79	-18	53	128	126	5
-8352	-3356	13184	-116	169	-190	-15764	1820	-4976	-8	-81	23	-2400	-4964	15872	-69	-183	173	-7588	4348	14392	84	-34	-137	-15848	1032	-3212	-74	-2	-111	-2152	-2904	16684	128	-51	60	128	126	5
-8380	-3432	13268	-152	151	-222	-15800	1728	-4964	3	-66	-22	-2404	-5096	15868	-55	-185	224	-7636	4344	14388	118	-19	-140	-15888	884	-3240	11	-28	-53	-2156	-2848	16704	86	23	69	128	126	5
-8400	-3520	13208	-145	154	-218	-15856	1592	-4936	57	-88	1	-2316	-5220	15852	-102	-174	239	-7572	4404	14384	139	-31	-163	-15940	1000	-3120	69	-64	-58	-2168	-2892	16724	152	29	17	128	126	5
-8268	-3460	13188	-159	144	-212	-15884	1516	-4776	90	-28	-2	-2336	-5180	15832	-167	-137	222	-7596	4412	14392	125	-50	-149	-15856	1032	-3148	115	0	4	-2164	-2788	16756	230	52	-41	128	126	5
-8272	-3484	13240	-122	154	-205	-15892	1488	-4812	88	-24	39	-2284	-5296	15708	-96	-138	168	-7668	4392	14420	126	41	-132	-15892	1048	-3164	61	-28	30	-2080	-2736	16744	300	-8	-46	128	126	5
-8412	-3608	13284	-131	145	-182	-15840	1512	-4776	90	29	72	-2256	-5320	15752	-68	-111	146	-7540	4400	14456	150	-22	-145	-15936	1032	-3020	14	-34	50	-2152	-2668	16764	288	16	-69	128	126	5
-8316	-3496	13196	-91	185	-179	-15888	1504	-4812	70	25	96	-2308	-5428	15764	16	-96	152	-7628	4380	14464	134	0	-109	-15888	1136	-3036	-36	-17	53	-2140	-2640	16704	238	6	-87	128	126	5
-8416	-3424	13116	-80	121	-157	-15856	1480	-4820	164	31	143	-2388	-5412	15696	69	-95	131	-7628	4424	14396	118	3	-148	-15948	1104	-3124	-3	-41	19	-2108	-2620	16852	232	-26	-30	128	126	5
-8280	-3396	13260	-61	164	-139	-15820	1488	-5052	140	60	158	-2432	-5364	15828	86	-77	160	-7680	4388	14452	126	25	-136	-15868	1064	-3124	51	1	5	-2256	-2644	16620	201	-13	-29	128	126	5
-8428	-3456	13200	-42	157	-140	-15764	1496	-4948	132	103	229	-2376	-5240	15776	120	-58	158	-7596	4424	14516	143	-24	-114	-15852	1136	-3056	42	22	17	-2200	-2740	16640	282	39	-6	128	126	5
-8380	-3512	13092	-39	153	-138	-15772	1556	-4984	121	72	196	-2472	-5120	15772	63	-55	152	-7632	4404	14476	130	3	-144	-15892	1184	-3196	84	-15	9	-2236	-2700	16716	252	18	2	128	126	5
-8384	-3516	13140	-64	125	-123	-15784	1624	-5024	91	-3	214	-2476	-5096	15804	64	-55	163	-7616	4424	14428	118	-2	-133	-15936	1124	-3104	39	-13	6	-2288	-2652	16712	271	-3	18	128	126	5
-8372	-3424	13192	-80	114	-158	-15732	1672	-5036	64	-6	237	-2488	-5080	15904	11	-41	156	-7636	4364	14396	115	0	-130	-15904	1152	-3168	-16	-63	22	-2216	-2676	16608	300	-9	4	128	126	5
-8404	-3452	13240	-64	146	-157	-15740	1708	-5088	58	-19	180	-2568	-5016	15908	71	-86	137	-7636	4348	14468	88	-13	-133	-15892	1124	-3204	-59	-14	-41	-2192	-2628	16716	250	17	27	128	126	5
-8408	-3412	13152	-99	114	-177	-15764	1784	-4976	36	-69	196	-2536	-5020	15844	69	-106	195	-7580	4348	14380	124	-19	-113	-15936	1084	-3216	-10	-28	-39	-2204	-2588	16760	180	-19	54	128	126	5
-8320	-3424	13248	-112	144	-158	-15788	1784	-4892	8	-65	144	-2492	-5012	15912	26	-126	193	-7600	4428	14472	114	-18	-133	-15964	1144	-3252	-31	-89	-60	-2240	-2684	16684	181	-41	30	128	126	5
-8356	-3464	13284	-133	148	-160	-15816	1728	-4960	-3	-67	125	-2472	-5036	15836	11	-112	245	-7644	4416	14380	126	-17	-153	-15860	1096	-3280	-7	-98	-30	-2128	-2624	16756	203	-16	46	128	126	5
-8344	-3428	13228	-111	148	-202	-15820	1636	-4940	-15	-63	128	-2396	-4992	15812	-28	-182	232	-7624	4384	14308	144	-3	-143	-15924	1064	-3104	91	-77	-22	-2080	-2560	16724	210	-23	18	128	126	5
-8368	-3448	13180	-125	133	-212	-15776	1704	-4888	66	-53	91	-2408	-5056	15880	-44	-137	171	-7580	4388	14484	142	21	-160	-15856	1156	-3156	74	-27	-38	-2020	-2588	16720	212	-49	-6	128	126	5
-8316	-3444	13168	-108	159	-231	-15880	1628	-4840	102	-4	88	-2292	-5100	15888	-37	-130	155	-7644	4408	14428	127	62	-150	-15912	1168	-3020	11	-34	-49	-2056	-2536	16820	207	-17	-44	128	126	5
-8320	-3408	13212	-119	159	-192	-15868	1676	-4768	115	5	85	-2412	-5156	15784	-41	-120	189	-7632	4376	14376	101	1	-147	-15928	1140	-3104	-77	4	-9	-2108	-2572	16764	232	-8	-12	128	126	5
-8404	-3464	13228	-124	133	-192	-15888	1588	-4848	80	22	100	-2376	-5220	15884	-34	-78	171	-7588	4412	14392	155	-39	-151	-15896	1168	-3088	-36	-18	-55	-2108	-2604	16724	188	10	32	128	126	5
-8380	-3468	13220	-96	173	-207	-15840	1540	-4824	109	15	96	-2368	-5132	15848	-30	-117	150	-7616	4388	14544	114	-39	-171	-15992	1108	-3032	21	35	-78	-2164	-2760	16756	204	29	31	128	126	5
-8308	-3440	13236	-76	171	-186	-15816	1508	-4968	127	35	121	-2412	-5232	15792	-17	-95	173	-7628	4432	14440	140	10	-129	-15932	1068	-3104	107	68	-32	-2072	-2628	16692	223	19	8	127	126	5
-8340	-3468	13240	-67	193	-192	-15860	1620	-4868	117	48	133	-2408	-5164	15912	16	-133	172	-7616	4420	14520	102	2	-164	-15948	1104	-3104	22	106	-51	-2200	-2656	16780	278	35	-3	127	126	5
-8348	-3512	13288	-109	167	-142	-15792	1544	-4984	101	30	149	-2488	-5172	15916	73	-132	161	-7628	4392	14348	122	47	-145	-15908	1164	-3304	-64	34	6	-2264	-2684	16764	314	30	31	128	126	5
-8324	-3504	13196	-76	138	-161	-15776	1624	-4992	99	-16	180	-2400	-5224	15764	57	-93	150	-7680	4360	14404	95	16	-177	-15840	1120	-3204	-34	14	7	-2368	-2624	16692	246	35	52	127	126	5
-8356	-3452	13280	-70	145	-162	-15744	1576	-5128	93	4	175	-2444	-5168	15848	54	-103	146	-7604	4376	14472	93	24	-175	-15876	1160	-3408	-65	-11	-10	-2408	-2672	16772	234	-11	85	127	126	5
-8404	-3476	13176	-70	155	-172	-15788	1608	-5012	49	-9	169	-2600	-5068	15792	0	-117	196	-7680	4372	14396	131	-10	-153	-15892	1116	-3356	-1	-39	-67	-2404	-2744	16680	201	-6	82	127	126	5
-8348	-3448	13204	-83	146	-169	-15776	1564	-4968	37	-51	157	-2592	-5056	15832	-11	-141	212	-7608	4336	14388	123	-41	-159	-15920	1120	-3320	30	-87	-53	-2268	-2704	16592	185	-23	65	127	126	5
-8380	-3404	13204	-43	129	-161	-15808	1696	-4948	73	-88	170	-2496	-5096	15884	24	-162	186	-7612	4420	14312	139	-46	-125	-15868	1052	-3232	39	-143	-79	-2196	-2716	16648	148	-70	53	127	126	5
-8328	-3452	13176	-71	144	-182	-15828	1676	-4968	64	-104	138	-2472	-5040	15824	-10	-145	194	-7588	4356	14436	157	-2	-114	-15988	1164	-3028	2	-131	-74	-2100	-2684	16788	158	-24	55	127	126	5
-8376	-3440	13208	-115	134	-189	-15780	1724	-4920	9	-86	127	-2380	-5032	15900	29	-130	193	-7648	4372	14444	113	-39	-146	-15904	1136	-3000	-53	-131	-78	-2128	-2592	16808	175	5	52	127	126	5
-8352	-3436	13224	-59	134	-183	-15852	1728	-4868	34	-63	108	-2324	-5052	15916	-4	-137	176	-7648	4412	14380	133	-9	-135	-15968	1172	-2972	-85	-95	-46	-2052	-2644	16844	210	37	58	127	126	5
-8320	-3388	13188	-135	172	-163	-15860	1656	-4852	16	-59	94	-2316	-5124	15916	-30	-131	179	-7684	4432	14460	91	-10	-150	-15820	1084	-3068	-44	-18	-26	-2008	-2524	16772	249	19	50	127	126	5
-8372	-3484	13172	-113	154	-149	-15892	1584	-4840	61	5	82	-2296	-5096	15708	-35	-103	195	-7624	4404	14444	94	-50	-135	-15888	1088	-3000	47	-27	-58	-2084	-2468	16776	141	21	76	127	127	5
-8300	-3484	13320	-100	181	-181	-15860	1552	-4820	110	-18	114	-2388	-5120	15828	-26	-130	191	-7648	4388	14404	74	-21	-166	-16000	1088	-3096	91	26	-56	-2156	-2560	16780	156	23	17	127	127	5
-8348	-3448	13252	-102	140	-159	-15900	1640	-4940	110	55	124	-2380	-5176	15840	12	-127	179	-7676	4456	14476	96	-39	-165	-15960	1120	-3116	61	52	-7	-2132	-2664	16828	171	-16	-15	127	127	5
-8336	-3476	13116	-109	152	-163	-15796	1648	-4904	148	75	124	-2408	-5188	15784	25	-89	133	-7592	4392	14396	100	-9	-165	-15880	1116	-3168	-33	60	8	-2112	-2740	16688	143	-17	-42	126	127	5
-8336	-3512	13216	-65	187	-153	-15920	1596	-4956	85	69	121	-2388	-5324	15768	33	-63	148	-7636	4364	14388	112	-19	-160	-15800	1072	-3244	-449	84	77	-2012	-2844	16808	139	25	-73	126	127	5
-8360	-3536	13184	-76	172	-139	-15880	1444	-5128	252	33	136	-2516	-5252	15804	186	-61	105	-7648	4380	14428	113	42	-186	-15936	880	-3228	-208	-12	118	-2236	-2804	16728	226	20	-126	126	127	5
-8388	-3420	13220	-52	159	-155	-15736	1532	-5120	572	28	66	-2468	-5148	15872	168	-67	184	-7596	4456	14368	135	-23	-114	-15956	1032	-3324	-24	20	152	-2240	-2792	16624	359	44	-135	126	127	5
-8316	-3396	13176	-129	154	-186	-15604	1840	-4904	594	99	49	-2464	-4828	15888	230	-20	287	-7652	4516	14332	161	-32	-128	-15980	1204	-3192	-108	-12	142	-2236	-2820	16736	388	0	-170	126	127	5
-8264	-3456	13132	-130	139	-226	-15816	1900	-4980	351	14	112	-2532	-4952	15840	164	-117	278	-7576	4336	14380	177	18	-130	-15916	1140	-3176	-324	-5	141	-2136	-2744	16628	488	52	-104	126	127	5
-8300	-3528	13172	-121	156	-256	-15860	1828	-4836	-11	19	114	-2380	-4972	15916	104	-190	203	-7672	4452	14452	128	11	-152	-15848	960	-3168	-156	-23	178	-2152	-2756	16748	499	-2	-96	126	127	5
-8328	-3548	13332	-119	157	-199	-15796	1592	-4820	-300	1	113	-2344	-5080	15864	102	-106	184	-7604	4472	14392	149	13	-158	-15920	1056	-3176	183	6	120	-2208	-2596	16776	572	39	-74	126	127	5
-8336	-3596	13228	-120	150	-148	-15776	1360	-4828	-139	-30	141	-2396	-5180	15772	-25	-118	192	-7656	4400	14328	176	4	-120	-15956	1092	-3264	184	-44	124	-2268	-2460	16772	401	-39	-88	126	127	5
-8280	-3432	13148	-85	140	-126	-15796	1344	-4896	-22	3	181	-2412	-5316	15700	-99	-175	140	-7584	4396	14452	144	16	-118	-15880	1088	-3244	262	-48	88	-2280	-2416	16700	249	-28	-66	126	127	5
-8368	-3456	13160	-91	136	-141	-15852	1524	-5004	143	-17	226	-2480	-5312	15772	-86	-141	140	-7636	4420	14336	137	7	-133	-15924	1260	-3192	383	-63	-2	-2216	-2392	16768	91	-35	-61	126	127	5
-8348	-3440	13140	-74	117	-123	-15884	1572	-5132	94	-31	231	-2480	-5188	15796	-34	-138	120	-7536	4440	14380	148	-6	-156	-15944	1388	-3140	307	-99	-38	-2260	-2364	16928	173	-10	-27	126	127	5
-8384	-3448	13216	-40	125	-140	-15808	1592	-5020	34	-27	273	-2492	-5100	15860	130	-109	118	-7632	4476	14480	88	23	-126	-15932	1368	-3184	156	-94	-50	-2208	-2432	16860	204	12	6	126	127	5
-8356	-3468	13308	-55	123	-171	-15752	1716	-5084	63	-32	213	-2588	-4952	15776	137	-147	114	-7632	4380	14356	112	-11	-139	-15912	1356	-3248	-8	-74	-86	-2220	-2524	16888	143	29	45	126	127	5
-8316	-3424	13180	-112	137	-165	-15792	1708	-5124	64	-43	186	-2512	-4836	15696	151	-267	141	-7572	4380	14464	115	-28	-147	-15748	1204	-3248	-6	-116	-135	-2256	-2672	16804	108	60	143	125	128	5
-8396	-3396	13196	-91	116	-171	-15596	1888	-5088	219	-83	159	-2464	-4668	15760	166	-420	105	-7648	4380	14368	78	-47	-121	-15840	1044	-3200	108	-127	-112	-2272	-2700	16768	72	87	189	126	128	5
-8336	-3444	13228	-184	106	-169	-15584	1876	-5304	-92	-166	61	-2616	-5032	16332	650	-502	44	-7604	4488	14540	151	-10	-113	-16164	860	-3008	376	-67	-57	-2104	-2972	16684	-26	20	95	125	128	5
-8400	-3352	13204	-199	62	-225	-15712	1876	-5196	-254	-162	21	-2472	-5132	15868	600	-97	194	-7544	4476	14444	139	30	-176	-16116	1148	-2956	132	-36	52	-2076	-2944	16784	164	-125	44	125	127	5
-8276	-3492	13200	-242	116	-257	-15960	1888	-5148	-40	-169	-95	-2332	-4984	16140	830	-243	464	-7584	4496	14432	153	56	-158	-16008	1196	-3144	-294	-39	130	-1960	-2856	17100	1134	213	41	125	127	5
