#Activity	standing 
#ActivityID	8 
#Date 10-07-17-30
acc_rf_x	acc_rf_y	acc_rf_z	gyro_rf_x	gyro_rf_y	gyro_rf_z	acc_rs_x	acc_rs_y	acc_rs_z	gyro_rs_x	gyro_rs_y	gyro_rs_z	acc_rt_x	acc_rt_y	acc_rt_z	gyro_rt_x	gyro_rt_y	gyro_rt_z	acc_lf_x	acc_lf_y	acc_lf_z	gyro_lf_x	gyro_lf_y	gyro_lf_z	acc_ls_x	acc_ls_y	acc_ls_z	gyro_ls_x	gyro_ls_y	gyro_ls_z	acc_lt_x	acc_lt_y	acc_lt_z	gyro_lt_x	gyro_lt_y	gyro_lt_z	EMG_r	EMG_l	act
-11116	-2660	11144	-171	173	-247	-16268	1400	-2924	-410	-451	43	-15752	1252	-3788	-461	-530	-87	-10788	2640	12752	134	-101	-114	-15592	-1232	-3892	-197	-546	70	-16080	2612	-1624	-326	-88	-63	124	115	8
-11096	-2716	11188	-179	144	-272	-16224	1412	-2880	-429	-410	28	-15816	1012	-3752	-510	-555	-92	-10728	2668	12708	119	-20	-133	-15604	-1244	-4008	-140	-526	98	-16104	2692	-1532	-349	-153	-93	124	115	8
-11160	-2636	11220	-148	95	-262	-16360	1356	-2892	-409	-323	42	-15792	1044	-3708	-457	-489	-53	-10724	2644	12672	60	-152	-138	-15676	-1176	-3752	-218	-413	0	-16056	2572	-1504	-389	-178	-47	124	115	8
-11120	-2676	11280	-184	111	-261	-16396	1416	-2888	-370	-311	32	-15848	1088	-3668	-433	-534	-40	-10680	2712	12704	93	-166	-137	-15724	-1264	-3900	-248	-349	-30	-16148	2452	-1620	-243	-206	-51	125	115	8
-11144	-2648	11128	-152	97	-289	-16400	1468	-2768	-438	-221	110	-15864	1264	-3648	-392	-520	-10	-10712	2744	12752	79	-91	-158	-15708	-1332	-3912	-207	-266	-57	-16100	2396	-1692	-128	-258	-88	124	115	8
-11180	-2756	11216	-197	94	-300	-16364	1536	-2892	-567	-223	85	-15788	1216	-3724	-396	-531	30	-10684	2604	12712	58	-136	-150	-15700	-1432	-3900	-215	-268	-60	-16132	2420	-1840	70	-250	-65	124	114	8
-11108	-2716	11212	-193	178	-288	-16492	1448	-2808	-527	-174	63	-15872	1200	-3728	-393	-443	24	-10676	2616	12776	51	-133	-153	-15740	-1408	-3856	-144	-225	-85	-16120	2516	-1672	201	-252	-25	124	115	8
-11052	-2708	11208	-217	250	-289	-16408	1580	-2772	-606	-193	51	-15888	1216	-3916	-338	-401	59	-10688	2624	12808	105	-118	-142	-15732	-1396	-4068	-81	-207	-79	-16104	2528	-1804	96	-245	-26	124	115	8
-11128	-2732	11248	-213	256	-239	-16424	1308	-2940	-329	-246	-13	-15764	1192	-3836	-194	-327	52	-10668	2712	12660	107	-76	-165	-15776	-1456	-3900	-38	-178	-42	-16080	2552	-1896	50	-194	16	125	115	8
-11096	-2780	11260	-206	223	-170	-16396	1444	-2908	-32	-221	39	-15816	1020	-3728	-130	-365	26	-10628	2684	12700	98	-33	-191	-15704	-1436	-3984	-36	-167	-42	-16128	2548	-1952	58	-157	-52	125	115	8
-11040	-2808	11248	-176	217	-160	-16396	1516	-2912	-141	-241	62	-15860	1100	-3956	-102	-354	46	-10712	2660	12776	109	-79	-182	-15696	-1500	-3928	-135	-214	-103	-16116	2460	-1984	110	-112	-78	125	115	8
-11176	-2704	11188	-135	241	-186	-16388	1352	-2876	-286	-241	51	-15728	1096	-3900	-15	-310	136	-10688	2660	12852	95	18	-139	-15696	-1536	-4004	-1	-280	-69	-16032	2396	-1976	149	-147	-93	125	115	8
-11140	-2704	11196	-144	193	-190	-16328	1460	-2836	-135	-327	41	-15664	1112	-3812	-29	-303	103	-10696	2612	12724	121	1	-168	-15712	-1424	-4056	29	-226	-39	-16096	2324	-1908	256	-119	-80	125	115	8
-11164	-2768	11120	-126	170	-185	-16356	1468	-2888	-55	-304	37	-15692	1228	-3740	-24	-359	91	-10672	2648	12704	117	-15	-140	-15740	-1412	-3776	122	-254	-20	-16060	2504	-1848	199	-135	-6	125	115	8
-11076	-2672	11176	-170	181	-181	-16464	1476	-2800	84	-312	63	-15732	1280	-3564	-37	-335	47	-10660	2672	12724	107	-9	-140	-15640	-1344	-3888	82	-195	-53	-16052	2584	-1828	123	-123	-54	125	115	8
-11140	-2740	11096	-150	157	-207	-16368	1492	-2880	-28	-302	33	-15780	1196	-3736	-44	-301	40	-10748	2664	12704	102	28	-156	-15732	-1280	-3792	-40	-272	-58	-16092	2696	-1752	100	-125	-62	125	114	8
-11144	-2784	11116	-131	167	-182	-16356	1384	-2884	-21	-356	38	-15792	1152	-3776	-121	-283	67	-10668	2644	12788	109	-7	-148	-15680	-1328	-3856	-60	-242	-96	-16072	2624	-1724	46	-137	-91	125	115	8
-11196	-2692	11144	-148	186	-149	-16384	1488	-2852	-92	-346	24	-15828	1180	-3880	-151	-260	74	-10660	2676	12724	96	2	-184	-15768	-1344	-3796	-80	-205	-98	-16112	2448	-1700	-24	-127	-79	124	115	8
-11108	-2780	11040	-142	176	-214	-16408	1368	-2800	-107	-345	43	-15768	1128	-3712	-103	-298	52	-10700	2648	12688	63	-30	-191	-15684	-1360	-3968	-69	-189	-88	-16044	2336	-1728	26	-175	-62	125	115	8
-11184	-2680	11152	-174	154	-213	-16380	1416	-2716	-77	-317	58	-15756	1068	-3672	-84	-350	57	-10704	2628	12680	74	-70	-137	-15768	-1380	-3876	-35	-139	-69	-16092	2404	-1780	137	-200	-48	125	115	8
-11108	-2720	11028	-143	174	-186	-16400	1416	-2816	-12	-314	30	-15820	1180	-3808	-110	-387	40	-10716	2604	12756	54	-97	-154	-15660	-1292	-3896	-39	-153	-114	-16080	2572	-1868	135	-214	-27	125	115	8
-11160	-2760	11108	-148	162	-171	-16388	1384	-2660	-72	-286	51	-15784	1152	-3608	-60	-400	17	-10640	2644	12548	76	-113	-183	-15756	-1364	-3776	-136	-169	-145	-16044	2640	-1772	52	-214	-85	125	115	8
-11104	-2760	11052	-117	118	-209	-16444	1328	-2580	-67	-255	97	-15804	1096	-3668	-96	-366	33	-10680	2640	12784	54	-117	-162	-15744	-1396	-3888	-114	-197	-106	-16076	2448	-1900	-65	-160	-55	125	115	8
-11148	-2776	11236	-159	139	-160	-16432	1424	-2744	-79	-290	35	-15788	1080	-3680	-125	-380	-3	-10660	2680	12688	65	-139	-147	-15736	-1544	-3956	-179	-224	-148	-16080	2420	-2020	-53	-165	-66	125	115	8
-11100	-2744	11196	-171	133	-208	-16404	1496	-2808	-144	-259	55	-15764	1112	-3704	-143	-385	13	-10660	2636	12752	84	-92	-153	-15696	-1512	-3888	-144	-264	-71	-16120	2336	-2016	-125	-182	-53	125	115	8
-11140	-2768	11176	-117	103	-224	-16376	1328	-2720	-132	-262	75	-15828	1028	-3636	-130	-417	-3	-10688	2644	12720	92	-116	-161	-15712	-1520	-3940	-142	-303	-63	-16060	2428	-1844	-37	-220	-40	124	114	8
-11176	-2744	11140	-141	96	-229	-16360	1336	-2608	-48	-205	84	-15832	1044	-3600	-91	-424	5	-10660	2636	12812	65	-113	-132	-15748	-1468	-3944	-118	-324	-9	-16060	2444	-1852	-55	-196	-46	124	114	8
-11148	-2732	11248	-107	58	-242	-16464	1416	-2656	-73	-223	73	-15840	1008	-3620	-52	-407	7	-10636	2596	12772	88	-147	-150	-15772	-1432	-3780	-153	-309	-42	-16096	2476	-1808	-72	-194	-18	124	115	8
-11136	-2792	11164	-98	87	-228	-16368	1408	-2708	-35	-188	87	-15812	984	-3612	-25	-403	23	-10612	2652	12728	69	-125	-129	-15640	-1364	-3800	-101	-329	-64	-16140	2484	-1740	-31	-193	-14	125	115	8
-11128	-2772	11176	-118	65	-202	-16400	1340	-2664	-18	-191	106	-15820	1144	-3652	-22	-431	58	-10584	2712	12740	91	-186	-181	-15816	-1332	-3768	-126	-341	-19	-16088	2424	-1780	-21	-212	-27	125	115	8
-11104	-2820	11080	-89	37	-204	-16376	1376	-2676	-4	-194	109	-15752	1060	-3636	-47	-423	32	-10628	2612	12736	65	-122	-168	-15660	-1376	-3860	-180	-394	-7	-15936	2304	-1784	24	-175	-61	125	115	8
-11128	-2768	11176	-115	24	-245	-16428	1392	-2644	18	-184	122	-15772	1132	-3492	-47	-417	-5	-10576	2668	12712	59	-142	-134	-15684	-1408	-3856	-198	-394	-28	-16020	2344	-1736	117	-155	-62	124	115	8
-11108	-2780	11188	-106	61	-236	-16404	1448	-2500	-79	-227	60	-15824	1188	-3504	-67	-415	-11	-10652	2604	12844	90	-160	-130	-15648	-1436	-3840	-93	-447	55	-16120	2348	-1932	136	-235	-44	125	115	8
-11136	-2796	11268	-122	27	-218	-16496	1300	-2612	45	-148	75	-15864	1128	-3496	-104	-419	-72	-10684	2608	12776	107	-156	-107	-15704	-1348	-3728	-36	-422	25	-16224	2388	-1612	319	-251	-66	124	115	8
-11052	-2616	11164	-89	68	-238	-16376	1420	-2708	7	-166	121	-15880	1196	-3568	-56	-399	-40	-10600	2672	12860	83	-165	-143	-15784	-1280	-3536	-88	-366	54	-16280	2488	-1252	420	-337	-18	125	115	8
-11052	-2772	11152	-74	107	-214	-16492	1508	-2660	-41	-207	36	-15812	968	-3572	-195	-353	-36	-10608	2596	12824	95	-128	-155	-15864	-1264	-3580	-163	-321	-36	-16284	2524	-1404	262	-330	-13	125	115	8
-11096	-2748	11232	-103	96	-232	-16456	1456	-2664	-204	-206	101	-15852	1060	-3472	-125	-366	55	-10640	2640	12908	104	-76	-198	-15780	-1444	-3660	16	-233	-24	-16192	2504	-1440	146	-294	20	125	115	8
-11176	-2708	11240	-150	125	-242	-16508	1404	-2632	-66	-249	46	-15840	1060	-3460	-58	-332	92	-10596	2584	12804	104	-145	-144	-15772	-1376	-3608	-37	-243	-46	-16088	2440	-1672	15	-217	15	124	115	8
-11152	-2788	11160	-136	149	-205	-16416	1332	-2408	-14	-289	108	-15908	956	-3392	45	-325	130	-10604	2668	12864	104	-85	-167	-15756	-1436	-3684	-97	-245	-58	-16064	2332	-1700	63	-157	-16	124	114	8
-11112	-2776	11156	-161	92	-225	-16448	1336	-2480	19	-232	92	-15920	976	-3332	103	-332	62	-10592	2656	12824	89	-75	-150	-15844	-1456	-3632	-25	-245	-75	-16120	2376	-1484	193	-190	-44	124	115	8
-11076	-2792	11084	-137	150	-221	-16456	1328	-2500	-31	-224	99	-15912	964	-3332	33	-309	105	-10584	2576	12776	124	-56	-133	-15748	-1324	-3732	27	-258	-29	-16120	2324	-1628	263	-185	-35	125	115	8
-11128	-2788	11192	-131	131	-204	-16396	1328	-2536	46	-132	78	-15856	1004	-3360	32	-288	85	-10656	2632	12724	106	-95	-145	-15820	-1292	-3564	5	-208	-38	-16180	2396	-1504	334	-206	-11	124	115	8
-11132	-2780	11152	-82	116	-180	-16404	1348	-2508	55	-152	88	-15920	1096	-3464	17	-260	102	-10644	2656	12836	107	-79	-142	-15804	-1352	-3656	55	-249	-43	-16136	2456	-1540	280	-206	-4	124	115	8
-11132	-2764	11200	-146	122	-199	-16440	1356	-2552	35	-165	111	-15860	1076	-3428	-6	-279	111	-10588	2608	12772	110	-51	-158	-15756	-1344	-3596	12	-222	-34	-16108	2420	-1644	263	-169	-35	124	115	8
-11080	-2740	11080	-137	129	-221	-16444	1340	-2616	30	-146	99	-15860	996	-3524	-31	-294	98	-10616	2664	12736	138	-40	-169	-15772	-1360	-3708	93	-236	-8	-16104	2432	-1712	214	-101	-34	124	115	8
-11136	-2748	11148	-139	127	-196	-16400	1392	-2436	72	-126	94	-15900	964	-3400	15	-278	146	-10608	2652	12852	113	-38	-159	-15848	-1388	-3612	69	-251	-21	-16112	2376	-1584	187	-92	-13	124	115	8
-11056	-2760	11268	-117	120	-198	-16444	1348	-2420	20	-110	80	-15944	976	-3492	25	-248	126	-10608	2704	12924	112	-24	-155	-15808	-1384	-3548	4	-269	-30	-16228	2376	-1564	218	-135	-27	124	115	8
-11076	-2780	11148	-114	95	-193	-16368	1396	-2504	29	-114	96	-15864	1020	-3444	102	-262	104	-10580	2636	12824	122	-68	-176	-15788	-1392	-3772	93	-253	-52	-16040	2368	-1684	260	-201	-23	124	115	8
-11096	-2756	11124	-124	109	-214	-16476	1444	-2548	57	-69	78	-15816	1012	-3408	123	-254	95	-10612	2640	12896	130	-18	-137	-15740	-1368	-3576	148	-261	-41	-16040	2360	-1592	402	-148	-14	124	115	8
-11140	-2836	11164	-110	90	-212	-16416	1352	-2524	109	-97	100	-15992	1012	-3352	96	-292	118	-10588	2648	12736	101	-35	-165	-15744	-1436	-3612	282	-179	-110	-16096	2432	-1584	457	-130	-5	124	115	8
-11104	-2728	11188	-86	98	-189	-16336	1388	-2436	117	-82	112	-15884	1084	-3292	58	-297	63	-10484	2612	12868	122	-88	-157	-15844	-1312	-3496	113	-259	112	-16108	2448	-1532	364	-186	-18	124	115	8
-11140	-2744	11272	-92	123	-206	-16472	1340	-2416	146	-34	111	-15876	1112	-3320	21	-312	69	-10592	2620	12796	81	-60	-141	-15740	-1348	-3504	-13	-308	-40	-16204	2484	-1496	284	-124	-88	124	115	8
-11072	-2740	11336	-53	55	-218	-16504	1240	-2272	20	-22	127	-15900	1000	-3300	15	-310	30	-10560	2588	12824	123	-49	-150	-15764	-1340	-3540	-2	-234	-54	-16156	2476	-1276	196	-110	-58	124	115	8
-11124	-2748	11176	-74	51	-149	-16420	1380	-2624	113	-6	125	-15888	996	-3316	-79	-315	-9	-10608	2624	12740	89	-108	-146	-15744	-1364	-3488	64	-189	-73	-16232	2400	-1368	192	-126	-26	124	115	8
-11072	-2880	11168	-87	87	-168	-16432	1432	-2656	38	8	112	-15884	1016	-3328	-1	-247	40	-10584	2608	12848	82	-70	-121	-15780	-1304	-3400	65	-174	-88	-16160	2452	-1280	234	-112	-41	124	115	8
-11124	-2792	11032	-85	97	-201	-16488	1384	-2588	110	-13	107	-15868	988	-3428	-48	-270	34	-10544	2596	12872	98	-88	-183	-15860	-1244	-3532	-14	-136	-123	-16284	2396	-1400	249	-116	-54	124	114	8
-11144	-2728	11248	-69	119	-198	-16412	1404	-2540	111	-8	111	-15868	1016	-3372	59	-256	108	-10592	2624	12888	89	-85	-147	-15772	-1296	-3576	13	-128	-120	-16092	2464	-1524	261	-118	-69	124	114	8
-11088	-2792	11216	-117	100	-184	-16396	1408	-2520	88	-27	109	-15872	992	-3392	68	-300	53	-10556	2680	12748	96	-41	-186	-15816	-1276	-3640	-19	-103	-134	-16188	2352	-1504	288	-143	-70	124	114	8
-11112	-2752	11096	-89	79	-161	-16408	1384	-2520	62	-36	66	-15836	1056	-3420	74	-241	63	-10596	2616	12776	104	-141	-159	-15804	-1384	-3476	56	-83	-160	-16148	2384	-1616	272	-164	-87	125	115	8
-11064	-2828	11180	-115	65	-183	-16420	1340	-2596	61	-33	41	-15948	1088	-3384	36	-320	32	-10540	2584	12908	87	-72	-191	-15788	-1360	-3584	23	-117	-181	-16172	2308	-1456	253	-118	-55	125	115	8
-11032	-2744	11216	-105	83	-221	-16468	1368	-2512	22	22	72	-15868	1088	-3444	19	-309	41	-10576	2664	12800	84	-60	-179	-15844	-1352	-3500	-25	-121	-125	-16148	2348	-1580	259	-141	-79	125	115	8
-11056	-2776	11148	-113	104	-191	-16448	1336	-2616	-5	22	72	-15888	968	-3356	3	-275	20	-10560	2628	12740	76	-44	-110	-15800	-1312	-3476	24	-114	-170	-16232	2404	-1424	224	-142	-24	125	115	8
-11104	-2704	11188	-104	101	-192	-16428	1320	-2620	59	2	39	-15964	1024	-3376	15	-237	-12	-10560	2632	12788	63	-50	-147	-15784	-1340	-3516	50	-107	-147	-16172	2396	-1560	222	-141	-68	125	115	8
-11056	-2776	11148	-153	108	-182	-16512	1364	-2536	81	-28	58	-15920	968	-3328	28	-267	42	-10612	2616	12808	48	-76	-166	-15776	-1340	-3424	-20	-115	-137	-16232	2328	-1528	251	-170	-94	125	115	8
-11076	-2776	11108	-84	116	-213	-16376	1432	-2524	111	-1	44	-15904	932	-3380	57	-311	53	-10584	2576	12724	93	-106	-214	-15808	-1404	-3468	10	-118	-182	-16116	2272	-1472	275	-195	-74	125	115	8
-11076	-2728	11252	-128	98	-205	-16488	1284	-2604	136	-11	33	-15880	956	-3416	147	-218	43	-10672	2620	12792	94	-79	-171	-15756	-1348	-3640	90	-87	-136	-16140	2292	-1440	288	-201	-72	125	115	8
-11064	-2788	11184	-145	123	-192	-16396	1324	-2536	136	-50	38	-15884	1004	-3300	116	-262	53	-10560	2632	12892	107	-74	-158	-15796	-1336	-3536	34	-71	-167	-16196	2356	-1328	350	-190	-97	125	115	8
-11092	-2804	11096	-126	121	-202	-16428	1404	-2440	76	-86	36	-15956	1044	-3340	113	-230	62	-10528	2632	12808	73	-89	-215	-15736	-1360	-3452	38	-100	-170	-16240	2324	-1332	327	-202	-55	125	115	8
-11052	-2808	11208	-121	104	-176	-16476	1360	-2536	131	-50	30	-15896	992	-3384	145	-232	85	-10552	2608	12812	75	-79	-130	-15708	-1352	-3452	23	-18	-212	-16136	2304	-1324	373	-234	-67	125	115	8
-11068	-2792	11180	-120	106	-194	-16456	1352	-2516	78	-65	39	-15884	924	-3408	164	-218	76	-10552	2632	12816	70	-132	-149	-15800	-1436	-3420	5	-9	-225	-16220	2264	-1368	428	-273	-69	125	115	8
-11056	-2776	11144	-62	99	-192	-16424	1288	-2552	122	-128	26	-15844	948	-3448	132	-249	64	-10524	2624	12724	49	-98	-203	-15836	-1352	-3508	-16	1	-235	-16216	2256	-1420	456	-284	-20	125	115	8
-11116	-2808	11256	-113	110	-195	-16476	1340	-2608	125	-127	45	-15936	960	-3412	70	-262	92	-10588	2636	12760	53	-83	-164	-15804	-1568	-3580	-6	-34	-199	-16184	2176	-1696	501	-298	-49	125	115	8
-11120	-2788	11224	-140	132	-197	-16420	1288	-2584	72	-133	60	-15796	896	-3416	86	-262	87	-10528	2592	12856	84	-47	-207	-15788	-1544	-3716	97	-90	-151	-16116	2260	-1764	586	-252	-18	125	115	8
-11100	-2728	11132	-134	132	-224	-16428	1392	-2612	65	-239	21	-15840	976	-3392	121	-252	111	-10552	2584	12824	53	-48	-141	-15720	-1492	-3716	104	-180	-90	-16008	2232	-1692	529	-230	6	125	115	8
-11076	-2776	11232	-147	134	-236	-16460	1436	-2540	24	-245	28	-15848	1068	-3264	95	-199	100	-10596	2544	12840	75	-10	-155	-15804	-1560	-3648	148	-259	-59	-16188	2292	-1488	375	-202	-17	125	115	8
-11096	-2788	11164	-162	127	-209	-16444	1392	-2464	-1	-251	1	-15896	980	-3172	208	-187	111	-10492	2560	12768	107	-37	-144	-15740	-1428	-3472	127	-260	-9	-16112	2408	-1356	197	-153	-60	125	115	8
-11156	-2804	11136	-167	120	-254	-16428	1252	-2364	72	-169	-40	-15944	852	-3048	268	-148	81	-10516	2592	12896	136	-41	-154	-15764	-1396	-3392	68	-239	-71	-16164	2356	-1164	112	-84	-68	125	115	8
-11072	-2828	11156	-123	133	-243	-16476	1208	-2340	130	-103	48	-16040	640	-2968	279	-134	62	-10520	2616	12832	102	-65	-155	-15828	-1320	-3368	-11	-183	-123	-16192	2344	-1032	18	-51	-113	124	115	8
-11080	-2848	11308	-136	129	-191	-16468	1128	-2308	107	-64	27	-16040	664	-2928	261	-175	95	-10576	2596	12832	122	-77	-167	-15868	-1356	-3324	-20	-134	-150	-16260	2320	-1140	22	-45	-80	125	115	8
-11080	-2760	11236	-103	100	-180	-16492	1176	-2248	174	-18	66	-15976	780	-3128	116	-227	73	-10488	2588	12836	99	-107	-166	-15792	-1456	-3300	-22	-62	-177	-16256	2104	-1308	170	-67	-87	125	115	8
-11092	-2872	11176	-88	90	-169	-16424	1224	-2520	160	12	80	-15900	928	-3360	33	-243	120	-10532	2616	12872	114	-43	-172	-15812	-1504	-3532	10	-60	-161	-16180	2036	-1588	432	-118	-60	125	115	8
-11080	-2792	11248	-66	88	-133	-16500	1276	-2572	105	14	67	-15776	1008	-3456	-84	-254	55	-10504	2568	12960	75	-46	-177	-15752	-1500	-3632	86	-68	-145	-16132	2080	-1524	534	-197	-27	125	115	8
-11052	-2840	11200	-115	101	-187	-16484	1396	-2632	99	-6	91	-15860	1056	-3612	-106	-251	45	-10588	2664	12796	112	-65	-184	-15788	-1508	-3624	26	-93	-155	-16108	2208	-1592	601	-252	16	125	115	8
-11068	-2744	11208	-85	124	-193	-16416	1304	-2652	1	-107	54	-15800	952	-3560	-58	-230	106	-10500	2636	12888	131	-65	-162	-15792	-1516	-3640	154	-136	-95	-16100	2328	-1476	448	-226	26	125	115	8
-11072	-2796	11168	-119	103	-195	-16484	1268	-2600	60	-170	41	-15832	876	-3392	82	-211	106	-10600	2640	12928	47	-38	-147	-15780	-1440	-3536	87	-198	-59	-16132	2264	-1500	280	-140	12	125	115	8
-11064	-2720	11196	-141	141	-188	-16448	1300	-2572	47	-176	48	-15944	716	-3316	224	-219	102	-10496	2628	12808	106	-40	-183	-15756	-1512	-3432	29	-223	-28	-16148	2260	-1384	71	-120	-5	125	115	8
-11064	-2860	11220	-90	122	-175	-16404	1224	-2448	66	-144	71	-16044	784	-3128	332	-181	143	-10560	2620	12812	121	-37	-146	-15784	-1432	-3460	-19	-216	-70	-16176	2228	-1224	-33	-156	-7	125	115	8
-11056	-2828	11208	-117	125	-178	-16428	1240	-2292	157	-145	137	-15984	820	-3076	455	-209	151	-10572	2568	12892	120	-62	-169	-15828	-1408	-3352	-76	-171	-57	-16204	2196	-1252	-107	-111	40	125	115	8
-11016	-2808	11160	-68	61	-206	-16440	1228	-2288	231	-97	135	-15940	852	-3132	360	-224	160	-10500	2604	12848	100	-27	-147	-15804	-1416	-3448	-78	-173	-98	-16252	2244	-1352	78	-135	40	125	115	8
-11132	-2820	11288	-73	81	-153	-16460	1156	-2312	240	-83	127	-15936	960	-3200	251	-225	154	-10488	2568	12896	117	-54	-153	-15792	-1436	-3316	-63	-119	-104	-16196	2128	-1320	176	-171	-5	125	115	8
-11096	-2820	11260	-82	44	-164	-16440	1236	-2360	160	-37	126	-15896	920	-3272	93	-204	121	-10500	2588	12896	74	-56	-142	-15776	-1428	-3376	31	-112	-132	-16196	2096	-1216	327	-245	22	125	115	8
-11064	-2868	11232	-131	61	-193	-16448	1304	-2372	131	-53	129	-15876	876	-3232	-6	-253	153	-10548	2508	12900	75	-61	-185	-15808	-1372	-3420	-13	-89	-122	-16200	2152	-1244	487	-298	43	125	115	8
-11100	-2864	11204	-102	75	-153	-16420	1268	-2444	137	-75	121	-15892	892	-3280	-17	-267	169	-10588	2620	12884	82	-26	-189	-15748	-1460	-3492	95	-57	-113	-16136	2236	-1408	440	-278	24	125	115	8
-11036	-2772	11252	-115	91	-173	-16412	1272	-2376	188	-55	120	-15924	832	-3268	81	-244	182	-10500	2584	12816	108	-35	-148	-15752	-1420	-3400	19	-62	-62	-16196	2320	-1332	379	-220	66	125	115	8
-11068	-2844	11184	-77	118	-203	-16480	1268	-2412	145	-34	102	-15856	856	-3180	189	-244	135	-10552	2648	12844	82	-43	-194	-15776	-1484	-3464	-71	-133	-91	-16176	2292	-1444	285	-233	53	125	115	8
-11064	-2768	11236	-81	91	-167	-16468	1204	-2328	196	-73	153	-15932	844	-3136	218	-271	132	-10508	2612	12980	89	-57	-158	-15840	-1508	-3520	-51	-117	-81	-16240	2248	-1512	237	-197	27	125	115	8
-11024	-2792	11188	-100	81	-149	-16440	1244	-2432	200	-39	135	-15900	812	-3184	359	-260	118	-10552	2588	12784	70	-42	-178	-15776	-1476	-3456	-26	-125	-39	-16208	2240	-1428	150	-217	49	125	115	8
-11060	-2812	11244	-84	72	-154	-16460	1248	-2568	194	-32	165	-15948	872	-3204	316	-255	143	-10516	2552	12892	132	-36	-192	-15784	-1496	-3372	-117	-141	-98	-16240	2304	-1312	118	-245	56	125	115	8
-11144	-2796	11152	-97	35	-174	-16432	1232	-2572	278	-59	162	-15980	820	-3192	291	-298	121	-10552	2556	12916	85	-79	-151	-15804	-1424	-3464	-125	-143	-116	-16240	2260	-1396	163	-283	60	125	115	8
-11032	-2784	11228	-81	75	-167	-16456	1304	-2424	288	-77	144	-15916	884	-3276	204	-294	194	-10564	2580	12928	103	-115	-148	-15832	-1568	-3496	-158	-179	-87	-16236	2212	-1332	135	-275	58	125	115	8
-11028	-2788	11260	-72	83	-137	-16424	1232	-2452	256	-73	139	-15980	944	-3192	173	-289	183	-10540	2600	12920	86	-91	-138	-15816	-1568	-3612	-111	-192	-71	-16140	2104	-1424	306	-331	48	124	115	8
-11052	-2832	11312	-83	89	-153	-16496	1216	-2436	244	-74	125	-15908	912	-3276	113	-261	203	-10548	2572	12940	103	-62	-151	-15816	-1556	-3576	-2	-201	-58	-16148	2224	-1264	387	-352	77	124	114	8
-11028	-2720	11264	-130	87	-195	-16444	1360	-2488	150	-86	138	-15840	888	-3280	148	-262	191	-10544	2564	12868	93	-66	-156	-15756	-1516	-3376	37	-164	10	-16136	2148	-1312	385	-301	111	124	115	8
-11100	-2760	11296	-109	74	-143	-16404	1220	-2432	104	-120	114	-15944	924	-3124	210	-258	148	-10536	2628	12852	148	-62	-136	-15848	-1468	-3468	10	-186	9	-16124	2216	-1248	397	-340	105	125	115	8
-11008	-2748	11200	-81	106	-184	-16516	1240	-2416	125	-115	115	-15892	948	-3152	240	-238	182	-10572	2644	12884	128	-82	-138	-15808	-1396	-3396	-17	-246	-75	-16180	2168	-1236	408	-356	124	125	114	8
-11000	-2820	11216	-94	103	-157	-16480	1224	-2324	174	-118	156	-15968	820	-3068	300	-266	187	-10568	2668	12972	142	-100	-123	-15812	-1496	-3304	-39	-218	-39	-16164	2284	-1104	291	-339	115	125	115	8
-11060	-2776	11220	-86	81	-210	-16436	1240	-2320	180	-117	126	-15960	804	-3136	322	-258	180	-10488	2556	12900	92	-69	-141	-15808	-1428	-3328	-87	-182	-94	-16252	2308	-1152	288	-281	91	125	115	8
-10984	-2788	11188	-73	107	-204	-16428	1244	-2344	191	-139	110	-15988	880	-3104	293	-254	191	-10500	2668	12988	96	-62	-148	-15760	-1432	-3448	-93	-245	-34	-16220	2244	-1096	379	-373	87	125	115	8
-11064	-2820	11196	-90	100	-166	-16428	1208	-2448	190	-128	128	-15984	880	-3084	240	-264	189	-10468	2648	12844	103	-78	-120	-15852	-1432	-3292	-30	-237	-29	-16224	2240	-1192	498	-425	117	125	115	8
-11016	-2852	11256	-109	153	-175	-16444	1220	-2332	110	-77	139	-15884	880	-3008	185	-233	234	-10528	2620	12868	93	-36	-152	-15840	-1428	-3348	2	-229	-25	-16188	2160	-1248	674	-308	98	125	115	8
-11012	-2820	11228	-112	97	-169	-16480	1136	-2364	65	-86	147	-15964	872	-3136	112	-211	163	-10552	2588	12956	118	-79	-127	-15836	-1480	-3440	50	-263	-33	-16184	2160	-1080	733	-350	98	125	115	8
-11048	-2816	11292	-92	97	-204	-16480	1200	-2360	92	-75	142	-15912	840	-3040	150	-222	186	-10504	2620	12904	131	-103	-131	-15848	-1504	-3424	33	-258	27	-16172	2088	-1140	718	-386	103	125	115	8
-10972	-2888	11236	-78	99	-166	-16504	1208	-2328	100	-88	115	-15952	772	-3068	209	-141	207	-10500	2572	12888	115	-34	-153	-15860	-1476	-3408	172	-251	26	-16204	2188	-1228	725	-346	110	125	115	8
-10992	-2832	11296	-95	102	-178	-16408	1220	-2436	116	-95	150	-15932	880	-3056	151	-234	216	-10508	2584	12884	107	-41	-183	-15980	-1292	-3424	93	-189	9	-16196	2144	-892	642	-302	115	125	115	8
-11048	-2784	11172	-93	97	-145	-16464	1196	-2288	104	-93	176	-15936	776	-3092	220	-210	219	-10552	2540	12824	166	-40	-143	-15836	-1300	-3328	131	-234	81	-16216	2184	-972	533	-244	134	125	115	8
-11060	-2820	11168	-100	86	-166	-16420	1208	-2368	115	-109	144	-15948	836	-3052	248	-185	209	-10452	2636	12880	124	-41	-153	-15760	-1408	-3224	91	-278	43	-16236	2208	-892	414	-244	87	125	115	8
-11012	-2824	11292	-87	91	-202	-16448	1284	-2352	107	-65	144	-15952	916	-3124	186	-180	240	-10528	2656	12824	143	-22	-125	-15860	-1480	-3324	125	-218	0	-16320	2288	-844	321	-200	134	125	115	8
-11016	-2772	11208	-106	122	-177	-16476	1240	-2476	92	-89	187	-15952	880	-3052	118	-202	234	-10524	2584	12876	134	-28	-135	-15788	-1348	-3208	142	-225	14	-16268	2252	-1040	276	-180	119	125	115	8
-11032	-2852	11208	-93	87	-181	-16420	1248	-2308	114	-81	121	-15880	892	-3124	130	-191	196	-10492	2640	12912	101	-36	-140	-15828	-1320	-3280	126	-174	-13	-16156	2264	-768	299	-207	91	125	115	8
-11020	-2780	11288	-72	99	-158	-16456	1276	-2376	100	-77	128	-15908	816	-3092	101	-167	205	-10496	2628	12796	112	-14	-131	-15836	-1304	-3268	32	-171	-20	-16248	2160	-928	327	-188	115	125	115	8
-10980	-2820	11280	-125	85	-130	-16488	1288	-2296	32	-84	153	-15956	880	-3200	75	-172	228	-10512	2600	12936	119	-40	-188	-15828	-1356	-3172	27	-149	-36	-16252	2196	-856	327	-199	48	125	115	8
-11064	-2780	11348	-108	99	-165	-16524	1256	-2420	-49	-90	142	-15984	1000	-3172	61	-209	219	-10492	2604	12848	110	-30	-187	-15856	-1448	-3316	57	-119	-12	-16216	2368	-1072	388	-191	78	125	115	8
-11012	-2872	11188	-99	150	-131	-16500	1244	-2292	57	-56	171	-15952	908	-3060	38	-188	228	-10484	2620	12908	118	-50	-177	-15744	-1416	-3340	17	-121	-4	-16180	2312	-1072	405	-206	68	125	115	8
-10976	-2824	11340	-118	122	-160	-16440	1188	-2332	75	-80	119	-15972	852	-3136	109	-188	191	-10504	2636	12844	119	-85	-160	-15864	-1484	-3332	-9	-147	-28	-16088	2284	-996	353	-224	75	125	115	8
-10996	-2804	11216	-66	100	-182	-16424	1244	-2392	75	-89	169	-15940	864	-3080	162	-175	217	-10536	2600	12872	120	-57	-122	-15772	-1488	-3268	14	-187	-11	-16164	2272	-964	279	-152	98	125	115	8
-11040	-2816	11276	-123	108	-158	-16416	1232	-2344	90	-77	156	-15880	820	-3084	154	-205	200	-10544	2624	12988	97	-22	-120	-15840	-1416	-3336	45	-142	21	-16192	2336	-948	149	-122	98	125	115	8
-11028	-2776	11204	-97	126	-155	-16468	1296	-2520	42	-57	107	-16032	924	-3084	117	-161	227	-10400	2616	13004	107	-7	-126	-15876	-1356	-3188	-81	-153	1	-16232	2324	-920	119	-115	58	125	115	8
-11020	-2828	11140	-104	113	-142	-16544	1260	-2328	44	-74	185	-15968	936	-3108	81	-182	214	-10588	2616	12948	90	-3	-159	-15880	-1348	-3220	-114	-183	2	-16296	2348	-844	57	-87	67	125	115	8
-11020	-2836	11316	-125	132	-205	-16452	1236	-2376	71	-40	154	-15952	908	-3060	43	-146	172	-10512	2616	12924	105	-14	-156	-15868	-1396	-3196	-116	-164	25	-16212	2156	-960	40	-97	76	125	115	8
-10984	-2792	11132	-77	119	-191	-16424	1176	-2292	62	-50	143	-15932	860	-3060	97	-149	186	-10524	2648	12812	109	-44	-142	-15852	-1396	-3276	8	-182	15	-16136	2104	-888	150	-103	86	124	115	8
-11052	-2784	11200	-106	127	-198	-16432	1128	-2156	106	-59	165	-16004	872	-3072	63	-123	169	-10524	2636	12936	122	-73	-148	-15860	-1408	-3156	58	-93	-23	-16304	2288	-880	220	-89	103	125	115	8
-11064	-2760	11252	-106	115	-187	-16472	1220	-2300	73	-49	177	-15988	848	-2976	16	-142	199	-10460	2628	12860	99	-1	-157	-15800	-1364	-3216	57	-140	-21	-16172	2308	-840	246	-133	119	125	115	8
-11028	-2832	11188	-133	117	-170	-16448	1260	-2312	47	-50	167	-15968	900	-3052	118	-147	225	-10520	2616	12944	115	-62	-143	-15716	-1444	-3056	-1	-60	-53	-16192	2276	-824	355	-178	84	125	115	8
-11060	-2796	11240	-56	131	-180	-16476	1200	-2280	122	-4	143	-16044	932	-2916	194	-125	206	-10476	2628	12900	102	-5	-149	-15892	-1336	-3200	39	-46	-61	-16164	2352	-796	388	-156	70	125	115	8
-10980	-2816	11176	-130	145	-186	-16516	1216	-2244	181	-14	192	-16016	948	-2916	244	-118	229	-10580	2656	12892	101	-21	-173	-15832	-1320	-3208	19	-67	-90	-16244	2364	-800	354	-93	47	125	115	8
-11016	-2836	11272	-82	136	-185	-16420	1176	-2256	204	14	135	-15980	924	-2864	231	-78	212	-10500	2620	12868	76	-33	-196	-15848	-1356	-3176	27	2	-90	-16288	2388	-888	545	-155	19	124	115	8
-10976	-2856	11200	-113	124	-162	-16516	1208	-2292	149	20	142	-16036	912	-3032	145	-88	192	-10500	2572	12984	109	-25	-176	-15860	-1344	-3224	16	4	-98	-16196	2284	-956	590	-213	11	125	115	8
-11052	-2812	11244	-75	131	-119	-16492	1168	-2252	123	82	164	-16044	844	-3064	154	-80	181	-10476	2628	12896	97	-71	-185	-15920	-1388	-3300	-10	-27	-73	-16200	2172	-1020	538	-231	15	125	115	8
-11056	-2852	11232	-26	140	-168	-16548	1236	-2384	164	66	190	-15904	844	-3268	104	-86	170	-10488	2600	12804	129	-6	-181	-15872	-1428	-3280	-40	-13	-121	-16184	2244	-860	575	-154	17	125	115	8
-10968	-2780	11220	-93	120	-143	-16416	1252	-2416	216	17	148	-15944	952	-3108	133	-122	184	-10468	2612	12916	98	-22	-155	-15868	-1408	-3200	-129	-9	-110	-16280	2332	-1008	452	-126	60	125	115	8
-10976	-2828	11288	-77	124	-171	-16456	1388	-2596	183	30	158	-15996	936	-3232	132	-145	213	-10436	2636	12836	126	-70	-173	-15912	-1476	-3356	-82	-35	-105	-16180	2232	-948	246	-86	49	125	115	8
-10928	-2784	11236	-84	146	-133	-16372	1332	-2440	123	-18	139	-15928	900	-3220	108	-104	197	-10576	2656	12932	91	-28	-178	-15844	-1460	-3360	-102	-76	-57	-16156	2240	-956	228	-30	60	125	115	8
-11008	-2812	11316	-87	120	-142	-16528	1212	-2440	104	-32	115	-15900	928	-3292	96	-96	204	-10528	2544	12872	110	-39	-168	-15748	-1488	-3252	-21	-85	-102	-16128	2236	-980	139	51	38	125	115	8
-11020	-2856	11288	-100	154	-173	-16488	1252	-2428	72	-22	137	-15948	884	-3184	171	-103	172	-10508	2624	13016	86	-20	-145	-15840	-1356	-3296	-54	-93	-47	-16252	2192	-956	22	55	48	125	115	8
-10936	-2796	11224	-120	137	-178	-16412	1224	-2372	110	-71	98	-16012	1032	-3084	218	-111	176	-10508	2592	13028	122	10	-145	-15872	-1328	-3244	-87	-142	-54	-16204	2288	-920	58	25	36	125	115	8
-11012	-2836	11220	-115	105	-192	-16464	1300	-2352	73	-66	172	-15936	972	-3068	84	-135	182	-10552	2584	12836	128	-60	-152	-15840	-1448	-3120	33	-82	-70	-16308	2344	-912	274	-90	77	125	115	8
-11048	-2828	11236	-116	115	-178	-16436	1156	-2420	52	-59	128	-15972	896	-3096	67	-147	141	-10472	2620	12920	102	-58	-189	-15904	-1440	-3160	39	-68	-48	-16296	2312	-876	424	-197	44	125	115	8
-11024	-2796	11252	-100	105	-161	-16444	1272	-2300	77	-20	117	-15980	932	-3136	57	-130	99	-10500	2616	12944	113	-57	-169	-15916	-1384	-3288	51	-61	-64	-16300	2312	-972	567	-210	-18	125	115	8
-11036	-2792	11320	-107	164	-143	-16516	1208	-2308	39	-36	118	-15916	976	-2956	-10	-166	148	-10448	2636	12864	100	-28	-161	-15824	-1444	-3240	69	-105	-80	-16192	2356	-1024	798	-271	0	125	115	8
-11024	-2844	11316	-74	145	-163	-16480	1248	-2392	28	-65	101	-15944	940	-3136	-7	-149	153	-10472	2592	12772	115	-52	-154	-15768	-1392	-3188	86	-96	-84	-16224	2360	-1188	1129	-342	-45	125	115	8
-11088	-2832	11340	-98	137	-169	-16476	1212	-2348	59	-73	96	-15944	952	-3100	-1	-128	137	-10512	2652	12960	97	-21	-150	-15924	-1432	-3140	59	-148	-36	-16360	2308	-1064	1132	-264	-138	125	115	8
-11044	-2804	11300	-96	140	-177	-16412	1160	-2276	45	-60	101	-15908	888	-3120	42	-188	139	-10556	2644	12936	128	-21	-136	-15812	-1420	-3088	6	-115	-81	-16180	2144	-868	912	-204	-124	125	115	8
-10964	-2760	11240	-103	156	-140	-16428	1224	-2400	74	-51	81	-16000	888	-3084	91	-144	94	-10452	2536	12868	119	-68	-159	-15888	-1400	-3124	22	-137	-47	-16064	2180	-776	605	-28	-51	125	115	8
-11036	-2840	11256	-112	135	-218	-16480	1240	-2312	99	-60	90	-15972	860	-3072	157	-142	123	-10468	2616	12812	109	-50	-175	-15888	-1416	-3112	87	-140	-74	-16212	2212	-776	774	9	-84	125	115	8
-10944	-2756	11304	-145	139	-175	-16452	1280	-2316	97	-34	83	-15996	924	-2996	139	-139	167	-10424	2640	13000	114	-45	-174	-15960	-1404	-3252	63	-122	-68	-16252	2276	-812	621	-54	-68	125	115	8
-10976	-2852	11276	-95	130	-186	-16524	1208	-2408	73	-82	135	-15992	932	-2960	74	-125	124	-10496	2592	12972	110	-4	-158	-15844	-1392	-3180	51	-123	-34	-16236	2252	-724	537	-55	12	125	115	8
-10968	-2816	11192	-112	128	-180	-16472	1200	-2424	34	-33	89	-15980	892	-3144	22	-159	124	-10480	2612	12908	117	-6	-170	-15848	-1392	-3136	81	-94	-112	-16216	2092	-792	613	25	-19	125	115	8
-11020	-2824	11200	-111	163	-174	-16452	1228	-2260	-4	-38	130	-15976	852	-3272	-25	-147	96	-10524	2656	12840	90	-16	-144	-15776	-1388	-3236	110	-70	-61	-16212	2148	-860	589	38	-66	125	115	8
-11020	-2800	11248	-125	133	-162	-16548	1168	-2392	50	-69	120	-15948	820	-3076	-102	-152	129	-10520	2644	12876	115	-43	-148	-15860	-1396	-3224	78	-53	-36	-16244	2180	-960	564	53	-25	125	115	8
-10976	-2884	11240	-90	95	-184	-16436	1268	-2316	14	-80	115	-15976	852	-3236	-89	-161	125	-10524	2684	12912	126	15	-172	-15884	-1428	-3316	28	-106	-75	-16216	2188	-888	366	-5	9	125	115	8
-11012	-2776	11316	-69	128	-182	-16404	1256	-2340	2	-66	111	-15916	916	-3156	-38	-166	161	-10496	2604	12916	119	-77	-137	-15888	-1380	-3204	45	-84	-83	-16284	2292	-968	309	-71	50	125	115	8
-11024	-2812	11308	-96	150	-161	-16484	1228	-2232	8	-31	114	-15900	988	-3140	-33	-141	161	-10488	2648	12796	97	-24	-188	-15936	-1476	-3264	8	-150	-71	-16200	2232	-888	315	-126	49	125	115	8
-10948	-2792	11304	-92	118	-161	-16428	1268	-2528	11	-76	83	-15916	1068	-3032	63	-115	134	-10464	2660	12856	122	-22	-162	-15808	-1432	-3260	184	-130	-64	-16124	2232	-712	467	-82	17	125	115	8
-11072	-2784	11276	-130	111	-188	-16496	1248	-2404	27	-120	111	-15916	960	-2948	119	-99	119	-10492	2608	12908	106	19	-189	-15844	-1312	-3232	200	-110	-71	-16356	2404	-780	506	-139	-39	125	115	8
-11008	-2824	11392	-159	109	-165	-16508	1276	-2220	-30	-102	45	-16016	920	-2900	150	-91	90	-10508	2664	12820	115	-1	-180	-15908	-1380	-3104	65	-83	-86	-16292	2460	-764	525	-209	-84	125	115	8
-10936	-2848	11176	-144	161	-182	-16456	1072	-2112	55	-56	44	-15984	744	-2824	135	-103	86	-10528	2632	12868	81	-98	-154	-15876	-1352	-3196	36	-48	-127	-16124	2248	-516	557	-186	-73	125	115	8
-10996	-2892	11224	-106	153	-118	-16484	1092	-2128	143	-33	78	-16060	724	-2796	135	-117	77	-10512	2628	12900	116	-81	-181	-15788	-1400	-2992	12	57	-176	-16296	2024	-572	774	-202	-96	125	115	8
-10992	-2812	11344	-121	134	-157	-16460	1144	-2236	108	65	119	-16052	812	-2856	60	-111	126	-10456	2640	12896	56	-24	-171	-15868	-1328	-3080	-21	69	-181	-16380	2044	-628	760	-216	-128	125	115	8
-11008	-2780	11252	-99	109	-147	-16444	1188	-2368	97	76	146	-15948	860	-3204	-13	-114	158	-10476	2568	12920	87	-43	-183	-15832	-1464	-3196	21	103	-189	-16260	2136	-852	1071	-354	-91	125	115	8
-11056	-2824	11328	-92	128	-144	-16496	1224	-2432	77	56	111	-15976	952	-3180	-100	-115	138	-10420	2616	12972	71	-56	-194	-15844	-1456	-3380	77	105	-221	-16228	2124	-856	1005	-393	22	125	115	8
-11016	-2804	11324	-75	108	-149	-16496	1204	-2488	8	7	116	-15896	952	-3288	-112	-106	151	-10456	2604	12880	87	-40	-199	-15856	-1520	-3280	136	90	-148	-16180	2224	-1072	1114	-420	-27	125	115	8
-11024	-2844	11300	-81	134	-153	-16472	1292	-2352	-42	-6	115	-15904	916	-3152	-80	-76	173	-10456	2624	12848	84	-45	-182	-15916	-1712	-3328	148	90	-69	-16260	2248	-1156	956	-404	42	125	115	8
-10968	-2868	11296	-122	154	-196	-16432	1104	-2340	22	-72	103	-15856	800	-3060	28	-81	197	-10540	2596	12880	136	-26	-156	-15836	-1552	-3360	104	-24	-66	-16296	2020	-1088	740	-269	27	125	115	8
-11024	-2804	11264	-99	127	-190	-16444	1176	-2336	12	-13	121	-15992	804	-3032	129	-70	208	-10524	2568	12944	145	-26	-169	-15904	-1504	-3360	28	-71	-49	-15988	2172	-704	572	-307	-21	125	115	8
-10948	-2784	11264	-115	124	-184	-16460	1264	-2220	90	6	133	-16004	764	-2908	207	-45	206	-10472	2620	12760	119	-72	-141	-15764	-1500	-3216	-31	-116	-58	-16300	2132	-848	518	-322	-9	125	115	8
-11040	-2752	11244	-108	117	-185	-16496	1104	-2212	60	49	113	-15944	816	-2884	213	-22	224	-10464	2608	12832	126	-3	-153	-15860	-1444	-3196	43	-44	-21	-16236	1912	-512	271	-176	-55	125	115	8
-10972	-2856	11304	-77	133	-127	-16516	1132	-2268	129	25	123	-16072	864	-2984	149	-10	187	-10512	2604	12928	147	17	-162	-15796	-1420	-3092	108	-40	-5	-16176	1920	-484	272	-24	-28	125	115	8
-11008	-2900	11188	-91	91	-155	-16528	1100	-2244	115	61	179	-16024	800	-3012	94	-15	192	-10472	2580	12988	131	-35	-163	-15920	-1396	-3116	30	-19	-43	-16320	2064	-560	445	-145	-12	125	115	8
-11068	-2860	11144	-92	154	-172	-16432	1180	-2308	121	65	163	-16024	768	-3156	8	-45	186	-10440	2624	12808	128	2	-178	-15892	-1528	-3240	12	5	-79	-16328	2000	-760	505	-232	-1	125	115	8
-10972	-2836	11308	-103	141	-155	-16460	1216	-2452	46	33	189	-16000	920	-3132	-28	-31	254	-10496	2572	12968	136	16	-133	-15808	-1556	-3240	162	-5	-25	-16128	1944	-844	562	-77	-28	125	115	8
-11060	-2808	11316	-106	160	-128	-16452	1220	-2408	15	21	197	-15912	748	-3192	-37	-40	253	-10460	2616	12892	109	9	-180	-15844	-1464	-3276	61	-34	6	-16172	2184	-848	670	-161	41	125	115	8
-11052	-2864	11300	-103	128	-181	-16472	1124	-2452	19	89	193	-16000	736	-3160	-4	-27	247	-10472	2608	12972	124	-26	-171	-15840	-1500	-3244	-60	-38	-28	-16264	2048	-884	429	-275	46	125	115	8
-11028	-2828	11332	-76	122	-125	-16464	1200	-2316	77	31	226	-15964	804	-3152	89	-15	272	-10524	2576	12976	123	-6	-175	-15828	-1560	-3300	-250	-62	7	-16220	2176	-824	205	-161	37	125	115	8
-10964	-2864	11232	-81	143	-121	-16468	1168	-2396	88	73	186	-15956	820	-3124	78	-28	222	-10492	2540	12904	141	-6	-134	-15796	-1532	-3396	-184	-120	35	-16180	2152	-952	-4	-47	39	125	115	8
-11040	-2896	11232	-78	134	-136	-16432	1212	-2452	104	42	216	-15888	900	-3104	200	-20	301	-10552	2608	12984	134	11	-133	-15860	-1472	-3328	-226	-191	34	-16304	2096	-952	-188	16	66	125	115	8
-10992	-2872	11224	-79	120	-142	-16436	1256	-2352	118	14	233	-15904	904	-3112	231	-11	278	-10492	2540	12992	128	-14	-115	-15872	-1520	-3264	-75	-206	74	-16176	2084	-764	-255	41	101	125	115	8
-11084	-2848	11236	-92	140	-140	-16536	1272	-2500	95	35	189	-16048	864	-2988	205	48	251	-10432	2524	12920	108	-9	-98	-15872	-1436	-3224	-18	-225	101	-16192	2048	-580	-101	135	96	125	115	8
-11016	-2832	11380	-113	153	-118	-16512	1228	-2408	75	69	217	-15920	876	-3104	125	27	274	-10516	2672	12852	182	4	-169	-15828	-1412	-3180	4	-194	66	-16344	2072	-668	66	143	73	125	115	8
-10980	-2816	11264	-79	140	-126	-16420	1184	-2424	48	55	217	-15984	880	-3092	27	22	254	-10464	2612	12872	128	1	-136	-15916	-1352	-3020	55	-148	52	-16256	2032	-524	201	98	90	125	115	8
-11020	-2800	11232	-51	127	-131	-16484	1168	-2292	105	42	227	-15944	816	-3052	81	-5	295	-10556	2620	12972	125	16	-130	-15872	-1344	-3060	177	-73	54	-16244	2016	-488	543	74	69	125	115	8
-10964	-2820	11320	-68	127	-156	-16424	1260	-2468	138	102	271	-15936	892	-3052	84	45	337	-10508	2644	12944	137	13	-170	-15884	-1312	-3048	201	-36	56	-16312	2088	-660	628	6	91	125	115	8
-11000	-2816	11176	-103	139	-128	-16440	1216	-2388	61	105	237	-15960	896	-3132	53	13	320	-10476	2600	12936	154	2	-158	-15880	-1488	-3204	235	1	-29	-16276	2104	-756	775	-1	77	125	115	8
-10988	-2756	11236	-79	135	-117	-16448	1180	-2468	64	129	237	-15908	880	-3168	40	18	318	-10464	2644	12888	160	21	-154	-15836	-1552	-3236	331	37	13	-16248	2040	-744	679	48	114	125	115	8
-11008	-2780	11228	-49	136	-118	-16412	1280	-2480	33	81	256	-15920	912	-3128	54	71	330	-10556	2636	12868	158	44	-166	-15876	-1284	-3168	321	-17	27	-16240	2040	-820	675	124	138	125	115	8
-11024	-2740	11216	-60	149	-125	-16484	1248	-2368	16	74	244	-15912	936	-3224	81	46	296	-10452	2640	12824	162	42	-157	-16128	-1272	-3184	300	-57	35	-16288	2212	-920	559	132	107	125	115	8
-11084	-2896	11340	-77	145	-132	-16432	1216	-2428	42	118	257	-15948	876	-3204	144	29	358	-10536	2656	12868	165	21	-105	-15816	-1388	-3412	27	-84	-27	-16288	2140	-788	266	62	147	125	115	8
-11000	-2820	11212	-109	153	-159	-16456	1272	-2456	115	94	260	-16012	916	-3104	100	52	347	-10452	2656	12920	156	43	-126	-15812	-1364	-3228	110	-88	66	-16228	2324	-832	299	74	152	125	115	8
-11064	-2804	11312	-65	165	-138	-16428	1248	-2572	90	96	261	-15944	852	-3184	149	87	341	-10508	2604	13032	148	28	-142	-15808	-1396	-3124	99	-70	34	-16180	2092	-756	246	6	172	125	115	8
-10988	-2820	11316	-52	121	-135	-16356	1248	-2472	52	166	251	-15920	896	-3172	170	57	366	-10524	2632	12860	140	-39	-159	-15824	-1380	-3224	89	-92	35	-16240	2048	-780	256	20	136	125	115	8
-11040	-2824	11180	-85	95	-143	-16380	1216	-2348	148	116	262	-15936	952	-3184	184	37	369	-10504	2664	12964	122	25	-178	-15908	-1356	-3180	-1	-123	60	-16288	2132	-744	405	-122	150	125	115	8
-11008	-2792	11220	-40	121	-117	-16480	1196	-2396	175	104	233	-15916	964	-3188	297	61	381	-10456	2604	12936	149	-10	-162	-15844	-1468	-3256	103	-64	59	-16212	2112	-696	422	-43	163	125	115	8
-11016	-2796	11232	-81	97	-120	-16440	1268	-2444	237	117	289	-15984	944	-3280	280	71	391	-10448	2672	12852	135	-33	-142	-15920	-1364	-3092	221	-70	31	-16236	2016	-748	486	35	218	125	115	8
-11000	-2824	11356	-49	140	-124	-16416	1308	-2592	175	108	248	-15908	1008	-3216	315	60	429	-10548	2632	12892	145	-19	-154	-15816	-1424	-3188	222	-18	13	-16176	2068	-748	579	61	207	125	115	8
-11004	-2848	11180	-71	145	-155	-16528	1292	-2372	228	101	257	-15884	984	-3324	310	32	404	-10464	2624	12812	140	-29	-141	-15844	-1452	-3152	189	-34	4	-16268	2100	-716	584	56	202	125	115	8
-10900	-2760	11304	-68	123	-139	-16416	1320	-2444	205	103	257	-15868	1032	-3324	308	51	381	-10476	2612	12912	137	-7	-135	-15876	-1412	-3204	199	-13	56	-16272	2176	-804	577	94	219	125	115	8
-10968	-2816	11324	-92	131	-94	-16504	1428	-2328	-111	114	252	-15820	1004	-3420	308	73	365	-10536	2612	12888	142	3	-143	-15864	-1364	-3196	160	15	6	-16268	2276	-688	652	81	195	125	115	8
-10960	-2640	11348	-131	161	-203	-16504	1312	-2520	-110	60	217	-15856	1192	-3288	392	144	474	-10536	2692	12828	168	14	-160	-15884	-1436	-3116	187	-11	13	-16212	2272	-880	669	-37	145	125	115	8
-11012	-2932	11244	-70	149	-131	-16568	1216	-2564	334	-10	218	-15932	960	-3192	345	104	350	-10524	2684	12916	172	5	-181	-15880	-1364	-3112	151	-10	32	-16056	2228	-788	411	19	124	125	115	8
-11024	-2860	11212	-87	160	-177	-16368	1372	-2524	191	-33	245	-15872	1028	-3368	441	79	395	-10532	2616	12976	131	53	-142	-15860	-1256	-3184	-27	-44	-40	-16232	2160	-988	285	12	188	125	115	8
-10928	-2816	11244	-88	158	-160	-16460	1312	-2560	232	72	196	-15948	1052	-3308	375	30	319	-10548	2592	12888	125	58	-129	-15920	-1404	-3192	12	-35	5	-16308	2180	-832	206	101	127	125	115	8
-11036	-2872	11280	-113	121	-125	-16412	1292	-2576	256	27	214	-15924	1156	-3412	266	56	391	-10492	2668	12860	121	22	-185	-15892	-1356	-3068	53	-25	28	-16276	2216	-852	239	186	166	125	115	8
-11036	-2792	11268	-136	136	-145	-16476	1216	-2456	119	-19	240	-15892	1152	-3360	295	14	326	-10512	2604	12940	135	51	-163	-15864	-1380	-3100	119	-50	-3	-16156	2148	-756	162	268	171	125	115	8
-11008	-2720	11236	-104	155	-147	-16448	1312	-2632	161	16	230	-15816	1152	-3416	160	44	335	-10512	2676	12828	153	26	-179	-15872	-1276	-3184	90	-55	-16	-16136	1980	-860	244	296	202	125	115	8
-11036	-2696	11356	-73	117	-143	-16400	1404	-2512	26	4	190	-15836	1192	-3488	213	6	284	-10584	2624	12900	130	14	-136	-15840	-1404	-3072	141	-2	15	-16148	1932	-836	387	443	205	125	115	8
-11016	-2828	11324	-83	152	-137	-16416	1344	-2416	113	-26	210	-15912	1172	-3476	94	44	300	-10460	2572	12960	126	7	-148	-15936	-1336	-3028	217	-3	11	-16148	1980	-712	193	613	244	125	115	8
-10976	-2700	11348	-68	157	-182	-16444	1464	-2568	31	-12	205	-15808	1288	-3420	100	-5	285	-10536	2692	12760	150	1	-162	-15864	-1196	-3168	96	34	7	-15992	1948	-480	-142	875	233	125	115	8
-11068	-2844	11216	-95	119	-156	-16408	1256	-2628	108	-59	171	-15900	1076	-3408	107	9	229	-10448	2672	12820	140	-45	-163	-15836	-1280	-3056	-8	-15	-76	-16064	1956	-420	-508	1013	197	125	115	8
-10948	-2788	11288	-88	141	-181	-16504	1320	-2384	213	-11	171	-15944	1064	-3372	142	-17	210	-10564	2708	12908	114	-21	-178	-15872	-1312	-3080	-20	58	-106	-16116	1992	-432	-952	967	219	125	115	8
-10928	-2720	11280	-89	135	-163	-16444	1364	-2404	44	-55	175	-16000	1108	-3308	174	-26	206	-10556	2668	12728	80	-37	-174	-15856	-1356	-3040	44	97	-52	-16140	2352	-824	-1069	912	237	125	115	8
-11020	-2768	11304	-80	120	-174	-16472	1416	-2432	99	-73	186	-15964	1072	-3228	29	-43	217	-10556	2648	12912	88	-32	-151	-15856	-1328	-3184	-26	106	-86	-16472	2764	-1064	-1097	710	258	125	115	8
-11056	-2880	11176	-129	148	-147	-16428	1304	-2424	41	-1	177	-15884	1108	-3300	-12	-72	235	-10552	2648	12852	83	11	-193	-15928	-1308	-3168	-126	114	-104	-16448	3096	-1284	-1250	266	318	125	115	8
-11032	-2752	11232	-90	139	-184	-16412	1308	-2464	-13	28	143	-15956	1196	-3324	-109	-120	131	-10628	2648	12920	93	-80	-162	-15888	-1332	-3284	-147	143	-129	-16288	2800	-1228	-1260	42	206	125	115	8
-10968	-2740	11344	-131	127	-146	-16440	1368	-2532	-30	59	186	-15868	1160	-3372	-182	-98	126	-10564	2660	12932	84	-32	-172	-15820	-1380	-3272	-95	88	-93	-16204	2416	-1176	-1211	164	216	125	115	8
-11068	-2756	11248	-98	138	-157	-16380	1348	-2552	-41	14	163	-15896	1072	-3344	-200	-75	117	-10556	2628	12960	67	-11	-165	-15900	-1440	-3256	-98	57	-75	-16160	2308	-1084	-1042	123	105	125	115	8
-11056	-2744	11204	-118	134	-131	-16452	1328	-2480	-43	-15	133	-15928	1024	-3316	-225	-76	144	-10460	2636	12900	79	-20	-183	-15820	-1372	-3184	-183	11	-119	-16104	2384	-1048	-863	6	140	125	115	8
-11024	-2716	11264	-97	146	-122	-16424	1292	-2584	-33	50	126	-15840	1104	-3376	-202	-99	153	-10484	2584	12912	107	-31	-172	-15788	-1424	-3308	-101	14	-98	-16216	2256	-1176	-705	-29	167	125	115	8
-11036	-2728	11200	-107	152	-112	-16476	1320	-2488	29	26	138	-15856	1016	-3512	-109	-116	138	-10484	2604	12832	101	-16	-148	-15848	-1448	-3224	55	20	-29	-16276	2232	-992	-483	-65	140	125	115	8
-11072	-2812	11324	-84	164	-166	-16496	1340	-2632	78	-5	142	-15880	1068	-3372	-5	-126	175	-10492	2624	12856	125	-48	-141	-15828	-1304	-3276	40	-6	-57	-16136	2224	-1068	-281	-23	163	125	115	8
-11024	-2796	11168	-123	159	-139	-16444	1368	-2524	90	-20	134	-15864	1192	-3472	21	-120	144	-10520	2644	12944	98	7	-145	-15860	-1340	-3256	20	33	-41	-16020	2556	-928	-97	-34	105	125	115	8
-10960	-2736	11232	-127	164	-169	-16424	1348	-2580	94	-90	179	-15876	1144	-3600	11	-150	111	-10548	2668	12912	96	-4	-118	-15820	-1372	-3156	-55	-2	-33	-16220	2384	-964	-101	56	79	125	115	8
-10996	-2768	11316	-107	181	-161	-16472	1384	-2516	41	-98	124	-15888	1232	-3468	-69	-160	108	-10532	2652	12904	136	-24	-156	-15876	-1380	-3328	25	26	-40	-16240	2308	-976	-60	66	49	125	115	8
-11076	-2768	11296	-137	179	-146	-16400	1388	-2620	-67	-37	91	-15888	1276	-3364	-182	-178	87	-10480	2640	12832	130	-7	-189	-15868	-1372	-3244	55	-1	-34	-16152	2488	-944	-95	93	102	125	115	8
-11048	-2728	11192	-127	179	-174	-16456	1364	-2456	-99	-97	97	-15876	1200	-3272	-263	-184	42	-10516	2648	12840	133	-20	-151	-15868	-1272	-3396	-10	32	-49	-16196	2432	-1016	-203	109	59	125	115	8
-11000	-2828	11348	-178	148	-172	-16460	1324	-2500	-76	-81	79	-15864	1180	-3404	-344	-152	21	-10584	2656	12832	128	-31	-152	-15880	-1320	-3144	-49	-28	-87	-16240	2400	-1084	-255	190	4	125	115	8
-11032	-2828	11224	-139	194	-148	-16388	1364	-2544	-85	-79	80	-15824	1132	-3300	-352	-149	-1	-10576	2652	12804	87	-51	-186	-15888	-1312	-3288	-61	-29	-48	-16192	2396	-984	-256	201	-30	125	115	8
-10992	-2816	11256	-133	203	-169	-16460	1320	-2492	-96	-51	74	-15832	1080	-3344	-359	-154	-29	-10544	2644	12880	105	21	-160	-15896	-1348	-3264	-70	-16	-71	-16260	2284	-940	-289	214	-54	125	115	8
-10992	-2744	11220	-176	190	-167	-16412	1320	-2464	-109	-85	51	-15868	1020	-3284	-310	-142	-10	-10488	2680	12876	115	33	-145	-15920	-1300	-3252	-59	-19	-81	-16180	2324	-1048	-274	239	-82	125	115	8
-11012	-2796	11308	-154	172	-172	-16436	1364	-2412	-54	-37	55	-15976	928	-3248	-241	-153	15	-10504	2648	12876	111	-25	-141	-15896	-1324	-3308	-25	16	-100	-16196	2316	-1040	-152	174	-56	126	115	8
-11016	-2816	11248	-149	173	-191	-16412	1352	-2480	-22	-44	52	-15904	1068	-3332	-191	-170	11	-10540	2640	12888	124	-78	-173	-15844	-1252	-3200	19	2	-95	-16204	2444	-996	-93	170	-32	125	115	8
-11056	-2800	11276	-156	172	-166	-16472	1364	-2500	-57	-75	41	-15868	1084	-3336	-207	-175	-3	-10412	2644	12952	121	-29	-148	-15836	-1288	-3124	-22	51	-140	-16260	2420	-1072	-18	184	-57	125	115	8
-10980	-2844	11292	-110	166	-181	-16488	1320	-2628	-28	-83	53	-15912	1112	-3344	-183	-126	3	-10528	2680	12868	121	27	-189	-15908	-1300	-3192	6	55	-173	-16188	2364	-1044	36	175	-90	125	115	8
-11012	-2784	11292	-158	184	-155	-16468	1328	-2504	-36	-98	36	-15888	1128	-3296	-183	-114	-4	-10548	2672	12852	98	-57	-167	-15880	-1368	-3260	75	84	-123	-16268	2336	-936	65	194	-91	125	115	8
-10992	-2820	11248	-158	229	-213	-16452	1396	-2584	25	-118	6	-15876	1176	-3364	-203	-154	-23	-10548	2632	12944	106	-39	-186	-15884	-1340	-3284	119	64	-131	-16200	2352	-1044	103	194	-87	125	115	8
-10984	-2768	11288	-136	201	-179	-16488	1372	-2488	46	-142	19	-15812	1192	-3392	-247	-142	-20	-10512	2628	12852	112	13	-139	-15840	-1352	-3252	75	122	-117	-16176	2380	-988	120	189	-94	126	115	8
-10996	-2776	11292	-152	221	-226	-16512	1440	-2508	-20	-145	-15	-15928	1092	-3400	-332	-168	-37	-10580	2608	12916	111	-19	-149	-15860	-1356	-3364	74	105	-159	-16176	2372	-1020	154	214	-94	126	115	8
-11000	-2776	11204	-148	232	-193	-16420	1336	-2484	-193	-166	-19	-15860	1068	-3500	-268	-133	-67	-10476	2612	12832	128	23	-166	-15872	-1292	-3380	116	90	-148	-16160	2396	-980	148	228	-120	126	115	8
-11056	-2744	11228	-176	224	-171	-16480	1268	-2512	-48	-237	-44	-15928	956	-3564	-254	-188	-107	-10468	2712	12840	133	-26	-171	-15844	-1344	-3260	190	103	-189	-16128	2396	-1040	203	266	-170	126	115	8
-11008	-2844	11260	-153	235	-154	-16424	1344	-2540	-30	-259	-45	-15896	1132	-3440	-217	-191	-89	-10484	2660	12848	95	-30	-197	-15828	-1288	-3268	194	121	-199	-16196	2448	-972	187	240	-211	126	115	8
-10920	-2784	11284	-163	220	-236	-16468	1372	-2472	-189	-233	-53	-15864	1128	-3436	-209	-225	-104	-10464	2668	12784	73	5	-173	-15864	-1288	-3208	73	162	-237	-16192	2372	-1104	101	234	-220	126	116	8
-11048	-2708	11204	-184	215	-178	-16380	1364	-2568	-42	-280	-100	-15892	1280	-3440	-208	-259	-149	-10500	2660	12872	83	-25	-176	-15892	-1288	-3284	-105	123	-271	-16212	2532	-1056	-150	290	-184	126	116	8
-11032	-2748	11288	-180	274	-224	-16436	1408	-2472	-134	-264	-90	-15828	1264	-3368	-450	-205	-191	-10476	2608	12808	48	-71	-180	-15836	-1288	-3272	-189	157	-276	-16196	2460	-1148	-274	250	-233	126	116	8
-11008	-2804	11304	-197	242	-226	-16484	1352	-2496	-203	-284	-141	-15892	1132	-3336	-435	-250	-301	-10576	2692	12880	61	-50	-203	-15852	-1396	-3448	-228	155	-316	-16156	2372	-1232	-381	308	-242	126	116	8
-11036	-2780	11276	-213	211	-227	-16484	1240	-2416	-292	-237	-159	-15880	972	-3284	-562	-219	-346	-10500	2680	12840	68	-53	-185	-15752	-1396	-3368	-249	131	-348	-16164	2328	-1292	-442	325	-258	126	116	8
-11060	-2824	11288	-178	245	-238	-16452	1280	-2376	-301	-248	-124	-15908	984	-3324	-596	-283	-275	-10500	2704	12928	27	-88	-214	-15776	-1408	-3420	-353	74	-335	-16264	2368	-1292	-497	242	-259	126	116	8
-11020	-2836	11220	-177	250	-221	-16428	1268	-2392	-186	-261	-148	-15872	888	-3208	-594	-309	-280	-10460	2624	12964	24	-63	-204	-15840	-1464	-3428	-316	79	-343	-16192	2280	-1212	-533	260	-264	127	116	8
-11064	-2872	11160	-160	194	-277	-16456	1184	-2224	-152	-191	-132	-15908	852	-3252	-537	-302	-305	-10540	2536	12888	12	-89	-216	-15824	-1432	-3404	-370	42	-344	-16192	2236	-1252	-481	271	-295	127	116	8
-11028	-2784	11252	-192	189	-216	-16448	1152	-2304	-244	-212	-138	-15892	856	-3216	-479	-337	-259	-10516	2616	12912	40	-97	-222	-15800	-1484	-3528	-367	30	-310	-16196	2156	-1272	-355	277	-308	126	116	8
-11136	-2828	11240	-200	193	-211	-16560	1144	-2228	-266	-192	-110	-15972	832	-3296	-474	-305	-277	-10512	2596	12864	55	-96	-212	-15844	-1472	-3404	-223	45	-307	-16328	2148	-1208	-318	219	-317	126	116	8
-11004	-2820	11232	-165	212	-191	-16416	1224	-2228	-158	-216	-96	-15960	804	-3176	-402	-314	-237	-10488	2672	13012	52	-102	-219	-15780	-1424	-3344	-185	54	-320	-16272	2056	-1256	-194	177	-278	126	116	8
-11100	-2860	11276	-177	201	-230	-16496	1160	-2192	-198	-238	-115	-15840	824	-3084	-382	-323	-227	-10560	2608	12836	51	-84	-197	-15772	-1500	-3408	-182	30	-306	-16108	2100	-1352	-121	152	-201	126	116	8
-11036	-2864	11208	-171	187	-254	-16484	1124	-2304	-131	-225	-100	-15892	728	-3236	-335	-316	-238	-10496	2596	12896	37	-25	-198	-15828	-1564	-3408	-216	-24	-282	-16288	2092	-1220	-87	110	-205	127	116	8
-11036	-2888	11236	-124	171	-224	-16480	1116	-2344	-46	-227	-117	-15900	736	-3084	-218	-315	-217	-10484	2656	12820	33	-38	-193	-15776	-1532	-3424	-152	13	-255	-16156	2112	-1264	-153	53	-145	126	116	8
-11136	-2864	11236	-169	150	-239	-16404	1068	-2340	29	-232	-59	-15896	796	-3320	-182	-312	-170	-10492	2652	12900	56	-89	-188	-15808	-1572	-3296	-197	3	-237	-16236	2164	-1328	-185	60	-200	126	116	8
-11056	-2900	11100	-141	118	-263	-16500	1112	-2352	15	-215	-73	-15948	732	-3300	-132	-299	-147	-10532	2612	12952	75	-61	-170	-15852	-1608	-3352	-222	-54	-251	-16320	2100	-1312	-235	87	-196	126	116	8
-11052	-2876	11212	-134	114	-241	-16436	1092	-2156	41	-180	-42	-15968	664	-3300	-75	-312	-97	-10512	2628	12932	77	-78	-163	-15764	-1552	-3428	-150	-78	-215	-16156	1944	-1420	-113	7	-167	126	115	8
-11072	-2792	11244	-158	159	-231	-16504	1096	-2236	105	-183	-28	-15968	684	-3056	-7	-320	-58	-10464	2628	12792	76	-54	-160	-15768	-1592	-3360	-70	-72	-201	-16228	1928	-1364	-2	-11	-148	126	116	8
-11100	-2864	11336	-105	131	-240	-16512	1020	-2276	108	-188	-41	-15972	680	-3024	-4	-282	-35	-10492	2616	12796	67	-63	-133	-15876	-1500	-3468	7	-89	-162	-16248	2040	-1324	99	-92	-75	126	115	8
-11108	-2900	11144	-137	126	-255	-16516	1088	-2204	72	-144	-11	-15944	640	-3012	-20	-279	-25	-10496	2580	12928	123	-100	-145	-15808	-1588	-3432	-64	-124	-181	-16216	2028	-1356	199	-83	-95	126	115	8
-11048	-2868	11204	-122	137	-225	-16464	1048	-2308	5	-114	11	-15896	636	-3108	3	-250	-3	-10560	2588	12884	48	-57	-162	-15804	-1660	-3436	-44	-136	-126	-16280	2000	-1244	263	-128	-51	126	115	8
-11052	-2872	11192	-95	106	-175	-16504	1024	-2216	2	-102	21	-15956	612	-3120	-45	-255	52	-10528	2528	12800	115	-18	-170	-15836	-1584	-3420	61	-145	-121	-16112	1960	-1396	381	-192	-46	126	116	8
-11024	-2828	11120	-138	125	-213	-16564	968	-2264	41	-92	34	-15960	612	-3056	64	-237	69	-10512	2612	12872	106	-57	-169	-15828	-1564	-3436	100	-139	-104	-16200	2008	-1276	456	-195	-15	126	116	8
-11064	-2900	11236	-107	92	-192	-16428	1000	-2264	95	-116	101	-15996	636	-3096	116	-260	105	-10480	2616	12900	98	-14	-152	-15744	-1592	-3388	123	-162	-62	-16232	2020	-1388	467	-248	-35	126	115	8
-11048	-2912	11276	-91	116	-188	-16496	1028	-2212	127	-76	61	-15964	596	-3112	201	-215	123	-10536	2552	12904	138	-28	-184	-15816	-1588	-3320	162	-170	-96	-16156	2084	-1252	439	-236	-5	126	115	8
-11040	-2928	11212	-103	76	-166	-16500	1104	-2220	203	-53	55	-15912	672	-3172	262	-217	165	-10516	2696	12828	109	8	-141	-15828	-1660	-3328	135	-215	-71	-16256	2048	-1284	436	-280	45	125	115	8
-11060	-2904	11152	-56	76	-181	-16444	1068	-2224	201	-103	110	-15960	744	-3016	364	-238	161	-10540	2588	12948	100	-69	-179	-15832	-1600	-3300	152	-224	-54	-16256	2004	-1272	483	-290	56	125	115	8
-11028	-2880	11212	-86	75	-185	-16528	1152	-2292	230	-81	140	-15912	724	-3144	362	-222	174	-10508	2524	12868	136	-61	-136	-15784	-1624	-3324	111	-236	-38	-16184	2004	-1168	495	-314	71	125	115	8
-11028	-2972	11124	-77	91	-199	-16512	1076	-2232	211	-50	81	-15924	764	-3200	342	-179	176	-10596	2596	12876	98	10	-174	-15840	-1624	-3396	126	-243	-47	-16168	1980	-1300	537	-363	72	125	115	8
-11072	-2872	11204	-61	79	-191	-16464	1136	-2180	162	-56	95	-16000	704	-3012	293	-166	200	-10560	2612	12976	108	-5	-143	-15876	-1564	-3420	162	-237	-11	-16232	2064	-1180	536	-398	113	125	115	8
-11100	-2880	11176	-65	79	-188	-16456	1060	-2208	87	-37	126	-15948	676	-3148	291	-163	210	-10556	2656	12892	102	-11	-148	-15828	-1560	-3340	119	-246	20	-16264	2088	-1232	555	-398	130	125	115	8
-11100	-2904	11136	-71	56	-153	-16508	984	-2236	137	-54	124	-15960	704	-3060	355	-184	266	-10476	2576	12900	81	-26	-189	-15872	-1568	-3072	73	-258	19	-16248	2196	-1224	484	-370	165	125	115	8
-11020	-2852	11140	-58	63	-187	-16428	1188	-2264	262	-44	106	-15948	696	-3092	365	-143	305	-10560	2556	12944	116	-42	-143	-15812	-1592	-3276	134	-286	58	-16292	2048	-1212	465	-402	153	125	115	8
-11040	-2944	11368	-49	39	-184	-16492	912	-2200	209	-48	190	-15976	592	-3072	474	-95	320	-10588	2720	12876	135	13	-160	-15840	-1496	-3288	156	-277	30	-16272	2076	-1100	512	-426	183	124	115	8
-11052	-3040	11176	-48	15	-183	-16524	1060	-2104	381	-22	185	-15956	540	-2972	596	-123	317	-10528	2528	12924	127	-12	-111	-15800	-1544	-3236	143	-286	40	-16240	2112	-992	488	-448	193	124	115	8
-11008	-2900	11172	-76	14	-197	-16464	952	-2140	190	15	222	-16004	704	-2996	710	-96	388	-10548	2572	12868	116	19	-128	-15856	-1504	-3188	87	-257	1	-16288	2148	-968	529	-513	224	124	115	8
-11052	-2900	11176	-23	39	-156	-16552	884	-2164	379	94	210	-15992	692	-2972	686	-142	333	-10492	2636	12880	117	-14	-165	-15832	-1492	-3140	119	-232	22	-16280	2220	-932	555	-543	207	124	115	8
-11048	-2852	11184	-28	6	-157	-16492	1156	-2248	418	46	219	-15896	628	-3000	691	-105	346	-10480	2604	12900	108	-34	-156	-15844	-1544	-3164	108	-213	-12	-16292	2104	-912	606	-494	215	124	115	8
-10976	-2984	11264	-66	50	-137	-16548	988	-2136	337	89	269	-16028	792	-3112	706	-88	411	-10472	2620	12928	123	-72	-138	-15852	-1556	-3256	181	-229	-43	-16132	2016	-992	791	-516	218	124	114	8
-11036	-2876	11292	-62	98	-139	-16544	1108	-2300	436	90	215	-15864	788	-3148	522	-82	423	-10500	2640	12824	138	-23	-159	-15796	-1536	-3288	246	-186	1	-16244	1984	-1024	951	-513	201	124	114	8
-11004	-2832	11232	-55	73	-154	-16492	1212	-2408	276	-6	244	-15844	880	-3164	456	-69	415	-10540	2476	12864	96	29	-147	-15848	-1620	-3272	258	-211	-36	-16212	2112	-1120	971	-518	240	124	114	8
-11028	-2912	11236	-80	31	-178	-16476	1036	-2228	265	101	218	-15968	888	-3152	482	-59	422	-10532	2604	12948	139	-15	-153	-15812	-1592	-3280	318	-193	-17	-16192	2100	-968	1032	-487	230	123	114	8
-10960	-2984	11280	-88	80	-155	-16520	1172	-2348	396	16	235	-15880	824	-3236	519	-54	423	-10468	2552	12904	140	10	-142	-15812	-1700	-3340	372	-244	37	-16244	1992	-1020	1011	-474	210	124	114	8
-10956	-2904	11256	-98	66	-111	-16476	1232	-2328	336	18	215	-15976	768	-3296	604	-44	450	-10544	2568	12892	131	2	-117	-15812	-1580	-3188	451	-248	97	-16116	2180	-1000	983	-420	234	124	114	8
-10988	-2936	11188	-55	91	-160	-16480	1008	-2280	286	70	214	-16024	684	-3092	714	-26	464	-10480	2652	12964	129	25	-111	-15892	-1548	-3200	369	-281	94	-16288	2244	-940	820	-375	215	124	114	8
-11044	-2988	11224	-54	123	-141	-16508	1072	-2216	351	70	240	-16004	804	-3116	600	-45	478	-10460	2544	12956	140	39	-115	-15988	-1504	-3224	446	-342	140	-16236	2216	-744	725	-341	194	124	114	8
-11044	-2928	11232	-85	114	-120	-16468	1100	-2280	172	77	226	-15956	848	-3160	608	8	501	-10572	2584	12916	151	40	-94	-15840	-1496	-3124	364	-288	56	-16256	2188	-800	737	-326	220	124	114	8
-10992	-2852	11184	-55	96	-127	-16496	1076	-2212	188	112	193	-15932	848	-3000	516	10	449	-10536	2648	12908	124	31	-144	-15876	-1452	-3100	364	-279	84	-16264	2108	-768	789	-355	165	123	114	8
-11008	-2772	11224	-85	120	-149	-16456	1056	-2332	310	96	259	-16028	936	-3292	506	27	502	-10552	2652	12944	161	57	-129	-15852	-1452	-3024	384	-239	70	-16300	2140	-608	828	-321	181	124	114	8
-10980	-2856	11316	-73	99	-143	-16436	1148	-2380	342	105	202	-15988	832	-3152	541	55	462	-10472	2636	12848	130	25	-165	-15852	-1380	-2996	425	-166	22	-16240	2220	-616	833	-368	178	124	114	8
-11040	-2848	11276	-69	130	-118	-16480	1160	-2420	215	118	222	-15968	732	-3156	504	41	513	-10524	2596	12924	156	-31	-140	-16012	-1400	-2932	296	-150	40	-16308	2160	-660	958	-351	160	124	114	8
-10968	-2876	11184	-96	79	-152	-16444	1100	-2340	275	129	267	-15988	836	-3128	548	5	468	-10528	2608	12816	137	9	-129	-15860	-1368	-3056	324	-109	-24	-16204	2240	-656	983	-364	135	124	114	8
-11020	-2912	11140	-60	102	-133	-16484	1040	-2172	300	135	232	-15968	816	-3108	520	-43	448	-10528	2644	12848	163	-20	-172	-15872	-1428	-3056	282	-69	-38	-16272	2236	-768	951	-321	135	124	114	8
-11032	-2848	11196	-59	91	-116	-16504	1096	-2292	357	114	282	-15928	1016	-3336	504	-106	393	-10512	2668	12788	128	11	-138	-15828	-1452	-3128	194	-40	-79	-16240	2276	-732	822	-336	139	124	114	8
-11040	-2848	11184	-21	91	-132	-16496	1232	-2476	241	129	251	-15844	1060	-3484	492	-83	423	-10460	2636	12880	118	30	-170	-15848	-1424	-3236	184	-68	-58	-16140	2268	-828	702	-293	127	124	114	8
-11056	-2836	11260	-41	88	-120	-16476	1212	-2372	231	114	213	-15776	1072	-3512	334	-81	311	-10528	2700	12772	114	-67	-153	-15896	-1512	-3120	121	-75	-56	-16140	2312	-888	641	-316	109	124	115	8
-11056	-2828	11200	-109	117	-145	-16472	1216	-2500	298	53	230	-15796	1140	-3452	295	-91	314	-10524	2632	12820	110	-59	-153	-15844	-1596	-3212	114	-90	-62	-16140	2252	-980	473	-285	108	124	114	8
-11036	-2800	11184	-73	106	-145	-16444	1140	-2524	234	-2	189	-15812	988	-3512	308	-157	254	-10544	2568	12964	100	-46	-190	-15840	-1548	-3224	41	-110	-83	-16220	2344	-1060	546	-271	62	124	114	8
-10912	-2844	11196	-109	96	-160	-16456	1184	-2448	216	-58	127	-15916	936	-3440	276	-110	259	-10468	2564	12972	123	-22	-136	-15936	-1560	-3188	-91	-175	-36	-16328	2508	-928	768	-476	28	124	114	8
-11072	-2820	11448	-70	119	-157	-16532	1228	-2568	120	-73	150	-15952	1012	-3332	248	-157	197	-10592	2616	12904	92	6	-141	-15784	-1532	-3040	-178	-167	-49	-16420	2460	-1004	1267	-918	8	124	114	8
-11016	-2848	11296	-96	104	-169	-16488	1136	-2348	79	-91	149	-15896	1080	-3236	246	-136	191	-10508	2640	12972	117	-17	-91	-15968	-1560	-3128	-145	-206	-15	-16120	2100	-704	1295	-605	-55	124	114	8
-11040	-2884	11308	-87	88	-166	-16516	1112	-2400	78	-92	116	-16040	984	-3224	225	-188	141	-10464	2608	12876	103	-6	-144	-15844	-1404	-2972	-143	-133	-81	-16224	2132	-508	1162	-267	-112	124	114	8
-11000	-2796	11284	-91	167	-196	-16548	1096	-2256	66	-62	98	-16008	952	-3156	140	-157	123	-10540	2596	12928	118	-41	-181	-15928	-1476	-3084	-140	-126	-109	-16228	1980	-268	804	-183	-157	124	114	8
-10996	-2824	11272	-139	123	-147	-16536	1124	-2316	15	-87	71	-15944	940	-3140	-15	-197	118	-10504	2644	12828	118	-88	-131	-15872	-1408	-2936	-20	-74	-71	-16160	2128	-568	841	-168	-56	124	114	8
-10956	-2808	11208	-100	160	-178	-16436	1104	-2288	-31	-55	116	-15908	952	-3076	-118	-222	82	-10464	2636	12960	106	-43	-172	-15860	-1492	-2956	-65	-51	-76	-16300	2068	-492	823	-201	-103	124	114	8
-11008	-2792	11240	-110	167	-137	-16520	1068	-2236	-49	-26	94	-15944	980	-3108	-179	-197	68	-10496	2612	12844	90	-46	-143	-15876	-1404	-3136	-167	-16	-108	-16256	2260	-496	681	-193	-155	124	114	8
-10936	-2824	11264	-140	148	-163	-16480	1132	-2276	-7	-12	139	-15948	968	-3212	-249	-244	48	-10472	2616	12848	73	-123	-165	-15792	-1388	-3020	-132	39	-164	-16268	2316	-400	794	-258	-173	124	114	8
-11020	-2840	11260	-102	116	-138	-16512	1156	-2312	-13	-3	137	-15952	956	-3152	-271	-197	27	-10520	2616	12940	46	-80	-173	-15892	-1368	-2996	-200	117	-211	-16348	2240	-420	744	-324	-203	124	114	8
-10952	-2892	11216	-128	125	-155	-16500	1124	-2432	-76	1	95	-16008	844	-3272	-255	-192	0	-10448	2556	12836	46	-72	-201	-15936	-1536	-2980	-56	135	-171	-16280	2168	-352	503	-296	-69	124	114	8
-11032	-2900	11352	-118	152	-159	-16452	1096	-2204	-78	-14	111	-15980	852	-3248	-216	-230	39	-10520	2580	12856	56	-70	-157	-15896	-1424	-3036	-178	165	-185	-16056	1984	-392	263	-141	-119	123	114	8
-11032	-2820	11328	-86	150	-156	-16500	1156	-2284	-88	-25	110	-15960	856	-3060	-176	-226	22	-10472	2608	12884	81	-131	-139	-15916	-1488	-3272	-257	180	-231	-16156	2048	-440	221	-148	-120	124	114	8
-11016	-2848	11236	-133	134	-151	-16452	1108	-2276	-70	-22	144	-15976	880	-3020	-167	-217	25	-10436	2628	12828	60	-105	-200	-15876	-1524	-3108	-316	151	-227	-16344	2164	-500	168	-228	-205	124	114	8
-10944	-2872	11336	-113	159	-177	-16528	1076	-2148	-106	53	154	-15960	824	-3044	-235	-268	5	-10508	2552	12940	86	-48	-200	-15844	-1612	-3344	-211	146	-184	-16172	1840	-816	64	2	-154	124	114	8
-11024	-2664	11184	-76	108	-181	-16500	1088	-2292	-137	68	167	-15996	872	-3048	-288	-250	-31	-10504	2560	12924	91	-80	-179	-15836	-1600	-3308	-121	75	-165	-16276	1840	-704	42	56	-189	124	114	8
-10916	-2764	11332	-85	121	-137	-16516	1108	-2276	-93	108	120	-16004	864	-3076	-438	-271	-50	-10500	2600	12960	90	-70	-147	-15864	-1552	-3244	-116	80	-120	-16400	1944	-760	24	-119	-220	124	114	8
-11044	-2884	11312	-125	167	-148	-16460	1140	-2264	-44	74	158	-15976	816	-3096	-432	-267	-87	-10484	2588	12852	120	-44	-134	-15816	-1528	-3292	-183	25	-133	-16196	2076	-756	3	-84	-187	124	114	8
-10988	-2804	11268	-114	108	-140	-16456	1156	-2376	33	75	142	-15992	832	-3232	-496	-262	-64	-10500	2592	12928	89	-40	-170	-15860	-1504	-3156	-74	66	-130	-16244	1900	-580	-132	67	-80	124	114	8
-10988	-2796	11268	-75	122	-137	-16480	1116	-2448	-84	98	163	-15896	812	-3208	-450	-246	-61	-10520	2620	12936	90	-40	-195	-15792	-1552	-3044	-92	8	-98	-16336	2644	-604	-169	18	190	124	115	8
-11004	-2884	11252	-84	130	-161	-16504	1112	-2364	-50	57	158	-15928	824	-3256	-427	-288	-37	-10524	2640	13028	81	-61	-162	-15888	-1620	-3308	-34	25	-114	-16332	1956	-720	-5	-141	-27	124	115	8
-11064	-2876	11244	-139	161	-128	-16460	1164	-2488	-68	19	172	-15900	776	-3360	-313	-295	-9	-10528	2656	12960	119	-79	-149	-15896	-1568	-3152	-32	-3	-66	-16264	2160	-768	61	-198	-56	124	114	8
-11044	-2828	11312	-74	129	-142	-16560	1152	-2484	-2	38	138	-15908	748	-3168	-184	-316	-5	-10484	2564	12904	86	-88	-167	-15832	-1488	-3220	-151	-31	-114	-16236	2324	-636	-206	-263	72	124	114	8
-11012	-2948	11344	-103	161	-108	-16524	1152	-2352	-39	15	159	-15928	856	-3248	-92	-253	59	-10496	2600	12936	70	-102	-125	-15880	-1612	-3236	-240	-107	-123	-16320	1896	-800	-212	-278	-48	124	114	8
-11016	-2880	11184	-117	145	-183	-16512	1220	-2464	69	-104	121	-15900	932	-3148	-128	-303	91	-10472	2620	12984	117	-65	-134	-15884	-1656	-3304	-120	-130	-108	-16288	1936	-836	-81	-301	-72	124	114	8
-10992	-2896	11316	-120	171	-183	-16484	1140	-2440	34	-98	105	-15904	892	-3264	-118	-298	65	-10508	2568	12840	88	-90	-174	-15844	-1652	-3328	-87	-165	-29	-16240	1880	-804	-125	-249	-77	124	114	8
-10960	-2884	11208	-86	126	-139	-16400	1100	-2440	39	-160	106	-15848	832	-3260	-73	-285	10	-10484	2640	12972	125	-94	-134	-15828	-1552	-3392	-93	-208	-7	-16372	1920	-784	-5	-348	-72	124	114	8
-10988	-2820	11264	-84	124	-176	-16428	1216	-2440	-47	-172	153	-15924	816	-3236	-101	-301	80	-10436	2592	13000	78	-34	-156	-15872	-1704	-3224	-119	-267	10	-16344	1900	-748	-5	-308	9	124	114	8
-10980	-2796	11268	-148	131	-182	-16412	1176	-2460	21	-214	71	-15928	820	-3328	-78	-303	75	-10464	2552	12996	117	-61	-131	-15816	-1720	-3248	48	-334	16	-16276	1832	-752	55	-432	20	123	114	8
-11052	-2816	11360	-185	163	-180	-16440	1120	-2452	26	-219	131	-15828	708	-3252	3	-300	145	-10468	2696	12896	147	-99	-116	-15932	-1644	-3136	124	-393	98	-16280	2004	-768	13	-522	-2	124	114	8
-10996	-2848	11252	-137	133	-209	-16536	1128	-2404	67	-271	120	-15940	752	-3080	114	-336	138	-10412	2624	12852	118	-42	-139	-15876	-1612	-3324	34	-448	97	-16196	1928	-844	-78	-434	38	123	114	8
-11004	-2892	11288	-105	181	-203	-16492	1092	-2340	72	-241	112	-15968	764	-3076	195	-320	169	-10536	2588	12952	147	-36	-122	-15872	-1684	-3236	52	-450	85	-16248	1884	-664	-177	-374	50	124	114	8
-10996	-2828	11240	-90	95	-218	-16492	1124	-2268	62	-249	103	-16000	848	-2864	128	-312	171	-10452	2644	12992	130	-35	-114	-15872	-1572	-2996	105	-530	142	-16252	1928	-332	-122	-270	78	123	114	8
-11016	-2848	11416	-118	94	-164	-16436	1076	-2248	35	-245	134	-15920	984	-2912	73	-262	139	-10460	2688	12908	123	-9	-99	-15868	-1464	-2892	49	-458	179	-16324	2096	-332	-74	-283	6	124	114	8
-11020	-2828	11176	-150	91	-200	-16464	1152	-2288	31	-224	135	-15940	860	-2956	19	-282	69	-10440	2604	12948	131	-32	-129	-15876	-1404	-2876	-24	-439	105	-16364	2068	-132	-219	-404	85	123	114	8
-11036	-2908	11280	-148	108	-160	-16472	1140	-2264	52	-195	126	-15968	788	-3024	15	-247	101	-10432	2628	12952	106	-49	-167	-15920	-1336	-3028	-156	-399	64	-16292	2040	-264	-244	-463	43	123	114	8
-11076	-2812	11200	-135	95	-190	-16468	1112	-2280	110	-239	135	-15992	756	-2960	4	-250	102	-10460	2676	12892	91	-102	-110	-15876	-1456	-2948	-173	-361	69	-16280	2040	-188	-264	-416	43	123	114	8
-10944	-2912	11252	-99	127	-210	-16448	1132	-2216	81	-224	165	-15956	676	-2860	65	-250	187	-10448	2600	12984	64	-67	-156	-15872	-1448	-2948	-149	-387	49	-16340	2048	-280	-185	-403	3	123	114	8
-11012	-2888	11300	-62	125	-157	-16552	1044	-2168	74	-149	137	-15964	764	-2920	72	-207	179	-10416	2620	12956	128	-74	-150	-15896	-1476	-2992	-89	-326	20	-16300	1956	-324	17	-395	37	123	114	8
-10972	-2848	11248	-91	118	-185	-16444	1112	-2172	41	-143	161	-15996	776	-2860	160	-215	201	-10440	2652	12860	99	-81	-134	-15904	-1456	-3040	-45	-321	28	-16292	1972	-340	165	-407	8	123	114	8
-10996	-2864	11392	-93	96	-183	-16468	1024	-2280	59	-133	168	-15984	828	-2876	185	-203	189	-10444	2576	12868	94	-7	-174	-15972	-1532	-3108	109	-247	40	-16264	1900	-428	335	-291	37	123	114	8
-10944	-2840	11296	-71	83	-200	-16480	1140	-2260	130	-140	160	-15976	784	-2912	182	-206	231	-10456	2608	12980	91	16	-120	-15816	-1416	-3016	91	-220	55	-16216	2000	-260	418	-271	80	123	114	8
-10972	-2852	11356	-59	99	-188	-16508	1080	-2288	166	-137	148	-15968	776	-2964	159	-168	191	-10448	2708	12928	116	-4	-170	-15964	-1392	-2844	35	-254	33	-16328	2052	-220	447	-140	86	123	114	8
-11020	-2860	11260	-80	104	-141	-16520	1132	-2292	106	-168	129	-16036	832	-3072	191	-116	206	-10440	2648	12904	117	-7	-133	-15916	-1432	-2864	-13	-229	35	-16264	2084	-280	292	-146	80	124	114	8
-10940	-2852	11328	-104	149	-141	-16492	1184	-2352	333	-162	126	-15940	824	-2884	167	-87	215	-10464	2624	12908	130	-16	-140	-15856	-1504	-2900	102	-214	58	-16248	2064	-304	319	-108	50	124	114	8
-10992	-2988	11244	-137	105	-212	-16504	1120	-2136	69	-140	157	-15936	816	-2928	172	-101	248	-10476	2608	12924	119	36	-166	-15976	-1356	-2964	92	-156	61	-16280	1912	-184	363	-68	104	124	114	8
-10956	-2700	11344	-113	138	-142	-16540	1144	-2328	84	-105	94	-15968	832	-2916	134	-31	234	-10400	2580	12984	141	-2	-161	-15836	-1364	-2860	-14	-152	10	-16300	1864	-220	535	-49	44	124	114	8
-10976	-2896	11132	-114	139	-154	-16440	1128	-2280	144	-133	127	-16028	728	-2964	133	-48	305	-10428	2592	12904	129	12	-200	-15896	-1468	-2964	104	-173	10	-16200	1904	-248	678	5	70	123	114	8
-10976	-2860	11288	-108	144	-156	-16520	1012	-2172	91	-58	145	-16052	672	-2800	264	-24	280	-10428	2644	13016	122	-11	-167	-15852	-1432	-2924	253	-104	7	-16248	1916	-244	706	13	126	123	114	8
-10996	-2740	11340	-142	152	-156	-16552	1104	-2172	85	-84	152	-15940	792	-2856	227	-17	268	-10448	2588	12924	107	-38	-129	-15944	-1380	-2824	212	-75	21	-16320	2004	-120	738	24	88	124	114	8
-10980	-2860	11364	-92	186	-157	-16472	1020	-2168	86	-48	147	-16036	828	-2796	196	-56	272	-10504	2592	12960	120	-11	-178	-15868	-1376	-2912	154	-27	-9	-16408	2120	-244	714	-46	57	123	114	8
-11076	-2900	11228	-122	137	-170	-16520	1076	-2104	32	-22	180	-16012	916	-2852	152	-80	280	-10548	2588	12892	83	16	-163	-15884	-1464	-2988	171	-44	3	-16240	2084	-396	580	-71	85	124	114	8
-10972	-2856	11308	-90	138	-158	-16576	1020	-2048	129	21	174	-15968	860	-2964	101	-26	294	-10424	2596	12908	118	-18	-191	-15860	-1440	-2964	202	-59	-26	-16240	2056	-288	411	-105	109	124	114	8
-10992	-2916	11240	-98	110	-162	-16488	1068	-2120	147	12	189	-15984	780	-2920	88	-58	251	-10448	2628	12992	93	32	-174	-15928	-1468	-2880	116	-114	-25	-16436	2036	-272	390	-73	105	124	114	8
-10924	-2844	11280	-67	126	-139	-16508	1052	-2232	107	77	203	-15944	832	-3048	73	-47	265	-10420	2616	12888	107	31	-152	-15840	-1424	-2868	107	-71	-8	-16272	2008	-284	370	-94	99	124	114	8
-11036	-2820	11328	-64	130	-138	-16548	1104	-2204	116	69	206	-15976	780	-2984	49	-42	277	-10480	2592	12876	118	10	-130	-15840	-1456	-2840	61	-37	-40	-16256	2080	-136	245	-27	79	124	114	8
-10944	-2824	11364	-54	63	-138	-16492	1228	-2280	77	16	212	-15956	856	-3048	58	-60	253	-10468	2660	12896	137	-52	-133	-15900	-1368	-2864	35	-58	-43	-16320	2048	-196	155	-66	85	124	114	8
-11004	-2804	11348	-103	106	-116	-16504	1140	-2244	95	17	183	-15972	852	-3128	103	-49	225	-10504	2648	12824	91	-13	-162	-15948	-1392	-2780	27	-25	-42	-16196	1996	-112	204	-29	91	124	114	8
-10964	-2836	11300	-65	134	-140	-16540	1152	-2252	139	51	186	-15972	824	-3156	189	-46	242	-10448	2644	12872	110	16	-168	-15836	-1376	-2980	23	-5	-22	-16280	2028	-108	256	-6	59	124	115	8
-10984	-2896	11212	-97	137	-134	-16532	1120	-2244	138	67	193	-15952	856	-3032	195	-41	286	-10508	2656	12884	101	-7	-131	-15900	-1424	-2772	-10	-6	-37	-16272	1932	-208	207	58	95	124	114	8
-10932	-2824	11236	-90	112	-159	-16520	1180	-2168	136	71	215	-16016	884	-2988	136	-43	300	-10404	2664	12956	117	0	-186	-15852	-1356	-2936	33	36	-42	-16316	1976	-120	253	137	111	124	114	8
-10944	-2824	11356	-77	125	-149	-16476	1148	-2268	34	94	189	-16012	904	-3048	36	-49	303	-10524	2596	12968	78	57	-154	-15924	-1348	-2776	62	105	-55	-16316	1996	-52	350	139	82	124	114	8
-10996	-2784	11228	-74	118	-133	-16480	1140	-2240	25	79	212	-15964	936	-3088	-21	-9	252	-10424	2712	12944	116	-14	-181	-15924	-1364	-2776	70	132	-74	-16212	2012	0	422	163	154	124	114	8
-10980	-2864	11280	-78	137	-160	-16528	1088	-2288	16	59	216	-16032	856	-2976	-70	-35	240	-10496	2592	12844	117	-29	-154	-15928	-1372	-2896	-19	148	-105	-16284	2076	-144	435	187	183	124	115	8
-11012	-2788	11260	-110	145	-110	-16492	1124	-2144	50	78	253	-15952	776	-2928	-72	-60	214	-10448	2664	12916	97	-14	-160	-15960	-1376	-2876	78	174	-96	-16328	2112	-328	417	94	120	124	115	8
-11004	-2864	11364	-78	135	-125	-16452	1208	-2300	58	109	235	-15996	836	-3132	-112	-39	260	-10428	2628	12976	122	-32	-191	-15968	-1400	-2936	-16	210	-110	-16328	2128	-420	440	132	108	125	115	8
-10980	-2820	11364	-75	168	-142	-16464	1112	-2284	49	96	235	-15884	900	-3124	-95	-72	305	-10468	2628	12948	113	-42	-165	-15960	-1440	-3008	-70	155	-111	-16280	2024	-412	357	161	81	124	115	8
-10988	-2828	11308	-90	118	-108	-16512	1148	-2244	95	126	246	-15988	952	-3040	-6	-33	268	-10464	2628	12876	109	5	-204	-15880	-1524	-3156	-18	122	-92	-16264	2024	-584	336	231	40	124	115	8
-10928	-2816	11332	-70	149	-117	-16504	1260	-2416	82	123	205	-16012	956	-3000	20	-37	254	-10516	2608	12916	95	-8	-180	-15908	-1440	-3044	46	110	-69	-16280	2112	-616	263	264	34	124	115	8
-10904	-2760	11396	-87	139	-102	-16504	1240	-2164	41	69	198	-15924	928	-3100	10	-9	254	-10480	2628	12836	95	52	-191	-15932	-1464	-2988	15	71	-60	-16328	2120	-508	70	259	26	124	115	8
-10960	-2868	11260	-74	137	-130	-16516	1220	-2312	54	40	191	-15884	1012	-3172	3	-30	206	-10416	2588	12936	120	33	-106	-15900	-1412	-3020	-94	2	-28	-16180	2092	-556	13	282	78	124	115	8
-11016	-2824	11260	-108	153	-106	-16492	1184	-2368	73	28	183	-15904	980	-3276	-79	-35	152	-10504	2600	12968	139	19	-144	-15948	-1444	-3148	-93	-2	-18	-16312	2056	-492	65	195	61	124	115	8
-11016	-2868	11360	-160	161	-143	-16460	1248	-2464	44	-1	157	-15908	988	-3372	-82	-58	140	-10476	2596	12900	113	51	-181	-15960	-1416	-3044	-57	-36	-10	-16316	2084	-496	22	134	85	125	115	8
-11004	-2840	11240	-122	176	-139	-16484	1208	-2468	-12	-44	150	-15856	920	-3324	-27	-75	149	-10476	2644	12904	107	-16	-193	-15940	-1380	-3164	11	-37	15	-16232	2136	-508	41	74	124	125	115	8
-10944	-2864	11276	-113	185	-197	-16492	1244	-2432	43	-79	153	-15892	940	-3440	-22	-104	180	-10512	2592	12916	128	13	-169	-15920	-1368	-3116	-6	-87	-3	-16260	2012	-480	22	91	78	125	115	8
-10968	-2856	11224	-104	171	-161	-16432	1240	-2248	-12	-122	146	-15912	1036	-3324	18	-96	169	-10496	2588	12980	124	5	-155	-15868	-1324	-2916	-41	-92	-35	-16184	2080	-308	78	102	55	125	115	8
-10968	-2836	11292	-149	174	-172	-16448	1112	-2252	0	-119	82	-15904	912	-3068	56	-104	149	-10480	2596	12872	149	-26	-177	-15900	-1388	-3024	3	-55	7	-16312	2060	-176	58	81	36	124	115	8
-10992	-2824	11300	-118	193	-169	-16432	1300	-2316	46	-173	88	-15984	1100	-3128	27	-159	109	-10400	2584	13092	156	-10	-135	-15972	-1400	-2884	23	-53	-21	-16312	2176	-248	-8	90	27	125	115	8
-10996	-2868	11268	-101	144	-163	-16472	1264	-2256	18	-120	126	-15940	1076	-2900	12	-162	71	-10460	2528	12924	136	-42	-107	-15876	-1264	-2844	-49	-38	-27	-16264	2148	-208	-160	127	29	124	115	8
-10956	-2856	11200	-111	198	-196	-16512	1212	-2200	20	-91	69	-16000	976	-3088	-75	-129	9	-10468	2640	13104	78	-14	-173	-15888	-1308	-2956	-159	27	-86	-16352	2140	-72	-157	96	50	125	115	8
-10948	-2864	11240	-141	170	-165	-16512	1156	-2112	-3	-106	129	-15972	936	-3084	-138	-88	-20	-10448	2676	12904	119	5	-150	-15788	-1420	-2832	-133	22	-100	-16344	2088	-192	-158	91	21	124	115	8
-10972	-2872	11356	-112	149	-185	-16484	1196	-2224	-15	-42	94	-16000	876	-3008	-183	-101	15	-10500	2580	12924	125	-37	-181	-15896	-1492	-3004	-13	93	-104	-16256	1908	-440	-39	142	12	124	114	8
-11004	-2776	11316	-96	169	-170	-16464	1164	-2184	-49	-28	108	-16020	924	-3024	-228	-141	29	-10496	2632	12908	91	-38	-193	-15868	-1344	-2976	12	96	-132	-16188	2004	-388	24	204	19	124	115	8
-10968	-2820	11260	-118	126	-136	-16460	1224	-2260	-21	-9	104	-15944	852	-3000	-224	-133	17	-10392	2600	13024	102	-34	-146	-15900	-1448	-2960	-92	93	-141	-16332	2040	-256	-24	295	-34	124	114	8
-11016	-2864	11184	-113	150	-140	-16556	1196	-2288	-11	-29	93	-16016	844	-3052	-243	-130	40	-10500	2636	12876	126	-8	-136	-15888	-1464	-2900	-108	142	-155	-16304	2040	-292	85	294	-56	124	115	8
-10952	-2824	11244	-120	155	-161	-16520	1136	-2232	-65	16	136	-15960	804	-2960	-200	-90	22	-10488	2668	12940	90	63	-202	-15888	-1464	-2928	45	166	-74	-16304	2032	-296	123	450	-3	124	115	8
-11040	-2856	11188	-119	138	-151	-16480	1092	-2140	-17	28	89	-16048	856	-2964	-159	-109	22	-10468	2676	12924	113	-23	-171	-15876	-1308	-2888	16	217	-135	-16236	2120	-168	236	451	9	124	115	8
-11008	-2888	11236	-106	161	-142	-16516	1164	-2156	18	35	101	-15984	884	-3080	-195	-148	12	-10472	2652	12896	108	-41	-181	-15868	-1304	-3020	-96	229	-184	-16320	2076	-364	165	440	-82	124	115	8
-10940	-2868	11272	-103	205	-156	-16448	1180	-2188	-41	76	121	-15968	952	-2988	-245	-149	33	-10460	2660	12928	97	-17	-215	-15892	-1316	-2988	14	275	-174	-16348	2196	-416	179	292	-104	124	115	8
-10956	-2824	11324	-93	159	-139	-16500	1172	-2372	-60	30	79	-15884	988	-3132	-352	-161	46	-10432	2624	12920	97	-14	-209	-15868	-1348	-3192	-64	233	-176	-16292	2220	-728	165	236	-126	124	114	8
-10932	-2852	11324	-123	163	-131	-16524	1188	-2400	-120	-29	129	-15896	992	-3208	-421	-203	2	-10440	2588	12988	81	-15	-181	-15920	-1504	-3180	-21	212	-183	-16188	2120	-868	-9	171	-108	124	115	8
-10944	-2804	11248	-137	178	-182	-16528	1372	-2408	-47	-50	91	-15872	1012	-3256	-506	-224	-53	-10480	2648	12976	81	-32	-190	-15824	-1464	-3036	-21	110	-159	-16208	2008	-896	-107	220	-117	125	115	8
-11000	-2856	11284	-119	234	-199	-16436	1232	-2356	-195	-60	64	-15840	1016	-3384	-476	-210	-32	-10524	2588	12920	115	-40	-147	-15928	-1496	-3116	-124	104	-127	-16232	2032	-816	-196	145	-73	125	115	8
-11020	-2852	11292	-147	196	-180	-16480	1320	-2404	-120	-118	44	-15908	976	-3300	-420	-212	-76	-10520	2640	13000	132	-2	-170	-15892	-1544	-3272	-78	15	-113	-16268	2040	-856	-210	196	-10	125	115	8
-11048	-2892	11320	-166	207	-203	-16456	1184	-2304	-163	-169	47	-15836	856	-3364	-284	-193	-55	-10460	2584	12880	106	-10	-167	-15808	-1492	-3176	-31	-15	-80	-16208	2052	-740	-245	125	-23	125	115	8
-11024	-2804	11280	-173	209	-222	-16520	1152	-2340	10	-215	38	-15908	808	-3192	-142	-244	-80	-10480	2644	12880	107	8	-152	-15868	-1512	-3148	15	-44	-62	-16324	1992	-592	-308	171	-33	125	115	8
-10996	-2880	11212	-185	246	-219	-16496	1220	-2252	-82	-242	32	-15980	848	-3052	-145	-260	-60	-10448	2576	12972	120	-8	-149	-15912	-1372	-3004	107	-35	-31	-16272	1940	-700	-269	171	-58	125	115	8
-11016	-2904	11204	-128	212	-195	-16492	1024	-2272	-94	-242	12	-15960	916	-3124	-182	-220	-56	-10500	2580	12716	120	35	-186	-15812	-1668	-3280	-110	-14	-51	-16192	2116	-492	-186	302	-53	125	115	8
-10992	-2896	11284	-130	155	-193	-16528	1276	-2188	-130	-224	30	-16068	872	-2984	-179	-211	-80	-10484	2688	12820	126	-13	-147	-15892	-1384	-2948	-78	-51	-37	-16292	2172	-452	-389	250	-93	125	115	8
-10988	-2784	11264	-144	177	-192	-16508	1144	-2112	-100	-219	1	-16008	940	-2784	-286	-290	-65	-10412	2672	12800	119	-71	-145	-15848	-1312	-2988	-267	-1	-124	-16256	1956	-292	-399	311	-118	125	115	8
-10992	-2776	11308	-122	177	-154	-16536	1120	-2172	-118	-192	-26	-15948	896	-2844	-441	-195	-129	-10416	2612	12928	112	-54	-175	-15928	-1376	-3016	-76	81	-155	-16316	2024	-232	-344	307	-74	125	115	8
-11028	-2900	11212	-120	177	-193	-16504	1120	-2164	-91	-181	3	-16052	848	-2852	-508	-228	-177	-10424	2636	12912	98	-41	-188	-15924	-1316	-2928	-53	146	-220	-16296	2008	-304	-195	217	-58	125	115	8
-10964	-2848	11288	-138	167	-186	-16476	1252	-2256	-223	-122	-14	-16016	772	-2896	-534	-170	-140	-10412	2576	12832	75	-61	-187	-15796	-1324	-3000	-122	178	-230	-16372	2004	-460	-189	257	-55	125	115	8
-10984	-2880	11264	-131	193	-138	-16452	1076	-2116	-244	-43	12	-15996	636	-2920	-512	-266	-170	-10488	2588	12972	113	-97	-186	-15868	-1380	-3024	-126	265	-227	-16352	2004	-560	-367	139	-127	125	115	8
-11020	-2820	11180	-138	162	-187	-16488	944	-2104	-82	-28	58	-16092	804	-2840	-449	-279	-84	-10468	2608	12836	75	-70	-194	-15884	-1424	-3120	-205	242	-260	-16260	2008	-740	-203	172	-176	125	115	8
-11048	-2924	11296	-139	161	-152	-16528	1180	-2132	42	1	74	-16044	648	-2896	-517	-346	-136	-10504	2620	12916	53	-98	-181	-15840	-1496	-3020	-195	197	-263	-16276	2048	-752	-260	172	-183	125	115	8
-10928	-2800	11260	-126	170	-172	-16392	1112	-2336	-249	45	73	-15924	888	-3128	-608	-302	-107	-10452	2580	12956	87	-29	-176	-15896	-1532	-3188	-150	195	-264	-16344	2016	-764	-411	112	-139	124	115	8
-11040	-2824	11312	-123	139	-133	-16564	1028	-2284	-175	39	74	-15856	856	-3056	-607	-336	-180	-10468	2640	13036	70	-66	-185	-15864	-1536	-3272	-187	142	-248	-16276	1884	-996	-349	170	-173	125	115	8
-11044	-2916	11252	-131	163	-142	-16456	1064	-2360	-64	-43	72	-15980	832	-3196	-729	-309	-189	-10492	2560	12984	92	-56	-182	-15892	-1648	-3444	-155	60	-199	-16264	1856	-940	-302	84	-169	125	115	8
-11012	-2920	11216	-124	171	-184	-16540	1244	-2328	2	-79	49	-15824	748	-3168	-612	-331	-196	-10412	2640	12944	106	-2	-163	-15880	-1628	-3516	-120	73	-163	-16272	1844	-916	-288	84	-85	125	115	8
-11048	-2884	11264	-133	165	-185	-16472	1228	-2332	-131	-109	13	-15868	720	-3108	-549	-274	-152	-10484	2580	12872	108	-26	-163	-15872	-1584	-3376	22	-31	-119	-16252	1976	-920	-95	-20	-61	125	115	8
-11032	-2888	11300	-150	186	-200	-16444	1128	-2320	-169	-145	9	-15836	712	-3144	-356	-303	-103	-10448	2576	13004	107	-42	-151	-15804	-1512	-3232	44	-67	-104	-16232	1976	-928	-191	-33	-32	125	115	8
-11032	-2876	11248	-165	195	-207	-16440	1088	-2324	-78	-234	4	-15952	604	-3088	-169	-281	-57	-10528	2552	13000	119	-5	-168	-15828	-1452	-3168	-70	-101	-119	-16192	1932	-740	-190	-20	-48	125	115	8
-11004	-2936	11256	-167	179	-229	-16520	1024	-2228	56	-280	34	-15940	580	-2872	33	-272	-58	-10452	2612	13008	96	-26	-166	-15864	-1560	-3232	-48	-118	-96	-16292	1872	-620	-290	-72	-95	125	115	8
-11284	-2876	11328	-157	178	-183	-16560	1020	-2276	112	-292	-27	-16052	644	-2912	51	-219	-22	-10436	2628	12848	124	7	-164	-15892	-1464	-3200	50	-90	-56	-16308	1916	-456	-92	-32	-21	125	115	8
-11096	-2800	11232	-159	173	-178	-16492	1132	-2124	-32	-354	9	-15996	812	-2912	90	-186	-59	-10428	2604	12872	107	-61	-175	-15848	-1484	-3136	91	-86	-119	-16252	1892	-564	-14	-11	-50	125	115	8
-11076	-2940	11184	-161	194	-227	-16472	1080	-2096	-34	-246	-12	-16000	860	-2740	-58	-218	-44	-10428	2636	12892	105	0	-181	-15824	-1416	-3128	-7	-16	-115	-16252	1944	-552	-8	52	-85	125	115	8
-11052	-2888	11176	-161	183	-187	-16564	1108	-1920	20	-217	-2	-16128	784	-2736	-157	-276	-79	-10468	2612	12984	99	-65	-160	-15932	-1440	-3140	-35	-24	-111	-16256	1936	-640	-14	30	-62	124	115	8
-10940	-2912	11208	-102	179	-209	-16508	1040	-2076	33	-170	14	-16020	796	-2704	-229	-209	-83	-10452	2620	12984	99	-8	-191	-15884	-1460	-3204	-81	4	-153	-16296	1968	-576	-11	12	-103	124	114	8
-10996	-2832	11292	-179	174	-185	-16524	1108	-2068	-66	-147	8	-16028	724	-2796	-392	-182	-127	-10420	2624	12984	84	-64	-154	-15908	-1512	-3148	-36	1	-186	-16312	1948	-664	140	2	-112	124	115	8
-11024	-2916	11140	-137	180	-179	-16564	1048	-2040	-129	-200	22	-15968	632	-2816	-429	-179	-101	-10500	2572	12924	103	-41	-163	-15796	-1532	-3144	-51	15	-157	-16260	1848	-740	98	39	-103	125	115	8
-11060	-2928	11112	-136	161	-185	-16492	980	-2136	-57	-162	26	-16036	524	-2852	-324	-195	-46	-10456	2532	13004	122	6	-168	-15884	-1556	-3216	-36	-1	-162	-16268	1844	-712	156	17	-94	124	115	8
-11004	-2920	11280	-151	174	-193	-16520	1056	-2032	47	-147	52	-16064	588	-2908	-59	-160	-7	-10464	2628	13064	83	-35	-157	-15848	-1620	-3216	-34	-44	-137	-16264	1896	-840	134	52	-84	124	115	8
-10988	-2884	11196	-113	156	-208	-16504	1040	-2056	64	-107	32	-16012	536	-2900	19	-147	-31	-10420	2620	12840	71	-34	-145	-15896	-1528	-3296	-59	-18	-160	-16248	1912	-616	100	-6	-48	124	115	8
-11052	-2920	11136	-147	141	-189	-16520	1008	-1904	31	-141	45	-16000	532	-2828	-4	-106	25	-10440	2584	13036	119	-39	-190	-15868	-1552	-3152	-49	-32	-149	-16272	1876	-588	58	4	-44	124	115	8
-10996	-2892	11260	-148	134	-215	-16512	1052	-1976	74	-86	48	-16088	620	-2824	16	-124	62	-10424	2596	12956	141	-16	-120	-15880	-1592	-3276	-26	-47	-152	-16304	1796	-652	54	43	-67	124	114	8
-11028	-2944	11256	-109	145	-216	-16512	1048	-1992	34	-94	45	-16048	608	-2732	83	-94	97	-10496	2664	12840	112	-34	-155	-15864	-1528	-3204	67	-18	-165	-16280	1792	-532	117	-8	-45	124	114	8
-10956	-2968	11240	-155	136	-201	-16488	992	-2264	203	-81	26	-15964	540	-2840	70	-71	103	-10464	2580	12920	105	55	-165	-15844	-1512	-3048	3	-48	-137	-16284	1760	-544	253	5	-44	124	114	8
-11036	-2964	11208	-170	149	-196	-16540	996	-1936	-5	-71	102	-16052	592	-2764	66	-71	132	-10460	2600	12880	86	-36	-162	-15888	-1524	-3132	15	6	-126	-16332	1800	-584	245	28	2	124	115	8
-10956	-2928	11252	-109	127	-166	-16544	996	-2000	91	-43	70	-16020	500	-2720	-24	-109	105	-10472	2536	13056	107	-13	-170	-15836	-1580	-3296	2	-37	-108	-16268	1812	-628	330	26	-27	124	115	8
-11024	-2880	11172	-109	174	-181	-16448	1032	-1952	86	-18	93	-15976	600	-2748	-48	-84	146	-10444	2588	12944	118	-59	-172	-15824	-1572	-3280	96	35	-95	-16288	1852	-616	371	-13	-26	124	115	8
-11020	-2900	11108	-133	122	-174	-16556	1076	-2004	21	78	82	-16016	612	-2772	19	-71	151	-10432	2548	12980	69	-28	-160	-15864	-1480	-3188	70	-2	-106	-16264	1920	-620	326	85	-35	124	115	8
-10996	-2980	11184	-116	133	-218	-16504	924	-2080	99	26	106	-16040	568	-2744	41	-48	153	-10424	2564	12892	98	-49	-129	-15896	-1492	-3224	52	18	-117	-16320	1864	-532	297	69	11	125	115	8
-11016	-2948	11228	-124	123	-172	-16532	1004	-1988	137	108	123	-16008	572	-2740	87	-36	113	-10488	2580	13028	108	-5	-161	-15848	-1560	-3144	93	66	-157	-16324	1792	-516	361	87	-36	124	115	8
-11020	-2932	11216	-120	129	-148	-16548	940	-2012	129	114	165	-16040	524	-2892	159	-41	175	-10452	2624	12964	127	-26	-158	-15856	-1492	-3204	189	83	-107	-16356	1736	-604	362	148	23	125	115	8
-10988	-2880	11272	-90	121	-150	-16536	1032	-2080	180	133	147	-15952	516	-2740	241	-52	207	-10432	2552	12884	104	-24	-177	-15832	-1632	-3224	290	107	-182	-16268	1812	-528	430	89	-37	125	115	8
-11024	-2924	11208	-43	94	-143	-16432	1024	-2132	119	121	195	-15956	604	-2836	279	30	275	-10340	2568	12952	121	45	-153	-15820	-1548	-3220	263	179	-143	-16308	1844	-580	468	63	-10	125	115	8
-11044	-2900	11164	-56	99	-132	-16512	984	-2120	136	128	146	-15992	588	-2940	317	1	288	-10436	2580	12984	135	-6	-229	-15832	-1548	-3152	95	155	-159	-16324	1876	-600	537	106	-44	125	115	8
-11024	-2924	11172	-76	88	-159	-16536	1056	-2084	138	137	178	-16036	684	-2768	284	-28	292	-10464	2620	12920	117	3	-177	-15828	-1536	-3148	85	172	-111	-16232	1900	-716	473	81	-7	124	115	8
-11084	-2876	11228	-111	108	-128	-16472	1004	-2048	187	141	116	-15960	680	-2852	257	-8	289	-10424	2584	12844	142	-13	-149	-15748	-1556	-3164	127	162	-162	-16316	1904	-608	358	-38	-10	124	115	8
-11064	-2944	11252	-43	117	-126	-16504	1080	-2188	188	210	167	-15984	692	-2932	212	20	244	-10436	2692	12872	130	21	-188	-15784	-1524	-3308	-72	145	-146	-16348	1904	-592	309	-3	-50	125	115	8
-11076	-2916	11248	-93	143	-121	-16496	1016	-2228	223	202	143	-16036	524	-2928	293	24	232	-10448	2580	12984	123	-72	-165	-15788	-1716	-3344	27	142	-168	-16284	1872	-672	172	-66	-3	124	115	8
-11036	-2996	11208	-75	118	-151	-16516	1048	-2220	279	185	181	-15996	560	-3060	304	67	261	-10440	2584	12976	112	-36	-182	-15888	-1600	-3276	-4	146	-170	-16216	1800	-876	186	-19	-7	124	115	8
-10956	-2924	11228	-78	116	-134	-16460	1048	-2048	225	194	171	-15972	616	-3072	259	18	288	-10428	2616	12852	99	-66	-182	-15836	-1648	-3376	-71	136	-139	-16268	1792	-932	250	-43	-9	125	115	8
-11004	-2860	11268	-49	111	-147	-16616	1060	-2140	234	171	151	-15940	648	-3168	323	-25	295	-10396	2528	13000	101	-18	-166	-15832	-1688	-3476	-13	64	-98	-16216	1820	-948	277	-6	-47	125	115	8
-10996	-2928	11116	-106	142	-156	-16508	1048	-2184	281	159	178	-15916	676	-3208	337	-52	257	-10460	2588	12944	93	-59	-149	-15828	-1636	-3336	27	-7	-73	-16272	1732	-1012	285	5	29	124	115	8
-11040	-2872	11116	-98	99	-134	-16500	952	-2392	284	144	180	-15940	704	-3260	249	-69	246	-10468	2564	12932	125	-50	-169	-15864	-1668	-3412	35	-60	-64	-16332	1728	-888	451	-90	31	125	115	8
-10992	-2912	11296	-98	141	-153	-16488	1020	-2376	178	77	171	-15884	732	-3384	194	-67	240	-10388	2644	12952	91	24	-163	-15812	-1764	-3228	33	-124	-51	-16308	1776	-800	515	-136	41	124	115	8
-10980	-2856	11264	-120	139	-186	-16528	1040	-2472	122	20	135	-15880	756	-3376	147	-92	241	-10440	2556	12936	89	10	-157	-15772	-1652	-3336	88	-125	-18	-16240	1784	-912	445	-172	77	125	115	8
-11092	-2928	11296	-99	92	-147	-16524	1004	-2472	132	-54	120	-15908	712	-3296	172	-122	236	-10428	2608	12920	137	-5	-152	-15876	-1608	-3488	19	-190	-17	-16316	1820	-908	309	-256	138	125	115	8
-11004	-2824	11272	-77	126	-157	-16528	1140	-2320	144	-125	139	-15916	696	-3272	193	-140	214	-10444	2528	12896	121	3	-145	-15804	-1660	-3252	-12	-248	-9	-16340	1964	-772	103	-229	139	125	115	8
-10984	-2868	11240	-103	124	-193	-16516	1040	-2200	64	-143	112	-15944	668	-3216	181	-147	231	-10444	2544	13020	98	-15	-122	-15820	-1624	-3264	-29	-243	26	-16300	1908	-660	70	-234	133	125	115	8
-11040	-2704	11244	-116	111	-145	-16424	1252	-2372	-3	-98	16	-15852	756	-3060	283	-91	282	-10488	2604	12976	136	-38	-93	-15804	-1604	-3216	-33	-246	16	-16292	1740	-584	113	-310	131	125	115	8
-11028	-2796	11316	-122	109	-186	-16604	888	-2292	-35	-209	52	-15960	648	-3056	419	-73	285	-10452	2572	13052	106	-58	-133	-15824	-1540	-3240	-48	-246	25	-16260	1748	-700	218	-296	132	125	115	8
-10988	-2764	11316	-121	120	-198	-16520	988	-2172	237	-248	83	-15924	632	-3008	424	-60	282	-10452	2620	12936	123	-28	-131	-15796	-1564	-3148	-45	-249	-8	-16300	1828	-600	252	-266	163	125	115	8
-11012	-2900	11244	-114	85	-215	-16452	1060	-2148	159	-193	101	-16092	560	-2796	536	-86	301	-10468	2616	13032	119	-56	-153	-15860	-1548	-3208	-61	-251	44	-16324	1772	-528	359	-251	123	125	115	8
-11016	-2972	11268	-139	152	-174	-16512	896	-2072	212	-157	96	-16084	644	-2792	424	-106	276	-10444	2564	12956	100	-13	-190	-15792	-1640	-3328	-19	-263	1	-16212	1740	-640	452	-203	152	125	115	8
-10968	-2960	11256	-95	92	-194	-16568	872	-1996	188	-79	177	-16048	580	-2776	338	-133	308	-10444	2592	13016	119	0	-135	-15812	-1604	-3172	119	-242	18	-16332	1808	-616	577	-142	98	124	115	8
-10976	-2816	11264	-104	94	-148	-16500	1016	-2176	129	-31	167	-16016	684	-2844	254	-115	241	-10468	2620	12916	134	-22	-141	-15876	-1508	-3320	64	-279	73	-16332	1860	-656	516	-86	110	124	114	8
-10976	-2868	11240	-65	113	-135	-16624	964	-2116	120	-20	158	-16012	660	-2816	114	-91	204	-10472	2580	12968	115	-14	-124	-15856	-1548	-3240	21	-266	34	-16324	1880	-480	379	-181	95	124	115	8
-11024	-2960	11236	-97	109	-139	-16472	1080	-2128	150	-43	172	-15948	652	-3032	95	-106	250	-10448	2560	12972	115	12	-170	-15844	-1592	-3240	81	-262	51	-16312	1820	-496	328	-173	128	124	115	8
-11028	-2936	11148	-95	145	-156	-16560	1048	-2120	133	-26	181	-15952	640	-3020	107	-80	281	-10412	2532	13024	143	10	-129	-15772	-1608	-3136	86	-250	21	-16292	1796	-600	428	-138	134	124	115	8
-11000	-2864	11340	-78	121	-131	-16480	1056	-2172	80	-22	182	-15948	648	-2920	199	-88	289	-10460	2540	12960	140	-40	-142	-15840	-1548	-3240	143	-268	48	-16268	1768	-472	584	-148	111	124	115	8
-11024	-2908	11240	-86	126	-164	-16564	988	-2132	168	3	185	-15964	500	-2956	321	-35	295	-10480	2576	12948	141	-27	-172	-15768	-1588	-3164	182	-230	45	-16232	1788	-492	763	-148	126	124	115	8
-11040	-2944	11184	-65	87	-150	-16528	1000	-2044	238	-6	241	-15992	556	-2956	468	-61	349	-10464	2644	12940	138	-74	-157	-15868	-1500	-2992	170	-236	49	-16420	1904	-536	660	-208	166	125	115	8
-10992	-2852	11260	-82	82	-147	-16456	944	-2036	241	37	178	-16028	492	-3032	506	-49	385	-10444	2596	12932	132	47	-106	-15896	-1528	-3100	33	-204	39	-16300	1828	-608	609	-216	159	124	114	8
-10972	-2828	11280	-94	113	-150	-16500	1184	-2192	287	-37	183	-15884	712	-3136	599	-36	451	-10500	2592	12944	127	21	-169	-15816	-1584	-3076	158	-193	65	-16248	1848	-500	579	-232	156	125	115	8
-11036	-2932	11140	-76	110	-202	-16604	848	-2260	270	-61	205	-15972	756	-3000	586	-32	471	-10468	2624	12928	128	-8	-112	-15932	-1600	-2976	210	-181	106	-16372	1788	-500	660	-192	154	125	115	8
-10988	-2924	11200	-76	131	-210	-16564	1008	-2208	270	-69	302	-16008	768	-3020	497	-75	409	-10468	2572	13064	128	33	-119	-15868	-1532	-3068	151	-128	76	-16296	1816	-504	656	-187	160	125	115	8
-11028	-2792	11312	-64	135	-163	-16504	1092	-2264	164	-29	255	-15932	772	-2988	317	-115	370	-10464	2604	12960	124	6	-149	-15828	-1580	-3120	84	-160	83	-16316	1852	-556	594	-243	178	125	115	8
-11040	-2916	11312	-78	105	-129	-16496	952	-2060	46	-16	235	-16056	716	-3044	167	-150	348	-10516	2620	12876	133	10	-114	-15800	-1484	-3148	57	-180	82	-16268	1884	-612	495	-263	179	125	115	8
-11072	-2876	11224	-68	96	-123	-16524	968	-2244	124	-11	212	-15940	688	-3080	80	-166	354	-10456	2588	12944	132	29	-150	-15908	-1560	-3160	145	-186	113	-16300	1848	-480	504	-128	213	125	115	8
-10952	-2836	11292	-53	85	-139	-16492	1064	-2236	88	-60	307	-15924	692	-3044	39	-128	328	-10472	2588	12832	99	8	-103	-15828	-1536	-3008	145	-173	128	-16264	1908	-596	415	-230	187	125	115	8
-10996	-2864	11288	-71	119	-160	-16504	1048	-2228	46	-50	243	-15940	828	-3120	29	-165	346	-10468	2604	12876	148	-1	-127	-15816	-1504	-3060	34	-201	85	-16324	1916	-556	393	-252	155	125	115	8
-11008	-2900	11200	-107	129	-136	-16556	1032	-2040	44	-93	279	-15976	796	-3024	50	-154	343	-10428	2600	12888	149	-17	-73	-15852	-1448	-3048	78	-215	112	-16216	1920	-432	270	-244	157	125	115	8
-11004	-2828	11336	-54	72	-156	-16492	1048	-2180	78	-83	256	-15992	840	-2892	110	-170	327	-10416	2588	12968	159	-17	-134	-15868	-1536	-3088	100	-216	94	-16344	1960	-424	343	-167	200	125	115	8
-10948	-2900	11184	-76	119	-163	-16528	1144	-2160	49	-75	235	-15968	800	-2880	135	-107	334	-10432	2616	13064	147	-13	-121	-15884	-1444	-3032	124	-152	107	-16276	1932	-384	393	-104	196	125	115	8
-10980	-2880	11276	-91	99	-133	-16484	1096	-2068	60	-62	244	-16024	824	-2924	147	-91	335	-10452	2668	12916	132	16	-169	-15844	-1480	-2988	68	-156	88	-16324	1940	-256	442	-89	159	125	115	8
-10944	-2888	11188	-100	146	-132	-16548	1108	-2120	45	-61	241	-15992	864	-2964	153	-120	323	-10452	2628	12944	124	23	-172	-15924	-1432	-2936	25	-146	77	-16312	2024	-356	451	-83	127	125	115	8
-10992	-2864	11276	-101	121	-155	-16500	1088	-2064	18	-38	247	-16024	788	-2876	9	-131	321	-10440	2560	12872	135	53	-176	-15968	-1512	-3076	23	-129	41	-16380	1944	-288	371	-75	133	125	115	8
-10988	-2848	11212	-102	122	-124	-16496	1000	-2096	-11	-17	288	-16036	832	-2876	-11	-78	310	-10468	2596	12984	139	17	-151	-15916	-1472	-3100	50	-119	71	-16292	2044	-348	324	-117	151	125	115	8
-10972	-2876	11244	-52	81	-137	-16524	1092	-2144	-6	8	273	-16036	852	-2928	-93	-82	290	-10432	2652	12900	108	7	-154	-15868	-1408	-2984	92	-116	61	-16328	2012	-400	215	-109	123	125	115	8
-11004	-2916	11248	-81	147	-128	-16460	1136	-2128	-61	53	235	-15964	864	-2896	-166	-115	291	-10544	2656	12916	127	-20	-139	-15908	-1448	-2924	-82	-106	48	-16244	1960	-440	98	-124	113	124	115	8
-10920	-2920	11288	-82	95	-149	-16444	1076	-2128	-99	90	245	-15884	764	-3048	-135	-88	355	-10420	2640	12880	107	31	-162	-15928	-1376	-3036	-76	-96	34	-16344	2008	-420	12	-157	149	125	115	8
-11000	-2852	11240	-74	91	-119	-16556	1080	-2096	5	25	263	-15972	692	-2952	-73	-76	330	-10444	2588	12908	112	15	-148	-15948	-1384	-3028	-141	-106	16	-16228	2080	-508	-80	-234	195	125	115	8
-10936	-2908	11308	-95	122	-146	-16544	1100	-2192	45	9	275	-15928	648	-2952	21	-33	389	-10472	2580	12832	79	-48	-152	-15840	-1432	-3012	-362	-157	-5	-16264	2032	-404	-252	-258	167	125	115	8
-11000	-2896	11208	-98	92	-149	-16472	1088	-2208	24	36	276	-15988	744	-3012	133	-52	391	-10468	2596	12900	87	-19	-96	-15900	-1560	-3008	-355	-136	17	-16324	1844	-408	-187	-247	170	125	115	8
-11024	-2912	11388	-47	126	-138	-16548	1104	-2132	39	50	302	-15944	784	-2908	233	-53	430	-10472	2588	12924	142	-20	-118	-15852	-1676	-3152	-216	-130	55	-16296	1752	-680	-75	-194	224	125	115	8
-10992	-2928	11188	-86	122	-154	-16492	1088	-2048	43	24	304	-15980	740	-2976	225	-33	467	-10400	2608	12876	139	-2	-109	-15884	-1556	-3180	7	-191	107	-16204	1752	-660	-40	-176	213	125	115	8
-10904	-2920	11260	-50	85	-164	-16516	1076	-2036	83	111	356	-15940	736	-2948	346	-64	473	-10528	2608	12884	150	-11	-89	-15968	-1476	-3196	-24	-231	155	-16276	1912	-576	331	-217	258	125	115	8
-10980	-2832	11260	-71	80	-127	-16500	1044	-2044	160	124	318	-15964	812	-2944	362	-26	478	-10472	2564	12944	128	37	-92	-15904	-1432	-2948	91	-230	161	-16312	1936	-416	381	-201	276	125	115	8
-11008	-2852	11240	-58	78	-118	-16580	1120	-2108	178	96	360	-16076	808	-2936	364	-52	515	-10456	2620	12928	127	23	-99	-15904	-1412	-3088	228	-219	181	-16316	2076	-372	545	-234	281	125	115	8
-10952	-2828	11296	-22	104	-119	-16528	1152	-2132	225	149	376	-16020	812	-3028	391	-12	551	-10460	2640	12968	166	17	-106	-15868	-1400	-3076	282	-222	168	-16340	1952	-232	604	-198	265	125	115	8
-10948	-2852	11252	-29	63	-109	-16444	1148	-2036	207	149	426	-16040	756	-2876	431	-19	520	-10492	2568	12984	167	20	-75	-15824	-1352	-2892	333	-190	160	-16204	2064	-232	735	-163	281	125	115	8
-10892	-2836	11284	-47	86	-147	-16456	1092	-2056	277	188	420	-15976	784	-2992	469	-46	536	-10468	2620	12900	161	-17	-128	-15916	-1360	-2852	208	-141	158	-16308	2064	-216	720	-317	242	125	115	8
-11080	-2756	11388	-13	106	-134	-16488	1088	-2184	443	221	437	-16052	844	-2996	528	-113	560	-10508	2628	12896	156	-3	-94	-15920	-1384	-2956	127	-167	115	-16244	2080	-308	777	-232	275	125	115	8
-10936	-2844	11340	-41	91	-110	-16524	1284	-2176	71	220	435	-15948	868	-2960	576	-113	554	-10508	2620	12920	165	-36	-90	-15852	-1372	-3080	181	-142	113	-16276	2088	-244	639	-177	272	125	115	8
-11000	-2896	11244	-16	65	-121	-16520	1196	-2272	406	194	423	-15948	956	-3084	462	-89	544	-10428	2624	12900	131	-56	-85	-15860	-1328	-3004	71	-159	110	-16228	2128	-396	588	-214	238	125	115	8
-10948	-2836	11312	-12	71	-127	-16460	1268	-2056	311	239	443	-15928	1064	-3068	482	-138	519	-10496	2596	12992	107	-14	-90	-15848	-1372	-2928	-6	-151	105	-16280	2104	-396	422	-254	262	125	115	8
-11000	-2948	11288	8	123	-120	-16508	1136	-2132	143	284	453	-15972	976	-3052	526	-123	487	-10484	2684	12852	128	-13	-114	-15952	-1324	-2900	-49	-194	68	-16336	2160	-404	372	-243	245	125	115	8
-10916	-2836	11332	-39	96	-89	-16484	1228	-2272	306	262	448	-15892	1024	-3104	464	-89	452	-10472	2644	12936	108	-8	-119	-15972	-1364	-2948	-60	-190	85	-16248	2132	-352	313	-231	244	125	115	8
-10944	-2888	11344	-17	85	-87	-16452	1264	-2256	489	209	428	-15972	996	-3048	444	-98	461	-10472	2628	12868	113	-57	-133	-15904	-1236	-2924	-91	-216	48	-16244	2160	-296	318	-260	217	125	115	8
-10976	-2772	11400	-43	86	-103	-16464	1356	-2232	559	224	406	-15940	1060	-3156	386	-103	503	-10468	2648	12832	123	-30	-136	-15920	-1356	-2884	41	-195	64	-16328	2028	-424	470	-225	279	125	115	8
-10992	-2784	11312	15	83	-112	-16476	1432	-2148	393	206	382	-15964	1144	-3204	431	-34	488	-10476	2712	12908	134	-19	-128	-15924	-1352	-2944	179	-177	73	-16260	1980	-244	634	-245	208	125	115	8
-10988	-2884	11316	-26	103	-132	-16436	1384	-2384	256	176	353	-15796	1244	-3320	503	-61	518	-10480	2660	12900	116	-42	-135	-15924	-1372	-2932	226	-175	136	-16280	2140	-232	752	-288	196	125	115	8
-10992	-2780	11244	-60	121	-122	-16460	1396	-2340	317	95	346	-15916	1148	-3332	496	-73	493	-10500	2720	12864	168	-17	-116	-16012	-1252	-2908	196	-179	103	-16252	2228	-104	748	-248	212	125	115	8
-10996	-2828	11280	-82	82	-150	-16444	1420	-2332	340	35	341	-15972	1192	-3308	525	-105	467	-10468	2636	12916	139	-46	-118	-15916	-1276	-2960	130	-180	98	-16268	2232	-80	676	-182	152	125	115	8
-11016	-2772	11316	-72	106	-133	-16496	1428	-2372	266	32	297	-15912	1236	-3204	465	-121	446	-10464	2624	12900	122	15	-130	-15876	-1336	-2716	241	-118	19	-16280	2264	-200	606	-205	162	125	115	8
-10932	-2852	11256	-59	109	-137	-16460	1412	-2432	129	24	276	-15928	1244	-3112	325	-98	414	-10320	2760	13056	105	-68	-142	-16000	-1300	-2884	233	-122	200	-16340	2204	-4	440	-156	134	125	115	8
-10976	-2832	11372	-96	99	-135	-16472	1356	-2276	73	-1	245	-15928	1236	-3124	198	-131	311	-10412	2676	13040	129	-26	-155	-15928	-1176	-2812	-16	-136	-43	-16308	2196	-192	356	-95	108	126	115	8
-10980	-2780	11284	-64	111	-112	-16460	1364	-2352	98	-23	242	-15932	1164	-3252	153	-147	276	-10488	2688	12896	108	-35	-122	-15912	-1200	-2828	-10	-122	-40	-16244	2364	-148	84	-132	122	126	115	8
-11020	-2876	11252	-109	139	-153	-16516	1396	-2304	94	15	217	-15984	1180	-3128	103	-144	196	-10424	2680	12904	75	-51	-163	-15916	-1216	-3004	-183	-108	-66	-16276	2260	-220	33	-118	72	126	115	8
-10968	-2716	11340	-68	110	-154	-16508	1300	-2344	117	-5	209	-15892	1152	-3172	-29	-201	253	-10468	2620	12848	107	-8	-121	-15968	-1320	-2984	-149	-114	-37	-16276	2204	-320	-91	-149	50	125	115	8
-10968	-2788	11328	-125	159	-128	-16436	1360	-2340	52	-48	207	-15908	1164	-3148	-45	-159	203	-10452	2640	12988	100	-80	-164	-15948	-1260	-2968	-131	-120	-31	-16332	2272	-180	-84	-148	34	125	115	8
-10984	-2784	11388	-112	123	-188	-16448	1360	-2292	32	-39	144	-15948	1128	-3184	12	-192	209	-10508	2672	12848	87	-39	-143	-15952	-1268	-2932	-126	-133	-56	-16256	2188	-272	-31	-136	28	125	115	8
-11008	-2776	11296	-108	166	-146	-16464	1392	-2380	44	-82	182	-15912	1228	-3272	39	-210	187	-10444	2596	12864	93	-45	-119	-15916	-1276	-2924	-67	-134	-13	-16284	2076	-336	102	-118	92	125	115	8
-10908	-2812	11344	-130	136	-152	-16416	1272	-2400	5	-82	110	-15952	1164	-3192	44	-229	176	-10420	2648	13024	122	19	-149	-15868	-1348	-3068	-30	-147	-16	-16332	2116	-124	195	-87	74	125	115	8
-10916	-2780	11308	-74	144	-130	-16472	1352	-2380	9	-94	130	-15908	1168	-3204	-6	-228	126	-10484	2600	12952	156	-60	-129	-15884	-1296	-3032	17	-126	-6	-16300	2208	-176	208	-82	47	125	115	8
-10968	-2824	11376	-106	144	-205	-16460	1388	-2448	-51	-87	123	-15976	1172	-3196	-65	-228	112	-10436	2672	13008	83	-12	-129	-15916	-1228	-2836	-39	-138	-27	-16276	2276	-116	43	-95	5	125	115	8
-10960	-2776	11364	-107	160	-170	-16428	1364	-2248	-86	-162	102	-15912	1156	-3160	-128	-236	92	-10436	2672	13016	105	-28	-118	-15976	-1280	-2844	-63	-91	-61	-16252	2156	-180	-22	-28	35	125	115	8
-10972	-2812	11260	-112	153	-170	-16464	1388	-2228	-116	-109	110	-15948	1140	-3188	-194	-241	96	-10468	2704	12924	76	-31	-125	-15892	-1276	-2836	-150	-95	-44	-16168	2152	-240	-100	-65	39	125	115	8
-10932	-2844	11256	-144	159	-171	-16492	1308	-2284	-114	-112	106	-15976	1096	-3036	-217	-258	67	-10448	2652	12928	59	-38	-136	-15916	-1288	-2776	-176	-55	-63	-16276	2172	-168	-132	29	33	125	115	8
-10920	-2828	11244	-120	172	-173	-16548	1208	-2224	-124	-113	144	-16004	1012	-2972	-299	-329	19	-10448	2656	12924	118	-48	-135	-15916	-1324	-2820	-228	-84	-52	-16280	2008	-232	-133	63	17	125	115	8
-10988	-2780	11356	-89	150	-158	-16424	1340	-2152	-193	-66	134	-16000	1008	-2972	-343	-367	53	-10424	2664	12836	114	-5	-142	-15912	-1292	-2904	-146	-112	-67	-16240	2192	-336	-39	71	28	125	115	8
-10984	-2756	11276	-133	130	-127	-16412	1336	-2300	-70	-56	149	-16056	1084	-2928	-386	-377	-5	-10480	2612	12916	108	4	-159	-15856	-1292	-2864	-101	-134	-32	-16364	2188	-164	-76	54	11	125	115	8
-11012	-2756	11340	-103	167	-151	-16460	1432	-2380	1	-98	161	-15860	1164	-3080	-410	-345	-38	-10464	2664	12928	120	-64	-137	-15884	-1272	-2824	-94	-106	-89	-16320	2172	-64	7	126	19	125	115	8
-10980	-2724	11388	-127	145	-163	-16428	1316	-2324	-54	-70	184	-15940	1116	-3084	-373	-295	-31	-10452	2640	12960	115	-68	-149	-15856	-1196	-2816	-64	-74	-62	-16328	2148	-108	16	49	-5	125	115	8
-10952	-2776	11228	-108	160	-152	-16508	1380	-2380	-43	-97	105	-15936	1108	-3108	-326	-329	-4	-10480	2652	12944	96	-50	-160	-15872	-1244	-2892	-91	-53	-60	-16308	2188	-220	42	80	43	125	115	8
-10984	-2808	11384	-111	175	-203	-16464	1400	-2260	-102	-102	127	-15976	1088	-3132	-315	-341	-25	-10436	2660	12896	87	-57	-158	-15968	-1316	-2784	-46	-54	-64	-16236	2160	-176	130	72	-12	125	115	8
-11024	-2748	11308	-110	148	-183	-16448	1432	-2308	-44	-126	104	-15972	1076	-2964	-291	-380	20	-10488	2688	13000	109	-63	-178	-15972	-1228	-2832	-51	-61	-68	-16292	2220	-232	37	45	-3	125	115	8
-10944	-2804	11168	-154	188	-188	-16484	1400	-2308	-75	-174	113	-15904	1076	-3020	-268	-373	-48	-10412	2636	12968	81	-62	-163	-15840	-1284	-2892	-122	-64	-102	-16316	2168	-208	-85	-11	-13	125	115	8
-10964	-2852	11232	-159	158	-205	-16432	1356	-2364	-69	-202	84	-15900	1096	-2980	-192	-362	10	-10456	2680	12956	76	-63	-191	-15956	-1224	-2856	-36	-47	-41	-16252	2280	-152	-100	-60	-26	125	115	8
-10992	-2804	11316	-126	146	-155	-16456	1368	-2236	-1	-226	124	-15992	1060	-3056	-200	-330	0	-10388	2652	12960	89	-91	-169	-15924	-1216	-2912	-103	-52	-83	-16304	2276	-320	-247	-21	-18	125	115	8
-10940	-2864	11268	-135	146	-194	-16512	1400	-2184	-158	-188	80	-15972	1172	-2964	-274	-319	-20	-10452	2648	12964	56	-81	-161	-15904	-1244	-2924	-181	-77	-91	-16300	2252	-236	-339	-54	-47	125	115	8
-10988	-2852	11236	-165	131	-171	-16532	1344	-2228	-113	-199	69	-15920	1112	-2996	-301	-366	-64	-10428	2624	12884	67	-70	-157	-15900	-1260	-2776	-260	-12	-108	-16208	2112	-112	-470	11	-22	125	115	8
-11004	-2876	11328	-143	117	-189	-16436	1368	-2296	-109	-251	59	-15988	1056	-3032	-352	-359	-107	-10488	2616	12916	46	-98	-194	-16052	-1232	-2976	-321	-41	-153	-16304	2064	-296	-377	8	-37	125	115	8
-10996	-2828	11340	-124	160	-181	-16460	1328	-2228	-135	-179	51	-16040	1076	-2900	-390	-381	-51	-10420	2716	12944	74	-42	-169	-15988	-1272	-2928	-186	-39	-137	-16252	2124	-348	-331	30	-38	125	115	8
-10980	-2772	11364	-153	147	-197	-16540	1300	-2064	-240	-185	55	-16032	976	-2772	-293	-402	-96	-10468	2684	13028	75	-5	-196	-16000	-1164	-2800	-151	-49	-66	-16284	2176	-160	-324	-56	-27	125	115	8
-10996	-2780	11356	-160	151	-173	-16492	1212	-2200	-89	-234	68	-15968	1024	-2924	-346	-412	-60	-10524	2732	12988	122	6	-210	-15852	-1108	-2760	-333	-93	-100	-16284	2288	-140	-432	-24	-32	125	115	8
-10968	-2752	11324	-120	157	-201	-16500	1316	-2208	-148	-138	80	-16032	1024	-2704	-352	-413	-90	-10452	2644	12952	146	10	-191	-15828	-1288	-2676	-146	24	-171	-16348	2204	12	-543	-175	-14	125	115	8
-11012	-2816	11236	-130	171	-203	-16472	1284	-2248	-81	-184	29	-15976	1032	-2836	-426	-379	-124	-10496	2668	12920	188	-83	-166	-15940	-1180	-2736	-162	96	-138	-16356	2088	28	-447	-198	-32	125	115	8
-10952	-2844	11312	-140	126	-157	-16524	1344	-2188	-82	-185	78	-16004	1028	-2884	-285	-397	-57	-10424	2608	13016	206	-52	-188	-15916	-1076	-2800	-226	117	-191	-16288	2220	156	-476	-249	-21	125	115	8
-10984	-2876	11284	-155	140	-172	-16516	1356	-2156	0	-198	51	-15968	980	-2796	-238	-380	-105	-10504	2684	12988	210	-53	-133	-15972	-1284	-2764	-183	205	-252	-16288	2208	296	-598	-239	-14	125	115	8
-10972	-2772	11284	-105	137	-213	-16468	1380	-2224	-69	-164	58	-16008	1004	-2844	-281	-373	-90	-10500	2616	12820	255	-184	-141	-15864	-1140	-2684	-171	304	-332	-16284	2136	392	-665	-353	-42	124	115	8
-10948	-2824	11368	-103	141	-219	-16468	1252	-2076	-145	-184	71	-16048	940	-2708	-281	-402	-51	-10492	2664	12928	249	-140	-117	-15912	-1220	-2832	-366	334	-352	-16312	2004	268	-630	-499	-82	125	115	8
-10952	-2844	11332	-114	149	-186	-16508	1272	-2044	-92	-194	67	-16036	952	-2828	-308	-393	-85	-10444	2772	12880	170	-121	-177	-15912	-1420	-2984	-361	344	-367	-16368	2184	24	-454	-410	-70	124	115	8
-11012	-2944	11284	-124	153	-177	-16448	1196	-2108	-168	-159	86	-16048	964	-2688	-344	-447	-91	-10380	2604	12876	122	-142	-216	-15964	-1576	-3236	-108	327	-328	-16212	2016	-336	-375	-278	-38	124	115	8
-11020	-2784	11256	-110	151	-171	-16416	1324	-2076	-137	-138	63	-16004	1108	-2720	-463	-426	-88	-10344	2700	13036	96	-139	-164	-16056	-1276	-3296	-227	200	-270	-16288	2088	-608	-294	-109	-145	124	114	8
-10972	-2772	11244	-157	183	-147	-16468	1292	-2100	-111	-105	21	-15964	1060	-2664	-532	-405	-195	-10460	2572	12988	102	-45	-177	-15888	-1488	-3268	-435	44	-251	-16184	2144	-576	-361	46	-172	125	115	8
-11060	-2872	11292	-153	160	-184	-16456	1280	-2196	-12	-76	63	-16072	1040	-2700	-548	-443	-230	-10444	2600	13036	135	-44	-140	-15912	-1532	-3088	-125	48	-151	-16360	2100	-408	-477	84	-117	125	115	8
-10964	-2868	11376	-119	177	-160	-16500	1304	-2084	-46	-92	26	-16008	996	-2804	-533	-370	-139	-10412	2664	12912	157	-72	-148	-15928	-1256	-2968	109	4	-147	-16280	2200	-48	-597	21	-125	125	115	8
-10980	-2920	11168	-128	193	-200	-16476	1340	-2152	-77	-141	0	-15932	824	-2836	-537	-366	-200	-10408	2668	12968	200	-88	-123	-15916	-1192	-2808	3	13	-215	-16320	2060	332	-735	22	-53	125	115	8
-10984	-2788	11268	-116	167	-157	-16560	1276	-2064	-57	-118	15	-16012	816	-2852	-366	-312	-134	-10380	2688	12948	183	-142	-109	-15940	-1200	-2796	-129	107	-261	-16376	2088	364	-652	-110	-50	125	115	8
-10920	-2860	11304	-147	175	-190	-16520	1316	-2196	24	-176	-15	-16044	840	-2816	-220	-332	-103	-10472	2704	12988	169	-91	-144	-15964	-1344	-2976	-112	198	-297	-16188	1972	96	-440	-112	-101	125	115	8
-11060	-2768	11300	-106	173	-193	-16476	1296	-2180	11	-189	-1	-15956	796	-2784	-192	-370	-59	-10372	2620	13096	156	-104	-142	-15884	-1332	-2916	115	247	-275	-16348	1976	320	-218	-116	-112	125	115	8
-10988	-2768	11272	-205	163	-165	-16540	1208	-2092	-8	-218	-19	-16040	872	-2768	-53	-394	-33	-10380	2736	12916	177	-119	-147	-15872	-1256	-3020	-54	295	-347	-16408	2036	212	39	-184	-145	125	115	8
-10956	-2836	11236	-140	186	-160	-16444	1364	-2220	-58	-166	-14	-16064	1052	-2576	-61	-369	-14	-10340	2668	12880	104	-139	-197	-15860	-1388	-3024	-170	261	-405	-16272	2048	104	286	-201	-138	125	115	8
-10988	-2768	11268	-170	133	-173	-16516	1240	-2132	-122	-197	-58	-15996	1024	-2524	-294	-332	-153	-10328	2628	12928	41	-91	-205	-15900	-1512	-3092	8	278	-311	-16360	2040	-100	297	-136	-168	125	115	8
-11040	-2908	11268	-146	194	-196	-16524	1380	-2064	-64	-212	-46	-16044	892	-2508	-336	-288	-214	-10364	2668	12952	32	-95	-201	-15888	-1548	-3220	31	261	-283	-16288	2112	-276	230	-61	-133	125	115	8
-10968	-2784	11244	-124	170	-194	-16480	1312	-2080	-220	-141	-50	-16084	864	-2484	-422	-223	-142	-10384	2636	12972	21	-91	-191	-15996	-1504	-3228	-162	111	-253	-16268	2148	-452	111	90	-215	125	115	8
-10968	-2888	11272	-185	173	-195	-16500	1092	-1860	-120	-86	-69	-16072	736	-2488	-444	-289	-158	-10424	2684	13072	38	-77	-207	-15940	-1516	-3268	-191	40	-236	-16248	2204	-424	-93	172	-221	125	115	8
-11040	-2832	11300	-145	180	-175	-16532	1184	-1876	-14	-79	-45	-16084	676	-2336	-445	-268	-207	-10412	2652	13048	64	-86	-189	-15816	-1440	-3204	-102	-1	-196	-16336	2060	-132	-411	102	-152	125	115	8
-11012	-2888	11296	-116	140	-182	-16472	1124	-1892	-19	-22	2	-16024	732	-2500	-360	-274	-145	-10396	2672	13100	140	-94	-169	-15880	-1404	-2932	-119	-78	-258	-16352	2120	-124	-477	19	-208	125	115	8
-10944	-2876	11232	-125	161	-182	-16584	1180	-1964	-30	-25	-21	-16056	660	-2576	-302	-304	-111	-10424	2580	12984	153	-67	-123	-15884	-1320	-2972	-65	22	-280	-16260	2040	48	-476	-49	-126	125	115	8
-10920	-2776	11248	-117	136	-178	-16512	1200	-2048	5	12	-23	-16072	740	-2644	-223	-295	-126	-10404	2660	12984	150	-76	-128	-15820	-1468	-2960	-18	39	-274	-16356	1956	168	-416	-129	-140	125	115	8
-11020	-2824	11328	-122	161	-191	-16440	1196	-2060	55	-21	16	-16032	788	-2660	-114	-243	-41	-10412	2688	12908	123	-100	-127	-15832	-1492	-3240	79	90	-275	-16344	1872	204	-292	-213	-107	125	115	8
-10980	-2856	11184	-171	176	-191	-16556	1200	-2092	31	-36	-23	-16076	808	-2772	-21	-270	-15	-10400	2720	13032	76	-74	-124	-15840	-1520	-2988	72	114	-287	-16292	1908	52	-28	-291	-177	125	115	8
-10992	-2808	11264	-141	156	-188	-16488	1312	-2000	19	-29	-12	-16032	784	-2704	27	-250	-53	-10396	2676	12976	99	-40	-204	-15904	-1472	-3188	-44	51	-288	-16276	1856	-84	408	-220	-145	125	115	8
-10952	-2808	11236	-124	146	-179	-16452	1248	-2016	6	-57	-36	-16040	812	-2688	60	-236	-14	-10372	2672	12976	79	-89	-171	-15908	-1608	-3192	122	73	-263	-16248	1884	-96	453	-241	-159	125	115	8
-11028	-2884	11296	-104	118	-218	-16488	1140	-1980	73	-61	-44	-16088	744	-2584	80	-226	-34	-10308	2644	12968	88	-60	-145	-15892	-1616	-3096	85	22	-256	-16332	1980	-24	460	-231	-138	124	115	8
-10968	-2836	11340	-137	122	-192	-16484	1176	-2016	111	-87	-13	-16068	776	-2536	72	-225	11	-10372	2656	12968	87	-74	-191	-15856	-1480	-3208	36	-57	-202	-16292	2048	-252	292	-176	-135	124	115	8
-10980	-2832	11296	-128	121	-200	-16508	1148	-1992	30	-27	-38	-16016	692	-2504	58	-198	-16	-10440	2696	13044	74	-91	-165	-15892	-1508	-3140	-46	-65	-247	-16352	2004	-112	161	-147	-147	124	115	8
-11020	-2820	11236	-125	123	-198	-16460	1088	-2032	40	-5	-62	-16064	644	-2568	81	-185	-13	-10412	2692	13008	100	-27	-159	-15840	-1628	-3068	-9	-74	-128	-16348	2028	-44	-26	-150	-137	124	115	8
-11004	-2836	11204	-113	115	-183	-16516	1124	-1948	128	-5	8	-16120	616	-2508	144	-160	-47	-10392	2688	12972	112	-99	-170	-15884	-1584	-3152	114	-121	-135	-16432	1968	-40	-52	-181	-71	125	115	8
-10924	-2856	11256	-101	108	-170	-16540	1112	-1984	177	-6	15	-16048	652	-2492	185	-167	42	-10400	2620	13012	99	-53	-164	-15808	-1524	-3136	77	-156	-164	-16328	1768	-80	59	-214	-105	125	115	8
-11012	-2836	11228	-110	106	-190	-16484	1084	-2052	212	-51	-19	-16012	664	-2604	278	-161	93	-10392	2700	12900	150	-64	-167	-15880	-1612	-3160	106	-174	-162	-16352	1808	8	245	-219	-78	125	115	8
-10960	-2828	11200	-84	76	-192	-16520	1136	-2028	282	7	17	-16040	608	-2512	354	-147	94	-10348	2612	12996	125	-1	-157	-15868	-1624	-3156	235	-191	-94	-16368	1820	-32	405	-256	-75	125	115	8
-10952	-2940	11324	-77	59	-170	-16496	1140	-2032	313	-68	-4	-16004	656	-2532	494	-141	100	-10348	2664	12904	103	-51	-149	-15816	-1512	-3216	243	-233	-102	-16384	1912	112	507	-285	-135	125	115	8
-11028	-2896	11232	-77	89	-156	-16440	1100	-2112	338	-29	3	-15996	652	-2680	480	-145	103	-10304	2608	12988	105	-16	-156	-15824	-1624	-3304	57	-269	-100	-16276	1908	-120	371	-277	-157	125	115	8
-10972	-2844	11284	-81	58	-151	-16464	1136	-2016	339	-35	21	-16060	640	-2500	511	-129	122	-10396	2660	13000	147	-59	-139	-15896	-1688	-3328	95	-386	-56	-16328	1928	-312	266	-172	-189	125	115	8
-10940	-2896	11316	-83	45	-173	-16540	1092	-2048	405	-27	12	-16036	620	-2652	513	-151	97	-10376	2688	13024	180	-40	-133	-15840	-1612	-3272	180	-485	19	-16308	1888	-320	366	25	-155	125	115	8
-10932	-2892	11352	-61	17	-178	-16560	1100	-2004	389	9	18	-16012	700	-2484	557	-127	94	-10356	2644	13040	180	-46	-120	-15892	-1712	-3340	111	-562	62	-16280	1900	-516	322	171	-247	125	115	8
-10992	-2916	11276	-43	-1	-138	-16548	1088	-1996	391	-7	9	-16016	632	-2508	583	-92	54	-10396	2612	12956	204	-10	-119	-15904	-1672	-3268	138	-706	160	-16392	1888	-316	-35	276	-177	125	115	8
-10988	-2804	11184	-44	21	-143	-16496	1244	-2052	470	-15	6	-15992	748	-2544	503	-87	110	-10356	2704	13068	247	-32	-83	-15856	-1652	-3204	53	-791	182	-16332	1892	-456	-102	324	-199	125	115	8
-10956	-2864	11216	-50	24	-143	-16496	1008	-1972	386	21	37	-16100	628	-2484	507	-100	151	-10360	2708	13036	263	28	-61	-15916	-1644	-3108	167	-798	194	-16320	1744	-192	-160	389	-221	125	115	8
-10936	-2772	11400	-45	11	-140	-16588	1176	-1964	289	53	11	-16012	584	-2568	505	-111	141	-10332	2536	12948	271	-1	-64	-15844	-1648	-3004	192	-866	214	-16256	1796	-80	-96	433	-212	125	115	8
-11008	-2836	11344	-126	21	-168	-16536	1004	-2104	246	13	24	-15984	628	-2692	579	-43	176	-10372	2616	13036	312	17	-24	-15952	-1536	-2788	282	-859	241	-16360	1788	128	-15	409	-217	125	115	8
-10896	-2868	11352	-62	31	-133	-16572	1036	-2132	331	-12	30	-16012	556	-2568	534	-68	117	-10332	2668	12988	279	5	-17	-15912	-1360	-2588	161	-852	270	-16288	1740	576	32	274	-170	125	115	8
-10980	-2812	11268	-95	47	-189	-16504	1044	-2056	270	-43	41	-15960	628	-2684	601	-51	193	-10368	2788	12952	217	8	-66	-15864	-1192	-2412	-14	-722	114	-16396	1772	744	54	0	-99	125	115	8
-11028	-2860	11304	-69	39	-192	-16536	1100	-2208	469	-92	39	-16088	536	-2644	663	-96	171	-10360	2732	12968	187	-27	-117	-15916	-1160	-2424	-47	-572	28	-16328	1724	784	276	-179	-28	125	115	8
-10972	-2884	11288	-99	22	-181	-16568	924	-1996	374	-69	68	-16144	544	-2636	729	-76	304	-10324	2756	12968	174	-27	-131	-15948	-1144	-2520	140	-365	-49	-16472	1720	880	573	-289	20	125	115	8
-10888	-2704	11380	-75	53	-162	-16560	1068	-2188	258	-80	97	-16096	652	-2624	807	-132	272	-10288	2772	13004	137	-4	-138	-15872	-1304	-2568	120	-195	-75	-16408	1656	484	757	-361	50	125	115	8
-11000	-2884	11284	-88	49	-161	-16528	1140	-2268	429	-114	63	-16200	688	-2560	613	-192	283	-10412	2664	12972	81	-30	-198	-15876	-1524	-2704	270	-129	-64	-16352	1612	356	864	-417	38	125	115	8
-10944	-2944	11368	-103	51	-180	-16500	1040	-1932	269	-71	77	-16036	780	-2640	607	-160	282	-10352	2712	12856	110	-63	-154	-15992	-1596	-2876	237	-152	-75	-16264	1744	-212	1183	-271	-58	125	115	8
-10880	-2796	11432	-108	60	-163	-16548	1152	-2048	233	-54	70	-16076	764	-2504	475	-135	176	-10444	2672	13088	136	-52	-126	-15932	-1736	-3016	292	-222	-47	-16300	1780	-264	954	-250	-100	125	115	8
-10944	-2856	11352	-93	98	-151	-16476	972	-2100	189	2	55	-16096	760	-2472	381	-111	170	-10348	2620	13120	174	-17	-69	-15884	-1568	-2896	419	-288	14	-16320	1892	-24	1008	-151	-125	125	115	8
-10972	-2848	11360	-103	72	-164	-16552	1072	-2080	213	-43	99	-16008	736	-2456	230	-105	130	-10372	2696	12924	181	12	-116	-15960	-1360	-2620	175	-305	-27	-16400	1888	92	682	-127	-94	126	115	8
-10944	-2868	11300	-83	64	-194	-16604	916	-2160	126	-15	45	-16060	632	-2596	175	-70	137	-10384	2792	13040	182	9	-121	-16012	-1428	-2784	79	-285	-59	-16352	1948	208	414	-183	-24	126	115	8
-10888	-2840	11428	-88	56	-182	-16564	984	-1968	160	10	86	-16104	464	-2600	254	-97	133	-10340	2772	12944	157	-34	-116	-15976	-1400	-2824	189	-237	-51	-16348	1964	160	135	-155	51	126	116	8
-10908	-2808	11332	-90	82	-164	-16528	1020	-2080	184	-18	129	-16008	596	-2660	317	-100	218	-10336	2652	12972	172	-38	-131	-15944	-1560	-2676	246	-267	-40	-16308	1644	108	133	-184	50	127	116	8
-10996	-2860	11360	-76	67	-173	-16512	952	-2160	237	-53	84	-16024	540	-2696	436	-138	234	-10400	2596	12836	164	-11	-125	-15908	-1484	-2592	227	-277	-33	-16328	1488	188	394	-173	-23	127	116	8
-10988	-2844	11392	-83	103	-140	-16624	1024	-2172	292	-101	85	-16048	600	-2740	546	-95	250	-10444	2788	12976	185	19	-101	-15976	-1440	-2476	228	-240	-56	-16328	1600	388	634	-283	-8	127	116	8
-10968	-2884	11296	-99	106	-189	-16548	1004	-2128	140	-107	93	-16092	732	-2636	606	-82	304	-10352	2824	12960	138	24	-139	-15940	-1404	-2580	211	-144	-62	-16260	1584	416	984	-279	-34	127	116	8
-10872	-2752	11460	-126	77	-143	-16496	1080	-2068	168	-118	80	-16036	736	-2592	468	-113	239	-10336	2708	12968	141	-66	-123	-15896	-1376	-2564	309	-110	-58	-16312	1892	312	965	-296	55	127	116	8
-10912	-2872	11332	-109	116	-184	-16504	996	-1996	31	-93	72	-16060	740	-2548	394	-45	247	-10332	2776	12876	107	-46	-127	-15944	-1328	-2548	280	-64	-56	-16356	1948	420	758	-176	61	127	116	8
-10960	-2776	11344	-106	113	-193	-16516	1088	-2028	99	-37	116	-16116	720	-2544	284	-71	163	-10380	2676	13124	63	-30	-189	-16016	-1384	-2484	111	-46	-113	-16332	1772	272	646	-188	-19	128	116	8
-10972	-2896	11224	-119	133	-176	-16576	900	-2012	90	-47	100	-16156	584	-2424	195	-99	161	-10416	2732	12980	91	-46	-167	-15936	-1516	-2804	33	-39	-97	-16324	1812	156	429	-94	4	128	117	8
-10880	-2812	11300	-108	129	-149	-16536	972	-2016	129	-18	70	-16092	608	-2516	98	-102	151	-10328	2752	12940	85	-17	-213	-15856	-1512	-2672	212	-86	-83	-16260	1796	-44	282	-70	12	128	117	8
-10964	-2880	11316	-79	107	-120	-16532	892	-1972	81	28	84	-16032	616	-2560	52	-117	161	-10332	2744	13044	74	-43	-157	-15948	-1476	-2704	1	-71	-88	-16220	1740	128	99	-51	10	128	117	8
-10932	-2884	11312	-65	112	-172	-16592	952	-2056	129	28	84	-16116	608	-2656	15	-91	77	-10404	2832	12984	136	-24	-165	-15932	-1532	-2712	-19	-124	-61	-16364	1788	172	102	-54	-8	128	117	8
-10928	-2836	11204	-95	110	-158	-16492	988	-1964	81	9	134	-16004	612	-2688	27	-51	103	-10440	2740	13060	114	-6	-157	-15880	-1520	-2680	8	-48	-68	-16264	1748	352	110	6	6	128	117	8
-10948	-2856	11344	-90	118	-186	-16464	944	-1940	69	18	127	-16028	520	-2712	76	-86	113	-10388	2720	12988	104	-16	-180	-15988	-1408	-2604	78	-2	-113	-16308	1796	192	134	42	9	128	117	8
-10928	-2840	11344	-84	127	-172	-16528	1028	-2048	120	1	150	-16116	584	-2628	93	-73	119	-10332	2760	13024	103	-27	-156	-15940	-1440	-2540	-61	1	-105	-16316	1708	152	190	13	11	128	117	8
-10992	-2796	11356	-114	113	-132	-16532	960	-1964	78	17	165	-16024	620	-2504	163	-40	222	-10356	2740	13064	69	-35	-178	-15888	-1472	-2584	-34	43	-115	-16352	1720	280	109	-23	35	128	117	8
-10876	-2820	11356	-110	136	-155	-16520	940	-2104	136	7	148	-16068	672	-2616	98	-111	165	-10344	2728	12956	58	-33	-186	-15928	-1492	-2536	-66	65	-126	-16372	1776	252	210	4	65	128	117	8
