#Activity	sitting in car 
#ActivityID	12 
#Date 09-19-15-312
acc_rf_x	acc_rf_y	acc_rf_z	gyro_rf_x	gyro_rf_y	gyro_rf_z	acc_rs_x	acc_rs_y	acc_rs_z	gyro_rs_x	gyro_rs_y	gyro_rs_z	acc_rt_x	acc_rt_y	acc_rt_z	gyro_rt_x	gyro_rt_y	gyro_rt_z	acc_lf_x	acc_lf_y	acc_lf_z	gyro_lf_x	gyro_lf_y	gyro_lf_z	acc_ls_x	acc_ls_y	acc_ls_z	gyro_ls_x	gyro_ls_y	gyro_ls_z	acc_lt_x	acc_lt_y	acc_lt_z	gyro_lt_x	gyro_lt_y	gyro_lt_z	EMG_r	EMG_l	act
-2296	-10356	12900	21	-14	-19	-10720	-10136	6664	-10	-3	-5	1248	-5080	16224	20	-2	1	-128	7912	14168	-11	15	-21	-11832	8968	8096	0	-1	21	240	3944	16632	1	-19	13	126	138	12
-2168	-9852	12944	3	-6	-20	-10656	-9872	6672	-3	-3	0	1232	-5240	16152	21	4	0	-72	8360	14016	-2	17	-21	-11584	8944	8504	22	-6	10	328	3824	16496	5	-14	13	126	137	12
-2456	-10564	12708	3	-16	-23	-10656	-10160	6336	10	-1	1	1296	-5168	15864	21	-2	2	-176	8128	14048	-12	16	-24	-11768	9088	8312	9	-4	27	272	3920	16608	5	-21	16	126	138	12
-2368	-10648	12764	2	-13	-24	-10736	-10144	6432	-4	-6	-7	1272	-5064	15816	21	-2	8	-104	7976	13888	0	15	-21	-11728	9008	8312	9	-6	23	248	4008	16544	5	-14	14	126	139	12
-2360	-10228	12932	4	-17	-17	-10560	-9952	6240	6	-6	-4	1248	-5224	15872	34	-6	3	-120	8232	13920	-14	15	-19	-11664	9152	8424	18	-11	22	320	3920	16416	5	-19	19	126	138	12
-2296	-10448	12752	18	-20	-22	-10872	-10232	6416	-10	-8	-11	1152	-5088	16208	28	-3	9	-16	7864	13840	-14	15	-22	-11728	9232	8136	-1	-8	20	176	4000	16360	1	-16	21	125	138	12
-2072	-9892	12988	10	-19	-21	-10640	-10016	6600	-12	-7	-5	1264	-5032	15816	25	-3	7	8	8320	13800	-4	21	-24	-11568	8960	8184	9	2	8	216	3872	16480	10	-19	22	125	138	12
-2400	-10476	12848	6	-10	-20	-10872	-10272	6664	3	-5	-2	1248	-5208	16384	25	-4	7	-48	8248	13944	-18	18	-26	-11736	9032	8272	-8	-2	20	112	3936	16360	6	-19	25	125	138	12
-2184	-10280	12908	17	-12	-23	-10696	-10232	6544	8	1	-5	1320	-5200	16224	20	-2	7	16	8088	13664	-10	16	-27	-11632	8952	8408	-1	-3	13	128	3800	16400	15	-10	15	125	137	12
-2312	-10092	12840	6	-15	-20	-10616	-10000	6616	0	-4	-2	1208	-5200	16144	21	9	-1	-64	8000	13816	-9	18	-20	-11744	8976	8544	22	-8	17	192	3864	16488	11	-12	12	126	138	12
-2336	-10524	12772	14	-14	-24	-10672	-10208	6792	-1	1	-7	1360	-5056	16272	22	4	2	-80	8008	14184	-12	15	-21	-11736	8960	8440	11	-10	23	240	3872	16312	8	-13	8	125	138	12
-2120	-9928	12884	12	-11	-25	-10640	-10072	6624	0	-9	-11	1024	-5288	15936	11	8	1	-168	8216	14016	-4	18	-22	-11528	9016	8240	18	-13	17	376	3840	16224	4	-16	9	125	138	12
-2400	-10532	12816	1	-20	-20	-10664	-10104	6496	22	-2	1	1152	-5232	16144	23	-3	-2	-24	8192	13944	-16	22	-27	-11752	9064	8288	10	-9	26	208	3968	16552	-1	-23	3	126	137	12
-2124	-10264	12888	11	-15	-20	-10808	-10032	6560	-2	3	-11	1272	-5176	16048	19	-3	9	-24	8024	13784	-14	20	-24	-11512	9008	8440	0	-4	26	392	4016	16400	2	-25	15	126	138	12
-2196	-10096	12956	-12	-18	-21	-10632	-9928	6520	-4	1	-17	1248	-5256	16192	32	-9	7	-72	8464	13856	-19	18	-27	-11656	9144	8408	5	-1	15	336	3912	16880	-5	-21	22	126	138	12
-2232	-10524	12836	-3	-16	-25	-10752	-10400	6832	-13	-2	-9	1416	-5184	16144	34	-8	14	-56	8024	14008	-19	20	-27	-11808	8864	8456	-12	1	16	288	4048	16440	-3	-13	30	126	138	12
-2080	-10004	12888	-4	-9	-23	-10736	-10232	6472	-14	-4	-12	1224	-5376	16032	27	-6	16	-96	8328	13976	0	13	-26	-11672	8848	8096	6	0	11	176	3832	16512	13	-11	25	126	138	12
-2376	-10556	12708	-4	-12	-21	-10560	-10304	6256	17	1	1	1128	-5328	16256	33	-8	8	-16	8136	13928	-16	16	-26	-11680	9080	8280	16	-1	21	160	3912	16464	10	-16	21	126	138	12
-2196	-10396	12796	17	-17	-21	-10640	-10288	6368	3	0	2	1280	-5288	16152	19	-1	3	-96	7888	14024	-4	11	-24	-11688	8832	8304	10	-6	16	240	3848	16272	17	-17	21	126	138	12
-2220	-10116	12740	13	-13	-16	-10544	-9928	6496	16	-6	4	1184	-5176	15864	17	3	-6	-96	8480	13832	-7	10	-21	-11552	9104	8088	21	-8	17	328	3904	16672	9	-17	17	127	137	12
-2324	-10556	12808	24	-18	-18	-10768	-9928	6400	3	-5	3	1160	-4936	16272	20	9	-1	-64	8096	13888	-14	14	-25	-11888	8904	8096	2	-6	24	-8	3968	16432	8	-11	16	126	138	12
-2164	-9964	12916	20	-11	-22	-10824	-9976	6424	-18	-9	-2	1200	-5136	15856	8	11	1	-312	8248	14024	-3	13	-23	-11736	8976	8448	9	-11	16	496	3808	16424	8	-14	9	126	138	12
-2484	-10404	12936	5	-16	-26	-10792	-10008	6352	5	-7	-1	1056	-5120	15968	27	8	0	-208	8336	13816	-15	13	-21	-11760	9088	8304	12	-8	20	184	3984	16776	7	-18	14	127	138	12
-2180	-10300	12952	19	-16	-26	-10776	-10136	6648	-23	-6	-10	1160	-5160	15968	27	1	10	-160	7832	13872	0	10	-21	-11768	8816	8240	6	-8	19	392	4040	16624	10	-13	20	126	139	12
-2188	-10028	12880	3	-10	-28	-10656	-9960	6696	-6	-10	-8	1232	-4976	16368	39	-7	14	0	8280	13848	-18	13	-22	-11768	9040	8440	19	-6	12	464	3904	16784	5	-19	25	126	137	12
-2320	-10508	12768	7	-18	-27	-10624	-10088	6728	3	-9	-12	1184	-5048	16224	46	-6	20	-80	8096	13896	-22	19	-27	-11768	9016	8400	4	-2	19	184	4152	16528	9	-17	25	126	138	12
-2196	-9948	13116	-1	-9	-26	-10880	-10048	6416	-5	-7	-20	1368	-5184	16032	40	-5	23	-56	8160	13960	-11	17	-27	-11760	9016	8304	5	-2	11	280	3992	16712	12	-17	26	126	138	12
-2436	-10464	12952	-14	-14	-38	-10776	-10112	6736	11	-3	-10	1376	-4936	16048	39	-5	18	-168	8192	14008	-22	18	-28	-11792	9120	8360	3	-1	14	32	4008	16360	5	-21	22	126	137	12
-2128	-10388	12916	5	-13	-30	-10616	-10256	6592	-9	-1	-11	1360	-5032	16240	28	-4	9	-8	7912	14104	-11	17	-24	-11640	9056	8136	-3	0	10	184	4016	16416	4	-11	21	126	138	12
-2260	-10172	12864	-5	-8	-28	-10592	-10040	6336	0	-10	-7	1272	-5112	16160	12	11	0	-56	8376	13680	-18	15	-29	-11688	9088	8280	14	-4	14	176	4000	16672	2	-19	11	126	138	12
-2332	-10516	12784	5	-15	-26	-10808	-10272	6416	3	-6	-13	1280	-5032	16040	13	12	1	-16	7864	13928	-20	18	-24	-11728	8952	8208	1	-4	20	200	4008	16472	-3	-12	11	126	138	12
-2080	-10000	12876	8	-16	-24	-10656	-10136	6568	-18	-8	-10	1288	-5168	16024	5	15	-3	-112	8304	13792	-8	17	-26	-11608	8888	8280	10	-7	10	296	3952	16376	6	-12	13	125	138	12
-2408	-10576	12752	4	-16	-26	-10528	-10160	6544	-6	-7	-7	1200	-5200	15928	10	4	2	-144	7992	13912	-19	15	-23	-11792	9248	8176	-3	-2	15	288	3960	16544	0	-13	16	126	138	12
-2124	-10220	12764	15	-7	-21	-10624	-10096	6728	-23	-7	-13	1176	-5160	16272	13	-4	11	-96	7928	13832	-15	15	-25	-11616	8888	8416	-6	0	10	200	3744	16544	8	-14	23	126	139	12
-2188	-10256	12952	4	-18	-21	-10608	-10176	6704	-7	-6	-7	1416	-5288	16216	24	-9	4	-104	8328	13792	-22	17	-27	-11784	9088	8464	11	-4	14	432	3664	16600	6	-16	24	126	137	12
-2244	-10516	12664	22	-13	-24	-10712	-10416	6656	3	1	-11	1320	-5272	16152	34	-8	5	-96	7888	13848	-19	18	-28	-11824	8816	8328	1	0	17	280	3832	16496	2	-11	17	126	137	12
-2224	-10488	12788	14	-10	-23	-10736	-10216	6728	7	-5	-9	1352	-5264	16088	22	5	6	-8	8120	14032	-10	18	-28	-11640	8800	8440	27	0	14	312	3752	16400	10	-5	16	126	138	12
-2396	-10580	12888	10	-12	-18	-10560	-10360	6872	20	1	-2	1176	-5288	16048	25	-5	-4	-96	8280	13880	-19	18	-26	-11776	8944	8472	27	-7	23	96	3992	16480	0	-19	14	125	139	12
-2184	-10348	12820	26	-10	-18	-10672	-10240	6640	-5	-5	-3	1224	-5112	16352	16	3	0	-40	7832	13944	-5	18	-22	-11848	8800	8192	10	-6	16	168	4032	16632	3	-20	16	125	138	12
-2268	-10148	12900	14	-14	-15	-10560	-10040	6432	0	2	13	1328	-5048	16136	18	-4	-1	-200	8320	13848	-12	20	-25	-11576	9096	8256	7	-7	17	384	3888	16584	-3	-22	17	125	138	12
-2292	-10536	12708	26	-17	-11	-10752	-10152	6328	-13	-2	9	1184	-5240	16104	19	-8	5	-120	7840	14040	-14	19	-24	-11728	9072	8176	-7	1	24	104	3912	16480	-1	-20	15	125	138	12
-2096	-9992	12864	28	-8	-10	-10560	-10152	6352	-9	-2	3	1160	-5328	15912	17	1	2	-56	8192	13984	0	18	-21	-11712	8736	8304	15	-7	21	168	3704	16400	6	-9	13	125	138	12
-2080	-9992	12912	22	-11	-10	-10624	-10040	6480	16	1	9	1152	-5264	16144	27	4	-4	-104	8184	13856	-11	14	-24	-11840	8896	8208	37	-11	27	160	3784	16384	12	-14	10	126	138	12
-2184	-10368	12904	40	-16	-11	-10544	-10224	6496	3	-3	6	1184	-5104	16016	21	2	-7	80	7904	13872	-1	15	-21	-11672	8888	8288	30	-15	25	176	3912	16200	19	-15	13	126	139	12
-2268	-10108	12944	19	-12	-13	-10512	-9896	6408	17	-6	12	1216	-5208	15968	23	2	-7	-80	8440	14032	-9	12	-23	-11624	9120	8408	39	-13	22	120	4032	16384	15	-22	18	126	138	12
-2376	-10512	12800	31	-22	-12	-10808	-10040	6632	9	-1	0	1184	-5080	16336	22	-2	3	-176	8048	13912	-14	15	-26	-11800	9088	8184	1	-2	23	272	4048	16448	4	-24	22	126	138	12
-2100	-9868	12884	25	-12	-17	-10624	-9880	6632	-7	-7	3	1264	-5008	15864	18	4	3	-72	8224	13776	0	17	-25	-11520	8928	8216	-2	2	16	328	4032	16624	-1	-16	21	126	137	12
-2384	-10376	12780	10	-14	-26	-10520	-9984	6624	-2	-2	7	1280	-5088	16272	29	1	4	32	8336	13704	-16	18	-22	-11624	9192	8152	12	-2	18	248	3896	16344	-3	-20	22	126	136	12
-2216	-10412	12804	27	-11	-19	-10784	-10104	6464	-18	-9	-2	1264	-5128	16208	28	-2	7	-120	7952	13936	-9	17	-25	-11624	8992	8184	2	0	19	232	3976	16328	7	-16	21	126	138	12
-2220	-9996	13064	12	-17	-20	-10632	-9944	6528	2	-10	-7	1288	-5200	16024	24	4	5	-72	8264	13880	-16	18	-27	-11744	9048	8408	17	0	15	304	3960	16488	7	-13	26	126	139	12
-2340	-10496	12752	6	-12	-26	-10664	-10176	6888	6	-2	-5	1112	-5016	16384	32	1	8	-152	8120	14128	-23	19	-32	-11696	9032	8264	1	2	21	16	4104	16368	4	-19	24	126	138	12
-2092	-9992	12908	15	-11	-21	-10760	-10168	6672	-15	-6	-8	1304	-5144	16160	23	1	2	-64	8016	13920	-6	20	-25	-11584	8912	8240	-3	4	12	224	3904	16456	9	-16	22	126	138	12
-2380	-10396	12856	3	-14	-18	-10696	-10168	6480	16	-3	6	1408	-5256	16200	17	8	-10	-48	8248	13960	-19	17	-26	-11760	9072	8160	19	-7	13	80	3840	16456	7	-19	22	125	138	12
-2232	-10504	12708	25	-13	-18	-10616	-10368	6568	13	-1	2	1248	-5248	16280	6	6	-12	-48	8032	13920	-15	14	-26	-11664	9016	8360	17	-2	15	192	3952	16512	7	-20	19	125	137	12
-2164	-10016	12876	19	-11	-16	-10536	-10136	6360	22	-3	6	1240	-5184	16144	1	11	-19	-184	8344	13784	-11	14	-29	-11552	8944	8232	23	-7	18	264	3776	16672	8	-19	17	126	138	12
-2428	-10532	12724	25	-24	-13	-10624	-10016	6400	16	-4	8	1280	-5032	16392	12	12	-20	-192	7968	13944	-21	17	-27	-11832	9160	8232	8	-11	25	208	3992	16536	5	-19	19	126	140	12
-2156	-10152	12964	34	-24	-16	-10808	-10040	6432	-9	-8	5	1152	-5288	15968	1	16	-13	-240	8032	13888	-5	15	-28	-11680	8840	8024	5	-6	17	216	3832	16760	12	-21	18	126	137	12
-2400	-10216	12908	24	-16	-14	-10624	-10000	6480	6	-8	10	1160	-5168	16200	9	13	-12	-8	8224	13784	-10	20	-27	-11712	9128	8416	14	-5	15	24	3744	16616	12	-21	23	126	138	12
-2256	-10380	12916	29	-15	-18	-10728	-10144	6880	-9	-12	8	1192	-5088	16144	15	1	-1	-40	7928	13928	-8	21	-27	-11736	9080	8408	4	4	18	296	3880	16528	18	-21	25	126	138	12
-2100	-9916	13048	12	-16	-15	-10816	-9968	6632	3	-5	8	1160	-5176	16152	16	-3	-3	-104	8360	13856	0	29	-27	-11656	8872	8536	18	-1	13	336	3776	16616	20	-24	28	126	138	12
-2396	-10440	12868	1	-18	-17	-10840	-10096	6632	26	-2	7	1104	-5024	16264	35	-8	3	-120	8152	13768	-11	26	-24	-11760	8984	8440	18	-5	20	400	3840	16576	13	-26	29	125	138	12
-2208	-9948	13040	-4	-11	-22	-10872	-9920	6312	13	-2	1	1272	-5072	16008	34	0	12	-72	7992	14024	-1	23	-22	-11536	8776	8480	11	11	11	240	3888	16336	16	-26	35	126	137	12
-2360	-10204	12956	-18	-16	-26	-10592	-9840	6312	19	-6	6	1232	-5072	16120	46	4	14	-16	8160	13768	-18	20	-25	-11648	9104	8248	23	4	12	296	3864	16464	16	-23	37	125	138	12
-2280	-10408	12796	-7	-15	-29	-10824	-10056	6440	-5	-12	-4	1136	-5200	16040	50	-4	23	-96	7784	13952	-9	17	-26	-11808	9128	8344	-3	10	16	32	4040	16576	39	-10	34	125	135	12
-2228	-9952	12984	-17	-9	-34	-10632	-10032	6520	-14	-17	-12	1104	-5032	16200	49	-5	19	-184	8296	13984	-4	15	-27	-11584	9008	8088	10	3	13	168	4056	16416	69	-15	19	126	137	12
-2424	-10516	12736	-14	-12	-37	-10616	-10184	6784	0	-13	-12	1272	-5016	16152	52	-11	12	-200	7960	14064	-8	19	-26	-11648	9080	8224	17	-5	10	208	3992	16424	66	-14	17	125	138	12
-2080	-10064	12880	-14	-5	-42	-10720	-9952	6504	-13	-18	-8	1248	-5056	15760	38	-1	4	-16	8080	13848	6	12	-20	-11624	8920	8232	22	-9	5	392	4040	16400	66	-11	15	126	138	12
-2312	-10332	12740	-19	-7	-38	-10560	-10096	6728	4	-18	-6	1312	-5184	16360	42	7	-4	24	8368	13920	-10	16	-25	-11544	9248	8144	13	-9	14	280	3888	16192	54	-12	13	126	140	12
-2208	-10712	12804	6	-17	-34	-10624	-10216	6272	5	-12	-8	1240	-5216	16248	37	8	-3	-96	7920	14056	-13	12	-27	-11824	9072	8256	1	-9	17	176	4032	16392	55	-5	9	126	142	12
-2204	-9940	13024	-3	-15	-33	-10896	-10056	6664	23	-21	-12	1064	-5240	16128	24	33	-11	-72	8248	13928	-10	18	-24	-11784	9112	8152	5	-15	17	64	4072	16448	69	-5	2	126	141	12
-2348	-10368	12956	-18	-15	-46	-10888	-10024	6496	30	-28	-6	920	-5224	16240	42	32	-17	-56	8016	14208	-10	17	-27	-11784	9008	8368	1	-11	17	112	4048	16680	67	-12	9	127	141	12
-2116	-9964	13016	-35	-3	-50	-10960	-9888	6648	-11	-34	-3	896	-5104	15840	49	30	-9	24	8000	13896	9	22	-28	-11944	8872	8336	5	-13	9	216	4112	16384	103	-16	6	127	141	12
-2508	-10236	13020	-64	8	-55	-10792	-9872	6328	-17	-48	-6	808	-4992	16120	63	21	-3	-56	8296	13880	4	23	-25	-11656	9200	8304	5	-24	6	280	4136	16536	93	-23	19	126	140	12
-2580	-10356	12936	-65	-4	-59	-10728	-9912	6360	-19	-46	-9	960	-4960	16184	71	-1	16	-224	7992	13848	5	27	-25	-11848	8976	8168	-23	-17	3	232	4024	16528	87	-16	29	127	138	12
-2136	-9968	13072	-82	4	-84	-10920	-9792	6640	-52	-52	-14	1104	-4896	16024	49	-5	40	-176	8312	13960	4	23	-23	-11728	9128	8280	-21	-23	4	40	3968	16360	102	-14	36	127	135	12
-2380	-10500	12836	-96	2	-78	-10840	-10120	6696	-71	-62	-23	1192	-4960	16312	62	-7	55	-224	8096	13976	-7	25	-28	-11648	8944	8048	-38	-25	14	200	3928	16368	91	-18	39	125	138	12
-2216	-10400	12720	-97	4	-84	-10456	-10024	6792	-70	-55	-20	1128	-4952	16448	50	2	63	0	8160	13736	4	15	-21	-11552	8584	8088	-15	-22	6	296	4008	16424	76	-17	33	124	139	12
-2232	-10352	12680	-112	9	-85	-10480	-9984	6768	-41	-41	-22	1416	-4920	16352	57	-8	71	-32	8240	13832	-11	14	-19	-11776	8744	8512	20	-35	16	488	3928	16528	66	-10	32	122	140	12
-2164	-10824	12528	-90	7	-78	-10592	-10304	6768	-31	-38	-29	1208	-5000	16256	54	-11	72	-32	7824	13752	-4	18	-20	-11600	8872	8336	20	-29	14	416	4064	16656	71	3	23	122	140	12
-1980	-10388	12624	-86	8	-72	-10536	-10048	6640	-22	-43	-23	1224	-4976	15952	50	-2	75	-184	8328	14096	7	15	-23	-11760	8920	8272	0	-27	26	280	4248	16680	70	2	17	123	141	12
-2264	-10728	12572	-86	3	-75	-10648	-9960	6368	-14	-46	-25	1096	-4896	16248	69	0	69	-80	8048	14000	8	18	-15	-11912	9072	8304	-16	-23	25	160	4424	16584	48	-3	17	122	140	12
-2120	-10416	12732	-78	-3	-76	-10592	-10080	6616	-37	-42	-30	928	-5072	16080	60	-6	63	64	8080	13960	26	17	-13	-11752	9144	8600	-38	-16	10	96	4608	16600	38	1	25	123	142	12
-2128	-10392	12800	-98	-2	-86	-10528	-9864	6512	-57	-54	-23	1112	-4688	15936	60	-30	50	-144	8384	13704	14	19	-15	-11632	9128	8416	-48	-15	7	112	4448	16528	14	-7	25	123	142	12
-2120	-10692	12676	-104	5	-84	-10632	-10136	6480	-83	-59	-30	1184	-4704	15928	40	-45	45	-120	8056	13776	9	16	-18	-11584	8824	8280	-61	-17	9	208	4312	16064	24	6	30	123	141	12
-2064	-10416	12592	-107	6	-91	-10456	-10224	6384	-90	-64	-28	1032	-5032	16248	12	-33	51	-40	8352	13808	4	10	-17	-11648	8984	8216	-26	-29	-3	184	4384	16480	33	8	34	122	138	12
-2160	-10800	12644	-115	10	-89	-10576	-10560	6816	-63	-61	-27	1056	-5344	16328	-2	-17	52	-24	8248	13856	-17	18	-23	-11528	9008	8416	-23	-36	-2	104	4448	16368	30	17	36	124	136	12
-2156	-10624	12688	-106	12	-87	-10800	-10480	6488	-26	-64	-15	1080	-5376	16104	22	5	37	-72	8152	13880	-19	11	-23	-11664	8952	8520	-43	-33	-5	216	4368	16272	32	19	43	124	135	12
-2136	-10632	12600	-119	10	-90	-10624	-10344	6672	1	-54	-6	1008	-5512	16104	27	8	31	-120	8344	14112	-24	13	-33	-11704	8936	8600	-29	-42	-11	48	4504	16496	29	16	53	126	134	12
-2268	-10820	12548	-121	16	-92	-10608	-10272	6552	-7	-66	2	1176	-5168	15952	53	-1	15	-192	8072	14008	-18	13	-29	-11744	9016	8400	-30	-35	-16	8	4496	16232	24	14	60	126	134	12
-2016	-10656	12556	-128	17	-95	-10600	-10096	6736	-24	-69	13	1160	-5280	16400	64	2	16	-192	8296	14144	-13	10	-22	-11816	9144	8608	-43	-37	-25	-24	4736	16512	5	19	67	124	137	12
-2124	-10852	12536	-141	22	-94	-10648	-10032	6672	-39	-74	13	1072	-4952	16280	58	-13	27	-240	8112	14048	-13	16	-27	-11976	9192	8416	-57	-40	-36	-144	4656	16528	-11	22	71	122	135	12
-2028	-10908	12508	-132	20	-89	-10312	-9952	6680	-60	-70	7	1456	-4944	16104	57	-32	32	-96	7848	13784	11	12	-17	-11816	8776	8416	-71	-40	-46	-160	4296	16424	-25	24	75	122	134	12
-2164	-10896	12336	-126	15	-81	-10296	-10080	6264	-52	-73	-3	1064	-4808	15952	48	-35	43	-32	8360	13856	9	16	-21	-11600	8568	8352	-31	-39	-43	72	4184	16368	-36	10	70	121	135	12
-2128	-11072	12212	-102	3	-77	-10400	-10496	6288	-38	-71	-10	1088	-4776	16168	45	-37	34	56	8360	13968	2	15	-21	-11552	8832	8672	-28	-41	-31	280	4176	16440	-21	5	65	122	134	12
-2020	-10804	12288	-90	6	-73	-10424	-10352	6512	-15	-62	-9	1128	-4856	16152	48	-19	26	-48	8424	13808	-19	20	-31	-11496	8744	8552	-30	-45	-25	536	4064	16608	-16	9	53	122	135	12
-2160	-10964	12368	-88	6	-74	-10736	-10264	6576	5	-63	-15	824	-5032	16664	49	-16	16	16	8112	14088	-35	28	-33	-11832	8760	8608	-46	-41	-12	296	4264	16568	-29	16	43	122	140	12
-1976	-10772	12620	-108	9	-73	-10624	-10088	6824	-12	-62	-20	1360	-4736	16384	48	-14	22	-56	8200	13928	-34	26	-35	-11704	8672	8576	-63	-32	-20	216	4120	16488	-36	16	46	123	142	12
-2144	-10768	12592	-138	18	-90	-10712	-10008	6904	-35	-67	-10	1480	-4768	16448	32	-28	25	8	8368	13904	-29	22	-32	-11744	8776	8512	-48	-33	-22	0	4056	16376	-44	10	47	128	141	12
-2156	-10960	12308	-154	21	-102	-10608	-10216	6864	-66	-65	-2	1328	-4856	16512	32	-33	26	-104	8024	13960	-25	23	-31	-11800	8600	8696	-40	-36	-13	-72	4088	16376	-32	6	44	124	141	12
-1824	-10960	12412	-170	30	-100	-10608	-10248	7024	-79	-61	-3	784	-4768	16600	8	-36	63	48	8144	13808	-18	23	-31	-11744	8576	8808	-26	-40	-14	248	4072	16448	-24	9	36	124	139	12
-1856	-11100	12348	-195	53	-98	-10560	-10160	6824	-70	-60	-13	1544	-4904	16552	18	-49	76	-40	8168	13800	-22	28	-35	-11712	8864	8808	-29	-47	-9	448	3944	16568	-25	9	27	126	139	12
-1852	-11096	12148	-199	69	-91	-10512	-10304	6864	-58	-48	-18	1440	-4952	16360	21	-43	88	-184	8096	13952	-21	26	-35	-11576	8560	8736	-33	-34	-4	280	3872	16552	-14	8	35	125	140	12
-2072	-11060	11988	-219	62	-94	-10384	-10232	6808	-34	-49	-15	1304	-5208	16424	28	-49	81	-296	8416	13576	-29	31	-38	-11824	8496	8920	-23	-24	9	304	4184	16632	-8	2	30	128	139	12
-1972	-11120	11840	-219	66	-98	-10328	-10384	6944	-12	-42	1	1656	-5160	16096	50	-42	71	-96	7856	13776	-23	27	-32	-11608	8328	8656	-23	-16	8	224	4040	16376	8	-1	29	129	142	12
-2000	-11244	11828	-212	69	-99	-10384	-10280	6520	-8	-42	5	1288	-4896	16136	51	-32	67	-160	8184	13976	-16	29	-33	-11888	8456	8976	-5	-21	9	56	3960	16544	8	-13	21	129	141	12
-2096	-11668	11752	-200	69	-94	-10304	-10376	6832	-2	-39	4	1344	-4960	16160	48	-38	59	-64	8056	14136	-20	33	-31	-11728	8792	8696	-13	-14	21	112	4304	16512	-6	-29	16	131	142	12
-1952	-11496	11560	-180	58	-88	-10360	-10360	6736	-21	-40	-4	1416	-4808	16088	35	-35	61	-216	8112	13888	-11	38	-31	-11624	8616	8640	-32	-18	19	128	4304	16368	0	-10	9	128	142	12
-2092	-11588	11728	-167	48	-80	-10456	-10352	6464	-31	-42	-4	1424	-5072	16192	26	-35	45	-280	8176	14000	-14	30	-33	-11712	8616	8856	-21	-14	7	-80	3984	16304	-13	-16	19	128	143	12
-2152	-11772	11364	-132	30	-71	-10064	-10600	6416	-29	-28	1	1392	-5288	16040	23	-34	37	-16	8072	14136	-16	21	-27	-11624	8576	8728	-2	-10	17	88	3992	16512	2	-19	16	128	141	12
-2056	-11784	11504	-95	14	-67	-10064	-10720	6360	-16	-21	-1	1312	-5456	16216	22	-19	24	-128	8432	14072	-23	15	-35	-11656	8704	8896	7	-15	22	152	4144	16584	-3	-27	19	127	138	12
-2008	-11896	11464	-50	-1	-51	-10040	-10624	6624	-9	-17	-1	1440	-5056	15960	24	-7	17	-144	7888	13904	-29	19	-32	-11752	8672	8928	-10	-10	27	112	4192	16392	12	-15	15	128	143	12
-1848	-11668	11492	-21	4	-33	-10176	-10496	6680	-10	-16	-10	1488	-5224	15912	16	3	8	-320	8248	13960	-22	17	-31	-11728	8552	8664	11	-8	20	16	4184	16592	18	-16	16	126	139	12
-2072	-11656	11528	-1	-9	-24	-10280	-10432	6736	-6	-16	0	1176	-5048	16184	22	0	2	-168	8032	14136	-20	20	-32	-11728	8760	8752	15	-15	20	24	4320	16472	15	-15	17	128	136	12
-2052	-11640	11612	17	-12	-14	-10232	-10472	6664	3	-10	1	1344	-5104	16152	21	4	-1	152	7976	13800	-10	19	-32	-11624	8480	8712	-1	-11	19	-40	4104	16544	13	-17	25	128	140	12
-2008	-11432	11712	23	-11	-16	-10224	-10184	6680	0	-9	-1	1272	-4896	16416	23	0	-10	-176	8136	14008	-9	18	-25	-11728	8392	8888	1	-9	18	168	4000	16472	19	-24	23	125	140	12
-2044	-11492	11696	28	-21	-14	-10488	-10248	6752	2	-6	2	1152	-5072	16352	28	-6	-11	-144	8048	13808	-13	16	-28	-11704	8568	8672	-2	-8	23	88	4232	16272	20	-21	18	126	142	12
-1984	-11292	11792	27	-15	-23	-10264	-10112	6800	1	-5	0	1360	-4808	16120	22	5	-9	-288	8304	13872	-6	18	-25	-11536	8696	8704	12	-13	19	64	4224	16424	19	-10	13	125	141	12
-1968	-11524	11848	18	-15	-18	-10384	-10152	6880	-6	-7	8	1336	-4824	16296	25	-2	-9	-168	8240	13832	-22	13	-27	-11712	8824	8800	18	-15	26	-56	4176	16456	8	-16	8	126	139	12
-1856	-11528	11872	18	-12	-22	-10496	-10232	6968	-10	-7	4	1312	-4808	16160	20	-3	2	-136	8080	13872	-14	18	-34	-11584	8744	8896	-2	-3	23	224	4208	16400	8	-15	11	123	139	12
-2036	-11488	11852	10	-6	-15	-10480	-10216	6872	10	-5	-6	1360	-4952	16064	19	-4	4	-224	8248	13880	-19	18	-31	-11680	8696	8560	2	-5	23	72	4216	16576	-1	-19	16	123	140	12
-2072	-11500	11680	4	-11	-22	-10392	-10296	6656	17	1	-2	1352	-4936	16216	35	-4	2	-280	7920	14024	-15	14	-27	-11616	8536	8744	8	-5	20	152	4312	16488	6	-14	18	125	141	12
-2140	-11368	11640	1	-15	-30	-10288	-10168	6712	12	7	-2	1472	-4944	16376	39	-3	4	-104	8152	14048	-12	13	-26	-11728	8680	8664	31	-7	8	160	4096	16464	4	-18	14	123	139	12
-1956	-11728	11728	6	-20	-32	-10280	-10312	6936	-11	2	3	1152	-4848	16152	19	4	3	-200	8200	13848	-25	16	-29	-11536	8776	8824	9	1	23	232	4312	16600	3	-15	4	125	137	12
-1768	-11672	11680	14	-14	-13	-10392	-10344	6744	-21	-5	-10	1320	-4928	16032	12	-6	12	-32	7976	14144	-18	18	-24	-11736	8728	8704	12	-1	18	48	4400	16400	16	-14	11	124	140	12
-2004	-11568	11836	14	-11	-6	-10472	-10280	6768	3	-2	-7	1208	-5192	16368	12	-16	8	-176	8384	14048	-21	23	-34	-11800	8952	8848	2	-7	19	-16	4264	16328	7	-17	16	124	140	12
-2100	-11608	11648	15	-13	-9	-10392	-10312	6496	7	-5	-10	1248	-5080	16320	21	-11	3	-344	7848	14056	-23	26	-33	-11800	8544	8816	-29	3	15	-136	4072	16344	4	-22	19	122	140	12
-2056	-11352	11828	17	-14	-13	-10352	-10288	6440	10	-1	-2	1296	-5024	16032	17	9	0	-256	7952	13928	-5	22	-27	-11520	8360	8656	-1	-1	11	120	4096	16648	0	-25	20	125	139	12
-2192	-11536	11820	7	-11	-21	-10432	-10176	6680	-10	-14	0	1152	-5056	16376	26	1	1	-56	8400	13864	-22	19	-27	-11704	8616	8440	19	-14	22	224	3912	16264	9	-15	16	124	141	12
-2004	-11392	11844	0	-16	-30	-10560	-10312	6888	-21	-15	-2	1304	-4960	16312	23	1	0	-96	8000	13904	-18	12	-27	-11656	8448	8848	10	-8	22	88	4120	16560	17	-13	13	125	139	12
-2136	-11420	11932	-17	-8	-38	-10328	-10248	6904	-19	-17	9	1280	-5144	16512	22	0	3	-80	8280	13912	-25	9	-29	-11776	8680	8456	25	-8	21	40	4096	16504	15	-12	8	126	137	12
-1948	-11732	11660	-13	-10	-30	-10368	-10400	6960	-1	-8	8	1512	-4944	16304	32	0	5	-176	7936	13960	-21	15	-28	-11712	8696	8728	12	-8	25	176	4216	16424	14	-15	8	124	138	12
-1864	-11456	11688	0	-6	-25	-10136	-10224	6792	9	-5	1	1512	-5000	16192	31	-3	8	-136	7976	13944	-8	18	-26	-11624	8592	8664	6	-6	20	80	4104	16376	13	-10	9	125	143	12
-2080	-11584	11720	-3	-9	-20	-10192	-10264	6656	18	-5	0	1280	-4752	16048	33	-4	7	-40	8032	13960	-3	20	-26	-11728	8848	9200	25	-13	29	-104	4248	16288	14	-21	11	124	141	12
-2016	-11748	11504	25	-10	-14	-10232	-10360	6640	9	3	-9	1184	-5000	16184	26	9	4	-136	8008	14032	7	19	-22	-11760	8728	8880	13	-12	19	152	4464	16568	7	-21	12	124	140	12
-2148	-11544	11784	33	-15	-15	-10336	-10256	6344	13	-3	-8	1184	-4904	15960	21	9	-2	-256	8272	14160	-6	16	-25	-11608	8728	8984	2	-4	20	104	4448	16440	3	-28	14	126	139	12
-2124	-11532	11820	25	-23	-17	-10928	-10288	6512	13	-5	0	1144	-4880	16224	32	1	-6	-208	7928	13800	-8	25	-27	-11552	8584	8696	-12	0	22	224	4224	16360	2	-25	16	125	140	12
-2000	-11360	11768	14	-15	-22	-10392	-10184	6856	-5	-4	-2	1272	-5040	15856	26	-1	-2	-160	8200	13960	-8	19	-23	-11416	8600	8800	13	-4	11	72	4168	16304	3	-18	19	123	139	12
-2132	-11548	11844	4	-16	-24	-10352	-10112	6520	-8	-6	0	1336	-4848	16280	22	3	3	-320	8264	13768	-29	13	-29	-11528	8664	8848	19	-4	20	96	4080	16392	5	-14	18	125	140	12
-2108	-11712	11516	12	-22	-27	-10416	-10264	6776	-10	-2	-5	1368	-4960	16104	24	8	11	-160	7936	14104	-38	15	-31	-11616	8480	8800	16	-6	27	224	4224	16392	20	-4	18	123	137	12
-1880	-11552	11828	21	-19	-15	-10448	-10264	6984	-15	-3	-13	1152	-5104	16136	16	11	13	-240	8208	14208	-37	15	-31	-11848	8656	8840	20	0	24	160	4296	16648	9	-2	19	125	138	12
-2096	-11552	11840	15	-13	-14	-10504	-10424	6696	3	-7	-12	1168	-5136	15912	30	2	15	-224	7920	13984	-30	11	-28	-11752	8672	8840	16	-1	23	-104	4208	16400	12	-7	22	125	137	12
-2052	-11216	11968	1	-3	-23	-10288	-10184	6800	20	-4	1	1144	-5120	16200	30	6	13	-128	8208	13952	-9	18	-30	-11608	8672	8712	12	-1	11	-96	4160	16384	17	-16	22	125	139	12
-2200	-11300	11964	-22	-9	-32	-10504	-10136	6712	26	-11	17	1200	-5064	16424	51	-12	5	-192	8096	14144	-10	20	-33	-11792	8728	8784	3	-5	14	56	4112	16592	12	-26	26	125	138	12
-2040	-11540	11628	-33	-11	-44	-10504	-10400	6504	6	-11	25	1280	-5000	16384	47	-15	-1	-184	7768	13784	-4	23	-26	-11584	8344	8696	1	-7	17	-72	4104	16328	25	-30	19	126	141	12
-1964	-11648	11700	-24	-6	-41	-10224	-10336	6728	5	-13	17	1280	-4856	16192	35	-3	-5	-312	8296	13792	-13	19	-27	-11632	8584	8576	25	-12	20	104	4024	16456	21	-27	8	124	140	12
-1996	-11788	11688	-19	-5	-27	-10400	-10288	6624	17	-12	7	1320	-4944	16152	29	8	0	-176	8000	13680	-18	18	-27	-11752	8648	8560	17	-9	36	224	4272	16304	22	-20	7	125	140	12
-1956	-11568	11592	-6	-6	-29	-10520	-10288	6624	12	-12	7	1328	-4976	15752	33	3	-2	-248	8280	13936	-8	19	-26	-11592	8704	8512	28	-17	27	40	4240	16376	20	-17	8	123	140	12
-2160	-11544	11772	-5	-10	-34	-10288	-10088	6712	9	-11	13	1160	-4760	16064	36	11	-10	-184	8160	13808	-19	14	-28	-11616	8880	8600	23	-15	22	16	4176	16592	12	-19	10	125	140	12
-1960	-11660	11716	0	-21	-35	-10392	-10184	6968	6	-20	13	1240	-4856	16328	33	11	-1	-152	7936	14088	-18	13	-26	-11760	8784	8728	12	-9	21	40	4344	16368	13	-16	15	123	141	12
-1948	-11516	11736	5	-13	-28	-10464	-10128	6872	-12	-20	3	1144	-4872	16240	32	5	4	-176	8120	13800	-24	11	-32	-11520	8696	8824	18	-13	22	40	4304	16512	17	-16	18	124	140	12
-2060	-11576	11616	0	-19	-31	-10320	-10208	6824	0	-8	0	1360	-4768	16248	45	-6	1	-72	7968	13544	-22	17	-28	-11752	8688	9072	12	-1	23	144	4248	16448	23	-22	19	125	140	12
-2040	-11512	11624	9	-20	-29	-10304	-10280	6784	13	-3	-2	1440	-4800	16336	31	-4	0	-128	8128	14184	-12	23	-32	-11608	8528	8608	6	-4	12	144	4352	16560	26	-19	21	125	139	12
-1912	-11688	11880	6	-12	-23	-10488	-10232	6872	11	-7	-2	1472	-4784	16368	22	3	7	-96	8296	14024	-21	30	-34	-11768	8736	8576	6	-2	19	128	4144	16448	13	-20	18	124	140	12
-1884	-11688	11824	2	-11	-16	-10672	-10184	7016	2	-5	-7	1160	-4792	16208	15	-4	11	-128	7784	13848	-14	25	-28	-11592	8560	8672	7	-1	21	24	4392	16368	10	-25	16	127	138	12
-2056	-11312	11844	-10	-7	-11	-10512	-10072	6728	-4	-6	-6	1216	-4840	16248	22	-13	12	-168	8144	14072	-18	22	-36	-11776	8736	8560	6	-3	18	56	4216	16496	3	-30	13	127	140	12
-2096	-11576	11716	-16	-7	-26	-10600	-10280	6712	-5	-5	3	1112	-4856	16392	25	-16	10	-184	7808	13816	-24	19	-30	-11680	8536	8656	4	2	23	72	4224	16240	4	-28	17	127	139	12
-2040	-11420	11752	-19	-4	-36	-10456	-10336	6816	-9	-10	4	1296	-5056	15984	13	-11	16	-200	8096	14200	-12	15	-26	-11728	8632	8744	8	-5	19	72	4152	16344	13	-21	16	125	139	12
-2000	-11696	11688	-32	-7	-38	-10296	-10360	6864	1	-8	5	1144	-4800	16048	28	-1	1	-168	8088	14016	-20	12	-34	-11712	8752	8608	15	-8	25	112	4200	16400	16	-16	14	125	139	12
-1976	-11748	11640	-18	-4	-37	-10352	-10296	6864	4	-9	5	1184	-4976	15960	30	-2	9	-152	8000	14104	-9	7	-24	-11688	8656	8800	19	-4	20	120	4456	16440	20	-13	15	124	139	12
-1908	-11600	11552	-10	-5	-32	-10288	-10424	6320	-1	-9	7	1424	-4928	16088	27	2	11	-208	8096	13968	-1	12	-20	-11824	8632	8848	26	-14	24	72	4368	16384	14	-10	18	126	137	12
-2084	-11684	11668	-5	-1	-31	-10224	-10336	6672	6	-3	-1	1408	-4904	16128	37	-5	9	-136	7848	13960	1	11	-20	-11680	8744	8576	10	-8	25	176	4392	16528	17	-15	20	125	139	12
-1896	-11584	11436	15	-12	-23	-10200	-10096	6808	5	-7	-2	1280	-4936	16248	36	5	1	-216	8224	13696	7	17	-24	-11600	8720	8664	13	-10	16	128	4184	16464	12	-16	17	126	139	12
-2056	-11820	11548	21	-23	-20	-10232	-10272	6672	4	-1	5	1352	-4744	16200	35	6	1	-56	8144	13920	-10	16	-29	-11632	8744	8728	11	-6	22	360	4312	16440	11	-15	16	126	138	12
-1932	-11832	11456	45	-30	-17	-10112	-10232	6744	-12	4	-6	1512	-4768	16304	26	6	2	-112	8032	13984	-7	12	-27	-11456	8760	8752	2	-4	21	168	4432	16200	6	-15	18	125	138	12
-1844	-11600	11612	60	-26	-8	-10240	-10176	6616	-12	3	-12	1424	-4704	16280	19	11	4	-96	8416	13800	-24	17	-32	-11576	8968	8664	12	1	18	248	4240	16416	-5	-18	17	125	136	12
-1904	-11644	11752	62	-25	-4	-10584	-10360	6816	-7	1	-19	1224	-4752	16224	17	2	10	-280	7832	13808	-29	14	-35	-11624	8696	8760	2	4	22	64	4344	16488	4	-15	19	124	139	12
-1928	-11388	11804	50	-13	-2	-10600	-10352	6784	-1	-2	-14	1112	-4936	16360	12	7	8	-200	8152	13904	-25	20	-31	-11608	8672	8824	14	2	19	96	4272	16472	4	-17	16	125	138	12
-2172	-11484	11928	25	-16	-7	-10624	-10256	6864	7	-3	-11	1008	-5088	16704	27	0	4	-104	8160	14112	-34	19	-35	-11680	8672	8672	1	-4	24	-96	4136	16376	10	-21	24	125	139	12
-2056	-11536	11872	14	-19	-20	-10648	-10256	6776	-2	-3	-4	1160	-4880	16240	33	-9	8	-200	7752	13904	-17	18	-28	-11680	8672	8624	-5	3	19	-128	4240	16512	15	-20	24	126	140	12
-1988	-11332	11924	-9	-13	-24	-10600	-9904	6784	-7	-8	5	1136	-4784	16096	29	-11	5	-256	8168	14096	-17	14	-24	-11592	8640	8792	27	-6	19	208	4304	16392	17	-14	16	124	138	12
-2076	-11672	11568	-23	-9	-32	-10400	-10296	6600	1	-10	3	1264	-4968	16440	40	-9	15	-104	7816	13984	-8	9	-24	-11624	8816	8648	25	-12	21	72	4320	16488	20	-10	21	124	139	12
-1908	-11576	11664	-12	-10	-32	-10256	-10312	6704	-8	-10	-1	1152	-4632	16352	26	5	13	-152	8112	13912	-7	17	-20	-11440	8680	8696	10	-6	19	88	4352	16368	18	-12	19	127	139	12
-2084	-11688	11592	-7	-9	-27	-10360	-10144	6664	7	-4	0	1224	-4920	16280	32	3	13	-112	8232	14080	-9	19	-28	-11696	8728	8792	5	-8	18	104	4312	16544	10	-16	14	124	139	12
-1896	-11720	11500	9	-18	-26	-10456	-10256	6784	3	-2	-5	1312	-4944	16256	30	2	11	-32	7808	14016	-4	17	-24	-11640	8664	8480	-6	0	17	144	4232	16360	8	-19	15	123	140	12
-1860	-11628	11768	15	-16	-17	-10336	-10056	6776	-7	-6	-4	1448	-4936	16064	26	9	11	-96	8224	13920	-15	14	-23	-11504	8648	8576	11	-3	16	200	4416	16432	10	-20	18	122	140	12
-2008	-11760	11540	23	-19	-17	-10336	-10328	6768	0	-5	-7	1296	-4920	16216	31	0	7	-160	7992	14080	-19	16	-26	-11688	8712	8672	11	-7	21	40	4248	16488	8	-14	18	124	141	12
-1932	-11616	11728	27	-11	-9	-10368	-10488	6632	4	-10	-6	1280	-5168	16144	28	3	6	-184	7976	14120	-12	19	-28	-11616	8744	8616	10	-5	13	104	4352	16328	6	-12	16	125	137	12
-2132	-11580	11712	24	-17	-8	-10440	-10416	6848	14	-9	-6	1272	-5080	16488	26	11	5	-120	8208	14096	-24	17	-27	-11736	8664	8528	9	-3	23	88	4248	16512	6	-15	23	127	137	12
-2084	-11600	11680	23	-19	-21	-10360	-10200	6624	13	-5	0	1208	-4896	16272	33	2	-3	-8	7776	13848	-15	15	-23	-11624	8552	8816	8	-7	22	24	4304	16288	14	-15	23	125	140	12
-1964	-11344	11800	12	-20	-21	-10336	-10056	6832	-5	-12	7	1200	-4632	16128	28	6	2	-216	8272	13912	-15	9	-26	-11728	8800	8616	24	-9	21	192	4272	16552	15	-12	19	125	139	12
-2016	-11780	11592	12	-16	-22	-10376	-10280	6856	-11	-9	-1	1288	-4688	16472	30	-1	6	-104	7744	13952	-11	16	-26	-11776	8656	8664	5	-9	24	104	4168	16432	12	-12	14	126	140	12
-1924	-11588	11780	20	-10	-16	-10424	-10136	6784	-10	-4	-15	1176	-4736	16040	21	3	11	-288	7984	13936	3	15	-19	-11672	8728	8792	12	-7	14	256	4248	16272	7	-16	13	125	140	12
-2028	-11528	11756	15	-15	-13	-10360	-10072	6832	4	-6	-11	1280	-4664	16320	19	-3	11	-240	8176	13944	-5	15	-20	-11552	8856	8560	10	-4	23	-8	4200	16440	-3	-19	9	127	137	12
-1964	-11560	11624	15	-15	-19	-10456	-10216	6848	-12	-1	-9	1408	-4808	16336	16	3	13	-120	8048	13960	-5	16	-24	-11560	8720	8624	3	-4	18	160	4328	16440	-2	-19	6	125	141	12
-2008	-11428	11840	6	-10	-22	-10376	-10176	6984	-15	0	-8	1232	-4904	16544	19	1	14	-168	8232	13840	-18	17	-31	-11608	8840	8880	1	-6	25	72	4320	16384	-5	-22	10	127	142	12
-2084	-11604	11764	-4	-14	-27	-10424	-10392	7048	-4	-2	-11	1232	-4808	16160	35	-10	6	-160	7848	13936	-24	20	-37	-11656	8648	8528	-1	0	23	32	4376	16472	-2	-18	12	126	139	12
-1916	-11520	11824	-3	-8	-29	-10496	-10264	6936	-1	-4	-9	1208	-4824	15936	20	-9	10	-288	8152	14104	-12	17	-26	-11648	8704	8816	12	0	15	96	4296	16376	-5	-20	13	126	139	12
-2060	-11680	11652	-6	-8	-27	-10424	-10328	6856	6	-5	-8	1184	-4824	16264	24	-2	12	-136	8072	14000	-27	21	-31	-11712	8832	8832	19	-5	20	64	4232	16544	-2	-18	12	126	142	12
-1952	-11752	11484	1	-10	-23	-10384	-10216	6488	-1	-1	-8	1144	-4944	16168	21	-3	11	-128	7832	13984	-13	18	-25	-11568	8712	8704	13	-5	10	-48	4360	16592	6	-16	14	126	140	12
-1932	-11584	11660	12	-12	-18	-10520	-10384	6576	-9	-5	-9	1072	-4992	16152	20	6	9	-216	8064	13832	-13	18	-27	-11704	8792	8824	10	-6	13	-8	4360	16400	2	-19	19	125	139	12
-2024	-11652	11748	8	-22	-20	-10504	-10336	6744	-7	-4	-9	1264	-4944	16096	28	-1	5	-184	7848	13920	-11	20	-24	-11848	8608	8656	-9	-3	17	-72	4192	16600	9	-15	20	126	138	12
-1956	-11428	11748	5	-11	-27	-10544	-10160	6880	-9	-8	-1	1296	-4784	16024	20	1	4	-296	8160	13976	0	15	-21	-11712	8488	8416	-3	-5	5	120	4208	16000	10	-15	19	126	138	12
-2028	-11632	11652	10	-17	-19	-10256	-10208	6648	2	-7	-4	1240	-4912	16160	23	5	0	-240	8168	13856	-12	16	-23	-11656	8584	8368	16	-9	16	32	4080	16192	8	-16	15	121	139	12
-2004	-11628	11600	3	-18	-24	-10104	-10424	6488	1	-1	-5	1352	-4784	16120	22	9	6	64	7736	13880	-7	11	-24	-11456	8600	8768	20	-8	23	80	4232	16560	8	-13	9	125	140	12
-1964	-11608	11580	32	-24	-12	-10280	-10368	6704	-5	-3	-1	1296	-4920	16352	26	5	4	-184	8376	13968	-15	14	-25	-11688	8832	8656	30	-19	22	208	4320	16376	7	-15	8	124	138	12
-1980	-11728	11744	33	-22	-13	-10456	-10400	6720	3	0	-12	1184	-4832	16280	27	5	3	-56	7880	14304	-20	15	-29	-11664	8688	8800	-4	0	25	40	4280	16432	11	-18	15	125	137	12
-1828	-11444	11756	39	-20	-12	-10312	-10128	6792	6	0	-9	1264	-4968	16208	26	0	5	-224	7904	13920	-2	23	-24	-11592	8712	8592	-1	1	14	128	4280	16576	7	-15	17	124	139	12
-2040	-11532	11832	30	-19	-10	-10280	-10232	6560	7	-2	-6	1168	-4920	16168	37	5	5	-48	8064	14080	-4	19	-26	-11624	8720	8664	11	-3	23	-8	4192	16504	3	-20	21	124	141	12
-1896	-11640	11612	25	-24	-13	-10424	-10264	6936	-5	1	-5	1328	-4832	16040	25	2	6	-16	7920	14008	-3	22	-24	-11616	8592	8528	7	-2	19	-8	4096	16448	1	-21	17	125	140	12
-1896	-11496	11784	23	-19	-7	-10376	-10248	6728	1	0	-4	1280	-4760	16248	13	-1	8	-216	8192	14016	-10	21	-28	-11512	8680	8856	21	-6	20	256	4192	16416	5	-19	11	125	139	12
-2032	-11728	11704	33	-23	-2	-10440	-10304	6728	-2	0	-11	1224	-4776	16296	17	9	11	-152	7952	14024	-18	21	-25	-11752	8744	8928	10	-5	25	184	4344	16416	14	-16	11	125	138	12
-1940	-11440	11892	33	-18	-4	-10504	-10160	6592	-4	-4	-18	1072	-4864	16328	11	13	16	-248	8080	13904	-6	17	-31	-11624	8720	8656	12	-4	20	-48	4360	16272	9	-19	16	126	137	12
-2152	-11400	11824	17	-15	-15	-10400	-10272	6616	11	-5	0	1320	-5000	16152	33	8	12	-104	8208	13816	-24	17	-34	-11592	8872	8704	10	-5	23	-8	4272	16376	5	-31	19	127	137	12
-1944	-11432	11712	11	-25	-23	-10448	-10200	6920	2	0	-3	1160	-4920	16336	33	-5	9	-168	7832	13800	-16	19	-36	-11624	8504	8504	-5	-4	22	72	4312	16312	13	-20	22	124	139	12
-1928	-11592	11764	4	-10	-20	-10328	-10272	6864	-9	-4	0	1224	-4800	16032	33	-2	4	-136	8088	13904	-16	14	-32	-11752	8768	8848	12	-4	20	88	4328	16480	12	-15	15	125	138	12
-1940	-11660	11728	9	-20	-15	-10472	-10296	6632	-2	-8	-10	1112	-4736	16488	32	-2	7	-312	7688	14200	-9	13	-25	-11768	8640	8720	11	-5	16	24	4208	16512	6	-10	16	124	142	12
-1968	-11332	11676	15	-11	-17	-10416	-10288	6784	-1	-4	-5	1144	-4968	15968	20	-1	11	-104	8240	13944	0	14	-21	-11560	8640	8608	13	-4	10	-88	4232	16048	6	-10	18	123	138	12
-1912	-11296	11724	12	-2	-14	-10384	-10232	6416	-11	-10	-6	1064	-4792	16512	27	2	4	-240	8464	14008	-4	12	-23	-11640	8768	8632	9	-9	22	120	4064	16264	8	-19	15	125	138	12
-2036	-11640	11588	27	-18	-22	-10376	-10376	6680	-7	-1	-8	1336	-4784	16320	27	4	6	-24	7840	14008	-12	13	-28	-11664	8568	8816	14	-13	25	240	4336	16600	15	-19	15	125	140	12
-1940	-11500	11836	29	-19	-19	-10512	-10304	6704	-12	-5	-4	1360	-4864	16312	24	5	3	-168	8112	14016	-10	16	-26	-11632	8848	8616	15	-11	23	104	4408	16368	6	-24	11	125	138	12
-1948	-11732	11796	25	-17	-14	-10560	-10392	6872	-12	-6	-6	1216	-4848	16192	24	7	7	-176	7824	14016	-13	16	-26	-11696	8696	8592	-1	-8	24	-16	4520	16552	6	-16	15	123	138	12
-1888	-11392	11848	30	-18	-10	-10504	-10368	6776	-3	-3	-5	1208	-4888	16368	20	-4	8	-152	8088	13920	-2	19	-24	-11688	8792	8792	11	-7	15	184	4352	16392	5	-11	14	124	139	12
-2116	-11544	11820	13	-13	-15	-10432	-10376	6592	18	-2	-5	1032	-4864	16224	25	-7	0	-144	8264	13896	-11	14	-19	-11688	8752	8832	22	-9	16	16	4160	16456	3	-17	19	125	138	12
-2076	-11504	11668	17	-19	-16	-10416	-10176	6592	8	-1	-2	1232	-4768	16400	22	-6	0	-80	7984	13968	-10	22	-22	-11512	8832	8896	1	4	14	112	4280	16344	13	-16	20	123	138	12
-2056	-11400	11892	7	-12	-23	-10440	-10224	6720	-7	-7	0	1320	-4896	16072	34	-1	1	-176	8192	13768	-17	23	-28	-11576	8600	8592	-6	1	15	88	4280	16448	12	-23	24	125	140	12
-2024	-11676	11676	4	-13	-19	-10536	-10376	7048	-10	-8	-3	1480	-4720	16424	42	-2	5	-80	7752	14112	-24	21	-30	-11544	8512	8784	0	0	20	128	4264	16312	6	-18	19	124	138	12
-1912	-11304	11672	5	-6	-21	-10368	-10144	6880	-3	-8	-2	1312	-4768	16304	26	-2	9	-160	8120	14064	-14	18	-25	-11648	8560	8456	21	-6	15	56	4232	16400	9	-9	14	126	141	12
-2120	-11552	11756	-6	-7	-24	-10344	-10304	6744	4	-6	-2	1184	-4840	16472	20	4	8	-224	7992	14040	-17	19	-28	-11536	8704	8696	20	-8	19	24	4256	16536	8	-17	11	124	139	12
-1892	-11740	11492	9	-18	-21	-10536	-10344	6744	2	-3	-5	1264	-4848	16184	16	7	5	-192	7920	14128	-4	14	-24	-11656	8656	8720	9	-5	10	-8	4240	16544	7	-10	14	124	140	12
-1948	-11452	11844	14	-11	-15	-10384	-10128	6720	5	-9	-7	1232	-5024	16368	18	4	0	-144	8200	14032	-7	19	-26	-11688	8776	8832	5	-8	13	-24	4256	16632	3	-18	14	124	139	12
-2024	-11540	11740	5	-17	-20	-10368	-10344	6648	7	-4	-9	1184	-4896	16104	31	-1	2	-176	7872	14008	-9	14	-24	-11760	8776	8808	0	-4	15	-40	4384	16312	5	-20	16	125	139	12
-1848	-11528	11744	15	-17	-24	-10296	-10288	6872	-13	-4	0	1208	-4824	16376	24	-4	8	-120	8008	13984	-2	19	-26	-11568	8576	8672	9	-4	12	184	4240	16344	8	-17	21	123	140	12
-2016	-11504	11756	8	-18	-19	-10328	-10344	6744	-11	-8	-2	1184	-4960	16152	29	-1	8	-376	8136	13976	-14	15	-30	-11664	8832	8560	14	-11	21	296	4280	16328	4	-16	18	125	140	12
-1980	-11684	11624	19	-10	-17	-10328	-10416	6936	3	-4	-2	1288	-4800	16032	27	-1	3	-320	7840	14136	-15	17	-27	-11640	8720	8896	1	0	19	112	4336	16456	5	-14	13	125	139	12
-1960	-11472	11788	19	-8	-13	-10440	-10544	6616	5	0	-9	1304	-4936	16472	15	4	6	-192	8264	13888	-14	18	-24	-11784	8816	8856	16	-1	16	48	4224	16464	2	-15	13	125	140	12
-2088	-11652	11680	19	-15	-13	-10488	-10216	6648	6	1	-10	1088	-4912	16416	25	-1	6	-312	7960	13896	-13	20	-30	-11672	8816	8920	6	0	23	-112	4464	16480	10	-19	14	125	139	12
-1992	-11344	11840	20	-15	-17	-10424	-10272	6824	-2	-8	-3	1184	-4976	16104	21	-4	8	-168	8056	13832	-5	17	-28	-11576	8648	8672	-8	-7	7	160	4312	16320	5	-20	23	125	138	12
-2128	-11380	11904	6	-12	-20	-10328	-10304	6752	-1	-2	0	1144	-4896	16152	31	-5	4	-128	8176	14168	-7	21	-26	-11544	8720	8656	-1	-6	18	72	4024	16448	10	-18	21	126	138	12
-1868	-11632	11664	7	-14	-18	-10376	-10208	6712	-4	-11	1	1272	-4696	15992	32	-2	9	-184	7952	13880	-9	13	-24	-11576	8616	8824	7	-6	26	24	4264	16336	13	-15	14	125	138	12
-1932	-11436	11692	17	-12	-17	-10496	-10208	6848	-10	-5	-5	1280	-4744	16264	25	2	11	-144	8240	14128	-7	14	-24	-11640	8608	8744	24	-9	21	128	4088	16480	12	-12	7	124	140	12
-2028	-11708	11632	23	-20	-16	-10296	-10208	6984	-3	-2	-1	1504	-4792	16320	36	-2	8	-328	8160	13928	-8	14	-26	-11768	8672	8704	26	-12	28	144	4304	16376	9	-14	9	123	142	12
-1932	-11692	11728	32	-17	-10	-10304	-10376	6944	-12	-1	-12	1192	-4776	16144	26	0	18	-144	7976	14104	-5	16	-23	-11640	8848	8568	12	-5	20	112	4376	16536	8	-22	13	125	138	12
-2116	-11512	11844	35	-21	-5	-10488	-10312	6632	-1	-4	-18	1184	-4976	16240	17	-3	12	-320	8032	13704	-6	17	-24	-11760	8848	8888	11	-8	26	216	4280	16368	4	-22	12	122	137	12
-2064	-11564	11844	34	-18	-13	-10520	-10288	6856	2	2	-7	1088	-4856	16392	21	5	7	-64	7960	13928	-2	16	-28	-11624	8856	8848	13	-9	18	40	4696	16416	5	-19	11	124	139	12
-2032	-11244	11980	19	-18	-17	-10584	-10344	6632	-3	-5	-4	1152	-4976	16440	18	-1	-1	-248	8456	14016	-7	19	-24	-11624	8888	8720	-5	-5	13	24	4432	16376	0	-18	18	125	137	12
-2060	-11580	11956	2	-16	-24	-10400	-10352	6952	-4	-11	3	1152	-4856	16424	30	-11	-2	-328	7888	14160	-23	17	-29	-11696	8688	8688	-19	1	16	-72	4424	16480	0	-19	19	126	138	12
-2032	-11360	11724	-2	-8	-24	-10240	-9984	6888	-10	-4	2	1304	-4784	16120	22	-8	0	-112	7904	14008	-15	18	-26	-11560	8656	8656	0	-2	7	-16	4200	16224	6	-18	23	123	138	12
-2004	-11528	11764	-7	-10	-27	-10288	-10248	6648	-13	-10	0	1376	-4704	16280	21	4	1	-256	8096	13928	-20	21	-28	-11608	8712	8624	18	-8	16	272	4112	16384	10	-16	20	123	138	12
-1860	-11640	11548	9	-14	-18	-10184	-10344	6856	-10	-11	-9	1248	-4768	16160	13	8	12	-144	7760	14048	-16	16	-28	-11512	8696	8704	23	-10	17	128	4376	16272	12	-10	15	125	139	12
-1940	-11348	11744	16	-9	-12	-10200	-10144	6600	4	-3	-10	1208	-4936	15896	14	2	10	-144	8176	13944	-18	14	-29	-11672	8728	8552	21	-10	14	128	4320	16248	4	-13	6	125	142	12
-2140	-11560	11660	14	-21	-17	-10336	-10312	6640	13	1	-13	1128	-4872	16296	25	-2	2	-144	7904	14032	-20	15	-24	-11736	8776	8752	1	-4	22	-72	4208	16456	-2	-17	15	124	140	12
-1972	-11424	11796	19	-13	-21	-10328	-10336	6712	-2	-4	-7	1136	-5032	16160	30	6	5	-120	8008	14048	-1	17	-27	-11592	8632	8600	-6	-5	16	144	4304	16264	6	-18	14	126	139	12
-2084	-11432	11832	11	-19	-23	-10320	-10344	6952	1	-1	-7	1288	-5088	16456	26	-5	2	-152	8032	13848	-6	21	-24	-11624	8728	8952	5	-6	16	48	4336	16664	-3	-27	15	124	139	12
-1916	-11640	11700	18	-23	-16	-10312	-10344	6848	3	2	-5	1368	-4864	16336	13	-6	3	-104	7904	14008	-2	20	-27	-11432	8544	8520	-8	4	14	64	4320	16648	-4	-22	16	126	140	12
-1912	-11528	11784	25	-13	-8	-10240	-10312	6816	-3	0	-5	1208	-4856	16280	10	1	-3	-152	8216	14008	-8	23	-24	-11640	8600	8768	14	-4	15	-32	4296	16496	-1	-17	16	125	137	12
-1996	-11816	11564	40	-20	0	-10328	-10272	6672	-6	2	-11	1272	-4912	16392	10	-7	7	-192	7968	13960	-15	25	-26	-11600	8688	8768	11	-6	24	0	4264	16464	8	-19	14	124	140	12
-1928	-11364	11684	44	-19	6	-10456	-10080	6704	-14	-3	-16	1064	-4808	15992	7	-3	8	-216	8000	14032	-5	23	-26	-11528	8648	8592	5	-3	12	-16	4360	16560	15	-14	16	125	138	12
-1940	-11240	11796	45	-14	10	-10296	-10264	6624	-1	-3	-11	1128	-4936	16136	11	-3	5	-240	8096	13608	-11	20	-27	-11800	8712	8704	13	-3	16	64	4320	16288	9	-20	17	124	140	12
-2076	-11532	11740	49	-23	-3	-10400	-10200	6856	-7	4	-19	1128	-4856	16472	3	1	11	-184	7904	14048	-6	15	-22	-11488	8640	8992	7	-1	15	96	4280	16128	10	-17	18	125	140	12
-1880	-11324	11820	50	-24	-4	-10496	-10280	6720	-7	-1	-14	1360	-4672	16216	-4	-3	8	-248	8272	13904	-10	9	-30	-11600	8736	8600	3	-3	15	-48	4192	16472	2	-11	18	124	139	12
-1924	-11572	11636	52	-36	0	-10120	-10176	6632	-12	0	-15	1544	-4808	16376	10	-12	10	-296	7936	13792	-15	11	-24	-11728	8600	8832	-3	-4	26	0	4120	16440	4	-11	12	124	139	12
-1868	-11668	11616	73	-36	9	-10064	-10568	6728	-32	5	-23	1488	-4928	16208	-6	-5	18	-312	7888	14056	4	14	-25	-11688	8536	8848	10	-4	14	248	4256	16424	4	-12	6	125	139	12
-1996	-11644	11820	97	-33	24	-10296	-10536	6576	-12	7	-29	1392	-5032	16120	-9	-1	16	-192	8280	13896	5	9	-19	-11712	8608	9016	26	-7	20	216	4072	16352	-5	-12	2	125	139	12
-2116	-11552	11708	113	-33	31	-10392	-10584	6448	-1	10	-30	1304	-5144	16280	-8	-5	9	-80	8080	13744	3	11	-17	-11528	8712	8808	22	-6	22	8	4320	16360	-1	-12	1	125	138	12
-2104	-11320	11936	112	-32	25	-10504	-10560	6560	8	9	-19	1072	-5520	16392	-4	4	-7	-96	8160	14104	-2	15	-22	-11496	8736	8672	7	-4	20	80	4256	16312	-1	-21	7	124	140	12
-2156	-11228	12064	97	-37	17	-10696	-10552	6888	12	9	-11	1008	-5200	16248	11	10	-21	-200	8080	14016	-16	20	-25	-11752	8832	8632	-8	0	23	-128	4224	16376	9	-24	13	125	139	12
-2012	-11092	12088	82	-29	9	-10360	-10200	6712	13	11	6	1232	-5128	15920	21	5	-17	-8	8192	13944	-2	18	-25	-11608	8640	8696	4	-4	17	0	4280	16424	11	-22	17	127	139	12
-2080	-11180	12208	55	-16	6	-10296	-10096	6848	2	1	9	1360	-4824	16120	23	-2	-18	-112	8168	14048	-10	19	-26	-11664	8704	8704	20	-12	22	-88	4216	16672	12	-19	12	127	138	12
-1976	-11492	12032	57	-20	5	-10328	-10128	6568	-14	-7	-1	1152	-4744	16376	10	2	-3	-128	7928	13984	-1	14	-25	-11768	8784	8616	29	-13	24	128	4408	16488	18	-15	8	124	139	12
-2040	-11216	12044	55	-16	3	-10416	-10184	6936	-11	-6	-16	1248	-4872	16248	1	11	3	-288	8024	13912	4	16	-19	-11608	8856	8720	21	-6	19	-16	4424	16328	10	-14	10	124	138	12
-2228	-11280	12064	39	-20	-5	-10568	-10288	6640	11	-5	-8	1088	-4992	16296	25	7	-6	-160	8120	13816	-1	17	-23	-11520	8768	8720	12	-6	17	80	4288	16392	3	-23	18	127	139	12
-2144	-11068	12132	35	-22	-17	-10520	-10176	6600	18	3	-7	1104	-4872	16152	31	4	-1	-72	7920	13832	-3	16	-27	-11448	8696	8656	5	-3	14	176	4352	16120	13	-23	18	123	141	12
-1988	-11036	12260	3	-15	-28	-10456	-10056	7136	-3	-6	5	1072	-4760	16368	27	-3	4	-224	8248	13672	-20	20	-30	-11648	8848	8696	8	-13	19	176	4464	16648	7	-22	14	126	139	12
-1984	-11352	12056	-16	-8	-28	-10416	-10280	6808	-9	-6	-6	1208	-4744	16136	30	-10	15	-264	7856	14184	-14	19	-26	-11728	8944	8712	0	-7	23	232	4416	16504	-4	-11	14	124	140	12
-1928	-11236	12064	-16	-5	-26	-10344	-10352	7088	-11	-6	-12	1296	-4856	16392	16	-16	23	-192	8216	14064	-10	15	-25	-11816	8864	9016	11	-3	10	-32	4304	16544	-1	-18	15	125	138	12
-2072	-11516	11816	-18	-8	-27	-10312	-10424	6640	-1	-1	-8	1320	-4928	16208	19	-16	14	-136	7984	14264	-12	15	-29	-11792	8728	8832	14	-2	15	-96	4264	16568	-2	-24	16	125	139	12
-2012	-11352	11760	0	-3	-26	-10360	-10384	6656	-6	4	-7	1192	-5024	16160	4	-4	8	-248	7856	13856	8	20	-23	-11600	8544	8768	9	-2	8	184	4304	16416	8	-26	15	124	136	12
-2024	-11264	11924	-4	-9	-24	-10088	-10344	6896	-7	0	-3	1344	-5088	16304	14	-5	0	-32	8208	14160	-3	20	-25	-11560	8944	8728	8	-5	13	208	4312	16416	0	-25	14	126	139	12
-2028	-11516	11896	4	-11	-16	-10384	-10536	6696	3	2	-6	1288	-4944	16128	20	-7	3	-216	7992	13904	-16	15	-27	-11520	8840	8704	-12	-3	15	0	4280	16488	2	-20	18	126	138	12
-1928	-11284	11876	18	-7	-12	-10104	-10384	6696	2	1	-3	1304	-5272	16208	18	-8	1	-56	8240	14024	-13	15	-27	-11584	8544	8536	-8	0	10	48	4192	16536	7	-8	23	127	136	12
-2156	-11444	11820	22	-16	-7	-10280	-10560	6512	6	0	-7	1192	-5168	16032	23	1	-1	-64	8112	14096	-24	16	-26	-11768	8616	8696	4	-1	15	128	4008	16496	5	-11	20	126	135	12
-2036	-11288	11860	33	-20	-9	-10424	-10424	6488	13	3	2	1024	-5128	16104	24	13	1	-112	7864	14016	-4	14	-24	-11672	8600	8600	5	-1	13	104	4216	16344	18	-11	16	126	138	12
-2080	-11168	12000	27	-16	-12	-10328	-10328	6624	6	-4	9	960	-4920	16080	25	5	-10	-176	8128	13696	0	16	-24	-11616	8600	8520	31	-7	17	-128	4064	16448	17	-15	18	126	138	12
-2004	-11440	11872	30	-23	-15	-10352	-10224	7024	-10	-7	3	1200	-4872	16368	26	-3	-8	-216	7992	14144	-5	15	-20	-11616	8816	8736	23	-16	18	64	4312	16552	18	-22	18	124	136	12
-1912	-11212	12036	35	-17	-8	-10368	-10312	6544	-19	-10	-1	1200	-4960	16200	14	-5	-3	-96	8272	13960	-3	19	-26	-11616	8616	8624	7	-11	16	-40	4272	16480	13	-14	20	124	139	12
-2000	-11192	11976	37	-23	-12	-10472	-10336	6632	1	-7	-2	1208	-4848	16416	17	-5	-2	-328	8016	13976	-8	17	-23	-11640	8584	8824	-1	-8	23	176	4448	16736	8	-14	15	124	139	12
-2048	-11200	11988	31	-14	-10	-10400	-10224	6512	11	-1	-3	1296	-4808	16136	19	-2	0	-72	7960	13968	8	17	-22	-11512	8560	8640	5	-5	11	8	4320	16320	7	-18	11	124	141	12
-2108	-11076	12060	11	-15	-17	-10336	-9896	6752	11	3	5	1168	-4704	16192	19	3	-4	-144	8128	13776	3	15	-21	-11504	8728	8816	14	-9	13	24	4160	16384	3	-23	9	125	139	12
-2136	-11460	11896	11	-12	-24	-10304	-10176	7024	0	-3	-5	1152	-4696	16304	26	-10	1	-96	8112	14144	-11	13	-26	-11600	8856	8616	15	-10	20	104	4416	16280	5	-25	7	126	139	12
-1888	-11064	12072	6	-5	-21	-10264	-10176	6984	-22	-10	-10	1352	-4888	16024	15	-10	12	-128	8112	14048	-7	16	-29	-11680	8648	8608	6	-8	21	40	4448	16440	0	-19	9	126	141	12
-2116	-11376	12104	-6	-9	-24	-10496	-10328	6712	-9	-4	-6	1128	-4896	16432	22	-12	10	-248	7968	14144	-15	18	-31	-11544	8784	8744	19	-9	18	96	4376	16616	-4	-18	9	125	137	12
-2068	-11284	12064	-6	-10	-26	-10472	-10408	6712	3	-1	-14	1176	-5008	16032	19	-5	16	-64	8000	13936	-9	19	-26	-11696	8592	8720	6	-4	13	144	4288	16312	1	-20	21	126	139	12
-2076	-11176	12092	-14	-6	-29	-10504	-10296	6480	3	0	-1	1112	-5096	16072	20	-2	10	-192	8168	13760	-23	19	-30	-11584	8864	8808	0	0	8	24	4264	16384	1	-17	26	126	140	12
-2036	-11492	11820	-13	-14	-34	-10264	-10392	6776	-1	-3	0	1288	-5024	16296	31	-6	9	-112	7856	14144	-19	14	-25	-11768	8712	8784	-4	-1	9	0	4184	16576	8	-21	27	125	137	12
-1980	-11352	11780	-3	-13	-28	-10240	-10440	6600	-9	-9	-4	1296	-5008	15960	27	2	3	-120	8200	13904	-14	16	-26	-11800	8536	8576	-1	0	9	-24	4304	16648	13	-16	25	123	137	12
-2120	-11584	11804	8	-18	-22	-10160	-10520	6528	5	-7	-4	1232	-5000	16256	16	5	-3	-304	7968	13840	-16	19	-27	-11784	8856	8800	11	-5	18	-64	4176	16464	6	-16	20	124	138	12
-1956	-11460	11800	27	-16	-15	-10368	-10592	6672	17	-4	5	1248	-5032	16192	6	19	-9	-152	7888	14024	4	14	-17	-11696	8608	9000	24	-9	7	-8	4184	16376	4	-14	17	123	136	12
-1996	-11336	11808	36	-14	-7	-10144	-10464	6624	16	-5	5	1336	-5240	16184	-1	15	-21	-184	8080	14032	-2	18	-23	-11568	8656	8536	23	-4	6	72	4160	16344	7	-19	16	125	138	12
-2072	-11556	11848	54	-25	-5	-10200	-10560	6320	23	-3	2	1304	-5056	16104	6	10	-27	-96	8024	14168	-9	16	-28	-11680	8704	8728	2	-7	19	112	4384	16168	8	-27	10	124	139	12
-1984	-11268	11872	69	-29	1	-10328	-10440	6960	6	-4	3	1320	-4936	16104	13	9	-29	-216	8128	13896	-9	21	-27	-11608	8568	8688	-8	-2	14	272	4464	16240	7	-23	10	125	140	12
-2132	-11244	12032	63	-32	3	-10560	-10336	6864	8	-5	-1	1176	-4928	16208	9	9	-21	-224	8088	13960	-15	22	-28	-11696	8656	8496	-1	-1	20	8	4288	16696	-1	-15	14	123	138	12
-1964	-11248	12092	54	-21	2	-10544	-10176	6792	1	1	-9	1224	-4736	16560	10	3	-2	-8	7840	14064	-12	18	-27	-11672	8544	8704	5	-3	15	152	4216	16168	5	-13	19	124	139	12
-2044	-10980	12160	27	-12	-2	-10392	-10136	7008	-4	-5	-1	1152	-4840	16240	12	-6	3	-152	8216	13976	-11	24	-29	-11712	8632	8880	21	-10	16	120	4168	16592	9	-19	20	124	138	12
-2168	-11336	11944	14	-19	-5	-10416	-10200	6704	8	1	2	1224	-5032	16432	27	-9	2	-184	8008	14072	-10	18	-31	-11904	8664	8800	9	-4	16	48	4008	16504	20	-18	18	124	136	12
-2068	-11108	12108	14	-15	-11	-10416	-10288	6936	8	1	-8	1192	-4856	16376	32	-5	11	-264	8216	13888	1	16	-21	-11744	8456	8744	6	2	16	-32	4272	16464	15	-20	13	125	140	12
-2180	-11120	12124	-6	-9	-22	-10520	-10208	6880	16	-6	-8	1288	-5072	16208	32	4	13	-160	8160	13704	-6	17	-22	-11528	8640	8872	12	-7	26	32	4288	16248	7	-20	14	126	141	12
-2124	-11220	11964	-5	-6	-28	-10416	-10376	6720	0	-4	-7	1136	-4872	16088	37	-9	12	-48	8048	13816	-1	9	-22	-11416	8760	8696	17	-9	17	88	4368	16168	5	-18	11	125	138	12
-2052	-10972	12048	-19	-5	-36	-10296	-10176	6784	-8	-7	-1	1200	-5040	16200	29	-4	19	24	8248	13936	-8	14	-26	-11592	8768	8728	6	-7	18	128	4368	16176	0	-14	15	125	137	12
-2112	-11448	11988	-23	-10	-34	-10248	-10512	6512	7	-2	-3	1208	-5008	16392	35	0	8	-200	8048	14048	-20	13	-27	-11536	8816	8736	-4	-2	22	8	4312	16416	6	-21	18	126	138	12
-1944	-11488	11924	3	-12	-34	-10184	-10520	6560	-5	-7	-7	1144	-5040	16168	26	2	10	-184	7896	13832	-9	15	-24	-11696	8648	8824	-7	-3	11	152	4304	16352	8	-20	14	125	141	12
-2048	-11264	11908	5	-13	-24	-10112	-10424	6704	-3	-9	-1	1312	-5208	16368	21	-1	-1	-160	7992	13848	-10	14	-30	-11704	8784	8600	19	-6	15	120	4216	16304	3	-21	16	124	138	12
-2032	-11444	11864	16	-17	-17	-10320	-10408	6832	-1	-4	-8	1408	-4848	16216	22	-1	2	-224	7816	13856	-5	13	-24	-11656	8584	8688	17	-5	10	264	4208	16312	11	-15	18	126	139	12
-1936	-11060	12076	19	-11	-14	-10256	-10208	6656	-16	-7	-3	1336	-5056	16392	9	4	3	-184	8144	13800	-6	21	-25	-11536	8632	8824	17	-7	13	96	4192	16392	8	-10	19	125	139	12
-2136	-11520	11860	18	-13	-15	-10296	-10368	6768	-9	-3	-1	1320	-5032	16368	27	-4	3	16	8088	13976	-17	11	-23	-11592	8704	8784	17	-6	19	48	4136	16336	3	-15	14	124	139	12
-1996	-11336	11940	32	-17	-15	-10576	-10352	6552	-8	1	-8	1160	-4960	16016	22	4	3	-96	7904	14080	-10	12	-26	-11696	8536	8936	3	-3	10	160	4384	16304	5	-17	13	125	139	12
-2092	-11104	12084	18	-19	-15	-10304	-10136	6832	2	0	-4	1328	-5104	16336	21	7	0	-160	8248	13880	-6	16	-30	-11688	8576	8696	6	-2	11	96	4152	16440	-9	-22	13	127	140	12
-2152	-11464	11948	15	-20	-26	-10504	-10392	6648	13	0	-3	1248	-4960	16272	27	-4	-2	-192	7952	14032	-4	18	-26	-11688	8704	8616	1	-6	16	88	4248	16304	1	-20	17	123	143	12
-1912	-11096	12176	10	-10	-22	-10392	-10248	6832	0	-4	2	1184	-4944	16184	14	0	5	-264	8144	13952	-7	19	-25	-11696	8784	8608	2	-6	12	208	4296	16368	9	-23	22	126	137	12
-2112	-11264	11992	-4	-8	-20	-10264	-10232	6632	4	-5	-4	1184	-4992	16384	26	-8	6	-248	8352	13856	-20	16	-30	-11624	8872	8688	17	-9	22	96	4192	16704	5	-15	17	126	138	12
-2016	-11380	11808	9	-10	-24	-10256	-10232	6744	0	-4	-7	1288	-4872	16328	33	-4	14	-96	7896	14120	-11	18	-28	-11656	8752	8784	7	-1	17	40	4352	16528	8	-13	16	124	141	12
-2028	-11256	11972	6	-8	-17	-10224	-10280	6736	-9	-7	-4	1168	-5016	16216	24	5	13	-312	8048	14064	-11	14	-25	-11640	8552	8760	15	-7	16	104	4200	16464	10	-13	15	125	139	12
-2140	-11480	11884	17	-18	-18	-10384	-10400	6744	0	-6	-10	1272	-5000	16248	31	0	7	-16	7768	14032	-5	16	-26	-11728	8680	8728	21	-5	19	-48	4296	16192	8	-15	11	124	140	12
-2008	-11140	12020	21	-13	-16	-10304	-10312	6848	2	-3	-6	1320	-5000	16296	18	-4	3	-280	8056	13928	0	18	-21	-11592	8600	8760	13	-4	10	208	4304	16416	8	-23	10	127	139	12
-2124	-11308	12032	21	-23	-14	-10200	-10328	6784	2	-8	-3	1280	-5128	16360	19	0	-3	-328	8168	13984	-11	17	-24	-11736	8784	8656	10	-11	18	160	4328	16320	-1	-20	14	124	138	12
-2060	-11552	12004	29	-17	-18	-10336	-10328	6792	0	-3	-12	1200	-4928	16128	16	0	1	-216	7960	14056	-11	12	-27	-11592	8728	8568	-3	-5	17	120	4376	16176	0	-15	16	124	141	12
-2060	-11164	12112	33	-19	-8	-10192	-10240	6448	-3	-1	-9	1208	-4952	16328	16	5	6	-264	8112	13944	-14	13	-23	-11728	8688	8784	-4	-1	13	104	4136	16280	-3	-11	16	126	139	12
-2168	-11384	11820	32	-25	-11	-10312	-10384	6576	4	5	-11	1192	-4976	15992	21	-5	2	-128	7928	13864	-9	16	-19	-11856	8632	8968	5	-5	14	-32	4176	16664	-4	-16	16	125	140	12
-1956	-11108	11984	41	-20	-9	-10352	-10344	6672	-19	0	-9	1192	-4936	16200	12	3	3	-96	8128	14136	3	17	-20	-11568	8688	8616	17	2	8	80	4184	16400	0	-18	14	126	138	12
-2192	-11244	12012	39	-24	-3	-10304	-10288	6640	-8	-3	-11	1200	-5008	16168	12	-3	2	-112	8176	13928	-5	15	-25	-11640	8784	8760	21	-2	11	-64	4232	16352	0	-21	15	125	138	12
-2068	-11344	12060	46	-23	-9	-10344	-10312	7008	-12	-5	-11	1176	-4856	16160	9	-10	0	-56	7880	14032	-10	18	-24	-11576	8760	8624	17	-4	8	64	4296	16104	10	-14	16	125	139	12
-2020	-11200	12084	47	-19	-2	-10488	-10496	6656	-10	-6	-9	1280	-5024	16168	5	-6	-4	-256	8056	14048	1	13	-19	-11728	8728	8552	-8	-4	3	-168	4440	16568	0	-9	19	124	138	12
-2040	-11292	11944	45	-22	-1	-10168	-10440	6928	0	1	-2	1296	-4864	16336	17	-18	-21	-24	8208	14048	-2	16	-22	-11656	8608	8720	-8	-4	4	112	4248	16728	-1	-5	9	123	141	12
-1896	-11284	12004	57	-19	1	-10256	-10512	6600	-1	3	-9	1344	-4880	16088	-4	-16	-22	-16	8080	14000	15	11	-14	-11672	8488	8824	23	-3	-2	144	4424	16680	-1	-4	-2	124	138	12
-2216	-11248	12032	60	-22	11	-10240	-10504	6592	11	1	-16	1624	-5368	16376	-9	-12	-25	-136	8176	14144	6	17	-20	-11712	8880	8920	21	-4	3	8	4496	16248	-18	-17	-1	125	137	12
-2100	-11212	12028	68	-24	8	-10496	-10264	6920	0	4	-15	1144	-4752	16264	-12	13	-28	0	8032	14080	15	19	-18	-11736	8968	8784	-8	2	-3	-88	4384	16368	-22	-19	0	125	140	12
-2148	-11012	12108	60	-27	0	-10416	-10024	6712	-30	3	-11	1104	-5008	16336	-9	17	-21	-192	8392	13704	-5	20	-22	-11528	8768	8408	-14	4	0	-8	4224	16432	-25	-24	8	128	140	12
-2192	-11164	12324	43	-26	-3	-10544	-10312	6776	-36	-6	-9	1128	-4744	16336	-1	-3	-15	16	8248	13784	-12	17	-29	-11688	8632	8688	-9	-1	2	-88	4224	16256	-16	-23	9	126	140	12
-1880	-10864	12308	26	-6	-6	-10480	-10128	7032	-31	-4	-10	1192	-4848	16032	-11	-5	-7	-192	8024	13864	-17	21	-35	-11528	8744	8800	8	-6	1	48	4352	16224	-13	-17	10	126	138	12
-2224	-11152	12204	3	-3	-10	-10472	-10240	6712	2	1	-20	1112	-4808	16248	-12	-19	1	0	8184	13880	-27	22	-36	-11496	8696	8576	4	-6	0	-8	4048	16048	-11	-3	11	125	140	12
-2172	-11032	12204	4	-5	-22	-10568	-10280	6672	14	2	-21	1112	-5232	16096	-14	-20	2	-456	8128	14104	-28	18	-36	-11704	8720	8744	-8	-7	7	48	4184	16504	-13	-8	5	125	139	12
-2264	-10900	12228	-8	-6	-26	-10424	-10216	6424	8	-5	-15	1024	-5376	16368	-9	1	2	-152	8112	14024	-24	14	-24	-11856	8648	8856	1	-6	3	-272	4048	16536	-24	-16	18	125	139	12
-2352	-11288	12144	-18	-10	-41	-10416	-10512	6808	4	2	-6	1040	-5416	16416	8	9	5	-256	7848	13880	-19	15	-27	-11808	8296	8872	-3	-7	0	-56	3952	16576	-14	-25	16	126	138	12
-1948	-10952	12128	-25	-7	-43	-10416	-10424	6776	-11	-7	-5	1296	-5136	16192	1	0	0	-288	7840	14080	1	19	-26	-11744	8456	8808	-3	-16	-4	24	3984	16504	-4	-24	9	126	139	12
-2168	-11476	12056	-33	-9	-41	-10256	-10592	6696	-9	-6	0	1224	-5320	16200	-6	-6	-1	-176	8200	14128	-2	15	-21	-11864	8736	8400	-4	-15	11	24	4152	16424	-4	-23	3	126	139	12
-1900	-11428	12052	-16	-6	-29	-10240	-10672	6944	1	-10	-4	1040	-5432	16104	-15	-13	-7	-176	7808	14040	11	16	-19	-11672	8536	8672	-18	-15	7	-40	3912	16448	-10	-16	6	126	143	12
-2108	-11132	11944	-22	10	-25	-10304	-10584	6584	14	-9	4	1368	-5640	16088	-17	-19	-11	-208	8312	13864	5	25	-19	-11696	8592	8624	-4	-16	9	240	3832	16512	-6	-33	7	126	138	12
-2172	-11180	12068	-20	-3	-17	-10336	-10496	6520	11	0	19	1336	-5584	15896	0	-21	-21	-48	7888	13776	2	23	-23	-11696	8360	8928	-7	-18	16	64	3864	16600	6	-38	10	127	139	12
-1952	-11036	11920	-6	1	-16	-10312	-10480	6632	7	0	19	1512	-5296	15936	14	-3	-7	-328	8088	13936	11	29	-17	-11672	8352	8704	13	-17	18	232	3784	16448	24	-35	11	125	138	12
-2200	-11436	11948	0	-3	-11	-10184	-10592	6768	39	-2	22	1624	-5248	16296	32	2	-13	-176	8328	14008	-4	18	-24	-11808	8616	8560	30	-23	29	40	3840	16664	33	-31	11	127	138	12
-2048	-11492	11880	30	-15	-11	-10096	-10544	6712	56	5	15	1288	-5272	15936	41	-4	-19	-16	7744	13904	4	17	-21	-11728	8536	8640	34	-18	32	-32	4160	16344	40	-26	2	126	135	12
-1972	-11104	12012	39	-18	0	-10384	-10464	6864	56	0	14	1248	-5208	16048	34	1	-21	-112	8232	14024	18	16	-17	-11704	8584	8800	50	-27	30	96	4328	16512	32	-34	0	126	138	12
-2216	-11400	12032	45	-16	2	-10344	-10424	6848	59	0	19	1104	-5296	16080	41	-8	-25	-80	8024	14168	19	14	-16	-11688	8776	8752	27	-22	32	-8	4232	16168	22	-38	0	127	139	12
-2180	-11396	11948	53	-11	2	-10344	-10144	6680	35	10	18	1360	-4792	16264	21	-2	-21	-56	8056	13896	34	16	-10	-11576	8736	8784	11	-15	21	200	4240	16312	23	-34	7	126	137	12
-2164	-11124	12228	45	-21	1	-10328	-10080	6768	25	2	18	1496	-4992	16080	21	-3	-22	-152	8648	13624	27	11	-17	-11416	8728	8848	29	-21	24	104	4224	16504	21	-31	4	127	140	12
-2076	-11376	12024	59	-19	2	-10440	-10200	6712	17	-1	10	1536	-5024	16208	39	1	-21	-144	8544	14016	24	14	-15	-11464	8656	8872	34	-26	31	192	4208	16440	26	-29	-5	127	141	12
-2052	-11064	12136	64	-21	7	-10448	-9992	7072	16	4	9	1672	-4976	16168	34	12	-22	-8	8368	13784	-4	14	-25	-11376	8704	8912	42	-21	34	312	4240	16288	32	-36	-3	126	142	12
-2228	-11264	12096	63	-22	6	-10352	-10264	6704	34	11	1	1472	-4904	16192	34	24	-8	-144	8296	13864	-16	13	-26	-11608	8816	9096	45	-15	41	168	4336	16528	27	-30	-5	125	141	12
-2028	-10968	12084	64	-23	4	-10496	-10104	6880	21	7	-5	1240	-4872	16160	35	16	-12	-240	8016	13880	-12	20	-27	-11528	8848	8944	34	-7	33	184	4552	16488	18	-32	0	126	141	12
-2236	-10988	12376	45	-9	5	-10376	-10152	6680	25	8	-1	1296	-4888	16152	37	5	-8	-160	8360	14040	-17	16	-28	-11792	8984	8672	39	-13	34	-64	4352	16736	11	-33	5	126	141	12
-2200	-11240	12228	44	-19	-3	-10384	-10104	6800	36	19	-1	1176	-4752	16272	45	-12	-9	-40	8000	13840	-14	21	-32	-11696	8768	8824	10	-12	25	-56	4456	16456	10	-33	6	125	141	12
-2100	-11200	12140	45	-18	-5	-10464	-10136	6664	17	19	-6	1336	-4872	16416	34	-8	-6	-384	8240	13880	-6	25	-31	-11752	8912	8832	15	-8	20	120	4272	16472	-1	-39	3	123	141	12
-2184	-11380	12220	41	-14	-2	-10480	-10384	6632	8	12	-3	1224	-5096	16312	17	-2	-10	-176	8216	13904	-15	16	-28	-11624	8768	8528	24	-4	23	-40	4072	16440	-10	-35	5	124	141	12
-2032	-11056	12068	52	-17	6	-10504	-10488	6672	3	12	-12	1056	-5264	16192	-4	7	-4	-104	7992	14072	-7	21	-31	-11432	8456	8728	18	-7	16	176	4144	16248	-2	-37	6	125	139	12
-2356	-11064	12216	48	-10	3	-10376	-10624	6752	25	14	6	1176	-5320	16192	-18	12	-26	-256	8368	13624	-22	24	-34	-11648	8736	8760	18	-13	21	-24	4144	16440	2	-38	5	126	140	12
-2192	-11252	12060	49	-21	1	-10376	-10312	6832	40	10	8	1144	-5448	15936	-5	13	-25	-232	7912	14080	-22	20	-30	-11536	8648	8728	11	-4	26	-64	4024	16224	16	-36	6	126	139	12
-2080	-10956	12056	53	-18	6	-10328	-10272	6936	37	11	16	1424	-5384	15776	4	14	-28	-160	8008	13752	-19	20	-34	-11520	8496	8480	44	-15	24	184	3944	16456	19	-35	6	126	136	12
-2160	-11332	11968	63	-30	11	-10336	-10208	6544	29	13	22	1480	-5048	15672	32	1	-45	-232	7984	13872	-33	12	-33	-11688	8544	8896	29	-9	39	200	3888	16616	22	-28	9	124	138	12
-1960	-11112	11648	89	-36	16	-9896	-10040	6512	14	11	14	1624	-4968	15936	31	11	-23	-176	8000	14040	-12	18	-24	-11696	8312	8704	33	-4	33	336	4008	16456	27	-15	-2	123	139	12
-2148	-11368	11836	121	-45	36	-9960	-10056	6672	5	21	0	1736	-5032	15816	24	16	-10	-208	8160	14296	-16	15	-24	-11640	8536	8840	59	-9	43	272	3912	16648	24	-19	-11	124	138	12
-2072	-11416	11892	161	-57	47	-10040	-10608	6752	12	29	-9	1272	-5160	16040	23	17	-8	-136	7720	13856	-1	13	-19	-11784	8496	8936	51	-12	39	112	4056	16560	26	-19	-9	124	141	12
-2168	-11056	12136	184	-54	56	-10448	-10616	6648	36	34	-17	1128	-5368	16040	10	18	-16	8	8176	14008	7	16	-19	-11680	8768	9216	57	-8	41	168	4256	16656	34	-34	-10	122	139	12
-2120	-10972	12536	174	-62	57	-10856	-10632	6904	57	28	-5	1160	-5688	16416	10	20	-30	-168	7880	13880	15	19	-24	-11656	8704	8560	27	2	48	336	4264	16568	34	-41	-9	123	139	12
-2032	-10376	12580	156	-42	53	-10776	-10144	7008	57	20	2	1208	-5472	16416	11	22	-40	-192	8336	13952	25	21	-16	-11512	8680	8616	29	7	36	216	4408	16336	28	-45	-6	122	136	12
-2380	-10768	12568	124	-39	42	-10728	-10152	6656	56	21	28	1440	-5344	16496	36	9	-42	-336	8496	13912	1	16	-18	-11344	8960	8632	31	15	43	264	4232	16336	33	-28	-4	124	133	12
-2200	-10724	12344	120	-45	26	-10232	-10096	6632	15	23	27	1416	-5048	16168	38	2	-35	-248	8112	13872	-4	14	-23	-11544	8656	8792	26	17	51	32	4112	16248	32	-19	-11	122	138	12
-2292	-10876	12236	126	-47	34	-10224	-10016	6904	16	31	32	1704	-4752	16032	60	27	-26	-248	8304	13864	-10	12	-26	-11560	8688	8624	70	8	56	184	4360	16456	35	-13	-10	122	139	12
-2356	-11140	11972	165	-73	37	-10088	-10328	6592	26	48	21	1208	-4856	15864	43	33	-38	-56	7896	13960	-9	10	-22	-11704	8616	8800	99	1	52	56	4152	16592	49	-22	-14	121	140	12
-2220	-10812	12484	200	-87	46	-10456	-10200	6592	50	52	7	1200	-4824	16120	43	28	-38	-384	8336	14080	5	16	-21	-11672	8992	8832	105	5	54	216	4408	16584	53	-44	-18	119	139	12
-2192	-10812	12612	208	-86	55	-10744	-10392	6656	82	43	10	872	-4960	16024	8	26	-55	-160	8080	14024	3	16	-17	-11848	8944	8992	72	12	57	200	4576	16512	40	-46	-20	121	140	12
-1996	-10324	12940	188	-63	50	-11032	-10000	6736	73	33	11	1440	-5008	16592	19	15	-63	-184	8080	13880	18	28	-20	-11592	8944	8840	43	21	49	232	4528	16696	29	-45	-21	123	139	12
-2356	-10344	13084	148	-61	46	-10880	-9776	6896	41	30	16	1096	-5136	16400	30	2	-60	-336	8560	13784	13	22	-20	-11408	9256	8360	35	15	41	112	4680	16360	11	-48	-14	126	139	12
-2156	-10156	12948	111	-48	19	-10904	-9872	6984	6	23	27	1112	-4872	16480	40	-16	-48	-56	8096	13832	7	19	-20	-11192	9088	8472	1	30	37	88	4632	16192	-3	-36	-2	126	136	12
-2232	-10204	12840	74	-32	13	-10632	-9624	6808	-18	23	26	1272	-4856	16168	39	-16	-38	-80	8472	13752	-5	14	-20	-11448	8960	8240	12	28	23	-120	4528	15984	-11	-29	7	125	137	12
-2260	-10664	12704	62	-38	0	-10576	-10280	6888	-6	24	24	1160	-4960	16136	34	-17	-25	-144	8152	13800	-18	12	-29	-11392	9048	8424	15	20	29	56	4208	16104	1	-24	17	124	137	12
-2004	-10288	12684	57	-26	-4	-10576	-10136	6664	27	25	17	1744	-5208	16200	25	-6	-23	-280	8040	13744	-13	17	-24	-11856	8728	8280	34	14	21	-40	4528	16416	28	-23	14	124	139	12
-2356	-10684	12636	63	-33	4	-10536	-10160	6504	63	24	18	800	-4896	16008	32	4	-39	-320	8232	14056	-27	11	-29	-11728	8800	8640	73	4	19	216	4528	16568	18	-34	3	124	137	12
-2196	-10472	12728	68	-29	-5	-10488	-9912	6440	61	23	10	1304	-4824	16104	24	17	-45	-72	8008	13800	-16	13	-26	-11520	8904	8328	75	8	16	104	4680	16112	10	-37	10	124	138	12
-2300	-10424	12768	55	-32	-6	-10584	-9784	6632	35	21	14	1456	-4864	16216	22	25	-48	-176	8368	13904	-38	15	-29	-11464	9336	8632	47	17	14	368	4504	16232	-7	-27	6	126	138	12
-2180	-10756	12624	59	-36	-6	-10360	-9912	6832	-6	16	0	1416	-4728	16136	21	12	-41	-168	8048	13848	-42	14	-34	-11632	8904	8808	-1	20	20	208	4424	16152	-21	-28	6	125	138	12
-1936	-10212	12768	50	-31	0	-10728	-9696	7056	-40	15	-10	1304	-4640	16352	9	-4	-23	-264	8360	13952	-43	25	-36	-11696	8968	8376	-17	17	12	224	4240	16648	-30	-21	10	127	138	12
-2324	-10604	12732	39	-25	3	-10648	-10024	6712	-52	13	-14	1168	-4944	16424	7	-29	-1	-400	8160	13880	-48	16	-37	-11696	8920	8416	-34	14	17	-56	4168	16376	-38	-16	12	127	139	12
-2240	-10212	12752	28	-19	-4	-10616	-10128	7008	-45	16	-16	2192	-5072	16240	-17	-16	4	-48	7904	14088	-29	9	-27	-11680	8544	8560	12	13	14	-16	3912	16080	-23	-15	14	125	139	12
-2464	-10332	12880	6	-14	-15	-10800	-10168	6648	-16	22	-11	1000	-5504	16336	11	-26	1	-120	8312	13952	-38	11	-30	-11904	8944	8736	47	-1	19	24	3856	16448	8	-30	9	126	137	12
-2236	-10500	12800	7	-13	-20	-10816	-10288	6776	16	22	1	1280	-5440	16152	31	-8	12	-40	7808	14176	-22	16	-27	-11712	8752	8520	40	-5	31	224	3992	16432	11	-36	9	125	139	12
-2140	-10172	12972	-4	-3	-23	-10592	-10288	6664	42	18	2	1320	-5264	16048	44	17	12	-488	8304	14048	-12	21	-30	-11576	8936	8432	25	-12	28	120	4120	16232	21	-39	16	126	140	12
-2332	-10684	12628	-2	-8	-27	-10520	-10040	6632	33	12	3	1144	-5112	16120	49	23	18	-128	7920	14048	-6	16	-25	-11840	8960	8504	3	-4	28	0	4288	16320	24	-39	12	127	136	12
-2164	-10304	12764	8	0	-29	-10584	-9984	6800	-8	7	-1	1216	-5208	16120	35	20	23	-152	7776	14024	18	17	-14	-11704	8728	8280	-12	-7	18	-56	4344	16304	21	-21	13	127	137	12
-2272	-10608	12744	3	-7	-23	-10544	-10240	6520	-30	1	8	1280	-5192	15968	29	15	16	-360	8216	14096	24	14	-10	-11728	8800	8384	-1	-16	21	-96	4192	16480	21	-17	17	127	137	12
-2288	-10748	12632	2	-13	-26	-10384	-10424	6616	-12	-1	5	1136	-5248	16104	19	-2	-3	-136	7776	14048	40	9	0	-11872	8984	8784	-1	-18	24	240	4048	16448	37	-11	12	128	138	12
-2140	-10268	12628	45	-13	-2	-10336	-10368	6312	5	-6	5	1464	-5504	15984	11	1	-13	-184	8328	14000	48	14	-1	-11568	8824	8424	18	-35	18	64	4328	16560	34	-11	9	127	137	12
-2284	-10780	12616	65	-31	5	-10432	-10416	6600	19	-5	11	1552	-5376	16496	3	8	-29	-32	8296	13872	45	6	0	-11528	9032	8880	39	-39	22	272	4256	16328	23	-12	5	128	139	12
-1996	-10244	12720	79	-24	8	-10632	-10120	6984	28	-3	12	1176	-4976	15904	1	27	-27	-16	8312	13520	38	10	-6	-11176	8784	8656	41	-32	24	408	4200	16440	37	-8	8	128	138	12
-2308	-10344	12880	65	-28	12	-10576	-9904	6712	42	2	15	1544	-5024	16208	16	30	-20	-32	8728	13456	5	8	-10	-11440	9096	8712	43	-24	32	720	4344	16440	39	-3	10	127	138	12
-2180	-10588	12872	75	-30	11	-10768	-9888	6560	20	4	1	1424	-4768	16248	19	16	-5	8	8112	13944	-1	12	-19	-11544	8952	8824	27	-16	35	208	4624	16728	38	-1	10	126	139	12
-2092	-9932	12844	64	-25	5	-10744	-9560	6936	-4	2	0	1144	-4800	16128	21	12	-1	-240	8400	14016	0	17	-18	-11448	9064	8600	20	-5	22	312	4592	16808	24	-2	9	126	138	12
-2324	-10420	12980	41	-27	-8	-10856	-9880	6880	-2	-6	-3	1080	-4888	16192	34	6	0	-24	8232	14128	-10	19	-23	-11560	9160	8928	-4	-1	24	128	4712	16584	3	-15	13	126	140	12
-2172	-10024	12908	33	-18	-12	-10888	-9712	7000	-6	-5	-11	1328	-4768	16024	34	4	5	-32	8024	13880	14	23	-24	-11712	9016	8536	-10	2	15	320	4536	16264	3	-21	13	126	139	12
-2316	-10172	13012	4	-16	-20	-10608	-9912	6824	-1	-6	-9	1272	-4776	16352	41	0	9	-64	8592	13888	6	24	-19	-11392	8984	8744	5	-5	16	224	4384	16344	-5	-27	14	126	140	12
-2248	-10464	12840	6	-12	-30	-10776	-10104	6808	4	-2	-14	1232	-4736	16512	43	-2	16	-32	8216	13808	-7	17	-26	-11400	9120	8504	4	-5	19	88	4376	16264	-1	-25	11	126	140	12
-2128	-10020	13032	-9	-11	-29	-10616	-9880	6696	-2	-9	-19	1280	-5048	16392	37	-6	15	-104	8440	13848	-11	19	-31	-11560	9120	8464	16	-5	13	272	4496	16440	0	-27	14	125	139	12
-2356	-10484	12888	-18	-7	-36	-10544	-9904	6800	12	-5	-14	1368	-4928	16360	39	-10	9	-168	8368	13776	-30	22	-32	-11600	8976	8720	10	2	16	104	4552	16544	-14	-31	12	125	138	12
-2112	-10288	12752	-16	-9	-39	-10776	-10024	6856	-9	-4	-18	1408	-4840	16200	26	-9	9	-160	7880	13808	-22	18	-39	-11616	8880	8232	-7	6	12	112	4400	16480	-2	-25	8	125	138	12
-2292	-10388	12864	-31	-8	-31	-10464	-10160	6640	-14	-6	-10	1232	-5184	16192	16	5	2	-312	8208	13968	-30	15	-29	-11664	9040	8792	31	-3	5	104	4376	16544	-16	-31	12	125	136	12
-2240	-10776	12572	-10	-9	-33	-10528	-10488	6576	-7	-2	-12	1248	-5328	16120	21	-4	-2	-136	7824	14112	-23	19	-33	-11688	8976	8808	10	-4	10	-48	4288	16280	-11	-32	17	125	137	12
-2044	-10092	12824	1	-7	-23	-10368	-10112	6408	1	-5	-11	1352	-5352	15968	4	-10	-13	-280	8232	14056	-12	25	-29	-11600	8984	8784	-10	0	-4	208	4240	16232	-7	-25	23	125	137	12
-2340	-10732	12632	1	-15	-25	-10504	-10352	6584	10	-1	-7	1304	-5120	16144	23	-14	-15	-352	8088	13960	-16	21	-30	-11584	8832	8504	-25	2	3	248	4080	16344	-9	-27	31	125	136	12
-2072	-10312	12688	21	-12	-22	-10576	-10136	6528	-9	0	-10	1352	-5056	16040	15	-11	-6	-184	8120	13776	-7	15	-22	-11560	8552	8216	-4	1	0	440	4032	16328	8	-15	27	125	139	12
-2260	-10472	12780	15	-15	-19	-10432	-10048	6328	-7	-5	-4	1528	-5208	16048	21	-8	-5	-64	8464	13928	-14	13	-25	-11744	8880	8568	21	-5	14	456	4224	16480	12	-11	20	125	137	12
-2248	-10800	12580	39	-20	-15	-10632	-10160	6640	-6	-2	-21	1312	-5096	16008	24	-10	4	-192	7952	13936	-6	15	-20	-11904	8936	8472	-1	-5	22	-120	4168	16376	11	-8	13	125	138	12
-2060	-9968	12964	27	-23	-14	-10792	-9752	6816	-1	-11	-15	1192	-5104	16048	26	0	0	-312	8200	14000	5	12	-14	-11744	8792	8512	21	-11	19	56	4352	16552	7	-14	15	126	136	12
-2420	-10432	12960	6	-18	-23	-10792	-9992	6752	9	-7	-8	1184	-4872	16208	44	-9	-8	-24	8360	14000	9	13	-16	-11680	8936	8616	27	-17	15	168	4400	16624	-1	-25	10	125	139	12
-2096	-10308	12872	10	-18	-32	-10808	-10016	6616	-15	-15	-18	1368	-4688	16184	36	-4	-7	-168	8040	13696	26	20	-12	-11400	8864	8704	-1	-8	11	448	4584	16384	3	-21	8	125	137	12
-2172	-10164	12920	-13	-12	-30	-10512	-9672	6880	-20	-14	-11	1416	-4824	16256	34	-5	-5	-64	8552	13560	10	13	-19	-11360	9240	8272	-11	-1	11	312	4480	16368	-16	-18	10	125	140	12
-2240	-10568	12696	0	-17	-33	-10560	-10160	6880	-22	-12	-18	1368	-4800	16424	30	1	17	-24	8288	13784	-5	16	-16	-11544	9032	8432	-27	6	14	208	4408	16360	-13	-7	14	125	139	12
-1964	-10064	12844	0	-6	-31	-10504	-10200	7184	-30	-9	-23	1360	-5112	16128	10	2	22	-216	8376	13816	-6	17	-21	-11552	8824	8504	-15	7	7	248	4384	16496	-8	-8	14	125	138	12
-2396	-10560	12764	-10	-10	-29	-10504	-10416	6776	-1	-7	-15	1432	-5304	16440	17	-2	0	0	8504	13880	-15	12	-27	-11600	8872	8696	19	-7	13	-72	4464	16784	-6	-11	10	125	137	12
-2112	-10428	12740	6	-11	-25	-10648	-10592	6952	23	-4	-10	1280	-5232	16160	-5	-5	-16	-120	7952	14040	-2	23	-25	-11592	8864	8360	12	-6	5	80	4424	16320	3	-19	11	125	139	12
-2164	-10212	12788	-7	-9	-31	-10496	-10176	6680	46	-4	10	1272	-5384	15776	-11	0	-39	-120	8344	14000	-3	20	-24	-11560	9008	8432	23	-4	-5	208	4520	16336	-12	-24	15	125	138	12
-2236	-10884	12592	11	-15	-18	-10424	-10152	6720	23	-5	8	1600	-5168	16072	5	1	-42	-160	8320	13976	-16	24	-23	-11512	9152	8760	0	-1	2	160	4120	16280	-17	-23	25	126	138	12
-2000	-10180	12716	21	-20	-15	-10536	-9880	6592	-9	-13	4	1504	-5072	16040	-4	22	-30	-232	8520	13904	-19	24	-30	-11272	8928	8568	-21	4	-3	360	4176	16496	6	-15	27	125	138	12
-2372	-10504	12708	11	-25	-11	-10560	-9920	6504	-10	-8	-6	1440	-4896	16152	5	22	-16	-312	8288	13976	-37	20	-31	-11536	8848	8600	-17	11	9	280	4096	16536	4	-4	32	126	137	12
-2176	-10388	12728	28	-26	-14	-10736	-10112	6696	-35	-6	-14	1424	-5040	16296	4	11	3	-152	7864	13752	-23	16	-31	-11672	8696	8496	-19	9	7	192	4000	16536	9	1	25	125	136	12
-2116	-10072	12908	5	-13	-16	-10776	-10000	6984	-35	-17	-3	1208	-5184	16248	10	0	9	-208	8128	14080	-17	18	-28	-11800	8832	8400	16	3	3	-24	4072	16320	11	-2	20	125	137	12
-2424	-10712	12780	6	-23	-22	-10712	-10264	6744	-5	-10	-9	1072	-5112	16216	32	-24	11	-224	8088	13752	-17	15	-22	-11824	8904	8440	16	-14	21	8	4080	16328	4	-11	14	125	139	12
-2120	-10116	12780	8	-14	-29	-10648	-10200	6784	10	0	-15	1432	-5128	15832	34	-18	11	-192	8080	13960	-9	13	-27	-11600	8600	8544	14	-9	16	40	4008	16328	7	-12	7	126	137	12
-2336	-10388	12752	-9	-12	-29	-10576	-9976	6696	32	2	-6	1488	-5040	16320	41	-14	10	-160	8416	13776	-2	11	-21	-11760	8880	8664	28	-10	21	200	4096	16376	-6	-14	3	126	139	12
-2176	-10560	12604	8	-15	-29	-10376	-10016	6544	4	-4	-14	1264	-5056	16064	29	-6	15	-72	8320	13840	0	18	-17	-11608	8680	8472	9	-10	30	104	4336	16272	1	-8	-7	126	138	12
-2072	-10044	12832	-8	-10	-32	-10512	-10008	6640	-15	-10	-10	1072	-5112	16024	28	-8	13	-112	8480	14000	6	11	-17	-11496	8880	8480	17	-13	20	96	4200	16280	3	-13	-1	126	140	12
-2388	-10784	12636	-5	-10	-31	-10560	-10288	6720	-7	-10	-2	1152	-5088	16048	27	-13	-2	-216	8184	13816	-4	15	-24	-11808	9104	8688	7	-17	26	280	4432	16552	0	-20	4	125	140	12
-1996	-10320	12740	16	-8	-25	-10456	-10120	6680	-17	-10	-11	1528	-5064	16080	8	-11	0	-64	8280	14080	5	18	-20	-11448	8880	8664	5	-12	14	432	4464	16392	8	-21	15	125	137	12
-2232	-10472	12768	-2	-12	-24	-10392	-10080	6944	1	-4	7	1728	-5280	16328	18	-3	-6	-184	8440	13680	4	19	-22	-11520	9088	8760	12	-7	3	368	4416	16400	4	-20	16	125	139	12
-2172	-10736	12588	22	-15	-25	-10624	-10128	6968	-14	0	-3	1464	-5080	16136	20	3	2	-56	8184	13688	-10	18	-26	-11496	8872	8632	1	1	13	424	4240	16336	11	-8	24	126	139	12
-2052	-10076	12820	25	-11	-21	-10528	-10160	6920	-10	-10	-6	1216	-5216	16088	13	15	0	-152	8400	13808	-13	20	-30	-11472	8832	8528	11	-1	12	184	4304	16480	21	-2	23	126	138	12
-2356	-10680	12800	13	-11	-19	-10576	-10072	6736	15	-7	-1	1144	-5112	16368	32	3	0	-192	8456	13912	-33	21	-37	-11728	9040	8264	14	-2	16	96	4256	16384	16	-18	32	125	136	12
-2092	-10360	12812	23	-15	-20	-10640	-10024	6600	4	-7	-4	1296	-5088	16136	29	-13	3	-48	8032	13840	-26	16	-29	-11608	8816	8616	1	2	11	192	4184	16368	15	-21	37	124	140	12
-2128	-10112	12792	-8	-16	-21	-10696	-10040	6936	10	-9	9	1288	-5008	16248	39	-14	-3	-200	8416	14032	-27	18	-29	-11608	8824	8648	8	-2	12	256	4192	16392	10	-27	33	125	138	12
-2220	-10668	12664	8	-15	-27	-10472	-10352	6576	2	-6	3	1512	-4952	16264	43	-9	5	-112	7976	13688	-18	18	-32	-11760	8600	8360	-3	5	21	256	4112	16280	8	-24	23	125	140	12
-2004	-10056	12816	10	-16	-22	-10384	-10000	6728	-10	-1	-3	1632	-4960	16064	27	4	12	-104	8312	13920	-8	19	-26	-11568	8704	8440	21	1	16	288	4296	16344	10	-17	11	126	138	12
-2332	-10624	12668	5	-14	-22	-10384	-10144	6496	2	-1	-2	1448	-5000	16192	25	5	14	-128	8400	14072	-15	20	-29	-11832	8928	8336	20	-9	28	112	4320	16600	2	-14	6	126	141	12
-2132	-10564	12824	26	-10	-20	-10712	-10232	6552	-9	1	-16	1088	-5064	16128	16	6	13	-256	8120	13968	-1	19	-19	-11736	8888	8464	6	-6	25	-16	4424	16448	8	-16	9	126	139	12
-2320	-10088	12980	6	-12	-16	-10624	-10200	6696	11	-3	-2	1088	-5256	15856	24	4	0	-144	8312	13944	-2	18	-23	-11688	8984	8384	9	-13	16	56	4376	16512	5	-26	15	126	137	12
-2380	-10632	12792	3	-18	-26	-10624	-10312	6568	23	-2	4	1224	-5168	16152	31	-5	-1	-112	8072	13928	-4	17	-25	-11560	8952	8528	-2	-5	15	-8	4296	16480	1	-26	16	126	138	12
-2096	-10100	12796	3	-9	-27	-10656	-10096	6296	-7	-11	-1	1376	-5032	15960	24	-2	1	-264	8056	13552	0	15	-23	-11512	8640	8656	5	-9	12	512	4208	16144	17	-17	18	126	138	12
-2392	-10560	12792	-10	-15	-29	-10392	-9864	6440	5	-8	-1	1416	-5080	15896	30	7	2	-120	8480	13808	-25	13	-29	-11448	8896	8632	29	-13	25	288	4304	16440	15	-13	11	125	137	12
-2188	-10732	12640	12	-15	-24	-10392	-10096	6768	-11	-8	-16	1208	-5016	15856	30	7	11	-40	8048	13744	-22	12	-26	-11680	8840	8560	14	-4	28	112	4240	16440	24	-12	12	126	138	12
-2068	-10148	12752	12	-14	-27	-10480	-9944	6920	-22	-11	-10	1320	-5232	16200	18	9	6	-208	8432	13736	-17	15	-22	-11696	8944	8576	11	0	18	80	4352	16632	14	-8	18	126	137	12
-2332	-10764	12636	9	-18	-21	-10496	-10544	6696	-4	-4	-11	1360	-5168	16280	33	0	0	-248	8064	13960	-15	19	-23	-11808	8880	8520	-14	-10	20	16	4120	16800	11	-11	16	125	137	12
-2344	-10752	12616	18	-20	-23	-10608	-10272	6872	14	-1	-2	1360	-5448	16048	24	-1	-2	-192	7920	13688	10	15	-22	-11584	8664	8304	3	-8	13	240	4240	16424	19	-12	18	126	137	12
-2204	-10324	12700	5	-7	-19	-10440	-10224	6568	39	-2	11	1480	-5320	16336	27	-3	-15	-160	8344	13912	0	12	-21	-11560	8928	8576	16	-13	19	304	4160	16384	13	-19	16	126	138	12
-2248	-10648	12788	29	-25	-15	-10472	-10088	6784	26	-1	6	1352	-5168	16120	25	2	-10	-32	8368	13968	-1	13	-20	-11472	8832	8552	4	-5	26	304	4072	16312	19	-17	15	126	137	12
-1936	-10028	12800	28	-14	-13	-10456	-9704	6744	-8	-7	8	1392	-5024	16208	29	13	-5	-160	8344	13736	2	16	-15	-11504	8752	8544	7	-2	21	216	4184	16232	23	-15	16	127	138	12
-2376	-10684	12744	25	-22	-12	-10584	-10240	6792	1	-5	3	1336	-5088	16144	33	3	-4	-160	8424	13968	-18	15	-24	-11600	9008	8728	14	-10	29	200	4432	16424	15	-15	16	126	138	12
-2044	-10292	12756	37	-21	-14	-10664	-10232	6824	-6	-7	1	1216	-5072	15968	26	-2	6	-32	8040	13744	5	17	-22	-11712	8672	8520	4	-6	23	192	4368	16424	25	-17	16	126	139	12
-2180	-10184	12780	21	-15	-12	-10464	-9856	6640	19	0	9	1296	-4992	16256	28	-6	-4	-320	8296	13672	6	18	-15	-11688	9056	8520	32	-12	18	288	4384	16712	16	-28	15	126	137	12
-2328	-10720	12632	35	-23	-11	-10640	-10128	6664	17	2	2	1400	-4824	16336	33	-7	-8	-128	8152	13808	2	18	-22	-11728	8992	8600	35	-16	26	88	4456	16424	1	-25	9	126	140	12
-2076	-10048	12908	36	-11	-10	-10648	-9864	6704	6	0	0	1408	-5008	16072	14	7	-3	-104	8368	13680	10	15	-21	-11472	8920	8752	12	-7	20	336	4592	16472	14	-18	3	126	139	12
-2372	-10496	12828	14	-22	-20	-10728	-9888	6488	18	-2	3	1416	-4912	16448	18	8	-4	-80	8512	13968	-20	19	-30	-11632	9232	8720	9	-5	25	-24	4496	16528	2	-20	9	126	139	12
-2168	-10468	12720	23	-16	-13	-10720	-9896	6728	9	1	-4	1064	-4824	16376	16	5	6	-232	8088	13544	-9	27	-25	-11672	9032	8368	-13	1	17	208	4472	16432	8	-17	14	125	138	12
-2036	-9784	13108	-8	-13	-19	-10656	-9560	6936	0	-3	-7	1280	-4896	16072	15	8	10	-312	8304	13712	-11	24	-27	-11520	8952	8408	10	-3	7	40	4472	16416	0	-24	16	126	140	12
-2320	-10572	12816	-30	-11	-30	-10648	-9984	6720	-4	0	-7	1280	-5024	16240	21	5	10	-184	8440	13872	-21	22	-26	-11640	8952	8688	17	-2	16	224	4424	16376	-1	-32	17	125	138	12
-2012	-10240	12864	-16	-11	-29	-10720	-10080	7184	-31	-11	-11	1248	-4992	15928	26	-1	17	-160	8144	14000	-15	18	-34	-11464	9024	8456	12	-5	10	216	4456	16392	10	-27	16	126	139	12
-2312	-10448	12816	-33	-7	-33	-10568	-10000	6792	0	-8	-12	1336	-5168	16072	33	-1	12	-56	8344	13664	-28	16	-33	-11576	8968	8648	9	-2	12	360	4360	16624	-6	-28	22	125	139	12
-2168	-10564	12660	-13	-10	-37	-10704	-10224	6872	-6	-3	-19	1360	-5016	16272	30	-2	15	-248	7952	13904	-23	16	-31	-11568	8840	8760	-11	4	8	184	4520	16256	-1	-22	25	125	138	12
-1992	-10072	12908	-23	5	-40	-10656	-10232	7088	-4	0	-20	1328	-5072	16024	24	4	18	-216	8368	13760	-19	13	-28	-11440	8784	8464	-5	9	-4	296	4120	16456	2	-19	29	126	139	12
-2324	-10680	12676	-17	-11	-33	-10560	-10088	6736	3	-5	-4	1312	-5096	16184	33	-4	12	-80	8200	13848	-27	14	-33	-11592	8968	8504	-6	7	12	120	4120	16600	-3	-13	28	125	137	12
-2076	-10480	12632	2	-10	-24	-10392	-10136	6600	-16	-6	-13	1344	-5288	15680	16	-10	22	-176	7984	13976	-19	14	-31	-11736	8760	8576	-5	4	12	328	4232	16120	10	-10	23	125	138	12
-2172	-10472	12720	2	-16	-23	-10472	-10096	6592	-13	-8	-11	1408	-5224	16032	15	-4	18	-72	8352	14072	-15	15	-31	-11752	8816	8536	13	-7	17	0	4104	16424	5	-14	18	125	138	12
-2252	-10896	12512	27	-11	-18	-10592	-10496	6728	-3	-9	-7	1400	-5328	16392	29	5	0	-144	7928	13720	-14	12	-21	-11824	8888	8312	12	-8	14	88	4024	16392	11	-9	16	125	141	12
-2036	-10128	12836	38	-12	-16	-10432	-10128	6696	3	-3	-7	1376	-5264	15904	23	8	-5	-152	8168	14032	1	16	-18	-11488	8720	8368	26	-12	20	280	4088	16272	20	-7	13	126	138	12
-2376	-10684	12704	23	-19	-20	-10584	-10096	6720	12	-1	3	1176	-5144	16256	30	8	-1	-224	8328	13944	-4	13	-23	-11648	8824	8712	22	-10	28	224	4224	16680	15	-10	13	125	137	12
-2112	-10504	12720	45	-18	-14	-10656	-10200	7040	-11	-4	-3	1288	-5000	16104	22	3	4	-144	7920	14128	5	11	-16	-11728	8792	8512	0	-10	24	48	4488	16496	21	-10	12	125	139	12
-2092	-10176	12944	24	-20	-15	-10720	-9768	6928	0	-6	6	1344	-5096	16224	26	-8	-2	-240	8544	13872	10	15	-15	-11648	8832	8368	5	-12	19	224	4488	16552	7	-14	12	125	142	12
-2276	-10608	12784	21	-17	-20	-10568	-10160	6944	7	1	0	1344	-4864	16320	29	-10	-1	-128	8192	13832	0	11	-20	-11624	8928	8664	12	-13	24	208	4192	16384	8	-22	14	124	140	12
-2256	-10684	12688	27	-24	-19	-10464	-9848	6664	-4	-2	-5	1312	-4920	16016	25	1	4	-48	8280	13768	13	17	-22	-11408	8680	8640	18	-13	17	352	4376	16568	5	-17	10	125	138	12
-2308	-10440	12784	1	-11	-21	-10640	-10008	6816	7	0	0	1352	-4840	16440	35	1	6	-120	8480	13712	-9	18	-24	-11400	8960	8568	32	-15	25	240	4424	16232	-8	-19	4	125	138	12
-2120	-10572	12728	14	-7	-23	-10616	-10008	6952	-4	-1	-14	1208	-4560	16296	30	3	15	-96	8088	13808	-21	20	-31	-11568	9024	8792	13	-6	20	72	4616	16272	0	-24	9	125	139	12
-2072	-9940	12996	-11	-2	-27	-10712	-9832	6720	-9	-3	-18	1288	-4752	16320	22	6	18	-280	8536	13728	-31	20	-33	-11576	8936	8352	8	-2	14	184	4544	16560	-5	-35	7	125	140	12
-2400	-10692	12720	-20	-14	-33	-10728	-10144	6800	-3	-1	-13	1232	-4848	16104	23	4	15	-216	8192	13816	-42	23	-39	-11664	9048	8448	-7	1	18	152	4304	16264	-17	-33	10	125	140	12
-2088	-10216	12852	-18	-8	-35	-10528	-10112	6824	-24	-1	-20	1248	-4944	15928	16	-3	23	-176	7968	13912	-25	19	-36	-11624	8816	8384	-15	6	7	128	4288	16480	-13	-17	11	126	140	12
-2284	-10284	12836	-46	2	-41	-10600	-10112	6560	-11	-4	-17	1224	-5352	16072	27	1	21	-248	8464	13712	-32	18	-34	-11776	8904	8264	4	8	8	80	4248	16288	-24	-15	22	126	139	12
-2172	-10796	12636	-21	-10	-40	-10512	-10376	6696	-9	-5	-24	1288	-5328	15952	29	6	22	-112	8048	14056	-29	12	-29	-11704	8848	8712	10	3	14	32	4064	16112	-6	-10	23	125	137	12
-2068	-10116	12784	-14	-13	-37	-10656	-10096	6552	-7	-11	-17	1360	-5392	15992	24	10	23	-256	8312	13928	-18	21	-25	-11672	8752	8504	16	-4	12	40	3968	16424	13	-18	27	126	139	12
-2352	-10868	12660	-7	-15	-34	-10296	-10280	6664	12	-11	-11	1352	-5472	16040	34	6	12	-296	8336	14072	-22	13	-31	-11656	8960	8768	15	-2	19	184	4192	16496	12	-17	28	126	136	12
-2072	-10508	12712	20	-16	-22	-10488	-10224	6696	-5	-12	-7	1336	-5416	16088	26	12	11	-112	8008	13904	-1	16	-23	-11880	8672	8360	-4	0	19	192	3992	16280	23	-9	25	126	139	12
-2164	-10440	12700	8	-18	-19	-10512	-10304	6736	-11	-7	-9	1320	-5496	16144	28	18	2	-176	8152	13896	-9	9	-20	-11624	8864	8408	27	-10	24	392	4160	16584	20	-11	28	126	135	12
-2236	-10916	12544	30	-18	-17	-10344	-10432	6744	3	-11	7	1320	-5256	16448	43	5	6	-48	8032	14032	-6	13	-19	-11728	8816	8832	17	-6	35	88	4176	16432	28	-10	23	126	137	12
-1940	-10224	12816	37	-21	-12	-10384	-10056	6752	-6	-14	10	1408	-5176	15840	38	4	5	-248	8200	14064	13	14	-14	-11824	8672	8648	15	-13	28	328	4248	16464	31	-3	17	126	137	12
-2276	-10724	12596	34	-23	-9	-10504	-10312	6632	11	-1	12	1336	-4936	16272	52	-2	-7	-256	8432	13848	7	14	-15	-11672	8920	8456	17	-19	32	-88	4160	16720	20	-12	13	126	136	12
-2052	-10548	12732	61	-28	-2	-10360	-10360	6768	9	-10	5	1328	-4840	16120	34	2	-3	-200	7976	13968	17	13	-16	-11560	8968	8512	9	-7	30	184	4496	16192	17	-14	7	125	139	12
-2092	-10060	12880	40	-19	2	-10600	-10024	6976	23	-2	-2	1160	-4968	16296	26	7	-15	-80	8536	13632	16	9	-18	-11512	9024	8472	34	-16	28	288	4416	16272	8	-18	2	126	139	12
-2380	-10600	12684	31	-28	-7	-10712	-9976	6632	31	0	11	1104	-4768	16336	31	8	-14	-80	8232	13848	-5	15	-19	-11512	9176	8576	20	-9	26	24	4632	16320	4	-19	9	126	141	12
-2032	-10148	12932	37	-17	-13	-10768	-9792	6888	7	-5	1	1152	-4728	15992	23	11	-7	-120	8344	14008	-5	15	-22	-11464	9152	8352	-2	-9	21	216	4672	16368	12	-15	16	126	138	12
-2364	-10180	12972	-1	-17	-23	-10632	-9672	6736	10	-13	2	1344	-4776	16168	31	10	3	-168	8480	14000	-18	13	-28	-11616	9200	8376	4	-4	18	216	4672	16448	5	-22	19	126	139	12
-2208	-10436	12848	-2	-10	-33	-10824	-9928	6952	-6	-13	-8	1304	-4688	16200	28	11	11	-96	8096	13760	-20	18	-30	-11352	8960	8256	-11	5	14	56	4560	16368	11	-12	24	126	137	12
-2032	-9932	12812	-26	-6	-37	-10680	-9928	6704	-16	-18	-7	1192	-4760	16088	30	14	13	-240	8352	13800	-28	21	-35	-11544	9016	8240	2	-1	6	312	4376	16328	16	-9	32	126	138	12
-2340	-10724	12644	-40	-10	-44	-10544	-10120	6528	-5	-15	-12	1096	-4864	16304	44	6	18	-352	8192	13912	-42	25	-36	-11632	8952	8520	-7	-1	11	80	4312	16472	5	-9	36	125	139	12
-2060	-10392	12764	-35	-10	-43	-10392	-10000	6928	-22	-15	-22	1472	-4904	16144	37	-4	39	-152	7968	13832	-32	17	-31	-11624	8888	8592	-5	0	3	296	4280	16472	12	-8	45	124	138	12
-2176	-10380	12816	-49	-8	-41	-10544	-10136	6800	-13	-19	-19	1352	-5072	16240	34	-15	32	16	8384	14064	-40	14	-38	-11752	9024	8472	18	-1	8	256	4112	16672	7	-21	38	124	137	12
-2212	-10760	12592	-28	-6	-42	-10560	-10360	6816	-16	-10	-23	1512	-5056	16200	43	-25	26	-56	7936	13960	-28	18	-31	-11824	8688	8568	-15	5	10	184	4240	16512	7	-19	29	124	138	12
-1988	-10028	12732	-29	-10	-39	-10600	-10208	6624	-19	-13	-10	1608	-5208	16168	30	-6	21	-360	8200	13880	-13	16	-29	-11696	8592	8176	-6	5	7	232	4064	15872	3	-22	20	125	139	12
-2292	-10768	12592	-32	-13	-41	-10160	-10408	6792	-14	-12	-9	1480	-5344	16456	38	9	17	-256	8240	13808	-29	15	-31	-11632	8880	8528	11	-1	25	160	4288	16360	-7	-24	13	125	139	12
-2064	-10580	12704	-3	-10	-37	-10584	-10432	6624	-21	-9	-11	1296	-5016	16216	30	20	15	-304	7800	14016	-11	16	-26	-11752	8744	8288	-3	-2	25	-16	4328	16488	1	-13	14	126	137	12
-2164	-10444	12720	-12	-5	-29	-10512	-10240	6696	7	-9	-4	944	-5048	16104	36	16	12	-304	8312	13864	-13	9	-23	-11656	8976	8536	10	-10	16	-8	4312	16824	1	-14	22	126	140	12
-2208	-10836	12588	11	-16	-28	-10536	-10200	6408	4	-8	-7	944	-5008	16152	42	-8	14	32	8080	14096	-6	8	-20	-11728	8888	8720	4	-1	13	176	4440	16544	9	-12	28	125	138	12
-1960	-10036	12804	5	-14	-25	-10520	-9896	6544	-12	-15	-10	1320	-5088	16136	25	-8	15	-184	8240	13792	2	17	-18	-11632	8752	8608	8	-1	9	168	4336	16448	20	-11	26	126	137	12
-2324	-10672	12516	-2	-20	-31	-10488	-10176	6640	-12	-24	-5	1272	-5016	16208	40	-9	7	-192	8248	13768	-5	18	-23	-11504	8960	8664	3	-4	20	376	4368	16376	17	-13	27	126	137	12
-2024	-10568	12568	14	-23	-31	-10432	-10144	6936	-30	-32	-12	1280	-4896	16208	42	3	10	16	8120	13640	-9	14	-23	-11472	8864	8344	3	1	17	120	4504	16152	18	-6	22	126	137	12
-2120	-10232	12804	3	-13	-29	-10576	-9960	6744	-12	-23	-15	1424	-4968	16256	34	20	11	-152	8576	14232	-21	10	-31	-11648	9120	8272	17	-4	22	120	4520	16048	13	-10	26	126	137	12
-2232	-10736	12704	7	-22	-33	-10904	-10328	6976	-9	-23	-12	1136	-5040	16480	44	9	13	-128	8136	13872	-20	15	-30	-11744	8904	8672	-20	4	25	-128	4320	16304	3	-11	31	126	138	12
-2020	-10040	12852	-9	-9	-32	-10712	-9912	6888	-6	-14	-11	1176	-4896	16240	23	6	20	-224	8224	14008	-10	19	-27	-11632	8600	8384	-9	1	7	160	4440	16392	10	-15	38	125	138	12
-2296	-10496	12680	-34	-8	-44	-10544	-10072	6680	0	-10	-4	1248	-4800	16280	32	-8	13	-48	8312	13752	-21	13	-29	-11496	8864	8704	13	-7	9	288	4272	16440	0	-18	27	125	139	12
-2072	-10692	12536	-18	-7	-41	-10360	-10080	6896	-24	-13	-10	1232	-4824	16064	32	-10	10	24	7968	13880	-18	15	-26	-11576	8704	8384	-1	6	12	280	4416	16680	4	-12	27	125	137	12
-1968	-10396	12676	-25	-9	-34	-10248	-9888	7096	-15	-22	-2	1528	-5008	16144	20	1	9	-72	8368	13768	-23	17	-31	-11552	8920	8424	12	-3	13	288	4304	16416	7	-14	17	126	139	12
-2272	-10896	12488	-5	-13	-32	-10352	-10136	6816	-11	-14	-19	1336	-4944	16304	30	5	14	-280	8272	14048	-29	18	-29	-11584	8864	8592	-10	-1	21	40	4304	16432	-12	-9	17	126	140	12
-2028	-10168	12720	4	-10	-30	-10472	-10200	6800	-10	-13	-23	1152	-5040	16168	21	13	21	-216	8032	13864	-13	18	-28	-11456	8752	8424	-19	3	9	-80	4480	16304	3	-13	21	125	137	12
-2360	-10620	12772	-19	-14	-26	-10608	-10024	6816	-1	-10	-11	1184	-5136	16384	29	2	18	-208	8288	14128	-13	22	-22	-11832	8824	8480	8	-5	17	144	4264	16504	3	-13	29	125	137	12
-2184	-10568	12820	-5	-13	-32	-10624	-10376	6584	-18	-17	-5	1128	-5096	16152	26	3	16	-32	7904	13648	-18	13	-23	-11696	8856	8688	6	-4	10	24	4320	16168	8	-11	30	126	137	12
-2072	-10204	12868	-20	-11	-36	-10496	-10152	6600	-3	-15	-2	1392	-5160	16168	18	1	-2	-224	8336	13848	-15	12	-28	-11664	8952	8704	12	-8	8	192	4568	16248	8	-11	22	127	137	12
-2188	-10916	12476	-22	-13	-40	-10536	-10256	6648	-2	-15	-5	1328	-4960	16360	27	-2	-9	-120	8064	13976	-23	17	-25	-11616	9024	8688	-1	-4	14	-40	4336	16424	1	-15	22	126	138	12
-1960	-10368	12516	0	-14	-32	-10456	-10224	6928	-9	-16	-5	1280	-4872	16120	15	6	-2	-328	8048	13784	-10	17	-28	-11536	8544	8568	-9	-4	8	232	4288	16328	10	-9	24	127	139	12
-2136	-10568	12556	-11	-16	-28	-10344	-10048	6632	-14	-18	-6	1056	-4848	16120	14	13	2	-152	8304	13800	-20	13	-30	-11576	9072	8368	6	-8	16	104	4504	16320	-5	-13	23	126	141	12
-2104	-10828	12544	14	-19	-24	-10400	-10288	6712	-22	-9	-14	1352	-5048	16160	18	9	7	-192	7960	14024	-12	13	-25	-11592	8816	8816	-10	-3	15	176	4248	16440	1	-5	21	126	137	12
-2028	-10200	12740	4	-14	-21	-10488	-10056	6816	-13	-14	-1	1264	-5176	16264	11	15	9	-320	8384	13928	-17	9	-26	-11584	8784	8456	4	-8	11	184	4144	16456	1	-4	21	126	138	12
-2268	-10812	12532	-2	-26	-30	-10712	-10280	6672	-2	-9	-4	1232	-5064	16184	32	2	2	-192	8112	13968	-23	12	-26	-11632	8784	8360	5	-5	16	88	4256	16392	10	-10	18	125	138	12
-1972	-10344	12712	8	-13	-29	-10456	-10120	6816	-11	-9	-5	1144	-5016	16336	28	3	4	-24	7816	13928	-4	20	-27	-11680	8560	8376	-1	-4	15	264	4376	16224	16	-8	18	125	137	12
-2088	-10456	12732	-18	-13	-30	-10440	-9976	6736	6	-11	6	1216	-5072	16432	32	-8	-1	-280	8240	13840	-7	15	-26	-11616	9032	8696	18	-12	18	184	4184	16528	7	-10	18	126	138	12
-2084	-10820	12544	2	-11	-30	-10440	-10400	6768	-1	-9	-10	1152	-4752	16224	34	-9	10	-160	7888	13840	-5	13	-23	-11656	8928	8728	6	-5	18	32	4352	16456	4	-10	24	125	141	12
-1972	-10292	12720	2	-10	-29	-10424	-9896	6936	-16	-19	-6	1200	-4736	16024	25	-1	13	-152	8304	14016	-9	18	-25	-11520	8816	8880	21	-8	18	224	4240	16384	1	-13	27	126	140	12
-2188	-10956	12604	3	-21	-27	-10384	-10296	6720	-15	-12	-8	1240	-5104	16240	41	-6	11	-248	8320	13880	-34	17	-28	-11608	8968	8496	-3	-5	25	48	4144	16608	13	-10	16	126	137	12
-2008	-10624	12648	19	-15	-25	-10472	-10240	6784	-12	-8	-13	1352	-4928	16200	29	-3	14	-80	7776	13816	-11	16	-25	-11744	8592	8456	-16	1	19	144	4464	16632	18	-10	11	126	137	12
-2128	-10348	12692	-7	-11	-25	-10528	-10200	6752	12	-3	-1	1320	-5048	16440	28	5	8	-216	8304	14064	-7	19	-25	-11632	8944	8528	30	-15	17	224	4368	16424	4	-13	10	126	138	12
-2152	-10828	12468	7	-17	-25	-10512	-10336	6768	3	-3	0	1128	-4944	16216	25	-4	1	-96	8016	13856	-12	18	-22	-11736	8968	8568	17	-5	19	-64	4464	16536	-4	-17	10	126	143	12
-1860	-10308	12668	6	-7	-21	-10424	-10104	7056	-5	-1	-6	1160	-4928	16320	13	0	2	-200	8320	14112	-4	22	-22	-11544	8816	8720	15	-9	12	216	4376	16424	7	-16	18	125	140	12
-2212	-10872	12580	-8	-22	-24	-10472	-10240	6704	6	-2	0	1312	-5032	16648	32	-2	1	-184	8352	13968	-14	21	-28	-11552	8872	8376	-2	-12	23	144	4344	16528	-4	-17	20	125	138	12
-1936	-10584	12616	10	-19	-19	-10472	-10256	6880	0	-1	-7	1352	-4912	16152	29	-8	11	-136	7720	13920	-5	15	-25	-11472	8680	8448	-9	6	14	288	4216	16176	11	-16	17	125	138	12
-2152	-10220	12640	-6	-9	-16	-10568	-10080	6944	7	-1	5	1128	-5104	16168	28	0	7	-248	8264	13664	-11	12	-26	-11624	8680	8624	24	-4	16	168	4184	16440	7	-16	15	126	136	12
-2172	-10852	12560	4	-12	-26	-10584	-10256	6880	9	0	3	1064	-5040	16096	33	-1	0	-72	8120	14000	-17	15	-25	-11680	8880	8760	32	-6	22	64	4544	16464	19	-15	13	125	138	12
-1956	-10284	12680	12	-9	-22	-10432	-10056	6808	-6	-9	-4	1296	-4952	16240	14	9	4	-112	8400	13768	-7	18	-26	-11616	9016	8592	12	-3	14	32	4408	16496	12	-21	17	125	139	12
-2208	-10736	12648	6	-11	-22	-10376	-10056	6792	-1	-4	2	1264	-4936	16040	34	-1	2	-72	8280	14064	-20	18	-32	-11624	8928	8792	-2	-6	17	160	4336	16568	0	-24	22	125	138	12
-2080	-10740	12500	21	-12	-19	-10512	-10296	6864	-14	-1	-10	1136	-4744	16184	22	0	4	-104	7840	13904	-5	15	-24	-11592	8736	8528	-15	-3	17	168	4232	16352	6	-13	14	126	138	12
-2032	-10228	12712	9	-8	-19	-10504	-10048	6640	-9	-2	2	1144	-4928	16280	11	-2	5	-296	8416	13800	-10	13	-22	-11640	8568	8712	16	-8	17	400	4160	16376	1	-10	11	126	137	12
-2168	-10928	12596	16	-11	-22	-10504	-10232	6864	6	0	1	1152	-5088	16304	21	4	2	-112	8072	13888	-15	16	-23	-11640	8864	8688	23	-8	27	48	4240	16320	5	-12	10	125	137	12
-1976	-10400	12708	23	-9	-21	-10600	-10168	6440	-2	-5	-11	1288	-5000	16096	15	11	6	-152	8080	13920	-3	15	-21	-11712	8800	8512	15	-8	15	72	4280	16336	15	-12	10	126	137	12
-2220	-10576	12676	9	-15	-23	-10592	-10048	6656	9	-6	0	1152	-5016	16136	23	4	-4	-72	8272	13808	-12	14	-25	-11640	9008	8696	14	-14	20	-56	4448	16624	1	-21	12	126	139	12
-2172	-10732	12532	19	-18	-25	-10600	-10216	6656	-9	-10	-7	1184	-4968	16160	28	-2	-3	-56	7928	13936	1	16	-22	-11800	8928	8728	13	-15	18	160	4464	16336	7	-15	14	125	138	12
-1992	-10120	12704	5	-15	-25	-10432	-9984	6856	-16	-13	-7	1296	-5024	15952	16	6	2	-240	8208	13784	1	17	-20	-11344	8912	8616	4	-13	10	224	4384	16448	1	-15	19	125	139	12
-2216	-10876	12460	6	-13	-24	-10368	-10400	6920	-4	-3	-8	1264	-5016	16384	24	0	3	56	8184	13848	-13	16	-26	-11560	8976	8560	6	-4	24	312	4208	16424	-5	-10	15	125	137	12
-1948	-10576	12624	26	-14	-16	-10520	-10328	6816	-4	2	-12	1208	-5104	16184	14	10	3	-120	8072	13688	-13	17	-27	-11776	8896	8472	-4	-2	14	208	4248	16168	12	-3	12	126	137	12
-2228	-10660	12864	11	-13	-17	-10400	-10208	6720	18	1	-2	1032	-5064	16336	12	4	-2	-104	8368	13864	-23	17	-32	-11688	9104	8512	9	-11	17	-360	4200	16416	4	-15	15	126	136	12
-2164	-10832	12592	18	-6	-22	-10520	-10392	6832	6	-2	-7	1080	-5088	16144	18	3	-3	-280	7872	14032	-9	18	-27	-11864	8736	8912	-3	-9	13	-64	4256	16312	12	-14	19	126	139	12
-2016	-10060	12744	4	-12	-22	-10424	-10104	6712	3	-8	-1	1128	-5248	15968	19	1	-9	-80	8320	13688	7	17	-21	-11656	8736	8536	13	-10	6	8	4248	16568	11	-12	27	126	137	12
-2176	-10848	12440	-9	-14	-30	-10400	-10256	6552	6	-7	11	1464	-5080	16224	35	-7	-17	-256	8160	14008	-4	18	-25	-11672	8968	8216	8	-16	17	184	4368	16256	3	-13	24	125	139	12
-1912	-10764	12388	21	-20	-23	-10336	-10416	6736	-14	-11	0	1320	-4888	15960	26	0	-7	-144	8040	13880	-1	14	-20	-11496	8512	8736	-2	-7	15	264	4344	16016	11	-9	20	126	137	12
-2064	-10664	12656	21	-17	-13	-10400	-10304	6560	6	-9	2	1264	-5000	16072	10	15	-9	-72	8272	13960	-12	9	-24	-11600	8800	8832	15	-19	24	208	4200	16336	9	-10	5	127	138	12
-2152	-10888	12436	38	-20	-10	-10600	-10512	6696	26	-9	7	976	-4920	16504	17	14	-19	-96	7976	13792	-6	19	-24	-11896	8744	8480	2	-8	25	-72	4496	16480	11	-14	-4	127	141	12
-2016	-10096	12672	44	-18	-7	-10648	-10016	6984	31	2	-1	1080	-4904	16224	2	17	-27	-240	8096	13920	10	19	-17	-11640	8864	8384	13	-6	11	8	4560	16464	9	-23	7	126	141	12
-2152	-10544	12740	21	-24	-13	-10592	-9864	6680	21	1	13	1360	-4848	16376	21	5	-34	-120	8320	14032	1	20	-22	-11576	9032	8760	18	-18	19	152	4464	16448	0	-26	13	126	137	12
-2100	-10744	12596	30	-18	-14	-10520	-10144	6968	-13	-11	10	1280	-4744	16328	17	-7	-23	64	8056	14120	2	18	-20	-11560	8824	8656	-7	-7	11	152	4376	16264	4	-24	19	127	140	12
-2024	-10340	12864	11	-10	-13	-10448	-9960	6888	-7	-10	1	1320	-4752	16208	13	-7	-14	-368	8472	13912	-14	16	-28	-11528	8872	8352	6	-12	13	152	4368	16480	-5	-25	14	126	137	12
-2260	-10784	12552	18	-13	-19	-10648	-10296	6768	8	-3	-6	1048	-4808	16256	19	-10	-12	0	7864	13888	-21	18	-26	-11680	8976	8528	4	0	17	112	4424	16456	1	-29	7	125	140	12
-1972	-10092	12912	17	-8	-22	-10584	-9984	6768	12	4	-6	960	-4960	16136	-3	10	-5	-192	8184	14000	-5	22	-26	-11680	8664	8688	9	4	7	200	4384	16264	1	-26	10	125	141	12
-2304	-10544	12716	-12	-6	-26	-10448	-9960	6544	19	-6	5	896	-5072	16376	9	6	-15	-224	8496	13952	-21	17	-29	-11592	9224	8672	28	-9	12	224	4312	16488	-9	-31	11	126	138	12
-2104	-10816	12592	5	-14	-30	-10568	-10080	6960	-5	-3	-1	1032	-4840	16320	14	1	-11	-168	7896	14056	-16	18	-25	-11688	8824	8544	-8	-1	7	24	4424	16440	-9	-27	19	126	137	12
-1900	-10168	12688	-3	-6	-27	-10392	-9856	6888	-12	-6	-8	1376	-5040	16016	-2	1	-9	-128	8352	13872	-20	19	-30	-11560	8912	8592	6	-4	2	192	4144	16328	-4	-35	18	126	137	12
-2176	-10820	12492	1	-10	-22	-10416	-10352	6936	-1	-7	-2	1416	-4880	16584	16	-12	-7	-136	8016	14056	-26	25	-33	-11760	8816	8656	1	-4	14	184	4088	16560	-5	-30	16	125	139	12
-2020	-10528	12568	12	-8	-19	-10376	-10152	6904	-10	-2	-1	1160	-4888	16144	7	-4	-1	-112	7824	13904	-8	21	-28	-11608	8584	8544	3	4	5	280	4192	16376	8	-24	15	126	139	12
-2100	-10480	12600	-10	-4	-24	-10384	-10096	6856	7	6	5	1264	-5136	16120	12	8	3	-104	8208	13752	-18	22	-34	-11664	8904	8616	26	-3	11	272	4016	16360	9	-29	9	125	138	12
-2220	-10824	12408	16	-9	-14	-10536	-10152	6672	-6	3	-5	1160	-5016	16136	21	6	8	8	7952	13968	-13	22	-30	-11768	8720	8672	18	-1	26	120	4288	16336	-2	-26	7	125	139	12
-1952	-10152	12712	11	-4	-19	-10480	-10104	6872	-18	-3	-7	1048	-5216	16136	9	8	4	-64	8360	14128	-9	21	-27	-11672	8792	8704	13	5	23	216	4304	16456	-3	-27	7	126	139	12
-2240	-10856	12532	7	-14	-18	-10560	-10264	6680	8	-8	-1	1008	-5104	16280	25	-10	-3	-112	8376	14104	-16	26	-29	-11848	8952	8928	5	-3	18	144	4216	16432	-5	-29	10	125	139	12
-1968	-10560	12580	22	-9	-16	-10456	-10488	6744	8	-2	-3	1248	-5024	16368	19	-19	0	-120	8128	13920	-13	25	-29	-11624	8720	8656	-7	7	13	104	4360	16216	4	-24	18	125	139	12
-2052	-10324	12636	-4	-9	-11	-10264	-9920	6808	19	1	5	1528	-5048	16200	22	-11	-2	-168	8400	13768	-2	22	-24	-11520	8792	8352	23	-5	11	264	4264	16600	1	-25	12	124	137	12
-2112	-10880	12496	9	-19	-12	-10424	-10168	6648	2	12	-1	1544	-4936	16304	27	-5	0	16	7984	13832	-12	22	-23	-11568	8944	8616	19	-1	22	312	4312	16360	0	-23	3	125	140	12
-1952	-10252	12616	27	-18	-10	-10608	-10144	6752	-16	3	-9	1296	-5008	16072	11	13	2	-24	8224	14024	-8	20	-28	-11536	8768	8784	23	-4	20	288	4352	16248	6	-10	2	125	139	12
-2296	-10716	12788	19	-20	-15	-10640	-10096	6752	7	0	-2	1112	-5056	16448	12	13	-2	-264	8208	13960	-26	16	-30	-11616	9160	8576	17	1	30	-8	4448	16392	-7	-10	1	125	140	12
-2092	-10524	12688	28	-18	-13	-10632	-10032	6784	-3	0	-8	936	-5032	16184	12	4	0	-144	7928	13904	-9	13	-23	-11640	9096	8696	-6	0	19	-8	4600	16272	0	-8	11	124	138	12
-2024	-10008	12740	-1	-3	-22	-10624	-9992	6744	-11	-8	-1	1104	-5040	15856	5	-2	0	-304	8280	13976	-4	14	-24	-11600	8896	8544	-1	-2	7	-8	4344	16440	-4	-13	20	124	138	12
-2272	-10768	12548	-3	-11	-25	-10512	-10120	6680	-8	-10	0	1096	-5096	16040	28	-16	-6	-248	8208	13816	-20	12	-25	-11632	8968	8528	-2	-3	13	120	4216	16336	-3	-14	26	124	139	12
-1968	-10364	12596	11	-10	-28	-10496	-10024	6896	-8	-6	-3	1512	-4912	16080	22	-8	2	-208	8184	14008	-14	11	-23	-11608	8592	8472	-1	-2	9	352	4176	16080	8	-10	23	125	138	12
-2164	-10732	12604	1	-15	-28	-10344	-10040	6752	-8	-11	-3	1272	-5016	16192	29	-2	2	-136	8272	13840	-27	11	-26	-11712	8792	8464	18	-14	21	272	4256	16560	12	-6	13	125	140	12
-2044	-10724	12520	21	-13	-23	-10488	-10096	6768	-3	-6	-17	1216	-5024	15984	31	7	10	-160	7840	13688	-9	13	-27	-11672	8640	8704	15	-5	24	24	4256	16496	20	-3	10	125	137	12
-2088	-10104	12728	8	-16	-20	-10544	-10024	6880	-4	-16	-6	1200	-5056	16024	22	13	8	-264	8432	13848	-7	11	-22	-11680	8944	8576	27	-10	15	120	4240	16400	14	-7	17	126	139	12
-2312	-10828	12588	6	-22	-23	-10568	-10256	6768	2	-5	-6	1136	-4944	16368	35	-1	7	-312	8248	14120	-14	13	-22	-11688	9072	8840	6	-5	22	128	4288	16608	9	-20	25	125	136	12
-1936	-10336	12764	16	-14	-24	-10640	-10048	6704	-23	-10	-7	1080	-4896	16200	38	1	5	-168	8048	13872	-2	21	-25	-11616	8704	8624	-14	-2	8	344	4360	16416	10	-21	22	125	138	12
-2216	-10620	12740	-4	-15	-25	-10464	-10256	6752	-13	-9	0	1296	-5120	16536	33	-10	3	-128	8264	13808	-12	15	-28	-11648	8824	8592	-4	-5	22	240	4120	16432	4	-25	18	125	140	12
-1988	-10832	12540	14	-9	-23	-10424	-10384	7000	-7	-5	-10	1432	-5008	16304	26	-4	3	-152	7904	14000	-6	16	-27	-11600	8544	8480	-3	-3	21	208	4344	16416	9	-18	12	126	139	12
-1992	-10176	12692	4	-12	-19	-10376	-10048	6808	11	0	-3	1304	-5056	16104	17	1	4	-224	8384	14136	-11	17	-25	-11504	8864	8520	19	-2	15	128	4400	16560	5	-19	14	126	138	12
-2256	-10896	12496	10	-16	-20	-10328	-10160	6784	18	4	-4	1224	-4992	16336	26	0	-1	-184	8168	14064	-14	18	-26	-11816	8904	8696	16	-4	23	160	4352	16504	1	-14	14	125	141	12
-1892	-10488	12636	22	-15	-17	-10616	-10136	6896	-11	-6	-7	1152	-4976	16104	14	1	4	-112	8064	13976	-7	17	-26	-11648	8680	8272	6	-7	15	-96	4424	16424	9	-16	16	126	139	12
-2156	-10532	12788	9	-13	-17	-10608	-10048	6776	6	-3	-4	1160	-5072	16040	20	0	-1	-120	8344	13760	-14	13	-28	-11712	8880	8456	11	-8	14	48	4136	16352	4	-17	16	125	137	12
-2128	-10804	12576	13	-20	-20	-10592	-10224	6968	7	-2	-9	1208	-4872	16320	27	-7	3	-128	7848	14024	-13	19	-29	-11632	8632	8592	-2	-6	14	232	4304	16328	10	-15	18	125	141	12
-2040	-10096	12680	1	-5	-23	-10608	-9904	6712	1	-6	-8	1456	-5080	16120	12	2	6	-240	8232	13688	0	17	-21	-11624	8704	8520	18	-5	7	216	4144	16384	8	-15	15	125	139	12
-2224	-10828	12624	-3	-14	-32	-10416	-10184	6640	-9	-4	-2	1264	-5168	16024	15	2	4	-104	8176	13984	-17	16	-30	-11656	8872	8448	11	-9	28	64	4384	16376	8	-16	15	125	139	12
-2020	-10632	12548	25	-18	-23	-10512	-10280	6856	-25	-4	-7	1104	-5024	15920	26	4	8	-192	8120	13600	2	19	-25	-11640	8792	8608	-8	1	19	0	4280	16496	10	-14	18	125	138	12
-2196	-10444	12724	6	-13	-19	-10360	-10344	6896	6	-9	-1	1264	-5136	16184	23	2	1	-144	8296	13888	-15	13	-26	-11776	8952	8512	11	-9	25	-32	4136	16592	4	-18	11	125	138	12
-2108	-10892	12620	17	-19	-16	-10576	-10280	7000	17	0	2	1224	-4904	16240	38	-7	0	-120	7976	14016	-5	15	-23	-11760	8656	8456	6	-4	27	80	4304	16568	12	-16	14	125	138	12
-1996	-10132	12816	12	-10	-14	-10600	-9912	6872	9	-4	0	1232	-4976	16128	24	-9	0	-136	8280	14024	4	18	-20	-11344	8680	8304	27	-13	12	312	4184	16528	19	-20	17	125	139	12
-2248	-10796	12552	7	-13	-19	-10464	-10072	6744	10	-4	8	1440	-5008	16336	37	-4	-4	48	8232	13912	-4	17	-23	-11544	9032	8696	23	-12	28	96	4352	16392	12	-18	9	125	138	12
-2048	-10608	12636	24	-12	-22	-10472	-10088	6920	-20	0	-5	1200	-4960	16160	24	3	8	64	7888	13880	2	16	-22	-11600	8712	8848	3	-8	16	152	4488	16256	15	-16	13	126	138	12
-2104	-10296	12720	10	-14	-16	-10576	-9968	6896	-5	-10	-4	1336	-5064	15912	27	12	3	-64	8416	13784	-8	16	-24	-11648	8976	8768	11	-10	20	24	4440	16264	14	-18	14	126	138	12
-2208	-10800	12540	17	-20	-14	-10592	-10304	6776	2	-9	-10	1176	-4928	16224	36	-2	6	-136	7968	14056	-13	11	-24	-11632	8872	8656	-3	-2	23	-72	4416	16600	2	-17	17	126	140	12
-1956	-10116	12712	13	-12	-21	-10696	-9976	6808	-5	-5	-9	1224	-4824	16368	32	2	5	-256	8360	13944	0	17	-24	-11712	8912	8568	10	-8	11	288	4360	16496	10	-18	19	126	139	12
-2268	-10668	12700	-5	-11	-28	-10376	-10240	6728	8	-3	2	1352	-4904	16544	30	-1	-3	-112	8320	13880	-13	17	-29	-11648	9008	8784	20	-2	18	160	4280	16480	2	-18	19	126	138	12
-1940	-10720	12616	19	-14	-24	-10424	-10288	6664	-7	-2	-9	1216	-4808	16072	23	-3	10	-168	7896	13944	-8	15	-28	-11600	8744	8760	-6	-1	12	56	4416	16216	11	-16	16	126	141	12
-2048	-10240	12764	-3	-11	-14	-10488	-9992	6824	-3	-6	-4	1224	-4888	16192	18	3	6	-232	8328	13944	-17	13	-26	-11552	8792	8552	17	-3	12	304	4432	16488	2	-17	20	125	138	12
-2204	-10876	12424	7	-13	-19	-10536	-10368	7016	3	-4	-10	1160	-4920	16472	30	-2	9	-192	8128	14032	-20	18	-29	-11752	8864	8672	7	-3	22	48	4352	16240	1	-15	16	125	140	12
-1928	-10232	12676	13	-7	-20	-10504	-10096	6880	-13	-5	-10	1272	-5080	16072	10	-4	13	-80	8128	13768	-9	21	-25	-11688	8696	8696	9	-4	12	72	4360	16432	6	-17	15	125	139	12
-2268	-10644	12700	-6	-12	-22	-10368	-10072	6816	10	-4	-4	1272	-4928	16224	24	-4	3	-184	8344	13944	-21	21	-26	-11688	8752	8840	11	-6	20	160	4336	16312	-5	-24	17	125	140	12
-2020	-10736	12540	15	-10	-25	-10536	-10096	6864	-9	2	-13	1224	-4992	16256	23	-3	10	-104	7952	13792	-6	16	-24	-11488	8736	8640	-5	0	17	96	4200	16200	8	-18	16	125	139	12
-2048	-10204	12664	-1	-11	-18	-10376	-10176	6656	-9	-3	-12	1304	-5120	16336	18	5	8	-224	8424	13960	-21	23	-25	-11608	8584	8376	9	-4	14	120	4232	16424	3	-18	8	125	140	12
-2188	-10944	12548	4	-16	-25	-10536	-10328	6816	-2	-7	-8	1112	-5072	16168	34	-7	10	-184	8320	13768	-22	19	-31	-11656	8912	8824	5	-2	25	88	4272	16744	2	-15	12	125	140	12
-1936	-10276	12704	-1	-12	-16	-10424	-10104	6632	-3	-1	-18	1240	-4912	15912	18	2	16	-240	8200	13744	-5	27	-26	-11624	8744	8368	15	-3	14	72	4288	16336	10	-13	12	126	139	12
-2204	-10700	12700	-17	-12	-24	-10608	-10048	6696	10	2	-1	1304	-5264	16064	35	-7	14	-328	8344	13856	-13	21	-29	-11672	9064	8720	17	-3	22	128	4168	16392	-1	-25	17	125	138	12
-2060	-10856	12540	8	-15	-24	-10648	-10280	6600	-9	-5	-8	1184	-5072	16096	34	-7	14	-168	8008	14008	-5	15	-26	-11664	8688	8688	3	-3	17	-56	4248	16368	6	-23	17	126	139	12
-2028	-10180	12752	-1	-12	-22	-10376	-10096	6600	0	-7	-5	1112	-5136	16048	27	1	8	-384	8208	13984	-8	16	-24	-11600	8928	8896	5	-7	17	80	4192	16176	1	-16	13	126	137	12
-2248	-10880	12484	4	-19	-25	-10504	-10216	6640	7	4	-4	1112	-5048	16368	40	-8	6	-168	8024	13968	-21	12	-24	-11632	8872	8600	6	-6	15	176	4288	16664	1	-16	15	126	138	12
-1952	-10404	12692	17	-12	-24	-10528	-10216	6904	-13	-5	-3	1184	-5032	16376	21	3	14	-128	8216	14016	3	14	-25	-11624	8616	8336	10	-11	14	8	4080	16176	18	-9	17	126	140	12
-2244	-10540	12724	2	-16	-21	-10504	-10016	6648	1	-4	-1	1176	-5080	16048	26	0	8	-160	8288	13624	-16	11	-29	-11656	8952	8720	22	-14	25	224	4288	16448	15	-18	13	126	137	12
-2124	-10804	12632	25	-10	-21	-10544	-10456	6776	-10	-7	-8	1224	-5144	16264	31	-4	9	-104	7856	13984	-5	15	-28	-11672	8760	8560	7	-7	23	88	4296	16336	11	-18	17	125	140	12
-2036	-10116	12644	16	-12	-19	-10368	-9992	6944	-7	-5	-2	1344	-5192	16128	18	9	0	-160	8400	14072	-3	16	-23	-11608	9016	8816	22	-4	13	200	4216	16536	7	-20	15	126	138	12
-2220	-10908	12520	15	-18	-19	-10344	-10296	6776	11	0	0	1192	-4968	16224	36	2	-5	-64	8016	13848	-11	14	-29	-11768	8904	8568	11	-10	26	16	4248	16376	2	-18	16	125	137	12
-1880	-10420	12764	31	-20	-18	-10472	-10104	6944	-7	-4	-7	1224	-4840	16456	23	2	6	-184	8000	13768	-6	16	-25	-11552	8664	8656	1	-6	10	160	4392	16128	12	-17	12	125	139	12
-2204	-10584	12852	10	-14	-18	-10496	-10008	7024	7	-3	0	1160	-4912	16136	27	-2	1	-216	8296	13688	-11	11	-24	-11576	8968	8624	18	-10	18	256	4336	16432	7	-17	16	125	138	12
-2132	-10872	12540	24	-14	-23	-10520	-10008	6704	8	-5	2	1288	-4976	16224	32	-10	7	-152	7928	13744	-9	15	-28	-11664	8784	8832	9	0	19	104	4408	16552	4	-18	20	125	139	12
-2036	-10140	12696	11	-10	-20	-10632	-9920	6464	-19	-5	-5	1216	-5016	16392	22	-1	15	-176	8536	13944	-7	17	-25	-11544	8912	8344	14	-2	13	152	4344	16592	6	-18	10	125	136	12
-2220	-10772	12512	4	-13	-27	-10504	-10224	6888	-1	-2	-6	1280	-5024	16208	37	-8	4	-72	8080	14120	-21	20	-31	-11696	8864	8616	3	-4	24	-56	4248	16616	4	-21	16	125	138	12
-1972	-10468	12676	10	-11	-25	-10480	-10288	6832	-9	-1	-12	1288	-4960	16040	21	1	7	-144	8120	13864	-5	26	-29	-11472	8752	8456	-2	1	13	152	4384	16336	5	-18	15	126	140	12
-2208	-10528	12652	-8	-8	-25	-10456	-9960	6832	16	-4	1	1128	-5064	16184	21	7	-2	-168	8344	13792	-22	15	-26	-11600	8960	8496	15	-5	17	128	4288	16568	-1	-18	20	126	139	12
-2096	-10888	12516	10	-16	-23	-10568	-10040	6632	19	-1	0	1064	-5016	16080	28	0	3	-216	8000	13848	-24	19	-27	-11680	8920	8744	0	-1	22	128	4352	16424	6	-12	19	125	140	12
-2032	-10316	12712	8	-6	-19	-10520	-10024	6752	-5	-8	-3	1160	-5040	16136	13	7	6	-312	8184	13976	-15	16	-26	-11744	8728	8832	8	-5	10	40	4064	16496	2	-19	15	125	136	12
-2248	-10804	12448	4	-19	-18	-10488	-10176	6824	6	0	-1	1160	-4976	16080	32	-5	-2	-48	8192	14000	-21	17	-29	-11808	8776	8648	7	-6	20	104	4312	16648	2	-21	18	125	139	12
-1932	-10404	12636	18	-14	-21	-10576	-10032	6904	-12	-3	-12	1128	-4880	16024	24	-4	11	-160	7968	13776	-1	19	-26	-11576	8584	8792	15	3	12	80	4416	16384	8	-23	15	125	139	12
-2208	-10632	12848	1	-13	-22	-10448	-10112	6848	-10	-2	-4	1144	-4840	16032	24	1	6	-64	8392	13832	-16	18	-30	-11672	8912	8512	24	-6	18	144	4296	16432	-4	-21	16	126	138	12
-2132	-10900	12488	15	-14	-21	-10608	-10200	6728	-17	-4	-13	1208	-4976	16120	25	-3	12	-120	7960	13912	-15	16	-29	-11648	8912	8704	-8	-1	22	24	4432	16656	2	-10	15	125	139	12
-2068	-10272	12812	4	-14	-25	-10584	-10104	6872	-13	-5	-11	1192	-5048	16320	15	10	9	-344	8320	13952	-10	17	-29	-11608	8816	8504	-4	0	11	144	4160	16344	-3	-11	21	125	136	12
-2292	-10784	12628	0	-20	-27	-10600	-10408	6768	12	-7	-2	1264	-5160	16240	38	1	6	-224	8168	14096	-16	15	-26	-11584	8768	8696	-1	5	21	-64	4200	16384	4	-12	21	125	139	12
-1944	-10404	12636	7	-11	-26	-10424	-10168	6696	-4	-5	-4	1352	-5024	16328	28	3	7	-104	7880	13872	-3	17	-24	-11496	8648	8536	11	-3	12	104	4200	16304	16	-8	19	125	139	12
-2164	-10720	12564	1	-14	-25	-10296	-10176	6928	13	-5	0	1304	-5064	16168	29	2	-3	-40	8368	13936	-14	15	-29	-11592	8896	8480	25	-18	21	64	4080	16416	14	-11	12	126	137	12
-2060	-10936	12420	21	-22	-18	-10512	-10480	6864	1	-5	-7	1272	-4880	16328	25	3	0	-8	7856	13784	-8	11	-28	-11648	8720	8576	16	-8	28	120	4432	16672	8	-14	15	125	141	12
-1964	-10228	12664	25	-17	-16	-10320	-10104	6664	4	-4	-3	1168	-5056	16072	15	6	-3	-184	8472	13864	-7	15	-22	-11624	8816	8720	26	-6	17	264	4192	16384	9	-16	15	126	140	12
-2176	-10788	12544	24	-19	-13	-10592	-10424	6712	4	-3	10	1216	-5104	16248	16	5	-4	-208	8144	13912	-8	17	-23	-11728	8720	8816	3	-6	23	160	4288	16384	7	-21	19	124	139	12
-2008	-10436	12616	33	-16	-16	-10280	-10104	6920	-20	-8	-6	1312	-4912	16168	22	-7	2	-144	8000	13872	8	20	-20	-11520	8664	8400	-9	-7	10	176	4304	16464	17	-15	17	125	139	12
-2168	-10528	12804	5	-11	-15	-10488	-9864	6960	3	-3	6	1232	-4968	16280	29	-1	-3	-152	8416	13776	-6	18	-22	-11576	8920	8784	7	-8	18	72	4232	16504	1	-17	17	126	139	12
-2220	-10908	12500	26	-17	-17	-10656	-10288	6576	5	1	0	1216	-4848	16600	27	-3	0	-128	7968	13848	-2	15	-23	-11656	8768	8576	5	-9	20	56	4336	16200	18	-19	13	126	137	12
-1940	-10124	12600	16	-14	-20	-10568	-9912	6736	8	-3	-1	1216	-4960	16024	22	4	-1	-184	8272	13880	-1	16	-23	-11488	8920	8352	21	-14	17	160	4456	16424	16	-24	13	126	139	12
-2268	-10788	12604	7	-13	-25	-10496	-10136	6720	19	-5	2	1320	-4800	16536	31	-1	-1	-176	8120	13880	-16	19	-26	-11584	8912	8608	18	-10	29	152	4288	16280	6	-18	13	126	138	12
-1956	-10436	12700	15	-4	-24	-10512	-10080	6696	-12	-4	-3	1160	-4848	16160	17	7	10	-96	8056	13872	-7	20	-28	-11536	8776	8808	0	-3	13	120	4448	16376	11	-16	17	125	139	12
-2256	-10472	12644	-5	-16	-21	-10528	-10000	6936	0	-5	-1	1112	-5040	16152	17	4	9	-144	8304	13800	-17	20	-26	-11600	8992	8504	16	-6	17	280	4384	16384	0	-20	13	126	139	12
-2028	-10876	12492	11	-13	-24	-10664	-10288	6872	-6	-2	-10	1184	-4920	16264	20	-6	2	-168	7760	14112	-16	19	-28	-11736	8840	8480	-1	0	20	80	4312	16504	0	-18	9	125	142	12
-1956	-10240	12680	11	-10	-18	-10416	-10128	7024	-13	-5	-9	1152	-5088	16152	8	-9	4	-216	8272	13944	-10	22	-22	-11736	8640	8808	16	-6	9	112	4336	16464	4	-23	15	125	139	12
-2208	-10876	12548	-3	-14	-15	-10592	-10160	6728	17	0	6	1176	-5200	16336	22	-14	-7	-368	8152	14040	-20	27	-28	-11632	8888	8656	11	-10	20	8	4232	16440	-6	-23	15	125	139	12
-1960	-10540	12608	11	-6	-19	-10520	-10176	6936	6	2	-1	1320	-5040	16096	21	-12	2	-248	7904	13800	-2	22	-22	-11600	8712	8536	4	-5	11	184	4160	16440	10	-21	19	125	140	12
-2112	-10292	12704	-5	-8	-15	-10424	-10080	6728	14	3	2	1296	-5112	16400	18	-1	0	-208	8312	13960	-6	14	-27	-11616	8976	8656	22	-7	15	320	4208	16328	3	-24	17	125	137	12
-2176	-10960	12476	16	-17	-21	-10440	-10352	6864	7	2	-5	1096	-4976	16064	26	2	-1	-32	8000	13752	-8	14	-23	-11784	8848	8768	8	-5	27	112	4240	16512	8	-20	11	125	137	12
-1980	-10224	12672	24	-15	-14	-10448	-10136	6784	-5	-4	-6	1064	-5128	16152	5	6	-2	-200	8200	14008	-3	14	-21	-11488	8744	8344	4	-3	13	224	4368	16376	11	-17	11	125	138	12
-2272	-10740	12624	10	-17	-18	-10568	-10112	6888	16	-3	4	1200	-4952	15952	9	5	0	-80	8200	13984	-12	15	-22	-11560	8784	8504	16	-10	24	160	4112	16504	2	-26	18	125	140	12
-1980	-10576	12560	30	-10	-22	-10424	-10008	6872	-10	-8	0	1304	-4872	16040	18	6	2	-72	7968	13920	-5	12	-25	-11440	8776	8640	8	-6	16	224	4208	16344	16	-24	16	124	138	12
-1960	-10320	12772	9	-16	-21	-10368	-9968	6824	-15	-9	1	1416	-4848	16016	25	2	7	-136	8368	13720	-12	15	-26	-11488	8968	8608	29	-13	17	264	4216	16344	14	-19	17	125	136	12
-2072	-10852	12572	22	-16	-19	-10560	-10312	6712	-13	2	-14	1168	-4936	16440	36	-7	11	-160	8048	13856	-15	12	-28	-11736	8888	8696	11	-3	24	120	4384	16576	3	-7	13	125	138	12
-1968	-10200	12740	20	-7	-18	-10456	-10240	6776	-21	-4	-13	1008	-4936	16024	19	3	13	-264	8296	13880	-10	19	-21	-11576	8888	8536	4	6	11	32	4520	16392	-3	-12	10	125	139	12
-2352	-10732	12644	3	-9	-23	-10432	-10200	6928	19	0	-6	1160	-5040	16328	27	-6	4	-144	8376	13968	-19	17	-31	-11664	8840	8536	5	-3	17	-32	4272	16384	-9	-15	21	125	139	12
-2048	-10608	12644	17	-10	-25	-10720	-10344	7040	5	4	-13	1248	-5168	16096	23	-9	10	80	7880	13912	-5	19	-22	-11584	8696	8536	-11	2	7	104	4288	16256	4	-19	19	125	140	12
-2092	-10236	12644	-7	-7	-27	-10448	-9888	6728	-4	-2	-3	1392	-5120	16040	20	-7	6	-376	8360	13880	-13	16	-20	-11560	8792	8792	11	-4	9	312	4232	16472	4	-20	18	126	139	12
-2180	-10892	12376	-3	-11	-31	-10456	-10352	6728	-9	1	-9	1248	-4928	16200	31	-8	7	-24	8000	13888	-23	14	-27	-11552	8680	8664	15	-5	19	152	4296	16328	7	-21	11	125	140	12
-1912	-10356	12648	15	-11	-21	-10336	-10296	6672	-22	-7	-13	1168	-4864	15920	9	5	10	-104	8072	14128	-13	18	-27	-11520	8760	8432	10	-3	15	224	4200	16536	9	-20	12	126	139	12
-2192	-10660	12656	0	-4	-20	-10480	-10248	6472	-1	-3	-1	1168	-5256	16104	25	1	5	-96	8368	14016	-25	17	-25	-11792	8912	8640	13	-11	26	-48	4088	16632	-4	-20	15	126	141	12
-2040	-10712	12540	17	-11	-23	-10464	-10280	6856	-7	-4	-4	1216	-5104	16208	24	0	10	-144	7872	13808	-8	16	-24	-11632	8632	8688	2	-5	15	24	4224	16248	10	-17	17	126	138	12
-2068	-10172	12828	2	-10	-23	-10488	-10120	6960	4	-8	-4	1248	-5184	15672	23	2	5	-248	8464	13888	-7	14	-22	-11632	8776	8648	16	-7	10	96	4168	16232	6	-20	16	125	139	12
-2236	-10892	12508	2	-17	-23	-10496	-10312	6856	9	-6	2	1304	-5016	16248	38	-7	-2	-48	8152	13880	-6	15	-22	-11688	8912	8544	8	-8	23	128	4248	16496	9	-18	18	125	138	12
-2000	-10380	12636	14	-15	-25	-10440	-10080	6904	-10	-7	-9	1264	-5072	16208	20	-5	5	-176	8216	13888	-1	16	-22	-11392	8584	8464	6	-1	18	264	4096	16392	11	-16	17	125	137	12
-2228	-10704	12628	10	-16	-23	-10424	-10416	6776	9	-11	-3	1320	-5136	16080	32	-7	-5	-144	8360	14008	-22	19	-28	-11616	8832	8560	11	-8	25	40	4096	16512	4	-21	11	126	138	12
-2032	-10708	12612	23	-18	-22	-10568	-10376	6824	5	-2	-4	1128	-5000	16280	27	-3	2	-224	7912	14056	-10	18	-24	-11696	8688	8712	0	-4	21	168	4376	16568	13	-15	14	125	140	12
-2000	-10120	12736	1	-5	-14	-10488	-9960	6704	17	-5	4	1352	-5160	16184	16	7	-1	-264	8360	13912	-7	16	-23	-11680	8752	8888	27	-9	15	232	4368	16456	10	-18	11	126	139	12
-2188	-10912	12504	7	-20	-21	-10528	-10080	6792	10	2	7	1208	-4856	16192	25	5	1	-16	8032	13984	-13	15	-25	-11608	8896	8616	16	-4	24	176	4416	16424	10	-18	13	125	139	12
-1888	-10340	12588	18	-12	-18	-10464	-9968	6920	-19	-4	-8	1160	-5024	16152	15	5	11	-176	8304	13848	-2	17	-26	-11600	8744	8608	-8	0	12	16	4376	16360	6	-16	14	125	140	12
-2212	-10616	12744	5	-14	-18	-10448	-10152	6744	-9	0	-1	1144	-5120	16264	30	0	5	-136	8336	13856	-19	15	-27	-11624	8912	8560	-2	6	23	176	4264	16664	0	-17	15	125	139	12
-2100	-10824	12600	17	-12	-22	-10504	-10288	6768	-9	-5	-16	1184	-4944	16320	33	-8	14	-48	7864	13840	-8	14	-25	-11632	8472	8544	-4	-6	15	56	4264	16240	10	-14	18	125	139	12
-2004	-10128	12712	6	-4	-16	-10424	-10000	6768	4	-6	-7	1288	-4968	16128	25	-1	11	-200	8472	14048	-5	13	-24	-11592	8856	8624	25	-5	15	344	4224	16392	6	-18	12	126	137	12
-2252	-10780	12544	6	-18	-24	-10504	-10216	6440	17	3	-4	1272	-4920	16448	35	-8	3	-144	8120	14048	-23	15	-25	-11560	8976	8576	19	-7	25	48	4344	16288	-1	-18	9	126	139	12
-1960	-10320	12656	11	-9	-21	-10400	-10056	6752	-15	-4	-13	1112	-5040	15920	19	0	11	-176	8136	13904	-10	15	-24	-11512	8840	8600	0	0	14	104	4288	16320	4	-15	14	126	137	12
-2168	-10628	12744	2	-17	-26	-10448	-10112	6624	-4	-10	-7	1008	-5088	16304	30	-5	1	-80	8432	13752	-23	12	-29	-11632	8912	8520	4	-7	19	72	4336	16496	-6	-24	22	126	136	12
-2056	-10720	12656	20	-13	-23	-10568	-10216	6776	-5	-5	-11	1368	-4968	16424	23	-3	7	-208	7896	13840	-12	15	-28	-11840	8680	8600	-2	-6	16	144	4288	16496	6	-19	18	126	138	12
-2076	-10096	12788	3	-9	-19	-10600	-10080	6632	6	-3	-3	1232	-5088	16008	14	2	0	-160	8584	14040	-8	16	-27	-11672	8856	8416	14	-6	9	112	4240	16352	4	-13	20	125	139	12
-2240	-10824	12456	7	-19	-26	-10560	-10256	6896	7	0	4	1320	-5040	16632	28	-1	-2	-56	8128	14128	-17	16	-21	-11800	8776	8672	7	-6	19	128	4328	16456	10	-15	14	126	137	12
-1964	-10484	12564	20	-13	-22	-10440	-10168	7000	-13	-4	-7	1128	-5040	16120	15	6	6	-128	8096	13896	-8	20	-22	-11408	8736	8504	5	-7	15	72	4200	16320	13	-12	13	125	139	12
-2244	-10636	12812	7	-12	-16	-10520	-10128	6920	5	-1	1	1240	-5200	16120	27	8	3	-200	8280	13936	-20	15	-28	-11656	8920	8704	16	-5	24	56	4320	16424	5	-21	12	126	138	12
-2188	-10796	12632	25	-14	-21	-10520	-10344	6744	4	-2	-14	1288	-5008	16352	29	-1	5	-264	7672	13960	-8	16	-25	-11688	8728	8648	4	0	22	200	4496	16368	6	-17	12	125	142	12
-2028	-10144	12764	3	-13	-19	-10568	-9888	6736	-3	-5	-4	1192	-5096	16248	20	-3	2	-192	8392	13976	1	20	-18	-11784	8864	8712	15	-4	14	176	4256	16624	5	-19	17	125	140	12
-2192	-10844	12632	-7	-20	-26	-10544	-10112	6816	4	0	0	1160	-4864	16152	35	-6	-2	-136	8232	13768	-12	21	-25	-11640	8904	8416	1	-4	26	56	4344	16240	1	-18	9	125	139	12
-1964	-10520	12644	4	-16	-23	-10488	-10160	6752	-12	-5	-6	1320	-4896	15912	16	-8	12	-160	8168	13832	-3	23	-26	-11552	8712	8560	-4	-2	14	128	4208	16136	7	-20	17	125	139	12
-2144	-10588	12776	-10	-13	-15	-10496	-10336	6720	3	-3	-1	1272	-5032	16136	28	-3	7	-120	8368	13696	-23	17	-31	-11696	8888	8760	3	-8	22	248	4152	16432	-1	-25	17	126	139	12
-2132	-10840	12532	4	-14	-19	-10448	-10376	6768	6	0	-10	1224	-4920	16136	34	-1	10	-232	7784	13928	-19	11	-28	-11688	8704	8512	2	0	21	-8	4456	16304	4	-16	13	125	141	12
-1960	-10052	12788	-6	-6	-21	-10504	-9976	6880	0	-3	-5	1192	-5184	16040	12	7	8	-232	8336	14016	-12	14	-20	-11688	8800	8816	20	-6	13	160	4184	16320	8	-14	16	126	138	12
-2264	-10832	12644	-10	-11	-30	-10464	-10272	6392	6	0	3	1160	-4976	16144	29	-4	-1	-144	8320	13904	-12	12	-26	-11640	8960	8568	19	-9	12	-24	4352	16480	3	-19	19	125	140	12
-2016	-10680	12664	18	-19	-21	-10528	-10200	6856	-11	-12	-2	1296	-5088	16144	19	0	5	-200	7904	13896	-5	15	-25	-11600	8592	8760	-5	-4	9	240	4120	16016	16	-21	19	126	136	12
-2132	-10464	12744	7	-12	-19	-10440	-9968	6640	6	-9	-1	1360	-5048	15992	23	7	-3	-176	8360	13872	-15	12	-30	-11584	8824	8544	15	-12	17	352	4248	16464	8	-24	19	126	140	12
-2084	-10956	12424	27	-19	-22	-10296	-10408	6816	1	-3	-9	1192	-4968	16168	33	0	2	-152	8008	14120	-10	16	-23	-11640	8736	8592	12	-4	28	128	4176	16368	3	-14	14	126	138	12
-1924	-10180	12648	26	-10	-19	-10448	-10040	7032	-9	-7	-6	1344	-5016	16080	15	12	3	-200	8296	13872	1	15	-23	-11592	8736	8544	-2	-4	14	200	4216	16400	9	-9	16	126	139	12
-2220	-10816	12612	19	-18	-18	-10496	-10400	6752	7	-1	4	1224	-5112	16528	27	3	-7	-168	8312	14016	-10	15	-17	-11656	8720	8792	8	-4	26	144	4208	16504	0	-15	15	125	139	12
-2032	-10636	12640	34	-19	-16	-10704	-10208	6944	-7	-5	0	1232	-5080	16352	20	-2	4	-176	7808	13872	5	17	-16	-11568	8688	8600	10	-4	24	160	4352	16376	15	-16	13	125	138	12
-2084	-10344	12860	19	-6	-18	-10592	-10144	6848	9	-8	4	1160	-5072	16016	30	-8	0	-160	8368	14008	-6	17	-19	-11728	8936	8712	31	-16	22	0	4512	16512	5	-23	13	125	135	12
-2156	-10816	12548	21	-17	-17	-10640	-10168	6976	16	-1	3	1216	-5160	16472	31	-11	-8	-152	7928	13920	-1	16	-19	-11776	8752	8552	7	-3	24	184	4296	16600	4	-21	11	125	139	12
-1920	-10108	12672	22	-14	-20	-10440	-10080	6960	-4	-6	-7	1264	-4960	16080	20	1	5	-128	7856	14088	-1	9	-24	-11544	8880	8648	-1	-3	12	240	4152	16464	9	-14	17	125	138	12
-2320	-10756	12584	6	-17	-18	-10360	-10224	6872	5	-2	3	1296	-4968	16256	28	0	3	-96	8376	14016	-16	20	-26	-11648	9040	8456	9	-8	21	88	4224	16600	4	-12	18	125	137	12
