#Activity	running 
#ActivityID	2 
#Date 08-27-18-18
acc_rf_x	acc_rf_y	acc_rf_z	gyro_rf_x	gyro_rf_y	gyro_rf_z	acc_rs_x	acc_rs_y	acc_rs_z	gyro_rs_x	gyro_rs_y	gyro_rs_z	acc_rt_x	acc_rt_y	acc_rt_z	gyro_rt_x	gyro_rt_y	gyro_rt_z	acc_lf_x	acc_lf_y	acc_lf_z	gyro_lf_x	gyro_lf_y	gyro_lf_z	acc_ls_x	acc_ls_y	acc_ls_z	gyro_ls_x	gyro_ls_y	gyro_ls_z	acc_lt_x	acc_lt_y	acc_lt_z	gyro_lt_x	gyro_lt_y	gyro_lt_z	EMG_r	EMG_l	act
-26776	-16108	12224	-3948	-32768	-32768	-12352	6616	-17476	-730	-32768	-16054	4472	8960	-16552	-3149	498	-225	-14216	9560	15200	-177	7889	-4159	-29936	8832	488	1991	-29	197	-22440	8768	9064	2716	4240	526	127	125	2
-32768	-8396	6820	-5370	-32768	-32768	-18360	2136	-19060	-3480	-32768	-15617	11232	4160	-13704	-2412	1107	745	-24128	14616	12616	-847	7861	-3927	-23824	16328	2960	1754	-144	-747	-21968	20704	11496	3386	4715	1446	125	121	2
-32768	-15556	-6704	4110	-32768	-32768	-11880	-4984	-32768	14476	-32768	-11825	20640	-7800	-18552	1849	1787	858	-26032	2608	14040	-1535	7454	-3917	-14600	13336	17256	-59	-115	-1353	-13760	30312	23720	48	3766	1002	126	113	2
-32768	12828	-21328	4030	-32768	-32768	-9860	4100	-32768	3446	-32768	-7229	11312	-12032	-2664	5938	-1321	702	-32768	14208	7744	-2065	6555	-2705	-12208	6808	16088	-1826	1423	-1924	-720	6624	32767	-6928	692	630	126	131	2
-32768	6788	-32768	-6208	-26327	-24250	-8172	-4984	-32768	2852	-22655	-7478	-11912	-15552	30624	1130	-4449	-246	-4016	16840	14784	-2311	4133	-1544	-8696	2416	8984	-2102	4662	-1696	-12552	-18840	24048	-8279	-249	283	127	122	2
-32768	17552	-32768	-818	-2172	-15756	11668	6992	-32768	11461	-2698	-1469	-17096	-4920	14520	-2877	-2815	-1370	-27088	12712	27936	1017	2599	-148	-32768	-1288	8600	-759	4798	-589	-16136	-32768	16584	-2721	-1008	-427	127	139	2
-32768	16616	-32768	-8037	17527	-13679	8940	6748	-32768	9029	11693	1281	-9088	19176	-23456	790	3284	-298	-26880	18616	30432	3096	764	-517	-32768	-4192	8072	1550	4241	459	-15064	-32768	4112	2879	-2873	-1839	127	133	2
-32768	14164	-32768	2920	32767	28760	5352	-6248	-32768	19525	23790	-5843	6584	30016	5744	461	3506	-27	-32176	25408	30312	3861	-1125	-443	-30688	1272	1408	3056	3900	683	-22504	-15184	-368	4978	-4369	-1639	126	142	2
32767	31164	32767	32767	-2961	17157	-32768	-26408	26480	32767	32767	-5707	-7544	-32768	-21856	-3277	-1296	-779	-25784	31832	29488	2765	-2541	-393	-32768	6072	-9248	4378	2551	1146	-32768	21896	-10232	6443	-4617	-811	127	123	2
-32768	-32768	-2040	-6319	14944	-8950	4380	32767	-6968	-29367	32767	13255	-25928	12168	-31864	2959	622	-435	-18712	24056	22904	497	-3559	-413	-28144	2184	-11912	3184	1401	931	-32768	32767	-18344	2715	-5733	-38	127	121	2
-8588	-4216	14896	-4611	9103	-6547	14648	-32768	-25932	-19096	32767	-8239	-16344	26288	-13240	-3046	2308	-436	-8696	14840	19264	662	-4423	715	-16552	1344	-14144	1784	675	1045	-32768	15984	-3376	-2054	-6710	-821	126	125	2
-11824	-3460	13336	-3741	8784	1968	-25136	-4032	-25668	25744	14657	2097	-18704	2880	-27688	-717	3018	3812	-3488	17488	15400	988	-5114	1947	-12200	-7608	-16832	1611	-3185	696	-32768	9128	800	-1502	-7373	252	127	119	2
-11040	-11948	9020	-2077	8737	3061	-15792	-1348	-23564	5251	22435	7391	-24344	-24952	-23368	-659	3630	2071	-5800	11464	11328	1461	-5721	3680	-7032	1056	-13432	188	-4865	2923	-32768	-3296	-17248	-1670	-4557	38	125	123	2
-12228	-6748	12312	-2094	8603	3143	-32768	3796	-19316	6481	12460	3910	-32768	9976	-14568	3702	3057	1187	-14712	12328	10704	1959	-5631	5331	-6856	88	-13608	-2039	-5989	2980	-30240	-1816	-18760	406	-4188	-82	125	127	2
-10496	-11180	23356	-1987	22103	10704	-32768	6304	-21628	-5386	6204	-10063	-32768	22744	5520	3164	3316	2696	-20624	12592	11112	1575	-5744	6585	-7192	-2888	-12168	-3275	-7027	3076	-4680	-2424	-18976	1922	-2351	380	125	125	2
-7100	-15268	25340	-5296	32767	21082	-32768	1864	-9316	1674	2745	-9433	-32768	14232	15992	777	4663	2382	-20544	3632	13936	1068	-5513	7453	-8584	-5080	-17936	-3831	-7863	2707	2296	-3448	-22256	3333	-319	360	127	124	2
-236	-20528	21628	-11459	32767	32767	-32768	9280	7292	-17494	-2394	-8041	-32768	6320	14968	-860	5605	2605	-32768	-3624	13928	1955	-5461	7599	-5632	-9464	-25944	-3439	-8231	2017	13816	3976	-21560	4385	1095	176	126	126	2
-2268	-18900	21272	-13526	32767	32767	-32768	1008	16616	-27786	-1031	-2503	-28128	-9672	14456	-82	5766	1101	-32768	-6840	7352	1114	-6369	6142	312	-11784	-32768	-1332	-7721	1409	21920	18776	-21528	1864	1798	-428	124	131	2
-32768	-2580	12880	-12971	32767	29312	-17720	-8324	23300	-16441	4099	-185	-19864	-26304	31072	123	5324	702	-32768	-21480	-8288	739	-6680	3092	-2824	-11344	-32768	1953	-6445	1946	19984	14984	-10664	-2157	374	-885	127	131	2
-32768	-2936	5740	-2259	32767	17632	2092	-6836	17664	14029	26277	9723	-16104	-32768	32767	4147	565	940	-32768	-28760	-32768	892	-5242	345	-13992	2120	-32768	2527	-3383	2460	2296	6072	20800	-2793	-1888	-254	125	132	2
12296	-20908	-7120	31706	32767	5741	-2136	-3868	11948	24500	32767	11944	-17248	-5976	32767	5263	-3268	-2	-32768	-32232	-32768	263	-1089	-684	8376	-9120	-32768	-315	294	142	-13752	-1016	32472	-2238	-3026	402	126	133	2
-32768	-6796	27636	25944	32767	-6115	-32768	4296	5164	32767	32767	8589	144	20344	17072	1867	-2665	-1127	-32768	-29952	-28632	-262	2307	-689	12296	-14384	-32768	-604	3598	-1240	-27256	-15688	5872	338	959	-330	125	139	2
-32768	11932	32767	-14647	32767	485	-32768	6240	5860	32767	32767	8506	-8072	31240	2136	-701	-2622	227	-6560	-15640	-7776	-929	4247	-1177	8248	-10336	-23320	-925	4257	-1034	688	-6528	-32768	5157	5523	433	125	143	2
-32768	-14500	32767	-32768	5296	14804	-22720	13040	6848	-32768	32767	397	-4720	27648	10216	-896	-3435	844	-32768	9552	32767	-5531	-1790	-3943	-18232	32767	-4992	3479	6210	685	-3256	-504	32767	-921	1304	1133	127	152	2
-32768	-30268	31400	-32768	-14183	32629	-32768	-1656	1848	-32768	32767	-4499	-26368	7616	3608	-3216	-2881	-639	-14032	18624	13328	374	938	-984	-32768	32767	28744	757	6262	752	-5320	8736	32767	-1633	-595	871	127	153	2
-25244	-32768	24164	-29050	-24362	32767	-32768	-7484	-4808	-32768	30428	3603	-32768	-15072	-17992	-4307	-2875	-968	-8072	13176	10216	662	1894	246	9864	3880	-12328	4500	7106	-2668	-21232	-22792	-30512	895	2500	2098	125	224	2
-15148	-32768	16260	-2052	-32768	27419	-25948	-3628	-9072	-28006	18875	3382	-32768	-14880	-7928	660	-5879	-1225	-11224	20120	5840	304	1749	100	9392	32767	-26248	177	4188	1609	-19392	-7176	-23656	3163	3207	-87	126	159	2
-388	-26280	12956	18520	-30781	13450	-21436	-7364	-14744	-19869	2114	2153	-32768	-9464	1120	1341	-6817	-1477	-12896	4120	11784	-150	854	-1478	-1896	-792	-32768	-2620	2550	583	-32768	24472	-23952	3499	2353	-3001	127	138	2
3568	-18216	12344	11034	-32768	-7968	-13624	-7208	-17156	-4194	-19631	5841	-32768	6168	-3200	1397	-5972	-2205	-14784	6624	13512	212	1201	-828	-32768	-9328	-32768	142	2985	-245	-32640	27848	-13608	-813	4656	-1159	126	109	2
-3828	-20688	9432	557	-32768	-28987	-6116	-5796	-14868	10139	-32768	531	-32768	14400	-16280	2531	-4586	-2127	-13104	13288	21376	233	2600	-930	-29136	3088	-24752	3000	956	980	-32768	-4920	-5000	-2369	5918	-1719	126	143	2
-14796	-16352	6664	-4236	-32768	-32768	-6392	-2064	-14312	14585	-32768	-7565	-17832	13544	-11840	492	-4127	-1848	-7920	15352	25680	126	4639	-2078	-32768	10224	-19192	1738	176	425	-32768	616	6936	359	5638	-622	125	107	2
-18792	-14704	5712	-5938	-32768	-32768	-6220	4648	-11500	10494	-32768	-12087	-1232	11616	-10320	-1381	-2029	-756	-3760	15160	22712	425	6866	-3817	-32768	7128	-6744	1361	-401	521	-32768	12640	18424	510	4972	-1587	125	130	2
-21056	-15872	8212	-3574	-32768	-32768	-7584	3740	-12532	2062	-32768	-16926	5712	8360	-13624	-2840	-551	101	-7864	12472	16024	819	9627	-5792	-32768	9200	18568	2267	-841	154	-32024	12904	11920	463	6176	-80	126	130	2
-21768	-10740	8612	-1785	-32768	-32768	-7184	-2216	-18596	6042	-32768	-14852	7128	2856	-19352	-3659	477	576	-32768	11856	11304	777	10159	-4649	-29400	13656	5880	2096	-1039	-685	-24592	9152	22112	345	5542	870	127	120	2
-32768	-3620	1036	-7348	-32768	-32768	-5980	-4268	-24848	11389	-32768	-9659	8712	2552	-24552	-3599	1450	744	-32768	-3272	7928	183	8458	-3645	-16856	19920	22880	1502	-487	-1510	-21688	28592	32767	-2518	3802	492	127	138	2
-32768	-4648	-17048	3666	-32768	-32768	-1528	2076	-32768	13469	-32768	-7120	13728	-13872	-26576	1665	1521	-102	-27928	32767	-18872	-4363	7541	-2355	-2360	21864	10152	-3022	3176	-2417	-17536	14600	32767	-7277	177	297	127	122	2
-32768	6732	-31420	-2905	-32768	-32768	9196	6408	-32768	-8832	-32768	-9178	7288	-9536	-10344	5416	-2003	318	-32768	1672	14536	-5629	5836	-192	-10592	7832	5120	-6146	6442	-2053	-14256	-26456	26696	-8771	255	1721	127	138	2
-32768	15192	-32768	-2447	-19493	-19358	5736	2352	-32768	-7465	-17279	-9364	-2208	-2928	20376	656	-2704	-253	-32768	-6248	32728	922	6288	-517	-32768	-14296	8800	-5167	6699	-369	-14752	-32768	5328	-2651	-1102	-154	127	129	2
-32768	24764	-32768	-4538	120	-5505	13832	8400	-32768	1770	916	-1104	-7016	11344	1752	-1934	1416	958	-32768	18840	32767	5461	3329	-1675	-32768	-15824	4264	2922	6068	835	-9152	-32768	-1424	3035	-3905	-2528	125	142	2
-32768	25696	-22324	3069	16824	2309	14872	14240	-29796	11441	9380	3907	-6072	29680	-32768	-398	5084	-146	-32768	31592	32767	5494	301	-3033	-32768	392	2528	5836	5266	1465	-22480	-18928	-8	4719	-4794	-1862	127	139	2
-32768	-32768	-1884	32767	22134	32767	-28956	-32768	-32768	-31953	32767	-32768	-18608	4448	32767	-1267	-4993	1168	-32768	32767	32736	3878	-2147	-2815	-32768	1000	-12472	5533	4058	1615	-32768	10120	-6584	5551	-5315	-1034	126	116	2
5892	32767	9512	23621	18852	10270	-32768	32767	-32768	32767	32767	32767	-32768	7240	-32768	-3544	3682	1632	-17664	31448	28512	1731	-3555	-1484	-32768	-2456	-14648	4998	2453	837	-32768	32376	-16120	4506	-6124	-995	127	126	2
-7348	-22772	6052	-6424	14069	-9749	24696	-27976	-31240	-32768	32767	-14762	-15432	13744	-15968	-4144	2254	-2333	1912	19520	22344	337	-4304	68	-22112	2496	-20160	4100	-104	668	-32768	20728	-9160	-115	-7641	-19	125	119	2
-10624	-9128	16376	-4672	10373	744	-32768	-21676	-26400	15879	19340	9658	-27656	2296	-24736	615	3684	3717	1112	16000	20576	1319	-5413	2147	1576	2024	-16616	2304	-3414	2199	-32768	14312	-4448	-1596	-8536	364	123	106	2
-11796	-4952	20088	-2238	14744	8181	-22492	14268	-32768	13298	19957	7988	-30736	-24280	-23528	1215	5245	3784	-7800	15336	12832	2259	-7138	5032	3208	1600	-11120	-474	-5230	2454	-32768	216	-20440	-1489	-5141	-749	125	114	2
-10364	-20308	23312	1360	29451	13298	-32768	4712	-18384	5918	16465	-2947	-32768	11128	-6640	5383	3512	3086	-15920	12032	9864	1838	-6775	6789	-328	2568	-8392	-3280	-7222	4673	-22168	-480	-23192	20	-4820	185	124	111	2
-5464	-15676	32192	-5051	32767	25965	-32768	544	-5476	-3020	4551	-7403	-32768	30400	13240	3820	4197	3901	-26208	11016	11696	1282	-6397	7872	-10680	-3496	-9104	-4894	-8035	3882	576	-1296	-25288	812	-2957	269	126	121	2
-68	-11980	26604	-10926	32767	32767	-32768	7224	13564	-12045	-5065	-407	-32768	5848	18984	1552	5458	2497	-27224	8552	13312	557	-6528	8589	-8336	-3392	-14104	-4775	-8443	2476	9632	-5072	-28520	1925	-1176	-149	125	118	2
-22660	-9360	25048	-13186	32767	32767	-32768	-660	16052	-26222	-4484	-1277	-25400	-4888	15856	1494	6911	2557	-31568	-5456	17728	847	-6524	8902	-4328	-7056	-23176	-4946	-9367	1289	23008	928	-30616	4716	845	-511	127	134	2
-32768	-16340	2496	-15424	32767	32767	-20460	-7672	16324	-13819	3645	5275	-21400	-15536	29664	2693	5201	1071	-32768	-1328	10456	2209	-7452	7891	160	-15688	-32768	-2103	-9253	994	32767	14624	-32768	2908	1376	-639	125	138	2
-25200	-32768	-32768	32767	32767	17739	-18776	-12240	21952	-11989	6765	5980	-27632	-32768	32767	3088	1009	-484	-32768	-16456	-3048	357	-8482	5259	24	-17848	-32768	3739	-8336	2202	21008	11744	-22240	-2899	-857	-1539	125	110	2
-32768	3692	-568	32767	32767	-14078	-5684	-17492	-3840	32767	32767	9637	-21176	-504	32767	4989	-3331	-495	-32768	-24904	-28272	1360	-7883	1785	-19600	13632	-32768	5877	-5696	3528	-1448	472	14424	-2472	-1685	-376	125	123	2
-32768	13844	31664	12171	32767	-11606	-32768	10008	1420	32767	32767	15971	10056	32767	13464	2174	-1998	-892	-32768	-32768	-32768	1453	-4328	-451	7448	-14176	-32768	-950	-2388	1698	-17736	-1080	32767	-1893	-3627	32	126	128	2
-32768	8000	32767	-32768	32767	-2059	-32768	32767	-2032	21773	32767	-17093	-6016	32160	944	438	-2660	136	-32768	-32768	-31112	590	530	-109	13440	-32768	-32768	-549	1783	-933	-26848	-17912	14920	-831	2411	16	126	147	2
-32768	-8236	32767	-32768	13459	10111	-25868	32767	-2680	-32768	32767	-15992	-7240	29112	17208	-1439	-3726	532	-32768	-32768	-32768	-2260	6829	-5001	13424	-7504	-32768	-1190	4289	-1847	-13512	-14768	9344	-454	4327	-84	127	195	2
-32768	-25312	28364	-32768	-4325	28660	-32768	3280	-500	-32768	32767	-7987	-21208	13624	-2632	-4262	-3748	-729	32767	-32768	32767	-6741	2365	-700	-32768	32767	-17168	-17148	8431	1647	-11872	23760	-20920	7358	-1237	-791	125	243	2
-32448	-32768	25172	-32768	-19762	32767	-32768	-11792	-7672	-32768	32767	-2839	-32768	-4688	-16568	-5717	-3337	43	-21984	-32768	24336	-148	1203	-673	-7792	-32768	-30328	9029	7876	-2549	-11272	6152	-32768	2712	2732	861	125	182	2
-17668	-32768	17952	-10225	-32531	28258	-28004	-6160	-7136	-32768	25622	1794	-32768	-21672	-12832	-1774	-5076	-2012	-11112	7808	15440	59	1556	-136	32767	32767	-32768	1929	4956	1235	-26696	5792	-28880	3187	4564	528	126	183	2
5060	-27908	16424	11238	-32768	16941	-13488	-10888	-13240	-20672	2158	5269	-32768	-15992	-4328	1685	-6450	-2094	-10904	21408	8128	-175	1577	-1418	-27800	23296	-19952	-20	2777	-283	-32768	32767	-30968	-111	3275	-1486	120	127	2
8336	-21888	18656	5787	-32768	-6630	-3920	-6532	-20032	20377	-28191	10008	-32768	8752	-8992	2964	-6626	-2967	-13664	10064	19240	-120	2048	-858	-31872	-14680	-27368	-2026	3438	-1556	-32768	2392	-7112	-5106	4102	-3612	121	136	2
-7024	-23524	8108	121	-32768	-32768	-372	-648	-16072	25732	-32768	-8728	-32768	10560	-22056	2704	-5271	-1560	-13472	10504	29120	-395	4098	-1621	-32768	-4928	-26640	995	1146	901	-32768	-22008	7984	-1348	7125	-2274	122	117	2
-15636	-15964	6380	3774	-32768	-32768	-2704	1252	-10820	28378	-32768	-6977	-18200	8976	-19576	651	-4556	-1746	-10792	9728	28272	-417	4478	-1808	-32768	6904	-12912	1829	700	-41	-32768	6704	12168	-460	5918	-94	124	129	2
-23472	-14596	7016	3684	-32768	-32768	-10396	3868	-9936	20308	-32768	-7967	-136	12616	-19136	-963	-2174	-1351	1528	20240	19736	219	8862	-5246	-32768	12792	5408	3372	-337	192	-32768	11528	18232	367	5641	-1566	123	133	2
-27556	-19648	10140	13493	-32768	-32768	-10740	-904	-13220	15478	-32768	-6527	9000	13424	-21760	-2296	-364	-514	-31976	6016	23840	-511	10421	-6024	-32768	9632	5896	1918	-1032	-571	-24984	12416	13536	1323	6479	884	126	121	2
-29208	-7252	10092	10820	-32768	-32768	-10764	-1884	-13228	16372	-32768	-5211	15472	14744	-30488	-4225	670	85	-32768	11736	16320	-1490	9617	-5000	-23296	16784	13320	655	-703	-1480	-25784	24888	24904	869	5490	1932	123	135	2
-32768	-9712	712	-446	-32768	-32768	-2024	-3080	-32768	8688	-32768	9971	17432	13216	-31640	-4298	767	274	-32768	32767	-20216	-4594	9051	-3643	-13088	25384	8072	-2686	1566	-2614	-12368	28152	32767	-5728	1879	284	124	116	2
-32768	-12764	-17924	12820	-32768	-32768	-2368	4956	-32768	-19363	-32768	-5617	32767	-10840	-32768	5522	-663	1264	-32768	4296	14536	-6691	6354	-950	6584	15952	5456	-7966	4787	-2263	-17792	-13040	32767	-10495	-117	739	126	130	2
-32768	-4476	-32768	1961	-32768	-32768	-3740	-6032	-32768	-32768	-32768	-22652	4136	-344	11408	4285	-2380	989	-32768	-6224	28136	803	4992	377	-32768	-6752	13096	-5979	7008	-996	-17848	-32768	19792	-6654	114	1060	126	130	2
-32768	13680	-32768	-7074	-24994	-19958	840	-4324	-32768	3507	-22270	-6261	-13120	-768	32767	-154	-2377	342	-32768	17312	32767	5671	3874	-827	-32768	-29768	4096	2068	5942	2071	-7856	-32768	3808	2079	-2207	-2083	127	132	2
-32768	23296	-32768	-15987	-2795	-9474	14884	10684	-32768	3579	2993	1858	-25560	24544	10416	-863	2622	-502	-32768	30432	32767	5647	1849	-2050	-32768	1296	7112	6298	5696	1671	-14656	-26392	-1472	6065	-4200	-1814	126	136	2
-32768	32767	-32768	-9585	24606	32767	10264	-2100	-32768	884	27396	-10328	-12408	30664	19672	-2449	4077	-622	-32768	28528	32767	4512	-1048	-2247	-32768	-56	-3240	6964	4289	1998	-27776	880	-4696	6920	-5311	-1297	126	124	2
32767	32767	30480	31373	2755	4382	-32768	8984	11720	32767	32767	-7216	-32768	-1424	-32768	-7788	2432	-1391	-26736	32767	32752	3005	-2604	-1850	-32768	6880	-11288	5996	2953	1174	-32768	32767	-15320	5744	-5428	-1533	124	114	2
-32768	-32768	5796	-1054	15182	-4164	17156	-2528	-29360	3738	32767	-2095	-1232	6064	-32768	-38	3480	342	-10576	28968	23920	26	-3726	-1061	-27168	296	-14432	4109	2081	895	-32768	27816	-16248	-143	-6991	1209	127	120	2
-7276	-11204	14380	-4543	12835	-2196	17096	-23152	-14652	4619	32767	-1878	-17216	5912	-31672	-5914	3414	1157	6888	15504	21000	301	-4472	625	-5672	120	-19064	2111	-1769	733	-32768	20048	3104	-2093	-8265	-197	125	118	2
-13640	-11844	9884	-4941	13941	3413	-32768	-9220	-29748	6691	20889	5546	-20872	992	-30512	-4119	3112	2338	-2432	19040	15136	1551	-6043	2940	3776	-776	-15064	-466	-4279	1396	-32768	848	-16168	-1976	-8313	237	123	120	2
-12936	-9836	20824	-3191	19871	8672	-32768	3280	-32768	8008	20423	-4050	-32768	6648	-11528	4533	3494	2645	-11624	13648	7312	2103	-6740	6123	4512	80	-11240	-2498	-5949	3776	-32768	664	-22096	-438	-4337	112	127	115	2
-9212	-13044	31080	-2159	32767	19835	-32768	5312	-20484	-4765	11454	-14254	-32768	14456	-9880	4789	3837	2529	-22896	10800	8536	1526	-6147	7981	-3560	-1144	-10712	-4909	-7533	4053	-32768	424	-22600	-134	-4437	414	125	120	2
-1080	-23260	27468	-11764	32767	32767	-32768	3616	3424	-16006	4131	-1488	-32768	328	13816	877	5308	3236	-27984	11520	8992	1000	-6143	8697	-10000	-3384	-10792	-5392	-7809	2787	3080	-1448	-25224	976	-2396	241	126	123	2
-2876	-12228	28976	-13930	32767	32767	-32768	2440	20128	-26035	37	3009	-30432	-14144	14240	1218	7350	2472	-27392	5512	14008	68	-5850	8971	-9776	-2768	-15520	-5304	-8582	1732	12240	-3536	-25344	2644	-367	-79	125	113	2
-32768	-10328	23552	-11011	32767	32767	-27540	-4988	22276	-18724	-2216	5212	-25032	-11032	16496	2374	6782	1079	-32768	-1184	19520	552	-6054	9458	-3504	-9464	-26176	-4761	-9476	1010	20600	3960	-30400	4806	1529	22	124	141	2
-32768	-7904	-17272	6317	32767	31611	-15148	-20188	21288	14679	15256	9880	-22560	-29496	32767	3763	2186	-229	-32768	-3584	10752	839	-7664	7887	-3032	-15088	-32768	-800	-9352	535	29744	16632	-32768	127	1327	-466	55	137	2
-32768	-3192	-32768	32767	32767	29242	2704	-22192	6416	32767	32767	8862	-22152	-9904	32767	6106	-2195	1235	-32768	-21272	-6568	-153	-9065	4484	600	-14248	-32768	3187	-8406	1901	14096	9440	-22432	-4920	-559	-1256	82	118	2
-32768	6348	17520	32767	32767	-4541	-21976	6172	-7360	32767	32767	11734	-2912	22544	32767	2611	-2229	-1734	-32768	-28016	-32768	971	-7923	1342	-24512	15008	-32768	4173	-5033	3158	-10360	-4600	27040	-3546	-1842	-170	108	146	2
-32768	21120	32767	-27101	32767	-12182	-32768	32767	1884	32767	32767	-2591	-10904	32352	4984	187	-2066	-164	-32768	-32768	-32768	1076	-2905	383	-21320	12416	-32768	3099	-4364	2998	-10688	-15376	32767	-3708	-2065	556	129	136	2
-32768	-10356	32476	-32768	12574	388	-32768	32767	344	27660	32767	-9625	-8	32704	12200	-1217	-2550	456	-32768	-32768	-31624	150	1785	457	18968	-25184	-32768	-474	2627	-1648	-16872	-20448	12192	-932	4389	-88	134	130	2
-32768	-24692	26420	-32768	-5274	17404	-32768	1940	2240	-32768	32767	-12041	-8792	23536	5736	-3258	-2122	570	-32768	-28320	-32768	-465	6952	-5839	12112	12400	-32768	-949	6058	-1666	3888	-22376	-3408	6229	3659	947	135	86	2
-32212	-30964	21144	-32768	-18178	27640	-32768	-4076	-1108	-32768	32767	-8105	-27464	6200	-5824	-5198	-3649	898	32767	-32768	32767	-6991	3563	-2152	-32768	-24592	-32768	-22769	2928	5521	-32768	4720	-32768	9411	-1440	-3668	137	144	2
-25420	-32768	21212	-29555	-25537	29155	-32768	-7408	-10404	-32768	30926	-3116	-32768	-20792	-24784	-5453	-2956	-1113	-8072	-32768	22544	-156	1054	-235	12832	-26488	-15704	9974	8966	-3050	-32768	25344	-32768	4952	3388	3126	138	61	2
-11496	-32768	15972	-2613	-32768	20912	-27492	-9080	-10836	-32768	17119	-691	-32768	-21128	-12688	460	-5800	-1914	-3376	-3296	31088	124	2211	12	-2496	31880	-32768	350	3374	999	-15496	22352	-32368	-800	5238	2502	137	134	2
9884	-26916	17324	12440	-32768	11000	-13908	-20924	-15640	-3973	-12924	5644	-32768	-18672	-11296	1134	-5899	-1847	-11368	6592	15728	142	2060	-1310	-32768	18344	-32768	-638	2992	-337	-28256	29024	-30384	-2263	4136	-3782	122	138	2
-6612	-22340	13848	-1362	-32768	-21090	-6056	968	-20980	25790	-32768	-850	-32768	10736	-21248	3694	-5888	-2080	-8904	23224	24456	-46	3443	-691	-32768	-25184	-26440	-2956	4887	-3348	-32768	-31952	-8408	-6147	5839	-3379	133	146	2
-11152	-21980	4268	1112	-32768	-32768	80	148	-13200	21116	-32768	-13094	-31568	10120	-23064	1962	-5130	-1391	-4672	16344	29328	-253	6230	-2350	-32768	3744	-5504	3359	517	2108	-32768	-19208	19688	-1136	7009	-753	134	119	2
-20136	-12424	4320	2930	-32768	-32768	-7764	-316	-11412	25903	-32768	-10735	-6640	10896	-18520	-580	-3369	-1767	-480	13016	23120	988	8759	-4307	-32768	5608	4240	3563	321	774	-32768	11152	13144	1148	5866	-340	132	127	2
-31596	-20604	5468	9801	-32768	-32768	-8852	-688	-13840	21121	-32768	-12293	5960	12992	-19616	-2035	-1016	-1230	-22312	15272	20616	1184	10740	-4981	-32768	15680	7688	3771	-685	-271	-25264	14104	15208	2405	6268	-791	131	124	2
-27196	-10072	8364	16219	-32768	-32768	-6156	-4192	-18300	25513	-32768	-3894	10360	14376	-27728	-3520	619	-924	-32768	17704	16040	306	10057	-4736	-24488	16088	10416	1759	-1056	-928	-24256	22320	20600	1758	6491	2466	131	131	2
-32768	-4556	4492	5753	-32768	-32768	-1468	-3560	-25480	26966	-32768	2973	21776	5552	-32768	-4638	1432	-457	-32768	32767	-13048	-1596	8643	-3602	-23368	29088	12016	-1554	483	-2211	-15888	27664	32767	-3385	3138	1478	128	116	2
-32768	-7072	-11188	-924	-32768	-32768	-8	5004	-32768	2127	-32768	7011	32767	-4144	-32768	2852	417	28	-32768	11584	-9464	-7479	7446	-3523	2848	11072	3280	-6024	3456	-2448	-14264	32	32767	-9548	21	-137	131	120	2
-32768	-7496	-24540	13317	-32768	-32768	448	6156	-32768	-29579	-32768	-9505	13296	-1120	-10096	4955	-2508	1012	-32768	-8216	24888	-1479	4770	209	-15680	-4792	3224	-7264	6781	-1707	-21056	-32768	31456	-6274	745	469	129	143	2
-32768	5800	-32768	-5424	-32768	-31000	-15124	-11804	-32768	-32768	-32768	-24906	-5056	-464	29728	3312	-2679	1094	0	0	0	0	0	0	-32768	-32768	11752	-1246	6117	1381	-8968	-32768	3880	-1312	-1080	-830	129	117	2
-32768	18860	-32768	-10056	-23833	-17079	2428	4304	-32768	6521	-14459	-5398	-24832	680	28008	-1175	-2013	440	0	0	0	0	0	0	-32744	-5992	9856	6625	5276	1860	-7656	-32768	6928	3859	-3081	-2327	131	148	2
-32768	27512	-32768	-11511	-768	-8338	13424	14464	-32768	4616	6667	3259	-18536	25096	14120	80	3088	-556	0	0	0	0	0	0	-32768	1040	4696	7256	4778	1374	-20400	-16912	-1216	6334	-3974	-1465	130	139	2
-32768	16960	-21776	206	13922	2690	3592	12192	-32464	6865	18112	2956	-3560	22976	-32768	-3291	6445	-1035	0	0	0	0	0	0	-32768	3096	2072	7887	3771	1320	-26088	3520	-4256	5760	-4881	-1486	128	128	2
-32768	-32768	32767	32767	32767	32767	-32768	-32768	-32768	-25381	32767	-32768	-14608	4184	32767	-2806	-6993	41	0	0	0	0	0	0	-32768	10240	-10360	5614	3354	948	-32768	26496	-2224	4633	-5659	-1836	128	121	2
-32768	32767	32767	5756	11003	31959	-32768	32767	-32768	32767	32767	32767	-32768	9368	-32768	-6549	5931	-725	0	0	0	0	0	0	-32768	4920	-16960	2843	2237	370	-32768	32767	-17112	2701	-5537	-147	128	124	2
-7132	-6612	7496	-1604	15568	-5710	32767	-22544	-22572	-9987	32767	-7243	-19160	17168	-28600	-1547	-682	3	0	0	0	0	0	0	-29840	10360	-22272	2915	-856	770	-32768	23256	-9656	-1776	-7701	110	127	119	2
-13304	-3724	13620	-5293	13259	-104	-10028	-772	-32768	-518	28981	-11820	-23608	18040	-24712	601	4331	2588	0	0	0	0	0	0	2608	2680	-16336	-34	-4095	1594	-32768	13776	-4248	-3777	-8787	-89	117	107	2
-10688	-12892	14072	-6996	15390	3375	-32768	-16464	-18420	-3755	26788	6097	-28056	-6920	-27152	3613	4830	4904	0	0	0	0	0	0	968	-2504	-16872	-2086	-5927	1859	-32768	-2224	-20064	-2086	-5707	-67	125	129	2
-8020	-21280	24064	1553	29145	10056	-32768	-72	-22868	21993	17342	2706	-32768	-2104	-12344	3618	4024	3042	0	0	0	0	0	0	-2176	1600	-13200	-3507	-7650	4065	-29104	-4376	-24408	-395	-4379	287	129	112	2
-6660	-16624	32767	-957	32767	24912	-32768	12812	-8620	3626	5624	-13522	-32768	32767	13960	2875	4016	3413	0	0	0	0	0	0	-10128	56	-11024	-5581	-8510	3098	-2064	-248	-27136	813	-3655	447	128	110	2
2328	-20304	24972	-13235	32767	32767	-32768	10632	7320	-25520	6705	-3974	-32768	2408	14224	-427	5290	2578	0	0	0	0	0	0	-9728	-2744	-19808	-6128	-8655	1652	6432	-1744	-28152	1241	-1354	477	126	128	2
-5840	-8480	27440	-17111	32767	32767	-32768	-4640	16696	-32768	1454	-1351	-29360	-16176	15896	-819	7529	2898	0	0	0	0	0	0	-6096	-4024	-23152	-5846	-9742	550	18016	-3680	-27688	3917	1048	441	126	124	2
-32768	-13344	15460	-23137	32767	32767	-31392	-9356	18108	-25953	-2677	698	-26752	-8600	16704	1279	6627	1400	0	0	0	0	0	0	-2888	-10616	-30864	-3877	-10082	213	32024	10664	-32768	3462	2987	517	130	146	2
-32768	-7200	-14672	-10928	32767	28255	-17920	-13160	19416	-1554	11951	7450	-25576	-28312	32767	1517	4641	-93	0	0	0	0	0	0	-4792	-13168	-32768	1042	-9398	630	32767	13408	-32768	-2184	408	-1181	130	127	2
-17300	-32768	-32768	32767	32767	25214	4764	-29748	8372	32767	32767	2133	-18016	-32768	32767	2947	-245	202	0	0	0	0	0	0	-11832	-7608	-32768	4638	-8095	2524	13208	2288	-5072	-4356	-793	-1995	129	122	2
-32768	3572	6936	32767	32767	-1673	-9112	-8784	-4092	32767	32767	10891	-19584	-3464	32767	4486	-3309	-1136	0	0	0	0	0	0	-19160	12528	-32768	4272	-4619	3373	-11344	-4296	32767	-3233	-2857	-1088	129	130	2
-32768	20356	32767	-3533	32767	-11370	-32768	19832	1652	32767	32767	13992	5208	25888	16208	2164	-1399	-1272	0	0	0	0	0	0	9992	-13400	-32768	-198	-922	936	-16272	-15152	32767	-3919	-2268	-290	129	124	2
-32768	-4416	31604	-32768	29851	-1731	-32768	32767	-2392	-15307	32767	-20714	-3800	30288	6808	818	-2918	191	0	0	0	0	0	0	15664	-29272	-32768	1230	2573	-664	-32768	-16136	11848	470	2312	1269	128	143	2
-32768	-16540	32767	-32768	9216	15879	-29340	14360	7592	-32768	32767	-8803	-3008	32767	13976	-546	-3076	778	0	0	0	0	0	0	7976	-5056	-23232	706	4732	-1442	8544	-23968	-12128	4729	5276	-865	128	138	2
-32768	-27800	27736	-32768	-3324	28196	-32768	-1832	4756	-32768	32767	-10102	-10072	24216	-1272	-3618	-2169	531	0	0	0	0	0	0	4200	19576	-32768	-2101	6403	-1540	13456	-776	-32768	6962	3688	2447	127	112	2
-29608	-32768	23332	-32768	-14453	32136	-32768	-3148	-296	-32768	32767	-7088	-30984	3144	-7672	-6311	-3079	13	-32768	-32768	32767	991	273	-2013	-32768	-32768	-32768	-30462	2769	165	4192	32767	-32768	4124	-3002	-1261	127	88	2
-21412	-32768	22864	-19125	-22927	26645	-32768	-9000	-12092	-32768	30806	-1510	-32768	-28040	-27776	-6304	-3007	-1820	-11312	32767	-3600	215	1861	1273	18056	5216	-32768	12056	8477	-3097	-32768	-16296	-19856	-838	3677	1955	126	108	2
-1812	-32768	18104	13262	-28008	16667	-22100	-7020	-10292	-27043	10527	-2567	-32768	-16640	-9192	930	-5579	-2523	-7728	4752	22344	555	2138	-118	4656	9304	-32768	1010	1245	1640	-30760	-5384	-28248	-1171	5149	783	127	111	2
10372	-17128	22328	7254	-32768	-4699	-4240	-15732	-18144	10186	-20050	11437	-32768	-2608	-1856	2920	-6918	-2803	-8736	25952	11568	-177	2480	-853	-32768	31752	-32768	-4502	4446	-4059	-22088	32767	-24872	1376	3807	-2557	125	128	2
-8648	-25196	13700	-2546	-32768	-32768	-2068	1564	-16120	21716	-32768	-6194	-32768	12720	-25000	3525	-5193	-1787	-8480	25288	26464	-642	4046	-1106	-32768	-24344	-13488	-1512	2246	-461	-32768	-12008	-968	-8570	4985	-2889	128	161	2
-14352	-14288	8404	1527	-32768	-32768	-20	-772	-13224	21402	-32768	-15280	-24280	13520	-23048	1428	-4791	-1408	-1640	24960	24904	-604	6869	-2985	-32768	4424	-9072	2618	1430	1078	-32768	-32768	17184	-2945	6392	525	127	143	2
-28004	-13856	8192	629	-32768	-32768	-9208	3396	-8328	25537	-32768	-11089	-1512	12248	-18560	-724	-2646	-1941	-1736	14000	21880	524	8923	-4894	-32768	3856	5616	3517	408	857	-31168	-4640	14592	1287	5430	201	127	142	2
-27560	-19968	8004	8941	-32768	-32768	-9360	2484	-10328	16308	-32768	-14060	6768	11192	-20624	-2199	-290	-1005	-22648	15600	17600	549	10171	-5251	-31632	14056	6920	3215	-119	-52	-20360	14680	13536	3954	5775	-213	127	130	2
-32768	-11984	13340	12303	-32768	-32768	-9584	-432	-20048	26009	-32768	-5023	12472	12688	-28096	-3342	877	-143	-32768	19152	16648	-492	9376	-5014	-26552	15680	8000	2118	-701	-675	-23576	19200	15048	3486	6159	2495	125	143	2
-32768	-3436	8680	5729	-32768	-32768	-7640	2784	-24748	25028	-32768	5005	22648	2232	-31632	-1737	1255	468	-32768	18672	-11112	-1638	8703	-3427	-24224	29992	14240	-956	594	-2022	-24200	32767	31808	-1271	3354	1367	128	121	2
-32768	-5620	-7408	3008	-32768	-32768	-6768	6652	-32768	-3622	-32768	4422	32767	-2296	-32768	5192	506	1534	-32768	16296	-12560	-5850	7356	-3991	6176	15592	3712	-5976	3579	-2347	-10032	8088	32767	-8192	-281	305	125	140	2
-32768	-2276	-25224	7594	-32768	-32768	-7004	4180	-32768	-32768	-32768	-9964	10784	4448	-2656	4478	-3847	1319	-32768	-2144	20312	-1750	4931	-402	-16408	-7040	6912	-6716	6960	-1496	-16120	-32768	32767	-8317	393	1142	126	134	2
-32768	12764	-32768	-6081	-32768	-20158	-16088	-13908	-32768	-26392	-27376	-20158	-9240	-1376	32767	508	-3609	533	-32768	11568	27968	4348	4449	-310	-32768	-32768	8608	1001	6364	1993	-9360	-32768	9656	-2098	-915	-501	127	139	2
-32768	22164	-32768	-15612	-11622	-11418	10468	9812	-32768	4846	-2356	166	-32768	11544	28200	-2558	-160	-472	-32768	25800	32767	6150	3044	-2071	-32768	2272	7712	7708	5705	1518	-12840	-32768	4136	5402	-4036	-2294	127	149	2
-32768	25148	-32768	-5639	10456	-1648	13872	10372	-32768	-105	17961	1826	-6632	25384	-32768	-1810	6114	-833	-32768	32767	32767	5292	523	-2788	-32768	9632	2992	6752	5167	1157	-24592	-7736	-7216	7101	-4697	-1881	127	142	2
-32768	32767	-32768	13709	32767	32767	4416	-32768	-32768	-25024	32767	-19834	-6104	27416	32767	-3080	-37	-124	-32768	32767	32767	3749	-1713	-2592	-32768	6224	-6256	5251	3578	873	-32768	28048	2464	5978	-5858	-1311	125	125	2
32767	32767	32767	18777	32767	32767	-32768	32767	-32768	32767	32767	32767	-32768	20664	-32768	-2314	5873	-878	-22328	32767	26472	1128	-2733	-1178	-32768	1096	-15800	2507	2777	237	-32768	32767	-21576	2662	-5629	385	127	121	2
-8348	-18156	2632	-3028	14817	-6067	32767	-25804	-27952	12029	32767	-3427	-9504	22520	-31472	-1588	-1190	-276	2192	24592	22880	-1264	-3602	157	-25672	1672	-18872	3397	-35	1640	-32768	22744	-2528	-3016	-8135	40	125	121	2
-13924	2776	15052	-4482	11891	2089	-17360	14208	-32768	-14053	22747	-15590	-25288	25552	-25808	173	4650	5078	-3192	15520	21376	629	-5141	2642	-23632	3944	-23728	3348	-839	1645	-32768	7024	-4200	-2542	-8768	-1048	125	92	2
-7676	-17836	16544	-4561	15282	2281	-32768	-26164	-20032	-14818	32767	4304	-32768	-24600	-21200	111	4243	5156	-13584	15664	9944	1557	-7538	5856	12664	-152	-15808	-1514	-5830	2553	-32768	-4528	-23736	-1408	-5455	44	125	128	2
-9092	-22816	24368	1337	29639	12546	-32768	2780	-16212	20673	14433	-600	-32768	-32768	-21632	-762	4483	4245	-19712	8872	5968	1181	-7096	7476	24	1544	-8648	-3847	-7354	4453	-19216	-2744	-26472	624	-4742	654	126	123	2
-3988	-20628	30076	-5436	32767	24539	-32768	11372	-4980	-3261	7050	-7137	-32768	22480	13824	2205	4211	3553	-30088	7744	5384	1026	-6795	8164	-10096	-4552	-8800	-5583	-8098	3200	-12016	-2048	-26792	875	-4641	716	124	135	2
-844	-15932	26860	-19005	32767	32767	-32768	5300	10536	-29083	-2034	-3450	-32768	-10736	16152	777	6185	3504	-30136	8520	5280	958	-6782	8210	-7120	-6408	-15640	-4525	-8491	2304	15232	-6160	-24936	2221	-703	-2	126	120	2
-26972	-14100	20832	-20710	32767	32767	-32768	-5008	19636	-30533	-4798	4912	-31304	-11024	11168	1373	7186	2583	-32768	2920	10456	-586	-6353	8765	1480	-7256	-22824	-4832	-8900	1834	25936	-4112	-26832	5178	1811	-209	125	152	2
-32768	-14148	6732	-10475	32767	32767	-20748	-15360	17748	-5658	4881	6020	-24056	-11688	28912	2943	5304	285	-32768	-8736	11392	794	-6746	8608	1192	-9400	-32768	-2934	-9588	1122	32767	9872	-32768	2792	1783	-730	127	142	2
-12608	-32768	-32768	32767	32767	30928	1048	-29340	8136	32767	32767	8725	-22992	-32768	32767	3909	52	121	-32768	-6840	-712	742	-8532	6177	912	-10568	-32768	-2346	-9529	1051	19464	12288	-32768	-4086	-134	-1704	128	118	2
-32768	-1260	-2168	32767	32767	6501	-4244	-6320	-7428	32767	32767	11812	-20968	8944	32767	4328	-2920	-558	-32768	-32768	-22576	596	-8856	2355	-25056	-2696	-32768	4035	-6804	3196	-4168	4904	10920	-3194	-745	-967	125	123	2
-32768	12512	29392	9774	32767	-8004	-32768	21228	3004	32767	32767	14000	5696	27992	11712	1029	-905	-1683	-32768	-32768	-32768	1935	-6505	-850	664	-8200	-32768	1948	-2713	1601	-22096	-1688	32767	-1538	-4309	405	125	135	2
-32768	-2756	32767	-32768	32767	1967	-32768	32767	1632	-20886	32767	-22224	-2952	28224	10088	-1269	-2568	314	-32768	0	0	0	0	0	11968	-20152	-32768	135	1034	76	-32768	-20600	24776	-1827	1445	2285	126	144	2
-32768	-17288	32767	-32768	10736	15827	-30056	15064	10252	-32768	32767	-9899	-3696	28336	12464	-1652	-2935	269	0	0	0	0	0	0	13888	-12504	-32768	663	3642	-1731	-6888	-16768	17368	2703	4027	-812	127	193	2
-32492	-28008	28644	-32768	-1641	29580	-32768	820	7900	-32768	32767	-10044	-9856	19448	3192	-2919	-2493	131	0	0	0	0	0	0	-3520	-14168	-14992	-1615	4496	-1819	20288	-3440	-32768	7330	4987	1446	127	176	2
-27628	-32768	24140	-32768	-13200	32767	-32104	-3936	5544	-32768	32767	-7117	-22216	3104	160	-4513	-3251	847	-32768	32767	-32768	-14928	-5882	-15028	-29816	32767	32767	8617	6556	3266	7824	18416	32767	1404	-5794	1875	127	140	2
-27036	-32768	25132	-24355	-23744	30293	-32768	-11448	-11540	-32768	32043	-4637	-32768	-28648	-11896	-5241	-2849	-965	-32768	32767	-32768	-52	550	-439	-32768	32767	32767	-674	8282	5076	-32768	27416	-32768	6420	4980	-812	126	94	2
-22664	-32768	24316	-19025	-25617	27605	-27352	-11832	-7672	-27363	14548	863	-32768	-27648	-23208	-929	-5429	-2255	-240	4864	28776	-69	1307	524	32767	32767	-5904	12973	6067	1040	-30928	-23504	-27552	2683	3775	2176	125	93	2
8552	-21780	21260	14395	-32636	69	-16992	-20680	-16816	2969	-14737	7343	-32768	-5336	-3176	3446	-6888	-2371	-20016	3192	6232	96	2231	-805	-10904	20624	-32768	531	2288	2007	-18008	10192	-29280	729	5258	-419	125	95	2
-1864	-22756	16024	-1087	-32768	-25421	-6668	780	-21212	27694	-32768	2992	-32768	10168	-17648	3863	-6585	-2260	-16400	-14880	27688	234	2538	-802	-32768	-30696	-32768	-8616	4023	-3874	-32768	32767	-21096	-1252	4351	-2540	124	136	2
-12304	-18560	7332	1588	-32768	-32768	-132	2312	-16236	23256	-32768	-14038	-32768	14568	-21312	2306	-5096	-1440	-10624	10496	32767	-431	4959	-1667	-32768	-15360	-16032	1734	764	1988	-32768	-22920	3392	-6089	6972	-1958	124	151	2
-26600	-12164	8260	-2693	-32768	-32768	-6232	2168	-13844	24225	-32768	-8637	-7944	12688	-20696	7	-3602	-1553	232	20896	22912	-60	7877	-3482	-32768	12416	3048	3038	383	195	-32352	-12464	15640	-1097	6428	934	125	123	2
-31016	-18932	8860	6105	-32768	-32768	-9120	4760	-11468	10426	-32768	-12820	6176	14240	-19144	-1314	-1024	-1119	-7312	17168	11232	833	10363	-5025	-32768	14856	10472	2464	-243	650	-32560	-8192	16192	-122	6171	683	124	149	2
-31248	-10436	11604	10737	-32768	-32768	-9740	-3152	-20664	17332	-32768	-7124	10560	13680	-26816	-2424	1276	-641	-32768	17072	17776	260	10596	-4343	-31664	12560	11760	1564	-416	-821	-23472	19152	22928	1583	6256	1742	125	119	2
-32768	-4832	4084	-1347	-32768	-32768	-3956	3200	-28892	20231	-32768	2743	19464	9264	-32768	-5297	2039	-668	-32464	10064	-4432	-1131	9553	-3673	-29768	19152	25200	1169	343	-1164	-24984	26400	32767	-1774	3058	2174	126	148	2
-32768	-11960	-12104	3101	-32768	-32768	-3632	2048	-32768	2646	-32768	1460	32767	-5152	-32768	1405	819	-2	-32768	4496	-29496	-4489	8812	-3425	-27496	18776	21456	407	738	-1251	-12648	-576	32767	-5694	571	758	125	115	2
-32768	-7948	-29504	14962	-32768	-32768	-5124	4932	-32768	-15089	-32768	-11591	12464	-2208	-8328	5419	-2687	1293	-32768	-2256	24792	-1639	5785	-964	-10952	3936	4936	-5201	6919	-1898	-16624	-32768	32767	-5204	-110	951	126	138	2
-32768	10180	-32768	990	-32768	-32768	-14972	-15216	-32768	-10987	-31231	-16161	-8464	-6896	32767	2853	-3073	737	-32768	10264	29672	4237	4459	-1020	-32768	-28824	11144	-629	6687	1107	-10096	-32768	2632	498	-1868	-1103	127	128	2
-32768	21476	-32768	-8011	-9133	-16235	7692	9200	-32768	15445	-7977	1886	-32768	-2336	26408	-1339	-1663	-126	-32768	30512	32767	5849	2775	-2504	-32768	1400	8072	7082	5605	1114	-9136	-27472	1600	4030	-4081	-2238	127	139	2
-32768	21380	-32100	-10923	4273	504	11020	11580	-32768	-3517	15495	317	-10136	31136	-18392	1278	4701	-410	-32768	32767	32767	4836	879	-2991	-32768	7744	8304	6733	4765	881	-22040	-7320	-1136	4593	-4162	-1368	125	144	2
-7048	2648	-336	17135	25276	4702	7684	11916	-18160	3845	19926	-468	-120	24320	-32768	-3209	6119	-343	-32768	32767	31256	3271	-1296	-2560	-32768	4640	1768	5429	3958	610	-26736	7504	4096	3104	-5365	-1576	127	129	2
-32768	-32768	-32768	31173	-7209	32767	6164	8220	-22524	5895	21679	-2785	11104	-32768	-11352	-1822	-5829	-167	-26128	31544	29792	1572	-2147	-1483	-32768	8208	-21264	2199	3280	635	-32768	32767	-7304	3703	-5852	-1557	126	118	2
-32768	-32768	-28188	-4733	16160	-9760	9148	32767	-32768	-19230	32767	15824	-32768	-3096	-32768	5080	3521	356	-1304	28352	23824	-1096	-3432	159	-24544	-3792	-15656	2033	661	1019	-32768	26320	-17592	-87	-6874	1674	126	118	2
-4708	-17276	16856	-6674	15389	-2360	24808	-32768	-22276	-10596	32767	-12538	-23024	25648	-26296	-2864	3351	420	-112	14624	22360	80	-4957	2428	2432	1008	-18048	-32	-3762	1134	-32768	9040	-2880	-3121	-9424	-184	126	114	2
-12440	-9900	11964	-5435	14723	1700	-32768	-12536	-32768	-14492	14384	-5957	-15032	-7344	-32768	927	5882	4252	-12504	16624	12280	1415	-7265	5006	6384	-2424	-18496	-1075	-5711	1924	-32768	2368	-17376	-1814	-6086	237	122	125	2
-12216	-11840	24248	273	24784	9776	-32768	-7876	-32768	23669	16561	11370	-22072	-12640	-32768	1746	5945	4583	-19808	10040	7024	1511	-7338	7007	2216	2200	-11536	-3272	-7337	4154	-28184	-4992	-24272	-586	-4325	388	121	117	2
-4932	-17392	31532	-1193	32767	26633	-32768	17768	-13060	9781	4224	-14109	-32768	32767	9864	5023	3943	3405	-30160	8568	6592	1116	-6736	7922	-10352	-3832	-8440	-5271	-8265	3294	1008	168	-26544	508	-3297	353	121	120	2
5292	-22936	23564	-7118	32767	32767	-32768	15016	12976	-22503	4630	-492	-32768	6592	22976	838	5776	2500	-29504	10832	7576	51	-6695	8058	-9936	-6368	-16360	-4346	-8543	2113	9776	-4264	-26960	1641	-1313	-101	122	121	2
-10640	-7600	29728	-19626	32767	32767	-32768	392	22128	-32768	57	-3238	-26672	-2664	18168	746	6598	2186	-32768	5168	11504	-794	-6521	8826	-776	-6400	-26304	-4759	-8964	1727	21128	-5376	-25168	5194	1406	-9	125	131	2
-32768	-8424	7712	-32710	32767	32767	-23104	-4836	26548	-23818	3553	2386	-25096	-7368	28416	1407	5174	1231	-32768	-10552	4776	454	-7078	8930	2448	-9680	-30920	-3655	-9135	736	28240	9688	-32768	4343	2515	176	127	145	2
-32768	-32768	-29156	5035	32767	32044	-10532	-22544	13592	-1048	26406	4602	-22352	-32768	32767	1591	2549	-140	-32768	-10744	-4448	640	-8112	6209	-4096	-9192	-32768	385	-8331	1337	25336	14760	-30336	-3699	-20	-1317	128	120	2
-32768	-12576	-10100	32767	32767	13362	612	-19308	-5520	32767	32767	5341	-15488	-11512	32767	2515	-2217	-251	-32768	-32768	-29008	607	-8316	1255	-15896	-9704	-32768	4229	-6110	2584	1488	3176	12792	-3283	-1436	-1094	126	124	2
-32768	14044	27936	31178	32767	-7081	-25616	5380	60	32767	32767	18500	-5992	11112	13336	1531	-1850	-1107	-32768	-32768	-32768	1974	-6171	-2407	2152	-9112	-32768	3157	-2073	1602	-12320	-2528	32767	-2385	-3811	-251	127	153	2
-32768	5688	32767	-32768	32767	-5353	-32768	32767	-4508	32767	32767	-2934	-5816	25240	544	1803	-2374	-865	0	0	0	0	0	0	15176	-20640	-32768	2000	801	531	-31600	-22440	22944	-1767	-208	540	127	141	2
-32768	-14400	32767	-32768	7305	12233	-17020	3960	6404	-32768	32767	-7845	-4992	31192	16480	1074	-3298	485	0	0	0	0	0	0	14648	-16168	-24464	1391	2779	-1409	448	-18984	-9888	4393	6222	-92	125	111	2
-32768	-23800	27844	-32768	-6824	23389	-32768	7600	3636	-32768	32767	-13598	-1648	32767	-1040	-2544	-2235	815	-32768	32767	14264	-9328	2902	-12222	6032	32767	-32768	-345	8487	-437	-4360	-12208	30416	5038	1173	1721	126	180	2
-30960	-32768	23356	-32768	-20393	30443	-32768	-236	-4336	-32768	32767	-9122	-24960	10032	-8728	-6011	-3302	-190	-19592	-32768	32767	732	-4	-1059	-32768	-32768	-22632	-21549	3118	-1820	-27560	32767	-32768	250	-502	-1243	127	175	2
-20884	-32768	23440	-23564	-28801	30230	-32768	-9172	-6588	-32768	29763	-3202	-32768	-23312	-25400	-7405	-3061	-925	32	32767	7840	-114	1644	1022	32767	26032	-32768	9898	6677	-2770	-32016	-5520	-13888	1444	3937	2574	126	116	2
-6332	-32768	15156	2357	-32768	22452	-25872	-10324	-11240	-32768	14942	-2696	-32768	-18592	-11488	-12	-5090	-2365	-15072	-888	18672	382	2145	-322	-23120	10512	-32768	945	1637	1737	-32768	-8528	-28280	-2688	5478	-470	127	103	2
8236	-22288	17348	10163	-32768	6491	-10212	-14044	-16260	-2031	-13979	4495	-32768	-9424	-2424	3077	-6457	-2435	-14400	-656	18024	150	2314	-1150	-32768	16840	-32768	-3358	4001	-3149	-24280	26352	-24016	415	3907	-3163	123	142	2
-5664	-23672	12536	-11734	-32768	-27783	-5300	1228	-16876	17977	-32768	-2147	-32768	12312	-21920	4379	-5610	-1772	-11584	14496	26808	-213	3842	-1025	-32768	-8480	-29408	-1162	2628	-607	-32768	-19352	1032	-5352	4810	-1979	123	144	2
-14792	-17620	4556	-7137	-32768	-32768	-3392	384	-10208	17286	-32768	-19386	-27328	13408	-19936	2339	-4839	-1351	-3440	21176	25296	-537	6447	-2672	-32768	6032	-5344	2725	1271	654	-32768	-19624	14408	-179	6416	-301	122	130	2
-22340	-12636	6556	-9515	-32768	-32768	-3688	-2328	-16144	20459	-32768	-19739	-2616	13032	-14744	-198	-3213	-1185	-1624	11544	21488	319	8864	-4687	-32768	10064	2464	3894	-23	738	-32768	12968	18056	2195	5473	-400	123	131	2
-26716	-18884	7544	1272	-32768	-32768	-8436	980	-9388	11647	-32768	-20452	6552	10232	-16824	-2366	-1128	-444	-32768	8616	23688	-737	10011	-5415	-31840	17632	5912	1988	-364	-329	-21256	24016	13936	2914	6283	259	123	124	2
-22424	-11920	7944	10517	-32768	-32768	-9416	-5656	-15532	25445	-32768	-12484	8144	8296	-26080	-3446	284	-243	-31888	15320	19576	-1508	9357	-4841	-23480	16000	13688	690	-680	-957	-21280	24056	20032	267	5710	2884	122	134	2
-32768	104	7816	1318	-32768	-32768	-4548	-4112	-22572	32767	-32768	754	17232	4888	-32768	-4447	1167	-636	-32768	23616	-10744	-2901	10114	-3498	-18960	23576	11024	-1314	995	-1931	-11304	20008	32767	-3778	2457	832	124	121	2
-32768	-12800	-6168	-6435	-32768	-32768	356	6208	-32768	11185	-32768	5138	32767	-6072	-32768	3670	1014	-1094	-32768	14576	2448	-5914	6722	-1834	1744	12808	-3792	-5969	4340	-2798	-18112	6232	32328	-8129	295	-513	125	127	2
-32768	-13908	-20692	25949	-32768	-32768	5948	5860	-32768	-20661	-32768	-12746	14168	-6048	-15288	3804	-2683	211	-24184	-4448	23952	-1187	3981	445	-25584	536	11488	-5444	6848	-1332	-14432	-27096	22312	-6325	451	585	126	128	2
-32768	3768	-32768	-116	-32768	-32768	-16480	-11168	-32768	-25578	-32768	-22561	12784	-5144	-8808	3676	-2675	230	-32768	11096	27960	4516	4329	-547	-32768	-32768	7760	784	5445	1841	-10408	-32768	6528	-1995	-919	-654	128	129	2
-32768	24712	-32768	-7061	-12887	-22044	3088	14564	-32768	17036	-17747	-1116	-24392	-640	31832	-249	-2072	1179	-32768	25328	32767	5680	2647	-1856	-28600	752	9904	6519	5342	1347	-12256	-32768	9864	3884	-3050	-1452	129	136	2
-32768	25260	-32768	-5541	4375	-6171	16648	11456	-32768	3052	8246	904	-8040	30240	-1728	1492	4281	-398	-32768	29688	32767	4873	154	-2469	-32768	680	4696	7246	4647	1676	-21240	-16064	-5600	6679	-4403	-1614	127	134	2
-32768	32767	-32768	5150	32767	32767	8276	-11648	-32768	-2060	32767	-13611	-12928	32767	27592	-3334	3114	-1234	-32768	32680	32767	3981	-2027	-2262	-32768	3776	-2888	6509	3645	1445	-32768	9968	560	6034	-5684	-1475	125	126	2
32767	32767	32767	32767	22491	29714	-32768	32767	-32768	32767	32767	5260	-32768	-17488	-32768	-11302	9309	83	-18528	32767	32767	1920	-3013	-1259	-32768	3664	-13568	3865	2380	1005	-32768	32767	-21352	5616	-5731	-974	126	111	2
-32768	32767	31164	-1949	10153	1631	32767	-1736	-19764	-26183	32767	-5406	-20392	16720	-23216	2183	-531	590	-2952	24440	29568	-249	-4149	-45	-28032	1984	-20072	2743	-552	1262	-32768	22032	-11824	-2444	-8129	481	127	112	2
-12188	-14744	8540	-6420	14866	696	11224	-11588	-32768	-8351	32767	-11864	9280	19144	-32768	-2059	5702	2747	-4432	16840	22920	1364	-5763	2588	-1904	-3424	-13424	-85	-4229	1851	-32768	7376	1608	-3398	-8665	-931	126	111	2
-12460	-9092	15972	-6977	17077	3978	-32768	-19404	-32768	-10933	21944	1603	-25904	-928	-28160	849	3485	5348	-12536	14144	15072	2289	-6938	6150	776	-7312	-14296	-1676	-5878	3675	-32768	-6400	-19744	-1797	-5713	-802	126	116	2
-9704	-15068	24380	-140	28731	12704	-32768	10148	-32432	24360	16763	939	-32768	19152	-12984	5708	3894	1753	-22392	9664	14960	1507	-6517	8331	-6760	1064	-12120	-4480	-7502	4556	-25416	-4792	-26344	1031	-4745	157	126	120	2
-4044	-19984	30120	-2021	32767	24766	-32768	7680	-6608	497	6545	-9164	-32768	29688	12184	2507	4602	3384	-32768	12312	16744	950	-6648	8843	-14624	-4488	-13696	-6072	-8503	3341	-40	-648	-27896	2393	-3090	77	125	138	2
-320	-19036	22184	-7059	32767	32767	-32768	7020	7372	-22606	1605	-353	-32768	-10384	12768	860	6292	2095	-32768	1456	21832	595	-7120	8906	-13320	-4808	-21040	-5796	-9664	2020	7312	-3952	-32768	3927	-745	85	128	126	2
-17128	-11804	21956	-15167	32767	32767	-32768	-4964	19352	-30038	-3491	1359	-29288	-16520	8672	1430	7270	2764	-32768	-2360	17816	1819	-7453	8728	-6976	-13488	-31232	-4211	-10134	1104	26200	8600	-32768	5649	1953	312	124	132	2
-32768	-24840	8444	-10800	32767	32767	-27424	-11712	24544	-6303	187	7209	-30672	-11024	29000	3469	5944	856	-32768	1744	7792	873	-8134	7082	-1328	-16864	-32768	653	-9678	972	32767	31120	-32768	634	1805	-498	125	135	2
-23936	-32768	-32768	22833	32767	28921	-10124	-23692	14988	29646	23851	11349	-19952	-31728	32767	4017	374	375	-32768	-16424	-9736	-76	-8220	5062	-4368	-9824	-32768	3991	-8582	2148	16928	8240	-13664	-4314	-379	-1140	125	123	2
-32768	-1808	-6112	32767	32767	9645	-2160	-24880	11604	32767	29438	9330	-24296	11392	32767	5215	-2586	-680	-32768	-23560	-32768	1209	-6970	2291	-27152	16360	-32768	1699	-5294	3570	-3312	-2936	24616	-4019	-1914	-470	124	117	2
-32768	16624	29164	22203	32767	-7055	-32360	17024	-948	32767	32767	12012	1736	23376	16008	1451	-1558	-1360	0	0	0	0	0	0	6336	-15288	-32768	-3289	-1931	463	-16696	-8056	32767	-4305	-2981	-298	125	125	2
-32768	8864	32004	-32768	32767	-4607	-32768	32767	-5664	6101	32767	-16986	-6472	32560	-2152	-2347	-2390	93	0	0	0	0	0	0	12488	-26488	-32768	-1622	2169	-1385	-32768	-14024	16440	-1551	1935	1496	128	122	2
-32768	-14564	32372	-32768	16875	9445	-20716	10100	8412	-32768	32767	-6374	-104	27960	13608	-1979	-2686	823	0	0	0	0	0	0	13784	-9832	-32768	-540	4462	-1540	-12928	-16280	24680	-363	3212	828	126	132	2
-32768	-26640	23756	-32768	67	24780	-32768	-724	1420	-32768	32767	-10917	-9600	16560	-624	-3750	-2061	448	0	0	0	0	0	0	368	-26080	-17376	-1344	4400	-1208	23344	-6424	-32768	5455	4667	921	128	201	2
-32244	-30504	17416	-32768	-10585	31327	-32768	-3724	1340	-32768	32767	-7031	-16288	10560	-6528	-4055	-3350	-553	0	0	0	0	0	0	7112	16736	-32768	5443	6015	-350	19120	-11800	-32768	6165	2030	1203	126	164	2
-26960	-32768	16472	-31695	-18816	30334	-29012	-2104	-6100	-32768	32767	-4885	-31944	-4904	-3792	-3821	-3702	-747	-32768	-32768	11904	2500	-178	-2325	-32768	-32768	-32768	-25501	1294	229	-32768	32767	-32768	-4059	-4578	-2588	125	84	2
-11680	-32768	17252	-3403	-25327	18477	-31116	-11360	-13192	-32768	24442	-2841	-32768	-19384	-28096	-3729	-3252	-1400	-2504	32767	10768	-213	1466	1045	17080	24848	-32768	10786	8340	-4674	-19912	-20704	-20640	5773	4030	580	127	180	2
4296	-26172	20012	15243	-28466	7182	-14164	-16500	-12888	-6740	-3047	2249	-32768	-11184	-4808	1670	-5654	-2785	-18640	16824	7136	571	2554	-78	1624	21576	-32768	417	-236	633	-11752	19624	-22160	-562	5162	1129	127	108	2
4324	-17588	19248	-4905	-32768	-22999	-7672	248	-19080	24368	-29220	3056	-32768	5320	-7184	3610	-6346	-2365	-14912	-11488	28384	33	2674	-1303	-32768	504	-32768	-7839	2990	-2072	-26512	32767	-23416	-3612	4139	-2526	123	126	2
-5596	-20080	8616	-2171	-32768	-32768	1536	2820	-14076	19262	-32768	-17928	-32768	11800	-18896	2720	-4721	-1011	-9088	17688	32767	-549	4902	-2299	-32768	-22784	-19592	182	1910	-172	-32768	-32768	-3912	-7065	7402	-3140	124	145	2
-20648	-5564	8516	-4003	-32768	-32768	-2332	1104	-5572	23036	-32768	-11871	-11368	9568	-18528	1192	-3589	-1175	1936	21064	19800	-201	7863	-4180	-32768	11648	4576	3940	849	518	-23160	-17000	20656	-1442	5395	975	125	126	2
-23940	-13700	8932	-2118	-32768	-32768	-9120	4792	-15076	14918	-32768	-15643	2120	13056	-16456	-732	-1565	-1080	0	0	0	0	0	0	-32728	13144	10528	2412	43	317	-25688	3896	15544	2694	5776	825	126	142	2
-25856	-10068	11536	5518	-32768	-32768	-7828	1668	-9856	10206	-32768	-12616	7464	9096	-21168	-2227	183	-480	0	0	0	0	0	0	-25192	14232	6976	2285	-318	-44	-23944	13120	15528	3812	5930	372	126	111	2
-26400	-6604	15320	5780	-32768	-32768	-7000	2176	-17808	20183	-32768	-3488	7704	8232	-22672	-2411	500	-423	-32568	1528	17840	-876	8780	-4493	-26840	9128	13672	1224	-215	-542	-20840	21856	23976	931	3756	1724	125	140	2
-32768	124	7708	-1789	-32768	-32768	-6776	6184	-24528	16547	-32768	5683	18480	-1216	-32768	-3172	1666	-790	-32768	22336	-14784	-1757	9055	-3491	-16632	20584	7432	86	2052	-1670	-15144	19800	32767	-2493	1348	870	125	120	2
-32768	-12116	-8432	3704	-32768	-32768	-5712	5128	-32768	-7519	-32768	962	29000	-2056	-32768	4833	251	400	-32768	23600	10632	-3335	4775	-1223	-1944	13360	-3624	-4207	4395	-2288	-15696	-9552	32767	-6299	23	928	126	126	2
-32768	-7072	-27152	21584	-32768	-32768	-2948	72	-32768	-18724	-32768	-14989	8520	-376	48	4144	-3067	737	-27296	1624	23832	-434	4004	-233	-27040	3016	17744	-3366	6795	-726	-13384	-29096	24936	-3773	-333	1015	127	124	2
-32768	5548	-32768	2146	-32768	-29402	-13452	-14924	-32768	998	-31816	-10138	-6856	-352	32767	1478	-2430	787	-32768	15016	29096	4403	3919	-502	-32768	-23520	9256	926	5923	1299	-3440	-32768	5896	197	-2129	-850	127	134	2
-32768	19048	-32768	-4820	-3856	-22438	5492	9360	-32768	20022	-9000	4907	-29216	-64	32767	-1680	-1552	756	-32768	29608	32767	5284	2331	-1473	-31112	984	9456	6061	5263	1024	-10336	-26200	7672	3435	-3520	-1471	125	141	2
-32768	19828	-27500	-6403	5833	-4230	11696	6432	-32768	3956	10861	1421	-5936	30096	-31240	1426	5172	-547	-32768	32767	32767	3880	-237	-1794	-32768	7472	4688	6275	4425	1480	-22008	-4912	-2264	4436	-4199	-1312	127	133	2
-32768	32767	-32768	-6071	26498	32767	12064	-4104	-32768	-3437	29652	-12226	-1736	32767	21808	-4092	2569	-837	-26752	29560	32767	2678	-2149	-1693	-32768	7544	-1560	3893	3548	796	-32768	12608	5616	3700	-5608	-1401	126	124	2
32767	32767	32767	32767	32767	31658	-32768	32767	-44	32767	32767	12762	-32768	1688	-32768	-11463	8451	-1173	-15520	32767	32767	1205	-3190	-752	-32768	-160	-14968	1723	1861	531	-32768	32767	-16320	3507	-5590	-365	127	112	2
-32768	32767	32767	4485	18849	32767	32767	-10776	-12968	-3751	32767	-11074	-15120	5120	-25584	-178	-1351	890	752	21152	26872	-675	-5011	839	-31432	-2856	-15360	1676	1536	677	-32768	17568	-11200	-2709	-7348	592	126	107	2
-15120	-5320	11600	-5773	14427	-53	-1272	-2004	-32768	-5559	30473	-10914	-8000	13160	-30512	-1170	5204	2905	-2768	13856	20328	828	-5846	2909	-4376	-7712	-15352	426	-4929	1149	-32768	12256	-6792	-3068	-8269	-1216	123	96	2
-6728	-22696	14432	-5427	16349	3249	-32768	-26556	-10144	-5923	29154	8449	-27328	-23152	-25000	1964	4040	4789	-19392	16056	13696	1634	-7180	5964	3080	-944	-15936	-931	-6251	3069	-32768	-5456	-21992	-2213	-5094	367	111	126	2
-9224	-19604	24260	3514	30393	12798	-32768	8692	-17952	23042	14840	29	-32768	21552	-6512	6580	3614	1977	-24672	9904	11072	857	-6867	7575	-5896	3864	-11896	-4185	-7673	4025	-19864	-5424	-25408	81	-4428	443	113	116	2
-4464	-14792	30088	-4793	32767	25117	-32768	13780	-4644	-2871	9077	-12097	-32768	32767	19448	2483	3896	2863	-30688	11656	11536	536	-6581	7982	-14168	-4096	-14168	-6144	-8295	2796	2464	-4776	-26552	1526	-2451	680	114	125	2
508	-16444	23732	-8734	32767	32767	-32768	7516	8832	-24854	3948	-5182	-32768	-2728	18264	478	5698	3093	-31784	2416	15744	537	-6459	8451	-10216	-8976	-21632	-5540	-9273	2177	14456	-9816	-28248	3811	49	469	120	116	2
-16220	-9168	22940	-17053	32767	32767	-32768	-4428	18536	-28506	1027	291	-29200	-6464	10096	239	6579	2335	-32768	1680	15104	1219	-6619	8753	-2576	-12312	-27976	-4107	-9382	1076	29672	-936	-28560	5706	2611	485	128	141	2
-32768	-15748	6692	-13719	32767	32767	-22776	-7588	18840	-8945	4352	5093	-30640	-5440	9680	244	6529	2066	-32768	1416	12616	558	-7500	7812	-3456	-12560	-32768	-673	-9413	1268	32767	16520	-32768	705	1603	-1031	129	131	2
-30716	-32636	-21172	15274	32767	25677	-12212	-18120	14424	19058	22686	9881	-20640	-32768	32767	2229	2303	-78	-32768	-17296	-4864	952	-7625	5517	-16104	-12296	-32768	2872	-8424	2253	15768	9720	-10816	-4375	-295	-1995	128	122	2
-32768	-11388	2068	32767	32767	10086	-3136	-7688	-3512	32767	32767	1909	-16584	-232	32767	4348	-2781	-408	-32768	-32552	-32104	1000	-7279	1002	-18424	3320	-32768	2786	-4857	2885	-12848	4192	32767	-3215	-2852	-934	129	143	2
-32768	15716	28976	18711	32767	-6465	-29648	14944	2156	32767	32767	13822	2544	20360	20824	1983	-1978	-680	0	0	0	0	0	0	8112	-15544	-32768	-342	-1308	449	-23224	-8240	32767	-3989	-2757	310	128	133	2
-32768	3496	31816	-32768	32767	-3582	-32768	32767	-2472	14290	32767	-12131	-14528	26536	1792	-457	-2181	-101	0	0	0	0	0	0	12824	-25216	-32768	1051	2376	-904	-32768	-15176	12968	940	2781	1738	130	127	2
-32768	-14888	32767	-32768	9985	12419	-20452	8660	10412	-32768	32767	-6658	-816	28840	15160	-1068	-3013	1122	0	0	0	0	0	0	13608	-3728	-32768	776	4860	-1095	-3136	-24840	28248	2589	3231	-1041	128	163	2
-32768	-23488	26172	-32768	-4892	24326	-32768	2056	7536	-32768	32767	-9144	-7552	19984	-640	-3187	-2255	600	-32768	21256	27328	-3648	-1599	-3185	-32768	32767	-1096	-9857	8888	2286	7688	-22184	30912	1523	3225	-1418	126	223	2
-32768	-32768	26796	-32768	-15285	32292	-32768	-8368	-6348	-32768	32767	-5429	-32768	-3296	-14840	-5363	-2025	-416	-29216	32767	-32768	-344	1769	181	-11752	-32768	-32768	3128	13022	-6353	-7448	13192	-32768	5338	1291	1478	127	159	2
-29984	-32768	26660	-32768	-17525	31907	-30996	-7080	-1648	-32529	26480	3965	-32768	-27040	-18528	-2811	-5083	-1802	-12272	-9832	24400	-70	1388	-226	32767	32767	-25512	3293	5894	1445	10144	-10584	-32768	1817	2556	1416	126	112	2
-6464	-28332	17520	14464	-29572	17343	-19368	-7116	-11424	-19572	7080	1829	-32768	-12208	-5616	1700	-5959	-1287	-17472	8760	8864	-3	1748	-863	-11272	16120	-32768	3111	791	1671	-32768	26640	-32632	-389	3642	-477	127	104	2
5844	-21192	17996	14387	-32768	-1345	-12836	-13028	-17168	2454	-17994	10263	-32768	-320	-4544	2189	-5932	-2621	-15744	-4072	18104	0	1817	-880	-30152	-20048	-32768	-6376	4314	-4298	-32768	19624	-21528	-5809	4779	-3560	126	126	2
-4076	-17952	14272	901	-32768	-24558	-5048	224	-15564	18122	-32768	2098	-32768	4776	-6128	2284	-5786	-2871	-11584	12048	26800	-553	3408	-1267	-32768	-13280	-29032	-87	1115	871	-32768	-21360	5344	-3081	4001	-2648	125	115	2
-16488	-18756	7720	937	-32768	-32768	-2684	-400	-13348	15080	-32768	-10291	-26720	10808	-19808	1754	-4692	-1378	-6648	19080	25064	-520	5749	-2368	-32768	2808	-13136	2816	1709	114	-32768	-1160	6456	-415	6725	-250	127	132	2
-21528	-11724	5644	-711	-32768	-32768	-6120	1892	-9556	16489	-32768	-9602	-6200	10920	-13496	-415	-2366	-1257	2544	11472	19432	-219	7779	-4569	-32768	9632	-1304	3707	-679	770	-32768	5536	13864	-388	5411	-1419	127	126	2
-28564	-18988	6752	6347	-32768	-32768	-9528	2560	-10832	10443	-32768	-14315	4520	11208	-16856	-1803	-612	-583	-13200	17104	17848	-115	9911	-5885	-32768	18152	6760	1857	-450	-139	-23744	12624	16040	1561	6557	350	124	140	2
-29276	-9772	11624	9668	-32768	-32768	-9836	-1000	-19600	14815	-32768	-6577	9312	9304	-23040	-2791	584	-129	-32768	10232	16496	-777	9351	-4861	-32768	13856	4048	1611	-747	-231	-24864	10952	20256	2004	6709	2705	123	114	2
-28660	-8692	11576	9049	-32768	-32768	-8592	-312	-21600	17721	-32768	1722	19840	3000	-26560	-3235	1413	34	-32768	13584	-14784	-1538	8519	-3574	-21904	24680	13256	-169	203	-2049	-22920	29296	32767	-1059	3413	1223	121	124	2
-32768	-11044	-7968	7660	-32768	-32768	-10024	-1232	-32768	7811	-32768	1198	32767	-7984	-32768	2841	1028	247	-32768	7376	-30808	-5358	8471	-3910	3632	19080	6272	-4010	3364	-2340	-11592	10376	32767	-6196	-378	-217	121	127	2
-32768	-7256	-26320	19463	-32768	-32768	-2116	2832	-32768	-9700	-32768	-4762	9504	-4936	-10256	4949	-3189	752	-32768	3760	16504	-1916	5675	-165	-12824	3192	5616	-5251	7070	-1650	-12696	-27336	28896	-6852	562	1080	125	142	2
-32768	7376	-32768	3702	-32768	-29995	-14236	-14684	-32768	-12281	-29933	-15156	7360	-4760	-1016	4847	-3296	815	-32768	8824	27032	2792	5413	-666	-32768	-17136	10912	-653	6444	1122	-9240	-32768	3864	-1132	-1163	-188	129	119	2
-32768	16144	-32768	-4906	-12534	-19936	7584	884	-32768	19157	-8741	2114	-27416	88	17288	387	-1765	-622	-32768	21312	32272	5052	4080	-2297	-32768	-1744	9496	4856	5679	1085	-9632	-31432	3720	4270	-3304	-1381	127	142	2
-32768	21252	-32768	-10699	1915	-9316	14788	6656	-32768	5573	10574	3358	-7336	25704	-8368	1078	3446	-759	-32768	30720	32767	4953	1702	-2817	-32768	4712	5672	5644	5122	929	-17816	-10480	-1448	4990	-4003	-1487	128	136	2
-32768	24200	-32768	-10420	21799	32767	12796	-12008	-32768	7446	30825	-11412	-3840	32767	13024	-2084	3676	-34	-32768	32767	32767	3759	-1056	-2418	-32768	6096	-1456	5586	4088	1036	-32760	11536	1128	3926	-4594	-1037	128	122	2
32767	32767	32767	32767	32767	-2679	-32768	32767	2504	27211	32767	-12695	-19552	-4080	-32768	-9310	1096	-1009	-24536	32767	31512	1637	-2646	-1085	-32768	7776	-11152	2928	2812	546	-32768	31656	-13424	3265	-5169	-1009	127	115	2
-32768	32767	32767	-8153	13690	-881	-32768	32767	10356	32767	32767	15914	-27544	-200	-32768	909	3868	-682	-7000	29456	25096	-1353	-3618	380	-26672	-2784	-14896	2025	898	1265	-32768	20080	-8928	-1509	-7611	225	126	118	2
-9456	-24680	7696	-6880	13816	-2175	7928	-17044	-32768	8021	31282	-8356	-30496	2304	-30648	-3858	3632	1770	2232	11792	23544	-33	-4640	2345	-7440	3296	-20168	1522	-2972	1385	-32768	6832	384	-1746	-8096	-796	123	125	2
-10856	-16796	9484	-7851	14093	933	-32768	-10792	-24900	2009	25218	5002	-32600	-26568	-32768	2816	4891	4692	-12112	20320	16752	1770	-6867	4862	2184	-4128	-15888	-2	-5256	1819	-32768	2264	-17800	-2420	-5934	630	112	127	2
-8208	-19296	22436	-1447	25705	8509	-32768	-672	-22324	18947	17025	702	-32768	-920	-9992	4765	2705	2352	-18128	12736	9680	1511	-7474	6938	792	4480	-10488	-2267	-6789	4251	-32768	-1152	-23688	-57	-4666	281	114	114	2
-7680	-16136	29408	-1721	32767	21392	-32768	13524	-12968	941	6902	-18072	-32768	32767	6560	3996	4608	4061	-29864	11360	9328	1002	-6631	8195	-11256	832	-9800	-5360	-7734	4005	-4864	-1832	-22680	819	-3730	743	116	126	2
-1024	-19132	28152	-6860	32767	32767	-32768	4744	5268	-12946	3473	-5533	-32768	7368	20408	318	5220	2614	-30672	11752	11128	-216	-6487	8581	-14152	-3608	-16896	-6071	-8364	2768	3440	-3504	-26496	918	-1532	491	117	128	2
-13116	-9272	30592	-15713	32767	32767	-32768	4796	11804	-22671	1484	-746	-25576	-4648	13512	703	6857	2196	-32768	-1160	17576	515	-6529	9110	-7024	-8184	-19448	-5830	-9388	1745	17304	-4976	-28200	3684	698	264	122	129	2
-32768	-6912	17888	-21327	32767	32767	-28164	-1232	18912	-18541	-2411	111	-27640	-4056	20264	1331	6527	1258	-32768	1392	17248	1607	-7071	8673	-7336	-12912	-29792	-3617	-9470	725	27472	4512	-32528	4532	2374	147	123	142	2
-32768	-16056	-17368	-12735	32767	25626	-16976	-8976	21196	-1584	14162	5139	-20176	-26912	32767	1637	3800	-59	-32768	-7000	13480	291	-8846	6685	-8880	-15944	-32768	1048	-9377	1570	32767	12000	-32768	-453	221	-976	125	103	2
-32768	-20980	-32752	32767	32767	23334	5060	-18992	3840	29029	32767	-1888	-14872	-21960	32767	3943	-1529	744	-32768	-25080	-12672	1059	-9422	3330	-16640	-10880	-32768	5763	-7876	2975	9464	4464	-2344	-3533	-1098	-1266	127	117	2
-32768	3444	18420	32767	32767	-4285	-15688	348	1428	32767	32767	12136	-10944	12168	32767	3304	-2883	-1281	-32768	-32768	-32768	2322	-7597	-504	-2400	-2896	-32768	2011	-3970	2857	-28048	4128	32767	-1822	-5005	302	130	122	2
-32768	17776	32767	-24518	32767	-9658	-32768	32767	4732	32767	32767	787	-9360	30808	8336	38	-1896	-891	-32768	-32768	-32768	1329	-1580	-853	8872	-30736	-32768	-1029	546	-157	-32768	-16112	30464	-2133	590	1653	134	144	2
-32768	-9564	32767	-32768	17661	-545	-20648	11776	3288	-32768	32767	-5900	-16	30296	11896	-1607	-2917	474	-16568	3568	5880	-2020	2861	-652	14288	-13472	-32768	629	3701	-2269	-6864	-14272	16744	569	4079	-707	134	159	2
-32768	-25972	27824	-32768	-5923	18362	-32768	784	3924	-32768	32767	-10613	-6360	25232	1848	-3612	-2277	767	-32768	32767	32767	-11300	2727	-14850	-32768	32767	-32768	932	9416	877	-6360	-12808	32767	1436	-2547	2230	133	109	2
-32768	-32768	26256	-32768	-17899	32767	-32768	-9308	-952	-32768	32767	-7497	-32768	600	-8552	-5717	-3279	265	32767	32767	-16456	860	1152	-870	-32768	-32768	-32768	-7535	11332	-3305	-32768	24888	-32768	-564	301	-670	132	117	2
-26504	-32768	21968	-24079	-27769	32767	-32768	-12524	-6124	-32768	26228	1759	-32768	-32768	-31112	-5664	-4001	-1852	-21888	32767	-32768	97	931	-245	32767	32767	-32768	7528	9380	-868	-26320	-3336	-32000	6583	3362	753	132	203	2
-8804	-32768	15828	7938	-32768	27116	-21148	-6872	-10564	-21304	9886	60	-32768	-13744	-7936	1635	-5849	-1793	-19568	4280	10920	-5	1622	-913	-4304	-464	-32768	3761	1720	2995	-32768	23440	-32768	-1189	4112	406	130	122	2
7396	-27180	15980	19489	-32768	5515	-13016	-16300	-16036	201	-17016	8964	-32768	-7384	-4112	2387	-6107	-2459	-13352	7808	15488	-23	1793	-929	-32768	5976	-32768	-4410	4505	-4688	-32768	32767	-26760	-2606	3877	-2254	123	149	2
-3048	-17416	14156	1780	-32768	-27204	-7128	-628	-17620	24462	-32768	7021	-32768	11568	-24648	3295	-4873	-2385	-10432	20688	25176	-515	3425	-850	-32768	-14680	-26616	-1901	1979	-878	-32768	-27848	-504	-5641	4446	-3056	123	105	2
-18656	-23572	7916	2768	-32768	-32768	-2328	-2252	-15780	12802	-32768	-10020	-27752	11768	-23552	2145	-4922	-1435	-4704	18312	27720	-709	5961	-2441	-32768	120	-13376	2053	1496	137	-32768	-10456	11584	-1515	6475	-426	123	148	2
-23628	-9904	6272	-844	-32768	-32768	-6644	1176	-11288	15175	-32768	-9196	-6504	11696	-15448	-134	-2780	-1565	1384	10816	19912	67	8008	-4524	-32768	5920	-2592	4058	-117	851	-32768	3760	12512	-605	5586	-907	125	117	2
-28596	-18984	5972	1780	-32768	-32768	-10432	3368	-10124	7446	-32768	-14763	4000	10712	-16824	-1852	-731	-698	-15600	11776	21520	32	9910	-5612	-32768	20032	6512	2680	-246	-157	-22256	8392	14800	1588	6249	151	124	128	2
-32768	-14468	12036	9401	-32768	-32768	-11408	-2436	-19976	9449	-32768	-10457	7640	8792	-23072	-2836	444	-53	-32768	5016	16544	-833	8934	-5151	-24688	15424	4856	1205	-778	-728	-21992	7312	17304	2525	6316	2961	124	128	2
-32768	-9144	9636	2716	-32768	-32768	-12712	-1588	-22788	15966	-32768	-2494	18088	7504	-25080	-3402	1004	166	-32768	16944	-7168	-1659	8784	-3778	-24792	24736	16728	212	9	-2013	-23968	32767	32767	533	3602	1276	127	134	2
-32768	-11900	-4120	2243	-32768	-32768	-15256	0	-32768	13130	-32768	-2146	32767	-3784	-32768	2710	1759	398	-32768	9016	-32768	-6136	7887	-4113	2336	23168	8376	-3651	2868	-2187	-8872	16720	32767	-4922	32	-265	125	121	2
-32768	-8352	-19868	6273	-32768	-32768	-2752	4360	-32768	-5565	-32768	-6052	10688	264	-18800	6390	-3677	1146	-32768	888	15776	-2916	4969	-317	-9000	5144	4264	-5930	6741	-1881	-12712	-19760	31368	-7736	282	769	127	139	2
-32768	7464	-32768	-4798	-32768	-32768	-12188	-6920	-32768	-21633	-32768	-19520	-7104	-3032	32767	2305	-4087	857	-32768	880	18952	-2008	4868	-4	-32768	-18296	13904	-1468	6461	787	-12320	-32768	8904	-3548	-565	253	126	126	2
-32768	25472	-32768	-13811	-18319	-21737	4624	1428	-32768	7194	-14647	-3805	-25272	-6536	28080	-1278	-1712	67	-32768	24496	32472	5167	4265	-1809	-32768	-1024	11280	5126	5534	1207	-9512	-32768	6064	3656	-2792	-1334	130	137	2
-32768	26884	-32768	-10012	-2804	-4032	16316	9564	-32768	-2278	10088	226	-10528	30672	-2136	101	3775	-1490	-32768	29928	32767	4343	2191	-2964	-32768	4696	6032	5186	5146	1280	-19496	-17936	-928	5677	-4083	-1750	127	135	2
-32768	28988	-32768	-10189	31033	32767	12192	-2480	-32768	10160	29506	-11504	-4168	31616	-4456	-3969	4777	-1307	-32768	28464	32767	4069	-627	-2539	-32768	5632	-2416	4850	4363	1739	-31808	8432	-2176	5687	-4800	-1479	128	126	2
9412	32767	32767	32767	-4595	-237	-32768	32767	-32768	32767	32767	-7911	-32768	-32768	-32768	-8530	3995	-2090	-29600	32767	32767	2193	-2684	-1465	-32768	9952	-16816	3174	2924	787	-32768	32767	-22288	4730	-4958	-1010	128	111	2
-32768	-23036	-6388	-3992	10382	-9214	32767	-21440	-20316	-12514	32767	-1815	-10272	18176	-32768	1654	-1529	1205	-7456	23112	28360	-1696	-4411	-997	-28400	-4368	-16800	2587	659	1608	-32768	20784	-13888	-2684	-7572	469	127	119	2
-4900	-23628	6288	-6338	13979	-1896	6216	1732	-23452	-4488	32767	-14238	-11800	9152	-32768	-2170	5011	3301	424	10648	23608	1018	-5128	1960	-7512	-224	-19336	1629	-3343	917	-32768	7904	3040	-2471	-8264	-1482	127	119	2
-6536	-25812	10232	-5600	14864	1052	-32768	-26292	-14008	-13408	27387	5903	-28216	-26160	-29840	1324	4559	4318	-10488	23104	17080	1414	-7121	4537	912	-3384	-16928	522	-5457	2070	-32768	8192	768	-2298	-8316	-1185	118	138	2
-10860	-10692	22076	-3326	24479	9722	-32768	11736	-19460	26485	16849	2043	-32768	10760	-10800	5735	3140	1441	-16856	7416	11720	1400	-7462	6643	-808	5840	-10800	-2576	-7041	3878	-32768	-3128	-26184	-19	-4806	260	122	104	2
-9132	-9748	30424	-2181	32767	20463	-32768	11580	-13128	-2072	9801	-14747	-32768	32767	12472	2592	3919	3597	-30936	11280	12608	1411	-7132	7789	-12000	-88	-12472	-5462	-8065	3496	-6160	-2112	-26368	1216	-4110	776	122	120	2
-860	-14756	22996	-10720	32767	30577	-32768	6424	3748	-20180	6550	-6095	-32768	-656	17264	477	5327	2787	-31912	9552	15728	835	-7292	8406	-11632	-6384	-17288	-5600	-9018	2590	3168	-5552	-28864	1508	-1659	915	126	129	2
-7396	-7544	25452	-13125	32767	32767	-32768	-852	14804	-25492	3005	2486	-23032	-9480	9680	435	6482	2728	-32768	3688	16352	1323	-7248	8878	-6688	-5928	-22464	-5290	-9829	1687	20904	-5168	-31048	4294	973	572	127	121	2
-31812	-12100	21224	-10423	32767	32767	-29940	-7072	20684	-17487	-1970	2921	-30032	-9688	12808	1443	6421	979	-32768	4600	9128	1362	-7510	8632	-6184	-8928	-32768	-3602	-9781	997	32767	13008	-32768	3219	2590	80	129	144	2
-32768	-2548	-2876	-5308	32767	25765	-19116	-13984	25424	5027	13368	9714	-25088	-30960	32767	2682	4257	-326	-32768	-7704	8	203	-7890	7809	-6704	-15256	-32768	-265	-9313	1379	28920	9824	-32768	-2731	23	-1246	128	115	2
19880	-32768	-29904	32767	32767	21711	1208	-23808	5772	32767	32767	6528	-14264	-20392	32767	5367	-1791	635	-32768	-27880	-26744	1157	-7233	5094	-24184	-2104	-32768	4697	-6853	2616	7408	2048	8792	-3865	-1076	-1274	127	123	2
-32768	5232	16372	32767	32767	-3062	-15136	2796	1136	32767	32767	13122	-3816	19424	32767	5120	-3156	-1121	-32768	-32768	-32768	1861	-5840	110	2880	-152	-32768	720	-3206	2047	-18392	3136	32767	-2567	-4823	-157	127	125	2
-32768	17504	32767	-27199	32767	-7705	-32768	32767	3412	32767	32767	-2791	3392	28104	32767	4252	-2422	-1514	0	0	0	0	0	0	12568	-24472	-32768	-1301	843	-209	-32768	-15336	28032	-2444	55	1757	128	141	2
-32768	-12672	32404	-32768	19802	5137	-25032	3204	1184	-32768	32767	-8984	1312	32767	8960	-2640	-2974	599	0	0	0	0	0	0	15024	-19752	-32768	1229	3255	-1584	-18496	-15040	12864	893	3871	-368	129	154	2
-32768	-24916	29176	-32768	105	18957	-32768	4660	3992	-32768	32767	-13172	-4512	29552	3944	-4086	-2391	934	4256	-24984	-32768	-2972	7447	-5669	1104	11912	-32768	-1830	6117	-1593	10416	-5432	-26664	7464	3600	839	128	124	2
-31020	-31724	22368	-32768	-13591	28321	-32768	-1816	-760	-32768	32767	-10302	-24424	6008	-7648	-5755	-3218	325	32767	-32768	32767	-5453	2560	-2432	-32768	-32768	-32768	-30274	5656	3821	-22376	32767	-32768	7135	-3384	-1451	129	186	2
-24024	-32768	21936	-29393	-24096	27488	-32768	-9460	-9660	-32768	31116	-4109	-32768	-26584	-29600	-6236	-2495	-1419	-10112	-32768	29936	-139	642	-75	17608	-16112	-29352	9921	8382	-1932	-14832	-3424	-32768	556	2813	1888	127	134	2
-10428	-32768	16360	3885	-32670	19438	-25404	-8784	-10816	-32692	16074	-3605	-32768	-15480	-10824	753	-5846	-2014	-11992	21784	8512	-26	1644	-368	7736	18232	-17280	2734	1959	2544	-21760	-416	-32632	1542	4509	424	128	133	2
6464	-19752	18424	14911	-32768	4578	-11408	-16244	-13756	-4537	-11038	4405	-32768	-9208	-1552	2900	-6653	-1931	-12896	17952	5376	-70	1759	-980	-32768	32767	-9600	781	2533	-1576	-27112	32767	-32768	2423	3270	-1521	125	124	2
-300	-17740	14708	-1597	-32768	-19399	-7048	-1316	-19308	22806	-32768	3969	-32768	15176	-17248	3232	-5450	-2276	-12872	2136	24440	194	2427	-558	-31232	-21464	-32768	-5157	3567	-3265	-32768	-9824	-9536	-7757	4811	-2955	125	147	2
-8756	-23116	7716	-1967	-32768	-32768	-2568	172	-16020	18876	-32768	-13131	-32768	13760	-24216	2023	-4921	-1315	-11304	8680	28304	-489	4467	-1407	-32768	-8824	-25472	1649	774	1196	-32768	-30912	576	-1678	5055	-790	126	117	2
-22680	-12956	5924	-4184	-32768	-32768	-6472	2492	-14272	20565	-32768	-12231	-30408	14680	-22768	1409	-4951	-1210	-4296	19392	23104	-462	6474	-2923	-32768	5232	-9848	2335	1431	300	-32768	-616	7960	-112	5592	291	125	129	2
-30052	-20776	6928	2418	-32768	-32768	-9524	4544	-11940	10742	-32768	-17271	4888	11232	-16400	-2129	-807	-853	-4616	13200	18952	443	8391	-4421	-32768	12056	7456	3408	-548	683	-32768	7416	15504	1423	5122	-999	123	132	2
-29268	-11840	11216	9244	-32768	-32768	-11700	-2488	-16056	13500	-32768	-13051	8616	8104	-20240	-3339	783	2	-24632	12384	19896	-123	9609	-5130	-32768	11208	4608	1608	-429	-190	-27528	12152	9472	2449	6097	1280	122	129	2
-32768	-1564	8116	-5753	-32768	-32768	-8392	-1252	-20872	16742	-32768	-3611	17152	6776	-24880	-4143	1585	228	-32768	3896	20560	-1150	9049	-4584	-23640	13856	9584	953	-911	-930	-24736	24096	24472	1903	5607	2474	122	127	2
-32768	-11740	-4568	-5280	-32768	-32768	-9816	3420	-32768	5805	-32768	-3746	27672	-2040	-32408	566	2302	259	-32768	30464	-2168	-2975	6984	-3257	-15848	19352	10664	-1226	1186	-1837	-8168	24160	32767	-4126	2069	851	123	115	2
-32768	1648	-21768	4120	-32768	-32768	-2692	10312	-32768	-19304	-32768	-9781	16328	-6016	-27448	7105	-2825	1430	-32768	304	6272	-4853	6398	-1435	-3776	6616	12840	-3900	4083	-1800	-16672	-13160	32767	-9168	103	301	125	128	2
-32768	15140	-32768	-3571	-32768	-32745	-9832	-6832	-32768	-28717	-31444	-24132	-7296	-6776	32767	1630	-4329	628	-32768	1656	28520	869	5349	512	-31640	-4744	13592	-2960	6488	-821	-15960	-32768	25824	-5586	-142	85	127	134	2
-32768	23444	-32768	-4686	-13025	-15503	5956	5724	-32768	14015	-8248	-592	-31920	-7504	24440	-2496	-890	-1020	-32768	16232	32767	4525	4338	-779	-32768	-17104	7352	1760	5739	1089	-9544	-32768	3816	2773	-2586	-1816	128	129	2
-32768	28580	-32768	-5549	7980	-5766	14120	14468	-32768	12917	12701	7107	-11312	30440	-14256	1400	4603	-1380	-32768	26312	32767	4713	2286	-2555	-32768	2776	8528	5180	4848	1004	-20040	-19896	-2248	5313	-4363	-2056	125	141	2
-32768	-7936	-14160	14325	31715	7315	7040	11616	-18212	15519	18898	4271	1032	26040	-30360	-610	6013	-1158	-32768	27896	32767	4006	-809	-2682	-32768	2784	4264	5584	3838	946	-23424	3184	-1488	4882	-4849	-1274	127	128	2
-32768	-32768	-32768	32767	-6192	32767	-32768	-32768	-32768	-905	32767	-32768	-3816	-21496	32767	-2381	-8601	376	-32768	31688	32767	2962	-3015	-1994	-32768	8928	-15896	3765	2817	753	-32768	32767	-6456	4767	-5391	-1379	127	122	2
-20384	-32768	-21780	-2252	21961	6006	-6444	32767	-32768	-2856	32767	32767	-32768	5368	-32768	-266	4380	1392	-9480	32767	24544	-157	-4475	-670	-29752	-72	-12056	2519	1149	431	-32768	32767	-27160	812	-6247	1044	128	122	2
-412	-20720	21672	-4702	11619	-6144	14100	-30976	-23780	-29130	32767	-8076	-24928	27040	-14208	-4476	1543	-71	4456	15072	19040	-635	-5046	1051	-12096	2824	-19752	2334	-2622	1674	-32768	17840	-1368	-4644	-8019	37	126	118	2
-11276	-9380	11648	-5866	12154	534	-26928	-8376	-30920	1407	14210	-2033	-11704	-10024	-32280	-185	5235	3762	-6776	19264	14936	911	-5816	3635	-784	-3664	-18672	-7	-5333	761	-32768	7056	-12208	-2917	-7107	-180	113	119	2
-11760	-10296	19904	-3687	15605	6892	-32768	-792	-32768	12623	21367	7176	-32768	-32768	-22712	-315	5280	3322	-16640	15336	9112	1117	-6895	5801	1328	3328	-14600	-1630	-6426	2970	-32768	-7344	-23800	-1373	-4296	64	120	125	2
-9448	-19644	25000	55	32767	17040	-32768	6760	-17316	4903	14191	-6861	-32768	32752	-1280	8277	3129	3445	-25016	8624	7768	1162	-6564	6902	-6328	3856	-12240	-4157	-7615	3546	-9344	-4344	-24640	709	-4303	527	123	116	2
-2920	-19924	25024	-10080	32767	29454	-32768	8924	2864	-17665	7280	-706	-32768	22936	17904	2337	4595	2884	-26568	12784	7888	808	-6570	7359	-10448	-3888	-16136	-5386	-8100	2443	5400	-4992	-26720	2091	-1919	539	123	120	2
-5384	-7144	27056	-14380	32767	32767	-32768	2420	12548	-28971	1936	-235	-26144	-3312	17104	396	6745	2310	-32560	5008	12744	497	-6343	7737	-9536	-4824	-16624	-5243	-8287	2324	18048	-7848	-26256	5081	639	159	122	121	2
-29376	-18128	17532	-15893	32767	32767	-30988	-7580	16840	-23262	-7	3443	-32768	-6552	14880	395	6292	1271	-32768	3544	9696	842	-6653	8291	-960	-9096	-31368	-3608	-9244	1137	30216	9968	-32288	5212	2972	207	124	140	2
-32768	-5124	10440	-5845	32767	32650	-17980	-9928	21476	2076	10905	7815	-23744	-19312	32767	2058	3946	-1	-32768	-8984	2840	-129	-7452	7306	-5104	-10736	-32768	-446	-8904	1392	30088	17240	-32768	-2102	1062	-980	125	124	2
-11884	-32296	-24472	32767	32767	20582	824	-17328	10136	32767	32767	6125	-15432	-23440	32767	4312	-843	267	-32768	-28528	-20120	154	-7619	3331	-19664	-4848	-32768	2612	-7109	2298	6168	9216	1480	-4364	-615	-1452	129	129	2
-32768	-1660	7800	32767	32767	-2729	-8640	-4676	-2388	32767	32767	11288	-15960	10992	32767	2438	-2749	-1498	-32768	-32768	-32768	1089	-6732	-506	-4024	-2696	-32768	1513	-3405	1639	-19648	3304	32767	-3351	-3987	-136	130	113	2
-32768	21808	32767	-4115	32767	-6630	-32768	23032	2588	32767	32767	9585	-1664	23720	9272	-526	-1642	-279	0	0	0	0	0	0	11480	-16184	-32768	-253	27	98	-17192	-18344	22816	-4288	-88	1402	130	131	2
-32768	-4752	31940	-32768	24002	1929	-32768	32767	3796	-20447	32767	-12853	-1096	21728	6152	-1178	-3058	227	0	0	0	0	0	0	15144	-19544	-32768	938	2808	-945	-29336	-15536	17872	1554	3039	640	129	124	2
-32768	-21028	32767	-32768	2596	19418	-25596	12124	7976	-32768	32767	-10311	-4424	28968	9352	-844	-3707	551	0	0	0	0	0	0	3088	-1144	-18600	-340	4740	-1668	12320	-15800	-11592	4060	4773	-1319	128	147	2
-29500	-27792	26056	-32768	-8318	28965	-30908	2020	7004	-32768	32767	-8796	-12184	15880	3904	-2564	-3071	-75	-32768	32767	32767	-7858	6819	-13815	-21280	32767	-32768	8314	6766	751	-2464	-10560	32767	22	-971	1947	128	182	2
-28508	-32768	24576	-32768	-21804	29782	-32768	-3988	-3744	-32768	32767	-8066	-32768	-5920	-4176	-5265	-3131	355	17992	-29232	11056	1210	820	-455	-32768	-32768	-25304	-8544	4583	-2810	-32768	32767	-32768	-2941	-284	-1548	127	112	2
-14416	-32768	21036	-9048	-27832	22206	-31196	-10492	-7044	-32768	20994	-1362	-32768	-25056	-26576	-3863	-3842	-1781	-8800	32767	5856	176	1453	986	32767	32767	-32456	8068	7230	-2263	-32768	-15400	-4320	4899	2735	2885	127	87	2
-3536	-28884	16076	15607	-32768	10657	-19172	-10672	-9924	-17646	2570	-2259	-32768	-11896	-4328	1616	-5828	-1770	-10936	2336	17296	298	1834	-374	1440	6080	-32768	1712	1314	2438	-25800	11648	-30600	75	4714	1146	126	109	2
7188	-15888	16832	4609	-32768	-9541	-13012	-12640	-15244	10867	-24268	9071	-32768	1416	-3600	2739	-6257	-2217	-9720	7680	17200	217	1650	-1008	-32768	18408	-32768	-3882	5034	-3578	-25096	32767	-28928	145	3821	-2869	124	125	2
-10984	-26032	11104	-4710	-32768	-32768	-6784	1740	-17432	17422	-32768	-5344	-32768	13328	-22520	3125	-4505	-1594	-10224	22912	24096	-248	3299	-830	-32768	-12880	-21544	-983	2507	-455	-32768	-20184	-3672	-7030	4982	-2284	122	141	2
-14460	-13420	7576	-2731	-32768	-32768	-5912	-1312	-12968	16702	-32768	-13893	-20432	12744	-18320	1216	-4106	-1231	-7528	14816	24744	-376	5785	-2153	-32768	2512	-12576	2570	1230	687	-32768	-19216	11328	-1426	6016	650	126	126	2
-27792	-16896	8712	-5319	-32768	-32768	-9124	-432	-12364	19748	-32768	-14208	-1432	12192	-13840	-823	-2094	-1167	-4152	13200	19576	330	7796	-3973	-32768	8656	-1960	2901	339	876	-32768	4064	14816	1010	4915	-475	126	120	2
-27472	-19852	10432	5131	-32768	-32768	-9820	2548	-14668	8741	-32768	-16248	5632	8896	-16776	-2498	-6	-297	-14696	12256	22912	273	9654	-5467	-32768	15448	6424	1640	-184	156	-24744	10288	10352	2212	5762	450	125	115	2
-32768	-7836	13888	1420	-32768	-32768	-11928	-1632	-22732	11736	-32768	-8431	11200	7840	-25168	-4357	1168	-1	-32768	12872	16080	80	9300	-4704	-28184	10984	9720	1539	-499	-474	-25032	15096	20872	1701	5632	2134	126	129	2
-32768	-12712	-392	-4862	-32768	-32768	-12904	8	-32768	10835	-32768	-3185	17360	4120	-30792	-4172	2128	-95	-32768	22016	5784	-433	8441	-3331	-23200	17464	22392	602	176	-1565	-16656	25192	32767	-1436	3286	1222	127	122	2
-32768	-15800	-3632	-3691	-32768	-32768	-6924	-256	-32768	3828	-32768	-5893	29328	-8672	-32768	4065	301	-118	1120	27752	-10032	-5521	6866	-2528	-21080	18688	17752	23	616	-1677	-12584	6456	32767	-6449	820	186	126	119	2
-32768	8144	-32768	1161	-32768	-32768	-3592	5548	-32768	-20880	-32768	-15773	-1344	-7104	9328	5316	-4791	644	-32768	-2032	20120	-2352	5166	356	-7368	4456	8384	-4888	5970	-1580	-18400	-24592	32767	-6727	-12	648	127	126	2
-32768	13064	-32768	-9865	-22914	-23155	-2824	-6000	-32768	-4152	-15977	-13564	-9672	-14952	32767	569	-3391	-418	-32768	4424	32767	3065	4411	-327	-32768	-14168	11728	-1895	5877	371	-12264	-32768	7816	-1752	-1227	-619	125	129	2
-32768	27996	-32768	-9904	1615	-15069	15164	15108	-32768	9711	3606	1582	-12432	24152	-3544	-440	2272	-145	-32768	21944	32767	5149	2305	-1843	-32768	-8240	7256	3950	5056	1161	-13752	-32768	624	3696	-3783	-2243	123	140	2
-32768	23172	-21856	-494	14781	-2037	9344	18340	-31528	9808	14252	3629	-5416	32767	-32768	-1070	5509	-586	-32768	28160	32767	4787	-100	-2746	-32768	-712	5024	5974	4420	1189	-24744	-12592	-2392	5382	-4538	-1724	125	137	2
-32768	-32768	32767	32767	21588	32767	12048	13628	-26364	7388	14110	1349	-18312	-3240	32767	-2474	-7287	469	-32768	32767	32767	3709	-2704	-2300	-32768	7192	-13520	5851	3215	1421	-32768	19328	-6280	5953	-5160	-1343	127	120	2
-32768	32767	29156	450	15864	10998	-32768	32767	-32768	32767	32767	32767	-32768	14128	-32768	-2766	4720	-342	-17560	32767	25032	1299	-4282	-1196	-32768	1984	-12136	4149	1645	786	-32768	32767	-22400	3945	-5989	-398	126	121	2
-3336	-32768	3372	-3576	13109	-6504	32767	-24800	-32768	-23660	32767	-9901	-22488	18536	-15728	-4291	1162	-1434	1576	20120	19496	33	-4564	108	-21096	0	-19272	3122	-755	1929	-32768	25584	-8008	-2224	-7705	-343	124	120	2
-12644	2660	17748	-4153	11310	978	-25748	5328	-26376	1311	18819	-6543	-18840	5088	-26608	840	4550	4670	-1976	18824	18640	899	-4809	2370	-5936	-576	-18280	1107	-4086	1297	-32768	11744	-3608	-2046	-8443	-555	119	102	2
-8408	-15816	15644	-5009	14093	4775	-32768	-9852	-22904	-4214	28279	3376	-32144	-30976	-21912	197	4433	3550	-14840	18128	11904	1918	-6575	5487	1968	2264	-14696	-642	-5506	2679	-32768	-4208	-23912	-2020	-4787	-217	123	121	2
-8708	-21196	23104	-16	28477	11334	-32768	2364	-13588	13672	16421	-373	-32768	23864	-5784	6091	3899	2759	-18808	10016	7872	1705	-6477	6925	-3464	5144	-11456	-3505	-6839	4118	-20080	-4616	-25128	462	-4825	447	123	117	2
-6320	-16384	28292	-4582	32767	22619	-32768	5332	-7272	-1854	7740	-7406	-32768	23864	14664	2557	4207	3492	-26408	10568	8360	1590	-6125	7671	-9296	-2600	-12928	-5746	-7601	3499	3448	-3776	-26008	1921	-2406	779	125	127	2
612	-21068	24076	-14565	32767	32767	-32768	4740	-4220	-5427	9141	-4580	-32768	-4160	16672	805	6337	2666	-28208	9608	12792	745	-6030	7989	-5512	-6904	-18904	-5148	-8562	2505	15600	-6904	-25328	3933	-332	357	128	123	2
-13448	-6656	26560	-9634	32767	32767	-32768	4208	13504	-21549	-2598	-3579	-28728	-9080	9832	861	7140	1810	-32768	1808	17152	997	-6071	8700	-4248	-7992	-25752	-4131	-9229	1867	28632	2880	-26272	5960	2148	54	128	141	2
-32768	-21236	5156	-3331	32767	32767	-21880	-7568	18684	-6570	5803	5528	-24968	-11224	29176	2035	4999	283	-32768	-1608	10256	1023	-6827	8277	-7352	-14456	-32768	-1324	-9060	1216	32767	16136	-32768	1675	1852	-782	126	135	2
-32768	-32748	-22092	26589	32767	23635	-5240	-17348	14608	23995	28401	9357	-19040	-27384	32767	5602	166	387	-32768	-20128	-6096	752	-7338	5713	-11816	-14152	-32768	2529	-7982	2139	11816	13832	-15880	-4569	-76	-1435	126	121	2
-32768	-2116	7052	32767	32767	1494	-2396	-10004	-7288	32767	32767	11334	-18280	10856	32767	4243	-2681	-495	-32768	-30448	-32768	512	-6853	1194	-13832	-12680	-32768	3223	-7645	2275	-15944	8536	32767	-3610	-2929	-307	125	183	2
-32768	21668	32767	12733	32767	-8600	-32768	20228	1592	32767	32767	12570	-4144	26016	18296	573	-1549	-1123	0	0	0	0	0	0	10368	-11520	-32768	-1486	-1380	545	-15856	-7696	32767	-4481	-2759	1214	128	141	2
-32768	5080	32767	-32768	32458	-2892	-32768	32767	128	971	32767	-11964	-3800	30512	1600	-1362	-2562	274	0	0	0	0	0	0	14072	-26576	-32768	-1482	2384	-1242	-31584	-13800	16096	79	2434	1611	126	147	2
-32768	-18172	32767	-32768	5276	13982	-24612	18148	2756	-32768	32767	-11970	-3032	30672	15160	-1757	-3533	771	0	0	0	0	0	0	9968	-3440	-28576	43	4446	-1546	6832	-17744	4792	2722	5127	-1074	125	95	2
-31900	-26804	27380	-32768	-7516	28547	-32768	3600	4604	-32768	32767	-9151	-14112	16576	-368	-3572	-3198	39	-32768	22288	-1504	-3869	-421	-2999	-32768	32767	23160	-3670	8091	2714	9376	-24432	29880	1499	-3545	886	125	208	2
-32768	-32768	24392	-32768	-17503	32767	-32768	-9848	-7300	-32768	32767	-5877	-32768	-2936	-13728	-5700	-2604	256	-32768	32767	-32768	319	1390	-511	-15992	-32768	-32768	5480	13177	-5469	-15832	9576	-31680	5818	352	-58	124	123	2
-19568	-32768	17720	-13352	-25245	30099	-29584	-8596	-5444	-32768	24627	31	-32768	-24816	-21264	-3101	-5070	-1724	-12904	-5152	20000	-9	1071	61	32767	32767	-11544	7501	6739	388	-28640	-2136	-32768	9686	4027	1524	127	219	2
-4292	-32264	13856	11245	-30969	16254	-17548	-11268	-10980	-21821	5533	62	-32768	-14176	-6608	1375	-6153	-1412	-19392	10024	7920	92	1696	-837	-17032	11264	-32768	1234	971	1718	-32768	32767	-32768	-385	3979	1303	127	123	2
3984	-25188	17720	17457	-32768	-6838	-6908	-14380	-17356	12439	-22010	10892	-32768	1760	-1376	2150	-6071	-2740	-16112	-11624	20056	40	1617	-900	-32768	-13920	-32768	-6274	3861	-3553	-32768	15936	-20024	-6211	4899	-4370	123	121	2
-7000	-18760	12748	2281	-32768	-32768	-6776	-2168	-15920	21702	-32768	-1812	-32768	10824	-23704	2937	-4617	-2040	-11712	13064	27048	-165	3395	-961	-32768	-18056	-30104	-190	1051	498	-32768	-27080	-4896	-3247	6122	-2869	123	112	2
-20292	-15200	8500	2628	-32768	-32768	-6956	-3852	-11896	24989	-32768	-6301	-21248	7336	-18904	1275	-4365	-1667	-5584	19824	26024	-239	6041	-2214	-32768	4128	-7888	2446	1147	175	-32768	-1136	6000	-1008	6328	434	125	128	2
-24980	-11952	8860	-2930	-32768	-32768	-10908	4180	-11804	25656	-32768	-4596	-2792	11568	-15016	-613	-2307	-1365	-1584	12840	22664	663	8160	-4163	-32768	8208	2728	3619	-491	838	-32768	6992	16648	-138	5118	-1438	125	128	2
-27496	-17340	8924	2107	-32768	-32768	-7332	7980	-14220	4897	-32768	-8401	5424	10952	-18832	-1948	-512	-411	-18400	14984	23176	352	9837	-5531	-32768	17232	7848	2323	-590	269	-23224	5976	15584	1217	6963	897	124	133	2
-29624	-9088	12104	3655	-32768	-32768	-8616	500	-20636	392	-32768	-4340	10376	11088	-25464	-3010	653	93	-32768	17432	12088	-611	9403	-4908	-24160	14688	12472	1770	-837	-412	-25176	3672	24800	1171	6154	3144	122	115	2
-32768	-8940	2680	-3580	-32768	-32768	-7260	-1216	-27500	1068	-32768	155	20856	2760	-30576	-3177	1347	284	-32768	21080	-12520	-950	8677	-3383	-18128	18096	15896	140	705	-1698	-22744	29960	32767	-437	2709	815	124	137	2
-32768	-13380	-16176	7118	-32768	-32768	-6940	-1580	-32768	-2950	-32768	-6572	32767	-3984	-32768	4163	3	521	-32768	-288	-26144	-3870	7585	-2961	3208	16472	6744	-2780	3672	-1861	-16944	6840	32767	-4604	-747	-99	125	120	2
-32768	1940	-32768	5205	-32768	-32768	-1356	1168	-32768	-16992	-32768	-15220	8256	-1936	2456	4639	-3189	1069	-32768	5400	20136	-1651	5154	-545	-16320	4920	8928	-3495	7124	-1540	-11608	-28056	29864	-5342	331	940	125	135	2
-32768	11844	-32768	-7220	-30110	-32768	-8296	-11104	-32768	-2046	-24447	-12491	-6848	-9408	32767	1150	-2999	570	-32768	6168	29408	2528	5740	-1235	-32768	-17120	12624	-438	6395	935	-8712	-32768	3384	-373	-1411	-212	128	134	2
-32768	25700	-32768	-5339	-1350	-20373	11580	8544	-32768	15979	-3146	4158	-27368	3576	18224	-2303	-479	-901	-32768	23032	32767	5256	4472	-2446	-32768	-400	10376	4382	6040	445	-11704	-27392	3304	3746	-3484	-1315	127	140	2
-32768	23212	-30240	-4851	6372	2068	11956	8988	-32768	4377	16086	3336	-7744	25128	-27344	-645	5372	-918	-32768	30968	32767	4986	2034	-3265	-32768	2592	4752	5660	4972	876	-19304	-11808	-2280	4099	-4048	-1484	124	132	2
-32768	32767	-32768	-22845	32712	32767	13956	964	-32768	14292	28675	-7242	680	32767	-1104	-1929	4754	-363	-32768	31880	32767	4889	1570	-3266	-32768	4808	-3168	4980	4412	1455	-29312	3648	856	3500	-4805	-1278	127	120	2
32767	32767	32767	32767	15080	8072	-32768	8088	-31764	32767	32767	-14277	-32768	-32768	-32768	-7495	3579	-311	-25096	32767	30320	2287	-3120	-931	-32768	7296	-12360	3015	2709	633	-32768	30400	-14696	4265	-5529	-1386	127	121	2
6456	32767	32767	-1562	9355	3044	27864	16888	4460	-22697	32767	-6848	-28512	-8368	-32768	1817	757	726	-960	27160	24296	-848	-3824	120	-28576	-4104	-16856	2893	797	1722	-32768	23744	-16736	-225	-7137	406	127	119	2
-10972	-16540	9288	-5697	12618	-1363	18252	-30148	-28160	-1907	32767	-6357	-16872	19664	-30464	-3291	4209	1487	-1720	12816	23512	580	-4455	2322	-2880	408	-19808	1779	-3352	1573	-32768	11040	-3568	-2068	-8023	-870	122	125	2
-8244	-15408	15200	-4973	16092	4014	-32768	-15208	-25396	4521	19290	3986	-21888	-15568	-31720	2794	4782	4311	-13864	18920	16056	2018	-6821	5288	3200	-3200	-15520	360	-5368	2434	-32768	2200	-15056	-2554	-6131	468	127	125	2
-11280	-12992	24344	-165	27620	10151	-32768	4636	-32048	18759	16181	182	-32768	-7280	-8856	3550	3157	2844	-18200	11424	10432	1409	-7149	7091	-2408	5680	-10152	-2866	-6746	4443	-32768	-4744	-25104	-158	-4828	-7	126	107	2
-5920	-13916	29624	-5880	32767	24086	-32768	11152	-8904	-1565	8005	-13586	-32768	32767	11960	4037	3524	3401	-28104	7656	10464	1104	-6675	7880	-13448	-336	-10232	-5970	-7788	3799	-4488	-2856	-27248	1045	-4007	627	126	128	2
-5504	-13040	27748	-6906	32767	25695	-32768	8636	7388	-23709	6338	-2822	-32768	32767	14664	3060	3749	3249	-29120	9688	13400	384	-6739	8053	-11128	-7352	-18528	-5853	-8425	2628	6288	-4032	-28824	1891	-1575	587	127	126	2
-16772	-5944	24036	-16873	32767	32767	-32768	-1268	14512	-32768	695	-2732	-23272	-12640	10856	-108	6982	2321	-32768	1240	16504	674	-7010	8810	-2960	-10032	-21096	-5131	-9388	1664	21768	-4696	-32168	4896	1182	410	127	142	2
-32768	-17232	11228	-17660	32767	32767	-26272	-8460	20580	-14561	1264	5274	-25304	-12560	15120	1178	6019	1230	-32768	-504	13096	1045	-7242	8602	-2832	-12280	-32768	-3134	-9669	944	32767	12688	-32768	4059	2343	196	126	139	2
-32768	-25132	-17372	5639	32767	24872	-14968	-18524	15456	12372	19921	9180	-22064	-31424	32767	3377	2861	-139	-32768	-16144	4344	925	-8410	7192	-5232	-16576	-32768	1516	-9117	1843	26056	11728	-28480	-3043	-242	-1526	124	110	2
-32768	-14892	-22564	32767	32767	14833	3172	-13480	-996	32767	32767	7167	-15272	-10984	32767	5952	-2622	714	-32768	-32768	-26104	1316	-8800	2765	-29688	7224	-32768	5144	-6444	3385	624	1688	14344	-3271	-1573	-1041	127	120	2
-32768	9980	21552	32767	32767	-9410	-21528	6972	2700	32767	32767	16656	1496	25928	28928	3426	-2303	-1490	0	0	0	0	0	0	2408	-11496	-32768	855	-3295	1961	-20568	1912	32767	-2847	-4505	-131	126	144	2
-32768	15712	32767	-23118	32767	-7228	-32768	32767	516	32767	32767	-3481	-12456	30352	4080	266	-2204	-240	0	0	0	0	0	0	9440	-31752	-32768	112	966	-204	-32768	-21416	28064	-2422	285	795	127	153	2
-32768	-3816	32767	-32768	20788	2243	-22240	15360	2528	-32768	32767	-9338	1544	32272	11784	-1795	-2925	640	0	0	0	0	0	0	13816	-17952	-31936	1620	3024	-1577	-6024	-17704	4160	1539	5463	-219	125	148	2
-32768	-19492	29212	-32768	-2813	15643	-29960	8160	-888	-32768	32767	-12401	-2144	29400	4456	-4122	-2378	940	0	0	0	0	0	0	-2608	-5768	-10592	-865	4074	-2460	12888	-6616	-32768	9021	5061	874	125	174	2
-30732	-27012	19840	-32768	-17354	27389	-32768	-2412	996	-32768	32767	-8756	-6152	26120	2672	-3986	-2142	825	-32768	-32768	32767	-7182	487	-1928	-32768	32767	-23528	-16427	10927	2199	776	-4664	32767	4419	-7331	-809	127	72	2
-28800	-32768	20408	-32768	-27155	32767	-32768	-13184	-12868	-32768	32767	-6103	-32768	-14088	-20360	-5745	-1997	-806	-16968	-32768	26304	-1560	761	-477	-9264	-32768	-32768	8520	11890	-4071	-7744	32767	-14472	6065	-4951	-2632	124	150	2
-25260	-32768	19832	-32768	-28121	32767	-28932	-9792	-8828	-32768	20035	-1146	-32768	-23480	-20104	-1492	-5366	-2141	-12280	6864	15304	64	1590	-150	32767	32767	-4744	5389	6230	2035	-25288	-13872	-32768	2560	4485	1822	126	124	2
5664	-28428	14960	17174	-32768	14111	-11984	-15368	-14780	-7841	-7405	3858	-32768	-13256	-5320	2979	-6244	-1899	-13232	14552	9664	-119	2004	-901	-31928	32767	-7136	-83	983	353	-24824	32767	-27880	921	3760	-2013	124	97	2
3356	-16620	14052	-239	-32768	-17048	-12532	-17140	-13336	-1191	-11768	6291	-32768	11056	-10696	3432	-6079	-2450	-16000	-5728	24528	-184	2507	-641	-32768	-18840	-32768	-6048	3797	-3692	-32768	17824	-15792	-6308	3801	-3553	125	151	2
-8924	-27552	7480	122	-32768	-32768	-3296	-408	-16892	20368	-32768	-12866	-32768	17752	-21200	2563	-4614	-1539	-7432	11944	32032	-776	4659	-1514	-32768	-14744	-23224	778	340	1359	-32768	-32768	696	-3995	5031	-1235	125	116	2
-22408	-11148	6576	984	-32768	-32768	-5644	-420	-12360	26257	-32768	-11303	-10224	10528	-17360	-40	-3518	-1729	-4232	19296	21520	-647	6947	-3277	-32768	6464	-5416	2486	1415	171	-32768	-8840	9432	-530	5818	476	125	114	2
-24936	-18896	6880	1968	-32768	-32768	-10464	1560	-10816	20650	-32768	-13429	4040	10184	-15416	-1856	-1000	-1255	-5128	11872	19640	43	8553	-5027	-32768	12888	13704	3011	-284	524	-30544	6184	14384	2262	5071	-852	125	132	2
-28932	-15660	10272	12927	-32768	-32768	-11000	-1484	-16320	18684	-32768	-10994	6936	6696	-19736	-3094	460	-539	-29256	13600	16816	-496	9125	-5346	-28128	12040	3416	1629	-263	-317	-21608	14560	9496	2731	5952	1268	125	133	2
-32768	-9460	9576	4301	-32768	-32768	-9400	-4312	-21676	24506	-32768	-597	7416	5936	-21488	-3258	573	-456	-32768	-232	22872	-444	8814	-4268	-26208	16352	13840	1581	-477	-1008	-24344	21976	24728	878	4924	2250	124	140	2
-32768	-9552	-2816	193	-32768	-32768	-10092	1928	-32768	13026	-32768	4894	24184	-1984	-32768	1082	2073	-153	-32768	32767	-14416	-4256	8148	-3485	-13008	20920	8976	-1266	1595	-1793	-10136	21520	32767	-3691	1872	688	124	115	2
-32768	-10852	-20868	12369	-32768	-32768	-3784	3376	-32768	-13916	-32768	-6839	16680	-3376	-25536	6389	-2888	1121	-32768	1864	9656	-5535	6404	-445	-4696	7336	3000	-5008	4246	-2192	-16952	-10600	32767	-7560	25	494	125	128	2
-32768	5088	-32768	-2264	-32768	-32768	-6444	-1712	-32768	-32768	-32768	-22005	-688	-632	30984	3594	-4288	814	-32768	-3424	26072	627	5469	517	-29416	-3880	14920	-4026	6549	-795	-12704	-31784	23016	-5267	-137	470	128	128	2
-32768	20220	-32768	-12306	-19778	-20745	3316	-896	-32768	2549	-14892	-7356	-13112	-8000	32767	-3384	-2350	86	-32768	14320	31368	5579	4203	-855	-32768	-25224	4024	1912	5975	1429	-7136	-32768	4072	1105	-2116	-1196	122	132	2
-32768	30764	-32768	-12692	6985	-14870	17764	14540	-32768	7978	5401	2347	-10712	32767	-21144	643	4622	-527	-32768	25976	32767	6575	1838	-2504	-30984	2376	6920	7013	5183	1499	-20024	-30992	-736	4823	-3842	-1863	120	144	2
-32768	32767	-32768	146	30468	32767	13728	-5028	-32768	7075	25517	-10937	-5712	30616	11560	-2199	3951	-1211	-32768	32160	29632	5583	-522	-3026	-32768	4032	-8056	6654	4489	1536	-29384	-3296	-4184	6453	-4686	-1729	122	131	2
32767	32767	32767	32767	27037	20999	-32768	28616	-13208	32767	32767	-1570	-32768	-29664	-32768	-8416	5103	-1264	-32768	32767	29816	3256	-2623	-2153	-32768	6928	-13560	4984	2719	1001	-32768	32767	-21592	6467	-4906	-1536	123	118	2
-32768	32767	32767	-3323	10395	-664	32767	-44	-12984	-30595	32767	-13714	-24152	3800	-32768	1683	1428	401	-14000	32767	21272	1	-4114	-594	-31824	-1696	-15096	3606	1623	1491	-32768	27968	-22736	88	-7115	656	125	119	2
-13072	-21288	8728	-4183	11695	-2252	1452	-32768	-32768	-2671	31728	-4927	-26632	30424	-29064	-773	3495	2143	4856	16376	20024	-68	-4386	1126	-10248	1488	-16544	2962	-2399	2134	-32768	19912	4856	-2518	-8025	-142	125	124	2
-13840	-7296	11280	-6009	14114	2941	-32608	-9784	-32092	600	15245	1509	-30136	-6256	-28648	3075	4505	5568	-4360	18512	15864	1456	-5360	3648	-720	-4952	-16592	315	-4341	2318	-32768	5800	-13128	-2366	-6953	282	124	136	2
-11336	-6152	24680	-3020	21337	7901	-32768	-632	-32768	14609	18078	1099	-32768	-8744	-11592	3825	3686	1998	-15104	13008	10152	1616	-6258	6266	2272	4432	-10616	-2627	-5462	3823	-32768	-3248	-24504	-878	-4401	65	125	111	2
-7748	-19240	29228	-2334	32767	20648	-32768	3248	-10884	1415	7219	-10844	-32768	31472	10576	3740	3971	3121	-22248	9280	9360	1247	-5907	7696	-8496	1888	-10488	-5644	-6909	3870	-7680	-4352	-22632	1205	-4610	853	122	119	2
-860	-16260	23720	-13106	32767	32224	-32768	9916	3172	-17963	2062	-4849	-32768	5816	16136	786	4699	2396	-25272	12232	10096	98	-5973	8071	-10904	-4952	-14872	-6416	-7593	2643	2480	-1928	-25208	2120	-2100	949	126	125	2
-7572	-9340	24180	-16932	32767	32767	-32768	1204	13120	-32715	530	-86	-23768	-3072	16360	-111	6782	2736	-30984	2936	15016	-311	-5934	8526	-5952	-6424	-19216	-5938	-8781	1640	15152	-2368	-29568	4050	131	719	127	115	2
-31304	-10880	14624	-20070	32767	32767	-30056	-5080	19924	-25849	-408	1342	-24888	-952	13200	258	6173	958	-32768	1760	16384	577	-6233	9003	-3720	-10096	-25872	-4945	-9278	712	28704	12992	-32768	4132	2445	462	127	147	2
-32768	-16016	-17996	-10488	32767	23868	-17080	-14656	9892	-753	13923	6696	-25168	-24376	32767	205	4292	-209	-32768	-2032	10576	674	-7530	7883	-5016	-16512	-32768	-497	-9325	841	32767	14080	-32768	-2893	806	-1091	125	129	2
-26396	-29004	-32768	32767	32767	26411	6712	-22584	1252	32767	32767	4469	-19360	-32768	28288	1969	-96	860	-32768	-14056	-10240	0	0	0	-9584	-15264	-32768	3682	-8491	2239	15040	1736	-14352	-5421	-545	-1679	122	122	2
-32768	4800	9936	32767	32767	-2743	-11492	-2556	-1312	32767	32767	16340	-13648	-7840	24560	3579	-2530	-1070	0	0	0	0	0	0	-27864	17160	-32768	4353	-5716	3638	-4472	-6528	23992	-3616	-1758	-929	124	170	2
-32768	11672	28288	-6431	32767	-7396	-32768	23416	1316	32767	32767	9503	6872	23504	15408	3735	-1348	-1669	0	0	0	0	0	0	3376	-10952	-32768	-1109	-2512	1296	-13672	-13176	32767	-3395	-4014	-137	126	130	2
-32768	-784	32444	-32768	32767	2073	-30660	32767	3792	-6207	32767	-13810	-5344	31944	10216	2689	-2644	181	0	0	0	0	0	0	11248	-27872	-32768	-1913	1435	-1159	-32768	-16032	19872	61	2330	2205	125	157	2
-32768	-10640	32200	-32768	14766	12415	-29176	25404	1248	-32768	32767	-14271	432	32767	12200	-1440	-2601	727	0	0	0	0	0	0	16384	-11576	-30856	-1487	4297	-1860	-5856	-15728	16760	1278	3162	620	127	146	2
-32768	-21640	24200	-32768	-879	24098	-32176	3876	3160	-32768	32767	-6920	-9096	26856	344	-3918	-2617	229	0	0	0	0	0	0	13152	-9432	-26632	-1793	4618	-1962	-856	-14560	6600	4456	1427	947	125	120	2
-31324	-29720	20420	-32768	-10983	31453	-32768	-4460	-3736	-32768	32767	-5774	-28336	3648	-7520	-6497	-3151	658	2256	-32768	32767	-3035	2474	-3889	-32768	-32768	-32768	-24764	4087	2580	-32768	19880	-32768	5913	-1737	-3008	125	125	2
-23676	-32768	19980	-25828	-18741	31041	-32768	-12104	-9156	-32768	29050	620	-32768	-27056	-31584	-6157	-2904	-2081	-32768	-32768	32767	1797	276	-2144	32767	17488	-32768	11530	8144	-469	-32768	-2368	-28008	4229	690	3039	126	102	2
-11032	-32768	17632	7883	-30358	24073	-21792	-7260	-8288	-21025	14391	32	-30312	-12888	-5240	2185	-5501	-1604	-3784	14544	16472	49	2106	-218	8600	-616	-18768	1122	1481	1462	-904	21592	-32768	1081	5121	1333	125	96	2
4344	-23240	17768	12244	-32768	4797	-13064	-14336	-11172	3707	-10931	7336	-32768	-5512	-416	2660	-6472	-1846	-9992	16904	10704	194	1949	-1111	-32768	32767	-5656	-1131	3400	-2156	-26640	32767	-32768	-190	2416	-2243	123	133	2
348	-21288	17160	3135	-32768	-23841	-7192	2192	-18936	22540	-32768	-129	-32768	17784	-19000	2895	-5492	-1802	-14176	3608	22568	-72	2609	-670	-32768	-29104	-32768	-4194	3143	-2237	-32768	-30672	-11160	-7791	5085	-3144	121	138	2
-10152	-19708	9816	2288	-32768	-32768	-2120	-1208	-16408	20102	-32768	-12133	-32768	16208	-19600	1265	-4692	-1809	-8064	8032	29688	-384	4596	-1777	-32768	-3352	-18968	2535	1123	2158	-32768	-21744	12616	-950	4156	533	124	132	2
-27412	-13128	9276	2599	-32768	-32768	-7252	1032	-10256	25615	-32768	-9977	-12112	9152	-17424	-1078	-3279	-1814	-3800	14496	19192	-30	6550	-3393	-32768	7448	-8784	2818	1214	960	-32768	-2104	8008	-444	5573	-647	125	130	2
-30352	-17756	9448	356	-32768	-32768	-10184	4316	-12780	16120	-32768	-12178	2424	9936	-18416	-2699	-691	-1079	-5560	8232	14232	1163	8428	-4410	-32768	8248	7136	3519	-391	524	-32032	5008	14760	1612	5252	-1398	124	117	2
-31452	-15340	11884	11262	-32768	-32768	-11428	-928	-12996	10988	-32768	-8976	9000	7776	-22424	-3266	673	-397	-4632	9584	17264	1088	8636	-4565	-30280	14088	1872	2614	-445	-250	-25688	11040	6640	3124	5882	1046	124	144	2
-32768	-5376	14672	4048	-32768	-32768	-11904	244	-23236	15327	-32768	-5	19120	3296	-28592	-2912	1371	2	-32768	6808	16512	-279	8774	-4302	-22696	15952	9856	1082	-929	-868	-24856	12760	8216	3155	5971	1580	123	121	2
-32768	-14708	-852	1271	-32768	-32768	-12728	3712	-32768	-1015	-32768	3605	32767	-8688	-32768	2665	2425	410	-32768	30856	-6400	-2035	7399	-3442	-18992	27256	12520	-1349	210	-2060	-11016	32767	32767	-3072	2827	870	123	108	2
-32768	-8664	-17620	13757	-32768	-32768	-9452	604	-32768	-14612	-32768	-6865	16976	-1264	-22512	5658	-2908	1822	-32768	5216	-15600	-6039	6537	-3378	-2728	11528	6152	-5062	3548	-1922	-16704	-3504	32767	-9786	-190	34	124	129	2
-32768	2140	-32768	1300	-32768	-32559	-17940	-10292	-32768	-25350	-32768	-21732	-3168	2504	32767	3251	-4284	1166	-32768	-1736	22976	-353	4562	162	-17296	-4840	9024	-4802	6714	-1257	-16520	-32768	32008	-7532	581	677	125	133	2
-32768	20212	-32768	-9908	-15737	-20637	4364	4636	-32768	14983	-13092	-2411	-22264	-6032	32336	-1535	-1876	129	0	0	0	0	0	0	-32768	-23600	10184	100	5915	1068	-8088	-32768	7104	114	-1393	-518	125	109	2
-32768	22568	-32768	-8675	7989	-17755	13584	9988	-32768	8150	10472	3246	-23672	22304	12240	-516	2440	-1778	0	0	0	0	0	0	-32768	-1976	7280	5050	5137	1401	-10320	-32768	56	5626	-3804	-2398	125	142	2
-32768	18884	-22120	-1031	18123	-2322	5524	5996	-28944	11232	21024	2788	-568	19864	-32768	-1691	6244	-791	-32768	27544	32767	4260	403	-1956	-32768	3632	3464	5849	4373	1233	-25072	-5264	-6040	6798	-4562	-1689	128	139	2
-18848	-3824	-32768	12868	32767	32767	2344	-32768	-32768	-23450	32767	-16131	8944	24968	32767	-2173	784	-597	-32768	25944	28808	3713	-1983	-1806	-32768	4920	-5968	5644	3235	1332	-32768	19912	-2504	5080	-5121	-887	125	122	2
32767	32767	32767	32006	32477	32767	-32768	32767	-13808	32767	32767	1056	-4464	19360	32767	-1697	-4161	-551	-23200	32767	27000	1882	-3131	-1201	-32768	5424	-12832	3428	2504	436	-32768	32767	-18504	2656	-5253	-469	126	116	2
-32768	32767	29292	-99	10385	-1921	30820	-17472	-12220	-21060	32767	-9617	-19840	14056	-32360	1268	-863	355	-7488	25592	22048	-985	-4448	-442	-32768	3896	-13448	3181	2339	373	-32768	22224	-11264	-2303	-7706	344	126	117	2
-12024	-7672	10856	-4392	11539	-1012	-13892	-9768	-32768	8108	25029	-7560	-17904	24808	-21408	-429	4299	2138	-600	14640	20224	175	-5416	1723	-2888	4384	-18104	1035	-3524	1528	-32768	18504	-5512	-2911	-7821	-472	122	118	2
-10412	-14572	11856	-4858	12629	3789	-30548	-11100	-19764	5192	23057	9040	-15648	-7336	-26456	2319	4699	3959	-13552	17048	11872	1489	-7008	4795	-272	-3552	-16592	-1380	-5361	1639	-32768	-3304	-19368	-2511	-5035	324	127	130	2
-7564	-18320	22112	-3651	20990	7069	-32768	1672	-21200	10040	14280	-1165	-32768	-3784	-15208	2432	4187	2298	-18824	12136	7920	864	-7109	6911	-2112	2448	-11416	-3234	-7088	3665	-26280	-5168	-21504	-16	-4366	777	126	113	2
-7884	-14088	28000	-2892	32767	19847	-32768	8684	-11472	-6268	6106	-14888	-32768	32767	14584	2073	3822	2623	-28640	10448	7832	392	-6590	7706	-10928	-704	-11056	-5482	-7903	2681	-1848	-1624	-24608	1350	-3144	646	125	138	2
-764	-19384	23776	-18211	32767	32767	-32768	3860	6352	-19726	2298	-6426	-32768	-3376	14624	-1333	5901	2908	-30656	9256	11880	-486	-6521	7809	-11312	-3208	-19272	-5645	-8544	1727	7512	-5016	-25160	1976	-548	518	127	123	2
-9040	-10500	25584	-17727	32767	32767	-32768	1620	14620	-31618	-123	33	-29568	-9968	10904	-354	6615	2513	-32768	1040	12496	318	-6867	8388	-4312	-9312	-23272	-4948	-9296	1077	20952	-2344	-27224	4803	1730	281	125	136	2
-31640	-9736	11520	-18624	32767	32767	-26584	-5504	18432	-25279	-148	578	-24728	-7792	18528	1486	5459	981	-32768	-1416	9368	792	-7238	7754	-2744	-10752	-32768	-2301	-9206	551	29584	12536	-32768	2655	2358	-490	127	144	2
-32768	-1140	-5296	-13759	32767	21968	-15764	-12812	18300	-3127	17362	6575	-24896	-32768	32767	1951	2828	550	-32768	-15728	-2808	303	-8144	5234	-5392	-12832	-32768	1910	-8473	1695	25352	10624	-27880	-4015	-366	-1984	127	114	2
-32768	-15336	-32768	32767	32767	20017	4040	-19800	6428	30817	32767	7018	-15688	-20216	32767	3623	-1253	502	-32768	-30904	-29600	1420	-7817	1706	-21688	2648	-32768	4852	-5955	3045	1960	2112	16728	-3775	-1624	-1235	127	121	2
-32768	-3100	16476	32767	32767	-4112	-18084	-1448	5064	32767	32767	15536	-4016	7616	29216	3473	-2444	-1406	-32768	-32768	-32768	1950	-4746	-1626	5304	-8440	-32768	779	-1952	1424	-15448	-4648	32767	-2748	-4304	222	125	128	2
-32768	13776	32767	-15228	32767	-3228	-32768	32416	4412	32767	32767	3943	-12264	26216	6280	1075	-2472	-753	-32768	-32768	-32768	914	305	-1238	15808	-27040	-32768	369	1911	-573	-32768	-17760	23200	60	1175	674	126	175	2
-32768	-10580	32767	-32768	22192	9072	-28032	21576	5312	-28092	32767	-9739	-1992	31080	12144	19	-2991	590	-32736	-27248	-19192	-1358	3074	-865	9376	-7672	-20952	444	3818	-1531	3744	-22504	-13184	5060	5574	-1196	126	132	2
-32768	-21236	29472	-32768	-3025	24111	-31516	4088	3248	-32768	32767	-10996	-3976	27200	1256	-2915	-2449	635	-32768	32767	32767	-10752	5247	-15827	-32768	32767	-32768	5650	6815	1083	-11888	-1872	32767	-559	-2046	2793	127	158	2
-32768	-31952	24244	-32768	-16055	32767	-32768	-2768	-4520	-32768	32767	-7494	-32768	3136	-7880	-5736	-3156	-654	32767	32767	-1760	818	1298	219	-32768	-32768	-32768	-12859	8908	-3145	-32768	32767	-32768	-2893	3196	315	126	163	2
-19300	-32768	20700	-21028	-23411	32388	-31368	-8296	-4232	-32768	27341	1540	-32768	-23616	-30784	-5837	-4087	-1631	-7640	32767	7080	254	1237	733	32767	32767	-27128	10378	6315	-1025	-28888	-19488	-4056	4439	2132	2428	127	127	2
-11224	-32768	17356	12627	-32169	21325	-20716	-4152	-13728	-25217	10850	-3161	-32768	-13768	-5208	1506	-5899	-1519	-6296	2552	20256	85	1569	-510	1880	3360	-32768	2770	698	2677	-14632	10384	-32768	1074	4010	-118	127	144	2
8364	-14548	15812	12543	-32768	-512	-12224	-9692	-12044	-4408	-13178	5845	-32768	-5848	352	2487	-6481	-2118	-7472	21352	11840	165	1539	-872	-32768	20824	-25160	-3729	5274	-4802	-32768	32767	-31160	1091	3294	-1246	127	145	2
-1228	-17696	13444	-6867	-32768	-25288	-5164	-96	-15704	10611	-32768	-388	-32768	15872	-22448	3374	-4963	-2108	-11528	12192	24200	-318	2862	-687	-32768	-17200	-13032	-2153	1451	-675	-32768	-20280	-5480	-7283	4114	-2785	128	137	2
-12084	-18788	9360	-1798	-32768	-32768	-1452	-3184	-14064	12865	-32768	-16094	-27552	14288	-19544	1522	-4872	-1292	-8504	11152	26392	-660	5022	-1986	-32768	544	-16464	1794	1401	314	-32768	-22344	12344	-2206	6520	318	127	161	2
-18376	-9232	6244	-5343	-32768	-32768	-6428	2748	-9308	20325	-32768	-13078	-5800	9488	-14704	-1087	-2904	-1369	-2664	14280	20456	247	6895	-3864	-32768	2992	-5584	2473	566	926	-32768	-4024	11832	-528	4930	-678	125	128	2
-25132	-18736	7452	-308	-32768	-32768	-8588	1524	-11372	14674	-32768	-16345	3744	7624	-16664	-2673	-783	-656	-3032	11536	20248	329	7164	-4046	-32768	15248	8944	2530	130	354	-24176	7864	14928	1587	5582	-538	125	131	2
-26824	-11976	11148	8241	-32768	-32768	-9188	-1676	-15656	17771	-32768	-9564	7168	5520	-22768	-3303	470	-125	-29832	15600	15440	167	9166	-5173	-28496	9152	4376	2398	-595	-3	-23200	7256	12576	2456	5997	1912	127	148	2
-32768	-3120	8032	1251	-32768	-32768	-9916	-644	-20480	23239	-32768	-760	16368	4976	-28056	-3065	1136	39	-32768	-4688	13280	-279	8446	-4225	-23416	20512	16496	2329	-661	-932	-22096	22720	25824	1759	4189	2136	125	139	2
-32768	-9236	-6032	-3406	-32768	-32768	-6724	2436	-32768	12329	-32768	2491	28944	-6432	-32768	2666	1963	-50	-32272	32767	-15072	-3998	7059	-3685	-5424	25824	11104	-1858	1783	-2043	-12248	25360	32767	-3163	1192	418	127	104	2
-32768	-5724	-21824	11586	-32768	-32768	-732	6924	-32768	-14584	-32768	-7164	12136	-3904	-17304	5373	-2789	1292	-32768	1624	11472	-5576	5480	-911	-1048	8984	3048	-6186	5173	-1930	-12064	-10936	32767	-8000	-473	514	128	133	2
-32768	4880	-32768	-7016	-32768	-32768	-8816	-5656	-32768	-30283	-32768	-22631	-4064	1080	30544	3118	-3701	997	-32608	512	25824	492	5020	260	-32768	-6360	13016	-3994	6768	-646	-12960	-31992	20368	-5331	-397	648	126	125	2
-32768	22292	-32768	-12307	-11642	-19280	4876	3504	-32768	5195	-11417	-4420	-18664	880	27520	-2930	-1608	681	-32768	16016	31912	4823	4211	-1117	-32768	-19728	6568	1874	5859	1324	-10104	-32768	4688	1775	-2460	-1054	122	136	2
-32768	27552	-32272	-11659	4005	-1835	14184	14404	-32768	2465	9602	2750	-8912	32767	-23096	885	4660	-158	-32768	26176	32767	5607	1871	-2189	-32768	1360	6320	5618	5085	1199	-20104	-25832	1352	4246	-4188	-1735	122	139	2
-32768	10416	-32768	-10404	27454	20912	9844	11060	-23572	7375	17078	-1195	-928	19720	-25624	-3101	5355	-1104	-32768	28032	32568	4799	-935	-2090	-32768	-656	-800	6053	4316	1419	-23248	-4976	-1576	5294	-4881	-1600	122	130	2
32767	32767	32767	32767	4487	12824	-32768	-32768	31212	32767	32767	-8271	-29496	-32768	-32768	-7678	2566	-2719	-29568	32008	32767	3041	-2817	-1655	-32768	8168	-14312	5381	2996	1033	-32768	32767	-16832	5833	-5034	-1341	124	123	2
-32768	-32768	-10320	-2462	14240	-6156	32767	32767	-23800	-31955	32767	-309	-23056	-8480	-28128	4525	-615	750	-10800	31200	25312	-212	-3871	-759	-32072	-3152	-14888	3954	1183	1129	-32768	31112	-26728	-5	-6972	1380	124	122	2
-7012	-14732	12768	-3957	11832	-2377	29608	-32768	-22760	5237	32767	5124	-17752	28416	-23400	-2114	3451	1056	1992	14248	23144	275	-4677	1054	-8040	4392	-22432	2934	-2271	1867	-32768	15432	912	-3182	-8107	-1195	126	126	2
-12652	-18736	9168	-3314	12731	-1796	-32768	-4516	-31880	5156	19306	7874	-12488	-12968	-28704	2703	3731	4605	-7648	20288	17088	1875	-6223	3758	-1320	-6216	-16992	119	-4898	1665	-32768	2752	-11056	-2666	-7387	379	127	132	2
-12892	-4452	22380	-1923	21042	7069	-32768	-2684	-18316	2275	24670	8564	-32768	-17680	-12464	1722	3562	2904	-14856	13992	10328	1616	-6835	6410	-296	1704	-11088	-2514	-6281	4300	-32768	-4008	-25504	-856	-4597	-214	128	109	2
-8464	-12408	27620	402	32767	17930	-32768	9100	-16116	4056	11957	-12577	-32768	32767	7880	4122	2553	2678	-26720	10480	10720	1209	-6179	7912	-9016	344	-11624	-5558	-7574	3903	-7568	-4000	-24208	1114	-4273	581	128	121	2
-1948	-20956	22132	-8631	32767	28749	-32768	7304	148	-11553	10083	-320	-32768	8008	13648	661	4803	2157	-28192	10920	10624	1158	-6174	8047	-12320	-3200	-17808	-6173	-8212	2781	3416	-4088	-27656	2077	-1843	692	128	127	2
-5196	-9404	24008	-12760	32767	32767	-32768	6300	8928	-23373	2871	1029	-29392	-12696	10152	-214	6271	2312	-32768	4512	13784	-118	-6176	8826	-7648	-6072	-24824	-6246	-9480	1906	17776	-5864	-29928	4420	699	407	125	118	2
-31528	-7636	21540	-8459	32767	32767	-30612	-4712	14980	-19465	1117	4682	-29008	-15248	6648	1160	6261	1157	-32768	-576	10040	635	-6369	9176	-2776	-10816	-32768	-5182	-9331	626	32192	14152	-32768	4195	2681	174	125	146	2
-32768	-4420	20684	2360	32767	28538	-19100	-9432	21832	3737	6430	8074	-21592	-23336	30456	2393	4434	-18	-32768	-13408	-232	467	-7453	7551	-2984	-16840	-32768	305	-8722	863	30752	17056	-32768	-2717	419	-1270	127	105	2
-13792	-32768	-20048	32767	32767	13861	-5320	-17908	10112	32767	30416	11728	-11312	-15336	32767	6225	-1321	995	-32768	-27176	-20624	122	-7579	3486	-13408	-5416	-32768	4356	-7092	2543	8008	4344	5312	-3920	-734	-991	128	117	2
-32768	120	10204	32767	32767	-6401	-12612	-5060	848	32767	32767	12054	-17008	13616	32767	5528	-2664	-580	-32768	-32768	-32768	1152	-6686	-467	-6960	4176	-32768	1718	-3350	2173	-17936	-2904	32767	-2840	-3697	201	128	131	2
-32768	19176	32767	-7437	32767	-7721	-32768	28248	4436	32767	32767	7019	-8520	29296	14888	1412	-1461	-682	0	0	0	0	0	0	13680	-18744	-32768	-1668	306	-44	-26424	-17488	20584	-2994	-226	1504	126	126	2
-32768	-2976	32767	-32768	23516	3642	-32768	26800	-1404	-16186	32767	-10884	1048	32767	9720	-2179	-2577	534	0	0	0	0	0	0	15992	-24888	-32768	221	3047	-1239	-22744	-12896	20656	2116	3405	239	127	129	2
-32768	-12980	32296	-32768	759	17010	-23924	10532	4184	-32768	32767	-13330	-720	32352	8464	-3411	-2171	1022	0	0	0	0	0	0	5936	-4408	-20896	-575	5163	-1825	15648	-10384	-21008	4858	5141	-972	125	123	2
-28544	-22900	22860	-32768	-11933	26866	-32348	4208	2856	-32768	32767	-9783	-19376	12440	-3464	-5332	-2700	591	-32768	32767	25744	-2614	-715	-4637	-32768	32767	32767	-5810	7815	3326	-4768	-3944	32767	2191	-6758	1255	126	165	2
-29900	-32768	21136	-32768	-23733	31184	-32768	-9156	-12352	-32768	32767	-7365	-32768	-11496	-16152	-5590	-2150	-713	-32768	32767	-32768	506	1583	211	-18096	-32768	-32768	5497	14414	-6381	-32768	14168	-32768	3944	2495	88	126	44	2
-18696	-32768	15880	-11098	-30189	23966	-29568	-9952	-6440	-32768	22171	-1339	-32768	-24536	-21384	-2475	-5190	-1607	-7544	608	24536	88	1245	224	32767	32767	6736	6176	5749	366	-19544	-19600	-22800	8383	4157	1632	122	182	2
-1328	-27676	14784	7973	-32768	12116	-15512	-12676	-11348	-19114	2133	1764	-32768	-13992	-6784	2343	-6089	-1275	-16120	-3192	15288	213	1753	-747	-16792	2824	-32768	639	626	1913	-24856	30856	-22584	864	3123	-161	126	69	2
3984	-20612	14936	8522	-32768	-3458	-10096	-10372	-14428	13054	-22609	8195	-32768	1160	-2848	3143	-6419	-2259	-12840	3088	14440	211	1570	-1034	-30056	-10512	-32768	-6626	5748	-4163	-32768	32767	-28864	-4999	4015	-3925	122	127	2
-6732	-21684	9612	955	-32768	-28100	-7708	660	-17308	22327	-32768	-4582	-32768	20360	-23408	2699	-4523	-1569	-11976	20320	19520	-72	3015	-748	-32768	-13448	-20072	1171	1756	477	-32768	-32248	-2128	-4651	4397	-2028	125	119	2
-16028	-15948	6080	312	-32768	-32768	-7308	-1684	-15516	26327	-32768	-7823	-22848	13704	-17704	289	-4432	-1543	-9808	11608	23440	-281	5007	-1781	-32768	5656	-15432	2403	1347	429	-32768	-1792	8136	390	6308	418	123	124	2
-22492	-13956	6028	-2008	-32768	-32768	-4988	196	-14016	23013	-32768	-11601	-3456	11704	-13296	-1514	-2029	-1573	-9720	17648	20560	-251	5395	-2030	-32768	3912	-10664	2379	127	860	-32768	6016	10312	129	4910	-1337	123	118	2
-27244	-17492	9580	4808	-32768	-32768	-9740	4396	-15012	8847	-32768	-13092	5296	10256	-15864	-2485	-147	-651	-12032	8424	18120	861	8324	-4878	-32768	16280	12216	2639	75	342	-26520	10112	14104	1122	5843	-618	126	130	2
-30968	472	13648	-1813	-32768	-32768	-8108	1032	-20264	4787	-32768	-7698	8624	7712	-21552	-3578	1008	122	-30376	16240	13776	-89	9331	-5077	-30008	13408	2664	1917	-859	-236	-28520	16064	15568	2542	6338	1909	123	118	2
-32768	-9840	-124	-11039	-32768	-32768	-5056	-1056	-28556	-6786	-32768	-8275	16680	6200	-24296	-3789	1928	679	-31168	-872	15120	-114	8359	-4159	-21664	21048	20912	1456	-577	-1453	-21192	32767	31304	268	4048	1712	122	127	2
-32768	-5612	-11844	3545	-32768	-32768	-7288	4208	-32768	-6164	-32768	-15144	28200	-8944	-29992	1956	1126	544	-32768	30288	-9440	-2634	7275	-3450	-7472	17712	18504	-1845	1900	-2150	-5360	5848	32767	-5946	965	1177	124	122	2
-32768	3400	-29016	-8857	-32768	-32768	-7820	1784	-32768	-24989	-32768	-21494	6216	-1464	-10344	5075	-3296	1470	-32768	7512	17456	-3820	6049	-1781	-4728	3880	1552	-4900	5614	-1603	-19248	-25776	32767	-8373	-217	550	126	140	2
-32768	21720	-32768	-13859	-27534	-32768	-3084	-3532	-32768	-1860	-20735	-11726	-16912	-14096	32767	-1063	-3984	343	-32768	9568	28656	1561	4955	-33	-32768	-3792	12136	-2018	6180	-246	-13336	-32768	12976	-2001	-1073	-688	128	128	2
-32768	28148	-32768	-7056	1043	-16283	12968	12516	-32768	9501	-1040	728	-17592	1808	11008	-2583	1253	-572	-32768	22392	32767	4700	3360	-1090	-32768	-5672	5000	2843	5157	1365	-11912	-32768	2056	4205	-3686	-2096	125	131	2
-32768	12956	-18428	7525	15773	-2453	7540	11048	-32768	8909	13347	4965	-7024	21888	-24464	-170	5311	-1544	-32768	25968	32432	5044	732	-2089	-32768	4168	3888	5252	4601	1274	-22600	-10208	-840	4859	-4464	-1755	124	142	2
-32768	-32768	32767	32767	4299	32767	-32768	-32768	-32768	24833	32767	-30192	-15040	-11584	32767	1230	-4984	-367	-32768	32216	32560	4107	-1955	-2047	-32768	9432	-13632	5000	3543	1270	-32768	23376	-6840	5175	-5049	-1104	123	120	2
32767	6704	10580	3417	23174	12637	-32768	32767	-32768	20330	32767	32767	-32768	28936	-32768	-72	3316	795	-22800	32767	25152	408	-3722	-1294	-32768	3664	-9560	2963	2072	483	-32768	31416	-22520	2752	-5963	127	125	122	2
-7488	-23852	6416	-8398	12559	-10130	32767	-25120	-32768	-27475	32767	-12332	-18312	28808	-29264	-5793	2473	249	120	18624	19864	-1390	-4297	232	-24696	-6808	-15560	2030	-111	1555	-32768	10880	-3568	-1821	-7623	-353	125	120	2
-9084	-11808	12812	-4944	10144	183	-26972	864	-21724	-2068	17652	-5734	-32768	2304	-31928	-1541	3528	5534	1120	12608	18472	946	-4558	2767	-5960	-5304	-17232	2004	-3413	1182	-32768	12528	-824	-1040	-8331	161	125	101	2
-7084	-19444	13204	-3666	13460	3703	-32768	-17532	-21340	-4300	24927	8139	-28768	-32768	-24816	135	5520	1790	-11272	18504	12840	1830	-6616	5012	-3384	-4760	-18256	1592	-3662	1002	-32768	-80	-21384	-1735	-4677	200	124	113	2
-7812	-17820	24044	2833	25618	10199	-32768	5904	-21472	14928	11519	4025	-32768	13400	-7408	5636	3345	1918	-17144	7744	8760	1679	-6845	6208	1840	5944	-9360	-2360	-6581	4623	-20928	-1496	-20152	306	-4517	39	122	120	2
-6008	-14848	25424	-2237	32767	21848	-32768	22960	-6716	-10270	4914	-14292	-32768	23400	13064	3861	3418	3794	-32424	6976	11448	1436	-6157	7068	-9512	-2096	-8936	-4709	-7469	4040	-1328	-1832	-22672	1378	-2678	399	123	128	2
-5396	-17184	29104	-3009	32767	24019	-32768	7956	6404	-12177	-173	-3899	-30584	10552	17608	2149	5478	2722	-25168	8280	11296	670	-6439	7916	-10464	-3264	-13480	-4918	-8088	2715	6784	-2416	-24840	1931	-738	167	121	124	2
-6024	-8636	25744	-15731	32767	32767	-32768	7116	17692	-24507	-745	1276	-27920	6336	12776	851	6633	1773	-32016	-1880	15040	667	-6108	8407	-9368	-3360	-13760	-4923	-8182	2565	18336	104	-23432	4662	1073	69	127	136	2
-32768	-14728	13204	-14936	32767	32767	-27152	-5516	22132	-23092	1417	3762	-23672	-5440	22056	443	6205	240	-32768	-3680	14944	806	-6109	8462	-6368	-14160	-32768	-3949	-8660	715	25256	14392	-32768	3192	2198	-284	127	142	2
-32768	-14532	-15428	5337	32767	31074	-9188	-22084	19676	12468	18787	9500	-21256	-32768	32767	985	2269	405	-32768	-18648	-1448	433	-7672	5699	-4312	-18624	-32768	918	-7974	1391	23232	11680	-29176	-3911	88	-1094	126	125	2
-32768	-4060	-32768	32767	32767	28156	-2972	-23232	17088	19897	22913	10103	-20512	-14560	32767	4741	-1928	1026	-32768	-28512	-27608	522	-7276	1780	-9088	-1152	-32768	4667	-5823	2530	3096	4472	8952	-4371	-1340	-731	125	115	2
-32768	2328	17844	32767	32767	-870	-19528	4692	-2324	32767	32767	13216	-5168	6416	25136	1415	-2912	-1328	-32768	-32768	-32768	1507	-4707	-797	2032	-6888	-32768	212	-2415	1670	-12144	-4544	32767	-2432	-4139	217	126	122	2
-32768	20052	32767	-19543	32767	-4313	-32768	32767	624	32767	32767	255	-9456	28040	4160	773	-2189	-733	-32768	-32768	-32768	105	8	-456	12184	-24968	-32768	-902	1383	-851	-27624	-21520	21168	-604	427	699	125	120	2
-32768	-11356	32767	-32768	16437	6486	-23636	10080	7092	-32768	32767	-9017	-1248	30528	11688	-32	-2903	495	-32136	-31824	-22792	-1601	3174	125	13680	-9488	-29720	-1208	3617	-1984	144	-11720	-9992	4204	5507	-293	124	130	2
-32516	-22508	27148	-32768	-4912	24578	-32316	1380	4416	-32768	32767	-10718	-4256	26712	2144	-3428	-2300	733	-32768	32767	-32768	-9354	-2761	-8513	-32768	32767	23792	1768	7693	3350	-20128	-12576	32767	-1578	-6147	1776	125	145	2
-32768	-32768	23476	-32768	-16511	32695	-32768	-3864	-5384	-32768	32767	-7478	-32768	3056	-12736	-6061	-2739	-189	-32768	32767	-32768	341	1722	85	-32768	-32768	-32768	3108	17592	-7127	-31072	15000	-32768	-1115	3188	1972	125	54	2
-21068	-32768	18416	-19236	-25647	30344	-32768	-11312	-3284	-32768	26829	1620	-32768	-31392	-28632	-5508	-4617	-1523	-12880	-9256	22696	-30	1250	298	32767	32767	-12120	8166	5505	258	-22144	-22688	-21976	7438	3077	2521	125	222	2
-11012	-32768	15148	12633	-30926	21219	-20556	-8512	-11296	-24177	10001	-2110	-32768	-14464	-6792	1703	-5723	-1461	-19736	2080	11976	149	1772	-601	-10128	-1000	-32768	874	626	1647	-13352	21968	-32768	527	4002	-417	124	102	2
4884	-22904	15456	15697	-32768	-2803	-13832	-13264	-15588	1311	-15949	6809	-32768	-4992	-3096	2660	-6077	-2261	-13640	2296	14576	2	1635	-919	-32768	-3000	-32768	-6454	5487	-4628	-32768	32767	-32768	-3090	3832	-2527	124	141	2
-3000	-19240	13884	3637	-32768	-28517	-7648	-3336	-17424	21317	-32768	5528	-32768	13624	-23248	3019	-4869	-2263	-10768	21000	21192	-65	3169	-480	-32768	-13176	-19440	297	1385	137	-32768	-31168	-2640	-5845	4846	-1894	125	117	2
-17124	-17692	8388	2470	-32768	-32768	-5284	-3792	-15368	19214	-32768	-9150	-29136	12424	-20912	1777	-4664	-1665	-7904	13904	24136	-335	5203	-1757	-32768	2512	-16208	2374	1130	549	-32768	-12720	6616	-654	6429	-73	127	142	2
-22452	-11524	6976	-4437	-32768	-32768	-7952	224	-13456	22153	-32768	-6609	-8288	10440	-13536	-336	-2667	-1617	-3616	6400	19624	552	7233	-3661	-32768	1456	-9736	2756	282	1321	-32768	448	13424	542	4742	-1543	126	120	2
-29508	-17516	6480	-4143	-32768	-32768	-6784	-700	-12804	22045	-32768	-8393	2368	10464	-15896	-2065	-758	-713	-7312	11632	20032	940	9238	-4495	-32768	14384	9064	2992	227	68	-25376	10912	14624	2477	5885	9	125	139	2
-29284	-15488	7700	4651	-32768	-32768	-10460	-1292	-16816	864	-32768	-11313	6000	8480	-22120	-3226	469	-98	-29384	14424	13680	284	9450	-4103	-27232	13944	5072	2451	-586	-458	-21328	9632	13872	3312	5671	2608	125	123	2
-32768	-9208	5824	-99	-32768	-32768	-11044	-4692	-22980	7000	-32768	-6132	15152	5504	-24320	-3470	1327	-38	-32768	5104	15832	-159	8398	-3413	-17768	25048	18360	1174	-371	-1412	-23368	32767	28904	1719	3869	1348	124	125	2
-32768	-13964	-10844	-814	-32768	-32768	-10468	-3332	-32768	10284	-32768	-4820	32767	-7760	-32768	2923	1832	-187	-32768	28904	-13960	-3213	7643	-3331	-6600	19512	12688	-2500	2122	-2231	-6816	23944	32767	-4878	839	-367	127	133	2
-32768	-5576	-28344	8677	-32768	-32768	-9392	-3040	-32768	9531	-32768	-5369	9448	-3440	-17312	6270	-3461	629	-32768	4776	17664	-4026	5384	-1508	-6920	4312	680	-5536	5894	-1935	-12280	-15624	29936	-8896	-276	582	125	135	2
-32768	9144	-32768	-3456	-32768	-32768	-11128	-8472	-32768	-7813	-32768	-17772	-5904	-6232	32767	1993	-3400	182	-29896	6216	26904	1550	4535	-376	-32768	-8896	13592	-1764	6138	-259	-14792	-32768	13872	-5194	-231	214	127	123	2
-32768	21012	-32768	-6532	-9534	-25402	5720	8648	-32768	17898	-12511	-852	-15152	1576	22760	-1643	-1223	-153	-32768	20272	29832	5161	3330	-1385	-32768	-8104	6408	3365	5252	1192	-10992	-32768	3344	2918	-2478	-1442	123	131	2
-32768	26936	-32208	-5410	173	-5620	14480	10976	-32768	4539	8626	570	-9648	27608	-14832	1365	4037	-1251	-32768	29128	30528	5361	1403	-2382	-32224	2992	6400	5206	4821	1121	-17728	-26104	-2856	5812	-4270	-2247	122	141	2
-32768	32767	-32768	-3749	23822	32767	13868	784	-32768	16584	23497	-9607	-3472	31456	-8528	-1534	4616	-1022	-32768	27920	25952	4712	-591	-2601	-32768	1320	-4328	5450	4009	1897	-28584	1704	-3536	6583	-4931	-1694	123	126	2
-32768	32680	-32768	14622	32767	32767	-32768	-7080	-22252	32767	32767	-19490	-32768	-32768	-32768	-7724	481	-1846	-29968	32767	26624	3142	-2131	-1753	-32768	8864	-18192	4603	2860	1337	-32768	32767	-16944	5318	-5206	-1395	124	114	2
-32768	-32768	-16660	-5344	12482	-10010	28064	-5876	-17840	-22460	32767	-4638	-22304	13656	-32768	2178	-1009	596	-13392	30256	20328	-327	-3388	-552	-28544	-1160	-17728	3618	1267	1675	-32768	32767	-17688	4599	-5450	-1009	122	117	2
