#Activity	running 
#ActivityID	2 
#Date 08-18-11-48
acc_rf_x	acc_rf_y	acc_rf_z	gyro_rf_x	gyro_rf_y	gyro_rf_z	acc_rs_x	acc_rs_y	acc_rs_z	gyro_rs_x	gyro_rs_y	gyro_rs_z	acc_rt_x	acc_rt_y	acc_rt_z	gyro_rt_x	gyro_rt_y	gyro_rt_z	acc_lf_x	acc_lf_y	acc_lf_z	gyro_lf_x	gyro_lf_y	gyro_lf_z	acc_ls_x	acc_ls_y	acc_ls_z	gyro_ls_x	gyro_ls_y	gyro_ls_z	acc_lt_x	acc_lt_y	acc_lt_z	gyro_lt_x	gyro_lt_y	gyro_lt_z	EMG_r	EMG_l	act
-11216	-26772	32767	11119	-13473	13101	-29256	-644	864	6128	17955	717	-32768	6956	2756	2140	-28309	-8437	-8720	-32768	30408	-3371	1167	-2912	29136	10320	-32768	-1299	3620	844	-2320	9304	-30992	2020	1546	296	109	141	2
-7872	-18612	32767	3372	-26255	7597	-23400	2588	-1640	7881	5230	267	-32768	820	4928	-654	-31136	-6908	-12440	-1064	17696	-1291	230	-1015	-28752	-17440	-25904	-276	4596	577	-30648	18896	-17408	385	1634	1244	125	155	2
-9908	-18884	32767	-9771	-32768	-56	-20488	1232	-10424	-3204	-7451	-96	-32768	-4580	3268	-2745	-31219	-9298	-10504	4184	13344	-859	96	-543	-18720	8264	-17648	1833	3317	608	-32768	-9776	-13680	-491	2500	320	140	89	2
-12200	-18496	28932	-13935	-32768	-10172	-16896	-1900	-14428	-10874	-20144	-26	-32768	-3548	-4348	-237	-28605	-7199	-10576	1568	13136	-622	231	-418	-5432	13232	-24304	1168	2164	1275	-11944	5416	-10840	1305	2832	-151	154	124	2
-8736	-13616	17940	-13533	-32768	-22280	-12836	-404	-13080	-10532	-32768	2701	-32768	-6308	-9964	1130	-29471	-7285	-10304	2728	13048	-250	361	-397	-19784	14264	-24600	-1135	2236	723	-25816	18016	-14072	1839	2692	-311	135	143	2
-13904	-8300	16576	-12892	-32768	-32224	-12364	-2788	-14192	-5010	-32768	4576	-32516	-8940	-16300	6598	-25962	-5693	-7672	4024	15400	147	931	-355	-27712	13616	-21928	-1159	1338	-10	-32768	26128	-7512	577	3529	-67	125	141	2
-20400	-4348	18268	-12321	-32768	-32768	-13876	-2588	-14092	3919	-32768	8688	-22680	-7596	-18564	2890	-14030	-5211	-4456	8664	20576	-181	2598	-599	-32768	8184	-15344	-943	953	-62	-32768	12576	10480	-1375	4354	-288	123	131	2
-25516	2144	25520	-12072	-32768	-32768	-13688	-1720	-18616	6685	-32768	12996	-7816	-1796	-15748	4805	-2040	-2674	-5312	4880	21504	-923	4952	-1214	-32768	-3184	-5088	-639	901	144	-32768	-8504	24720	-2229	4151	-267	129	95	2
-32768	7028	32767	-16511	-32768	-31005	-14068	2564	-20296	-4602	-32768	14423	-4432	1504	-19024	7423	7420	440	-8112	1720	18576	-1134	7558	-2091	-32768	-12024	3440	783	728	496	-32768	-19512	27296	-1452	3598	-793	129	124	2
-32768	-924	32767	-12091	-32768	-15987	-17312	3488	-24516	-29283	-32768	10592	2392	6012	-18476	13437	9487	3573	-26992	1024	24424	-522	8887	-1956	-32768	-12536	3568	1067	660	570	-17680	-11040	30824	1226	3112	-830	121	146	2
-32768	7704	26556	-16342	-32768	-13209	-19716	1480	-27952	-32768	-32768	5774	6072	5764	-14756	14827	6745	555	-22752	4072	26128	354	8977	-1275	-26752	680	19304	3989	598	213	-11640	1864	29528	2278	2656	-637	126	134	2
-32768	2576	8880	-17578	-32768	-12914	-26240	-5476	-28292	-31858	-32768	3370	448	-6080	-1616	2094	-1431	-2317	-32768	5248	29888	-338	8323	-1099	-25664	3360	20176	3887	658	108	-5456	11768	32656	914	789	187	150	127	2
-32768	8596	-15320	-13771	-32768	-8155	-20336	-4740	-32768	-10492	-32768	-2894	-10616	-2184	32767	-12917	-12803	-733	-32768	10312	32767	-1422	6250	-992	-10008	16632	5096	-1354	3459	-696	-192	9960	32160	-691	-1161	78	139	148	2
-32768	9640	-32768	-14056	-17884	-13910	-180	-2640	-32768	-469	-14228	-2487	-8504	-3720	31544	-741	-6265	-1714	-32768	744	32767	-1494	2767	-824	-23184	4288	-928	-2929	4787	124	440	9112	30696	-809	-1334	-2	146	144	2
-32768	12148	-32768	5060	3403	-16939	6560	-5628	-32768	9844	7047	-1526	-6516	-3288	18448	-4354	-420	-2922	-3880	7416	31784	36	853	-1420	-30472	-10472	17384	-866	4368	527	-3952	-5720	11024	-1310	-1513	-854	96	172	2
-32768	13128	-18460	6874	17483	-17240	-1152	-4392	-31512	20238	21703	2261	96	-3464	3008	240	11411	-5881	-10688	14472	32767	741	464	-1469	-21992	-7224	7680	2408	3451	433	-8704	-6480	8768	-710	-1766	-929	119	141	2
-26716	32767	-28516	13053	32767	-11597	-2724	-2820	-14796	22331	23262	1865	6532	-11032	-20820	1863	31074	2248	-8528	20480	32767	656	-617	-986	-20440	3144	5512	3990	2748	385	-10216	-5424	8144	137	-2193	-819	128	121	2
-32768	-18704	32767	988	32767	32767	-32768	-32768	10088	32767	32767	-10132	-30232	-32768	32767	-3784	-32768	-1811	-12728	21088	32767	145	-1309	-933	-30824	19688	-3800	2629	2188	266	-32768	8672	8136	2502	-2900	-698	64	125	2
16432	18900	-11992	11549	32767	11160	21288	32767	14728	32767	32767	8542	-28140	28504	-32768	20633	11199	-17117	-5280	26328	31984	-389	-3028	-432	-22408	10696	-2824	368	1227	-244	-32768	4880	3320	1095	-2700	-307	118	84	2
-32768	-15228	32767	24250	17069	22075	-4340	-32768	-31676	22722	32767	-18205	15292	32767	-20668	-9468	-53	-810	2800	16408	20672	-514	-3883	-171	-21208	6160	-2944	-652	135	24	-32768	2152	12720	586	-3247	-527	109	97	2
-24616	-18956	5716	4961	42	8698	4320	-5436	-32768	10479	27390	-15386	16800	-17480	-30892	-28309	8215	3084	4408	13800	16672	527	-4035	390	-16448	4752	-11176	-452	-1577	-60	-32768	4536	-2648	-488	-3025	44	121	127	2
-15972	5572	13848	4798	406	7748	-32768	-2644	-14764	-2935	24689	-5940	-32768	-32768	-17736	-17059	17887	-1020	-2448	15848	20568	1350	-4708	955	-13952	5104	-15792	-106	-3407	-60	-32768	1424	-1960	-217	-3156	-88	116	129	2
-11120	-5548	12464	2274	1486	2847	-16776	-13848	-23804	2972	21396	-8827	-32768	-5132	-19028	891	29112	2864	-7000	11608	18640	2087	-5687	1755	-11760	1664	-14504	724	-4954	332	-32768	2200	-12616	248	-3471	55	142	165	2
-11848	-2344	13504	1046	3438	2674	-15752	-9084	-30260	5846	14291	-7394	-19500	-10216	-17812	-10577	26880	4862	-10200	10616	16920	2394	-6015	2240	-9728	5400	-14152	1117	-6374	562	-25176	704	-16440	620	-2851	163	117	138	2
-7492	-2516	16120	-2408	9815	1600	-28112	-2404	-21296	3898	9741	-1531	-32768	-16380	-9604	-12883	30861	5774	-16064	6904	22360	2565	-6097	2273	-10984	8648	-15928	189	-7259	994	-13968	6080	-18120	1266	-2211	161	105	104	2
-2716	-6248	17016	-451	27258	3739	-32768	4692	-15896	4757	4920	-2124	-32768	-11276	6136	923	32767	8946	-22224	5496	25056	3197	-6402	2165	-12120	3424	-17184	-665	-7439	968	-6240	5840	-17872	1325	-937	204	109	122	2
-3500	-5376	19256	5525	32767	10855	-32768	15536	-1960	888	1651	-4198	-32768	2980	25264	3497	32767	9087	-31160	10368	30096	3535	-6706	1973	-16024	1120	-20896	250	-8073	1257	-1504	1192	-17192	759	560	-180	95	121	2
-13492	-2168	16488	5201	32767	17945	-32768	20948	10328	-7534	10	-3408	-31732	13624	29996	-4709	32767	6128	-32768	14960	28448	3227	-6532	2447	-23040	4400	-25624	834	-8197	1820	-3808	-4840	-17608	-344	838	27	130	113	2
-29888	1780	21260	-2514	32767	12577	-24500	18264	4520	-15964	1863	-3439	-16952	11292	27948	-17592	32767	9136	-32768	5048	23664	3508	-5488	3960	-23056	6808	-28008	35	-7416	1725	-1688	3184	-11256	-1315	64	1052	103	125	2
-28684	-1488	20672	-13533	32767	3382	-13620	10048	15292	-29694	11502	-2549	-8644	-3568	21976	-25322	23565	9578	-32768	-2688	13040	3526	-3980	5177	-23424	6704	-27848	-67	-7232	1664	-6088	16936	6952	1364	-2433	1749	93	114	2
-28124	-864	20588	-926	32767	7453	-16316	-3132	24840	-17097	18497	-267	-8808	-27892	26516	-16728	7852	5626	-32768	-16888	-8784	1853	-2650	4347	-7888	3128	-32768	-497	-3552	829	-2248	10912	32767	1399	-1154	752	129	112	2
-32768	-7504	29980	17227	32767	10813	-16864	-3964	18840	22285	23800	2058	-15588	-23768	18548	12407	-15920	719	-32768	-24304	-26000	942	-1131	2109	1576	5552	-32456	-775	-884	686	5064	9520	19568	-792	237	608	152	114	2
-15012	-3940	29432	17153	32767	6049	-17196	4948	3880	32767	31107	1188	-4816	-6772	16376	26815	-18781	3827	-32768	-20688	-23208	-120	806	787	4688	-1416	-30784	-2255	1280	359	-696	-3064	19992	-605	1000	327	127	104	2
-32768	2336	32767	-7194	8382	11189	-24148	14036	-2772	20109	32767	-3308	-7536	13036	10196	25614	-24185	4952	-32768	-11992	-6936	-798	1953	458	-352	-7144	-25816	-2658	2735	-172	-2512	6120	-22952	-1091	3143	0	115	103	2
-32768	-9912	32767	14638	32767	13196	-20988	-2020	12876	27281	31908	-1465	-6956	-19392	19460	14406	-23232	1608	-32768	-17216	-21776	14	276	-275	5176	-2008	-32768	-993	1697	72	6416	-504	9864	634	759	148	135	82	2
-32768	-1612	32767	18704	32767	12279	-22512	7388	260	30510	32767	-2052	-4900	-1444	8660	27664	-23565	1499	-32768	-6824	-10464	-942	1305	-473	488	416	-27488	-661	2830	-146	-2648	6720	-15944	-156	2472	-239	121	87	2
-23264	-4960	32767	-825	4642	7767	-26328	12888	9304	5561	32767	-3485	-856	11152	7892	21931	-29277	1440	-16880	-1920	-632	-618	1312	442	1496	-560	-18088	-1100	2844	-252	-616	5664	-29992	-1710	2442	-43	143	143	2
-6936	-11100	32767	-7744	-4762	14805	-24384	11020	14364	-9078	32425	-6612	-9168	16876	4248	8947	-21630	6539	32767	-32768	-32768	1293	7741	-3208	-15664	32767	-1944	2093	4174	28	-19144	18488	32767	-3242	-8515	1509	137	113	2
-9392	-18032	32767	-8191	-9931	18980	-22312	648	4004	-8005	23408	-6910	-22288	2060	3216	-19671	-28064	734	-6144	-32768	-12360	-2492	1596	-1225	-19824	-32768	-12016	-6511	6903	-1301	-32768	-16616	-32768	-5334	3504	890	111	138	2
-9896	-25616	32767	-5576	-22722	15421	-28516	-2360	-1552	-15884	14444	-2535	-32768	-13112	804	-15727	-29133	-6548	-32768	27408	32767	-3523	3398	-3646	24248	-4552	-31424	-2930	5739	415	18416	-32768	-18240	3039	537	819	90	139	2
-5684	-25068	32400	-553	-32768	9578	-22556	-3688	-3552	-3062	-83	980	-32768	-10692	2036	-1473	-32221	-7264	-32768	13064	20096	-1879	17	-1550	10400	280	-32768	3582	1934	2213	24400	10584	-29512	5557	527	-576	123	7	2
-3788	-21252	23916	-5623	-32768	-2339	-17032	-1988	-8624	1543	-16003	786	-31780	-15516	-2500	9634	-32524	-7035	-11312	11232	12960	-610	84	-255	-32768	11576	-17312	3926	3664	552	-32768	32767	-19400	3699	1316	44	122	100	2
-3480	-19212	16908	-11157	-32768	-15735	-13400	-2412	-11616	-5187	-27558	4591	-32768	-7688	-6728	11385	-30221	-7369	-9488	3096	14448	-610	112	-466	-15848	11776	-18720	-1024	2488	793	-27256	-3864	-10160	125	2824	487	153	108	2
-14024	-16652	19396	-13406	-32768	-28625	-12268	-5008	-18504	-5784	-32768	5920	-32768	-6488	-8444	10317	-28146	-8011	-9528	3592	13488	-243	406	-386	-15288	7640	-22264	-1627	2573	819	-20000	14776	-14560	1019	3800	-723	120	117	2
-22752	-11608	18696	-15742	-32768	-32768	-10128	-3228	-17088	-39	-32768	6845	-27240	-2504	-21116	4677	-23900	-4139	-7656	4360	14624	89	970	-299	-28192	9152	-21776	-1423	1475	167	-32768	20408	-8600	1075	3822	-427	117	167	2
-21756	-5672	17384	-15743	-32768	-32768	-12772	-908	-16072	723	-32768	9291	-18232	-3844	-18916	3843	-8273	-1855	-3144	4592	19712	707	2811	-377	-32768	6520	-15144	-638	661	174	-32768	17224	13248	-1307	4527	-916	113	146	2
-32136	-2212	31056	-11602	-32768	-32768	-15028	-4696	-19460	-5954	-32768	10003	-6964	-1668	-19148	2357	2051	-1875	-4248	5496	22064	-274	5748	-1056	-32768	-2592	-896	297	739	424	-32768	-7792	28712	-2917	4275	-368	139	67	2
-32768	136	32767	-9558	-32768	-31347	-15832	-2236	-23516	-12371	-32768	10293	-948	788	-19308	7509	9502	2702	-9016	2864	17536	-556	8472	-2183	-32768	-8264	8848	1375	891	618	-32768	-12048	29640	-2818	4185	-274	132	87	2
-32768	1692	32092	-10385	-32768	-19603	-21676	680	-27464	-26104	-32768	7465	2592	5944	-16808	9225	16365	-747	-31456	4632	26496	-252	9786	-2148	-32768	-7288	15168	3665	862	695	-13312	-9432	32767	742	2881	-1027	135	161	2
-32768	812	16164	-11123	-32768	-14343	-31004	-5572	-31256	-27125	-32768	5356	-1812	-5256	-7204	1989	7131	-6997	-26264	3792	27088	241	9690	-1468	-24952	4472	26864	4575	1126	82	-6432	1352	32767	2230	1460	-426	147	154	2
-32768	3208	-4524	-10381	-32768	-6661	-25400	-3268	-32768	-13274	-32768	-865	-11756	-5896	28304	-8857	-12085	-6359	-32768	14072	31120	-866	9079	-1710	-19080	17888	28224	1193	2628	-721	-7040	12488	32767	1557	-974	-149	169	138	2
-32768	16924	-32768	-22318	-24723	-6669	1488	-3920	-32768	-7821	-13381	-6622	-11220	-3116	32767	-569	-9771	-6377	-32768	15712	32767	-1446	6263	-1137	-20888	16520	-224	-2689	4798	-693	624	6144	20672	-311	-1853	-419	121	152	2
-32768	11968	-32768	-1288	2546	-6460	6412	-4168	-32768	2495	7676	-4960	-4580	376	18692	-10118	2	1502	-32768	11384	32767	-207	2295	-1597	-28040	-1048	-4624	-3307	5335	200	-6008	-2136	2400	-1261	-1780	-345	109	150	2
-32768	24248	-31104	16325	23494	-2350	156	-3716	-31288	11646	24145	764	6940	-3412	7868	-3512	14769	-3820	-1176	15808	32767	438	278	-2549	-28552	-9808	16912	282	3921	1004	-11584	-11464	2752	-851	-2168	-620	137	114	2
-32768	32767	-32768	25741	32767	21848	-5756	-13628	-32768	27687	32767	-1905	-3208	-19452	19824	-3693	3577	2900	-3384	23984	32767	893	-746	-1893	-23016	-1528	4832	3552	2306	663	-20984	-936	2040	1198	-2767	-772	135	100	2
-32768	7148	32767	13259	18227	14351	-32768	32767	-32768	32767	32767	-2917	-32768	-13980	-26384	19082	-7588	-2478	-2472	30568	32767	473	-2164	-645	-26920	12288	2024	3475	1123	9	-32768	10464	5304	1323	-3153	-342	11	87	2
-7576	-32768	5168	13476	32767	28379	23364	-9864	-3312	2742	32767	-7522	-10528	32767	-31556	16090	4948	-6122	-1312	29520	32767	-626	-3597	294	-20448	13248	-112	1229	182	-114	-32768	4240	3928	635	-3615	-96	156	79	2
-32768	32767	32767	17560	-56	17243	19496	-13884	-32768	32767	22564	-17496	1600	15976	-28140	-8823	18191	-2909	-2848	16328	26704	-94	-5174	1345	-15192	9624	-5232	-1147	-989	-117	-32768	7664	1120	182	-3428	29	108	130	2
-12456	17928	20108	4599	-1482	4790	-18764	9152	-20224	-17039	28819	-4947	-12876	-25740	-25780	-29003	15056	3697	384	11944	14440	1143	-5884	1885	-18560	9024	-10848	-1496	-2449	-217	-32768	10536	-5336	-746	-3258	538	166	137	2
-9564	-1264	15056	4300	-785	3212	-27568	-9796	-25804	1472	23451	-10794	-32768	-11376	-17508	-5197	32322	-5808	-8056	9864	13192	1800	-5673	2256	-12880	5072	-16992	-1838	-4641	-157	-32768	5496	-11648	-669	-2922	164	120	111	2
-9740	-5952	13528	2723	1225	3217	-16636	-10132	-20108	13559	15764	-5168	-22680	-11716	-19668	-713	32767	10904	-13168	6136	19608	2011	-5833	2460	-12072	-1208	-18280	-1041	-5369	-699	-31560	-5416	-15168	-664	-2496	-100	129	130	2
-10876	-3836	14056	-415	5323	2057	-21880	-5228	-21124	11795	6536	-2360	-32552	-12616	-19916	-7269	30942	7331	-22104	1736	24696	2203	-6718	2039	-13832	648	-16176	1925	-7242	-4	-18296	4488	-15632	-60	-1862	-355	112	149	2
-5224	-9264	18024	-2278	19797	4168	-32768	8780	-13684	3280	3610	265	-32768	-10884	4860	-1450	32767	8099	-22936	-2296	19824	2689	-6945	1182	-13256	752	-17232	2607	-7821	599	-8872	800	-17720	368	-1047	-288	87	121	2
-1780	-6712	23780	10443	32767	13755	-32768	14504	3064	-3817	1499	-2920	-32768	-8860	8636	842	32767	8245	-29496	9128	27304	2808	-6679	1012	-14560	4640	-20104	1654	-7766	1067	-2120	2416	-17144	859	102	-155	157	137	2
-8684	-192	17072	11593	32767	25931	-32768	18476	13688	-12338	8	-5468	-32044	10120	32767	-2840	32767	4104	-32768	18400	29816	2377	-6708	2409	-21584	3928	-23952	-133	-7688	1142	512	-120	-13536	792	715	210	145	116	2
-27364	3248	21332	7401	32767	24301	-27020	14520	15320	-19763	2746	-4380	-16824	7804	32767	-24149	32767	8794	-32768	9872	20384	1678	-5443	4456	-25712	4480	-26024	-2038	-7173	859	-1336	5184	-9320	-257	487	1105	81	120	2
-32768	76	24420	-3651	32767	14401	-14416	4888	20788	-27016	15711	-1844	-11560	-3960	31936	-32768	16533	2694	-32768	-5392	13848	1484	-3908	5747	-17304	2064	-31768	-2769	-5379	-207	-7424	8184	4272	-786	-688	1226	109	125	2
-26524	-5820	23768	443	32767	14762	-15184	-1376	28644	-14976	27268	909	-8088	-23676	30080	-15733	3166	2551	-32768	-23544	-15336	645	-3363	4364	-7056	4128	-32768	-1197	-3240	-300	-3128	3440	32767	-493	-1552	889	142	97	2
-32768	-8200	27332	12566	32767	16869	-16716	-2864	21140	19113	29010	-701	-4048	-25328	26232	3931	-10340	2135	-32768	-29280	-32400	860	-1592	1418	4360	4096	-32768	-496	-1115	275	-4888	-128	24584	-848	-453	-78	149	135	2
-22032	-10468	32767	24169	32767	9323	-23616	6136	8204	30903	32767	-1761	-8524	-10444	14456	24779	-24489	585	-32768	-17848	-24328	282	267	-167	4960	2800	-31224	-258	1067	231	7832	-3632	12032	1581	604	-751	120	97	2
-32768	-4900	32767	13222	17483	2216	-29380	8744	-148	20284	32767	-3333	-236	13264	17268	29371	-28570	-1781	-32768	-4936	-7608	-335	1268	-363	2448	1488	-26280	-836	2302	-106	-2632	11848	-21720	238	2712	270	160	76	2
-19108	-5800	32767	3059	7424	4897	-28536	11220	8952	3418	32767	-5624	-7844	15928	3884	17332	-23561	4006	-32768	-10912	-32768	-2288	4283	-1836	-1888	15736	-13472	-1348	2598	-296	-10912	19576	32767	-1346	-1076	382	130	118	2
-16712	-11160	32767	-6572	-2621	6736	-24276	8616	4764	7	32097	-7641	-14620	12124	3020	-7949	-28962	1743	-32768	18256	32767	-1308	2665	-1504	-32768	-12584	-32768	-9135	6651	1315	-32768	7608	-30520	-3826	2367	1466	148	140	2
-10892	-23796	32767	-5585	-9230	4698	-30648	3944	-3232	-7835	23654	-3889	-32768	-9844	3396	-18798	-29974	-3179	-30440	32767	32767	-3720	5444	-4411	5184	1440	-18648	-4295	7377	-113	-15016	-32768	-16176	-2510	296	2208	104	117	2
-456	-28612	32767	8646	-16658	-5675	-25968	3548	-4252	-8242	9629	857	-32768	-7160	1148	-3525	-32768	-5899	-18056	4232	29624	-3596	291	-2201	25104	-6184	-32768	2287	2434	2199	31960	11512	-28848	2933	951	314	75	147	2
-800	-15168	32364	6673	-24868	-18045	-15852	-752	-8216	-4276	-4563	5065	-32768	-9952	-1812	7963	-32768	-7988	-13568	10224	14520	-1095	-180	-561	-31416	-4712	-24728	4430	4032	481	-31328	27408	-19400	2227	1287	326	92	48	2
-3172	-8360	28968	-2648	-32768	-25942	-10120	-3196	-12356	-8818	-20003	4946	-32768	-9112	-5592	9912	-32768	-2601	-10568	3584	13304	-483	89	-302	-12128	20232	-21872	726	3134	158	-32768	-7752	-16184	-309	2836	668	122	189	2
-10016	-5848	25424	-7377	-32768	-26319	-8716	-8588	-14268	-6174	-32768	6083	-32768	-6336	-7128	8432	-32768	-2016	-8184	4624	13976	-244	267	-311	-15840	4200	-24928	-1519	2771	936	-21376	8816	-14288	836	3594	-405	140	104	2
-17436	-7612	20532	-7201	-32768	-25210	-8216	-8084	-14200	1207	-32768	6450	-30236	-1612	-16088	1956	-26151	-2339	-9896	4536	13768	6	631	-277	-22968	7888	-24632	-2327	2017	475	-31712	13208	-14320	1264	3701	206	118	83	2
-19956	-5540	12140	-5435	-32768	-25565	-9332	-2756	-9904	4118	-32768	10810	-20644	-4084	-17552	-6838	-9286	-9745	-4456	2200	17936	413	1633	-226	-32768	5416	-22408	-1700	1193	-54	-32768	17704	-1136	180	4274	-464	142	99	2
-24920	-5488	18932	-3989	-32768	-21158	-12740	-284	-14548	-2038	-32768	14405	-6756	-996	-18260	-266	-5828	-1413	-2272	8000	23624	-328	4333	-552	-32768	2136	-9912	-5	475	525	-32768	6608	20368	-2096	4801	-636	122	131	2
-32768	-5260	32076	-4816	-32768	-15787	-13816	1980	-20056	-22933	-32768	15363	-632	-1992	-18080	2163	6669	249	-5264	4464	20536	-517	6771	-1454	-32768	-7000	3656	903	613	684	-32768	-12984	31208	-3007	4343	-276	128	69	2
-32768	-10436	32767	-9945	-32768	-11159	-21080	-1420	-23184	-32768	-32768	10112	2732	2320	-18904	7036	14489	1898	-23776	24	25312	-579	8932	-1953	-32768	-8880	6032	2031	940	718	-19032	-20688	32767	-494	3427	-366	136	130	2
-32768	-9952	28760	-16689	-32768	-11648	-28160	-3340	-26996	-32768	-32768	1363	720	7616	-15796	10557	17338	-35	-19976	8032	31520	108	9434	-1472	-32224	-4072	25416	4285	1351	757	-13168	-7968	32767	1968	2393	-374	139	182	2
-32768	-9368	7180	-19425	-32768	-15437	-32768	-12416	-29340	-24155	-32768	-1657	-5148	-7256	-2120	-4032	2301	-3815	-31512	7848	29448	-279	8980	-1278	-18576	6464	25984	3182	1616	-238	-3304	9344	32767	2148	794	-234	141	128	2
-32768	2736	-23300	-14536	-32768	-15852	-19956	-388	-32768	-2694	-32768	-5261	-15516	-7032	32767	-10466	-18100	-3265	-32768	8608	32767	-1188	7559	-998	-12808	18040	10152	-386	3813	-841	-768	9832	32767	615	-1053	289	168	137	2
-32768	18360	-32768	-19366	-14977	-19470	2608	-244	-32768	-6856	-12387	-7282	-8088	-7868	32767	1743	-11107	-5981	-32768	-216	32767	-2327	4346	-1362	-26640	8672	3408	-3511	5338	-500	-2816	-1488	10832	-969	-1473	-347	85	181	2
-32768	18356	-30500	2030	4244	-14760	8488	-7528	-32768	2796	10313	-4573	-3176	-308	22752	-1941	-752	-2336	-9048	3600	32767	192	900	-2125	-32768	-10968	12840	-2167	4907	334	-12688	-10536	6536	-1497	-1774	-753	110	188	2
-32768	20720	-27864	4335	6713	-13886	204	12	-29756	21899	22270	1716	8612	-6920	-6176	-9016	25486	-8850	-9120	14528	32767	1200	44	-2864	-25320	-8952	8320	2901	3585	809	-12280	-12152	7440	-562	-1936	-1148	138	158	2
-32768	11116	-32768	15582	32767	7147	-3872	-10220	-32532	22398	27936	1245	5944	-10448	-4884	6051	12347	3366	-6128	26568	32767	711	-970	-2684	-20976	2768	3120	4889	2634	705	-12720	-5360	3504	1234	-2653	-1242	154	167	2
-32768	-32768	32767	18398	32767	24165	-32768	32767	-32768	32767	32767	-22920	-32768	-32768	-6972	-4760	-6702	-14516	-5184	29800	32767	220	-1734	-1953	-30400	18296	-5664	3585	1693	406	-32768	12720	5560	2818	-2928	-920	74	99	2
32767	7932	-12640	2600	32767	22457	32767	-3284	2916	-10710	32767	-4350	-19552	32767	-32768	15581	19241	-6792	-536	31216	28688	-453	-2996	-514	-20096	8792	-2800	776	664	-53	-32768	5144	856	1513	-3208	-468	177	61	2
-26208	3336	19388	28892	12848	24496	4632	-32768	-32768	32767	28963	-12211	32767	27480	-18348	-11992	8476	855	5584	17104	18320	100	-3621	722	-17168	6048	-7288	-642	-506	89	-32768	8128	3360	429	-3329	-240	102	106	2
-10452	-2088	7704	9914	-143	7766	-18276	3484	-30028	13938	25024	-6042	11260	-28616	-30912	-26687	6099	5241	4072	14640	14392	1259	-3786	1712	-13960	7680	-12696	-709	-2223	79	-32768	7912	-2320	-154	-3521	60	100	118	2
-11504	-8488	13940	5759	-1014	3382	-32768	-5220	-15692	-2862	26098	-11317	-32768	-25552	-30812	-2802	26569	-11091	-3960	14768	17920	1542	-4317	2544	-11560	6160	-16040	-1385	-3850	86	-32768	3368	-10064	4	-3176	100	99	132	2
-10992	-5820	12972	4190	1470	3527	-16008	-15872	-19824	4884	19666	-6123	-32768	-7420	-17316	2024	32767	7905	-9104	7752	20712	1892	-4952	3275	-10352	1040	-16672	-1410	-5217	-71	-32768	2808	-14528	-38	-3211	-53	108	166	2
-10572	-720	14488	1772	3220	3082	-14188	-2340	-27852	13009	11517	-6281	-15368	-9576	-15540	-9089	30677	4524	-14544	3288	22968	2480	-5658	3547	-10056	328	-16136	146	-6695	-140	-24456	-528	-15424	-354	-2610	-57	126	148	2
-5980	-1428	17348	-1866	10212	2242	-32768	-1088	-23252	4649	8678	48	-32768	-17452	-10944	-7614	32767	5235	-21552	1888	26512	2637	-6420	2832	-10800	3672	-16808	1799	-7601	305	-13640	4544	-18488	152	-1783	-116	111	144	2
-2608	-9264	18004	3346	29765	4647	-32768	2056	-15756	9630	4277	-1098	-32768	-6516	8716	9546	32767	7984	-26744	832	29504	2624	-7427	1658	-9376	4688	-17608	2208	-8229	913	-5864	3024	-20384	1026	-481	-14	120	149	2
-2760	-4600	20724	10478	32767	14357	-32768	19744	-696	6133	-465	-4714	-32768	14168	25440	7235	32767	5479	-32752	4384	29344	3101	-8362	739	-13432	216	-18840	2354	-8480	1594	1600	464	-18816	787	690	-202	115	130	2
-10852	-1248	17372	11449	32767	23036	-32768	20784	11852	-11126	-1710	-6120	-32768	16212	30280	-11190	32767	7198	-32768	13224	19640	3066	-8052	782	-20680	3056	-21520	2585	-8415	2332	4752	-4096	-17480	757	1098	187	125	122	2
-32768	2868	25628	4707	32767	16290	-24000	14240	4536	-22320	1145	-5682	-16084	5460	29548	-28155	32767	7689	-32768	17712	21136	2551	-5768	2204	-28384	9904	-29472	-1048	-7532	2227	288	1296	-6704	560	-43	982	140	119	2
-26764	-2076	21492	-5446	32767	7020	-15880	9584	18344	-32768	13198	-2073	-8708	-8204	24188	-31303	18192	5755	-32768	-144	12088	2910	-3547	5089	-30232	-1296	-32768	-3019	-5310	1160	-11904	17088	20488	1342	-2451	1414	99	111	2
-25280	-1332	22040	-4929	32767	6779	-7704	-1636	26252	-20360	22287	333	-7020	-22044	31396	-19998	5021	5098	-32768	-19608	-17064	1230	-1158	5560	-3392	-3376	-32768	-1770	-2482	272	-11392	13976	32767	-175	-460	688	126	80	2
-32768	-7756	32756	10919	32767	6523	-16912	-6320	14268	16171	27273	-296	-4768	-20280	23788	2797	-13447	3319	-32768	-32768	-23464	-267	224	2449	5072	6416	-32768	-1692	-124	436	-2064	7392	20312	-1439	-176	771	128	65	2
-17304	14328	25428	15114	31292	10481	-20120	3200	9588	29506	32584	-979	-4468	-7464	15096	14019	-21466	1462	-32768	-24768	-14584	-470	1220	52	2232	-936	-32120	-2485	2397	-237	13200	-3760	9816	-1284	1003	-109	130	108	2
-24232	-2564	32767	-5454	4359	8970	-23460	14936	10000	9650	32767	-2811	-6140	7544	6676	20311	-23198	3481	-32768	-8688	-3192	-1093	1469	-812	8	-5784	-24664	-1525	3166	-220	-5176	7960	-27568	-179	3650	-13	134	71	2
-17032	-9972	32767	-9126	-2846	13733	-23392	10748	9932	-10667	32767	-6436	-6484	16928	6788	14641	-24080	4341	-32768	3584	-32768	-2381	3743	-576	-584	1568	-16184	-1965	2403	-46	5040	9744	-14144	-1049	924	40	140	165	2
-12288	-17152	32767	-9938	-11060	18161	-22684	4656	7260	-13016	29204	-7554	-13196	13968	3964	-4731	-26012	4108	-32768	32767	32767	-2510	7319	-1761	-32768	32767	-32768	-8207	5146	2310	-32768	11224	3392	-4561	-1002	2097	143	202	2
-13232	-21628	32767	-13231	-17877	15194	-31200	-324	-392	-18356	21178	-5982	-32768	-11620	5712	-23960	-28237	-2872	24144	-8144	-8584	-1244	5622	-3020	8576	-4904	-2864	-4513	8753	-1941	-30520	-32768	-32768	-1530	1340	1938	97	78	2
-10384	-30080	32767	-4962	-30172	8664	-27972	-4560	-3504	-9732	7743	-155	-32768	-10236	516	-8232	-31264	-7053	3472	-9760	20664	-2772	585	-2223	12800	2528	-26232	2696	2506	3762	31080	-1912	-32640	4044	263	-208	106	47	2
-7596	-22068	29524	-1119	-32768	1029	-21644	-5116	-6792	4110	-5347	1062	-32768	-9592	1252	-6421	-31466	-7467	-12488	1304	16104	-1317	-277	-614	-12672	-5440	-26800	5076	3853	947	-14360	32767	-23608	4472	695	-118	138	122	2
-6568	-17688	21772	-7896	-32768	-12170	-17068	-1276	-13848	8684	-21844	2211	-32768	-8804	-4252	12927	-32347	-8258	-10504	7192	12656	-856	-111	-473	-26752	22304	-14616	176	2960	-176	-32768	5368	-17104	-1990	2931	-364	147	198	2
-10704	-15652	19672	-11465	-32768	-26866	-15760	-1288	-18304	1444	-32768	6900	-32768	-5416	-9684	7336	-30336	-8347	-9368	3608	13688	-353	131	-375	-12144	6960	-22984	-2091	2389	437	-30504	856	-13240	-508	3779	372	195	173	2
-15872	-9812	17076	-10762	-32768	-32768	-11216	-1148	-17252	-164	-32768	9467	-32768	-4096	-13540	6684	-19570	-5338	-9488	2872	14312	-55	408	-349	-21944	7232	-24552	-1902	2193	492	-20520	10368	-12000	352	3445	-563	106	185	2
-20976	-2600	20140	-9819	-32768	-32768	-10576	-164	-17364	-5360	-32768	12935	-16144	-6692	-19964	7712	-22520	-4163	-5520	4792	17840	354	1513	-410	-32768	5888	-20144	-919	1097	-114	-32768	16016	2064	751	3544	-192	120	144	2
-27264	5632	26948	-10756	-32768	-32768	-14072	-3596	-17512	-16255	-32768	12257	-17088	-1960	-18648	6103	-14753	-3437	-4656	5368	22848	-540	4099	-736	-32768	3920	-9152	319	697	518	-32768	6464	21352	-1742	4196	-736	125	146	2
-32768	5016	30116	-14877	-32768	-20505	-14180	-2884	-21460	-21660	-32768	8717	-3808	2432	-17904	5306	4360	-2786	-4952	3424	19640	-1165	6689	-1636	-32768	2776	-7448	348	689	528	-32768	-12272	29824	-1775	3839	-335	130	107	2
-32768	-1564	24832	-12188	-32768	-3110	-13964	-60	-23664	-30226	-32768	2591	3872	7120	-19844	11626	13920	3253	-20480	4744	24792	-1388	8708	-2283	-32768	-4672	10384	1894	999	748	-23392	-8824	32767	344	3153	-788	131	77	2
-32768	-4772	19388	-16509	-32768	-3985	-21676	-3832	-28800	-25363	-32768	-788	3452	4616	-17580	6796	8205	227	-21688	6368	30016	-733	9256	-1838	-32616	-1936	23000	3627	1266	544	-9200	-4760	32767	1651	2184	49	132	192	2
-32768	-6180	10212	-19182	-32768	-17258	-29744	-400	-32528	-11931	-32768	1315	-5608	-6840	1352	-4969	-3691	-257	-23576	6336	23808	-731	9220	-1686	-21888	2920	24320	2815	1704	-60	-7224	3032	32767	1472	514	-40	150	154	2
-32768	6832	-15780	-12891	-32768	-26961	-15108	2008	-32768	-8281	-32768	-1214	-13140	-6884	27716	-11707	-8016	-1162	-32768	9264	32152	-626	8314	-1212	-14336	11240	17184	580	2861	-227	656	8776	24376	849	-498	-310	149	130	2
-32768	17964	-26824	-5686	-13386	-21469	-3380	-7360	-32768	-3418	-14514	-2008	-7512	-8176	28232	782	-4509	-4821	-15232	18528	32767	-1552	4710	-563	-19464	11744	2192	-1667	4028	-160	-520	9040	19608	-156	-1410	-137	124	132	2
-32768	25740	-24756	2248	-1450	-11001	3856	-7844	-32768	12259	3831	-2237	-5916	-6212	15992	5659	-1540	-4870	-18168	13760	32767	-722	911	-775	-29000	-2880	10000	-2131	4746	226	-8216	-4216	-4728	-2215	-2636	-155	108	138	2
-32768	19980	-13752	3747	7769	-2998	2784	-452	-28424	17931	16982	2189	4144	-5956	3940	6589	14696	-3165	-11552	6472	29904	218	435	-1062	-27824	-8400	8760	246	3799	838	-12584	-7504	9144	-1337	-1878	-383	127	98	2
-32768	17016	-32012	4915	24076	1024	628	-584	-24172	16544	22696	2173	6304	-7688	-21948	907	28367	4390	-9872	18368	31872	810	-24	-712	-22272	-2784	2600	2603	2940	514	-15832	-8880	7624	-319	-2259	-646	159	102	2
-32768	-32680	32767	-10574	32767	32463	-32768	-22088	-15676	32767	32767	-4412	-28956	-31316	32767	164	-32768	-361	-13168	17728	32767	914	-990	-259	-28712	15856	-1560	3934	1942	443	-30736	15608	8824	2115	-3217	-530	59	101	2
32767	20452	-30816	14921	32767	6133	15392	11212	32767	32767	32767	9044	-21408	21260	-32768	28791	13973	-17419	-3136	26256	30192	-163	-2497	232	-19664	12792	-2680	1383	1132	-247	-32768	9024	4216	225	-2597	-307	156	109	2
-32768	-9512	32767	27329	26256	32767	10796	-32768	-25424	26585	32767	-12091	6976	32767	-8148	-8078	-833	-2281	-1056	13928	25096	-667	-3645	488	-17816	7232	-4824	-1127	221	-44	-32768	1656	5192	-290	-3011	-268	127	79	2
-32768	1992	32356	15519	136	14598	6660	3816	-32768	24563	24874	-17959	13704	-12940	-32768	-21124	10283	7702	2560	10744	18392	552	-4529	1049	-15904	3016	-9296	-856	-1292	-161	-32768	8952	-2016	-785	-3372	7	124	89	2
-14264	-7944	15564	3344	289	2916	-32768	3760	-22208	-22671	28701	-7305	-32768	-22204	-15344	-20468	11601	1273	2056	15016	14896	903	-5164	1287	-12016	7216	-13840	-649	-3241	-197	-32768	-13176	-9856	-1431	-2866	131	127	166	2
-10820	-620	14928	2869	980	2420	-16208	-9296	-21784	-4421	24769	-11934	-32768	-10168	-17536	-9628	28235	-4165	-4072	8760	16672	1325	-5793	1945	-8952	760	-14224	-940	-4858	-127	-32768	960	-8312	1056	-3702	-8	122	131	2
-11196	-4972	12980	1137	2870	1964	-14716	-10488	-18452	10774	13429	-7712	-26804	-12676	-18864	-9699	29996	7334	-9272	5960	17728	2277	-6127	2559	-11088	-168	-14224	-152	-6198	-86	-23864	-1488	-16464	940	-2284	37	152	98	2
-9572	-5012	15224	-994	6573	1576	-26468	-2772	-20280	11897	5426	-938	-30084	-16828	-16620	-13458	32767	4401	-15208	3112	23800	2647	-6239	2429	-10376	1984	-15448	1029	-7500	210	-12632	5880	-17432	1406	-1742	238	54	118	2
-6724	-5688	16340	-5481	20810	3882	-32768	5856	-19296	6693	2949	-467	-32768	-14744	1352	-2016	32767	9637	-22920	4240	30352	2635	-6771	1691	-12824	4960	-14944	1382	-7968	546	-7752	9792	-18000	824	-359	-130	103	167	2
-108	-8416	22984	9893	32767	12820	-32768	14512	-512	-486	1106	-4290	-32768	4036	25212	6136	32767	9374	-28152	8208	32767	2752	-7497	1395	-16168	3352	-19536	916	-8474	978	-2456	1256	-20560	674	694	-547	109	146	2
-6948	-1728	17336	10752	32767	24835	-32768	22664	15784	-10336	-734	-4730	-32768	14172	32767	-2941	32767	6049	-32768	12128	32608	3132	-7389	1858	-27880	-328	-19728	856	-8491	1364	-2392	-5544	-15032	710	1448	-386	170	110	2
-28988	3476	22608	4028	32767	23035	-24984	18824	13860	-20196	1226	-3581	-17556	16788	32767	-17430	32767	7265	-32768	6184	27784	3078	-5964	3215	-27576	3448	-28728	679	-8143	1411	-296	-568	-10104	-972	595	995	105	116	2
-32768	-2844	23676	-11901	32767	10800	-9840	7572	17340	-32612	15948	-3676	-11376	-1964	28348	-32395	13723	4751	-32768	-6224	15912	2438	-4585	4334	-21088	7048	-32352	-181	-6085	584	-6272	17344	8288	441	-2368	1761	114	75	2
-25196	-4356	23300	-5856	32767	11617	-13504	-3384	25224	-18209	27464	327	-7588	-31064	29276	-22879	3284	3931	-32768	-21040	-15736	665	-3202	3217	-6552	2232	-32768	-1348	-3520	81	1336	12432	32767	2276	-1709	381	135	107	2
-32624	-7816	30176	11805	32767	14797	-18616	-4828	16592	19980	28039	-653	-4432	-23368	21368	5256	-12943	1800	-32768	-29984	-31280	411	-1237	1335	4832	1672	-32768	-1605	-700	238	-1592	9488	32767	1566	-804	34	121	145	2
-24016	-2784	26648	25702	32767	11471	-20012	4904	5808	32767	32767	-373	-8588	-8516	14192	23254	-25806	379	-32768	-20176	-24056	-797	792	483	6584	-1472	-32768	-1805	1721	-294	3384	3560	15864	-480	1105	-130	109	97	2
-31212	-1424	32767	6992	11253	5854	-26728	13064	5228	18208	32767	-2865	-6672	10456	9048	28500	-25790	2470	-26432	-3704	-7992	-1462	1854	79	664	-1384	-24304	-2169	3044	-591	-4528	5648	-19376	-1661	3293	-393	116	99	2
-18784	-3180	32767	-7053	1049	11440	-25140	10424	9372	-3775	32767	-5946	-6600	14984	2432	15670	-26256	4964	-5744	-32768	-32768	688	9259	-7015	-17464	32767	360	2556	5106	572	-28136	11104	32767	-3326	-6943	286	127	195	2
-16928	-13644	32767	-12410	-7032	18451	-26236	2740	4836	-10109	30808	-7048	-17712	3524	1252	-11459	-27016	1244	4456	-10352	-26112	-3262	1861	-2382	-32768	32767	-32768	1129	5572	1260	-19248	-27312	-32768	-5209	2328	680	182	86	2
-14092	-27340	32767	-7058	-16511	19640	-32768	-424	-3132	-9776	19851	-3795	-32768	-6440	400	-12427	-25284	-6521	-32768	6768	32767	-6177	3792	-5311	32767	14080	-32768	-1408	4645	477	11936	-32768	-17456	2835	-418	1303	102	204	2
-8356	-25428	32767	3171	-30075	14553	-23148	-1028	-1304	-3695	6552	990	-32768	-5544	1616	-4681	-32768	-6672	-12352	6704	-8928	-878	-735	-983	19696	-3496	-32768	2371	1601	1734	21192	28336	-32768	5963	1280	107	90	112	2
-8056	-20628	27608	-4501	-32768	3277	-17468	-2208	-10632	-1658	-7336	1813	-32768	-12932	-196	4958	-32768	-8021	-7456	6008	15320	-620	-97	-415	-32768	18344	-15192	2664	4425	-529	-32768	32767	-23616	1802	1801	570	153	89	2
-5576	-19664	19620	-10786	-32768	-8365	-15728	-2308	-13428	-7888	-20296	2243	-32768	-8116	-5648	7261	-32768	-6492	-10088	4008	13896	-445	5	-411	-10992	10392	-19232	-1466	2555	150	-32696	-6584	-9216	-987	2724	453	130	132	2
-8304	-18052	16424	-12242	-32768	-21474	-14076	-2976	-17180	-10330	-32768	4638	-32768	-2212	-12468	5292	-28033	-5718	-10000	3440	12968	-198	288	-342	-12512	5720	-19816	-1817	3187	577	-30384	-2320	-9360	-891	3160	304	144	122	2
-16460	-13448	17824	-13432	-32768	-32768	-9564	-3908	-16508	-1083	-32768	5542	-32768	-1852	-17936	-16	-27103	-6239	-8192	2368	14528	59	794	-338	-14560	6040	-21024	-2057	3107	497	-32768	12784	-8656	1438	3426	221	131	100	2
-19944	-5032	14132	-14122	-32768	-32768	-10448	-1276	-13504	4916	-32768	8418	-17892	-3940	-15060	5567	-6536	-7810	-4344	7272	19312	65	2089	-437	-32768	10360	-17656	223	705	295	-32768	16128	8360	-392	3945	-653	120	97	2
-21836	836	20412	-15303	-32768	-32768	-11348	2072	-14776	-1522	-32768	12798	-7956	500	-16508	3945	-8450	-2188	-5136	5160	21824	-826	4367	-936	-32768	3768	-7344	-57	808	410	-32768	-1280	22544	-1886	3903	-405	127	105	2
-32580	1904	32767	-14349	-32768	-32349	-14460	-4208	-19512	-14973	-32768	9537	-2904	2692	-20468	4443	778	2002	-7840	3368	18944	-1090	6885	-1860	-32768	-4104	1768	667	1056	471	-32768	-12704	26288	-1658	3747	-588	143	102	2
-32768	4008	32767	-15993	-32768	-13781	-14588	-3036	-24264	-29053	-32768	4501	3432	7624	-19816	2225	8298	5475	-23336	-160	21136	-1067	8388	-2234	-32504	-6872	4192	2111	866	799	-18288	-14352	26472	764	3241	-652	138	113	2
-32768	1320	27604	-26235	-32768	-5201	-19588	2676	-26880	-32768	-32768	-2441	8264	8204	-18168	-8564	12891	4064	-17160	1192	22656	12	8562	-1340	-25784	-4888	13224	3670	991	353	-7656	-2704	24296	2046	2715	-438	131	161	2
-32768	516	4276	-30386	-32768	-8799	-20592	1160	-27100	-32768	-32768	-3681	-940	-6000	-7588	-14147	3932	-1494	-22856	2256	22272	-195	8611	-989	-20584	6328	21104	3175	1164	-391	-5232	13824	30072	2090	1475	-290	152	140	2
-32768	9856	-16688	-23749	-32768	-15833	-23048	2936	-32768	-21304	-32768	-8997	-17896	-18924	32767	-17842	-23673	-7580	-32768	9152	32272	-1115	7778	-798	-13736	12744	17936	-886	2635	-951	-1400	12088	27608	-506	-60	-85	150	127	2
-32768	15444	-32768	-9261	-14889	-18530	-3780	-4512	-32768	-3304	-12585	-5136	-11652	-14420	32767	-7616	-5882	-11772	-5600	17912	32767	-2592	4276	12	-17448	6040	24	-3745	4320	-758	-112	664	21864	-1700	-973	-167	109	160	2
-32768	22420	-32768	10080	4677	-12696	6968	-4920	-32768	22513	8389	-2608	-2020	-5344	20016	4439	-424	-7991	-24760	456	32767	-1194	797	93	-26168	-9264	11184	-2648	5045	28	-5480	-5016	7776	-1487	-1180	-664	129	147	2
-32768	16928	-13744	8655	17640	-12914	2060	1024	-32768	31028	24143	3241	2828	-6660	2872	13579	17521	-8765	-6576	3808	31960	587	486	-952	-28384	-11568	10352	331	3658	512	-8328	-11856	10024	-880	-1457	-1025	124	149	2
2632	8620	-2168	12355	23500	-11291	-5336	6720	-18592	24411	25233	1537	5688	-8764	-29384	3673	32767	6298	-14712	17712	32767	1166	-517	-953	-18528	576	2280	3144	2795	141	-9688	-9648	11264	220	-2276	-1034	141	129	2
32767	32767	-32768	9763	32767	32767	-24984	-32768	32767	-30066	29974	3714	-25704	-23380	32767	20154	-32768	10322	-8272	20192	32767	836	-1895	-1056	-28128	13312	-200	3880	2265	407	-22736	8832	6128	2479	-2946	-1175	104	123	2
-8560	32696	-25620	23337	23433	13131	-3196	14588	-17884	19851	32767	10363	-32768	27096	-32768	32767	11118	-28512	-8200	32767	32128	-436	-3066	-860	-23416	20248	-4184	1959	1107	-173	-32768	13920	6400	1766	-2541	-230	175	90	2
-32768	-32768	32767	31611	32767	32767	22440	-29444	-28604	10713	32767	-12956	-9976	32767	-20916	-4422	2434	-1413	-3336	22688	24072	-1354	-4586	-256	-20456	13360	-6144	-1408	528	-318	-32768	8456	4488	945	-3063	-71	144	74	2
-32768	264	26260	14859	-488	13732	19960	14276	-32768	22808	23384	-18322	20780	-1844	-28556	-24035	8582	3365	1304	14480	13208	-61	-4866	513	-20128	4912	-9512	-1609	-858	-387	-32768	10584	1704	-747	-3312	452	102	117	2
-11140	-8784	13448	1235	-81	736	-32268	4668	-19944	-18517	31826	-5347	-21848	-32768	-13352	-30179	5288	8682	448	19752	11376	505	-4625	999	-14744	9584	-13328	-267	-2696	-597	-32768	7864	-3832	-696	-3009	248	165	134	2
-11488	-11544	13216	636	378	705	-17980	-10444	-16716	2227	25204	-13608	-32768	-2884	-14724	-4893	26528	-9340	-6048	13176	16064	844	-5107	1761	-10984	7104	-15896	-295	-4137	-453	-32768	4056	-11016	134	-3347	240	114	132	2
-10116	-5108	13564	1651	2041	2198	-13060	-5448	-16688	11702	17361	-9276	-28572	-4584	-14952	-13349	25010	8450	-9104	9672	17368	1705	-5582	2176	-11304	5632	-15104	238	-5507	-584	-27688	992	-11792	86	-2955	337	124	154	2
-10816	-4488	13468	242	4246	1561	-17252	-4976	-21812	7493	11970	-3601	-21984	-18596	-15476	-18544	28035	2433	-14816	9248	19792	1931	-6126	2020	-11016	7144	-14664	1163	-6783	-160	-20072	8352	-14880	-162	-2140	309	74	147	2
-6744	-2788	16108	-2581	11270	2266	-32768	-3808	-22880	608	6776	-2879	-32768	-22616	-8880	-12536	32767	8617	-18320	11000	21216	2001	-6247	1761	-14720	7168	-15320	957	-7352	297	-13232	5320	-16088	-688	-1291	255	111	141	2
-948	-5536	19252	-220	32767	5730	-32768	3984	-15328	3599	2214	-1084	-32768	-9952	12756	4042	32767	11328	-25720	15328	32767	1983	-6252	1960	-16992	8168	-20840	-488	-7691	542	-7616	1288	-15488	-288	-150	-83	145	124	2
-488	-7196	19680	1499	32767	6459	-32768	18112	1888	1416	15	-3381	-32768	9380	29992	9790	32222	9366	-32016	13544	32767	2866	-6779	2667	-25096	1160	-22832	-901	-7878	582	-7128	-5856	-9856	-164	513	0	117	108	2
-14460	-2644	15168	6282	32767	22307	-32768	22156	12240	-10394	-207	-5023	-29328	24988	31104	-2929	28565	8252	-32768	5192	22840	3618	-5901	3402	-27648	-2224	-25328	-149	-8114	897	-7088	-12168	-6928	-2039	405	570	111	80	2
-32768	3432	22384	-1342	32767	15629	-20112	13276	2772	-21225	3795	-5033	-14612	8840	26484	-26085	22623	11062	-32768	-12376	12576	2448	-3264	3201	-16248	4040	-32768	920	-6802	1040	-2632	1096	-3624	256	102	1024	109	100	2
-31044	-6084	21648	-12736	32767	7445	-15300	2308	12728	-32768	15772	-4352	-10764	-13452	20164	-32768	20044	8382	-32768	-12048	14384	2071	-4442	2461	-9016	8296	-28400	1171	-4589	583	1760	15624	18928	2939	-1637	809	91	121	2
-31680	-7392	18336	-1770	32767	12525	-22336	-10496	19992	-19292	21547	-493	-9756	-24224	21368	-20485	3915	1739	-32768	-24032	-18440	973	-3154	555	-6752	944	-29264	-838	-2635	884	4472	11352	26152	2845	-1356	593	139	87	2
-32768	-6592	28448	4349	32767	12798	-16008	-588	15572	17257	25459	373	-6724	-17216	19304	2680	-9503	1327	-32768	-18216	-23848	783	-879	580	6392	-4856	-31032	-638	-298	310	984	6864	18504	788	132	208	124	93	2
-13344	4516	26548	465	32767	13921	-14564	3584	3276	24692	31058	-690	1000	-15056	32767	14634	-18547	-1225	-32768	-17224	-16064	-937	711	50	3632	504	-28656	-372	1596	-157	-1536	3232	-1400	64	1115	209	115	87	2
-31476	-10508	32767	-7171	5209	11173	-21276	10384	1592	4430	32767	-4248	-2608	5296	16516	19235	-17223	6964	-32768	-10672	-29192	-2230	1777	39	2528	856	-28160	-495	1739	-176	-1752	8512	-11784	-461	2341	44	121	60	2
-16292	-9328	32767	-5353	-6065	16139	-23328	9220	11124	-14339	32767	-5610	-6516	13912	4484	13896	-19286	4285	-32768	20704	32767	697	13808	-5650	-32768	32767	-32768	-986	5190	1545	-32768	32767	32767	-1635	-5939	1990	119	182	2
-13652	-12452	32767	-9038	-10516	19734	-25740	-384	8100	-11674	27777	-4689	-17272	-4852	4040	-14433	-22044	2165	20288	-26672	4128	-2707	2963	-1998	-9952	-8704	6224	-3189	9191	-2236	-24528	-32768	-32768	-5849	1677	693	125	0	2
-13156	-24048	32767	-3087	-16493	19884	-32768	-5028	292	-1662	18088	-327	-32768	-11052	1564	-9544	-20934	-6583	-32768	32767	32767	-4994	4044	-4718	23592	9504	-32768	-639	4845	1442	24840	-32768	-23152	2715	-394	559	132	122	2
-13128	-26548	32767	9551	-28232	15215	-23960	-2396	-3272	10554	7319	3914	-32768	-6368	2536	3601	-29919	-9834	-32768	-12176	11640	-1637	-714	-1609	16480	-1928	-32768	571	1637	1557	16256	27360	-32768	5526	1166	-69	123	144	2
-16024	-20848	32767	2961	-32768	2602	-22776	-2616	-14492	10948	-8143	5642	-32768	-12924	1224	12298	-31144	-10621	-6984	7168	14744	-692	-165	-246	-32768	14640	-13600	3250	5295	-735	-32768	32767	-23976	1413	2043	1213	105	97	2
-12068	-21112	21732	-5201	-32768	-13541	-19100	-316	-13756	4312	-18590	8376	-32768	-5456	-1732	12204	-28225	-8588	-9560	2952	13792	-650	-68	-482	-13464	6344	-14272	-400	2009	771	-32768	-2704	-8160	-1157	3194	-248	141	77	2
-8944	-15240	12492	-6485	-32768	-26244	-17464	-844	-14520	-7632	-30122	10452	-32768	-5196	-10428	10605	-23920	-8352	-10192	4376	12904	-398	216	-358	-6672	6272	-17184	-1215	3032	572	-8720	5480	-13888	708	3106	198	149	90	2
-15528	-8968	15384	-7130	-32768	-32768	-15056	-7136	-16444	-2774	-32768	12365	-31820	-12484	-14612	5196	-25359	-8499	-9944	3000	14256	-112	537	-317	-28400	6912	-21696	-984	1766	322	-32768	11440	-13024	1708	3306	-557	127	110	2
-19384	-3692	19068	-7575	-32768	-32768	-12256	-3268	-15672	4866	-32768	15778	-24216	-3740	-13868	2176	-13253	-7371	-4672	3976	16232	292	1379	-404	-32152	7936	-19352	193	534	187	-32768	18144	680	363	4270	-1210	115	154	2
-24132	-3504	24468	-7929	-32768	-32768	-11724	2396	-16780	-4801	-32768	15952	-15572	7368	-18140	1656	-13292	-7968	-4040	6904	23000	-398	3725	-742	-32768	3352	-9096	735	515	402	-32768	216	21032	-1490	4165	-665	122	90	2
-27444	-1420	26412	-7154	-32768	-29348	-10540	400	-17824	-16054	-32768	13778	-5600	6048	-19408	12180	837	34	-3824	3672	18272	-713	6076	-1638	-32768	-7072	3136	1229	577	532	-32768	-19128	30632	-1276	3640	-480	131	106	2
-32036	-276	28180	-11420	-32768	-21089	-13984	924	-20480	-25293	-32768	9762	304	8680	-17784	8328	8424	4254	-17416	3488	20360	-697	8396	-2331	-32768	-5296	7232	2921	517	856	-25816	-15376	27344	939	3216	-1234	137	119	2
-32768	-3624	29024	-15261	-32768	-15136	-20116	-3032	-23052	-26654	-32768	3623	4212	8100	-15952	15126	11771	6130	-27376	3160	24816	-54	8879	-1718	-27448	2560	13632	4069	511	514	-15096	5584	28120	3752	3116	-629	135	191	2
-32768	216	19772	-17644	-32768	-18148	-24996	-3072	-30096	-18958	-32768	3132	4116	-2020	-9440	11640	7743	1764	-27464	6336	24136	287	8502	-1265	-20264	11648	24880	3283	1256	-588	-7160	18528	31616	1826	1513	-17	140	162	2
-32768	9308	-4264	-15384	-32768	-19079	-22496	-176	-32768	-20160	-32768	2825	-8448	-4820	18240	-1677	-14600	-2392	-32768	9520	26856	-510	7399	-1339	-8944	18480	17280	-728	2582	-999	-3904	16064	32767	-129	-538	24	168	105	2
-32768	20240	-31920	-11825	-29449	-5772	-4408	-9640	-32768	-15456	-20795	-4365	-11492	-5504	32767	-19699	-22039	-5535	-20224	17896	32767	-2501	4727	-1518	-20416	12504	6352	-3470	4940	-664	-2032	3584	26672	-1999	-1653	-82	128	145	2
-32768	16324	-32768	-4325	-10326	2675	5344	-12508	-32768	1544	1975	-3052	-2072	-944	17660	-12990	-3360	-3947	-30992	10200	32767	-1459	2132	-1133	-30376	-2128	4864	-3412	5329	291	-6440	-7400	6520	-2227	-1727	-89	102	120	2
-32768	11572	-17696	-136	4414	4163	1908	-3228	-31908	7289	17713	-480	3028	-5136	4304	-9904	8377	-6526	-9096	12048	32767	479	1607	-1609	-31248	-4168	10472	-2863	5193	332	-8824	-10048	7856	-1363	-2164	-666	124	98	2
-24752	2440	-11136	-4318	7304	-2782	56	2324	-22208	5236	23463	-300	2704	-10596	-19576	-13772	23485	68	-13064	22536	32767	1343	251	-1344	-21208	112	4856	4235	3039	845	-9272	-7312	9520	-459	-2528	-688	128	116	2
-30516	26856	-32768	28462	32767	30736	-10768	-30860	-12736	-8455	32767	-492	-11464	-8448	32767	14235	-27115	5535	-7736	23704	31112	1106	-633	-860	-25432	11824	-1592	4181	2526	684	-9104	-7720	7952	-276	-2788	-851	98	129	2
-32768	2720	32767	26976	15429	6196	-32768	32767	-32768	32767	32767	-7411	-32768	9784	-23448	32767	8767	-23574	-8136	30720	32767	345	-1479	-3	-22032	19552	-9224	1934	1536	50	-32768	21624	3800	1650	-2798	-320	58	125	2
-19456	-16	18736	9767	32767	29425	32767	-17892	-23584	-1543	32767	-7788	-12592	31272	-32768	2293	8872	-1402	-1200	25040	24480	-1161	-2985	904	-17320	12584	-6208	-1317	1031	-356	-32768	8832	1480	426	-3147	76	156	106	2
-32768	-2300	32767	30408	13988	23927	24252	-5676	-32768	25646	23627	-14593	25456	18336	-32464	-30038	4674	1050	2632	11768	17280	-807	-3707	1452	-14392	6776	-8408	-2533	-405	-288	-32768	9080	-1016	-864	-3269	589	121	142	2
-24036	-12792	15596	3219	-118	4379	-22108	11956	-23660	-11621	26702	-5686	-5364	-32768	-21516	-28918	4769	11166	-768	13232	17320	203	-4361	1963	-10440	8144	-15064	-2173	-2115	-616	-32768	7528	-6048	-917	-3551	685	151	158	2
-8028	-5556	14948	2569	360	3298	-30944	-10856	-12916	-6391	23562	-13720	-32768	-6324	-17080	-2888	17958	-14229	-3112	12432	13896	279	-5310	2584	-9576	2384	-15344	-1944	-3855	-888	-32768	2144	-11800	-552	-3281	543	109	147	2
-10880	-5652	13164	2416	1508	2987	-13528	-11568	-17308	7347	18289	-5443	-29088	-7132	-19352	-5184	30280	9450	-6088	4680	12728	767	-5575	3035	-8880	-1104	-13752	-788	-5385	-810	-29728	-4792	-13056	-159	-2990	528	140	227	2
-11068	-3112	13672	1650	1974	2770	-13940	-1796	-24036	10098	10612	-4237	-21884	-14040	-16420	-9734	29432	4056	-14552	4280	17352	1340	-5760	2811	-8704	1072	-12128	722	-6574	-762	-17088	712	-15320	341	-2287	544	97	142	2
-7700	-3688	15520	-882	6533	3304	-28496	348	-21748	2293	6426	-1492	-32768	-14128	-10048	-5635	31935	11180	-18944	7696	20904	1053	-6142	1821	-10352	7624	-16512	923	-7216	-37	-9536	888	-16272	222	-1387	308	103	162	2
-2316	-6552	17756	-687	24900	4349	-32768	4796	-17512	6669	2991	-1532	-32768	-4900	8912	6114	32767	9020	-27536	8120	32256	1705	-6668	1814	-12552	5496	-19896	-716	-7812	205	-3640	872	-16720	231	-219	-76	137	131	2
-2996	-6008	20304	7134	32767	11657	-32768	17324	-2336	3063	-99	-4413	-32768	14020	24796	3292	32767	6361	-32768	13280	32767	2300	-7539	2303	-18512	-232	-20232	-549	-7996	194	-1448	-1968	-16384	166	1226	-362	153	119	2
-9180	-2256	16264	8917	32767	20249	-32768	18100	8732	-10985	-504	-4592	-30504	11120	28848	-14409	31955	7397	-32768	15632	28232	2008	-7420	2771	-24648	2552	-24680	756	-8490	656	-3520	-7168	-15616	-586	1317	86	106	108	2
-26132	3036	20384	5456	32767	19106	-26128	11756	9232	-19171	1876	-4868	-18052	6976	27528	-28298	31169	6364	-32768	2680	17856	2198	-5840	3881	-24552	8208	-28000	28	-7364	546	-6112	3640	-7440	-1453	204	1119	99	120	2
-31624	756	16148	-9489	32767	9095	-15816	9060	11448	-30166	10062	-4059	-12908	-8792	23908	-28214	17597	6350	-32768	-7440	9392	1824	-4430	3498	-23400	9568	-32512	-242	-5415	518	-10832	12176	18512	119	-2030	1421	113	121	2
-28216	-4644	21004	-9340	32767	9478	-18312	540	23068	-24376	20796	-1795	-7648	-25872	28572	-15141	5970	5247	-32768	-30904	-18232	1503	-3307	1166	-5696	4752	-32768	-124	-3089	563	-5008	7080	32767	444	-311	162	132	63	2
-32768	-8120	27604	1832	32767	13696	-17236	-5140	19860	8033	23840	-324	-6880	-23704	25184	10203	-11593	4447	-32768	-27432	-31288	852	-1466	-890	8432	432	-32768	355	-437	431	-856	656	22120	393	-478	-158	132	175	2
-30596	-9824	32560	16894	32767	10247	-21620	1884	6476	28857	32767	-464	-5416	-10696	21592	18960	-23678	694	-32768	-18688	-20464	-764	578	-1904	4144	960	-32768	245	2155	169	7168	2040	16328	1785	724	-108	128	44	2
-32768	1060	32767	14036	20575	9240	-22932	10012	-4656	29971	32767	-2010	-2716	9552	6584	25971	-21975	3355	-32768	1768	-21280	-3010	2862	-1938	-5672	3368	-29248	-961	3404	87	-3840	15856	-5112	405	2203	-7	119	63	2
-21396	824	32767	-6180	3939	9987	-24748	16528	9392	2339	32767	-3995	-6328	14524	4852	14950	-22724	6558	-32768	-6800	32767	935	7764	-2057	-28080	31944	-6088	-442	4921	365	-27520	24352	32767	-1548	-4327	1150	124	238	2
-17416	-12252	32767	-12575	-3985	15868	-27704	6616	5160	-15462	31934	-6432	-24012	11228	2736	-16884	-30458	3915	21048	-7472	-10072	-2401	2329	-1688	-13976	-7312	3168	-3169	6917	-1400	-17528	-22056	-32768	-5294	512	1510	129	96	2
-16084	-25408	32767	-4441	-16673	16643	-30388	-768	-1108	-18317	22690	-2071	-32768	-6432	3104	-11882	-24464	-3056	-32768	13432	32767	-5149	4622	-3986	32767	4288	-32768	-2837	4682	286	928	-31760	-9312	1179	-67	1148	99	132	2
-6860	-22360	32767	1941	-28979	13523	-25536	-3376	8	-8319	10635	1349	-32768	-8780	2556	-2715	-30149	-6347	-29568	5384	30912	-1862	-69	-1346	-120	-15904	-32768	722	2660	1254	-4072	13912	-29424	3873	1002	-26	144	105	2
-7972	-19104	30520	-5331	-32768	5623	-19636	-5372	-6504	-57	-2174	3964	-32768	-15996	2428	4850	-29948	-7154	-10208	8416	14928	-769	77	-338	-32768	8312	-16608	3679	3959	855	-32768	18008	-16984	1564	1812	-338	140	124	2
-7600	-22876	22840	-7876	-32768	-3155	-17624	-5076	-11684	-1439	-17315	4549	-32768	-8008	-2320	7496	-29543	-6348	-10400	3752	12744	-452	236	-349	-9656	15240	-17592	1289	2119	1199	-26312	136	-10264	807	2512	186	142	94	2
-5188	-21156	14268	-4506	-32768	-13815	-17328	-5520	-11568	-1686	-19654	5074	-32768	-4540	-10480	9917	-26845	-9062	-8880	5648	13208	-234	370	-270	-12744	7824	-17624	-1016	2639	921	-16864	12888	-9632	1527	2755	-577	129	157	2
-10136	-14424	13636	-5737	-32768	-25427	-10452	-4372	-14608	-2056	-32768	10311	-32768	-5796	-14484	6202	-27158	-7139	-9240	4952	13584	-40	648	-211	-22224	10640	-19992	-914	1688	184	-32768	20504	-11624	1646	3087	-483	141	128	2
-19332	-10192	16960	-11906	-32768	-32768	-9868	-3388	-14872	-1884	-32768	12443	-18680	-5700	-13124	4344	-3749	-9912	-6688	3504	15664	384	1408	-258	-32392	10416	-19520	-314	786	228	-32768	17752	2640	311	3798	-394	127	146	2
-24996	-10384	21160	-10886	-32768	-32768	-10632	-5328	-14816	-9747	-32768	13016	-10952	-3588	-18372	6741	-3174	-2701	-2864	6472	21792	-37	3805	-507	-32768	4832	-9352	-226	923	224	-32768	4696	23464	-1006	3804	-551	127	124	2
-29388	-5380	27620	-7486	-32768	-32768	-13644	-5420	-15648	-10893	-32768	12112	-6976	-308	-20688	4725	3545	-1914	-4544	5136	20528	-724	6286	-1359	-32768	-4320	3000	920	962	315	-32768	-10256	32448	-1300	3432	-645	122	121	2
-32768	-6392	32392	-10372	-32768	-24607	-19200	-3112	-19076	-14862	-32768	9829	-16	8288	-20684	8544	10009	-132	-18120	4488	19264	-986	8551	-2152	-32768	-4208	8768	2531	883	627	-23232	-14200	32767	185	2860	-1120	125	126	2
-32768	-8196	26064	-15053	-32768	-17762	-21204	-632	-24848	-22534	-32768	3785	5820	9088	-18088	22687	15213	3061	-23800	3864	22544	-209	8976	-1890	-27776	-416	14392	3502	1028	481	-10696	-6248	30216	1849	2525	-790	130	164	2
-32768	-5852	6312	-21275	-32768	-22014	-27756	-9332	-29040	-12142	-32768	479	-596	-1736	-5204	21093	2436	839	-25472	5448	23248	181	8879	-1550	-21488	3736	19216	3187	1472	-81	-7496	6200	30320	1343	992	-365	152	158	2
-32768	216	-15184	-14778	-32768	-26446	-25424	-1132	-32768	-5501	-32768	-1464	-10256	-2888	29724	-950	-17757	-541	-32768	8632	27336	-200	8513	-1342	-18600	12232	23136	819	2453	-414	-1984	15976	27248	511	-500	-218	184	137	2
-32768	21380	-32768	-9167	-16547	-23762	-20848	-2116	-32768	-5284	-32768	-2785	-12060	-604	32767	-8856	-9442	-4644	-32768	18264	32767	-1239	5763	-1051	-19632	14464	-2488	-2039	4153	-533	-2896	6672	24552	-529	-1352	-512	57	123	2
-32768	21456	-32768	895	797	-9961	5216	-14216	-32768	6853	6674	-5016	-1832	-592	19144	-12061	699	-8715	-32768	13208	32767	-920	1508	-256	-23192	8	-1496	-2682	4719	85	-5600	-1216	7240	-1540	-586	-576	126	117	2
-32768	14604	-19920	1655	11387	-2115	-256	-5696	-32076	17010	21518	-2778	4536	-3560	4308	-10560	15775	-12971	3296	6736	32767	433	-104	-898	-27696	-8456	17272	6	3662	564	-8720	-9632	9080	-1231	-1773	-838	124	111	2
-32768	9820	-32768	13059	30740	452	-528	1904	-19608	16160	25335	-2604	4280	-5852	-2276	-10135	19069	-12302	-6400	16560	32767	1507	-833	-933	-21488	-3584	7328	3002	2330	567	-13008	-10528	9552	-12	-2292	-899	163	95	2
-32768	-13740	32767	-9384	32767	27967	-32768	-2732	-20080	32767	32767	-9338	6420	-16400	-25564	-12633	22443	-441	-7536	24392	32767	1268	-1712	-612	-27000	15200	248	3981	1437	463	-30488	10416	7360	2699	-3182	-831	2	128	2
32767	13984	-11452	10460	32767	16492	18104	9728	32767	32767	32767	12252	-24972	24692	-32768	32767	15921	-15207	-7976	32767	32767	-315	-3175	189	-29984	18152	-1944	3878	1345	443	-32768	10144	1824	1319	-2885	-296	80	102	2
-32768	-10932	32767	27181	17021	22797	1432	-32768	-32768	32767	32767	-14555	18132	32767	-6032	8686	3659	773	-3176	17920	21776	-896	-4696	1133	-18648	11672	-4904	-1479	-205	-227	-32768	9136	4160	409	-3250	115	142	93	2
-27252	-16068	6660	4344	-2154	5370	3728	6260	-32768	19348	21767	-19558	17296	-10232	-30692	-13521	8446	3777	2064	10432	9256	313	-4712	1669	-17528	5312	-10432	-1789	-1660	-314	-32768	13264	-1200	-1203	-3207	526	115	133	2
-10424	-3184	14276	3558	-258	1681	-32768	-2592	-10508	-21850	27709	-7981	-32768	-31324	-16496	-18793	11457	-3390	1576	11072	8768	452	-4640	1700	-12480	7992	-16208	-1386	-3298	-636	-32768	3864	-8296	-904	-3223	432	76	166	2
-10388	-1708	14564	2817	1549	1975	-17104	-17612	-25672	2912	20216	-8203	-32768	-7308	-16828	-515	29886	-1261	-10328	11936	18008	601	-5121	2513	-10024	4120	-17024	-1153	-4469	-833	-32768	200	-13104	-232	-2930	70	161	141	2
-11216	-1656	13652	1207	3364	2413	-17824	-6900	-27312	16439	10556	-7936	-16336	-7808	-15568	-10162	26076	4526	-12840	5880	16048	1259	-5745	2717	-10720	2496	-15152	503	-6135	-555	-22840	-1144	-14280	423	-2471	351	135	94	2
-7972	-3668	15512	-1951	9113	1783	-26868	2700	-18892	5980	5275	-3322	-32768	-13380	-9668	-13497	28949	3654	-18240	4816	19624	1875	-6111	2232	-8968	3904	-17400	1566	-7067	-151	-13928	4792	-18024	832	-1542	364	91	132	2
-2868	-5824	17336	-2651	26944	3278	-32768	4552	-13824	-3508	3755	-5172	-32768	-7496	9188	-2705	32767	9822	-25160	9816	23976	1933	-6796	1633	-8600	6136	-17472	1587	-7579	497	-6688	4208	-19808	359	-299	-94	116	154	2
-3152	-5544	20140	2959	32767	10061	-32768	12368	-596	-3085	804	-5674	-32768	3276	23864	-3902	31266	6593	-30000	14056	28264	1961	-7395	1650	-14088	4984	-19728	735	-7934	892	-232	1400	-17976	144	605	-313	123	152	2
-10760	-3208	15964	3878	32767	17319	-32768	17072	10380	-11206	198	-5911	-29884	8328	32652	-17171	32435	5447	-32768	18568	24632	2000	-7274	2376	-24264	4496	-24216	87	-8097	1252	-96	-6192	-15168	-852	1149	304	129	110	2
-25904	2872	19888	-2152	32767	13980	-23532	17292	7916	-19312	2771	-5719	-15584	12788	27584	-24490	30796	7148	-32768	7304	13088	2368	-5765	4270	-20848	3152	-30672	-950	-7010	954	-3944	3640	-5520	-1490	83	1272	169	110	2
-29940	-456	17156	-16963	32767	3338	-11056	9944	10452	-32768	13063	-5807	-8428	-3804	23576	-28362	15427	6568	-32768	-7024	232	1508	-3393	4707	-20000	3320	-32768	-1217	-4571	285	-9416	10048	21280	-206	-2368	1312	107	124	2
-27696	-5532	22392	-9308	32767	5958	-18232	-3832	25112	-28046	24139	-2257	-8504	-28520	28744	-22028	3618	4115	-32768	-29224	-16280	711	-2047	2230	-2736	6472	-32768	-398	-2497	435	-13856	8144	32767	401	-421	292	157	89	2
-32768	-8700	24000	3869	32767	10932	-20248	-4616	18672	13072	27265	-2006	-9484	-24580	22056	7156	-14333	2739	-32768	-23968	-26928	216	-782	-380	5336	2880	-32768	-770	149	375	8104	1312	21152	361	172	52	131	102	2
-24976	-372	32176	7655	32767	7536	-20364	4352	6460	29280	32767	-1271	-4212	-10084	19056	18689	-23705	2448	-32768	-10528	-17968	-443	838	-1074	2960	-640	-31064	-802	2379	-46	1816	-720	5544	494	1844	125	118	78	2
-32768	880	32767	-8441	19023	15686	-22204	10196	-2468	17959	32767	-4646	-3464	10836	6796	26816	-22118	4391	-27176	424	-6192	-1180	1845	-480	-608	-776	-21784	-915	2931	-139	-8448	8696	-30608	190	2863	188	120	103	2
-22328	-10268	32767	-16104	-2338	22704	-23956	13088	8108	-8193	32767	-7880	-4212	13624	6052	26326	-22312	5008	6680	-32768	-32768	-3029	6652	-2632	-1088	26792	-15768	-1013	3136	13	-6904	20184	32767	-1699	-3214	1218	150	186	2
-14556	-17740	32767	-14272	-12149	26581	-25756	5860	4972	-17513	29289	-9284	-15656	6268	2948	-17337	-25811	3395	-32768	-32768	13616	-2441	2175	-717	-32768	-32768	-32768	-9681	5727	612	-32768	-3048	-32304	-4723	3141	1604	127	119	2
-15640	-26324	32767	-9480	-19769	22305	-30076	-712	-2124	-19479	20675	-3967	-32768	-12184	2588	-22691	-25405	-3545	-32768	32767	32767	-3272	5639	-4349	16448	7688	-19352	-2390	6736	-725	-10992	-32568	-17072	318	1164	1627	108	67	2
-7328	-27720	32068	1341	-31096	13829	-25320	-2656	-3184	-8425	8024	1264	-32768	-11120	2768	-4798	-31476	-6994	-32768	-21152	32767	-2422	15	-2349	13280	2624	-32768	2345	1616	2850	22816	9184	-28376	3941	462	-589	76	103	2
-3428	-19912	24676	577	-32768	3623	-20928	-2208	-8632	1587	-7791	2971	-32768	-14520	1048	7636	-30407	-9181	-11528	8040	14208	-1006	-145	-407	-23416	-6528	-24016	3467	3760	571	-32768	32767	-18720	3419	1162	349	149	37	2
-6808	-16892	22648	-6021	-32768	-9608	-15196	-1076	-14508	-135	-19267	4198	-32768	-9184	-3464	10890	-31449	-8414	-11072	6064	12864	-780	-31	-452	-15752	17776	-14736	-131	2464	677	-32768	408	-13112	-720	2611	49	142	154	2
-13064	-15224	21092	-9922	-32768	-23231	-12456	-2756	-17104	-4683	-30745	7617	-32768	-5100	-10888	9249	-25781	-4729	-9856	6304	12648	-422	171	-369	-10128	2968	-18800	-1715	2310	843	-25720	3192	-13016	254	3467	24	138	157	2
-13964	-12772	14364	-7981	-32768	-32768	-11268	-4604	-13988	-1150	-32768	8677	-29296	-5572	-12220	5326	-26010	-3026	-9736	3344	13768	-56	569	-267	-24976	2992	-21032	-1060	1677	700	-25872	11248	-9128	1943	3043	-328	126	133	2
-18952	-7660	13320	-5126	-32768	-32768	-11116	-4376	-13676	4893	-32768	11640	-20852	-7292	-16320	2739	-7586	-6676	-6448	4504	15712	479	1668	-340	-32768	9920	-18544	249	353	433	-32768	18424	3568	858	3459	-839	123	128	2
-23396	-2588	19372	-4411	-32768	-32768	-9508	-1268	-15288	2553	-32768	14931	-9404	-1804	-17620	11828	-5015	-2677	-3488	5760	22168	95	4069	-672	-32768	6136	-7200	574	325	486	-32768	7784	21800	-1059	3709	-696	114	126	2
-26652	1732	24160	-6582	-32768	-32159	-9500	-3520	-16364	-9946	-32768	15631	-5020	396	-18576	11937	4545	231	-5648	5296	18544	-130	6362	-1483	-32768	-1096	3656	1176	661	533	-32768	-7976	29008	-1133	3409	-443	135	89	2
-32768	-2860	30504	-9015	-32768	-17736	-10396	-3660	-17232	-11744	-32768	15162	1692	2968	-20172	13186	13366	1341	-21776	5736	19976	-331	8432	-1994	-32768	-3608	9584	2339	551	709	-22280	-7368	32680	105	2972	-953	130	143	2
-32768	-8044	26260	-10409	-32768	-9467	-21104	-6760	-28552	-28584	-32768	4498	3080	8560	-18564	14993	17795	133	-23048	4632	21600	378	8530	-1573	-26224	-976	16744	3751	908	539	-8080	-4720	32440	1589	2388	-361	128	187	2
-32768	-6852	-3340	-17241	-32768	-16033	-26060	-11828	-29904	-11006	-32768	3383	-7036	-2716	-5892	1093	4248	-1384	-26264	6064	23480	868	8400	-1254	-21584	5008	23312	3330	1272	-70	-7384	10512	32767	1903	1171	-323	146	105	2
-32768	-180	-22816	-14228	-32768	-20040	-22644	-44	-32768	-5039	-32768	-1198	-11964	-2000	22320	-4843	-14884	-2384	-32768	10968	29368	449	7489	-1052	-12000	16248	14248	1337	2950	-624	-1352	17224	30320	659	-500	-198	191	133	2
-32768	20100	-30088	-17691	-14228	-22397	1776	-5616	-32768	-10229	-13192	-7047	-8204	-4304	32767	-7013	-8088	-3876	-31840	19080	32767	-852	4653	-884	-21616	10104	6104	-2339	4600	-470	-2888	5048	23272	-1467	-1685	-132	112	146	2
-32768	18708	-30340	-17109	-11072	-22674	3236	-14232	-30328	-447	6480	-4720	-1416	-952	17252	-10084	2594	-6119	-31224	16968	32767	-665	1374	-814	-28136	-3632	8072	-2285	4919	213	-5264	-9608	-1896	-2205	-1157	-527	116	117	2
-32768	19672	-15104	1897	9882	-2895	-1812	-5956	-28284	19135	18412	-2902	5696	-5708	2844	-5981	16618	-9050	-3576	12416	32767	725	445	-939	-25760	-9640	11952	826	3917	760	-10248	-13448	6616	-785	-2036	-897	116	108	2
-18736	6276	-10324	-2336	17449	-3154	796	5500	-25420	20260	20707	-1957	7256	-12012	-26152	-8344	32767	-1092	-2064	23640	32767	1740	-1042	-399	-18672	-1064	10048	3792	2623	647	-11472	-11544	8016	784	-2460	-886	164	117	2
32767	32767	-32768	4317	32767	26733	-20332	-24248	32767	-32768	22469	2999	-32768	-17408	32767	21235	-32768	105	-2168	28720	32767	764	-2385	56	-21056	11760	2032	3740	1786	727	-22208	5352	3416	2858	-3021	-1180	105	131	2
-7560	32767	-23536	18399	18095	12387	-2588	6596	-13852	12497	32767	7684	-32768	29724	-32768	32767	19245	-28785	-2456	28152	32767	-260	-3712	1009	-23008	15032	1784	3667	1698	761	-32768	17976	3128	2043	-2793	-303	102	129	2
-32768	-32768	32767	28368	26261	32183	30772	-28256	-32004	14022	32767	-17702	9848	32767	-32768	-7442	-1800	2378	3000	13568	20264	-560	-5119	1979	-20448	8896	-5136	-2350	-254	-83	-32768	13368	4600	508	-3144	481	134	83	2
-32768	-32768	4048	8486	44	10238	13448	-520	-32768	18374	21932	-18412	32392	2228	-29908	-30058	7302	3500	4592	4848	9696	213	-4683	1874	-20424	1776	-9520	-1933	-1811	-278	-32768	10816	608	-1482	-2794	517	102	144	2
-11936	-14584	12784	1004	-23	1553	-29572	2252	-21632	-11254	26635	-6530	-27924	-32768	-18812	-30738	6820	7543	-3304	11704	16376	79	-4269	1597	-14400	6648	-16280	-812	-3317	-663	-32768	7744	-6688	-1411	-3305	161	161	186	2
-10620	-2384	14132	2478	203	2019	-23728	-19016	-22748	1762	19310	-6729	-32768	-7104	-16796	7095	24257	-14223	-10912	5856	21888	100	-5154	1769	-13536	3696	-17712	-361	-4705	-899	-32768	4008	-11496	-595	-3095	199	99	109	2
-10756	-4416	13584	2425	449	1873	-20560	-11748	-26468	14481	12597	-4297	-14604	-8824	-15760	-1739	32364	6050	-13144	3920	19536	569	-5850	1308	-12912	2920	-16968	1372	-6266	-771	-25784	1920	-13416	52	-2672	425	134	103	2
-10120	-3848	14480	313	6248	1763	-21756	-1448	-19848	10497	7978	-1769	-32768	-15512	-12716	-7798	32453	4986	-21032	10952	22040	461	-6459	730	-10800	5104	-16752	1702	-6931	-231	-17440	3872	-17024	-36	-1568	80	81	155	2
-3912	-6096	17496	-1955	22254	3169	-32768	6856	-12260	3744	5235	-1590	-32768	-8844	7008	4267	32767	12302	-22088	13096	22176	516	-6920	1143	-9432	4616	-16888	66	-7160	-36	-8152	2456	-17008	276	-655	137	94	161	2
-3836	-7384	20700	6813	32767	10907	-32768	12948	-2128	1590	1804	-4301	-32768	-5664	9552	5961	32767	11150	-21952	14608	22296	1031	-6676	1883	-17848	1200	-19304	-1183	-7384	138	2184	776	-14696	184	932	22	109	122	2
-8164	-952	16376	7702	32767	20177	-32768	18764	6148	-8462	823	-6304	-32768	19128	26168	-5769	31219	1370	-32768	16872	28320	1423	-6152	2665	-22768	2728	-21440	-815	-7710	296	192	-8832	-15000	-1122	1712	200	154	117	2
-20428	904	17440	5122	32767	20496	-26456	17052	10688	-18928	2315	-5610	-20312	13464	26760	-27980	31157	4818	-32768	15384	20288	1500	-5452	3697	-21368	6416	-24024	-1582	-7059	260	-4408	-6000	-7056	-1558	850	544	112	130	2
-32768	3792	18048	-7670	32767	9775	-15672	7440	5292	-27550	9066	-5274	-13928	1984	23136	-32758	20082	4047	-32768	-3184	7272	1759	-3784	3928	-21464	6440	-23168	-1596	-6829	232	-8640	4376	8088	-1222	-708	672	105	95	2
-25508	-5896	20364	-9348	32767	8155	-14324	2380	21484	-30647	22743	-4032	-9372	-22440	25184	-28681	7456	3698	-32768	-19592	-5632	2078	-2688	2313	-9184	5224	-31744	-88	-3741	552	-7344	2208	32767	-927	-2195	327	117	98	2
-25988	-4264	18044	983	32767	11462	-13112	-5244	19360	-2813	25372	-2717	-4512	-27804	21176	-9718	-3993	3448	-32768	-22592	-21000	1386	-1809	337	5576	4968	-29400	1087	-1534	453	-8112	2096	22400	908	-645	-454	158	154	2
-32768	-4620	30612	9054	32767	9510	-16032	348	7508	23409	30239	-1080	-2432	-15024	14880	14520	-14899	2859	-32768	-17552	-27912	-78	-123	-1042	4800	4520	-25928	392	846	238	8928	1280	16080	2766	337	7	138	73	2
-28384	6612	27220	10987	29291	8782	-16348	5748	3556	22515	32767	-2023	-6124	-488	18084	24461	-21098	2073	-32768	1416	-25368	-1259	1854	-1196	1760	3944	-21048	-1010	2365	-150	2056	12112	-8136	893	1508	352	160	87	2
-26708	-2736	32767	-4246	7058	7654	-23560	11104	4760	6605	32767	-4081	-8172	14736	7524	23293	-21253	3714	-32768	-32768	-32768	-2231	7870	-3841	-5112	29472	-27624	-1063	3709	412	-32768	26112	32767	-626	-2658	948	115	170	2
-22332	-9704	32767	-9656	-2983	14020	-29520	8000	3356	-9754	32767	-8349	-10040	10272	808	897	-23764	4333	-32768	-10816	30480	-2048	1306	-1048	-32768	-32552	-32768	-6696	7536	222	-24800	-13088	-32768	-4087	2280	725	130	149	2
-18248	-19412	32767	-10449	-9827	16768	-32768	480	-352	-13647	27358	-5372	-32768	-4624	6452	-14120	-23089	-2509	-32768	32767	32767	-3315	6102	-4140	20904	5192	-26312	-3046	5952	81	-4176	-28296	-15944	487	85	1446	99	104	2
-12324	-24496	32767	-1789	-18420	15859	-27048	228	-2596	-3537	16729	-2977	-32768	396	1740	-4132	-30448	-3097	-23064	4304	32767	-2861	681	-2175	18856	-2576	-32768	1474	2149	2044	19080	18600	-27896	2876	372	70	130	99	2
-9344	-17584	32767	-5117	-28579	9316	-19784	264	-6356	-3375	5638	-2244	-32768	-11308	412	324	-31401	-6244	-8632	-4792	14024	-836	-251	-582	-32768	-5912	-22000	2555	3835	503	-32768	28232	-12536	970	1120	395	129	100	2
-7620	-18700	26256	-11883	-32768	-761	-17840	-1832	-10304	-5872	-9584	-274	-32768	-4872	-1336	337	-30128	-3111	-10040	7016	12768	-620	87	-450	-13104	11248	-11912	1566	2518	574	-32768	-7592	-10248	-567	2307	345	130	158	2
-7840	-18248	20560	-11667	-32768	-13098	-13492	-1384	-15100	-8898	-21861	1885	-32768	-1884	-8944	-1371	-28691	-6746	-10680	4936	12312	-427	222	-326	-5424	12920	-19824	-176	2377	982	-13024	4824	-13816	1172	2659	-138	160	146	2
-6660	-13168	13600	-8601	-32768	-25226	-9936	-1108	-13540	-8184	-32768	3623	-32768	-7704	-13900	-1077	-23351	-7382	-9904	3808	13152	-248	371	-330	-21592	11680	-23232	-1273	1984	538	-24592	17264	-10496	1912	2655	-87	129	148	2
-11852	-8396	13040	-7632	-32768	-32768	-9040	-2220	-12900	-1800	-32768	6411	-16016	-7252	-9124	-186	-18587	-10427	-9864	3960	12880	-220	424	-305	-26544	9888	-18408	-274	858	101	-32768	23464	-6592	760	3484	-365	126	132	2
-19044	-4488	17432	-9087	-32768	-32768	-10068	-1956	-14632	2147	-32768	9693	-16680	-6332	-17812	659	-17419	-6127	-5872	8224	18896	319	2363	-529	-32768	8904	-11240	-378	658	-62	-32768	9032	13952	-966	3935	-403	116	153	2
-25844	-2608	25068	-6908	-32768	-32768	-10628	-2320	-15196	2896	-32768	10181	-8592	-2516	-16780	11522	-29	-2865	-4808	4912	21256	-503	4665	-1052	-32768	-2856	-1352	-762	948	285	-32768	-8112	27544	-1607	3574	-403	121	108	2
-32584	-2088	32576	-3536	-32768	-30411	-14140	-1680	-17692	-8929	-32768	14387	-2704	-2212	-19504	13987	9717	585	-8672	2848	16704	-822	7108	-1911	-32768	-9136	4152	779	935	598	-30728	-12368	27944	-657	3302	-1036	118	142	2
-32768	-6060	30916	-1182	-32768	-18618	-20440	-1108	-20888	-19376	-32768	12264	1108	3048	-19800	21239	13888	527	-25808	3704	21944	-615	8346	-1889	-29064	-4296	6520	2741	806	759	-14056	-6176	28336	1587	3026	-645	119	142	2
-32768	-5748	21088	-8129	-32768	-14491	-19640	-3832	-25308	-23744	-32768	7983	1556	8124	-13220	25063	11413	-323	-18232	2208	20328	-78	8369	-1431	-24208	3360	16272	3211	1128	190	-9144	4576	25512	2140	2342	-272	148	134	2
-32768	-5364	-712	-14552	-32768	-13965	-27164	-5812	-25768	-19391	-32768	2536	-5276	948	2500	12725	-3948	-245	-23888	5712	19312	-494	8187	-1378	-17056	4352	20224	1712	1906	-300	32767	32767	28256	-68	799	-258	164	137	2
-32768	5748	-22544	-18527	-32768	-11390	-16252	-2288	-32768	-12607	-32768	-5825	-10856	6332	32767	-3986	-16982	1558	-32768	12336	32056	-1088	7298	-1021	-13200	7904	12328	-625	3137	-359	336	5456	24968	-1003	-510	86	156	113	2
-32768	11612	-32540	-20937	-15707	-13730	1992	-7184	-32768	-16430	-10748	-7865	-6976	660	27784	-15109	-4220	-985	28616	13312	32767	-1887	3963	-195	-21056	6744	1624	-2165	4227	-58	-1400	1448	18080	-1183	-1271	-423	114	130	2
-32768	14080	-29316	450	-187	-8680	4464	-9428	-29936	-141	9010	-4663	-6596	-1816	20436	-18856	-2512	-6291	-14224	7416	32767	-253	1065	-620	-27960	-5424	11256	-1408	4360	309	-6240	-5536	9496	-1316	-1537	-644	103	104	2
-32768	13960	-19340	7478	11007	-6914	2760	-1968	-24948	20757	19429	681	10428	-15440	-13636	-12462	26487	-10636	-12952	13352	32767	857	494	-866	-27176	-6072	7256	1260	3730	702	-12904	-11376	4904	-924	-1839	-769	112	103	2
-32768	18208	-32768	20615	32767	-617	-1144	-5356	-17712	32767	19923	5111	13348	-31144	-28180	257	21421	1626	-16328	22360	32767	1246	-1650	-73	-20784	-1248	-1888	2928	3048	571	-13248	-13688	5376	416	-2882	-1071	146	111	2
-32768	-32768	32767	27406	32767	32767	-32768	-28724	-32768	32767	30613	-24748	-32768	-32768	32596	23848	-27493	-13808	-1608	19592	32096	764	-2815	-327	-32768	15056	-3040	3483	1829	819	-32768	5184	7592	3373	-3208	-926	112	106	2
19228	12976	11032	15245	32767	19273	32767	32767	19376	32767	32767	-5704	-29308	32767	-32768	31829	28602	-12442	4240	19344	22248	-91	-3266	-334	-18832	7280	-640	1416	387	421	-32768	1792	-1536	2253	-3218	-561	150	106	2
3036	12224	-9144	17312	-385	15657	5552	-32768	-32768	1705	32767	-20037	32767	32767	-14244	1880	-2310	4274	3512	9904	20208	241	-3897	-283	-15768	5160	-7032	285	-612	466	-32768	7568	2888	1545	-3337	-249	114	123	2
-12632	16288	25936	5473	-2357	5291	-1816	-3536	-31088	-6774	27650	-12038	10276	-13460	-32768	-23433	3647	-1795	1864	11000	17784	1455	-4524	109	-14944	7864	-12872	131	-2271	444	-32768	11720	-4968	144	-3182	-135	110	143	2
-11788	-3512	14220	2543	-1460	1412	-32768	-19392	-15872	1229	23005	-8798	-32768	-32768	-28200	-9238	22615	-9412	-2032	15848	18440	1576	-5108	745	-13384	6256	-15184	-426	-4011	270	-32768	4072	-10880	80	-2975	365	104	203	2
-10304	-5492	13336	1101	1071	1775	-18032	-8588	-18640	15119	13996	-5995	-32768	-1808	-16804	-395	32767	619	-7456	9280	18032	1782	-5750	1789	-10944	-8	-15120	-542	-5269	87	-32768	136	-13664	98	-3092	22	157	156	2
-9728	552	14524	549	2639	2312	-13840	-1116	-31408	9642	8985	-8010	-14140	-6508	-16340	-12611	21195	2121	-11208	6328	17840	2498	-5753	2453	-12112	-16	-15264	792	-6532	187	-18648	2624	-14416	34	-2309	83	140	115	2
-9880	-4432	14120	-261	6544	1821	-21480	-1384	-21100	-8297	6451	-4851	-32768	-12788	-14104	-15587	30262	5777	-17880	7840	23184	2498	-5992	2404	-10824	5416	-16192	1877	-7312	569	-10312	5432	-16344	278	-1427	119	81	146	2
-3784	-6516	17832	-174	20884	3855	-32768	-804	-12808	-2335	3751	-3627	-32768	-16324	8872	-5755	32767	9631	-23768	7504	30256	2402	-6515	1899	-11928	8336	-16648	953	-7820	986	-5688	4600	-18376	290	-296	-80	112	148	2
-2704	-2880	21376	9063	32767	10433	-32768	12212	-388	7445	-4	-3541	-32768	-1340	25168	6384	30118	6690	-30560	12568	29256	2793	-7284	1626	-19016	3184	-19688	540	-8115	1480	-5256	-1144	-17528	572	723	-279	117	123	2
-7072	-928	16348	10320	32767	17861	-32768	21444	8160	-6954	609	-5492	-31212	13120	30096	-1911	31799	5899	-32768	15640	22576	2758	-6651	1968	-26032	3856	-24520	220	-8054	1864	-4640	-7448	-11216	-23	1151	67	140	100	2
-23100	1980	16924	6012	32767	15770	-24916	17236	9056	-18825	4204	-6302	-16172	16516	27984	-20320	32189	6593	-32768	6104	19680	3272	-4831	3607	-24384	2840	-31528	-383	-6996	1477	-3696	3336	-3168	-747	-625	1459	138	100	2
-32768	4464	21236	-6401	32767	5334	-14424	11072	5804	-25219	10521	-5401	-11996	1304	23912	-28274	21009	7569	-32768	4472	18912	3344	-4591	3884	-18376	1840	-32768	447	-4756	1221	-4792	18656	24416	1979	-2594	1257	113	120	2
-23432	2044	21936	-3232	32767	2099	-15460	3636	23992	-22342	23269	-431	-7248	-28528	27796	-24704	7176	4719	-32768	-26728	-20792	1800	-2146	3512	-1936	3696	-32248	798	-2311	842	-9176	13776	32767	1807	-113	377	130	72	2
-32768	-6788	27944	10445	32767	5342	-20300	-8100	16536	14755	26659	-524	-8180	-24808	21620	5738	-9358	2957	-32768	-27360	-32768	131	-101	993	6336	3952	-32768	-1070	189	562	12688	8888	20792	259	260	749	133	94	2
-30228	-5132	32767	27003	32767	4039	-16756	4812	4484	32767	31770	-126	-4020	-3780	15184	20815	-18656	3347	-32768	-16712	-17488	-906	1942	-17	4712	-4472	-32768	-3035	2875	-259	2712	7648	4416	-269	1714	907	125	78	2
-32768	15896	32767	6092	14273	4388	-18564	16228	-2880	28382	31253	-3027	-5656	13596	8152	24545	-21528	7545	-32768	-14120	-24472	-3283	3103	534	512	-3728	-25536	-2299	3781	-476	-7064	8720	-17792	-1247	3064	364	186	88	2
-7164	276	32767	-21542	-4144	11171	-26396	22868	13880	-16489	32110	-7968	-10000	21828	3608	11703	-23178	9807	-30664	-32768	32767	-931	8363	-4044	-24536	32767	32767	-1324	5070	360	-20648	18752	32767	-2179	-5322	1247	146	152	2
-18260	-15956	32767	-21611	-11955	17867	-24416	3536	4312	-30837	28884	-9530	-18684	2892	3092	-19929	-27429	4648	-4160	-17792	72	-1936	2491	-2412	-15568	-25912	-4696	-4168	7125	-1756	-25880	-18672	-32768	-6160	2410	1469	135	116	2
-15476	-29028	32767	-8878	-26699	15537	-32768	-2048	-1016	-29536	20400	-2297	-32768	-8432	3852	-15899	-28760	-2168	-32768	17224	29520	-4325	3298	-3819	28264	19960	-31312	-1579	5712	-242	1984	-28512	-21688	985	974	1056	94	83	2
-6328	-24708	29140	3218	-32768	13881	-28940	-6632	1592	-7904	7819	2140	-32768	-12800	4832	-4226	-32768	-6225	-22880	19480	14376	-2106	-438	-1509	4304	-12944	-32768	625	2058	1901	8760	16200	-27240	3373	1006	-26	97	117	2
-4700	-21368	25556	194	-32768	7781	-22432	-4604	-7612	4389	-5089	2583	-32768	-14932	2708	4459	-32768	-8784	-9504	13360	13344	-1065	-333	-426	-32768	6432	-15848	2126	4541	-75	-32768	27328	-17800	1099	1554	424	147	104	2
-5740	-23432	22700	-5930	-32768	-2855	-23112	-3052	-14624	5401	-21249	4404	-32768	-7692	-1096	5613	-32768	-8347	-11504	5400	12320	-613	-43	-454	-8296	10120	-16704	-196	2442	502	-29896	-2512	-12328	-558	2741	621	119	161	2
-10872	-23184	20920	-7908	-32768	-18896	-16252	-2088	-16768	433	-32768	7951	-32768	-3652	-9936	4497	-28857	-8371	-10488	8472	11960	-279	222	-305	-11880	4304	-18936	-1035	2503	897	-17120	3688	-12264	772	3424	-623	151	178	2
-15424	-16052	18992	-10675	-32768	-32768	-10736	-4036	-17748	-631	-32768	8747	-29676	-2568	-13356	1838	-24583	-2471	-10224	3456	13248	-45	542	-262	-21664	7240	-23544	-671	1327	168	-31944	15320	-14232	1312	3237	-558	100	150	2
-21256	-10064	16628	-11620	-32768	-32768	-9300	-2212	-13548	-5907	-32768	10651	-11164	-592	-5332	-4396	-6539	-2998	-6136	1704	16176	287	1287	-284	-31728	11472	-21976	-53	323	285	-32768	16824	320	82	3896	-489	141	140	2
-21956	-9416	16560	-11146	-32768	-32768	-6976	-4300	-14112	-12796	-32768	10518	-7704	-1688	-18324	523	-6618	-3130	-1968	8200	20832	168	3667	-608	-32768	6416	-9624	124	530	211	-32768	3544	20896	-1545	4223	-561	122	99	2
-28712	2208	26200	-7983	-32768	-32768	-10048	-4936	-17644	-14106	-32768	10672	832	-1292	-17916	7220	7136	-1548	-3992	4480	19656	-508	6322	-1526	-32768	-6216	4456	1188	561	448	-32768	-14720	32767	-2059	3740	-492	116	112	2
-29556	2068	27560	-8338	-32768	-32768	-19072	-2308	-21428	-15730	-32768	8408	6656	3612	-18800	15210	14889	3144	-12968	1912	18896	-607	8949	-2266	-32768	-11648	15128	3159	692	1048	-19080	-21400	32767	-5	2857	-496	138	144	2
-32768	-1592	30332	-8213	-32768	-13453	-27448	-2832	-29564	-17798	-32768	6215	-1108	3212	-11704	20200	16181	1542	-27912	2432	23648	-13	9616	-1570	-32768	-11512	16616	3413	702	1058	-7312	-9592	32767	2782	1651	-752	129	147	2
-32768	944	5512	-11929	-32768	-13486	-26544	-1944	-30732	-21636	-32768	7054	-12812	-9068	5520	13388	1231	-7338	-31104	7120	26536	23	9280	-1317	-19304	12768	23296	3472	1961	-166	-7952	5992	30072	3358	-8	-666	147	120	2
-32768	8608	-32156	-8897	-32768	-3566	-11336	-7172	-32768	-13664	-30269	-3937	-15596	972	32767	-3207	-8458	-6172	-32768	11824	29584	-786	8016	-1355	-19824	19728	11656	-91	3356	-371	-6616	12184	22504	2240	-1416	-449	166	128	2
-32768	14916	-32768	-16566	-10365	-1273	3352	-9572	-32768	-4627	-5089	-6920	-14864	2816	32767	-4051	-9746	-4372	-17200	8384	32767	-1211	4947	-1117	-23216	6632	6712	-1891	4863	-352	-4728	12040	8832	493	-1599	-287	115	133	2
-32768	7188	-26616	5698	7078	-943	4452	-7824	-32312	7183	13626	-2902	2476	188	17524	-16325	3417	-2334	-32768	23888	32767	725	2043	-1219	-24944	3216	4856	-610	4360	326	-5432	2736	9040	-1342	-2408	-475	111	122	2
-32768	14176	-5000	5217	13149	-1404	-1688	-5044	-27304	14330	24023	-1199	4440	-15688	-11980	-8641	23881	-6151	-6136	20688	32767	384	676	-1217	-23304	-800	11504	1487	3460	660	-8736	-6280	7792	-1059	-2098	-602	116	101	2
-32768	-11660	-32768	19980	24027	4619	-5440	-13904	-21720	14188	29468	-1266	-24	-15236	6336	7911	-2989	2763	-4864	19680	32767	683	-8	-580	-21584	4192	4944	2112	2602	647	-13392	-440	5024	640	-2378	-782	136	81	2
-32768	-32768	32767	19599	32767	13741	-32768	32767	-32768	32767	32767	-12366	-32768	-32768	-8896	9528	383	-24743	-11008	25360	32767	883	-1263	287	-27536	17312	-4792	1846	1750	81	-32768	17056	6648	1388	-2916	-268	122	102	2
32767	18892	-10404	1831	32767	14295	32767	-5960	-984	27573	32767	-2798	-18652	32767	-30788	23384	11209	-10169	-3416	23936	30000	-154	-3190	892	-20112	10944	-2904	-36	945	-368	-32768	4664	3784	19	-2991	-210	185	75	2
-7144	1328	6344	24412	13559	17958	3512	-19744	-32768	32767	27782	-10697	18096	25988	-16720	-2310	8644	-3461	-904	13688	22304	-445	-4301	1025	-16160	8536	-4232	-1097	-224	-86	-32768	4184	2344	-511	-3340	172	75	116	2
-11868	2324	2700	8214	-1971	5316	10312	-8544	-32768	30527	23490	-12261	10244	-17024	-28420	-14104	6097	5389	2048	10464	14688	142	-4938	1180	-12856	5536	-9584	-864	-1685	-317	-32768	9040	-1408	-737	-3361	428	108	139	2
-10192	-2056	14408	2352	-837	1537	-32768	-7176	-16096	-16045	28504	-13316	-32768	-16144	-20616	-12842	15118	-5198	-3688	12928	15880	440	-5483	1539	-12304	6784	-15464	-901	-3418	-506	-32768	1512	-6040	-446	-3245	516	165	144	2
-10500	-2704	14336	847	1266	1640	-14112	-12724	-25804	693	21784	-9719	-32768	-8468	-17608	-7982	27325	1747	-6872	9392	14760	728	-6016	2111	-11560	2160	-15792	-818	-4795	-471	-32768	-2240	-11128	19	-3001	422	95	177	2
-9812	-2220	14308	-12	2385	1707	-16364	-9576	-28552	13034	12265	-7560	-17212	-15584	-18768	-13995	26202	3714	-12040	7088	16232	1433	-6129	2480	-12024	840	-14312	-67	-6070	-481	-24600	1152	-12992	102	-2448	532	127	149	2
-9612	-3956	14956	-928	4796	1457	-22028	-4228	-22716	8329	6519	-2481	-32768	-20792	-19088	-10877	31386	4451	-18912	11208	21976	1504	-6322	2440	-12176	5064	-17048	1016	-7052	-91	-15520	1912	-15224	848	-1782	280	109	143	2
-7328	-5832	15452	-4126	14377	1403	-32768	1164	-22456	8043	1066	-1512	-32768	-9576	-4900	3490	32767	6839	-23464	9968	24768	1327	-6631	2343	-13504	6048	-18472	440	-7508	331	-8944	2240	-15448	861	-683	135	114	149	2
-672	-12924	21472	5900	32767	6689	-32768	10964	-10352	5405	-2940	-2326	-32768	6152	14560	3293	32767	6130	-29080	10376	26648	1746	-6774	2339	-13856	6216	-18592	337	-7547	375	-4288	1744	-16120	634	608	-136	87	119	2
-3960	-4752	17864	12560	32767	17685	-32768	20188	7136	-4996	-4214	-4454	-32768	11008	30716	-1819	32767	6685	-32768	13352	28264	1489	-6489	2385	-23128	5280	-26864	-669	-7800	575	-3352	-1944	-14680	-128	1135	218	120	86	2
-15712	-3320	15824	11181	32767	23707	-31496	18688	15620	-18985	-3200	-5796	-26404	11516	32767	-18666	32767	7822	-32768	13832	19560	396	-5768	2670	-26040	2088	-27664	-1735	-7158	513	-5344	16	-3784	-1356	254	801	116	111	2
-32768	1564	21836	-708	32767	15283	-18016	9620	8632	-30088	5824	-5927	-15560	3500	32767	-30598	25242	5984	-32768	-21176	3328	39	-3023	2855	-22560	-1912	-32768	-2307	-5449	133	-9256	10984	10736	-1955	-1200	1797	121	96	2
-26320	-1120	23464	-3781	32767	10203	-14588	1980	26312	-32768	21219	-1912	-12824	-20920	31924	-28969	7817	1722	-32768	-19656	-5080	1726	-3207	2546	464	3840	-32768	-687	-2591	-631	1864	7328	32767	-1259	-418	1099	134	106	2
-32768	-4768	25484	5174	32767	12310	-14028	-5764	22436	-6	26523	-1818	-6460	-20040	28044	-12512	-8143	1344	-32768	-30032	-32768	-732	-1335	-404	1368	3432	-29472	-605	-417	349	3920	-7104	21128	-406	-43	-294	151	62	2
-28304	-7940	32767	14920	32767	9738	-17044	652	8944	26509	32341	-3682	-3860	-10956	16720	6131	-22488	1733	-32768	-18288	-23608	-422	683	-954	4440	-816	-32216	-931	1684	-297	4904	-592	8808	1656	377	-512	136	76	2
-32768	5668	32767	583	23680	14013	-22388	10880	-2260	24231	32767	-5535	-7380	-612	10588	15271	-25840	1132	-32768	-5408	-28976	-1250	2626	-1152	-440	2176	-27280	-1350	3179	-202	-3712	7496	-12328	182	1757	-247	119	79	2
-20436	-6476	32767	-7953	4265	14634	-25824	14100	10700	-7643	32767	-7589	-8156	10620	3804	17745	-25293	2046	-15664	-27648	-32760	1506	7766	-2720	-7656	32176	-32768	201	4007	547	-14632	8296	32767	-2583	-2556	187	141	143	2
-17952	-11236	32767	-7414	-1452	17097	-25816	5020	5484	-13061	32767	-8196	-13716	7484	2760	2894	-25259	786	13544	-12208	-17808	-2073	1906	-1960	-32768	-17632	136	-1431	7068	756	-25056	264	-32768	-1942	1299	530	148	112	2
-12960	-21360	32767	-5621	-9653	15479	-29468	1712	2200	-10714	24755	-3846	-32768	-2768	5484	-9573	-27232	-4157	-32768	-32768	32767	-2159	-271	-2232	-28576	-12504	7256	-757	6447	431	-9384	-14744	-21304	619	459	1332	122	138	2
-7108	-24860	32767	1083	-17760	11106	-28256	-124	-612	-5413	13445	-50	-32768	-7892	1304	-6051	-30346	-6207	-13464	12544	12320	-1049	-147	-750	6960	-21376	-31016	-236	4116	870	-9080	5888	-29368	2510	2006	939	99	94	2
-9508	-22720	32767	-1712	-26798	1732	-21152	-3472	-7532	181	1523	344	-32768	-14096	1236	-836	-31244	-7919	-10624	856	13392	-530	168	-287	-32768	13080	-20176	1486	3586	179	-32768	15296	-16384	1504	1941	473	115	119	2
-8408	-20992	28248	-7358	-32768	-10762	-20440	-3660	-11540	1302	-13907	2023	-32768	-12872	-1880	5619	-29877	-7214	-9272	752	14432	-351	400	-179	-32768	15912	-20944	1142	3347	438	-32624	-6800	-8712	154	2861	15	170	113	2
-7704	-17116	20836	-10310	-32768	-22814	-16136	-3852	-14356	591	-27191	5765	-32768	-9404	-7408	13093	-25362	-9146	-9464	2992	13896	-139	561	-196	-17744	7952	-23440	-1017	2571	801	-18704	7248	-10176	1136	3228	-644	128	128	2
-12680	-13876	17348	-10060	-32768	-32572	-10644	-3520	-15444	1181	-32768	8124	-32768	-3592	-15228	9305	-22914	-3984	-7768	4296	14704	279	1101	-203	-27208	8000	-20624	-375	1243	542	-32768	14752	-7712	1566	3362	-471	161	119	2
-18308	-9488	16388	-7363	-32768	-32768	-8676	-3464	-11664	171	-32768	10327	-15288	-2668	-16204	5196	-22313	-6728	-4880	7128	19136	587	2823	-319	-32768	10744	-13864	118	663	305	-32768	15488	9760	658	3883	-470	113	150	2
-19376	-3932	17372	-6338	-32768	-32768	-11728	-1992	-12320	-1543	-32768	12212	-13344	-3816	-17540	4282	-9081	-2202	-5144	7680	20016	-144	5330	-1001	-32768	2128	-1528	328	654	267	-32768	2784	23712	-811	3922	-753	117	91	2
-24700	1560	26104	-9684	-32768	-32768	-12896	-1756	-13164	-2318	-32768	12362	-7040	1580	-18456	1314	2647	-1738	-10888	6120	16392	-425	7607	-2179	-32768	-5840	6416	1115	674	491	-32768	88	26040	-972	3885	-682	127	107	2
-32768	-2504	32767	-13700	-32768	-23060	-16672	-2072	-19900	-15494	-32768	10561	-2056	8888	-19796	4013	9919	1174	-30352	3080	23488	-335	8911	-2336	-30600	-5712	5720	2558	566	644	-16704	-10552	26088	408	3216	-887	138	140	2
-32768	-1188	32767	-16755	-32768	-13673	-21156	1876	-22452	-26950	-32768	4410	2496	8416	-19636	14701	9547	5359	-23640	2512	23624	696	8820	-1581	-22600	944	16528	3807	559	227	-9840	4584	25192	1691	2543	-753	140	159	2
-32768	5500	18820	-27843	-32768	-16691	-21696	-188	-25788	-32768	-32768	92	2492	-656	-7824	10724	3357	3320	-31696	6456	24608	267	8217	-1398	-17112	11376	22872	2782	1199	-523	-6528	18336	32767	823	1266	46	147	110	2
-32768	6224	-1688	-23633	-32768	-19222	-25732	-928	-28628	-29838	-32768	-442	-3276	-11064	10476	-6109	-9281	-3472	-32768	9432	32767	-791	6245	-1107	-8880	18008	8672	-1143	3190	-997	-1344	9352	32767	-1546	-668	257	145	127	2
-32768	15608	-22888	-9491	-32768	-9388	-10264	-8108	-32768	-11980	-26942	-4567	-9436	-9592	32767	-12763	-22470	-8771	-32768	2776	31400	-2036	3873	-1533	-19264	3152	7592	-3841	4979	-456	-504	-2112	18160	-1660	-1041	-121	132	144	2
-32768	18436	-32768	-5638	-13722	-9092	5940	-7100	-32768	12903	-4459	-1871	-2260	-3440	24832	5337	-5806	-4564	-16656	7312	32767	-257	1250	-1470	-30000	-10528	12264	-1632	4476	426	-13744	-9680	7456	-2229	-2071	-664	152	145	2
-32768	16568	-26108	7039	6665	-9795	5844	1868	-32768	17464	14498	1215	-248	2172	12860	-4303	1295	-6737	-18440	12784	30656	700	891	-1604	-27512	-6328	7392	2633	3793	627	-9080	-8712	9640	-930	-1782	-921	111	143	2
-32768	32767	-21576	6756	22374	-5802	-16	-1188	-20948	13322	21797	2745	2608	-448	-23964	-6875	31194	-1824	-13832	21256	31224	934	10	-1290	-23520	4360	3616	4166	3220	556	-9424	-7192	6688	-55	-2226	-1004	106	113	2
17476	32767	-32768	-16737	32767	32767	-32768	-32768	32767	-1808	32767	-3962	-21864	-32768	32767	-7450	-32768	2641	-14304	21488	32767	685	-773	-1119	-30080	16832	-680	3160	2844	389	-27888	7216	7040	2582	-2921	-1024	9	126	2
32767	32767	-32768	18176	28791	13343	-32768	-23664	-32768	32767	32767	-12738	-22204	32767	-32768	23873	11594	-11597	-8456	31568	32767	-157	-1800	-823	-26264	15480	-5576	980	1700	-202	-32768	11864	3696	1587	-2574	-379	112	78	2
-32768	-15588	32767	29268	26411	32767	17704	-32768	-32768	21084	32767	-16156	19028	32767	-1084	-7867	170	-5429	-3504	24264	27536	-1211	-3204	-434	-21184	12312	-7728	-1171	704	-93	-32768	6712	5864	670	-3513	-33	75	70	2
-32768	-4032	22552	13498	5	12091	-1396	2012	-32768	24758	25082	-14762	19004	-21612	-32768	-23319	960	6990	-304	16264	20320	-313	-4230	363	-15992	6408	-11216	-1549	-837	-79	-32768	10816	-568	-285	-3487	67	87	151	2
-14172	-5916	16604	2223	-223	2445	-32768	1508	-21280	-9420	28072	-8615	-32768	-32768	-24156	-15867	21555	-915	960	17696	14584	466	-4806	1165	-13432	7168	-14520	-1061	-2674	-385	-32768	-18360	-5368	-38	-3125	502	132	107	2
-9552	-2812	14200	3121	1131	2694	-12400	-17080	-26688	885	22148	-7108	-32768	1528	-14936	2670	29293	106	-5720	14616	16040	814	-5358	2175	-9152	2880	-16184	-861	-4390	-463	-32768	4168	-13752	212	-3067	194	152	118	2
-10780	-2984	13736	1871	2374	2946	-15372	-5576	-28104	9141	12517	-8176	-16676	-5660	-15676	-9661	25704	7114	-9112	9328	15232	1374	-5885	3028	-8040	936	-13736	62	-5808	-438	-30000	-600	-16544	-107	-3149	311	141	111	2
-10640	-6068	14148	-784	6178	2114	-25256	-4892	-22392	485	7124	-1735	-32768	-15344	-16832	-13998	32706	8485	-15808	9208	18768	1464	-5972	3296	-9272	4848	-13472	506	-6964	-189	-16960	2656	-18032	498	-2552	275	108	120	2
-5124	-7444	16944	-3076	19641	4330	-32768	-528	-14744	175	2767	-2097	-32768	-19080	3184	-3433	32767	10621	-21152	7992	24480	1260	-6331	3387	-8672	5936	-16040	-851	-7298	-148	-6600	3392	-19960	562	-1235	126	103	119	2
-2764	-5436	22276	7880	32767	12105	-32768	13696	-472	3633	377	-2327	-32768	1724	25268	9103	32767	8472	-25792	4440	31256	1464	-6912	3283	-12672	2120	-18936	-1776	-7799	-202	-1192	864	-19864	796	11	-92	110	121	2
-7704	-244	16804	8546	32767	22074	-32768	23020	10776	-10536	-252	-3640	-32332	17244	30028	2969	32767	5981	-32768	5640	32767	2154	-7575	3038	-20400	-3152	-22880	-500	-8478	-108	1456	-1880	-15600	-535	875	-259	131	118	2
-26588	3848	18856	4993	32767	19849	-24712	13200	9912	-21053	3016	-3277	-17468	11608	32440	-23541	32767	9221	-32768	3384	28920	2263	-7530	3431	-21456	2200	-25584	1467	-8516	255	5528	-4768	-18112	-1907	1283	421	124	122	2
-32768	-1308	21516	-7664	32767	9545	-12804	3048	12872	-27535	12553	-1711	-10908	-3188	26508	-32768	23637	6235	-32768	1400	11704	1801	-6374	3775	-21080	8200	-27128	1298	-7120	219	-5984	8304	-4944	-1441	-913	1371	109	145	2
-24528	-5464	19100	-3982	32767	10867	-15392	-3464	23236	-17270	22241	-168	-7436	-20204	24648	-20878	5891	2082	-32768	-8112	-9912	915	-4799	2696	-17600	10368	-32768	-194	-4890	414	-4920	1744	32767	483	-2579	1040	134	63	2
-32088	-7980	22604	6284	32767	14510	-14032	-3420	19088	8839	24907	-1021	-6432	-24348	25364	-5370	-5925	3012	-32768	-25976	-31736	1455	-2547	1025	840	3880	-32768	-1282	-2338	505	-6536	2160	31560	-695	82	-505	151	121	2
-22700	-6256	27788	12381	32767	11776	-19912	404	8892	24538	32624	-705	-2960	-18692	19592	17584	-15218	11	-32768	-20728	-30128	131	-127	-145	8160	-1496	-32768	-279	486	149	1616	928	21840	486	-308	-494	132	116	2
-32768	-3760	32767	6103	22413	10820	-23808	7152	-2616	24576	32767	-2853	-5564	-4820	15784	19281	-22760	86	-32768	-15336	-20240	-975	1271	-1004	3128	4144	-32128	-22	2746	-91	2952	6816	-1656	969	1036	382	125	56	2
-27896	-6620	32412	2255	7433	10928	-27280	10436	7916	2892	32767	-3507	-6700	11808	9812	21772	-23443	1368	-32768	-17896	-28592	-2010	3192	-987	-944	3088	-19408	-1094	3252	-366	-1168	16496	-24008	-751	3191	244	128	124	2
-18888	-9580	32767	-479	4220	15198	-27488	6456	9560	-3079	32767	-5826	-7092	12444	4968	9589	-23421	2659	-32768	20512	32767	-339	13877	-4538	-32768	32767	-32768	-1557	5682	953	-32768	27544	25496	-1174	-6125	1452	130	205	2
-19040	-15700	32767	-5954	2556	16835	-32152	768	2172	-4849	31302	-3525	-28224	-5400	6656	-14673	-28209	-2129	32767	-21768	-5072	-2751	2548	-2594	-32768	32767	-32768	-5828	4960	2225	-32768	-26384	-32768	-2388	1644	929	118	0	2
-11080	-28280	32767	108	-9789	15220	-30964	-768	-4116	-3554	19001	-462	-32768	-4552	1076	-2570	-26595	-6106	-32768	-11984	32767	-2149	-24	-1971	19464	19040	-32768	-45	5138	1960	24552	-23296	-24024	3432	246	1112	121	130	2
-4152	-20316	32767	4387	-22684	9528	-20956	1724	-4548	2668	4299	29	-32768	-7944	1048	2321	-29962	-5831	-23456	-1328	20728	-1037	-232	-763	5288	-7984	-32768	4469	2874	1712	9848	22976	-21400	4934	992	12	131	108	2
-2292	-17348	29704	-6460	-30735	-1519	-16356	340	-10540	-1481	-10440	1818	-32768	-9304	-1504	6678	-32768	-7601	-8288	3960	14208	-670	-23	-400	-32768	22864	-19976	2437	4055	-113	-32768	16696	-21192	-168	2607	117	109	139	2
-10644	-18216	28272	-11660	-32768	-14490	-11648	-2856	-17528	-10067	-23633	5181	-32768	-6332	-4432	7253	-27042	-4986	-8400	2104	13872	-410	158	-433	-11240	13176	-27912	-1153	2476	757	-27240	-5208	-12552	-155	3025	10	130	116	2
-14696	-13208	19880	-10474	-32768	-26519	-9556	-4028	-17112	-9453	-32768	6047	-32768	-2020	-14412	8737	-28827	-6169	-9840	3704	14032	-90	350	-411	-17120	5048	-23952	-1630	2254	1070	-19248	11320	-13536	2241	3051	-6	128	113	2
-19216	-2712	15652	-12190	-32768	-32768	-9668	-1044	-12640	-1015	-32768	6678	-22420	-1872	-12236	12425	-17919	-9574	-9256	4016	15024	201	931	-325	-27216	11896	-21872	-271	1258	125	-32768	29576	-9920	1934	3573	-940	117	163	2
-22940	-764	17068	-12544	-32768	-32768	-8504	2732	-12820	-7930	-32768	10419	-18596	-1864	-19316	3411	-16276	-2154	-4160	8048	19384	284	2716	-660	-32768	11848	-13144	292	547	222	-32768	18104	13552	-698	4260	-786	116	125	2
-23796	3868	21624	-10712	-32768	-31301	-9988	-1116	-16968	-9952	-32768	10974	-8228	4652	-19372	2643	-4384	-3896	-3152	9848	21640	151	3082	-737	-32768	-200	-1264	-214	807	273	-32768	-2240	28368	-2166	4094	-455	136	127	2
-30980	4000	26072	-14357	-32768	-21322	-8484	7676	-16772	-19066	-32768	9929	-2420	4488	-21228	12570	6469	3492	-9144	3272	18048	-1563	7822	-2514	-32768	-6576	5832	715	974	464	-30768	-18944	28472	-1569	3541	-698	124	105	2
-32768	-4404	32492	-14687	-32768	-13664	-17736	-904	-26420	-32768	-32768	3169	4304	7504	-19344	10617	12784	5958	-28080	2992	23128	-1202	9128	-2681	-32352	-5872	7808	2764	615	846	-14512	-11424	32496	733	3200	-1215	134	130	2
-32768	-6896	24404	-15353	-32768	-17797	-25252	-8360	-28792	-22620	-32768	-1378	4736	2940	-16044	-3215	11975	152	-25344	4032	26640	-307	9065	-1916	-24568	1688	20968	3484	983	85	-9304	488	29056	2328	2081	-112	125	153	2
-32768	-1124	76	-15264	-32768	-24934	-27752	-3924	-31696	1708	-32768	1399	-4780	-5664	6628	-13852	-1481	-1222	-27656	4208	23080	-519	8632	-1641	-15432	6784	23464	1886	1904	-361	1744	13752	32767	896	-2281	-1095	148	116	2
-32768	17808	-27724	-16273	-31467	-32299	-14644	3784	-32768	-8661	-31516	-489	-12576	-6664	32767	3174	-17861	-2720	-32768	9936	32767	-1455	6991	-1477	-17376	14272	10776	-948	3484	-509	1656	12216	29600	-633	-1222	-39	145	113	2
-32768	28280	-32768	-1450	-10018	-12954	3812	-13396	-32768	-10874	-5166	-5412	-8240	-8892	31092	-5700	-6808	-8009	-32768	-3440	32767	-2129	3752	-834	-27864	9448	1672	-2394	4647	108	-4880	2072	14360	-1519	-1661	-221	120	116	2
-32768	27624	-32768	6977	9199	7343	1408	-13992	-32768	12993	15627	-2747	-1124	260	21688	-6419	-5237	-7547	-11928	4152	31936	-430	1282	-1474	-31408	-2848	14816	-1131	4862	399	-11856	-6072	12240	-1693	-2011	-551	92	123	2
-32768	32767	-32768	20151	31044	31971	-3916	-3160	-32768	25367	31487	-1859	-2032	-16156	9284	-17142	18222	-3437	-13280	12128	32767	516	1313	-1570	-31760	-5512	4936	1527	3723	653	-13200	-2344	3216	-355	-2065	-784	141	119	2
-32768	-32768	32767	14840	32767	21295	-32768	32767	-32768	32767	32767	-4911	-32768	-30548	-23532	-567	3821	873	-16928	29384	32767	-210	739	-939	-30536	11560	-2584	3329	2442	-118	-32768	11024	8432	768	-2795	-277	40	129	2
32767	-8800	-31400	9588	32767	17677	13812	-6060	15932	12905	32767	-3897	-4168	27784	-32768	25103	-491	-1482	-7008	27304	32767	-1736	-794	-179	-25104	11280	-640	1620	1851	-440	-32600	-8	5120	-175	-3348	-528	114	96	2
-25684	32767	19068	19796	-7283	18224	18252	-30908	-32768	32767	23766	-11994	13712	27664	-21420	-10575	7244	-4361	-3640	16592	32767	-653	-2081	667	-20872	10552	-4032	-157	533	-176	-32768	3560	5808	60	-3516	-146	119	104	2
-14108	22256	28604	3386	-1990	4140	-21120	25108	-27452	-1170	25226	-7270	-6180	-19720	-27784	-19188	13755	3131	-5480	19632	31176	873	-3866	1277	-17064	10184	-12496	-549	-1148	-367	-32768	5952	4664	147	-3539	-92	101	94	2
-15256	492	10836	5035	-1513	3035	-32628	-3820	-15868	-11591	25315	-14960	-32768	-2680	-16160	-8937	32153	-8083	-3816	18512	23800	1012	-5494	1662	-14208	9088	-13408	-413	-3070	-111	-32768	232	-5376	538	-3353	245	179	172	2
-10688	-8272	13340	350	3457	1646	-16632	-6300	-1384	7761	17338	-7954	-17716	-7672	-17652	-12237	29967	7437	-7992	12696	18344	1208	-6517	2202	-10432	6080	-12888	-281	-4898	102	-32768	4632	-12144	356	-3485	289	136	184	2
-10148	-2864	14724	-2091	7261	688	-19088	-572	-20416	5706	7187	-7685	-28188	-17320	-18200	-16299	29730	7330	-14944	9032	18352	1717	-7162	2517	-6944	4648	-12808	-229	-6287	81	-21272	3656	-17568	32	-2552	599	98	108	2
-6920	-4960	15316	-5242	17914	2104	-32768	-2912	-19232	-3006	6053	-2756	-32768	-23464	-3952	-12620	32767	13543	-19856	6944	17456	2038	-7513	2655	-8576	2448	-10032	91	-7094	307	-12472	5232	-17544	784	-1461	523	87	113	2
-928	-7436	22012	3873	32767	7856	-32768	5272	-4376	-949	2945	-703	-32768	-14188	18740	2656	32767	9871	-23032	7776	19592	2229	-7449	2539	-9464	3856	-13896	-101	-7747	559	-5912	2120	-21544	266	-151	41	106	132	2
-6024	-3740	17644	7647	32767	18618	-32768	22108	9584	-6368	751	-1840	-32768	9108	31020	7006	32767	6938	-30272	10208	28376	2349	-7614	2750	-10176	3520	-18040	-631	-8248	500	-1464	-3888	-25344	12	480	-131	151	125	2
-20656	-144	18620	6276	32767	21218	-28740	20000	13940	-19098	2000	-2764	-22756	19412	30500	-10028	32767	7995	-32768	7296	29768	2708	-7882	3355	-21240	-880	-21360	-511	-8311	804	5384	-6384	-19680	-1057	401	255	117	106	2
-32768	1504	19820	-10508	32767	7643	-13472	10152	1708	-24531	7084	-1331	-10012	6600	22032	-22991	27004	11769	-32768	-1880	17712	3450	-7463	3972	-18864	3904	-32768	1131	-8388	1177	10304	3384	-13024	-969	72	926	92	109	2
-23776	-2048	20804	-6271	32767	6887	-16712	-1960	21120	-25984	20346	856	-11968	-19668	19432	-23890	16375	5959	-32768	-13000	-584	2693	-5807	3923	-15992	7000	-32768	79	-6461	915	-2864	18544	9264	1629	-3687	1080	116	96	2
-32768	-6964	24560	8743	32767	11425	-18764	-8260	22404	16102	21914	2919	-9216	-32768	31164	2783	2794	3237	-32768	-24960	-23864	475	-3732	1899	-10160	7296	-32768	-824	-3169	379	-4616	8720	32767	1026	-1137	619	175	129	2
-23648	-12236	31912	28707	32767	7832	-15492	1080	9564	32767	29930	3540	-6320	-11940	25300	22582	-11619	117	-32768	-28048	-32768	891	-1814	-82	2560	1920	-32768	-1105	-410	525	4056	3056	26344	-960	759	741	143	104	2
-32768	-1100	32767	27549	22277	4279	-25840	15712	1420	32767	32767	-440	-8484	6200	18756	27268	-24507	3331	-32768	-11672	-32768	-106	1356	123	6432	-4704	-32768	-1023	2085	264	-2944	-12992	3200	271	2184	-161	121	92	2
-21620	6904	32767	-5220	10888	3721	-30520	21348	11156	6033	32767	-5356	-6656	23192	8348	23080	-23774	7414	-30360	32336	-17416	-2018	3565	710	1576	-16	-16864	-1039	3232	-101	-5232	6816	-23952	233	3021	260	117	80	2
-16952	-6112	32767	-23513	4087	11230	-23964	11996	9276	-15366	32767	-9717	-8980	20040	6560	1327	-25009	8232	-32768	-27160	32767	322	14647	-4655	-32768	32767	-32768	156	6266	1858	-32768	32767	32767	-53	-7545	1885	130	110	2
-20180	-21048	32767	-21144	-3990	18518	-32180	1152	1096	-24420	31247	-9111	-25684	-1892	6404	-26984	-27546	2866	32767	6440	-20160	-2716	2861	-3279	-10248	-24776	18616	-5541	8724	-2404	-30880	-32768	-32768	-3453	2077	27	121	63	2
-13872	-31460	32767	-6114	-17858	17187	-32768	-3716	-2236	-19727	19791	-1599	-32768	-14328	-3444	-15044	-30835	-3338	20472	-32768	120	-1343	-350	-1884	22368	20440	-16368	277	4824	2502	23568	-10592	-32768	5582	1558	608	127	95	2
-8224	-24028	32767	2709	-32233	11753	-21320	-4184	-5016	-1995	5618	2061	-32768	-18048	-80	4548	-32768	-8031	-10096	-11888	18736	-1287	-520	-784	-10384	-5432	-32608	3676	3744	1577	3936	32767	-22416	3772	-133	-205	120	163	2
-3244	-19648	23800	-1402	-32768	3264	-18236	-4304	-10768	5467	-13867	2206	-32768	-12232	-1788	11747	-32768	-5511	-9744	5472	11728	-755	-108	-404	-29664	16280	-8920	653	3088	-116	-32768	5200	-22560	-1254	3085	178	126	139	2
-6544	-19240	20900	-4423	-32768	-7106	-14264	-3492	-16340	-1547	-25220	6035	-32768	-9808	-2320	11302	-32768	-4961	-9736	568	13928	-361	236	-356	-12912	7840	-23632	-1946	2752	473	-25536	608	-10232	-98	3748	136	133	108	2
-12744	-16616	17436	-5019	-32768	-19863	-9620	-4168	-18528	-4095	-32768	8045	-32768	-1216	-13364	-1200	-25326	-8137	-10056	1368	13936	-25	702	-323	-22784	9712	-28400	-1274	1981	885	-23712	11344	-9584	1885	3345	-11	127	95	2
-17396	-10736	14380	-6801	-32768	-30493	-7696	-3012	-14020	-4648	-32768	10046	-25740	-5572	-11756	4337	-11266	-6753	-6208	6552	17712	424	1897	-237	-32768	11304	-18952	-400	1208	-91	-32768	22520	1840	782	3540	-415	134	143	2
-20636	-6900	14544	-7961	-32768	-32768	-9424	-2776	-15648	-6903	-32768	11447	-12924	-4400	-20436	1981	-10295	-2633	-3128	4632	22952	-30	4423	-595	-32768	3864	-7432	471	642	321	-32768	4216	19680	-1435	4009	-731	109	141	2
-27776	-5056	22012	-6162	-32768	-32768	-5864	-5132	-18160	-9459	-32768	13934	-4408	-1608	-21924	5389	3199	-3574	-6536	4880	20096	-401	6992	-1395	-32768	-3384	4536	1193	753	556	-32768	-13296	30096	-1107	3577	-404	130	103	2
-32768	-1404	28108	-9329	-32768	-27676	-11524	-1104	-17692	-20045	-32768	11707	4548	2324	-22980	13585	9764	3546	-29288	4936	25808	-164	8726	-1688	-32768	-2416	8624	2519	744	602	-23328	-8472	32184	307	2792	-1131	124	104	2
-32768	-5964	24584	-13573	-32768	-17748	-19208	-5512	-25560	-32768	-32768	4480	5780	8408	-22696	15927	13800	2395	-18584	8112	24064	422	8737	-1550	-26920	912	20152	3840	976	364	-7976	2112	28664	2083	2187	-372	134	189	2
-32768	-5528	13344	-17410	-32768	-15736	-22416	-10288	-31352	-22606	-32768	-1341	-288	368	-12776	9672	4938	34	-26832	9016	22352	113	8422	-1595	-18680	7608	20408	2939	1302	-131	-5952	10384	29816	1749	1138	-152	135	135	2
-32768	4452	-10360	-23178	-32768	-20322	-26408	816	-32768	-15310	-32768	-2462	-5500	-4636	12384	-7019	-18042	-1265	-32768	9224	31744	100	6944	-1159	-11240	13360	7960	140	2846	-397	-616	12824	29992	197	23	-104	161	117	2
-32768	9076	-28980	-16283	-27995	-19035	-9588	-5660	-32768	-11844	-24580	-7444	-11276	-1832	32767	-11660	-18822	-907	4456	22312	17144	-1380	3455	-223	-20104	9200	4160	-2241	4495	-368	-912	7192	25160	-1250	-1145	-188	103	140	2
-32768	19212	-32768	-7487	-9434	-9927	2652	-10232	-32768	-5839	-1421	-6681	-8640	-7048	23512	-10785	-5103	-7854	-8752	1896	30592	-1252	1486	-502	-32072	-2272	13128	-1786	4943	526	1888	-26120	28080	-1663	-1340	-401	109	122	2
-32768	13736	-24064	-2225	6973	-2649	-16	-5516	-30760	13489	15469	-3357	3524	888	14416	-10712	2624	-9007	-13504	6736	32767	715	1666	-845	-29304	-8352	8320	298	4330	561	-10808	-9384	7000	-1514	-1563	-601	110	102	2
-32372	7296	-7220	-1876	14404	-5252	1944	3264	-25048	21999	20820	-1121	2676	-6712	-31584	-15789	32767	-5157	-11040	20472	32767	1086	630	-1018	-23544	-808	5424	3088	3328	399	-12464	-11840	9712	-504	-2444	-829	141	114	2
-32768	-10404	-32768	24709	32767	-3056	-1256	-5540	-24668	14671	23014	196	3360	-6704	-7368	12382	1678	105	-4032	22112	32767	451	-1070	-1319	-25464	5440	3112	3211	2801	787	-20768	-4976	6352	1450	-2846	-1214	121	124	2
-32768	-17656	32767	17991	31624	16798	-32768	32767	-32768	32767	32767	-14222	-32768	-32172	-22084	-13590	2327	-19065	-3072	19088	32767	662	-2330	-972	-28176	14960	-3640	1969	1235	411	-32768	22120	7120	2356	-2822	-688	96	121	2
-16236	-27116	14700	7475	32767	31818	32767	-10124	-19728	4473	32767	-10652	-21964	32767	-32768	-13898	26996	-3232	4800	24104	24952	-236	-3514	-16	-22248	7520	-4368	-251	277	-390	-32768	11912	4008	938	-3244	-152	162	96	2
-32768	27440	32767	25935	6541	21912	10108	-14272	-32768	19048	23628	-19771	32767	16772	-32584	-29400	3771	4829	4232	13168	17640	-572	-3829	468	-15616	4488	-9232	-607	-1223	-430	-32768	8216	1312	-636	-3206	39	172	98	2
-7984	6860	15984	6519	-2539	4365	-13252	6432	-21644	-4557	25929	-9652	8456	-32768	-32768	-29077	9846	11066	-3208	15656	18680	275	-4566	1246	-10472	10144	-17424	-1033	-2888	-704	-32768	4680	-9432	-715	-3599	117	88	173	2
-9624	-5708	14132	4712	-923	3021	-32768	-13620	-18112	-4875	25687	-8320	-32768	-21444	-27912	-3640	24831	-8479	-8952	15232	16744	377	-5688	2115	-8832	5864	-19288	-2056	-4471	-711	-32768	-496	-12088	-279	-3324	253	106	201	2
-9144	-7792	14208	3458	371	3011	-18344	-14272	-15228	8586	14803	-4797	-32768	-8616	-18632	-1007	32767	6452	-11848	4272	15144	1252	-6059	2750	-10592	-760	-15032	-1495	-5797	-980	-28824	-4088	-14488	-689	-2907	226	91	90	2
-10228	-4836	14424	1194	3495	3256	-23152	-6400	-24616	14184	6157	-2011	-20620	-16908	-19816	-12109	32767	4566	-20360	2936	18528	1682	-6362	2231	-9552	1216	-16832	1315	-7034	-420	-15032	3528	-16544	-427	-2271	138	143	122	2
-5188	-4260	16952	-2474	15421	4883	-32768	5020	-19360	5970	4282	1750	-32768	-16116	16	-1682	32767	7270	-22280	3000	22176	2000	-6639	1504	-9368	5184	-17912	1109	-7626	193	-5592	1024	-16248	-494	-1579	-301	79	157	2
1692	-8524	21352	8866	32767	12710	-32768	17728	-3124	-680	1760	-2496	-32768	9452	24504	15527	32767	11567	-29288	4576	31336	2708	-7086	1436	-13976	128	-21280	538	-8006	253	-280	1584	-14904	184	17	-503	134	128	2
-6788	-184	18204	9796	32767	23911	-32768	24488	10064	-11073	-76	-5654	-32768	20884	32767	405	32767	3793	-32768	10840	28736	2824	-7755	1777	-17488	-1576	-22464	2084	-8503	946	536	-4832	-13648	67	1345	-427	141	121	2
-23764	1932	20124	7134	32767	23515	-28612	17924	14416	-20700	1645	-4479	-20896	11924	32767	-28123	32767	6988	-32768	10872	26984	2754	-7698	1916	-19576	6640	-23936	971	-7944	1103	-2928	-336	-16728	-279	1278	675	134	114	2
-32768	16	23244	-10117	32767	11070	-14324	8036	12164	-27514	12357	-3880	-12572	272	24136	-31909	19388	5009	-32768	-16	19432	1908	-5306	3580	-22056	9320	-26952	-756	-6486	452	-4112	8136	-1488	1477	-634	1518	131	126	2
-24436	-2824	20756	-5735	32767	11105	-11592	1376	21892	-23771	24812	-1509	-8892	-24024	22568	-24911	7691	4214	-32768	-11392	-6464	967	-4177	3283	-16624	4848	-31912	-1233	-4346	93	-3136	10840	27168	2341	-2243	1083	133	78	2
-30892	-6556	25100	9445	32767	14585	-13320	-6292	20020	6036	25214	306	-2620	-29760	23120	-5437	-7824	3060	-32768	-27736	-24152	1061	-2031	1201	-560	2464	-32768	-885	-1958	164	-5232	7664	31328	-449	-280	118	144	95	2
-27264	-8332	31824	20785	32767	9607	-15944	-132	6796	30969	31217	634	-2520	-15380	15288	21585	-14367	2367	-32768	-20296	-21920	626	-436	-213	4248	2064	-32264	256	68	540	-752	4792	16920	763	-493	-252	120	93	2
-32768	840	32767	13552	19804	8976	-18940	6344	-2868	31715	32767	-356	-4932	-976	17612	26836	-22303	355	-32768	-14384	-17656	-435	860	-720	2808	1040	-27832	-15	1830	-10	3872	-1976	2432	36	1426	-255	129	43	2
-20632	-284	32260	355	4928	11189	-25940	12868	10604	6774	32767	-2800	-3756	14908	6236	26114	-20471	2322	-32768	8504	-32768	-1821	3597	-909	-1328	2744	-22288	-1419	2551	42	-3600	14152	-760	41	2535	-140	134	149	2
-17300	-6296	32767	-5683	861	18868	-23788	8860	7236	-1000	32767	-6940	-7352	13980	4284	9210	-22605	5356	-32768	32767	32767	-944	12030	-3134	-32768	32767	-32768	-2620	5384	2178	-32768	32767	-9504	-1161	-1361	866	142	176	2
-20988	-14468	32767	-11419	-4355	20128	-28744	3616	872	-8184	29423	-4955	-30728	-2256	7172	-15286	-24566	-589	32767	-14440	-32768	-1191	3966	-2234	-2464	-7176	21072	-2988	8658	-1834	-21168	-26720	-32768	-2446	383	938	119	72	2
-15204	-28392	32767	-2032	-15425	19280	-32768	2716	-3672	-12773	19337	-2493	-32768	-200	192	-5906	-28071	-3776	-29296	-23312	32767	-3276	788	-2836	27848	32760	-32768	407	3935	2372	19808	-17016	-27088	3221	346	804	150	162	2
-13852	-21420	32767	1387	-27351	12553	-21496	-2364	-6060	-9304	8699	-455	-32768	-5972	3728	-1812	-32768	-4144	-11520	-18328	24656	-1052	-336	-766	-9024	-18416	-32768	3291	3516	1069	192	31264	-23456	4489	283	251	138	134	2
-9996	-19668	27108	-9072	-32768	-699	-22108	-3092	-13356	-6148	-7556	-948	-32768	-11452	3456	2194	-32768	-6830	-10960	8680	12240	-814	50	-442	-31864	27024	-19504	2501	3961	-112	-32768	10416	-19624	-633	2636	181	115	110	2
-8592	-19220	20772	-12540	-32768	-11849	-19056	-3032	-16008	-6863	-19102	1045	-32768	-6388	-3900	7633	-29038	-4973	-9752	2688	13416	-404	293	-261	-6280	11656	-27656	-282	1862	552	-27472	-6432	-9016	-134	3414	-186	143	92	2
-10252	-14668	16508	-12042	-32768	-22402	-13764	-3180	-16556	-5824	-32768	1668	-32768	-3984	-9804	3434	-28321	-4083	-9592	2320	13240	-151	458	-291	-18504	8824	-27328	-1426	2592	890	-15296	9448	-9312	1575	2956	-426	148	116	2
-15912	-10188	16428	-13381	-32768	-32699	-10512	-3708	-14412	566	-32768	3676	-31420	-4576	-18080	2220	-32429	-6971	-8496	5448	14336	239	963	-300	-26728	10696	-22352	-588	1572	84	-32768	19864	-8552	1603	3390	-755	136	111	2
-20540	-7552	18600	-11938	-32768	-32768	-10644	-3368	-15468	3292	-32768	6894	-23680	-4728	-18100	-1677	-23993	-3242	-4712	7424	19360	381	2597	-443	-32768	8912	-14712	360	713	291	-32768	16744	8848	14	4175	-747	121	169	2
-22116	-1300	22064	-9470	-32768	-32768	-11280	-2956	-16020	2933	-32768	9565	-9196	-2440	-15460	2559	-10735	-3651	-5168	5608	20400	-297	4987	-976	-32768	1744	-4952	197	749	184	-32768	912	24448	-1288	4155	-559	122	86	2
-26764	4188	27136	-15158	-32768	-32768	-9364	-60	-14640	-7076	-32768	11014	-5752	-1368	-19544	5213	1923	323	-6704	3136	16496	-708	7483	-1970	-32768	-5240	3328	657	884	273	-32768	-10360	27576	-1484	3871	-731	128	125	2
-32768	-3484	31048	-13327	-32768	-20633	-13740	-3080	-18744	-23226	-32768	8128	1208	4876	-20308	3823	11324	2698	-28056	2680	23880	-496	8991	-2229	-32768	-7960	3576	2449	623	747	-17472	-14184	26392	-47	3379	-1049	127	115	2
-32768	-948	29548	-14701	-32768	-10465	-19108	500	-24504	-29760	-32768	2515	5680	10528	-20320	4199	15271	2141	-22088	5096	24720	328	9060	-1591	-26520	-440	14800	3875	474	278	-11136	1848	22032	2165	2947	-889	134	197	2
-32768	4732	20164	-27259	-32768	-14021	-25060	-2828	-28912	-32522	-32768	-1408	5960	10616	-18900	3890	15062	2556	-32608	7368	26512	-216	8661	-1419	-19200	12776	22168	3015	968	-698	-8040	18704	28656	1460	1570	-198	143	147	2
-32768	9396	-3476	-23728	-32768	-17047	-26300	-2424	-29960	-32626	-32768	-1142	-5836	-17556	11752	-4829	-13314	-6563	-32768	12984	32767	-1039	6254	-922	-11512	20640	5280	-1369	2741	-1103	-4888	14312	32767	-1420	-119	626	143	136	2
-32768	22496	-31812	-12759	-28394	-10562	-5044	-5308	-32768	-17010	-20715	-5821	-9316	-11472	32767	-13869	-19524	-8936	-32768	-1808	32767	-2495	2685	-1389	-23064	6304	5528	-4090	5141	-556	-2720	-1512	27192	-2698	-1145	129	118	121	2
-32768	17868	-32768	-604	-4514	-2112	1832	-11116	-32768	11438	1404	-4555	-1052	-1020	23060	399	-2331	-4877	-10896	1488	29352	-567	1030	-2554	-32768	-9696	21496	-1916	5120	692	-8504	-15352	6240	-2194	-1198	-751	112	202	2
-32768	12764	-18620	3155	10809	-6721	4744	1876	-32768	22794	19422	70	-692	1468	7300	-1801	8959	-6812	-12880	14472	32767	884	1059	-3270	-26368	-8464	8376	2311	3919	645	-10488	-14672	9320	-438	-2085	-1219	107	164	2
-32768	17248	-29532	10033	22585	-10928	-920	3064	-18900	12314	23461	1164	828	-4872	-32768	-5246	32767	386	-12520	26544	32767	1045	-629	-2698	-22760	792	4024	4737	2780	552	-11512	-5664	7464	1013	-2320	-1274	143	130	2
-18048	7904	32767	-11691	32767	32767	-32768	-24568	-32768	32767	32767	-3647	-32768	-32768	32767	-284	-32768	-10478	-13904	26016	32767	554	-1818	-1887	-31672	19216	-4008	4263	2152	643	-32768	13416	7968	3435	-3225	-1005	67	103	2
12056	22936	-8352	16089	30105	18852	25980	13704	10532	32767	32767	19147	-22216	32767	-32768	32767	11041	-9259	-9416	32767	32767	-145	-3457	-387	-22704	15128	-7600	1260	1060	-354	-32768	12352	1584	1165	-2926	-139	116	73	2
-32768	-27572	32767	32767	16820	26990	-8356	-13232	-32768	21011	32767	-25006	20128	32767	-12276	-6976	2707	-1938	-3040	19288	17360	-446	-4644	961	-19856	9624	-8096	-956	182	-413	-32768	12552	5640	-265	-3547	265	103	85	2
-32768	-32768	-19736	4808	1339	6975	-1224	5908	-32768	-7652	28222	-19643	20496	-17968	-32768	-28503	8898	9396	2320	12056	7616	765	-4160	1573	-15920	10096	-13248	-1217	-1527	-324	-32768	15592	-1248	-1758	-3838	366	118	96	2
-8076	-8152	12588	3188	-1513	2745	-32768	-11532	-28668	-15647	29388	-11832	-32768	-32768	-18580	-31267	15160	-231	-6016	16152	12912	968	-3998	1992	-10688	8792	-19072	-1634	-3150	-570	-32768	3600	-10512	-1084	-3694	374	146	149	2
-10688	-1196	14508	1232	1144	2132	-17932	-14876	-25512	12662	19888	-3745	-31652	-9904	-16072	5220	31246	-185	-9848	10800	14440	1130	-5026	2683	-5384	2016	-17536	-1363	-4346	-718	-32768	-1728	-13984	-476	-3758	38	140	216	2
-10216	-2044	14284	889	1933	3089	-15180	-6300	-28056	13466	12480	-5140	-15928	-7444	-17376	-7549	28582	6846	-11200	6064	12616	1400	-5573	2854	-6016	1504	-14304	-80	-5936	-477	-24672	448	-18456	-171	-3041	72	161	143	2
-9376	-5132	14796	-262	5797	2811	-24404	-2944	-25936	-777	8760	-954	-32768	-13388	-14544	-9747	32767	5366	-14944	7304	16504	1500	-5849	2965	-6056	1216	-15408	330	-6698	-74	-15632	-1712	-18848	828	-2096	191	60	139	2
-3600	-7488	18064	31	21405	5337	-32768	3420	-15364	-2155	4162	-2314	-32768	-9300	7652	57	32767	10725	-16688	1192	20568	1690	-6125	3094	-5848	1592	-16096	226	-6777	-37	-6912	15480	-29096	477	-818	-175	97	119	2
-1624	-2452	21968	9291	32767	12843	-32768	16588	-2540	2726	-350	-3736	-32768	8092	25600	7894	32767	9834	-20248	-1456	25432	2168	-6455	2803	-9552	-2368	-18360	-1504	-7667	-14	2816	-840	-17696	217	640	-617	140	112	2
-7680	1380	17172	10659	32767	22154	-32768	22272	8768	-13003	-811	-5009	-32768	16268	29584	-6276	32767	6860	-32768	2640	32208	2510	-6892	2575	-15000	-4104	-23944	-318	-8316	133	5808	-7120	-21384	-567	1358	-336	133	108	2
-29212	4568	21976	6336	32767	19683	-29604	11600	4944	-29334	1398	-3347	-18012	9152	32767	-30651	32767	7550	-32768	3864	29400	2452	-6896	3212	-16840	4920	-28920	804	-8109	258	3984	1112	-20120	-748	1222	473	125	122	2
-32768	-272	23712	-4605	32767	10148	-14752	3772	15016	-31719	12738	-3683	-12252	-6520	26300	-32707	17024	4515	-32768	-1272	14024	1877	-5854	3497	-25280	8784	-30976	560	-6660	156	-8944	14496	160	704	-1249	1497	107	129	2
-26388	-4120	22020	-413	32767	9801	-12040	-3404	24652	-19437	23816	1061	-3176	-30492	27664	-22265	7665	4531	-32768	-7504	-11976	1246	-4103	2881	-14352	10096	-32768	21	-4464	146	-11072	3944	32767	817	-1987	1269	132	80	2
-32768	-5392	25740	11023	32767	12159	-14544	-6392	17580	15120	25440	-338	-4912	-25876	26372	4324	-7266	4018	-32768	-20624	-31272	1278	-1718	1192	3016	7784	-32768	-988	-1485	447	-10808	7784	31408	-674	331	34	135	142	2
-20724	444	32767	20717	32165	10561	-15884	-5796	14836	19493	27020	-1014	-6628	-10788	15248	23218	-20696	616	-32768	-13472	-24944	246	693	377	5656	1688	-32768	-937	806	311	10712	-4688	18008	1667	709	-634	127	111	2
-30476	-304	32767	4557	12817	7904	-27772	12140	5092	19909	32767	-3301	-1820	6864	11892	24566	-25834	3679	-32768	-9728	-13576	-464	1935	86	1216	1440	-26960	-850	2436	-55	-2616	8288	-11632	-154	2372	494	146	84	2
-20196	-1432	31268	-3805	10083	12580	-25928	11696	8396	583	32767	-6477	1240	12012	7488	16289	-19742	6366	-32768	-5520	-32768	-1350	5026	105	-4448	2208	-13504	-1703	2686	24	-3392	21208	-5336	227	2260	-391	133	159	2
-17184	-11368	32767	-6167	6227	18607	-24256	6352	8092	-5672	32767	-7886	-10296	12144	3716	4692	-22793	1421	-32768	10992	-32768	-1561	5036	54	-32768	32767	-32768	-4306	5411	2346	-32768	30400	-9952	-1039	-2483	1330	136	145	2
-22516	-18168	32767	-1684	903	23019	-32768	-1568	-4784	-9755	28157	-5930	-32768	-7252	6180	-18286	-28312	-2458	21640	-896	2512	-1263	4811	-3318	-5896	-5208	16512	-4793	8694	-2107	-32768	-32768	-32768	-1615	1591	941	97	112	2
-15136	-23080	32767	4066	-16656	19387	-27440	1224	-4600	-6815	16358	-1713	-32768	-3168	1820	-3527	-32768	-8080	-8544	-25952	32767	-3172	938	-2745	20992	12928	-29440	436	3901	2758	32767	-9520	-31248	4374	-124	162	134	148	2
-7672	-16320	32767	-1805	-29946	11108	-19356	100	-6304	-3144	3964	10	-32768	-11864	2632	4248	-31633	-9046	-13536	-8744	14136	-1342	-383	-840	-9848	-10888	-32768	4948	3333	1620	-7184	32120	-24056	4338	590	40	137	174	2
-2060	-16112	24556	-9561	-32768	786	-15084	640	-11996	-4361	-12645	363	-32768	-8056	-632	6499	-32768	-9037	-11328	6512	12112	-828	-99	-411	-32768	32767	-18168	2562	2981	-1	-28968	32767	-22872	4504	876	475	128	160	2
-4544	-13904	22312	-13889	-32768	-10597	-9928	-376	-17184	-12651	-25980	3425	-32768	-3424	-9196	5664	-32768	-4881	-8896	4016	13704	-477	37	-418	-11064	11104	-23720	-2045	2157	329	-28448	-3376	-10296	-133	3287	832	157	142	2
-11652	-8000	20496	-20391	-32768	-23941	-7252	-3592	-16556	-9342	-32768	4670	-32768	-1992	-15844	2226	-22824	-2243	-9104	2352	13848	-156	340	-403	-20608	4536	-29440	-2557	2288	497	-22832	7008	-11392	821	3372	-216	110	118	2
-16952	-6688	18300	-21820	-32768	-32768	-5412	-2664	-14540	-2364	-32768	6535	-16648	1464	-12160	1555	-16006	-9855	-6720	4992	16664	285	1321	-500	-32768	6064	-20456	-862	1146	-182	-32768	17368	-872	625	3730	-690	134	139	2
-20492	-1468	17748	-19490	-32768	-32768	-6416	304	-13000	1324	-32768	8974	-13900	-3156	-20428	6389	-13761	71	-2704	8776	22736	-263	3782	-848	-32768	3256	-9336	690	577	508	-32768	9048	18536	-1800	4398	-872	123	152	2
-25684	7056	21336	-22248	-32768	-32768	-7548	4676	-17324	-2136	-32768	10816	-3024	2520	-20916	6182	3685	628	-5480	3048	19744	-765	6263	-1610	-32768	-5344	2064	947	538	543	-32768	-10832	28024	-2552	3935	-386	136	119	2
-32768	4400	31876	-22574	-32768	-32768	-7948	2264	-19692	-17938	-32768	12979	5568	4188	-21832	4443	10344	4782	-21496	4984	22064	-1018	8540	-2341	-32768	-5352	9296	1968	791	612	-22944	-18144	32016	-259	3162	-457	128	119	2
-32768	-888	32767	-8812	-32768	-23881	-21436	-3548	-28760	-28528	-32768	7504	7176	8104	-20608	8655	12044	5158	-25816	1912	27296	73	8458	-1771	-24480	-3136	16512	3304	947	560	-7880	-6584	32504	1011	1910	-816	122	180	2
-32768	7096	14560	-8948	-32768	-21256	-25272	-9260	-32388	-22260	-32768	6327	1508	-6144	-12432	3505	1606	-743	-29136	7152	25872	-35	8381	-1637	-23472	8136	24936	3738	1336	145	-6048	13864	32767	2354	920	153	138	124	2
-32768	5536	-18548	-6187	-32768	-18421	-23784	-8872	-32768	-3178	-32768	7523	-8692	-17828	15856	-3920	-18694	-10004	-32768	9144	31360	-315	7412	-1315	-14632	17048	17680	602	2818	-419	-1336	15552	32448	517	-585	122	161	110	2
-32768	13048	-32768	-2903	-26111	-10850	-8104	-10348	-32768	1495	-19892	-90	-9324	-15120	22280	-3741	-20710	-10015	-8008	5152	32767	-1061	4298	-1186	-23400	11512	6248	-2989	4793	-552	-2456	1312	17880	-1125	-1366	-212	148	138	2
-32768	20768	-32768	-10210	-5683	-4874	5308	-7584	-32768	-4205	4276	-6109	-3600	-316	19568	-3297	-2847	-1377	-11352	17440	32767	-173	1017	-1505	-32768	-6328	14248	-1819	4312	449	-10496	-7336	11504	-1599	-2432	-612	105	117	2
-32768	7856	-22972	-5248	10361	0	3484	-10736	-32768	-622	19454	-4886	396	10548	4168	-16966	20209	-3147	-6656	10712	32767	577	357	-1636	-26432	-8608	11880	1559	3381	904	-11872	-7296	8544	-479	-1875	-715	169	95	2
-27052	9372	-9080	-6240	11790	-3022	4696	-2480	-23272	6388	23405	-2850	6832	-13420	-32768	-502	32651	5986	-4088	20952	32767	1103	-495	-1095	-21464	8	7200	3569	2407	581	-11280	-5736	8392	154	-2469	-805	187	96	2
32767	32767	-32768	12126	32767	16716	-15568	-19944	21440	-22454	20985	4098	-12016	-21552	32767	6667	-32768	2569	-5352	22960	32767	653	-1361	-632	-23712	10896	-536	3551	1800	498	-21536	5072	3168	2145	-3196	-1022	97	125	2
-32768	32767	-2156	23313	8563	12148	-17560	5100	-20448	31505	32767	4560	-32768	22684	-32768	32767	26971	-32768	-5208	26408	32767	206	-2626	295	-23952	17768	-6616	1389	780	-40	-32768	15920	5544	1845	-3039	-341	68	110	2
-32768	-32768	32767	32767	30096	32767	32767	-10928	-32768	17734	32767	-18267	-4124	32767	-23604	-944	-4769	2867	-2232	20504	25048	-433	-3989	1123	-20320	9176	-7240	-1257	-107	-255	-32768	10600	3520	903	-3291	286	23	62	2
-32768	-25136	-1044	10120	-533	10755	7796	2192	-32768	2297	24790	-15950	27804	316	-29812	-32768	11811	5646	1616	11376	15776	303	-4519	1627	-17272	4144	-10520	-1383	-1658	-152	-32768	9360	-1704	-616	-3318	523	88	118	2
-12144	-9916	13952	1637	599	1188	-29712	580	-22336	-18803	26901	-9262	-26824	-32768	-18848	-31181	12827	8490	-704	13016	14784	898	-4741	1895	-12808	7968	-14264	-1211	-3560	-317	-32768	9992	-8960	-1172	-3388	254	127	176	2
-10292	-2380	14672	2032	1612	1694	-22500	-17112	-20960	5940	19191	-9457	-31912	-9272	-18388	7180	20956	-9732	-8808	11200	18008	1041	-5372	2292	-9368	1912	-16640	-1706	-4848	-444	-32768	-7920	-15856	-504	-2824	18	154	182	2
-10784	-2376	13740	886	3121	2519	-18688	-12664	-26436	16205	13147	-3652	-21880	-6412	-17140	230	31611	9226	-10928	4232	18248	1654	-5962	2433	-10368	-888	-14224	-338	-6402	-381	-21504	-4888	-14728	56	-2428	-110	139	105	2
-7604	-2336	16144	-2227	9179	2123	-26884	1528	-21796	8430	5261	-1308	-32768	-13188	-11600	-7078	32767	5009	-17072	3520	19736	2348	-6231	2140	-11200	-552	-15512	1145	-7493	192	-11888	2568	-18216	522	-1334	-93	114	121	2
-1296	-6220	18016	-1951	30796	5394	-32768	10532	-11804	-691	3410	-2855	-32768	-3036	11528	3844	32767	11491	-23808	5200	28544	2653	-6342	2016	-10112	2240	-19728	1099	-7944	749	-3048	520	-18840	998	187	-316	64	135	2
-3108	-4616	20068	5124	32767	14047	-32768	16812	1376	-3160	1551	-5651	-32768	10388	26932	5760	32472	9355	-32768	9408	32767	2795	-6991	2512	-14944	1152	-21328	157	-8143	822	4624	2384	-16936	833	1088	-30	114	113	2
-12512	-3056	15832	4639	32767	21266	-32768	14984	15092	-13541	359	-5989	-28948	7452	32767	-13969	32767	5677	-32768	6312	28296	2477	-6754	3453	-23520	1600	-26616	194	-8082	1016	7888	-48	-15512	-450	1494	487	140	114	2
-32768	428	19872	-2703	32767	16932	-23016	11188	9744	-19528	4517	-3702	-10580	8264	32767	-26541	32767	6250	-32768	-984	18232	1801	-5618	4470	-22344	7712	-29568	-770	-6743	387	-6456	9368	-4088	-1428	-424	1483	113	135	2
-32768	-7020	22384	-13152	32767	8805	-8540	2860	18716	-32768	20370	-2011	-5904	-6696	30500	-32768	16614	2590	-32768	-11000	-8120	643	-4062	4128	-18488	6904	-32768	-1394	-4212	-211	-13152	9504	29640	449	-2426	1702	114	97	2
-28728	-6048	22360	-3690	32767	13181	-17084	-5880	26684	-10775	29613	-218	-5080	-27284	26024	-21667	1343	1723	-32768	-29248	-29504	670	-1920	1390	360	4800	-32768	-1523	-1812	260	-7872	392	32767	-842	260	107	149	117	2
-32424	-8636	31116	8040	32767	15221	-20292	-2400	12268	24708	31731	-2095	-7076	-23624	18304	8758	-14672	2114	-32768	-19352	-26120	528	-62	-149	6896	552	-32592	-322	705	374	3856	-2632	22760	942	-735	-483	119	102	2
-32768	1576	31500	15036	32767	15007	-20116	6200	1056	31719	32767	-2438	-5452	-14288	28284	32767	-24879	544	-32768	-14824	-15648	-424	1171	-1248	1064	1976	-25872	381	2353	163	4136	800	-600	833	1787	-131	132	65	2
-27820	-4360	32767	1445	10495	12356	-25860	11456	4848	9319	32767	-4649	-3936	12752	6588	29007	-21807	4898	-32768	14280	-32768	-2285	3497	-1433	-2704	1952	-20760	-764	2672	287	-7800	18816	-13840	483	2530	-58	112	97	2
-14408	-6100	32767	-4702	3107	18979	-27112	10696	8516	-5040	32767	-6821	-7176	17560	1716	9134	-22449	2791	-32768	32767	32767	-2147	12336	-3129	-32768	32767	-32768	-2701	4648	1472	-32768	32767	-16024	-1323	-3082	1805	112	226	2
-16172	-13728	32767	-9796	295	20517	-25724	3280	472	-6436	30413	-5811	-27104	-568	5884	-15909	-26818	-1018	32767	6440	-18720	-2945	3979	-3216	-8352	-584	4592	-5439	8110	-2017	-25712	-20832	-32768	-2818	1045	670	93	144	2
-13288	-27436	32767	-1028	-10842	18696	-29916	1452	-3684	-11811	20616	-2103	-32768	-3568	-76	-10391	-27986	-5403	15968	15192	32767	-2910	428	-1935	23456	-7864	-32200	-2231	4526	1845	5936	-12216	-32768	2848	1284	1014	135	144	2
-8028	-21176	32767	3881	-22088	12737	-22788	-2908	-5764	-4941	7707	1077	-32768	-11416	3244	-2311	-31475	-6616	-9408	264	14568	-1017	-376	-466	-16200	-14176	-27464	4299	4493	1069	-4272	14512	-13064	2718	375	122	110	217	2
