#Activity	standing 
#ActivityID	8 
#Date 10-21-16-10
acc_rf_x	acc_rf_y	acc_rf_z	gyro_rf_x	gyro_rf_y	gyro_rf_z	acc_rs_x	acc_rs_y	acc_rs_z	gyro_rs_x	gyro_rs_y	gyro_rs_z	acc_rt_x	acc_rt_y	acc_rt_z	gyro_rt_x	gyro_rt_y	gyro_rt_z	acc_lf_x	acc_lf_y	acc_lf_z	gyro_lf_x	gyro_lf_y	gyro_lf_z	acc_ls_x	acc_ls_y	acc_ls_z	gyro_ls_x	gyro_ls_y	gyro_ls_z	acc_lt_x	acc_lt_y	acc_lt_z	gyro_lt_x	gyro_lt_y	gyro_lt_z	EMG_r	EMG_l	act
-5612	-5036	14700	126	-19	-103	-16112	-8	1100	-23	-66	5	-16000	2328	-2232	36	0	2	-7180	3696	13740	-93	166	-203	-16640	268	172	125	22	146	-15516	112	-4848	80	-69	188	122	114	8
-5540	-5080	14808	102	-13	-118	-16124	36	1184	-22	-85	-10	-16008	2144	-2120	31	-4	5	-7160	3672	13732	-70	145	-177	-16600	348	204	137	1	154	-15588	72	-4792	0	-226	137	121	113	8
-5596	-5060	14708	154	-43	-114	-16080	92	1176	-40	-107	-18	-16008	2400	-1864	27	3	2	-7140	3768	13852	-109	103	-181	-16680	392	28	146	7	127	-15736	-12	-4708	56	-264	130	121	113	8
-5536	-4988	14756	109	-16	-98	-16160	96	1200	-35	-77	-36	-16104	2184	-1976	29	3	1	-7016	3796	13808	-81	139	-194	-16860	404	120	122	-27	101	-15760	-48	-4932	69	-125	199	117	115	8
-5584	-5128	14776	125	-10	-113	-16084	4	1212	19	-68	-40	-16088	2104	-2064	27	7	3	-7080	3812	13764	-89	152	-203	-16904	236	52	125	-48	122	-15808	136	-4972	70	-23	215	110	124	8
-5612	-5060	14772	113	-28	-126	-16120	12	1144	0	-52	-31	-16120	2208	-2088	32	-1	2	-7128	3704	13752	-79	215	-188	-16752	244	52	107	-37	169	-15568	80	-4956	79	31	178	105	128	8
-5508	-4992	14792	130	-26	-106	-16180	24	1192	-5	-89	-11	-15968	2264	-2240	30	-4	0	-7160	3632	13812	-95	166	-183	-16624	248	104	117	-38	188	-15540	112	-4900	32	2	193	103	129	8
-5660	-5052	14816	135	-26	-117	-16128	68	1264	-65	-65	-19	-16104	2184	-2280	25	-3	-1	-7148	3664	13784	-90	102	-156	-16612	396	176	146	-9	104	-15620	4	-4688	-3	-232	166	103	128	8
-5560	-5088	14824	100	-11	-117	-16140	4	1160	49	-84	-11	-15952	2264	-2168	26	11	1	-7072	3852	13868	-80	96	-205	-16732	460	316	59	25	80	-15752	-24	-4880	44	-168	193	103	128	8
-5548	-5056	14788	143	-47	-102	-16132	-24	1088	55	-94	-31	-16032	2128	-2128	28	15	5	-7052	3800	13808	-66	156	-179	-16956	284	220	59	-63	140	-15776	-4	-5168	105	36	199	106	123	8
-5480	-5024	14752	108	-87	-87	-16144	96	1084	26	-92	-62	-16112	2200	-2320	41	9	3	-7200	3732	13760	-92	180	-230	-16792	124	44	134	-51	157	-15652	68	-5084	125	16	265	111	115	8
-5576	-5044	14780	151	-12	-130	-16132	52	1208	26	-81	-30	-15896	2240	-2088	40	6	2	-7100	3704	13724	-64	155	-166	-16512	440	80	114	-53	202	-15464	112	-4928	151	-71	227	113	111	8
-5520	-5084	14688	149	-38	-105	-16156	24	1132	42	-69	-27	-15904	2120	-2272	44	4	2	-7176	3752	13744	-107	108	-145	-16684	304	132	173	-94	178	-15600	8	-4812	139	-219	186	115	109	8
-5472	-5032	14892	181	-79	-118	-16120	152	1096	57	-66	-58	-15936	2160	-2072	47	7	6	-7152	3768	13712	-101	72	-178	-16668	480	180	191	-41	140	-15776	-112	-4764	152	-216	191	117	106	8
-5576	-5032	14672	167	-35	-118	-16112	-4	1192	125	-53	-24	-15928	2256	-2328	42	23	5	-7024	3780	13752	-104	136	-198	-16864	400	288	97	-35	176	-15788	-36	-4900	192	-69	229	119	104	8
-5528	-5128	14740	135	-56	-125	-16160	36	1100	66	-70	-21	-15976	2288	-2016	45	15	1	-7232	3672	13860	-52	162	-195	-16912	152	204	82	-33	173	-15880	0	-5012	131	4	199	121	102	8
-5576	-5024	14780	195	-19	-100	-16076	40	1168	59	-79	-32	-16112	2312	-2192	39	9	-2	-7176	3744	13748	-82	175	-154	-16624	288	88	85	-68	203	-15552	228	-4916	112	-36	216	122	101	8
-5636	-5024	14824	170	-64	-115	-16136	136	1176	28	-90	-55	-15984	2424	-2208	34	10	2	-7096	3708	13876	-76	112	-153	-16620	348	116	189	-114	200	-15560	84	-4724	44	-156	199	122	101	8
-5536	-5060	14896	152	-56	-139	-16252	80	1236	-16	-108	-71	-15984	2368	-2408	30	0	-3	-7128	3756	13868	-77	92	-183	-16716	356	192	120	-36	156	-15704	-16	-4768	96	-209	162	122	101	8
-5536	-5076	14876	147	-82	-96	-16152	28	1196	5	-113	-62	-16144	2400	-2344	30	5	-1	-7032	3700	13868	-114	152	-202	-16812	468	200	73	-20	90	-15740	68	-4720	77	-215	162	122	103	8
-5620	-5056	14744	142	-97	-153	-16132	84	1128	47	-111	-76	-16008	2280	-2112	26	6	-3	-7148	3732	13764	-100	126	-202	-16896	264	96	76	1	118	-15804	32	-5028	41	-28	177	122	103	8
-5512	-5044	14884	144	-74	-116	-16152	52	1184	-52	-69	-129	-16000	2192	-2216	13	7	-4	-7132	3740	13876	-81	189	-189	-16792	232	48	53	-15	188	-15576	132	-5056	21	7	188	123	101	8
-5548	-5100	14768	156	-49	-130	-16128	92	1192	-34	-120	-115	-16128	2384	-2264	16	-6	-8	-7108	3672	13844	-58	136	-187	-16696	268	80	55	-16	174	-15504	72	-4944	-31	-143	132	123	102	8
-5584	-4984	14812	124	-32	-144	-16168	92	1128	-77	-151	-81	-16016	2336	-2184	23	-5	-9	-7104	3704	13788	-107	86	-136	-16564	340	124	122	-34	211	-15520	52	-4712	-75	-298	128	123	103	8
-5524	-5012	14648	110	-65	-124	-16124	72	1204	-44	-131	-122	-15936	2320	-2168	21	0	-9	-7028	3676	13808	-100	93	-170	-16780	424	296	113	-71	153	-15704	-36	-4892	25	-200	158	123	104	8
-5528	-5032	14692	101	-68	-162	-16132	0	1096	-26	-135	-81	-16080	2040	-2072	21	4	-4	-7016	3744	13728	-69	97	-183	-16884	304	252	120	-28	146	-15772	32	-5084	40	-61	177	123	105	8
-5564	-5084	14844	94	-10	-168	-16136	-28	1092	9	-105	-121	-15936	2056	-2336	34	-3	-3	-7128	3756	13844	-65	175	-199	-16796	196	124	102	-65	206	-15804	24	-5140	72	-48	187	123	106	8
-5592	-5044	14856	115	-5	-114	-16100	4	1220	-15	-119	-58	-16040	2048	-2384	40	-11	-5	-7100	3752	13792	-58	182	-175	-16616	288	72	148	-73	237	-15564	28	-4792	91	-162	162	123	107	8
-5548	-5032	14800	136	26	-140	-16204	-68	1272	-11	-77	-85	-16120	2256	-2088	37	-9	-2	-7216	3736	13832	-46	101	-141	-16620	376	44	156	-54	242	-15576	4	-4660	30	-260	148	123	106	8
-5568	-5084	14780	119	-30	-124	-16128	-16	1144	66	-33	-78	-16000	2176	-2144	43	4	4	-7156	3784	13696	-62	87	-200	-16664	452	228	161	-54	161	-15684	-60	-4660	77	-304	188	122	110	8
-5496	-5068	14708	162	-55	-145	-16112	32	1180	103	-89	-53	-15944	2128	-2280	38	2	3	-7036	3788	13756	-83	121	-186	-16832	440	88	130	9	145	-15856	-80	-4916	193	-180	260	121	110	8
-5560	-5084	14748	144	-39	-93	-16220	-32	1168	50	-82	-29	-16088	2200	-2088	39	3	3	-7092	3808	13776	-84	184	-214	-16896	336	128	147	-24	215	-15792	28	-5108	238	-94	265	121	112	8
-5568	-5072	14728	152	-32	-132	-16128	28	1140	-2	-85	-19	-16032	2160	-2264	41	-7	6	-7176	3692	13940	-59	189	-188	-16728	148	200	191	-73	242	-15616	44	-4976	219	-111	240	120	115	8
-5572	-5060	14704	149	-55	-124	-16132	8	1236	-30	-62	-22	-15872	2096	-2160	36	-11	3	-7136	3688	13792	-68	141	-191	-16484	372	36	167	-78	201	-15448	188	-4676	141	-253	219	121	115	8
-5584	-5020	14696	147	-51	-112	-16172	88	1220	-16	-48	-19	-15880	2344	-2216	40	-10	0	-7088	3744	13804	-81	101	-178	-16644	460	48	141	-4	151	-15616	84	-4668	59	-351	186	123	114	8
-5568	-5020	14728	115	-43	-120	-16116	32	1276	38	-91	-15	-15968	2216	-2408	36	0	3	-7048	3732	13680	-67	103	-189	-16804	428	188	121	8	97	-15804	-28	-4848	79	-202	186	124	113	8
-5592	-5088	14796	130	-40	-112	-16116	-48	1268	33	-43	-35	-15928	2080	-2184	33	4	3	-7072	3828	13844	-69	170	-221	-16916	332	180	152	0	159	-15772	48	-5156	157	-39	216	125	113	8
-5536	-5032	14764	88	-53	-107	-16076	76	1088	3	-82	-69	-15992	2280	-2192	33	-1	3	-7148	3732	13812	-51	173	-217	-16848	184	20	114	-73	188	-15656	100	-5108	150	31	230	125	114	8
-5568	-5096	14784	114	-74	-120	-16144	16	1104	-26	-101	-35	-15888	2224	-2072	33	-6	-3	-7120	3644	13780	-90	189	-209	-16652	324	192	112	-50	188	-15452	208	-4936	67	-124	179	126	113	8
-5484	-5120	14820	125	-42	-114	-16080	112	1156	-96	-88	-78	-15944	2272	-2232	27	-6	-2	-7208	3736	13852	-74	115	-173	-16612	252	32	102	-49	176	-15536	52	-4772	-42	-225	156	127	114	8
-5480	-4968	14744	103	-68	-142	-16108	108	1156	-62	-72	-43	-15976	2384	-2192	22	2	-5	-7020	3788	13688	-71	77	-190	-16740	448	196	89	10	138	-15704	16	-4768	-9	-219	129	127	114	8
-5588	-5104	14728	80	-75	-139	-16164	32	1208	41	-101	-57	-15984	2320	-2112	21	11	1	-7124	3800	13832	-111	126	-204	-17012	360	256	33	-1	141	-15832	12	-5024	86	37	216	128	114	8
-5532	-5024	14768	39	8	-113	-16200	24	1272	33	-78	-105	-16272	2176	-2048	26	7	-3	-7104	3760	13884	-36	228	-205	-16932	172	104	80	-68	174	-15764	0	-5160	55	127	221	128	114	8
-5544	-5088	14676	126	-38	-125	-16124	28	1172	39	-118	-37	-16000	2176	-2248	28	4	0	-7152	3764	13848	-71	255	-247	-16672	348	56	171	-81	275	-15420	132	-5272	137	102	204	127	117	8
-5548	-5056	14680	134	-9	-100	-16140	72	1144	-12	-69	-63	-16112	2224	-2320	37	1	-1	-7176	3668	13888	-66	87	-176	-16644	396	104	132	-131	306	-15468	92	-4772	34	-202	230	126	119	8
-5556	-5016	14724	108	-31	-150	-16148	132	1120	51	-93	-50	-16000	2264	-2224	34	4	3	-7136	3788	13828	-95	49	-176	-16480	452	268	178	-19	220	-15576	-108	-4860	95	-338	153	127	119	8
-5572	-5060	14784	100	-55	-133	-16160	56	1176	84	-82	-67	-16032	2248	-2440	48	9	3	-7032	3840	13788	-64	135	-205	-16920	384	224	166	-19	206	-15916	-88	-5068	211	-185	221	128	117	8
-5600	-5072	14760	132	-65	-101	-16080	-24	1084	117	-80	-27	-16048	2112	-2152	54	6	4	-7076	3756	13748	-75	214	-200	-16952	140	120	105	-99	269	-15828	-188	-5292	247	-1	274	128	118	8
-5560	-5112	14820	155	-22	-103	-16080	60	1220	194	-57	-50	-16080	2088	-2496	60	5	5	-7312	3804	13912	-11	212	-213	-16732	120	-116	270	-233	381	-15480	208	-5168	307	35	300	128	120	8
-5564	-5024	14744	101	-6	-133	-16184	16	1144	46	-86	-92	-15976	2320	-2400	60	-3	5	-7120	3720	13720	-23	120	-152	-16568	224	88	346	-252	398	-15396	260	-4908	265	-185	284	130	121	8
-5532	-5056	14800	130	-35	-127	-16144	68	1100	67	-72	-97	-16016	2312	-2304	59	-5	4	-7124	3824	13952	-91	84	-188	-16532	464	260	243	-143	330	-15572	24	-4776	270	-452	197	136	111	8
-5552	-5060	14816	109	-60	-121	-16100	48	1180	67	-119	-116	-15960	2072	-1936	63	2	3	-6996	3836	13836	-93	111	-174	-16820	592	344	165	-76	309	-15912	-72	-4804	295	-300	217	138	111	8
-5532	-5140	14792	134	-49	-124	-16188	-60	1176	144	-117	-78	-16136	2088	-2360	62	3	9	-7008	3692	13696	-4	197	-182	-17064	280	244	157	-108	323	-15844	-92	-5056	315	-122	284	140	109	8
-5492	-5116	14740	91	-18	-113	-16124	28	1160	128	-92	-86	-16096	2232	-2304	56	-9	-1	-7224	3780	13708	-31	216	-179	-16740	184	-4	237	-183	346	-15628	224	-4916	265	-88	258	140	110	8
-5520	-5056	14784	124	-32	-76	-16180	-40	1232	-7	-80	-77	-16024	2248	-2248	56	-18	-1	-7220	3760	13868	-40	152	-188	-16404	464	136	321	-169	304	-15524	196	-4668	150	-327	258	140	110	8
-5560	-5044	14832	139	-54	-128	-16140	112	1108	-3	-74	-80	-15912	2480	-2232	49	-23	0	-7096	3744	13804	-82	87	-146	-16516	660	424	231	-91	261	-15636	48	-4452	187	-496	180	139	112	8
-5524	-5012	14744	124	-71	-119	-16100	8	1184	-13	-105	-112	-15952	2240	-2304	34	-14	-7	-7052	3696	13900	-58	146	-186	-16812	624	328	34	13	162	-15916	-80	-4728	89	-433	165	139	113	8
-5528	-5056	14876	144	-44	-106	-16172	40	1092	6	-95	-136	-16088	2272	-2648	21	-11	-8	-7032	3796	13880	-55	176	-208	-16940	352	232	-5	-33	175	-15936	-124	-4956	89	-237	201	136	111	8
-5568	-5052	14660	112	2	-91	-16164	156	1200	-49	-122	-122	-15960	2200	-2248	16	-22	-11	-7208	3856	13856	-49	272	-201	-17004	368	240	24	10	180	-15628	136	-4988	64	-192	182	132	124	8
-5588	-5060	14736	147	-80	-140	-16116	104	1184	-133	-152	-155	-15928	2200	-2376	16	-19	-14	-7160	3748	13832	-87	199	-212	-16608	328	68	194	-82	215	-15424	164	-4812	13	-371	187	132	124	8
-5592	-5012	14776	142	-50	-147	-16100	40	1136	-129	-154	-144	-15888	2288	-2552	14	-20	-11	-7128	3736	13756	-84	107	-194	-16508	516	216	157	-51	180	-15448	228	-4832	33	-386	196	135	120	8
-5564	-5032	14820	113	-97	-125	-16164	88	1168	-144	-159	-150	-15952	2224	-2336	15	-14	-14	-7100	3776	13852	-92	122	-186	-16840	536	340	46	-43	221	-15612	-12	-5084	100	-320	117	138	116	8
-5588	-5116	14760	124	-34	-160	-16144	-4	1152	-86	-199	-189	-16040	2088	-2240	20	-15	-13	-7148	3728	13824	-100	144	-187	-17064	116	216	58	-23	248	-15852	4	-5200	24	-119	146	138	117	8
-5540	-5088	14808	141	-67	-138	-16144	-32	1248	-29	-195	-209	-16000	2200	-2328	20	-22	-14	-7236	3928	13856	-66	227	-212	-16780	388	100	75	-131	345	-15544	92	-5292	11	-4	187	138	116	8
-5504	-5060	14612	114	-51	-188	-16032	-16	1148	-138	-177	-184	-15912	2384	-2272	22	-20	-13	-7176	3752	13888	-46	199	-198	-16672	124	136	114	-217	421	-15304	196	-5008	-52	-204	203	137	117	8
-5508	-5068	14772	128	-48	-138	-16132	-44	1216	-106	-194	-235	-15864	2384	-2328	22	-18	-15	-7156	3736	13664	-48	78	-145	-16496	492	256	193	-225	394	-15336	72	-4844	60	-296	110	138	118	8
-5560	-5092	14792	107	-70	-136	-16104	36	1316	-108	-204	-221	-15960	2280	-2320	31	-13	-18	-7128	3812	13868	-94	34	-157	-16720	484	160	194	-210	390	-15620	-64	-4912	154	-327	136	139	115	8
-5520	-5056	14740	85	-51	-132	-16152	-64	1360	-45	-193	-243	-16008	2112	-2208	30	-11	-10	-7060	3844	13840	-59	107	-157	-16948	368	220	163	-216	461	-15728	-48	-5256	254	21	220	140	115	8
-5472	-5072	14724	107	-90	-151	-16060	-40	1112	38	-222	-211	-15912	2040	-2064	40	-5	-8	-7168	3768	13752	-58	159	-122	-16904	172	88	122	-408	554	-15540	92	-5476	229	172	333	140	115	8
-5436	-5072	14804	120	-56	-108	-16172	-96	1300	22	-186	-214	-16064	2096	-2504	50	-12	-3	-7208	3776	13800	-6	107	-141	-16600	204	88	263	-421	637	-15300	104	-5292	321	176	267	139	116	8
-5500	-5120	14732	119	-67	-120	-16072	-112	1180	2	-200	-190	-15936	2152	-2144	57	-20	-7	-7204	3760	13808	-53	33	-72	-16500	328	48	329	-456	707	-15268	168	-5172	428	94	290	139	116	8
-5556	-5076	14680	128	-65	-123	-16076	-60	1168	50	-215	-223	-16064	2128	-2072	64	-12	-6	-7216	3796	13764	-68	-61	-102	-16740	388	344	375	-534	782	-15372	84	-5304	550	245	363	141	115	8
-5568	-5064	14840	100	-39	-120	-16192	-92	1324	113	-197	-202	-16016	2024	-2208	70	-4	-1	-7072	3692	13836	-75	-9	-83	-16960	292	392	402	-587	844	-15580	56	-5516	511	454	416	141	114	8
-5528	-5052	14836	102	-51	-142	-16128	-108	1356	111	-180	-183	-16016	2160	-2376	67	9	3	-7036	3696	13708	42	56	-104	-16912	352	296	386	-699	989	-15508	-24	-5604	558	613	405	141	115	8
-5504	-5076	14704	91	-31	-146	-16172	-92	1168	146	-213	-205	-15944	2056	-2168	76	6	6	-7160	3692	13828	-5	72	-115	-16768	348	352	435	-744	1099	-15448	108	-5316	439	478	369	140	115	8
-5592	-5096	14780	75	-50	-122	-16084	-96	1172	138	-196	-199	-15960	2016	-2336	81	2	11	-7208	3696	13868	74	49	-63	-16484	560	360	480	-722	1071	-15476	12	-4888	378	277	357	140	115	8
-5524	-5028	14824	126	-83	-185	-16148	-68	1216	114	-203	-210	-15856	2112	-2192	84	2	15	-7028	3840	13804	20	6	-44	-16504	880	488	489	-632	1091	-15696	-116	-4688	367	205	350	139	116	8
-5568	-5036	14812	134	-50	-163	-16136	-108	1244	268	-205	-227	-15960	1928	-2360	92	5	14	-6908	3804	13788	75	47	-63	-16880	964	640	350	-589	1006	-15992	-232	-4488	353	285	403	137	119	8
-5484	-5100	14660	129	-60	-103	-16168	-76	1200	248	-246	-171	-16064	2024	-2096	92	6	22	-7064	3880	13832	68	126	-120	-16864	940	404	267	-513	948	-16096	-192	-4624	376	316	476	136	120	8
-5564	-5100	14884	109	-131	-138	-16104	-220	1144	198	-245	-150	-16064	2024	-2240	95	-3	16	-7076	3764	13788	110	128	-103	-16704	772	528	437	-490	821	-15920	-156	-4332	339	165	429	135	120	8
-5484	-5068	14700	137	-102	-161	-16168	-232	1416	177	-254	-90	-16104	2168	-2184	92	-13	17	-6996	3852	13700	164	142	-59	-16456	1128	528	600	-390	718	-15812	-140	-4236	480	-13	350	134	120	8
-5484	-5080	14668	142	-99	-103	-16108	-256	1348	167	-223	-52	-16120	2128	-2072	81	-16	16	-7088	3900	13824	36	98	-110	-16632	1172	564	489	-244	522	-16028	-80	-4180	500	-139	361	134	120	8
-5496	-5048	14728	129	-70	-92	-16132	-124	1304	98	-176	-7	-16152	2144	-2160	61	-14	20	-7056	3928	13784	-3	163	-135	-16700	1268	760	347	-140	424	-15984	-36	-4408	419	-61	376	134	119	8
-5596	-5056	14784	170	-64	-91	-16120	-172	1336	48	-175	-22	-16152	2096	-2032	40	-8	18	-7076	3776	13824	8	200	-166	-16852	984	536	193	-27	280	-15936	-36	-4532	270	-4	338	134	119	8
-5548	-5084	14776	156	-56	-120	-16140	-116	1392	-28	-144	70	-16008	2200	-2040	18	-9	11	-7104	3828	13744	8	230	-170	-16688	948	504	250	-4	257	-15696	120	-4760	65	59	329	133	120	8
-5508	-5084	14740	161	-18	-104	-16120	-132	1348	-148	-196	33	-16032	2240	-2216	-2	-11	10	-7132	3824	13720	30	246	-173	-16692	912	516	231	33	194	-15604	272	-4884	15	16	309	131	122	8
-5572	-5092	14884	175	4	-99	-16104	-52	1216	-173	-154	80	-15968	2120	-2000	-9	-7	6	-7044	3944	13796	45	232	-149	-16664	988	656	242	67	198	-15596	176	-5032	-3	10	265	129	123	8
-5524	-5132	14752	171	-44	-85	-16104	-152	1304	-150	-174	82	-16144	2000	-2264	-10	-3	8	-7100	3828	13756	-5	254	-181	-16728	740	556	210	87	153	-15660	32	-5080	-37	74	267	127	126	8
-5556	-5128	14724	170	-60	-63	-16196	-52	1412	-137	-190	95	-16024	2160	-2128	-8	2	11	-7156	3808	13820	-3	213	-174	-16668	744	548	225	67	150	-15600	48	-5048	-91	69	244	127	126	8
-5564	-5088	14740	177	-67	-101	-16096	-156	1316	-110	-180	88	-16104	2200	-2032	3	1	11	-7144	3848	13792	-16	248	-188	-16752	916	472	234	37	224	-15560	56	-5044	-35	109	266	128	124	8
-5476	-5040	14700	190	-82	-105	-16112	-92	1268	-73	-181	78	-16040	2088	-2104	14	-1	15	-7088	3924	13752	27	205	-171	-16708	852	388	240	66	200	-15648	88	-5076	-22	40	295	130	121	8
-5560	-5116	14804	182	-40	-87	-16120	-48	1420	-50	-109	78	-16040	2120	-2048	26	-4	19	-7120	3904	13852	-44	204	-157	-16564	876	480	147	77	204	-15584	24	-5060	14	15	274	131	119	8
-5472	-5052	14884	157	-26	-79	-16092	-116	1364	-61	-128	148	-15984	2184	-1776	26	-7	21	-7068	3952	13676	-39	206	-194	-16628	944	488	218	119	142	-15640	40	-5016	39	-8	285	131	119	8
-5588	-5032	14748	148	-32	-110	-16112	-48	1256	5	-71	143	-16104	2120	-2144	27	-3	20	-7176	3760	13780	-37	189	-173	-16768	836	360	162	154	114	-15668	108	-5000	68	7	344	132	117	8
-5568	-5032	14760	170	-47	-90	-16096	-64	1276	47	-58	157	-15968	2144	-2072	33	-1	19	-7152	3964	13748	-17	207	-163	-16720	912	356	184	131	99	-15728	72	-5032	49	-15	363	133	116	8
-5520	-5072	14700	178	22	-98	-16084	-20	1172	65	-82	126	-16128	2160	-1800	32	10	21	-7068	3800	13764	-25	217	-193	-16748	924	404	249	112	128	-15692	128	-4888	42	-95	334	133	115	8
-5564	-5080	14688	166	-28	-65	-16132	-20	1240	-42	-93	174	-16000	2240	-2352	22	5	21	-7132	3876	13768	-31	236	-196	-16648	920	440	238	207	42	-15716	124	-4948	73	-240	249	133	114	8
-5556	-4992	14740	186	-10	-78	-16116	12	1516	-36	-93	164	-16072	2248	-2608	18	0	19	-7124	3896	13896	-47	220	-185	-16592	964	436	137	243	4	-15712	152	-4796	16	-348	200	132	115	8
-5580	-5028	14796	175	-46	-50	-16084	56	1208	-46	-57	178	-15912	2320	-2056	18	-5	20	-7120	3788	13808	-60	194	-193	-16692	956	372	117	280	-21	-15640	128	-4864	-118	-231	209	131	117	8
-5528	-5048	14828	172	-72	-90	-16076	-76	1296	-55	-59	145	-15800	2472	-2152	12	-8	17	-7080	3944	13740	-71	219	-247	-16760	1056	512	91	283	-87	-15736	124	-4924	-171	-256	236	129	118	8
-5480	-5096	14756	155	-34	-68	-16100	76	1168	-48	-43	136	-15952	2376	-2160	14	-1	12	-7140	3828	13784	-76	204	-215	-16836	780	532	61	406	-112	-15720	108	-4968	-251	-327	185	128	119	8
-5528	-5076	14792	138	-8	-138	-16152	56	1380	-93	-66	145	-15968	2304	-2208	11	-10	13	-7156	3924	13692	-82	218	-210	-16592	972	296	-20	407	-182	-15592	200	-4836	-297	-400	150	129	117	8
-5568	-5052	14880	128	-12	-113	-16056	84	1268	-142	-100	85	-15896	2416	-2176	0	-12	5	-7120	3872	13708	-111	185	-259	-16600	920	520	-127	449	-193	-15600	272	-4876	-390	-480	110	129	117	8
-5480	-5020	14716	152	-31	-75	-16172	56	1268	-160	-87	109	-16032	2288	-1744	-1	-6	-2	-7140	3844	13684	-148	155	-253	-16708	1024	420	-108	511	-282	-15760	188	-4724	-414	-557	109	129	116	8
-5504	-5036	14732	157	-35	-107	-16100	40	1316	-111	-112	106	-15888	2336	-2336	-2	-7	-1	-7068	3844	13764	-185	192	-280	-16804	904	468	-164	485	-291	-15792	164	-4884	-395	-526	106	129	116	8
-5532	-5040	14716	128	-32	-85	-16144	32	1488	-181	-123	50	-15968	2264	-1928	-2	-10	-2	-7144	3848	13672	-190	195	-294	-16792	808	240	-245	535	-352	-15696	212	-5092	-406	-443	90	130	115	8
-5512	-5056	14804	122	3	-83	-16116	-64	1296	-203	-84	97	-16040	2328	-2056	-8	-12	-2	-7120	3872	13700	-154	200	-281	-16696	632	40	-198	491	-343	-15604	248	-4888	-374	-517	61	130	115	8
-5516	-5036	14764	123	10	-90	-16132	56	1392	-196	-32	45	-16032	2392	-1976	-15	-15	-1	-7232	3796	13640	-235	146	-249	-16512	632	172	-76	457	-381	-15536	160	-4880	-354	-744	68	130	114	8
-5532	-5080	14724	116	-11	-122	-16092	16	1260	-221	-45	6	-16008	2424	-2032	-18	-19	-2	-7176	3752	13784	-205	105	-281	-16620	820	396	-100	447	-470	-15624	132	-4548	-262	-908	60	129	115	8
-5540	-5004	14840	104	5	-103	-16048	16	1364	-164	-22	33	-16072	2432	-2096	-4	-15	-6	-6980	3848	13776	-246	98	-235	-16780	900	424	-140	413	-553	-15640	172	-4848	-32	-820	123	128	114	8
-5564	-5076	14736	146	-54	-84	-16132	64	1256	-109	-22	51	-16000	2360	-2120	-5	-12	-9	-6956	3780	13656	-264	163	-330	-16940	708	208	-246	492	-529	-15752	232	-5020	-96	-711	138	127	123	8
-5572	-5084	14868	99	25	-124	-16144	44	1264	-88	-16	8	-15880	2352	-2304	2	-12	-8	-7228	3852	13820	-222	221	-295	-16956	288	44	-141	299	-512	-15748	360	-5164	-84	-651	115	126	132	8
-5564	-5020	14720	97	-42	-64	-16136	92	1276	-88	-52	29	-15896	2256	-2248	3	-7	-9	-7208	3824	13764	-192	175	-278	-16536	376	4	35	318	-459	-15420	284	-4928	-131	-766	114	145	95	8
-5532	-5080	14820	126	-30	-109	-16184	80	1200	-137	-45	15	-15936	2336	-2088	-1	-13	-6	-7200	3784	13732	-244	93	-266	-16480	540	184	18	328	-473	-15456	208	-4704	86	-820	103	152	86	8
-5564	-5004	14736	145	13	-113	-16164	140	1356	-219	-64	-21	-15928	2384	-2456	4	-11	-5	-7192	3784	13684	-222	76	-252	-16732	680	312	-87	375	-495	-15596	136	-4716	40	-1005	60	129	36	8
-5520	-5056	14748	73	4	-87	-16116	48	1384	-102	-38	-59	-15984	2584	-2096	-1	-8	-6	-7048	3780	13812	-184	128	-244	-16872	576	328	-99	379	-556	-15672	108	-4980	22	-911	62	17	42	8
-5536	-5044	14736	75	-62	-87	-16164	44	1304	-93	-53	-55	-15824	2280	-2096	6	-8	-14	-7168	3888	13744	-188	174	-338	-17020	364	96	-102	344	-476	-15804	140	-5116	123	-576	126	7	41	8
-5580	-4964	14824	92	-75	-93	-16112	80	1340	-95	-24	-56	-16120	2256	-2208	11	-10	-16	-7172	3768	13800	-177	205	-277	-16852	204	-76	10	194	-429	-15596	252	-5192	-24	-614	102	1	41	8
-5532	-5060	14744	72	-29	-124	-16140	164	1352	-190	-22	-89	-15936	2416	-2304	-5	-7	-12	-7204	3752	13744	-197	116	-261	-16560	340	-48	143	176	-370	-15312	320	-4920	25	-700	52	6	41	8
-5516	-5056	14736	75	4	-96	-16152	104	1156	-187	-62	-105	-15944	2496	-2240	-7	-11	-18	-7116	3824	13812	-231	67	-219	-16656	380	204	86	189	-379	-15388	240	-4792	103	-798	-9	17	41	8
-5556	-5056	14832	54	-35	-144	-16176	44	1240	-135	-107	-100	-15936	2400	-2248	-7	-8	-20	-7108	3780	13700	-188	101	-236	-16724	404	144	-42	232	-388	-15624	96	-5140	60	-634	-11	30	41	8
-5560	-5088	14792	67	-14	-145	-16144	16	1276	-137	-84	-155	-15896	2080	-2176	4	5	-21	-7112	3740	13812	-176	157	-263	-16968	280	116	-60	204	-310	-15764	92	-5276	-28	-396	-13	41	41	8
-5540	-5080	14796	76	-30	-146	-16104	32	1364	-135	-104	-101	-16064	2184	-2016	1	2	-20	-7112	3756	13800	-136	188	-275	-16924	132	-52	-17	89	-244	-15684	156	-5184	-37	-192	3	53	41	8
-5548	-5004	14740	35	18	-123	-16104	-4	1340	-223	-48	-125	-16016	2312	-1784	-2	-4	-17	-7204	3788	13772	-152	222	-251	-16740	164	-28	56	40	-138	-15572	232	-5096	-139	-221	-12	63	41	8
-5552	-5080	14748	45	-28	-124	-16096	-96	1404	-148	-53	-115	-15960	2152	-1784	-3	-5	-16	-7076	3784	13880	-138	133	-202	-16604	260	4	78	41	-96	-15548	144	-4728	-219	-321	-30	72	41	8
-5520	-5116	14852	29	15	-119	-16116	-132	1276	-188	-23	-128	-16016	2072	-1856	8	5	-16	-7208	3684	13944	-174	126	-210	-16672	348	144	-31	102	-129	-15724	-8	-4724	-123	-402	-40	79	41	8
-5540	-5060	14816	52	5	-144	-16072	-44	1316	-29	-5	-58	-16136	2088	-1696	14	11	-9	-7080	3744	13764	-162	137	-231	-16708	424	200	-41	103	-144	-15804	-212	-4652	-61	-348	22	86	41	8
-5556	-5012	14848	84	-14	-80	-16116	-136	1252	-9	42	-30	-16072	2144	-1928	17	12	-9	-7116	3796	13792	-138	190	-291	-16940	316	44	11	91	-138	-15892	-136	-4848	-32	-191	122	91	41	8
-5592	-5084	14836	97	-10	-72	-16128	-24	1284	23	60	-43	-15976	2024	-1944	14	5	-7	-7200	3724	13744	-55	216	-267	-16828	104	0	76	0	-82	-15756	-48	-4896	116	-193	109	96	41	8
-5556	-5108	14732	101	22	-82	-16188	-28	1292	0	31	10	-15960	2048	-2216	13	-3	-7	-7204	3716	13780	-111	207	-219	-16616	220	20	211	-24	-64	-15556	44	-4796	158	-350	125	100	41	8
-5556	-5028	14756	62	27	-92	-16048	-12	1256	-8	22	16	-15968	2288	-2264	24	1	-10	-7228	3684	13744	-121	166	-232	-16564	288	-64	248	-13	-55	-15524	72	-4492	139	-507	133	104	43	8
-5624	-5056	14744	67	34	-123	-16104	144	1128	0	-5	-78	-15848	2344	-2032	24	2	-4	-7200	3668	13756	-146	109	-180	-16648	360	-44	204	23	-115	-15696	64	-4424	202	-521	128	108	41	8
-5604	-5104	14756	109	-14	-130	-16168	112	1084	46	-33	-34	-15912	2248	-2216	20	11	-4	-7072	3752	13904	-108	131	-193	-16732	428	368	133	81	-139	-15780	88	-4712	279	-358	109	110	41	8
-5580	-5112	14788	106	7	-96	-16104	48	1116	32	-105	-86	-15872	2192	-2112	34	11	-4	-7120	3784	13808	-117	190	-272	-16980	208	-76	76	82	-121	-15936	32	-4856	204	-160	97	112	41	8
-5572	-5116	14772	82	-15	-94	-16088	-16	1088	-36	-127	-74	-16000	2224	-2072	32	4	-1	-7208	3672	13832	-156	208	-224	-16824	-52	40	69	13	-84	-15736	152	-4780	86	-134	115	113	41	8
-5568	-5080	14808	100	-34	-127	-16080	4	1232	-31	-60	-62	-16000	2336	-2296	27	-1	-6	-7276	3660	13740	-106	184	-213	-16544	172	-36	130	1	-54	-15564	172	-4620	-11	-266	74	115	41	8
-5568	-5108	14700	111	-35	-124	-16124	16	1252	-95	-91	-93	-16008	2248	-1984	20	1	-6	-7184	3704	13716	-91	131	-197	-16564	352	100	60	68	-98	-15624	96	-4596	-67	-404	85	116	41	8
-5608	-5060	14812	59	-5	-145	-16168	4	1360	-14	-27	-81	-16008	2376	-2128	17	13	-4	-6996	3628	13796	-122	114	-228	-16748	284	108	56	47	-163	-15704	16	-4388	-7	-503	61	117	41	8
-5488	-5092	14724	139	-64	-118	-16148	12	1248	-31	-18	-55	-16136	2304	-1776	13	17	-10	-7168	3808	13860	-139	151	-261	-16884	220	0	29	60	-125	-15904	-36	-4676	165	-316	65	143	0	8
-5600	-5136	14712	96	-44	-94	-16120	4	1260	-70	-52	-77	-16136	2344	-1872	16	10	-14	-7144	3776	13840	-100	194	-242	-16892	24	-124	92	8	-86	-15848	-56	-4880	126	-196	100	234	1	8
-5596	-5148	14828	98	-8	-146	-16152	80	1264	-60	-38	-13	-16120	2336	-1992	17	1	-15	-7216	3652	13908	-73	194	-207	-16680	4	-132	131	-21	-45	-15640	168	-4836	105	-268	106	253	90	8
-5604	-5136	14736	137	-66	-111	-16160	36	1268	-98	-40	-38	-16080	2192	-2224	18	-3	-13	-7228	3688	13804	-110	112	-187	-16544	216	-20	122	-4	-44	-15568	180	-4544	53	-492	71	253	140	8
-5508	-5124	14720	128	-62	-131	-16068	16	1212	-69	-17	-43	-16032	2240	-2072	21	5	-10	-7120	3672	13756	-145	32	-147	-16540	332	204	92	15	-124	-15744	20	-4232	83	-717	27	253	163	8
-5568	-5052	14736	112	-89	-125	-16112	56	1252	43	-17	-90	-15968	2232	-2264	29	5	-6	-7044	3844	13764	-160	119	-217	-16736	460	148	71	56	-175	-15876	-52	-4624	362	-502	68	253	175	8
-5576	-5080	14820	105	-31	-115	-16180	4	1252	23	42	-99	-16168	2288	-2392	28	8	-5	-7196	3684	13764	-151	206	-244	-17060	-96	72	71	0	-144	-15848	68	-4844	292	-263	146	239	178	8
-5544	-5080	14660	94	-19	-130	-16048	-52	1192	50	2	-97	-15992	2360	-2224	43	3	-13	-7180	3728	13744	-134	176	-235	-16784	-124	-112	142	-113	-66	-15516	168	-5044	216	-59	161	225	178	8
-5612	-5148	14796	88	-53	-91	-16172	40	1272	19	33	-148	-16072	2376	-2120	38	-7	-20	-7264	3724	13844	-144	132	-229	-16612	52	-96	181	-116	10	-15392	312	-4844	228	-216	67	212	176	8
-5560	-5176	14668	97	-93	-103	-16196	20	1268	-46	44	-135	-16032	2192	-1936	40	-5	-20	-7292	3708	13768	-128	101	-196	-16688	140	-12	176	-193	24	-15596	204	-4616	127	-432	6	200	172	8
-5564	-5128	14688	89	-10	-112	-16156	-56	1180	123	107	-120	-16008	2200	-1832	47	4	-23	-7016	3660	13768	-106	54	-125	-16648	220	120	128	-160	61	-15628	-76	-4640	164	-470	-46	191	167	8
-5576	-5020	14752	130	-72	-150	-16088	-108	1264	113	105	-110	-16088	2120	-1936	54	13	-17	-7164	3824	13772	-131	120	-191	-16988	-12	-168	120	-111	30	-15916	-96	-4828	358	-158	-4	182	162	8
-5532	-5064	14688	151	14	-96	-16120	-80	1276	154	102	-133	-16096	2048	-2016	58	8	-17	-7148	3652	13812	-68	168	-231	-17024	-192	-8	188	-244	134	-15904	-32	-5052	298	62	140	174	159	8
-5604	-5036	14784	169	-52	-111	-15964	-92	1300	205	193	-46	-15984	1928	-1776	62	7	-9	-7188	3616	13756	-55	148	-195	-16652	-156	-144	273	-274	165	-15592	-140	-4856	390	-43	110	167	154	8
-5508	-5016	14712	189	-81	-125	-15976	-8	1260	229	274	-4	-16136	2104	-1648	63	-1	0	-7248	3692	13740	-100	45	-174	-16460	108	16	306	-240	196	-15508	-32	-4612	435	-250	124	161	150	8
-5536	-5068	14636	204	-4	-106	-16100	60	1132	267	273	18	-16160	2032	-1856	71	8	0	-7204	3692	13776	-146	-29	-126	-16556	208	28	210	-235	150	-15712	-156	-4512	493	-306	88	157	147	8
-5636	-5032	14724	220	-84	-124	-16112	64	1100	320	333	-26	-15928	2280	-2128	84	38	1	-6956	3620	13668	-71	16	-148	-16872	120	184	179	-175	157	-15920	-176	-4836	568	-124	123	152	144	8
-5516	-5104	14808	230	-73	-118	-16220	24	976	345	296	1	-15904	2232	-2496	88	47	8	-7212	3748	13888	-97	90	-150	-16984	256	48	175	-192	196	-15816	124	-4932	499	122	166	149	141	8
-5528	-5180	14796	165	-92	-124	-16276	132	924	318	241	-77	-15784	2344	-2424	94	39	4	-7220	3736	13736	-76	146	-135	-16884	4	-92	174	-360	265	-15696	284	-4772	149	226	250	145	139	8
-5540	-5100	14772	166	-31	-115	-16272	64	988	197	129	-106	-16112	2448	-2408	93	17	-9	-7284	3748	13832	-70	121	-157	-16516	100	44	284	-346	277	-15636	180	-4516	240	152	153	142	136	8
-5580	-5108	14804	142	-95	-147	-16100	64	1124	121	125	-117	-16016	2424	-2296	68	-3	-26	-7140	3720	13820	-127	53	-149	-16448	312	276	243	-296	235	-15592	-112	-4244	189	-66	78	140	134	8
-5568	-4976	14780	158	-90	-116	-15996	-32	1092	57	133	-126	-16008	2376	-2424	31	-26	-37	-7096	3752	13796	-110	-8	-150	-16612	444	420	88	-209	143	-15792	-212	-4496	119	-196	-39	138	133	8
-5588	-4952	14800	188	-62	-140	-16072	116	888	91	117	-109	-15936	2160	-2584	2	-26	-38	-7148	3672	13796	-122	97	-201	-16964	32	184	-11	-132	111	-15900	-304	-4732	34	-157	-96	136	131	8
-5540	-5096	14824	164	-66	-135	-16248	120	868	-74	11	-175	-15864	2192	-2808	-29	-11	-36	-7156	3760	13788	-79	143	-163	-16904	-60	80	71	-186	207	-15748	-232	-5032	-42	-69	-53	135	130	8
-5548	-5144	14696	146	-100	-137	-16204	192	760	-254	-164	-227	-15648	2256	-3072	-38	-2	-38	-7160	3764	13728	-75	119	-184	-16704	-28	60	194	-265	279	-15508	-144	-4912	-150	-97	63	133	129	8
-5560	-5072	14760	153	-101	-146	-16092	260	676	-294	-299	-283	-15664	2000	-3072	-32	-1	-31	-7172	3680	13832	-58	69	-173	-16600	0	112	174	-251	325	-15572	-216	-4744	-101	-361	88	132	128	8
-5640	-5132	14692	125	-116	-172	-16112	52	876	-228	-363	-366	-15768	1856	-2512	-4	10	-20	-7112	3704	13908	-80	66	-121	-16632	272	384	156	-174	309	-15580	-360	-4640	-65	-366	172	131	127	8
-5464	-5048	14748	128	-153	-172	-16228	52	1036	-163	-429	-421	-15872	1920	-2552	28	9	-8	-7096	3736	13752	-75	131	-187	-16920	104	168	30	-114	341	-15804	-276	-4800	-11	-141	195	130	127	8
-5516	-5020	14784	86	-85	-222	-16244	12	968	-103	-455	-408	-16120	2040	-2304	60	23	-10	-7132	3680	13840	-15	164	-149	-16840	-116	-16	117	-179	417	-15668	-116	-4996	62	136	190	130	126	8
-5572	-4992	14840	81	-191	-187	-16144	-172	1076	-142	-511	-426	-16128	2168	-1976	65	17	-8	-7280	3680	13892	-11	105	-149	-16736	-20	60	236	-280	514	-15448	176	-4760	92	134	175	129	125	8
-5516	-5012	14792	88	-137	-166	-16188	-48	1128	-162	-506	-406	-16296	2040	-1976	53	17	-5	-7196	3676	13744	-49	69	-114	-16540	200	184	220	-258	485	-15508	188	-4628	-98	38	153	128	124	8
-5484	-5016	14780	66	-61	-176	-16096	-176	1276	-200	-422	-412	-16352	2232	-1664	30	22	-7	-7128	3760	13748	-89	51	-124	-16592	368	344	169	-192	435	-15740	-28	-4444	-93	-141	15	127	124	8
-5476	-5092	14688	70	-60	-215	-16048	-108	1344	-112	-377	-351	-16120	2264	-1984	24	19	-11	-7104	3760	13816	-83	86	-148	-16856	320	364	48	-186	455	-15952	-220	-4656	-61	7	24	127	124	8
-5516	-5168	14752	109	-126	-167	-16092	-204	1328	-47	-353	-260	-16264	2192	-1888	10	9	-23	-7160	3780	13736	-53	164	-187	-16884	156	160	-75	-129	403	-15968	-108	-4600	-226	202	72	126	124	8
-5556	-5100	14720	94	-103	-167	-16120	-256	1324	-162	-262	-227	-16136	2208	-1896	-11	7	-29	-7168	3720	13952	-128	170	-177	-16764	128	140	50	-207	435	-15748	-76	-4524	-374	289	158	126	124	8
-5448	-5084	14832	119	-64	-130	-16100	-244	1144	-190	-234	-201	-15992	2016	-2128	-46	4	-34	-7184	3696	13708	-121	111	-168	-16652	320	208	82	-177	413	-15692	-44	-4420	-419	62	50	126	123	8
-5576	-5096	14624	106	-70	-131	-16064	-44	1060	-277	-225	-201	-15968	1992	-2464	-69	3	-33	-7132	3704	13896	-87	52	-157	-16540	480	264	38	-83	271	-15840	-128	-4180	-434	-69	19	126	123	8
-5504	-5168	14720	113	-85	-122	-16244	-172	1188	-358	-290	-199	-15968	2064	-2648	-76	9	-31	-7112	3744	13676	-140	90	-151	-16740	480	308	-160	5	137	-15832	-240	-4400	-353	12	-17	126	123	8
-5548	-5052	14704	116	-148	-156	-16124	-72	1128	-399	-321	-225	-15992	1912	-2320	-68	4	-32	-7024	3672	13772	-102	143	-210	-16908	252	232	-201	36	117	-15864	-220	-4728	-428	331	6	126	123	8
-5524	-5104	14672	120	-113	-166	-16148	-292	1124	-419	-359	-209	-15928	1896	-2152	-58	1	-28	-7112	3700	13820	-107	145	-212	-16856	156	272	-14	24	125	-15816	-296	-4632	-469	302	36	126	124	8
-5432	-5172	14784	83	-85	-141	-16108	-124	1176	-284	-375	-213	-15968	1920	-2096	-50	4	-24	-7196	3716	13784	-93	98	-137	-16576	296	352	62	58	114	-15684	-136	-4556	-502	52	31	125	123	8
-5532	-5104	14864	93	-58	-167	-16160	-232	1264	-384	-394	-244	-16024	1984	-2272	-48	15	-19	-7144	3756	13804	-155	37	-151	-16496	432	288	-96	89	37	-15556	-116	-4332	-393	-189	37	125	123	8
-5532	-5132	14696	74	-91	-136	-16084	-180	1312	-299	-318	-225	-16096	1952	-2192	-37	5	-25	-7116	3672	13788	-172	44	-133	-16652	452	352	-196	192	-48	-15864	-324	-4452	-537	-269	8	125	123	8
-5516	-5164	14676	84	-86	-113	-16080	-280	1272	-165	-304	-242	-16336	1880	-2216	-27	7	-24	-7108	3836	13796	-168	89	-162	-16860	260	220	-134	214	-63	-16004	-344	-4696	-465	-313	23	125	123	8
-5504	-5084	14780	97	-77	-109	-16088	-300	1308	-47	-271	-172	-16088	1856	-2088	-13	0	-24	-7020	3652	13892	-108	145	-180	-16912	144	60	-105	164	-55	-15856	-184	-5060	-378	-111	127	124	123	8
-5540	-5028	14676	87	-70	-137	-16040	-320	1420	-108	-216	-167	-16152	1952	-1952	-5	0	-24	-7076	3708	13740	-112	124	-201	-16716	88	168	-4	85	-28	-15752	-72	-4884	-334	-340	175	125	123	8
-5536	-5092	14840	118	-52	-140	-16076	-276	1268	-5	-194	-173	-16136	1904	-2384	2	-1	-13	-7136	3700	13784	-128	88	-170	-16476	180	60	-30	169	-32	-15480	72	-4900	-316	-455	129	124	124	8
-5536	-5044	14792	147	-55	-119	-16096	-240	1256	-9	-181	-155	-16000	1880	-1912	21	-3	-12	-7056	3728	13908	-135	43	-179	-16696	244	184	-59	161	-32	-15540	-144	-4728	-107	-472	122	125	124	8
-5464	-5220	14752	114	-50	-170	-16164	-312	1336	72	-156	-122	-16096	1832	-2072	24	-2	-15	-7068	3748	13864	-116	75	-161	-16896	40	32	79	56	26	-15792	-320	-5008	157	-421	170	124	124	8
-5484	-5100	14780	133	-12	-113	-16052	-440	1416	215	-99	-63	-16152	1784	-1568	69	2	1	-7104	3788	13788	-107	115	-198	-16812	44	28	208	-9	114	-15792	-352	-4940	327	-366	306	125	124	8
-5488	-5140	14696	192	-40	-91	-15972	-344	1436	293	-25	-15	-16232	1448	-1600	72	-2	10	-7108	3584	13800	-114	83	-176	-16700	40	84	267	-82	138	-15640	-336	-4876	605	-406	343	124	124	8
-5488	-5148	14800	227	-36	-70	-16100	-400	1484	320	73	28	-16000	1768	-1960	81	-1	20	-7152	3680	13808	-108	65	-153	-16596	128	124	330	-78	162	-15584	-336	-5004	726	-569	340	124	124	8
-5544	-5116	14764	259	-10	-68	-16052	-304	1336	320	97	105	-16048	1864	-2072	85	-8	26	-7112	3728	13768	-73	71	-159	-16712	80	264	343	-105	184	-15640	-280	-4816	778	-734	400	125	124	8
-5568	-5100	14752	228	-27	-74	-16068	-184	1156	369	89	76	-15952	1944	-2240	101	-12	33	-7116	3664	13740	-82	86	-151	-16820	112	148	298	-51	232	-15704	-148	-5148	857	-733	485	125	125	8
-5556	-5052	14756	263	-37	-65	-16048	-112	1240	371	77	99	-15784	1936	-2384	109	-15	38	-7116	3680	13836	-45	113	-181	-16848	-32	208	292	-88	299	-15644	-148	-5256	846	-472	576	125	125	8
-5532	-5020	14812	203	-37	-125	-16188	40	1016	354	-18	44	-15776	2248	-2616	98	-19	31	-7160	3680	13900	-23	151	-165	-16948	-244	8	379	-173	460	-15504	72	-5380	821	-347	559	125	125	8
-5584	-5040	14752	210	-46	-59	-16156	-88	1228	306	-56	-73	-15760	2224	-2768	119	-13	27	-7104	3624	13848	54	115	-129	-16796	-20	48	473	-252	595	-15484	80	-5352	794	-347	555	125	125	8
-5500	-5100	14800	161	-57	-105	-16160	-88	1032	367	-147	-48	-15872	2000	-2616	129	-15	30	-7112	3740	13684	39	123	-98	-16608	272	240	404	-160	610	-15552	216	-4540	488	-568	432	125	126	8
-5556	-5020	14800	152	-60	-143	-16076	-40	1112	369	-193	-80	-15840	2056	-2168	130	-13	24	-7084	3720	13828	-7	94	-115	-16648	456	192	264	-192	551	-15824	152	-4284	265	-374	424	125	126	8
-5548	-5072	14720	139	-150	-137	-16200	-108	1260	242	-217	-56	-16112	2040	-1856	115	0	27	-7044	3800	13812	-27	117	-138	-16892	456	316	249	-142	542	-15936	-88	-4232	280	-109	362	125	126	8
-5444	-5184	14796	186	-121	-156	-16096	-232	1488	181	-169	-9	-16168	2008	-2048	110	1	23	-7052	3628	13804	-25	165	-185	-16784	256	268	277	-159	482	-15988	-204	-4228	242	-5	428	124	126	8
-5484	-5128	14680	174	-49	-102	-16076	-316	1384	144	-114	-15	-16200	2184	-1840	65	-15	22	-7076	3684	13788	-4	182	-201	-16796	316	280	313	-129	467	-15944	-156	-4236	325	-125	342	125	126	8
-5508	-5132	14760	145	-9	-96	-16152	-312	1416	159	-55	31	-16088	2160	-1864	31	-17	16	-7108	3720	13920	-63	155	-176	-16660	512	464	270	-58	343	-15832	-116	-4232	285	-307	277	125	126	8
-5540	-5064	14816	193	-29	-121	-16152	-36	1140	54	-73	-26	-16064	2320	-2104	17	-17	10	-7164	3772	13900	-51	178	-185	-16672	424	116	80	69	225	-15876	-188	-4252	203	-452	254	125	127	8
-5532	-5100	14800	188	-29	-89	-16168	-20	1144	-47	-112	-17	-15808	2328	-2504	4	-11	5	-7056	3728	13780	-68	164	-194	-16728	372	252	132	79	168	-15632	-180	-4692	200	-400	347	126	127	8
-5556	-5048	14692	198	-97	-108	-16116	-112	1100	-108	-179	-42	-15936	2040	-2328	4	-19	1	-7088	3732	13696	-55	191	-188	-16892	116	52	149	14	291	-15548	-36	-5040	302	-260	372	125	127	8
-5504	-5016	14704	176	-113	-117	-16068	-68	1200	-115	-229	-42	-15904	1936	-2400	24	-28	7	-7136	3704	13772	2	190	-189	-16912	-8	-8	289	-103	391	-15696	180	-5212	319	-183	386	126	127	8
-5456	-5044	14776	159	-104	-86	-16184	-164	1180	-44	-185	-87	-15880	1816	-2360	54	-19	12	-7128	3696	13780	-24	178	-139	-16720	120	112	300	-136	482	-15464	240	-4900	261	-255	349	126	127	8
-5456	-5120	14772	138	-84	-166	-16068	-88	1292	21	-262	-102	-16088	1888	-2216	66	-11	22	-7044	3696	13824	-13	133	-160	-16400	464	384	183	-79	475	-15416	116	-4596	70	-225	295	126	127	8
-5464	-5168	14788	113	-51	-129	-16116	-144	1228	-5	-262	-116	-16232	2072	-1984	85	1	17	-7056	3676	13776	1	176	-196	-16868	440	36	57	-45	436	-15776	-128	-4504	-58	-56	232	126	127	8
-5536	-5080	14760	128	-94	-138	-16088	-284	1364	141	-220	-55	-16280	2088	-1592	89	-9	10	-7072	3640	13736	-22	182	-202	-16856	296	236	154	-153	430	-16136	-224	-4224	-93	-42	258	127	127	8
-5512	-5068	14724	138	-40	-114	-16016	-288	1448	77	-161	-15	-16208	2120	-1704	52	-20	10	-7060	3756	13880	-39	193	-204	-16636	552	260	213	-28	384	-15920	-104	-4152	77	-117	243	126	127	8
-5504	-5132	14628	168	-58	-118	-16112	-304	1464	-92	-92	43	-16080	2168	-1952	17	-27	5	-7080	3784	13892	-44	235	-225	-16796	524	248	189	-26	303	-15940	8	-4308	148	-280	297	127	128	8
-5504	-5084	14592	194	-50	-75	-16108	-196	1344	-38	-42	36	-15976	2336	-2096	-4	-16	5	-7148	3736	13732	-38	222	-184	-16680	488	192	125	8	173	-15808	-68	-4220	144	-472	296	127	128	8
-5592	-5000	14808	161	10	-70	-16176	28	1356	-129	-127	8	-15816	2264	-2392	-17	-13	6	-7164	3624	13780	-98	147	-157	-16524	336	204	171	19	155	-15572	-108	-4400	147	-593	309	127	128	8
-5560	-5040	14784	154	-13	-86	-16220	-80	1264	-159	-116	9	-16192	2040	-2184	-2	-22	0	-7084	3776	13768	-66	113	-182	-16644	324	300	208	-28	153	-15480	-88	-4756	344	-292	317	127	128	8
-5524	-5084	14720	165	-61	-130	-15904	-224	1296	71	-120	12	-15984	1712	-1920	53	-22	0	-7044	3740	13716	-63	93	-166	-17000	124	148	254	-59	303	-15712	-8	-5232	618	-34	329	127	128	8
-5528	-5040	14748	167	-83	-121	-16140	-64	1280	137	-141	48	-15832	1816	-2168	50	-9	26	-7080	3760	13872	-23	136	-205	-16956	12	72	248	-134	411	-15580	124	-5248	442	65	401	127	128	8
-5592	-5108	14776	150	-112	-135	-16200	-40	1172	40	-179	-43	-15968	2112	-2336	64	3	36	-7108	3848	13812	20	184	-117	-16624	380	156	264	-203	512	-15444	320	-4920	231	161	358	127	128	8
-5484	-5040	14792	128	-83	-153	-16152	-200	1344	42	-211	-44	-15936	2208	-2248	100	3	25	-7180	3732	13760	-37	151	-150	-16808	284	0	226	-176	545	-15776	284	-4612	149	141	325	127	128	8
-5448	-5056	14728	165	-62	-120	-16084	-160	1292	141	-176	-50	-16096	2200	-2288	101	5	26	-7120	3652	13724	-6	102	-170	-16712	540	236	255	-227	528	-15980	140	-4232	17	129	253	127	128	8
-5468	-5096	14640	137	-105	-147	-16124	-380	1460	141	-119	21	-16272	2240	-1592	80	9	12	-7020	3800	13704	-40	104	-155	-16660	552	368	239	-182	511	-16008	68	-4032	-75	185	223	127	128	8
-5448	-5080	14880	154	-36	-94	-16068	-252	1548	96	-7	90	-16248	2384	-1408	48	22	6	-7100	3856	13808	-40	175	-186	-16904	708	296	-102	-53	318	-16144	100	-4088	-279	380	207	127	128	8
-5520	-5032	14760	185	-100	-82	-15964	-336	1456	6	110	112	-16232	2232	-1336	12	19	2	-7204	3720	13764	-101	169	-196	-16640	436	176	-90	-64	188	-15996	-76	-3892	-373	249	214	127	128	8
-5628	-5016	14884	222	-4	-76	-16024	-204	1452	-111	176	157	-16096	2256	-1912	-15	17	-2	-7148	3680	13756	-134	94	-194	-16288	668	164	23	7	77	-15708	-144	-3756	-246	34	169	127	128	8
-5536	-5092	14836	162	-27	-102	-16084	-152	1384	-116	158	170	-15848	2240	-2344	-28	-1	-7	-7184	3832	13724	-196	46	-212	-16596	708	248	-16	129	-29	-15728	-136	-4172	56	-36	194	127	128	8
-5472	-4964	14780	193	-38	-86	-16152	-28	1148	-40	187	194	-16032	2192	-2616	-34	-21	-5	-7056	3744	13832	-212	54	-160	-16812	412	244	-26	76	-79	-15744	-148	-4784	209	-72	221	127	128	8
-5528	-4984	14824	170	-3	-113	-16240	-40	1012	-65	123	149	-15704	1992	-2608	-23	-23	-6	-7096	3728	13824	-215	76	-243	-16856	236	-8	46	23	-28	-15556	84	-5248	397	53	306	127	128	8
-5560	-5036	14776	194	-11	-100	-16224	20	1088	-97	17	90	-15608	1960	-2904	4	-35	-12	-7096	3728	13836	-174	107	-189	-16888	124	12	96	-82	140	-15420	156	-5608	405	239	277	127	128	8
-5568	-5012	14760	186	0	-109	-16164	80	1024	-89	41	83	-15776	2064	-3072	27	-23	-1	-7096	3608	13848	-123	77	-144	-16820	-140	-76	235	-249	245	-15172	244	-5640	294	193	277	127	128	8
-5588	-4988	14756	138	-113	-123	-16104	188	1032	-143	-191	-59	-15744	2080	-2608	29	-8	7	-7064	3688	13772	-86	0	-84	-16608	152	116	300	-242	465	-15220	240	-5524	192	251	233	127	128	8
-5520	-5048	14784	123	-130	-154	-16180	68	1080	-128	-232	-116	-15712	2120	-2512	34	4	7	-7124	3592	13976	-94	21	-90	-16648	376	184	143	-243	565	-15584	124	-5076	-29	258	208	127	128	8
-5524	-5040	14808	102	-136	-156	-16112	-144	1256	-37	-280	-133	-16048	2040	-2152	62	20	9	-7000	3816	13784	-59	50	-73	-16880	460	360	117	-236	624	-15764	36	-5140	-143	550	198	127	128	8
-5512	-5068	14800	98	-150	-152	-16160	-172	1420	103	-271	-133	-15984	2024	-2384	64	24	4	-7044	3792	13776	19	96	-129	-17028	312	312	-8	-309	704	-15748	40	-5028	-340	732	274	128	128	8
-5444	-5100	14832	100	-107	-126	-16136	-224	1356	58	-213	-127	-16248	2208	-1880	50	21	7	-7084	3756	13808	-13	78	-92	-16680	380	320	26	-325	739	-15888	-16	-4688	-318	814	306	127	128	8
-5516	-5092	14696	116	-48	-124	-16112	-332	1444	-33	-112	-63	-16296	2256	-1776	36	9	1	-7088	3756	13848	-15	68	-109	-16544	572	224	32	-270	696	-15588	-100	-4508	-381	534	264	128	128	8
-5416	-5072	14748	141	-54	-87	-16056	-312	1540	55	-55	-38	-16152	2024	-1856	25	0	-2	-7104	3820	13868	-21	37	-91	-16444	720	392	-28	-147	649	-15696	-176	-4384	-255	271	221	128	128	8
-5568	-5116	14728	195	-17	-97	-16132	-160	1316	76	-37	21	-16240	1984	-2000	17	-1	1	-6988	3828	13784	-45	82	-119	-16756	672	232	36	-114	559	-16004	-256	-4496	-53	127	244	128	129	8
-5484	-5016	14744	161	-57	-78	-16116	-64	1216	78	-46	67	-16128	2048	-2288	23	-8	5	-6928	3832	13880	-11	159	-198	-16908	652	256	205	-146	512	-16108	-132	-4600	148	64	377	128	128	8
-5528	-5076	14744	194	-38	-86	-16156	-204	1236	3	-95	58	-16000	2040	-2376	26	-24	9	-7132	3756	13872	-1	170	-194	-16828	464	148	265	-234	508	-15664	-116	-4864	415	-68	415	128	128	8
-5468	-5092	14944	186	9	-93	-16124	-112	1260	-19	-151	29	-15824	2032	-2648	31	-46	12	-7060	3668	13736	35	150	-188	-16496	508	324	437	-207	509	-15492	-68	-4948	537	-247	422	128	128	8
-5564	-5060	14760	162	-67	-95	-16152	44	1216	-74	-190	12	-15696	2072	-2376	35	-50	20	-7040	3744	13864	-1	139	-135	-16540	552	304	479	-157	493	-15500	-100	-4820	497	-426	346	129	128	8
-5536	-5144	14780	156	-48	-90	-16104	32	1304	-64	-237	-71	-15840	2240	-2464	47	-40	22	-7056	3812	13776	51	173	-146	-16676	900	532	349	24	458	-15708	-8	-4640	301	-465	304	128	128	8
-5496	-5004	14796	168	-61	-110	-16156	-56	1196	58	-302	-75	-16032	2096	-2232	56	-27	23	-6992	3708	13940	44	192	-144	-16876	612	616	171	13	444	-15896	92	-4900	25	-325	319	128	128	8
-5572	-5024	14776	125	-120	-96	-16104	-12	1168	98	-345	-112	-15912	2192	-2280	65	-11	16	-7068	3856	13664	11	246	-164	-16840	612	232	63	68	413	-15824	156	-4832	-157	-170	343	127	128	8
-5396	-5008	14692	91	-79	-164	-16072	-148	1348	77	-383	-149	-15992	2352	-2104	54	-19	12	-7012	3884	13848	42	251	-206	-16684	696	292	141	36	448	-15728	256	-4656	-231	-243	309	127	128	8
-5600	-5120	14820	124	-86	-127	-16132	-36	1084	20	-382	-176	-16040	2208	-1944	42	-22	11	-7232	3664	13832	-24	248	-145	-16552	608	300	158	78	408	-15736	184	-4528	-303	-440	270	127	128	8
-5440	-5144	14752	133	-97	-160	-16172	-116	1400	-88	-426	-124	-16008	2272	-2376	34	-19	6	-7092	3864	13792	3	176	-183	-16584	944	400	134	101	351	-15768	116	-4468	-273	-470	214	128	128	8
-5504	-5016	14724	173	-119	-128	-16172	-76	1412	-109	-429	-176	-16136	2288	-1816	22	-15	8	-7036	3816	13808	-55	207	-206	-16836	804	400	-3	166	257	-15912	40	-4652	-251	-306	274	128	128	8
-5484	-5048	14820	100	-101	-135	-16136	-228	1412	-111	-429	-174	-16080	2120	-1768	21	-21	2	-7084	3860	13752	-28	252	-241	-16960	640	292	-4	121	291	-15872	148	-4900	-208	-138	289	128	128	8
-5476	-5048	14720	122	-87	-126	-16076	-212	1468	-72	-344	-137	-16160	2184	-1712	13	-17	4	-7144	3780	13760	-11	248	-211	-16700	632	284	90	81	260	-15664	180	-4720	-167	-219	226	128	128	8
-5488	-5012	14760	95	-62	-133	-15988	-196	1496	-87	-293	-159	-16112	2336	-1872	5	-23	0	-7200	3764	13752	-40	175	-182	-16540	644	196	126	108	221	-15644	128	-4476	-136	-433	167	128	128	8
-5532	-5044	14820	144	-36	-122	-16108	-132	1556	-123	-275	-139	-16032	2200	-1920	1	-12	-3	-7124	3796	13708	-95	101	-188	-16620	820	320	48	99	176	-15716	180	-4500	-160	-444	155	128	128	8
-5480	-5040	14788	119	-31	-113	-16080	-108	1508	-93	-247	-93	-15992	2248	-1872	10	-6	-6	-7016	3912	13752	-140	121	-250	-16936	740	308	-57	138	179	-15704	320	-5036	-100	-153	230	128	128	8
-5516	-5068	14840	111	-60	-114	-16148	-164	1524	7	-175	-108	-16088	2152	-1800	34	-3	-4	-7144	3792	13816	-99	128	-173	-16936	288	88	55	-8	164	-15768	224	-5224	-91	-32	280	127	128	8
-5488	-5088	14800	116	-89	-132	-16132	-184	1504	88	-153	-122	-16120	2096	-1944	52	8	4	-7120	3808	13720	-72	145	-176	-16596	484	-8	172	-107	318	-15384	288	-5176	136	-29	239	128	128	8
-5528	-5112	14680	122	-41	-143	-16100	-168	1592	169	-138	-127	-15952	2144	-2104	75	15	8	-7076	3776	13852	-113	55	-144	-16672	600	60	201	-209	338	-15412	352	-5048	211	-203	230	129	128	8
-5448	-5084	14868	123	-70	-135	-16116	-176	1480	249	-67	-82	-16080	2056	-1840	104	15	14	-7020	3832	13868	-92	78	-169	-16808	712	276	184	-165	383	-15652	36	-4972	397	-224	238	128	128	8
-5496	-5052	14728	134	-80	-102	-16112	-380	1644	380	39	-67	-16232	1920	-1664	126	14	19	-7140	3848	13768	-69	101	-163	-16956	620	448	274	-262	405	-15704	-28	-4964	619	-188	391	128	128	8
-5472	-5016	14764	139	21	-108	-16056	-372	1552	433	63	4	-16192	2048	-1512	130	4	25	-7048	3812	13728	-24	147	-171	-16808	500	128	373	-334	417	-15588	80	-4864	800	-116	469	128	128	8
-5456	-5048	14840	154	15	-123	-16040	-320	1472	374	176	44	-16192	2168	-1536	133	-8	19	-7116	3852	13928	-63	146	-196	-16628	724	136	471	-446	398	-15560	280	-4740	1021	-74	466	128	128	8
-5516	-5012	14772	216	-12	-94	-15900	-276	1428	342	261	85	-16136	2176	-1800	129	-10	18	-7200	3736	13720	-69	86	-153	-16588	652	228	471	-486	368	-15540	260	-4768	1012	-186	435	127	128	8
-5492	-5028	14812	209	8	-63	-16104	-140	1596	447	324	87	-16136	2192	-1872	103	-5	25	-7096	3792	13836	-109	31	-121	-16592	676	176	491	-475	368	-15580	188	-4748	1037	-136	347	127	128	8
-5468	-5052	14708	227	-4	-118	-16148	36	1356	440	345	114	-15912	2280	-2000	90	10	21	-6952	3652	13736	-97	14	-124	-16816	748	476	463	-471	379	-15712	112	-5004	1101	-138	331	128	128	8
-5532	-5016	14704	237	-28	-94	-16108	32	1228	468	307	60	-15856	2368	-2192	96	8	15	-7072	3804	13796	-41	125	-159	-16932	792	212	352	-384	455	-15708	176	-5144	1077	51	352	128	128	8
-5472	-5000	14812	229	-84	-91	-16052	-4	1164	509	269	114	-15664	2120	-2536	108	8	11	-7076	3712	13876	-24	113	-137	-16868	608	360	458	-511	444	-15552	128	-4972	852	9	395	128	128	8
-5520	-4980	14824	220	-53	-109	-16152	52	1096	428	227	11	-15856	2272	-2504	96	7	12	-7180	3768	13820	-23	93	-146	-16776	636	372	453	-525	476	-15516	176	-4700	686	-158	354	128	128	8
-5516	-5000	14680	184	-72	-105	-16256	132	1124	278	128	-42	-16000	2272	-2880	97	14	12	-7124	3812	13740	-27	87	-101	-16540	780	460	459	-471	445	-15600	296	-4636	624	-255	288	128	128	8
-5564	-5056	14868	159	-83	-111	-16144	12	1196	265	16	-70	-15928	2200	-2616	103	12	9	-7036	3884	13764	-4	49	-119	-16752	1084	504	347	-376	405	-15800	136	-4568	563	-101	241	128	127	8
-5512	-4992	14752	166	-123	-143	-16196	0	1172	307	-55	-82	-15976	2176	-2392	103	6	10	-7036	3896	13820	-29	123	-183	-16920	1064	500	301	-340	454	-15972	160	-4596	454	120	224	128	127	8
-5476	-5028	14732	189	-86	-131	-16140	-128	1240	284	-61	-135	-16120	2256	-2120	100	10	5	-7072	3756	13780	-5	140	-154	-16768	756	428	265	-295	342	-15932	8	-4496	286	176	199	128	127	8
-5524	-5024	14700	128	-83	-125	-16068	-92	1256	190	-83	-88	-16072	2328	-1984	78	8	1	-7152	3772	13764	-30	146	-156	-16572	948	644	284	-249	327	-15808	104	-4312	168	153	116	127	127	8
-5508	-5048	14816	171	-78	-129	-16092	-68	1332	39	-116	-89	-16104	2328	-2176	39	15	-4	-7132	3728	13720	-70	89	-131	-16556	1052	620	207	-157	217	-15880	172	-3972	-12	53	49	127	128	8
-5440	-4976	14664	171	-80	-123	-16184	-132	1244	-143	-146	-120	-16072	2408	-2152	1	16	-8	-7088	3872	13792	-140	45	-121	-16572	1308	688	53	38	32	-16124	164	-3900	-561	-22	-89	128	127	8
-5492	-5016	14928	167	-89	-146	-16068	-184	1284	-203	-115	-82	-16216	2184	-2056	-32	19	-16	-6776	3920	13864	-112	141	-187	-16824	1496	912	-129	207	-150	-16208	36	-4324	-824	-84	-166	127	127	8
-5412	-5056	14796	135	-76	-88	-16096	-164	1404	-242	-113	-37	-16208	2144	-2224	-63	9	-31	-7124	3764	13884	-137	210	-226	-16960	744	440	-162	315	-251	-16004	152	-4552	-980	133	-237	127	127	8
-5488	-5020	14848	139	-88	-107	-16220	-88	1304	-288	-102	-42	-15976	2064	-2128	-75	-8	-34	-7108	3808	13808	-189	193	-236	-16580	848	488	-93	173	-230	-15656	100	-4964	-1295	13	-283	127	127	8
-5512	-5132	14780	151	-83	-103	-16104	-88	1236	-410	-165	-81	-15912	2240	-2176	-86	-24	-38	-7160	3776	13848	-158	95	-225	-16464	848	528	-174	300	-293	-15504	-104	-4724	-1304	-383	-295	127	127	8
-5512	-5020	14756	113	-9	-110	-16164	-56	1084	-490	-213	-115	-15864	2024	-2456	-90	-30	-34	-7060	3760	13752	-165	61	-184	-16608	772	588	-252	412	-341	-15652	-260	-5004	-1345	-571	-299	128	127	8
-5452	-5060	14744	116	-62	-128	-16104	20	1228	-437	-242	-133	-15912	2016	-2624	-78	-30	-33	-6968	3824	13748	-157	125	-195	-16852	744	608	-237	370	-245	-15620	-260	-5400	-1400	-496	-194	128	127	8
-5556	-5048	14804	129	-19	-131	-16160	-36	1268	-291	-275	-150	-15888	1840	-2384	-44	-35	-20	-6932	3864	13828	-114	192	-218	-17004	424	352	-163	342	-188	-15528	-76	-5952	-1539	-510	-41	128	127	8
-5492	-5056	14716	95	-60	-108	-16116	-40	1240	-252	-328	-110	-15784	1912	-2336	-17	-26	-12	-7108	3800	13816	-109	201	-235	-16848	396	152	-27	164	17	-15304	76	-5552	-938	-539	83	128	127	8
-5472	-5076	14804	80	-85	-137	-16144	-144	1356	-257	-395	-173	-15848	2056	-2448	10	-28	-7	-7168	3724	13824	-85	157	-179	-16512	328	276	42	95	177	-15160	148	-5440	-666	-483	129	128	127	8
-5508	-4952	14800	95	-76	-127	-16064	-132	1448	-205	-410	-124	-15840	2168	-2064	14	-30	-2	-7132	3788	13716	-46	76	-146	-16644	516	180	117	28	281	-15420	176	-5388	-815	-641	54	128	127	8
-5508	-5012	14800	128	-98	-141	-16140	-52	1404	-271	-417	-192	-16072	2208	-2096	7	-23	5	-6956	3860	13772	-15	72	-132	-16888	868	448	63	2	375	-15608	308	-5180	-753	-642	77	128	127	8
-5464	-5072	14880	138	-82	-119	-16096	-96	1476	-198	-427	-147	-16048	2200	-2112	25	-10	4	-7096	3768	13924	-13	150	-179	-16960	688	288	-1	-55	386	-15888	228	-5140	-722	-516	95	128	127	8
-5448	-5064	14776	127	-106	-153	-16100	-232	1556	-50	-377	-218	-16112	2208	-1960	39	-16	1	-7144	3780	13824	-9	121	-145	-16716	524	92	147	-147	434	-15804	292	-5052	-842	-798	-69	127	127	8
-5480	-5108	14812	117	-60	-146	-16136	-180	1644	-23	-316	-232	-16080	2272	-1776	45	-17	0	-7172	3812	13936	-44	98	-175	-16648	780	228	168	-211	463	-15560	272	-4556	-624	-839	-128	127	128	8
-5444	-5032	14756	128	-27	-155	-16088	-212	1536	7	-274	-208	-16224	2264	-1696	51	-21	-5	-7072	3880	13712	-79	15	-137	-16528	816	292	149	-190	362	-15808	216	-4376	-581	-974	-216	127	127	8
-5456	-5012	14804	133	-58	-160	-16032	-220	1572	37	-168	-166	-16200	2304	-1744	52	-20	-4	-7040	3848	13796	-111	-10	-115	-16684	828	364	122	-167	324	-16648	292	-4816	-1261	-1474	-543	127	128	8
-5452	-5072	14900	112	-36	-98	-16060	-172	1508	43	-106	-144	-16072	2128	-1960	44	-17	-4	-7212	3868	13768	-212	-106	-109	-16604	836	268	107	-131	196	-16348	112	-4184	-1193	-2546	-984	127	127	8
-5452	-5044	14764	121	-45	-147	-16164	-212	1480	80	-88	-142	-16024	2152	-2144	58	-13	-5	-6912	3920	13740	-175	-106	-101	-16772	1160	572	114	-100	128	-15748	-56	-3760	-847	-2617	-911	127	128	8
-5464	-5088	14768	147	-36	-142	-16220	-128	1388	145	-94	-181	-15960	1976	-2096	69	-10	-6	-6912	3960	13656	-188	4	-167	-16924	1056	464	68	-113	82	-15908	-84	-4420	-743	-2538	-808	127	127	8
-5416	-5044	14852	107	-43	-120	-16140	-212	1340	167	-138	-160	-16008	2128	-2272	73	-18	3	-7084	3744	13732	-166	38	-188	-16880	556	328	152	-117	17	-15884	-120	-4268	-251	-2765	-721	127	128	8
-5444	-5000	14884	160	-91	-109	-16100	-288	1416	140	-105	-145	-16080	2080	-1984	83	-22	-3	-7092	3812	13752	-182	41	-152	-16628	832	388	227	-162	43	-15320	-104	-3920	-67	-2360	-443	127	127	8
-5512	-5040	14804	122	-11	-145	-16124	-200	1376	95	-98	-138	-15992	2000	-1928	64	-21	5	-7064	3784	13824	-126	6	-164	-16616	772	356	163	-148	1	-15364	-216	-3968	14	-1881	-185	127	127	8
-5464	-5080	14820	113	-8	-94	-16120	-132	1428	-11	-120	-119	-15936	2032	-1960	63	-17	3	-6928	3848	13844	-128	45	-177	-16852	888	432	234	-94	32	-15528	-156	-4168	168	-1460	-50	127	127	8
-5456	-5012	14816	102	-35	-124	-16096	-252	1484	8	-113	-79	-15952	2168	-1832	48	-7	-2	-6932	3784	13808	-113	165	-209	-16868	708	348	86	-6	73	-15328	20	-4432	442	-937	111	127	127	8
-5416	-5036	14772	144	-54	-110	-16172	-132	1436	37	-118	-24	-15944	2120	-2088	46	-10	-3	-7060	3772	13792	-50	197	-234	-16796	356	260	294	-175	189	-15644	52	-4568	499	-413	205	127	128	8
-5500	-5028	14920	118	-10	-161	-16112	-188	1464	1	-80	-100	-15936	2176	-1992	37	-6	4	-7160	3828	13864	-3	190	-211	-16704	480	344	328	-226	317	-15464	80	-4444	471	-217	214	127	127	8
-5468	-4968	14864	115	-70	-135	-16124	-128	1420	43	-94	-82	-16048	1960	-2048	41	-1	6	-7096	3808	13824	-19	176	-159	-16744	612	444	236	-288	394	-15728	160	-4168	377	18	172	127	128	8
-5492	-5048	14756	132	-46	-127	-16104	-140	1496	98	-103	-155	-15824	2152	-2408	58	11	8	-7084	3900	13804	4	155	-166	-16676	748	448	191	-267	439	-15772	-12	-4140	209	83	216	127	128	8
-5528	-5036	14848	124	-80	-165	-16136	-136	1404	127	-133	-116	-15824	2120	-1944	54	19	9	-6996	3808	13824	15	170	-204	-16788	772	500	219	-243	409	-15900	-52	-3984	130	187	231	127	127	8
-5456	-5032	14876	115	-103	-129	-16236	-188	1480	95	-129	-144	-16096	2208	-1912	64	19	3	-7028	3732	13764	-31	161	-170	-16700	792	420	286	-243	448	-15888	-196	-3940	174	231	262	127	128	8
-5504	-4968	14748	116	-56	-118	-16092	-180	1380	58	-134	-154	-16112	2144	-1984	67	21	1	-6980	3872	13832	1	202	-158	-16768	908	532	304	-282	457	-16048	-72	-4064	320	283	181	127	127	8
-5508	-4940	14752	104	-49	-137	-16104	-308	1388	109	-111	-111	-16024	1912	-2264	71	23	7	-7076	3736	13844	-25	179	-179	-16772	696	528	267	-286	391	-15904	-280	-3872	322	100	172	127	127	8
-5484	-5020	14740	117	-63	-166	-16136	-284	1484	228	-147	-110	-16112	1928	-2096	69	23	12	-7116	3848	13832	1	144	-179	-16500	828	464	280	-237	387	-16276	-388	-3844	76	-282	186	127	127	8
-5504	-4996	14860	138	-56	-115	-16120	-252	1380	89	-147	-56	-16112	1992	-2000	69	14	19	-7108	3816	13828	-43	65	-134	-16552	920	492	393	-213	275	-16196	-280	-3496	159	-635	79	127	127	8
-5504	-4948	14896	127	-74	-142	-16112	-368	1388	95	-111	-39	-16088	1992	-2016	69	12	24	-7004	3864	13788	-37	138	-143	-16732	1240	696	265	-110	241	-16048	-240	-3684	210	-490	145	127	126	8
-5464	-5028	14824	154	-1	-92	-16112	-376	1396	166	-122	-50	-16152	2152	-1824	70	4	21	-7060	3908	13772	-51	212	-196	-16904	960	560	187	-42	134	-16004	-252	-3672	205	-448	153	127	127	8
-5424	-5032	14796	187	-46	-111	-16152	-296	1428	112	-102	-4	-16112	2056	-1960	65	3	16	-7048	3744	13812	0	219	-202	-16648	684	520	261	-51	145	-16008	-160	-4044	328	-531	202	127	127	8
-5544	-5008	14784	168	-55	-115	-16112	-276	1392	120	-87	55	-16040	2208	-2072	60	-1	20	-7120	3796	13876	-39	188	-216	-16680	824	516	309	-47	165	-15852	-76	-3868	249	-628	139	127	127	8
-5484	-4984	14864	180	-27	-132	-16128	-156	1328	36	-97	27	-15944	2264	-2104	47	2	21	-7036	3808	13692	-37	142	-170	-16548	892	380	187	-27	140	-15648	-160	-3784	77	-596	195	127	126	8
-5460	-5068	14700	183	-16	-111	-16096	-140	1364	-36	-137	35	-15936	2184	-2360	32	4	18	-6988	3860	13764	-57	140	-168	-16704	908	664	199	-10	116	-15868	-216	-4172	85	-438	293	127	127	8
-5460	-5004	14804	146	-77	-142	-16104	-216	1392	-10	-184	15	-15928	2248	-1952	30	-1	19	-7048	3928	13820	-65	236	-246	-16924	740	336	152	48	154	-16032	-8	-4212	278	-432	235	127	126	8
-5476	-5040	14844	160	-87	-115	-16128	-176	1412	-12	-229	-18	-15832	2152	-2272	28	-5	18	-7028	3860	13736	-52	206	-230	-16752	796	512	264	-87	196	-15636	108	-4196	170	-374	217	126	127	8
-5448	-5032	14792	125	-91	-116	-16056	-128	1476	-94	-245	-40	-16072	2256	-2264	20	-10	14	-7132	3788	13836	-50	171	-174	-16592	716	500	137	-15	247	-15588	-84	-3964	79	-235	275	126	126	8
-5452	-5016	14828	134	-70	-148	-16116	-212	1464	-160	-268	-62	-16000	2376	-2120	19	-12	8	-7180	3852	13808	-78	118	-180	-16596	808	536	148	32	190	-15840	-68	-3884	-99	-193	233	126	127	8
-5448	-5044	14864	128	-60	-146	-16060	-136	1564	-175	-236	-63	-16144	2488	-1928	7	-2	1	-7112	3844	13732	-95	66	-162	-16680	964	544	94	18	204	-16084	-80	-3804	-283	-274	141	126	125	8
-5472	-5036	14796	120	-85	-130	-16072	-132	1408	-214	-255	-95	-16136	2448	-2064	-4	-6	-7	-6956	3904	13752	-153	82	-163	-16744	1072	756	-7	131	141	-15864	-20	-3680	-293	-260	168	126	126	8
-5460	-4996	14792	112	-34	-161	-16120	-132	1452	-260	-247	-155	-15944	2280	-2120	-19	-5	-18	-6948	3896	13904	-86	135	-190	-16800	956	636	-166	179	52	-15960	-32	-3964	-309	-81	196	125	125	8
-5428	-5000	14752	88	-59	-138	-16156	-180	1480	-318	-248	-144	-16256	2496	-2144	-39	-12	-28	-7012	3876	13816	-96	147	-186	-16792	708	388	-65	104	65	-16052	-88	-3908	-329	-50	152	125	125	8
-5504	-5056	14776	94	-83	-121	-16128	-132	1408	-356	-250	-155	-15992	2416	-2072	-52	-20	-33	-7172	3848	13880	-146	112	-191	-16624	892	384	-54	106	78	-15664	20	-3816	-498	-208	123	125	125	8
-5484	-4992	14744	90	-35	-129	-16140	-176	1388	-467	-269	-173	-15888	2360	-2096	-53	-23	-40	-7088	3832	13828	-198	17	-188	-16496	752	420	-133	104	43	-15820	-156	-3868	-574	-223	93	124	125	8
-5488	-5080	14804	120	-72	-114	-16060	-132	1436	-400	-307	-208	-16112	2104	-2216	-64	-25	-38	-7112	3812	13804	-198	-30	-168	-16628	776	416	-122	150	23	-15864	-180	-3920	-525	-326	41	124	124	8
-5440	-5036	14756	39	-79	-135	-16096	-168	1444	-393	-287	-216	-15952	2032	-1992	-55	-29	-40	-7080	3820	13776	-212	-106	-121	-16652	668	416	-39	83	-40	-16072	-280	-3584	-491	-411	-20	124	124	8
-5496	-5076	14756	73	-51	-111	-16104	-264	1524	-286	-307	-180	-16024	1992	-1984	-37	-27	-39	-7072	3852	13860	-250	-177	-92	-16628	968	504	43	118	-91	-16032	-252	-3420	-446	-518	17	123	123	8
-5464	-4992	14784	83	-106	-108	-16088	-232	1536	-308	-274	-230	-16048	2152	-1944	-31	-35	-34	-6804	3948	13728	-235	-123	-129	-16788	1356	784	-129	249	-157	-16140	-172	-3712	-273	-453	103	123	124	8
-5524	-4992	14776	71	-51	-109	-16084	-320	1544	-302	-250	-159	-16152	1984	-1920	-23	-43	-32	-6860	3912	13712	-225	86	-251	-16968	936	312	-382	396	-240	-16144	-192	-4048	-334	-434	135	123	123	8
-5396	-5060	14880	94	-18	-114	-16028	-356	1524	-253	-263	-118	-16136	1912	-1832	-12	-39	-35	-7108	3808	13784	-161	138	-230	-16840	564	324	-277	261	-194	-15740	-36	-4124	-244	-420	210	123	123	8
-5456	-5084	14804	122	-49	-71	-16040	-352	1388	-268	-237	-100	-15984	2064	-1840	-31	-34	-31	-7120	3720	13684	-99	108	-203	-16672	492	388	-124	184	-41	-15592	104	-4128	-155	-224	214	122	123	8
-5544	-5004	14824	83	30	-130	-16080	-292	1660	-341	-209	-105	-16064	2080	-1864	-46	-28	-23	-6996	3828	13780	-143	79	-220	-16724	628	332	-165	210	27	-15696	260	-4508	-159	-79	125	122	123	8
-5480	-5032	14756	107	2	-104	-16060	-388	1516	-379	-200	-87	-16040	2112	-1816	-58	-19	-21	-6948	3748	13796	-101	155	-192	-16868	664	352	-191	82	142	-15684	124	-4608	-247	155	156	121	122	8
-5456	-5052	14876	90	-7	-127	-16092	-384	1812	-226	-147	-98	-16040	2096	-1568	-51	-10	-18	-6872	3692	13796	-108	153	-212	-16940	604	444	-201	55	298	-15584	72	-4888	-157	414	234	121	122	8
-5380	-5056	14768	93	-10	-72	-16100	-324	1584	-153	-152	-79	-16088	2016	-1800	-34	-3	-21	-7152	3540	13924	-82	206	-252	-16792	104	72	-125	-114	367	-15720	-88	-4276	-189	553	303	120	122	8
-5404	-5076	14892	94	73	-72	-16060	-360	1724	-6	-120	-64	-16008	2080	-1840	-14	9	-17	-7128	3788	13864	-64	177	-179	-16612	576	320	119	-222	554	-15672	-228	-4392	-146	543	206	121	122	8
-5516	-5104	14836	89	102	-67	-16024	-264	1540	64	-137	-61	-16024	1896	-1960	3	17	-7	-7072	3840	13844	-1	144	-189	-16676	680	404	80	-152	569	-15696	-148	-4036	-68	607	308	120	122	8
-5456	-5036	14904	43	32	-123	-16068	-276	1604	181	-107	-49	-16248	1880	-2088	41	22	1	-7132	3788	13844	-21	92	-160	-16632	668	300	128	-231	569	-15776	-328	-3744	53	671	428	120	122	8
-5432	-4984	14736	65	81	-97	-16148	-340	1576	372	-23	-94	-16120	1928	-2032	61	26	7	-7008	3872	13800	-7	87	-108	-16620	964	404	142	-152	497	-15696	-444	-3420	439	879	573	120	122	8
-5508	-5068	14712	84	71	-106	-16108	-348	1532	258	-42	-53	-16032	1832	-1936	83	24	12	-6832	3820	13748	-10	121	-129	-16708	1084	556	243	-136	395	-15356	-356	-3460	1034	1553	860	120	122	8
-5492	-5072	14816	80	47	-106	-16112	-392	1516	405	-39	-43	-16144	1912	-1944	104	20	14	-6952	3824	13840	-13	200	-214	-16740	908	444	229	-40	296	-15656	-320	-3400	1839	2715	1355	119	122	8
-5548	-5024	14756	130	16	-78	-15984	-376	1428	352	-1	16	-16152	2104	-1512	103	8	19	-6988	3760	13760	-69	159	-182	-16612	856	572	309	-136	245	-15924	-208	-3784	2166	3106	1537	119	123	8
-5524	-5016	14756	143	35	-95	-15964	-300	1620	236	11	9	-16168	2160	-1456	79	-2	10	-7024	3844	13840	-70	122	-158	-16564	948	604	334	-123	276	-16072	-8	-4064	2111	2452	1423	119	123	8
-5504	-5096	14776	157	-26	-70	-15972	-336	1516	96	21	-5	-16248	2344	-1648	50	1	7	-7092	3800	13840	-142	80	-174	-16716	984	464	276	40	79	-16580	268	-4492	1758	1363	1106	119	123	8
-5568	-4992	14748	197	28	-83	-16108	-280	1580	-1	40	24	-15992	2336	-1880	18	7	3	-6976	3852	13764	-122	101	-178	-16776	1020	520	284	74	57	-16240	200	-4780	1425	352	750	119	123	8
-5540	-5056	14744	136	-20	-68	-16116	-240	1584	-5	35	14	-15904	2400	-2048	6	17	1	-7004	3740	13784	-112	167	-224	-16912	892	456	72	94	28	-15800	220	-4900	1273	126	699	119	123	8
-5576	-5088	14784	126	-29	-72	-16036	-168	1488	-33	43	-22	-16024	2000	-2168	6	8	-5	-7112	3692	13780	-102	192	-196	-16844	504	276	75	29	112	-15808	120	-4856	1255	201	718	120	123	8
-5452	-5092	14740	164	-34	-112	-16104	-180	1392	-75	-8	-30	-15888	2240	-2056	6	7	-10	-7024	3736	13816	-74	130	-200	-16692	620	356	187	-125	215	-15748	456	-5256	913	460	267	120	123	8
-5556	-5036	14832	140	-66	-117	-16024	-196	1452	-73	6	-37	-15776	2088	-2064	23	-2	-11	-7096	3796	13800	-54	136	-188	-16668	692	368	131	-129	257	-15864	504	-5048	169	169	74	120	124	8
-5548	-5052	14836	183	-97	-117	-16044	-140	1232	-77	-35	-31	-16088	2000	-2152	31	-6	-6	-6984	3816	13740	-82	46	-170	-16756	924	412	190	-139	218	-15820	260	-4508	-155	-321	82	121	124	8
-5504	-5100	14780	149	-68	-98	-16052	-260	1492	-90	-23	-55	-15968	1896	-1808	52	-8	-5	-6892	3760	13712	-85	136	-194	-16820	1068	464	73	-58	190	-15760	-72	-4424	-146	-76	132	121	124	8
-5496	-5076	14868	152	-91	-134	-16084	-284	1480	-2	-15	-35	-16080	1872	-1752	67	-9	-1	-7064	3736	13776	-56	192	-191	-16812	668	392	27	-62	176	-15984	-112	-4772	-184	-11	136	121	124	8
-5460	-5064	14736	180	-98	-143	-16092	-284	1552	106	1	-29	-15960	2088	-1712	72	-8	3	-7044	3780	13720	-67	146	-185	-16664	640	208	238	-144	249	-15932	-64	-4880	-593	-75	24	122	124	8
-5504	-5076	14752	174	-80	-114	-16108	-360	1592	92	-11	-42	-16064	2072	-1992	70	-1	9	-7056	3792	13800	-46	123	-192	-16776	792	396	311	-218	244	-16152	148	-5060	-1194	-646	-202	122	125	8
-5528	-5060	14748	175	-90	-110	-16116	-328	1524	61	44	-18	-16168	2208	-1888	73	-5	11	-7068	3848	13920	-118	89	-153	-16668	1016	448	258	-175	169	-16608	308	-4752	-1441	-1324	-491	122	125	8
-5504	-4988	14804	140	-90	-106	-16068	-372	1500	102	62	24	-16192	1912	-1928	72	-4	9	-7136	3820	13828	-260	-3	-175	-16732	988	512	165	-159	30	-18384	616	-4948	-2891	-2879	-1394	123	122	8
-5528	-5040	14740	192	-45	-127	-16048	-276	1552	134	75	35	-16072	1736	-1744	67	-7	15	-6976	3916	13760	-350	-4	-155	-16760	1252	612	51	-105	-85	-18268	164	-3920	-2699	-6338	-2613	124	126	8
-5504	-5064	14776	197	-116	-133	-16092	-312	1464	183	116	49	-16032	1984	-2072	77	-4	17	-7032	4048	13876	-371	-9	-157	-16424	1344	584	-65	-40	-343	-13208	-1592	-1904	-2100	-6531	-1553	124	126	8
-5468	-5036	14852	169	-84	-78	-16164	-288	1384	128	101	54	-15872	1944	-2184	87	-17	21	-6848	3800	13880	-283	14	-203	-16500	796	608	28	58	-458	-14432	-504	-3424	-567	-2604	9	125	128	8
-5484	-5056	14768	167	-50	-100	-16036	-192	1372	118	48	57	-15912	2112	-2240	87	-22	22	-6912	3832	13856	-257	99	-291	-17032	444	272	291	-56	-358	-15568	-688	-4924	430	-1870	-31	126	130	8
-5500	-5084	14820	213	-83	-118	-16104	-152	1556	140	51	34	-15888	2032	-2232	80	-10	29	-7004	3684	13772	-187	208	-254	-17156	100	200	420	-98	-87	-15176	80	-4656	1438	-950	120	126	129	8
-5528	-5020	14776	138	-85	-115	-16196	-172	1272	175	-58	2	-15880	2032	-2328	86	-10	29	-7060	3704	13900	-11	145	-209	-16736	376	348	545	-350	170	-15228	24	-4568	1335	-381	368	127	130	8
-5516	-5076	14748	194	-64	-114	-16052	-152	1392	128	-129	-11	-16064	2272	-2320	88	-17	31	-7068	3552	13856	122	67	-180	-16600	384	600	542	-279	272	-15512	-216	-4368	1298	-314	334	127	130	8
-5552	-4988	14832	145	-90	-161	-16084	-88	1268	104	-145	-56	-15896	2200	-1880	76	-17	29	-6964	3792	14008	281	96	-176	-16780	564	632	516	-231	356	-15876	84	-4336	1037	-243	278	128	131	8
-5528	-4992	14776	155	-77	-129	-16172	-140	1392	44	-169	-98	-15944	2232	-1944	65	-6	21	-6744	3796	13708	228	255	-164	-17032	864	676	356	-280	469	-15628	448	-4368	559	-49	238	129	130	8
-5500	-4968	14756	130	-122	-153	-16144	-112	1324	104	-232	-151	-15760	2240	-1680	65	15	14	-6980	3816	13892	143	301	-194	-16820	688	248	-159	-167	531	-15568	356	-4104	9	288	195	129	130	8
-5548	-4980	14804	108	-79	-149	-16096	-120	1524	65	-249	-217	-15936	2288	-1920	54	26	4	-7104	3708	13760	194	264	-205	-16648	552	404	-66	-288	623	-15524	-40	-3836	-286	510	255	130	130	8
-5456	-5020	14876	73	-87	-183	-16092	-192	1560	6	-237	-218	-15992	2432	-2184	35	28	-2	-6952	3656	13760	245	284	-180	-16704	888	504	77	-214	703	-15928	-196	-3688	-357	626	254	131	130	8
-5460	-5020	14840	115	-139	-150	-16104	-220	1576	-40	-262	-191	-16176	2280	-1864	23	27	-11	-7056	3684	13784	164	250	-163	-16700	1088	636	-41	-144	618	-16156	-152	-3300	-509	528	177	131	131	8
-5540	-5112	14828	76	-132	-117	-16080	-356	1544	-32	-226	-187	-16208	2200	-1752	1	26	-18	-6968	3684	13752	196	279	-147	-16524	1200	608	-156	1	468	-16008	-116	-3260	-491	545	208	132	131	8
-5444	-5040	14844	133	-114	-68	-16120	-316	1620	-110	-204	-141	-16168	2056	-1944	-10	16	-22	-6988	3512	13744	127	237	-160	-16600	1188	584	38	22	297	-16020	-424	-3148	-324	390	283	133	131	8
-5448	-5144	14720	146	-80	-76	-16092	-340	1624	-124	-199	-149	-16160	2024	-1840	-30	1	-18	-6984	3748	13672	-116	298	-183	-16612	1448	236	207	138	163	-15940	-192	-3220	226	378	310	133	131	8
-5432	-4912	14772	202	-118	-35	-16128	-392	1588	-145	-161	-144	-16072	1904	-1984	-38	8	-16	-7040	3836	13676	-342	227	-239	-16552	932	492	68	106	-2	-16280	36	-3420	223	618	427	134	131	8
-5476	-5020	14896	232	-126	-39	-16156	-216	1492	-120	-143	-105	-16144	2096	-1784	-37	13	-15	-7076	4112	13824	-347	167	-239	-16688	920	588	105	109	-106	-16308	-260	-3472	15	184	203	134	132	8
-5440	-5096	14940	245	-234	-52	-16096	-240	1604	-242	-140	-76	-16024	2192	-2248	-36	5	-14	-6972	4020	13856	-340	107	-201	-16640	1024	708	66	217	-183	-16120	-308	-3564	-71	-47	191	135	131	8
-5496	-5004	15428	646	-281	-15	-16120	-380	1868	-267	-148	-72	-16080	2304	-2000	-33	3	-20	-6964	4000	13888	-303	87	-237	-16696	840	636	-55	294	-188	-16080	-40	-3992	-283	-266	127	135	132	8
-5468	-4868	14788	290	-112	-24	-16032	-364	1436	-114	-101	-88	-16088	2160	-1728	-24	-7	-29	-6992	3868	13836	-181	133	-260	-16804	872	344	-297	337	-232	-15692	60	-4272	-427	-55	176	135	132	8
-5604	-4956	14856	268	-108	-54	-16072	-184	1360	-205	-115	-121	-16008	2304	-1864	-35	-6	-30	-7144	3788	13812	-147	47	-228	-16824	628	460	-360	254	-151	-15828	136	-4268	-690	-62	119	136	133	8
-5476	-4964	14752	146	-31	-112	-15964	-312	1492	-330	-126	-105	-16024	2152	-1960	-50	-1	-33	-7160	3832	13948	-219	34	-220	-16616	508	300	-269	257	-102	-15756	-16	-4108	-708	-137	33	136	132	8
-5512	-4940	14608	73	-29	-112	-15992	-364	1700	-294	-122	-112	-16080	2080	-2104	-60	-6	-37	-7164	3840	13856	-199	-33	-202	-16716	684	252	-97	138	-76	-15860	-48	-4244	-719	-339	-63	137	133	8
-5560	-4932	14844	-21	21	-164	-16032	-284	1484	-312	-164	-67	-16032	2096	-1744	-62	-21	-39	-7068	3776	13840	-222	-59	-149	-16660	728	360	-174	211	-51	-15760	-212	-3928	-638	-325	-3	137	133	8
-5660	-4820	14816	-101	47	-190	-16136	-232	1508	-438	-191	-89	-15952	2048	-1976	-59	-24	-35	-6940	3896	13788	-242	25	-182	-16752	900	484	-123	102	-55	-16044	-284	-4128	-446	-155	32	137	133	8
-5484	-4992	14804	-225	169	-206	-15984	-288	1512	-578	-212	-68	-15936	1984	-1992	-60	-20	-29	-7016	3776	13856	-239	81	-228	-16852	568	380	-95	115	-62	-16128	-48	-4024	-409	-441	-43	137	134	8
-5496	-5108	14824	-158	308	-177	-16040	-484	1492	-561	-220	-88	-16080	1768	-2208	-51	-23	-32	-7056	3752	13844	-199	70	-185	-16628	800	456	-55	71	-74	-15828	-88	-3804	-407	-635	39	138	133	8
-5444	-5036	14692	-14	102	-175	-16156	-224	1632	-413	-157	-89	-16216	2048	-1824	-29	-23	-30	-6980	3712	13844	-204	12	-168	-16528	756	360	-29	84	-102	-15924	-364	-3684	-432	-703	96	138	131	8
-5356	-5164	14848	99	-24	-135	-16164	-196	1664	-361	-153	-87	-16112	2152	-1952	-25	-12	-16	-7028	3740	13896	-246	-28	-171	-16692	612	404	38	94	-206	-15916	-292	-3660	-378	-682	42	138	133	8
-5504	-5056	14804	99	-50	-189	-16040	-468	1676	-189	-170	-154	-16080	1920	-1824	-8	-12	-13	-6964	3712	13868	-222	-77	-126	-16660	816	368	154	148	-284	-16020	-228	-3620	-125	-829	22	138	134	8
-5492	-5172	14792	125	-67	-153	-16048	-412	1616	-8	-77	-63	-16096	1808	-1824	28	-15	-14	-6944	3712	13884	-230	-79	-171	-16628	892	416	97	171	-382	-16080	-184	-3572	-144	-917	44	138	132	8
-5408	-5132	14800	142	-111	-150	-16092	-436	1616	44	-62	-95	-16032	1936	-1912	37	-23	-13	-6856	3748	13860	-265	-24	-200	-16800	764	472	89	180	-458	-16000	-300	-3672	19	-868	54	138	134	8
-5432	-5108	14796	136	-94	-128	-16096	-288	1404	-49	-69	-108	-16024	2056	-1992	34	-19	-12	-6888	3768	13844	-210	21	-206	-16840	768	464	64	216	-435	-15968	-152	-4012	244	-799	129	138	133	8
-5468	-5016	14744	154	-41	-129	-16076	-320	1556	-22	-81	-96	-16096	2104	-1824	28	-18	-8	-6948	3784	13860	-210	65	-225	-16872	524	324	106	188	-482	-15872	-128	-3896	312	-660	120	138	133	8
-5500	-5096	14720	154	-34	-102	-16180	-296	1572	-58	-128	-119	-16000	2160	-2040	12	-10	-7	-6996	3804	13748	-157	128	-200	-16824	504	300	80	162	-363	-15720	-56	-4264	345	-635	170	138	133	8
-5496	-4996	14824	132	-33	-74	-16068	-388	1516	-33	-65	-145	-16048	2104	-1624	14	-7	-10	-6984	3664	13904	-158	97	-216	-16804	312	212	197	86	-299	-15772	60	-4116	348	-541	148	138	132	8
-5456	-5068	14724	153	-4	-107	-16036	-308	1596	32	-72	-146	-15984	2040	-1992	17	-4	-10	-6920	3724	13864	-152	88	-221	-16748	416	180	155	45	-228	-15732	64	-4280	331	-473	139	138	133	8
-5480	-5076	14780	107	-6	-83	-16104	-332	1404	-66	-102	-122	-15992	2000	-1680	8	-3	-9	-6940	3636	13880	-154	121	-200	-16804	400	308	128	41	-126	-15828	108	-4272	247	-352	77	138	132	8
-5472	-5044	14844	95	-27	-121	-16072	-324	1524	-21	-101	-122	-16080	1944	-1688	23	-3	-12	-6872	3744	13824	-141	132	-224	-16920	428	380	73	-27	-12	-15800	-4	-4508	140	-298	122	138	132	8
-5552	-4980	14844	110	-8	-118	-16020	-392	1632	109	-84	-78	-16000	1936	-2088	40	3	-6	-7012	3656	13904	-93	178	-219	-16864	452	328	42	40	12	-15684	-96	-4420	161	-134	205	138	131	8
-5524	-4968	14716	93	-73	-141	-16048	-260	1512	94	-49	-118	-16048	1912	-1704	43	11	-4	-7028	3808	13748	-57	160	-179	-16740	224	188	180	-124	237	-15800	-36	-4292	322	-70	156	137	131	8
-5488	-5032	14776	114	-44	-152	-16100	-336	1572	121	-62	-152	-16072	1952	-1920	57	12	2	-6968	3748	13824	-65	139	-169	-16832	408	200	192	-198	341	-15792	60	-4080	313	30	115	137	131	8
-5536	-5056	14880	109	2	-162	-16108	-364	1492	182	-32	-126	-16088	1864	-1728	76	17	5	-7028	3776	13840	-65	105	-148	-16716	480	168	226	-236	338	-16012	-192	-3912	265	-38	153	137	130	8
-5476	-5056	14740	98	-14	-147	-16060	-384	1564	260	-17	-110	-15984	1848	-1664	85	16	3	-6960	3696	13852	-66	86	-139	-16688	544	412	354	-278	385	-15972	-340	-3708	420	-84	169	136	130	8
-5460	-5032	14820	109	12	-100	-16116	-420	1496	324	13	-109	-16216	1872	-1952	92	17	9	-6948	3756	13916	-45	114	-189	-16808	608	484	409	-269	327	-16016	-244	-3540	633	2	214	136	129	8
-5560	-5060	14836	179	7	-108	-16088	-364	1604	256	34	-39	-16128	1976	-1608	92	19	9	-6736	3744	13836	-15	192	-165	-16864	780	568	334	-289	359	-16168	-168	-3944	715	89	236	136	130	8
-5496	-5032	14824	156	43	-78	-16056	-476	1516	197	46	16	-16200	1984	-1200	84	24	16	-7092	3636	13820	-29	205	-232	-16840	360	268	141	-143	263	-15948	-248	-3588	582	-21	227	136	129	8
-5544	-5056	14816	172	-69	-76	-16048	-436	1564	179	70	25	-16104	2040	-2000	77	14	16	-7036	3824	13908	-55	197	-223	-16504	524	388	321	-243	314	-15988	-224	-3628	531	-70	250	136	129	8
-5488	-5048	14820	199	-5	-98	-16076	-436	1532	238	110	2	-16168	1944	-1880	75	13	16	-7016	3712	13912	-97	118	-151	-16644	608	472	366	-164	256	-15936	-232	-3572	488	-163	239	135	129	8
-5552	-5040	14836	181	-40	-113	-16116	-360	1528	306	124	30	-16096	2048	-1648	77	12	12	-6916	3740	13844	-34	126	-166	-16660	736	364	345	-180	228	-16016	-236	-3656	527	-134	240	135	129	8
-5484	-5020	14812	197	-39	-98	-16108	-316	1416	319	154	19	-16016	1984	-1976	80	16	12	-6892	3732	13872	-53	112	-183	-16712	744	432	296	-132	176	-16100	-248	-3688	532	-127	241	135	129	8
-5556	-5056	14856	147	-18	-89	-16088	-328	1488	277	96	1	-15992	1920	-2176	87	16	13	-7040	3796	13820	-40	215	-226	-16768	476	388	316	-199	185	-15924	-160	-3688	614	-132	208	135	129	8
-5564	-5056	14796	176	-47	-95	-16064	-288	1388	218	62	14	-15944	2184	-2064	79	9	12	-6936	3764	13832	-23	170	-231	-16736	580	468	349	-213	205	-15808	-84	-3920	578	-44	265	134	129	8
-5540	-4960	14876	176	-73	-102	-16116	-288	1468	221	76	16	-15976	2224	-1928	69	4	15	-7016	3732	13848	-44	182	-190	-16724	572	444	261	-144	234	-15888	-268	-3804	520	-26	251	134	129	8
-5512	-5028	14828	186	-100	-115	-16124	-324	1312	106	-36	-7	-16080	2152	-1832	62	7	14	-6960	3760	13888	-53	162	-181	-16708	632	336	268	-125	230	-15948	-164	-3776	516	70	234	134	128	8
-5504	-5048	14824	106	-76	-133	-16120	-260	1444	116	-27	6	-15968	2096	-2104	61	9	9	-7000	3724	13800	-50	170	-206	-16680	604	496	200	-52	203	-16080	-132	-3820	371	174	267	134	127	8
-5528	-5036	14824	129	-28	-139	-16056	-232	1548	130	-52	-64	-16160	1976	-1816	52	18	8	-6980	3780	13824	-50	191	-200	-16632	720	556	138	-27	207	-16136	-104	-3888	169	-167	165	133	128	8
-5500	-5004	14684	142	-95	-116	-16064	-244	1480	92	-54	-49	-16048	2112	-2064	42	12	9	-6904	3776	13904	-46	196	-191	-16800	644	404	114	-94	176	-15888	-120	-3904	120	-86	226	133	128	8
-5548	-5088	14784	159	-54	-130	-16128	-372	1452	25	-43	-26	-16016	1944	-2056	42	8	3	-6980	3732	13788	-49	234	-230	-16836	556	380	128	-93	202	-15936	-292	-4056	189	26	261	133	128	8
-5528	-4992	14788	123	-43	-121	-16108	-416	1424	33	-26	-3	-16168	1960	-2016	51	12	-1	-7112	3696	13896	-80	204	-190	-16752	420	460	165	-127	255	-15916	-156	-3812	197	113	239	132	128	8
-5500	-5064	14856	139	-46	-108	-16120	-336	1608	54	-39	4	-16096	1992	-1800	48	10	5	-7056	3820	13856	-38	194	-203	-16696	660	340	128	-81	293	-15956	-136	-3800	42	33	176	132	127	8
-5492	-5088	14736	166	-48	-150	-16076	-288	1504	84	28	18	-16144	2040	-2096	41	5	3	-7076	3788	13816	-60	166	-206	-16624	684	480	150	-74	224	-16000	-224	-3620	-83	-182	217	132	127	8
-5460	-5068	14736	106	3	-127	-16084	-284	1452	14	15	7	-16096	2184	-1952	34	-1	6	-6960	3864	13800	-94	150	-156	-16596	892	584	123	-30	202	-16000	-368	-3516	-13	-216	215	132	128	8
-5508	-4988	14816	134	-59	-104	-16120	-400	1440	44	-6	45	-15984	2040	-2184	28	2	0	-6924	3692	13880	-43	180	-195	-16840	636	552	95	-17	140	-16000	-316	-3780	151	-172	184	131	127	8
-5528	-5012	14748	139	-66	-114	-16148	-212	1316	46	-12	-4	-15960	2008	-2272	23	-7	-6	-6984	3768	13924	-78	233	-237	-16748	508	468	160	-56	138	-15992	-216	-3868	183	-234	138	131	127	8
-5536	-5036	14780	151	-109	-111	-16056	-168	1252	-63	-68	-15	-16048	2096	-2224	21	-7	0	-7016	3764	13880	-89	144	-190	-16676	576	456	155	-69	155	-15836	-132	-3868	95	-288	218	131	127	8
-5472	-5032	14816	138	-101	-147	-16096	-200	1344	-76	-112	-86	-15880	2072	-2360	19	-8	-3	-6944	3708	13820	-72	99	-173	-16620	660	380	159	-34	118	-15824	-168	-3836	6	-303	229	130	127	8
-5460	-4960	14744	145	-103	-145	-16076	-272	1412	-94	-168	-78	-16032	2056	-2288	23	-8	-1	-6948	3700	13776	-134	97	-179	-16700	576	512	135	-41	120	-16012	-196	-3776	-94	-243	197	130	127	8
-5588	-5056	14832	128	-46	-128	-16056	-356	1376	-103	-192	-97	-16048	2144	-2208	21	-3	0	-6896	3760	13844	-82	119	-181	-16780	772	492	80	21	170	-15960	-148	-4028	-123	-263	157	130	127	8
-5480	-5084	14760	150	-155	-151	-16080	-316	1472	-57	-214	-108	-16176	2088	-2128	22	1	-6	-7016	3788	13888	-64	185	-226	-16840	584	436	-4	82	146	-15924	-136	-3860	-236	-240	146	130	127	8
-5480	-5084	14868	130	-122	-137	-16088	-260	1472	-97	-192	-103	-16000	2168	-1984	23	-18	-13	-7048	3728	13860	-53	143	-219	-16696	436	364	41	13	180	-15836	-128	-3916	-247	-248	137	130	127	8
-5512	-5016	14748	153	-65	-104	-16092	-392	1496	-111	-189	-120	-16128	1896	-2168	14	-20	-11	-7016	3804	13848	-116	120	-205	-16616	620	368	56	-14	175	-15888	-196	-3732	-234	-228	171	130	127	8
-5448	-5052	14664	120	-17	-137	-16092	-260	1428	-200	-139	-114	-16016	2032	-1984	-4	-14	-12	-7004	3784	13992	-92	87	-177	-16692	672	528	62	-13	178	-15980	-268	-3620	-280	-261	179	129	128	8
-5500	-5064	14916	116	-82	-110	-16116	-332	1512	-194	-169	-98	-16072	2000	-1928	-9	-5	-14	-6972	3732	13768	-125	121	-197	-16836	692	588	33	67	164	-16068	-244	-3864	-197	-255	187	129	126	8
-5484	-5028	14764	85	-47	-101	-16096	-292	1456	-117	-176	-94	-16080	2024	-1888	-1	-17	-12	-7016	3780	13928	-103	164	-206	-16784	492	384	-18	90	91	-15904	-140	-3868	-170	-422	152	129	127	8
-5456	-5040	14804	122	-57	-107	-16064	-372	1484	-137	-182	-120	-15856	1840	-1880	5	-25	-12	-7004	3704	13792	-78	185	-201	-16700	532	428	62	0	200	-15756	-152	-4088	-68	-298	227	129	127	8
-5460	-5096	14816	130	-48	-92	-16088	-348	1412	-94	-166	-140	-15992	2032	-1768	9	-18	-6	-7032	3684	13960	-23	168	-186	-16676	468	392	107	25	235	-15792	-132	-4096	-20	-250	183	129	126	8
-5480	-5012	14800	122	-49	-96	-16136	-332	1476	-125	-197	-79	-16064	2080	-2040	11	-21	-5	-7012	3776	13816	-96	132	-153	-16688	540	464	115	-11	278	-15960	-76	-4016	-108	-282	109	128	127	8
-5472	-5032	14816	119	-76	-126	-16056	-216	1344	-118	-235	-156	-15968	1976	-2072	14	-17	-5	-6992	3680	13840	-50	81	-196	-16756	664	328	74	-67	289	-15836	-152	-3932	-207	-297	132	128	126	8
-5492	-5000	14680	108	-61	-132	-16160	-344	1484	-87	-239	-138	-15960	1992	-1864	15	-22	-2	-6904	3772	13868	-32	152	-162	-16820	652	596	34	-28	346	-15852	-200	-4192	-142	-136	228	128	125	8
-5496	-5060	14788	109	-90	-149	-16076	-336	1460	-36	-250	-113	-15992	2000	-2000	35	-15	-4	-7048	3868	13920	-55	277	-271	-16928	492	232	65	-120	420	-16084	-108	-4412	-120	-167	160	128	126	8
-5444	-5016	14728	78	-66	-122	-16044	-356	1456	-47	-218	-122	-16040	2024	-1944	43	-17	-3	-7088	3676	13852	-14	231	-191	-16852	384	428	211	-227	547	-15624	-168	-4224	-74	-153	185	128	126	8
-5496	-5064	14748	119	-13	-134	-16072	-320	1436	-19	-226	-138	-16152	1912	-1664	38	-22	-2	-7156	3724	13876	24	164	-181	-16608	496	280	240	-230	608	-15776	-204	-3912	60	-177	217	128	125	8
-5504	-5028	14788	144	-91	-154	-16104	-328	1496	-78	-190	-101	-16080	1936	-2096	28	-18	4	-7052	3748	13884	-3	112	-155	-16548	572	284	316	-309	637	-16164	-88	-3764	-12	-258	106	128	126	8
-5432	-5060	14796	144	-43	-158	-16072	-304	1620	-29	-233	-157	-16096	1992	-1944	33	-8	4	-7076	3780	13824	-16	41	-136	-16700	780	448	292	-339	666	-16068	-224	-3556	-115	-461	79	128	127	8
-5436	-5048	14908	127	-54	-126	-16208	-376	1528	46	-195	-125	-16144	2008	-2144	49	-12	8	-7024	3796	13960	-68	40	-145	-16676	892	392	218	-315	588	-16124	-256	-3596	-88	-600	151	127	127	8
-5476	-5072	14824	70	-130	-111	-16108	-328	1476	92	-219	-167	-16096	2008	-2232	64	-13	10	-7032	3768	13776	-51	48	-100	-16748	804	528	298	-297	549	-16044	-348	-3700	45	-582	130	127	126	8
-5416	-5096	14784	106	-93	-79	-16112	-320	1516	110	-243	-174	-16016	1928	-1920	65	-11	4	-7060	3800	13848	-63	125	-158	-16764	660	296	351	-353	519	-16012	-200	-3800	183	-611	106	124	126	8
-5428	-5012	14700	105	-4	-58	-16132	-356	1556	136	-268	-246	-16200	1712	-1936	87	-104	1	-6968	3768	13808	-10	111	-142	-16672	736	468	405	-352	572	-16092	-124	-4020	259	-636	91	127	127	8
-5344	-5000	14888	-38	42	-94	-16332	-12	1420	89	-327	-311	-16280	1520	-1536	-114	-162	26	-7000	3776	13836	-21	81	-139	-16664	684	344	420	-437	552	-16024	-28	-3988	242	-750	125	127	126	8
-5168	-5068	14748	-221	56	-52	-16684	-304	1556	-31	-439	-349	-15928	2576	-3152	-28	-118	26	-6972	3760	13876	-54	101	-177	-16800	640	452	526	-490	626	-16276	-60	-4044	278	-784	30	127	127	8
-5572	-5092	14992	-172	260	-8	-16108	200	1132	48	-607	-447	-15480	2704	-3144	48	-132	20	-6960	3880	13892	-85	114	-177	-16796	708	408	623	-570	714	-15944	-24	-4252	324	-917	-50	128	127	8
-5672	-4900	14684	-377	147	-87	-16016	248	1188	-445	-841	-508	-15288	2200	-2704	5	-115	37	-6988	3824	13916	-121	119	-194	-16828	552	336	640	-628	719	-15524	-112	-4240	511	-882	-5	127	125	8
-5664	-4976	14588	-284	9	-185	-15864	-500	1488	-549	-943	-649	-15560	2032	-1936	2	-76	30	-7032	3764	13868	-15	147	-178	-16748	376	596	812	-711	923	-15628	-340	-4340	671	-546	9	127	127	8
-5600	-5208	14744	-143	-3	-217	-15724	-936	1436	-142	-889	-508	-16168	1880	-1320	42	-77	10	-6964	3800	14044	89	160	-128	-16680	676	604	949	-812	1083	-15820	-360	-4040	775	-386	33	127	126	8
-5608	-5132	14728	-80	-84	-230	-15792	-760	1948	-80	-812	-437	-16208	2008	-736	75	-67	-4	-6980	3704	13884	102	153	-110	-16740	760	800	777	-689	1142	-15716	-408	-3516	561	-224	145	127	124	8
-5620	-5080	14740	16	-153	-232	-15816	-848	2148	-202	-634	-325	-16160	1888	-600	94	-2	6	-6908	3788	13692	214	142	-41	-16532	1148	1040	658	-567	1165	-15836	-684	-3120	372	-276	241	127	125	8
-5428	-5104	14544	29	-164	-207	-15876	-1120	2304	-218	-418	-110	-16800	1360	-384	92	34	16	-6936	3836	13836	151	172	-82	-16556	1172	1056	453	-389	1055	-16176	-668	-2664	222	-122	340	127	126	8
-5536	-4936	14480	47	-33	-244	-15972	-1136	2056	-173	-294	34	-16960	1432	-136	104	25	22	-7028	3948	13912	138	156	-50	-16588	1576	892	341	-162	837	-16276	-528	-2232	61	-167	383	126	126	8
-5340	-5440	14804	264	179	-143	-15932	-996	2000	-132	-135	69	-16528	1480	-312	68	35	28	-6892	3908	13844	55	139	-93	-16472	1740	880	83	19	582	-16300	-500	-2136	-37	-254	434	125	126	8
-5416	-5252	14912	307	178	-103	-16260	-724	1828	-58	-61	234	-16672	1664	-1144	28	64	33	-6844	3948	13724	-86	152	-161	-16624	1644	856	-5	148	327	-16380	-448	-2124	-29	-264	443	125	126	8
-5480	-5284	14896	361	68	-97	-16232	-464	1820	-100	-27	333	-16472	2064	-1648	34	57	41	-6932	3856	13824	-89	219	-208	-16748	1288	804	60	254	169	-16276	-484	-2652	335	-394	550	125	125	8
-5432	-5240	14844	352	-72	-86	-16004	-492	1836	-195	41	388	-16128	2024	-1632	34	20	41	-7000	3808	13800	-68	244	-264	-16776	1096	732	185	257	11	-16068	-420	-3092	656	-360	641	125	127	8
-5532	-5208	14660	372	-56	-76	-16012	-520	1696	-46	77	394	-15928	2024	-1864	42	1	44	-7032	3828	13844	-39	197	-224	-16612	1104	684	315	202	-4	-15872	-184	-3316	846	-278	632	125	125	8
-5476	-5172	14864	377	-146	-114	-16080	-288	1604	145	20	419	-15752	2016	-2288	63	5	45	-7000	3736	13848	-30	128	-167	-16564	956	548	312	227	-67	-16008	-220	-3636	705	-406	610	125	125	8
-5520	-5188	14876	350	-159	-70	-16144	-160	1424	70	-36	323	-15840	2176	-2176	69	6	49	-7048	3872	13844	-53	152	-180	-16588	960	676	349	224	-3	-15860	-108	-3740	734	-472	537	125	127	8
-5496	-5144	14784	320	-179	-83	-16112	-152	1460	101	-128	296	-15896	2352	-2208	75	-4	46	-7000	3792	13832	-51	121	-185	-16796	816	540	352	142	34	-15692	32	-3936	618	-360	476	125	124	8
-5488	-5092	14720	291	-160	-99	-16144	-244	1636	28	-140	278	-16088	2368	-2016	80	-11	42	-6968	3924	13888	-111	103	-187	-16740	972	772	316	117	128	-15784	60	-4024	387	-215	469	125	126	8
-5448	-5096	14768	247	-128	-105	-15988	-252	1668	108	-187	201	-16040	2360	-1472	82	-11	41	-6988	3948	13872	-118	73	-185	-16724	968	576	127	129	263	-16032	112	-4024	50	-232	429	125	126	8
-5460	-5064	14788	202	-106	-104	-16044	-312	1756	86	-172	192	-16032	2360	-1808	73	-10	35	-6988	4012	13884	-87	91	-203	-16748	916	620	17	156	267	-15912	12	-3668	-198	-135	386	125	125	8
-5452	-5024	14808	213	-46	-59	-16124	-324	1808	36	-131	178	-16192	2448	-1624	67	-10	27	-6920	3772	13852	-52	89	-168	-16744	908	492	-45	146	326	-15992	-140	-3440	-296	-78	401	125	125	8
-5440	-5092	14912	188	-77	-124	-16036	-388	1816	47	-104	159	-16168	2376	-1456	54	-11	20	-6876	3968	13808	28	107	-172	-16716	1040	612	-57	144	333	-16068	-232	-3384	-251	-41	400	125	125	8
-5480	-5056	14704	225	-89	-60	-16040	-336	1632	-16	-153	189	-16008	2288	-1632	24	-1	13	-6984	3944	13844	207	132	-214	-16692	992	732	28	99	229	-16072	-168	-3304	-157	-83	372	124	125	8
-5480	-5128	14832	209	-66	-68	-16020	-364	1616	-109	-124	149	-16088	2448	-1824	-7	6	11	-6944	3896	13772	37	150	-200	-16744	1224	568	45	99	249	-16000	-44	-3188	-46	-71	331	124	125	8
-5480	-5056	14780	212	-34	-89	-16040	-284	1768	-176	-129	154	-16280	2280	-1624	-20	-4	11	-6980	3776	13752	-2	157	-154	-16556	1224	596	-41	114	144	-15908	-8	-3232	-102	-104	338	124	125	8
-5464	-5092	14892	211	-58	-74	-16000	-276	1708	-186	-131	141	-16048	2240	-1992	-15	-16	9	-7008	3760	13648	-1	157	-205	-16724	1176	552	-20	125	145	-16108	-120	-3484	-125	-167	332	124	125	8
-5528	-5064	14832	211	16	-78	-16104	-236	1788	-118	-88	126	-15912	2336	-2160	-1	-23	8	-7016	3716	13788	-7	143	-191	-16708	1088	576	116	130	93	-16012	-88	-3464	29	-175	318	124	124	8
-5504	-5060	14880	207	-13	-103	-16072	-256	1696	-91	-122	98	-16072	2280	-1768	12	-19	8	-7004	3696	13776	47	170	-170	-16644	1056	528	173	81	138	-15936	-72	-3480	41	-207	352	124	124	8
-5472	-5092	14772	181	-34	-93	-16036	-240	1696	-16	-118	55	-15888	2232	-1568	27	-14	6	-7060	3672	13864	6	82	-141	-16648	1100	408	209	86	69	-15924	-96	-3584	54	-208	326	124	124	8
-5476	-5004	14752	164	-64	-91	-16108	-264	1700	-22	-82	15	-16048	2392	-1712	21	-7	4	-7016	3640	13692	-17	59	-130	-16680	1040	504	242	53	102	-15952	-36	-3572	117	-276	316	123	125	8
-5464	-5104	14916	179	-62	-38	-16084	-240	1628	20	-113	21	-16128	2392	-1872	19	-4	2	-6996	3908	13696	-173	47	-146	-16580	1312	452	306	172	95	-15964	60	-3548	148	-393	323	123	124	8
-5432	-5112	14992	188	-96	-46	-16108	-204	1788	-14	-133	-48	-16160	2344	-1720	28	-11	4	-6916	3880	13712	-303	132	-164	-16784	1232	544	222	49	126	-16016	92	-3724	168	-295	313	123	124	8
-5492	-5116	14972	181	-144	-51	-16048	-224	1632	53	-109	-48	-15944	2432	-1720	34	-11	9	-7016	4120	14036	-284	130	-201	-16896	864	432	212	7	117	-16072	-60	-3724	236	-269	301	123	124	8
-5492	-5056	14940	191	-218	-98	-16156	-228	1624	69	-151	-68	-16128	2256	-1808	47	-7	8	-6976	3948	13860	-153	43	-138	-16724	912	484	336	-35	172	-15984	-116	-3664	310	-279	256	123	122	8
-5400	-5156	14904	235	-276	-58	-16136	-252	1648	145	-145	-87	-16112	2512	-1728	51	-7	6	-6932	3964	13972	-164	42	-187	-16744	1016	552	239	-39	210	-15972	72	-3576	288	-248	241	122	123	8
-5472	-4980	14704	247	-221	-76	-16024	-224	1696	111	-119	-89	-16040	2472	-1576	45	-13	3	-6980	3884	13848	-107	73	-152	-16752	1040	600	164	-39	230	-16052	-20	-3604	194	-274	262	122	123	8
-5440	-4960	14736	309	-202	-52	-16036	-316	1708	35	-110	-91	-15936	2368	-1824	38	-14	0	-6956	3916	13864	-79	95	-148	-16772	980	636	120	-49	229	-15916	-4	-3428	178	-221	245	121	122	8
-5552	-4912	14640	194	-138	-49	-16068	-292	1748	2	-110	-111	-16040	2304	-1752	35	-14	-4	-6976	3936	13920	-39	81	-151	-16676	1032	560	155	-24	229	-15972	0	-3520	147	-215	253	121	122	8
-5548	-4940	14744	195	-92	-44	-16036	-312	1784	-6	-156	-136	-15968	2328	-1864	26	-10	-7	-6944	3896	13896	-127	108	-194	-16708	1160	500	106	-47	251	-16008	140	-3444	-7	-231	175	121	122	8
-5536	-4848	14744	17	30	-136	-16016	-292	1832	-59	-144	-131	-16064	2376	-1752	22	-18	-14	-6940	3884	13892	-114	139	-167	-16732	1032	572	56	-56	258	-15940	-52	-3448	-73	-261	188	120	121	8
-5628	-4884	14752	-52	7	-153	-15976	-312	1824	-242	-170	-151	-16048	2344	-1696	9	-26	-16	-6944	3924	13836	-144	86	-164	-16728	1004	608	52	-57	262	-16068	-44	-3472	-47	-213	177	121	122	8
-5524	-4872	14784	-105	74	-229	-16044	-280	1756	-350	-195	-135	-16088	2280	-1704	-4	-32	-18	-6968	3832	13892	-160	137	-206	-16712	1092	596	0	-42	258	-16020	-8	-3444	-96	-161	144	120	121	8
-5268	-5056	14636	-76	209	-158	-15992	-628	1788	-352	-265	-238	-15984	2280	-1744	-20	-21	-14	-6896	3964	13780	-172	129	-202	-16708	1128	608	-51	-42	230	-16092	-48	-3432	-126	-112	135	120	122	8
-5528	-5028	14836	27	66	-175	-16124	-140	1644	-191	-194	-165	-16192	2240	-1648	-7	-15	-26	-6960	3992	13888	-153	113	-213	-16768	1192	548	-85	-33	241	-16036	80	-3400	-218	-125	124	120	122	8
-5468	-5192	14860	45	4	-156	-16264	-152	1844	-300	-229	-204	-16272	2432	-1728	-26	-7	-19	-6936	3860	13912	-140	144	-255	-16708	1176	544	-182	-12	205	-16052	104	-3460	-324	-147	99	121	122	8
-5536	-5064	14788	81	-62	-182	-16024	-284	1884	-331	-202	-220	-16120	2240	-1696	-26	-20	-20	-7000	3904	13948	-23	107	-237	-16704	908	704	-213	-51	182	-16036	-88	-3340	-445	-141	112	120	122	8
-5452	-4972	14708	136	-83	-150	-16100	-428	1836	-191	-155	-213	-15968	2208	-1640	-7	-22	-31	-6900	3780	13756	-17	121	-239	-16704	1124	676	-230	-27	224	-16068	-112	-3508	-414	-154	32	120	121	8
-5484	-5112	14776	132	-75	-163	-16056	-312	1812	-104	-125	-220	-16104	2208	-1352	7	-26	-34	-6880	3760	13804	-23	131	-247	-16636	1204	464	-286	-35	179	-15940	116	-3500	-391	-141	46	120	123	8
-5472	-5080	14700	149	-47	-137	-16068	-300	1776	-153	-119	-242	-16128	2456	-1592	2	-12	-32	-7004	3708	13764	-154	121	-228	-16712	1188	560	-349	-18	189	-15968	-72	-3584	-533	-151	62	120	121	8
-5476	-5068	14836	108	-68	-152	-16080	-396	1828	-125	-98	-212	-16216	2320	-1456	0	-10	-37	-6936	3664	13804	-116	102	-213	-16624	1012	556	-185	-34	178	-15972	-88	-3488	-431	-109	69	121	123	8
-5440	-5132	14836	96	-32	-160	-16072	-368	1844	-107	-140	-235	-16016	2120	-1576	-6	-6	-31	-7036	3628	13792	-92	92	-174	-16684	1068	472	9	-41	144	-15936	-60	-3436	-277	-220	25	120	122	8
-5504	-5000	14800	104	-62	-140	-16104	-332	1796	-142	-91	-248	-16048	2240	-1472	-9	-7	-34	-6968	3652	13708	-59	144	-126	-16668	1020	492	128	-123	158	-15932	-176	-3348	-154	-179	43	121	121	8
-5528	-5040	14820	69	-63	-168	-15960	-348	1844	-69	-52	-272	-16160	2072	-1512	-11	-6	-24	-6972	3668	13896	-75	94	-167	-16700	1060	568	252	-148	133	-15964	-224	-3412	-22	-179	57	121	122	8
-5548	-5120	14780	47	-57	-177	-16076	-456	1828	-158	-106	-239	-16048	2016	-1776	-5	-9	-21	-6976	3624	13624	-100	111	-122	-16700	1228	620	351	-152	85	-15992	-216	-3308	117	-255	59	121	122	8
-5540	-5044	14756	-26	-189	-150	-16044	-448	1672	-158	-96	-295	-16064	2072	-1464	-1	-12	-25	-6936	4272	13792	-261	174	-169	-16472	1152	744	165	-53	48	-16072	-96	-3112	45	-299	129	121	123	8
-5448	-5056	14904	-36	-79	-183	-16092	-328	1596	-152	-91	-294	-16200	2176	-1696	-3	-9	-24	-6872	4048	13884	-289	181	-234	-16812	952	724	148	-68	59	-16220	-204	-3492	1	-257	66	121	122	8
-5480	-5132	14864	-54	-84	-176	-16052	-432	1824	-277	-137	-333	-16136	2200	-1728	-8	-9	-22	-6892	3864	13984	-188	173	-204	-16840	1036	640	129	11	37	-16080	-256	-3448	-4	-290	90	121	123	8
-5560	-5140	14820	-179	-192	-213	-16048	-528	1860	-270	-85	-299	-16048	1920	-1584	8	-19	-18	-6992	3836	13916	-119	147	-169	-16588	1092	516	73	12	30	-15952	-220	-3552	-86	-313	159	121	123	8
-5504	-5124	14812	-176	-184	-210	-16000	-476	1764	-285	-75	-246	-16248	1944	-1296	23	-22	-22	-6852	3804	13860	-73	71	-164	-16596	968	572	36	45	39	-16024	-104	-3484	-124	-315	131	121	122	8
-5476	-5060	14748	-159	-166	-198	-16084	-596	1952	-400	-85	-218	-16016	2064	-1304	12	-19	-21	-6936	3824	13932	-105	95	-184	-16768	1008	460	-14	27	61	-15976	-92	-3632	-85	-274	126	121	123	8
-5736	-5176	14940	-326	-287	-287	-15944	-512	1892	-608	9	-235	-16232	2048	-1264	-6	-26	-17	-6984	3844	13840	-59	78	-188	-16736	964	520	31	5	106	-15956	-164	-3664	-113	-254	113	122	124	8
-5380	-5224	14712	-315	-258	-284	-16076	-596	1868	-532	66	-129	-16328	2056	-1368	-10	-29	-13	-6908	3848	13708	-88	88	-182	-16684	988	464	107	-45	145	-16016	-160	-3572	10	-257	131	122	123	8
-5416	-5180	14780	-217	-173	-204	-16076	-548	1788	-285	74	-108	-16104	2112	-1256	-5	-21	-12	-6928	3836	13880	-117	79	-185	-16740	956	508	155	-81	145	-15968	-200	-3460	123	-246	167	122	124	8
-5480	-5212	14748	-153	-156	-198	-15996	-524	1676	-234	95	-60	-16080	2072	-1424	0	-22	-13	-6964	3820	13856	-88	123	-178	-16680	1024	676	191	-112	156	-16072	-188	-3528	196	-290	187	122	123	8
-5396	-5180	14704	-166	-201	-175	-16100	-416	1680	-140	117	-63	-16000	2088	-1624	11	-20	-10	-6928	3816	13888	-88	137	-157	-16712	1064	556	163	-73	176	-16060	-256	-3452	294	-281	186	123	124	8
-5400	-5200	14716	-206	-97	-161	-15984	-412	1612	-198	133	-52	-16120	2000	-1728	16	-15	-4	-6964	3832	13972	-132	137	-180	-16704	1040	612	188	-117	214	-15976	-176	-3440	294	-243	217	122	124	8
-5472	-5184	14808	-235	-182	-211	-16076	-460	1804	-288	-3	-82	-16192	2056	-1768	20	-23	-2	-6908	3892	13864	-88	144	-165	-16704	1040	584	200	-96	203	-16044	-128	-3552	231	-271	203	122	125	8
-5536	-5288	14776	-273	-206	-220	-16044	-552	1736	-254	9	-2	-16128	1944	-1728	24	-33	-3	-6932	3820	13776	-62	141	-194	-16672	1108	584	148	-59	207	-16052	-156	-3408	186	-305	224	123	125	8
-5324	-5268	14688	-186	-174	-258	-16060	-540	1920	-184	-31	-17	-16040	2008	-1648	23	-29	-2	-6964	3804	13852	-108	108	-168	-16640	1104	512	182	-85	219	-15984	-176	-3596	175	-228	219	123	125	8
-5304	-5304	14652	5	-126	-173	-16036	-552	1624	-109	-32	-72	-16112	2008	-1568	26	-17	-2	-6976	3848	13812	-99	123	-151	-16692	1000	556	180	-40	196	-16040	-228	-3356	252	-218	211	123	125	8
-5448	-5220	14752	0	-67	-120	-16060	-484	1684	25	-89	-52	-16016	2112	-1432	39	-14	-3	-6932	3844	13816	-71	104	-200	-16624	1008	640	121	-25	222	-15940	-208	-3440	205	-311	247	124	126	8
-5468	-5268	14708	25	-110	-132	-16128	-440	1604	-77	-42	-100	-16032	2176	-1704	32	-13	-4	-6920	3880	13860	-48	100	-201	-16688	1000	576	128	-45	262	-15976	-88	-3456	231	-262	264	124	125	8
-5392	-5240	14736	17	-132	-106	-16040	-464	1608	-55	-97	-66	-16112	2160	-1464	30	-21	2	-6924	3840	13752	-119	142	-150	-16672	1096	596	148	-48	219	-15956	-160	-3536	207	-211	234	124	126	8
-5368	-5252	14712	13	-97	-137	-16088	-476	1796	-31	-91	-93	-15968	2304	-1568	26	-19	-3	-6968	3848	13896	-64	161	-174	-16696	1072	652	117	-24	250	-16024	-144	-3472	131	-158	229	125	127	8
-5512	-5244	14764	23	-89	-140	-16052	-432	1600	-38	-180	-65	-16064	2064	-1544	20	-17	-7	-6896	3832	13884	-104	122	-195	-16692	1148	544	114	-21	215	-16080	-112	-3416	122	-171	230	125	126	8
-5408	-5268	14676	28	-86	-140	-16100	-492	1712	-65	-145	-100	-16112	2112	-1400	18	-15	-5	-6916	3820	13832	-54	146	-197	-16708	1084	596	81	-49	182	-15936	-132	-3424	54	-249	233	125	126	8
-5412	-5292	14776	101	-73	-132	-15960	-532	1848	-61	-183	-91	-16016	2040	-1640	16	-11	-5	-6900	3864	13800	-118	143	-204	-16700	1020	644	88	17	195	-16080	-136	-3380	60	-203	199	125	127	8
-5312	-5252	14796	115	-71	-92	-16056	-540	1680	-153	-148	-106	-16064	2032	-1472	10	-12	-8	-6936	3888	13856	-108	147	-195	-16752	1108	496	73	9	178	-15976	-140	-3444	42	-176	246	126	127	8
-5352	-5280	14876	115	-90	-103	-16076	-544	1884	-84	-164	-92	-16136	2184	-1456	13	-13	-4	-6928	3812	13964	-118	105	-182	-16712	1048	552	88	-17	207	-16120	-120	-3308	45	-181	205	126	127	8
-5372	-5264	14696	132	-98	-127	-16000	-576	1780	1	-107	-61	-16240	2104	-1592	22	-22	-9	-6952	3780	13892	-103	121	-184	-16652	1132	528	96	6	180	-16064	-148	-3344	44	-208	236	127	128	8
-5396	-5316	14776	160	-130	-126	-16068	-508	1788	42	-103	-47	-16136	2048	-1536	28	-19	-12	-6940	3788	13836	-103	137	-209	-16684	1072	604	67	-19	173	-16056	-180	-3440	26	-216	239	127	128	8
-5412	-5300	14828	107	-95	-112	-16028	-504	1756	36	-91	-88	-16144	2080	-1536	31	-15	-10	-6892	3792	13904	-95	129	-195	-16680	1052	584	85	-1	186	-15976	-124	-3468	118	-201	234	127	128	8
-5276	-5240	14744	138	-82	-137	-16004	-476	1596	31	-68	-68	-16000	2120	-1568	22	-5	-9	-6960	3760	13832	-102	159	-176	-16732	1068	548	120	-61	178	-16024	-84	-3452	83	-221	184	127	128	8
-5448	-5296	14816	163	-117	-118	-16016	-464	1756	16	-93	-123	-16048	2048	-1176	22	-5	-8	-6900	3780	13864	-55	128	-167	-16720	1044	452	131	-71	176	-15984	-88	-3384	71	-242	201	127	128	8
-5416	-5280	14724	106	-132	-127	-16004	-528	1728	2	-82	-98	-16112	2008	-1488	31	-14	-8	-6996	3772	13832	-47	151	-200	-16732	1104	588	120	-57	201	-16020	-92	-3468	83	-241	195	128	128	8
-5368	-5296	14748	114	-94	-114	-16068	-536	1772	165	-102	-58	-15888	2000	-1376	46	-15	-7	-6988	3812	13916	-8	172	-170	-16736	1036	460	169	-83	182	-16068	-132	-3428	92	-249	202	128	127	8
-5440	-5236	14752	116	-97	-87	-16004	-536	1600	110	-57	-105	-16136	2128	-1416	47	-11	-1	-6900	3792	13888	-58	148	-166	-16740	1080	572	178	-87	198	-16068	-124	-3504	116	-264	159	128	128	8
-5368	-5324	14724	108	-117	-145	-16012	-560	1760	25	-59	-102	-16160	1960	-1280	49	-5	-6	-6992	3888	13992	-50	138	-163	-16776	1056	680	188	-129	199	-16000	-164	-3396	151	-275	175	128	128	8
-5308	-5288	14676	66	-110	-116	-16072	-484	1804	49	-30	-106	-16168	2072	-1136	51	-10	-3	-6964	3820	13956	-27	158	-165	-16688	1112	596	190	-112	230	-16060	-140	-3264	177	-317	175	128	128	8
-5368	-5312	14712	31	-67	-110	-16008	-528	1844	80	-54	-78	-16208	2120	-1392	48	-9	-1	-7060	3812	13820	-61	112	-207	-16680	1084	472	196	-117	190	-16092	-68	-3396	179	-287	141	128	129	8
-5384	-5328	14736	42	-127	-120	-16036	-512	1932	19	-18	-116	-15992	2048	-1232	41	-16	2	-6860	3788	13844	-61	152	-209	-16708	1160	600	180	-93	200	-16036	-124	-3404	178	-275	200	128	128	8
-5404	-5292	14688	-81	-125	-159	-16096	-504	1884	23	60	-45	-16264	2016	-1448	46	-13	-3	-6908	3824	13920	-70	134	-190	-16740	1048	548	171	-102	197	-16056	-168	-3492	179	-370	204	128	129	8
-5360	-5320	14848	-120	-158	-175	-16040	-452	1792	48	52	-32	-16112	2216	-1320	45	-16	-2	-7008	3800	13840	-83	139	-150	-16704	1072	568	207	-77	205	-15956	-112	-3344	189	-318	166	128	128	8
-5340	-5140	14636	-147	-180	-202	-15992	-476	1636	-41	40	-28	-16152	2032	-1344	49	-20	4	-6952	3848	13832	-73	135	-204	-16668	1140	584	153	-41	254	-16024	-136	-3356	145	-311	158	128	129	8
-5532	-5236	14808	-253	-163	-193	-16144	-320	1468	-76	51	-44	-16144	2064	-1512	31	-8	3	-6888	3816	13852	15	118	-165	-16676	1212	744	68	122	292	-16108	-88	-3272	83	-389	149	128	129	8
-5164	-5392	14640	-223	-183	-185	-16064	-612	1704	-244	-21	-63	-16040	1984	-1608	25	0	2	-6904	3876	13796	55	131	-183	-16752	1076	724	70	173	270	-16096	-236	-3248	69	-376	171	129	128	8
-5380	-5344	14808	-151	-161	-202	-15992	-636	1628	-217	-45	-87	-16248	1992	-1520	27	-9	5	-6924	3808	13840	96	110	-170	-16712	1120	624	30	189	245	-16136	-200	-3224	68	-342	166	128	128	8
-5400	-5412	14916	-183	-203	-223	-16036	-516	1620	-112	-57	-41	-16064	2016	-1536	35	-20	2	-6976	3896	13764	105	104	-162	-16700	1160	708	94	185	195	-16144	-280	-3112	127	-354	147	128	128	8
-5328	-5408	14788	-155	-190	-186	-16136	-552	1752	-179	-50	-72	-16152	2072	-1760	33	-15	4	-7032	3920	13832	127	111	-158	-16704	1236	772	116	175	165	-16084	-224	-3032	19	-491	178	129	129	8
-5304	-5248	14792	-141	-206	-206	-16136	-464	1712	-169	-83	-48	-16360	2000	-1184	39	-20	6	-6860	3852	13856	174	82	-114	-16656	1024	536	56	161	110	-16016	-312	-3272	89	-463	180	129	128	8
-5292	-5252	14784	-173	-165	-196	-16040	-596	1712	-257	-62	-20	-16248	1960	-1016	34	-11	4	-6944	3888	13832	208	119	-127	-16720	1092	668	169	168	40	-16048	-332	-3000	155	-464	176	129	129	8
-5340	-5404	14728	-176	-189	-160	-16016	-696	1780	-233	-65	-25	-16272	1856	-1448	30	-13	3	-6908	3912	13844	103	121	-164	-16680	1060	720	168	128	60	-16140	-176	-3224	290	-400	165	128	129	8
-5232	-5444	14740	-167	-182	-209	-16028	-624	1816	-155	-53	11	-16224	2080	-1344	25	-17	4	-6900	3872	13868	92	125	-174	-16732	1140	616	181	154	1	-15904	-104	-3280	233	-326	232	129	129	8
-5196	-5488	14580	-28	-99	-114	-16020	-644	1816	-234	-65	-15	-16168	1936	-1128	12	-20	5	-6892	3836	13876	27	96	-172	-16704	1088	516	194	39	48	-16084	-236	-3328	275	-279	209	128	129	8
-5264	-5392	14632	98	-91	-103	-15972	-604	1764	-93	-48	-11	-16000	2064	-1480	27	-11	2	-6844	3860	13936	-48	148	-170	-16752	1144	408	224	44	74	-15992	-112	-3352	302	-229	180	128	128	8
-5352	-5480	14720	161	-103	-92	-16044	-560	1508	-75	-43	-10	-16160	2024	-1496	22	-4	0	-6924	3868	13860	-44	150	-186	-16676	1112	472	168	37	27	-15976	-56	-3436	210	-250	239	129	128	8
-5320	-5408	14684	133	-42	-103	-16008	-528	1664	-36	-78	8	-16072	2024	-1352	28	8	1	-6936	3904	13844	-102	122	-182	-16660	1012	564	134	-50	54	-15988	-104	-3248	178	-190	221	129	128	8
-5296	-5444	14688	138	-28	-113	-16084	-448	1724	29	-68	-56	-16120	1912	-1312	26	5	4	-6952	3868	13888	-79	130	-194	-16772	1064	544	180	2	89	-15996	-152	-3308	154	-183	204	129	127	8
-5312	-5432	14764	172	-97	-87	-16040	-460	1620	-22	-83	-26	-16208	1976	-1184	28	0	1	-6964	3952	13920	-110	105	-226	-16760	1040	488	148	-83	89	-16072	-92	-3412	195	-99	211	129	128	8
-5196	-5368	14688	140	-71	-96	-16048	-456	1684	14	-66	-36	-16064	1984	-1288	37	-2	3	-6936	3872	13840	-124	156	-181	-16732	1076	408	161	-72	129	-16068	-148	-3232	164	-109	207	128	128	8
-5260	-5384	14836	159	-30	-131	-16068	-496	1668	101	-72	-8	-16240	2200	-1200	35	2	1	-6936	3888	13912	-209	138	-178	-16732	1056	568	216	-84	104	-16068	-224	-3292	156	-81	245	128	128	8
-5296	-5412	14756	186	-46	-82	-16124	-504	1696	97	-86	-42	-16152	2000	-1408	38	8	2	-6928	3884	13820	-178	134	-180	-16664	1020	548	249	-187	137	-15988	-116	-3296	234	-117	191	129	127	8
-5356	-5488	14772	163	-5	-93	-15968	-528	1668	115	-101	-34	-16088	1896	-1280	37	6	-2	-6916	3876	13932	-146	131	-197	-16700	1156	424	226	-160	106	-15972	-24	-3336	194	-83	164	128	127	8
-5272	-5496	14716	174	-26	-104	-16044	-492	1644	63	-82	-23	-16040	2208	-1568	34	9	0	-6940	3948	13880	-151	103	-175	-16660	1036	536	133	-143	86	-16020	-180	-3320	90	-153	221	128	128	8
-5360	-5436	14828	226	-23	-70	-16060	-416	1700	43	-24	-63	-16064	2184	-1408	28	4	4	-6880	3872	13780	-172	115	-156	-16748	1016	568	156	-117	103	-16008	-188	-3296	145	-149	194	128	127	8
-5324	-5436	14780	196	16	-82	-15988	-540	1760	46	-57	-24	-16128	1952	-1264	27	10	2	-6948	3884	13768	-139	126	-207	-16760	1064	496	221	-140	160	-16084	-212	-3292	218	-60	201	128	128	8
-5340	-5432	14692	166	-40	-103	-16008	-556	1644	7	-28	-9	-16240	1952	-1296	37	7	3	-6976	3872	13896	-121	143	-222	-16744	1148	540	196	-127	125	-16092	-116	-3212	173	-96	179	128	127	8
-5220	-5392	14660	182	20	-102	-16056	-536	1644	23	-70	-51	-16128	2088	-1376	34	12	2	-6976	3876	13952	-175	165	-179	-16700	1108	568	149	-120	105	-16072	-144	-3256	122	-76	182	127	127	8
-5268	-5444	14640	251	22	-88	-16052	-460	1612	30	-87	-40	-16144	2184	-1472	26	12	6	-6940	3880	13940	-154	149	-208	-16732	1048	580	207	-131	96	-16076	-164	-3260	150	-114	204	128	127	8
-5368	-5464	14744	244	42	-116	-16048	-508	1628	-26	-57	-41	-16128	1936	-1600	21	9	6	-7012	3864	13784	-137	134	-222	-16744	1008	572	199	-173	117	-16000	-228	-3340	127	-80	218	127	128	8
-5300	-5396	14640	241	54	-106	-16112	-460	1800	-24	-95	-21	-16208	2048	-1448	26	10	3	-6908	3848	13800	-158	134	-217	-16708	1072	588	195	-134	92	-16100	-144	-3440	175	-142	215	127	127	8
-5308	-5388	14748	198	55	-89	-16072	-424	1748	-20	-79	-72	-16232	2416	-1512	22	3	-1	-6956	3832	13848	-178	151	-193	-16680	976	440	133	-100	96	-16016	-96	-3288	144	-90	185	127	127	8
-5336	-5400	14756	254	20	-89	-16084	-540	1592	-47	-76	-49	-16048	2120	-1336	17	5	1	-6936	3872	13948	-165	124	-199	-16688	1008	428	109	-69	126	-16008	-188	-3388	92	-69	210	127	126	8
-5344	-5292	14800	203	8	-87	-16056	-392	1664	-65	-117	-50	-16008	2248	-1296	14	0	-2	-7024	3836	13836	-154	144	-192	-16748	988	592	122	-91	127	-16080	-168	-3396	94	-102	205	127	126	8
-5308	-5368	14768	226	39	-94	-16044	-452	1572	-60	-122	-58	-16024	2160	-1696	14	-1	-6	-6972	3856	13868	-128	133	-165	-16784	1000	612	167	-109	133	-16036	-152	-3260	91	-124	201	127	127	8
-5352	-5300	14772	170	-22	-110	-16032	-472	1628	-75	-144	-96	-16128	1984	-1352	24	1	-7	-6924	3912	13912	-148	125	-194	-16668	1024	628	155	-124	137	-15984	-68	-3396	54	-54	190	127	127	8
-5308	-5444	14732	164	-53	-114	-16048	-480	1652	40	-83	-64	-16168	2184	-1312	22	3	-4	-6896	3784	13892	-105	120	-183	-16620	1052	560	109	-117	149	-16040	-204	-3400	-4	-51	147	127	126	8
-5316	-5352	14764	147	-58	-126	-16084	-468	1780	9	-127	-71	-16248	2088	-1424	26	0	-7	-6908	3884	13884	-109	128	-177	-16640	1008	464	100	-111	151	-16032	-216	-3216	-30	-98	211	127	126	8
-5340	-5432	14864	89	-41	-122	-16024	-560	1656	-111	-111	-83	-16096	1992	-1336	18	-3	-2	-6884	3868	13852	-114	143	-214	-16704	1088	616	107	-54	141	-16136	-184	-3328	-87	-76	194	127	126	8
-5316	-5380	14776	86	-56	-112	-16024	-584	1832	-90	-113	-49	-16232	1960	-1192	24	-1	-8	-6952	3904	13900	-91	160	-187	-16716	1072	524	97	-40	110	-16152	-216	-3188	-71	-100	202	127	126	8
-5284	-5412	14704	94	-33	-102	-16016	-552	1652	-28	-67	-72	-16128	2168	-1176	16	1	-1	-6988	3828	13872	-110	117	-164	-16680	1008	580	39	3	131	-16128	-240	-3352	-10	-89	158	127	127	8
-5308	-5332	14624	127	-13	-101	-16104	-436	1664	-66	-105	-80	-16136	2088	-1448	10	2	2	-6968	3864	13876	-77	109	-202	-16700	1108	532	65	1	142	-16084	-288	-3232	-56	-123	178	127	126	8
-5412	-5368	14828	67	-99	-133	-15996	-556	1588	-87	-53	-34	-16112	1920	-1472	10	1	-1	-6968	3844	13884	-75	132	-207	-16632	1040	476	106	51	141	-16144	-212	-3268	-43	-130	182	127	126	8
-5288	-5420	14608	77	-58	-138	-16116	-536	1780	-13	-87	-33	-16224	1952	-1296	17	1	-7	-6932	3792	13736	-78	138	-157	-16684	1044	496	79	55	116	-16004	-64	-3332	34	-154	176	127	126	8
-5368	-5384	14716	146	11	-103	-16072	-572	1796	-71	-91	-51	-16128	2176	-1320	22	-5	-4	-6956	3848	13868	-71	130	-202	-16736	1048	576	47	118	120	-16068	-112	-3320	-53	-151	186	127	126	8
-5372	-5356	14728	112	-29	-103	-16132	-464	1648	-64	-99	-49	-16136	2112	-1456	17	-5	0	-6920	3816	13812	-103	137	-172	-16740	968	572	25	73	153	-16016	-156	-3288	-32	-132	210	127	127	8
-5328	-5368	14764	142	-44	-115	-16028	-484	1692	-92	-99	-9	-16088	1904	-1368	18	-3	-2	-6908	3844	13824	-62	132	-189	-16708	1044	564	92	44	137	-16052	-232	-3264	27	-119	217	127	125	8
-5272	-5440	14764	88	-54	-128	-16056	-556	1628	-30	-155	-55	-16120	1992	-1320	18	-1	-4	-7008	3840	13744	-133	120	-190	-16704	992	512	93	62	157	-16016	-148	-3256	75	-89	215	127	127	8
-5276	-5368	14624	114	-40	-139	-16060	-436	1660	-65	-151	-28	-16104	2128	-1312	15	-4	2	-6908	3816	13812	-92	117	-179	-16664	1076	596	68	55	155	-16100	-252	-3308	34	-83	246	127	127	8
-5380	-5300	14724	87	-24	-107	-16088	-516	1628	-169	-116	-43	-16160	2128	-1280	16	0	2	-6936	3844	13824	-94	133	-211	-16672	1032	688	82	39	110	-16100	-232	-3324	9	-181	228	127	127	8
-5336	-5440	14696	78	-95	-128	-16076	-556	1728	-101	-126	-58	-16040	2024	-1232	20	-5	0	-6936	3836	13812	-61	146	-173	-16760	1000	548	78	49	121	-15960	-108	-3464	-6	-138	226	127	126	8
-5280	-5408	14612	86	-15	-119	-16056	-512	1628	-67	-150	-44	-16200	2096	-1344	18	-2	-1	-6876	3808	13904	-70	148	-171	-16664	1016	584	89	22	141	-16052	-88	-3412	-27	-94	197	127	127	8
-5320	-5404	14672	136	-14	-135	-16056	-540	1608	-175	-136	-83	-16120	2096	-1312	8	-5	-2	-6940	3824	13836	-87	136	-199	-16776	1096	584	60	72	125	-16044	-120	-3340	-65	-139	204	128	127	8
-5292	-5396	14632	175	-38	-111	-16028	-572	1664	-167	-142	-33	-16192	2120	-1456	6	1	-1	-6892	3800	13788	-57	172	-180	-16744	1044	528	55	49	98	-15984	-184	-3396	-65	-97	177	127	127	8
-5332	-5400	14688	131	0	-102	-16040	-528	1788	-112	-110	-57	-16080	2032	-1304	8	3	-2	-6952	3880	13868	-77	167	-200	-16716	1020	684	69	37	155	-15968	-144	-3360	-31	-78	223	127	128	8
-5376	-5452	14744	138	-51	-129	-16000	-588	1856	-106	-122	-4	-16040	2112	-1376	11	-6	1	-6912	3856	13804	-84	137	-195	-16668	1024	512	56	52	104	-16104	-168	-3352	-54	-125	218	127	127	8
-5364	-5420	14792	88	-57	-110	-16076	-500	1696	-126	-118	-3	-16224	2080	-1344	17	-9	-1	-6928	3824	13876	-90	123	-186	-16724	1020	604	107	5	120	-16124	-164	-3372	-47	-168	198	127	127	8
-5352	-5420	14724	70	-67	-179	-16044	-488	1776	-49	-113	-32	-16112	2120	-1544	23	-4	1	-6960	3820	13824	-68	136	-204	-16660	1008	520	63	19	133	-15960	-216	-3296	9	-166	207	128	127	8
-5324	-5456	14616	128	-86	-99	-16080	-488	1720	-63	-72	-13	-16168	2064	-1296	25	2	-2	-6912	3876	13888	-86	132	-193	-16740	1004	468	143	-28	115	-16088	-196	-3256	51	-157	201	128	127	8
-5364	-5388	14832	102	-47	-105	-16060	-588	1812	4	-105	-3	-16120	2032	-1312	31	2	0	-6940	3820	13972	-81	145	-183	-16716	972	636	153	-26	128	-16040	-64	-3392	62	-149	197	128	128	8
-5288	-5420	14748	125	-52	-127	-16076	-492	1752	18	-22	-22	-16128	1992	-1160	28	6	1	-6880	3832	13908	-95	135	-198	-16732	1140	548	113	16	114	-15968	-176	-3364	49	-141	229	128	129	8
-5392	-5400	14804	125	-81	-102	-16160	-496	1716	-39	-73	-44	-16200	1936	-1320	23	-1	1	-6972	3796	13888	-107	138	-178	-16708	972	636	104	5	115	-15980	-196	-3320	71	-177	219	128	127	8
-5312	-5360	14784	89	-21	-137	-16084	-612	1784	-50	-93	-33	-16176	2064	-1288	25	2	3	-6948	3864	13884	-66	127	-219	-16664	1032	592	118	11	116	-16068	-112	-3264	30	-144	194	128	128	8
-5284	-5468	14816	103	-43	-95	-16056	-452	1760	-17	-82	23	-16224	1880	-1408	32	-4	-2	-6960	3832	13816	-113	113	-201	-16732	1092	496	115	43	129	-16024	-116	-3228	-8	-219	197	128	128	8
-5296	-5392	14816	116	-46	-95	-16040	-504	1680	-34	-57	-57	-16064	2016	-1344	24	3	5	-6864	3812	13936	-60	121	-191	-16616	1032	608	95	65	130	-16076	-192	-3316	-44	-163	197	128	129	8
-5352	-5364	14756	132	-33	-105	-16060	-568	1788	-39	-75	-38	-16040	2192	-1424	13	0	6	-6952	3788	13744	-64	128	-210	-16732	980	508	107	24	94	-16008	-232	-3452	21	-156	191	129	128	8
-5376	-5444	14744	116	-52	-92	-15988	-516	1724	-66	-58	-37	-16080	2176	-1344	20	-2	-1	-6884	3820	13776	-85	151	-201	-16700	992	456	121	-8	119	-16020	-168	-3392	71	-154	201	128	128	8
-5328	-5320	14636	93	-57	-123	-16020	-484	1580	-56	-89	-8	-16240	1960	-1264	24	-1	-1	-6912	3840	13816	-67	119	-170	-16724	1068	412	154	-60	107	-16044	-152	-3372	40	-146	221	129	127	8
-5252	-5400	14732	120	17	-100	-16060	-488	1744	-11	-79	-16	-15968	1976	-1296	25	2	2	-6880	3840	13804	-63	130	-170	-16692	1008	556	102	5	140	-15972	-184	-3324	18	-167	224	128	128	8
-5360	-5396	14772	102	-20	-97	-16076	-460	1680	-48	-62	-16	-16136	2064	-1232	30	5	1	-6924	3820	13884	-78	138	-187	-16668	1060	632	114	-18	119	-15996	-84	-3304	96	-111	192	128	128	8
-5300	-5340	14788	37	-20	-153	-16096	-424	1656	-86	-93	-30	-16128	2024	-1712	25	4	5	-6976	3784	13940	-74	112	-188	-16724	1112	480	92	14	76	-16052	-76	-3228	7	-120	196	128	129	8
-5324	-5412	14816	47	-13	-159	-16020	-504	1624	-169	-74	-19	-16008	2024	-1304	20	2	5	-6900	3872	13900	-69	162	-210	-16696	1048	584	76	77	114	-16068	-164	-3304	-69	-197	187	129	128	8
-5340	-5412	14696	50	-19	-117	-15992	-524	1620	-195	-110	0	-16120	2104	-1408	6	-1	4	-6976	3836	13904	-72	140	-215	-16700	968	552	87	46	122	-16000	-152	-3268	-56	-184	181	129	128	8
-5328	-5388	14676	52	-57	-135	-16024	-552	1620	-197	-89	-33	-16120	2072	-1472	12	-3	-2	-6924	3844	13844	-53	132	-157	-16744	1036	552	67	44	105	-16028	-184	-3288	0	-114	172	129	129	8
-5316	-5296	14684	26	-56	-157	-16048	-472	1732	-215	-84	-6	-16240	2160	-1592	7	-1	-2	-6916	3808	13812	-18	118	-189	-16692	1072	460	80	91	107	-16068	-144	-3324	-36	-182	191	129	128	8
-5256	-5372	14688	-7	-12	-160	-16112	-448	1692	-262	-114	-23	-16016	2176	-1368	-3	-9	1	-6956	3880	13848	-55	124	-203	-16780	988	488	61	96	84	-16008	-124	-3236	-106	-180	207	129	128	8
-5332	-5428	14680	-62	-69	-182	-16084	-420	1652	-408	-122	-19	-16088	2096	-1408	-10	-3	0	-6912	3832	13864	-56	132	-210	-16760	1032	512	43	92	59	-15992	-128	-3384	-69	-160	205	128	128	8
-5344	-5440	14708	-90	-85	-185	-16048	-552	1728	-418	-122	3	-16096	1952	-1512	-8	-6	-4	-6936	3872	13856	-40	118	-173	-16724	1112	524	46	120	84	-16036	-192	-3292	-94	-165	169	129	128	8
-5320	-5468	14748	-92	-74	-202	-16056	-568	1628	-461	-153	14	-16112	2088	-1280	-12	-11	-4	-6936	3928	13896	22	146	-201	-16672	1068	512	-11	181	78	-15952	-212	-3228	-137	-210	165	129	128	8
-5376	-5392	14688	-193	-29	-224	-16120	-400	1608	-549	-143	24	-16208	2216	-1536	-21	-18	-5	-6932	3832	13864	191	71	-148	-16648	1112	564	-15	269	46	-16044	-120	-3136	-159	-266	160	129	130	8
-5332	-5524	14712	-158	8	-201	-16092	-468	1708	-839	-183	34	-16096	2192	-1432	-47	-17	3	-6988	3816	13812	220	88	-132	-16692	1020	644	-44	261	-30	-16088	-168	-3168	-169	-221	111	129	128	8
-5304	-5496	14784	-225	-84	-224	-16092	-500	1680	-872	-176	7	-16112	2112	-1608	-63	-10	5	-6996	3944	13796	292	60	-96	-16716	1088	680	6	288	-82	-16124	-348	-2796	-107	-303	128	129	129	8
-5332	-5468	14648	-119	-42	-196	-15996	-476	1752	-905	-183	4	-16112	2088	-1640	-64	-7	-1	-7044	3892	13884	347	39	-137	-16688	1184	532	24	348	-221	-16180	-184	-2764	-49	-389	110	128	127	8
-5308	-5440	14780	-256	-67	-221	-16100	-416	1796	-867	-177	69	-16112	2128	-1256	-64	-16	-2	-6836	4048	13972	392	12	-84	-16640	1128	400	-40	395	-350	-16048	-296	-2736	-160	-451	123	129	127	8
-5416	-5536	14692	-372	-10	-283	-16140	-372	1780	-946	-187	38	-16208	2344	-1496	-70	-12	-3	-6984	3768	13932	576	-48	-79	-16600	1000	560	-67	492	-428	-16116	-184	-2680	-206	-543	63	128	129	8
-5188	-5324	14832	-576	-90	-349	-16100	-448	1748	-1135	-226	67	-16136	2152	-1344	-85	-13	-1	-6960	3852	13884	602	-7	-53	-16676	1084	652	-81	536	-586	-16224	-432	-2636	-202	-626	32	128	129	8
-5324	-5600	14548	-487	37	-369	-15980	-472	1632	-1369	-249	68	-16152	2168	-1344	-112	-9	-2	-6780	4036	13728	494	-60	-119	-16772	1136	568	-40	559	-626	-16184	-336	-2580	-169	-688	21	129	128	8
-5304	-5540	14824	-470	-20	-361	-16056	-532	1600	-1519	-275	112	-16248	2056	-1224	-138	-8	-7	-6720	4044	13748	199	23	-122	-16668	1180	488	-28	580	-845	-16176	-112	-2568	-127	-619	16	128	128	8
-5460	-5656	14792	-503	76	-375	-16064	-456	1596	-1744	-316	133	-16256	2288	-1408	-163	-18	-5	-6740	4052	13672	-111	4	-244	-16704	964	320	-145	646	-922	-16048	-140	-2872	-101	-519	100	128	129	8
-5244	-5624	14500	-504	-3	-362	-16040	-524	1744	-1865	-293	102	-16088	2200	-1184	-189	-22	-8	-6872	3992	13836	-379	109	-276	-16704	700	248	-85	559	-968	-16024	-112	-3168	7	-453	76	128	129	8
-5292	-5584	14692	-452	0	-319	-15988	-536	1656	-1798	-301	101	-16144	2312	-1336	-203	-16	-15	-6832	3936	13760	-492	84	-341	-16772	652	228	13	460	-1011	-15932	4	-3280	80	-220	-28	129	129	8
-5208	-5808	14444	-413	162	-282	-16020	-528	1844	-1654	-293	125	-16120	2088	-1144	-195	-14	-21	-6784	3864	13788	-723	178	-355	-16848	684	324	-19	338	-910	-15860	48	-3880	133	-103	-38	129	129	8
-5324	-5752	14644	-333	101	-308	-16104	-336	1724	-1682	-289	78	-16240	2312	-1456	-189	-2	-25	-6912	3920	13848	-912	176	-397	-16840	332	192	-75	242	-783	-15764	188	-4272	117	118	39	128	129	8
-5172	-5608	14572	-254	159	-340	-16104	-432	1756	-1790	-334	25	-15952	2208	-1336	-201	6	-22	-6908	3872	13836	-1002	190	-352	-16908	140	-36	-92	100	-603	-15728	272	-4592	-36	292	90	128	128	8
-5208	-5744	14648	-133	294	-184	-16060	-580	1668	-1763	-318	25	-16032	2280	-1336	-201	19	-19	-6900	3908	13904	-834	178	-345	-16964	-68	0	-56	-91	-297	-15732	260	-4740	-101	341	47	128	128	8
-5276	-5732	14352	26	301	-166	-16076	-564	1692	-1529	-330	-3	-16024	2128	-1400	-186	24	-20	-7044	3788	13944	-631	206	-314	-16904	56	-48	-80	-239	-77	-15704	240	-4476	-433	501	1	128	128	8
-5376	-5524	14460	178	391	-140	-16056	-528	1844	-1331	-360	-7	-16136	2128	-1304	-161	43	-17	-7036	3872	13932	-669	152	-260	-16868	232	136	-59	-365	204	-15708	-4	-4376	-640	663	55	128	129	8
-5420	-5832	14612	101	357	-160	-16068	-624	1872	-1116	-370	-56	-16088	2096	-1432	-131	57	-18	-6936	3736	13884	-277	147	-222	-16704	116	112	-5	-312	405	-15912	-316	-4128	-691	691	50	128	127	8
-5340	-5784	14592	136	271	-108	-16040	-748	1912	-864	-335	-60	-16080	1976	-1648	-90	53	-17	-6888	3756	13856	-188	135	-172	-16824	424	328	-16	-381	478	-15896	-200	-3776	-674	712	14	128	128	8
-5444	-5772	14676	124	217	-170	-15984	-684	1992	-591	-292	-51	-16064	2024	-1056	-61	38	-16	-6908	3808	13872	-187	117	-177	-16764	552	248	-144	-381	528	-16040	-240	-3396	-856	744	108	128	127	8
-5348	-5876	14596	163	152	-110	-15924	-808	1964	-374	-181	-82	-16224	1928	-1224	-27	41	-22	-6892	3760	13780	-129	96	-170	-16660	720	396	-161	-337	499	-16056	-428	-3064	-749	665	47	129	128	8
-5512	-5764	14612	81	78	-152	-15928	-752	2048	-143	-123	-58	-16232	1984	-1144	-6	37	-24	-6928	3756	13820	-101	88	-140	-16720	792	460	-122	-272	443	-16152	-416	-2968	-698	596	108	128	127	8
-5352	-5712	14512	51	-5	-143	-15992	-764	1932	-87	-38	-89	-16296	2112	-1200	-2	29	-20	-6852	3808	13868	-195	89	-191	-16720	856	400	-126	-208	288	-16288	-484	-2572	-656	522	140	128	127	8
-5352	-5760	14620	45	-22	-106	-16064	-684	1832	-26	64	-143	-16424	2096	-896	-6	20	-27	-6816	3852	13796	-281	82	-148	-16636	988	476	-176	-134	132	-16296	-380	-2800	-686	389	48	128	127	8
-5460	-5736	14608	47	4	-135	-16060	-600	1924	-187	45	-101	-16264	2232	-1368	-24	8	-26	-6792	3892	13964	-364	70	-200	-16644	940	504	-271	-141	-69	-16312	-396	-2844	-728	272	115	127	128	8
-5404	-5800	14616	130	-12	-122	-16052	-628	1788	-150	81	-88	-16152	2280	-1336	-57	7	-30	-6892	3740	13808	-392	161	-242	-16600	872	460	-317	-80	-239	-16156	-464	-2884	-742	91	82	128	128	8
-5308	-5688	14540	96	-17	-129	-16080	-592	1716	-312	-9	-82	-16224	2008	-1360	-76	0	-43	-6868	3856	13832	-345	107	-226	-16632	756	376	-254	33	-288	-16012	-260	-3216	-764	115	110	127	128	8
-5396	-5776	14460	98	-67	-100	-15992	-568	1652	-370	-46	-113	-16120	2152	-1752	-92	-1	-48	-6848	3724	13876	-333	92	-256	-16808	644	316	-332	113	-373	-16048	-156	-3364	-791	117	32	128	128	8
-5496	-5632	14620	-3	-130	-130	-16064	-448	1640	-517	-79	-199	-16048	2224	-1632	-114	-15	-55	-6888	3804	13972	-277	134	-224	-16748	680	316	-512	227	-331	-16052	-152	-3472	-866	133	27	127	128	8
-5384	-5668	14524	-4	-140	-162	-16024	-500	1600	-551	-169	-208	-15984	2112	-1824	-128	-16	-58	-6924	3736	13836	-305	126	-246	-16728	504	252	-654	327	-373	-15828	-144	-3516	-1244	39	54	128	127	8
-5356	-5848	14620	87	-141	-126	-16008	-604	1668	-496	-270	-244	-15848	2024	-1640	-134	-8	-56	-6936	3688	13888	-281	140	-262	-16712	368	216	-584	287	-323	-15808	-140	-3828	-1354	229	3	128	128	8
-5464	-5840	14600	88	-184	-145	-15972	-588	1772	-370	-336	-299	-16080	1848	-1840	-107	-6	-66	-6908	3724	13912	-235	142	-247	-16740	496	488	-658	343	-278	-15848	-136	-3680	-1399	288	-30	128	128	8
-5380	-5764	14548	58	-150	-175	-16160	-644	1620	-243	-389	-277	-16104	1904	-1528	-94	1	-68	-6924	3728	13948	-280	177	-219	-16768	384	336	-777	370	-296	-15832	-272	-3596	-1477	372	19	128	127	8
-5408	-5804	14508	158	-155	-106	-16028	-720	1956	-300	-439	-331	-16168	1752	-1280	-85	8	-58	-6876	3716	13868	-218	182	-215	-16820	392	260	-715	426	-241	-15756	-308	-3940	-1312	574	74	127	128	8
-5296	-5868	14540	298	-85	-47	-15832	-900	1936	-81	-434	-336	-15976	1504	-1128	-74	8	-63	-6816	3644	13964	-157	194	-274	-16836	316	244	-668	432	-234	-15904	-304	-3852	-1112	827	127	127	127	8
