#Activity	standing 
#ActivityID	8 
#Date 08-27-18-28
acc_rf_x	acc_rf_y	acc_rf_z	gyro_rf_x	gyro_rf_y	gyro_rf_z	acc_rs_x	acc_rs_y	acc_rs_z	gyro_rs_x	gyro_rs_y	gyro_rs_z	acc_rt_x	acc_rt_y	acc_rt_z	gyro_rt_x	gyro_rt_y	gyro_rt_z	acc_lf_x	acc_lf_y	acc_lf_z	gyro_lf_x	gyro_lf_y	gyro_lf_z	acc_ls_x	acc_ls_y	acc_ls_z	gyro_ls_x	gyro_ls_y	gyro_ls_z	acc_lt_x	acc_lt_y	acc_lt_z	gyro_lt_x	gyro_lt_y	gyro_lt_z	EMG_r	EMG_l	act
-8436	-6848	11780	-12	16	-27	-16112	184	-1808	0	-6	-13	-15720	3944	-2608	30	-21	17	-9232	6328	12760	17	-10	-21	-16224	2960	-2848	18	-17	11	-15936	3344	-2648	26	-6	5	123	129	8
-8440	-6900	11792	-11	18	-26	-16192	152	-1992	8	-7	-8	-15704	3864	-2704	29	-23	16	-9200	6240	12616	15	-3	-22	-16288	2952	-2696	10	-7	20	-15864	3416	-2448	26	-4	0	124	130	8
-8380	-6836	11760	-16	22	-23	-16136	200	-1768	18	-3	-8	-15568	3712	-2808	24	-15	14	-9160	6208	12464	16	-1	-23	-16208	2984	-2824	7	-8	13	-15736	3552	-2672	19	-9	-2	123	129	8
-8396	-6836	11796	-11	16	-25	-16144	408	-1904	11	-6	-4	-15576	3896	-2536	16	-14	13	-9104	6216	12504	14	-11	-15	-16224	2904	-2864	1	-10	8	-15816	3424	-2704	16	-4	1	123	129	8
-8420	-6876	11860	-12	16	-24	-16264	248	-1808	6	-8	-4	-15512	3928	-2592	-3	-15	16	-9104	6416	12504	12	-7	-18	-16120	2848	-2976	12	-9	14	-15832	3480	-2648	23	-5	-2	123	129	8
-8384	-6916	11716	-13	17	-22	-16128	272	-2152	3	-2	-12	-15480	3968	-2736	-19	-12	15	-9232	6208	12632	14	-8	-21	-16168	3016	-2680	10	-11	18	-15856	3488	-2456	21	-7	-1	122	129	8
-8336	-6920	11804	-13	17	-25	-16128	176	-1848	-2	-4	-10	-15656	3840	-2824	-20	-7	9	-9136	6144	12672	14	-6	-20	-16200	2952	-2848	3	-11	23	-15856	3304	-2376	18	-5	0	123	129	8
-8420	-6836	11816	-12	17	-21	-16104	80	-1888	-6	-7	-10	-15688	3880	-2992	-11	-12	6	-9160	6184	12584	17	-6	-19	-16240	2968	-2712	5	-9	11	-15864	3424	-2376	23	-3	1	123	129	8
-8352	-6952	11812	-15	14	-21	-16144	160	-1640	-3	-4	-10	-15576	3832	-2728	-10	-16	6	-9184	6208	12608	14	1	-23	-16112	2928	-2736	-6	-5	18	-15848	3360	-2536	19	-1	0	124	129	8
-8372	-6824	11728	-17	17	-22	-16320	184	-1944	-1	-12	-7	-15568	3904	-2856	4	-14	17	-9072	6368	12712	18	-2	-16	-16128	2808	-2880	-1	-9	19	-15840	3464	-2336	18	-1	3	122	129	8
-8352	-6884	11776	-13	14	-26	-16224	224	-1944	-3	-9	-8	-15512	3888	-2840	6	-18	15	-9048	6176	12712	17	-4	-16	-16216	2976	-2736	-6	-7	18	-15800	3368	-2768	12	2	1	123	128	8
-8352	-6920	11780	-19	18	-22	-16160	144	-1808	1	-10	-5	-15624	3872	-2816	6	-16	10	-9296	6224	12480	19	-1	-19	-16144	3008	-3040	-12	-10	14	-15856	3560	-2552	2	-3	-1	123	130	8
-8360	-6924	11868	-12	18	-24	-16064	224	-1696	0	-12	-6	-15568	3864	-2808	2	-17	21	-9208	6352	12672	13	-6	-15	-16152	3064	-2936	-1	-5	8	-15696	3560	-2552	8	-1	6	124	129	8
-8356	-6920	11840	-15	14	-21	-16056	152	-1728	-3	-6	-6	-15696	3712	-2712	3	-25	16	-9176	6216	12488	11	-11	-18	-16224	2864	-2688	12	-10	20	-15552	3472	-2800	13	3	5	123	129	8
-8264	-6904	11796	-14	13	-21	-16064	296	-2056	0	-11	-6	-15608	3840	-2640	12	-25	20	-9136	6224	12360	11	-5	-19	-15992	2952	-2880	48	-10	18	-15784	3424	-2704	28	-6	1	123	129	8
-8364	-6924	11736	-10	10	-23	-16184	248	-1776	-8	-6	-5	-15584	3832	-2768	10	-15	12	-9176	6384	12576	18	-17	-13	-16280	2920	-2752	36	-16	25	-15744	3424	-2672	25	4	-8	124	129	8
-8344	-6904	11732	-16	14	-25	-16248	208	-1952	-7	-12	-5	-15464	3936	-2640	-4	-15	12	-9184	6112	12472	16	-14	-16	-16240	2808	-2912	4	-11	24	-15760	3528	-2560	24	0	-7	122	130	8
-8396	-6928	11792	-11	15	-27	-16328	136	-2104	6	-6	-6	-15696	3872	-2656	-8	-14	17	-9160	6200	12576	19	-2	-20	-16224	2848	-3160	-14	-4	16	-15768	3440	-2440	21	-3	3	124	129	8
-8388	-6864	11752	-13	20	-24	-16184	256	-1904	4	-8	-7	-15720	4000	-2472	-1	-18	17	-9208	6192	12376	16	-1	-15	-16272	2968	-2608	-3	-5	16	-15880	3512	-2568	9	1	8	123	129	8
-8336	-6936	11768	-15	18	-27	-16120	-32	-1832	-1	-7	-6	-15696	3824	-2752	2	-12	14	-9072	6344	12632	14	0	-17	-16096	2992	-2544	7	-7	25	-15848	3488	-2528	28	1	15	123	129	8
-8348	-6904	11736	-14	15	-19	-16104	176	-1736	2	-4	-7	-15568	3872	-2696	-4	-11	15	-9040	6288	12768	18	-7	-19	-16200	2904	-2816	15	-6	25	-15824	3600	-2816	36	4	8	123	129	8
-8416	-6920	11852	-13	13	-22	-16320	176	-1736	1	1	-5	-15584	3880	-2760	-13	-11	17	-9200	6176	12672	18	-4	-22	-16408	2864	-2752	12	-8	20	-15816	3464	-2680	20	-1	4	123	129	8
-8416	-6872	11840	-11	13	-17	-16080	160	-2000	10	-5	-3	-15752	3928	-2792	-4	-11	21	-9184	6144	12736	15	-7	-22	-16208	3024	-3064	6	-2	18	-15808	3576	-2656	25	1	5	123	129	8
-8432	-6804	11700	-16	14	-23	-16216	224	-1840	1	-1	-4	-15680	3808	-2696	13	-15	23	-9184	6200	12528	16	-6	-17	-16264	2864	-2792	5	-8	17	-15840	3528	-2616	25	0	7	123	129	8
-8340	-6864	11804	-9	16	-20	-16104	128	-1672	5	-6	-6	-15376	3896	-2936	10	-23	22	-9152	6240	12584	17	-2	-23	-16280	2976	-2536	-1	-1	20	-15832	3488	-2528	31	-1	2	122	129	8
-8384	-6880	11808	-12	16	-25	-16216	272	-1840	8	-3	-3	-15488	3920	-2704	6	-24	22	-9272	6344	12728	18	-4	-19	-16200	2792	-2752	10	-7	22	-15712	3552	-2608	26	-5	-1	123	129	8
-8372	-6880	11620	-13	16	-22	-16128	304	-2112	2	-3	-3	-15568	3904	-2680	8	-21	22	-9048	6328	12528	17	-11	-21	-16248	3104	-2792	10	-7	20	-15872	3432	-2648	11	-3	3	125	130	8
-8284	-6956	11856	-13	16	-22	-16232	184	-1864	1	-3	-6	-15600	3920	-2624	16	-23	17	-9176	6152	12608	15	-9	-16	-16248	2776	-2824	17	-3	18	-15904	3448	-2528	10	4	9	124	129	8
-8344	-6828	11720	-19	12	-19	-16080	408	-2040	-3	-2	-8	-15760	3872	-2744	28	-9	19	-9256	6336	12664	17	-6	-20	-16032	2880	-2880	26	-6	13	-15840	3416	-2536	16	6	7	124	129	8
-8416	-6864	11780	-18	12	-23	-16192	96	-1800	-10	1	-8	-15544	3920	-2624	13	-7	15	-9152	6232	12680	15	-2	-18	-16112	3152	-2600	15	-5	17	-15752	3336	-2592	32	-5	5	124	129	8
-8400	-6944	11796	-19	19	-22	-16096	168	-1672	8	-1	-5	-15680	3872	-2888	-19	-12	14	-9096	6344	12536	13	-3	-14	-16080	3128	-2736	0	0	18	-15856	3720	-2416	33	-9	-1	122	129	8
-8352	-6948	11772	-16	16	-19	-16184	176	-1728	11	2	-6	-15624	3800	-2744	-25	-16	20	-9200	6248	12528	10	-4	-20	-16328	2912	-2808	-9	3	15	-15856	3536	-2648	11	2	-5	122	129	8
-8336	-6960	11760	-11	12	-20	-16200	80	-2032	8	3	-8	-15600	3712	-2728	-9	-21	16	-9160	6296	12544	10	-5	-21	-16184	2976	-3096	-2	2	10	-15808	3400	-2648	7	8	1	125	128	8
-8328	-6932	11812	-13	10	-20	-16040	200	-1760	7	6	-7	-15648	3824	-2712	12	-14	16	-9144	6064	12608	11	-8	-19	-16136	2896	-2824	9	-1	17	-15760	3448	-2712	19	9	9	123	129	8
-8384	-6768	11688	-12	9	-17	-16112	400	-2128	-6	2	-6	-15648	4032	-2648	11	0	18	-9144	6344	12616	11	-3	-21	-16176	2896	-2856	18	2	20	-15712	3496	-2624	32	6	9	123	128	8
-8404	-6888	11776	-12	7	-24	-16160	208	-1976	-16	5	-11	-15496	3920	-2672	-6	-5	18	-9072	6120	12552	14	-7	-23	-16080	2952	-2776	7	0	23	-15664	3392	-2408	30	-3	3	123	128	8
-8368	-6900	11808	-17	19	-23	-16272	264	-1760	0	0	-10	-15528	4080	-2856	-29	-12	18	-9232	6024	12664	17	-9	-23	-16144	2984	-2824	-15	-2	19	-15736	3472	-2648	13	-2	0	125	129	8
-8392	-6888	11808	-11	16	-20	-16104	328	-1760	14	0	-3	-15608	3872	-2872	-25	-12	20	-9264	6144	12440	19	-3	-14	-16368	2872	-2960	-4	-2	14	-15784	3608	-2624	6	0	0	125	129	8
-8436	-6872	11764	-17	18	-26	-16000	80	-2064	11	-3	-9	-15688	3816	-2728	18	-9	17	-9040	6264	12472	16	-5	-17	-16208	2976	-2896	15	-8	9	-15872	3536	-2672	20	6	6	123	129	8
-8400	-6960	11716	-20	14	-28	-16120	152	-1560	3	-2	-9	-15624	3520	-2936	27	-8	13	-9064	6256	12440	16	-4	-19	-16136	2960	-2576	27	-3	21	-15720	3672	-2536	33	-4	5	122	129	8
-8432	-6952	11852	-12	18	-22	-16208	112	-1848	-3	-1	-9	-15592	3760	-2752	13	-16	10	-9128	6256	12704	16	-9	-23	-16072	2944	-2776	27	-5	19	-15896	3576	-2248	29	-5	-1	125	128	8
-8352	-6948	11804	-15	16	-25	-16128	224	-1912	1	-1	-8	-15656	3832	-2608	9	-22	22	-9168	6168	12448	20	-7	-22	-16256	2800	-2888	9	-3	21	-15872	3392	-2576	16	3	-2	125	128	8
-8336	-6908	11848	-11	18	-23	-16112	272	-1768	8	-1	-6	-15616	3984	-2592	13	-17	30	-9200	6192	12672	13	-3	-22	-16160	3080	-3144	-3	2	14	-15680	3384	-2728	23	2	1	123	128	8
-8424	-6844	11820	-11	16	-20	-16088	224	-1928	6	2	-14	-15504	3864	-2792	17	-16	25	-9120	6312	12608	12	0	-22	-16024	3032	-2672	-4	-3	10	-15776	3408	-2728	24	5	0	122	128	8
-8456	-6872	11884	-13	16	-21	-16200	96	-1944	4	4	-4	-15464	3944	-2792	6	-14	16	-9008	6344	12448	17	-3	-18	-16128	3032	-2840	9	-6	12	-15808	3696	-2640	25	-7	4	122	128	8
-8344	-6864	11764	-17	16	-24	-16096	224	-1968	3	3	-10	-15528	3944	-2984	2	-21	21	-9104	6200	12832	14	-3	-19	-16256	3024	-2584	25	-10	19	-15800	3576	-2520	27	-4	4	122	129	8
-8372	-6892	11708	-13	16	-20	-16168	208	-1896	5	-3	-10	-15712	4040	-2728	6	-21	21	-9168	6256	12760	16	-11	-24	-16176	3016	-2912	22	-10	20	-15848	3448	-2656	17	5	2	123	129	8
-8324	-6896	11800	-16	17	-23	-16280	232	-1968	8	1	-11	-15552	3904	-2816	11	-12	15	-9264	6096	12696	16	-8	-22	-16184	3048	-2944	8	-1	19	-15696	3384	-2512	24	5	-9	122	129	8
-8360	-6968	11780	-14	11	-23	-16128	232	-1960	5	4	-9	-15576	3808	-2824	1	-5	11	-9064	6088	12576	17	-3	-20	-16120	3000	-2752	-1	-6	14	-15648	3400	-2480	32	-5	-1	121	128	8
-8324	-6912	11704	-13	16	-24	-16168	280	-2064	1	-1	-12	-15576	3920	-2664	-11	-7	16	-9208	6240	12776	13	-10	-18	-16216	2960	-2872	5	-13	12	-15704	3400	-2384	27	-5	8	124	129	8
-8448	-6812	11800	-17	16	-26	-16232	336	-2152	0	-2	-10	-15472	4072	-2888	-1	-12	20	-9128	6368	12760	15	-7	-19	-16184	2920	-2672	5	0	8	-16024	3568	-2496	14	-3	6	123	128	8
-8372	-6832	11796	-20	16	-23	-16048	240	-1624	0	-1	-7	-15568	3928	-2968	-1	-22	14	-9128	6248	12592	14	-6	-21	-16168	2904	-2968	27	-12	20	-15880	3576	-2456	18	-3	9	123	129	8
-8376	-6948	11800	-18	20	-23	-16208	248	-1736	5	-3	-12	-15632	3712	-2792	3	-23	13	-9072	6264	12568	12	-11	-20	-16224	3096	-2840	25	-11	18	-15872	3720	-2464	18	-6	-6	124	128	8
-8388	-6880	11848	-17	18	-24	-16168	288	-1928	-1	1	-11	-15600	3736	-2792	12	-23	18	-9200	6120	12824	17	-8	-21	-16200	2944	-2824	2	-8	14	-15752	3464	-2448	16	-5	-11	123	128	8
-8312	-6972	11860	-14	14	-22	-16112	160	-1712	2	-4	-11	-15488	3784	-2968	11	-18	13	-9160	6240	12696	17	-2	-19	-16248	2904	-2864	-5	-3	12	-15744	3488	-2584	11	-3	-12	124	128	8
-8408	-6868	11824	-12	15	-21	-16176	176	-2168	0	-7	-10	-15656	3920	-2904	-2	-18	21	-9048	6392	12688	13	-8	-20	-16184	2984	-3048	0	-6	6	-15816	3544	-2536	14	1	-2	125	129	8
-8388	-6896	11724	-15	13	-23	-16216	160	-1744	-3	-8	-11	-15544	3928	-2888	-1	-16	20	-9272	6312	12568	13	-5	-22	-16216	2976	-2800	29	-5	9	-15840	3432	-2640	26	0	6	125	129	8
-8352	-6884	11784	-16	16	-26	-16176	200	-1832	-10	-7	-10	-15616	3904	-2624	10	-16	12	-9152	6296	12760	11	-6	-20	-16120	2840	-2840	41	-17	19	-15848	3360	-2560	36	2	0	122	129	8
-8380	-6916	11724	-15	17	-20	-16136	48	-1944	0	-1	-10	-15672	3928	-2792	-12	-20	8	-9160	6288	12464	20	-12	-26	-16248	3096	-2944	47	-9	19	-15736	3248	-2400	43	-6	-6	123	128	8
-8364	-6904	11724	-16	16	-22	-16000	64	-1912	5	-1	-6	-15752	3808	-2776	-11	-23	7	-8936	6264	12656	14	-11	-19	-16184	3008	-2752	11	-8	21	-15800	3568	-2704	31	-6	0	123	128	8
-8340	-6840	11736	-13	20	-14	-16224	168	-2048	10	-4	-8	-15584	3872	-2760	-2	-16	10	-9056	6152	12632	17	-2	-19	-16120	2984	-2920	-23	-4	19	-15832	3536	-2392	10	0	-4	123	129	8
-8444	-6904	11796	-15	14	-21	-16224	248	-1832	-3	-4	-10	-15520	3952	-2680	0	-5	8	-9200	6192	12544	16	-6	-16	-16248	2944	-2520	-20	-2	8	-15544	3520	-2584	12	0	-3	122	128	8
-8320	-6836	11740	-15	13	-27	-16176	184	-1776	-8	-9	-10	-15440	4016	-2744	-12	-2	16	-9096	6240	12400	13	0	-20	-16208	2960	-2888	-6	-6	16	-15776	3448	-2560	22	-1	-1	124	129	8
-8408	-6992	11768	-12	18	-22	-16232	208	-1824	-9	-9	-15	-15584	3960	-2584	-29	-16	14	-9096	6384	12608	11	-5	-22	-16184	2920	-2656	24	-14	10	-15832	3496	-2640	34	-10	3	122	128	8
-8364	-6912	11844	-7	14	-22	-16040	120	-1736	-4	-8	-11	-15744	3784	-2816	-28	-27	16	-9072	6280	12480	19	-11	-19	-16136	3032	-2800	25	-8	13	-15856	3576	-2624	19	-2	3	124	129	8
-8384	-6880	11788	-13	15	-26	-16240	112	-1952	1	-8	-13	-15432	3832	-2656	5	-23	13	-9208	6304	12504	14	-8	-26	-16152	3008	-2880	8	-3	15	-15816	3464	-2496	11	-3	-3	122	129	8
-8416	-6912	11736	-12	11	-26	-16064	168	-2024	-2	-7	-12	-15672	3736	-2736	21	-13	10	-9184	6192	12584	15	-2	-19	-16168	2896	-2640	0	-9	14	-15776	3400	-2728	5	-9	-12	124	129	8
-8320	-6896	11772	-10	15	-27	-16312	192	-2176	3	-11	-11	-15656	3752	-2472	32	-12	9	-9224	6328	12616	15	-1	-22	-16216	2872	-2488	2	-10	14	-15856	3528	-2632	20	-17	-15	123	129	8
-8376	-6872	11724	-13	19	-29	-16200	104	-1984	3	-8	-4	-15584	3848	-2904	26	-19	18	-9104	6232	12496	20	-9	-21	-16248	3048	-2656	1	-15	13	-15896	3592	-2392	23	-8	-8	122	129	8
-8312	-6952	11812	-17	17	-28	-16144	32	-1744	10	-9	-10	-15656	3832	-2680	24	-27	30	-9080	6208	12608	14	-12	-20	-16240	2976	-2952	11	-9	10	-15800	3584	-2496	14	-12	3	123	129	8
-8400	-6968	11784	-18	14	-29	-16088	200	-1944	12	-8	-8	-15664	3720	-2608	26	-26	24	-9184	6184	12560	13	-13	-24	-16320	2808	-2968	17	-8	12	-15784	3320	-2608	25	-4	6	122	129	8
-8360	-6884	11824	-14	9	-24	-16224	120	-1680	3	-5	-14	-15552	3808	-2768	27	-20	16	-9168	6224	12608	13	-4	-21	-16152	2768	-3128	24	-9	11	-15680	3320	-2528	30	-8	1	123	129	8
-8344	-6924	11876	-20	13	-25	-16136	104	-1656	0	-10	-14	-15688	3840	-2824	8	-13	7	-9224	6256	12688	18	-9	-27	-16160	3080	-2952	16	-15	14	-15728	3312	-2576	45	-14	-4	122	129	8
-8384	-6888	11732	-17	14	-26	-16104	208	-2072	6	-3	-6	-15640	4072	-2672	-10	-15	8	-9136	6200	12696	14	-9	-23	-16168	2968	-2896	6	-16	17	-15808	3400	-2688	42	-9	6	123	129	8
-8372	-6912	11700	-11	19	-24	-16000	200	-1824	16	-1	-5	-15488	3880	-2632	-12	-19	12	-9128	6128	12536	17	-7	-21	-16280	2968	-3072	11	-10	21	-15872	3480	-2360	32	-12	3	121	128	8
-8400	-6944	11796	-12	9	-24	-16160	352	-2056	14	-4	-4	-15480	3768	-2760	-1	-17	13	-9120	6032	12512	15	-8	-18	-16184	2952	-2856	19	-11	16	-15880	3544	-2392	21	-11	2	123	129	8
-8396	-6912	11672	-11	15	-24	-16112	168	-1768	6	-7	-7	-15600	3856	-2616	1	-14	11	-9080	6232	12840	16	-15	-19	-16224	2824	-2656	28	-10	12	-15880	3616	-2680	21	-9	3	124	129	8
-8368	-7004	11740	-14	10	-22	-16256	256	-1864	-3	-6	-6	-15544	3768	-2912	-5	-16	7	-9184	6288	12536	14	-10	-17	-16216	2872	-2912	21	-6	13	-16016	3512	-2528	23	-8	4	122	129	8
-8380	-6952	11836	-13	17	-22	-16192	200	-1728	-2	-7	-11	-15560	3856	-2824	-15	-19	19	-9128	6280	12656	15	-9	-19	-16240	2808	-3160	14	-10	20	-15784	3424	-2520	12	-6	6	122	129	8
-8356	-6940	11856	-13	20	-20	-16128	176	-1904	5	-4	-4	-15592	3880	-2792	0	-24	22	-9184	6304	12680	19	-10	-20	-16280	2968	-2992	-1	-4	14	-15768	3312	-2536	14	-8	1	123	129	8
-8420	-6892	11744	-9	16	-23	-16120	168	-2024	0	-6	-5	-15776	3808	-2592	28	-21	20	-9176	6232	12624	18	-3	-16	-16200	2928	-2792	-9	-3	18	-15808	3368	-2472	17	-6	-9	123	130	8
-8412	-6904	11836	-20	15	-25	-16232	0	-2104	3	-7	-6	-15384	3840	-2792	20	-19	12	-9200	6280	12600	19	-10	-15	-16320	3032	-2848	-11	-4	21	-15872	3376	-2456	19	-8	-4	122	129	8
-8368	-6932	11756	-17	15	-24	-16328	104	-1888	5	-9	-6	-15536	3872	-2720	2	-14	15	-9104	6352	12752	16	-9	-16	-16176	2808	-2680	4	-10	19	-15888	3504	-2400	7	0	2	121	129	8
-8332	-6928	11744	-13	19	-24	-16208	280	-1840	-3	-11	0	-15680	3944	-2560	-1	-18	24	-9136	6176	12656	16	-8	-20	-16152	2896	-2856	19	-10	21	-15960	3320	-2320	18	3	10	123	129	8
-8320	-6960	11740	-17	16	-22	-16136	200	-2024	-12	-6	-10	-15440	3792	-2664	-15	-24	22	-9216	6144	12672	18	-8	-17	-16112	3016	-2816	18	-7	19	-15768	3480	-2632	31	1	15	122	129	8
-8356	-6960	11632	-13	11	-21	-16064	256	-1592	-10	-8	-12	-15720	3848	-2888	-17	-19	13	-9088	6168	12624	19	-5	-16	-16152	2920	-2792	2	-5	20	-15736	3432	-2728	25	-4	4	125	130	8
-8376	-6884	11680	-11	10	-23	-16176	272	-1728	-13	-6	-9	-15712	3800	-2872	-5	-11	15	-9128	6280	12648	22	-4	-16	-16208	2944	-2888	-12	-3	20	-15968	3600	-2608	19	-2	-8	124	129	8
-8296	-6904	11700	-12	20	-21	-16136	144	-1744	-1	-8	-4	-15632	3792	-2840	-12	-11	13	-9128	6248	12664	16	1	-20	-16184	2984	-2808	-11	-2	18	-15744	3416	-2616	-4	-1	-7	125	130	8
-8364	-6892	11856	-15	15	-21	-16232	208	-1768	7	-6	-4	-15712	3840	-2944	-8	-8	16	-9072	6288	12496	17	-6	-17	-16352	2784	-3008	1	-5	18	-15800	3408	-2616	-9	10	-5	125	129	8
-8468	-6900	11716	-15	18	-22	-16232	232	-1792	-4	0	-4	-15648	3784	-2776	6	-12	20	-9056	6296	12640	16	-10	-15	-16336	3024	-2640	13	0	15	-15816	3336	-2512	8	3	-1	124	129	8
-8304	-6968	11880	-18	17	-22	-16088	160	-1768	-6	-4	-9	-15608	3880	-2504	-3	-19	17	-9080	6192	12400	14	-8	-21	-16176	2904	-2632	7	-6	25	-15720	3312	-2096	27	1	3	123	130	8
-8352	-6912	11692	-16	15	-22	-16248	128	-1688	-5	-3	-4	-15560	3968	-2712	-21	-14	13	-9200	6184	12632	15	-7	-15	-16216	3088	-2896	11	3	19	-15672	3304	-2576	26	-6	12	124	129	8
-8308	-6924	11724	-11	13	-23	-16304	-16	-1792	-11	-2	-7	-15584	3680	-2632	-18	-17	17	-9008	6272	12832	15	-2	-19	-16136	2952	-2656	-7	0	14	-16008	3376	-2632	18	-4	8	124	129	8
-8324	-6896	11824	-13	15	-21	-16032	80	-1744	3	-4	-6	-15712	3760	-2640	7	-19	25	-9192	6336	12864	17	-7	-22	-16232	2824	-2984	-2	-1	20	-15888	3488	-2536	17	7	1	124	130	8
-8352	-6908	11680	-13	16	-22	-16288	336	-2048	6	-1	-4	-15736	3792	-2544	21	-24	26	-9224	6248	12448	21	-9	-13	-16200	2888	-2728	22	-7	10	-15864	3376	-2536	15	1	1	124	129	8
-8360	-6936	11816	-18	15	-19	-16208	184	-1816	6	2	-3	-15536	3840	-2712	21	-21	26	-8920	6336	12952	15	-2	-17	-16032	2816	-3144	12	-5	17	-15840	3432	-2424	30	4	5	125	129	8
-8352	-6920	11892	-15	15	-20	-16264	400	-2040	2	2	-9	-15560	3880	-2760	5	-15	22	-9136	6048	12848	22	-14	-20	-16064	2592	-2776	25	-4	23	-15840	3248	-2648	33	15	4	123	130	8
-8396	-6944	11756	-12	17	-21	-16000	256	-1912	-4	3	-8	-15608	3928	-2840	-11	-18	24	-9224	6312	12480	25	-5	-19	-16304	2928	-2736	41	-10	22	-15728	3152	-2224	28	-4	-8	123	129	8
-8352	-6864	11888	-16	16	-23	-16104	272	-1696	-8	3	-4	-15624	3912	-2840	-5	-20	24	-9032	6296	12584	23	-9	-15	-16296	3088	-2512	13	-9	21	-15800	3600	-2528	32	-1	5	121	129	8
-8412	-6944	11788	-19	12	-20	-16128	112	-1888	-6	4	-15	-15608	3928	-2608	-6	-17	10	-9160	6200	12528	12	2	-17	-16080	3096	-2800	-14	-5	21	-15752	3736	-2624	29	-6	6	124	130	8
-8440	-6904	11800	-11	17	-21	-16320	136	-1872	9	-2	-4	-15624	3832	-2912	-14	-6	4	-9064	6352	12472	18	-5	-18	-16304	2920	-2736	-7	7	5	-15832	3728	-2328	11	-2	5	124	130	8
-8360	-6832	11704	-10	18	-24	-16208	232	-2112	12	2	-4	-15496	3912	-2880	-19	1	13	-9080	6304	12592	13	-8	-16	-16176	2816	-2776	4	-5	12	-15728	3600	-2640	5	2	5	125	129	8
-8412	-6932	11820	-19	16	-22	-16208	184	-1912	-1	-3	-8	-15584	3840	-2544	-19	-6	15	-8936	5968	12688	11	-4	-25	-16104	2720	-2816	27	-8	24	-15744	3392	-2608	18	8	-4	123	130	8
-8404	-6940	11780	-11	16	-20	-16160	240	-1840	-6	0	-9	-15616	3864	-2896	-11	-15	17	-9144	6184	12560	19	-11	-20	-16304	3016	-2920	28	-4	16	-15720	3304	-2576	25	-1	-11	123	130	8
-8336	-6968	11712	-19	14	-29	-16232	136	-1920	-14	2	-9	-15624	3784	-2664	3	-14	19	-9048	6296	12624	17	-4	-19	-16168	3104	-2824	-9	1	8	-15728	3312	-2472	25	4	-5	121	129	8
-8348	-6972	11784	-15	14	-28	-16120	120	-1776	2	-1	-9	-15440	3888	-2752	7	-22	19	-9072	6040	12424	11	-2	-19	-16168	2896	-3088	-11	-3	19	-15768	3480	-2744	19	4	5	124	130	8
-8312	-6848	11756	-11	18	-20	-15992	16	-1944	8	-6	-7	-15720	3712	-2936	29	-19	22	-9032	6192	12688	15	-6	-17	-16224	2928	-3016	-10	-4	14	-15784	3600	-2576	18	2	14	124	130	8
-8336	-6900	11768	-15	11	-23	-16112	136	-1944	5	-5	-6	-15640	3936	-2568	39	-17	18	-8952	6272	12560	15	-8	-22	-15920	2912	-2696	14	-6	20	-15880	3432	-2744	21	6	4	122	131	8
-8420	-6948	11788	-18	13	-22	-16336	56	-1952	6	0	-6	-15504	3896	-2656	26	-12	20	-9232	6176	12456	15	-13	-21	-16288	2864	-2680	29	-2	24	-15880	3448	-2448	26	0	-3	123	130	8
-8384	-6904	11752	-15	12	-28	-16200	40	-1744	2	0	-9	-15648	3944	-2584	6	-10	21	-9136	6080	12784	20	-6	-20	-16320	2920	-2872	22	0	7	-15800	3392	-2672	27	2	-2	121	130	8
-8316	-6884	11820	-17	12	-25	-16200	184	-1680	-3	-1	-8	-15752	3976	-2736	-8	-18	23	-9080	6168	12896	14	-9	-20	-16136	2976	-2840	-2	-3	18	-15776	3520	-2552	33	8	1	124	130	8
-8376	-6916	11748	-13	16	-18	-16312	160	-1656	10	1	-10	-15688	3808	-2616	-11	-11	15	-9184	6152	12656	15	-3	-19	-16208	2912	-2792	1	-4	18	-15864	3512	-2248	39	-3	4	122	129	8
-8448	-6924	11736	-15	15	-23	-16072	248	-2040	4	3	-8	-15512	3784	-2848	-5	-5	9	-9048	6216	12544	14	-4	-22	-16208	2880	-2872	5	-8	8	-15688	3424	-2696	33	-5	2	124	130	8
-8376	-6888	11824	-12	11	-27	-16168	264	-1832	6	2	-8	-15568	3976	-2976	-1	0	11	-9128	6264	12784	18	-6	-24	-16176	2832	-2920	21	-2	16	-15736	3360	-2360	34	-1	7	124	130	8
-8372	-6888	11744	-10	15	-27	-16336	272	-1792	7	0	-6	-15536	3880	-2552	-2	-3	18	-9104	6088	12472	17	-10	-24	-16216	2960	-2840	27	-11	18	-15960	3528	-2520	39	3	4	122	130	8
-8408	-6856	11844	-12	18	-26	-16160	184	-1864	-1	2	-11	-15624	3872	-2792	1	-7	19	-9104	6128	12736	15	-10	-20	-16168	2872	-2912	18	-4	18	-15688	3384	-2808	36	0	6	121	129	8
-8356	-6944	11824	-15	14	-26	-16080	80	-1792	6	-4	-8	-15464	3784	-2912	3	-12	20	-9120	6096	12704	16	-1	-20	-16248	2960	-2920	6	-10	13	-15760	3368	-2608	41	3	3	121	130	8
-8332	-6984	11740	-14	17	-25	-16192	160	-1832	9	-4	-11	-15504	3712	-2864	5	-19	22	-9200	6256	12392	16	-6	-20	-16128	3080	-3000	4	-9	13	-15744	3616	-2736	40	0	4	121	130	8
-8368	-6920	11800	-13	19	-27	-16072	96	-1768	1	-8	-9	-15552	3904	-2624	27	-14	21	-9224	6272	12696	18	-5	-22	-16208	3016	-2600	13	-14	17	-15816	3544	-2496	33	-2	1	124	130	8
-8436	-6848	11808	-12	13	-25	-16112	168	-1760	-2	-5	-9	-15584	3904	-2784	36	-13	18	-9120	6184	12352	17	-11	-24	-16200	2872	-2784	29	-12	19	-15736	3640	-2584	29	-1	-3	125	130	8
-8372	-6948	11696	-12	24	-25	-16208	112	-1960	-1	-8	-4	-15592	3848	-2712	20	-11	15	-9144	6208	12424	19	-12	-26	-16200	2912	-2712	23	-12	22	-15880	3248	-2336	18	-5	-3	124	130	8
-8404	-6952	11660	-16	21	-23	-16200	152	-1720	10	-8	-2	-15696	3824	-2568	6	-16	25	-9200	6112	12512	17	-10	-23	-16184	2768	-2848	24	-12	24	-15704	3240	-2512	23	-3	-1	124	129	8
-8424	-6916	11864	-11	18	-22	-16264	112	-1928	4	-6	-6	-15656	3768	-2712	14	-23	28	-9056	6128	12632	19	-8	-18	-16160	2880	-2872	-6	-8	21	-15600	3512	-2800	26	0	5	125	129	8
-8408	-6880	11720	-12	16	-28	-16072	120	-1824	-3	-3	-8	-15664	3848	-2856	12	-21	21	-9192	6192	12616	20	-1	-21	-16296	3016	-2760	-6	-2	14	-15888	3496	-2504	15	-6	3	120	130	8
-8424	-6984	11820	-11	16	-26	-16080	72	-1912	0	-2	-9	-15528	3824	-2744	1	-9	14	-9192	6392	12552	16	-5	-19	-16168	2976	-2864	7	-6	7	-15952	3496	-2240	17	-1	7	124	130	8
-8340	-6896	11748	-13	14	-20	-16320	168	-1848	-8	-3	-9	-15592	3864	-2704	-8	-11	14	-9144	6184	12616	18	-3	-20	-16112	2840	-2768	28	-8	20	-15776	3584	-2424	35	4	11	124	129	8
-8348	-6932	11796	-12	16	-18	-16144	128	-1640	-7	-3	-7	-15584	3944	-2656	-14	-17	19	-9208	6208	12352	15	-11	-25	-16280	3000	-2760	34	-6	25	-15784	3432	-2336	41	-1	5	122	129	8
-8428	-6880	11792	-14	13	-23	-16232	248	-1600	-9	-4	-6	-15680	3872	-2744	-12	-19	18	-9184	6232	12568	20	-6	-20	-16264	2952	-2704	4	-1	22	-15744	3352	-2608	21	-5	-2	123	129	8
-8392	-6916	11752	-13	16	-19	-16232	176	-1640	-3	-6	-7	-15680	3816	-2704	-12	-14	10	-9200	6216	12544	17	1	-18	-16224	2936	-2840	-21	1	14	-15808	3408	-2680	4	0	-5	121	130	8
-8384	-6892	11772	-11	15	-22	-16208	120	-1968	1	-6	-9	-15688	3960	-2584	-10	-18	15	-9256	6200	12480	15	2	-17	-16248	2896	-2760	-23	2	9	-15760	3576	-2424	3	4	0	121	130	8
-8368	-6852	11716	-14	19	-24	-16112	120	-1792	5	-5	-2	-15616	3864	-2704	-5	-12	18	-9232	6256	12552	15	2	-14	-16160	2840	-3016	10	-6	10	-15904	3520	-2416	8	-6	5	125	130	8
-8376	-6928	11768	-17	11	-24	-16256	104	-1600	-3	-3	-4	-15504	3832	-2856	2	-21	16	-9096	6352	12688	16	-5	-21	-16216	2944	-2680	26	-7	15	-15776	3528	-2480	15	-3	9	124	129	8
-8380	-6900	11788	-13	14	-24	-16064	120	-1744	-7	-2	-7	-15616	3864	-2856	-4	-22	12	-9096	6232	12568	15	-8	-23	-16216	2984	-2656	26	-2	26	-15760	3592	-2440	24	-2	7	123	130	8
-8356	-6932	11804	-18	12	-22	-16088	200	-2072	-9	-8	-8	-15592	3784	-2776	-14	-23	14	-9344	6152	12864	16	-7	-20	-16200	2848	-2968	-5	-3	14	-15896	3328	-2696	11	-3	-2	122	129	8
-8316	-6940	11736	-18	16	-22	-16192	48	-1840	-2	-3	-10	-15552	3848	-2672	-5	-21	17	-9200	6144	12600	15	-2	-19	-16272	2864	-2680	-30	-1	16	-15800	3328	-2744	3	4	-11	122	129	8
-8452	-6908	11904	-9	18	-21	-16184	168	-1944	7	-7	-8	-15656	3928	-2832	5	-13	18	-9216	6128	12584	16	0	-15	-16160	2936	-2768	-3	-6	14	-15784	3280	-2648	15	-6	-6	123	130	8
-8328	-6860	11776	-12	11	-27	-16144	288	-1728	0	-1	0	-15496	3776	-2992	0	-13	20	-9048	6336	12584	18	-4	-16	-16368	2840	-2640	14	-9	13	-15896	3576	-2568	22	-11	8	122	129	8
-8336	-6888	11820	-15	17	-23	-16168	184	-1904	4	-9	-9	-15512	3864	-2680	5	-17	15	-9224	6296	12592	19	-8	-24	-16208	2704	-2720	25	-12	28	-16008	3352	-2384	34	1	15	125	129	8
-8416	-6908	11784	-17	14	-26	-16128	256	-1952	-7	-9	-6	-15608	3976	-2928	2	-19	17	-9032	6080	12664	20	-10	-16	-16168	3136	-2736	34	-16	27	-15776	3344	-2376	39	0	12	121	129	8
-8376	-6916	11696	-13	17	-26	-16256	296	-1904	-3	-6	-4	-15664	3760	-2744	-11	-19	11	-9104	6192	12536	15	-5	-20	-16152	3024	-2784	-2	-13	21	-15728	3408	-2712	37	-4	2	121	129	8
-8404	-6876	11856	-14	16	-25	-16160	152	-1976	7	-10	-9	-15816	3840	-2600	-10	-16	16	-9072	6184	12536	18	-4	-19	-16240	2984	-2808	-14	-6	14	-15816	3464	-2456	28	-12	3	122	129	8
-8364	-6900	11736	-12	14	-25	-16272	176	-1824	1	-5	-2	-15440	3688	-2680	8	-17	15	-9176	6248	12456	15	-7	-22	-16224	2968	-2904	-3	-5	9	-15768	3608	-2640	17	-9	5	121	129	8
-8288	-6896	11700	-16	14	-25	-16264	160	-1984	9	-5	-12	-15584	3688	-2760	14	-15	19	-9088	6176	12496	18	-10	-20	-16280	2864	-2824	25	-13	19	-15872	3520	-2560	19	0	-2	122	129	8
-8384	-6884	11776	-14	18	-25	-16128	192	-1928	3	-9	-4	-15560	3936	-2728	13	-15	22	-9192	6144	12504	21	-13	-22	-16112	3008	-2904	43	-18	24	-15640	3448	-2592	37	-6	2	123	128	8
-8244	-6960	11632	-13	16	-23	-16144	104	-1744	-2	-2	-7	-15520	3856	-2736	21	-24	18	-9072	6216	12776	15	-8	-27	-16104	2992	-2688	21	-9	21	-15800	3320	-2584	29	-9	1	121	129	8
-8356	-6848	11764	-12	20	-27	-16272	120	-1912	1	-7	-9	-15680	3832	-2552	24	-28	22	-9064	6336	12664	17	-12	-15	-16104	2872	-2616	8	-6	11	-15808	3312	-2304	9	-11	2	123	129	8
-8376	-6860	11740	-6	12	-26	-16192	272	-1792	6	-3	-7	-15600	3952	-2720	24	-24	20	-9192	6136	12672	12	1	-20	-16120	2984	-2912	-13	-2	11	-15872	3536	-2448	4	-6	4	124	129	8
-8384	-6892	11752	-16	16	-23	-16136	184	-1944	20	-3	-3	-15712	3768	-2584	39	-16	29	-9104	6144	12696	17	0	-20	-16216	2944	-2624	13	-6	17	-15704	3408	-2552	18	-3	-1	122	129	8
-8384	-6880	11692	-12	13	-24	-16232	176	-1712	4	-4	-6	-15648	3936	-2528	16	-18	18	-9136	6296	12728	19	-9	-17	-16096	3080	-2696	18	-10	19	-15752	3472	-2608	30	-2	-4	123	129	8
-8388	-7004	11792	-12	17	-20	-16128	232	-1896	9	-5	-7	-15568	3848	-2656	-6	-16	14	-9088	6328	12472	17	-7	-22	-16176	3080	-2864	13	-11	24	-15672	3520	-2408	38	-1	-4	121	129	8
-8396	-6952	11732	-12	16	-21	-16032	240	-2032	6	-1	-6	-15480	3896	-2520	-15	-16	18	-9080	6040	12464	17	-7	-17	-16232	2992	-2568	5	1	16	-15816	3440	-2592	31	0	4	125	129	8
-8364	-6864	11696	-11	12	-20	-16128	192	-1944	-1	2	-9	-15640	4032	-2960	-11	-17	15	-9072	6248	12632	13	-10	-27	-16280	2960	-2776	6	1	13	-15800	3272	-2456	24	2	11	123	129	8
-8436	-6912	11780	-14	11	-21	-16040	392	-1848	2	-1	-5	-15624	3752	-2776	-6	-6	15	-9160	6256	12464	15	-7	-22	-16248	2864	-2920	3	-8	14	-15856	3368	-2448	26	2	8	122	129	8
-8448	-6936	11724	-18	13	-20	-16216	264	-1640	-2	2	-6	-15624	3800	-2848	1	-5	8	-9176	6288	12624	11	-4	-19	-16168	2840	-2696	16	-6	22	-15736	3480	-2584	30	-8	1	121	129	8
-8372	-6868	11760	-12	12	-25	-16272	192	-1808	2	0	-4	-15656	3840	-2872	-9	-13	11	-9096	6352	12296	21	-3	-18	-16128	3016	-2760	15	-6	16	-15816	3616	-2536	27	-9	3	122	130	8
-8416	-6964	11736	-15	17	-23	-16184	120	-1944	6	-1	-6	-15512	3816	-2824	-9	-19	20	-9240	6224	12360	14	-5	-19	-16264	3048	-3104	1	-4	15	-15904	3640	-2568	6	2	3	122	129	8
-8388	-6896	11860	-12	15	-24	-16136	232	-1848	2	-5	-6	-15568	3816	-2792	4	-20	24	-9024	6264	12712	10	-2	-24	-16200	2976	-2752	2	-1	12	-15848	3496	-2656	3	4	2	122	129	8
-8412	-6880	11792	-13	17	-19	-16184	304	-1832	-6	-7	-9	-15664	3984	-2728	18	-18	23	-9136	6144	12736	15	-3	-20	-16120	2944	-2904	11	-3	15	-15832	3200	-2288	10	4	-3	124	129	8
-8404	-6884	11760	-18	16	-26	-16176	272	-1656	-9	-4	-12	-15624	3992	-2944	18	-14	12	-9000	6288	12528	14	-2	-20	-16160	2928	-2792	16	-3	16	-15888	3320	-2480	25	0	-5	121	129	8
-8364	-6844	11744	-12	14	-24	-16208	184	-2112	-7	-5	-13	-15672	3880	-2704	7	-16	16	-9120	6240	12504	12	-6	-22	-16088	3136	-2728	5	-1	16	-15904	3416	-2536	21	-4	-4	123	129	8
-8376	-6932	11788	-17	19	-24	-16184	168	-1952	6	0	-3	-15672	3872	-2696	-4	-19	19	-8920	6216	12864	16	-2	-25	-16112	2984	-2840	-8	-2	18	-15768	3568	-2560	19	1	0	122	129	8
-8404	-6928	11672	-13	16	-18	-16168	208	-2048	8	-3	-3	-15544	3800	-2680	-10	-22	14	-9264	6184	12784	14	-7	-21	-16312	2904	-2784	-3	1	12	-15744	3440	-2624	13	2	10	123	129	8
-8412	-6908	11820	-15	16	-20	-16088	288	-1976	-3	-5	-6	-15696	3888	-2856	0	-16	16	-9240	6304	12472	15	-6	-17	-16224	2776	-2848	11	-12	12	-15856	3448	-2928	22	0	6	124	129	8
-8324	-6856	11836	-12	12	-24	-16248	208	-1872	0	-5	-16	-15744	3912	-2432	15	-1	19	-9080	6224	12584	19	-2	-20	-16176	2840	-2824	31	-8	16	-15848	3424	-2560	42	-1	1	121	129	8
-8356	-6932	11728	-17	9	-29	-16168	64	-1720	-16	0	-8	-15576	3928	-2528	5	0	13	-9136	6216	12744	20	-8	-23	-16272	2912	-2576	26	-14	16	-15864	3312	-2264	32	-8	-1	121	129	8
-8360	-6916	11812	-13	20	-29	-16112	48	-1864	2	-6	-8	-15512	3920	-2568	-24	-6	10	-9144	6168	12512	13	-7	-26	-16088	2872	-2784	3	-4	17	-15824	3648	-2560	30	-10	-3	125	129	8
-8416	-6968	11768	-10	17	-23	-16104	80	-1984	16	0	-5	-15592	3840	-2792	-30	-15	15	-9128	6128	12672	17	-2	-21	-16152	2952	-2752	-7	-3	16	-16008	3520	-2384	13	0	-2	122	129	8
-8376	-6948	11796	-12	15	-25	-16240	184	-1928	15	-4	-6	-15688	3600	-2912	-4	-23	20	-9120	6192	12784	16	-7	-17	-16216	2928	-3136	-2	-1	10	-15888	3360	-2680	7	1	-2	124	129	8
-8424	-6960	11696	-15	14	-29	-16336	120	-1760	11	-4	-3	-15808	3664	-2976	18	-22	15	-9160	6224	12744	19	-6	-17	-16208	2992	-2768	12	-14	17	-15760	3424	-2568	31	-1	5	121	129	8
-8416	-6888	11820	-16	14	-25	-16184	248	-1864	-6	-2	-8	-15512	3848	-2904	15	-16	16	-8992	6128	12560	19	-10	-23	-16104	2872	-2568	21	-12	20	-15816	3448	-2320	29	-7	0	123	129	8
-8428	-6912	11800	-14	12	-22	-16168	192	-1984	-2	-4	-12	-15616	3984	-2776	12	-22	22	-9288	6192	12536	16	-13	-23	-16208	2968	-2768	8	-9	19	-15832	3544	-2568	27	-6	5	122	129	8
-8364	-6992	11752	-12	15	-28	-16264	160	-2016	9	-9	-1	-15672	3936	-2872	15	-20	26	-9072	6200	12608	13	-6	-22	-16184	2712	-2616	4	-10	18	-15904	3440	-2520	23	-4	3	124	129	8
-8368	-6916	11896	-12	12	-21	-16208	112	-2000	14	-6	-6	-15456	3816	-2768	20	-21	23	-9104	6216	12568	15	-1	-19	-16144	3000	-2752	12	-11	15	-15936	3288	-2520	18	-3	5	124	129	8
-8412	-6920	11744	-15	16	-25	-16128	160	-1912	9	-4	-9	-15552	3848	-2872	25	-23	19	-9168	6264	12680	21	-12	-19	-16136	2976	-3040	20	-11	19	-15840	3400	-2496	32	-7	9	123	129	8
-8348	-6880	11768	-13	22	-29	-16072	264	-1864	4	-3	-7	-15632	3776	-2912	16	-23	16	-9184	6240	12480	16	-6	-21	-16008	2888	-2864	17	-5	19	-15896	3472	-2384	26	-7	3	123	129	8
-8392	-6888	11776	-12	17	-28	-16104	112	-1752	-1	-2	-9	-15560	3960	-2672	7	-15	16	-8984	6240	12616	15	-5	-21	-16288	2968	-2920	4	-6	17	-15888	3304	-2696	22	-7	1	124	129	8
-8352	-6948	11808	-8	17	-22	-16024	48	-1888	3	-7	-4	-15544	3864	-2736	-4	-19	13	-9096	6096	12576	14	-7	-16	-16304	2880	-2792	-5	-6	16	-15808	3384	-2408	20	-1	2	124	129	8
-8388	-6932	11872	-13	14	-23	-16352	240	-1832	9	-4	-6	-15800	3856	-2696	-17	-16	15	-9104	6144	12472	19	-7	-16	-16232	2848	-2848	-1	-8	14	-15936	3344	-2392	17	0	0	123	129	8
-8388	-6888	11780	-13	21	-23	-16208	432	-1720	3	-5	-4	-15592	3784	-2808	-2	-13	22	-8960	6144	12672	12	-2	-15	-16224	2984	-2824	16	-4	16	-15952	3488	-2448	22	2	8	122	129	8
-8392	-6880	11776	-16	12	-24	-16144	256	-1728	-11	-2	-7	-15632	3744	-2712	5	-14	14	-9032	6152	12624	17	-8	-23	-16168	2928	-2880	21	-10	17	-15768	3512	-2456	29	-6	7	124	129	8
-8388	-6920	11732	-14	16	-23	-16112	32	-1832	-4	-7	-5	-15552	3936	-2864	-6	-19	10	-9104	6224	12648	14	-7	-21	-16240	2896	-2704	12	-12	18	-15696	3520	-2536	31	-9	5	123	129	8
-8408	-6980	11776	-15	17	-26	-16184	80	-2072	6	-5	-6	-15576	3880	-2672	-12	-17	12	-9160	6184	12640	16	-10	-20	-16296	2968	-2712	4	-7	19	-15840	3480	-2648	21	-4	2	123	129	8
-8356	-6960	11808	-12	15	-19	-16280	96	-2096	7	-5	-3	-15736	3808	-2592	-7	-21	15	-9040	6184	12672	17	-7	-19	-16104	2848	-2728	-3	-6	14	-15984	3440	-2496	5	-2	0	123	129	8
-8384	-6896	11744	-13	15	-19	-16032	192	-1984	3	-7	-3	-15656	3696	-2648	17	-19	17	-8992	6312	12440	18	-4	-16	-16216	2904	-2912	5	-7	19	-15864	3512	-2584	10	3	0	124	130	8
-8368	-6820	11852	-11	14	-19	-16256	200	-1912	-6	-4	-5	-15536	3832	-2728	24	-17	22	-9160	6256	12648	21	-4	-15	-16272	2944	-2632	17	-6	17	-15912	3352	-2624	26	-1	0	122	129	8
-8324	-6960	11732	-14	15	-22	-16240	120	-1792	-2	0	-8	-15656	3848	-2728	13	-18	22	-9232	6128	12728	14	-8	-16	-16208	2936	-2856	9	-7	18	-15816	3384	-2616	27	-6	-1	123	129	8
-8360	-6968	11860	-13	13	-19	-16200	104	-1672	11	-3	-7	-15528	3880	-2784	-1	-23	24	-9160	6248	12632	21	-10	-21	-16280	2712	-2672	8	-3	19	-15960	3472	-2352	19	-5	-3	121	129	8
-8296	-6944	11816	-12	17	-23	-16208	184	-1840	8	-2	-5	-15688	3816	-2712	7	-25	23	-9168	6120	12632	16	-7	-20	-16248	2936	-2728	8	-2	18	-15888	3392	-2504	7	1	4	122	129	8
-8332	-6824	11788	-14	14	-23	-16280	232	-1760	9	-7	-6	-15648	3856	-2584	21	-13	22	-9136	6200	12456	19	-7	-14	-16240	3088	-2768	5	-3	18	-15800	3328	-2632	19	7	7	121	130	8
-8420	-6876	11660	-17	10	-26	-16064	168	-2112	-5	-1	-3	-15488	3848	-2720	13	-6	9	-9264	6304	12424	23	-10	-17	-16184	2912	-2600	15	-1	19	-15784	3520	-2384	49	-9	4	123	129	8
-8288	-6952	11820	-16	10	-21	-16176	176	-1752	-4	0	-8	-15472	3920	-3056	-19	-2	10	-9080	6256	12616	18	-8	-18	-16248	2960	-2696	16	-2	17	-15952	3560	-2784	34	-6	8	122	129	8
-8256	-6984	11772	-12	14	-24	-16216	152	-1896	4	-3	-7	-15608	3832	-2768	-34	-11	14	-9144	6296	12712	16	-7	-17	-16264	2920	-2848	10	-3	16	-15856	3544	-2360	13	-6	9	124	129	8
-8340	-6936	11692	-11	14	-23	-16120	96	-1928	7	-1	-4	-15640	3920	-2896	-19	-20	20	-9152	6232	12568	15	-6	-21	-16072	2960	-2688	9	-3	15	-15736	3560	-2560	13	4	4	123	129	8
-8392	-6932	11788	-15	15	-19	-16128	304	-1872	2	-3	-5	-15680	3784	-2936	5	-16	17	-9128	6208	12640	16	-13	-20	-16104	2880	-2704	5	-1	13	-15768	3520	-2288	18	3	-2	123	129	8
-8456	-6896	11796	-15	14	-22	-16136	192	-1800	-6	2	-5	-15648	3712	-3016	11	-12	17	-9232	6400	12800	17	-3	-22	-16272	2960	-2632	6	-4	17	-15824	3512	-2576	26	-5	-7	121	129	8
-8396	-6868	11820	-15	11	-28	-16232	160	-1792	-4	0	-9	-15544	3848	-2968	12	-13	20	-9104	6256	12752	14	-7	-19	-16208	2928	-2712	2	0	14	-15880	3560	-2304	20	-7	-7	124	130	8
-8380	-6968	11668	-11	18	-22	-16136	40	-1688	7	-2	-4	-15632	3832	-2712	12	-18	21	-9216	6280	12552	13	-7	-19	-16160	2896	-2856	7	3	16	-15864	3352	-2584	16	5	1	124	129	8
-8372	-6916	11768	-13	19	-22	-16192	160	-1576	11	1	0	-15592	3864	-2472	14	-19	23	-9016	6208	12776	17	-11	-21	-16152	3000	-2656	18	-9	15	-15856	3240	-2344	14	2	6	125	129	8
-8356	-6892	11744	-8	12	-22	-16304	320	-1696	-3	-1	-1	-15512	3832	-2320	13	-12	15	-9168	6208	12592	15	-7	-16	-16112	2992	-2896	20	-7	15	-15696	3424	-2360	20	-1	8	122	129	8
-8368	-6856	11788	-12	13	-21	-16264	384	-1824	-10	2	-9	-15496	3792	-2672	3	-14	15	-9160	6176	12584	16	-6	-19	-16128	2936	-2792	0	0	16	-15784	3432	-2496	34	-5	4	122	129	8
-8372	-6828	11836	-13	16	-25	-16176	96	-1824	-2	2	-10	-15584	3912	-2776	-5	-11	15	-9144	6312	12656	15	-4	-23	-16168	2904	-2752	2	-2	18	-15672	3440	-2408	34	0	1	122	129	8
-8376	-6992	11700	-14	15	-21	-16128	128	-1984	3	-3	-3	-15520	3936	-2736	-11	-17	21	-8904	6200	12576	14	-8	-20	-16216	2816	-2848	-3	-4	16	-15784	3632	-2560	23	4	1	123	129	8
-8408	-6924	11832	-11	15	-21	-16088	352	-1896	18	-1	-2	-15600	3768	-2736	-12	-14	22	-9144	6144	12680	16	-3	-21	-16264	2872	-2936	12	-3	20	-15968	3480	-2552	20	1	0	121	129	8
-8360	-6860	11728	-12	17	-23	-16192	304	-1920	-3	-5	-5	-15552	3832	-2792	6	-6	17	-9104	6232	12544	17	-3	-17	-16160	2968	-2816	15	-3	16	-15984	3400	-2384	17	3	1	121	129	8
-8336	-6892	11680	-17	11	-26	-16136	288	-1880	-11	1	-9	-15560	3864	-2744	3	-8	10	-9176	6232	12544	14	-9	-19	-16200	2840	-2824	7	-8	24	-15640	3432	-2464	18	-3	2	121	129	8
-8336	-6956	11776	-15	18	-22	-16144	256	-1768	-6	-4	-11	-15584	4096	-2672	-14	-13	12	-9064	6152	12776	15	-6	-17	-16184	2944	-2640	1	-6	17	-15704	3432	-2640	16	-7	-2	122	129	8
-8376	-6876	11800	-15	19	-23	-16168	192	-1960	4	-2	-6	-15600	3952	-2768	-14	-16	17	-9024	6216	12704	14	-1	-16	-16232	2992	-2888	0	-4	18	-15768	3472	-2672	8	0	0	123	128	8
-8424	-6964	11756	-11	19	-15	-16112	248	-1944	3	-2	-6	-15656	3752	-2768	10	-20	19	-9152	6152	12672	19	-6	-20	-16144	2864	-2912	-2	-1	22	-15896	3384	-2552	16	1	0	124	129	8
-8392	-6884	11676	-15	18	-24	-16096	272	-2072	0	-5	-7	-15560	3672	-2864	16	-12	16	-9120	6184	12832	19	-7	-16	-16136	2968	-2768	9	-5	14	-15744	3440	-2904	24	-2	0	124	129	8
-8324	-6916	11732	-14	12	-23	-16272	248	-1776	-6	-3	-6	-15456	3840	-2744	5	-14	16	-8968	6432	12752	44	-14	-33	-16240	2680	-2768	24	-15	20	-15848	2976	-2496	44	3	-23	125	130	8
-8348	-6984	11756	-19	17	-20	-16112	152	-1768	1	-3	-12	-15624	3952	-2568	12	-20	26	-9040	6104	12648	21	-12	-24	-16240	3032	-2872	91	-19	31	-16080	3376	-2296	94	-17	-4	124	129	8
-8336	-6972	11712	-21	15	-22	-16168	176	-1688	-5	-1	-9	-15720	3952	-2520	7	-24	28	-9344	6208	12624	16	-10	-24	-16160	2952	-2608	55	-18	22	-15848	3704	-2560	85	-11	28	123	129	8
-8380	-6888	11756	-18	15	-23	-16200	192	-1624	-5	-2	-8	-15624	3872	-2672	5	-13	14	-9200	6192	12336	15	-10	-23	-16184	2952	-2720	1	-1	21	-15776	3584	-2504	43	8	22	121	129	8
-8424	-6868	11748	-17	11	-26	-16136	120	-1888	-5	-3	-9	-15552	3832	-2696	-14	1	-2	-9136	6128	12568	19	-7	-25	-16240	3072	-2808	-31	7	10	-15728	3544	-2512	-3	-5	0	125	130	8
-8328	-6944	11680	-16	15	-21	-16224	184	-2040	-1	-3	-11	-15544	3992	-2584	-29	-6	6	-9120	6264	12472	16	0	-19	-16320	2872	-2848	-18	1	11	-15904	3536	-2344	-7	-3	-13	124	129	8
-8396	-6896	11680	-14	17	-19	-16208	256	-1872	15	-7	-6	-15760	3720	-2568	-19	-15	15	-9176	6336	12576	13	-3	-17	-16032	2832	-2848	15	-6	12	-15832	3464	-2616	19	2	-6	122	129	8
-8356	-6912	11660	-16	19	-24	-16208	440	-1848	-2	-3	-10	-15704	3672	-2432	-2	-23	16	-9064	6064	12656	11	-7	-26	-16104	2976	-3008	38	-8	20	-15728	3560	-2248	21	5	-3	123	129	8
-8392	-7000	11664	-15	17	-21	-16064	184	-1744	-18	-7	-12	-15608	3776	-2672	-3	-16	10	-9144	6192	12528	16	-15	-24	-16208	3096	-2632	13	-4	13	-15896	3480	-2656	4	-1	-1	121	128	8
-8368	-6872	11760	-14	12	-24	-16088	184	-1832	-4	-7	-14	-15464	3792	-3056	2	-16	11	-9040	6080	12704	14	-7	-21	-16360	2784	-2992	-19	-4	16	-15688	3376	-2768	1	-2	-9	122	129	8
-8420	-6876	11712	-13	13	-25	-16080	144	-1896	-1	-4	-8	-15568	3752	-2824	11	-17	22	-9192	6176	12688	13	-7	-19	-16256	2928	-2520	-13	-3	11	-15728	3368	-2440	10	-2	-9	122	129	8
-8336	-6916	11716	-17	15	-25	-16224	304	-1808	3	-3	-8	-15544	3816	-2856	21	-23	20	-9160	6264	12808	14	-3	-14	-16016	2912	-2600	1	-6	14	-15808	3504	-2576	21	-3	8	121	129	8
-8376	-6948	11804	-16	15	-21	-16136	296	-2024	12	-5	-10	-15536	3816	-2632	22	-20	16	-9136	6232	12504	16	-8	-19	-16184	2984	-2640	16	-5	21	-15832	3560	-2552	38	-6	15	123	129	8
-8392	-6936	11696	-14	15	-23	-16200	272	-1720	7	-6	-9	-15680	3952	-2712	17	-19	15	-9168	6240	12560	17	-6	-24	-16160	2968	-2728	19	-9	21	-15984	3520	-2584	33	-4	17	124	129	8
-8404	-6988	11888	-13	14	-30	-16136	272	-1968	2	-3	-6	-15600	3912	-2640	9	-14	15	-9216	6288	12616	17	-3	-23	-16264	2912	-2880	6	-5	17	-15800	3416	-2384	26	-2	0	124	129	8
-8376	-6936	11752	-12	14	-24	-16312	136	-1696	4	-3	-5	-15600	3784	-2888	4	-12	18	-9200	6088	12536	16	-4	-18	-16216	3024	-2808	3	-10	15	-15784	3440	-2864	18	-1	-4	123	129	8
-8276	-6932	11772	-14	19	-22	-16168	144	-1744	13	-7	-9	-15744	3808	-2776	5	-13	21	-9040	6120	12512	18	-12	-17	-16288	2864	-2536	4	-8	19	-15872	3272	-2408	25	-4	-6	124	129	8
-8404	-6936	11816	-14	16	-25	-16208	168	-1920	11	-1	-2	-15632	3744	-2728	6	-15	19	-9136	6144	12584	16	-7	-20	-16240	2864	-2656	15	-11	13	-15800	3480	-2384	37	-9	-1	122	129	8
-8376	-6960	11736	-11	15	-21	-16112	72	-1512	15	1	-9	-15528	3888	-2672	7	-20	15	-9040	6248	12760	17	-12	-22	-16200	2896	-3000	25	-9	19	-15840	3520	-2280	33	1	4	123	129	8
-8336	-6956	11744	-14	14	-24	-16240	192	-1800	9	-2	-8	-15560	3848	-2752	19	-19	23	-9200	6072	12488	16	-5	-20	-16240	2872	-2720	21	-9	26	-16040	3576	-2344	33	2	8	123	129	8
-8364	-6812	11740	-15	14	-18	-16096	232	-1944	9	-4	-9	-15608	4008	-2488	24	-12	20	-9192	6304	12712	20	-12	-20	-16256	2864	-2792	22	-8	18	-15904	3224	-2520	35	-3	5	121	128	8
-8348	-6940	11728	-10	15	-23	-16184	168	-1584	4	-3	-6	-15560	3832	-2840	11	-12	15	-9208	6136	12688	20	-7	-20	-16208	2840	-2664	24	-5	12	-15744	3360	-2560	34	0	8	124	128	8
-8360	-6948	11792	-13	15	-27	-16216	48	-1616	1	-4	-7	-15480	3928	-2984	-8	-13	17	-9192	6200	12600	16	-12	-24	-16320	2952	-2624	5	-6	15	-15904	3376	-2336	41	-5	5	124	129	8
-8372	-6972	11764	-15	19	-23	-16200	224	-1760	6	-3	-6	-15616	3832	-2832	-4	-17	22	-9120	6104	12560	16	-6	-23	-16232	3000	-2760	9	-4	19	-15736	3640	-2392	24	-3	4	123	128	8
-8372	-6892	11808	-15	17	-28	-16120	120	-1920	0	-3	-6	-15688	3816	-2728	13	-16	20	-9288	6264	12320	15	-3	-23	-16272	2936	-2848	8	-4	17	-15816	3568	-2552	17	4	2	122	129	8
-8340	-6924	11628	-12	14	-24	-16104	80	-1912	-9	-4	-9	-15576	3784	-2704	6	-12	13	-9216	6144	12304	14	-4	-22	-16040	2808	-2784	18	-6	14	-15760	3320	-2472	11	6	-1	122	129	8
-8332	-6920	11716	-15	16	-21	-16240	256	-1624	-8	-1	-8	-15584	3776	-2888	-5	-19	14	-9088	6216	12640	11	1	-23	-16160	2872	-2592	8	-6	21	-15784	3336	-2512	18	0	1	124	128	8
-8332	-6916	11732	-14	12	-25	-16064	200	-1976	1	-2	-8	-15664	3776	-2728	0	-21	21	-9072	6064	12560	16	-6	-20	-16112	2928	-2384	-3	-1	18	-15840	3408	-2392	11	1	4	123	130	8
-8392	-6916	11844	-12	14	-21	-16072	232	-1992	0	-4	-10	-15616	3800	-2392	8	-23	23	-9064	6248	12608	18	-8	-20	-16304	2904	-2824	-11	6	15	-15928	3400	-2592	3	1	2	123	129	8
-8352	-6884	11820	-18	15	-21	-16128	368	-1824	-4	-3	-9	-15752	3832	-2440	10	-15	19	-9208	6352	12624	15	-2	-16	-16096	3000	-2848	-1	0	14	-15800	3424	-2328	7	3	2	122	128	8
-8376	-6876	11792	-12	12	-18	-16048	192	-1872	-5	-1	-5	-15616	3952	-2648	-1	-7	14	-9072	6080	12384	15	5	-23	-16120	2912	-2768	-2	-2	16	-15744	3520	-2280	18	5	-1	121	129	8
-8380	-6892	11696	-15	11	-20	-16064	48	-1960	-2	0	-5	-15480	3928	-2584	-16	-9	17	-9184	6256	12712	12	-4	-21	-16208	2936	-2976	20	3	20	-15824	3400	-2472	29	4	-3	121	129	8
-8324	-6928	11864	-14	12	-24	-16248	8	-1904	-2	-1	-3	-15632	3824	-2792	-20	-16	15	-9136	6272	12600	17	-3	-19	-16160	2784	-2872	3	-3	21	-15872	3432	-2584	31	4	4	121	128	8
-8404	-6928	11832	-16	17	-20	-16112	192	-1960	5	-2	-11	-15576	3704	-2816	-26	-14	18	-9176	6080	12616	14	1	-21	-16152	2880	-2912	-5	-6	20	-15824	3416	-2440	29	10	7	122	128	8
-8380	-6864	11708	-7	12	-23	-16264	296	-1928	-4	-4	-8	-15624	3784	-2872	-6	-6	10	-9200	6288	12584	19	-6	-21	-16352	2952	-2880	-4	0	16	-15848	3360	-2568	16	1	10	122	129	8
-8432	-6884	11740	-10	16	-20	-16264	248	-1816	-8	-3	-6	-15648	3912	-2632	5	-4	11	-9024	6232	12864	16	0	-18	-16304	2896	-2864	-8	-2	16	-15760	3368	-2448	17	-8	7	123	128	8
-8360	-6992	11764	-13	14	-26	-16168	56	-1744	-1	-2	-4	-15504	3736	-2712	-2	-9	13	-9032	6264	12488	17	-4	-16	-16256	2944	-2840	20	-4	15	-15760	3648	-2448	24	-5	7	123	128	8
-8416	-6984	11748	-13	13	-18	-16088	104	-2000	8	0	-3	-15696	3752	-2784	1	-19	22	-9048	6040	12808	10	-7	-21	-16136	2840	-2768	16	-8	21	-15800	3576	-2624	31	-3	5	124	128	8
-8308	-6920	11700	-10	16	-19	-16216	184	-1880	10	0	-2	-15784	3784	-2832	11	-28	30	-9136	6144	12440	14	-8	-22	-16104	2984	-2528	17	-5	19	-15784	3488	-2712	32	1	5	122	128	8
-8348	-6892	11836	-9	15	-21	-16104	248	-1848	2	1	-3	-15616	3704	-2912	23	-24	30	-9232	6144	12696	17	-4	-24	-16176	2944	-3048	9	-5	13	-15776	3368	-2680	18	3	-4	122	129	8
-8336	-6932	11772	-15	18	-22	-16168	288	-2080	4	-3	-9	-15640	3912	-2656	27	-14	23	-9136	6200	12504	14	-5	-20	-16200	2848	-2712	16	-4	8	-15864	3280	-2448	28	-2	-2	124	128	8
-8360	-6896	11776	-12	17	-25	-16176	208	-1888	1	0	-1	-15440	3848	-2672	12	-16	18	-9168	6384	12584	19	-7	-16	-16248	2872	-3008	23	-3	12	-15816	3368	-2272	36	-5	8	123	128	8
-8352	-6896	11772	-8	19	-25	-16184	56	-1768	10	-1	0	-15504	3928	-2680	1	-22	21	-9024	6464	12568	14	-13	-17	-16184	2872	-2616	56	-9	17	-15872	3544	-2400	43	-4	16	123	129	8
-8448	-6920	11832	-15	13	-20	-16360	160	-1792	9	-2	-3	-15672	3952	-2728	-2	-23	21	-9208	6352	12448	14	-8	-26	-16128	3096	-2624	39	-4	16	-15824	3448	-2584	39	-3	13	121	128	8
-8376	-6892	11796	-16	14	-23	-16048	184	-2072	1	1	-5	-15744	3984	-2656	-8	-20	12	-9064	6280	12592	21	-14	-20	-16136	2896	-2792	8	-7	24	-15816	3352	-2520	37	0	9	125	129	8
-8364	-6900	11748	-12	16	-21	-16272	224	-1816	0	-1	-8	-15568	4032	-2552	-13	-11	9	-9056	6176	12736	20	-6	-20	-16376	2904	-3104	-6	-4	16	-15728	3336	-2760	22	-2	-2	123	129	8
-8376	-6892	11768	-14	14	-24	-16216	352	-1896	-4	-5	-4	-15400	3896	-2816	-21	-9	10	-9128	6200	12456	20	-6	-13	-16160	2936	-2856	-11	-9	13	-15776	3464	-2528	10	-3	-2	124	129	8
-8396	-6896	11740	-15	12	-19	-16128	160	-1536	0	-6	-12	-15616	3856	-2600	-23	-16	10	-9120	6288	12368	16	-4	-18	-16288	3024	-2712	4	-11	14	-15760	3608	-2712	10	-8	3	126	128	8
-8384	-6960	11812	-16	17	-24	-16176	72	-1896	-1	-14	-8	-15480	3840	-2792	-7	-19	16	-9208	6272	12536	18	-6	-21	-16240	2912	-2816	13	-11	22	-15744	3560	-2504	5	-7	8	124	128	8
-8416	-6960	11700	-18	16	-23	-16272	104	-1848	-12	-11	-10	-15624	3904	-2568	4	-18	9	-9000	6264	12480	15	-5	-21	-16184	2936	-2592	13	-12	21	-15824	3360	-2536	-6	-8	1	125	128	8
-8352	-6948	11808	-15	14	-27	-16208	144	-1896	-11	-15	-9	-15528	3992	-2672	6	-23	11	-9048	6216	12824	16	-9	-19	-16176	2928	-2736	3	-12	13	-15752	3384	-2632	6	-4	-9	122	128	8
-8384	-6860	11804	-18	15	-21	-16320	128	-1824	-2	-13	-8	-15600	3840	-2832	9	-25	13	-9168	6312	12464	15	-3	-18	-16224	2840	-2720	-3	-8	14	-15776	3536	-2784	25	-4	-9	123	128	8
-8368	-6960	11868	-19	15	-23	-16096	200	-1816	0	-9	-8	-15712	3656	-2560	13	-24	22	-9216	6208	12560	13	-5	-17	-16168	2880	-3048	2	-14	19	-15800	3592	-2280	29	-8	-5	124	128	8
-8388	-6928	11760	-13	14	-28	-16248	248	-1896	9	-10	-8	-15672	3664	-2904	12	-27	23	-9120	6224	12696	16	-4	-23	-16200	2952	-2736	2	-8	15	-15776	3480	-2552	11	-7	0	122	129	8
-8328	-6876	11788	-16	13	-24	-16096	208	-1512	0	-11	-8	-15640	3776	-2616	17	-24	16	-9072	6192	12560	14	-8	-21	-16248	2800	-2600	15	-10	13	-15904	3328	-2464	20	-5	4	123	128	8
-8400	-6884	11804	-10	14	-25	-16232	152	-1568	-10	-9	-11	-15640	3992	-2712	16	-18	14	-9032	6168	12768	17	-8	-18	-16224	2880	-2800	15	-6	9	-15912	3240	-2520	28	-4	8	121	129	8
-8320	-6888	11668	-11	15	-26	-16136	80	-2048	-1	-3	-8	-15640	3904	-2616	-3	-20	12	-9232	6144	12760	13	-7	-22	-16152	2792	-2656	20	-3	17	-15816	3264	-2464	30	-10	3	125	128	8
-8376	-6972	11776	-8	14	-24	-16080	176	-1712	6	-4	-10	-15616	3896	-2496	-18	-19	12	-9136	6112	12864	17	-12	-23	-16272	2880	-2856	5	-8	17	-15768	3480	-2592	41	-11	-1	124	127	8
-8368	-6916	11740	-10	14	-23	-16280	208	-1800	12	-6	-2	-15552	3736	-2728	-20	-19	14	-8992	6096	12664	14	-5	-19	-16152	2840	-2808	-1	-8	18	-15872	3552	-2624	15	-5	-4	123	129	8
-8344	-6900	11732	-14	18	-21	-16160	160	-1672	8	-4	-4	-15736	3744	-2592	-6	-9	17	-9208	6368	12704	19	-6	-18	-16200	2880	-2976	10	-8	13	-15976	3464	-2712	15	-10	-2	123	128	8
-8372	-6932	11724	-14	11	-26	-16200	240	-1968	-6	-1	-7	-15656	3840	-2584	8	-7	15	-9032	6216	12496	19	-9	-19	-16176	2976	-2792	17	-11	14	-15928	3592	-2392	32	-4	7	125	128	8
-8384	-6984	11752	-10	17	-26	-16128	144	-1712	0	-9	-10	-15624	3864	-2904	8	-16	12	-9136	6112	12776	16	-6	-23	-16056	2768	-2848	26	-10	27	-15768	3584	-2304	29	-2	5	123	128	8
-8364	-6884	11764	-11	20	-26	-16032	208	-1864	4	-6	-10	-15544	3752	-2488	4	-23	17	-9096	6112	12576	19	-13	-21	-16184	2768	-2888	15	-13	20	-15888	3424	-2616	30	-7	5	123	128	8
-8380	-6904	11744	-13	18	-22	-16200	256	-1880	14	-9	-4	-15504	3840	-2712	12	-25	21	-9032	6168	12776	17	-9	-17	-16152	2824	-2768	-1	-11	20	-15832	3344	-2480	25	-2	-2	122	129	8
-8364	-6912	11856	-12	18	-23	-16352	176	-1912	11	-6	-5	-15616	3800	-2680	24	-22	27	-9136	6120	12696	20	-8	-19	-16144	3008	-2592	3	-12	18	-15824	3496	-2472	18	-2	0	123	128	8
-8424	-6916	11856	-11	18	-22	-16040	192	-1864	2	-2	-11	-15672	3800	-2624	30	-20	23	-9152	6168	12528	21	-10	-14	-16136	2872	-2688	8	-8	16	-15800	3464	-2440	16	-2	7	122	128	8
-8396	-6936	11760	-14	14	-24	-16192	160	-1768	-8	-8	-3	-15600	3856	-2472	29	-17	24	-9136	6216	12696	14	-2	-16	-16184	2968	-2728	19	-7	22	-15728	3384	-2296	21	-6	7	122	129	8
-8360	-6944	11708	-16	19	-25	-16120	16	-1736	-1	-12	-7	-15640	3880	-2528	5	-20	16	-9016	6264	12544	14	-3	-23	-16168	3016	-2608	15	-7	17	-15984	3384	-2464	28	-3	3	122	129	8
-8352	-6964	11764	-11	13	-20	-16048	40	-1768	8	-8	0	-15632	3752	-2680	-12	-25	15	-9160	6224	12464	18	-2	-21	-16224	2848	-2808	2	-10	20	-15816	3416	-2352	17	-4	4	125	128	8
-8344	-6844	11744	-15	18	-22	-16168	248	-1792	1	0	-4	-15776	3800	-2616	-2	-15	16	-9192	6168	12624	18	0	-20	-16152	2784	-2880	3	-3	15	-15880	3256	-2296	11	-5	0	123	128	8
-8372	-6928	11792	-18	14	-19	-16216	208	-1880	-6	-7	-8	-15648	3920	-2640	-10	-11	10	-9048	6240	12544	14	-2	-17	-16184	3032	-2544	6	-5	19	-15688	3464	-2552	17	-3	0	122	128	8
-8372	-6892	11684	-14	10	-22	-16184	168	-1864	-5	-3	-2	-15616	3816	-2648	-34	-8	12	-9208	6144	12744	15	0	-17	-16312	2976	-2784	-2	-6	16	-15704	3512	-2656	26	4	4	121	128	8
-8356	-6956	11828	-16	14	-18	-16288	80	-1728	0	-2	-9	-15616	3816	-2512	-32	-17	18	-9104	6296	12712	17	-6	-15	-16128	2952	-2848	7	-7	19	-15880	3528	-2288	22	1	4	124	128	8
-8384	-6880	11676	-12	15	-23	-16208	240	-1992	3	-6	-6	-15760	3912	-2880	-18	-12	19	-9184	6144	12696	17	-8	-22	-16208	2936	-2856	2	-6	20	-16008	3376	-2288	9	0	4	124	128	8
-8480	-6884	11828	-11	8	-25	-16104	200	-1816	-8	-4	-4	-15592	3816	-3016	12	-7	9	-8992	6136	12472	20	-5	-20	-16264	2952	-2904	4	-4	15	-15744	3464	-2184	10	0	2	124	128	8
-8392	-6940	11780	-10	12	-24	-16224	144	-1744	-8	-5	-5	-15392	3752	-2880	0	-7	4	-9224	6224	12672	16	-6	-17	-16200	2792	-2760	7	-9	17	-16032	3384	-2304	26	-10	1	123	129	8
-8312	-6860	11780	-12	19	-24	-16064	48	-1592	2	-6	-4	-15616	3768	-2840	-8	-15	14	-9096	6208	12384	17	-2	-19	-16168	2944	-2696	13	-5	14	-15728	3528	-2384	32	-11	4	122	129	8
-8408	-7028	11784	-20	17	-19	-16232	104	-1800	7	-9	-4	-15720	3736	-2480	2	-30	28	-9056	6144	12640	14	-9	-19	-16152	2808	-2656	9	-5	17	-15968	3416	-2504	20	-6	9	122	128	8
-8324	-6952	11804	-11	17	-20	-16272	256	-1648	6	-7	-2	-15504	3680	-2504	14	-37	24	-9096	6224	12480	17	-9	-21	-16112	2928	-2720	7	-4	18	-15736	3592	-2656	12	0	6	122	128	8
-8360	-6880	11780	-9	14	-18	-16144	328	-1928	1	-4	-8	-15744	3768	-2792	17	-20	20	-9120	6200	12592	22	-2	-21	-16272	2776	-2592	3	-7	21	-15776	3368	-2584	8	4	2	123	129	8
-8376	-6796	11780	-17	14	-23	-16216	184	-1904	-17	-7	-9	-15624	4000	-2496	41	-3	21	-9008	6192	12792	21	-2	-16	-16264	2896	-2720	9	-14	17	-15840	3264	-2552	19	-1	-5	123	128	8
-8372	-6912	11860	-17	14	-31	-16240	120	-1576	-11	-10	-12	-15264	4144	-2760	12	-7	9	-9032	6360	12608	25	-7	-14	-16120	2872	-2968	10	-12	22	-15712	3384	-2536	36	-14	-5	124	129	8
-8364	-6916	11784	-17	14	-23	-16288	128	-1640	16	-13	-4	-15576	3888	-2664	-22	-20	12	-9104	6224	12736	22	-10	-21	-16136	2816	-2896	11	-8	18	-15768	3472	-2440	32	-16	3	123	128	8
-8372	-6944	11820	-12	22	-24	-16272	72	-1616	19	-5	3	-15576	3696	-2368	-31	-26	15	-9008	6120	12496	17	-1	-17	-16272	2864	-2680	12	-8	16	-16000	3400	-2528	26	-4	14	124	128	8
-8360	-6988	11764	-11	18	-13	-16272	240	-2064	13	-6	-2	-15744	3664	-2712	-23	-21	10	-9160	6224	12552	18	-12	-22	-16168	2848	-2960	15	-12	22	-15768	3312	-2480	35	4	14	122	129	8
-8400	-6912	11772	-12	15	-19	-16280	384	-1816	-15	-4	-6	-15544	3784	-2440	-20	-7	9	-9152	6144	12728	19	-7	-14	-16224	2928	-2672	10	-17	20	-15712	3352	-2624	35	-4	10	121	128	8
-8356	-6880	11728	-12	12	-24	-16232	120	-1848	-27	-8	-11	-15504	3800	-2784	-13	-8	16	-9096	6008	12688	16	-6	-17	-16168	2936	-2712	3	-11	22	-15712	3576	-2392	29	-12	2	122	129	8
-8416	-6880	11688	-11	17	-18	-16144	56	-1848	-9	-7	-8	-15720	3688	-2888	5	-25	25	-9024	6368	12600	16	-11	-21	-16160	2992	-2696	10	-11	16	-15944	3560	-2320	10	-7	2	124	128	8
-8312	-6936	11896	-14	10	-18	-16080	272	-1928	20	-17	-11	-15768	3792	-2544	35	-32	32	-9016	6296	12728	13	-8	-20	-16040	2840	-2840	3	-9	27	-15896	3552	-2304	-3	1	-4	121	129	8
-8732	-6464	11744	-9	27	-14	-16160	192	-1944	24	-15	-4	-15752	3832	-2616	57	-23	26	-9080	6440	12488	11	-10	-24	-16280	2904	-2808	10	-7	16	-15864	3384	-2536	6	2	-6	125	128	8
-8452	-6828	11744	-18	10	-29	-16064	296	-1736	30	-11	-6	-15528	3720	-2784	35	-26	21	-9096	6072	12728	14	-8	-18	-16232	2960	-2512	7	-13	20	-15696	3312	-2440	24	0	-7	123	129	8
-8372	-7032	11724	-11	22	-17	-16112	160	-1888	2	-7	-13	-15600	3896	-2640	25	-27	25	-9216	6080	12768	16	-8	-22	-16232	3008	-2640	7	-9	15	-15960	3528	-2336	29	-8	-1	124	129	8
-8412	-6980	11700	-12	11	-24	-16160	248	-1904	-7	-9	-10	-15656	3784	-2496	11	-25	27	-9080	6192	12632	18	-8	-19	-16064	2952	-2536	15	-9	15	-15976	3336	-2384	22	-5	8	124	129	8
-8472	-6704	11736	-15	15	-22	-16280	144	-1736	-8	-8	-9	-15704	3928	-2616	13	-9	11	-9192	6112	12624	12	-8	-21	-16152	2824	-2600	20	-6	18	-15968	3424	-2456	27	-7	9	122	128	8
-8400	-6892	11860	-13	16	-20	-16200	256	-1944	-9	-6	-5	-15648	3960	-2664	-23	-3	3	-9056	6240	12672	20	-12	-17	-16240	2928	-2800	15	-13	12	-15848	3424	-2408	41	-8	6	123	128	8
-8384	-6820	11852	-14	10	-19	-16240	176	-1616	4	-5	-9	-15512	3944	-2720	-49	-6	-1	-9120	6144	12832	17	-5	-22	-16208	2896	-2880	7	-9	20	-15720	3384	-2592	33	-7	-4	124	127	8
-8408	-6904	11700	-11	18	-21	-16240	168	-1744	9	-4	-11	-15600	3832	-2728	-38	-20	22	-9032	6080	12576	15	-1	-19	-16080	2912	-2888	2	-9	15	-15768	3616	-2560	20	-6	-2	124	128	8
-8400	-6872	11852	-9	15	-25	-15992	304	-1896	3	-5	-10	-15680	3704	-2680	-12	-17	25	-9080	6312	12592	14	-3	-17	-16312	2984	-2632	15	-6	12	-15840	3584	-2320	12	-5	-1	122	129	8
-8404	-6884	11792	-11	10	-25	-16272	200	-1736	-2	-6	-7	-15760	3592	-2424	5	-10	7	-9000	6272	12880	13	-9	-23	-16056	2976	-2776	13	-6	19	-15808	3472	-2688	11	-3	1	123	129	8
-8364	-6908	11904	-13	15	-21	-16144	200	-1712	-7	-3	-12	-15616	3840	-2664	-4	-7	8	-9160	6112	12568	10	-6	-21	-16160	2880	-2688	18	-8	20	-15904	3344	-2400	17	-1	-3	121	129	8
-8308	-6932	11768	-12	17	-19	-16096	280	-1696	-7	-2	-10	-15520	3808	-2592	0	-19	20	-9040	6264	12736	14	-11	-23	-16184	3088	-2568	12	-8	17	-15744	3136	-2424	27	-3	1	123	129	8
-8420	-6976	11756	-17	16	-22	-16232	144	-2032	0	-2	-7	-15608	3832	-2552	19	-30	27	-8968	6184	12536	16	-3	-21	-16152	2832	-2680	5	-6	20	-15752	3376	-2616	27	5	-2	123	128	8
-8428	-6844	11800	-15	16	-24	-16232	168	-1728	5	-2	-8	-15632	3776	-2720	33	-28	25	-9184	6208	12776	15	-2	-18	-16312	2832	-2680	-6	-5	16	-15816	3504	-2232	25	2	2	125	129	8
-8428	-6868	11824	-13	17	-29	-16240	232	-1776	5	-7	-6	-15704	3896	-2416	30	-16	19	-9200	6240	12496	14	-8	-19	-16168	2912	-2808	16	-11	15	-15904	3480	-2584	23	-5	4	123	129	8
-8376	-6928	11764	-13	16	-22	-16144	128	-1808	4	-4	-5	-15536	3792	-2440	11	-16	20	-9072	6048	12456	12	2	-21	-16216	2896	-2688	22	-9	19	-15992	3592	-2448	26	1	6	122	129	8
-8376	-6952	11780	-15	17	-23	-16056	208	-1928	4	-3	-6	-15784	3864	-2656	1	-15	20	-8944	6152	12568	16	-4	-16	-16104	3056	-2592	15	-4	21	-15960	3568	-2392	28	-1	6	122	129	8
-8392	-6980	11748	-13	12	-21	-16192	328	-1912	-2	-1	-10	-15680	3824	-2544	1	-16	19	-9128	6112	12624	13	-7	-21	-16064	2768	-2640	-4	0	15	-15912	3440	-2560	18	2	-2	124	129	8
-8372	-6856	11728	-15	14	-20	-16160	168	-1672	-5	-3	-9	-15512	3704	-2600	-10	-8	7	-9320	6304	12600	17	-2	-18	-16296	2920	-2944	-6	0	9	-15720	3472	-2616	20	3	-2	123	129	8
-8372	-6844	11676	-18	13	-21	-16160	280	-1792	1	-6	-7	-15552	3912	-2568	-16	1	9	-9144	6224	12584	13	-2	-15	-16312	2880	-2768	8	0	10	-15912	3440	-2320	18	-3	4	125	129	8
-8292	-6888	11728	-14	14	-24	-16272	112	-1728	3	-2	-7	-15664	3784	-2456	-21	-6	12	-9144	6200	12576	11	-10	-19	-16176	2992	-2656	18	-1	15	-15904	3480	-2496	25	-1	3	122	129	8
-8340	-6880	11812	-14	15	-25	-16184	152	-1616	8	-2	-3	-15648	3816	-2888	-7	-13	18	-9120	6112	12552	14	-4	-25	-16184	2936	-2696	14	-3	15	-15872	3560	-2352	25	-1	3	123	130	8
-8384	-6884	11744	-17	18	-22	-16112	208	-1528	5	4	-14	-15736	3808	-2608	8	-18	17	-9208	6176	12512	17	-8	-24	-16296	2976	-2808	12	0	15	-15928	3280	-2400	20	-1	-4	123	129	8
-8324	-6888	11796	-17	17	-21	-16192	192	-1864	2	3	-6	-15544	3792	-2856	12	-15	14	-9000	6136	12664	10	-4	-20	-16160	2976	-2640	-1	1	9	-15816	3416	-2472	22	6	4	123	129	8
-8376	-6952	11736	-14	15	-19	-16088	240	-1872	9	1	-8	-15664	3880	-2656	14	-7	22	-9048	6408	12664	15	-1	-26	-16256	2728	-3000	7	0	18	-15848	3448	-2680	28	4	6	124	129	8
-8396	-6924	11756	-17	13	-21	-16336	272	-1736	-3	3	-10	-15536	3848	-2456	12	-11	19	-9200	6152	12600	14	-2	-21	-16288	2872	-2696	9	3	18	-15968	3400	-2648	26	-2	4	123	128	8
-8356	-6904	11772	-15	16	-23	-16192	160	-1832	-3	-1	-12	-15648	3896	-2872	6	-15	21	-9040	6256	12616	17	-5	-22	-16232	2952	-2760	1	0	14	-15864	3376	-2552	23	1	5	124	129	8
-8388	-6968	11756	-15	17	-20	-16256	264	-1872	0	-2	-9	-15688	3912	-2664	-3	-20	17	-9136	6376	12608	12	-1	-22	-16224	2888	-2632	-1	2	19	-15968	3496	-2552	29	8	5	123	129	8
-8316	-6948	11756	-11	20	-25	-16184	200	-1672	0	3	-9	-15528	3896	-2720	-3	-15	18	-9168	6136	12632	11	-3	-22	-16208	2976	-2824	2	-5	12	-15848	3488	-2680	16	3	4	123	129	8
-8436	-6952	11656	-14	14	-26	-16192	248	-1544	-1	2	-10	-15520	3928	-2632	8	-9	15	-9040	6296	12488	15	-13	-16	-16208	2944	-3088	13	-4	12	-15832	3328	-2440	14	3	2	121	128	8
-8332	-6940	11848	-12	8	-23	-16184	152	-1800	3	-5	-8	-15664	3776	-2528	-4	-5	12	-9176	6200	12608	15	-8	-21	-16256	2776	-2680	20	-6	24	-15856	3488	-2552	32	4	-1	122	129	8
-8416	-6832	11776	-12	16	-21	-16224	232	-1928	-2	0	-6	-15608	3808	-2696	-15	-9	8	-9032	6384	12488	17	-6	-21	-16184	2872	-2864	10	-5	20	-15704	3368	-2520	34	-4	-3	124	130	8
-8308	-6928	11760	-22	19	-23	-16200	112	-1760	3	-1	-8	-15608	3896	-2624	-20	-11	14	-9048	6128	12600	17	-3	-20	-16280	2912	-2760	-1	-8	13	-15928	3568	-2584	7	-6	-4	124	128	8
-8408	-6900	11816	-14	16	-21	-16248	168	-1744	-3	-5	-5	-15496	3720	-2632	-8	-13	20	-9056	6296	12624	12	2	-22	-16120	3120	-2792	-6	1	7	-15864	3280	-2568	3	-1	1	122	128	8
-8376	-6916	11776	-18	8	-22	-16248	152	-1864	-1	-6	-8	-15632	3640	-2744	11	-13	15	-9104	6192	12928	10	-4	-24	-16184	2720	-2952	4	-6	15	-15776	3344	-2304	12	8	2	123	129	8
-8412	-6948	11776	-15	14	-24	-16248	208	-1776	-4	-6	-9	-15664	3760	-2928	27	-9	15	-9080	6216	12576	17	-3	-23	-16280	2744	-2912	22	-5	16	-15832	3264	-2768	29	3	2	124	129	8
-8408	-6900	11744	-13	17	-21	-16176	72	-1728	0	-3	-11	-15560	3760	-2720	16	-12	15	-9016	6176	12728	18	-4	-25	-16040	2904	-2640	16	-11	22	-15840	3328	-2608	33	-1	0	124	129	8
-8388	-6904	11760	-14	15	-23	-16272	184	-1776	7	-1	-10	-15504	3800	-2616	7	-17	21	-9104	6168	12696	16	-2	-16	-16248	3096	-3008	5	-7	18	-15880	3408	-2440	34	-5	0	125	129	8
-8408	-6940	11724	-13	17	-21	-16288	256	-1672	9	-4	-5	-15720	3792	-2712	8	-20	26	-9136	6336	12712	13	0	-16	-16304	3088	-2640	1	-9	8	-15752	3480	-2384	23	-8	6	121	129	8
-8448	-6936	11744	-13	13	-22	-16112	192	-1768	3	-6	-4	-15680	3712	-2600	14	-21	22	-9272	6328	12688	19	-7	-18	-16032	3000	-2688	8	-4	12	-15784	3568	-2288	17	-2	10	125	129	8
-8356	-6944	11740	-19	11	-21	-16176	56	-1744	-5	-3	-8	-15608	3752	-2712	9	-18	12	-9096	6176	12512	12	-7	-23	-16056	2832	-2736	19	-7	19	-15808	3376	-2336	18	2	2	124	129	8
-8420	-6952	11744	-17	14	-18	-16120	80	-1456	7	0	-8	-15624	3784	-2608	3	-16	10	-9096	6256	12728	15	-9	-20	-16224	2912	-2960	19	-8	20	-15784	3280	-2456	33	-2	-8	123	128	8
-8404	-6940	11836	-15	15	-27	-16256	208	-1648	4	-5	-6	-15760	3912	-2536	11	-11	19	-9160	6216	12528	18	-12	-16	-16160	2888	-2680	-2	-6	14	-15832	3336	-2352	33	0	-4	122	128	8
-8444	-6912	11724	-15	13	-24	-16208	136	-1712	7	2	-6	-15592	3832	-2624	5	-10	17	-9032	6208	12640	19	-2	-15	-16136	2944	-2688	-2	-7	12	-15840	3232	-2376	27	-3	-10	124	129	8
-8348	-6880	11780	-17	13	-25	-16312	144	-1832	9	-3	-9	-15416	3776	-2712	-8	-8	12	-9120	6200	12872	15	-2	-19	-16152	2888	-2656	-6	-5	13	-15720	3536	-2288	21	-5	8	121	129	8
-8400	-6916	11616	-9	15	-20	-16208	224	-1680	3	0	-7	-15584	3808	-2824	-17	-11	16	-9088	6352	12840	17	-6	-22	-16240	2872	-2632	31	-8	12	-15936	3512	-2392	31	-1	18	124	129	8
-8304	-6964	11776	-11	10	-20	-16184	112	-1528	0	-1	-3	-15696	3776	-2760	-2	-21	19	-9072	6136	12624	19	-8	-21	-16112	2992	-2664	36	-14	16	-15896	3440	-2288	38	0	13	122	129	8
-8348	-6952	11812	-14	12	-19	-16080	280	-1888	-5	-5	-4	-15720	3640	-2776	11	-25	17	-9088	6296	12616	14	-12	-23	-16184	3072	-2712	18	-7	22	-15872	3448	-2400	35	-6	4	123	129	8
-8360	-6844	11896	-12	13	-19	-16272	200	-1608	-2	-1	-6	-15688	3704	-2752	13	-22	17	-9144	6032	12568	14	-3	-21	-16224	2888	-2896	-5	-3	19	-15696	3392	-2520	23	-2	-7	122	130	8
-8408	-6864	11740	-13	19	-23	-16160	104	-1624	5	0	-9	-15496	3896	-2600	7	-15	16	-9184	6376	12560	12	-4	-18	-16280	2912	-2736	-13	-4	11	-15704	3416	-2408	21	-1	-8	125	128	8
-8384	-6876	11888	-11	18	-22	-16216	40	-1896	9	-5	-4	-15648	3840	-2552	6	-18	27	-9128	6168	12608	19	-7	-19	-16160	2928	-2824	5	-8	17	-15960	3400	-2232	12	0	2	125	129	8
-8364	-6932	11824	-15	19	-16	-16104	208	-1896	11	-5	-2	-15680	3776	-2592	18	-24	23	-9152	6104	12760	17	1	-20	-16056	2960	-2920	25	-7	21	-15768	3352	-2272	25	-3	12	121	129	8
-8296	-6976	11788	-11	11	-21	-16144	248	-1800	4	0	-5	-15472	3768	-2872	11	-24	21	-9096	6312	12864	12	-11	-22	-16232	2912	-2728	16	-9	22	-15880	3424	-2304	24	-6	13	123	129	8
-8348	-6896	11660	-14	7	-21	-16216	96	-1848	-2	-10	-9	-15512	3800	-2504	3	-23	14	-9184	6168	12808	17	-6	-20	-16200	2816	-2440	7	-5	21	-15808	3312	-2416	24	-14	5	123	128	8
-8336	-6892	11760	-12	12	-21	-16352	296	-1680	-2	-7	-6	-15848	3936	-2872	-6	-14	13	-9176	6000	12808	22	-1	-18	-16272	2928	-2952	3	-6	17	-15808	3312	-2440	25	-10	1	124	128	8
-8404	-6848	11816	-15	18	-24	-16240	184	-1912	-1	-7	-5	-15640	4040	-2720	-15	-8	14	-9184	6232	12480	20	3	-16	-16360	3072	-2888	6	-12	11	-15544	3400	-2480	30	-4	7	122	129	8
-8360	-6936	11732	-13	15	-21	-16208	96	-1816	3	-5	-2	-15640	4016	-2904	-9	-20	14	-9192	6376	12592	22	-7	-16	-16312	2912	-2672	10	-10	22	-15704	3552	-2512	36	-7	4	122	129	8
-8416	-6988	11656	-12	15	-21	-16128	224	-1968	3	-10	-6	-15648	3672	-2824	-5	-29	17	-9016	6272	12680	15	-9	-17	-16112	3072	-2752	11	-13	20	-15800	3600	-2568	29	-7	8	123	129	8
-8384	-6856	11816	-12	18	-25	-16168	248	-2024	6	-8	-4	-15616	3824	-2432	7	-27	15	-9192	6224	12696	15	-8	-21	-16216	2840	-2776	13	-10	23	-15816	3304	-2424	8	-1	-2	121	128	8
-8392	-6900	11760	-11	14	-27	-16136	128	-1864	-4	-13	-8	-15576	3872	-2592	12	-18	10	-9216	6112	12584	17	-7	-21	-16288	2952	-2840	10	-15	20	-15712	3400	-2568	11	1	-5	122	129	8
-8340	-6936	11752	-14	13	-25	-16240	80	-1808	-3	-17	-10	-15488	3928	-2656	3	-16	11	-9040	6184	12584	11	-8	-15	-16344	2808	-2888	9	-19	21	-15688	3248	-2632	25	-13	-2	123	129	8
-8388	-6908	11764	-14	17	-21	-16176	96	-1712	3	-11	0	-15648	3984	-2448	1	-14	16	-9240	6176	12336	21	-12	-13	-16264	2920	-2560	15	-23	24	-16008	3400	-2616	31	-13	4	125	128	8
-8360	-6940	11804	-9	15	-23	-16136	264	-1736	-1	-16	-8	-15616	3864	-2480	9	-21	26	-9168	6264	12624	17	-6	-13	-16200	2992	-2520	18	-12	17	-15840	3432	-2216	27	-15	8	122	130	8
-8364	-6916	11724	-14	12	-24	-16160	8	-1760	-13	-11	-7	-15624	3744	-2424	20	-19	22	-9152	6048	12552	19	-3	-14	-16112	3048	-2792	22	-18	24	-15736	3488	-2216	18	1	16	124	129	8
-8340	-6924	11836	-17	13	-22	-16128	136	-1616	-4	-8	-10	-15632	3752	-2392	21	-28	19	-9032	6192	12576	20	-5	-16	-16248	3024	-2736	25	-18	14	-15808	3568	-2160	17	0	12	125	129	8
-8404	-6984	11804	-12	18	-25	-16216	200	-1568	4	-3	-6	-15648	3760	-2560	25	-32	30	-9040	6200	12792	16	-7	-19	-16224	3080	-2632	23	-1	14	-15760	3440	-1992	21	-4	-4	122	129	8
-8292	-6980	11704	-15	11	-23	-16024	72	-1776	15	1	-7	-15680	3704	-2560	28	-33	27	-8960	6328	12648	14	-12	-25	-16128	2920	-2416	-3	6	12	-15944	3496	-2096	26	-4	-13	124	129	8
-8360	-6908	11800	-12	13	-20	-16288	152	-1696	17	2	-3	-15680	3872	-2520	15	-23	15	-9024	6248	12704	10	-9	-27	-16200	2904	-2576	-11	7	12	-15872	3232	-2232	24	5	-15	121	129	8
-8376	-6832	11932	-16	13	-21	-16256	336	-1832	17	6	-6	-15712	3864	-2488	5	-5	14	-9080	6240	12584	12	-8	-24	-16200	2992	-2856	-2	11	6	-15808	3280	-2552	23	7	-14	121	128	8
-8388	-6896	11744	-18	11	-22	-16216	200	-1720	7	3	-5	-15480	3952	-2560	-18	2	10	-9176	6128	12488	10	-4	-23	-16264	3048	-2808	-5	6	16	-15768	3256	-2616	37	11	-1	124	129	8
-8324	-6984	11772	-19	14	-21	-16216	184	-1808	-4	6	-13	-15472	4032	-2792	-38	3	11	-9048	6208	12496	16	-7	-17	-16320	2888	-2560	2	6	11	-15720	3280	-2704	37	11	15	122	129	8
-8384	-6924	11768	-14	16	-16	-16120	272	-1616	-2	3	-14	-15464	4032	-2752	-38	7	13	-9000	6208	12552	13	-5	-17	-16208	2936	-2888	-3	0	11	-15784	3432	-2424	38	5	22	123	129	8
-8436	-6872	11800	-13	13	-20	-16264	184	-1616	-12	3	-12	-15560	3768	-2736	-40	1	4	-9184	6112	12496	12	-3	-22	-16152	2840	-2536	1	1	16	-15808	3576	-2208	20	-5	14	122	129	8
-8356	-6880	11824	-15	23	-24	-16176	256	-2024	-1	-2	-10	-15712	3728	-2728	-21	-4	4	-9160	6224	12544	16	-4	-20	-16216	2712	-2688	5	-1	9	-16064	3696	-2512	7	-1	-2	124	128	8
-8416	-6896	11840	-19	17	-21	-16096	320	-1624	-2	1	-6	-15816	3720	-2648	6	-8	8	-9144	6240	12776	17	-5	-21	-16232	2888	-2768	5	0	12	-15840	3568	-2560	8	5	-14	121	128	8
-8396	-6988	11796	-21	21	-21	-16160	0	-1728	5	1	-16	-15760	3680	-2848	12	-10	13	-9128	6128	12512	12	-3	-21	-16224	3056	-2704	-1	-1	16	-15784	3600	-2576	8	9	-25	122	128	8
-8392	-7012	11800	-10	14	-22	-16232	56	-1464	6	-3	-9	-15448	3688	-2704	7	-13	20	-9224	6272	12568	8	-2	-19	-16288	3104	-2760	-8	4	14	-15880	3496	-2560	-8	3	-21	123	129	8
-8364	-6924	11728	-15	7	-20	-16160	64	-1736	2	-4	-11	-15608	3696	-2608	19	-21	36	-9136	6272	12512	11	-1	-16	-16136	2920	-2816	-8	8	0	-15824	3448	-2552	-11	10	-7	123	128	8
-8400	-7008	11824	-15	5	-19	-16208	176	-1712	-12	1	-11	-15880	3920	-2728	44	-32	35	-9048	6280	12784	12	-4	-24	-16272	2872	-2976	5	-5	19	-15952	3192	-2624	8	25	4	123	128	8
-8348	-6956	11776	-17	12	-23	-16184	176	-1568	-19	1	-11	-15672	3888	-2736	42	-14	26	-9136	6152	12744	12	-11	-14	-16264	2760	-2760	37	-10	20	-15568	3152	-2704	40	16	14	123	128	8
-8360	-6836	11876	-17	13	-22	-16080	152	-1880	-5	2	-14	-15624	3880	-2312	14	-3	10	-9136	6288	12760	16	-14	-17	-16272	2936	-2376	27	-9	19	-15872	3360	-2472	46	5	2	125	129	8
-8340	-6868	11780	-16	10	-21	-16184	184	-1832	-1	-4	-7	-15568	4096	-2408	-27	-5	5	-9120	6232	12792	14	-3	-22	-16128	3104	-2616	-23	4	19	-15984	3520	-2192	32	-4	0	124	128	8
-8356	-6936	11816	-12	18	-21	-16352	8	-1696	11	5	0	-15624	3808	-2648	-51	-2	11	-9040	6024	12440	11	-4	-19	-16248	2920	-2720	-46	14	6	-15968	3640	-2184	12	8	3	123	128	8
-8352	-6912	11820	-15	17	-22	-16032	176	-1824	16	-1	-4	-15720	3712	-2776	-45	6	11	-9128	6088	12736	11	-3	-25	-16200	2744	-2936	-8	11	4	-15784	3568	-2552	7	15	7	125	128	8
-8408	-6948	11636	-18	15	-23	-16128	136	-1752	-5	3	-3	-15624	3576	-2840	-38	5	0	-9064	6184	12776	12	-4	-18	-16272	2808	-2768	42	0	17	-15648	3328	-2608	22	8	8	124	128	8
-8368	-6928	11808	-16	12	-23	-16160	64	-1752	-18	-1	-11	-15584	3776	-2672	-38	3	3	-9264	6224	12504	14	-11	-22	-16064	2944	-2824	40	-11	26	-15664	3552	-2472	39	3	-5	121	128	8
-8408	-6920	11700	-11	14	-23	-16072	8	-1640	-14	2	-6	-15776	3656	-2872	-24	-8	13	-8936	6168	12512	21	-10	-24	-16216	2936	-2680	1	-1	17	-15880	3352	-2552	17	0	-13	125	128	8
-8400	-6972	11740	-14	16	-24	-16088	184	-1728	-1	-3	-7	-15648	3544	-2864	8	-21	29	-9224	6184	12544	11	-4	-17	-16096	2944	-2872	-19	2	10	-15848	3368	-2464	-5	3	-9	122	128	8
-8356	-6868	11756	-10	17	-19	-16192	64	-1696	15	-3	-2	-15512	3744	-2808	53	-21	33	-9160	6336	12544	17	-6	-14	-16296	2840	-2824	-11	-4	12	-15944	3408	-2560	14	6	8	124	128	8
-8316	-6860	11784	-14	15	-23	-16224	240	-1672	13	-3	0	-15568	3784	-2896	83	-20	36	-9152	6296	12792	15	-5	-19	-16208	2880	-2680	21	-6	21	-15872	3304	-2392	34	0	12	124	128	8
-8384	-6940	11860	-12	17	-25	-16216	224	-1744	12	-1	-5	-15640	3920	-2704	60	-27	35	-9096	6280	12480	20	-11	-21	-16112	2848	-2568	37	-11	23	-15752	3256	-2328	47	0	12	124	128	8
-8356	-6968	11836	-12	20	-21	-16128	192	-1960	6	1	-1	-15576	3936	-2696	17	-23	30	-9240	6208	12400	18	-10	-20	-16168	2960	-2792	28	-6	25	-15840	3400	-2320	47	3	18	123	127	8
-8356	-6992	11776	-15	16	-25	-16280	224	-1544	4	-1	-2	-15776	4032	-2656	-4	-13	28	-9096	5984	12640	15	-3	-23	-16224	2912	-2800	3	-4	24	-15816	3496	-2440	29	7	11	123	128	8
-8356	-6912	11708	-15	17	-22	-16080	152	-1656	0	-1	-2	-15688	3824	-2624	-21	0	20	-9136	6224	12880	19	-4	-16	-16200	2888	-2840	-7	-2	21	-15864	3488	-2536	13	3	2	123	127	8
-8400	-6904	11772	-15	19	-19	-16192	112	-1696	-8	-1	-1	-15552	3856	-2680	-28	6	18	-9152	6336	12680	19	-1	-13	-16064	2944	-2704	-16	-3	16	-15848	3464	-2456	1	7	-1	123	127	8
-8384	-6892	11684	-7	9	-21	-16144	176	-1816	-13	-6	0	-15440	3776	-2664	-29	5	16	-9136	6288	12456	20	-5	-12	-16240	2824	-2568	-6	4	30	-15784	3464	-2408	-13	11	3	123	127	8
-8384	-6984	11740	-12	5	-21	-16240	184	-1696	-11	-9	-1	-15528	3912	-2680	-31	-9	19	-8944	6104	12768	15	-8	-12	-16392	3016	-2672	-2	4	29	-15776	3536	-2536	-12	17	9	122	127	8
-8352	-6976	11804	-11	11	-20	-16320	152	-1824	-16	-4	-1	-15672	3768	-2520	-39	-21	27	-9184	6168	12936	12	-4	-12	-16128	3104	-2584	-10	6	25	-15728	3480	-2320	-8	22	14	122	127	8
-8440	-6828	11744	-11	5	-18	-15984	136	-1640	-21	-2	3	-15616	3632	-2752	-28	-15	26	-9032	6264	12568	15	-2	-13	-16200	3048	-2896	-21	3	20	-15928	3544	-2408	-10	26	16	122	127	8
-8328	-6872	11796	-12	12	-19	-16232	160	-1872	-19	-2	-2	-15752	3712	-2592	-12	-17	18	-9048	6304	12456	17	2	-12	-16120	3024	-2792	-22	14	28	-15880	3528	-1992	-4	19	8	123	127	8
-8416	-6888	11800	-9	8	-19	-16080	56	-1656	-20	1	-3	-15744	3816	-2440	-7	-12	27	-9200	6312	12664	17	-2	-18	-16168	3032	-2624	-31	11	22	-15936	3664	-2184	-1	18	3	122	127	8
-8336	-6888	11684	-16	8	-21	-16224	80	-1928	-9	4	1	-15680	3720	-2552	-4	-23	30	-9000	6304	12712	15	2	-15	-16240	3024	-3032	-41	17	21	-15824	3680	-2352	-1	25	-1	123	127	8
-8352	-6936	11804	-12	16	-21	-16104	208	-1680	-5	3	0	-15504	3952	-2648	-7	-21	27	-9024	6224	12656	14	0	-20	-16200	2992	-2632	-40	23	13	-15880	3512	-2360	-5	22	3	124	127	8
-8352	-6900	11788	-12	14	-16	-15952	368	-1896	-14	11	-8	-15608	4032	-2680	-12	-12	18	-9096	6448	12536	9	-3	-20	-16232	3160	-2944	-33	20	4	-15904	3544	-2344	-10	25	8	126	128	8
-8384	-6832	11684	-12	11	-21	-16232	192	-2016	-13	2	-10	-15520	4072	-2592	-14	-3	14	-9104	6272	12664	10	-8	-21	-16216	2816	-2920	-20	22	9	-15848	3552	-2512	9	16	6	123	128	8
-8328	-6860	11868	-14	10	-23	-16312	376	-1736	-16	2	-13	-15616	4272	-2448	-34	10	2	-9136	5928	12904	7	-3	-25	-16328	2944	-2800	13	18	10	-15832	3360	-2744	21	6	-1	124	127	8
-8296	-6900	11788	-19	23	-27	-16232	296	-1848	4	9	-6	-15664	3984	-2616	-43	14	3	-9016	6496	12616	10	-15	-19	-16208	2840	-2720	38	9	1	-15744	3400	-3104	24	1	-2	123	127	8
-8336	-6844	11808	-17	22	-26	-16120	80	-1664	16	4	-2	-15624	3712	-2360	-37	7	2	-9224	6312	12776	11	-7	-25	-16224	2920	-3096	33	16	6	-15840	3432	-2944	46	0	-5	122	127	8
-8384	-6960	11704	-16	20	-24	-16184	160	-1808	27	4	-8	-15776	3552	-2792	-8	2	1	-9080	6120	12624	15	-12	-26	-16272	2952	-2808	19	8	10	-15960	3344	-2712	46	-10	-7	124	127	8
-8424	-7020	11668	-16	27	-27	-16264	152	-2000	26	11	-4	-15672	3504	-2712	29	0	8	-9128	6184	12656	17	-7	-21	-16232	2840	-3128	26	-4	15	-15712	3360	-2864	49	-9	3	124	127	8
-8368	-6972	11788	-8	25	-29	-16120	72	-1872	26	10	-6	-15592	3536	-2752	51	-5	19	-9184	6136	12512	19	-4	-22	-16160	2952	-2920	34	-11	15	-15800	3208	-2296	63	-10	9	123	127	8
-8392	-6972	11756	-10	27	-23	-16184	160	-1624	38	13	-1	-15680	3800	-2968	61	-21	32	-9168	6120	12784	18	-10	-23	-16184	2776	-2888	51	-17	24	-15752	3312	-2696	65	-10	13	125	127	8
-8320	-6936	11784	-10	17	-29	-16024	288	-1880	45	9	-4	-15600	3808	-2880	88	-31	48	-9104	6144	12464	19	-14	-23	-16224	2888	-2776	56	-24	24	-16016	3352	-2728	61	-13	17	123	127	8
-8396	-6868	11708	0	19	-27	-16224	168	-1984	39	4	-12	-15624	3896	-2608	108	-27	53	-9208	6232	12560	25	-18	-19	-16280	2984	-2624	52	-24	17	-15912	3280	-2576	68	-6	17	122	127	8
-8356	-6896	11780	-11	15	-26	-16208	200	-1800	30	8	-3	-15496	3936	-2832	91	-26	39	-9208	6248	12976	25	-10	-23	-16136	2944	-2664	40	-19	25	-15744	3496	-2456	73	-11	17	124	127	8
-8372	-6908	11704	-9	20	-25	-16184	144	-1832	31	9	-6	-15528	4032	-2616	54	-25	36	-9176	6312	12624	21	-8	-23	-16152	2912	-2696	28	-17	23	-15856	3768	-2536	67	-18	10	124	127	8
-8376	-6888	11808	-9	19	-30	-16168	360	-1816	30	8	-3	-15584	4136	-2768	46	-26	36	-9096	6152	12872	25	-4	-25	-16184	2824	-2704	20	-6	13	-15968	3552	-2240	55	-14	3	123	127	8
-8392	-6864	11768	-11	21	-24	-16360	312	-1880	27	3	-4	-15664	4040	-2792	47	-21	24	-9136	6296	12760	19	-13	-25	-16168	2952	-2816	22	-9	15	-15936	3448	-2504	37	6	4	123	127	8
-8356	-6856	11796	-14	15	-22	-16208	176	-1968	15	3	-10	-15608	3936	-2624	24	-4	9	-9128	6152	12480	16	-14	-24	-16280	2968	-2736	27	-11	17	-15560	3608	-2456	44	7	2	123	127	8
-8376	-6840	11756	-13	15	-20	-16216	200	-1760	4	3	-10	-15504	3984	-2592	-11	5	5	-9168	6224	12632	15	-14	-20	-16256	3080	-2952	21	-2	15	-15704	3384	-2456	48	4	2	123	127	8
-8412	-6936	11692	-15	10	-22	-16184	360	-1712	1	2	-11	-15568	4000	-2736	-43	2	9	-9064	6168	12528	10	-6	-24	-16128	3024	-2736	-1	0	12	-15744	3416	-2464	18	4	0	124	127	8
-8368	-6876	11784	-11	16	-20	-16184	168	-1792	4	6	-12	-15472	3968	-2680	-48	-8	12	-9192	6240	12472	10	-5	-25	-16296	3032	-2720	-15	5	10	-15808	3560	-2440	3	3	0	124	127	8
-8364	-6916	11828	-16	16	-25	-16072	256	-1824	0	1	-14	-15568	3776	-2808	-26	-3	4	-9088	6144	12712	13	-7	-20	-16248	2824	-2720	-18	6	9	-15816	3424	-2528	-4	2	-3	124	127	8
-8380	-6840	11784	-19	18	-21	-16192	168	-1912	-8	3	-11	-15704	3792	-2880	-2	3	3	-9176	6312	12648	9	-3	-19	-16272	2952	-2848	1	6	8	-15648	3504	-2528	4	6	-10	125	128	8
-8360	-6904	11728	-18	17	-21	-16104	248	-1600	-8	-1	-11	-15576	3656	-2840	1	-2	-1	-9080	6232	12688	13	-11	-20	-16256	2944	-2728	20	-3	3	-15784	3480	-2872	21	10	-7	124	127	8
-8348	-6972	11768	-20	16	-24	-16336	232	-1872	-8	-7	-12	-15664	3792	-2784	-1	-15	14	-8936	6144	12352	10	-13	-23	-16048	2904	-2816	27	-5	19	-15664	3400	-2536	30	5	3	125	127	8
-8316	-6976	11828	-17	11	-21	-16120	112	-2032	-11	-4	-11	-15584	3552	-2536	0	-21	19	-9120	6128	12576	9	-8	-24	-16240	2888	-2544	13	-4	15	-15872	3424	-2576	12	2	-5	123	128	8
-8380	-6888	11848	-22	13	-21	-16320	272	-1760	-3	-4	-11	-15584	3704	-2776	17	-22	20	-9192	6272	12672	15	-6	-19	-16280	2976	-3072	-10	1	14	-15880	3448	-2392	-8	4	-10	123	127	8
-8324	-6892	11764	-19	18	-22	-16232	352	-1920	-12	-3	-13	-15552	3752	-2696	23	-10	18	-9168	6264	12448	14	-4	-23	-16224	2888	-2984	-25	0	12	-15824	3336	-2552	0	5	-9	125	127	8
-8400	-6900	11852	-16	16	-22	-16120	104	-1808	0	-4	-12	-15552	3960	-2792	17	-7	16	-9160	6240	12672	12	-1	-16	-16248	2800	-2912	1	1	11	-15776	3344	-2496	5	6	-12	125	128	8
-8392	-6928	11700	-18	17	-26	-16080	176	-1768	8	-3	-8	-15648	3816	-2976	13	-12	20	-9056	6208	12608	15	-13	-19	-16160	2872	-2800	19	-3	14	-15864	3464	-2304	37	1	6	123	128	8
-8348	-6952	11796	-14	13	-22	-16256	120	-1872	2	1	-8	-15536	3936	-2608	10	-10	21	-9232	6176	12672	12	-14	-24	-16280	2832	-3136	34	-6	25	-15896	3440	-2512	45	5	7	126	128	8
-8420	-6948	11772	-16	19	-21	-16176	208	-1752	6	-2	-6	-15496	3792	-2544	-14	-8	4	-9088	6152	12808	13	-8	-23	-16288	2848	-2592	19	-5	17	-15928	3392	-2216	35	5	7	125	128	8
-8368	-6904	11744	-13	13	-26	-16264	208	-1568	1	1	-9	-15512	3760	-3000	-27	-4	3	-9096	6264	12824	15	-4	-20	-16144	2752	-2800	-4	0	16	-15856	3232	-2632	18	3	1	122	127	8
-8384	-6936	11900	-13	13	-19	-16208	144	-1792	4	0	-7	-15688	3704	-2664	-12	-1	16	-9088	6176	12728	21	-7	-13	-16168	2800	-2880	-10	-5	17	-15816	3352	-2496	22	-3	-2	124	130	8
-8368	-6856	11716	-15	14	-25	-16200	56	-1736	1	3	-14	-15656	3624	-2680	9	-4	21	-9136	6120	12648	17	0	-21	-16160	3000	-2712	1	-1	13	-15784	3592	-2576	26	-3	-2	124	128	8
-8384	-6908	11764	-17	12	-23	-16208	128	-1816	4	3	-7	-15504	3712	-2744	8	-12	22	-8992	6376	12672	16	-4	-18	-16136	2920	-2912	20	-5	10	-15800	3648	-2440	33	1	5	124	128	8
-8344	-6968	11788	-18	18	-20	-16320	288	-1904	5	4	-10	-15544	3896	-2728	19	-14	25	-9080	6296	12584	13	-11	-22	-16152	2968	-3008	33	-3	18	-15784	3664	-2392	27	5	7	122	128	8
-8372	-6932	11832	-15	17	-19	-16120	232	-1736	4	5	-4	-15704	3824	-2640	18	-17	22	-9064	6128	12400	15	-8	-25	-16184	2984	-2760	25	-3	20	-15832	3392	-2288	27	7	-1	124	128	8
-8444	-6984	11692	-9	16	-22	-16144	56	-1888	1	0	-8	-15600	3744	-2544	12	-20	20	-9024	5896	12728	10	-8	-22	-16168	2912	-2656	8	0	16	-15872	3344	-2768	24	4	-9	124	129	8
-8400	-6952	11744	-13	14	-20	-16040	240	-1800	1	7	-7	-15464	3816	-2776	10	-17	22	-9016	6112	12680	13	-1	-21	-16232	2912	-2704	-13	6	19	-15840	3272	-2536	17	5	-7	122	129	8
-8356	-6928	11740	-15	14	-15	-16112	120	-1992	-8	-2	-6	-15664	3936	-2776	18	-14	20	-9072	6264	12624	15	5	-18	-16256	2936	-2864	-17	8	12	-15856	3504	-2520	12	4	-3	124	129	8
-8392	-6852	11764	-10	19	-23	-16168	280	-2016	-7	1	-7	-15528	3968	-2552	10	-5	20	-9072	6336	12712	14	-6	-21	-16184	2976	-3048	-4	1	11	-15688	3416	-2480	16	8	7	125	128	8
-8368	-6840	11796	-17	14	-23	-16088	160	-1864	-3	1	-4	-15592	3944	-2656	-13	-3	16	-9160	6312	12456	16	-10	-14	-16176	2792	-2816	13	1	19	-15848	3488	-2448	28	5	10	121	129	8
-8384	-6948	11740	-14	12	-19	-16120	72	-1728	6	1	-6	-15768	3896	-2680	-35	-10	12	-9088	6232	12664	16	-8	-17	-16344	2888	-2960	24	-4	16	-15808	3536	-2336	28	11	10	126	129	8
-8388	-6964	11708	-12	17	-17	-16128	136	-2024	-4	1	-2	-15568	3680	-2640	-36	-12	13	-9080	6064	12760	15	-6	-17	-16144	2984	-2824	6	-2	15	-15768	3408	-2472	14	7	1	124	129	8
-8384	-6936	11744	-13	15	-19	-16096	232	-1960	-7	1	-12	-15624	3768	-2752	-21	-11	12	-9120	6120	12600	17	-7	-16	-16136	2944	-2688	-9	3	16	-15904	3472	-2528	20	4	-5	121	130	8
-8416	-6844	11720	-15	11	-22	-16240	296	-1880	-19	0	-8	-15488	3736	-2640	-1	2	10	-9176	6176	12544	20	-2	-18	-16240	2936	-3088	-6	7	14	-15784	3432	-2384	1	2	-8	121	128	8
-8384	-6880	11816	-12	13	-24	-16216	208	-1584	-15	1	-6	-15632	3776	-2744	-1	6	13	-8944	6472	12528	13	-7	-15	-16208	3008	-2856	10	5	12	-15904	3472	-2296	-4	0	-7	125	129	8
-8400	-6896	11780	-18	17	-19	-16192	288	-1960	-2	-1	-3	-15592	3736	-2808	-8	-9	24	-9160	6256	12696	10	-5	-18	-16064	2912	-2544	19	0	24	-15880	3416	-2632	19	10	0	124	129	8
-8412	-6968	11748	-13	18	-20	-16264	192	-1800	3	-2	-6	-15640	3800	-2728	-12	-21	28	-9088	6184	12624	12	-11	-21	-16136	2960	-2736	25	-2	25	-15896	3448	-2584	33	18	9	126	129	8
-8344	-6960	11744	-12	13	-20	-16120	288	-1672	0	-1	-6	-15600	3632	-2880	6	-26	26	-9080	6168	12744	11	-6	-22	-16184	3024	-2808	12	5	21	-15960	3408	-2608	22	10	7	124	129	8
-8372	-6904	11796	-16	13	-19	-16216	144	-1760	-6	3	0	-15792	3672	-2600	19	-19	22	-9200	6224	12416	20	0	-13	-16184	2912	-2808	-17	9	12	-15848	3440	-2568	14	5	-2	123	130	8
-8368	-6888	11752	-18	10	-18	-16184	224	-2000	-13	3	-6	-15624	3992	-2776	27	-3	14	-9256	6104	12632	14	-3	-16	-16144	2904	-2912	-18	15	12	-15904	3432	-2592	9	3	-2	123	129	8
-8348	-6872	11752	-9	13	-20	-16184	144	-2000	-8	3	-6	-15536	3880	-2848	0	-1	12	-9120	6200	12872	20	-1	-23	-16248	2992	-3152	-7	11	17	-15640	3368	-2448	24	6	5	124	129	8
-8404	-6896	11668	-13	17	-21	-16040	56	-1960	5	-1	-4	-15520	3920	-2968	-28	-5	17	-9120	6192	12832	8	-10	-19	-16152	2904	-2920	17	5	19	-15776	3352	-2728	34	-1	11	121	129	8
-8292	-6952	11772	-14	18	-22	-16288	288	-1792	9	6	-1	-15560	3776	-2552	-25	-14	24	-9088	6288	12592	13	-10	-22	-16320	2800	-3112	32	2	16	-15760	3440	-2528	42	5	8	123	129	8
-8384	-6944	11712	-10	16	-22	-16144	160	-1728	3	4	-2	-15736	3816	-2672	-5	-9	25	-9024	6128	12664	20	-4	-21	-16136	2968	-2736	16	5	24	-15752	3432	-2360	34	7	7	121	129	8
-8396	-6904	11748	-7	15	-22	-16264	128	-2120	-3	3	-4	-15560	3632	-2840	-3	-7	12	-9136	6096	12744	18	2	-19	-16136	2752	-2936	6	4	23	-15808	3264	-2648	17	3	2	125	129	8
-8388	-6896	11800	-15	17	-16	-16208	96	-1896	2	0	1	-15640	3616	-2936	-4	-7	15	-9256	6200	12800	19	-5	-13	-16232	2904	-2960	-4	6	17	-15800	3408	-2784	18	-3	1	123	129	8
-8376	-6884	11788	-6	17	-19	-16368	112	-1776	7	2	2	-15656	3888	-2824	4	-10	27	-9088	6064	12568	20	-3	-17	-16248	2904	-2936	4	3	17	-15872	3376	-2520	23	-1	5	121	130	8
-8372	-6920	11692	-10	17	-18	-16248	264	-1768	-2	4	2	-15744	3736	-2312	15	-20	34	-9048	6368	12880	21	-10	-16	-16144	2816	-2912	32	-4	22	-15856	3328	-2400	33	4	12	125	129	8
-8360	-6964	11684	-12	6	-24	-16104	112	-1992	-4	-1	-3	-15736	3888	-2552	17	-19	26	-9072	6224	12616	21	-8	-21	-16200	2864	-2872	44	-7	32	-15728	3656	-2528	45	3	15	123	129	8
-8348	-6940	11776	-11	10	-20	-16184	128	-1896	-2	7	2	-15536	3904	-2696	7	-17	24	-9120	6264	12648	20	-6	-23	-15944	2960	-2872	31	0	30	-15816	3528	-2696	40	0	8	123	130	8
-8336	-6972	11772	-12	15	-20	-16128	168	-1840	9	5	0	-15520	3832	-2832	1	-19	28	-9152	6200	12568	19	-3	-22	-16320	2984	-3016	1	7	22	-15784	3344	-2696	33	5	6	122	129	8
-8376	-6904	11768	-6	14	-19	-16136	120	-2024	12	4	-1	-15560	3952	-2792	8	-20	27	-9208	6104	12704	21	0	-16	-16104	2800	-2912	-12	9	16	-15768	3448	-2552	17	0	9	122	130	8
-8508	-6864	11820	-7	16	-19	-16160	224	-2208	23	2	3	-15600	3968	-2560	18	-15	29	-9056	6256	12584	18	-1	-18	-16112	2896	-2808	-7	5	20	-15880	3448	-2744	21	9	7	122	130	8
-8436	-6876	11812	-11	17	-16	-16168	424	-2096	-3	-3	3	-15568	3920	-2712	13	-8	21	-9192	6112	12592	20	-8	-16	-16216	2872	-2816	16	3	29	-15896	3568	-2536	31	8	12	122	130	8
-8396	-6872	11740	-6	16	-22	-16096	208	-1952	-5	-4	3	-15528	4136	-2968	-13	-9	19	-9192	6136	12632	24	-11	-24	-16112	2960	-2920	26	-6	31	-15840	3384	-2504	36	7	9	124	129	8
-8328	-6900	11816	-10	23	-23	-16304	40	-1992	1	-3	1	-15544	3968	-2720	-38	-15	21	-9048	6040	12496	19	0	-20	-16128	3008	-2800	8	-7	32	-15864	3408	-2560	33	2	12	124	130	8
-8324	-6900	11828	-8	15	-19	-16240	160	-1840	3	1	-4	-15512	3848	-2824	-24	-22	26	-9064	6168	12560	21	-2	-17	-16240	2992	-2856	-13	1	20	-15896	3368	-2496	19	-2	11	125	129	8
-8388	-6896	11792	-8	15	-19	-15984	176	-1808	0	-1	-1	-15528	3576	-2992	0	-18	20	-9024	6168	12448	23	-1	-15	-16208	2840	-2848	-20	0	19	-15832	3680	-2472	7	-1	10	123	129	8
-8420	-6912	11780	-10	14	-19	-16304	264	-1992	1	-1	1	-15784	3792	-2760	19	-9	16	-9232	6256	12480	24	-1	-18	-16128	2848	-3104	7	-5	25	-15904	3352	-2608	17	1	7	122	129	8
-8428	-6800	11808	-10	17	-15	-16104	232	-2216	-2	-3	-1	-15496	3920	-2784	17	-10	19	-9200	6296	12800	22	-10	-13	-16232	2888	-2872	26	-7	26	-15624	3592	-2616	31	7	8	121	129	8
-8416	-6852	11756	-9	11	-20	-16240	72	-1968	-5	-1	-2	-15464	3888	-3024	-1	-19	31	-9272	6312	12816	22	-7	-19	-16072	2896	-2776	24	-11	34	-15800	3520	-2328	31	4	10	124	129	8
-8328	-6984	11728	-9	10	-18	-16056	232	-1672	1	0	2	-15504	3936	-2856	-6	-33	34	-9080	6208	12600	26	-8	-13	-16304	3064	-2992	18	-2	22	-15744	3496	-2672	23	-2	13	123	130	8
-8400	-6912	11748	-7	13	-20	-16048	248	-1824	2	-4	1	-15600	3664	-2568	2	-27	33	-9072	6200	12904	20	-6	-17	-16000	2920	-2784	-7	-7	19	-15840	3464	-2440	7	4	11	124	129	8
-8392	-6904	11724	-6	11	-21	-16160	176	-2128	0	2	3	-15768	3792	-2792	20	-16	29	-9120	6152	12680	19	-3	-22	-16312	3016	-3008	-5	-1	25	-15816	3480	-2496	21	5	8	122	129	8
-8400	-6844	11776	-10	14	-18	-16120	368	-1968	-4	-1	4	-15736	3920	-2944	20	-7	22	-9072	6264	12728	19	-3	-19	-16200	2992	-2936	8	-1	22	-15744	3464	-2592	27	9	5	124	130	8
-8404	-6832	11632	-11	17	-14	-16088	224	-1880	-4	-2	7	-15480	3864	-2720	-7	-8	23	-9048	6256	12624	21	-4	-15	-16184	3056	-2704	7	2	20	-15672	3576	-2744	26	5	7	121	129	8
-8420	-6892	11768	-8	13	-25	-16064	264	-1992	-4	-3	-2	-15488	3984	-2720	-26	-14	20	-9048	6208	12552	16	-6	-17	-16224	3056	-2800	5	-5	23	-15704	3552	-2472	16	11	15	123	130	8
-8420	-6956	11688	-11	7	-22	-16064	232	-1888	-2	0	-4	-15408	3848	-2696	-35	-18	22	-9096	6192	12808	17	-4	-19	-16288	3056	-2824	5	3	23	-15768	3560	-2800	13	7	18	123	129	8
-8384	-6852	11832	-8	-3	-19	-16160	352	-2128	-10	0	2	-15544	3928	-2696	-22	-12	19	-9048	6216	12792	17	-5	-21	-16168	2848	-2864	10	-1	20	-16000	3448	-2456	13	8	12	124	129	8
-8376	-6888	11776	-14	1	-21	-16328	224	-1560	-20	-2	-7	-15624	3824	-2872	-19	-5	12	-9048	6208	12736	24	-7	-19	-16216	2888	-2944	13	-2	26	-15888	3440	-2504	23	9	2	123	129	8
-8328	-6860	11724	-16	18	-21	-16240	312	-1888	-19	-3	-6	-15720	3976	-2680	-22	-3	20	-9208	6144	12640	18	-5	-14	-16144	2960	-2848	7	0	18	-15800	3696	-2808	25	6	-7	121	129	8
-8356	-6812	11804	-17	18	-17	-16256	280	-2032	-12	-2	-9	-15592	3960	-2816	-19	-9	23	-9168	6248	12784	19	-2	-11	-16208	3016	-3048	-9	4	14	-15704	3744	-2504	14	8	-2	122	130	8
-8340	-6880	11772	-14	26	-19	-16160	184	-1928	3	-5	-7	-15624	3816	-2632	7	-16	20	-9128	6232	12664	13	-7	-19	-16152	2920	-3056	3	2	10	-15784	3616	-2560	11	5	6	123	130	8
-8404	-6876	11836	-17	24	-22	-16088	240	-1816	12	-3	-6	-15664	3920	-2360	23	-21	18	-9144	6120	12576	11	-6	-24	-16024	2952	-2984	30	-2	15	-15832	3536	-2704	18	1	5	122	129	8
-8404	-6900	11760	-13	22	-22	-16168	224	-1928	14	3	-4	-15632	3808	-2504	24	-16	6	-9312	6272	12848	16	-15	-26	-16072	2704	-2976	47	-8	22	-15776	3264	-2472	38	-6	-5	123	129	8
-8344	-6972	11820	-15	18	-22	-16112	136	-1512	14	4	-5	-15536	3824	-2496	13	-8	12	-8952	6112	12952	16	-13	-22	-16296	3000	-2784	36	-12	23	-15744	3400	-2672	55	1	-9	122	130	8
-8360	-6968	11804	-14	19	-21	-16064	296	-1848	9	5	-5	-15648	3792	-2832	4	-1	20	-9192	6112	12656	16	-6	-22	-16152	3080	-2944	11	-7	17	-15728	3384	-2760	49	-1	-6	121	129	8
-8372	-6904	11800	-10	11	-21	-16144	168	-1776	9	5	-8	-15704	3736	-2896	19	-4	29	-9048	6272	12880	18	-9	-18	-16112	3112	-2864	0	-3	11	-15816	3592	-2712	36	1	7	122	129	8
-8360	-6892	11736	-10	11	-26	-16088	232	-1688	12	2	-5	-15576	3848	-2808	32	0	32	-9056	6208	12632	16	-7	-21	-16208	2824	-2960	3	-2	13	-15696	3648	-2560	30	2	20	124	130	8
-8364	-6888	11708	-6	15	-26	-16144	320	-1744	19	9	-6	-15608	4000	-2744	44	-6	24	-9072	6200	12584	16	-3	-25	-16328	2768	-2976	35	-12	17	-15840	3408	-2568	38	-2	22	125	129	8
-8384	-6860	11808	-12	16	-23	-16200	256	-1736	27	8	-4	-15600	3992	-2768	37	-11	22	-9040	6336	12552	17	-13	-21	-16200	3016	-2864	47	-10	16	-15912	3368	-2656	62	2	13	122	130	8
-8368	-6900	11840	-12	19	-25	-16104	168	-1968	21	4	-1	-15496	3912	-2824	16	-18	23	-9000	6144	12736	17	-5	-19	-16160	3120	-3000	38	-7	22	-15736	3464	-2656	62	-1	1	123	130	8
-8404	-6968	11820	-10	16	-23	-16168	208	-2192	18	4	-8	-15496	3904	-2912	6	-16	21	-9232	6136	12712	19	-10	-18	-16144	2840	-3048	18	-7	16	-15712	3608	-2496	54	-8	-4	122	129	8
-8424	-6840	11704	-16	12	-25	-16136	176	-1976	1	2	-10	-15528	3800	-2792	9	-6	22	-9168	6200	12664	15	1	-17	-16088	2936	-2952	12	-5	13	-15896	3648	-2568	28	0	-4	122	129	8
-8344	-6884	11740	-13	15	-22	-16128	200	-2096	-1	0	-13	-15608	3984	-2864	13	3	15	-9024	6224	12696	21	-1	-22	-16168	3048	-2920	8	1	17	-15968	3568	-2624	15	4	-6	123	129	8
-8348	-6832	11864	-10	13	-25	-16208	208	-1824	0	4	-8	-15640	3912	-2912	19	1	18	-9240	6328	12776	16	-12	-21	-16056	2920	-2952	6	1	17	-15824	3416	-2568	11	7	1	123	130	8
-8392	-6900	11868	-14	15	-28	-16128	192	-1808	4	3	-9	-15632	4000	-2760	11	-7	18	-9024	6128	12552	19	-6	-22	-16064	2888	-2936	7	-2	17	-15760	3400	-2376	20	11	3	123	129	8
-8416	-6956	11724	-16	20	-23	-16304	328	-1880	12	0	-7	-15440	3952	-2776	11	-15	26	-9096	6152	12552	13	-9	-23	-16232	2864	-2856	3	3	13	-15848	3328	-2736	22	17	11	123	129	8
-8288	-6864	11692	-21	15	-23	-16320	360	-2032	6	5	-4	-15592	3952	-2936	8	-17	24	-9240	6152	12600	15	-2	-23	-16160	2968	-2792	9	0	12	-15720	3448	-2744	26	9	12	123	130	8
-8320	-6920	11836	-17	13	-20	-16168	384	-1864	-6	5	-7	-15640	3856	-2832	13	-9	14	-9168	6104	12792	12	-4	-26	-16384	2864	-2920	5	2	16	-15600	3504	-2792	42	5	5	123	129	8
-8428	-6928	11796	-19	16	-22	-16112	240	-2064	-8	3	-7	-15504	3888	-2632	3	-4	10	-9256	6248	12712	10	0	-22	-16360	3000	-3000	11	4	18	-15672	3584	-2728	34	9	0	123	129	8
-8340	-7080	11720	-14	15	-24	-16288	136	-1800	-1	4	-4	-15528	3784	-2936	-17	-2	10	-9072	6120	12736	16	-6	-19	-16224	2896	-2888	2	-1	19	-15784	3552	-2744	27	9	-4	124	129	8
-8396	-6836	11784	-15	20	-18	-16192	192	-1920	22	1	-4	-15536	4048	-2752	-26	-9	13	-9136	6072	12728	16	-2	-21	-16168	2936	-2992	-13	0	10	-15744	3528	-2736	12	12	3	123	129	8
-8452	-6828	11844	-12	16	-21	-16048	368	-1776	-3	8	-4	-15584	3984	-2816	-20	-7	23	-9168	6312	12552	16	-12	-18	-16328	2912	-2952	-11	7	16	-15968	3424	-2568	-2	15	4	123	130	8
-8456	-6796	11888	-15	5	-30	-16192	376	-1832	-22	7	-9	-15504	3872	-2840	-14	-14	20	-9072	6336	12736	15	-4	-14	-16216	3016	-3016	10	0	11	-15768	3472	-2464	7	7	7	122	129	8
-8332	-6972	11728	-16	8	-22	-16304	152	-1976	-22	0	-10	-15456	3904	-2936	-29	-10	14	-9088	6280	12664	15	-3	-19	-16208	2768	-2840	13	5	17	-15808	3488	-2392	10	5	4	122	129	8
-8332	-7068	11776	-16	7	-24	-16224	192	-1840	-6	1	-6	-15552	3872	-2952	-30	-8	12	-8984	6240	12608	16	-8	-24	-16232	3024	-2880	9	3	18	-15904	3536	-2656	12	0	2	123	129	8
-8364	-6884	11744	-16	17	-20	-16096	192	-1952	-3	-1	-3	-15784	3896	-2960	-14	-14	16	-9032	6264	12784	15	-6	-17	-16112	2920	-2984	-16	11	24	-15872	3264	-2784	7	14	-3	124	129	8
-8384	-6896	11660	-14	14	-23	-15936	280	-2168	-15	-2	-6	-15632	3896	-2864	6	-9	9	-9168	6064	12840	18	7	-18	-16144	2840	-2752	-23	7	17	-15616	3288	-2656	4	14	-4	124	130	8
-8456	-6880	11856	-12	4	-17	-16168	168	-2248	-21	-7	-5	-15448	3848	-3056	-14	-7	12	-9136	6040	12464	17	6	-17	-16256	2880	-3152	-17	5	12	-15648	3248	-2760	12	16	0	120	129	8
-8368	-6856	11732	-18	9	-21	-16056	208	-2168	-25	-10	-6	-15472	4000	-3096	-29	-11	23	-9096	6240	12656	22	-8	-11	-16136	2864	-2904	8	-2	21	-15968	3504	-2624	6	11	13	123	129	8
-8324	-6932	11836	-13	9	-20	-16128	184	-1888	-22	-10	-2	-15512	3912	-2944	-30	-18	28	-9080	6336	12592	19	-3	-18	-16176	2984	-2904	16	-4	26	-15704	3584	-2712	11	8	16	123	129	8
-8388	-6928	11844	-13	11	-18	-16112	32	-2144	-22	-7	-8	-15616	3896	-2744	-20	-25	17	-9152	6184	12680	12	-3	-15	-16224	2960	-2872	-9	-4	30	-15848	3440	-2880	-4	6	9	121	129	8
-8380	-6928	11756	-14	4	-18	-16144	192	-1840	-16	-11	-3	-15592	3928	-2816	-9	-16	9	-9200	6008	12792	15	-4	-12	-16288	3016	-2920	-12	-4	14	-15824	3600	-2480	-18	8	-2	122	129	8
-8356	-6800	11760	-13	4	-20	-16064	224	-1880	-21	-5	-2	-15472	4040	-2752	-8	-1	10	-9192	6232	12744	12	2	-11	-16128	2928	-2664	-10	0	9	-15680	3552	-2760	-6	11	-9	122	130	8
-8376	-6796	11780	-13	8	-20	-16272	264	-1896	-21	-7	-11	-15504	3816	-2528	-19	-4	14	-8920	6440	12592	15	-2	-20	-16176	3120	-3048	6	-5	16	-15752	3712	-2616	6	9	-5	123	129	8
-8368	-6896	11832	-11	18	-17	-16192	152	-1984	-8	-1	-5	-15648	3816	-2776	-30	-5	22	-9008	6192	12904	14	-4	-19	-16088	2976	-2848	22	-1	17	-15640	3592	-2672	14	14	-2	121	129	8
-8332	-6944	11732	-15	19	-21	-16112	272	-1816	1	-2	-6	-15464	3856	-2672	-18	-15	19	-9152	6240	12600	11	-1	-19	-16160	2936	-2816	7	-3	23	-15720	3336	-2784	23	12	0	122	129	8
-8348	-6876	11772	-16	20	-21	-16096	208	-1944	6	0	-6	-15600	3752	-2736	0	-12	16	-9088	6208	12576	13	3	-24	-16200	2840	-3008	-7	2	18	-15840	3352	-2552	20	11	9	125	130	8
-8360	-6860	11768	-14	15	-21	-16080	200	-2192	7	6	-15	-15608	3816	-2528	21	-10	13	-9040	6272	12792	11	1	-21	-16240	2984	-2864	-1	1	9	-15680	3360	-2728	27	0	12	125	129	8
-8320	-6864	11752	-19	15	-24	-16272	288	-1848	5	9	-9	-15632	3912	-2784	21	-10	13	-9160	6264	12784	15	-11	-18	-16120	2992	-2984	4	1	16	-15888	3568	-2352	26	3	7	125	129	8
-8368	-6828	11812	-17	16	-21	-16280	200	-2032	14	3	-5	-15704	3968	-2864	8	-3	24	-9152	6272	12536	18	-7	-22	-16168	2968	-3040	33	-3	15	-15816	3648	-2520	46	-2	4	125	129	8
-8380	-6924	11796	-14	18	-23	-16216	144	-1696	11	5	-3	-15584	3960	-2720	-4	-6	24	-9080	6224	12688	13	-9	-19	-16184	3008	-2808	32	-8	15	-15616	3480	-2536	48	11	1	122	129	8
-8384	-6896	11892	-12	18	-20	-16112	232	-1960	14	5	-6	-15504	3792	-2856	-4	-10	24	-9168	6248	12568	12	-10	-27	-16064	2936	-2816	20	-5	21	-15784	3496	-2696	30	8	1	124	129	8
-8388	-6908	11800	-11	16	-24	-16208	264	-1952	6	7	-7	-15552	3744	-2640	18	-7	22	-9232	6200	12448	15	-5	-24	-16288	2824	-2944	13	0	17	-15720	3408	-2760	22	6	5	121	130	8
-8352	-6952	11740	-13	14	-25	-16072	0	-2072	12	8	-9	-15600	3696	-2904	34	-6	23	-9168	6032	12640	18	-9	-19	-16208	3024	-3040	13	-3	15	-15896	3272	-2608	21	2	3	122	129	8
-8376	-6896	11700	-12	14	-22	-16224	208	-2024	15	7	-2	-15792	3760	-2984	46	-8	27	-9048	6136	12760	23	-4	-14	-16144	2984	-2864	14	-1	14	-15632	3600	-2616	38	-4	5	123	129	8
-8320	-6984	11676	-10	18	-26	-16048	224	-2304	18	10	-3	-15672	3936	-2992	36	-16	33	-9152	6224	12840	15	-3	-20	-16152	2968	-2760	20	-2	21	-15680	3520	-2568	44	3	4	123	130	8
-8412	-6924	11676	-7	15	-21	-16056	72	-2136	15	8	-7	-15616	4096	-2880	19	-14	34	-9168	6240	12696	17	-9	-21	-16096	3056	-2960	29	5	9	-15760	3512	-2504	38	1	10	125	129	8
-8348	-6868	11688	-10	15	-22	-16192	256	-2048	10	11	-4	-15488	3816	-2680	11	-7	32	-8928	6088	12784	20	-9	-21	-16088	2992	-2904	20	7	17	-15768	3544	-2480	29	13	15	122	129	8
-8336	-6796	11856	-13	10	-19	-16096	160	-2072	4	10	-7	-15480	3936	-2856	24	-3	22	-9072	6096	12688	10	-4	-26	-16224	2848	-2864	17	-2	21	-15936	3304	-2576	39	17	10	124	129	8
-8428	-6884	11860	-13	15	-24	-16200	240	-2200	2	9	-2	-15704	4000	-2720	2	-3	13	-9184	6312	12600	13	-2	-23	-16208	2952	-2920	2	5	21	-15568	3368	-2480	34	12	1	121	129	8
-8356	-6884	11860	-12	14	-24	-16120	224	-1832	6	8	-6	-15424	4000	-2984	-15	3	17	-9320	6248	12592	18	-7	-15	-16024	2760	-3000	-6	12	21	-15832	3472	-2328	27	3	-2	121	128	8
-8372	-6908	11756	-15	14	-23	-16112	240	-1984	2	11	-4	-15496	4032	-2976	-16	-4	21	-8792	6224	12712	23	-6	-11	-16112	3056	-3224	0	12	12	-15736	3496	-2440	14	-1	6	124	129	8
-8388	-6860	11788	-10	10	-27	-16088	272	-1768	-8	7	-1	-15464	3896	-2824	-7	-8	21	-8920	6696	12496	27	-8	-9	-15920	2984	-2656	-8	16	22	-15952	3544	-2536	14	10	17	123	129	8
-8320	-7136	11792	-14	11	-26	-16336	192	-1688	-10	9	-3	-15680	3752	-2864	1	-8	12	-9304	6248	12296	16	-10	-19	-16152	2816	-3064	3	16	14	-15672	3544	-2848	17	17	22	122	129	8
-8268	-6880	11808	-16	6	-22	-16072	96	-1920	-14	12	-7	-15456	3824	-3048	-6	-14	19	-9144	6000	12816	16	-7	-26	-16256	2784	-2688	12	8	20	-15744	3448	-2672	20	17	5	124	129	8
-8448	-6864	11812	-12	23	-13	-16208	128	-2144	1	11	-6	-15656	3944	-2856	-13	-11	25	-9096	6192	12696	17	-1	-21	-16040	2968	-3264	-4	10	17	-15608	3304	-3056	18	10	-9	123	130	8
-8392	-6800	11816	-14	20	-18	-16184	368	-1920	0	8	4	-15552	4000	-2936	-11	-10	32	-9056	6248	12616	19	-8	-17	-16136	2944	-2872	-10	11	15	-15712	3392	-2912	10	7	-7	123	129	8
-8352	-6856	11832	-11	16	-22	-16216	232	-2000	-4	5	-3	-15496	3880	-3016	-4	-4	23	-9136	6272	12488	14	3	-20	-15992	2800	-2960	-21	10	15	-15832	3504	-2840	13	15	5	124	130	8
-8368	-6912	11796	-17	15	-26	-16168	328	-2176	-5	5	-5	-15456	4056	-2912	4	-9	17	-8936	6304	12600	13	-9	-16	-16248	2912	-3008	4	13	23	-15880	3528	-2728	3	7	17	125	128	8
-8340	-6860	11756	-12	13	-19	-16200	200	-1880	-7	4	-2	-15648	3872	-2848	-2	-15	16	-9264	6216	12672	18	-6	-22	-16152	2976	-3080	4	6	17	-15784	3400	-2904	24	3	15	122	129	8
-8328	-6932	11852	-12	15	-18	-16280	168	-2048	-5	6	-5	-15752	4056	-2848	-6	-16	19	-8992	6368	12472	20	-2	-17	-16200	2896	-3032	14	6	13	-15848	3480	-2856	34	11	9	123	129	8
-8384	-6832	11736	-15	14	-22	-16176	320	-1680	-8	2	-6	-15416	3888	-2880	-19	-13	18	-9152	6360	12432	17	-5	-16	-16136	2888	-3088	10	-1	19	-15784	3520	-2880	35	11	7	123	129	8
-8344	-6848	11712	-5	14	-22	-16040	176	-2104	-4	0	-8	-15576	3824	-3096	-22	-8	16	-9192	6056	12584	13	-6	-22	-16096	2920	-3208	9	-1	24	-15664	3592	-2928	26	4	4	123	129	8
-8456	-6872	11804	-15	14	-23	-16256	200	-1984	-2	1	-1	-15560	3856	-2728	-8	-9	18	-9096	6216	12656	19	-6	-20	-16288	2952	-2840	2	-7	15	-15864	3464	-2792	13	-5	-1	123	129	8
-8360	-6892	11804	-12	12	-22	-16136	232	-2024	-1	-5	0	-15384	3896	-2880	3	-15	17	-9136	6240	12776	20	-9	-21	-16240	2968	-3184	-6	4	20	-15840	3544	-2656	11	-6	2	123	129	8
-8384	-6904	11792	-10	14	-22	-16120	440	-1832	7	-5	-5	-15560	3960	-2864	13	-22	26	-9224	6232	12624	14	-3	-19	-16152	2848	-3088	-3	-4	19	-15680	3520	-2848	12	-1	0	124	129	8
-8348	-6888	11704	-13	15	-25	-16008	200	-1960	-1	-3	-6	-15544	3936	-3128	20	-27	29	-9120	6128	12472	19	-6	-20	-16224	2896	-3288	4	-4	21	-15816	3424	-2768	18	0	4	123	129	8
-8328	-6936	11860	-14	17	-26	-16120	288	-1992	-5	-5	-4	-15568	3976	-3008	18	-23	18	-9120	6184	12624	16	-6	-18	-16136	2968	-3096	16	-7	15	-15752	3656	-2608	22	-5	1	122	129	8
-8352	-6896	11760	-12	15	-21	-16160	232	-2224	3	-4	-4	-15552	3944	-2864	-1	-13	15	-9232	6280	12440	14	-8	-16	-16128	2928	-3360	15	-8	14	-15608	3736	-2816	27	-2	0	124	129	8
-8412	-6904	11832	-9	17	-20	-16120	136	-2016	0	-3	-9	-15512	4000	-2872	1	-18	20	-9160	6184	12656	17	-7	-23	-16112	2896	-3008	20	-10	23	-15744	3576	-2848	37	-8	-2	123	129	8
-8376	-6968	11780	-7	17	-23	-16144	320	-1992	6	-4	-4	-15608	3904	-2912	10	-23	16	-9120	6128	12688	18	-7	-21	-16096	2992	-3152	19	-9	19	-15808	3544	-2840	22	-11	-1	123	129	8
-8388	-6848	11812	-13	16	-23	-16168	232	-2192	12	-7	-5	-15456	4024	-3056	7	-16	15	-9048	6184	12600	20	-13	-21	-16112	2904	-2976	6	-17	20	-15680	3368	-2648	30	-8	-5	121	129	8
-8336	-6864	11872	-13	19	-21	-16216	312	-1960	10	-7	-7	-15440	4064	-3088	6	-14	13	-9104	6000	12456	16	-4	-19	-16160	2888	-3000	11	-14	20	-15696	3480	-2768	41	-2	1	124	130	8
-8428	-6860	11736	-15	15	-25	-16208	312	-1984	1	-7	-8	-15504	4088	-2888	12	-16	18	-9208	6232	12664	19	-10	-21	-16240	2824	-3152	28	-15	13	-15696	3440	-2728	36	-8	7	121	129	8
-8372	-6940	11772	-12	12	-24	-16240	168	-2080	1	-6	-6	-15536	3904	-2864	6	-24	17	-9056	6248	12728	16	-9	-17	-16104	3096	-2880	29	-18	12	-15784	3696	-2568	33	-10	11	122	129	8
-8292	-6888	11824	-15	12	-24	-16232	336	-2032	7	-10	-11	-15592	3952	-2720	8	-30	14	-9088	6144	12672	13	-12	-24	-16232	2872	-2704	37	-18	20	-15720	3680	-2816	34	-9	6	122	129	8
-8400	-6900	11768	-16	15	-21	-16240	224	-1840	2	-10	-9	-15624	3864	-2880	8	-25	10	-9104	6168	12768	15	-7	-21	-16248	3016	-2920	17	-13	19	-15864	3352	-2696	22	-5	-1	124	129	8
-8372	-6956	11780	-16	15	-25	-16112	264	-2144	7	-10	-14	-15528	3912	-2872	2	-22	10	-9160	6240	12640	16	-9	-20	-16144	2968	-2896	-9	-13	16	-15664	3576	-2576	6	-8	-12	121	130	8
-8408	-6860	11848	-11	16	-24	-16224	280	-2016	3	-12	-12	-15504	4016	-2992	10	-17	17	-9136	6104	12672	17	-3	-15	-16200	2864	-2936	-10	-6	12	-15768	3448	-2520	6	-4	-16	121	129	8
-8372	-6808	11888	-16	15	-29	-16240	328	-2000	-3	-12	-8	-15536	4056	-3112	14	-20	20	-9160	6232	12432	15	-6	-14	-16136	2936	-3144	17	-16	12	-15816	3488	-2568	17	-8	-9	122	129	8
-8320	-6928	11784	-15	18	-28	-16176	184	-1808	0	-10	-15	-15640	3944	-2928	11	-25	14	-8968	6264	12728	14	-7	-22	-16024	2896	-2824	21	-17	18	-15688	3544	-2696	32	-4	6	124	129	8
-8352	-6888	11700	-20	17	-19	-16072	304	-2168	2	-7	-14	-15584	3928	-2840	11	-21	10	-9088	6176	12576	13	-11	-24	-16144	2992	-2632	24	-11	18	-15720	3504	-2584	39	-9	4	123	129	8
-8364	-6876	11740	-14	13	-22	-16104	240	-2104	2	-6	-15	-15608	3824	-2760	4	-21	7	-9032	6232	12704	16	-14	-17	-16144	2864	-2664	0	-7	11	-15736	3504	-2816	18	-4	-6	122	128	8
-8376	-6944	11768	-19	11	-23	-16376	304	-2064	-1	-8	-15	-15824	3888	-2760	-5	-7	8	-9016	6272	12568	15	-11	-27	-16216	2944	-3048	-8	-7	14	-15872	3552	-2648	14	-4	-15	124	128	8
-8404	-6876	11800	-21	19	-29	-16088	408	-2440	2	-11	-11	-15704	4016	-2768	1	-2	14	-9272	6168	12560	16	-4	-19	-16224	2944	-2888	9	-3	12	-15816	3464	-2304	25	-15	-16	124	129	8
-8396	-6884	11772	-23	16	-27	-16192	320	-2104	-4	-5	-13	-15544	3912	-2984	-6	-5	13	-9096	6232	12824	11	-5	-18	-16144	2976	-2824	16	-7	2	-15680	3536	-2448	52	-6	-3	121	129	8
-8384	-6876	11740	-19	18	-28	-16176	152	-1744	5	-5	-16	-15592	3976	-2744	-10	-16	5	-9192	6224	12624	13	-11	-21	-16104	2904	-3056	28	-12	9	-15744	3720	-2712	45	2	10	123	129	8
-8356	-6976	11768	-17	10	-27	-16144	208	-1816	9	-2	-9	-15424	3896	-2784	-8	-20	7	-9104	6296	12624	8	-8	-30	-16208	2928	-3128	26	-7	12	-15696	3464	-2480	23	-2	7	122	129	8
-8344	-6832	11784	-17	13	-26	-15968	280	-1976	8	-6	-15	-15568	3800	-2592	8	-20	8	-9032	6088	12416	11	-9	-22	-16248	2888	-2840	13	-9	14	-15808	3304	-2688	11	2	-8	121	129	8
-8428	-6900	11764	-10	15	-24	-16192	352	-2296	1	-3	-15	-15624	3872	-2888	9	-11	10	-9008	6240	12800	14	-3	-18	-16224	2904	-3032	1	-1	9	-15608	3288	-2816	15	-6	-18	124	128	8
-8404	-6892	11872	-20	10	-26	-16216	336	-1904	6	-2	-13	-15568	3840	-2952	19	-9	10	-9160	6048	12568	15	-6	-18	-16272	2728	-3040	-6	-7	10	-15872	3432	-2632	19	-12	-20	123	129	8
-8340	-6900	11764	-22	17	-25	-16280	288	-2144	6	-5	-12	-15376	3984	-2792	14	-17	12	-9088	6272	12632	14	-5	-19	-16232	3056	-2936	6	-7	6	-15736	3544	-2712	29	-9	-5	123	129	8
-8372	-6896	11820	-14	19	-30	-16168	152	-1952	10	-5	-12	-15592	3960	-2992	12	-21	22	-9096	6400	12752	11	-9	-22	-16176	2928	-3032	13	-9	12	-15888	3696	-2688	29	4	7	123	129	8
-8360	-6868	11724	-17	17	-25	-16160	264	-2016	5	-4	-14	-15472	3888	-2896	11	-17	4	-9016	6152	12416	11	-9	-24	-16136	2848	-3104	35	-4	12	-15832	3344	-2640	31	3	7	124	129	8
-8368	-6904	11740	-20	16	-26	-16192	208	-1848	1	0	-8	-15520	3864	-2752	-6	-16	2	-9168	6256	12616	20	-13	-27	-16256	2848	-2736	24	-8	14	-15696	3328	-2656	24	-4	0	123	129	8
-8384	-6972	11784	-13	14	-24	-16128	232	-1968	0	-7	-15	-15648	3760	-2832	-3	-10	8	-9064	6256	12456	13	-14	-24	-16056	3064	-3048	4	-4	15	-15784	3416	-2496	29	-10	-7	123	129	8
-8424	-6864	11852	-15	12	-25	-16240	280	-1992	0	-2	-13	-15752	3872	-2784	11	-11	14	-9080	6048	12672	11	-6	-23	-16240	2848	-3232	0	-5	8	-15824	3352	-2680	22	-9	-13	124	129	8
-8352	-6920	11788	-19	15	-24	-16144	200	-2296	0	-2	-10	-15616	3872	-2880	11	-12	9	-9088	6176	12536	13	-7	-20	-16136	2936	-3152	-1	1	3	-15648	3496	-2848	17	0	-8	123	129	8
-8368	-6956	11732	-19	14	-26	-16224	208	-1920	1	0	-10	-15440	3768	-2768	-7	-11	9	-9160	6264	12456	9	-7	-22	-16088	2792	-2992	2	-11	16	-15896	3616	-2704	25	3	0	123	129	8
-8336	-6976	11776	-18	18	-27	-16264	168	-2192	9	-3	-9	-15496	3880	-3088	-10	-16	8	-9168	6056	12488	10	-10	-22	-16160	2832	-3160	12	-6	14	-15768	3304	-2784	25	6	3	121	128	8
-8380	-6904	11720	-14	16	-24	-16200	264	-2096	6	-4	-11	-15560	3824	-3040	4	-18	15	-9200	6192	12664	17	-8	-18	-16160	2816	-3192	15	-9	13	-15768	3224	-3032	16	1	0	122	128	8
-8412	-6920	11788	-18	18	-24	-16104	256	-1984	-3	-6	-10	-15656	3808	-2872	13	-12	11	-9096	6256	12688	10	-2	-24	-16176	2760	-2944	13	-13	18	-15736	3392	-2712	31	-8	1	123	129	8
-8328	-6864	11852	-16	15	-26	-16184	136	-1776	-6	-6	-14	-15624	3840	-2768	9	-4	3	-8960	6296	12728	18	-6	-17	-16128	3032	-3008	20	-7	11	-15848	3600	-2784	35	-9	-5	125	129	8
-8400	-6936	11788	-18	17	-25	-16064	184	-1968	0	-5	-10	-15704	4024	-2760	0	-10	7	-8936	6232	12640	15	-9	-21	-16216	2832	-2784	14	-12	16	-15824	3472	-2536	27	-2	2	124	129	8
-8352	-6952	11672	-17	20	-24	-16168	40	-1744	10	-5	-9	-15592	4000	-2784	-2	-18	17	-9000	6208	12480	17	-11	-19	-16176	3008	-3040	20	-16	18	-15696	3512	-2816	31	0	0	124	129	8
-8364	-6972	11696	-12	19	-25	-15992	336	-2040	12	-7	-4	-15472	3744	-2928	6	-26	15	-9176	6144	12816	12	-6	-21	-16184	2952	-2992	13	-6	13	-15832	3392	-3032	26	3	-2	122	128	8
-8328	-6896	11848	-16	13	-21	-16120	192	-2040	6	-6	-5	-15568	3840	-2648	29	-20	21	-9048	6192	12728	16	-6	-22	-16128	2800	-3160	11	-13	18	-15864	3344	-2888	23	-5	-3	125	130	8
-8408	-6892	11680	-15	15	-25	-16208	192	-2288	-3	2	-5	-15544	3784	-2888	37	-10	20	-9176	6152	12664	16	-7	-18	-16184	3032	-2968	28	-7	10	-15904	3416	-2872	34	-13	-1	123	129	8
-8364	-6984	11652	-16	16	-25	-16056	104	-2096	-3	-3	-11	-15640	3880	-3008	20	-16	18	-9048	6192	12824	14	-7	-24	-16152	2888	-3016	13	-6	12	-15824	3464	-2504	31	-6	6	121	129	8
-8356	-6904	11764	-16	17	-21	-16136	184	-1792	14	-2	-9	-15712	3880	-2600	0	-20	18	-9152	6256	12576	14	-6	-25	-16120	2648	-2968	22	-6	16	-15928	3536	-2648	40	-5	8	123	129	8
-8412	-6980	11708	-12	24	-20	-16048	280	-1928	13	-3	-2	-15688	3904	-2960	-1	-24	22	-9120	6288	12592	12	-6	-24	-16144	2920	-2968	10	-6	15	-15616	3472	-2632	37	0	7	122	129	8
-8384	-6944	11760	-13	17	-24	-16104	208	-2096	7	-1	-4	-15584	3848	-2856	-3	-15	14	-9192	6096	12576	18	-8	-20	-16136	2992	-3176	-1	-9	19	-15624	3360	-2728	25	0	-1	124	129	8
-8420	-6896	11664	-8	10	-20	-16240	256	-1888	0	-2	-10	-15688	3896	-3160	-4	-4	5	-9200	6208	12784	16	-4	-25	-16080	2768	-2856	0	-7	17	-15752	3488	-2704	22	-1	0	124	129	8
-8340	-6916	11752	-13	12	-21	-16216	224	-2072	-1	-4	-9	-15576	3952	-3096	-21	-5	14	-9216	6280	12480	17	-5	-20	-16280	2880	-3072	6	-5	16	-15824	3368	-2704	16	1	6	125	128	8
-8396	-6900	11780	-11	19	-18	-16320	232	-1912	0	-3	-5	-15632	3928	-2888	-13	-8	23	-9216	6288	12672	14	-2	-14	-16160	2784	-3080	10	-9	21	-15872	3472	-2848	25	-2	10	122	128	8
-8424	-6972	11876	-16	17	-21	-16096	376	-1976	-2	-5	-7	-15432	3632	-2912	1	-17	22	-9040	6096	12736	16	-2	-17	-16136	2928	-2960	9	-5	23	-15744	3464	-2864	27	-6	4	123	129	8
-8356	-6988	11716	-14	17	-22	-16136	48	-1976	-4	-6	-7	-15472	3640	-2728	11	-18	17	-9096	6184	12608	15	-1	-20	-16184	2888	-2896	-5	-7	20	-15784	3600	-2496	12	-9	-2	123	129	8
-8396	-6932	11812	-12	15	-20	-16160	152	-2344	-1	-6	-7	-15512	3776	-2856	23	-12	14	-9224	6184	12528	17	-6	-21	-16072	2848	-2968	5	-11	21	-15712	3368	-2816	4	3	-6	125	129	8
-8392	-6932	11816	-10	15	-25	-16144	280	-1904	0	-3	-6	-15504	4056	-2992	5	-14	15	-9104	6288	12712	14	-3	-18	-16272	2840	-3264	18	-6	15	-15768	3256	-2688	19	2	5	125	128	8
-8388	-6900	11884	-14	14	-23	-16112	152	-1960	-1	-4	-7	-15544	3904	-2904	12	-22	28	-9104	6240	12560	14	-5	-20	-16040	2912	-2752	25	-14	19	-15760	3424	-2624	31	1	13	122	128	8
-8392	-6912	11872	-19	13	-20	-16200	320	-1872	3	-5	-4	-15536	3808	-2888	14	-27	26	-9216	6136	12704	17	-9	-19	-16216	2912	-2840	16	-7	22	-15872	3616	-2504	22	-4	6	123	128	8
-8392	-6888	11848	-9	13	-21	-16224	176	-2200	0	-1	-7	-15552	3800	-2784	16	-20	23	-9000	6112	12744	17	-6	-18	-16304	2824	-2968	-7	0	19	-15768	3536	-2824	16	-1	-5	123	128	8
-8396	-6848	11824	-13	17	-23	-16248	448	-2056	1	-2	-3	-15544	3800	-2752	3	-11	17	-9128	6008	12656	10	0	-21	-16184	2784	-3256	-8	-4	14	-15808	3464	-2616	8	1	-3	123	129	8
-8384	-6904	11716	-17	11	-20	-16288	224	-1752	5	-4	-4	-15584	3960	-2944	-5	-2	14	-9176	6240	12624	14	-5	-19	-16216	2912	-3000	9	-1	14	-15856	3352	-2800	18	5	1	125	128	8
-8340	-6880	11836	-6	14	-21	-16096	208	-1808	3	4	-7	-15608	3952	-2552	-12	-11	15	-9144	6072	12552	14	-9	-21	-16008	2912	-3040	17	-7	23	-15696	3368	-2656	36	3	4	123	128	8
-8396	-6904	11828	-14	11	-21	-15952	264	-1872	3	-6	-6	-15552	4048	-2848	-9	-11	17	-9080	6128	12544	17	-6	-26	-16200	3072	-3176	17	-3	21	-15832	3504	-2648	31	-1	5	122	128	8
-8376	-6856	11668	-16	13	-23	-16040	136	-1976	-4	-2	-10	-15480	3880	-2656	-7	-9	13	-9064	6184	12696	14	-13	-13	-16120	2872	-2912	-1	-1	18	-15752	3344	-2696	21	-3	5	122	128	8
-8360	-6920	11788	-13	11	-24	-16176	200	-1920	-5	0	-9	-15408	3992	-2864	-13	-5	10	-9120	6272	12560	18	-1	-21	-16200	2880	-2984	3	-6	15	-15712	3336	-2656	17	2	6	122	128	8
-8384	-6988	11760	-18	12	-21	-16120	144	-1968	-2	-6	-8	-15584	3744	-2784	-11	-6	13	-9104	6264	12576	17	-10	-16	-16144	2912	-3224	0	-1	13	-15800	3536	-2784	22	-1	9	124	128	8
-8392	-6956	11760	-12	18	-19	-16272	64	-1984	10	-6	-5	-15648	3664	-2904	10	-15	28	-9136	6280	12624	19	-8	-19	-16352	3000	-2960	9	-8	22	-15872	3464	-2808	31	-6	2	123	129	8
-8408	-6896	11720	-12	16	-22	-15960	208	-2112	7	-3	-7	-15672	3784	-2768	27	-21	26	-9200	6416	12680	18	-8	-19	-16072	2872	-2792	23	-9	15	-15872	3528	-2504	29	5	1	121	128	8
-8280	-6960	11764	-15	12	-23	-16224	200	-2016	0	-7	-7	-15592	3816	-2736	26	-16	23	-9184	6256	12568	16	-4	-19	-16072	2848	-3064	19	-10	23	-15832	3496	-2792	27	3	6	124	128	8
-8368	-6932	11720	-9	18	-22	-16208	200	-1808	-6	-4	-8	-15584	3992	-3040	13	-15	27	-9008	6240	12648	15	-11	-17	-16216	2936	-2728	20	-2	19	-15736	3472	-2520	17	4	4	122	128	8
-8348	-6932	11756	-13	13	-22	-16120	240	-1968	-5	0	-12	-15672	3816	-2816	10	-21	32	-9064	6328	12440	19	-6	-22	-16184	2768	-3080	2	5	18	-15832	3488	-2568	19	0	7	123	128	8
-8360	-6956	11816	-12	15	-22	-16176	232	-1912	6	-1	-6	-15648	3808	-2744	13	-23	21	-9160	6104	12624	15	-2	-20	-16184	2896	-3240	-3	0	19	-15848	3536	-2448	25	-1	5	125	128	8
-8340	-6880	11812	-12	17	-21	-16272	208	-1968	6	4	-4	-15520	3880	-2832	11	-13	15	-9192	6200	12640	18	0	-21	-16224	2912	-2840	-3	-1	17	-15816	3488	-2472	21	-2	6	124	129	8
-8428	-6928	11804	-15	18	-22	-16184	168	-1888	3	-2	-2	-15488	3928	-2896	-6	-9	7	-9152	6264	12456	15	0	-20	-16144	2872	-2896	11	-3	17	-15736	3416	-2624	26	1	3	122	129	8
-8380	-6884	11792	-17	14	-21	-16088	176	-2136	1	-2	-4	-15408	3952	-2904	-21	-8	14	-9048	6176	12816	13	-17	-20	-16056	2928	-2992	22	-6	19	-15712	3408	-2856	24	5	3	123	128	8
-8332	-6960	11796	-17	17	-17	-16112	272	-1952	-2	-2	-9	-15568	3840	-2824	-17	-10	18	-9096	6240	12648	16	-9	-21	-16296	2888	-2992	20	-4	17	-16008	3488	-2648	31	4	5	124	128	8
-8400	-6900	11768	-13	14	-21	-16184	288	-1896	-6	-1	-3	-15632	3824	-2624	-10	-15	16	-9064	6272	12560	15	-3	-21	-16056	2920	-2872	4	-3	17	-15824	3432	-2560	28	0	5	124	128	8
-8408	-6924	11804	-13	17	-26	-16184	304	-2120	-3	2	-4	-15608	3776	-2696	-8	-7	8	-8936	6256	12944	15	-5	-17	-16104	3000	-2712	-12	1	19	-15664	3464	-2840	19	-1	-1	125	129	8
-8408	-6940	11808	-16	13	-19	-16224	120	-2072	4	-5	-8	-15464	3808	-2992	-14	-7	8	-9192	6336	12360	13	-1	-17	-16256	2904	-2992	-11	-5	14	-15728	3392	-2808	9	2	-3	122	129	8
-8368	-6880	11684	-13	13	-20	-16104	256	-2112	11	-4	-3	-15440	3912	-3040	-1	-16	23	-9080	6224	12576	15	-7	-21	-16288	2872	-3152	10	-7	13	-15584	3480	-2624	8	3	-3	123	128	8
-8392	-6924	11732	-17	13	-22	-16080	264	-1984	1	-6	-9	-15704	3992	-2840	28	-15	27	-9024	6088	12536	17	-11	-19	-16184	2928	-2784	28	-16	17	-15744	3472	-2640	33	1	1	122	129	8
-8364	-6920	11776	-15	13	-23	-16040	248	-2048	-4	-3	-5	-15504	3728	-2856	19	-18	17	-9168	6184	12648	13	-5	-20	-16208	2992	-2880	22	-12	23	-15704	3512	-2648	43	-3	3	125	128	8
-8376	-6996	11788	-15	14	-23	-16088	208	-2016	-2	-4	-10	-15584	3904	-2864	5	-18	18	-9120	6128	12512	17	-10	-23	-16144	2816	-2880	6	-9	19	-15824	3472	-2712	27	-5	3	122	129	8
-8376	-6908	11784	-10	17	-24	-16200	176	-2048	7	-3	-7	-15664	3872	-2872	5	-18	24	-9224	6136	12672	21	-13	-22	-16152	2896	-3048	-4	-6	16	-15712	3432	-2440	11	-1	5	123	127	8
-8336	-6952	11876	-11	15	-24	-16208	168	-1672	10	-3	-2	-15592	3760	-2736	13	-16	22	-9016	6256	12648	13	-1	-26	-16144	2760	-3144	5	-5	13	-15736	3520	-2640	7	6	2	124	129	8
-8432	-6860	11772	-11	13	-28	-16256	360	-1976	0	-3	-8	-15576	3984	-2672	16	-14	25	-9048	6264	12664	19	-1	-18	-16128	2816	-3096	27	-7	12	-15736	3552	-2928	29	0	4	124	128	8
-8372	-6932	11708	-17	14	-28	-15968	192	-1920	1	-1	-7	-15552	3904	-2792	14	-19	15	-9168	6336	12864	18	-10	-22	-16256	2832	-2888	20	-11	19	-15752	3592	-2568	41	-5	2	125	128	8
-8392	-7008	11776	-12	16	-24	-16344	160	-1960	9	-1	-7	-15720	3888	-2672	-3	-15	20	-9176	6272	12640	17	-5	-21	-16176	2944	-2800	16	-10	22	-15784	3448	-2712	42	-7	0	125	128	8
-8364	-6908	11692	-18	17	-24	-16192	192	-2048	11	-3	-1	-15616	3992	-2648	-11	-13	23	-9208	6176	12552	11	-1	-20	-16288	2712	-3048	-1	-6	17	-15848	3256	-2840	22	1	2	124	129	8
-8360	-6908	11756	-13	19	-25	-16272	240	-1880	6	-1	-4	-15536	3824	-2952	-6	-10	18	-9240	6280	12576	15	-1	-17	-16128	2976	-3264	7	-4	12	-15664	3312	-2584	22	3	5	123	129	8
-8380	-6984	11688	-11	15	-25	-16104	280	-2200	1	-5	-5	-15552	3712	-3168	8	-8	12	-9152	6232	12824	19	-9	-20	-16152	2872	-2904	13	-10	17	-15744	3376	-2568	31	-2	9	121	128	8
-8412	-6880	11780	-11	21	-21	-15984	112	-2056	-1	-3	-5	-15584	3768	-2912	14	-10	13	-9256	6304	12808	15	-5	-25	-16160	2912	-2888	18	-8	19	-15840	3552	-2648	36	-11	6	123	128	8
-8432	-6988	11808	-11	15	-22	-16264	240	-2048	7	1	-3	-15568	3880	-2968	14	-16	14	-9224	6264	12528	17	-10	-24	-16160	2976	-2936	9	-7	18	-15744	3656	-2472	21	-3	0	121	129	8
-8340	-6952	11768	-14	16	-23	-16120	232	-1904	16	-1	-6	-15424	3768	-2848	7	-15	19	-9184	6096	12576	17	-4	-22	-16232	2784	-2952	4	-5	13	-15672	3352	-2680	11	2	2	121	129	8
-8408	-6884	11704	-13	16	-20	-16304	224	-2016	8	-1	-6	-15504	3760	-2816	12	-16	24	-9056	6312	12632	17	-4	-14	-16216	2904	-3008	10	-8	8	-15800	3400	-2624	14	2	3	122	128	8
-8400	-6900	11784	-14	17	-24	-16008	256	-1840	-3	-3	-8	-15608	3864	-2728	19	-19	26	-9104	6176	12792	18	-4	-18	-16064	2840	-3040	13	-4	22	-15592	3408	-2784	31	-1	8	124	128	8
-8392	-6972	11772	-18	18	-20	-16176	192	-1928	-5	-2	-8	-15560	3800	-3080	23	-20	25	-9104	6192	12696	17	-4	-23	-16256	3032	-2872	13	-2	16	-15744	3400	-2624	39	-3	5	125	128	8
-8432	-6920	11848	-14	15	-17	-16216	232	-1960	1	1	-3	-15512	3832	-2856	15	-21	17	-9128	6248	12584	17	-2	-21	-16256	3032	-3032	3	-3	16	-15696	3648	-2616	21	3	-1	124	128	8
-8396	-6916	11756	-12	15	-21	-16176	232	-2136	10	-2	-1	-15552	3920	-2696	5	-9	15	-9256	6168	12696	13	-8	-23	-16152	2848	-3184	3	-5	19	-15896	3504	-2696	11	4	-1	125	128	8
-8380	-6924	11808	-11	16	-19	-16192	400	-1912	8	-4	-3	-15400	3944	-2832	-7	-3	12	-9176	6184	12568	17	-2	-18	-16256	2808	-3000	17	-6	16	-15704	3224	-2624	16	10	8	123	128	8
-8428	-6980	11720	-17	13	-23	-16248	296	-1944	2	1	-3	-15640	3904	-2888	-16	-6	15	-9088	6240	12744	13	-2	-18	-16144	2920	-2864	20	-7	21	-15624	3480	-2856	34	3	9	122	128	8
-8392	-6844	11708	-10	9	-22	-16104	272	-1896	-4	1	-3	-15464	3912	-2960	-30	-6	19	-8992	6056	13040	18	-8	-18	-16104	2944	-3040	5	-8	22	-15696	3472	-2656	34	-9	5	123	128	8
-8432	-6972	11752	-16	14	-19	-16376	224	-1960	-5	-6	-3	-15664	3816	-2976	-23	-17	17	-9152	6176	12560	16	-5	-22	-16128	2936	-3000	-7	3	21	-15720	3632	-2640	20	-2	6	125	128	8
-8332	-6920	11812	-14	13	-20	-16144	288	-1912	-4	0	-7	-15624	3896	-2808	-1	-13	21	-9040	6280	12464	18	-6	-20	-16208	2816	-2912	-3	-4	13	-15808	3472	-2744	10	-1	3	125	128	8
-8388	-6908	11748	-10	11	-25	-16320	288	-1880	-5	-5	-2	-15496	3928	-2936	15	-13	12	-9184	6136	12672	14	-2	-17	-16112	2808	-3184	16	-1	17	-15800	3432	-2848	19	10	7	125	128	8
-8368	-6900	11800	-12	17	-23	-16112	152	-2016	2	-4	-2	-15432	3968	-2720	11	-8	15	-9280	6048	12736	11	-1	-22	-16128	2968	-3112	25	-11	24	-15760	3312	-2608	25	4	2	123	128	8
-8344	-6920	11724	-15	14	-24	-16200	200	-1808	1	-5	0	-15576	3920	-2848	-1	-26	22	-9120	6296	12752	14	-7	-20	-16096	3032	-3200	14	-1	21	-15776	3408	-2608	27	-5	0	122	128	8
-8364	-6988	11872	-12	15	-20	-16080	96	-1824	0	-4	-5	-15584	3872	-2704	-8	-35	31	-8968	6080	12656	19	-8	-20	-16224	2992	-3064	-11	0	19	-15872	3704	-2736	13	-6	-1	123	127	8
-8384	-6852	11812	-9	17	-18	-16144	232	-1952	-1	-5	-8	-15648	3728	-2664	4	-24	21	-9176	6064	12600	16	-11	-21	-16248	2696	-3008	-23	1	17	-15816	3512	-2864	-5	1	-2	123	128	8
-8344	-6884	11836	-15	15	-20	-16104	400	-2200	-4	-5	-5	-15656	3872	-2928	12	-5	16	-9168	6208	12672	14	-4	-17	-16160	2872	-2712	4	-1	13	-15864	3328	-2744	8	2	5	123	129	8
-8396	-6860	11808	-9	13	-22	-16192	200	-1976	-7	0	-2	-15464	4000	-2648	5	-3	13	-9224	6304	12448	17	-7	-15	-16248	2952	-3232	21	-2	14	-15568	3304	-2728	32	4	12	122	128	8
-8364	-6936	11864	-14	14	-21	-16184	296	-1872	5	4	-4	-15504	3936	-2808	-2	-18	17	-9080	6144	12664	17	-8	-22	-16088	2960	-3032	27	-10	28	-15752	3488	-2408	49	-1	9	122	128	8
-8340	-6888	11792	-17	16	-21	-16048	208	-1920	3	-1	-2	-15656	3840	-2776	-7	-21	26	-9032	6144	12576	17	-4	-20	-16144	2880	-3064	22	-3	24	-15728	3320	-2456	32	-5	6	125	128	8
-8336	-6908	11680	-13	17	-25	-16168	80	-2024	2	3	-3	-15528	3920	-2744	-11	-23	19	-9120	6176	12576	15	-1	-22	-16144	2848	-2912	-12	3	20	-15856	3440	-2568	7	3	0	125	128	8
-8284	-7024	11748	-14	19	-22	-16112	144	-1984	10	-3	-6	-15616	4000	-2880	-9	-10	17	-9080	6136	12672	18	0	-19	-16208	2800	-3136	-12	-2	11	-15680	3432	-2624	14	0	4	125	129	8
-8404	-6924	11724	-10	13	-23	-16168	272	-2112	-1	2	-9	-15576	3952	-2840	7	-2	18	-9208	6136	12808	19	-2	-19	-16136	2768	-2896	16	-5	17	-15728	3392	-2848	27	0	4	123	129	8
-8392	-6908	11880	-9	15	-23	-16184	208	-1840	-4	-2	-5	-15512	3864	-2872	8	-11	16	-9104	6352	12704	18	-8	-17	-16288	2960	-3040	34	-19	22	-15736	3496	-2592	44	-5	9	124	128	8
-8280	-6912	11808	-10	18	-20	-16168	200	-1760	5	-5	-5	-15624	3816	-2704	3	-14	22	-9128	6296	12440	18	-9	-21	-16216	2880	-2960	30	-9	25	-15776	3432	-2680	38	-8	8	123	129	8
-8384	-6928	11776	-11	17	-25	-16176	112	-1752	2	-1	-2	-15616	3808	-2544	9	-23	19	-8952	6072	12712	15	-5	-19	-16176	3032	-2976	5	-4	20	-15752	3632	-2888	15	-6	5	124	128	8
-8356	-6888	11780	-11	15	-19	-16088	280	-1648	11	2	-3	-15760	3888	-2776	13	-27	19	-9104	6184	12616	17	-3	-26	-16224	2968	-3200	-16	1	21	-15888	3400	-2640	6	-2	3	122	129	8
-8380	-6920	11824	-12	22	-24	-16096	400	-1992	7	-4	-4	-15552	3832	-2952	13	-16	21	-9016	6224	12568	15	-2	-15	-16312	2816	-3064	-17	1	18	-15752	3392	-2424	17	-4	5	123	128	8
-8400	-6920	11704	-17	18	-21	-16192	248	-1968	4	1	-4	-15504	3776	-2768	23	-15	23	-9032	6168	12600	18	-12	-15	-16184	2784	-3000	15	-7	20	-15648	3480	-2752	39	0	2	124	129	8
-8360	-6864	11788	-9	14	-22	-16312	128	-2016	3	-2	-2	-15440	4024	-2768	9	-19	21	-9192	6248	12664	14	-10	-20	-16112	2720	-3088	39	-12	18	-15824	3448	-2568	49	-3	5	122	129	8
-8344	-6936	11812	-9	12	-21	-16120	184	-2064	0	-2	-2	-15496	3992	-3120	-10	-18	21	-9160	6360	12664	17	-9	-18	-16104	2920	-2848	24	-15	23	-15936	3592	-2728	36	0	6	124	128	8
-8352	-6832	11832	-7	17	-25	-16184	272	-1992	-5	-7	-2	-15560	3984	-3024	-13	-16	21	-9120	6264	12808	17	-7	-17	-16008	2840	-2960	1	-7	20	-15776	3480	-2616	9	6	10	123	129	8
-8348	-6920	11688	-11	19	-16	-16168	288	-2056	-4	-3	-5	-15568	3984	-2976	-14	-18	17	-9040	6200	12552	20	2	-18	-16184	3080	-2888	-17	0	17	-15872	3272	-2624	5	2	7	124	129	8
-8428	-6928	11740	-9	12	-24	-16208	328	-1832	-2	-7	-8	-15536	3928	-2816	-2	-14	11	-9080	6200	12488	19	0	-18	-16032	2832	-2856	-8	-7	15	-15600	3448	-2904	16	-3	-1	124	128	8
-8404	-6884	11704	-6	16	-28	-16232	160	-1776	1	-6	-5	-15512	3888	-2784	-4	-14	10	-9152	6080	12808	17	-8	-15	-16056	2816	-2952	10	-9	18	-15704	3560	-2712	24	0	2	124	129	8
-8416	-6904	11772	-12	16	-21	-16064	208	-2184	0	-8	-6	-15512	4008	-2912	3	-13	18	-9088	6304	12728	17	-13	-22	-16320	3016	-2808	26	-7	21	-15736	3728	-2696	22	0	1	124	129	8
-8392	-6960	11800	-11	9	-24	-16168	224	-2168	-6	-7	-2	-15416	3824	-2992	-4	-17	16	-9192	6216	12664	21	-6	-23	-16176	2776	-2728	16	-5	23	-15880	3560	-2696	5	4	5	122	128	8
-8316	-6952	11796	-11	16	-24	-16144	248	-2016	-2	-7	-7	-15544	3832	-2776	5	-18	26	-9072	6000	12656	16	-8	-20	-16128	2976	-3008	0	0	22	-15824	3392	-2624	11	4	2	125	129	8
-8396	-6940	11768	-15	15	-20	-16120	304	-2032	-5	2	-6	-15600	3840	-2632	14	-23	27	-9136	6120	12776	15	-3	-14	-16200	2880	-3096	-11	-2	18	-15704	3312	-2688	15	-2	-2	126	128	8
-8292	-6936	11872	-14	15	-23	-16088	272	-2040	-1	-2	-1	-15656	3880	-2680	24	-26	23	-9080	6256	12552	16	-2	-10	-16160	2800	-3000	-11	-5	13	-15728	3552	-2808	22	-3	-1	125	129	8
-8420	-6940	11816	-12	11	-21	-16112	240	-2000	9	-5	-6	-15528	3856	-2968	18	-19	17	-9088	6224	12472	18	-4	-14	-16144	2952	-3056	10	-2	15	-15808	3648	-2880	25	-3	8	123	128	8
-8452	-6868	11632	-8	14	-23	-16136	360	-2256	12	-4	-5	-15632	4040	-2864	0	-9	11	-9040	6408	12608	15	-12	-23	-16112	2728	-3152	18	-6	28	-15936	3464	-2608	24	6	11	122	129	8
-8408	-6860	11768	-11	9	-24	-15992	392	-1880	-1	-2	-3	-15416	4120	-2880	-11	-8	18	-9144	6224	12848	20	-10	-18	-16152	2992	-3112	30	-8	18	-15672	3472	-2640	33	1	9	123	128	8
-8356	-6868	11732	-16	17	-25	-16200	200	-1928	-6	-3	-5	-15576	4088	-2784	-38	-12	11	-9040	6152	12768	17	-4	-20	-16312	2968	-3016	6	-8	19	-15720	3440	-2736	38	-6	9	124	129	8
-8412	-6920	11852	-12	15	-24	-16048	64	-2272	-2	1	-6	-15696	3744	-3128	-31	-15	18	-9192	6264	12512	14	-14	-17	-16232	2912	-2944	-1	1	17	-15872	3528	-2752	34	-6	0	124	129	8
-8372	-7000	11684	-11	13	-19	-16112	120	-2184	-1	-2	-4	-15576	3688	-2824	-14	-16	13	-9048	6240	12768	15	-3	-23	-16184	3008	-3272	-7	-6	15	-15936	3552	-2792	15	-3	-1	125	129	8
-8408	-6884	11760	-10	16	-18	-16176	264	-2056	9	-7	-6	-15720	3656	-2808	8	-14	14	-9144	6296	12840	15	-2	-22	-16200	2968	-3264	7	-13	16	-15640	3496	-2448	0	-2	1	122	128	8
-8404	-6920	11776	-13	15	-20	-16176	184	-2152	2	-3	-6	-15608	3776	-2872	22	-13	18	-9032	6152	12624	15	-7	-17	-16112	2928	-2992	12	-10	18	-15744	3616	-2712	9	0	4	124	129	8
-8308	-6964	11872	-11	17	-24	-16096	240	-1928	0	-9	-6	-15640	3952	-2936	20	-16	21	-9072	6176	12640	14	-1	-22	-16320	2968	-2856	23	-9	20	-15744	3344	-2696	35	-4	8	123	128	8
-8392	-6880	11760	-13	14	-26	-16184	240	-2016	-3	-3	-6	-15456	4064	-2872	17	-29	28	-9064	6184	12368	18	-7	-17	-16160	2968	-3208	19	-12	16	-15648	3360	-2688	35	-4	10	124	128	8
-8324	-6996	11828	-12	14	-22	-16184	184	-1864	2	-5	-6	-15416	3952	-2848	10	-35	29	-9184	6176	12384	13	-5	-21	-16064	2960	-2960	7	-11	20	-15856	3536	-2584	29	-5	6	123	127	8
-8428	-6884	11784	-7	12	-19	-16248	312	-2080	8	-4	-4	-15600	3832	-2680	12	-24	21	-9104	6400	12440	19	-12	-23	-16176	2864	-2816	0	-7	22	-15856	3528	-2680	19	-10	0	123	128	8
-8372	-6932	11716	-12	15	-23	-16104	256	-1904	5	-5	-4	-15600	3784	-2840	11	-18	13	-9080	6136	12784	18	-5	-16	-16320	2976	-2992	11	-4	15	-15752	3312	-2608	11	0	-2	122	128	8
-8436	-6892	11856	-13	14	-18	-16216	424	-2208	0	-7	-6	-15752	4144	-2840	14	-12	17	-9128	6144	12592	16	-6	-19	-16160	2960	-2968	9	-9	17	-15664	3408	-2648	30	3	6	121	128	8
-8392	-6864	11688	-10	16	-23	-16160	256	-1992	-7	-4	-6	-15568	4032	-2640	-4	-12	17	-9096	6224	12488	18	-3	-17	-16080	2984	-2992	18	-12	20	-15608	3504	-2680	40	-2	8	125	128	8
-8440	-6896	11772	-16	12	-21	-16216	152	-1920	-5	-4	-7	-15576	3912	-2608	-28	-12	13	-9008	6232	12600	18	-8	-22	-16080	3064	-2816	13	-6	15	-15616	3488	-2568	25	-7	6	124	128	8
