#Activity	standing 
#ActivityID	8 
#Date 09-23-17-01
acc_rf_x	acc_rf_y	acc_rf_z	gyro_rf_x	gyro_rf_y	gyro_rf_z	acc_rs_x	acc_rs_y	acc_rs_z	gyro_rs_x	gyro_rs_y	gyro_rs_z	acc_rt_x	acc_rt_y	acc_rt_z	gyro_rt_x	gyro_rt_y	gyro_rt_z	acc_lf_x	acc_lf_y	acc_lf_z	gyro_lf_x	gyro_lf_y	gyro_lf_z	acc_ls_x	acc_ls_y	acc_ls_z	gyro_ls_x	gyro_ls_y	gyro_ls_z	acc_lt_x	acc_lt_y	acc_lt_z	gyro_lt_x	gyro_lt_y	gyro_lt_z	EMG_r	EMG_l	act
-9996	-4028	11732	-18	14	-27	-16416	1192	-1640	4	0	15	-14952	2792	-5496	0	3	-9	-9368	3936	13080	20	-1	-19	-15928	-3288	-384	-35	-23	-15	-15816	-1256	-3864	-9	-5	6	127	120	8
-9932	-4064	11636	-14	21	-29	-16808	1352	-1720	31	-1	10	-15048	2768	-5688	12	2	-3	-9448	3896	13304	23	-4	-16	-15800	-3048	-160	-20	-11	-3	-15576	-1176	-3856	-7	3	8	127	120	8
-9952	-4148	11780	-16	23	-26	-16696	1544	-1944	13	-7	8	-15096	2776	-5400	34	0	-1	-9296	3824	13328	19	4	-22	-15792	-3096	-184	-50	-7	2	-15752	-1016	-3768	-18	-9	11	127	120	8
-9964	-4036	11736	-21	25	-25	-16520	1272	-1896	31	-13	10	-15096	2872	-5312	54	-12	5	-9448	3904	13096	19	9	-22	-15704	-3024	-520	-77	12	-7	-15704	-1128	-4000	-42	-23	19	127	119	8
-10004	-4160	11692	-25	24	-25	-16744	1088	-1816	40	-21	18	-15136	2840	-5448	57	-6	9	-9408	4064	12920	11	4	-19	-15848	-2928	-520	-73	20	0	-15576	-1216	-4352	-26	-21	10	127	121	8
-9924	-4132	11660	-26	22	-26	-16624	1280	-1512	47	-25	20	-15064	2864	-5256	55	-6	7	-9480	4088	13392	18	5	-22	-15768	-3088	-608	-52	25	-3	-15472	-1096	-4352	-27	-26	7	127	120	8
-9912	-4172	11740	-26	23	-24	-16552	1376	-1688	47	-25	29	-15048	3024	-5320	40	16	3	-9400	3984	13224	17	2	-20	-15760	-3144	-752	-48	19	-3	-15488	-1136	-4504	-20	-25	11	127	121	8
-9988	-4124	11640	-18	18	-25	-16448	1304	-1768	20	-22	22	-15088	2952	-5296	27	13	0	-9528	4040	12944	17	-7	-18	-15912	-2968	-656	-46	20	-4	-15360	-1120	-4256	-19	-24	15	127	121	8
-10032	-4092	11664	-15	17	-23	-16400	1360	-1576	-8	-17	14	-15120	2936	-4928	7	13	-9	-9328	4136	13256	12	-6	-22	-15720	-3288	-872	-31	12	-5	-15480	-1368	-4560	-10	-21	12	127	119	8
-9940	-4144	11676	-13	10	-24	-16600	1224	-1544	-34	-11	7	-15232	3248	-5072	-12	0	-9	-9360	4024	13128	17	-3	-18	-16000	-3120	-984	-10	11	-6	-15504	-1232	-4584	-8	-23	9	127	119	8
-9992	-4128	11744	-18	9	-21	-16456	1320	-1664	-29	-6	5	-15088	3144	-4992	-19	1	-18	-9432	4080	13120	8	-8	-22	-15688	-2960	-696	-34	6	6	-15344	-1040	-4312	-19	-23	13	127	120	8
-9992	-4072	11748	-13	6	-23	-16304	1224	-1592	-12	-6	12	-15056	3040	-5016	-4	20	-13	-9408	3992	13008	10	-9	-23	-15752	-3112	-848	-55	8	-10	-15416	-1184	-4296	-26	-11	16	127	120	8
-9976	-4108	11668	-16	5	-30	-16576	1512	-1744	6	-4	16	-15080	3000	-5416	2	16	-6	-9352	3976	13096	10	-4	-21	-15952	-3288	-904	-37	0	-13	-15544	-1080	-4528	-10	-10	9	127	120	8
-9940	-4132	11644	-18	15	-28	-16680	1256	-1712	5	-4	19	-15112	2784	-5280	-3	19	-3	-9504	4056	13128	16	-10	-22	-15960	-3104	-664	-5	0	-3	-15784	-1128	-4584	-4	-8	5	127	119	8
-9964	-4176	11768	-22	16	-28	-16480	1160	-1864	16	-7	11	-15080	2880	-5520	12	13	-9	-9576	4040	13128	15	-5	-20	-15944	-3064	-504	-8	-1	-1	-15552	-976	-4104	-21	-22	10	127	120	8
-10088	-4112	11624	-15	19	-22	-16400	1240	-1640	20	-7	7	-15040	2808	-5296	26	13	-8	-9560	4048	12952	11	-12	-21	-15832	-3216	-952	-49	15	-6	-15480	-1280	-4264	-25	-32	10	127	119	8
-10012	-4180	11684	-10	21	-28	-16528	1488	-1896	-1	-7	6	-15056	3016	-4960	37	6	-1	-9512	4096	13112	15	-13	-22	-15816	-3080	-688	-31	12	-12	-15528	-1384	-4288	-6	-27	6	127	121	8
-9952	-4136	11676	-12	18	-28	-16648	1104	-1536	3	-7	6	-14936	2896	-5296	26	-9	0	-9456	3896	13168	15	-5	-23	-15960	-3080	-784	-19	18	-9	-15472	-1048	-4192	-1	-21	10	127	119	8
-10016	-4168	11668	-11	20	-29	-16480	1216	-1704	13	-4	10	-15080	2944	-5472	22	-8	-1	-9544	4056	13184	14	-10	-28	-15976	-3216	-1064	-13	10	-2	-15528	-1328	-4416	-14	-18	18	127	118	8
-9984	-4048	11712	-14	13	-33	-16576	1456	-1640	24	-3	9	-15088	3032	-5336	30	1	-2	-9528	3864	13000	13	-8	-20	-15856	-3040	-1008	-4	9	-6	-15464	-1304	-4576	-5	-14	20	127	119	8
-9984	-4120	11732	-11	11	-32	-16576	1248	-1624	5	-8	11	-15064	2984	-5232	24	1	-6	-9360	3944	13152	16	-12	-18	-15912	-3184	-1000	4	6	-5	-15536	-1248	-4488	5	-24	15	127	119	8
-10000	-4140	11668	-15	12	-31	-16416	1376	-1544	-14	-15	8	-15016	3000	-5240	5	5	-9	-9424	4088	12936	19	2	-22	-15792	-3080	-584	-2	1	-7	-15624	-968	-4688	-8	-36	18	127	120	8
-9984	-4180	11708	-20	8	-30	-16560	1144	-1736	-3	-21	13	-14944	2840	-5336	6	13	-8	-9424	4056	13272	19	0	-17	-15952	-2944	-952	-10	3	-5	-15576	-1040	-4640	-13	-25	12	127	120	8
-10008	-4124	11676	-20	13	-25	-16552	1136	-1432	-9	-9	6	-15168	2712	-5288	15	17	-4	-9312	4064	13224	15	-1	-21	-15632	-3080	-856	-53	1	-6	-15792	-1144	-4224	-17	-26	10	127	121	8
-9924	-4164	11660	-24	16	-29	-16648	1272	-1664	8	-9	8	-15072	2880	-5320	31	7	-1	-9432	3920	13288	18	-2	-15	-15776	-3176	-672	-23	4	-14	-15648	-952	-4064	-19	-31	11	127	119	8
-9988	-4060	11624	-21	20	-27	-16568	1304	-1424	25	-13	7	-15160	2936	-4984	47	-12	5	-9480	4000	13392	21	-1	-21	-15856	-3104	-824	-8	15	-9	-15688	-1016	-4096	-5	-38	7	127	120	8
-9940	-4108	11656	-25	21	-30	-16456	1304	-1480	40	-5	15	-15008	3016	-4784	51	-7	9	-9504	3864	13016	13	-3	-21	-15632	-2952	-552	-6	23	-5	-15760	-872	-3816	-10	-42	11	127	119	8
-9956	-4192	11664	-28	19	-29	-16448	1256	-1488	51	13	13	-15232	2936	-5120	56	-5	11	-9472	3992	13208	15	-5	-22	-15720	-2984	-1192	-29	29	-8	-15632	-1056	-4200	-14	-34	17	127	117	8
-9888	-4128	11708	-25	17	-26	-16640	1224	-1544	40	14	10	-15096	2984	-4992	44	7	7	-9584	4048	12960	13	-12	-24	-15800	-3192	-624	-40	34	-8	-15616	-1128	-4024	-12	-35	14	127	120	8
-9964	-4168	11696	-24	13	-24	-16624	1240	-1416	34	17	12	-15280	2936	-5024	42	5	-2	-9488	4160	13016	10	-5	-23	-15880	-3040	-512	-37	33	-3	-15792	-1120	-4040	-14	-36	16	127	119	8
-10000	-4108	11784	-24	16	-20	-16576	1392	-1840	5	20	7	-15288	2896	-4888	25	3	-13	-9408	3912	13128	9	-6	-23	-15816	-3152	-736	-39	46	-8	-15712	-1088	-4296	-16	-53	14	127	121	8
-9920	-4180	11728	-15	12	-20	-16544	1344	-1368	-1	16	7	-15072	3088	-5216	4	2	-14	-9344	4064	13088	16	-2	-29	-15888	-3088	-728	-49	43	-10	-15552	-1136	-4088	-18	-56	14	127	117	8
-9952	-4144	11720	-22	17	-22	-16648	1272	-1472	-5	24	3	-14992	2968	-5016	-17	-6	-8	-9560	4064	13064	13	-8	-25	-15760	-3136	-808	-43	50	-7	-15720	-1120	-4104	-17	-52	8	127	119	8
-9988	-4140	11744	-22	16	-19	-16544	1168	-1736	20	28	8	-15080	3024	-5280	-18	-25	-13	-9328	4192	13192	10	-10	-30	-15880	-3008	-816	-52	56	6	-15696	-1208	-4192	-27	-47	11	127	118	8
-9896	-4136	11784	-21	18	-21	-16376	984	-1712	34	26	21	-15064	2696	-5680	-5	-31	-9	-9456	3928	13072	7	-1	-33	-15928	-2960	-600	-81	46	5	-15600	-1200	-4176	-32	-48	14	127	119	8
-9964	-4152	11720	-23	22	-18	-16688	1400	-1824	42	22	18	-14928	2688	-5688	3	-25	-5	-9440	3976	13328	13	-2	-22	-15792	-3168	-920	-94	52	5	-15424	-1304	-4144	-64	-63	14	127	119	8
-10036	-4060	11700	-26	20	-23	-16296	1160	-1760	17	14	12	-14768	2680	-5416	2	-21	-1	-9360	4000	13256	15	0	-23	-15680	-3048	-776	-101	44	6	-15304	-1232	-4304	-69	-62	14	127	119	8
-10040	-4240	11564	-16	20	-25	-16504	1136	-2008	28	5	24	-14896	2856	-5464	5	-17	1	-9400	3896	13216	15	-4	-27	-15904	-3120	-1080	-89	39	12	-15264	-1032	-4296	-72	-54	6	127	122	8
-9976	-4108	11604	-17	18	-26	-16608	1336	-1904	25	-8	22	-14752	2688	-5704	23	-6	0	-9408	3920	13168	25	-1	-24	-15856	-2896	-1408	-97	36	12	-15544	-1280	-4568	-68	-31	12	127	121	8
-9956	-4196	11652	-23	20	-20	-16728	944	-2160	60	-16	26	-14928	2680	-5768	31	13	-3	-9632	3976	13280	22	-3	-22	-15784	-3016	-1280	-110	30	10	-15368	-1352	-4552	-66	-29	12	127	120	8
-10080	-4152	11624	-26	22	-26	-16392	1416	-1832	62	-32	41	-14832	2616	-5632	49	29	3	-9464	3904	13264	24	-4	-18	-15808	-3152	-1392	-91	17	11	-15256	-1184	-4744	-43	-20	21	127	120	8
-10116	-4100	11676	-25	14	-26	-16448	1240	-1416	-33	-30	27	-14880	3120	-5056	-37	75	-18	-9464	3760	12992	20	-12	-12	-15552	-3136	-936	-33	-29	-3	-15480	-1160	-4008	-61	98	-17	127	120	8
-10152	-4172	11728	-19	17	-26	-16488	1064	-1568	-17	-27	34	-14760	2808	-5600	-40	66	-31	-9408	4064	13096	20	-14	-11	-15824	-2960	-976	-27	-23	-7	-15528	-1216	-4080	-48	95	-22	127	119	8
-10004	-4164	11716	-10	11	-18	-16800	1352	-1616	-1	-32	34	-14784	2872	-5632	-43	77	-28	-9552	4160	13168	19	-8	-11	-16040	-3064	-960	-21	-19	6	-15584	-968	-4248	-43	67	-14	127	121	8
-10008	-4192	11648	-10	19	-18	-16528	1544	-1904	-20	-37	32	-15040	2952	-5760	-40	88	-17	-9512	3848	12960	15	-6	-18	-15728	-3064	-720	-19	-11	-1	-15688	-992	-3976	-62	40	-1	127	118	8
-10004	-4188	11584	-20	21	-22	-16608	1312	-1736	-53	-56	30	-14720	2768	-5752	-32	91	-12	-9536	4040	13112	17	-6	-23	-15752	-3000	-680	-45	-5	-6	-15576	-1024	-4144	-42	62	-7	127	121	8
-9792	-4112	11632	-35	24	-21	-16472	1408	-1560	-37	-69	30	-14840	2608	-5808	-7	103	-15	-9208	4080	13008	14	-5	-24	-16048	-2872	-1072	-55	0	-7	-15576	-1112	-4480	-29	84	-15	127	119	8
-10016	-4180	11820	-39	34	-19	-16776	960	-1568	54	-65	26	-15088	2880	-5648	22	102	-5	-9400	4128	13152	15	5	-25	-16104	-3000	-832	-57	3	-10	-15576	-1048	-4744	-26	73	-20	127	119	8
-10096	-4064	11648	-34	42	-19	-16368	1680	-1520	92	-63	32	-15320	3048	-5352	50	68	0	-9304	4016	13040	13	1	-30	-15800	-2784	-1312	-42	-7	-8	-15408	-944	-4464	-66	48	-13	127	121	8
-9912	-3988	11680	-41	46	-27	-16400	1856	-1304	51	-55	32	-15040	3616	-5072	51	59	-1	-9496	3944	12800	13	-12	-35	-15928	-3008	-1072	-58	-5	-8	-15544	-992	-4632	-83	42	-16	127	122	8
-9944	-4204	11588	-46	48	-28	-16704	1176	-992	78	-49	29	-15200	3360	-5072	2	65	-6	-9640	3888	13088	24	-4	-36	-15936	-3040	-936	-112	-13	4	-15648	-1248	-4600	-92	42	-27	127	118	8
-10068	-4372	11520	-41	48	-23	-16560	1240	-1160	118	-34	26	-15328	3032	-5224	-15	57	-17	-9536	3888	12984	29	-2	-30	-15720	-3232	-1104	-125	-12	1	-15472	-1568	-4680	-86	16	-40	127	119	8
-10020	-4220	11648	-32	47	-12	-16560	1432	-1304	133	-11	23	-15336	3080	-5456	22	30	-24	-9632	3944	13232	25	8	-21	-15984	-3096	-1048	-104	-12	-6	-15488	-1352	-4624	-97	-19	-25	127	120	8
-10048	-4152	11532	-33	47	-13	-16592	1384	-1048	115	-2	16	-15280	2984	-5080	15	5	-11	-9472	4152	13400	28	11	-26	-15640	-2944	-1208	-117	-8	6	-15616	-1352	-4216	-101	-27	-13	127	119	8
-10116	-4288	11616	-31	42	-10	-16272	1264	-1200	107	5	11	-15168	2600	-5112	21	-8	0	-9496	4120	12976	27	7	-24	-15664	-3040	-840	-111	-3	1	-15528	-1304	-4200	-81	-26	7	127	121	8
-10092	-4388	11548	-32	41	-9	-16416	856	-1592	170	25	8	-15024	2792	-5184	61	-21	7	-9424	4120	13360	23	-1	-18	-15808	-3136	-744	-71	7	-6	-15688	-1216	-4344	-36	-28	1	127	120	8
-10188	-4228	11536	-9	36	-7	-16408	1432	-1336	184	33	0	-15200	2872	-5264	91	-34	17	-9584	4000	12992	24	2	-23	-15776	-2800	-1032	-52	17	-2	-15816	-1168	-4432	-32	-41	9	127	121	8
-10136	-4176	11608	-3	33	-13	-16208	1312	-1272	162	33	9	-14976	2760	-5280	100	-42	22	-9488	4088	13040	14	-1	-29	-15648	-2976	-1160	-52	27	5	-15536	-1152	-4504	-35	-48	19	127	117	8
-9904	-4176	11732	-10	31	-13	-16680	1320	-1536	125	33	19	-14768	3080	-5592	69	-19	20	-9504	3952	13016	8	-6	-28	-15696	-3048	-968	-39	31	2	-15536	-1120	-4648	-24	-52	11	127	120	8
-10212	-4356	11536	-20	37	-11	-16712	1144	-1808	93	27	12	-14856	2872	-5944	47	-6	8	-9368	4024	13272	11	-8	-24	-15952	-2952	-1064	-40	23	-10	-15344	-1232	-4928	-17	-37	9	127	120	8
-10140	-4180	11576	-28	31	-13	-16560	1304	-2128	43	18	12	-14816	2976	-6000	40	-5	-5	-9488	4112	13072	11	0	-24	-15864	-3056	-1288	-46	19	-4	-15408	-1344	-4936	-23	-27	13	127	117	8
-10168	-4284	11540	-15	20	-21	-16408	1520	-1744	-13	8	9	-14664	2720	-5936	23	-17	-7	-9608	3936	12968	9	-6	-21	-15712	-3088	-1368	-29	11	-11	-15320	-1344	-4928	-8	-13	13	127	119	8
-10140	-4244	11532	-17	18	-24	-16600	1088	-1768	-26	-3	11	-14640	2840	-5744	-8	-4	-8	-9648	4040	13200	14	-8	-23	-15776	-3008	-1440	9	5	-10	-15192	-1296	-4960	20	2	12	127	121	8
-10212	-4308	11500	-15	4	-24	-16688	1280	-2000	9	-7	19	-14760	2688	-5856	-14	-7	-4	-9488	4024	13256	7	-9	-21	-15912	-2824	-1112	39	-2	-12	-15248	-1192	-4824	31	-3	14	127	119	8
-10096	-4172	11416	-17	6	-25	-16464	1472	-1608	-26	-17	21	-14848	2824	-5920	-10	5	-2	-9608	4016	13024	13	-17	-16	-15856	-2968	-984	30	-13	-11	-15344	-1240	-4880	16	-23	19	127	119	8
-10028	-4244	11540	-12	11	-28	-16608	1472	-1664	-82	-33	12	-14672	3000	-5816	-2	4	3	-9576	3952	13128	7	-15	-15	-15896	-3024	-1288	14	-16	-12	-15432	-1160	-4768	17	-15	17	127	119	8
-10080	-4164	11508	-19	8	-30	-16816	1152	-1536	-75	-42	17	-14896	2872	-5840	-5	14	-1	-9560	3888	13160	14	-11	-20	-16024	-2840	-1144	-3	-20	-16	-15400	-1224	-4824	15	-4	11	127	120	8
-10012	-4148	11492	-13	4	-35	-16648	1144	-1464	-52	-38	17	-14912	2840	-5544	12	24	-3	-9544	4000	13192	13	-6	-16	-15784	-2976	-1480	3	-33	-17	-15344	-1256	-4768	17	-1	14	127	119	8
-10120	-4204	11608	-11	7	-30	-16576	1472	-1784	-18	-40	16	-14944	2904	-5776	50	28	-2	-9448	3984	13152	13	-18	-12	-15864	-3112	-1408	42	-34	-16	-15304	-1232	-4984	19	-4	18	127	121	8
-10216	-4236	11544	-6	10	-34	-16448	1504	-1536	-14	-45	12	-14952	2992	-5568	50	17	0	-9528	3992	13040	10	-17	-14	-15896	-3016	-1088	50	-37	-14	-15432	-1104	-4800	22	-7	15	127	119	8
-10040	-4120	11500	-12	7	-35	-16440	1104	-1736	-40	-45	11	-14976	3000	-5800	34	10	-1	-9408	3984	12896	10	-11	-16	-15840	-2944	-1120	27	-46	-13	-15520	-1176	-4752	22	-15	8	127	119	8
-10088	-4204	11612	-11	12	-37	-16632	1312	-1568	-37	-47	3	-14968	2976	-5864	26	4	0	-9352	4096	13368	14	-7	-15	-15888	-3088	-1120	1	-47	-25	-15480	-1216	-4776	5	-18	8	127	121	8
-10128	-4140	11656	-4	9	-34	-16408	1344	-1584	-40	-40	-3	-14984	2976	-5640	27	-6	-9	-9480	3816	13208	8	-8	-15	-15808	-3168	-1000	13	-46	-26	-15448	-1208	-4832	13	-6	9	127	119	8
-10060	-4124	11536	-5	9	-36	-16472	1240	-1344	-33	-38	1	-14888	3000	-5344	19	-14	-11	-9328	4264	13208	14	-8	-15	-15712	-3064	-1008	52	-52	-19	-15408	-1280	-4784	16	1	3	127	118	8
-10064	-4308	11544	-4	7	-38	-16544	1416	-1528	-46	-36	-3	-15040	2896	-5312	10	-7	-13	-9576	4056	13232	13	-10	-18	-15992	-3040	-952	63	-56	-14	-15616	-1304	-4640	8	7	11	127	121	8
-10136	-4328	11528	0	10	-35	-16528	1224	-1344	-58	-35	-4	-15072	2832	-5448	-3	-15	-16	-9616	4040	13176	13	-11	-18	-15808	-2960	-960	35	-59	-17	-15528	-1320	-4648	0	0	12	127	122	8
-10060	-4228	11544	10	6	-33	-16328	1112	-1208	-62	-29	-6	-15104	2848	-5296	4	-32	-12	-9400	3960	13216	7	-11	-11	-15800	-3160	-760	16	-58	-17	-15584	-1480	-4480	0	-13	12	127	120	8
-10132	-4240	11576	11	-3	-39	-16512	1192	-1520	-72	-21	-6	-15008	2584	-5392	3	-39	-4	-9472	3808	13112	6	-10	-10	-15888	-3040	-872	37	-53	-11	-15560	-1400	-4472	9	-23	14	127	120	8
-10028	-4216	11596	17	-6	-36	-16480	1288	-1272	-63	-22	-5	-15024	2520	-5576	1	-35	-2	-9408	3928	13384	12	-18	-13	-15888	-3288	-1072	71	-45	-9	-15600	-1352	-4144	25	-29	21	127	121	8
-10176	-4264	11592	24	-8	-38	-16688	1152	-1512	-77	-16	1	-14920	2736	-5584	13	-15	-2	-9544	4136	13080	8	-13	-10	-15848	-3160	-856	82	-45	-7	-15616	-1464	-4392	30	-25	33	127	121	8
-10144	-4224	11572	22	-6	-38	-16536	1304	-1448	-69	-17	8	-15048	2664	-5496	20	-24	4	-9480	4032	13256	11	-11	-16	-15888	-3088	-776	83	-41	-9	-15608	-1392	-4424	48	-15	40	127	118	8
-9884	-4160	11580	26	-13	-37	-16528	1088	-1048	-78	-15	5	-14936	2576	-5360	28	-21	6	-9328	3944	13272	15	-10	-19	-15792	-3104	-544	91	-31	-3	-15704	-1424	-4304	55	-25	49	127	121	8
-9940	-4260	11692	24	-7	-30	-16680	1232	-1056	-45	-16	13	-15016	2736	-5344	35	-29	13	-9568	4048	13072	13	-17	-14	-15792	-2824	-832	21	-27	1	-15736	-1120	-4304	52	-38	48	127	120	8
-9960	-4212	11556	26	-5	-28	-16728	1600	-952	-37	-10	14	-15032	2952	-5400	36	-37	19	-9552	3920	12984	17	-13	-14	-15760	-3328	-920	31	-25	-6	-15600	-1248	-4456	38	-43	48	127	122	8
-10036	-4268	11640	8	0	-26	-16720	1232	-1368	-23	-12	10	-15240	2992	-5352	51	-32	24	-9288	4064	13136	15	-15	-13	-15888	-3080	-752	70	-8	3	-15456	-1304	-4480	55	-45	38	127	122	8
-10048	-4148	11644	3	0	-25	-16560	1496	-1328	0	-3	16	-15056	2952	-5352	55	-34	27	-9296	3928	13080	17	-5	-16	-15928	-2968	-768	63	-18	1	-15600	-1120	-4472	44	-30	40	127	120	8
-9964	-4160	11656	-3	4	-29	-16760	1272	-920	11	-1	13	-15144	3040	-5520	39	-25	19	-9432	4056	13144	16	-10	-15	-15968	-2920	-664	43	-8	1	-15448	-1024	-4680	23	-26	40	127	122	8
-10028	-4148	11552	-9	11	-30	-16544	1144	-1368	46	-3	24	-15120	2672	-5536	43	-19	15	-9304	4032	13344	18	-10	-13	-15864	-3048	-992	19	-13	-5	-15496	-1160	-4656	12	-23	42	127	119	8
-10000	-4208	11604	-11	8	-28	-16632	1232	-1208	43	-2	20	-14936	2992	-5696	50	-15	12	-9480	4040	13184	17	-5	-15	-15880	-3024	-1120	29	-13	0	-15424	-1248	-4600	22	-31	34	127	122	8
-9996	-4176	11636	-14	10	-28	-16800	1144	-1464	17	-10	19	-15080	2904	-5432	34	-15	12	-9432	4032	13064	19	-6	-18	-15848	-2984	-744	59	-15	-3	-15536	-1216	-4432	25	-29	24	127	122	8
-9912	-4168	11632	-12	13	-29	-16632	1344	-1264	-1	-7	13	-14952	2848	-5728	23	-12	8	-9400	4064	13176	20	-1	-18	-15688	-2848	-680	10	-21	-2	-15472	-1136	-4416	11	-29	26	127	122	8
-10104	-4148	11700	-10	15	-25	-16512	1120	-1440	19	-17	21	-14776	2768	-5712	23	-7	5	-9512	4024	13168	16	-8	-24	-15760	-3008	-968	1	-17	-12	-15544	-1232	-4632	18	-19	28	127	119	8
-9980	-4108	11696	-12	12	-23	-16400	1248	-1368	12	-16	15	-14840	2896	-5432	23	-2	6	-9464	3832	13400	19	-7	-20	-15752	-3176	-856	28	-19	-9	-15456	-1208	-4440	16	-15	23	127	118	8
-9932	-4136	11680	-9	6	-29	-16592	1408	-1200	-5	-14	16	-14952	3032	-5576	18	0	1	-9400	3928	13152	13	-8	-16	-15856	-3008	-904	46	-15	-9	-15624	-1104	-4792	18	-11	16	127	121	8
-9944	-4168	11680	-16	11	-23	-16744	1128	-1496	18	-18	20	-14960	2864	-5568	8	6	1	-9432	4080	13088	19	-4	-19	-15848	-2976	-632	21	-10	-4	-15544	-1120	-4280	-4	-22	18	127	121	8
-9992	-4212	11692	-14	15	-21	-16544	1352	-1320	22	-21	15	-15144	2816	-5352	17	1	-3	-9448	3984	13072	15	-2	-21	-15840	-2976	-848	-27	-14	-9	-15616	-1216	-4248	-12	-18	20	127	119	8
-9980	-4136	11732	-14	13	-27	-16552	1208	-1480	6	-17	15	-15008	2808	-5720	27	-2	-5	-9392	3952	13112	13	-10	-19	-15816	-3136	-600	-13	-6	-10	-15552	-1304	-4528	-2	-17	16	127	118	8
-9924	-4224	11592	-15	15	-24	-16568	1312	-1336	7	-14	19	-14896	2872	-5472	22	-3	1	-9440	3992	13240	17	-7	-23	-15864	-3072	-968	15	-1	-12	-15656	-1096	-4376	6	-10	13	127	119	8
-10052	-4244	11680	-17	19	-25	-16472	1288	-1112	18	-9	15	-15008	2760	-5200	8	-2	2	-9312	4024	12960	14	-7	-22	-15720	-2944	-544	10	-1	-7	-15424	-1216	-4528	-4	-15	18	127	121	8
-10072	-4216	11604	-21	13	-24	-16472	1400	-1144	18	-5	14	-14976	2904	-5320	20	-2	-2	-9464	3912	13160	13	-4	-24	-15672	-2968	-976	-1	1	-9	-15520	-1208	-4672	-4	-12	15	127	120	8
-9952	-4152	11636	-13	14	-22	-16544	1256	-1368	-6	-3	10	-15112	2920	-5320	22	-5	-4	-9392	4000	13304	14	-8	-24	-16120	-3192	-472	5	-4	-15	-15440	-1200	-4640	6	-10	17	127	120	8
-10012	-4228	11572	-11	15	-23	-16728	1312	-1328	4	-6	11	-15016	2768	-5408	5	6	-3	-9328	4160	12976	15	-2	-25	-15816	-3160	-664	-7	-9	-5	-15480	-1208	-4432	9	-18	15	127	121	8
-10032	-4224	11580	-16	20	-26	-16480	1200	-1176	10	-3	10	-14952	2920	-5464	13	2	-6	-9576	3904	13120	21	-6	-20	-15816	-3216	-824	-1	-8	-11	-15520	-1424	-4536	2	-15	17	128	119	8
-10032	-4156	11676	-12	19	-22	-16440	1392	-1416	16	-2	14	-15088	2848	-5392	20	0	-4	-9552	4080	13424	15	-6	-17	-15840	-3272	-624	2	-8	-10	-15496	-1272	-4528	12	-17	18	127	118	8
-9980	-4156	11696	-11	17	-26	-16552	1344	-1192	8	-1	8	-15072	2784	-5376	24	-7	1	-9472	4112	13144	19	-10	-17	-15936	-3136	-616	5	-11	-14	-15488	-1224	-4712	14	-17	16	127	118	8
-10008	-4172	11688	-12	18	-25	-16752	1072	-1320	26	2	7	-15056	2656	-5368	29	7	2	-9480	4048	13128	11	-4	-24	-15800	-3152	-920	7	-9	-8	-15488	-1192	-4528	5	-20	20	127	121	8
-10084	-4308	11688	-14	15	-27	-16560	1224	-1272	32	-4	13	-14936	2696	-5552	38	-1	2	-9536	3848	13160	16	-2	-22	-15776	-3112	-632	-8	-14	-10	-15528	-1248	-4792	-6	-17	16	127	118	8
-10008	-4204	11728	-19	8	-25	-16624	1312	-1384	28	-2	9	-15072	2792	-5400	43	-1	5	-9424	3832	13048	15	-6	-15	-15848	-3208	-632	-15	-7	-9	-15504	-1272	-4368	0	-17	13	127	121	8
-9996	-4136	11632	-17	13	-24	-16464	1240	-1272	12	-3	14	-15104	2776	-5624	31	-2	8	-9488	3976	13232	14	-6	-21	-15856	-3080	-776	-10	-5	-7	-15536	-1184	-4448	0	-14	18	127	118	8
-9988	-4168	11672	-13	10	-25	-16512	1240	-1328	2	-1	14	-14944	2752	-5352	23	-7	4	-9464	3800	13400	17	-3	-21	-15800	-3016	-888	16	-5	-8	-15432	-1224	-4416	6	-14	19	127	122	8
-9996	-4228	11628	-13	15	-25	-16536	1192	-1264	10	-1	15	-14968	2904	-5480	25	-5	4	-9456	4056	13400	22	-7	-26	-15744	-3024	-688	20	-3	1	-15656	-1144	-4208	8	-11	23	127	119	8
-10052	-4212	11684	-8	12	-17	-16520	1288	-1184	-1	3	17	-15088	2704	-5280	15	-8	1	-9648	3928	13032	18	-3	-21	-15768	-3176	-696	6	0	-3	-15640	-1272	-4584	5	-9	21	127	121	8
-10024	-4144	11580	-4	13	-22	-16672	1176	-1232	-1	2	17	-14992	2912	-5536	15	-1	6	-9352	4096	13024	10	-5	-26	-15752	-3152	-824	-6	4	-2	-15592	-1376	-4368	7	-15	26	127	119	8
-9940	-4124	11704	-12	18	-23	-16608	1320	-1264	-6	-2	13	-14968	2792	-5408	12	-5	6	-9368	4040	13280	18	-7	-19	-15832	-2840	-648	-15	1	1	-15680	-1240	-4392	6	-12	22	127	118	8
-10008	-4180	11600	-14	17	-17	-16648	1248	-1376	6	7	17	-15112	2912	-5160	9	-8	3	-9496	4072	13144	17	-5	-22	-15752	-3000	-968	-25	3	-3	-15488	-1304	-4592	-2	-17	24	127	118	8
-10020	-4196	11584	-10	21	-24	-16496	1224	-1272	20	8	20	-15024	2784	-5496	17	-11	4	-9328	3896	13200	20	-6	-21	-15776	-3200	-928	-23	4	3	-15416	-1248	-4600	-12	-18	26	128	121	8
-10008	-4232	11652	-14	15	-21	-16592	1288	-1320	24	12	12	-14880	2768	-5640	33	-11	4	-9552	4128	13256	17	-2	-24	-15856	-3264	-928	-10	3	4	-15504	-1312	-4520	-2	-16	21	127	118	8
-9976	-4148	11640	-12	14	-24	-16680	1392	-1424	17	6	20	-15032	2648	-5568	28	-11	7	-9472	4016	13240	15	-9	-15	-15856	-3000	-824	-8	0	-2	-15600	-1240	-4648	8	-15	18	127	119	8
-9984	-4208	11572	-12	17	-23	-16784	1232	-1464	11	9	17	-14912	2704	-5528	19	-4	7	-9416	3952	13144	16	-2	-22	-15896	-3168	-848	-5	1	0	-15440	-1128	-4656	-3	-20	20	127	119	8
-10052	-4176	11660	-12	16	-24	-16576	1280	-1376	23	-4	24	-14888	2832	-5496	23	-12	4	-9456	4080	12936	16	2	-18	-15768	-2960	-824	-5	-1	-5	-15520	-1160	-4512	2	-16	18	127	121	8
-9932	-4228	11596	-12	14	-22	-16672	1384	-1336	0	9	18	-14776	2864	-5472	25	-5	8	-9432	3960	13232	17	-8	-17	-15824	-3064	-720	-12	-5	-3	-15592	-1304	-4632	5	-16	22	127	119	8
-9980	-4232	11640	-11	13	-24	-16712	1136	-1512	-3	-3	13	-14968	2888	-5400	14	1	7	-9392	4072	13184	19	3	-20	-15912	-3088	-832	9	-3	-4	-15336	-1376	-4512	8	-14	22	127	121	8
-9932	-4112	11720	-17	12	-17	-16728	1416	-1152	11	-1	16	-14808	2944	-5760	23	-5	4	-9488	3944	12896	15	-3	-23	-15824	-2968	-912	16	-12	1	-15368	-1216	-4648	11	-11	23	127	119	8
-10072	-4128	11664	-15	11	-22	-16424	1344	-1712	12	-5	18	-14968	2872	-5376	18	-3	10	-9464	3992	13096	18	-2	-25	-15824	-3000	-856	4	-13	-3	-15504	-1120	-4464	9	-14	21	127	119	8
-10048	-4156	11608	-14	12	-28	-16600	1344	-1448	10	-6	16	-14992	2776	-5424	27	-1	7	-9400	4016	13304	19	-5	-19	-15864	-2936	-768	-19	-11	-7	-15648	-1168	-4440	-14	-23	24	127	121	8
-10048	-4212	11620	-18	14	-26	-16584	1280	-1232	23	-7	14	-15024	2888	-5344	36	-2	7	-9432	4080	13504	15	-9	-19	-15832	-3272	-904	-29	-10	-4	-15520	-1224	-4448	-14	-25	18	127	120	8
-9948	-4256	11596	-12	17	-25	-16616	1296	-1336	25	-4	20	-15152	2936	-5456	22	2	4	-9504	3992	13016	11	-5	-17	-15960	-3144	-856	2	-13	-7	-15440	-1152	-4312	-10	-25	19	127	119	8
-10044	-4204	11668	-11	21	-28	-16576	1336	-1160	4	-8	18	-14960	2808	-5624	24	-3	-4	-9552	4064	13064	18	-5	-13	-15752	-3040	-744	25	-3	2	-15616	-1192	-4144	-3	-20	18	127	119	8
-9952	-4248	11592	-8	20	-24	-16528	1360	-1184	-4	-5	18	-15168	2808	-5568	17	-8	0	-9408	3976	13312	20	-2	-23	-15816	-3064	-832	18	1	-5	-15488	-1208	-4088	7	-9	19	127	121	8
-9976	-4224	11708	-8	14	-17	-16512	1192	-1272	-7	-4	14	-15152	2744	-5416	10	-4	1	-9584	3960	12936	8	-11	-19	-15808	-2840	-776	-6	3	-3	-15528	-1160	-4344	-3	-12	21	127	120	8
-10036	-4204	11604	-5	12	-19	-16416	1416	-1272	-9	-1	15	-15120	2808	-5536	7	-7	4	-9400	3960	13072	11	-11	-23	-15816	-3112	-576	-16	9	-6	-15672	-1240	-4368	-4	-9	22	127	118	8
-10004	-4192	11720	-5	10	-23	-16616	1272	-1536	-13	0	12	-15208	2992	-5720	-2	-7	4	-9496	3912	13368	12	-4	-19	-15936	-3152	-1072	-1	4	-3	-15520	-1384	-4672	9	-9	20	127	119	8
-10004	-4136	11600	-9	12	-26	-16592	1144	-1112	-12	3	10	-15072	2920	-5320	3	-19	-3	-9496	4024	13264	18	-10	-23	-15952	-3176	-736	23	1	-2	-15368	-1360	-4720	1	-11	20	127	118	8
-10064	-4204	11648	-13	15	-23	-16520	1400	-1432	-8	-3	14	-15096	3056	-5520	5	-15	-3	-9432	4000	13160	14	-4	-25	-15832	-3064	-832	10	-6	-3	-15448	-1168	-4592	4	-22	20	127	119	8
-10016	-4240	11652	-15	14	-31	-16536	1232	-1352	11	3	13	-15024	2888	-5728	7	-16	-4	-9448	4016	13000	14	-1	-18	-15792	-2936	-664	-5	-6	-3	-15472	-1144	-4688	5	-29	20	127	121	8
-10036	-4244	11672	-12	16	-24	-16536	1080	-1152	22	0	19	-14872	2760	-5320	3	-18	0	-9376	4112	13240	13	-9	-16	-15856	-3016	-1024	2	-7	-8	-15440	-1248	-4528	10	-28	20	127	121	8
-10064	-4128	11536	-10	14	-28	-16504	1240	-1432	9	-3	18	-14888	2560	-5704	12	-13	0	-9272	4032	12928	17	-10	-21	-15816	-3024	-808	15	-6	-6	-15504	-1144	-4544	7	-22	21	127	117	8
-10016	-4216	11544	-5	11	-24	-16464	1312	-1264	-23	-6	8	-14968	2744	-5696	10	-6	1	-9488	3976	13448	16	-10	-19	-16064	-3096	-936	20	-13	-5	-15496	-1240	-4768	12	-13	28	127	120	8
-10020	-4212	11580	-6	14	-24	-16568	1152	-1416	-9	-12	6	-14832	2984	-5496	20	-13	1	-9504	3944	13136	12	-12	-24	-15776	-3064	-976	22	-15	-2	-15472	-1224	-4672	6	-11	25	127	117	8
-10008	-4220	11720	-4	7	-21	-16696	1336	-1472	-3	-14	15	-14952	2832	-5688	13	-5	6	-9576	4152	13200	12	-13	-17	-15888	-3120	-632	26	-13	-7	-15568	-1328	-4456	14	-17	22	127	120	8
-9988	-4160	11688	-8	7	-24	-16688	1296	-1360	-2	-19	7	-15096	2936	-5552	22	-8	7	-9448	4184	13400	13	-10	-18	-15816	-2920	-688	36	-12	-9	-15512	-1184	-4376	12	-27	24	127	120	8
-10036	-4172	11644	-11	10	-27	-16616	1328	-1416	10	-16	13	-15048	2992	-5392	25	-9	4	-9400	4024	12992	15	-5	-20	-15728	-3040	-664	31	-14	-6	-15576	-1200	-4344	17	-35	27	127	119	8
-10020	-4212	11720	-16	14	-32	-16600	1224	-1144	12	-12	11	-15216	2936	-5416	35	-9	3	-9392	4080	13248	14	-4	-16	-15888	-3088	-760	23	-12	-12	-15688	-1208	-4656	11	-35	26	127	121	8
-9980	-4292	11704	-16	19	-32	-16576	1096	-1112	23	-3	6	-15064	2856	-5432	43	-10	2	-9312	3912	13400	18	-12	-22	-15976	-3024	-736	10	-11	-11	-15488	-1080	-4648	11	-25	24	127	120	8
-10000	-4252	11680	-16	15	-26	-16456	1168	-1272	33	1	9	-15176	2792	-5568	41	-10	1	-9408	4064	12952	16	-10	-17	-15712	-3032	-1000	10	-18	-5	-15440	-1192	-4744	11	-19	24	127	119	8
-10008	-4156	11632	-17	16	-26	-16608	1152	-1112	26	-4	10	-15064	2896	-5528	40	-10	-2	-9624	3896	13184	14	-3	-21	-15712	-3232	-840	11	-21	-11	-15384	-1288	-4456	1	-28	21	127	118	8
-9988	-4196	11656	-15	13	-24	-16800	1384	-1472	9	-6	13	-14832	2848	-5696	17	-16	-5	-9456	4000	13144	10	-10	-22	-15808	-3136	-880	42	-19	-13	-15576	-1232	-4488	4	-36	18	127	120	8
-9980	-4224	11624	-15	15	-25	-16640	1152	-1344	-12	-14	14	-14872	2736	-5536	-15	-13	-9	-9432	3928	13216	12	-3	-18	-15816	-3064	-784	50	-24	-9	-15528	-1096	-4336	9	-28	17	127	119	8
-10056	-4224	11668	-13	8	-27	-16592	1232	-1352	-13	-12	18	-14920	2576	-5296	-22	-7	-11	-9216	3792	13160	17	-9	-17	-15784	-3016	-416	-9	-19	-5	-15640	-1328	-4136	-4	-20	10	127	120	8
-10048	-4192	11652	-10	4	-24	-16536	1256	-1440	-12	-19	13	-15088	2624	-5488	-5	-3	-13	-9424	3952	13168	17	-6	-19	-15840	-3176	-840	-25	-13	-4	-15664	-1368	-4208	-15	-7	12	127	117	8
-9944	-4284	11644	-22	13	-22	-16744	1112	-1464	-11	-20	17	-15064	2824	-5416	2	-2	-8	-9400	3872	13240	17	-6	-19	-15944	-3088	-592	-18	-13	-6	-15536	-1256	-4296	-12	-3	15	127	120	8
-10020	-4208	11672	-15	13	-19	-16600	1472	-1088	9	-25	18	-15152	2856	-5312	0	-15	-4	-9512	3920	13192	20	-3	-19	-15800	-3096	-520	7	-8	-4	-15792	-1200	-4336	-10	-11	15	127	119	8
-9976	-4104	11684	-17	15	-24	-16424	1352	-1320	-17	-21	17	-14968	3008	-5376	-3	-14	0	-9488	4096	13136	18	-3	-19	-15728	-2904	-584	-2	1	-2	-15584	-1184	-4280	-12	-13	15	127	118	8
-10008	-4268	11632	-16	16	-23	-16608	1144	-1136	-9	-20	12	-15016	3016	-5488	-5	-16	0	-9672	3928	13064	18	-6	-19	-15768	-3136	-800	-16	2	-1	-15456	-1112	-4320	-15	-19	18	127	120	8
-10088	-4204	11596	-15	14	-20	-16592	1264	-1272	5	-17	21	-15120	2872	-5400	-5	-12	-8	-9504	3952	12952	11	-6	-21	-15904	-3048	-704	-19	4	-3	-15432	-1344	-4416	-23	-24	19	127	120	8
-10020	-4164	11636	-10	12	-20	-16568	1360	-1512	8	-14	15	-15008	2840	-5216	-4	-13	-7	-9464	4016	13200	14	-12	-19	-15920	-3096	-800	-16	1	4	-15464	-1224	-4656	-16	-23	20	127	118	8
-10032	-4220	11648	-14	14	-22	-16568	1328	-1256	3	-15	17	-14968	2896	-5408	-2	-21	-10	-9560	3984	13072	11	-17	-25	-15792	-3008	-928	-6	-5	0	-15448	-1320	-4576	-19	-24	21	127	121	8
-9976	-4264	11604	-15	15	-24	-16512	1208	-1080	-7	-17	16	-14976	2824	-5512	-12	-28	-8	-9528	4064	13280	18	-13	-22	-15952	-3024	-832	-2	-14	0	-15280	-1384	-4648	-1	-11	22	127	120	8
-10004	-4196	11680	-12	12	-19	-16576	1176	-1552	-12	-22	12	-14936	2792	-5480	-4	-21	-5	-9400	3944	13152	12	-11	-18	-15768	-2976	-880	8	-26	-2	-15376	-1408	-4560	0	-19	23	127	122	8
-10008	-4220	11528	-16	14	-26	-16544	1320	-1456	-5	-25	19	-14800	2752	-5592	4	-14	-4	-9536	3880	13224	14	-7	-18	-15832	-3016	-848	9	-29	-7	-15472	-1264	-4792	-7	-20	24	127	119	8
-9996	-4192	11644	-12	16	-28	-16496	1264	-1456	-8	-28	17	-14880	2720	-5408	9	-12	1	-9528	4000	13128	12	-5	-17	-15936	-3176	-768	9	-37	1	-15520	-1272	-4392	-20	-23	16	127	120	8
-10056	-4192	11644	-14	16	-33	-16592	1240	-1272	-7	-37	19	-14968	2760	-5496	22	-8	3	-9392	4080	13064	12	-10	-19	-15880	-3168	-752	2	-39	-4	-15488	-1160	-4576	-16	-19	19	127	118	8
-10024	-4180	11724	-12	18	-25	-16512	1256	-1368	6	-35	19	-15072	2688	-5400	26	-11	6	-9456	4040	12976	15	-11	-12	-15744	-3008	-728	-11	-43	-6	-15400	-1240	-4280	-16	-15	17	127	119	8
-9964	-4236	11600	-13	12	-30	-16784	1264	-1352	13	-36	21	-15192	2824	-5496	41	-8	12	-9440	4024	13200	15	-5	-13	-15952	-3040	-720	2	-44	-8	-15544	-1216	-4456	-10	-13	19	127	120	8
-10024	-4236	11764	-13	17	-27	-16672	1288	-1208	7	-36	21	-15040	2912	-5000	38	-13	9	-9280	3976	13048	9	-9	-17	-15800	-3120	-512	30	-46	-1	-15632	-1216	-4424	-5	-8	27	127	119	8
-9980	-4252	11716	-6	13	-30	-16528	1296	-1136	-2	-32	23	-15048	2928	-5264	32	-15	10	-9744	3984	13152	16	-8	-20	-15832	-2976	-616	36	-47	3	-15664	-1208	-4296	5	0	26	127	119	8
-10028	-4288	11656	-7	10	-28	-16440	1040	-1008	3	-31	17	-15224	2920	-5232	20	-17	6	-9480	3920	13192	10	-8	-15	-15720	-3104	-744	36	-39	-4	-15584	-1184	-4360	5	-3	31	127	121	8
-10052	-4212	11636	-9	13	-27	-16512	1160	-1264	2	-25	18	-15144	2856	-4968	14	-13	4	-9400	3992	13352	17	-14	-10	-15952	-3032	-544	30	-35	1	-15536	-1216	-4464	3	-12	28	127	118	8
-10008	-4200	11628	-9	15	-31	-16536	1208	-952	-7	-28	18	-14960	2944	-5216	13	-18	3	-9496	3824	13304	16	-10	-13	-15792	-3048	-664	33	-42	-4	-15496	-1256	-4336	4	-17	23	127	119	8
-9996	-4228	11592	-8	19	-31	-16400	1456	-1000	-11	-27	22	-15048	2968	-5336	9	-16	-1	-9440	3968	13080	10	-10	-16	-15856	-3056	-648	33	-39	0	-15680	-1144	-4464	-1	-12	26	127	121	8
-9944	-4232	11676	-5	11	-28	-16456	1248	-1520	-22	-25	21	-15184	2840	-5416	-1	-14	1	-9440	4064	13136	9	-6	-17	-15848	-3168	-800	24	-41	1	-15432	-1280	-4352	8	-13	26	127	121	8
-10068	-4280	11744	-9	12	-26	-16608	1312	-1208	-20	-25	20	-15048	2848	-5184	5	-15	5	-9400	4032	13376	18	-11	-16	-15832	-3000	-928	33	-31	-4	-15416	-1192	-4520	2	-4	29	127	120	8
-10048	-4208	11580	-3	10	-27	-16504	1328	-1176	-20	-28	19	-15048	2784	-5408	2	-18	7	-9496	4104	13080	15	-5	-12	-15960	-3056	-880	37	-42	-2	-15424	-1320	-4760	4	3	32	127	120	8
-10060	-4216	11664	3	13	-27	-16504	1280	-1352	-26	-31	17	-15072	2840	-5296	1	-19	7	-9488	4128	13200	9	-7	-10	-15856	-3056	-648	64	-40	-3	-15520	-1160	-4624	1	2	27	127	120	8
-10064	-4148	11616	3	15	-37	-16544	1440	-1184	-33	-34	22	-14920	2920	-5632	-3	-23	1	-9400	3848	13544	13	-4	-14	-15808	-3120	-568	67	-47	-5	-15336	-1040	-4576	8	-1	21	127	118	8
-10012	-4232	11660	3	18	-39	-16384	1240	-1584	-42	-41	20	-14880	2784	-5424	-11	-14	1	-9376	3808	13064	8	-7	-13	-15776	-2968	-472	67	-51	-4	-15384	-1288	-4376	9	2	20	127	119	8
-10028	-4304	11664	6	17	-43	-16456	1288	-1128	-50	-38	17	-15032	2896	-5416	-33	6	-5	-9600	4072	13192	12	-8	-6	-15960	-2936	-352	73	-46	-3	-15496	-1136	-4536	10	7	23	127	119	8
-9984	-4128	11632	10	14	-41	-16696	1264	-1112	-74	-47	22	-14992	2608	-5352	-38	14	-9	-9440	3888	13408	9	-5	-12	-15888	-2968	-464	61	-48	-1	-15496	-1224	-4528	19	22	22	127	118	8
-9956	-4264	11652	3	13	-39	-16616	1296	-1056	-85	-52	16	-14976	2744	-5368	-28	18	-13	-9304	3952	13024	12	-7	-11	-15840	-2984	-168	69	-52	-2	-15472	-1200	-4328	25	30	28	127	120	8
-9880	-4280	11692	-6	10	-33	-16624	1416	-864	-80	-49	19	-15048	2664	-5216	-31	16	-10	-9528	4048	13112	18	-11	-15	-16032	-3088	-720	65	-53	-4	-15536	-1208	-4480	35	37	30	127	120	8
-9884	-4140	11696	-8	5	-31	-16648	1320	-856	-67	-46	19	-15176	2784	-5072	-11	0	-2	-9440	4080	13080	10	-10	-15	-15904	-3184	-280	64	-49	-11	-15560	-1104	-4592	29	32	32	127	121	8
-9940	-4224	11708	-7	8	-28	-16552	1128	-616	-10	-37	31	-15216	3120	-5016	-1	0	9	-9496	3984	13376	18	-1	-15	-15848	-3136	-208	40	-51	1	-15752	-1312	-4344	14	30	24	127	118	8
-9964	-4252	11680	-7	15	-34	-16504	1392	-640	17	-25	19	-15352	3104	-5048	16	0	8	-9368	3968	13376	17	-4	-14	-15800	-3072	-40	37	-42	-3	-15816	-1256	-4456	-7	13	17	127	121	8
-9956	-4208	11728	-18	20	-28	-16600	1696	-792	8	-20	20	-15320	3032	-5200	28	10	7	-9272	3968	13056	25	4	-13	-15808	-3080	-8	-2	-36	2	-15680	-1088	-4312	-11	11	16	127	120	8
-9912	-4192	11660	-18	20	-26	-16528	1288	-976	15	-12	16	-15296	3168	-5192	17	-12	2	-9408	3912	13192	23	6	-16	-15856	-2920	-40	-41	-34	2	-15672	-968	-4056	-25	6	20	127	117	8
-9932	-4264	11724	-20	16	-21	-16512	1384	-1176	12	2	22	-15288	3208	-5016	3	-13	-2	-9368	3992	13160	24	-4	-16	-15800	-2832	-384	-88	-21	3	-15856	-1048	-3848	-19	-18	22	127	118	8
-10028	-4216	11712	-15	16	-25	-16440	1384	-1032	0	-2	11	-15208	2896	-5360	-2	-22	-5	-9392	3880	13120	22	-6	-19	-15904	-3184	-360	-49	-12	-2	-15712	-1152	-4304	-10	-24	22	127	120	8
-9968	-4240	11604	-8	14	-22	-16576	1280	-752	1	8	11	-15200	2936	-5128	0	-23	-7	-9432	4072	13168	23	-4	-25	-16008	-2968	-296	-33	-3	7	-15560	-1048	-4424	4	-22	17	127	118	8
-9980	-4132	11600	-8	14	-14	-16504	1240	-1224	2	6	13	-14968	2880	-5248	-8	-32	-7	-9472	4024	13088	14	0	-21	-15632	-2976	-616	-18	-1	2	-15656	-1144	-4304	7	-21	27	127	120	8
-10028	-4264	11636	-5	18	-21	-16552	1224	-1272	-12	-1	14	-15104	2944	-5120	-14	-35	-7	-9480	3968	13192	16	-7	-20	-15824	-3000	-456	-27	10	0	-15552	-1168	-4432	-9	-27	29	127	120	8
-9972	-4164	11592	-12	21	-21	-16624	1440	-1280	0	-4	12	-14984	2896	-5352	-14	-27	-5	-9416	4048	13088	13	-5	-21	-15864	-3088	-480	-23	8	2	-15472	-1104	-4312	7	-33	25	127	120	8
-9976	-4216	11660	-15	25	-28	-16584	1208	-1256	-9	-6	13	-14872	2784	-5240	-16	-26	-6	-9344	3992	13120	10	-9	-21	-15784	-3032	-456	1	15	-3	-15568	-1120	-4488	8	-36	24	127	120	8
-10084	-4240	11632	-14	20	-26	-16640	1296	-872	-31	-11	14	-14904	2896	-5312	-23	-23	-7	-9472	4120	13144	15	-4	-17	-16008	-3088	-320	17	17	-1	-15392	-1112	-4488	6	-24	21	127	120	8
-9972	-4220	11616	-16	18	-25	-16504	1376	-1256	-35	-16	12	-14928	2776	-5400	-16	-12	-7	-9400	4096	13280	21	-10	-20	-15928	-2768	-504	-36	6	-3	-15544	-1056	-4456	1	-24	19	127	121	8
-9964	-4236	11592	-16	20	-22	-16640	1344	-1104	-15	-12	14	-15032	2848	-5264	-4	-5	-5	-9432	3944	13088	13	-6	-24	-15880	-2912	-704	-51	1	-1	-15336	-1160	-4584	-4	-18	20	127	120	8
-9992	-4184	11644	-17	10	-20	-16424	1440	-968	-3	-18	19	-14888	2808	-5320	6	0	0	-9504	3872	12896	10	-4	-17	-15880	-2968	-1056	-20	-1	-9	-15360	-1288	-4752	-8	-18	17	127	120	8
-9952	-4188	11676	-7	11	-23	-16672	1320	-1136	4	-12	24	-15176	2904	-5312	17	1	5	-9552	4088	13160	17	-8	-22	-15896	-3024	-680	-3	-6	-4	-15368	-1160	-4736	0	-17	5	127	120	8
-10020	-4216	11748	-12	20	-28	-16656	1432	-784	9	-12	14	-14976	2824	-5480	20	6	1	-9496	4048	12984	15	-13	-20	-16096	-2960	-600	-6	-3	-9	-15408	-1048	-4736	-9	-17	10	127	120	8
-10004	-4176	11708	-15	13	-26	-16488	1392	-1264	13	-19	21	-15064	2928	-5176	21	9	0	-9376	4048	13096	12	-10	-22	-15968	-2976	-440	-3	-17	-14	-15288	-1152	-4672	-1	-18	19	127	119	8
-9956	-4220	11672	-15	17	-32	-16512	1432	-864	6	-13	17	-15040	2880	-5136	33	10	0	-9416	4080	13256	13	-9	-14	-15912	-3008	-288	3	-12	-15	-15456	-1176	-4576	7	-12	13	127	120	8
-9928	-4232	11688	-11	19	-32	-16592	1360	-920	6	-14	13	-15200	2832	-5104	23	16	-5	-9368	3920	13128	8	-7	-19	-15856	-3192	-448	24	-15	-16	-15416	-1160	-4352	8	-7	10	127	118	8
-9992	-4244	11660	-10	15	-25	-16608	1112	-1112	7	-15	11	-15184	2736	-5192	28	12	-1	-9560	3992	13120	14	-10	-21	-15896	-3072	-432	13	-20	-15	-15408	-1288	-4592	17	-4	13	127	121	8
-9952	-4184	11652	-13	13	-26	-16696	1360	-736	22	-13	9	-15168	2760	-4968	38	8	5	-9456	3976	13192	10	-10	-26	-15864	-2960	-400	-4	-24	-12	-15464	-1312	-4528	14	-3	15	127	118	8
-9908	-4188	11632	-17	13	-28	-16680	1336	-920	26	-1	14	-15280	2776	-5016	42	11	11	-9472	4040	13264	17	-7	-20	-15816	-3200	-520	-3	-24	-10	-15528	-1160	-4744	4	4	19	127	119	8
-10000	-4188	11676	-19	16	-25	-16632	1264	-1088	33	-7	18	-15176	2680	-5424	53	14	13	-9272	4024	13320	14	-6	-22	-15712	-3136	-576	10	-25	-6	-15576	-1352	-4448	17	4	18	127	120	8
-10024	-4228	11704	-16	18	-29	-16544	1256	-928	41	-4	18	-14984	2776	-5240	63	10	16	-9416	3944	13168	13	-15	-17	-15712	-3000	-416	22	-27	-6	-15376	-1376	-4440	17	-8	20	127	121	8
-10008	-4264	11692	-7	21	-28	-16504	1280	-1080	44	-3	16	-15056	2680	-5144	64	5	22	-9272	3864	13160	24	-4	-15	-15864	-3088	-400	38	-26	-15	-15464	-1296	-4424	18	-10	17	127	118	8
-9916	-4252	11732	-9	21	-30	-16592	1360	-776	51	3	20	-14952	2712	-5336	74	5	20	-9328	4072	13288	18	-8	-22	-15952	-3144	-320	4	-33	3	-15576	-1248	-4680	13	-6	23	127	118	8
-9988	-4252	11640	-9	17	-23	-16464	1312	-896	52	9	15	-14992	2720	-5304	69	12	26	-9472	3912	13136	23	-6	-18	-15768	-3040	-600	-6	-31	5	-15352	-1232	-4464	-3	8	28	127	120	8
-10000	-4176	11692	-11	11	-23	-16472	1256	-800	52	-1	25	-14928	2648	-5280	73	-1	25	-9528	3880	13344	21	-6	-11	-15720	-3264	-736	-8	-34	1	-15320	-1312	-4528	-5	10	22	127	117	8
-9988	-4212	11604	-10	6	-24	-16720	1240	-1256	51	0	30	-14792	2704	-5520	61	8	25	-9328	3920	13016	17	-7	-15	-15840	-3000	-832	13	-45	7	-15336	-1264	-4880	-4	16	27	127	121	8
-9936	-4264	11632	-8	7	-21	-16888	1352	-928	46	-17	27	-14912	2816	-5624	62	5	21	-9456	4056	13376	23	-4	-17	-15984	-3072	-808	32	-53	8	-15376	-1112	-4880	-18	19	19	127	118	8
-9948	-4164	11700	-14	18	-21	-16608	1376	-1224	29	-16	31	-14840	2744	-5480	50	20	17	-9272	3928	13072	25	1	-15	-15752	-3072	-368	-10	-60	9	-15496	-1136	-4696	-38	11	14	127	118	8
-10060	-4248	11616	-10	17	-22	-16616	1408	-1048	16	-33	28	-14856	2824	-5480	51	4	17	-9576	4056	13352	29	1	-15	-15752	-3016	-336	-17	-58	6	-15568	-1280	-4640	-51	14	17	127	118	8
-9968	-4248	11592	-14	13	-26	-16592	1320	-1144	23	-43	33	-14648	2760	-5536	48	21	19	-9456	3952	13144	26	-3	-17	-15952	-3216	-304	-21	-64	13	-15368	-1232	-4704	-43	28	9	127	121	8
-10048	-4292	11684	-8	13	-26	-16488	1264	-1280	22	-54	35	-14664	2672	-5800	57	41	20	-9456	4304	13112	22	1	-20	-16024	-2976	-416	-18	-60	12	-15448	-1208	-4568	-42	20	7	127	120	8
-10032	-4076	11848	-10	16	-31	-16536	1304	-1288	33	-61	33	-14888	2784	-5784	65	52	22	-9496	4120	13136	28	-2	-16	-15816	-2768	-208	-32	-68	11	-15456	-1152	-4640	-60	17	15	127	119	8
-9892	-4176	11688	-19	12	-27	-16680	1544	-1160	36	-74	38	-14704	2720	-5760	77	65	27	-9488	3952	13304	25	-2	-10	-15896	-2984	-248	-22	-61	9	-15416	-1160	-4520	-57	12	16	127	118	8
-9960	-4232	11616	-23	20	-27	-16744	1408	-1208	34	-85	38	-14928	2744	-5712	90	61	29	-9272	4120	13144	27	3	-13	-15920	-3056	64	-23	-61	12	-15568	-1136	-4296	-52	11	17	127	121	8
-9876	-4180	11764	-30	20	-20	-16784	1496	-1000	19	-95	33	-15224	2856	-5144	93	70	29	-9320	4152	13152	29	7	-20	-15904	-2920	-232	-24	-57	4	-15656	-928	-4544	-27	24	10	127	117	8
-10052	-4220	11644	-30	21	-26	-16472	1152	-920	35	-88	45	-15184	2944	-5080	108	69	31	-9472	4120	13096	26	-7	-18	-15856	-2952	160	-21	-48	2	-15680	-896	-4536	-41	21	11	127	121	8
-10064	-4204	11624	-21	22	-25	-16696	1512	-616	69	-88	45	-15256	3096	-4960	105	50	30	-9416	4224	12792	22	1	-19	-16000	-2840	136	-38	-50	1	-15696	-992	-4240	-33	19	8	127	118	8
-10020	-4236	11756	-19	25	-29	-16600	1488	-672	51	-69	37	-15280	3280	-4816	98	41	28	-9512	3856	12936	19	-10	-21	-15696	-3096	8	-29	-38	5	-15776	-1024	-4376	-48	-2	8	127	119	8
-9992	-4144	11700	-22	24	-30	-16392	1464	-424	28	-58	32	-15624	3256	-4648	88	26	21	-9424	3968	13064	21	-10	-22	-15936	-3072	112	-17	-27	9	-15664	-1208	-4456	-42	-9	8	127	119	8
-9976	-4288	11716	-18	18	-25	-16544	1224	-120	46	-34	24	-15536	3280	-4624	70	21	15	-9344	4072	13272	19	1	-24	-15944	-2880	-8	-24	-19	6	-15680	-1024	-4232	-25	-6	11	127	118	8
-10028	-4388	11580	-19	15	-27	-16600	1272	-208	74	-12	21	-15408	2984	-4800	67	23	19	-9432	4128	13016	19	-5	-21	-15784	-2944	64	-44	-9	9	-15840	-944	-4200	-34	-13	19	127	119	8
-10004	-4232	11700	-21	23	-18	-16592	1392	-424	81	3	24	-15544	3064	-5192	42	8	8	-9392	4088	13208	21	0	-21	-15936	-3024	-48	-57	4	1	-15608	-1112	-4600	-23	-18	16	127	120	8
-9988	-4252	11680	-16	24	-13	-16544	1432	-400	69	12	22	-15288	2976	-5352	34	-18	8	-9448	3944	13256	21	-3	-21	-15832	-3112	0	-36	7	7	-15584	-1136	-4472	-3	-23	18	127	118	8
-10072	-4244	11648	-18	16	-18	-16584	1488	-600	44	25	16	-15352	3088	-4952	33	-17	12	-9368	4056	13080	21	0	-26	-15952	-2960	-368	-3	13	4	-15424	-920	-4648	9	-4	24	127	120	8
-9988	-4148	11656	-20	21	-22	-16456	1296	-776	33	32	6	-15152	2912	-5256	24	-21	8	-9496	4096	13136	19	-6	-28	-15816	-2904	-168	6	12	6	-15400	-984	-4712	3	-9	26	127	117	8
-10024	-4300	11688	-14	21	-21	-16712	1304	-696	63	36	12	-15176	2848	-5416	26	-8	7	-9360	4072	13328	18	-3	-31	-16000	-2848	-96	-22	17	-5	-15656	-1056	-4560	-9	-28	20	127	118	8
-9984	-4232	11612	-15	18	-13	-16808	1360	-904	65	29	17	-15088	2952	-5072	34	-8	5	-9256	4016	12856	21	5	-27	-15864	-3024	40	-27	18	-5	-15584	-1112	-4560	-5	-50	18	127	119	8
-10012	-4244	11676	-10	23	-16	-16552	1608	-664	41	27	14	-15024	3016	-5472	32	-14	7	-9400	3920	13032	19	8	-24	-15856	-2944	-296	-21	28	-3	-15472	-1320	-4224	4	-41	20	127	117	8
-9980	-4184	11716	-17	18	-20	-16496	1440	-928	5	31	9	-15040	2952	-5392	35	-13	8	-9536	3944	13040	20	1	-26	-15672	-2888	-320	-8	35	-6	-15592	-1104	-4480	8	-37	20	128	119	8
-9948	-4272	11636	-18	20	-23	-16464	1232	-632	15	33	7	-15040	2840	-5448	27	-21	7	-9440	4160	12960	16	-4	-28	-16000	-2808	-296	-20	35	-1	-15400	-1064	-4648	-4	-33	24	127	121	8
-10024	-4276	11648	-11	15	-22	-16512	1248	-824	39	37	7	-15024	2768	-5552	49	-16	12	-9624	4240	12976	14	-9	-33	-15832	-3000	-296	-51	37	-3	-15456	-1136	-4664	-10	-30	22	127	117	8
-9992	-4248	11672	-10	16	-23	-16608	1312	-752	54	38	17	-14976	2848	-5664	44	-11	8	-9512	4032	13264	19	-4	-24	-15936	-3072	-320	-37	36	-9	-15344	-1208	-4712	-6	-26	18	127	120	8
-10100	-4252	11560	-9	17	-20	-16728	1320	-1096	45	31	22	-15112	2952	-5376	29	-7	10	-9392	3944	13216	18	-1	-23	-16032	-2984	-272	-16	36	0	-15456	-1360	-4752	0	-12	13	127	117	8
-10048	-4196	11644	-15	15	-21	-16448	1384	-1152	-4	28	11	-14960	2712	-5288	11	-9	6	-9480	3952	13024	19	-9	-23	-15952	-2960	-480	-7	35	1	-15256	-1120	-4744	-1	-6	12	127	118	8
-10028	-4252	11632	-14	12	-16	-16520	1488	-976	-8	28	11	-14936	2544	-5344	1	1	6	-9488	3976	13136	14	-6	-20	-15896	-2984	-504	-15	30	-1	-15352	-1232	-4792	-8	7	16	127	119	8
-9940	-4228	11708	-10	10	-17	-16720	1288	-976	-6	24	20	-15032	2544	-5472	5	13	3	-9400	4088	13120	17	-5	-22	-15808	-3152	-280	-26	21	-2	-15504	-1232	-4856	5	13	16	127	117	8
-9980	-4208	11584	-2	11	-16	-16536	1360	-1152	2	11	32	-14960	2664	-5568	14	20	7	-9536	4032	13128	10	-6	-22	-15792	-2960	-496	0	22	-1	-15376	-1336	-4672	5	11	16	127	120	8
-9968	-4152	11728	-6	12	-21	-16672	1328	-1056	-17	13	27	-14848	2888	-5472	10	26	8	-9432	4080	13200	17	-9	-20	-15824	-2968	-608	4	24	-1	-15432	-1176	-4848	9	9	19	127	120	8
-9996	-4248	11664	-5	9	-18	-16544	1360	-944	-10	12	25	-15032	2888	-5664	6	23	10	-9296	3856	12952	13	-6	-23	-15856	-3008	-280	3	26	3	-15376	-1192	-4720	7	5	22	127	117	8
-10004	-4240	11656	-9	13	-20	-16504	1392	-880	-11	14	24	-14992	2944	-5656	8	25	13	-9672	4200	13136	13	-2	-23	-15808	-2944	-664	10	20	-1	-15584	-1344	-4416	8	15	21	127	120	8
-9984	-4260	11608	-3	12	-19	-16712	1400	-888	-7	12	26	-14848	2784	-5480	15	25	6	-9472	4160	13280	17	-3	-17	-15864	-2912	-416	5	30	0	-15528	-1152	-4568	14	21	21	127	116	8
-9984	-4272	11596	-3	13	-24	-16696	1392	-1040	-6	9	21	-15064	2888	-5424	17	23	7	-9264	3928	12872	14	-4	-15	-15896	-3040	-616	13	30	-3	-15472	-1008	-4576	13	17	17	127	123	8
-10040	-4176	11668	0	16	-19	-16704	1432	-1160	0	5	28	-15016	2976	-5448	5	25	8	-9432	4056	13048	17	-5	-21	-15936	-2976	-744	2	24	1	-15480	-1048	-4560	14	22	19	127	122	8
-9984	-4160	11540	-5	14	-21	-16408	1408	-664	-17	12	22	-15216	2856	-5480	3	23	9	-9536	4000	13384	15	-1	-25	-15920	-2896	-304	-7	19	-4	-15544	-1032	-4872	13	23	19	127	124	8
-9984	-4268	11668	-6	15	-27	-16568	1208	-800	-15	15	24	-15160	2912	-5456	5	20	12	-9616	4136	13032	16	-4	-21	-15856	-3024	-616	8	16	-2	-15352	-1152	-4744	8	14	13	127	123	8
-9940	-4188	11676	-7	14	-25	-16464	1432	-1016	-5	17	25	-15088	2912	-5416	17	26	8	-9328	3952	12976	16	-2	-22	-15712	-2952	-664	20	16	0	-15376	-1280	-4720	17	16	13	128	121	8
-10012	-4232	11728	-6	12	-19	-16640	1320	-1064	7	21	23	-15048	2992	-5512	22	30	12	-9240	4048	13232	14	-10	-17	-16032	-2816	-392	18	17	-5	-15400	-1184	-4784	14	8	14	128	122	8
-10028	-4244	11704	-12	13	-21	-16496	1544	-920	4	21	20	-15088	2936	-5288	28	28	16	-9312	4224	13272	15	-5	-20	-15848	-2880	-536	17	16	-3	-15400	-1272	-4888	20	11	18	127	122	8
-9948	-4200	11664	-11	13	-20	-16688	1336	-888	4	24	20	-14984	2968	-5232	26	25	13	-9376	4048	13224	18	-1	-23	-15896	-2888	-112	0	15	-7	-15512	-1048	-4968	16	17	26	127	123	8
-10004	-4192	11592	-12	10	-16	-16496	1480	-1008	22	30	20	-15136	2992	-5240	24	23	19	-9488	3912	13016	13	-4	-30	-15792	-2976	-440	3	14	-8	-15544	-1216	-4568	10	8	22	127	124	8
-10028	-4180	11660	-12	14	-25	-16640	1472	-976	24	35	20	-15056	2928	-5240	36	16	15	-9448	3952	13216	14	-3	-22	-15888	-3048	-776	16	16	-3	-15448	-1432	-4672	14	6	20	127	121	8
-9992	-4184	11620	-6	22	-22	-16512	1512	-712	31	39	27	-15048	3104	-5656	27	15	20	-9416	4024	13080	16	-1	-25	-15952	-3144	-472	22	15	-5	-15408	-1208	-4520	28	10	19	127	121	8
-10056	-4208	11656	-5	18	-23	-16768	1416	-832	31	35	24	-15088	2936	-5752	24	8	13	-9512	4128	13152	11	-4	-19	-15984	-3048	-624	23	22	-4	-15680	-1216	-4688	23	10	21	127	123	8
-10048	-4204	11600	-6	12	-19	-16584	1336	-896	6	39	28	-14952	2856	-5368	17	18	11	-9416	3968	13144	10	-7	-21	-15824	-2904	-424	17	23	-4	-15448	-1120	-4768	22	15	24	127	120	8
-9928	-4200	11680	-10	11	-15	-16440	1536	-1000	-9	38	19	-14920	2896	-5744	3	29	14	-9464	3960	13280	16	0	-19	-15840	-2920	-320	6	27	-5	-15512	-1176	-4544	36	19	31	127	121	8
-10040	-4208	11624	-3	15	-16	-16488	1360	-1264	-13	34	19	-15056	2928	-5752	5	21	12	-9344	4016	13240	18	-7	-25	-15824	-2896	-544	17	25	-7	-15504	-1256	-4880	33	8	32	127	120	8
-10052	-4176	11668	-8	7	-17	-16424	1400	-1304	-20	38	21	-14912	2840	-5696	2	18	7	-9560	4080	13424	17	-11	-27	-15808	-2968	-248	40	29	-8	-15424	-1256	-4904	36	11	33	127	120	8
-10000	-4216	11628	-7	6	-17	-16608	1464	-1168	-22	31	23	-14992	3000	-5680	3	14	12	-9624	4240	13096	14	-10	-26	-15744	-2904	-512	45	33	-2	-15496	-1232	-5096	43	12	27	127	121	8
-10024	-4212	11632	-3	9	-21	-16544	1520	-1568	-22	28	20	-14832	3032	-5576	-4	15	13	-9288	3912	12928	12	-14	-25	-16064	-3016	-832	34	29	-7	-15264	-1152	-5016	22	4	28	127	122	8
-10000	-4216	11668	0	10	-18	-16672	1568	-976	-16	29	18	-14960	3200	-5608	5	11	10	-9688	4224	13088	12	-8	-28	-15776	-3064	-688	41	21	-6	-15520	-1120	-5152	51	5	37	127	119	8
-10032	-4240	11640	-4	9	-20	-16560	1496	-1088	-27	23	17	-14832	2904	-5456	14	7	6	-9328	3992	13280	19	-10	-17	-15992	-2896	-704	44	21	-5	-15344	-1264	-4936	40	-13	28	127	119	8
-10068	-4244	11684	-1	10	-25	-16504	1328	-1360	-31	26	13	-14848	3032	-5608	10	11	7	-9512	4184	13416	15	-7	-24	-16120	-2760	-480	27	20	-8	-15304	-1096	-4904	41	-7	23	127	122	8
-9988	-4124	11640	-3	6	-27	-16600	1544	-1528	-25	26	9	-14944	2856	-5632	13	17	13	-9632	4112	13080	14	-11	-20	-15896	-3048	-608	25	10	-4	-15224	-1136	-5160	26	5	24	127	122	8
-10028	-4128	11608	-2	5	-21	-16800	1512	-1104	-12	23	24	-15048	2944	-5712	15	16	9	-9528	4152	13168	16	-9	-16	-15856	-3040	-592	26	6	-12	-15232	-1104	-5240	19	13	22	127	118	8
-10020	-4200	11724	-3	5	-24	-16656	1496	-1160	-22	19	15	-15016	2928	-5448	23	13	11	-9360	3968	13032	15	-11	-18	-15824	-2800	-688	35	4	-6	-15368	-1016	-5072	15	1	17	127	120	8
-9956	-4284	11604	-3	4	-26	-16616	1496	-1232	-20	11	12	-14880	3008	-5864	25	9	10	-9496	3968	13232	16	-9	-20	-15960	-2896	-392	34	1	-13	-15448	-960	-4968	36	3	23	127	120	8
-9956	-4144	11672	-6	12	-28	-16568	1432	-1232	-7	23	16	-14832	3040	-5456	29	11	16	-9544	3920	13144	16	-6	-29	-15792	-3024	-616	32	-3	-16	-15424	-1136	-4832	33	-1	23	127	119	8
-9972	-4184	11600	-6	10	-24	-16600	1384	-1224	13	26	10	-14936	3056	-5712	26	7	16	-9496	4184	13184	13	-6	-19	-16064	-2880	-432	49	-3	-18	-15424	-1200	-4872	36	-4	26	127	121	8
-9940	-4232	11640	-7	16	-29	-16704	1504	-1184	5	24	17	-14992	3120	-5584	29	12	6	-9392	3992	13160	14	-9	-25	-15800	-2896	-544	46	-7	-12	-15448	-1104	-4768	34	-4	26	127	119	8
-10032	-4192	11740	-9	14	-24	-16712	1344	-1184	11	22	10	-14976	3096	-5568	29	2	3	-9432	4096	12840	12	-9	-21	-15744	-2936	-536	34	-5	-11	-15400	-1224	-4864	37	0	22	127	120	8
-9968	-4168	11680	-9	13	-19	-16520	1488	-1296	9	20	16	-14952	2976	-5712	20	1	1	-9448	4064	13000	16	-12	-24	-15880	-2888	-416	27	-4	-15	-15424	-1200	-4912	35	0	25	127	122	8
-10044	-4244	11688	-9	12	-23	-16496	1448	-1520	7	18	8	-14912	2832	-5872	13	8	-2	-9488	4088	13112	13	-4	-21	-15840	-3032	-512	29	-5	-12	-15384	-1200	-4984	29	2	21	127	121	8
-9980	-4184	11616	-8	10	-26	-16560	1480	-1208	-1	14	11	-14880	2992	-5760	7	6	-2	-9416	4120	13288	14	-6	-16	-15752	-2952	-784	32	-4	-16	-15224	-1088	-5144	24	7	20	127	119	8
-10024	-4204	11716	-8	11	-24	-16616	1496	-1064	-8	10	10	-14840	2912	-5808	12	2	-5	-9432	4032	13072	13	-14	-18	-15760	-2896	-568	28	-12	-14	-15392	-1080	-5040	19	5	14	127	120	8
-10020	-4188	11732	-6	12	-23	-16640	1544	-1360	-10	2	5	-14744	2968	-5648	15	0	-2	-9456	3944	13120	12	-10	-16	-15840	-3032	-416	30	-10	-21	-15352	-1136	-5096	21	0	14	127	121	8
-9976	-4176	11744	-13	18	-28	-16464	1520	-1352	-17	0	13	-14704	2896	-5864	11	0	0	-9504	4088	13256	12	-10	-25	-15912	-2920	-848	39	-19	-22	-15432	-1256	-5216	27	1	13	127	121	8
-9988	-4176	11564	-3	15	-30	-16616	1504	-1328	-20	-5	4	-14704	3136	-5752	13	-2	0	-9496	4040	13040	11	-6	-24	-15856	-2944	-448	44	-20	-22	-15352	-1344	-4912	26	-4	13	127	117	8
-9976	-4188	11740	-6	17	-29	-16560	1456	-1336	-17	0	2	-14912	2928	-5976	20	1	0	-9464	3920	12952	11	-7	-17	-15888	-2960	-512	46	-32	-23	-15232	-1368	-4992	30	-5	15	127	120	8
-10040	-4156	11656	4	10	-28	-16320	1584	-1336	-18	-5	4	-15096	2944	-5920	25	3	-1	-9512	4104	13344	17	-12	-10	-16024	-3112	-696	60	-31	-22	-15272	-1432	-5112	43	-2	22	127	120	8
-9984	-4132	11680	2	5	-34	-16576	1424	-1280	-23	-10	4	-14944	3000	-5528	20	2	2	-9464	4120	13088	20	-2	-17	-15944	-3040	-528	78	-38	-22	-15288	-1256	-5096	48	-9	25	127	118	8
-9980	-4208	11644	2	6	-38	-16464	1464	-1424	-26	-10	3	-14952	3056	-5704	17	11	0	-9472	4088	13080	15	-3	-17	-15896	-2976	-472	78	-37	-19	-15384	-1240	-4888	48	-15	31	127	118	8
-10032	-4192	11660	0	2	-29	-16608	1504	-1000	-31	-11	2	-14888	2984	-5584	22	11	-3	-9456	3952	13160	14	-6	-18	-15784	-2936	-360	67	-31	-20	-15448	-1080	-4760	43	-20	34	127	118	8
-10008	-4132	11768	-4	4	-34	-16584	1472	-1344	-35	-9	1	-15208	2976	-5680	26	5	-7	-9472	4064	13232	17	-3	-11	-15952	-2968	-344	62	-31	-23	-15552	-1144	-4624	42	-32	35	127	120	8
-9884	-4116	11756	-1	9	-30	-16560	1264	-1008	-25	-7	4	-14960	2936	-5464	31	9	-1	-9400	4104	13352	14	-11	-15	-15776	-3000	-152	66	-23	-18	-15560	-1064	-4768	62	-27	35	127	118	8
-9848	-4152	11764	-5	14	-31	-16672	1392	-1160	-13	-8	5	-14968	2864	-5464	35	6	7	-9392	4064	12984	23	-6	-17	-15944	-2584	-208	19	-21	-21	-15632	-1024	-4704	62	-25	34	127	119	8
-10008	-4200	11712	-13	20	-25	-16744	1424	-1248	15	-1	-3	-15072	2880	-5648	45	0	7	-9464	3976	13136	12	-5	-21	-15952	-2968	-272	-6	-18	-26	-15416	-1160	-4848	61	-32	37	127	119	8
-9960	-4204	11596	-15	21	-29	-16528	1408	-1192	50	2	3	-14952	2912	-5304	55	-11	12	-9504	3960	13184	15	-8	-24	-15936	-3104	-344	36	-20	-23	-15384	-1360	-4928	71	-25	34	127	119	8
-9980	-4180	11664	-13	17	-24	-16528	1336	-1472	65	-3	3	-14984	2968	-5264	67	-21	14	-9472	4024	13072	13	-7	-16	-15856	-3176	-440	78	-12	-19	-15368	-1216	-4784	83	-33	28	127	121	8
-9944	-4148	11592	-12	16	-28	-16528	1480	-1472	39	1	6	-14976	3184	-5600	64	-11	5	-9544	4128	13216	21	-7	-22	-15848	-3032	-248	61	-11	-16	-15496	-1264	-4544	59	-47	35	127	121	8
-9972	-4112	11636	-13	16	-25	-16560	1304	-968	51	10	6	-15056	2968	-5568	53	-4	6	-9504	4032	13152	17	-8	-17	-15944	-3152	-392	13	-13	-17	-15344	-1248	-4696	34	-49	33	127	118	8
-9980	-4184	11748	-20	17	-22	-16520	1424	-1448	31	8	4	-14912	2880	-5528	56	-3	5	-9440	3920	13256	16	-4	-16	-15752	-3064	-496	-13	-15	-11	-15496	-1320	-4768	27	-51	26	127	119	8
-9936	-4160	11640	-19	15	-26	-16520	1512	-1144	24	7	7	-14968	2896	-5808	52	-18	7	-9536	4088	13144	20	-1	-13	-15880	-3152	-312	-8	-19	-10	-15456	-1256	-4944	23	-38	25	127	120	8
-10008	-4152	11716	-15	11	-26	-16520	1408	-1416	29	1	6	-14976	2904	-5872	47	-14	14	-9504	4064	13280	18	-3	-20	-15856	-3136	-184	23	-16	-13	-15376	-1160	-4928	23	-32	20	127	120	8
-9948	-4192	11684	-10	16	-25	-16528	1376	-1384	34	3	4	-14888	2808	-5608	51	-19	12	-9512	3952	13088	19	-3	-21	-15840	-2968	-144	5	-18	-8	-15352	-1000	-4784	11	-31	27	127	119	8
-9956	-4212	11732	-14	16	-26	-16552	1328	-1368	33	8	4	-14952	2792	-5576	53	-8	7	-9416	4096	13232	14	-5	-20	-15744	-3176	-632	-12	-20	-12	-15464	-1384	-4760	15	-34	22	127	120	8
-9940	-4132	11716	-7	22	-27	-16552	1352	-1384	44	-9	10	-14896	2880	-5376	46	-19	7	-9496	4136	13152	16	-9	-20	-15880	-3168	-288	18	-15	-15	-15296	-1480	-4640	21	-39	22	127	118	8
-9960	-4164	11764	-6	21	-25	-16592	1240	-1568	25	-6	6	-14880	2816	-5648	39	-7	3	-9496	4016	13128	11	-5	-19	-15768	-3144	-200	43	-15	-13	-15296	-1328	-4744	26	-31	22	127	119	8
-9964	-4176	11712	-10	15	-31	-16512	1520	-1280	5	-5	6	-14816	2840	-5720	33	-6	1	-9440	3952	13056	16	-11	-20	-15824	-3072	-240	23	-12	-8	-15248	-1256	-4800	16	-30	20	127	120	8
-9968	-4180	11648	-9	15	-26	-16576	1208	-1344	15	-1	6	-14960	2968	-5728	32	-7	4	-9368	4000	13112	14	-8	-16	-15864	-3040	-480	9	-13	-10	-15368	-1448	-4792	24	-28	24	127	121	8
-9996	-4116	11660	-14	8	-28	-16528	1296	-1400	17	-8	13	-14992	2872	-5496	30	-5	5	-9288	3952	13128	18	-8	-21	-15728	-3064	-544	11	-16	-9	-15400	-1376	-4624	22	-30	25	127	119	8
-9936	-4144	11704	-10	13	-29	-16624	1176	-1248	6	-16	11	-14920	2872	-5456	31	-2	5	-9424	3880	13064	18	-7	-17	-15960	-3016	-496	28	-11	-9	-15408	-1128	-4768	20	-26	30	127	119	8
-9968	-4200	11668	-10	13	-29	-16416	1376	-1248	8	-12	13	-14952	2864	-5704	26	-4	6	-9464	3968	12968	16	-5	-22	-15904	-3032	-288	12	-17	-6	-15512	-1104	-4704	13	-27	24	127	120	8
-10016	-4156	11692	-17	14	-28	-16448	1168	-1304	12	-14	16	-14896	2872	-5576	30	-4	4	-9416	4104	13160	15	-10	-13	-15960	-3240	-304	11	-11	-10	-15408	-1320	-4720	6	-24	24	127	118	8
-9960	-4256	11696	-14	13	-29	-16608	1336	-1064	18	-5	11	-14976	2736	-5448	42	-6	11	-9464	3992	12992	19	-8	-18	-15880	-3184	-304	12	-13	-9	-15496	-1320	-4472	12	-29	17	127	121	8
-9944	-4168	11668	-8	10	-28	-16528	1296	-1192	16	-9	16	-15184	2880	-5464	45	-2	10	-9472	4016	13384	16	-4	-20	-15880	-3152	-232	-2	-15	-5	-15616	-1208	-4648	5	-25	21	127	121	8
-9924	-4128	11784	-10	13	-24	-16576	1424	-1208	17	-8	15	-15104	2888	-5584	45	-3	14	-9312	3976	13336	17	-3	-21	-15848	-3216	-344	-2	-8	-6	-15488	-1432	-4792	2	-26	26	127	119	8
-10012	-4160	11680	-17	12	-27	-16704	1448	-1184	28	-5	12	-15064	3048	-5240	50	-4	15	-9392	4080	13184	14	-8	-22	-15936	-3200	-304	-9	-7	1	-15440	-1400	-4696	7	-24	24	127	122	8
-10044	-4240	11768	-15	10	-30	-16744	1328	-1064	32	2	13	-14936	3080	-5304	43	1	12	-9576	4120	13064	21	-2	-23	-15824	-3000	-280	8	0	-8	-15440	-1216	-4888	14	-22	30	127	120	8
-9956	-4168	11608	-15	14	-29	-16608	1424	-1232	32	1	13	-14816	2944	-5640	42	-10	10	-9512	3928	13320	14	-3	-19	-15904	-3016	-368	11	-1	-7	-15448	-1272	-4872	10	-24	33	127	121	8
-9912	-4188	11652	-12	14	-22	-16560	1264	-1240	21	3	11	-15104	2952	-5544	38	-6	9	-9352	4072	13344	13	-4	-26	-15960	-3120	-424	7	-2	0	-15488	-1024	-4640	10	-19	27	127	120	8
-10000	-4188	11532	-11	13	-22	-16576	1296	-1368	19	10	18	-14960	2864	-5424	28	-10	7	-9256	3976	12976	18	-11	-16	-15840	-3008	-376	5	-4	-7	-15360	-1224	-4760	15	-24	19	127	119	8
-10004	-4200	11580	-11	14	-21	-16568	1232	-1352	16	6	13	-14856	2984	-5472	27	-7	4	-9400	4064	13096	17	-6	-17	-15840	-2888	-136	14	-2	-6	-15520	-1256	-4696	15	-20	20	127	121	8
-9980	-4212	11704	-18	16	-25	-16688	1448	-1232	11	3	12	-14880	2944	-5480	27	-10	4	-9528	4072	13072	16	-7	-26	-15784	-2976	-312	-6	-5	-7	-15360	-1136	-4440	2	-19	20	127	118	8
-9940	-4172	11712	-5	11	-26	-16472	1328	-1064	12	6	12	-14952	2880	-5552	29	-10	7	-9408	4072	13264	16	-5	-23	-15800	-3000	-392	-16	-1	-3	-15544	-1256	-4592	-5	-19	21	127	120	8
-9968	-4200	11648	-8	12	-22	-16560	1416	-1264	14	0	18	-15072	2936	-5648	30	-4	6	-9552	4152	13096	10	2	-19	-15944	-2920	-480	2	-5	-5	-15536	-1288	-4888	4	-20	15	127	120	8
-9968	-4216	11724	-9	14	-25	-16640	1248	-1184	14	2	16	-14840	2944	-5688	22	-3	6	-9512	4048	13328	19	-2	-18	-15816	-3136	-456	-12	-1	-3	-15448	-1184	-4472	-3	-25	15	127	119	8
-9948	-4152	11740	-12	15	-25	-16496	1296	-1384	9	0	17	-14840	2952	-5664	23	-9	6	-9456	4272	13008	12	-2	-20	-15904	-3104	-264	-35	4	-6	-15536	-1232	-4608	-9	-18	24	127	121	8
-9912	-4204	11712	-14	14	-25	-16624	1376	-1152	8	0	14	-15072	2928	-5448	25	-4	2	-9416	4136	13032	17	0	-19	-15856	-3136	-336	-33	3	-7	-15464	-1224	-4696	3	-16	21	127	122	8
-9908	-4220	11744	-13	12	-22	-16552	1432	-1128	2	6	13	-15136	2864	-5688	27	-6	3	-9488	4088	13048	20	-3	-21	-15896	-2960	-80	-1	1	-3	-15608	-1280	-4656	3	-19	22	127	118	8
-9964	-4212	11704	-14	14	-21	-16392	1208	-1472	8	5	12	-14880	2976	-5648	18	-5	5	-9472	4032	13048	22	-1	-26	-15752	-3008	-344	-30	10	3	-15448	-1192	-4912	-11	-29	18	127	121	8
-9968	-4136	11696	-19	18	-22	-16592	1264	-1264	7	13	14	-14992	2872	-5640	17	-10	6	-9480	4064	13432	21	-2	-23	-15936	-2952	-288	-56	15	-4	-15488	-1216	-4552	-13	-28	16	127	122	8
-10016	-4196	11720	-15	12	-26	-16568	1440	-1040	13	10	15	-14928	3024	-5544	21	-13	7	-9488	4144	13176	19	1	-22	-15864	-3144	-232	-38	12	-2	-15600	-1288	-4640	1	-24	15	127	120	8
-9928	-4152	11724	-19	11	-24	-16568	1312	-1176	4	17	15	-15104	2936	-5520	19	-11	6	-9512	4216	13064	17	-1	-22	-15984	-2960	-304	-4	11	-2	-15400	-1352	-4768	5	-19	18	127	120	8
-10020	-4240	11736	-12	10	-21	-16632	1296	-1256	10	17	13	-14960	2928	-5608	26	-15	1	-9528	3968	13200	14	-6	-23	-15848	-2928	-448	8	12	-1	-15536	-1224	-4576	3	-17	24	127	119	8
-9952	-4156	11596	-9	13	-21	-16528	1328	-1176	12	9	18	-15144	2896	-5408	25	-14	5	-9512	4096	13208	17	-3	-28	-15792	-2960	-456	-35	8	2	-15456	-1240	-4568	1	-31	23	127	120	8
-9920	-4208	11648	-13	11	-21	-16384	1344	-1280	21	17	14	-15072	2968	-5656	31	-23	9	-9480	4104	13272	19	-3	-20	-15832	-3200	-456	-40	7	-4	-15448	-1360	-4656	5	-33	24	127	119	8
-9992	-4260	11708	-8	13	-22	-16576	1440	-1184	25	17	21	-14824	2784	-5448	34	-17	11	-9528	3880	13256	14	-8	-17	-15904	-3184	-448	-10	10	-11	-15328	-1184	-4696	17	-26	23	127	121	8
-9900	-4220	11752	-4	15	-24	-16608	1192	-1152	18	21	18	-14848	2968	-5600	31	-14	11	-9480	4104	13072	20	-13	-20	-15816	-2960	-400	4	7	1	-15384	-1088	-4472	12	-22	25	127	118	8
-9924	-4216	11680	-1	17	-20	-16600	1256	-1344	20	15	16	-14912	2984	-5648	32	-15	9	-9400	4160	12976	12	-12	-24	-15824	-3040	-280	2	11	-3	-15336	-1160	-4848	2	-15	29	127	120	8
-9988	-4184	11660	-4	17	-19	-16552	1224	-1280	21	13	21	-14952	2776	-5648	33	-10	11	-9616	4128	13016	14	-14	-25	-15792	-2920	-208	0	8	-8	-15368	-1128	-4792	12	-21	22	127	120	8
-10000	-4212	11836	-7	18	-21	-16704	1440	-1320	18	17	17	-14960	2864	-5520	24	-15	10	-9416	3864	13072	12	-10	-19	-15792	-3176	-464	7	8	-5	-15384	-1344	-4464	14	-17	25	127	122	8
-10004	-4212	11744	-3	14	-24	-16512	1392	-1416	13	16	16	-14920	3064	-5552	22	-7	10	-9408	4024	13080	18	-13	-23	-15840	-3088	-688	21	5	-4	-15560	-1120	-4656	19	-15	24	127	120	8
-10052	-4192	11716	-5	13	-24	-16680	1448	-1424	5	11	15	-14928	3064	-5600	27	-4	6	-9480	3992	13032	16	-6	-23	-15792	-2936	-296	15	2	-3	-15424	-1248	-4464	5	-10	30	127	119	8
-9960	-4176	11740	-9	15	-21	-16592	1360	-1240	9	13	16	-14920	3048	-5688	30	-4	8	-9480	3992	13280	14	-3	-23	-15792	-3184	-400	11	1	-12	-15304	-1312	-4696	10	-6	20	127	119	8
-9904	-4120	11724	-7	11	-27	-16640	1360	-1328	20	12	21	-15120	3096	-5688	27	-1	11	-9408	3984	13208	13	-7	-16	-15888	-3040	-400	24	3	-7	-15440	-1160	-4792	21	-11	17	127	119	8
-9972	-4156	11772	-10	8	-24	-16608	1480	-1496	15	12	17	-15040	2952	-5568	19	0	6	-9416	3984	12896	12	-1	-21	-15848	-2976	-544	8	-1	-5	-15360	-1184	-4640	8	-12	19	127	120	8
-10000	-4144	11648	-14	8	-23	-16544	1280	-1208	5	10	16	-14824	2864	-5688	15	0	7	-9424	4056	13184	15	-8	-21	-15944	-3104	-344	7	-3	-8	-15552	-1216	-4600	2	-20	19	127	120	8
-9928	-4184	11640	-14	8	-27	-16592	1456	-1344	8	8	16	-14920	3000	-5632	18	2	1	-9312	4080	13216	16	-2	-23	-15952	-3040	-64	8	2	-2	-15464	-1240	-4464	3	-16	19	127	121	8
-9972	-4196	11688	-12	12	-26	-16656	1344	-1176	8	5	17	-14976	2880	-5648	19	3	2	-9496	3920	13312	18	-6	-21	-15928	-2896	-120	-6	-1	0	-15512	-1288	-4648	-1	-16	22	127	120	8
-9960	-4212	11708	-10	14	-23	-16536	1304	-1664	4	4	17	-15080	2968	-5408	18	-5	6	-9496	4112	13184	12	-3	-18	-15728	-3112	-376	-15	5	-3	-15552	-1160	-4736	-2	-24	19	127	121	8
-9992	-4176	11588	-11	18	-22	-16584	1400	-1280	-6	1	17	-14984	2928	-5576	17	-8	6	-9504	3976	13344	15	-2	-20	-15896	-3016	-40	-17	11	-2	-15432	-1200	-4464	2	-20	22	127	122	8
-9968	-4220	11720	-11	18	-20	-16616	1384	-1056	2	1	11	-14920	2992	-5664	19	-5	6	-9480	4072	13376	14	3	-26	-15896	-3096	16	-16	12	0	-15512	-1200	-4584	-1	-17	19	127	121	8
-9948	-4184	11732	-5	19	-20	-16608	1320	-1320	21	-6	18	-14976	2992	-5592	22	-14	9	-9680	4104	13032	19	-2	-20	-15904	-3040	-312	-20	9	-2	-15368	-1096	-4352	0	-29	18	128	120	8
-9960	-4144	11820	-6	22	-24	-16600	1320	-1248	14	3	16	-14944	2976	-5376	22	-8	5	-9488	4152	13128	14	0	-20	-15888	-3008	-448	-37	8	-5	-15424	-1232	-4368	-10	-35	21	127	118	8
-10004	-4144	11644	-10	15	-24	-16424	1432	-1512	14	-2	19	-14896	2904	-5784	20	-11	4	-9416	4136	12880	14	-6	-21	-15928	-3048	-480	-18	15	-5	-15576	-1152	-4720	-6	-34	23	127	119	8
-9964	-4160	11620	-9	16	-25	-16608	1416	-1384	3	4	15	-15024	3032	-5304	19	-7	0	-9256	3968	13072	22	-6	-22	-15848	-3048	-416	5	14	0	-15280	-1240	-4648	-2	-36	23	127	119	8
-9984	-4216	11780	-13	13	-25	-16568	1288	-1488	2	-1	16	-14968	2992	-5584	11	-11	4	-9568	3928	13136	17	-9	-17	-15920	-2888	-192	-7	19	5	-15352	-1160	-4696	8	-39	20	127	119	8
-9960	-4136	11676	-11	10	-21	-16504	1256	-1472	9	2	14	-14880	2952	-5632	15	-14	1	-9448	4016	12928	13	-8	-19	-15816	-3056	-520	-16	12	2	-15384	-1184	-4528	1	-40	28	127	121	8
-9944	-4108	11700	-15	13	-28	-16504	1360	-1368	10	0	14	-14936	2944	-5416	24	-11	4	-9536	4080	13120	17	-5	-17	-15728	-3032	-752	-27	17	-4	-15400	-1232	-4656	1	-32	24	127	119	8
-9928	-4188	11732	-15	18	-25	-16616	1520	-1224	19	4	16	-14904	2928	-5448	23	-9	6	-9400	4072	13152	15	-8	-24	-15824	-3104	-528	-13	11	-8	-15440	-1200	-4856	6	-30	25	127	120	8
-9952	-4188	11728	-9	17	-24	-16680	1296	-1464	21	9	14	-14944	2872	-5360	25	-9	8	-9360	3992	13152	18	-8	-24	-15936	-2792	-648	3	8	-1	-15416	-1120	-4808	12	-32	25	127	118	8
-9932	-4260	11700	-8	20	-24	-16696	1320	-1480	22	1	11	-15136	2928	-5680	29	-6	9	-9608	3880	13160	12	-1	-19	-15752	-2944	-664	8	6	-9	-15560	-1048	-4856	11	-32	20	127	120	8
-9956	-4148	11708	-12	17	-19	-16512	1272	-1432	27	3	20	-14968	2856	-5416	36	-3	8	-9424	3912	13256	12	-5	-21	-15904	-3008	-440	-5	-3	-8	-15456	-1352	-4784	14	-25	21	127	119	8
-9980	-4144	11716	-8	12	-29	-16600	1344	-1592	18	2	13	-14976	2984	-5680	39	4	10	-9576	4120	13168	16	-9	-19	-15840	-3112	-696	13	-4	-9	-15392	-1296	-4880	21	-20	26	127	120	8
-9944	-4176	11636	-8	12	-26	-16568	1464	-1456	13	-1	16	-14984	3008	-5496	38	-3	9	-9368	4088	13400	15	-15	-24	-15728	-3048	-456	30	-6	-8	-15480	-1240	-4736	27	-27	29	127	118	8
-9924	-4164	11676	-15	16	-25	-16536	1352	-1392	17	1	12	-14944	2824	-5632	43	-2	11	-9368	3984	13120	15	-8	-20	-15704	-3096	-536	17	-13	-3	-15432	-1272	-4792	26	-27	23	127	119	8
-10024	-4096	11724	-12	14	-26	-16536	1376	-1544	24	-2	13	-14920	3112	-5592	41	0	11	-9416	3984	13120	15	-9	-21	-15752	-3096	-288	16	-9	-11	-15504	-1136	-4648	26	-24	28	127	121	8
-9964	-4192	11724	-13	14	-27	-16520	1272	-1200	32	2	14	-14944	3040	-5368	44	-2	11	-9536	4000	13160	13	-9	-21	-15800	-3032	-384	27	-9	-9	-15384	-1136	-4472	30	-25	32	127	118	8
-9936	-4216	11756	-8	13	-25	-16536	1416	-1512	29	-2	15	-14840	2992	-5408	42	-2	10	-9480	4112	12896	17	-3	-21	-15864	-3008	-504	24	-11	-6	-15400	-1032	-4824	22	-18	26	127	121	8
-9988	-4208	11764	-1	16	-26	-16504	1440	-1424	22	-7	18	-14944	3096	-5584	35	1	8	-9568	4128	13136	15	-11	-21	-15888	-3080	-424	23	-13	-9	-15400	-1080	-4736	18	-21	23	127	119	8
-10012	-4164	11712	-11	13	-28	-16568	1240	-1416	15	0	11	-15016	2984	-5464	29	-6	10	-9432	4048	13192	15	-14	-19	-15768	-3080	-352	16	-11	-5	-15424	-1224	-4472	15	-17	23	127	120	8
-9972	-4180	11724	-12	16	-28	-16512	1304	-1152	15	3	13	-15048	3016	-5456	27	-2	9	-9504	3992	13016	13	-8	-16	-15760	-2952	-512	13	-12	-9	-15456	-1328	-4424	20	-24	23	127	118	8
-9956	-4140	11812	-6	19	-27	-16616	1312	-1240	16	0	11	-14872	3000	-5416	30	-6	5	-9392	3968	13216	15	-9	-20	-15784	-3040	-464	18	-12	-5	-15584	-1168	-4480	13	-24	24	127	120	8
-9992	-4140	11704	-14	16	-24	-16624	1616	-1416	15	2	12	-15016	2928	-5312	30	-8	9	-9344	4024	13240	18	-12	-22	-15696	-3072	-200	-3	-10	-4	-15504	-1200	-4672	3	-22	25	127	121	8
-9964	-4148	11740	-13	16	-27	-16608	1416	-1296	10	-5	10	-14888	3008	-5632	29	-13	9	-9544	3936	13160	15	-8	-15	-15880	-3224	-464	6	-6	-6	-15600	-1240	-4680	8	-28	22	127	119	8
-9928	-4156	11660	-18	15	-24	-16624	1272	-1360	24	0	16	-14960	2992	-5264	31	-8	9	-9360	4056	13200	18	-8	-19	-15784	-3000	-528	18	-8	-10	-15496	-1112	-4296	12	-24	23	127	119	8
-9988	-4244	11748	-12	14	-24	-16632	1272	-1456	20	4	13	-15056	2832	-5480	31	-12	5	-9448	4136	13312	18	-9	-14	-15896	-3016	-400	12	-6	-8	-15328	-1272	-4672	11	-22	23	127	122	8
-10004	-4116	11692	-6	11	-25	-16600	1256	-1432	11	-1	14	-14952	2968	-5624	29	-12	2	-9416	4024	13112	14	-6	-19	-15912	-3288	-336	12	-10	-6	-15416	-1000	-4656	4	-15	22	127	120	8
-10036	-4188	11724	-10	13	-24	-16528	1208	-984	8	-10	12	-15008	2872	-5576	25	-5	2	-9376	3928	13128	11	-8	-19	-15904	-3112	-688	-4	-13	-6	-15464	-1352	-4736	1	-18	18	127	120	8
-9928	-4136	11804	-10	13	-28	-16600	1264	-1240	3	-2	12	-14984	2824	-5472	25	-7	4	-9368	4176	13136	16	-10	-20	-15920	-3104	-448	1	-12	-9	-15408	-1264	-4472	5	-14	19	127	118	8
-9868	-4164	11664	-9	16	-28	-16648	1360	-1248	11	-6	15	-14968	2816	-5528	21	-9	4	-9608	4032	13056	12	-9	-21	-15768	-3072	-632	19	-9	-7	-15504	-1248	-4520	2	-19	17	127	121	8
-9932	-4212	11732	-11	11	-26	-16576	1392	-1400	7	-5	12	-15024	3072	-5528	22	-7	6	-9360	3968	13160	14	-5	-17	-15976	-2896	-304	19	-11	-3	-15496	-1272	-4536	5	-19	21	127	120	8
-9964	-4124	11716	-10	17	-27	-16528	1312	-1648	4	-10	13	-15048	2784	-5552	24	-14	4	-9448	4064	12952	16	-11	-18	-15840	-3032	-304	2	-14	-7	-15624	-1224	-4464	7	-22	17	127	121	8
-9952	-4188	11676	-13	18	-24	-16624	1272	-1488	4	0	14	-15048	2816	-5376	27	-18	3	-9408	4072	13040	19	-13	-21	-15880	-3016	-352	4	-12	-3	-15584	-1280	-4472	-1	-26	19	127	118	8
-9976	-4156	11692	-11	15	-24	-16504	1224	-1440	23	-3	17	-14952	2832	-5296	25	-11	4	-9424	3944	13304	19	-8	-17	-15824	-3152	-464	-2	-6	-5	-15488	-1200	-4536	-1	-23	27	127	119	8
-9972	-4084	11636	-10	18	-26	-16456	1376	-1208	27	0	19	-15016	2952	-5608	33	0	5	-9560	4072	13160	20	-3	-17	-15888	-3112	-568	8	-5	-7	-15704	-1160	-4168	4	-19	24	127	122	8
-9996	-4132	11616	-10	15	-23	-16568	1352	-1664	18	-3	15	-14952	2896	-5544	31	-2	9	-9576	3968	13160	17	0	-23	-15952	-3104	-248	11	-2	-3	-15536	-1208	-4456	3	-24	19	127	120	8
-9968	-4204	11688	-13	17	-23	-16552	1376	-1200	5	-2	13	-14984	2832	-5528	26	-15	9	-9440	3920	13184	15	-4	-20	-15832	-3032	-344	-2	-5	3	-15592	-968	-4376	-1	-25	27	127	118	8
-9904	-4164	11728	-13	16	-25	-16560	1344	-1072	11	0	15	-15160	2880	-5496	28	-23	2	-9464	4024	13144	22	-5	-20	-15976	-3016	-520	-8	2	-7	-15448	-1112	-4600	-1	-14	24	127	119	8
-9988	-4188	11716	-14	16	-25	-16416	1336	-1256	16	-1	18	-15168	2944	-5288	26	-8	3	-9456	3960	13016	14	-10	-22	-15896	-3096	-664	1	0	0	-15472	-1224	-4808	-2	-20	20	127	120	8
-9956	-4200	11672	-14	15	-24	-16728	1312	-1432	16	0	17	-15008	2848	-5576	25	-10	7	-9480	4056	13328	14	-5	-24	-15840	-3024	-496	-3	-4	-3	-15464	-1216	-4344	-4	-26	25	127	121	8
-9900	-4128	11720	-8	19	-27	-16592	1320	-1352	11	8	16	-15120	2864	-5392	22	-14	7	-9448	3960	13232	14	-5	-23	-15880	-3112	-424	-16	-5	2	-15552	-1104	-4552	-5	-29	16	127	119	8
-9916	-4280	11664	-11	16	-26	-16552	1288	-1144	21	-1	21	-15072	2952	-5312	21	-7	6	-9296	3896	13208	18	-4	-19	-15880	-3120	-584	-14	-6	-1	-15456	-1288	-4488	-5	-21	22	127	119	8
-9976	-4116	11632	-13	15	-21	-16480	1416	-1272	19	-1	16	-15040	3056	-5256	31	-8	10	-9576	4088	13160	17	-9	-15	-15888	-3136	-320	3	-8	-3	-15480	-1152	-4640	2	-10	21	127	121	8
-9968	-4184	11744	-9	17	-26	-16584	1504	-1544	12	2	19	-15056	3088	-5512	29	-9	8	-9280	4080	13120	20	-7	-21	-15968	-3120	-288	12	-2	-2	-15440	-1240	-4440	10	-12	27	127	118	8
-9868	-4136	11636	-7	15	-27	-16560	1344	-1520	18	1	18	-15016	2888	-5456	30	-8	6	-9456	4040	13088	18	-12	-19	-15848	-2968	-384	18	-7	-3	-15352	-904	-4568	5	-19	26	127	120	8
-9972	-4200	11676	-9	12	-26	-16608	1312	-1328	18	6	18	-14976	2920	-5536	23	-3	8	-9440	4024	13120	19	-7	-22	-15776	-2984	-496	2	-7	1	-15776	-1096	-4592	-5	-22	24	128	120	8
-9976	-4144	11668	-13	16	-22	-16616	1392	-1416	13	-3	19	-14960	3024	-5600	23	-13	4	-9480	3904	13192	17	-8	-17	-15760	-3000	-360	-18	-3	0	-15512	-1184	-4624	-5	-23	23	127	122	8
-9964	-4172	11692	-8	17	-22	-16632	1392	-1392	4	3	18	-15080	3016	-5544	16	-6	1	-9576	4056	13240	17	-8	-17	-15864	-3176	-520	-11	-4	-5	-15528	-1232	-4504	-1	-18	18	127	118	8
-9932	-4092	11660	-8	18	-27	-16504	1224	-1176	4	-3	15	-14952	3048	-5472	10	-11	1	-9376	3992	13032	16	-4	-20	-15888	-2848	-264	-8	-3	0	-15552	-1176	-4528	-2	-10	19	127	119	8
-9976	-4152	11748	-14	15	-23	-16488	1352	-1480	5	-3	17	-15144	2888	-5320	7	-13	1	-9456	4096	13112	14	-3	-19	-15888	-2896	-544	5	0	-6	-15576	-1152	-4664	-12	-19	19	127	120	8
-9960	-4172	11696	-9	15	-17	-16552	1304	-1544	3	-5	18	-14904	3040	-5432	2	-11	-3	-9576	4032	13128	18	-12	-14	-15832	-2968	-424	-4	0	-4	-15424	-1192	-4456	-8	-14	16	128	119	8
-9920	-4132	11684	-11	12	-23	-16544	1208	-1416	-7	-10	18	-15120	2920	-5456	2	-11	1	-9448	4064	13248	15	-6	-18	-15920	-3048	-384	10	-3	-4	-15544	-1056	-4632	-9	-17	15	128	121	8
-9968	-4172	11740	-8	16	-18	-16464	1400	-1352	-9	-11	15	-14984	2880	-5464	2	-5	-1	-9320	4160	13088	17	-3	-14	-15856	-2952	-400	-14	-1	-3	-15496	-1112	-4528	-7	-18	12	127	120	8
-10020	-4136	11792	-11	15	-24	-16576	1352	-1616	4	-12	14	-14992	3056	-5296	6	-5	-2	-9528	3808	13160	12	-8	-10	-16072	-3088	-536	4	7	0	-15512	-1120	-4416	-16	-28	19	127	120	8
-9976	-4136	11664	-16	14	-26	-16624	1456	-1360	-1	-9	12	-15008	3008	-5408	7	-2	-1	-9400	4096	13144	18	-3	-23	-15976	-3024	-376	-5	1	-2	-15568	-1288	-4336	-15	-21	15	127	117	8
-9900	-4180	11620	-8	20	-25	-16600	1304	-1448	-3	-6	17	-15040	3048	-5472	6	-5	2	-9304	3952	13152	14	-13	-23	-15848	-3112	-448	-10	6	-4	-15544	-1048	-4640	-8	-17	11	128	119	8
-10008	-4168	11728	-13	22	-25	-16608	1112	-1280	2	-6	18	-15048	2928	-5592	9	-10	-5	-9440	4080	13056	14	-2	-20	-15880	-3080	-288	-5	-3	-7	-15504	-1136	-4192	-10	-7	15	127	121	8
-9896	-4172	11748	-10	18	-28	-16520	1392	-1368	5	-8	16	-15048	2896	-5392	7	-3	-2	-9496	3968	13384	15	-6	-18	-15744	-3008	-888	-15	0	-8	-15336	-1000	-4632	-13	-7	13	127	121	8
-9928	-4164	11668	-13	15	-20	-16552	1488	-1648	-4	-5	12	-15032	3040	-5232	0	-2	-6	-9616	4048	13192	14	-11	-20	-15760	-2984	-392	-10	0	-5	-15368	-1120	-4600	-17	-9	10	127	120	8
-9936	-4188	11696	-10	12	-22	-16592	1384	-1168	-17	-11	11	-15088	3000	-5472	-4	-5	-1	-9592	4064	12984	16	-6	-23	-15808	-3000	-720	-3	-3	0	-15488	-1272	-4448	-22	-10	13	127	118	8
-9956	-4152	11644	-10	16	-25	-16560	1192	-1176	-14	-5	12	-15024	2952	-5312	-1	-1	-4	-9600	4032	12952	15	-8	-24	-15896	-3000	-352	-18	2	-7	-15624	-1224	-4720	-17	-13	11	127	118	8
-9928	-4164	11684	-10	18	-23	-16520	1280	-1264	1	-4	18	-14968	2944	-5120	3	-4	-2	-9496	4128	13224	19	-7	-18	-15936	-3104	-592	-17	-3	-10	-15568	-1120	-4408	-15	-18	10	128	119	8
-9988	-4128	11764	-9	13	-24	-16568	1464	-1352	3	-3	17	-15144	2976	-5192	11	-1	-3	-9328	4024	13152	13	-8	-20	-15920	-3048	-416	-8	5	-1	-15552	-1120	-4328	-13	-11	18	128	119	8
-9964	-4224	11776	-12	13	-24	-16632	1256	-1336	0	-4	17	-14912	2920	-5448	4	7	-2	-9328	4064	13240	12	-6	-19	-15896	-3088	-312	-5	6	-7	-15552	-1120	-4664	-10	-7	13	128	119	8
-9964	-4160	11660	-10	16	-21	-16624	1304	-1224	-9	-2	14	-14960	3008	-5536	2	4	-3	-9472	3968	13320	15	-6	-21	-15960	-3096	-456	-23	3	-3	-15544	-1176	-4352	-5	-10	12	127	118	8
-9952	-4124	11672	-14	16	-26	-16472	1120	-1392	-1	0	11	-15048	2936	-5416	3	-1	0	-9456	4080	13216	18	-3	-23	-15816	-3136	-368	-14	4	-2	-15584	-1232	-4456	-7	-7	14	127	119	8
-9968	-4112	11780	-7	20	-24	-16608	1312	-1584	-5	4	10	-15072	2992	-5392	2	0	-5	-9360	4144	13032	14	0	-19	-15792	-3144	-440	-11	2	-3	-15464	-1184	-4424	-13	-5	16	127	119	8
-9956	-4176	11648	-9	17	-25	-16576	1320	-1400	-5	4	16	-14968	2992	-5576	7	-3	-5	-9528	3984	13048	13	-7	-21	-15704	-2888	-496	-11	4	-7	-15424	-1216	-4680	-17	-8	17	127	120	8
-10008	-4152	11632	-11	16	-22	-16608	1216	-1304	1	0	15	-15040	2888	-5280	8	0	-2	-9368	4040	12952	13	-2	-22	-15904	-3000	-584	-7	3	-7	-15576	-1184	-4480	-12	-17	11	127	120	8
-9936	-4172	11728	-12	15	-26	-16512	1256	-1352	6	2	15	-15008	2984	-5240	11	3	-3	-9464	3968	13136	14	-10	-17	-15784	-3112	-472	-5	5	-3	-15568	-1232	-4568	-7	-20	10	127	118	8
-9984	-4160	11676	-11	16	-27	-16600	1280	-1552	10	1	13	-15088	2936	-5416	16	3	2	-9600	4128	13056	12	-15	-19	-15976	-3160	-608	5	4	-7	-15584	-1272	-4528	0	-12	10	127	119	8
-9892	-4152	11692	-10	13	-23	-16496	1392	-1392	5	1	16	-15064	2976	-5408	18	2	-2	-9376	3992	13048	15	-7	-17	-15800	-3024	-216	-9	1	-5	-15400	-1336	-4504	2	-11	17	127	120	8
-9944	-4208	11672	-14	9	-28	-16560	1352	-1464	1	-1	16	-15008	3016	-5216	17	0	0	-9512	3936	13048	13	-8	-20	-15848	-3152	-480	-5	2	-12	-15568	-1080	-4584	7	-4	17	127	123	8
-10036	-4164	11816	-13	12	-24	-16680	1360	-1440	7	0	18	-15064	2976	-5472	18	-2	4	-9464	4072	13152	16	-7	-22	-15952	-3048	-448	15	-4	-6	-15392	-1096	-4736	9	1	18	127	119	8
-9960	-4140	11764	-11	16	-24	-16496	1208	-1544	4	1	15	-14904	2928	-5200	21	1	4	-9336	4104	13376	20	-4	-23	-15928	-2920	-536	17	-2	-8	-15440	-1160	-4744	10	-3	16	127	120	8
-9932	-4136	11712	-11	14	-30	-16552	1240	-1416	3	1	17	-15032	2928	-5536	18	8	0	-9456	4136	13080	14	-3	-25	-15912	-3024	-240	2	-5	-10	-15448	-1048	-4784	5	-6	13	127	120	8
-10020	-4144	11712	-13	15	-27	-16616	1352	-1192	7	5	15	-15048	2768	-5280	14	12	-1	-9560	4152	13048	16	-7	-21	-15792	-2976	-520	3	-9	-7	-15584	-1160	-4376	4	-2	10	127	121	8
-9964	-4140	11656	-8	16	-23	-16672	1272	-1016	8	4	23	-15064	2968	-5224	14	10	1	-9416	4144	13024	13	-4	-23	-15928	-3008	-464	11	-6	-12	-15512	-1264	-4680	1	1	12	127	120	8
-9976	-4140	11788	-7	13	-26	-16600	1232	-1256	3	-1	17	-15016	2928	-5352	18	9	5	-9352	4128	13272	17	-5	-18	-15864	-2960	-512	22	-5	-8	-15464	-1352	-4528	13	-3	16	127	118	8
-10032	-4188	11648	-8	11	-25	-16544	1528	-1280	-1	5	14	-15144	2952	-5312	19	7	4	-9376	4128	13224	13	-12	-21	-15968	-2976	-296	24	-1	-9	-15616	-1200	-4320	16	-5	18	127	119	8
-9984	-4160	11700	-11	15	-23	-16536	1448	-1328	4	6	17	-15104	2928	-5288	20	0	3	-9472	4056	12952	15	-2	-22	-15856	-3088	-312	20	-3	-4	-15552	-1080	-4168	8	-8	22	127	120	8
-10016	-4168	11708	-8	14	-22	-16688	1448	-1528	13	10	16	-15056	3000	-5536	23	0	7	-9576	3992	13208	15	-12	-22	-15720	-3224	-448	-11	1	-11	-15552	-1264	-4504	14	-5	21	127	120	8
-9984	-4164	11688	-6	13	-24	-16568	1400	-1512	17	7	17	-15240	2888	-5416	21	-1	12	-9488	3920	13056	16	-5	-24	-15768	-3160	-528	9	-1	-10	-15576	-1288	-4768	21	-2	21	127	118	8
-9960	-4084	11672	-7	16	-22	-16480	1336	-1288	13	7	19	-14984	2984	-5296	25	-3	9	-9424	3968	13120	20	-3	-27	-15896	-3120	-528	18	-2	-2	-15480	-1200	-4680	18	-7	21	127	120	8
-9904	-4152	11712	-9	17	-24	-16656	1192	-1432	17	15	14	-14944	2840	-5480	27	-5	6	-9392	4040	13160	17	-7	-23	-15952	-2904	-480	28	1	-10	-15608	-1176	-4792	10	-15	19	127	117	8
-9960	-4224	11732	-9	14	-31	-16536	1304	-1464	23	12	13	-14992	2896	-5400	25	0	9	-9416	4184	13064	17	-8	-22	-15712	-3096	-480	7	-5	-4	-15400	-1088	-4720	14	-16	19	128	121	8
-10012	-4116	11740	-6	13	-27	-16608	1280	-1288	22	11	19	-15048	2928	-5544	29	-11	4	-9432	4144	13072	12	-4	-22	-15784	-3120	-776	9	-2	-6	-15552	-1232	-4720	13	-19	17	127	120	8
-10008	-4180	11824	-9	14	-26	-16480	1576	-1528	18	4	15	-15112	3024	-5320	26	4	8	-9376	4120	12888	17	-5	-19	-15840	-3048	-272	20	-10	-6	-15496	-1224	-4440	17	-15	21	127	117	8
-9940	-4100	11800	-12	12	-24	-16656	1336	-1376	12	-1	13	-14880	2976	-5432	32	6	9	-9400	4048	13032	15	-1	-19	-15832	-2880	-552	4	-2	-3	-15488	-1152	-4408	10	-9	22	127	121	8
-9900	-4168	11728	-14	18	-25	-16608	1328	-1520	15	-1	13	-14840	2832	-5312	33	-5	4	-9280	4040	13040	17	-4	-22	-15880	-2976	-576	-25	-6	-1	-15536	-1184	-4480	-2	-13	21	127	119	8
-9944	-4100	11648	-12	13	-28	-16576	1256	-1416	20	-2	17	-15096	2968	-5568	30	1	11	-9432	4000	13200	14	-5	-25	-15904	-3048	-432	0	-6	-5	-15520	-1176	-4480	14	-9	19	127	119	8
-9940	-4128	11732	-9	16	-25	-16456	1312	-1384	23	-5	15	-14968	3096	-5600	36	4	11	-9392	4072	13120	15	-5	-24	-15848	-3064	-552	27	-6	-10	-15528	-1232	-4696	15	-13	16	127	119	8
-9968	-4148	11636	-11	13	-29	-16720	1376	-1512	23	-2	19	-15040	2976	-5416	32	5	6	-9480	4104	13120	20	-10	-26	-15840	-3008	-336	20	-1	-5	-15648	-1168	-4664	4	-21	18	128	120	8
-9964	-4220	11724	-16	10	-24	-16392	1344	-1160	17	-6	17	-15032	3160	-5160	31	6	5	-9312	3936	13256	17	-14	-21	-15832	-3080	-536	3	-3	-6	-15672	-1168	-4504	17	-26	18	127	117	8
-9960	-4152	11720	-11	9	-24	-16520	1352	-1464	22	-4	19	-15056	2944	-5536	25	5	4	-9304	4120	13392	13	-4	-21	-15928	-2960	-248	-5	-4	-5	-15448	-1200	-4488	19	-23	12	127	120	8
-9908	-4216	11752	-11	16	-22	-16568	1296	-1184	10	0	15	-15048	2928	-5432	24	5	4	-9376	4088	13008	19	-8	-21	-15800	-3168	-584	-5	-1	-2	-15608	-1120	-4304	10	-21	14	127	119	8
-9964	-4120	11744	-15	15	-20	-16496	1320	-1272	0	1	18	-15160	2888	-5416	21	1	2	-9456	3944	13008	17	-4	-22	-15944	-3080	-280	-7	1	-5	-15528	-1128	-4520	1	-16	16	127	119	8
-9988	-4160	11676	-9	15	-22	-16688	1320	-1336	3	1	12	-14960	3008	-5544	29	-6	6	-9472	4048	13392	18	-9	-18	-15976	-2960	-336	-19	1	-7	-15504	-1128	-4208	-7	-16	19	127	121	8
-9932	-4152	11640	-14	18	-25	-16536	1288	-1296	22	0	16	-14960	2896	-5352	28	-2	2	-9360	3992	13368	20	-7	-20	-15768	-3096	-456	-3	-1	-3	-15560	-1336	-4704	-3	-15	22	127	117	8
-9988	-4148	11696	-13	20	-26	-16528	1160	-1352	16	4	14	-15016	2904	-5352	27	0	4	-9456	4032	13216	15	-2	-17	-15880	-2936	-456	10	1	-3	-15648	-1160	-4360	-7	-11	20	127	120	8
-9900	-4128	11672	-12	12	-22	-16584	1280	-1320	17	-5	18	-14928	2888	-5320	31	-2	6	-9448	3976	13304	12	-5	-23	-15856	-2952	-352	-3	4	-4	-15512	-1208	-4472	-8	-12	19	127	121	8
-9952	-4180	11736	-14	15	-24	-16576	1240	-1368	18	-6	12	-14984	2896	-5584	29	-2	6	-9392	4048	13288	16	-12	-20	-15888	-3000	-336	-12	3	-1	-15464	-1152	-4528	-10	-13	19	127	120	8
-9936	-4140	11620	-14	17	-31	-16448	1168	-1360	16	0	15	-15056	2968	-5424	31	-1	6	-9456	4088	13112	15	-1	-23	-15696	-3032	-592	-11	1	-11	-15440	-1264	-4656	-4	-14	24	127	118	8
-9948	-4116	11672	-9	13	-31	-16512	1240	-1296	13	0	15	-14984	3064	-5536	30	1	4	-9408	3936	13480	17	-4	-23	-15800	-2960	-352	5	2	-7	-15480	-1152	-4608	3	-6	19	127	119	8
-9916	-4160	11732	-15	15	-23	-16520	1312	-1440	17	-3	10	-14992	3072	-5408	23	1	7	-9488	4040	13344	15	-9	-23	-15888	-3120	-336	-3	-1	-9	-15568	-1096	-4440	5	-8	19	127	121	8
-9996	-4156	11736	-10	12	-26	-16576	1432	-1384	21	4	13	-14952	3056	-5376	28	4	3	-9464	3992	13464	15	-5	-20	-15936	-3048	-576	-5	4	-8	-15536	-1160	-4504	-5	-21	14	127	121	8
-9936	-4176	11780	-17	12	-22	-16768	1320	-1464	16	-2	11	-14928	3104	-5456	26	1	3	-9304	4120	13040	13	-8	-24	-15744	-3032	-320	-9	-2	-4	-15672	-1320	-4344	-4	-21	19	127	121	8
-9948	-4132	11820	-9	12	-22	-16360	1464	-1704	6	-3	16	-14928	2824	-5456	21	6	1	-9424	4032	13272	11	-8	-24	-15792	-3016	-376	-8	1	-3	-15488	-1360	-4504	-2	-18	16	127	120	8
-9940	-4132	11652	-13	13	-20	-16576	1264	-1448	9	1	14	-15024	3016	-5216	22	9	1	-9280	4160	13128	18	-4	-19	-15928	-3240	-272	-4	3	-4	-15680	-1136	-4472	-4	-21	19	127	119	8
-9980	-4168	11672	-14	10	-20	-16592	1384	-1464	18	7	18	-15048	2952	-5496	21	1	3	-9472	3952	13232	15	-10	-23	-15896	-3040	-456	-1	6	-6	-15688	-1264	-4224	0	-24	18	128	120	8
-9940	-4156	11708	-10	20	-25	-16456	1424	-1328	17	-2	17	-14960	3064	-5512	27	-8	6	-9424	4112	13024	14	0	-21	-15816	-3120	-472	-3	7	-4	-15504	-1200	-4592	-4	-24	17	127	118	8
-10000	-4128	11808	-14	21	-21	-16608	1240	-1656	17	-2	11	-14960	2984	-5368	19	-6	2	-9552	3936	12952	22	-9	-20	-16008	-2832	-200	-22	7	-4	-15576	-1256	-4264	-3	-23	15	127	118	8
-10012	-4132	11772	-15	18	-22	-16472	1408	-1280	11	-1	15	-15040	2936	-5472	17	-2	1	-9544	4024	13152	18	-5	-23	-15920	-3056	-368	-51	10	-2	-15576	-1184	-4536	-12	-27	14	127	117	8
-9972	-4172	11636	-17	13	-21	-16568	1288	-1440	6	-8	13	-15008	3120	-5352	13	-6	3	-9480	3952	13080	16	-5	-17	-15728	-3280	-752	-32	15	-4	-15528	-1104	-4536	-9	-26	18	127	118	8
-9916	-4212	11768	-17	16	-21	-16600	1304	-1304	2	-4	10	-15032	3072	-5512	10	-1	-3	-9952	4248	13472	15	-5	-15	-15744	-3144	-552	4	22	-2	-15528	-1240	-4264	-3	-44	13	128	119	8
-9972	-4144	11716	-21	16	-19	-16656	1328	-1592	10	-9	13	-15016	2936	-5624	13	-1	-5	-9704	4368	12920	18	-15	-16	-15888	-2760	-584	-7	26	-2	-15624	-1304	-4312	17	-45	11	127	121	8
-10012	-4064	11736	-22	16	-22	-16728	1136	-1464	34	-4	18	-14984	2864	-5424	11	-3	-1	-9448	3920	13152	10	-4	-20	-15984	-3008	-760	-10	26	-6	-15496	-944	-4360	27	-34	19	127	120	8
-10000	-4108	11652	-17	18	-24	-16472	1280	-1584	18	-3	13	-15064	3000	-5480	13	-2	-3	-9272	3976	13168	17	-9	-25	-15896	-2984	-696	5	27	-12	-15616	-1176	-4680	20	-33	23	127	118	8
-9992	-4164	11756	-13	15	-23	-16640	1384	-1520	-8	-9	15	-14976	3144	-5456	5	1	-9	-9552	4056	13192	13	-5	-20	-15880	-3016	-656	20	23	-13	-15448	-1272	-4472	37	-26	16	127	120	8
-9924	-4148	11684	-16	18	-21	-16736	1248	-1352	-11	-16	7	-14968	3072	-5488	-10	5	-10	-9560	4184	13120	19	-3	-22	-16024	-3096	-544	24	25	-14	-15544	-1064	-4432	33	-25	13	127	118	8
-9948	-4148	11740	-14	17	-24	-16488	1496	-1424	-12	-15	9	-15032	2968	-5368	-17	-4	-17	-9480	4016	13392	14	-7	-18	-15936	-3080	-752	19	17	-10	-15384	-976	-4976	15	-20	9	127	120	8
-9928	-4140	11648	-13	19	-25	-16448	1288	-1328	-16	-13	9	-15040	3024	-5320	-20	1	-17	-9576	3936	12904	10	-8	-20	-15704	-3008	-440	6	10	-18	-15432	-1016	-4808	-3	-23	2	127	121	8
-9968	-4116	11704	-19	16	-26	-16696	1392	-1168	-19	-12	8	-15136	3016	-5592	-17	-1	-18	-9456	4000	13192	12	-5	-18	-15832	-3000	-760	-11	0	-12	-15440	-1096	-4920	-22	-24	1	127	120	8
-9988	-4104	11656	-13	11	-31	-16568	1248	-1448	-11	-13	2	-15056	2920	-5248	-14	13	-23	-9560	4056	13184	11	0	-20	-15928	-3096	-600	-9	3	-18	-15536	-1224	-4488	-41	-19	3	127	118	8
-10008	-4156	11736	-18	13	-25	-16464	1208	-1320	-7	-17	5	-15008	3000	-5480	-8	8	-20	-9456	4040	13080	11	-6	-12	-15904	-3040	-784	-8	0	-16	-15512	-1352	-4648	-36	-15	0	127	118	8
-9984	-4208	11648	-19	14	-27	-16760	1320	-1432	-3	-10	3	-14976	2888	-5544	-4	4	-19	-9368	4176	13072	9	-9	-18	-15880	-3064	-584	-7	0	-14	-15472	-1408	-4664	-29	-17	1	127	119	8
-9948	-4152	11800	-16	15	-29	-16608	1208	-1416	5	-9	7	-15040	2896	-5520	8	0	-19	-9536	3992	13400	8	-8	-16	-15968	-2976	-552	1	-11	-11	-15552	-1120	-4376	-32	-16	0	127	120	8
-9948	-4152	11680	-11	12	-23	-16528	1304	-1496	4	-11	7	-14936	2952	-5480	16	5	-18	-9264	4072	13376	8	-7	-21	-15904	-3192	-680	16	-3	-17	-15568	-1272	-4568	-27	-23	7	127	120	8
-10016	-4140	11724	-17	15	-29	-16504	1312	-1384	-1	-14	3	-15144	3072	-5592	5	3	-14	-9600	4016	13232	6	-9	-17	-15984	-3104	-776	22	-12	-16	-15480	-1256	-4632	-20	-21	3	127	121	8
-9932	-4160	11756	-12	15	-27	-16600	1264	-1336	-5	-12	6	-15024	2784	-5648	0	4	-15	-9368	4064	13176	7	-10	-19	-15808	-3288	-680	40	-8	-15	-15528	-1376	-4408	-12	-17	0	127	121	8
-9916	-4196	11672	-10	18	-28	-16528	1304	-1200	-15	-12	4	-15088	2904	-5240	0	-3	-14	-9472	4040	13200	10	-9	-18	-15840	-3200	-416	38	0	-16	-15376	-1304	-4408	-16	-24	3	127	118	8
-9976	-4148	11740	-15	16	-25	-16656	1328	-1320	-9	-13	1	-15040	2896	-5360	-4	0	-15	-9536	3936	12896	15	-10	-20	-15928	-3024	-624	22	-4	-17	-15488	-1232	-4568	-21	-9	5	127	120	8
-9996	-4176	11688	-15	15	-22	-16600	1280	-1472	-3	-17	3	-14856	2928	-5352	3	-3	-13	-9416	4112	13120	14	-7	-18	-15936	-3032	-520	-13	-10	-12	-15472	-1216	-4600	-36	-10	9	127	119	8
-9952	-4148	11660	-14	11	-28	-16632	1280	-1416	-3	-9	9	-15088	2976	-5200	2	-2	-15	-9408	4064	13280	13	-7	-17	-15648	-3136	-448	-42	-16	-10	-15496	-1264	-4400	-41	-20	6	127	119	8
-9996	-4212	11720	-15	13	-28	-16616	1232	-1536	2	-11	7	-14960	3088	-5256	5	4	-12	-9456	3872	13192	9	-10	-14	-15880	-3280	-440	-12	-12	-10	-15464	-1368	-4416	-31	-12	-3	127	119	8
-9972	-4208	11716	-17	12	-28	-16592	1304	-1344	-6	-10	3	-15096	2792	-5336	-1	-2	-14	-9320	4000	13136	13	-11	-18	-15792	-3112	-424	2	-12	-6	-15488	-1368	-4136	-21	-10	-2	127	121	8
-9932	-4180	11724	-19	13	-27	-16592	1216	-1488	2	-14	8	-15096	2928	-5480	1	-4	-15	-9400	4160	13392	21	-13	-16	-15864	-3088	-496	-13	-6	-8	-15656	-1128	-4208	-35	-9	3	127	121	8
-9940	-4240	11740	-13	15	-29	-16544	1256	-1432	1	-13	10	-15048	2776	-5528	-2	1	-19	-9368	4200	13240	12	-11	-16	-15848	-3064	-472	-45	-3	-11	-15432	-1272	-4248	-35	-11	3	127	120	8
-10008	-4236	11688	-12	12	-27	-16408	1208	-1400	-3	-14	9	-14912	2936	-5576	-2	-7	-14	-9328	3912	13240	16	-8	-19	-15880	-3144	-456	-31	-6	-11	-15544	-1328	-4376	-28	-13	9	127	122	8
-9948	-4112	11672	-7	18	-27	-16496	1272	-1200	-14	-14	8	-15008	2848	-5584	-14	-11	-13	-9424	3928	13360	12	-6	-20	-15752	-3184	-344	-15	-3	-8	-15472	-1448	-4632	-17	-11	4	127	119	8
-9980	-4116	11700	-10	15	-26	-16616	1344	-1672	-23	-15	11	-15152	2872	-5568	-19	-13	-16	-9456	4128	13016	15	-6	-21	-15840	-3088	-904	-6	-2	-6	-15408	-1280	-4416	-8	-14	8	127	121	8
-9964	-4184	11792	-16	15	-26	-16528	1224	-1456	-17	-17	15	-14976	2768	-5432	-19	-15	-17	-9360	4112	13264	18	2	-21	-15856	-3136	-672	0	0	-7	-15464	-1312	-4552	-20	-12	11	127	122	8
-9904	-4212	11676	-11	15	-29	-16616	1216	-1344	-17	-19	7	-15056	3000	-5696	-10	-10	-17	-9336	4016	13384	17	-9	-21	-15944	-3080	-416	-11	-3	-6	-15544	-1168	-4760	-25	-11	8	127	121	8
-9920	-4080	11704	-14	13	-25	-16416	1352	-1128	-18	-16	9	-14968	2776	-5288	-11	-7	-13	-9432	4104	13288	13	-5	-20	-15800	-3096	-736	-10	-4	-6	-15496	-1280	-4432	-27	-15	8	127	120	8
-9932	-4156	11632	-16	14	-24	-16544	1256	-1272	-6	-20	19	-14952	2976	-5352	-10	1	-9	-9448	4104	13088	13	-8	-15	-15760	-3224	-688	-9	-1	-9	-15488	-1448	-4624	-16	-8	6	127	123	8
-9972	-4172	11716	-14	18	-26	-16624	1160	-1376	0	-20	15	-14936	2784	-5360	-5	0	-10	-9512	4072	13080	15	-5	-15	-15800	-3232	-376	0	-7	-12	-15480	-1296	-4328	-13	-9	6	127	121	8
-9932	-4156	11656	-12	11	-23	-16552	1256	-1288	-14	-20	15	-15024	2944	-5576	-2	2	-11	-9560	4016	13168	14	-5	-21	-15896	-3072	-624	11	-3	-6	-15392	-1192	-4624	-11	-5	9	127	122	8
-9968	-4292	11716	-16	11	-25	-16464	1280	-1200	-7	-23	18	-14912	2904	-5320	-6	2	-13	-9496	3944	13048	15	-5	-17	-16000	-3016	-656	10	-6	-8	-15512	-1256	-4408	-19	-4	11	127	122	8
-9984	-4248	11592	-14	15	-24	-16496	1344	-1328	-14	-18	15	-15072	2880	-5200	-7	-2	-9	-9328	4032	13312	15	-9	-24	-15880	-3112	-648	-21	-11	-5	-15544	-1240	-4280	-23	-9	6	127	119	8
-9932	-4188	11780	-16	16	-26	-16704	1288	-1288	8	-23	20	-14912	3104	-5720	1	5	-9	-9296	4176	13320	18	-6	-20	-15728	-3248	-720	-23	-5	-1	-15552	-1392	-4760	-21	-13	5	127	120	8
-9976	-4216	11700	-18	18	-26	-16608	1312	-1104	3	-20	13	-15072	2888	-5048	0	-4	-8	-9376	3992	13376	18	-6	-19	-15704	-3080	-504	-15	-2	1	-15472	-1464	-4552	-24	-12	8	127	122	8
-9896	-4156	11796	-11	19	-31	-16528	1288	-1256	-8	-21	19	-15176	2856	-5136	-8	-2	-14	-9512	4032	13240	18	-3	-18	-15792	-3112	-656	-2	-4	-4	-15464	-1176	-4560	-25	-8	6	127	120	8
-9956	-4200	11732	-16	19	-26	-16464	1200	-1144	-10	-22	14	-15096	2912	-5576	-4	-2	-10	-9448	4144	13072	12	-3	-19	-15952	-2808	-448	-13	-3	-6	-15464	-1184	-4512	-40	-5	11	127	119	8
-9944	-4232	11656	-15	20	-28	-16560	1280	-1160	-7	-24	15	-15048	2872	-5360	-6	-3	-12	-9312	3944	13208	17	-7	-21	-15688	-3248	-616	-57	-11	-8	-15504	-1216	-4768	-42	-3	7	127	121	8
-9964	-4216	11768	-11	15	-25	-16632	1432	-1160	-8	-19	16	-15032	2880	-5296	5	-1	-11	-9352	3896	13168	14	-4	-20	-15792	-3224	-520	-48	-6	-2	-15392	-1288	-4344	-37	-8	-6	127	120	8
-9996	-4244	11636	-16	14	-28	-16632	1176	-1256	3	-16	12	-15200	2952	-5544	9	-6	-10	-9392	4072	13200	17	-8	-22	-15776	-2960	-448	-36	-2	-2	-15448	-1376	-4216	-31	-10	-6	127	119	8
-9892	-4176	11692	-15	17	-23	-16608	1304	-1160	13	-14	14	-15152	2912	-5352	8	-9	-6	-9488	4024	13128	17	0	-24	-15704	-3024	-704	-45	-4	-4	-15512	-1232	-4344	-40	-13	7	127	120	8
-9964	-4240	11656	-13	17	-25	-16656	1280	-1248	20	-6	16	-15088	2872	-5112	9	0	-10	-9392	3944	13112	19	-3	-20	-15936	-3144	-592	-59	1	-2	-15488	-1488	-4248	-42	-6	10	127	121	8
-10024	-4204	11640	-13	19	-22	-16544	1376	-1144	16	-7	16	-15104	2816	-5304	9	-3	-9	-9368	4088	13112	20	-4	-17	-15720	-3336	-240	-42	-5	-5	-15568	-1272	-4472	-25	-8	7	127	120	8
-9916	-4220	11772	-15	20	-28	-16680	1288	-1344	2	-11	16	-15136	2904	-5168	9	-5	-7	-9320	4056	13128	19	1	-19	-15768	-2936	-368	-22	4	3	-15544	-1160	-4352	-15	-11	9	127	121	8
-9876	-4188	11740	-21	18	-22	-16560	1224	-1128	10	-1	15	-15096	2816	-5032	7	-1	-5	-9544	3928	12848	17	-3	-28	-15752	-3088	-392	-56	6	3	-15672	-1216	-4256	-19	-18	10	127	119	8
-9912	-4212	11640	-14	20	-21	-16488	1232	-1456	15	-1	15	-15088	2712	-5344	5	-6	-5	-9512	3976	13208	13	-13	-26	-15800	-3032	-304	-54	13	-2	-15640	-1264	-4528	-29	-18	8	127	121	8
-9948	-4212	11652	-15	18	-22	-16576	1400	-1440	14	5	19	-15184	2936	-5200	8	-7	-3	-9400	4000	13016	15	-2	-24	-15832	-3040	-576	-48	15	2	-15344	-1344	-4328	-20	-11	5	127	122	8
-9968	-4252	11736	-12	15	-22	-16560	1352	-1392	5	3	16	-15064	2840	-5296	7	-2	-2	-9480	3992	13112	16	-10	-22	-15832	-3200	-352	-20	16	-2	-15480	-1272	-4448	-16	-8	9	127	122	8
-9924	-4232	11700	-14	15	-18	-16568	1296	-1304	1	5	17	-15152	2896	-5192	0	7	0	-9168	3968	12992	14	-9	-23	-15776	-2880	-504	-2	19	1	-15488	-1312	-4696	-12	-9	12	127	121	8
-9956	-4288	11696	-13	19	-21	-16464	1376	-1280	16	2	19	-15088	2872	-5360	5	0	-3	-9312	3976	13096	11	-8	-28	-15832	-3152	-432	-16	17	1	-15512	-1328	-4512	-7	-11	12	127	119	8
-9948	-4172	11864	-16	21	-16	-16688	1464	-1376	14	10	25	-15112	2976	-5432	5	-4	-5	-9416	4048	13416	15	-7	-27	-15776	-2976	-648	-15	21	-6	-15384	-1368	-4568	3	-9	13	127	121	8
-9952	-4164	11652	-20	17	-22	-16488	1344	-1168	37	10	20	-15136	2912	-5200	-3	-8	-3	-9544	4096	13240	16	-5	-24	-15912	-2936	-568	12	26	-7	-15320	-1232	-4592	15	-8	15	127	121	8
-9964	-4292	11648	-21	18	-23	-16688	1472	-1464	36	5	22	-15144	3008	-5408	-5	3	-5	-9440	3976	13008	15	-5	-25	-15816	-3056	-648	18	19	-4	-15472	-1360	-4624	13	-5	12	127	119	8
-10016	-4140	11684	-23	21	-22	-16568	1272	-1544	42	3	19	-15072	2880	-5312	-4	-5	-8	-9560	3976	13072	17	-9	-26	-15752	-3000	-632	21	13	-9	-15576	-1336	-4792	22	-3	11	127	118	8
-9948	-4172	11668	-22	20	-24	-16472	1296	-1448	33	3	19	-15016	3016	-5656	-2	3	-10	-9440	4112	13200	14	-7	-26	-15768	-3056	-904	27	6	-12	-15336	-1328	-4608	18	0	10	127	122	8
-9900	-4176	11684	-23	24	-19	-16744	1360	-1248	8	-3	13	-14976	2896	-5512	-15	-2	-11	-9464	4048	12904	14	-4	-26	-15960	-3088	-624	28	4	-8	-15424	-1240	-4624	15	-3	8	127	121	8
-9916	-4204	11732	-16	23	-20	-16592	1312	-1304	9	-3	13	-14960	2792	-5392	-19	1	-12	-9488	3984	13128	14	-2	-25	-15832	-3008	-704	28	-1	-10	-15472	-1184	-4664	11	0	2	127	118	8
-10008	-4288	11640	-19	26	-22	-16568	1312	-1488	31	-4	18	-15144	2768	-5592	-15	0	-10	-9552	4024	13032	12	-10	-25	-15832	-3120	-704	18	1	-15	-15488	-1240	-4536	-3	-9	1	127	121	8
-9952	-4192	11652	-17	21	-25	-16424	1624	-1416	18	-6	16	-15104	2768	-5464	-1	-1	-8	-9472	4064	13032	17	-8	-20	-15824	-3064	-688	13	-4	-12	-15488	-1240	-4536	-22	-7	1	128	118	8
-10080	-4264	11680	-19	20	-27	-16528	1112	-1584	5	-14	13	-14944	2896	-5568	-3	7	-14	-9336	3968	13216	12	-7	-19	-15896	-3144	-512	-8	-13	-9	-15480	-1408	-4328	-34	1	1	127	120	8
-9976	-4232	11672	-16	17	-30	-16512	1144	-1392	10	-17	12	-14944	2808	-5488	-4	8	-18	-9344	3904	13112	12	-6	-16	-15904	-3192	-656	-2	-5	-14	-15504	-1560	-4448	-25	4	-5	127	121	8
-10064	-4180	11672	-18	15	-30	-16464	1192	-1240	5	-19	10	-15224	2832	-5320	-10	0	-16	-9488	3960	12968	18	-3	-17	-15856	-3152	-656	21	0	-10	-15552	-1296	-4464	-20	1	-3	127	122	8
-10024	-4276	11632	-13	14	-31	-16520	1400	-1296	-4	-19	17	-15152	2792	-5352	-2	3	-11	-9216	3912	13024	15	-9	-13	-15824	-3104	-632	20	0	-10	-15464	-1304	-4520	-14	-5	7	127	118	8
-9996	-4264	11660	-15	12	-24	-16488	1208	-1576	-12	-16	17	-15112	2792	-5320	-6	-8	-12	-9448	4128	13168	11	-10	-17	-16024	-3120	-664	20	-2	-14	-15520	-1176	-4720	-10	4	7	127	121	8
-9928	-4220	11688	-8	13	-26	-16592	1272	-1056	-23	-23	8	-14992	2736	-5632	-14	-3	-12	-9360	3984	13216	13	-11	-21	-15968	-3104	-768	14	-8	-7	-15544	-1312	-4488	-17	4	4	127	121	8
-10044	-4192	11612	-11	14	-27	-16528	1232	-1240	-16	-18	7	-15072	2944	-5256	-20	-10	-15	-9560	4024	13152	9	-4	-18	-15704	-3288	-664	-5	-10	-12	-15600	-1304	-4752	-28	-6	7	127	118	8
-9984	-4216	11676	-12	19	-22	-16544	1272	-1240	-19	-11	14	-15040	2928	-5392	-31	-13	-24	-9528	3912	13120	13	-7	-19	-15768	-3024	-968	-20	-2	-14	-15376	-1232	-4480	-39	-7	-2	127	121	8
-9976	-4172	11600	-13	11	-25	-16520	1176	-1160	-37	-15	12	-14976	2912	-5336	-38	-11	-27	-9512	3944	12920	8	-9	-21	-15944	-3088	-656	-37	-4	-5	-15416	-1304	-4464	-58	-8	1	128	118	8
-9980	-4252	11708	-6	13	-27	-16448	1280	-1464	-30	-11	9	-15144	2824	-5184	-41	-12	-25	-9408	4088	13200	13	-13	-18	-15776	-3112	-720	-26	2	-12	-15552	-1456	-4512	-45	-9	-1	127	118	8
-9952	-4212	11652	-4	10	-19	-16560	1424	-1224	-35	-15	10	-15104	2896	-5592	-43	-15	-30	-9464	4024	13152	16	1	-17	-15864	-3064	-776	-9	0	-2	-15512	-1152	-4712	-49	-12	-4	127	120	8
-9964	-4232	11656	-12	15	-25	-16552	1240	-1240	-24	-7	15	-15032	2888	-5608	-30	-20	-24	-9368	3976	13008	14	-5	-18	-15864	-3080	-320	-21	-3	-4	-15496	-1144	-4256	-61	-4	6	128	120	8
-9992	-4316	11652	-11	14	-25	-16648	1144	-1000	-27	-15	7	-15120	2720	-5144	-25	-16	-23	-9552	3912	13232	12	-11	-21	-15768	-3192	-600	-21	-1	-3	-15760	-1152	-4488	-55	-2	-2	128	121	8
-9972	-4192	11588	-12	15	-28	-16672	1152	-1280	-29	-15	10	-14928	2752	-5352	-24	-21	-16	-9400	3832	13368	14	-8	-17	-15920	-3080	-656	-23	-2	-5	-15456	-1256	-4640	-46	-4	-1	128	121	8
-9984	-4284	11772	-14	10	-26	-16712	1136	-1136	-29	-17	17	-15072	2872	-5592	-26	-16	-17	-9352	3904	13392	7	-8	-24	-15848	-2888	-376	-20	-5	-7	-15352	-1288	-4776	-51	-6	-5	127	119	8
-10024	-4208	11656	-13	12	-24	-16544	1304	-1424	-30	-26	12	-15080	2912	-5376	-30	-12	-22	-9408	3944	13368	8	-6	-24	-15784	-3000	-816	-19	-4	-5	-15368	-1408	-4560	-51	-8	-2	127	119	8
-9980	-4220	11780	-8	13	-27	-16560	1248	-1344	-42	-29	17	-15056	2840	-5024	-35	-9	-24	-9408	4000	12976	10	-14	-20	-15800	-3040	-840	-42	-9	-5	-15400	-1336	-4536	-55	-7	-2	127	120	8
-9956	-4104	11628	-7	9	-24	-16544	1232	-1264	-55	-31	12	-14976	2896	-5448	-43	-7	-25	-9352	3952	13432	14	-13	-12	-15864	-3016	-808	-24	-6	-14	-15456	-1632	-4608	-53	-3	-1	127	119	8
-9992	-4132	11672	-5	10	-29	-16584	1320	-1040	-54	-37	16	-15096	2928	-5248	-53	-6	-27	-9496	3960	13232	9	-9	-14	-15840	-2960	-920	-1	-16	-10	-15224	-1472	-4552	-42	-6	-8	127	121	8
-9932	-4296	11624	-8	12	-29	-16528	1272	-1296	-65	-34	18	-15016	2832	-5432	-57	-1	-30	-9472	4104	13392	13	-11	-20	-15888	-3024	-496	1	-13	-8	-15408	-1408	-4672	-45	-2	3	127	120	8
-9968	-4148	11716	-5	11	-26	-16488	1240	-1304	-68	-37	14	-14976	2856	-5168	-65	-7	-28	-9416	3912	13248	11	-17	-16	-15800	-2944	-544	7	-10	-8	-15304	-1320	-4640	-38	-2	0	127	119	8
-9984	-4328	11700	-4	11	-30	-16584	1248	-1496	-64	-35	13	-14960	2864	-5224	-69	-7	-32	-9472	3832	13344	9	-18	-12	-15928	-2848	-696	1	-15	-8	-15568	-1432	-4512	-36	-10	1	127	121	8
-10016	-4196	11740	-7	11	-31	-16616	1232	-1080	-60	-39	17	-15152	2792	-5240	-68	-9	-32	-9376	4072	13088	9	-12	-17	-15792	-3064	-528	-6	-15	-14	-15528	-1360	-4680	-39	-7	1	127	118	8
-9968	-4148	11672	-6	11	-32	-16688	1224	-1192	-64	-34	23	-15056	2760	-5392	-69	-4	-33	-9424	4000	13248	11	-9	-18	-15768	-3120	-760	-3	-18	-11	-15352	-1184	-4504	-50	-21	-3	127	122	8
-9960	-4260	11656	-5	12	-31	-16480	1264	-1160	-56	-36	19	-15192	2840	-5056	-63	2	-37	-9400	3992	13216	6	-15	-19	-15776	-3112	-504	8	-6	-11	-15488	-1416	-4600	-32	-11	-6	127	120	8
-9900	-4152	11712	0	8	-32	-16584	1360	-1088	-58	-39	12	-15048	2824	-5144	-61	-1	-30	-9512	4256	13040	15	-14	-21	-15832	-3160	-808	-17	-12	-5	-15400	-1344	-4528	-48	1	-2	127	121	8
-9840	-4188	11728	-6	21	-28	-16648	1304	-1032	-71	-36	13	-15192	2896	-5296	-61	-4	-30	-9448	3888	13160	11	-7	-16	-15848	-3136	-672	-7	-10	-9	-15456	-1264	-4656	-51	-1	-2	127	117	8
-9848	-4216	11708	-7	16	-27	-16688	1344	-872	-65	-37	10	-15136	2864	-5112	-53	-10	-29	-9424	4024	13472	10	-9	-21	-15800	-3168	-616	-24	-15	-9	-15440	-1312	-4640	-51	-4	-9	127	120	8
-9984	-4040	11716	-11	16	-26	-16536	1248	-944	-49	-33	7	-15184	2744	-5240	-45	-9	-26	-9464	3904	13200	12	-4	-19	-15808	-3072	-432	-21	-7	-5	-15520	-1256	-4816	-57	-10	0	127	119	8
-9952	-4116	11648	-17	16	-31	-16616	1400	-1280	-19	-36	17	-15120	2888	-5160	-31	-9	-22	-9408	4032	13192	11	-8	-12	-15976	-3064	-592	-32	-5	-3	-15592	-1200	-4608	-66	-15	-4	127	120	8
-9976	-4128	11676	-11	13	-34	-16528	1296	-984	-19	-30	15	-15176	2776	-5216	-22	-5	-23	-9416	3976	13232	10	-2	-22	-15864	-3176	-552	-41	-5	-3	-15448	-1440	-4640	-70	-10	-10	127	121	8
-9948	-4168	11780	-14	16	-30	-16480	1280	-784	-17	-27	12	-15296	3016	-5320	-17	-3	-17	-9424	3896	13000	8	-6	-24	-15784	-3192	-536	-33	-5	-2	-15536	-1616	-4520	-55	-11	-10	127	120	8
-9908	-4276	11728	-15	11	-28	-16608	1136	-1112	-13	-24	17	-15336	2856	-5136	-18	-4	-25	-9456	3864	13376	8	-6	-21	-15792	-3136	-648	-30	-1	-7	-15568	-1352	-4680	-48	-13	-5	127	120	8
-9932	-4332	11644	-12	19	-25	-16536	1400	-1136	-17	-21	12	-15216	2768	-4728	-21	-16	-22	-9400	4064	13352	9	-6	-23	-15944	-3160	-576	-37	2	-6	-15416	-1440	-4480	-49	-9	4	127	118	8
-9948	-4208	11632	-14	13	-28	-16584	1360	-912	-39	-17	9	-15240	2680	-5104	-32	-13	-20	-9392	4000	13056	9	-6	-19	-15776	-3056	-936	-34	3	-8	-15368	-1240	-4864	-42	-15	1	127	121	8
-9888	-4316	11704	-15	13	-25	-16776	1424	-784	-25	-16	16	-15256	2848	-5112	-34	-18	-20	-9536	3856	13208	9	-3	-24	-15816	-3200	-912	-10	-3	-5	-15456	-1392	-4888	-39	-20	3	127	120	8
-9900	-4284	11692	-13	14	-25	-16584	1304	-752	-22	-12	15	-15216	2736	-4952	-33	-15	-21	-9488	3992	13192	13	-3	-25	-15760	-3104	-728	-13	1	-11	-15464	-1400	-4712	-28	-11	2	127	121	8
-9948	-4156	11676	-16	15	-23	-16624	1264	-1000	-9	-12	17	-15240	2576	-5064	-32	-13	-20	-9512	4048	13264	5	-5	-21	-15824	-3224	-600	-20	1	-5	-15568	-1360	-4792	-38	-11	4	128	121	8
-9896	-4252	11696	-11	13	-22	-16536	1424	-976	-19	-9	10	-15096	2624	-5120	-24	-19	-17	-9392	3864	12968	12	-10	-23	-15800	-3160	-584	-23	-2	-4	-15400	-1400	-4736	-41	-12	6	127	121	8
-9956	-4232	11768	-15	15	-25	-16624	1280	-1208	-10	-13	11	-15208	2808	-5248	-10	-13	-14	-9488	4040	13328	16	-9	-23	-15792	-3280	-984	-33	-7	-6	-15472	-1512	-4832	-41	-15	3	127	118	8
-9960	-4184	11736	-13	15	-26	-16552	1304	-872	-1	-7	14	-15224	2760	-4816	1	-14	-7	-9344	4016	13112	14	-3	-22	-15728	-3088	-664	-34	-1	-4	-15400	-1480	-4688	-43	-20	4	128	119	8
-10000	-4240	11680	-16	15	-30	-16616	1208	-1072	20	-2	12	-15192	2776	-4992	13	-13	-5	-9480	3888	13112	10	-5	-15	-15712	-3152	-632	-28	1	-6	-15344	-1296	-4504	-45	-11	5	127	117	8
-9976	-4240	11672	-22	14	-26	-16536	1232	-1184	34	-4	20	-15152	2584	-5120	21	-10	-2	-9480	3904	13240	16	-7	-24	-15728	-3000	-896	-28	-3	0	-15384	-1360	-4720	-34	-6	5	127	119	8
-10000	-4184	11644	-12	16	-22	-16472	1288	-1208	35	-3	24	-15184	2712	-5016	24	-5	3	-9480	4088	13168	9	-9	-22	-15688	-3088	-480	-21	1	-5	-15352	-1392	-4688	-29	-3	8	127	119	8
-9936	-4236	11684	-13	20	-27	-16584	1280	-1104	12	-4	18	-15160	2728	-4944	13	-9	-1	-9488	4032	13064	10	-7	-24	-15824	-3016	-504	-14	1	-4	-15480	-1376	-4360	-29	-5	13	127	121	8
-9972	-4252	11656	-9	13	-23	-16752	1144	-1208	3	-8	21	-15176	2656	-5120	0	-2	-3	-9320	3976	13248	12	-12	-19	-15832	-3016	-680	-4	5	-4	-15448	-1560	-4632	-17	-6	7	127	118	8
-9960	-4276	11680	-12	15	-25	-16488	1400	-1008	-3	-8	21	-15232	2928	-5080	-1	-6	-5	-9392	4016	13208	16	-10	-22	-15792	-3208	-704	-1	5	-3	-15400	-1568	-4544	-4	5	9	127	122	8
-9936	-4408	11676	-13	10	-19	-16544	1352	-912	-17	-6	22	-15280	2936	-4992	-12	-3	-9	-9456	3888	13200	17	-5	-21	-15808	-3216	-568	14	9	0	-15584	-1472	-4568	-1	-3	12	127	121	8
-9896	-4212	11628	-13	14	-21	-16616	1400	-1064	-29	-2	25	-15248	2864	-4872	-18	-2	-9	-9400	3976	13168	13	-9	-19	-15920	-3072	-376	8	16	1	-15496	-1392	-4424	7	-3	17	127	118	8
-9952	-4272	11660	-14	12	-16	-16624	1352	-1056	-14	-5	23	-15248	2864	-5016	-32	-6	-7	-9328	4000	13248	14	-6	-25	-15888	-3264	-744	-6	16	-2	-15400	-1368	-4592	0	5	22	127	122	8
-10052	-4312	11692	-18	15	-24	-16560	1176	-952	-4	-8	25	-15280	2808	-5024	-20	-11	-8	-9424	3856	13080	16	-4	-20	-15928	-3176	-696	-12	15	-1	-15376	-1336	-4624	-1	5	8	127	119	8
-9924	-4264	11720	-18	16	-19	-16496	1312	-1032	22	0	24	-15184	2784	-4872	-13	-14	-13	-9512	3952	13304	18	-4	-23	-15832	-3024	-760	-12	14	0	-15440	-1416	-4872	3	15	13	128	120	8
-9956	-4232	11760	-8	15	-21	-16640	1544	-1072	12	3	30	-15352	2768	-5080	-15	-8	-10	-9456	4096	13248	19	-8	-16	-15880	-3136	-808	8	20	-1	-15472	-1240	-4928	-5	-2	9	127	118	8
-9944	-4168	11664	-9	19	-19	-16520	1336	-1056	-20	8	22	-15096	2832	-4880	-24	-13	-9	-9416	3992	13088	20	-7	-22	-15840	-2952	-624	4	19	6	-15392	-1328	-4880	-13	2	9	128	119	8
-9952	-4276	11712	-6	18	-20	-16568	1248	-1104	-20	6	18	-15192	2824	-4992	-30	-14	-9	-9352	3976	13192	15	-5	-25	-15784	-3112	-696	-7	12	0	-15392	-1312	-4712	-19	0	6	127	121	8
-9852	-4300	11756	-13	17	-16	-16608	1280	-1264	-18	11	21	-15056	2776	-5008	-33	-11	-13	-9280	3808	13136	13	-7	-19	-15792	-3184	-504	-15	20	1	-15352	-1352	-4896	-17	4	7	127	121	8
-9936	-4176	11636	-7	14	-17	-16584	1320	-1168	-17	5	22	-15048	2880	-5280	-36	-15	-15	-9624	3928	13272	17	-11	-16	-15744	-3024	-904	-23	16	3	-15400	-1520	-4640	-27	-2	4	127	119	8
-9964	-4200	11760	-6	16	-20	-16736	1480	-1080	-34	0	21	-15136	2816	-5256	-44	-10	-12	-9496	3960	13216	20	-6	-20	-15800	-2968	-872	-7	24	4	-15480	-1416	-4792	-15	1	2	127	121	8
-9912	-4200	11700	-12	15	-22	-16648	1328	-1048	-30	-6	23	-15160	2856	-5216	-38	-10	-11	-9560	3976	13008	17	-8	-21	-15888	-3160	-672	-5	20	2	-15384	-1272	-4656	-12	-4	7	127	120	8
-9864	-4236	11672	-20	12	-23	-16512	1304	-920	-26	-7	24	-15256	2840	-5104	-36	-13	-12	-9480	3952	13152	14	-3	-27	-15776	-3024	-664	-9	20	3	-15400	-1136	-4704	-8	2	9	127	121	8
-9916	-4228	11732	-11	17	-22	-16504	1256	-1248	-4	-5	27	-15176	2752	-5400	-25	-8	-15	-9456	3896	13312	16	-6	-25	-15696	-3040	-840	-24	22	0	-15400	-1352	-4704	-27	3	9	127	119	8
-9968	-4172	11712	-9	15	-23	-16480	1576	-1008	-8	-3	21	-15160	2904	-4944	-27	-16	-11	-9512	4064	13264	19	-7	-20	-15760	-3120	-672	-32	22	0	-15336	-1352	-4760	-32	0	8	127	121	8
-10020	-4236	11540	-12	15	-21	-16544	1576	-976	-28	-4	22	-15168	2784	-4944	-29	-17	-14	-9360	4032	13000	12	-8	-16	-15824	-3040	-832	-34	25	1	-15512	-1312	-4760	-31	-6	1	127	121	8
-9944	-4200	11648	-7	13	-19	-16768	1392	-1056	-34	-4	17	-15200	2880	-5464	-34	-10	-17	-9472	4064	13232	13	-9	-21	-16056	-3048	-496	-28	29	2	-15200	-1280	-4352	-28	-7	-1	127	119	8
-9968	-4312	11752	-14	14	-22	-16624	1400	-1232	-31	1	18	-15120	2848	-5112	-41	-14	-19	-9536	4072	13040	11	-5	-23	-15976	-3016	-1056	-36	25	-3	-15376	-1144	-4680	-37	-8	1	127	121	8
-9960	-4260	11984	-14	14	-20	-16560	1400	-1016	0	-2	25	-15256	2872	-5168	-38	-20	-20	-9416	4056	13184	15	-4	-27	-15824	-3008	-856	-34	28	-6	-15320	-1488	-4944	-40	-6	5	127	120	8
-10012	-4152	11712	-14	17	-22	-16600	1624	-848	-15	1	21	-15240	2872	-5000	-41	-19	-17	-9432	4048	13472	11	-6	-23	-15888	-3144	-936	-39	27	-5	-15456	-1384	-4904	-31	-2	2	128	121	8
-10008	-4148	11672	-16	18	-19	-16544	1456	-1064	-15	-1	17	-15176	2936	-5104	-40	-24	-24	-9296	4032	13256	11	-8	-20	-15928	-3152	-744	-34	27	-2	-15344	-1384	-4872	-40	-3	-3	128	118	8
-9964	-4180	11692	-17	18	-23	-16704	1336	-1064	-26	-2	14	-15200	2976	-5160	-37	-14	-25	-9496	3824	13288	15	-8	-24	-15896	-3064	-624	-44	22	-3	-15320	-1312	-4808	-30	-2	-6	128	121	8
-9976	-4132	11588	-15	14	-21	-16472	1136	-1008	-22	2	17	-15216	2760	-5120	-38	-19	-24	-9416	4144	13312	15	-4	-23	-15800	-3040	-776	-48	25	-7	-15488	-1272	-5160	-48	-9	-2	127	118	8
-10012	-4220	11604	-12	19	-24	-16400	1360	-1088	3	-2	13	-15120	2952	-4752	-28	-21	-26	-9448	3880	13120	13	-2	-25	-15808	-3112	-896	-63	19	-7	-15376	-1280	-5016	-49	-9	-5	127	121	8
-10028	-4264	11692	-10	14	-22	-16648	1560	-1192	-10	-2	17	-15104	2904	-5104	-34	-26	-24	-9280	3872	13432	10	-6	-23	-15784	-3016	-744	-55	18	-6	-15352	-1376	-4680	-55	-6	-4	128	120	8
-9952	-4220	11704	-11	16	-23	-16520	1488	-1296	-29	-3	10	-15176	2840	-5048	-31	-12	-24	-9408	3960	13320	14	-9	-18	-15904	-3056	-888	-61	12	-7	-15344	-1480	-4936	-60	-2	-9	127	118	8
-10008	-4188	11760	-13	12	-25	-16624	1376	-1008	-33	-1	8	-14968	2608	-5128	-31	-1	-25	-9288	3960	13208	10	-10	-22	-15912	-3232	-1152	-64	10	-9	-15352	-1488	-5016	-67	-3	-10	127	122	8
-9924	-4228	11640	-13	18	-26	-16536	1328	-1032	-26	-13	13	-15176	2656	-5016	-21	-1	-27	-9392	4032	13064	10	3	-25	-15880	-3072	-1000	-58	8	-11	-15216	-1296	-4872	-47	8	-4	127	122	8
-10008	-4280	11676	-12	12	-25	-16632	1424	-1072	-21	-18	20	-15168	2736	-4816	-17	4	-23	-9400	3968	13168	10	-8	-23	-15816	-3176	-1176	-45	0	-15	-15456	-1664	-4872	-55	1	-5	127	118	8
-10024	-4212	11672	-13	15	-30	-16624	1224	-1344	-23	-15	16	-15088	2600	-5104	-19	0	-14	-9352	4088	13216	8	-13	-19	-15896	-3088	-1280	-33	-2	-7	-15248	-1496	-4944	-6	25	-2	127	119	8
-9956	-4164	11644	-12	16	-24	-16656	1288	-1264	-29	-20	15	-15176	2776	-5192	-16	1	-13	-9360	3792	12896	9	-7	-20	-15840	-2960	-1224	-19	-3	-8	-15256	-1760	-5016	-23	11	4	127	121	8
-10028	-4260	11808	-12	16	-28	-16576	1248	-1000	-31	-26	21	-15248	2608	-5056	-10	4	-13	-9344	4016	13304	12	-6	-20	-15904	-3184	-896	-12	-9	-7	-15280	-1760	-4920	-35	12	2	127	119	8
-9984	-4208	11768	-13	16	-33	-16464	1336	-1008	-26	-20	20	-15280	2808	-5072	-6	6	-12	-9456	3760	13200	12	-6	-22	-15880	-3224	-888	-8	-13	-7	-15304	-1496	-4920	-36	11	9	127	117	8
-9940	-4228	11648	-9	14	-27	-16712	1336	-1048	-10	-21	17	-15056	2848	-4952	-14	15	-12	-9488	3880	13160	13	-4	-21	-15856	-2984	-760	-15	-13	-8	-15248	-1512	-5080	-21	12	7	127	120	8
-9956	-4248	11832	-13	11	-23	-16560	1480	-1224	-21	-17	21	-15224	2776	-4888	-16	11	-13	-9544	3936	13136	15	-6	-20	-15728	-3136	-1152	7	-16	-9	-15488	-1424	-4648	-17	5	6	127	119	8
-9980	-4176	11724	-10	12	-28	-16608	1376	-1296	-31	-13	15	-15208	2840	-4768	-14	9	-12	-9312	3912	13344	14	-8	-19	-15712	-3192	-1352	17	-19	-4	-15416	-1352	-4776	-11	7	10	127	121	8
-9984	-4184	11656	-13	17	-25	-16688	1304	-1128	-31	-18	14	-15144	2760	-4992	-18	11	-12	-9368	4000	13040	16	-8	-17	-15864	-3048	-896	-7	-15	0	-15592	-1440	-4720	-18	1	8	127	120	8
-9972	-4136	11756	-11	15	-29	-16568	1336	-1080	-19	-23	18	-15160	2808	-5056	-11	14	-11	-9504	3968	13176	18	-11	-17	-15824	-3096	-824	-4	-9	-6	-15512	-1424	-4632	-21	-10	5	127	122	8
-9920	-4200	11716	-10	14	-25	-16648	1432	-952	-23	-15	16	-15136	2768	-5136	-7	5	-10	-9456	3992	13200	17	-9	-19	-15816	-3200	-776	-9	-12	-6	-15560	-1448	-4528	-6	-7	10	127	117	8
-9904	-4124	11624	-15	18	-25	-16568	1352	-792	-8	-16	20	-15256	2872	-4944	-7	-2	-10	-9376	3944	13008	17	-7	-19	-15744	-3072	-568	-9	3	-6	-15528	-1288	-4712	-13	-17	10	127	120	8
-9952	-4232	11688	-10	18	-23	-16520	1400	-1096	2	-15	20	-15256	2752	-5048	3	-10	-8	-9464	4024	13384	15	-2	-26	-15776	-3088	-720	-13	6	-5	-15400	-1448	-4896	-5	-12	14	127	117	8
-9928	-4152	11736	-13	16	-25	-16568	1240	-872	-6	-16	20	-15312	2856	-4968	10	-7	-4	-9464	3936	13120	14	-2	-19	-15696	-3136	-816	-7	9	-7	-15288	-1496	-4592	2	-11	8	127	121	8
-9988	-4180	11728	-12	14	-27	-16656	1384	-960	-13	-14	11	-15248	2880	-4888	5	-2	-4	-9392	3928	13168	14	-5	-22	-15920	-2960	-1032	1	5	-9	-15320	-1384	-5136	4	-9	11	127	120	8
-9988	-4188	11572	-15	18	-24	-16520	1504	-952	-6	-12	18	-15200	2760	-5144	4	2	-9	-9328	3944	13248	18	-5	-29	-15840	-3008	-1040	4	7	-13	-15472	-1432	-5152	-2	-19	13	127	119	8
-9948	-4204	11648	-14	17	-25	-16560	1400	-864	-8	-16	11	-15304	2848	-4952	0	5	-8	-9472	3928	13048	15	-2	-23	-15776	-3048	-1144	-6	1	-8	-15424	-1440	-5096	2	-16	14	127	118	8
-9932	-4196	11692	-16	16	-27	-16504	1448	-1032	-10	-9	7	-15160	2792	-5048	7	-4	-10	-9296	3960	13208	16	-6	-21	-15936	-2984	-920	-3	-2	-12	-15328	-1576	-4984	10	-11	13	127	120	8
-9992	-4308	11764	-11	12	-23	-16464	1296	-928	-10	-7	12	-15304	2888	-4928	11	3	-10	-9376	4032	13192	12	-12	-23	-15816	-3088	-664	-6	-4	-14	-15384	-1408	-5016	-1	-13	8	127	121	8
-9972	-4268	11724	-12	15	-31	-16592	1480	-888	-9	-6	13	-15432	2720	-4912	14	-1	-3	-9448	3952	13024	11	-10	-20	-15888	-3168	-1152	-2	-1	-13	-15416	-1520	-4848	-9	-20	13	127	120	8
-9980	-4232	11680	-13	12	-27	-16648	1424	-952	12	2	7	-15304	2616	-4944	21	-5	-1	-9280	3928	13216	15	-8	-22	-15808	-3184	-984	-1	-1	-14	-15448	-1656	-4760	7	-20	10	127	120	8
-9928	-4188	11664	-12	18	-25	-16640	1472	-1000	15	-3	13	-15352	2720	-4816	26	-9	-1	-9456	4048	13488	14	-1	-18	-15896	-3072	-1024	25	-9	-11	-15256	-1472	-4912	18	-14	12	127	122	8
-9956	-4288	11764	-15	16	-22	-16648	1416	-808	6	1	8	-15192	2888	-4816	30	0	2	-9552	3872	13136	12	-9	-20	-15784	-2976	-1048	13	-5	-10	-15392	-1416	-4904	14	-10	25	127	120	8
-9920	-4236	11704	-8	15	-24	-16712	1296	-888	12	6	5	-15376	2816	-4944	33	2	7	-9376	3928	13272	11	-10	-23	-15800	-3072	-776	4	-8	-10	-15536	-1472	-4992	14	-15	27	127	118	8
-9928	-4232	11668	-9	17	-25	-16728	1472	-896	14	5	9	-15192	2832	-4680	30	4	2	-9408	4024	13264	11	-5	-22	-15864	-3072	-888	11	-7	-19	-15456	-1512	-5136	16	-26	28	127	121	8
-9988	-4264	11752	-5	9	-25	-16624	1480	-1208	25	7	9	-15304	2704	-4792	38	-4	2	-9504	3880	13152	14	-5	-23	-15832	-3048	-808	18	-6	-14	-15464	-1512	-4864	17	-26	26	127	120	8
-9984	-4204	11676	-14	15	-26	-16648	1328	-904	26	4	9	-15272	2752	-4832	36	-5	1	-9400	3928	13192	14	-10	-21	-15808	-3120	-696	13	-5	-10	-15408	-1360	-4768	12	-27	20	127	120	8
-9912	-4236	11676	-13	16	-26	-16592	1376	-952	23	-2	11	-15256	2728	-4816	31	-1	5	-9456	3856	13424	16	-5	-22	-15808	-3176	-808	11	-6	-9	-15384	-1568	-4824	10	-21	22	127	121	8
-9908	-4264	11616	-15	15	-26	-16560	1232	-1056	11	4	7	-15112	2848	-5232	31	-2	4	-9320	3960	13144	13	-5	-24	-15752	-3160	-872	12	-7	-8	-15344	-1448	-4704	16	-19	19	127	121	8
-9940	-4224	11736	-14	12	-23	-16408	1152	-1040	29	1	14	-15192	2624	-5184	35	-5	5	-9432	3976	13208	15	-9	-18	-15808	-3112	-808	5	-5	-13	-15440	-1376	-5008	15	-23	22	127	119	8
-10016	-4248	11712	-11	14	-29	-16600	1352	-816	35	-1	10	-15288	2736	-5200	41	-8	3	-9528	3952	13320	10	0	-21	-15744	-3096	-1184	2	-12	-9	-15240	-1408	-4544	9	-17	27	127	119	8
-9984	-4232	11696	-9	13	-22	-16568	1528	-1056	24	-4	9	-15184	2736	-4960	43	-1	4	-9480	3976	13008	17	-2	-20	-15952	-3184	-912	13	-14	-16	-15264	-1472	-4792	17	-21	23	127	120	8
-10024	-4316	11724	-11	14	-27	-16488	1272	-1064	14	-7	10	-15184	2664	-5256	39	2	5	-9496	3968	13248	12	-10	-22	-15712	-3168	-968	15	-9	-11	-15408	-1600	-4872	21	-25	24	127	120	8
-9960	-4228	11652	-6	15	-27	-16528	1288	-920	8	-12	12	-15176	2784	-4968	40	1	7	-9528	3832	13168	15	-9	-17	-15832	-3232	-880	26	-17	-9	-15400	-1512	-4944	30	-27	25	127	121	8
-9964	-4232	11608	-8	17	-31	-16528	1312	-816	15	-10	17	-15256	2744	-4768	40	1	7	-9496	4000	13120	9	-14	-24	-15688	-3088	-880	22	-9	-15	-15448	-1608	-4872	31	-22	25	127	118	8
-9944	-4240	11660	-11	13	-28	-16624	1376	-848	18	-7	12	-15256	2880	-4792	42	4	6	-9416	4040	13304	14	-6	-14	-15688	-3096	-808	28	-19	-9	-15352	-1544	-4872	31	-22	31	127	120	8
-9912	-4160	11640	-8	15	-22	-16544	1424	-1008	11	-8	13	-15352	2736	-4944	39	-1	7	-9392	3904	13288	19	-10	-14	-15832	-3120	-984	31	-18	-13	-15336	-1568	-4944	38	-21	30	127	120	8
-9968	-4128	11732	-5	16	-27	-16616	1376	-1016	6	-8	9	-15240	2840	-4752	32	0	11	-9408	4000	13280	17	-11	-18	-15800	-3136	-912	30	-16	-14	-15240	-1488	-4904	49	-17	33	127	120	8
-10016	-4200	11716	-12	15	-29	-16424	1376	-1280	2	-1	11	-15288	2768	-4648	33	-3	11	-9456	3976	13024	11	-9	-21	-15760	-3248	-984	41	-20	-14	-15432	-1512	-5008	48	-26	32	127	119	8
-9928	-4256	11684	-8	8	-27	-16672	1400	-864	14	1	10	-15200	2848	-4936	32	-5	10	-9352	3968	13072	13	-6	-17	-15712	-3248	-984	49	-18	-13	-15288	-1512	-4936	47	-27	34	127	120	8
-9880	-4264	11704	-8	13	-27	-16600	1440	-912	23	4	10	-15280	2816	-5032	41	-1	11	-9256	3944	13216	16	-11	-22	-15656	-3080	-736	39	-18	-8	-15408	-1464	-4800	42	-31	32	127	119	8
-9900	-4244	11648	-10	13	-22	-16592	1328	-928	32	10	12	-15224	2696	-5408	39	-8	10	-9592	3968	13352	16	-9	-20	-15808	-3040	-896	32	-20	-10	-15376	-1480	-4864	41	-22	38	127	121	8
-9888	-4244	11712	-9	11	-24	-16648	1456	-1272	29	4	9	-15136	2696	-5064	45	-7	12	-9424	3984	13184	15	-13	-15	-15832	-3152	-744	33	-20	-13	-15320	-1376	-4608	34	-31	33	127	121	8
-9920	-4224	11716	-15	16	-30	-16528	1416	-928	34	3	6	-15216	2712	-4936	55	-10	18	-9376	3912	13280	17	3	-19	-15928	-3112	-648	33	-23	-5	-15536	-1448	-4920	38	-39	32	127	119	8
-9968	-4256	11716	-18	18	-26	-16688	1264	-848	40	4	8	-15064	2648	-5048	67	-15	14	-9368	3904	12968	24	-3	-19	-15952	-3144	-784	27	-15	-11	-15480	-1320	-4712	32	-31	32	127	119	8
-9972	-4236	11676	-12	9	-26	-16680	1424	-1096	54	1	14	-15176	2680	-5128	63	-20	17	-9448	3864	13232	15	-5	-17	-15840	-3272	-936	18	-20	-7	-15336	-1440	-4936	29	-30	29	127	121	8
-9976	-4248	11776	-12	16	-29	-16624	1264	-912	44	2	9	-15240	2736	-5120	67	-18	14	-9544	3944	13176	19	-5	-18	-15832	-3016	-872	20	-20	-6	-15408	-1360	-5008	26	-31	28	127	120	8
-9992	-4176	11732	-9	19	-25	-16688	1320	-1128	31	-6	7	-15224	2624	-4992	58	-5	12	-9376	3928	13408	14	-14	-20	-15816	-3160	-648	26	-20	-7	-15328	-1512	-4944	23	-33	29	127	121	8
-9944	-4244	11716	-13	19	-27	-16672	1240	-1224	28	-2	11	-15216	2648	-4992	56	-5	6	-9464	3848	13160	17	2	-16	-15848	-3112	-784	25	-20	-8	-15456	-1472	-4792	24	-31	25	127	122	8
-9948	-4188	11716	-8	15	-26	-16616	1432	-1096	21	-4	12	-15136	2736	-5176	43	-9	8	-9528	3920	13384	13	-4	-18	-15832	-3152	-880	23	-26	-15	-15264	-1512	-4824	30	-28	27	127	119	8
-9980	-4228	11880	-12	15	-23	-16616	1256	-1072	24	-9	12	-15200	2776	-4824	37	-16	7	-9376	4016	13176	17	1	-22	-15888	-3176	-672	17	-27	-10	-15400	-1648	-4856	27	-27	33	127	121	8
-9916	-4292	11640	-13	17	-25	-16624	1328	-1136	16	-5	12	-15160	2720	-5128	36	-5	10	-9448	3824	13248	10	-4	-17	-15824	-3168	-896	25	-25	-12	-15400	-1504	-5192	28	-30	31	127	121	8
-9960	-4332	11692	-8	12	-26	-16584	1296	-1232	13	-12	10	-15176	2664	-5088	36	-3	8	-9408	3920	13056	14	-5	-21	-15728	-3168	-776	33	-22	-7	-15376	-1480	-4928	29	-25	32	127	119	8
-9956	-4224	11756	-11	16	-31	-16688	1264	-1072	9	-9	14	-15224	2736	-4736	39	-6	9	-9392	3984	13280	18	-6	-12	-15864	-3104	-704	29	-27	-6	-15408	-1504	-4848	28	-26	38	127	119	8
-9932	-4256	11768	-7	11	-28	-16488	1288	-1224	11	-15	17	-15224	2712	-4912	43	-7	12	-9536	4024	13328	15	-11	-11	-15832	-3208	-872	32	-29	-9	-15400	-1488	-4768	32	-28	32	127	120	8
-10000	-4192	11632	-6	13	-28	-16576	1272	-1040	11	-12	11	-15208	2664	-5144	45	-8	13	-9400	3872	13160	18	-7	-22	-15784	-3208	-672	30	-28	-11	-15400	-1640	-5040	34	-23	32	127	120	8
-9940	-4200	11716	-9	13	-27	-16640	1296	-1096	10	-14	13	-15184	2672	-5120	44	-4	12	-9464	3912	13168	11	-1	-20	-15808	-3240	-528	35	-29	-3	-15280	-1568	-5000	35	-26	34	127	121	8
-9964	-4240	11784	-5	13	-28	-16696	1264	-1248	2	-14	15	-15160	2688	-4944	45	-6	13	-9448	3936	13240	19	-5	-16	-15944	-2944	-736	42	-29	-4	-15344	-1456	-4680	34	-25	35	127	119	8
-9980	-4184	11676	-7	9	-25	-16560	1304	-1000	-4	-13	11	-15096	2680	-4960	41	-1	10	-9536	3936	13208	20	-2	-13	-15664	-3168	-624	37	-31	0	-15536	-1368	-4624	27	-27	34	127	120	8
-9944	-4228	11660	-2	19	-29	-16648	1384	-928	17	-12	17	-15208	2608	-4968	42	0	12	-9312	3976	13272	18	0	-20	-15888	-3088	-568	34	-26	-1	-15352	-1432	-4848	25	-23	35	127	121	8
-9932	-4240	11696	-10	10	-25	-16680	1280	-1080	24	-16	20	-15304	2760	-4984	41	-12	11	-9352	3920	13272	19	-11	-18	-15784	-3232	-608	19	-36	-7	-15352	-1392	-4912	25	-32	30	127	120	8
-9928	-4296	11684	-14	18	-28	-16736	1400	-1128	13	-15	17	-15248	3000	-4792	43	-4	7	-9392	4088	13232	19	-4	-18	-15808	-3016	-592	17	-27	-5	-15448	-1472	-4720	24	-29	28	127	119	8
-9948	-4188	11728	-10	12	-27	-16488	1320	-1032	14	-18	10	-15216	2840	-5240	40	-11	14	-9472	3856	13312	15	-10	-19	-15888	-2944	-744	17	-30	-3	-15376	-1368	-4792	15	-28	29	127	121	8
-9944	-4232	11744	-13	13	-25	-16640	1376	-976	18	-19	14	-15256	2976	-4928	37	-3	7	-9360	3976	13264	19	-9	-19	-15792	-3080	-656	10	-26	-3	-15352	-1480	-4944	6	-26	26	127	122	8
-9904	-4248	11752	-14	15	-23	-16568	1240	-1080	21	-17	12	-15304	2840	-4896	43	-10	6	-9408	3936	13336	16	0	-19	-15800	-3080	-808	11	-26	-6	-15424	-1408	-4408	8	-23	24	127	121	8
-10028	-4260	11816	-9	17	-27	-16600	1272	-1016	31	-14	18	-15160	2736	-5072	38	-8	8	-9496	3952	13064	21	-2	-15	-15816	-3056	-528	17	-24	-3	-15368	-1480	-4560	12	-20	25	127	119	8
-9984	-4284	11756	-11	14	-33	-16544	1352	-1040	23	-13	18	-15192	2856	-4936	40	-2	8	-9448	3896	13152	17	-8	-17	-15832	-3136	-528	16	-20	-11	-15480	-1360	-4704	15	-26	24	127	121	8
-9956	-4268	11712	-12	16	-30	-16520	1312	-952	19	-16	14	-15208	2704	-4960	45	-3	7	-9320	3928	13136	17	-3	-19	-15632	-3072	-592	13	-27	-4	-15512	-1544	-4720	17	-23	24	127	121	8
-9968	-4272	11700	-13	15	-27	-16544	1328	-1032	26	-21	13	-15232	2688	-4904	41	3	6	-9400	3960	13208	13	-8	-17	-15784	-3184	-424	21	-28	-7	-15272	-1360	-4912	15	-16	24	127	118	8
-9912	-4268	11688	-11	11	-22	-16536	1344	-944	23	-20	12	-15240	2696	-4664	38	-1	5	-9232	3936	13304	13	-8	-17	-15920	-3096	-424	30	-24	-4	-15400	-1328	-4552	23	-12	24	127	119	8
-9972	-4308	11672	-11	14	-25	-16672	1424	-856	3	-19	12	-15232	2904	-4912	30	0	5	-9448	3856	13088	13	-7	-22	-15664	-3160	-584	32	-27	-12	-15440	-1392	-4640	26	-15	25	127	121	8
-9900	-4272	11688	-16	12	-27	-16600	1312	-920	2	-20	15	-15136	2672	-4800	27	6	6	-9464	3936	13264	17	-5	-17	-15776	-3152	-480	37	-26	-12	-15456	-1568	-4472	24	-17	23	127	121	8
-10032	-4348	11668	-6	7	-30	-16672	1288	-736	9	-19	14	-15152	2736	-4896	26	4	1	-9472	3864	13192	17	-7	-14	-15888	-3232	-848	29	-30	-4	-15400	-1328	-4528	17	-13	21	127	121	8
-9980	-4248	11768	-11	14	-25	-16632	1240	-800	6	-21	13	-15224	2776	-4960	21	6	4	-9352	3976	13288	18	-9	-21	-15752	-3264	-216	18	-24	-14	-15480	-1384	-4576	12	-15	18	127	118	8
-9976	-4256	11656	-11	13	-29	-16608	1352	-1008	2	-16	17	-15168	2896	-4768	26	6	-1	-9488	3960	13384	20	-5	-17	-15784	-3080	-376	14	-22	-7	-15496	-1400	-4520	8	-14	21	127	119	8
-9976	-4188	11732	-6	11	-26	-16576	1376	-944	-12	-15	12	-15208	2864	-5000	17	5	2	-9288	3912	13448	13	-3	-14	-15792	-3264	-608	4	-18	-6	-15456	-1352	-4544	6	-19	21	127	123	8
-9964	-4304	11744	-3	16	-24	-16552	1280	-1152	-6	-16	12	-15336	2928	-4880	13	7	-3	-9416	3968	13208	11	-9	-20	-15880	-3264	-344	10	-17	-11	-15552	-1384	-4672	5	-19	16	127	118	8
-9896	-4140	11688	-8	14	-30	-16672	1312	-952	-2	-16	12	-15224	2712	-5120	15	4	1	-9344	3936	13264	16	-6	-16	-15816	-3112	-656	14	-13	-4	-15512	-1504	-4552	10	-17	21	127	118	8
-9936	-4212	11688	-11	9	-29	-16592	1232	-1096	-14	-17	13	-15168	2616	-4888	16	0	-1	-9408	3976	13032	14	-5	-19	-15752	-3048	-800	8	-9	-6	-15560	-1408	-4424	3	-21	22	127	121	8
-9936	-4268	11640	-14	15	-25	-16576	1216	-736	-18	-21	8	-15296	2744	-4824	13	6	-2	-9344	3792	13264	15	-9	-19	-15768	-3136	-568	-1	-7	-6	-15464	-1376	-4584	4	-25	18	127	121	8
-9924	-4208	11672	-13	18	-30	-16584	1280	-904	6	-21	16	-15312	2600	-4928	19	1	-3	-9320	3928	13192	11	-3	-24	-15800	-3184	-480	-6	-9	-7	-15432	-1256	-4584	0	-18	16	127	119	8
-9908	-4224	11724	-8	17	-25	-16512	1328	-912	7	-16	15	-15184	2832	-4912	14	-3	-4	-9424	4032	13232	19	-3	-23	-15712	-3040	-536	-15	-6	-6	-15576	-1440	-4504	-2	-16	15	127	121	8
-9932	-4196	11760	-8	13	-26	-16608	1248	-912	-4	-13	17	-15160	2744	-5024	12	1	-1	-9512	3896	13264	15	-5	-21	-15672	-3112	-536	-5	-6	-11	-15360	-1464	-4648	-7	-12	11	127	121	8
-9884	-4236	11660	-15	11	-21	-16616	1344	-800	-5	-16	14	-15184	2656	-4984	9	0	-5	-9312	3976	13240	15	-8	-20	-15960	-3088	-592	-8	-6	-7	-15456	-1408	-4648	-11	-14	14	127	119	8
