#Activity	sitting in car 
#ActivityID	12 
#Date 09-19-15-59
acc_rf_x	acc_rf_y	acc_rf_z	gyro_rf_x	gyro_rf_y	gyro_rf_z	acc_rs_x	acc_rs_y	acc_rs_z	gyro_rs_x	gyro_rs_y	gyro_rs_z	acc_rt_x	acc_rt_y	acc_rt_z	gyro_rt_x	gyro_rt_y	gyro_rt_z	acc_lf_x	acc_lf_y	acc_lf_z	gyro_lf_x	gyro_lf_y	gyro_lf_z	acc_ls_x	acc_ls_y	acc_ls_z	gyro_ls_x	gyro_ls_y	gyro_ls_z	acc_lt_x	acc_lt_y	acc_lt_z	gyro_lt_x	gyro_lt_y	gyro_lt_z	EMG_r	EMG_l	act
-6900	-5636	14568	34	-25	-7	-15752	-4856	2024	-5	-5	17	3792	-4120	16248	54	-4	4	-4472	5992	13864	-4	6	-18	-14448	9448	424	-52	-16	82	736	3744	16480	26	-25	-4	126	135	12
-7016	-6044	14608	42	-24	-6	-16192	-4680	1504	46	-11	16	3784	-3960	16200	58	-23	-7	-4208	7048	14184	-11	17	-28	-14776	8744	440	-12	-10	67	952	4008	16344	23	-60	-4	124	135	12
-6144	-5516	14224	20	-12	-10	-15048	-4232	2312	-28	-23	37	4512	-3768	15328	61	-18	-6	-4104	5848	13624	27	26	-16	-14272	8568	712	38	-26	34	1640	4112	16016	19	-56	-4	123	139	12
-6636	-5452	13152	14	-2	-20	-13984	-4528	1816	5	-12	31	4536	-3336	15104	41	6	-5	-4504	6216	13784	39	22	-7	-13232	8752	296	61	-20	32	1736	4072	15880	25	-10	0	123	139	12
-6272	-6060	13596	25	-28	-16	-14496	-4696	1824	6	7	22	4008	-3280	15528	21	16	-9	-4480	6208	14416	-9	6	-24	-13872	9304	560	35	-18	35	1288	4096	16760	29	12	7	125	137	12
-7464	-6920	14276	31	-38	-8	-15984	-4968	1544	64	8	-20	3536	-3592	16720	1	-10	-15	-4448	6352	14960	-46	-6	-31	-15288	9688	64	-65	4	36	392	4408	17032	13	-16	15	128	134	12
-7048	-5544	15040	27	-30	-11	-16632	-4568	1416	26	9	-18	3720	-4112	16768	17	-34	-13	-4120	6176	15048	-34	8	-32	-15768	9040	432	-30	-1	0	752	4152	17480	-13	-73	25	126	137	12
-6788	-5656	14380	-20	-12	-27	-15744	-4264	1888	-5	-16	-16	4360	-3840	16072	28	-31	9	-4536	5984	14040	12	26	-20	-14608	8496	24	7	-16	-16	1640	3808	16288	-33	-64	27	123	140	12
-6476	-4776	13760	-31	8	-33	-14568	-4176	2016	-54	-17	-9	4872	-3520	15312	21	1	32	-4416	5768	13248	33	49	-17	-13312	8232	352	72	-13	-15	2304	3704	15592	-11	-20	16	120	140	12
-6796	-5248	13928	0	-8	-17	-14152	-4600	2288	-40	1	-12	4888	-3712	15224	7	35	44	-3776	6496	12760	49	40	3	-13064	8552	1032	59	10	-2	1936	3440	15312	9	45	14	122	136	12
-6708	-5288	13488	10	2	-10	-14920	-4448	2000	13	7	-17	4264	-3856	15576	1	38	25	-4336	7000	13448	16	36	-21	-13296	8848	392	6	25	16	1048	3592	15496	33	46	23	123	133	12
-6720	-5028	13904	19	-20	-15	-15536	-5032	1712	20	7	-19	3832	-4176	16072	12	17	11	-4944	6168	14528	-42	15	-41	-14048	9264	360	-42	35	21	776	3592	16368	32	16	32	125	133	12
-7708	-5968	14556	3	-22	-15	-16128	-5216	1432	21	8	-12	3640	-4168	17080	31	-16	0	-4920	5816	14824	-79	-30	-40	-15704	9192	-208	-109	36	24	352	3672	17488	-10	-45	33	126	137	12
-6924	-5968	14528	22	-10	-21	-16472	-4896	1632	-5	-2	-25	3840	-4424	16416	42	-33	1	-3936	5416	15576	-47	6	-39	-16288	8376	456	8	1	8	768	3704	17576	-40	-87	17	124	142	12
-6824	-5656	14092	-17	2	-29	-15304	-4856	2072	-51	-11	-2	4432	-4152	15680	40	-23	3	-3784	5824	14120	20	50	-22	-14864	8160	536	50	-35	-16	1968	3408	16376	-51	-70	-3	123	143	12
-6448	-5032	13712	-6	12	-28	-14000	-4888	2240	-28	-4	6	5200	-3952	15136	14	17	8	-4288	6064	13512	47	55	-13	-13512	8408	664	117	-36	0	2480	3240	15912	-13	4	-8	124	139	12
-6740	-6268	13288	15	2	-12	-14344	-5120	2040	7	8	3	4552	-3968	15376	5	47	7	-4336	6168	14088	31	45	-17	-13648	9168	680	39	14	22	1616	3376	15976	30	58	10	126	134	12
-6892	-5168	14480	55	-32	10	-15664	-5184	1944	40	27	-15	3992	-4456	16544	1	34	6	-4272	6760	14224	-1	33	-25	-14352	9528	600	-23	26	33	784	3496	16432	56	42	26	127	130	12
-7312	-5736	14888	45	-24	0	-16912	-4728	1592	54	15	-10	3824	-4592	16904	24	-3	6	-4560	6264	14496	-32	15	-39	-14944	9272	-160	-80	19	48	648	3656	16608	44	-19	36	127	131	12
-6648	-5632	14644	13	-11	-28	-16072	-4608	1712	-12	-7	22	4096	-4272	16184	58	-12	7	-4072	5312	14256	-13	6	-30	-14896	7936	272	14	2	19	1256	3592	16352	15	-62	30	124	137	12
-6644	-5436	13596	-8	20	-25	-14400	-4808	2008	-80	-27	32	4536	-3808	15000	66	5	12	-4352	5072	13584	5	32	-29	-14032	7888	224	64	-12	8	1712	3624	15872	-10	-46	4	119	141	12
-6572	-5856	12780	-4	23	-25	-13640	-4720	1856	-23	0	23	4552	-3216	14984	32	43	0	-4584	5568	13400	11	31	-28	-13288	7992	320	99	-13	23	1920	3656	15784	-5	6	-16	121	140	12
-6752	-6584	13916	48	-26	-7	-14480	-5416	1968	31	27	-3	4072	-3480	15936	-8	34	-16	-4160	7040	14000	-7	-5	-27	-14368	9336	368	56	-17	35	896	3736	16576	-2	28	-22	126	136	12
-7144	-5860	14400	73	-31	10	-16408	-4640	1816	123	18	-26	3224	-4128	16376	-17	1	-36	-4112	6032	14304	-5	21	-33	-14808	9216	248	-67	4	41	512	3776	16312	12	-3	-8	130	134	12
-7080	-5064	14660	28	-20	-11	-16200	-3808	1184	50	9	5	3960	-4024	16264	20	-26	-26	-4264	6056	14664	-3	19	-29	-14504	8672	432	-15	8	8	1160	3552	16336	13	-45	19	129	137	12
-6824	-5856	14088	-8	-4	-35	-15008	-4296	2136	-84	-23	17	4432	-3920	15576	51	-24	17	-4568	6216	13888	-2	31	-29	-14248	8176	312	5	-7	4	1696	3304	16056	0	-40	27	124	141	12
-7364	-5392	13508	-5	3	-25	-14624	-4864	1680	-75	-20	-6	4312	-3984	15392	52	-9	36	-5080	6728	14112	-13	20	-35	-14192	8576	-144	60	-3	26	1480	3288	16528	6	-34	20	123	141	12
-7200	-6080	14548	12	-26	-27	-15648	-5592	1920	11	1	-11	3936	-4496	16104	39	-12	32	-4384	6120	14240	-20	-8	-29	-14632	9064	560	52	-3	42	1200	3568	17064	13	-17	18	124	137	12
-7340	-5932	14468	30	-12	-6	-16480	-5288	1696	64	-5	-15	3736	-4472	16528	34	-21	3	-4912	6032	14624	-35	9	-41	-15072	9312	40	-43	-1	42	664	3512	17336	24	-34	21	125	134	12
-6864	-6072	14500	22	-10	-20	-15952	-4672	1256	40	-10	13	4392	-4080	16240	34	-19	0	-4272	6192	14464	-1	1	-25	-15176	8784	320	-15	9	22	912	3496	16656	42	-38	31	125	134	12
-6580	-5880	13756	9	4	-25	-15120	-4568	1888	-29	-25	18	4496	-3944	15600	40	3	10	-4992	6040	14296	12	32	-33	-14280	8392	-208	-15	-8	25	1120	3464	16488	40	-19	25	124	137	12
-7412	-5816	13988	15	-17	-25	-15000	-5088	1368	-13	4	9	4392	-4072	16104	38	7	13	-4560	6112	14608	-17	-6	-18	-14648	8688	80	73	-4	28	1272	3440	17136	23	-6	11	125	137	12
-6912	-6084	14808	25	-27	-26	-16088	-5800	2152	-18	-10	-4	3936	-4552	16528	25	8	-3	-4528	5360	14856	-33	-14	-33	-15952	9128	248	35	-34	45	552	3736	17304	0	-9	-8	126	136	12
-7272	-4944	14268	34	-14	-15	-16112	-5352	1624	48	-11	-16	4008	-4496	16368	23	-8	-34	-5016	5312	14944	8	10	-26	-15176	8888	8	23	-36	26	920	3672	16672	1	-46	-6	126	137	12
-7072	-5304	14192	8	-17	-28	-15280	-4680	1736	21	-4	28	4552	-3864	15928	23	1	-27	-4024	6160	14216	15	17	-24	-14504	8744	296	33	-21	16	1568	3632	16368	10	-36	3	126	139	12
-7572	-5668	13988	17	-18	-29	-14856	-4440	1808	2	-1	9	4416	-3432	15872	18	6	-6	-5200	6648	13936	9	15	-27	-14112	9064	96	-2	-23	29	1360	3688	16240	11	-10	2	125	138	12
-7392	-5220	14392	45	-25	-4	-15792	-4568	1480	24	2	-12	4112	-3944	16352	12	6	3	-4056	6592	13944	10	-7	-10	-13976	9096	-136	-9	-24	32	1080	3976	16080	35	-7	9	126	135	12
-6140	-4632	14360	12	-21	-24	-16080	-4400	2056	10	-11	10	3864	-4112	15872	29	8	-5	-4216	7216	13696	18	28	-17	-13896	8832	512	18	-23	29	1056	3896	15944	37	-9	15	125	134	12
-7272	-4476	13288	-3	3	-26	-14848	-4472	1656	3	-23	16	4072	-3480	15208	32	15	-13	-4576	6072	13128	7	38	-25	-13448	8464	296	-24	-13	27	1336	3768	15288	32	-27	14	124	136	12
-7100	-5388	13560	5	-26	-39	-14000	-4496	1752	-21	-1	29	4240	-3408	15400	26	15	-14	-4664	5840	13392	-21	-1	-34	-13680	8552	88	23	-8	25	984	4112	15928	20	-22	14	124	139	12
-7292	-6340	13416	41	-11	-17	-15064	-4648	1680	43	3	-17	3528	-3344	15968	8	3	-18	-4856	6760	14280	-41	-14	-31	-14344	9336	48	12	-1	27	656	4064	16552	-10	-29	9	125	138	12
-6884	-4192	14192	35	-33	-10	-16088	-4328	1416	47	2	-27	3400	-3752	16416	13	-22	-26	-4464	6032	14464	-38	7	-30	-14840	9040	272	10	-16	21	712	4024	16784	-15	-57	5	127	137	12
-7244	-5060	14532	-9	-23	-36	-15768	-4440	2240	27	-12	-8	3936	-3576	16016	29	-33	-17	-4544	5520	13944	-15	32	-40	-14760	8664	136	-50	-22	0	1296	3912	16608	-28	-61	6	127	138	12
-7180	-4964	13924	-17	0	-38	-14696	-4336	1872	-30	-11	-11	4392	-3560	15528	16	-21	0	-4384	5912	13872	10	24	-23	-13928	8472	288	22	-12	-14	1792	3704	16000	-9	-39	12	125	139	12
-6740	-5280	13996	-10	-8	-36	-14424	-4448	1952	-44	-4	-20	4656	-3720	15696	4	2	22	-4440	6376	13856	-2	19	-26	-13984	8688	704	41	-8	1	1760	3720	16088	-4	4	10	124	140	12
-7268	-6340	13736	-2	-12	-30	-15744	-5120	1776	30	3	-52	3904	-4136	16672	-3	-4	24	-4792	7008	14248	-39	9	-36	-14520	9080	40	-15	0	2	1088	3648	16680	-7	-8	16	125	136	12
-7368	-6380	14560	0	-22	-30	-16184	-5232	1432	5	0	-53	3832	-4304	16424	-2	-17	17	-4504	5952	14560	-62	13	-48	-15448	8992	416	-16	9	-7	848	3688	17160	-19	-39	29	126	135	12
-7892	-5476	14480	-9	-6	-36	-15848	-5072	1640	-5	-5	-42	4056	-4360	16728	6	-26	15	-4600	5720	15088	-56	22	-55	-15360	8728	80	-30	11	-17	1024	3472	17104	-34	-61	23	124	137	12
-7452	-6004	14564	-20	-10	-43	-15616	-5432	1744	-42	-5	-38	4528	-4560	16272	6	-23	28	-4400	5720	14664	-19	12	-40	-15328	8512	128	18	-2	-23	1496	3128	17192	-37	-44	19	122	141	12
-7224	-6076	14320	5	-7	-27	-15616	-5240	1704	-14	3	-49	4400	-4664	16376	1	-8	23	-4504	6720	14512	-14	22	-34	-14664	8680	8	31	-11	0	1488	3096	16720	-22	-11	8	123	139	12
-7232	-5624	14504	-10	-7	-40	-15800	-5272	1608	42	13	-24	4368	-4848	16152	4	0	10	-5152	6088	14864	-12	13	-36	-14744	8736	440	38	3	7	1048	3232	16952	6	7	11	125	135	12
-6944	-6044	14312	-2	-8	-30	-15944	-5544	1840	-9	-8	-12	3992	-4952	16400	7	-1	1	-4824	6480	15016	-22	8	-35	-15200	9072	24	-20	7	10	512	3096	17168	17	-3	21	126	134	12
-7348	-5460	14576	8	-21	-27	-16120	-5592	1280	9	-10	-15	3720	-4704	16656	18	-21	-12	-5440	6496	15128	-28	3	-33	-15552	9152	-416	-21	-16	21	280	3104	17408	26	-50	24	126	134	12
-7516	-5764	14672	11	-31	-26	-16240	-5328	1376	53	-3	-1	3712	-4528	16760	34	-29	-14	-5376	6152	15112	-13	1	-28	-15416	8856	-424	24	-28	27	520	3192	17288	21	-75	13	127	136	12
-7828	-6160	14980	28	-34	-21	-16544	-5160	1520	36	-2	8	4000	-4400	17096	40	-34	-27	-4976	5496	15080	-4	-17	-26	-15456	9040	32	24	-44	43	888	3408	17448	17	-71	-12	126	136	12
-6872	-5768	14800	22	-22	-29	-16192	-4816	1760	17	-26	19	4200	-4112	16560	29	-17	-34	-4616	5736	14688	21	-4	-9	-14984	8568	360	60	-62	34	920	3824	16592	20	-54	-27	124	135	12
-7220	-5352	13868	3	-4	-37	-15168	-4584	2128	1	-29	24	4304	-3696	15928	14	9	-26	-4768	6552	14000	49	19	-13	-13888	8760	-288	23	-61	35	1488	3712	16192	35	-23	-27	124	135	12
-7412	-6256	13992	14	-27	-48	-14640	-4832	1256	31	-1	11	4360	-3536	15840	5	16	-24	-4024	6608	14512	22	-26	-7	-13960	9072	656	58	-46	35	1088	4008	16432	47	1	-10	123	134	12
-6928	-6228	14092	38	-46	-31	-15960	-4984	2312	42	-17	-13	3392	-3744	16616	-7	5	-30	-4680	5576	14136	-10	-18	-28	-14472	9240	224	-37	-45	30	464	4264	16368	26	-18	-4	125	134	12
-7088	-5068	14288	27	-40	-37	-15784	-4504	1360	69	-13	-28	3472	-3760	15928	-3	-10	-37	-4336	5080	14288	-11	-26	-25	-14336	8664	216	-5	-44	4	856	4320	16264	14	-63	2	125	135	12
-6748	-5744	13512	0	-25	-50	-14856	-3960	1712	-20	-41	-9	3976	-3616	15240	4	-18	-32	-4240	6232	13392	14	-9	-22	-13712	8280	152	24	-44	-17	1416	4008	15856	-20	-62	11	124	141	12
-6608	-5568	13332	1	-34	-49	-14224	-4272	1632	2	-35	-27	4040	-3376	15136	11	-10	-20	-4592	6232	13120	-14	-14	-21	-13672	8376	272	43	-47	-26	1568	3808	15512	-36	-50	12	124	140	12
-7044	-5888	13088	3	-28	-50	-14512	-4768	1736	26	-27	-46	3784	-3560	15200	-11	-11	-15	-4384	5592	13384	-8	-8	-31	-13568	8392	424	29	-21	-26	1544	3624	15576	-33	-27	19	125	139	12
-6280	-4920	13396	7	-34	-43	-15056	-4600	1808	6	-19	-60	3816	-3952	15512	-15	-20	-7	-4344	5448	13184	-23	3	-35	-13848	8368	608	-2	-10	-37	1384	3376	15664	-21	-35	36	125	138	12
-7040	-6108	13088	-14	-9	-58	-14560	-4376	1328	17	-23	-52	3912	-4016	14944	-7	-30	-1	-4440	5112	13440	-24	16	-51	-13808	7800	416	-43	12	-39	1608	3016	15520	-15	-45	42	125	138	12
-7056	-6296	12888	-31	4	-58	-14304	-4608	1432	-31	-18	-45	4208	-4048	14944	-5	-36	21	-5184	5856	13696	-49	-1	-54	-14216	7856	24	-21	27	-39	1496	2864	16088	-34	-48	38	122	139	12
-7492	-5964	13608	1	-16	-41	-15008	-5472	1440	-28	-4	-74	4000	-4568	15904	-2	-41	38	-4344	5408	14360	-77	-15	-54	-15128	8368	408	22	15	-11	1176	2640	16840	-46	-45	22	124	137	12
-6696	-5904	13820	4	1	-40	-15792	-5384	1736	0	2	-71	4192	-5144	16072	8	-38	40	-4656	4288	14216	-45	21	-51	-15208	7896	-88	4	6	-8	1144	2880	16592	-48	-46	15	124	137	12
-6732	-5228	12896	-24	29	-40	-14848	-5280	1688	-5	-1	-41	4696	-4992	15112	18	-18	38	-5408	4832	14296	-2	48	-53	-14096	7824	-200	28	18	-11	1720	2472	16552	-28	-25	13	124	137	12
-6624	-4984	13344	-10	21	-27	-14208	-5520	1824	-54	21	8	4848	-4904	15344	28	19	43	-4624	6728	13792	29	49	-39	-13984	8080	280	60	27	4	1704	2192	16176	6	31	14	123	135	12
-6648	-5216	13224	-7	23	-32	-14928	-5728	1536	19	42	-9	4344	-5048	15488	33	42	27	-4496	5984	13224	13	47	-52	-14240	8232	-136	-6	25	44	1000	2392	16128	23	57	6	124	134	12
-7656	-5316	13960	66	22	5	-15744	-5240	1184	57	40	8	3936	-5336	15896	43	48	-2	-4776	5872	14064	-2	41	-48	-14328	8384	-184	62	27	69	856	2752	16280	53	45	2	126	132	12
-6704	-5096	13992	54	10	-4	-15488	-5296	1440	18	41	56	4032	-4992	15864	64	46	-19	-4680	5592	14120	20	49	-43	-14264	8080	144	79	26	51	608	2896	16064	50	37	-2	126	135	12
-7272	-5864	13416	61	14	-3	-15040	-5224	1624	1	28	65	3776	-4552	15584	69	61	-40	-4920	5504	13576	18	56	-59	-14120	8160	-904	16	18	72	648	2880	15920	37	22	-23	126	138	12
-7692	-6232	13732	67	3	-8	-14648	-5520	784	28	45	80	3672	-4248	15736	61	52	-52	-4608	5560	14384	8	10	-54	-14960	8224	-624	61	7	77	696	2872	16736	29	14	-27	126	140	12
-7656	-6504	14760	92	-11	3	-15904	-5560	1072	40	36	52	3336	-4344	16392	53	38	-59	-4864	5800	14624	1	-15	-39	-15800	8888	-232	45	-12	87	280	3176	17536	23	3	-38	129	138	12
-7328	-6124	14540	97	-7	13	-16896	-4856	1208	100	8	24	3224	-4392	16904	48	8	-66	-4904	6360	15800	30	9	-30	-16024	9040	80	46	-31	77	432	3016	17496	35	-35	-37	129	135	12
-7032	-5536	15024	68	-17	-7	-16584	-4568	1632	35	-14	56	3808	-4304	16496	60	-1	-46	-4208	6216	14888	83	42	-15	-15136	8728	256	50	-42	70	1304	3136	17032	54	-36	-33	128	136	12
-8016	-4584	14636	23	-7	-22	-15776	-4448	1744	-8	-21	60	4144	-4104	16264	69	1	-17	-5272	5840	14592	77	46	-28	-14392	8576	-208	5	-31	79	1688	3408	16856	72	-13	-21	124	135	12
-7188	-7024	14500	43	-18	-33	-15280	-5184	1504	-46	-17	40	4128	-4216	16184	69	12	14	-4192	5896	13872	67	15	-14	-14560	8504	520	59	-30	78	1384	3464	16400	86	12	-9	122	135	12
-7388	-6224	14060	56	-11	-10	-15416	-5456	1560	22	-23	16	3720	-4672	16264	67	10	15	-5072	6928	14600	17	2	-25	-14704	9416	272	31	-15	86	1048	3712	16944	74	-10	5	122	134	12
-6648	-6536	13892	32	-21	-35	-15744	-5632	1264	47	-20	26	3920	-4400	16032	70	-2	4	-4696	5640	14776	4	-12	-31	-15520	8456	432	13	-3	55	880	3872	17048	59	-27	25	121	134	12
-7156	-5820	13264	49	-19	-11	-15256	-5328	1712	3	-28	20	4000	-4296	15624	68	-8	-5	-5168	5824	15016	6	10	-35	-14776	8512	-16	-9	-17	41	904	3648	16744	35	-46	19	122	138	12
-7156	-6024	14056	54	-41	-26	-14824	-5480	1608	21	-11	22	4176	-4176	16016	63	-10	-17	-5808	5864	15016	12	-6	-30	-14792	8752	-72	20	-26	42	1024	3328	17000	22	-33	9	125	139	12
-7592	-5596	14492	61	-47	-23	-15768	-5304	1760	52	-5	16	3672	-4264	16256	53	-11	-29	-4424	5448	14624	13	-24	-31	-15096	8688	-32	22	-43	60	512	3488	16888	31	-19	3	125	137	12
-6576	-5384	14480	61	-36	-18	-15960	-4744	1656	44	-25	26	3992	-4344	16088	46	-12	-44	-4112	5800	13360	47	10	-19	-14392	8504	-104	10	-51	43	640	3072	15824	57	-16	-2	126	136	12
-6940	-5140	13144	18	-5	-47	-14176	-3976	1592	33	-33	56	4232	-3832	14776	57	8	-41	-4456	4152	13224	58	19	-23	-13096	7640	296	73	-47	41	1472	3320	15008	81	-16	7	125	137	12
-6468	-5728	12364	11	-6	-51	-13008	-4344	2088	-47	-37	59	4344	-3256	14536	54	32	-28	-4464	6080	13112	54	-3	-25	-12744	7856	240	81	-43	34	1376	3456	14984	75	1	9	124	136	12
-6676	-5244	12496	49	-36	-21	-13840	-5008	1768	37	-7	21	3640	-3248	15272	36	31	-34	-5104	7208	13200	4	-20	-30	-13112	8640	64	36	-36	64	800	3656	15480	55	-9	-7	125	134	12
-6912	-4636	13964	73	-60	-18	-15576	-4752	1280	120	11	8	3128	-3552	16152	23	10	-62	-4584	5600	13976	-27	-53	-32	-14416	8984	408	32	-50	77	648	3840	16200	30	-46	-22	128	133	12
-6320	-5732	13932	62	-38	-22	-16232	-4080	1904	74	-18	10	3704	-3720	15784	33	-23	-73	-3952	6320	13576	9	1	-34	-14528	8352	184	-16	-57	58	872	3808	15864	1	-94	-36	128	137	12
-6964	-4128	13228	15	4	-33	-14408	-3376	1520	37	-21	37	4608	-3256	15144	45	-17	-57	-4856	5320	13600	7	17	-35	-13688	8264	120	49	-43	37	2008	3864	16016	4	-89	-45	126	139	12
-6848	-5736	13196	1	-2	-48	-13816	-4528	1832	-51	1	37	5136	-2976	15584	34	2	-9	-5192	6144	14344	-18	-12	-45	-14480	8984	416	67	-24	37	1944	4080	17008	-1	-24	-47	124	139	12
-7172	-5420	13492	37	12	-7	-15752	-5168	2136	25	18	-43	4240	-3576	16728	-6	-1	12	-5288	6688	14608	-32	19	-54	-15208	9336	280	-21	-11	60	1256	4304	17600	-14	-22	-49	126	135	12
-7516	-4604	14816	8	6	-31	-16768	-4704	1608	78	56	-39	4192	-3856	17008	-8	-20	12	-4904	5176	14848	-3	47	-61	-15256	9232	568	36	-3	22	1384	4608	17112	-22	-41	-43	127	135	12
-7632	-5884	14508	-26	39	-40	-16056	-4312	1888	3	45	-15	4448	-3816	16648	-8	-8	19	-4584	5760	13928	32	82	-62	-14128	9128	104	33	24	3	1912	4368	16424	-33	-25	-33	126	140	12
-7000	-5232	14400	-17	40	-36	-15104	-4392	1216	-47	56	-2	4632	-3896	16240	5	24	33	-4040	5832	13616	4	59	-51	-13584	9040	704	114	34	-1	1752	4016	16032	-33	19	-22	124	141	12
-7308	-6964	13640	-23	53	-37	-15000	-4768	1624	-22	46	-25	4040	-3944	15920	-9	61	38	-4960	6392	13648	-17	52	-76	-13408	9056	-104	45	47	-2	1000	4184	15528	-28	75	7	123	140	12
-7000	-5620	13376	-1	40	-16	-14904	-5408	1352	-11	60	-39	3600	-4448	15656	-16	78	24	-4944	6216	13944	-80	33	-76	-13928	8984	-192	48	65	-26	296	3776	16176	-23	70	37	123	139	12
-7616	-6284	13488	19	26	-21	-15440	-5432	1288	32	52	-28	2952	-4456	16144	-13	58	-6	-5256	5656	14480	-102	21	-83	-14712	9144	-272	-25	71	-41	-200	3424	16800	-35	35	57	125	139	12
-7528	-5488	14180	5	10	-37	-15832	-4840	792	47	37	-31	2784	-4312	16456	-1	31	-32	-5400	4888	14712	-96	7	-96	-15352	8608	-1008	-41	53	-42	-440	3056	17056	-44	-11	61	125	138	12
-7360	-5700	14572	27	5	-32	-16088	-4608	776	-1	21	-39	3344	-4224	16168	-2	7	-28	-4576	6288	14392	-49	18	-66	-15376	8368	-736	46	4	-39	176	2544	16808	-45	-35	36	126	139	12
-7816	-5644	14276	6	9	-40	-15864	-4520	1336	0	9	-26	3592	-4392	16384	6	-6	-14	-4240	5912	14376	-10	22	-49	-14896	8216	-416	92	-16	-25	856	2312	16944	-34	-32	9	126	139	12
-7244	-4748	14276	-8	9	-48	-15728	-4984	1560	-8	-13	-27	3664	-4416	16072	10	3	-8	-4912	5176	14664	-8	25	-62	-14712	8120	-440	52	-25	5	912	2576	16368	-4	-15	-12	124	137	12
-6844	-4988	13620	-30	19	-60	-14992	-5208	1304	-29	-7	-18	4016	-4384	15688	-1	-2	8	-4976	5920	14248	14	30	-45	-14496	8144	-200	31	-16	-2	920	2696	16360	24	-15	-11	121	134	12
-7992	-6480	13520	-48	11	-84	-14504	-5256	1512	-15	5	-29	3936	-4008	15584	1	11	15	-5096	5184	14248	-17	20	-64	-14608	8368	-312	-35	-17	16	776	3008	16704	11	-24	-6	122	132	12
-7648	-6672	13264	17	-1	-42	-14928	-5336	992	48	28	-43	3944	-4440	15920	-1	8	16	-4760	6672	14336	3	8	-50	-14712	8632	-440	19	-11	24	648	3040	16816	0	-36	-14	123	132	12
-7220	-4472	14588	37	-22	-27	-15832	-4848	1168	39	32	-25	3608	-4840	16544	9	2	0	-4736	5992	14080	2	17	-52	-14656	8832	-136	39	-33	41	544	3280	16416	-15	-32	-33	126	133	12
-7376	-5044	13824	27	-5	-37	-15864	-4720	1288	47	4	1	3352	-4608	15792	27	-1	-19	-4600	6008	13504	24	22	-45	-13848	8424	-632	22	-36	37	328	3280	16024	-2	-30	-43	127	137	12
-7364	-5160	13644	-8	-1	-61	-14648	-4784	1072	-25	3	38	3712	-4056	15296	35	17	-45	-5568	5880	13384	19	-5	-45	-13768	8576	-544	26	-32	32	392	3472	16192	16	-14	-25	126	138	12
-7628	-5516	13564	26	-12	-40	-14632	-5080	616	41	6	8	3272	-3952	15752	15	22	-54	-5072	5968	14064	-56	-47	-37	-14504	9056	-568	48	-34	34	-248	3864	16944	20	-19	-13	126	137	12
-7364	-6588	13016	19	-6	-49	-15560	-4616	688	95	2	-12	2584	-3544	16008	-5	-2	-68	-5512	5704	13952	-30	-12	-53	-14856	8496	-832	17	-36	-2	-392	3920	16504	-7	-57	-7	127	138	12
-7608	-5572	13212	19	-3	-45	-15168	-4080	552	69	14	-18	3024	-3200	16144	-12	-16	-72	-5248	6632	13904	-10	0	-45	-14416	8784	-1064	70	-48	-28	408	3816	16608	-35	-82	-11	129	138	12
-8088	-5276	14148	12	-26	-42	-15752	-4144	1072	48	12	-15	3352	-3272	16728	-29	-16	-67	-4960	5176	14112	-36	1	-60	-14672	8904	-312	77	-61	-10	1080	3656	16664	-51	-62	-35	128	138	12
-7980	-5832	13716	-8	5	-45	-16208	-4304	840	35	7	-50	3264	-3456	16656	-46	-8	-46	-4672	6168	13928	-26	19	-59	-14360	8576	-192	20	-32	-21	1328	3800	16360	-45	-48	-42	126	138	12
-7004	-4872	13596	-39	27	-71	-14904	-4208	1080	-40	16	-63	3960	-3568	15808	-62	18	-5	-4920	5592	13944	-1	27	-51	-13944	8288	240	83	-25	-56	1640	3776	16208	-48	-23	-20	124	137	12
-7264	-4960	13248	-58	24	-73	-14568	-4616	1560	-22	9	-82	3920	-4072	15616	-57	33	35	-5104	4824	13616	-44	32	-65	-13768	8616	216	34	-1	-47	1600	3632	16056	-48	6	-3	122	136	12
-7712	-6648	13116	-32	21	-66	-14920	-4968	1288	-13	18	-95	3624	-4312	15504	-47	30	52	-4544	5568	13312	-42	31	-75	-13920	8344	-8	21	30	-53	1272	3160	15888	-41	13	20	120	137	12
-7632	-5356	13856	-21	11	-56	-15248	-5160	976	-10	32	-95	3520	-4640	15720	-31	21	50	-4664	6264	13632	-62	20	-76	-13936	8608	-192	7	40	-42	920	2944	16096	-49	7	26	120	137	12
-7348	-5504	13684	-39	19	-66	-15152	-5200	1136	-7	32	-94	3432	-4912	15720	-7	5	42	-4960	3888	13944	-88	14	-89	-14440	7960	-352	5	31	-34	432	2888	16240	-58	1	31	121	139	12
-7668	-5892	13352	-4	21	-46	-15080	-5416	944	-19	14	-62	3584	-4952	15624	11	-2	28	-5568	6120	14416	-76	19	-82	-14464	8352	-768	47	35	-36	448	2464	16616	-65	-21	32	123	140	12
-7368	-5376	13916	4	7	-46	-15368	-5736	848	16	26	-38	3568	-5272	15912	14	1	13	-3920	6000	14336	-80	12	-72	-14864	8384	-416	39	27	-24	352	2224	16784	-46	-15	23	124	141	12
-7964	-5960	14132	-33	5	-70	-15568	-5768	1280	7	12	-34	3392	-4936	16248	14	-1	-6	-5696	4920	14784	-82	4	-91	-15672	7896	-920	-31	11	-16	-192	2200	17192	-35	-30	19	125	142	12
-7660	-5640	13240	9	24	-37	-15360	-5720	832	12	11	-50	3664	-4880	15704	-10	-6	-18	-6120	3672	15144	-47	18	-85	-15416	7824	-1272	37	-1	-23	104	2424	17144	-24	-42	9	126	137	12
-7064	-5852	13860	3	13	-50	-14864	-5480	992	10	41	-20	3784	-4848	15600	-20	-1	-12	-4560	5856	13936	21	25	-50	-15040	7624	-496	98	-22	-26	808	2088	16632	-15	-28	-12	125	133	12
-7932	-5456	13488	2	28	-48	-15064	-4760	880	62	15	-21	3512	-4864	15512	-18	23	-19	-4376	6256	13336	49	38	-31	-13728	7792	-200	83	-42	14	1088	2072	15752	4	-8	-38	126	131	12
-6908	-6036	13116	6	17	-38	-14824	-4952	680	13	15	12	3720	-4616	15416	-7	40	-23	-4944	6416	12848	34	24	-33	-13456	8000	-312	102	-33	28	1024	2352	15464	28	7	-34	126	130	12
-7792	-5844	13724	30	-2	-42	-14720	-5424	864	22	21	4	3336	-4712	15528	4	41	-26	-5448	5648	13896	-2	-11	-45	-13856	8528	-32	54	-15	45	472	3008	16224	37	15	-30	126	130	12
-6612	-5800	13484	35	4	-24	-15632	-5360	1216	34	8	-5	3408	-4688	15808	8	43	-27	-5768	5872	14032	-43	-3	-53	-14944	8512	-512	-17	-9	41	-104	3272	16792	13	-22	-28	125	135	12
-8000	-7356	12980	29	9	-38	-15528	-5088	760	67	5	-8	3296	-4248	15640	22	8	-35	-4824	7072	14400	-21	-22	-33	-14992	8384	-528	36	-14	20	368	3312	16952	-8	-64	-21	125	138	12
-7420	-5188	13680	23	-9	-42	-15088	-4984	1400	24	7	2	3352	-4296	15408	32	-1	-27	-4640	5000	14328	4	14	-60	-14624	8000	-240	60	-45	20	984	3080	16416	-14	-53	-21	125	140	12
-7980	-5304	13480	28	-7	-30	-14992	-4888	1128	37	14	-4	3656	-4096	16136	25	0	-30	-5592	5800	13888	5	25	-54	-14120	8336	-152	47	-37	30	1152	3136	16200	-14	-20	-34	126	140	12
-7620	-5720	14132	2	-10	-63	-15256	-4800	880	24	23	3	3608	-4136	16048	15	9	-31	-4800	5296	13928	-7	-7	-50	-14600	8360	32	46	-30	23	656	3424	16624	-2	-1	-27	127	136	12
-7804	-6104	13292	14	18	-42	-15392	-5096	936	28	4	-27	3600	-4128	15992	-10	5	-29	-5376	4800	14264	-15	-17	-47	-14896	8880	-160	45	-23	9	400	3528	16440	-6	-26	-21	124	134	12
-6964	-5984	13644	9	0	-40	-15440	-5160	552	38	11	-27	3664	-4104	16152	-15	12	-27	-5184	6024	13776	-24	23	-59	-14944	8704	-400	29	-15	-10	696	3272	16400	-24	-55	-10	123	136	12
-7944	-5372	13748	14	7	-48	-15168	-4672	1168	54	18	-35	3656	-4120	16088	-16	10	-12	-4864	5688	13632	-2	19	-54	-14120	8248	24	60	-15	-8	1256	3056	15816	-20	-44	-10	122	138	12
-6872	-4908	13588	-16	18	-52	-15136	-4560	1104	-2	14	-22	3656	-4144	15408	-14	24	0	-4696	4408	13032	-23	23	-65	-13608	7720	-64	56	-11	-8	1112	3136	15568	-16	-11	-12	120	138	12
-6848	-5936	13516	-20	27	-59	-13872	-4776	1008	-13	7	-30	3672	-4184	14680	-24	38	2	-4976	5904	13056	-5	41	-64	-13160	7808	-608	51	16	-14	1312	2896	15232	-7	12	-10	120	136	12
-7168	-5036	13164	-16	3	-45	-14032	-5160	1000	-5	35	-21	3504	-4336	14952	-12	44	7	-4528	5112	13152	-40	11	-68	-13760	8088	80	66	15	3	760	3056	15696	-11	33	1	122	135	12
-7444	-7024	12756	10	12	-37	-14624	-5216	768	55	28	-45	2904	-4672	15208	-5	36	-4	-5704	5520	13632	-47	23	-81	-14328	8104	-1136	-36	27	-6	56	2760	16200	-28	6	4	125	135	12
-8076	-5108	13016	3	6	-32	-15264	-5104	216	56	38	-45	2664	-4776	15784	0	7	-19	-5264	5728	14216	-60	8	-78	-14856	7944	-968	-4	33	-4	80	2560	16616	-41	-37	2	126	138	12
-7392	-4552	14104	6	-4	-44	-15344	-5264	1072	-15	31	-15	3416	-4896	15752	17	-1	-20	-5264	5288	14280	-47	-6	-65	-15512	8048	-272	63	-5	-10	328	2304	17128	-62	-47	-10	126	141	12
-7752	-5516	13368	20	30	-29	-15728	-5080	992	19	-2	-36	3320	-4968	16208	19	-5	-14	-5896	5352	14336	-12	23	-58	-14968	8048	-1136	25	-8	13	504	1976	16600	-44	-54	-26	126	143	12
-6952	-6460	13124	8	13	-42	-15336	-5120	824	21	16	1	3904	-5032	15784	19	1	-4	-5576	5600	13904	32	31	-47	-14464	7864	-968	103	-19	19	1056	2256	16568	-9	-33	-31	125	137	12
-7820	-6600	13440	24	7	-38	-15192	-5104	1088	11	14	3	3448	-5016	15848	13	11	-7	-5136	5808	14160	21	36	-53	-14240	8408	-632	42	-2	45	624	2304	16480	27	1	-33	125	131	12
-7592	-5552	13584	22	13	-34	-15240	-5296	880	16	28	20	3336	-4856	15928	13	30	-16	-4848	5528	13944	21	27	-51	-14464	8328	-752	36	4	44	296	2776	16024	54	5	-20	123	128	12
-7616	-5240	13140	35	32	-30	-15024	-5144	1104	19	25	23	3440	-4584	15776	11	43	-21	-5568	6488	14088	29	29	-48	-14200	8368	-896	39	-6	46	392	2824	16200	46	6	-15	124	131	12
-7512	-6188	13444	34	14	-41	-15152	-5488	488	44	36	20	3112	-4648	15960	21	44	-28	-5504	5512	14672	0	7	-60	-14880	8408	-896	49	-11	43	256	2896	17096	24	6	-13	126	134	12
-8516	-7836	13632	40	3	-42	-15984	-5624	400	57	13	7	2560	-4688	16552	22	31	-45	-5440	5400	14832	-27	8	-67	-15768	8464	-1040	2	-11	43	-296	3056	17240	-7	-15	-25	127	137	12
-8216	-6348	13944	43	-5	-40	-15688	-5208	440	44	17	4	2936	-4648	16392	25	17	-55	-5136	4576	14824	3	-9	-47	-15800	8176	-832	75	-35	12	120	3144	17472	-24	-42	-26	127	139	12
-7852	-5932	13600	41	11	-34	-15264	-4808	872	14	-2	3	3456	-4408	15608	25	22	-50	-5024	5728	14048	30	32	-51	-14728	8408	-728	61	-50	13	848	2696	16600	-18	-24	-26	127	139	12
-7988	-5704	13336	37	-1	-34	-14824	-4856	664	33	9	6	3488	-4128	15904	22	23	-27	-5368	6136	13280	27	25	-36	-13872	8352	-488	77	-31	13	952	2504	16328	6	2	-24	126	138	12
-7844	-5920	13524	38	6	-31	-15328	-4848	672	34	13	-6	3192	-4352	15816	8	20	-23	-5472	5264	14104	14	-3	-48	-14000	8144	-400	57	-10	23	616	2936	16024	28	18	-15	126	135	12
-7448	-5528	13156	28	11	-29	-15384	-4936	624	21	3	-11	2928	-4480	15696	14	18	-20	-5008	6056	13600	7	-2	-45	-14248	8160	-464	21	-4	22	416	3008	15944	32	-1	-5	123	133	12
-7512	-4908	13636	11	-9	-48	-14816	-4976	1376	7	7	-1	3296	-4416	15344	20	25	-25	-4768	4672	13488	-1	39	-68	-13896	8080	-608	13	-21	25	504	2880	15768	17	-24	3	122	136	12
-8180	-6820	12964	19	5	-54	-14456	-4680	560	49	10	9	3208	-4136	15456	24	17	-12	-5280	5744	13632	-10	-2	-64	-14080	8264	-792	27	-8	22	408	2664	16368	7	-42	9	123	138	12
-7784	-6744	13948	29	-22	-50	-15664	-5352	376	31	13	-9	2752	-4416	16496	33	-4	-14	-5240	5176	14688	-61	-40	-61	-15384	8760	-584	-14	-4	31	64	3008	17256	-7	-40	-1	125	138	12
-7916	-6296	13764	41	-9	-36	-16136	-5376	480	47	-11	-42	2824	-4768	16560	20	-23	-32	-5560	5512	14952	-38	-10	-65	-16064	8528	-1256	-24	-17	18	-288	2992	17456	-22	-68	-14	125	137	12
-7496	-5748	13960	14	-18	-62	-15520	-5112	864	29	-5	-16	3584	-4496	16088	17	-25	-35	-4904	4304	14048	21	15	-51	-15160	8088	-688	57	-49	-1	504	3048	16816	-11	-66	-18	125	136	12
-7940	-5648	12972	2	10	-54	-14544	-4608	1160	20	-13	-2	3592	-4080	15200	3	-7	-24	-5880	5336	13240	53	41	-47	-13544	8000	-984	71	-39	-1	1000	2424	15768	14	-32	-20	125	137	12
-7748	-6012	13344	30	-12	-50	-14672	-5136	784	9	13	-1	3728	-4464	16104	-1	8	-19	-4792	5624	13584	10	-11	-37	-13776	8672	-120	90	-29	18	816	2872	16384	27	14	-20	126	136	12
-7992	-6296	13688	29	-12	-42	-16072	-5536	872	49	5	-24	2864	-4704	16840	0	5	-37	-5576	6048	14672	-29	-10	-72	-14904	8960	-920	-30	-24	34	-168	3256	16936	19	-4	-11	127	134	12
-7688	-6296	13892	10	-11	-57	-16352	-5264	528	55	9	-25	3032	-4752	16552	8	2	-48	-4760	5112	14344	-37	-1	-67	-15528	8072	-912	-3	-21	7	216	3240	17208	-5	-63	-3	126	136	12
-8516	-5600	14180	-2	-4	-70	-14888	-4824	896	9	-1	0	3504	-4424	15960	14	10	-46	-4704	5208	13776	2	20	-66	-14864	8096	-408	36	-38	-16	824	2888	16352	-35	-69	-6	123	142	12
-7840	-5740	13284	24	10	-52	-14592	-4456	776	35	11	-7	3776	-4144	15376	1	29	-27	-4472	5240	13136	9	20	-51	-13520	7784	-320	97	-22	-5	1680	2536	15792	-20	-18	-25	123	143	12
-7060	-5356	13036	10	10	-54	-14672	-5024	776	4	16	-17	3296	-4224	15416	-9	34	-15	-5096	4664	13400	-10	0	-64	-13720	8032	-280	61	-7	12	1064	2752	15872	4	45	-24	124	139	12
-7628	-5552	12836	18	10	-45	-15008	-5416	552	22	10	-47	2776	-4608	15384	-21	33	-16	-5424	5816	13800	-22	-3	-53	-14632	8168	-480	18	10	0	-32	2776	16456	3	33	-6	125	135	12
-8132	-5768	13276	22	0	-42	-15208	-5216	392	28	7	-37	2848	-5000	15920	-6	14	-17	-5352	5496	14752	-45	-3	-68	-15328	8656	-904	-15	9	-1	-376	2536	17240	-7	-26	14	126	135	12
-8100	-6672	14072	27	-21	-55	-16024	-5512	520	44	3	-31	2776	-5056	16472	28	-32	-11	-4296	5512	14424	-19	0	-64	-15672	8016	-608	-2	-3	-6	40	2200	17112	-14	-69	27	124	138	12
-7696	-5584	13832	22	-4	-45	-15816	-4944	760	-4	-15	-33	3184	-5200	16032	40	-32	-13	-5592	3792	14544	-21	16	-75	-14720	7720	-1048	27	-28	-5	720	2304	16768	-22	-75	3	122	141	12
-7420	-6208	13188	-6	6	-61	-14840	-5600	880	-9	-12	-7	4032	-4712	16048	37	-8	-13	-4752	4976	14344	-7	-3	-48	-14800	7600	-720	80	-25	2	1272	2256	16552	-17	-33	-12	120	139	12
-7908	-6212	12972	10	16	-49	-14672	-5736	1408	-3	-3	-18	3872	-4744	15664	4	18	-12	-5464	5752	14240	1	21	-62	-14720	7808	-704	47	-25	19	688	2296	16648	4	-9	-27	123	136	12
-7724	-6004	13192	11	2	-49	-15040	-5768	808	82	25	-20	3608	-4936	15864	-9	13	-12	-4904	4608	13888	-16	2	-54	-15040	8072	-704	25	-11	16	760	2488	16768	20	-10	-20	124	133	12
-7704	-4720	13160	33	13	-39	-15128	-5328	680	37	23	-25	3416	-5064	15664	-11	13	-13	-6544	4352	14720	-5	-9	-60	-14824	8224	-688	35	-11	13	360	2520	16728	21	-11	-10	126	134	12
-7192	-6272	13260	33	0	-42	-15624	-5504	640	26	17	-15	3240	-5360	16024	13	13	-20	-5792	5112	14360	-6	12	-68	-15064	7928	-952	14	-6	22	88	2648	16736	8	-24	-16	127	135	12
-7592	-5932	13404	29	5	-47	-15280	-5224	496	32	13	7	3288	-5136	15872	24	14	-31	-5360	5424	14048	16	13	-52	-14536	7848	-912	65	-24	15	392	2384	16552	0	-27	-26	126	137	12
-7932	-6172	13372	29	5	-46	-15048	-5320	688	28	16	16	3240	-4856	15400	22	21	-37	-5016	5144	13080	30	16	-46	-14136	7848	-736	85	-30	35	600	2376	16096	0	-17	-38	125	138	12
-7408	-5460	13540	50	0	-34	-14792	-5168	936	51	21	16	3176	-4824	15448	25	30	-41	-5056	5200	13400	49	17	-51	-13656	7952	-504	89	-35	42	536	2472	15864	26	3	-38	126	139	12
-7336	-5844	13280	43	-9	-32	-15080	-5032	312	73	13	27	2896	-4736	15560	29	30	-46	-5512	5360	13464	20	14	-67	-13904	8360	-928	10	-14	55	296	2560	16040	47	7	-27	127	137	12
-7716	-6328	13024	39	1	-42	-15080	-4952	160	56	8	27	2992	-4368	15728	35	13	-48	-4792	5576	14248	-1	-15	-52	-14592	8032	-504	30	-7	43	208	2880	16344	53	-9	-10	127	136	12
-7700	-6212	12920	31	-4	-49	-15056	-5160	808	12	-9	12	2944	-4456	15776	31	2	-51	-5960	5256	14680	-2	-5	-62	-15408	8048	-1168	-20	-22	31	-24	2704	16968	11	-45	-18	126	136	12
-8612	-6288	13496	44	-27	-49	-15144	-5160	512	23	-8	7	2880	-4744	16472	19	-13	-47	-5144	4600	14592	-14	-17	-59	-15656	8080	-712	51	-43	33	464	2720	17640	-12	-75	-32	125	138	12
-8244	-7316	14012	43	-9	-52	-15976	-5408	760	42	3	-12	3200	-4848	16440	25	-27	-40	-4704	5600	15168	14	-14	-55	-15992	8408	-576	72	-61	26	904	2544	17704	-25	-73	-51	124	139	12
-7872	-6160	14052	19	4	-63	-15944	-5376	744	38	-14	-22	3544	-4928	16216	18	-8	-32	-4664	4824	14224	28	22	-62	-15280	7832	-832	24	-52	28	1144	2544	16672	-10	-51	-54	124	137	12
-7628	-5076	13040	11	26	-58	-14568	-5072	976	-8	-6	-5	4080	-4936	15136	9	12	-8	-5448	5216	13552	57	42	-58	-13744	7712	-520	88	-23	6	1576	2648	15880	25	-16	-28	122	136	12
-7692	-6552	12700	1	19	-64	-13976	-5528	712	-4	18	-7	4104	-4824	15472	9	32	16	-4704	5768	13568	13	4	-50	-13968	8320	-120	67	7	13	1104	2496	16192	41	34	-1	122	135	12
-7524	-5896	13076	31	0	-50	-15216	-5864	912	25	9	-37	3000	-5320	15952	13	34	11	-6048	5864	14712	-37	-2	-88	-14720	8528	-720	-21	8	37	160	2920	16816	32	25	3	124	134	12
-7988	-6256	13516	32	-16	-46	-16168	-5912	456	68	26	-30	2984	-5304	16016	17	14	-16	-5512	4848	14640	-34	-15	-79	-15688	7968	-576	21	-1	14	-232	3056	17104	-2	-25	1	125	136	12
-7464	-6216	13080	25	23	-45	-15024	-5488	728	18	17	-6	3208	-5104	15264	29	20	-38	-5744	4648	14000	1	25	-69	-14696	7488	-896	74	-26	-12	432	2464	16136	-35	-49	-13	125	139	12
-7416	-6344	12484	21	20	-61	-13800	-5088	832	26	20	19	3744	-4480	14616	28	40	-49	-4528	4752	13080	39	29	-55	-13512	7392	-512	120	-34	-1	760	2312	15976	-37	-47	-18	124	141	12
-7540	-6616	12772	55	0	-42	-14216	-4976	976	46	32	20	3416	-4168	15216	5	58	-63	-5408	5992	12840	35	23	-58	-13184	7920	-624	83	-29	29	688	2120	15336	13	32	-43	125	140	12
-7660	-5684	12960	71	3	-18	-15048	-4840	536	91	37	10	2880	-4592	15936	-6	44	-67	-5432	6616	14128	-29	-10	-70	-14088	8696	-720	32	-5	63	24	2496	16472	42	20	-35	128	133	12
-7772	-7008	13708	63	-12	-47	-16240	-5400	728	67	35	21	2632	-4552	16448	7	8	-73	-5144	5208	14480	-25	-22	-68	-15728	8520	-664	-21	-3	39	-728	2880	17064	29	-34	-26	128	131	12
-7572	-6220	13808	69	8	-33	-16008	-4704	720	71	14	-1	3176	-4600	16128	22	-10	-64	-4768	5216	13776	8	31	-71	-15272	8096	-1136	20	-32	29	32	2688	16824	3	-88	-35	126	135	12
-7864	-5148	13768	21	14	-53	-14936	-4376	536	48	12	25	3416	-4208	15808	35	-6	-45	-5336	4240	13936	25	12	-64	-14264	7600	-408	133	-50	24	1208	2800	16104	-6	-73	-47	124	139	12
-7528	-5516	13172	22	24	-44	-14960	-5144	928	-6	7	4	3376	-4136	15832	14	9	-27	-5680	5488	14112	6	16	-66	-14216	8056	-280	106	-47	37	1288	2824	16680	-6	-17	-72	123	140	12
-8076	-5484	13116	15	17	-53	-15216	-5752	336	37	19	-28	3056	-4520	16456	-13	17	-34	-5152	4920	14680	2	-5	-66	-15256	8304	-592	50	-18	32	648	3272	17000	0	-3	-67	125	138	12
-7948	-6852	13992	2	3	-71	-15864	-5784	872	56	18	-37	3024	-4768	16496	-14	11	-31	-4920	4312	14720	-7	-2	-75	-15976	8536	-288	3	-28	4	184	3152	17472	-16	-19	-36	124	137	12
-8552	-7644	13304	1	26	-66	-15520	-5200	448	47	10	-65	3216	-4824	16256	-13	3	-19	-5480	4984	14560	-26	13	-77	-15456	8264	-896	0	-11	-16	664	2760	17120	-31	-49	-13	122	139	12
-7916	-7104	13532	3	15	-75	-14912	-5640	368	8	20	-45	3720	-4952	15776	-6	-1	6	-5448	4240	14400	-25	0	-75	-15240	7800	-528	89	-1	-40	1184	2432	17112	-36	-32	0	121	142	12
-7900	-7088	13008	-4	25	-69	-15512	-5768	936	-6	6	-59	3408	-5456	16048	-3	10	10	-5520	4008	14576	-46	20	-94	-14920	7952	-1152	26	4	-23	880	2248	16832	-44	-8	-5	123	143	12
-7388	-6716	13560	6	9	-77	-14952	-6168	648	1	23	-53	3560	-5544	15560	-5	24	4	-4824	4880	14104	-24	26	-86	-14744	7120	-344	100	-5	-25	752	2272	16312	-27	5	-2	122	140	12
-7412	-6528	12816	-3	46	-74	-14440	-5880	1016	32	24	-28	3640	-5240	15232	-5	42	-10	-5904	4192	13320	-5	19	-85	-14216	8088	-992	54	-2	-30	592	1856	16128	-16	14	9	125	135	12
-8008	-7212	12808	24	21	-64	-14496	-5624	224	63	37	-30	3200	-5144	15112	-4	40	-17	-5160	4760	13792	-11	-4	-86	-14344	7608	-888	44	19	-6	272	2000	16016	12	16	12	125	133	12
-7592	-5568	13188	38	14	-42	-15072	-5552	440	44	33	-14	2872	-5288	15960	5	27	-33	-5744	5344	14192	-45	5	-91	-14664	7752	-1016	5	15	3	-136	1992	16256	10	0	3	126	134	12
-8160	-5400	13340	36	11	-57	-15256	-5592	384	53	29	-23	2792	-5064	15704	0	13	-52	-5240	4728	14160	-6	9	-87	-14944	7232	-1152	32	-17	6	-128	1776	15968	7	-30	-14	126	134	12
-7264	-6148	13632	27	11	-72	-14760	-5360	576	36	23	11	3000	-4992	15408	22	20	-71	-4912	4608	13728	4	-11	-78	-14760	7680	-1176	83	-48	15	-152	1696	16304	-14	-52	-45	127	136	12
-7968	-6952	12972	59	16	-55	-15008	-5584	312	90	9	2	3024	-4856	15576	11	13	-79	-4704	6184	13744	22	-19	-65	-14664	7624	-856	87	-48	27	256	2040	16008	-5	-51	-70	127	136	12
-6992	-5220	12840	37	14	-64	-15088	-5104	384	92	7	3	3016	-4736	15832	1	10	-80	-6216	5112	14568	3	-28	-76	-14840	7816	-912	75	-54	36	264	2320	17072	-1	-51	-77	128	136	12
-7712	-6648	13380	18	-3	-82	-15576	-5768	328	63	1	-17	2928	-4872	16416	-3	-4	-77	-6112	5216	15144	-12	-40	-74	-16008	7984	-1128	48	-68	29	-64	2600	17736	-9	-59	-82	127	136	12
-8576	-7616	13688	38	0	-76	-16120	-5712	632	72	1	-43	2912	-4888	16352	-17	-14	-73	-4696	6232	14800	6	-15	-66	-16152	8032	-608	70	-83	19	320	2600	17384	-25	-94	-81	124	136	12
-8800	-6460	13768	13	15	-86	-15552	-5496	728	94	7	-37	3528	-5096	16328	-21	-15	-61	-5840	4680	14808	20	-1	-79	-15056	8072	-752	104	-82	-1	1384	2672	16992	-24	-85	-80	124	138	12
-8020	-6500	13420	9	9	-84	-15680	-5592	456	54	18	-38	3560	-5192	16536	-28	-6	-44	-5936	4168	15016	-7	-7	-82	-14888	8120	-272	89	-48	-7	1528	2696	17152	-28	-41	-66	124	139	12
-8188	-7556	13712	3	7	-93	-15792	-6328	416	28	13	-61	3296	-5512	16544	-35	-2	-35	-5240	4192	14880	-26	-19	-93	-15728	8120	-656	27	-20	-10	864	2784	17136	-32	-20	-51	123	137	12
-7852	-7624	13404	-14	25	-102	-15424	-6048	216	54	15	-78	3416	-5456	15728	-44	16	-23	-4792	4072	14544	-18	-13	-95	-15560	7400	-216	74	-18	-47	864	2808	16968	-33	-30	-17	120	137	12
-7272	-6544	12412	-16	50	-86	-14328	-5584	544	22	3	-75	3656	-5448	14816	-41	32	-7	-5552	4256	13640	-7	21	-104	-14264	7408	-584	59	-6	-70	1480	2080	15856	-39	-13	4	120	140	12
-7284	-6668	12324	-26	32	-106	-13456	-5864	8	42	29	-59	3664	-5256	14768	-29	44	-4	-5584	4832	13792	-18	3	-96	-13792	7184	-336	105	14	-67	1136	1624	15784	-33	21	14	121	140	12
-7928	-7408	12660	-6	9	-95	-14696	-6304	592	37	27	-68	2832	-5712	15488	-21	31	-19	-5840	5144	14448	-67	-19	-116	-14832	7720	-960	8	13	-22	64	1624	16696	-40	31	12	123	136	12
-7992	-7028	13916	57	-22	-68	-15856	-6296	368	61	25	-78	2736	-6216	16040	-3	9	-40	-5000	4728	14392	-59	-18	-117	-15952	7456	-912	26	-15	-16	-664	1600	17136	-42	-27	-1	125	134	12
-7996	-6368	13760	18	11	-88	-15824	-5784	152	89	6	-31	3064	-6016	15792	15	-8	-66	-5536	4064	14248	-25	-23	-100	-15528	7224	-1280	41	-38	-19	8	1296	16800	-28	-78	-5	125	137	12
-7528	-5756	12724	17	33	-87	-14448	-5528	344	37	-5	-5	3704	-5352	15136	23	1	-64	-5176	3888	13696	1	-6	-86	-14608	6768	-888	96	-39	-18	736	1104	16008	1	-67	-22	124	138	12
-7436	-6312	12692	21	21	-95	-13800	-5928	944	15	3	6	3808	-5088	14776	1	21	-65	-5880	3592	13864	5	-6	-96	-14328	6648	-984	105	-48	-2	936	1344	16160	15	-25	-48	123	136	12
-7668	-6580	11792	24	41	-78	-14224	-6048	544	88	18	-12	3176	-5160	15024	-30	29	-78	-5608	4512	14344	4	-30	-83	-14552	6832	-968	118	-44	25	728	1776	16568	18	-19	-76	125	129	12
-7108	-8136	12808	40	9	-89	-14904	-6480	248	85	34	-18	3160	-5144	15744	-42	17	-85	-4808	5232	14288	-1	-39	-81	-15776	7488	-688	94	-53	16	192	1888	17456	-9	-43	-84	129	131	12
-8444	-6396	13196	71	1	-59	-15784	-5936	120	167	29	-47	2888	-5696	16416	-38	4	-98	-5072	5072	14536	6	-14	-88	-15760	7896	-1056	49	-68	36	384	2000	17168	-27	-82	-94	129	134	12
-6808	-5968	14084	48	-4	-79	-15560	-5360	456	77	31	-11	3520	-5760	15928	-5	9	-81	-5136	4320	14328	18	4	-88	-15208	7344	-384	117	-80	14	1352	2240	16704	-28	-75	-91	125	140	12
-7788	-6156	12376	7	36	-93	-14744	-5448	704	19	1	-8	3688	-5160	15344	-1	23	-59	-6000	4472	13576	40	3	-68	-13976	7392	-536	88	-60	19	1552	2008	16136	-13	-32	-80	123	142	12
-7544	-6988	12440	35	24	-84	-14048	-5896	1128	-4	18	-4	3728	-5328	15008	4	43	-42	-5040	5848	14008	41	1	-70	-14096	7464	-296	118	-34	21	1368	2008	16056	14	12	-64	123	138	12
-7812	-5896	13052	45	5	-73	-14760	-6176	1128	105	41	-13	3120	-5504	15736	7	44	-46	-5496	4464	13928	11	19	-98	-14104	7608	-640	46	-22	49	840	2192	16048	34	20	-50	125	133	12
-7952	-6272	12908	67	22	-57	-15048	-5704	248	102	48	-5	3008	-5488	15912	14	32	-55	-5656	5048	13808	-1	8	-100	-14632	7760	-1008	31	-6	28	496	2304	15792	36	15	-47	126	133	12
-8340	-6988	13344	52	11	-72	-15264	-5896	80	68	44	7	2992	-5552	15792	17	25	-61	-4960	5304	14936	-20	-23	-98	-15824	7984	-728	35	5	26	88	2168	17344	1	-38	-24	126	137	12
-7920	-7920	13856	56	3	-67	-16104	-6096	696	44	17	-12	2944	-5360	16536	36	2	-64	-5400	3848	15552	-47	-18	-111	-16568	7800	-720	43	-33	27	-24	2272	17744	-34	-68	-42	123	141	12
-7936	-7404	13436	35	17	-79	-15904	-6304	336	48	5	-19	3160	-5608	16168	19	-2	-63	-5744	3848	15768	-1	12	-108	-16320	7256	-1128	64	-42	5	792	1976	18008	-37	-81	-53	121	143	12
-7964	-6976	13636	25	14	-88	-15128	-6360	616	41	18	-12	3768	-5608	16032	1	8	-59	-5168	4224	14792	30	2	-82	-15912	7472	-568	111	-52	4	1048	1640	17440	-19	-42	-57	121	139	12
-8136	-6840	13392	28	21	-76	-15208	-5792	512	84	20	-28	3616	-5632	15800	-10	21	-44	-5472	4312	14832	43	14	-85	-15008	7400	-504	51	-36	21	1088	1592	16584	29	4	-45	122	133	12
-7080	-6360	12700	36	22	-69	-14608	-5792	664	41	15	-16	3512	-5704	14936	-11	30	-29	-4912	5272	13832	47	28	-68	-14408	7272	-576	89	-30	14	848	1648	15952	59	21	-33	124	129	12
-8100	-7224	13104	20	3	-93	-14512	-6280	536	49	20	-1	3040	-5664	15656	18	33	-30	-6136	5056	14600	9	-11	-87	-14616	7728	-952	70	-25	31	304	1776	16784	51	12	-23	126	130	12
-8256	-8368	13776	70	-19	-80	-15768	-6656	360	83	12	-15	2816	-6008	16488	36	19	-48	-4480	3744	15144	-24	-37	-97	-15872	7712	-960	19	-34	50	-344	2360	17280	27	-28	-34	125	133	12
-7748	-7048	13780	54	4	-70	-15880	-6128	696	79	6	-3	3024	-5912	16128	39	9	-84	-5312	4624	14976	-13	-25	-87	-16096	7440	-1112	34	-50	24	72	2328	17216	-13	-88	-49	124	138	12
-7844	-7296	12740	39	22	-82	-14824	-5736	688	64	-4	10	3608	-5208	15240	21	8	-89	-4936	4632	14248	44	-6	-73	-14920	6776	-944	113	-66	4	1208	1816	16392	-24	-81	-62	124	143	12
-7540	-6008	13116	48	1	-76	-13768	-5744	1184	49	12	13	3792	-4648	15032	7	23	-83	-5104	6200	13376	40	-3	-73	-14224	7536	-216	129	-72	27	1352	1632	16136	-7	-17	-82	126	144	12
-8760	-5912	12532	75	10	-55	-14632	-5752	208	141	29	-11	3008	-5096	15120	-18	24	-79	-5056	3832	13168	31	3	-84	-14152	7312	-592	76	-43	50	512	1608	16080	34	9	-78	128	135	12
-7328	-6152	13576	93	-12	-55	-15152	-5368	152	76	31	5	2800	-5472	15608	-5	20	-84	-5368	5416	13904	58	-10	-67	-14496	7960	-504	83	-37	44	-32	2064	16136	55	0	-61	129	130	12
-7892	-6560	13236	72	-10	-68	-15464	-5184	376	96	3	9	2568	-5552	15696	30	5	-80	-5256	4816	13968	36	-5	-86	-14440	7552	-880	-3	-48	64	-72	2112	16208	58	-32	-37	128	132	12
-7284	-6320	12728	30	6	-90	-15512	-5416	152	95	0	10	2992	-5344	15512	50	0	-69	-5536	5096	14272	26	-29	-82	-14944	7200	-1096	30	-49	39	648	2120	16384	42	-72	-32	124	137	12
-8144	-7768	12928	40	-13	-95	-14600	-6152	464	32	-17	3	3136	-5304	15296	53	-4	-69	-5312	4928	14704	-12	-39	-92	-15408	7536	-888	42	-63	44	680	2192	17232	-1	-80	-45	122	141	12
-8376	-8008	13376	55	-17	-86	-15360	-6312	288	91	2	-20	3136	-5208	16096	36	-11	-66	-5136	5048	14240	-2	-17	-86	-16040	7536	-752	69	-68	28	856	2184	17352	-16	-82	-69	123	140	12
-8752	-7492	12936	39	11	-83	-15424	-5912	248	118	5	-19	3520	-5104	16128	11	-17	-69	-5304	3072	15248	-8	-38	-89	-16184	7464	-592	108	-58	26	1192	2120	17744	-21	-69	-75	124	136	12
-7416	-5192	13256	51	12	-72	-15136	-6168	912	30	-2	-36	3792	-5736	16216	-16	-4	-59	-5648	4320	15296	28	4	-82	-15704	7896	-488	79	-56	14	1136	1888	17064	-2	-32	-74	125	134	12
-7800	-6604	13200	23	4	-99	-15224	-5968	696	43	-1	-37	3688	-5672	15608	-14	12	-46	-4944	3752	14512	45	23	-95	-14968	7328	-624	65	-41	13	1280	1992	16536	20	-16	-66	124	136	12
-7448	-6884	13148	24	24	-91	-14696	-6072	784	27	22	-11	3888	-5912	15608	2	38	-32	-5512	3776	13648	38	17	-100	-14504	7256	-968	61	-29	16	1064	1872	16160	17	4	-43	124	136	12
-7840	-7008	13036	45	31	-66	-14656	-6400	216	39	31	-15	3656	-5912	15328	4	40	-29	-5168	4560	14776	-16	-27	-92	-14944	7600	-624	102	-5	28	480	1880	16584	22	3	-30	124	136	12
-7204	-6740	13040	18	21	-81	-15344	-6784	600	62	20	-6	3184	-5904	15600	19	36	-45	-5576	4288	15248	-32	3	-115	-15728	7328	-928	32	-6	18	80	1944	17040	4	-12	-27	123	136	12
-8296	-5564	12356	28	26	-75	-14648	-6416	232	84	29	-21	2960	-5496	15408	13	31	-65	-5928	3208	14968	-13	-19	-112	-14960	7176	-1664	33	-30	4	472	1600	16312	-6	-42	-35	126	139	12
-8032	-6128	13404	31	-5	-90	-14200	-5752	232	89	68	25	3400	-5280	15208	16	33	-75	-4664	5320	13840	33	6	-99	-14688	6960	-736	118	-43	19	816	1472	16512	-1	-13	-52	128	139	12
-8324	-7196	13200	58	18	-76	-14960	-5720	496	91	34	7	2712	-5176	15600	10	40	-87	-6136	3520	13472	13	-1	-99	-14640	7432	-752	58	-51	54	96	1800	16352	8	1	-75	128	136	12
-7392	-7016	13016	79	29	-66	-14984	-5632	-88	72	23	6	3080	-5200	15608	2	39	-99	-5096	4592	14864	24	-39	-75	-15048	7456	-880	144	-43	37	32	1840	16800	29	-16	-76	128	134	12
-7720	-6148	13160	49	3	-80	-15552	-6088	936	52	2	13	2944	-5240	16304	7	19	-95	-6432	4960	15104	15	-6	-94	-15736	7816	-1000	39	-65	51	-272	2024	17280	12	-45	-82	128	134	12
-9052	-7856	13460	53	10	-90	-16000	-6064	104	131	16	-12	2848	-5280	16400	13	1	-95	-5136	5672	14792	27	-35	-85	-15912	7544	-1168	57	-64	42	304	2296	17240	2	-99	-83	127	136	12
-8168	-5904	13932	58	5	-80	-15976	-5640	696	73	14	2	3280	-5272	16528	6	-9	-83	-4496	4792	14736	28	-23	-76	-15672	7736	-96	138	-92	32	1152	2320	16856	-8	-93	-99	123	140	12
-7284	-5908	12944	13	29	-107	-15768	-5624	616	77	10	-8	3512	-4920	15432	-2	17	-75	-5048	2776	13632	34	19	-89	-14184	6880	-312	119	-92	21	1752	2336	15920	1	-40	-98	122	142	12
-7292	-6264	11748	-12	54	-116	-13192	-5632	768	16	15	-8	3616	-4704	14464	-22	49	-56	-5912	3368	14064	21	12	-103	-13744	6992	-600	121	-46	-3	1960	2312	15416	10	-26	-94	123	138	12
-7652	-8704	12264	41	6	-98	-13800	-6864	144	53	36	-50	3256	-5280	15544	-38	52	-46	-4544	4592	15376	-31	-37	-107	-15216	8120	-96	60	-10	0	696	2416	17240	-7	31	-40	125	132	12
-8592	-7392	14000	65	-34	-82	-15816	-6968	664	105	42	-90	2424	-6016	16552	-31	17	-57	-5504	5224	15048	-29	-5	-131	-16552	8008	-880	-80	-12	-10	-120	2376	17488	-39	-22	-29	127	135	12
-8752	-6364	13732	44	11	-90	-16632	-5680	-64	146	40	-74	3064	-6320	16360	-15	-10	-63	-5072	3744	15080	-31	-40	-116	-16064	7360	-1104	40	-26	-30	680	1768	17184	-59	-94	-9	127	140	12
-7060	-7264	13820	34	19	-99	-15472	-5752	592	-31	0	-26	3080	-6368	16320	3	-15	-57	-4856	4472	14224	28	-6	-101	-15024	7088	-480	122	-33	-45	1376	976	16392	-52	-54	-23	124	146	12
-7072	-5420	12400	22	36	-84	-14248	-5832	832	23	-11	-21	3816	-5872	14472	19	32	-33	-5072	5512	12896	36	47	-95	-13416	6384	-672	108	-18	-8	1424	1000	15944	-43	-38	-26	121	143	12
-7680	-6104	11660	3	41	-99	-13232	-6248	560	47	26	8	3536	-5488	14272	7	51	-40	-5528	5064	13432	9	14	-109	-13416	6480	-1232	129	-9	12	1064	1128	15624	44	48	-31	124	136	12
-7768	-7932	12368	63	6	-81	-14288	-7096	520	74	46	-18	2800	-5744	15408	-5	36	-50	-5824	6104	14912	-19	-33	-99	-13472	6792	-1016	139	-14	20	-232	1648	16992	43	43	-25	127	123	12
-8796	-7020	13672	53	-3	-81	-15784	-6912	168	145	38	-36	2088	-5968	16592	5	6	-86	-6176	2760	15096	-68	-24	-143	-17168	7384	-1304	-87	-22	32	-1232	1880	17816	-1	-59	-35	131	130	12
-8684	-8644	13544	82	10	-79	-15744	-6112	-352	131	34	-24	3072	-5984	16368	3	-14	-98	-4648	4632	15264	-16	-24	-96	-16784	7200	-1280	90	-55	-6	104	1464	17960	-31	-130	-52	127	138	12
-8012	-6756	13376	49	12	-99	-15232	-6128	488	36	18	8	3400	-5928	15888	16	-8	-89	-5376	4352	14640	37	9	-100	-15592	6712	-704	138	-87	3	1272	1096	16736	-42	-92	-85	124	145	12
-7216	-5360	12424	73	23	-71	-14440	-6360	912	75	9	0	3792	-5928	14808	-2	38	-81	-5272	5840	13240	129	30	-70	-13712	6352	-992	157	-67	27	1800	760	15464	7	-5	-113	123	139	12
-7240	-7256	12536	47	25	-82	-14128	-6096	744	62	11	-2	3912	-5672	15096	2	61	-80	-5824	4832	13704	60	-16	-88	-13720	7296	-424	160	-60	66	1288	1552	16144	62	47	-91	126	131	12
-8780	-7988	12516	85	12	-66	-14824	-6624	528	91	10	7	2776	-5744	15512	8	46	-80	-6048	5416	14856	0	-7	-118	-15360	7944	-1184	-18	-13	66	-272	2072	17080	77	31	-60	129	125	12
-8768	-7300	13220	87	2	-71	-15520	-6736	-456	131	44	-9	2752	-5712	16248	14	13	-84	-4728	4344	15384	0	-46	-100	-16888	7688	-1144	10	-6	37	-200	2264	17800	40	-50	-46	128	132	12
-7452	-7480	13520	64	26	-81	-15824	-5896	760	80	25	1	3224	-5704	16360	38	12	-86	-5760	5496	15376	17	-4	-109	-16368	7144	-1048	73	-61	19	624	2240	17448	-23	-100	-60	126	140	12
-7188	-6952	12940	69	33	-81	-15240	-6008	400	75	17	0	3704	-5632	15672	28	27	-84	-5056	5136	14800	75	6	-89	-14896	6680	-488	213	-72	8	2024	1472	16544	-38	-82	-90	121	148	12
-7440	-7868	12568	31	42	-103	-14280	-6088	1288	56	25	25	3752	-5072	15312	10	56	-80	-5608	3920	14192	36	16	-123	-14256	7128	-816	113	-64	40	1760	1520	16416	-21	9	-113	121	144	12
-8040	-7564	13140	79	13	-94	-14560	-6616	400	127	54	-20	3248	-5560	15392	-19	54	-74	-4488	4424	14464	31	-25	-97	-15168	7240	296	105	-23	41	664	1808	16576	36	42	-95	123	132	12
-7380	-5492	12500	84	39	-54	-15104	-5872	840	95	46	-12	2744	-5848	15432	-23	42	-76	-6064	5072	14592	35	13	-109	-14864	7992	-1088	17	-23	34	-232	1888	16512	52	10	-60	125	128	12
-7608	-6060	13188	57	2	-101	-14648	-5944	32	115	50	5	2808	-5696	15672	17	29	-66	-5080	6336	15176	34	-11	-107	-14976	7608	-928	52	-21	22	24	1768	17000	47	-32	-31	126	131	12
-8188	-6548	13200	34	2	-93	-15856	-6184	408	50	19	-1	2624	-5560	16496	34	5	-67	-5848	6224	15224	6	-11	-113	-15840	7592	-1320	-5	-42	39	-96	1720	17496	1	-67	-49	126	138	12
-8620	-7640	14152	36	-3	-119	-15568	-6296	272	64	16	-6	2832	-5592	16368	44	-2	-88	-5384	4504	15056	-16	-21	-126	-16496	6808	-1152	67	-79	32	256	2192	17456	-29	-101	-84	123	142	12
-8776	-7092	12928	33	26	-110	-15280	-6104	624	108	14	-17	3392	-5400	15584	6	1	-98	-5472	4456	14760	23	-24	-101	-15856	6944	-1016	181	-103	15	1176	1792	17112	-43	-100	-110	123	142	12
-7712	-6928	13212	46	27	-105	-14768	-6224	760	94	24	-24	3912	-5176	15672	-25	28	-95	-5552	2872	15192	24	-15	-109	-15088	7368	72	197	-90	18	1512	1944	16880	-21	-42	-122	123	139	12
-7872	-7056	12032	43	34	-91	-14888	-6128	1016	104	19	-44	3376	-5288	15312	-55	35	-79	-4664	5232	14368	53	27	-111	-14384	7440	-760	36	-38	19	1216	1728	16064	16	-8	-110	123	134	12
-7628	-6404	13088	16	9	-113	-14272	-6136	712	60	64	-25	3752	-5600	15400	-49	40	-63	-4656	5600	14264	23	-10	-109	-14952	7456	-680	67	-38	-4	944	1856	16672	15	-2	-79	124	132	12
-8304	-8004	13028	18	24	-117	-15040	-6424	744	85	41	-53	3024	-5936	15760	-31	40	-52	-5088	3696	14176	-25	-7	-139	-15224	7272	-984	-6	-35	18	160	2136	16840	-15	-15	-65	125	132	12
-8008	-6260	13216	36	18	-94	-14952	-6408	-136	66	33	-49	2992	-6224	15968	-15	21	-67	-5208	4288	14776	-34	-38	-117	-15680	7432	-816	123	-45	-17	528	1912	17136	-45	-60	-57	126	139	12
-8408	-6496	13656	43	3	-101	-15440	-6880	576	84	21	-45	2728	-6288	16032	-4	1	-84	-5128	4720	14128	-19	-10	-122	-15656	7560	-720	89	-62	-18	680	1672	16816	-56	-72	-63	125	142	12
-8852	-7152	13280	41	18	-103	-15352	-6328	96	135	34	-32	3112	-5784	16024	1	1	-95	-5072	3768	14440	-5	-38	-111	-15056	7328	-656	95	-44	-13	904	1272	16768	-31	-66	-55	125	139	12
-7192	-7472	12964	22	23	-114	-14848	-5856	712	56	12	-12	3440	-5456	15328	-16	21	-85	-5008	2968	13664	-5	-13	-115	-15040	6608	-504	88	-55	-13	920	1424	16216	4	-20	-51	124	137	12
-8284	-6948	11736	37	35	-98	-13840	-6120	224	57	9	-21	3448	-5336	14736	-31	24	-79	-5456	4064	14616	22	-10	-122	-14824	6520	-1072	58	-46	-17	856	944	16168	23	-11	-45	124	134	12
-6972	-6644	13288	68	-20	-95	-14176	-6712	680	48	36	-26	3272	-5864	15872	-12	20	-64	-5360	5128	14304	-2	-11	-118	-15464	7376	-944	74	-53	10	344	1168	17224	10	-18	-59	128	131	12
-9400	-7868	13968	66	-27	-104	-16520	-6608	0	179	32	-60	2408	-6240	16944	-4	-15	-87	-5704	3856	15616	-39	-54	-118	-16712	7664	-1288	-4	-55	46	-304	1552	17840	-4	-80	-66	127	131	12
-7804	-7512	14312	55	-4	-109	-16952	-6328	-32	62	-7	-35	3032	-6376	16632	6	-31	-94	-4696	3712	15696	6	-55	-105	-17016	7096	-752	56	-74	8	472	1680	17648	-33	-123	-76	122	139	12
-7436	-6912	12436	10	43	-119	-14680	-6048	752	38	-24	-16	3944	-6016	15232	9	-4	-83	-5096	4408	14400	82	18	-102	-14704	6240	-1200	103	-92	-1	1928	1160	16056	-25	-100	-88	119	142	12
-7260	-6860	12076	-14	39	-130	-12864	-6224	728	34	12	21	4320	-5216	14112	12	40	-57	-5104	3944	13640	66	12	-99	-13656	6512	-544	197	-75	8	2480	1144	15784	16	3	-97	119	138	12
-7272	-8148	12296	47	23	-108	-13536	-6880	864	75	31	-28	3600	-5496	14912	-16	64	-52	-5960	5600	13432	21	-21	-103	-14232	7448	-488	76	-41	40	936	1680	16544	40	58	-78	124	130	12
-8564	-6900	12608	79	12	-72	-15368	-6904	-368	162	45	-57	2848	-6224	16064	-27	41	-82	-5936	4656	14856	-35	-63	-97	-16000	7568	-816	38	-10	37	-120	2368	17448	38	6	-54	129	125	12
-8020	-6232	13284	79	5	-73	-16144	-6600	56	121	23	-26	2656	-6632	16168	-6	2	-97	-5808	4384	16280	-25	-48	-106	-16760	7568	-584	52	-29	-1	-128	1960	17784	-11	-65	-41	129	134	12
-7692	-6184	13388	92	-9	-74	-15992	-6440	928	62	7	-12	3136	-6352	15616	23	0	-102	-5848	5432	14968	42	36	-115	-15224	6640	-1072	87	-64	-4	816	1288	16480	-34	-87	-56	125	144	12
-7596	-6524	12728	29	15	-112	-14120	-5744	688	73	23	31	3672	-5584	14944	29	22	-97	-5104	5120	13680	64	18	-94	-13672	6080	-680	153	-64	8	1784	832	15832	-4	-51	-67	122	147	12
-7816	-7072	12380	25	10	-116	-13936	-6432	720	32	22	25	3376	-5424	14952	15	47	-86	-5248	4440	13680	19	-22	-93	-14176	6752	-176	118	-59	35	1288	992	16160	33	18	-72	122	141	12
-7884	-7240	12076	96	6	-77	-14600	-6672	392	138	21	-12	2648	-5752	15488	6	31	-91	-6488	3608	14896	-2	-30	-108	-15360	7608	-1040	32	-44	53	-224	1200	17208	50	3	-67	126	130	12
-8600	-7980	13716	99	-32	-89	-15552	-6224	112	181	41	-9	2568	-5768	16440	13	-7	-102	-5600	4384	16096	12	-33	-113	-16728	7840	-952	29	-56	56	-552	1456	18128	46	-67	-54	129	127	12
-8620	-8976	13932	82	-17	-93	-16968	-6064	16	131	9	-8	2688	-5960	17368	35	-41	-89	-5536	3384	15904	3	-29	-123	-17176	7496	-1528	-18	-71	62	-112	1544	18368	17	-127	-71	126	135	12
-8768	-6536	14332	74	-6	-87	-16504	-6456	456	29	-4	-3	3680	-6240	17064	46	-39	-78	-4840	4344	15856	51	-28	-82	-16848	7288	-536	129	-84	40	1224	1360	17824	-5	-130	-105	120	145	12
-7928	-5864	14372	17	5	-114	-15720	-6752	1352	27	-13	15	4000	-6064	15992	46	-4	-75	-6128	3944	14184	83	14	-92	-15728	6872	-784	83	-121	69	1456	1608	16760	-5	-71	-140	119	142	12
-7660	-7316	11892	35	66	-102	-13944	-6048	416	112	8	11	4216	-5624	14696	12	34	-69	-5800	4448	14064	131	6	-63	-13624	6640	-576	223	-80	60	1912	1776	15656	54	-8	-122	121	134	12
-6856	-7264	12352	57	6	-100	-13448	-6384	832	49	21	36	4192	-5600	14928	6	55	-65	-4808	5120	13224	93	-2	-73	-13824	7800	-208	150	-57	55	1144	2224	15800	84	59	-84	124	130	12
-7824	-7032	11904	100	15	-66	-14448	-6160	120	158	28	0	3048	-5784	15096	12	66	-74	-5920	4688	14224	27	-22	-87	-14256	7552	-752	22	-17	71	256	2320	16304	93	49	-49	126	127	12
-7388	-7672	12636	92	-6	-71	-15104	-6328	240	92	33	21	3176	-5880	14944	13	63	-81	-5472	4112	14368	-27	-35	-107	-15600	7360	-960	22	-23	41	-184	2624	16872	50	-3	-31	128	135	12
-7724	-7400	13384	112	-4	-71	-14856	-6432	24	89	21	8	2952	-6016	15152	36	39	-114	-5016	2848	14144	17	-30	-106	-15536	6640	-736	107	-47	2	416	2080	16120	-15	-57	-40	125	143	12
-7468	-5608	12092	88	23	-70	-14024	-5728	160	91	7	29	2992	-5440	14312	40	44	-129	-5168	3984	13352	45	10	-102	-13904	6216	-520	158	-58	0	1224	1152	15384	-26	-60	-57	123	148	12
-6608	-5512	11560	52	15	-93	-13032	-5512	288	86	10	35	3344	-4824	14064	24	51	-112	-4560	3896	13240	55	-20	-85	-13504	5936	0	171	-45	12	1744	1120	15320	7	5	-57	123	144	12
-7248	-6680	11592	83	11	-65	-13016	-5536	520	68	12	31	3296	-4768	13896	24	56	-106	-5736	5264	13392	5	-6	-111	-14152	7344	-1200	34	-21	34	544	1064	16112	28	28	-54	126	136	12
-7544	-7428	12672	81	-1	-93	-14584	-5832	-264	141	43	-16	2784	-5032	15320	16	7	-69	-5240	4232	14656	-5	-30	-121	-16200	7096	-1096	21	0	34	-288	1496	17000	34	-20	-42	127	127	12
-7480	-7744	12824	66	35	-68	-15712	-5576	-48	73	21	-31	3096	-5864	15736	25	-24	-48	-4656	4584	14952	14	-1	-109	-16208	6904	-920	53	-18	14	160	1368	16840	14	-82	-41	123	133	12
-7004	-5772	12768	16	49	-96	-14624	-5944	488	11	2	-15	3816	-5984	14928	37	-2	-33	-5544	4872	13768	53	27	-92	-14992	6288	-832	123	-52	8	1544	1344	16312	-10	-85	-65	120	140	12
-7468	-6268	11904	6	65	-98	-13928	-6352	856	43	23	5	4304	-5880	14600	35	28	-29	-5408	5104	13608	62	30	-101	-13904	6544	-880	140	-39	47	1936	1104	15928	2	-19	-88	120	140	12
-7668	-8184	12248	71	45	-78	-13944	-6640	824	46	57	11	3944	-5928	14856	23	59	-33	-4416	4976	13320	67	41	-114	-14176	6800	-512	127	-19	63	1408	1336	15792	28	51	-98	122	133	12
-7900	-6968	12604	72	48	-78	-14032	-6344	696	116	88	20	3640	-5824	15048	18	81	-50	-5032	5032	13264	57	43	-112	-14144	7264	-712	87	-7	78	640	1840	15936	57	67	-87	124	129	12
-7696	-6648	12420	102	64	-42	-14512	-6200	40	123	87	39	3296	-5936	15472	31	86	-67	-5248	5232	14480	17	-1	-107	-15008	7776	-864	101	12	69	272	2088	16832	65	54	-63	127	132	12
-7096	-5832	12852	96	37	-38	-15216	-6272	544	89	72	44	2720	-5792	15832	43	66	-82	-6320	4920	15528	3	26	-126	-15896	7488	-1424	41	9	69	-568	2200	17480	35	10	-59	128	137	12
-9040	-6620	13176	90	30	-48	-15792	-6216	56	109	76	31	2776	-5472	16312	47	44	-97	-5648	4448	15272	23	27	-121	-16200	7416	-1432	55	-11	56	-72	1992	17520	-5	-32	-79	130	140	12
-8072	-5500	14732	100	12	-51	-15920	-5704	408	58	78	38	2872	-5584	16512	45	48	-97	-4144	4272	14664	56	17	-102	-15728	7128	-176	188	-64	63	808	1880	16960	-14	-20	-107	129	146	12
-7512	-6704	13344	62	64	-61	-15632	-5752	1080	92	35	51	3136	-5224	15736	35	59	-100	-5464	3728	13216	85	41	-96	-14928	7160	-672	127	-71	62	1128	1696	16088	6	8	-125	126	143	12
-6728	-6236	12768	78	63	-67	-13664	-5264	464	62	41	56	3736	-4888	14520	26	103	-90	-5040	4360	13680	120	32	-80	-13616	7008	136	215	-35	45	1248	2088	15648	67	46	-101	124	135	12
-8232	-7392	11728	62	70	-55	-13792	-5600	808	53	28	37	3096	-4504	15288	12	88	-68	-5904	6112	14392	52	18	-96	-13744	8384	-376	63	-11	65	776	2184	15984	71	57	-68	123	126	12
-7488	-6784	13528	95	-5	-65	-15496	-6232	360	97	62	-7	2728	-5112	16456	18	58	-56	-4416	5448	15216	16	-30	-93	-15688	8032	-240	48	-8	65	-40	2440	17496	52	7	-47	125	128	12
-7772	-5876	14400	86	-3	-57	-17040	-5888	848	105	19	-17	2432	-5704	16568	39	27	-73	-5688	3664	14712	-16	4	-121	-16240	7816	-968	-48	-40	71	-216	2920	17240	9	-59	-51	123	136	12
-7852	-5488	13948	57	27	-75	-15712	-5560	0	68	10	9	3400	-5584	15928	47	6	-70	-4480	4472	14944	24	-32	-66	-15616	7128	-136	146	-37	17	1024	2272	17216	-9	-100	-45	119	142	12
-7252	-7268	12648	0	36	-109	-14344	-5840	1616	-47	-17	32	3696	-4872	15176	52	10	-50	-5384	5448	14192	38	35	-100	-14848	7280	-1264	27	-47	12	1336	1944	16568	-27	-45	-54	119	145	12
-8056	-6920	12776	51	9	-94	-13608	-6640	216	76	31	-26	3680	-4992	14632	32	20	-42	-4616	5296	13648	40	-8	-74	-14552	7192	-600	158	-36	13	1128	1808	16720	14	0	-47	120	138	12
-8028	-7332	13984	72	2	-68	-15272	-6512	792	80	18	-24	2792	-5512	16512	16	4	-50	-5272	4856	15296	-25	-61	-95	-16088	9032	-216	46	-36	41	-32	2040	18128	26	-4	-33	126	132	12
-8600	-6124	13772	87	-11	-60	-17024	-6528	592	149	-2	-53	2520	-5896	17296	6	-31	-64	-5888	6312	16664	-2	-48	-85	-16944	8248	-1304	-59	-18	29	-672	1976	18344	32	-77	-12	128	132	12
-7440	-6412	14804	67	-39	-83	-17152	-5792	1064	78	2	-5	3200	-6136	17000	29	-50	-55	-5336	5176	15952	33	-22	-76	-16416	7568	-640	19	-58	15	-24	1912	17752	24	-116	-11	126	138	12
-7876	-5892	13728	39	1	-84	-15528	-5280	928	26	-36	14	3856	-5840	16024	59	-33	-47	-5000	6208	14504	58	11	-68	-14536	7248	-1296	57	-93	46	1032	1360	16360	35	-91	-39	121	142	12
-7528	-7036	13212	15	-8	-113	-14240	-6096	1160	-9	-13	53	4128	-5112	15112	65	5	-40	-4400	5208	13240	79	-25	-44	-14336	6712	-440	154	-96	55	1296	1848	16192	59	-19	-61	123	139	12
-7516	-6392	12356	50	19	-75	-13960	-6024	864	93	-14	20	3744	-4952	15096	25	35	-58	-5960	5336	13400	49	-53	-45	-14112	7920	-736	80	-100	81	392	2288	16288	83	8	-70	127	127	12
-7952	-5472	12792	96	-32	-63	-14704	-6064	256	169	14	12	3168	-5016	16200	8	25	-86	-5600	5912	15064	28	-75	-51	-15168	8704	-880	78	-75	85	-88	2528	17528	100	-18	-60	131	127	12
-8768	-5968	13952	119	-70	-41	-16896	-5768	784	169	11	27	2512	-5064	17000	29	-20	-113	-5832	5000	15160	17	-37	-79	-16264	8856	-1360	-74	-81	98	-824	2824	17776	61	-80	-68	134	132	12
-8036	-6468	14888	129	-56	-50	-16664	-4864	304	124	18	45	3472	-4944	16912	53	-37	-128	-4064	5040	15072	76	-48	-42	-15792	7904	-152	99	-129	71	408	2760	17104	38	-126	-99	131	140	12
-7708	-5368	13740	43	8	-69	-15632	-4376	1688	24	-36	80	4072	-4192	16192	64	-19	-116	-5880	4920	13952	72	2	-62	-14432	7912	-704	65	-151	95	1488	2840	16488	30	-100	-132	128	147	12
-7532	-6276	12756	38	14	-89	-13816	-5296	728	25	-1	61	4440	-3944	15344	35	21	-84	-4560	4576	14224	104	-42	-43	-14096	7448	104	190	-119	72	1856	3096	16168	54	-32	-138	127	145	12
-7332	-5768	13056	37	2	-75	-14136	-5344	1720	52	16	25	3816	-4120	15472	5	39	-73	-5160	6464	13256	89	2	-57	-14208	8512	-304	74	-107	86	1224	3568	16168	42	10	-126	127	136	12
-8412	-5712	13180	70	-7	-59	-14912	-5016	104	184	40	-6	3128	-4080	15680	-17	40	-86	-4200	5408	13416	26	-43	-47	-14120	8968	160	97	-74	77	784	3832	16056	41	-13	-95	126	130	12
-6680	-6164	13840	54	0	-65	-15440	-4448	704	79	24	17	3112	-3904	15776	-14	28	-85	-5592	4272	13384	10	-33	-70	-14456	8648	368	71	-57	31	680	3936	16144	27	-36	-63	124	133	12
-7060	-5612	12328	36	28	-55	-15064	-4376	232	80	-10	-20	3160	-3864	15440	-9	19	-70	-5544	4816	14272	-15	-25	-81	-13656	8280	-784	37	-23	12	872	3640	15904	-10	-60	-51	122	139	12
-6680	-5952	13136	12	-17	-72	-14696	-4632	1256	-20	12	-7	3416	-4032	15696	-2	25	-45	-4480	5296	14200	-32	-15	-76	-14280	7824	216	153	-34	-12	1296	3824	16320	-46	-39	-37	121	144	12
-6940	-5912	13336	30	-8	-66	-15232	-4976	1304	51	1	-56	2960	-4408	15496	-13	25	-26	-5416	3952	12608	-35	17	-96	-13984	8296	-224	12	-46	1	872	3104	15880	-54	-26	-22	122	144	12
-7944	-6000	12424	-3	34	-75	-14824	-4552	-336	94	24	-49	3152	-4272	15568	-12	7	-18	-5000	6744	13944	-20	-28	-68	-13728	8080	-720	54	22	-24	1064	2944	16256	-29	-22	20	126	140	12
-6600	-5188	13948	1	-11	-78	-15120	-5120	1280	-39	11	-35	3160	-4648	16072	9	-5	7	-5040	6632	14352	-65	-13	-83	-15104	8840	-104	-13	40	-28	144	2560	17216	-31	-10	34	127	136	12
-8564	-5992	13456	15	20	-49	-16032	-5272	464	47	-8	-79	2784	-4824	16456	16	-24	4	-5992	3800	14408	-78	28	-113	-15456	8280	-1704	-98	34	-10	-136	2448	17040	-24	-43	27	125	137	12
-7984	-5644	13696	-15	25	-71	-15088	-5136	744	-13	16	-32	3952	-4800	16192	25	-21	18	-5368	5384	15000	-30	22	-75	-15840	7872	-888	116	13	-44	664	2264	17792	-29	-68	20	122	140	12
-8496	-7636	14396	3	0	-81	-15016	-5328	824	-28	23	-34	4080	-5248	16560	19	-5	24	-4200	5408	14032	-22	20	-81	-15616	8512	-624	18	-16	7	576	2176	17448	-40	-29	-15	120	138	12
-7900	-5796	13732	7	39	-57	-15816	-5704	792	47	22	-30	3888	-5320	16336	12	8	-5	-5232	5272	14232	-34	50	-92	-14840	7776	-808	78	-7	9	720	2224	16392	-12	-26	-35	120	136	12
-6896	-4952	13176	40	35	-43	-14744	-5680	1280	-2	29	8	4320	-5472	15416	5	44	-21	-5680	4712	13152	45	56	-71	-13584	8072	-400	138	-9	10	928	2216	15872	22	17	-36	123	133	12
-7460	-5160	12632	45	39	-25	-14416	-5384	520	75	45	26	3800	-5048	15296	6	70	-44	-5552	6032	13944	22	25	-69	-13544	8432	-960	58	17	50	240	2448	15752	53	41	-30	123	130	12
-6964	-5220	14180	60	-2	-30	-15208	-5496	856	50	50	42	3160	-4784	16080	25	82	-63	-5432	6312	13200	1	9	-63	-14680	8360	-464	41	-1	60	-200	3008	16384	60	46	-29	125	131	12
-8140	-5188	13412	65	25	-18	-16008	-5032	-88	107	32	27	2384	-4464	16480	23	65	-80	-5896	5688	14552	-14	-34	-55	-15184	8712	-1632	19	-18	66	-664	3224	17016	27	-10	-29	127	135	12
-7112	-5560	14148	69	-17	-22	-16232	-4808	536	41	21	39	2480	-4448	16400	34	32	-76	-5304	6192	14704	9	-4	-51	-15736	8112	-616	100	-44	35	-112	3264	17248	-3	-49	-37	127	141	12
-8132	-6316	13368	76	3	-8	-15840	-4544	1000	82	4	21	2784	-4064	15960	38	15	-64	-5592	5824	13784	27	30	-37	-14736	8464	-792	62	-61	38	648	3032	16560	-20	-60	-53	126	144	12
-7220	-4624	13396	35	-4	-43	-14824	-3872	688	34	16	33	3096	-3576	15392	27	19	-42	-5104	5672	12984	108	49	-25	-13416	7840	-544	112	-40	28	1304	3096	15544	9	-12	-48	127	140	12
-7524	-4576	13028	2	6	-37	-14416	-3736	616	3	8	29	2976	-3784	15384	22	32	-16	-5496	6840	12816	77	35	-27	-13016	8664	-488	56	-13	36	568	3240	15568	28	23	-27	127	136	12
-7720	-4576	12680	59	1	-5	-14976	-4336	216	32	1	-2	2608	-4136	15520	19	28	-3	-5032	7184	13568	48	33	-26	-13144	9160	-280	30	22	47	112	3152	15528	59	16	-1	126	132	12
-7068	-3660	13440	15	-31	-15	-15952	-4544	944	37	4	15	2392	-4312	16032	37	3	-3	-5736	7992	13672	-19	29	-50	-13912	9200	-1192	-96	31	61	-424	3464	16880	50	-16	23	126	131	12
-8692	-6028	14292	37	-38	-26	-16208	-4936	376	6	-4	8	2640	-4384	16848	63	-13	0	-5272	6552	14040	-42	-9	-50	-15152	8904	-1096	-73	15	44	-728	3632	17104	21	-53	36	122	136	12
-8560	-5832	13756	16	-7	-29	-16176	-4656	416	1	-21	2	2944	-4120	16416	63	-33	2	-5888	4424	14160	-43	-8	-53	-15592	8560	-1200	-17	1	31	-504	3552	17176	-12	-80	26	121	142	12
-8240	-5712	13692	19	-12	-32	-15240	-4704	592	-5	-15	6	3328	-4272	16088	54	-25	0	-5664	5120	14312	27	16	-35	-15160	8296	-1296	71	-31	5	336	2896	16824	-8	-51	7	120	143	12
-7988	-5104	13100	19	-8	-24	-15192	-4560	696	23	-16	9	3160	-4008	15560	31	-2	-9	-5656	4792	13072	72	74	-37	-13640	8176	-1544	44	-23	33	680	2744	16024	24	6	-3	125	141	12
-8368	-5816	13916	22	-21	-34	-14728	-4264	80	14	13	36	3376	-3984	16104	33	6	-4	-5128	6232	13296	53	-1	-1	-13960	9072	-512	103	-14	42	464	2816	16616	61	38	0	127	136	12
-8216	-6164	13788	54	-13	0	-16200	-4496	768	2	-20	13	2528	-4336	16648	45	6	1	-6152	6600	13856	18	18	-13	-14200	9704	-1016	-57	-3	80	-760	3112	16544	67	32	9	129	131	12
-8264	-5640	13856	61	-29	-3	-16416	-4488	16	33	-10	27	2656	-4408	16656	69	-8	-8	-5552	8048	14360	10	2	-7	-14800	8952	-1304	-32	4	68	-864	3472	16832	66	-31	22	127	133	12
-8276	-4772	14080	53	-42	1	-16280	-4440	776	-23	-24	51	3080	-4384	16024	88	-1	2	-5072	7136	13432	30	37	-1	-14408	8752	-1008	-4	-28	78	-152	3296	16232	48	-39	18	123	141	12
-8376	-4176	13388	40	-23	6	-15240	-3976	1008	-4	-24	69	3208	-3888	15776	106	11	0	-6096	7128	13216	53	52	-4	-13224	8488	-1464	3	-34	85	352	3024	15968	56	-29	3	123	143	12
-8140	-4092	13620	58	-36	3	-14608	-4248	704	-6	3	85	3120	-3688	15568	103	10	-2	-5840	7184	12312	52	18	16	-13296	8760	-872	68	-25	98	416	3488	15856	78	17	-6	124	138	12
-7896	-3264	13264	63	-14	28	-15208	-3944	424	35	-5	70	2944	-3464	16152	77	31	-15	-5456	6720	13104	59	11	27	-13200	9280	-856	16	-21	116	-288	3752	15872	100	36	-5	125	131	12
-7496	-2900	13328	78	-26	27	-15520	-3720	256	39	-12	79	2640	-3440	15960	79	28	-27	-6584	6304	13448	79	41	10	-13560	9200	-1264	2	-14	109	-480	3936	15912	113	17	5	127	128	12
-7596	-5172	13364	66	-30	22	-15520	-3408	600	30	-6	103	2744	-3392	16192	101	12	-21	-5336	6736	12816	53	31	20	-13560	9392	-1064	-26	-13	109	-456	3912	16096	106	-6	21	125	135	12
-9020	-4544	13204	83	-29	45	-15792	-3456	600	-12	-12	90	2272	-3072	16208	114	-5	-14	-6112	6992	13112	32	51	7	-13512	9176	-1160	-25	-4	110	-144	4088	15752	78	-25	12	124	139	12
-7860	-3900	13556	64	-27	24	-15192	-3320	712	-21	12	93	2888	-2912	15872	113	5	-1	-4720	6200	12920	67	39	21	-13144	8584	-872	35	-1	104	96	4064	15728	65	-16	0	123	142	12
-7904	-4256	13740	50	-24	35	-14688	-3352	992	-40	3	89	2952	-2856	15752	106	16	8	-5184	6448	12256	41	56	6	-13272	9272	-1048	8	-13	108	72	4064	15680	56	16	3	124	142	12
-8232	-4336	13180	74	-9	46	-14696	-3424	328	10	2	73	2720	-2856	15512	88	24	22	-6160	4856	12904	38	39	7	-13320	9536	-712	41	12	107	-96	4344	15656	70	27	11	124	138	12
-7828	-3792	13304	41	-15	38	-15360	-3288	208	15	3	70	2328	-2904	16304	90	15	24	-7040	6200	14120	32	33	1	-13824	9792	-1200	-50	37	95	-584	4568	16656	76	18	32	123	134	12
-8000	-4108	13316	23	2	36	-15888	-3664	144	-12	5	46	2528	-3208	17016	84	4	28	-4968	6816	13792	58	23	30	-14176	9792	-1184	-53	27	79	-568	4240	16736	63	1	44	123	135	12
-8080	-4380	13948	34	-25	44	-16304	-3072	424	-17	-16	55	2648	-3016	16840	102	-5	24	-6712	7464	13600	20	61	13	-13880	9712	-1496	-53	11	84	-496	4440	16504	50	-17	50	123	139	12
-8568	-5592	13500	25	-15	31	-16080	-3360	576	-18	-10	67	3080	-2840	16688	97	-4	43	-5584	6368	13088	14	54	18	-13704	9360	-1048	11	16	75	128	4272	16376	52	1	47	123	139	12
-8680	-4400	14132	25	-18	34	-15672	-3488	680	-66	1	64	3072	-2880	16856	92	9	52	-5888	7096	13920	-21	40	3	-14216	10104	-944	4	25	72	-368	4464	16944	46	17	46	123	139	12
-7856	-3936	14056	38	-18	36	-16224	-4032	440	-38	-2	31	2744	-3264	17048	79	6	52	-6408	6680	14112	-1	44	6	-14240	10008	-1144	-25	36	75	-760	4424	17024	40	12	46	123	136	12
-8020	-4580	14364	19	-15	33	-16400	-3776	704	-23	4	36	2712	-3216	16856	72	13	44	-6632	5864	13232	38	51	14	-14320	10080	-1344	-26	29	52	-776	4464	16576	46	2	53	123	136	12
-8204	-4416	13952	24	10	32	-15528	-3000	376	-2	-9	49	2984	-3048	15840	70	24	37	-5504	6928	13008	85	66	30	-12936	9240	-1200	32	27	46	-160	4496	15464	62	18	53	124	137	12
-7788	-2848	13316	-8	9	34	-14880	-2784	776	-63	-7	79	3120	-2752	15896	76	46	36	-6296	7928	12856	28	73	27	-12496	9624	-1288	2	30	53	-312	4304	15664	63	53	49	124	138	12
-8612	-3980	13052	30	-9	33	-15224	-3560	256	-37	8	55	2512	-2624	16248	68	48	29	-6472	9304	13376	5	37	35	-13024	10040	-1232	32	36	70	-704	4472	15712	70	50	56	124	135	12
-8320	-4136	14116	26	-45	43	-16784	-3688	928	-15	20	57	2160	-2968	17048	71	32	13	-5664	8928	13568	-30	34	21	-14376	10440	-1416	-69	13	88	-1440	4696	16608	41	18	43	125	134	12
-8832	-3216	14396	35	-38	41	-16544	-3248	632	22	10	48	2320	-2816	16256	75	23	-8	-6104	6568	12608	-13	67	12	-14040	9312	-1160	-46	6	56	-1072	4792	16160	21	-27	40	123	137	12
-9216	-4092	13664	22	0	38	-15208	-2504	40	-21	-2	79	2920	-2184	16312	70	20	-1	-6224	7264	13056	9	44	26	-13176	9848	-1184	44	11	33	-160	4440	15816	19	-35	40	123	139	12
-8400	-5268	13320	-9	-8	14	-15072	-2896	488	-37	8	55	2520	-1720	16504	57	17	18	-5936	6848	13344	-8	20	24	-13640	9496	-784	32	19	41	-368	4800	16256	22	6	31	122	139	12
-7524	-4016	13740	23	-29	42	-16344	-3208	632	-23	-6	-4	2184	-2200	16736	19	17	28	-6584	6128	13224	-34	30	22	-14064	10136	-896	1	4	44	-1032	4872	16784	3	5	20	122	136	12
-8800	-3028	13604	14	-23	41	-16512	-3184	176	12	-7	-19	1888	-2688	17304	1	-9	25	-6296	5656	13952	-19	51	0	-13728	10248	-1680	-39	5	20	-728	4920	16544	-2	-22	40	125	137	12
-8244	-4924	14052	-36	-43	-10	-15856	-3088	600	-37	-1	-3	2240	-2728	16608	10	-31	51	-5120	7056	13080	-20	54	0	-13856	9656	-1464	-83	23	-1	-560	4488	16312	-16	-34	63	125	139	12
-8892	-4880	14432	-20	-40	-6	-15216	-3096	232	-75	-6	-27	2504	-2744	16264	27	-31	69	-4968	7096	12080	-24	38	10	-13496	9768	-912	-45	21	-18	-312	4208	15768	-15	-19	71	122	140	12
-7912	-3344	13336	-17	2	14	-15112	-2712	88	-70	-31	-40	2616	-2968	15832	23	-6	77	-6712	5360	12808	-13	52	5	-12296	9384	-1240	1	28	-18	-136	4192	15232	0	2	80	124	141	12
-7692	-3588	13028	-21	-33	9	-15112	-3688	408	-86	-27	-21	2864	-3264	15992	32	-4	82	-5904	7240	12624	-19	33	26	-12656	9576	-1112	4	37	-13	-216	4048	15544	16	20	95	126	139	12
-7960	-3136	13668	-8	-41	27	-16008	-3544	312	-27	-28	-22	2816	-3296	16024	34	-4	84	-6264	7432	13072	-47	46	-7	-13120	9408	-1624	-90	59	22	-864	3816	15920	29	21	97	127	137	12
-8336	-4676	13884	-20	-34	6	-15896	-3608	208	-51	-38	-7	2424	-3152	16280	66	-23	61	-6016	7120	13032	-56	25	-1	-14264	9400	-1608	-97	51	17	-1048	3976	16480	21	-16	94	125	137	12
-8964	-5512	13392	-53	-2	-14	-15712	-3680	120	-63	-22	-1	2888	-2736	16568	63	-37	67	-5944	6448	14176	-78	-10	-3	-14896	9200	-1568	-39	40	8	-672	4160	17272	-8	-45	83	123	140	12
-8268	-5168	13400	11	-16	31	-15648	-3872	1072	-96	-14	-29	3248	-2984	15984	33	-21	77	-5432	7448	13384	-21	76	6	-14536	8752	-1080	24	12	-14	-72	4032	16360	-38	-27	39	123	142	12
-8540	-2252	13136	-14	0	28	-15168	-3376	696	-2	17	-24	3520	-3064	15840	16	0	65	-5848	6536	13016	39	101	11	-13048	9232	-1304	25	21	13	408	3640	15200	-16	6	12	124	143	12
-7060	-3848	13720	-9	-5	12	-14560	-3232	800	-60	30	19	3400	-3304	15664	13	37	70	-4760	7184	12104	59	75	18	-12320	9248	-656	79	26	24	208	3696	15536	19	63	17	126	137	12
-8576	-4016	13372	0	-1	40	-15432	-3784	728	-54	12	11	2552	-3456	16080	18	44	59	-6248	6968	11952	17	67	4	-12584	9960	-1672	-83	60	58	-720	4008	14896	35	81	38	125	131	12
-7552	-3088	13528	25	-5	49	-15088	-3192	160	-31	25	17	2512	-3704	15720	42	49	45	-6512	6896	12968	13	45	6	-12624	9288	-1056	12	58	44	-1040	4016	15376	62	49	64	124	130	12
-7416	-4696	13108	-14	4	32	-15424	-3296	488	-37	0	51	2208	-3168	15736	64	36	42	-6088	6480	12736	-12	48	5	-13008	9464	-1584	-44	43	54	-1080	4264	15336	42	25	75	123	136	12
-7356	-4504	12200	11	-1	38	-15056	-3120	144	-10	-2	48	2104	-3008	15176	69	31	20	-5440	7360	12688	-21	44	13	-12640	8656	-1768	24	27	47	-792	4064	15328	31	-12	61	123	138	12
-8272	-3960	13224	23	-32	39	-15208	-3576	216	-26	13	67	2104	-2552	16376	71	15	-2	-6072	7376	13208	-62	28	-7	-13408	9800	-1488	-2	26	57	-736	4024	16664	11	-5	49	124	139	12
-9360	-6092	13672	10	-41	19	-16320	-3792	272	31	26	31	1672	-2584	17288	52	-12	-8	-5976	5536	14296	-96	13	-33	-15024	9592	-1808	-79	28	61	-1280	4168	17384	-8	-21	38	127	135	12
-9112	-4648	15012	30	-49	29	-17024	-3576	328	-24	11	-4	2016	-2912	17576	30	-36	-2	-6264	5440	14072	-43	42	-22	-15896	10056	-1536	-93	16	35	-872	4600	17688	-17	-51	32	127	137	12
-9080	-4276	14892	14	-4	25	-16184	-2616	112	-8	4	2	2904	-2888	17184	27	-39	32	-5048	7768	13720	50	77	22	-14504	9416	-1224	34	17	-5	120	3944	16368	-10	-48	35	126	140	12
-7268	-3316	14364	-28	12	4	-15464	-2456	984	-134	-28	15	3312	-2800	16248	55	0	89	-6168	7160	11880	110	102	29	-13000	9280	-984	46	11	-4	696	3960	15648	6	14	36	125	139	12
-8292	-4120	13028	-8	42	35	-14880	-2928	40	-98	-32	1	3376	-3200	15760	51	29	109	-5728	7416	12648	63	73	41	-11768	9488	-792	82	33	40	544	4144	15080	51	64	53	122	134	12
-7500	-1932	13312	-33	-7	23	-15144	-4208	792	-123	-15	18	2984	-3320	16032	46	47	97	-5864	8680	12648	-6	71	16	-12264	9704	-1048	-13	59	52	-384	4384	15440	83	89	73	122	130	12
-8896	-5512	13880	-9	-34	4	-16080	-4752	616	-8	15	0	2152	-3432	16744	54	39	69	-5256	6528	12320	-65	25	-11	-13824	10056	-1536	-155	63	61	-1352	4192	16352	48	49	86	123	133	12
-9172	-5664	14212	37	-27	41	-16376	-3688	-208	31	25	8	1992	-3304	16736	57	6	44	-6072	6952	14064	-111	-12	-16	-14912	9488	-1336	-32	60	43	-1464	4472	17184	14	-14	75	124	137	12
-7844	-4068	13568	33	-15	34	-16040	-3624	472	-37	-3	12	2432	-3320	16712	60	-9	27	-6824	6032	15224	-75	28	-25	-14992	9336	-1824	-13	32	9	-1072	3976	17584	-25	-33	64	124	146	12
-8232	-4988	13904	1	-43	4	-16040	-4288	424	-50	-10	7	2296	-3088	16880	48	-27	23	-5904	8008	13784	-5	33	6	-15312	9424	-2112	-51	3	6	-816	3480	17672	-40	-32	45	126	146	12
-9268	-4068	15032	31	-55	17	-16608	-3888	112	-1	-8	-10	2272	-3624	17280	30	-37	17	-5624	6608	15096	1	-10	18	-15280	9968	-952	37	-21	38	-760	3464	17640	-7	-33	31	127	141	12
-8224	-5064	14732	16	-45	22	-17616	-3864	680	-28	-41	-2	2344	-3752	17936	32	-64	24	-6144	8200	14392	32	35	27	-14896	10264	-1208	-69	-23	30	-688	3544	17016	26	-37	38	127	136	12
-8956	-3716	14512	-14	-50	9	-16880	-3496	216	-33	-37	-1	2664	-3584	17320	46	-69	54	-7352	7184	13840	17	50	13	-14408	10040	-1920	-101	-4	34	-776	3672	17072	49	-67	63	127	132	12
-9624	-5240	15552	-13	-68	-18	-16456	-3872	0	-64	-35	3	3080	-3504	17312	64	-66	86	-4656	6968	13704	-7	-21	38	-14664	10128	-576	-29	-4	49	-680	3944	17112	63	-47	73	124	130	12
-8188	-3988	14088	2	-29	15	-16536	-3632	704	-69	-77	-14	2696	-3560	16392	56	-40	81	-6080	6368	12920	43	27	42	-13648	9032	-1064	-18	-27	43	-600	4216	15304	66	-45	62	121	134	12
-7168	-2888	12352	-21	-2	-1	-14256	-3544	552	-45	-62	24	3288	-3072	15168	50	4	45	-6664	5200	11984	80	52	42	-11744	8920	-1584	48	-40	24	56	3936	14664	75	-22	53	122	136	12
-7348	-5828	12584	-18	-55	-22	-14024	-3848	152	8	-31	57	2944	-2568	15848	44	16	27	-6936	7144	13512	-30	-44	30	-12336	9856	-1112	49	-18	63	-432	4296	16776	74	24	53	124	134	12
-9340	-7564	13372	49	-98	17	-17360	-5112	-56	16	-49	-11	1160	-3448	18120	23	-36	-7	-7016	7536	15240	-143	-90	-13	-15536	10888	-2120	-188	14	90	-2216	4784	18504	36	-7	43	127	132	12
-9244	-5692	13780	52	-101	31	-18456	-4736	-80	61	-30	-47	1584	-3872	18424	31	-91	-40	-5240	6776	15512	-115	-34	-20	-17528	10080	-2128	-162	-29	27	-2440	4760	19328	-29	-134	49	127	138	12
-10172	-4240	14748	-30	-67	-35	-17432	-3568	400	50	-43	-15	2728	-3224	17328	35	-119	-24	-5576	4912	14424	20	-18	15	-16472	9080	-1608	-44	-60	-30	-144	3944	17688	-63	-181	39	123	147	12
-6756	-3452	13676	-55	-13	-40	-14448	-2512	1008	-123	-70	1	4120	-2776	15488	27	-50	26	-6048	5408	12368	161	41	47	-13208	7912	-728	143	-86	-45	1216	3736	15648	-30	-75	12	122	147	12
-7820	-3304	11640	-24	12	-2	-13680	-3024	672	-50	-67	-9	3592	-2976	14656	-10	10	52	-6648	8384	11184	190	95	75	-10160	9360	-1112	158	-49	-7	1304	3296	13640	33	43	7	125	146	12
-8372	-3476	11836	-1	5	-2	-14176	-3624	264	-34	-2	12	2824	-3480	15728	25	37	54	-4344	9712	10984	110	16	55	-10280	9776	-200	87	-9	42	272	3496	13904	108	109	58	127	128	12
-7196	-3312	13700	40	-90	5	-16728	-4080	360	62	-43	-1	1152	-3720	16600	31	16	21	-4912	6736	10936	-61	6	-33	-11624	9776	-1304	-239	43	94	-1232	3592	14504	126	91	99	128	124	12
-8604	-4476	13848	50	-70	-9	-15288	-3264	-920	5	-31	20	1824	-3696	15848	69	-13	-4	-5528	3904	12624	-113	-64	-32	-13656	8288	-1152	-100	68	42	-1536	3856	15224	107	-14	116	123	132	12
-7984	-6600	12216	29	-33	-4	-14312	-3872	248	-82	-81	42	2296	-3344	15288	102	-25	2	-5312	5992	12272	-101	-7	-41	-14392	8144	-1984	-107	39	10	-1424	3720	15536	18	-96	99	119	148	12
-7576	-4120	11696	19	-30	-17	-13336	-3872	-464	1	-46	8	2480	-2808	14528	84	-22	-3	-5984	5096	12848	-13	-23	-2	-13856	7064	-1656	75	-6	-8	16	2984	15784	-24	-107	67	118	141	12
-6628	-3348	11208	40	-17	12	-13952	-3904	528	9	-38	10	2712	-2984	14584	28	-16	-6	-6888	3768	12872	46	41	0	-12760	7424	-1152	123	-19	4	1000	2728	15632	-15	7	32	126	143	12
-8084	-4440	12148	85	-52	28	-14264	-4032	696	4	-16	1	2528	-3728	15432	17	-23	-13	-5936	6848	12928	81	80	-1	-12936	9024	-1480	7	-3	40	600	2000	15648	21	57	9	131	146	12
-9304	-4592	14236	79	-60	9	-15656	-3672	400	32	9	27	2368	-4056	16608	60	-37	7	-5248	8320	12792	59	50	-6	-14320	9672	-1592	-121	29	106	-328	2040	16720	65	34	20	136	138	12
-9916	-3188	15156	84	-52	34	-17208	-3728	-392	-15	-13	40	2776	-5000	18232	125	-69	46	-6336	5112	14448	-13	27	-18	-15704	9968	-1144	-133	53	137	-880	2824	18064	88	-23	47	130	129	12
-8100	-5284	14844	19	-10	5	-17784	-4632	224	-131	-38	55	3488	-4848	17872	172	-72	103	-6440	5640	15600	30	29	-14	-16640	8848	-1272	-83	72	98	-608	3080	18568	77	-79	62	122	132	12
-8424	-5420	14100	20	34	17	-16088	-5256	1152	-145	-54	42	4352	-4360	17256	174	-33	134	-6248	7800	15008	41	60	-4	-16112	9408	-2096	-17	19	112	-248	3288	18176	64	-86	28	116	140	12
-8780	-5196	13692	-25	36	-6	-15616	-5432	872	24	12	76	4344	-4176	16952	174	-26	130	-6648	6752	15512	62	51	1	-15384	8976	-2016	102	10	128	-40	3872	18600	79	-23	-23	121	130	12
-9744	-5352	14100	66	-10	34	-16608	-5544	808	55	51	51	3144	-3856	17896	51	61	41	-7376	8360	14880	44	73	-5	-15984	11184	-2368	40	-2	140	-1080	4344	18760	81	33	-52	127	129	12
-9164	-5940	15744	101	-31	34	-17920	-4744	-768	156	101	54	2760	-4056	18536	28	35	8	-6184	7280	15536	58	-1	25	-16480	11336	-1624	34	3	140	-1992	5088	19408	79	24	-48	131	125	12
-8916	-4512	16040	101	-24	50	-18696	-3904	688	31	32	73	2408	-4184	18712	67	29	-31	-6408	7832	15848	75	37	13	-15968	11624	-1656	-29	-42	129	-2104	5000	18472	68	-5	-39	132	129	12
-9144	-1800	15952	65	-40	40	-17960	-3288	520	-13	5	111	2472	-3944	17984	100	34	-43	-6152	8376	14168	136	65	33	-14568	10616	-1520	-18	-74	114	-1136	5144	16800	84	-31	-40	130	138	12
-8460	-3488	15096	37	-13	-2	-16072	-2976	840	-52	-9	159	2904	-3120	16784	125	65	-64	-5872	7240	12512	166	57	33	-12576	10208	-1632	56	-100	123	-376	4544	15664	98	1	-37	128	139	12
-8740	-4624	14620	43	-12	13	-15752	-3248	296	21	-5	156	2632	-2232	16824	126	81	-84	-5352	7432	12720	100	-18	53	-12112	10784	-792	142	-78	141	-576	5160	15144	142	50	-24	125	138	12
-7636	-4036	14204	70	-42	24	-16496	-2928	760	43	-24	147	1944	-1696	17240	110	84	-113	-6152	9272	12520	16	-7	11	-12752	11088	-1256	11	-81	141	-1352	5848	16024	149	32	-8	125	133	12
-9084	-3524	13456	65	-44	18	-16336	-2760	-648	161	-12	107	1400	-1104	16768	66	51	-134	-6872	7264	12528	-9	-19	2	-13192	10232	-1472	-21	-48	107	-1264	6328	16048	142	-21	8	122	131	12
-7216	-4904	14580	60	-68	-17	-16048	-2392	408	52	-13	93	1904	-624	16840	31	19	-117	-5360	7208	13296	-11	-72	32	-14744	10232	-472	80	-72	26	-1008	6096	16792	77	-77	0	123	138	12
-7932	-2772	13668	29	-55	0	-16424	-1480	712	99	-54	6	1656	-936	16088	0	-14	-96	-6496	4984	13504	8	-3	-8	-13488	9568	-1080	-12	-105	37	-288	5696	15752	23	-99	-31	125	142	12
-6992	-3000	13328	-11	-61	-12	-15280	-1864	624	-4	-50	-5	2344	-664	15848	-28	-33	-49	-5424	6704	12848	40	0	30	-12480	9176	-592	95	-93	-17	1040	5440	14976	-13	-75	-31	120	144	12
-7528	-4660	13348	-64	-58	-51	-14448	-2280	1056	-80	-58	-47	2144	-1136	15576	-66	-41	1	-5536	6328	11392	42	0	27	-12152	9448	-184	-3	-67	-54	728	5024	14616	-66	-39	-7	120	143	12
-8452	-4664	12496	-37	-37	-32	-14568	-2136	-152	8	-67	-123	1808	-2000	15608	-76	-59	46	-6144	6856	12416	-51	-44	19	-12040	9920	-248	5	-11	-39	328	4368	15184	-48	-56	41	120	142	12
-7188	-3424	13476	-53	-88	-43	-15920	-2800	312	-39	-76	-127	1792	-2944	16688	-34	-108	87	-6296	7672	14360	-152	-65	-16	-13344	10456	-408	-81	13	-33	-560	4696	16912	-44	-81	96	120	143	12
-8516	-4432	13288	-84	-73	-51	-17216	-3792	264	-41	-108	-171	1552	-3408	17792	3	-179	129	-7136	7472	14664	-204	-47	-47	-15216	10160	-2208	-268	40	-55	-808	4744	17048	-61	-96	106	123	142	12
-8472	-5320	14212	-109	-74	-79	-16808	-3888	232	-89	-82	-162	2896	-3408	17400	21	-208	166	-7032	5768	14640	-183	-63	-45	-16392	9520	-1856	-130	36	-98	-760	4744	19184	-120	-208	143	124	142	12
-9048	-6028	13912	-101	-22	-58	-16552	-4344	608	-76	-82	-172	4016	-3528	17480	0	-188	186	-6104	5264	13720	-90	-2	-20	-16088	9680	-2176	-85	35	-107	-72	3952	17888	-133	-138	119	124	140	12
-7920	-4296	14780	-58	-10	-37	-15488	-3672	712	-77	-25	-142	5032	-3808	16448	-40	-91	167	-5784	7336	13040	19	23	24	-14376	9264	-712	143	16	-108	696	4056	17128	-92	-31	79	123	139	12
-8520	-2708	12208	-76	74	3	-16024	-3504	880	-37	-31	-95	4624	-3960	16192	-45	-23	128	-7424	7616	13080	45	96	26	-12328	10208	-1536	39	40	-58	456	3528	15528	-40	51	68	122	133	12
-7536	-936	13316	-32	-7	-5	-14728	-4056	1416	-148	34	-26	4088	-4176	15408	-20	66	102	-5912	8848	11968	96	128	17	-11424	9408	-1016	33	60	-32	-152	3168	14512	35	121	88	121	128	12
-8440	-2420	13680	-11	-16	4	-15128	-3928	1264	-50	57	28	2848	-4344	15608	28	104	63	-5496	7600	10872	-3	90	-32	-10944	9736	-1352	-97	49	64	-968	3112	13736	86	136	88	122	127	12
-8956	-5320	13212	20	9	17	-14488	-3752	8	-29	64	82	2712	-3704	15120	68	112	23	-4888	6608	11480	-41	3	-15	-11936	8784	-1272	1	55	71	-1200	3912	14448	109	111	73	123	131	12
-7652	-4756	13092	79	6	40	-14368	-3464	168	-18	48	85	2232	-3288	15512	93	128	-37	-6096	6592	11904	-101	21	-38	-12728	9672	-1896	0	21	77	-1696	4392	15216	48	63	38	123	136	12
-8080	-3768	13300	83	-17	42	-15040	-3360	-512	135	60	105	1616	-2464	15760	96	113	-96	-6344	5984	12712	-76	-20	-22	-13656	9616	-1720	59	10	84	-1632	4208	15904	32	21	14	127	138	12
-7332	-4644	13388	61	-17	36	-15952	-2520	56	71	33	112	1416	-1608	16272	77	62	-116	-6264	6048	13664	-31	-21	-3	-14632	9512	-1384	52	-29	83	-1488	4440	17040	34	-15	-13	130	137	12
-7124	-2596	13132	55	-4	65	-16064	-2088	544	45	7	80	1952	-1480	16592	47	25	-106	-4944	6680	13816	25	35	21	-14256	9288	-1448	25	-59	75	-608	4784	16200	43	-23	-44	129	137	12
-6460	-3420	13084	70	-4	47	-14688	-1336	1064	-37	20	79	2984	-984	15184	23	37	-57	-3608	7392	11664	176	151	58	-12568	8648	-304	128	-71	32	768	4960	14856	41	5	-67	127	137	12
-7392	-2192	12988	-14	28	32	-14032	-1000	1176	-47	20	82	3224	-984	15288	14	57	-7	-5504	7280	11136	146	110	47	-10992	9920	-336	84	-50	50	1360	5296	14096	29	27	-46	129	132	12
-7860	-4228	13676	2	9	25	-14728	-2504	648	-90	28	49	2824	-1352	16144	-2	50	34	-5768	7888	12576	60	61	33	-11224	10496	520	120	18	46	856	5352	14816	31	41	-7	127	129	12
-7956	-4380	13612	4	0	57	-16936	-3416	856	-55	16	-17	1832	-1936	17264	-22	13	59	-5376	8696	12304	-130	86	-43	-12648	11176	-600	-141	70	64	88	5968	15872	1	18	34	123	130	12
-8892	-3744	14624	-44	-9	14	-16544	-3176	-136	-17	47	-61	2208	-2320	17080	-12	-17	82	-5592	5720	12952	-187	16	-70	-14704	10168	-656	-160	110	24	-592	6408	17056	-49	-50	62	119	137	12
-8660	-2800	13592	-78	68	8	-15528	-2328	456	-68	27	-68	3072	-2128	16336	2	-28	119	-6688	7016	14512	-140	36	-43	-14800	10472	-1016	-42	122	-56	-384	6136	17384	-122	-82	96	119	146	12
-7140	-3832	13392	-75	40	8	-15376	-2488	776	-95	32	-74	3192	-2256	16136	5	-12	158	-6320	8032	13392	-90	108	-30	-13648	9960	-1416	18	114	-86	208	5192	16808	-137	-2	101	119	145	12
-8420	-3804	13324	-31	44	34	-16008	-2792	560	-51	57	-90	2736	-2792	16800	-18	8	162	-6384	9576	13640	-72	109	-15	-12656	10664	-1360	69	114	-61	-360	4432	16528	-115	100	101	122	143	12
-8392	-3596	15404	-65	-3	-10	-17008	-3792	880	-121	60	-60	2184	-3256	18176	-10	13	129	-6192	8400	13704	-68	72	-36	-14344	11440	-1392	-82	117	-49	-1944	4344	17192	-67	126	109	127	141	12
-8332	-5624	14992	-51	-3	10	-17880	-3632	160	-62	23	-67	2024	-3616	17664	22	9	99	-5952	7200	13712	-102	67	-47	-14640	10480	-1896	-152	111	-39	-2704	4472	16680	-32	42	126	125	137	12
-9120	-4216	14340	-53	41	17	-16048	-2976	-96	-93	17	-31	2984	-2872	16912	21	11	94	-6120	7848	13976	-73	52	-5	-14064	9848	-1768	24	79	-96	-1520	4144	16496	-25	-32	127	123	141	12
-8152	-4408	13620	-75	33	-20	-15528	-3224	672	-108	2	-23	2736	-2312	16296	8	35	82	-6184	6176	13120	-83	41	-19	-13192	9160	-1808	16	31	-50	-1144	4000	16136	-36	-9	77	122	142	12
-7992	-6172	13260	-37	9	-6	-15584	-3832	304	-25	17	-42	2232	-2392	16544	-35	46	35	-5968	5696	12640	-88	14	-16	-13352	9720	-2152	64	-14	-26	-1040	4168	16120	-41	19	31	122	136	12
-7860	-5380	14232	-24	-21	-6	-16024	-3408	216	28	37	-37	2216	-2376	16888	-69	43	-3	-5432	5872	13640	-92	4	-20	-13472	9832	-1832	71	8	-18	-1288	4600	16968	-40	22	9	125	131	12
-8552	-3752	14080	-6	-14	24	-16424	-3016	680	9	0	-63	2160	-2712	17008	-69	18	-8	-6136	8032	13344	-38	36	-7	-14200	10376	-1320	-61	-9	-28	-1008	4440	16176	-41	-8	8	125	129	12
-7576	-3028	14100	-45	-5	-12	-15416	-2176	240	-38	8	-44	2688	-2608	16104	-49	4	23	-5800	7568	12472	8	38	26	-13304	9408	-632	33	-24	-54	-80	4328	15688	-30	-32	20	124	133	12
-8684	-3764	13596	-67	-1	-6	-15600	-2512	600	-72	-27	-51	2672	-2632	16224	-27	-9	53	-5496	6384	12680	-22	29	7	-12576	10136	-592	-8	-15	-29	376	4448	15040	-26	-8	35	124	137	12
-7532	-4756	13068	-71	-3	-14	-15264	-3144	336	-116	-33	-66	2624	-2920	15392	-18	-6	70	-5704	6592	12416	-26	46	-3	-12440	8888	-496	-10	13	-40	296	4776	14632	-30	0	52	123	139	12
-7020	-3824	12964	-63	-15	-12	-14168	-3320	960	-87	-13	-54	2928	-2776	14536	-21	12	72	-4064	6136	11000	13	47	23	-11744	8752	48	32	14	-65	480	4768	13744	-42	10	76	123	141	12
-6760	-3628	11844	-56	30	11	-13208	-2344	640	-47	-10	-39	2880	-2536	13920	-22	32	64	-5400	7104	11064	-53	76	-9	-10536	8912	-1008	10	30	-60	200	4248	13512	-34	20	107	125	143	12
-8392	-4852	11636	-43	-36	2	-13744	-3304	-208	-14	10	-40	1976	-2368	14984	-18	6	68	-4784	7464	11624	-102	14	-11	-11240	9480	-960	-43	93	-50	-88	3928	14336	-20	40	131	127	141	12
-7984	-2168	13796	4	-74	35	-15472	-3448	536	-59	6	-74	1424	-3312	16608	1	-30	52	-7200	6880	12840	-188	7	-57	-13152	9960	-1032	-125	78	-13	-1336	4024	16088	-48	12	134	129	140	12
-8544	-6588	13400	-21	-53	0	-17264	-3544	-568	25	-5	-72	1328	-3384	16840	20	-86	41	-5224	5216	13624	-213	3	-73	-14896	9536	-2368	-201	93	-22	-1760	3600	16872	-58	-77	137	127	141	12
-8388	-4932	13508	-12	-53	20	-16176	-3368	120	-129	-22	-36	2512	-3024	17312	30	-110	65	-6576	5120	14528	-138	-20	-27	-16160	9120	-1208	-67	75	-77	-992	3560	18352	-79	-124	128	125	142	12
-8780	-5276	14144	-67	-3	-11	-16024	-3576	392	-74	-41	-78	2976	-3064	16800	8	-97	105	-5656	5768	14264	-41	40	4	-15400	8864	-1552	-57	39	-56	-496	3192	17304	-83	-87	90	121	139	12
-8148	-5228	12900	-63	17	1	-15472	-3136	496	-84	-26	-79	3640	-3048	16400	-11	-69	143	-5752	8488	13832	-8	85	10	-14040	9192	-1672	28	31	-55	296	3080	17128	-47	-33	54	121	135	12
-9232	-4968	14320	-40	-31	6	-16088	-4400	848	-111	7	-68	3328	-3528	17696	-27	-48	161	-5920	7984	13344	-24	70	7	-14480	10816	-1552	-15	36	-6	-312	3352	17384	-25	20	43	124	130	12
-9916	-3920	15636	-47	-27	9	-17832	-4624	56	1	19	-77	2424	-4256	18448	-25	-41	131	-7120	7784	14992	-84	9	0	-15768	10920	-1800	-113	61	49	-1768	3960	18504	-5	-5	38	126	126	12
-9244	-5064	15900	-6	-31	14	-18608	-4984	16	-58	-8	-65	2632	-4944	18856	8	-48	106	-7056	6088	15416	-73	7	-3	-16496	11024	-1872	-75	37	27	-2064	4312	18928	-11	-46	48	123	129	12
-9008	-4784	15336	-38	-10	15	-18112	-4456	-136	-46	-24	-37	2984	-4688	18496	37	-43	79	-7408	7928	15912	-54	17	0	-15928	10824	-2320	-29	5	17	-1616	4352	19032	-23	-92	51	121	138	12
-9392	-5968	15364	-101	-29	-43	-17656	-4680	568	-59	-17	-10	2728	-3632	18640	44	-22	55	-7752	8224	15688	-51	-18	2	-16416	10928	-2376	-39	-26	18	-1608	4624	19672	-22	-77	38	123	137	12
-10140	-5300	16308	-20	-65	4	-18872	-5136	248	19	-3	-42	2472	-3728	19688	6	-36	20	-7016	8248	17504	-116	-73	11	-17096	11944	-1840	13	-49	44	-1744	5152	20528	-12	-61	15	125	134	12
-9520	-5084	16988	1	-104	3	-19992	-4888	520	58	-19	-31	2240	-3800	20320	-30	-58	-21	-7648	8688	16704	-30	-40	32	-17912	12328	-2128	-61	-82	14	-2384	5392	20288	-22	-80	13	129	132	12
-9048	-2664	16816	-21	-80	-6	-19056	-2936	216	83	-38	-26	2544	-3336	18464	-32	-38	-36	-5736	7064	14896	53	3	62	-15328	10688	-1256	-7	-128	-12	-1056	5288	17920	26	-97	24	131	131	12
-8072	-3728	14948	-103	-31	-60	-15992	-1728	632	-50	-83	37	3416	-2352	16896	-15	-6	-22	-6152	7360	12808	121	12	92	-13040	10344	-984	50	-141	-53	-208	5136	15792	32	-61	38	132	133	12
-8328	-4656	14328	-57	-58	-43	-15056	-2816	544	-111	-101	22	2928	-2040	16624	-4	15	-14	-5776	7824	12608	56	-55	89	-11672	11056	-160	103	-124	-21	-184	4920	15176	53	-26	47	129	129	12
-7700	-4600	14380	-36	-108	-26	-16272	-3464	880	-30	-101	-8	1992	-2160	17288	-6	12	-44	-5688	8728	12696	-61	-68	35	-12128	11048	-408	-59	-116	14	-440	5752	15328	71	-38	65	126	124	12
-7764	-3340	14192	-44	-126	-37	-16600	-3080	408	58	-86	-38	2000	-1760	16688	-20	-24	-74	-5776	8848	11616	-93	-77	32	-12400	9992	-680	-125	-80	-20	-496	5800	14984	65	-42	62	122	129	12
-8204	-2612	13020	-87	-70	-44	-14648	-1464	392	21	-97	-26	2864	-784	15288	-21	-41	-65	-5376	6000	11392	-109	-79	32	-12128	9112	-752	-46	-91	-68	-72	6048	14320	-23	-137	85	120	141	12
-6896	-3480	11792	-96	-59	-54	-13120	-1392	872	-40	-98	-45	2776	-408	14248	-38	-34	-27	-5152	5120	11400	-112	-52	16	-11432	8648	-280	42	-75	-118	608	5544	14144	-78	-119	73	120	147	12
-8296	-3736	10944	-103	-66	-38	-13296	-2080	496	-29	-63	-92	2824	-584	14224	-41	-36	-25	-5632	5856	12048	-154	-38	0	-11368	9240	-672	-22	-45	-106	928	5112	14328	-107	-72	74	123	146	12
-7768	-4448	13452	-62	-135	-34	-14824	-2840	1000	-52	-30	-155	1904	-1480	15872	-129	-68	23	-4208	7936	11800	-160	-14	-18	-13056	9752	-352	-122	-22	-118	32	5048	15456	-137	-64	80	127	144	12
-8772	-3160	13512	-113	-69	-46	-16000	-2112	312	27	-37	-192	1824	-2088	15808	-123	-116	45	-5368	4568	12080	-165	-16	-13	-13144	8976	32	-123	4	-138	272	4608	15064	-154	-115	92	126	145	12
-6936	-3124	12508	-164	-6	-44	-14320	-1728	600	-150	-71	-165	3000	-2176	14680	-105	-111	103	-6712	5976	11736	-128	22	-22	-12416	8208	-808	-66	48	-194	1160	4216	14880	-176	-131	114	124	145	12
-7572	-3312	11984	-139	0	-35	-13088	-2808	536	-168	-54	-197	3512	-2584	14568	-112	-93	165	-5840	6696	11912	-160	48	-20	-11608	8488	-528	-8	88	-169	1256	3736	14632	-176	-70	124	122	142	12
-8136	-4996	12260	-162	-17	-40	-14488	-3920	536	-104	0	-197	2984	-3280	15952	-121	-85	190	-5224	6832	11328	-216	24	-26	-12848	9016	-504	-65	125	-155	304	4064	15144	-167	-7	144	119	138	12
-7440	-4564	12020	-118	39	-5	-14872	-3832	480	-101	3	-220	2952	-4104	15216	-123	-59	179	-6128	5616	12016	-170	81	-63	-12832	8488	-1640	-118	149	-173	-312	3584	15416	-172	13	169	122	136	12
-7780	-4348	12144	-138	47	-5	-14288	-3560	-56	-94	42	-155	3544	-4128	15448	-93	-29	173	-6200	6768	12128	-215	90	-59	-12920	8824	-1872	-57	188	-167	-40	3064	15968	-164	39	184	125	138	12
-9172	-4716	12784	-112	34	2	-14216	-3944	-152	-96	43	-142	3376	-4344	16272	-70	-9	179	-6840	5728	14048	-230	73	-88	-14168	8944	-1888	-33	193	-138	-440	2328	17400	-152	73	169	126	139	12
-8696	-6052	13924	-74	28	15	-16672	-5104	160	-123	77	-150	2672	-4792	17184	-51	1	168	-6480	6216	14216	-240	87	-96	-15912	9272	-2288	-119	176	-88	-1336	2416	17736	-142	77	126	126	135	12
-8908	-3988	14008	-71	79	24	-16544	-4384	-56	-82	94	-122	3296	-5184	16560	-28	32	151	-6376	5808	13608	-75	116	-29	-15536	8368	-1712	65	126	-92	-712	2176	17112	-129	58	90	125	136	12
-6864	-3592	13300	-78	117	33	-15688	-3536	856	-130	82	-26	3880	-4776	15328	15	96	152	-4672	6152	12912	27	167	-15	-13048	7800	-1136	123	115	-61	264	1680	15416	-55	122	58	125	137	12
-6756	-1436	11700	-84	133	49	-13360	-3856	1320	-188	73	35	3608	-4056	14256	32	158	136	-6464	6720	11776	85	246	-19	-11096	7472	-1960	93	100	-20	232	2112	13800	2	220	33	124	135	12
-8948	-5372	12444	-66	93	26	-12928	-4872	64	-113	139	54	2848	-3576	14760	17	185	111	-5624	7952	11456	13	114	-8	-11704	8968	-1472	86	101	41	-920	2312	14728	41	236	24	127	127	12
-9144	-6692	13208	29	53	75	-15296	-5144	-360	9	134	16	1040	-3936	16248	3	167	55	-5072	8832	11368	-23	119	-15	-13936	9816	-1656	-28	101	102	-2264	3384	16512	29	174	21	130	122	12
-9448	-5372	14712	104	-17	100	-17536	-4824	-736	64	116	0	1136	-4152	16448	4	155	46	-4808	6520	14368	-130	42	-24	-16032	9776	-1488	-55	77	84	-3024	3784	17152	-11	39	11	128	128	12
-7760	-2912	14948	33	26	67	-17184	-2928	232	41	62	67	1312	-4000	16816	58	51	-31	-5168	4544	13648	-35	103	-22	-15320	8560	-1704	-39	6	44	-1616	3440	16536	-41	-78	3	124	136	12
-7280	-5120	13556	-51	47	4	-14536	-2584	336	-101	19	96	2552	-2536	15176	77	44	-5	-4400	4488	12552	66	85	14	-13304	7496	-728	107	-15	3	672	3416	14976	-10	-56	-6	121	137	12
-6392	-4536	11608	-76	101	15	-12944	-3232	760	-188	-8	67	3128	-1944	14288	33	79	35	-5704	5680	12480	57	99	19	-11888	8200	-832	122	-8	5	1200	3896	14904	5	57	-17	121	134	12
-6920	-5184	11680	-39	40	40	-13024	-3752	840	-80	31	-1	3080	-2320	13960	-13	90	67	-4264	7096	12416	22	90	29	-12224	8904	-256	89	27	16	352	4312	14896	11	111	9	123	129	12
-7388	-5080	12252	-61	30	38	-14320	-3528	728	-23	52	-28	2264	-2304	15272	-37	69	73	-5952	7600	12536	-34	76	5	-12488	8936	-152	91	27	14	-360	4624	15976	-7	68	42	128	123	12
-8876	-3536	14080	27	1	79	-16040	-3432	64	-6	57	-64	2320	-3424	17024	-39	22	79	-5928	9680	14024	-73	57	9	-13440	10200	-1008	-67	55	0	-688	4408	16624	-41	-4	61	132	129	12
-8308	-3288	15188	12	-60	70	-18624	-3224	320	2	57	-31	2272	-3464	17080	-32	11	77	-5080	6808	12784	-85	87	1	-14056	10000	-824	-128	69	22	-768	4640	16992	-49	-21	57	127	137	12
-7712	-3928	14384	-82	41	16	-16992	-2144	912	-71	24	21	2824	-3176	16472	74	-37	83	-5560	3952	11984	-29	95	-17	-13856	9960	-1064	-104	91	22	-32	4800	14808	-67	-66	56	120	143	12
-7068	-4512	12548	-115	87	4	-13312	-2728	792	-236	9	31	3816	-2296	14696	61	23	114	-5976	5888	12048	-28	87	-2	-11408	8568	-768	111	68	-33	728	4176	14608	-44	31	68	117	145	12
-8236	-4788	11656	-87	49	12	-13200	-4400	672	-112	34	-9	2352	-2208	15008	-9	54	111	-6440	7608	12408	-113	78	-14	-11784	9560	-1240	65	87	-12	-768	4192	15576	-33	102	79	121	145	12
-8948	-6452	13772	-9	-43	15	-15888	-5328	-624	79	88	-74	600	-2936	17344	-60	14	68	-6144	7664	13736	-160	-21	-30	-14648	10584	-1888	-76	101	-18	-2224	4440	17456	-38	64	90	127	139	12
-9412	-4864	15224	85	-77	78	-19008	-3992	-1024	95	40	-121	-296	-4240	19048	-74	-54	7	-6808	7448	15888	-188	-26	-28	-16224	10928	-1952	-152	80	-31	-3216	3872	18592	-71	-50	110	131	139	12
-8888	-4572	16424	4	-98	20	-19392	-3408	-968	9	-27	-78	480	-4360	19096	-28	-112	1	-6104	6392	15920	-142	-38	2	-17416	9832	-2024	-170	31	-65	-2376	3272	18976	-84	-144	109	128	146	12
-8444	-4952	15384	-38	-62	4	-17672	-3280	-376	-139	-116	-58	1960	-4560	17432	21	-111	48	-6560	6480	15200	-39	22	32	-16032	8656	-1952	-21	-44	-72	-664	2400	18240	-71	-150	99	123	149	12
-9088	-5284	14900	-103	-75	-32	-16560	-4864	80	-163	-142	-54	2832	-4352	17472	28	-102	90	-6464	6536	15176	17	-29	75	-15224	9288	-832	31	-60	-52	512	2640	17928	-16	-80	94	120	138	12
-8392	-5456	14488	-88	-77	-15	-17104	-5512	928	-110	-164	-99	2688	-4784	17552	-10	-95	114	-6176	5688	15448	-34	4	42	-15040	9176	-1168	-74	-51	-19	376	3016	17792	52	-29	123	118	127	12
-8684	-5972	14304	-95	-65	-23	-16904	-6008	456	-45	-136	-107	2904	-4760	17600	-8	-100	111	-7040	6304	14784	-58	20	26	-15440	9472	-1824	-213	16	-48	0	3192	17904	64	-62	143	120	127	12
-9744	-6212	14268	-74	-88	-37	-16064	-5296	-224	-21	-75	-98	3360	-4536	16936	-11	-122	127	-5744	6928	14536	-31	-29	45	-15920	9112	-1560	-149	32	-54	-40	2992	17960	30	-75	149	124	132	12
-8364	-5192	14792	-25	-93	6	-16456	-4696	336	-84	-81	-102	3544	-5344	17128	19	-112	153	-5472	6064	13440	-5	-4	55	-15296	8752	-1248	-69	-10	-9	224	2464	17296	-12	-52	115	125	140	12
-9016	-4788	13896	-24	-67	19	-16208	-4488	160	-105	-96	-52	3696	-5688	16400	76	-102	148	-6152	6944	14312	11	2	56	-14168	8744	-1400	-13	-9	24	520	2128	16672	1	-21	99	126	142	12
-8048	-3176	14360	-30	-101	7	-15608	-6064	1136	-186	-96	14	3864	-6048	16424	110	-65	128	-6624	5712	15232	1	-12	50	-14632	9216	-824	-51	-5	49	-120	2000	17408	50	16	93	127	143	12
-8092	-5924	14320	-17	-87	3	-16608	-6688	896	-57	-92	17	3336	-5640	17168	122	-63	82	-5824	6256	14528	-21	-11	58	-15616	9384	-1632	-202	6	102	-1176	2400	16952	99	0	96	127	134	12
-7448	-6144	14708	40	-112	10	-15240	-5208	560	10	-70	60	3392	-5112	15488	133	-39	49	-4728	6016	13224	24	-13	75	-15104	8088	-1224	-84	-32	76	-1056	2936	16360	142	-45	106	122	132	12
-7980	-4380	14520	8	-113	3	-14320	-3912	-152	26	-95	81	3064	-3784	14536	123	-35	24	-6456	5928	12320	53	-10	93	-12952	8568	-2256	-62	-46	88	-816	2872	15088	135	-60	104	127	134	12
-7252	-3192	11588	61	-104	35	-13000	-3560	-72	-19	-50	133	2656	-3104	13928	122	-20	8	-6152	6104	11752	126	-5	116	-11824	8152	-1496	58	-60	93	-1160	2832	14664	144	-34	71	131	133	12
-8132	-4300	13368	130	-160	68	-14792	-3544	-8	38	-42	147	1560	-3408	16128	129	-19	-44	-6272	9056	12304	65	-51	99	-12128	10216	-1576	-26	-102	190	-1760	3256	15360	152	-30	36	137	127	12
-7824	-3168	14452	168	-192	90	-17632	-3688	-752	108	-78	151	688	-3680	17304	135	-59	-104	-5872	6400	13280	2	-64	85	-13656	10248	-1864	-90	-115	227	-2224	4112	16488	171	-91	42	137	124	12
-7952	-3920	14852	164	-182	81	-17896	-3168	-248	38	-122	194	1616	-2976	18240	182	-116	-127	-5688	6960	14328	18	-93	83	-15648	10208	-1448	-180	-85	181	-1736	4752	17376	175	-192	39	130	127	12
-7644	-4040	13648	47	-95	35	-15848	-2384	1160	-5	-139	164	3456	-1640	16424	185	-95	-82	-5304	7216	12920	96	19	92	-14576	8824	-1528	-136	-127	125	264	5016	16136	172	-215	31	122	130	12
-8844	-3992	12824	-19	-50	19	-13880	-1632	880	-22	-107	143	3528	-1464	16048	186	-92	-72	-5792	6016	11760	156	26	102	-12496	8704	-616	53	-113	100	2640	5512	15376	156	-117	-23	118	132	12
-7852	-2160	12092	-2	-30	47	-13512	-2064	1200	-92	-62	81	4448	-392	15464	123	-52	7	-5752	5832	11760	166	75	102	-11432	9448	-184	108	-80	114	2472	6000	14792	92	26	-46	120	134	12
-8092	-3692	12604	11	-64	56	-14504	-3056	728	-42	-4	40	3008	-1296	15960	-13	41	53	-5504	7880	11896	103	70	88	-11696	10168	-8	45	-10	103	1224	6232	15088	55	93	-30	122	134	12
-7872	-3256	12956	17	-51	76	-15848	-3008	328	-8	13	14	2288	-2576	16368	-11	36	53	-5144	9224	12192	18	65	56	-12176	11168	-336	-84	40	93	368	6080	15208	29	93	19	124	139	12
-7900	-4384	14176	16	-50	60	-15744	-2496	296	-72	14	6	2720	-3136	16368	41	32	64	-3984	7544	12048	-41	58	36	-12680	10400	-160	-114	89	23	16	6072	15120	-9	57	72	122	147	12
-7628	-3344	13520	8	1	85	-15496	-2496	416	-97	-23	24	2960	-3240	15776	94	37	77	-5272	8504	12152	-77	78	25	-12656	10216	-536	-83	121	-4	-48	5920	15376	-20	51	83	118	150	12
-7880	-4072	12144	-46	22	60	-14864	-3112	424	-111	-20	37	3128	-2488	15976	99	43	93	-7624	6640	13384	-141	91	-24	-12936	9232	-1480	-60	163	-12	232	4720	16128	-47	34	169	118	146	12
-8580	-5224	13356	-9	-29	57	-15992	-4560	688	-117	16	-2	2616	-2784	16720	54	20	105	-5792	6440	14016	-191	70	-43	-14200	9864	-1176	-54	167	-16	-600	4440	16872	-46	73	178	118	144	12
-9344	-5920	14264	-20	-18	58	-16912	-4376	832	-36	47	-32	2192	-2704	17648	22	-16	92	-5240	6776	13952	-153	67	-37	-15664	9696	-1592	-129	159	-36	-1360	4272	17816	-50	51	168	122	144	12
-8576	-3020	14304	-15	24	67	-16192	-3040	272	-45	39	-42	2448	-2896	16320	0	-2	95	-5328	5160	13456	-75	124	-16	-14992	8888	-1728	-40	138	-68	-1152	3704	16592	-56	34	150	125	142	12
-8768	-3880	14260	-51	17	36	-14888	-2840	64	-142	23	-3	3056	-2984	16152	5	0	123	-5400	7200	13216	-10	118	11	-13816	9344	-1344	37	103	-73	-480	3192	16488	-54	40	126	126	141	12
-9232	-4692	13508	-31	26	58	-16000	-3880	-8	-140	5	-37	2224	-3616	17128	11	-3	140	-6928	6512	14080	-47	90	7	-13744	9968	-1672	-56	113	-16	-704	2752	16720	-38	48	112	126	135	12
-7784	-5696	14988	-21	-23	32	-17320	-4648	-112	-140	8	-46	2152	-4136	17704	30	-18	144	-5792	7752	14072	-62	66	12	-14800	9528	-1440	-76	94	10	-1560	2912	17368	-12	35	101	124	131	12
-9692	-3112	14420	-44	15	49	-17224	-4328	152	-72	-24	-43	2536	-4360	17376	52	-29	136	-6912	6640	14040	-67	87	0	-14872	9624	-2352	-168	85	38	-1416	3056	17040	7	-18	91	121	133	12
-8688	-4540	14600	-48	-17	11	-15496	-4224	328	-104	7	10	3224	-3888	16400	87	-9	148	-5816	6480	13912	-16	46	38	-14872	8816	-1072	34	49	13	-712	3448	17176	17	-7	68	119	135	12
-8460	-4704	13120	-33	20	47	-15984	-4184	760	-77	-19	-12	2816	-3608	16592	75	6	140	-7232	6992	13304	-1	69	41	-14000	9728	-2176	-42	19	54	-1000	3584	16696	25	31	46	121	134	12
-8464	-3436	13904	8	-21	58	-15808	-4368	-312	-42	15	0	2432	-3840	16616	56	9	100	-5928	6984	14696	14	48	52	-13800	9520	-1328	85	7	64	-776	3776	16808	53	61	34	125	134	12
-8240	-4972	14940	8	-66	38	-16744	-4744	1128	-82	2	35	1944	-4104	16992	57	1	59	-6320	7608	13368	31	78	23	-14448	10072	-1488	-85	-8	71	-1400	4264	17056	43	63	37	131	135	12
-9660	-4384	14728	32	-29	54	-16272	-4576	-848	18	-13	32	2152	-4080	17184	64	0	7	-6336	6752	13864	12	12	47	-14448	10088	-1264	-26	-11	67	-1088	4112	17080	48	6	45	132	136	12
-8800	-5188	14352	4	-38	48	-16584	-4032	-136	-49	-48	74	2360	-3696	17376	62	-11	-21	-6664	5032	15024	-44	-9	31	-15416	9968	-1048	-32	-7	48	-1088	4432	17512	45	-33	73	128	137	12
-8524	-5420	14076	29	-57	43	-16456	-4480	496	-69	-56	30	2368	-3320	17224	41	-19	-20	-6664	7304	14880	-2	30	40	-15224	9664	-1528	-91	-23	20	-424	4240	17416	24	-71	72	126	138	12
-8300	-4192	14504	30	-72	33	-16528	-3608	744	3	-31	30	2696	-2968	16800	29	-23	-7	-5200	6072	12344	39	44	48	-13888	9440	-1240	-25	-36	26	336	4024	15776	31	-58	62	124	137	12
-8300	-3228	14300	7	-57	35	-15672	-2368	664	0	-37	57	2832	-2696	15888	32	-18	16	-5696	6440	12816	47	66	41	-12560	8856	-296	64	-21	37	488	3808	15160	58	5	64	125	134	12
-7368	-3088	13328	9	-54	49	-15504	-2328	664	-8	-25	59	2808	-3016	15432	50	-14	47	-5520	7080	12720	56	52	61	-12200	9624	-632	-12	1	45	-120	4000	14632	90	41	77	126	132	12
-8752	-5196	12596	-10	-62	28	-14960	-3496	312	-81	-70	30	2032	-2696	16032	61	-32	64	-6184	9040	12768	-13	26	45	-12752	9960	-1568	-138	26	67	-760	3944	15816	94	18	98	125	133	12
-8568	-6408	14400	-5	-110	-9	-15944	-4160	-168	-39	-46	-4	1728	-3136	17080	78	-60	74	-6056	6688	14024	-106	-53	17	-14856	10080	-1392	-154	17	61	-1536	4432	17368	52	-43	119	125	137	12
-9076	-5652	14384	4	-98	16	-17448	-4096	-296	-2	-79	-46	1512	-3504	17688	83	-106	56	-7200	5552	14640	-123	-18	2	-15272	10032	-1464	-178	25	54	-1656	4472	17760	-15	-136	100	124	142	12
-8864	-4480	14740	-27	-80	0	-16424	-3712	-360	-41	-71	-18	2824	-3208	17232	72	-118	57	-5496	4824	14616	-33	-29	48	-15856	9128	-1144	-7	-22	-10	-512	4288	17472	-45	-166	76	120	144	12
-7472	-5780	12984	-43	-23	10	-15424	-3344	1184	-86	-96	-16	3504	-2808	15992	39	-86	72	-6112	6416	13072	50	49	61	-13768	8984	-1320	28	-50	-18	784	3704	16256	-33	-72	46	123	144	12
-7848	-3488	12712	-49	-44	25	-14456	-3712	464	-55	-60	-14	3688	-2928	15472	15	-35	75	-5696	6392	13536	47	50	72	-12416	9112	-872	59	-10	8	720	3800	15592	38	17	54	125	139	12
-7496	-4712	13628	-26	-88	22	-15304	-4512	1488	-90	-42	-5	3080	-3632	16736	9	-22	77	-5152	8184	12136	16	42	57	-13264	10272	-768	-78	7	22	-344	3920	15944	70	58	83	127	130	12
-8776	-4096	13496	-13	-60	38	-16312	-3960	-144	12	-31	-31	2544	-3816	16656	16	-23	55	-6088	7576	12960	-23	27	24	-13144	9608	-1656	-171	43	43	-816	4072	15360	79	8	109	127	127	12
-9312	-4488	13328	-10	-56	40	-15840	-3576	672	-96	-31	22	2728	-3680	16048	55	-22	60	-5400	7152	11920	-19	25	33	-13464	9048	-1240	-73	26	19	-592	4032	15640	48	-21	114	125	133	12
-8460	-4128	13196	-3	-35	38	-15200	-3072	232	-37	-39	26	2912	-3320	15936	71	-15	56	-6304	5968	12152	-46	17	27	-12976	8960	-1688	-56	17	47	-568	3672	15648	16	-39	90	122	140	12
-8052	-4632	13316	-6	-49	22	-15184	-3688	72	-55	-34	44	2528	-2792	15976	76	-17	42	-6592	6184	12856	-38	-10	27	-13680	9032	-1672	3	25	41	-568	3904	16280	12	-21	67	122	140	12
-8780	-4716	13684	52	-63	56	-15936	-4200	8	-6	-26	8	2120	-3248	16664	51	-29	27	-5840	7632	13600	-40	1	44	-14064	9944	-1368	-6	16	61	-992	3624	16856	8	-8	42	125	139	12
-8264	-5268	14236	36	-77	33	-17016	-3816	-168	39	-23	15	1816	-3264	17224	57	-54	13	-5944	5704	14440	-37	5	26	-15288	9968	-1456	-82	7	59	-1136	3856	17280	29	-23	52	127	137	12
-8500	-3980	13564	22	-30	35	-16336	-3408	272	-35	-54	15	2264	-3288	17064	63	-67	32	-7184	5688	15184	-2	36	23	-15072	9536	-1848	-95	3	32	-960	4120	17160	33	-57	62	126	137	12
-7880	-4040	13788	-15	-63	13	-15784	-3832	256	-130	-53	15	2952	-3376	16648	57	-61	58	-6560	6288	14880	16	44	25	-14776	9352	-1328	-57	-1	15	-168	3776	17560	24	-56	64	126	139	12
-9076	-5096	14324	-29	-74	4	-16392	-4488	456	-93	-59	-17	2712	-3608	17376	48	-46	70	-6664	7896	15112	22	31	43	-14688	9632	-976	-61	-22	38	-80	3984	17024	10	-31	56	124	138	12
-8864	-5660	14292	-37	-42	3	-16424	-4344	312	-56	-39	-23	2880	-3624	16912	25	-23	63	-5624	6960	13208	7	28	34	-14576	9560	-1200	-39	-16	12	-152	4248	16672	0	-28	62	123	134	12
-8436	-4796	13704	0	-30	24	-15288	-3880	144	-34	-37	-11	3640	-3720	15912	17	10	59	-5232	6352	12728	14	55	30	-13312	9632	-912	5	23	4	296	4152	15912	30	2	80	122	132	12
-8444	-3272	13952	-1	-26	23	-14888	-3480	712	-39	-26	22	3480	-3344	15920	32	26	61	-5912	7672	12808	14	44	38	-12840	9440	-952	-4	41	0	104	3888	15712	53	36	93	122	134	12
-7396	-3436	13032	20	-33	52	-15384	-3656	1024	-55	-31	14	3048	-3448	15904	42	35	60	-6304	7704	12928	-31	44	25	-12656	9456	-1376	-42	43	35	-136	3752	15552	70	60	99	124	133	12
-7996	-4384	13020	-13	-34	26	-15864	-4104	208	-24	-12	23	2488	-3400	16584	49	-1	43	-6640	7616	13864	-86	0	17	-13984	9568	-1888	-93	49	44	-920	4000	16592	51	28	99	125	135	12
-8436	-4984	13808	-1	-50	22	-16640	-4336	552	-46	-7	16	2016	-3296	16728	64	-32	32	-6400	6128	13832	-111	-9	12	-15352	8824	-1560	-101	36	29	-1288	4024	17024	-8	-25	77	125	138	12
-8532	-4428	13804	14	-30	46	-15776	-3432	592	-34	-4	7	2680	-3152	16368	58	-38	29	-5520	6064	13392	-4	50	25	-14480	9072	-1304	-2	-3	15	-272	3752	16416	-43	-63	39	124	144	12
-7724	-3836	13452	-6	-11	24	-14976	-2584	544	-35	2	33	2936	-2752	15560	56	-17	47	-5408	6680	12568	69	78	38	-12872	8848	-920	80	-15	18	376	3464	15336	-18	-20	24	125	145	12
-7860	-3092	13540	-11	-23	27	-14640	-3096	696	-70	-11	27	2744	-2936	15968	50	11	65	-6384	7824	12216	61	70	42	-12264	9968	-920	9	-1	58	96	3640	15864	26	40	26	126	140	12
-8656	-5064	13536	12	-35	40	-14944	-3320	592	-66	-12	30	2216	-3168	17016	44	4	63	-6048	8080	14024	-28	0	34	-13552	10656	-984	-52	47	82	-1152	4240	16528	62	29	51	126	128	12
-7472	-4456	14780	41	-61	48	-17320	-4048	720	-54	-27	9	2216	-3400	17296	48	-13	46	-5744	7120	13632	-65	45	3	-14640	10128	-1304	-135	35	71	-1656	4856	16928	55	-11	67	123	126	12
-9272	-3792	13996	-13	-19	28	-16088	-3288	240	-15	-28	22	2616	-2736	16328	56	-26	45	-5640	5360	12824	-12	51	13	-14056	9112	-1872	-98	28	21	-1024	4888	15840	31	-70	81	120	133	12
-6768	-3536	12608	-50	27	15	-13960	-2592	672	-106	-25	41	3536	-2256	14792	44	9	65	-5888	5728	12408	17	49	22	-12672	8496	-1128	106	8	-13	488	4520	15776	16	-36	65	120	139	12
-8400	-3920	12844	-37	-21	28	-14032	-3616	760	-95	-16	6	2832	-2320	15984	21	26	62	-6024	7208	12952	-45	42	18	-12688	9768	-1104	55	8	21	400	4632	15800	-8	43	32	122	139	12
-8296	-5796	13152	-11	-23	24	-15856	-4256	-88	5	9	-36	2040	-2848	16384	-25	21	44	-5696	6264	13184	-66	36	3	-13936	9416	-1384	-29	40	10	-464	4864	16448	-22	49	42	126	136	12
-8552	-4564	13692	-16	-25	32	-16272	-3600	-88	-13	17	-52	2360	-3088	16728	-24	-4	29	-5088	6784	13768	-75	36	9	-14504	9912	-664	-37	47	-30	-448	4696	16856	-45	-3	62	126	139	12
-8012	-3656	13308	-44	5	26	-15728	-3104	592	-57	2	-38	2856	-2984	16400	4	-11	58	-6344	6240	13960	-76	69	-8	-14328	9520	-1104	-71	61	-48	64	4136	16504	-70	-21	84	125	144	12
-7276	-3756	12912	-62	13	17	-15288	-3176	776	-125	11	-48	3272	-3192	15544	13	3	111	-5584	5992	12368	-34	95	7	-13232	8512	-928	9	59	-66	800	3752	15520	-74	2	83	123	147	12
-7896	-3872	12976	-60	30	27	-14232	-3528	704	-154	19	-51	3504	-3464	15152	4	43	127	-5400	6944	11800	-31	103	3	-12344	8664	-672	46	79	-46	1112	3656	14952	-53	67	72	121	144	12
-7632	-2912	12764	-57	48	28	-14376	-3960	688	-102	26	-33	3048	-3632	15024	0	71	109	-6168	6640	11792	-28	123	-13	-11848	8760	-976	0	101	-24	40	3520	14760	-24	108	83	124	137	12
-8316	-4648	13100	-24	12	38	-15072	-4288	232	-46	65	-8	2608	-3592	15752	4	67	93	-5608	7048	12160	-82	67	-9	-12680	9712	-776	-22	127	0	-608	3440	15408	3	98	103	124	133	12
-8048	-5112	13788	-6	15	49	-15856	-3848	424	-32	46	1	2096	-3672	16688	26	46	78	-5960	6648	13064	-115	58	-28	-13712	9336	-1488	-104	124	14	-1768	3568	15928	3	61	121	124	133	12
-8048	-4928	12584	-1	34	58	-15904	-3504	-384	-31	29	3	2112	-3520	15872	41	15	66	-6360	6392	12872	-88	63	-13	-13864	8704	-2344	-64	116	0	-1536	3224	15880	-12	-5	105	123	135	12
-7716	-3772	13708	-1	4	41	-14976	-3464	320	-102	38	36	2456	-3352	15936	69	14	65	-5536	6768	13480	-55	63	-7	-13984	8464	-1568	55	65	6	-1080	3128	16576	-21	0	77	125	139	12
-8320	-4568	13320	-12	13	42	-15784	-3976	264	-25	14	18	1960	-3272	16392	62	6	50	-6400	5656	13832	-36	59	-6	-14304	9024	-1848	0	38	39	-1088	3248	16600	-20	12	34	126	137	12
-8368	-4036	14100	28	-8	58	-15984	-4056	-48	-53	21	16	2424	-3472	16880	41	7	32	-5696	7616	14168	-11	56	13	-14720	9696	-1560	48	19	45	-1056	3640	17400	3	10	10	127	135	12
-8476	-4940	14360	-3	-7	33	-16816	-3800	392	2	15	16	2336	-3152	17456	33	-7	31	-6288	6368	14208	-2	66	13	-14968	9912	-1800	-61	15	51	-1064	4072	17440	6	-5	11	126	133	12
-8756	-4708	14516	-16	-1	25	-16600	-3440	376	-40	4	5	2632	-3152	17056	27	-1	50	-5728	5752	14056	18	62	19	-14688	9536	-1144	-17	10	34	-496	4000	16904	17	-20	14	124	132	12
-7840	-5416	14020	-34	13	19	-15720	-3568	400	-81	-8	3	3008	-3184	16648	22	10	71	-6112	7472	13744	37	60	34	-14656	9360	-1088	-20	11	30	-104	4344	16600	15	-7	17	122	134	12
-8280	-4580	13216	-42	6	20	-15552	-3880	192	-55	-6	-13	2624	-3448	16160	7	26	67	-6168	6296	13256	9	80	13	-13072	9480	-1304	24	8	26	192	4464	15784	13	23	30	122	135	12
-8004	-4580	13128	-50	-5	16	-15248	-4272	120	-51	16	9	2648	-3368	16128	4	35	52	-6136	7016	12928	-13	64	14	-12920	9488	-1072	18	33	12	56	4760	16096	10	39	44	123	136	12
-8760	-5440	14036	-8	-28	25	-15832	-4240	192	-31	14	-7	2296	-3576	16936	3	35	39	-5624	7928	13456	-68	25	1	-13968	10432	-1104	-51	44	13	-544	4496	16808	-8	43	71	124	136	12
-8800	-4284	14120	-16	-22	35	-16808	-3792	152	-11	1	-12	2040	-3432	17288	11	5	26	-6136	6952	14568	-108	26	-17	-15104	10064	-1272	-100	61	2	-1080	4448	17464	-26	0	92	124	137	12
-8392	-5384	14420	-21	-30	9	-16536	-3872	360	-68	-4	-21	2608	-3272	17056	29	-17	50	-5064	5696	14000	-62	29	-4	-15464	9336	-1096	-72	45	-41	-456	4008	17136	-39	-21	101	124	141	12
-8296	-4128	14004	-29	-6	18	-15520	-3336	496	-88	-21	-28	3072	-3352	16048	31	-16	70	-5784	6520	13216	-10	58	12	-13872	8976	-1080	-18	26	-32	128	3312	16152	-33	-15	86	123	142	12
-7916	-3524	13188	-15	-6	33	-15288	-3336	672	-73	-17	-12	3064	-3384	15496	27	1	84	-5664	7008	12384	30	81	33	-12656	8752	-848	67	31	-7	216	3168	15816	-28	-6	85	124	140	12
-7716	-4284	13296	-27	-21	15	-14784	-3712	440	-69	3	15	2744	-3352	15736	22	15	71	-5552	7656	12384	7	52	34	-12384	9352	-800	18	31	18	-416	3384	15048	37	43	71	125	136	12
-8092	-4396	13668	-6	-44	23	-15728	-3960	464	-38	-19	6	1936	-3448	16160	34	10	52	-5504	7416	12648	-48	27	16	-13064	9768	-1368	-101	45	41	-1440	3656	15472	44	25	85	124	130	12
-8304	-4872	13868	11	-44	29	-15768	-3456	-88	-15	-28	7	1888	-3264	16352	42	-8	34	-5536	6552	13672	-90	-6	8	-14088	9720	-1656	-107	36	38	-1720	3712	16200	39	-42	93	123	131	12
-8268	-4976	14000	-20	-61	1	-15856	-3832	328	-30	-44	14	2192	-2952	16552	50	-43	31	-6392	6000	13672	-82	-13	8	-14752	9176	-1728	-116	4	26	-1488	4040	17144	-2	-98	79	122	136	12
-8312	-4404	13464	-2	-49	20	-15984	-3376	24	-16	-45	-3	2320	-2896	16528	50	-62	31	-6512	6400	13832	-38	-9	30	-14608	9160	-1904	-15	-29	17	-840	3808	17208	-23	-115	48	121	135	12
-8072	-4420	14392	-25	-64	0	-16080	-3240	536	-34	-43	0	2656	-2784	16776	36	-66	31	-5552	5864	13728	-13	1	33	-14552	9344	-1096	31	-56	27	-184	4352	16808	-21	-66	20	125	136	12
-7944	-4284	13464	-28	-31	7	-15712	-3408	616	-41	-58	-21	2944	-2640	16256	10	-51	44	-5960	6832	12912	31	40	47	-13488	9496	-864	5	-40	8	-56	4632	16000	0	-33	19	126	136	12
-8388	-4572	13428	-22	-30	11	-14992	-3280	408	-57	-32	-20	3336	-2488	16072	-2	-32	58	-5464	7120	13016	41	39	51	-13136	9488	-488	16	-10	-12	304	4384	15688	19	-9	44	129	134	12
-7788	-4272	13408	-36	-42	9	-15488	-3544	984	-65	-37	-31	2816	-2896	16496	-4	-17	71	-6288	6696	12968	-32	48	17	-12880	9840	-816	-64	0	4	-24	4520	15696	11	-4	61	128	137	12
-8816	-5720	13672	-40	-39	6	-15904	-4088	-112	-43	-16	-52	2528	-3032	16624	-12	-23	72	-6024	6760	12856	-58	-8	18	-13712	9712	-1072	-71	38	-16	-264	4688	16576	-14	-22	78	128	140	12
-9196	-4760	13984	-25	-29	25	-16288	-3936	464	-45	-23	-59	2208	-3744	16968	-5	-32	57	-6688	6512	13768	-112	0	-1	-14304	10160	-1008	-66	33	-5	-568	4520	16856	-55	-44	81	126	143	12
-8672	-4408	14076	-41	-46	16	-16448	-3856	8	-8	-12	-36	2424	-3752	17256	13	-45	54	-6392	6880	14296	-111	14	-2	-14640	9336	-1416	-49	43	-26	-592	4200	17136	-61	-48	95	125	142	12
-7868	-5544	13720	-48	-34	-1	-16160	-3696	448	-77	-28	-33	2600	-3424	16256	7	-36	64	-5016	5424	13040	-42	37	12	-14152	8792	-1008	-31	31	-54	-8	3720	16000	-37	-7	102	124	141	12
-7400	-3600	12636	-50	3	21	-14280	-3280	576	-119	-35	-31	3312	-3144	15080	-5	9	68	-6240	5712	12040	-10	84	12	-12632	8464	-1528	8	26	-58	256	3280	15256	-6	45	107	126	142	12
-8160	-4464	12316	-35	-17	9	-13840	-3704	424	-72	-7	-10	2880	-3448	15088	-3	26	84	-5688	6472	12504	2	53	32	-12496	8824	-824	63	54	-42	232	3016	15128	27	72	108	128	138	12
-8168	-4892	13552	-3	-41	36	-15304	-4144	608	-74	-10	-23	2160	-3872	16272	14	12	71	-6256	7248	12616	-72	49	-6	-13184	9616	-1288	-82	54	12	-832	2936	15832	30	52	102	128	134	12
-9504	-5580	14184	3	-58	27	-16984	-4504	-544	14	-6	-40	1824	-4072	17288	33	-38	55	-6136	6072	14040	-110	-15	-4	-14832	9424	-1664	-137	69	32	-1424	3208	17160	9	-27	95	127	130	12
-7916	-4852	14068	-9	-29	33	-16784	-3776	528	-78	-28	-2	2560	-4224	16784	58	-47	52	-5560	6112	14272	-67	26	9	-15256	8592	-1448	-71	33	16	-768	3568	16920	-22	-91	75	124	137	12
-7580	-4032	13212	-54	-5	11	-14688	-3832	728	-78	-46	12	3488	-3440	15488	75	-23	66	-5928	4296	13352	-16	52	22	-14088	7920	-1176	4	4	9	264	3272	16248	-28	-72	53	120	141	12
-7716	-5016	11996	-47	13	12	-13840	-3776	808	-87	-32	32	3456	-2888	14832	40	8	79	-5616	6640	12104	55	87	35	-12512	8232	-1376	55	2	15	776	3128	15192	7	15	28	123	138	12
-8460	-4228	12804	-6	-25	43	-14176	-4344	304	-45	19	8	3096	-3264	15616	19	16	75	-5896	7360	13088	14	43	32	-12648	9696	-864	45	26	58	72	3392	15944	51	73	32	127	132	12
-8184	-5640	13672	34	-41	54	-16280	-4624	384	-10	15	-3	2152	-3872	16624	16	3	54	-5528	6640	13032	-35	51	18	-14128	9864	-1208	-106	49	65	-1232	4048	16368	55	69	46	130	127	12
-8476	-4844	13752	22	-17	45	-16272	-3800	-672	7	8	8	2040	-4040	16632	45	-16	38	-6488	6240	13928	-30	29	10	-14736	9408	-1704	-88	53	39	-1384	3912	16688	30	-13	70	129	131	12
-7972	-4376	13840	-3	-19	35	-15952	-3728	192	-91	-18	32	2624	-3752	16456	74	-10	45	-5640	6080	13680	-18	47	9	-14656	9152	-1208	-8	16	23	-448	3960	16456	-6	-43	69	125	139	12
-8388	-4820	13192	-16	-12	35	-15184	-3736	472	-76	-21	25	2776	-3392	16080	76	-1	57	-6376	6288	13352	-18	68	11	-13440	8936	-1328	17	2	30	72	3768	16256	-18	-35	55	122	142	12
-8724	-5020	13412	-14	-11	31	-15240	-4088	336	-60	5	23	2904	-2944	16312	44	13	49	-5528	6888	13048	-3	44	28	-13536	9208	-960	36	17	27	456	3888	16032	-4	19	38	122	139	12
-8212	-5336	13356	-10	-17	27	-15624	-3824	552	-20	10	15	2824	-3176	16600	19	21	35	-6048	6496	13592	-21	48	16	-13848	9776	-712	-14	28	42	-576	4112	16376	17	45	44	125	134	12
-8284	-4608	13808	12	-17	41	-16288	-3520	480	8	14	9	2552	-2952	16488	11	11	38	-5568	6184	12808	-14	70	12	-14128	9656	-1112	-66	48	28	-512	4256	16208	37	27	55	125	131	12
-8180	-4628	13860	-14	0	30	-15432	-2936	384	-53	7	18	2752	-2840	16008	23	18	62	-5328	6112	12800	4	62	13	-13608	9200	-1096	-30	47	12	-320	4216	15856	37	16	69	125	133	12
-7916	-4256	13096	-17	4	31	-15048	-3176	464	-115	-12	6	2768	-3008	15784	30	28	74	-5944	6760	12160	-9	83	6	-12840	8960	-1272	6	37	12	-128	4104	15256	18	27	62	123	139	12
-8348	-4044	12892	-30	-2	35	-14784	-3784	192	-69	14	7	2472	-3008	15584	31	25	67	-6072	7144	12144	-42	61	7	-12744	9232	-1520	5	41	20	-504	4064	15824	-6	22	52	124	141	12
-9032	-4664	13812	-8	-17	37	-15720	-3920	24	-12	30	6	2104	-3080	16856	32	6	52	-6088	7248	13696	-90	3	-8	-13992	10192	-1368	-6	49	39	-920	4152	16576	-24	6	55	125	138	12
-8352	-5332	14396	8	-27	53	-17144	-3792	64	-7	10	-9	2144	-3320	17672	38	-20	44	-5792	7432	14232	-92	27	-8	-15040	10320	-1192	-72	52	43	-1120	4360	17440	-28	-22	63	125	136	12
-8296	-3944	14672	-29	-11	30	-16784	-3112	248	-29	-1	-4	2744	-3144	17080	51	-22	51	-6056	5176	14208	-46	50	-4	-15152	9416	-1048	-80	43	7	-400	4224	17384	-20	-43	62	123	139	12
-7788	-4864	13880	-59	17	12	-15432	-3024	1264	-121	-22	1	3560	-2776	16040	35	2	84	-5664	5432	13048	16	82	9	-13944	8576	-952	18	29	-24	640	4144	16120	-6	7	59	120	141	12
-8044	-4280	12472	-60	41	23	-14368	-3584	496	-133	-14	-16	3464	-2712	15288	1	33	98	-5440	6432	12560	39	105	25	-12208	8520	-1232	57	37	-19	768	3712	14856	6	59	43	121	139	12
-7896	-5204	12716	-46	1	12	-14160	-4112	416	-83	29	-9	2664	-3144	15256	-14	50	90	-5512	6856	11864	-24	78	0	-12064	9008	-1208	27	51	-8	72	3824	14992	4	91	60	124	135	12
-8652	-5004	13428	14	-12	42	-15296	-4632	-232	-23	36	-41	1800	-3920	16256	-24	42	62	-6248	7296	13104	-98	20	-14	-13288	10080	-1208	-51	81	9	-1248	3928	16136	-4	74	79	127	133	12
-8320	-4524	14060	20	-26	45	-16608	-4144	-720	1	20	-38	1512	-4296	16632	-4	11	36	-5808	6584	14200	-127	9	-17	-14792	9704	-1248	-86	90	-3	-1856	3808	17040	-27	-1	103	127	136	12
-8188	-5376	14288	-26	-31	17	-16728	-3840	120	-51	-19	-18	2016	-4104	16776	45	-21	30	-5920	4632	14264	-134	26	-31	-15592	8928	-1576	-109	47	-29	-1288	3616	17368	-57	-64	111	122	143	12
-8376	-6172	13396	-48	-7	-2	-15464	-3928	-48	-91	-39	-22	2776	-3552	16248	45	-33	56	-5528	6224	13440	-42	24	10	-14840	8312	-1728	-30	27	-48	-160	2936	16512	-57	-66	104	122	142	12
-7684	-3988	13160	-28	-5	19	-15024	-3760	952	-93	-27	-25	3272	-3504	15848	21	-14	73	-5952	6072	13664	0	56	27	-13352	8416	-832	72	10	-26	584	2560	16088	-13	-2	71	125	141	12
-8404	-5040	13076	-50	-21	8	-15296	-4216	520	-37	-16	-22	2696	-3592	15912	14	-16	81	-6128	6304	12992	-14	75	10	-13384	8664	-1384	-39	32	10	16	2864	15696	20	51	56	127	135	12
-8124	-4700	13260	-8	-15	23	-15120	-4208	-312	-72	5	-25	2824	-4024	16136	7	-14	81	-5640	7008	13104	-2	44	24	-13752	8800	-1304	-11	52	4	-504	3216	16096	38	33	59	128	132	12
-8592	-4652	13672	-10	-18	22	-15528	-4344	-48	-48	-4	-19	2648	-4240	16456	26	-10	80	-5784	6832	13632	-27	39	8	-14088	9272	-1256	-78	36	27	-904	3200	15840	18	2	68	127	134	12
-7796	-4336	13184	-34	-17	9	-15816	-4248	-16	-33	-5	-21	2320	-4264	16064	44	-1	69	-6136	5600	13216	-22	49	6	-13776	8312	-1416	-47	26	19	-576	3144	16000	4	-32	69	123	137	12
-8364	-5584	13020	-37	-7	4	-14688	-4680	-48	-80	-17	24	3008	-3984	15728	53	4	53	-6224	6504	13776	-50	16	1	-13808	9048	-1624	-14	15	24	-352	3336	16512	-9	-23	57	122	138	12
-8216	-5144	13372	13	-40	25	-15680	-5152	216	-24	-12	7	2488	-4008	16248	39	7	29	-6016	6440	13752	-40	23	19	-14552	9072	-1336	4	6	37	-704	3288	16872	-14	-13	39	124	135	12
-8720	-5196	14108	27	-41	36	-16336	-4176	416	49	8	9	2520	-3896	16760	35	-2	5	-6008	5312	13576	-28	31	6	-14712	9280	-1624	-31	2	49	-656	3504	17120	7	-15	35	127	134	12
-8248	-4980	13536	9	-18	25	-16176	-3680	72	8	-5	29	2800	-3440	16504	34	-21	8	-5384	6736	13552	4	41	20	-14424	8784	-1488	-30	12	33	-376	3672	16792	34	-11	42	128	134	12
