#Activity	sitting 
#ActivityID	5 
#Date 08-27-17-15
acc_rf_x	acc_rf_y	acc_rf_z	gyro_rf_x	gyro_rf_y	gyro_rf_z	acc_rs_x	acc_rs_y	acc_rs_z	gyro_rs_x	gyro_rs_y	gyro_rs_z	acc_rt_x	acc_rt_y	acc_rt_z	gyro_rt_x	gyro_rt_y	gyro_rt_z	acc_lf_x	acc_lf_y	acc_lf_z	gyro_lf_x	gyro_lf_y	gyro_lf_z	acc_ls_x	acc_ls_y	acc_ls_z	gyro_ls_x	gyro_ls_y	gyro_ls_z	acc_lt_x	acc_lt_y	acc_lt_z	gyro_lt_x	gyro_lt_y	gyro_lt_z	EMG_r	EMG_l	act
-10236	-4004	11732	-19	23	-24	-16096	-1568	1432	3	-2	-19	-1184	-4392	16256	-10	-14	33	-9832	5600	12392	23	-6	-20	-16488	1632	-1288	11	0	20	-2056	-2744	16736	49	3	-4	122	129	5
-10180	-3940	11752	-14	20	-30	-16056	-1368	1104	-2	1	-16	-1080	-4576	16280	-12	-20	36	-10040	5728	12040	17	-3	-19	-16480	1752	-1304	17	-6	17	-2144	-2576	16952	43	6	6	121	129	5
-10196	-3904	11772	-16	22	-30	-16072	-1480	1280	-15	-2	-17	-1096	-4624	16504	-16	-12	38	-9880	5560	12496	9	-5	-19	-16632	1664	-1400	14	-10	21	-2080	-2672	16744	22	1	3	120	130	5
-10208	-3988	11780	-21	23	-27	-16088	-1720	1088	-16	-7	-14	-1120	-4696	16416	-13	-12	29	-9944	5672	12416	18	-3	-18	-16712	1688	-1376	24	-7	21	-2008	-2568	16544	6	0	-4	122	130	5
-10252	-3932	11772	-19	20	-25	-15952	-1800	1096	-3	0	-11	-1144	-4632	16376	-8	-9	23	-9912	5688	12168	23	-6	-19	-16416	1848	-1296	26	-9	24	-1928	-2752	16744	11	7	-3	124	130	5
-10180	-4008	11876	-14	22	-25	-16128	-1616	1240	14	-3	-4	-1080	-4504	16416	-4	-9	17	-9936	5640	12352	17	-2	-22	-16520	1816	-1368	8	-7	19	-1952	-2696	16848	20	6	3	119	130	5
-10196	-4008	11772	-12	18	-26	-16048	-1680	1240	10	-3	-6	-1144	-4584	16336	2	-11	9	-10024	5616	12024	16	-2	-21	-16424	1872	-1400	-2	-7	18	-1936	-2712	16648	32	6	0	119	129	5
-10204	-3936	11816	-4	17	-21	-16144	-1504	1224	9	1	-8	-1160	-4520	16328	5	-12	15	-9936	5624	12392	14	-4	-21	-16456	1648	-1568	-3	-6	16	-1928	-2456	16672	31	7	-10	121	130	5
-10120	-3872	11808	-9	17	-23	-16104	-1600	1520	-1	-1	-6	-920	-4600	16208	2	-17	16	-9968	5624	12232	12	-4	-24	-16448	1632	-1552	7	-8	18	-1824	-2728	16648	18	6	-9	122	129	5
-10128	-3928	11796	-18	21	-27	-15976	-1392	1416	-12	0	-10	-1032	-4544	16312	5	-15	21	-9952	5656	12288	14	-3	-20	-16560	1752	-1512	18	-9	18	-1952	-2680	16592	7	2	-7	122	130	5
-10220	-3960	11804	-18	21	-32	-16112	-1736	1240	-20	-3	-11	-1104	-4648	16280	-8	-11	27	-9984	5792	12368	18	-5	-23	-16440	1744	-1496	20	-7	20	-1968	-2656	16704	-3	1	-4	122	129	5
-10236	-4012	11676	-14	17	-23	-16024	-1752	1032	-1	-5	-4	-1200	-4600	16592	-8	-12	23	-10072	5760	12208	15	-9	-21	-16512	1840	-1536	13	-5	15	-1792	-2752	16664	-5	-2	-6	122	130	5
-10256	-4012	11812	-8	18	-20	-16088	-1664	1264	23	0	-6	-1184	-4560	16432	-8	-10	22	-9888	5640	12176	12	-4	-22	-16552	1832	-1224	0	-2	16	-2064	-2720	16528	8	-1	-1	121	129	5
-10156	-3880	11752	-10	16	-23	-16136	-1384	1280	19	2	-11	-1136	-4496	16320	-4	-12	16	-9920	5672	12488	10	3	-22	-16544	1704	-1608	6	-11	21	-2104	-2760	16760	17	10	-2	119	129	5
-10136	-3932	11840	-11	15	-24	-16008	-1480	1328	1	-2	-8	-920	-4512	16352	2	-10	17	-9992	5656	12128	15	-6	-20	-16552	1712	-1352	12	-7	17	-2000	-2712	16784	28	8	2	118	130	5
-10092	-3900	11724	-14	21	-28	-16104	-1704	1288	-15	-1	-11	-952	-4560	16280	8	-8	18	-9912	5576	12368	14	-6	-23	-16472	1744	-1448	15	-4	23	-2064	-2856	16728	27	4	-4	120	130	5
-10212	-3944	11736	-21	19	-22	-16024	-1528	1240	-10	-2	-10	-1128	-4424	16128	3	-16	26	-9936	5616	12536	19	-6	-19	-16408	1792	-1296	14	-11	22	-2072	-2608	16992	19	4	2	119	130	5
-10236	-3956	11732	-15	21	-24	-16120	-1360	1112	-4	0	-15	-1096	-4416	16440	-6	-23	39	-9864	5608	12400	13	4	-23	-16456	1704	-1608	8	-7	20	-2120	-2840	16728	16	3	-2	120	130	5
-10192	-3912	11824	-19	24	-30	-16144	-1512	1264	-8	3	-20	-1040	-4392	16536	-25	-23	45	-10088	5648	11976	18	-5	-22	-16496	1544	-1208	-1	-4	25	-2040	-2824	16560	18	0	-5	116	129	5
-10164	-3948	11712	-28	24	-29	-16144	-1640	1128	-6	-3	-18	-1128	-4512	16352	-33	-23	41	-9984	5608	12072	18	0	-16	-16560	1560	-1176	7	-6	27	-1960	-2840	16904	28	4	-5	118	129	5
-10184	-3920	11836	-25	21	-29	-16128	-1704	1440	-2	-6	-18	-1168	-4720	16328	-28	-12	28	-9888	5584	12336	20	-7	-16	-16592	1568	-1544	8	-5	30	-1848	-2776	16736	38	2	-9	125	129	5
-10204	-3996	11652	-26	23	-32	-16144	-1736	1176	6	-5	-16	-1264	-4736	16080	-12	-10	26	-9832	5608	12408	22	1	-14	-16552	1840	-1656	12	1	30	-1976	-2784	16528	28	0	-12	121	129	5
-10224	-3972	11780	-25	23	-31	-16128	-1744	1320	13	-4	-14	-1048	-4544	16344	-2	-8	23	-10056	5736	12248	20	-2	-17	-16616	1720	-1424	8	-1	28	-1904	-2760	16816	36	3	-20	118	129	5
-10176	-4000	11816	-17	15	-30	-16128	-1648	1480	8	-4	-15	-1096	-4552	16216	-10	-12	29	-9968	5544	12504	22	-3	-16	-16488	1728	-1640	7	-5	30	-1832	-2712	16800	31	2	-21	118	130	5
-10144	-3944	11772	-23	17	-32	-16008	-1624	1456	3	-4	-16	-1088	-4416	16112	-8	-14	29	-10008	5640	12240	26	0	-14	-16544	1872	-1432	15	-4	25	-1952	-2560	16968	35	2	-11	118	130	5
-10204	-3964	11724	-22	19	-29	-16040	-1576	984	-7	-11	-13	-1016	-4624	16136	-6	-16	31	-9872	5792	12160	20	1	-21	-16368	1848	-1472	15	-1	29	-1976	-2704	16648	42	2	-8	120	130	5
-10248	-4000	11728	-20	19	-30	-16048	-1664	1224	-12	-7	-14	-1096	-4680	16480	-5	-11	26	-9944	5632	12400	14	4	-20	-16536	1856	-1296	2	-4	31	-1864	-2680	16880	40	3	-5	119	130	5
-10232	-4032	11800	-15	16	-27	-16288	-1592	1248	-10	-4	-14	-1064	-4528	16080	4	-17	28	-9848	5752	12128	21	1	-18	-16536	1728	-1712	4	-7	30	-1976	-2584	16608	41	-3	-7	118	129	5
-10152	-3968	11760	-12	20	-29	-16072	-1624	1256	-2	-2	-16	-1232	-4584	16304	-11	-17	33	-9920	5672	12496	22	0	-18	-16544	1848	-1488	13	-6	30	-1904	-2720	16768	35	3	-3	119	130	5
-10212	-4000	11836	-13	22	-25	-16024	-1528	1288	-6	-1	-9	-1072	-4576	16232	-9	-14	32	-9872	5544	12272	21	2	-17	-16528	1944	-1584	18	-10	28	-1944	-2568	16776	27	10	-10	117	129	5
-10228	-3912	11684	-16	18	-25	-16112	-1552	1104	-2	0	-10	-1072	-4632	16416	0	-16	24	-10088	5768	12248	21	0	-20	-16496	1880	-1208	18	-6	28	-1984	-2576	16992	26	4	-5	120	130	5
-10196	-3992	11652	-14	20	-25	-16128	-1488	1320	3	-3	-10	-1128	-4584	16264	4	-10	21	-9888	5600	12248	15	-1	-22	-16496	1872	-1576	17	-8	28	-2080	-2880	16992	25	1	-9	117	130	5
-10180	-4012	11868	-12	21	-25	-15984	-1688	1392	3	-6	-5	-1128	-4568	16336	3	-12	20	-10008	5744	12216	17	-3	-26	-16584	1896	-1384	5	-6	27	-1976	-2616	17024	31	3	-8	120	129	5
-10220	-3968	11764	-11	19	-20	-16064	-1464	1336	4	1	-5	-1216	-4504	16120	1	-11	29	-9944	5568	12160	16	-8	-19	-16608	1720	-1520	6	-7	26	-1968	-2680	16744	35	3	-4	118	130	5
-10180	-3988	11768	-7	19	-22	-16008	-1616	1464	8	3	-7	-1088	-4352	16176	2	-12	26	-9952	5640	12352	20	-3	-15	-16568	1888	-1720	6	-3	23	-1752	-2624	16776	28	6	-8	120	130	5
-10128	-3920	11788	-11	19	-25	-16072	-1496	1128	4	-6	-8	-1080	-4536	16232	0	-13	22	-9976	5872	12224	21	2	-18	-16464	1824	-1424	12	-5	24	-1984	-2712	16744	28	3	-5	117	130	5
-10144	-3972	11804	-15	20	-28	-16136	-1504	1336	-8	-6	-8	-1128	-4648	16384	1	-13	20	-10024	5816	12152	20	-9	-20	-16480	1880	-1160	5	-8	19	-2088	-2696	16960	24	1	2	120	130	5
-10132	-4008	11800	-14	17	-27	-16064	-1656	1328	-5	-7	-10	-1120	-4552	16536	-3	-8	20	-9992	5784	12264	16	-6	-23	-16496	1752	-1304	2	-3	23	-2016	-2720	16832	29	-1	2	115	130	5
-10252	-4000	11756	-16	20	-29	-16000	-1688	1024	-4	-2	-13	-1120	-4704	16344	-9	-8	22	-9872	5648	12160	13	-10	-19	-16552	1752	-1208	7	-3	21	-1912	-2640	16816	30	0	-1	117	130	5
-10188	-4000	11848	-11	18	-21	-16096	-1760	1152	0	-2	-12	-1104	-4560	16192	-7	-12	19	-9912	5728	12144	14	0	-20	-16560	1856	-1456	14	-6	19	-2008	-2608	16680	28	1	0	117	130	5
-10196	-3968	11692	-9	14	-26	-16112	-1696	1472	10	-2	-10	-1136	-4608	16392	0	-15	20	-9920	5568	12280	20	-7	-18	-16480	1880	-1352	18	-6	18	-1928	-2600	16616	20	4	-7	122	130	5
-10152	-3908	11740	-14	18	-24	-16040	-1744	1216	9	-2	-8	-968	-4504	16416	-4	-16	18	-9944	5784	12424	18	-11	-19	-16600	1856	-1400	11	-8	18	-1944	-2752	16960	13	-3	-5	121	130	5
-10200	-4008	11788	-11	20	-24	-16104	-1448	1208	5	-2	-6	-992	-4752	16352	2	-12	20	-9952	5736	12320	13	-8	-21	-16528	1856	-1360	7	-7	15	-2040	-2648	16680	9	-1	1	121	130	5
-10164	-3880	11732	-15	18	-25	-16104	-1544	1456	-4	-4	-9	-1136	-4624	16344	2	-10	17	-9920	5712	12200	16	-4	-21	-16480	1856	-1400	5	5	12	-2040	-2584	16664	7	2	2	119	129	5
-10160	-4000	11788	-13	19	-27	-16144	-1600	1240	-3	-5	-10	-872	-4480	16456	-4	-12	25	-9976	5784	12176	12	-1	-20	-16504	1776	-1296	8	-2	12	-1904	-2632	16840	9	-4	4	117	130	5
-10172	-3984	11764	-22	19	-28	-16000	-1592	1224	1	-2	-11	-1160	-4664	16368	-5	-15	25	-9992	5688	12144	8	-8	-22	-16520	1848	-1392	6	-3	17	-2064	-2728	16680	13	2	8	118	130	5
-10212	-4020	11788	-16	18	-25	-16184	-1552	1320	0	-1	-11	-968	-4664	16336	-15	-14	26	-9888	5648	12360	13	-5	-23	-16560	1880	-1344	9	-1	11	-1864	-2752	17000	13	0	12	120	130	5
-10216	-3980	11820	-21	21	-31	-15856	-1504	1248	-6	0	-10	-992	-4544	16416	-7	-12	28	-9904	5784	12224	13	-3	-20	-16488	1816	-1352	12	-6	11	-2160	-2864	16816	19	0	9	118	130	5
-10152	-3928	11788	-17	18	-25	-15976	-1664	1328	-6	-5	-10	-1064	-4640	16336	-3	-17	22	-9912	5760	12424	16	-3	-25	-16504	1856	-1416	13	-5	16	-1808	-2592	16920	18	2	8	120	130	5
-10180	-3924	11716	-14	19	-25	-16136	-1592	1224	5	-5	-7	-1192	-4664	16328	2	-12	23	-9992	5608	12184	15	1	-22	-16504	1720	-1264	14	-4	12	-2152	-2624	16768	13	-7	7	120	129	5
-10240	-3972	11760	-14	19	-26	-16056	-1528	1200	7	-1	-8	-1136	-4648	16384	4	-15	23	-10016	5792	12304	7	-3	-20	-16560	1728	-1320	8	-4	18	-2000	-2856	16552	17	-4	6	121	130	5
-10204	-3988	11756	-17	19	-26	-16056	-1552	1456	4	-6	-10	-984	-4672	16384	3	-15	23	-9960	5656	12184	12	-7	-27	-16584	1752	-1592	7	-2	16	-2088	-2680	17120	22	-1	7	118	129	5
-10184	-3980	11816	-11	22	-26	-16168	-1720	1328	2	-1	-7	-1040	-4584	16288	3	-8	23	-10024	5768	12512	17	-3	-23	-16448	1672	-1568	6	-5	17	-2040	-2696	16856	29	2	6	118	130	5
-10156	-3924	11768	-12	16	-25	-16200	-1648	1200	3	-5	-9	-1104	-4592	16248	7	-17	21	-9944	5688	12224	13	-6	-23	-16568	1800	-1616	5	-3	14	-2032	-2792	16768	22	1	1	119	129	5
-10240	-3924	11708	-18	19	-28	-16072	-1544	1336	0	-6	-9	-1176	-4512	16120	2	-18	25	-9944	5624	11960	12	-3	-20	-16656	1768	-1496	2	-8	20	-1984	-2736	16480	23	-2	-1	120	130	5
-10136	-3956	11920	-16	20	-29	-16136	-1616	1632	-12	-4	-12	-1048	-4688	16264	-9	-17	29	-10072	5712	12296	10	-3	-17	-16376	1728	-1376	8	-2	16	-1984	-2792	16528	20	-2	1	120	130	5
-10192	-3904	11748	-18	19	-26	-15984	-1656	1408	-9	-7	-9	-1016	-4656	16424	-11	-8	22	-10024	5648	12376	14	-3	-19	-16632	1656	-1568	13	1	21	-1880	-2688	16704	19	1	-1	120	130	5
-10216	-4040	11768	-9	21	-26	-15968	-1824	1336	6	-1	-4	-1120	-4736	16480	-2	-9	18	-9912	5632	12304	15	-1	-20	-16424	1808	-1336	13	-5	21	-1856	-2864	16760	31	-3	2	117	130	5
-10224	-4024	11820	-8	19	-25	-16072	-1640	1336	15	-1	-5	-1248	-4544	16304	3	-11	20	-10000	5680	12312	14	-6	-22	-16512	1832	-1328	7	-9	20	-2176	-2688	16904	44	5	6	115	130	5
-10240	-3924	11844	-8	14	-23	-15952	-1640	1296	12	-1	-5	-928	-4576	16264	9	-13	25	-9872	5640	12016	13	-1	-22	-16672	1816	-1336	2	-6	20	-2064	-2512	16528	38	4	4	114	130	5
-10184	-3948	11756	-14	15	-21	-15912	-1528	1224	-5	-2	-8	-1104	-4688	16384	4	-12	23	-9904	5736	12264	11	0	-21	-16576	1872	-1232	5	-12	25	-1992	-2672	16488	42	5	5	117	129	5
-10192	-3984	11728	-7	16	-23	-16128	-1656	1240	1	-2	-6	-1136	-4616	16560	9	-12	17	-9944	5552	12288	19	-4	-19	-16464	1760	-1592	14	-8	22	-1976	-2648	16776	22	5	-5	116	129	5
-10152	-3952	11764	-12	18	-23	-16248	-1592	1384	8	2	-7	-1016	-4600	16288	2	-13	19	-9984	5704	12448	14	-2	-19	-16352	1896	-1272	11	-4	28	-1968	-2760	16584	25	6	-7	115	129	5
-10128	-3944	11848	-9	19	-25	-16072	-1464	1360	4	4	-5	-1168	-4528	16448	-5	-10	12	-10032	5560	12224	21	2	-18	-16584	1704	-1344	5	-5	23	-1984	-2632	16608	31	4	-6	118	129	5
-10196	-4056	11732	-16	18	-22	-16032	-1512	1200	-1	5	-11	-1080	-4696	16312	-11	-13	17	-9912	5848	12304	21	-3	-17	-16672	1944	-1320	9	4	21	-1944	-2520	16816	27	4	-6	119	129	5
-10212	-3976	11792	-17	20	-25	-16088	-1640	1296	4	2	-4	-984	-4520	16264	-17	-12	13	-9808	5728	12320	21	0	-18	-16448	1776	-1552	5	0	21	-2128	-2552	16840	19	-4	-10	121	130	5
-10256	-4036	11820	-21	23	-24	-16312	-1632	1304	7	4	-8	-1064	-4776	16280	-3	-14	16	-10024	5712	12280	18	-4	-16	-16480	1864	-1416	-4	-1	23	-1960	-2688	16784	14	-4	-10	121	130	5
-10172	-4052	11792	-15	15	-26	-16136	-1640	1024	14	2	-7	-1216	-4664	16264	3	-16	14	-9968	5760	12312	12	-3	-20	-16592	1864	-1352	-5	0	17	-2032	-2648	16768	14	-1	-4	120	130	5
-10208	-3896	11732	-16	19	-27	-16104	-1696	1352	4	1	-8	-1032	-4672	16392	3	-20	27	-9872	5728	12232	15	-6	-22	-16576	1848	-1368	4	3	16	-2072	-2672	16648	25	-2	6	118	130	5
-10212	-3980	11828	-16	18	-26	-16040	-1536	1112	-4	0	-6	-1176	-4744	16392	-2	-14	22	-9872	5760	12312	14	-1	-23	-16640	1880	-1440	10	-2	15	-2072	-2632	16904	28	-3	4	120	129	5
-10204	-4088	11808	-16	18	-27	-16024	-1680	1384	1	-3	-7	-1176	-4784	16288	0	-15	22	-10080	5680	12408	16	-1	-24	-16416	1848	-1520	13	0	17	-1848	-2624	16712	36	-1	5	118	129	5
-10160	-3984	11680	-15	21	-25	-16128	-1632	1480	7	-1	-9	-1136	-4496	16272	-6	-17	26	-9976	5672	12184	10	-4	-21	-16528	1816	-1320	8	-6	18	-2056	-2672	16744	31	0	7	119	129	5
-10124	-3908	11824	-14	17	-30	-16088	-1664	1392	4	-4	-11	-1120	-4576	16280	1	-13	27	-10112	5760	12144	16	-10	-22	-16520	1880	-1240	9	-7	17	-2072	-2752	16864	27	-6	8	121	130	5
-10200	-3976	11700	-13	23	-22	-16128	-1600	1184	-10	-4	-7	-1024	-4528	16192	4	-10	25	-10016	5632	12376	9	-7	-24	-16608	1840	-1392	13	-5	17	-2112	-2600	16704	21	-1	5	123	130	5
-10168	-3944	11864	-9	20	-27	-16008	-1544	1336	-15	-6	-9	-944	-4528	16384	0	-17	29	-10040	5608	12336	10	-8	-22	-16472	1752	-1488	15	-12	13	-2008	-2672	16792	11	-2	9	121	130	5
-10224	-3976	11696	-17	16	-28	-16032	-1432	1296	-11	-6	-13	-976	-4632	16352	-1	-16	26	-9896	5616	12128	13	-3	-22	-16416	1912	-1520	17	-9	16	-2160	-2736	16712	7	-5	10	120	130	5
-10228	-3940	11808	-21	19	-31	-16064	-1720	1360	-2	-12	-12	-1096	-4472	16136	-6	-15	30	-9960	5736	12160	12	-6	-18	-16392	1920	-1456	8	-10	13	-2000	-2848	16680	12	2	7	114	129	5
-10188	-3944	11688	-17	19	-25	-16120	-1672	1488	-6	-7	-10	-1016	-4696	16272	-3	-13	25	-10024	5584	12184	9	-4	-21	-16560	1816	-1208	2	-9	17	-1888	-2840	16792	21	1	3	121	129	5
-10192	-4024	11756	-15	21	-26	-15984	-1792	1416	4	-5	-4	-1088	-4672	16328	-2	-10	20	-10056	5728	12168	13	-8	-19	-16392	1664	-1248	5	-8	14	-1904	-2744	16784	27	0	4	121	129	5
-10168	-3944	11756	-8	18	-22	-16056	-1744	1432	12	1	-4	-968	-4912	16280	2	-11	19	-9936	5552	12368	16	-3	-21	-16424	1704	-1432	6	-3	15	-1848	-2736	16672	29	3	3	121	129	5
-10200	-3992	11792	-11	18	-25	-15960	-1544	1168	11	-6	-6	-912	-4576	16344	6	-13	18	-10016	5696	12352	13	-8	-21	-16672	1720	-1152	5	-6	20	-1952	-2608	16584	30	2	-5	121	129	5
-10232	-4024	11752	-15	18	-22	-16040	-1520	1392	0	-1	-8	-1016	-4504	16280	10	-16	19	-9936	5704	12168	15	0	-20	-16520	1704	-1520	12	-6	17	-1960	-2824	16560	25	-1	1	118	129	5
-10112	-3940	11864	-12	22	-26	-16000	-1632	1488	-9	-1	-9	-1016	-4576	16328	2	-18	26	-9992	5712	12280	15	-2	-21	-16560	1832	-1592	17	-2	26	-1960	-2800	16992	20	0	-4	122	129	5
-10212	-3988	11744	-16	19	-28	-16072	-1616	1048	-11	-3	-10	-992	-4560	16416	1	-17	29	-9880	5760	12248	18	-12	-22	-16584	1912	-1464	14	1	18	-1912	-2736	16760	25	-3	3	119	129	5
-10240	-3940	11708	-10	20	-26	-16136	-1728	1232	-6	-1	-10	-1216	-4672	16256	-8	-14	24	-9872	5784	12232	15	-2	-20	-16480	1768	-1280	8	1	20	-2072	-2784	16896	30	2	3	119	129	5
-10228	-4028	11780	-14	21	-21	-16256	-1664	1440	5	2	-7	-1096	-4792	16192	-7	-14	22	-9936	5696	12344	13	0	-26	-16576	1712	-1328	7	-1	18	-2040	-2760	16712	29	-4	3	118	129	5
-10180	-3968	11812	-13	20	-27	-16184	-1600	1416	1	5	-11	-1168	-4552	16360	3	-16	19	-10000	5736	12256	15	0	-20	-16592	1808	-1616	0	3	14	-2144	-2704	16776	24	-4	-4	116	129	5
-10196	-3908	11704	-12	16	-25	-16064	-1632	1168	2	0	-8	-1056	-4696	16360	5	-11	14	-9944	5592	12232	18	-3	-22	-16512	1752	-1488	6	-3	17	-2008	-2648	16584	25	-4	3	118	129	5
-10180	-3936	11808	-13	20	-25	-15976	-1776	1216	-3	-3	-7	-1080	-4680	16000	3	-11	17	-9936	5608	12192	11	-2	-17	-16544	1696	-1616	8	1	18	-2056	-2736	16896	30	1	3	118	129	5
-10172	-3996	11804	-12	21	-24	-16040	-1672	1232	4	-4	-9	-1136	-4520	16304	2	-13	23	-9864	5688	12224	15	-4	-20	-16504	1832	-1544	7	-1	15	-2024	-2712	16608	26	-3	3	118	129	5
-10212	-3980	11768	-15	17	-23	-16000	-1552	1328	7	-3	-4	-1152	-4616	16336	-4	-16	31	-9880	5608	12352	14	-8	-20	-16512	1784	-1400	3	-9	20	-2040	-2704	16632	23	-1	1	122	129	5
-10172	-4032	11780	-8	16	-25	-16024	-1640	1112	6	-2	-4	-1080	-4552	16144	-1	-14	24	-9976	5600	12128	13	-7	-19	-16568	1792	-1272	15	-7	18	-2056	-2728	16568	10	-3	5	119	129	5
-10144	-3944	11760	-11	19	-25	-16056	-1640	1296	4	-4	-4	-1184	-4656	16024	1	-13	22	-9856	5616	12392	15	-8	-17	-16560	1944	-1304	13	-4	17	-1944	-2616	16680	12	-2	3	117	129	5
-10184	-3952	11820	-8	20	-26	-16104	-1664	1448	4	-5	-6	-976	-4576	16168	6	-15	21	-9840	5640	12288	12	-7	-23	-16536	1872	-1192	8	-7	19	-1880	-2776	16632	24	-1	2	120	129	5
-10160	-3884	11812	-12	20	-27	-16032	-1560	1232	-3	-10	-9	-928	-4608	16400	12	-12	22	-10000	5680	12488	14	-5	-24	-16448	1720	-1384	12	-9	21	-1960	-2800	16776	24	1	4	119	129	5
-10148	-3976	11748	-13	18	-27	-16056	-1800	1448	-11	-2	-10	-1024	-4672	16448	0	-15	22	-9816	5840	12376	12	-6	-24	-16496	1616	-1640	7	-7	14	-1936	-2696	16672	23	0	3	120	130	5
-10156	-4000	11744	-13	14	-25	-16144	-1600	1376	-6	-2	-7	-1016	-4544	16280	-6	-13	25	-9944	5768	12304	15	-2	-19	-16640	1720	-1264	15	-7	21	-2176	-2616	16760	25	-1	2	119	130	5
-10164	-3964	11760	-16	22	-30	-16072	-1632	1368	4	-4	-5	-1104	-4600	16384	-7	-16	24	-9976	5648	12368	19	-3	-18	-16592	1896	-1448	13	-7	18	-1960	-2784	16704	24	0	3	120	130	5
-10204	-3968	11744	-10	16	-24	-16136	-1576	1216	11	-5	-6	-1160	-4584	16592	-9	-13	25	-9968	5760	12288	16	-7	-17	-16584	1704	-1264	6	-2	15	-1960	-2744	16776	23	1	2	116	130	5
-10156	-3932	11776	-18	20	-20	-16000	-1640	1056	9	-2	-8	-1088	-4736	16344	-3	-19	17	-9952	5688	12344	15	-7	-19	-16464	1984	-1432	1	-2	17	-2016	-2688	16904	22	0	1	119	130	5
-10220	-3940	11936	-18	23	-23	-16184	-1592	1416	-5	-1	-17	-1072	-4624	16464	0	-17	17	-9840	5832	12088	18	-2	-20	-16536	1776	-1544	4	-6	12	-2120	-2624	16824	17	-5	1	116	130	5
-10236	-3928	11792	-18	18	-23	-16040	-1720	1408	-11	-3	-11	-1136	-4648	16168	-9	-9	22	-9968	5600	12168	17	-4	-25	-16560	1816	-1552	9	-3	17	-2080	-2656	16824	16	-2	1	117	130	5
-10212	-4064	11688	-17	18	-25	-16112	-1696	1232	-1	-1	-10	-1096	-4688	16352	-4	-11	24	-10048	5584	12472	14	-4	-23	-16496	1752	-1496	6	-6	18	-2080	-2560	16568	24	0	4	119	130	5
-10252	-4004	11800	-14	19	-22	-16112	-1520	1176	10	-3	-13	-1064	-4528	16144	-6	-15	25	-9968	5712	12152	14	-6	-23	-16600	1832	-1424	10	-1	7	-2024	-2584	16528	15	-6	9	121	129	5
-10168	-3932	11656	-14	15	-25	-16048	-1488	1176	2	-5	-9	-1040	-4672	16456	-3	-16	26	-9952	5792	12280	14	-4	-22	-16424	1712	-1384	9	-3	14	-1928	-2712	17016	13	-4	7	120	129	5
-10192	-3932	11768	-17	19	-27	-16128	-1616	1312	1	-1	-8	-1040	-4664	16424	-1	-13	25	-10032	5576	12296	11	-7	-19	-16560	1664	-1280	16	-4	13	-1976	-2856	16840	15	1	1	122	130	5
-10160	-3944	11788	-15	23	-28	-16144	-1640	976	-10	-8	-10	-1040	-4656	16288	5	-11	22	-9848	5944	12120	13	-7	-19	-16440	1800	-1152	17	-5	16	-2024	-2792	16648	17	3	8	124	129	5
-10160	-4024	11732	-17	17	-28	-15936	-1672	1288	3	2	-6	-1136	-4616	16488	6	-9	20	-10008	5856	12432	13	-4	-25	-16448	1752	-1376	20	-6	15	-1912	-2624	16840	21	2	4	119	130	5
-10240	-4000	11732	-11	13	-23	-16080	-1528	1432	13	2	-9	-1144	-4448	16560	-1	-16	24	-9952	5736	12224	13	-3	-24	-16584	1880	-1336	8	-5	16	-1896	-2616	16800	24	2	2	119	130	5
-10172	-3928	11780	-11	19	-28	-16184	-1648	1488	8	1	-11	-1032	-4472	16680	-14	-13	27	-9952	5688	12360	15	-1	-20	-16528	1808	-1288	6	-4	19	-2064	-2680	16688	13	0	0	118	129	5
-10112	-3996	11780	-14	19	-24	-16080	-1536	1176	3	-1	-10	-1096	-4656	16432	-18	-10	19	-9952	5848	12392	18	-3	-18	-16512	1648	-1560	1	-1	15	-2136	-2752	16864	19	3	-2	120	129	5
-10204	-3968	11892	-16	20	-26	-15992	-1760	1264	-5	-3	-11	-1096	-4768	16208	-11	-8	18	-10040	5736	12424	17	-4	-18	-16504	1760	-1592	2	1	18	-1856	-2816	16840	22	-1	-3	117	129	5
-10144	-3984	11888	-18	15	-25	-16216	-1696	1248	0	0	-7	-1144	-4624	16392	-4	-11	21	-9944	5704	12280	15	-4	-16	-16736	1760	-1336	-1	-5	15	-1976	-2800	16528	22	-3	-2	117	129	5
-10176	-3948	11724	-16	19	-27	-15984	-1544	1464	0	-2	-12	-1104	-4560	16160	0	-15	24	-9968	5648	12120	15	-10	-17	-16512	1784	-1376	4	-2	20	-1872	-2856	16912	24	-5	3	118	129	5
-10204	-3924	11796	-16	21	-24	-16112	-1624	1240	-3	-3	-14	-1032	-4688	16376	-2	-18	27	-9944	5624	12200	14	-2	-22	-16488	1728	-1512	11	-1	18	-1976	-2760	16624	22	2	2	120	129	5
-10144	-3988	11764	-19	18	-28	-16048	-1552	1168	2	-5	-11	-1096	-4648	16304	-7	-17	26	-9936	5680	12240	17	-2	-18	-16384	1784	-1336	14	1	18	-2032	-2672	16656	24	-1	2	120	129	5
-10228	-3968	11756	-17	25	-24	-16112	-1656	1448	1	-3	-9	-1072	-4680	16368	-7	-14	27	-9880	5600	12120	17	-4	-27	-16592	1784	-1272	13	-2	18	-1816	-2784	16720	19	-2	6	119	129	5
-10188	-3984	11804	-16	18	-24	-16176	-1800	1288	4	-3	-10	-1136	-4768	16272	2	-9	19	-9856	5680	12336	14	-3	-23	-16608	1840	-1352	16	-6	20	-1976	-2800	16816	23	-5	3	119	129	5
-10196	-4004	11784	-15	18	-25	-16096	-1560	1408	4	-6	-6	-1200	-4728	16304	3	-18	28	-10136	5776	12256	12	-2	-27	-16504	1872	-1496	7	-6	16	-2056	-2688	16744	26	-4	4	120	129	5
-10200	-3964	11756	-7	15	-21	-15976	-1616	1360	-1	0	-10	-1224	-4512	16328	1	-18	31	-9968	5688	12312	13	-6	-21	-16320	1808	-1552	6	-6	18	-2128	-2632	16544	29	-3	10	117	129	5
-10232	-3964	11708	-15	21	-27	-16032	-1704	1408	-3	-4	-7	-984	-4504	16248	2	-18	28	-9904	5696	12408	12	-6	-21	-16584	1808	-1296	7	-4	17	-2032	-2688	16424	23	1	1	121	130	5
-10196	-3964	11712	-14	19	-21	-16000	-1608	1336	-11	-6	-5	-1048	-4616	16240	-7	-10	21	-9976	5624	12304	12	-6	-21	-16576	1992	-1528	12	-10	22	-1984	-2744	16592	20	1	0	119	130	5
-10220	-4008	11804	-14	19	-25	-16088	-1672	1128	3	0	-2	-1016	-4664	16328	5	-12	18	-9944	5832	12040	12	-1	-24	-16496	1824	-1256	11	-11	20	-1728	-2736	16632	19	-4	-1	115	129	5
-10264	-4036	11732	-9	20	-24	-16080	-1576	1384	8	0	-5	-976	-4648	16304	4	-12	20	-9896	5872	12416	15	-1	-21	-16616	1944	-1536	6	-8	19	-2088	-2784	16728	20	-3	-2	116	129	5
-10188	-3924	11828	-12	21	-21	-16072	-1424	1376	6	-4	-7	-1120	-4472	16360	0	-13	24	-9944	5632	12216	12	-4	-18	-16448	1808	-1432	7	-7	19	-2024	-2808	16848	23	2	4	122	129	5
-10180	-3900	11772	-13	20	-26	-16176	-1512	1216	0	-5	-6	-960	-4544	16256	-5	-10	18	-9960	5808	12472	13	-2	-18	-16344	1840	-1152	11	-7	16	-2040	-2688	16656	21	2	0	122	129	5
-10216	-3972	11756	-12	18	-23	-16064	-1448	1200	-2	-5	-5	-872	-4568	16160	0	-11	17	-9824	5648	12200	17	-2	-21	-16568	1832	-1464	9	0	21	-1864	-2608	16848	20	-2	0	120	129	5
-10168	-3984	11684	-15	25	-25	-15920	-1600	1488	-1	-1	-11	-984	-4568	16280	5	-18	21	-9904	5752	12448	15	-6	-21	-16712	1912	-1488	11	-6	19	-1856	-2848	16512	25	1	1	120	129	5
-10248	-4016	11808	-14	20	-26	-16096	-1592	1320	-2	-3	-11	-984	-4736	16440	-3	-15	27	-9848	5656	12168	14	-1	-20	-16448	1744	-1280	6	-2	19	-1856	-2680	16768	28	-2	7	122	129	5
-10188	-3980	11836	-14	18	-28	-16184	-1624	1072	-4	-3	-8	-992	-4568	16120	-5	-14	32	-9968	5648	12432	13	-8	-23	-16416	1744	-1424	4	1	19	-2032	-2816	16584	31	-2	5	118	130	5
-10212	-3968	11784	-14	17	-25	-16144	-1632	1096	6	1	-6	-1096	-4656	16288	0	-18	28	-9936	5656	12248	12	-2	-21	-16312	1752	-1424	4	1	17	-1960	-2552	16712	27	-1	1	118	130	5
-10232	-3980	11780	-23	18	-30	-16048	-1648	1232	8	2	-5	-1088	-4624	16400	-3	-19	23	-9952	5832	12296	19	2	-20	-16448	1656	-1416	7	-4	24	-2080	-2696	16600	25	1	-2	120	130	5
-10224	-3988	11740	-17	18	-27	-16192	-1560	1280	-1	-1	-7	-1088	-4624	16200	-2	-11	19	-9952	5648	12296	17	-2	-17	-16600	1648	-1264	10	0	18	-2032	-2592	16736	15	-2	-3	121	129	5
-10200	-4008	11816	-13	19	-25	-16128	-1600	1168	1	-1	-10	-1176	-4528	16280	-2	-13	20	-9760	5768	12272	16	-3	-19	-16416	1816	-1296	8	-1	15	-2096	-2816	16512	18	-7	-1	119	129	5
-10228	-4016	11664	-12	19	-27	-16144	-1504	1448	6	-1	-10	-1072	-4616	16448	-7	-12	22	-9944	5720	12400	10	-6	-23	-16584	1952	-1432	7	0	20	-1944	-2616	16664	21	-2	5	120	129	5
-10208	-3916	11780	-16	15	-26	-16192	-1608	1072	5	-3	-13	-1080	-4640	16288	-5	-13	22	-9888	5760	12208	10	-6	-22	-16544	1800	-1464	3	-6	15	-2160	-2792	16712	21	-1	1	121	129	5
-10200	-3980	11744	-17	20	-24	-15936	-1448	1448	-5	-2	-9	-1072	-4744	16240	2	-14	25	-9808	5680	12184	9	-8	-22	-16520	1760	-1400	-2	-6	18	-2080	-2760	16944	20	-3	3	119	129	5
-10196	-3972	11740	-14	18	-30	-16160	-1624	1432	-11	1	-10	-1064	-4536	16232	10	-16	24	-10048	5640	12272	16	0	-21	-16600	1808	-1544	13	-1	17	-1888	-2696	16632	13	2	4	117	129	5
-10168	-3976	11704	-17	18	-24	-15920	-1544	1168	-9	-5	-11	-1152	-4648	16368	7	-15	23	-9848	5544	12088	16	-3	-19	-16488	1864	-1496	9	-4	14	-2064	-2752	16832	12	1	6	119	129	5
-10152	-3936	11696	-12	16	-25	-16024	-1680	1264	2	-2	-7	-1016	-4448	16192	-4	-15	25	-10040	5776	12184	12	-3	-19	-16632	1760	-1616	8	-4	19	-2160	-2640	16552	17	1	8	120	129	5
-10172	-4012	11860	-11	19	-24	-16064	-1536	1320	3	-4	-9	-1072	-4456	16504	-4	-16	24	-9968	5768	12432	7	-4	-22	-16424	1752	-1568	6	-3	15	-1856	-2800	16544	25	1	5	121	129	5
-10216	-3984	11772	-15	16	-24	-16208	-1616	1536	9	-3	-8	-968	-4536	16168	-4	-16	21	-9904	5648	12440	12	-7	-21	-16568	1656	-1224	4	-7	18	-1968	-2736	16688	25	2	6	117	129	5
-10168	-3900	11744	-15	15	-24	-16032	-1656	1288	8	-3	-11	-1160	-4656	16568	-3	-15	24	-9952	5672	12256	12	-3	-20	-16376	1784	-1736	8	-5	11	-2000	-2680	16672	25	-1	4	119	130	5
-10228	-3992	11756	-13	20	-23	-16064	-1640	1176	-1	0	-9	-912	-4632	16424	-1	-9	15	-9752	5632	12208	15	-4	-21	-16504	1680	-1392	8	-4	18	-1960	-2800	16632	17	-3	1	118	130	5
-10200	-4036	11840	-13	18	-28	-15952	-1664	1240	3	-5	-3	-1000	-4696	16344	2	-10	20	-9888	5744	12248	14	-2	-27	-16592	1760	-1448	10	-6	16	-2080	-2552	16624	14	-3	5	119	129	5
-10192	-3964	11832	-6	17	-26	-16144	-1672	1112	7	-3	-7	-1080	-4640	16376	0	-17	25	-9920	5768	12368	12	-8	-23	-16456	1952	-1360	4	0	18	-2112	-2720	16704	20	-4	7	118	129	5
-10224	-3972	11828	-13	14	-25	-16112	-1488	1368	5	-2	-7	-1136	-4704	16144	-2	-12	24	-9832	5704	12216	12	-6	-22	-16488	1720	-1376	6	-9	16	-2024	-2688	16680	22	-2	8	120	130	5
-10192	-3984	11796	-18	19	-27	-16072	-1560	1200	1	0	-4	-1152	-4704	16312	-3	-16	25	-10000	5592	12128	9	-7	-24	-16520	1656	-1456	7	-10	17	-1968	-2768	16856	26	-1	3	118	130	5
-10220	-3948	11808	-13	17	-24	-16088	-1528	1296	-7	-4	-8	-1064	-4776	16152	1	-14	18	-9984	5736	12392	13	-6	-22	-16496	1856	-1168	15	-7	17	-2016	-2800	16896	20	-4	4	118	129	5
-10192	-3988	11760	-12	19	-26	-16104	-1608	1136	-8	-7	-11	-1088	-4648	16232	4	-15	22	-10096	5744	12272	9	-4	-21	-16464	1784	-1592	9	1	15	-2096	-2592	16816	19	1	7	120	129	5
-10188	-4032	11796	-13	17	-24	-16256	-1616	1128	-1	-1	-10	-1120	-4456	16248	0	-13	23	-10120	5728	12312	9	-2	-22	-16504	1760	-1288	10	-8	13	-1976	-2736	16536	18	-2	8	118	129	5
-10248	-3968	11836	-17	16	-26	-15976	-1728	1584	1	-9	-8	-1056	-4536	16320	-11	-17	24	-9864	5808	12360	15	-2	-20	-16552	1728	-1672	8	-9	14	-2088	-2616	16856	21	-4	10	115	130	5
-10228	-3900	11800	-17	19	-24	-16112	-1520	1200	0	-6	-7	-1040	-4576	16240	-12	-16	21	-9912	5784	12112	6	-4	-20	-16488	1728	-1288	6	-3	21	-2024	-2680	16824	19	-1	7	117	130	5
-10216	-4044	11736	-17	20	-26	-15992	-1664	1112	3	-3	-5	-984	-4688	16368	-8	-12	22	-9912	5728	12312	12	3	-22	-16600	1864	-1344	11	-4	16	-1968	-2656	16792	19	-1	0	120	130	5
-10100	-4036	11752	-14	20	-29	-16040	-1728	1104	6	0	-8	-992	-4688	16120	0	-11	18	-9992	5680	12272	13	-6	-20	-16448	1792	-1424	13	-4	17	-1896	-2712	16416	15	-1	0	120	130	5
-10140	-4044	11716	-13	16	-26	-16104	-1528	1488	16	-3	-9	-960	-4520	16176	7	-13	21	-9952	5760	12096	12	0	-24	-16544	1752	-1360	11	-3	16	-2024	-2752	16560	20	7	-2	122	130	5
-10148	-4036	11772	-13	16	-24	-16144	-1632	1392	15	0	-8	-1096	-4640	16240	7	-14	29	-9896	5704	12440	13	-7	-21	-16456	1752	-1176	0	1	13	-1992	-2728	16720	16	4	-1	117	129	5
-10136	-3968	11820	-15	25	-27	-16096	-1496	1176	6	0	-9	-984	-4568	16448	-3	-12	24	-9840	5792	12432	15	1	-21	-16528	1712	-1456	1	2	18	-1944	-2856	16512	20	1	-1	120	129	5
-10200	-3992	11772	-16	18	-30	-16104	-1672	1280	-3	1	-7	-1072	-4760	16312	-7	-10	24	-9976	5696	12224	11	1	-22	-16568	1712	-1552	2	3	15	-1928	-2768	16512	22	0	3	120	130	5
-10192	-3940	11704	-15	17	-23	-16128	-1616	1224	-8	-1	-12	-1160	-4672	16208	-7	-13	24	-9984	5720	12376	15	-3	-20	-16680	1824	-1360	5	1	18	-1872	-2776	16632	25	0	-2	119	129	5
-10168	-3988	11660	-15	19	-27	-15952	-1528	1304	-1	-1	-9	-1096	-4552	16400	-3	-12	25	-9896	5736	12248	15	1	-17	-16488	1848	-1584	5	-4	17	-2000	-2704	16664	25	2	1	118	130	5
-10192	-3984	11748	-13	17	-24	-16056	-1656	1240	-2	2	-14	-1088	-4616	16248	-5	-17	22	-10056	5616	12408	15	-6	-22	-16528	2032	-1304	8	-5	19	-2064	-2712	16728	25	-1	2	120	129	5
-10236	-3924	11720	-20	16	-28	-16024	-1720	1304	-2	-5	-14	-1152	-4632	16496	-7	-17	26	-9896	5744	12160	18	-8	-16	-16552	1752	-1544	9	-2	16	-1912	-2712	16616	25	-3	3	120	129	5
-10212	-3908	11824	-21	15	-29	-16224	-1696	1304	-3	-3	-10	-1064	-4576	16440	-5	-16	30	-9952	5704	12232	18	-8	-20	-16560	1680	-1528	11	-4	19	-1888	-2648	16688	23	-4	2	120	129	5
-10216	-4068	11780	-17	18	-29	-16200	-1504	1136	-9	-3	-15	-1080	-4584	15984	-6	-12	28	-9872	5696	12480	17	-5	-22	-16576	1712	-1520	14	-2	21	-2008	-2776	16728	22	-3	0	119	129	5
-10204	-3952	11864	-21	22	-26	-15920	-1640	1112	-6	-5	-14	-1200	-4672	16240	-9	-15	32	-9992	5816	12456	18	-4	-23	-16592	1832	-1152	14	-2	18	-1960	-2704	16792	21	-5	1	120	129	5
-10228	-4064	11764	-17	16	-27	-16184	-1648	1296	-3	0	-11	-1088	-4696	16240	-12	-14	37	-9768	5616	12368	16	-3	-22	-16504	1840	-1448	8	-7	16	-2096	-2800	16728	28	-2	3	119	129	5
-10200	-4036	11820	-15	20	-27	-16096	-1656	1360	4	-3	-12	-1208	-4672	16272	-16	-11	26	-9840	5752	12208	17	0	-18	-16560	1768	-1544	3	-3	17	-1872	-2736	16584	29	0	0	119	129	5
-10188	-3996	11768	-10	17	-26	-16048	-1648	1240	13	-1	-7	-1144	-4696	16320	-2	-10	17	-9960	5648	12128	11	-5	-17	-16416	1720	-1464	-2	-8	22	-2056	-2872	16584	30	-2	2	120	129	5
-10240	-4000	11804	-11	19	-25	-16032	-1576	1184	10	-4	-11	-944	-4704	16392	8	-13	15	-9920	5696	12184	14	-6	-21	-16600	1800	-1496	0	-6	14	-1976	-2576	16736	23	-2	7	120	130	5
-10128	-4040	11764	-10	18	-24	-16176	-1624	1144	1	-6	-8	-1056	-4752	16208	10	-14	18	-10016	5712	12208	13	-5	-21	-16528	1840	-1440	-2	-3	15	-1968	-2568	16944	16	-1	5	120	129	5
-10264	-3984	11832	-11	18	-24	-16200	-1560	1376	-6	-8	-7	-1008	-4688	16304	9	-15	23	-9848	5792	12256	10	-2	-18	-16592	1752	-1464	12	-6	20	-1904	-2648	16736	14	-1	0	118	130	5
-10148	-4068	11792	-15	17	-30	-16112	-1616	1400	-9	-4	-4	-984	-4800	16376	4	-10	24	-9888	5656	12144	18	-3	-18	-16552	1744	-1272	17	-4	22	-1952	-2800	16632	17	-2	3	118	130	5
-10200	-4024	11728	-15	21	-22	-16200	-1672	1464	1	-5	-6	-1176	-4624	16336	-1	-15	27	-9912	5736	12272	17	-7	-24	-16480	1776	-1432	23	-6	19	-1944	-2624	16792	14	1	1	120	130	5
-10116	-3972	11716	-13	22	-23	-15896	-1504	1256	5	-3	-5	-984	-4648	16336	-6	-10	21	-9896	5760	12312	7	-3	-22	-16456	1848	-1376	12	-7	18	-2080	-2616	16480	23	-5	2	119	130	5
-10224	-3996	11764	-10	20	-29	-16040	-1576	1232	10	-4	-8	-1000	-4800	16464	3	-11	18	-9912	5680	12264	11	-2	-20	-16584	1904	-1384	3	-3	14	-2000	-2592	16768	27	-1	-1	119	130	5
-10136	-4004	11772	-11	16	-25	-16200	-1648	1312	5	2	-7	-1040	-4528	16328	3	-14	13	-9968	5720	12192	10	-10	-24	-16424	1744	-1328	2	0	18	-2008	-2800	16592	23	-1	2	118	130	5
-10192	-3936	11672	-14	17	-25	-16120	-1504	1144	3	-4	-6	-984	-4560	16192	0	-8	15	-9960	5728	12472	11	-4	-26	-16600	1896	-1296	4	-3	20	-2024	-2728	16728	26	-5	7	118	129	5
-10160	-4084	11780	-21	19	-24	-16168	-1632	1456	-1	1	-11	-992	-4456	16496	0	-17	24	-10056	5776	12176	12	-4	-22	-16512	1872	-1400	1	-2	16	-1968	-2568	16704	23	5	6	123	129	5
-10224	-3976	11712	-19	20	-29	-16120	-1592	1240	-2	-3	-10	-1024	-4600	16280	-11	-15	32	-9832	5792	12216	15	-8	-23	-16336	1856	-1368	4	-3	20	-2016	-2760	16800	24	-3	2	119	129	5
-10132	-3944	11820	-23	24	-28	-16080	-1640	1520	-3	-2	-12	-1128	-4640	16312	-6	-15	33	-9848	5680	12384	15	-5	-16	-16488	1800	-1176	13	-5	20	-1944	-2672	16600	18	-4	2	121	129	5
-10180	-3996	11772	-21	17	-27	-16144	-1528	1136	6	-1	-11	-960	-4592	16424	-2	-18	29	-9776	5552	12624	12	-5	-21	-16560	1648	-1424	12	-6	21	-2136	-2864	16672	17	-6	-1	120	129	5
-10196	-3940	11800	-14	19	-24	-15992	-1632	1544	-1	1	-15	-1008	-4640	16272	-20	-8	23	-9920	5776	12216	16	-3	-20	-16704	1688	-1336	13	-6	22	-2104	-2784	16848	23	-1	0	119	129	5
-10196	-4048	11724	-15	19	-25	-16104	-1904	1264	4	-1	-4	-1208	-4824	16152	-2	-6	8	-9984	5624	12392	13	-4	-20	-16568	1912	-1168	9	0	20	-2088	-2680	16656	30	-2	2	117	130	5
-10232	-3988	11728	-10	16	-25	-16024	-1808	1448	18	-6	-11	-1120	-4584	16440	-1	-9	10	-9984	5696	12264	12	-5	-22	-16520	1880	-1608	12	-2	18	-2216	-2600	16624	31	-3	5	120	130	5
-10124	-3952	11772	-7	12	-25	-16144	-1776	1288	10	3	2	-1120	-4760	16128	7	-13	19	-10008	5744	12384	12	-4	-21	-16528	1896	-1496	-2	-2	15	-2008	-2672	16632	21	0	3	120	130	5
-10168	-3976	11792	-10	13	-26	-16072	-1544	1264	-6	-4	-6	-1056	-4608	16456	22	-18	22	-9960	5776	12392	13	-2	-20	-16472	1752	-1280	10	-8	18	-2064	-2704	16768	18	1	4	120	129	5
-10212	-4040	11804	-12	16	-27	-16120	-1568	1352	-12	0	-6	-1032	-4584	16424	17	-19	22	-9896	5688	12240	16	-1	-21	-16552	1720	-1384	9	-2	15	-1960	-2672	16664	13	-6	1	119	130	5
-10160	-3996	11840	-12	22	-24	-16128	-1592	1400	-14	-3	-5	-976	-4616	16336	11	-17	28	-9888	5776	12240	11	-7	-21	-16552	1728	-1608	13	0	14	-1976	-2776	16712	13	-5	1	118	130	5
-10104	-3976	11680	-14	21	-23	-16032	-1752	1288	-13	-1	-12	-1120	-4624	16272	-1	-12	27	-10016	5688	12464	16	-4	-20	-16568	1704	-1520	15	-10	17	-2080	-2808	17144	19	-1	5	119	130	5
-10124	-3924	11776	-16	19	-23	-15936	-1664	1752	-7	-7	-7	-1072	-4552	16480	-14	-11	24	-9896	5784	12272	17	-4	-22	-16624	1752	-1248	16	0	22	-2104	-2880	16736	33	-2	0	120	129	5
-10204	-3924	11752	-15	19	-28	-15960	-1648	1608	5	-2	-8	-1144	-4560	16368	-16	-8	23	-9888	5600	12408	13	-1	-19	-16488	1840	-1344	14	-7	22	-1984	-2736	16688	33	-3	-4	118	129	5
-10228	-4008	11768	-12	16	-24	-16080	-1688	1152	16	-2	-8	-1192	-4752	16192	-7	-11	19	-9896	5704	12432	17	-2	-18	-16496	1800	-1464	4	-1	22	-2056	-2872	16896	36	-2	1	119	130	5
-10124	-3944	11740	-16	19	-23	-16032	-1560	1080	11	2	-13	-976	-4656	16456	-10	-13	20	-9912	5752	12280	14	-2	-23	-16496	1840	-1720	3	-4	19	-1992	-2552	16856	38	0	2	120	129	5
-10228	-3956	11748	-9	19	-28	-16144	-1656	1128	4	-3	-16	-1000	-4616	16232	-9	-16	24	-9984	5616	12280	14	-3	-22	-16536	1848	-1824	-4	-4	18	-2080	-2736	16608	22	-4	1	119	129	5
-10204	-4032	11832	-18	22	-31	-16000	-1640	1264	-2	-4	-15	-1096	-4632	16376	-7	-18	31	-10056	5792	12208	15	-4	-20	-16672	1752	-1472	4	-6	17	-2016	-2744	16624	22	1	3	116	130	5
-10184	-3988	11748	-21	19	-32	-16312	-1728	1200	2	-3	-9	-1064	-4656	16432	-7	-19	33	-9864	5856	12288	14	-2	-23	-16568	1848	-1552	8	-6	19	-2008	-2544	16608	18	-2	-2	119	130	5
-10172	-3980	11752	-21	19	-27	-16072	-1656	1152	-4	-3	-10	-896	-4656	16480	-2	-18	27	-9952	5640	12296	15	-1	-25	-16568	1808	-1352	8	-4	19	-2064	-2680	16504	11	-6	0	120	130	5
-10220	-4012	11684	-15	20	-24	-16120	-1576	1360	-1	-2	-12	-1080	-4616	16240	0	-15	25	-9896	5848	12288	11	1	-19	-16416	1872	-1280	15	-8	18	-2104	-2728	16936	16	-10	-2	120	129	5
-10192	-3960	11660	-18	17	-21	-16088	-1776	1328	-3	-8	-7	-1096	-4672	16248	5	-17	18	-10024	5776	12360	14	-9	-24	-16480	1768	-1336	10	-5	14	-2144	-2536	16800	22	-3	6	120	130	5
-10164	-3996	11796	-11	18	-31	-16104	-1472	1288	4	-4	-11	-896	-4616	16208	0	-12	19	-9776	5672	12448	14	-6	-21	-16560	1768	-1304	9	-7	14	-2144	-2752	16512	23	-5	5	122	130	5
-10204	-3968	11852	-12	17	-23	-15984	-1720	1304	0	-3	-4	-984	-4624	16320	-6	-15	25	-9944	5800	12392	12	-3	-23	-16496	1752	-1248	11	-3	15	-1952	-2736	16744	26	4	4	122	129	5
-10152	-3932	11756	-14	23	-23	-16080	-1672	1408	-9	-3	-6	-1000	-4504	16328	-3	-12	18	-9976	5752	12088	12	-5	-18	-16536	1840	-1424	4	-4	20	-1944	-2560	16744	22	2	3	119	130	5
-10212	-3988	11772	-18	22	-26	-16112	-1560	1224	-10	-1	-8	-1048	-4616	16144	-2	-14	22	-10000	5728	12384	16	0	-22	-16472	1880	-1520	10	-4	17	-1880	-2776	16824	22	7	0	118	129	5
-10180	-3984	11680	-16	21	-28	-16040	-1744	1224	1	4	-14	-896	-4584	16256	-7	-12	25	-9880	5712	12208	11	-2	-20	-16464	1720	-1280	10	-6	20	-1888	-2648	16856	25	8	-1	122	129	5
-10188	-3996	11792	-14	20	-24	-15992	-1664	1416	11	2	-11	-976	-4624	16560	-6	-13	25	-10072	5792	12304	21	-1	-18	-16536	1672	-1328	7	-3	14	-1872	-2624	16568	18	7	-1	123	129	5
-10240	-3932	11672	-17	20	-23	-16120	-1552	1136	5	6	-15	-944	-4544	16368	-10	-12	24	-9872	5792	12536	13	0	-17	-16512	1808	-1464	2	-2	18	-2040	-2712	16864	9	1	-5	118	130	5
-10176	-4060	11744	-18	21	-23	-16064	-1488	1392	5	3	-13	-1192	-4496	16328	-11	-14	21	-9968	5736	12200	15	-1	-19	-16472	1712	-1224	1	-1	21	-2032	-2736	16776	13	4	-2	119	130	5
-10172	-3932	11752	-17	18	-23	-16112	-1648	1288	7	2	-15	-1152	-4656	16424	-13	-11	20	-9864	5944	12232	16	-4	-20	-16504	1864	-1512	-7	8	13	-2040	-2696	16744	15	1	-7	119	129	5
-10148	-3964	11724	-22	22	-29	-16168	-1568	1144	2	0	-16	-1128	-4648	16312	-13	-11	23	-10000	5656	12160	18	-4	-20	-16568	1728	-1496	0	3	19	-1984	-2736	16968	14	5	-5	118	130	5
-10136	-3996	11704	-22	15	-28	-16024	-1616	1256	3	-1	-12	-1128	-4752	16320	-10	-14	28	-9904	5712	12384	13	-5	-19	-16552	1784	-1400	2	5	17	-2016	-2704	16568	24	-2	-3	120	130	5
-10192	-3988	11768	-20	19	-25	-16200	-1592	1152	-1	-9	-14	-1056	-4656	16312	-12	-18	29	-9864	5648	12448	14	-10	-21	-16448	1768	-1392	11	0	10	-2112	-2576	16656	17	2	2	120	130	5
-10228	-3948	11732	-20	21	-29	-16056	-1616	1256	-10	-9	-18	-1104	-4608	16112	-12	-16	28	-9960	5728	12208	12	-7	-21	-16568	1896	-1528	15	-1	13	-2096	-2744	16952	13	1	1	120	130	5
-10176	-4024	11720	-15	16	-30	-15952	-1744	1136	-6	-6	-12	-1072	-4648	16488	-18	-11	24	-9992	5576	12368	13	-1	-23	-16536	1872	-1392	16	-6	14	-2064	-2704	16816	19	8	9	119	130	5
-10220	-4040	11732	-18	23	-25	-16136	-1848	1312	5	-11	-16	-1160	-4600	16328	-12	-12	22	-10024	5680	12304	12	-6	-20	-16568	1848	-1536	17	-4	10	-1984	-2680	16648	15	-4	12	119	130	5
-10156	-3964	11832	-14	21	-27	-16104	-1608	1184	3	-4	-10	-1040	-4768	16288	-12	-14	28	-9992	5896	12440	9	-4	-27	-16560	1744	-1264	9	-11	12	-1936	-2672	16792	18	0	9	118	129	5
-10204	-3996	11812	-16	16	-29	-16120	-1768	1136	-2	-9	-14	-936	-4672	16192	-4	-14	26	-9952	5736	12248	4	-5	-25	-16576	1856	-1480	2	-7	10	-1952	-2752	16792	18	3	12	119	129	5
-10200	-4000	11796	-18	19	-29	-16064	-1568	1088	-3	-6	-12	-976	-4760	16368	-3	-15	30	-10016	5704	12208	10	-9	-26	-16560	1672	-1360	4	-5	6	-1984	-2632	16376	17	3	9	122	129	5
-10220	-3984	11852	-17	21	-31	-15952	-1680	1544	5	-8	-10	-920	-4680	16256	-1	-20	26	-9904	5688	12224	5	-9	-24	-16512	1720	-1616	9	-7	9	-1808	-2728	16616	6	-1	10	118	130	5
-10212	-4008	11768	-15	20	-26	-15984	-1768	1704	0	-7	-10	-1032	-4792	16344	-1	-13	26	-9976	5832	12528	10	-8	-24	-16568	1728	-1424	12	-6	18	-1928	-2912	16936	6	3	8	119	130	5
-10084	-4000	11680	-12	16	-29	-16064	-1608	1360	1	-5	-9	-1104	-4624	16320	-11	-11	22	-9912	5520	12240	10	-10	-20	-16448	1704	-1384	22	-7	16	-1944	-2744	16776	10	3	8	116	130	5
-10232	-4104	11768	-13	19	-27	-16088	-1736	1304	1	-5	-12	-928	-4832	16248	-9	-15	25	-10008	5672	12344	6	-4	-30	-16440	1824	-1248	14	-9	13	-1968	-2872	16488	19	1	3	119	130	5
-10196	-3992	11744	-16	19	-21	-15976	-1864	1392	0	0	-8	-976	-4800	16104	-5	-9	26	-9992	5752	12456	11	-3	-21	-16576	1680	-1208	3	-5	16	-1912	-2944	16832	26	2	4	118	130	5
-10160	-4012	11748	-8	23	-26	-16072	-1784	1288	-2	-5	-4	-1056	-4888	16152	-1	-9	20	-9864	5736	12336	14	1	-24	-16472	1712	-1320	3	0	18	-2104	-2784	16768	33	1	5	118	130	5
-10224	-4080	11620	-9	18	-21	-15984	-1640	1280	5	8	-8	-1152	-4624	16320	10	-15	19	-9960	5640	12096	13	-2	-19	-16368	1784	-1432	-1	3	21	-2032	-2864	16800	32	5	7	119	130	5
-10156	-3924	11728	-3	17	-21	-16120	-1768	1336	14	4	-9	-1176	-4824	16312	3	-17	20	-9976	5696	12088	14	-4	-16	-16568	1816	-1392	3	2	18	-2008	-2728	16712	26	5	3	118	130	5
-10164	-3968	11736	-11	17	-23	-16008	-1504	1304	8	5	-8	-1000	-4624	16480	6	-18	16	-9896	5624	12344	14	3	-20	-16480	1832	-1136	2	-5	22	-2176	-2784	16584	23	-7	1	117	130	5
-10176	-4020	11800	-11	20	-27	-16112	-1648	1264	2	4	-5	-944	-4584	16472	4	-12	16	-9904	5728	12128	18	-4	-19	-16504	1800	-1520	6	-3	20	-2128	-2840	16768	17	-4	-7	119	130	5
-10196	-4028	11724	-10	19	-22	-16064	-1616	1256	3	3	-5	-1064	-4672	16552	-6	-11	19	-9864	5720	12600	11	0	-19	-16576	1640	-1384	11	-2	21	-2136	-2688	16600	21	1	-3	118	130	5
-10180	-4104	11772	-12	15	-23	-16128	-1672	1280	3	1	-6	-1224	-4440	16392	-2	-12	17	-9952	5712	12232	19	-6	-22	-16456	1760	-1520	9	-5	23	-2024	-2744	16848	13	-5	-5	117	130	5
-10244	-4004	11680	-16	18	-29	-16232	-1592	1168	1	0	-7	-1072	-4696	16464	-9	-15	24	-9800	5728	12184	20	-5	-22	-16504	1856	-1424	10	-4	16	-2056	-2896	16864	15	2	-4	116	130	5
-10184	-3932	11804	-12	15	-29	-16064	-1464	1136	-6	-2	-15	-1072	-4664	16384	-13	-17	24	-10016	5640	12264	15	-8	-18	-16464	1752	-1360	7	-2	18	-1952	-2872	16664	18	2	0	119	130	5
-10228	-4020	11696	-18	20	-28	-16160	-1608	1160	-2	-4	-10	-1192	-4832	16392	-10	-15	23	-10040	5808	12344	15	-9	-21	-16504	1792	-1360	14	-3	17	-1952	-2752	16760	24	1	4	120	129	5
-10172	-3956	11804	-18	22	-28	-16120	-1736	1216	-3	-6	-14	-1064	-4736	16280	-7	-14	28	-10032	5680	12344	14	-5	-23	-16464	1656	-1488	5	-5	15	-1840	-2784	16904	25	-3	4	120	130	5
-10212	-3936	11760	-19	19	-27	-16160	-1640	1304	3	-2	-13	-1000	-4600	16312	-9	-16	23	-10008	5680	12384	15	-9	-21	-16520	1744	-1296	2	-5	15	-1992	-2704	16720	22	2	7	120	129	5
-10152	-4032	11796	-20	20	-30	-16136	-1768	1616	2	-6	-12	-1072	-4704	16240	-12	-13	27	-9976	5624	12240	8	-5	-23	-16488	1688	-1544	4	0	14	-2032	-2816	16744	18	-2	3	122	129	5
-10208	-4020	11680	-13	15	-27	-16024	-1808	1376	6	-7	-10	-1096	-4832	16280	-9	-14	26	-9896	5768	12200	13	-3	-23	-16568	1680	-1360	3	-6	14	-2032	-2728	16592	16	1	2	119	129	5
-10304	-4028	11752	-15	16	-29	-16024	-1608	1152	15	-7	-5	-992	-4760	16496	1	-13	25	-10088	5704	12008	10	-10	-24	-16472	1688	-1488	9	-8	10	-2008	-2792	16688	17	1	6	116	129	5
-10144	-4016	11752	-11	25	-28	-16136	-1688	1376	5	-5	-8	-1040	-4832	16216	0	-18	24	-9856	5808	12424	12	-3	-26	-16528	1752	-1248	11	-8	14	-1968	-2648	16944	15	0	7	120	130	5
-10200	-3992	11736	-12	19	-27	-15960	-1672	1224	-1	2	-9	-936	-4728	16128	6	-16	25	-9920	5800	12312	10	-8	-20	-16472	1728	-1392	16	-8	14	-2120	-2760	16608	15	1	1	121	130	5
-10184	-4080	11840	-10	16	-27	-16120	-1880	1448	-11	-3	-6	-1096	-4680	16144	5	-11	20	-9920	5688	12400	15	-6	-24	-16424	1624	-1304	12	-7	16	-2008	-2752	16936	16	-2	5	120	129	5
-10204	-4152	11800	-9	17	-24	-15992	-1784	1504	-2	0	-10	-1016	-4736	16280	-3	-14	18	-10032	5640	12400	13	-2	-21	-16528	1792	-1160	12	-5	19	-2072	-2760	17048	20	2	3	119	130	5
-10208	-3884	11732	-8	20	-24	-16032	-1576	1240	11	-1	-13	-1032	-4680	16096	-2	-16	17	-9888	5712	12312	12	1	-21	-16520	1744	-1208	11	-3	19	-1912	-2864	16608	26	4	5	117	130	5
-10212	-4052	11680	-13	23	-27	-16048	-1544	1176	-2	0	-2	-1152	-4704	16448	0	-19	11	-9944	5640	12408	15	-5	-20	-16568	1688	-1208	8	-3	16	-1904	-2736	16800	23	-2	2	120	129	5
-10188	-4032	11844	-11	18	-28	-16112	-1520	1304	-9	-4	-14	-1136	-4776	16304	5	-20	19	-9992	5792	12256	12	-1	-20	-16464	1864	-1512	5	-5	17	-2080	-2840	16712	23	-5	1	120	130	5
-10168	-3916	11688	-17	22	-27	-16104	-1504	1312	-9	1	-7	-1072	-4720	16128	-3	-15	21	-9920	5728	12384	8	-7	-23	-16408	1880	-1648	-1	1	16	-2192	-2808	16800	20	-7	0	120	130	5
-10184	-4004	11700	-13	20	-24	-16216	-1592	1176	-8	-2	-10	-1152	-4608	16288	-15	-11	24	-9984	5640	12368	13	-9	-22	-16488	1760	-1224	4	-3	20	-2000	-2824	16792	17	-3	5	116	129	5
-10272	-4068	11628	-14	21	-23	-16072	-1792	1288	8	3	-6	-1032	-4776	16352	-14	-8	23	-9896	5648	12400	13	1	-19	-16544	1656	-1296	5	-4	17	-2040	-2800	16824	18	0	7	115	129	5
-10224	-4132	11740	-14	13	-24	-16136	-1752	1624	13	-5	-7	-1280	-4776	16360	-7	-14	31	-9992	5776	12424	15	-4	-21	-16552	1800	-1728	5	-6	17	-1928	-2768	17016	19	4	11	117	129	5
-10092	-4016	11828	-15	19	-26	-15960	-1632	1416	13	-5	-6	-1136	-4888	16192	-2	-11	29	-9856	5696	12360	11	-9	-20	-16560	1760	-1456	8	-1	22	-2128	-2800	16720	28	5	5	117	130	5
-10148	-4032	11768	-16	18	-25	-16256	-1768	1440	3	-3	-4	-984	-4640	16264	10	-13	22	-9920	5584	12152	18	0	-18	-16456	1832	-1384	17	-8	20	-2128	-2688	16832	27	-3	-4	119	130	5
-10196	-4004	11800	-16	18	-29	-16128	-1640	1152	-7	-1	-5	-960	-4744	16200	17	-11	15	-9904	5696	12192	17	-9	-20	-16632	1808	-1368	16	-9	20	-1976	-2704	16776	25	-1	-5	121	129	5
-10184	-4028	11772	-11	20	-24	-16168	-1688	1296	0	-2	-5	-888	-4680	16360	11	-10	17	-10008	5728	12272	11	-2	-20	-16640	1896	-1520	12	-5	23	-2200	-2704	16728	27	1	3	123	130	5
-10152	-4060	11764	-13	18	-25	-16096	-1664	1464	-2	-3	-7	-1160	-4448	16208	-1	-12	22	-10000	5696	12368	14	3	-18	-16688	1680	-1376	3	-3	17	-2032	-2848	16784	19	4	0	117	130	5
-10240	-4076	11724	-9	21	-23	-16184	-1704	1448	1	-4	-4	-984	-4536	16528	-13	-12	25	-9968	5600	12488	15	-3	-20	-16472	1792	-1512	4	-5	20	-1984	-2720	16568	16	1	5	120	129	5
-10224	-4060	11788	-12	15	-27	-16040	-1688	1472	4	-4	-9	-1000	-4584	16488	-11	-14	20	-9888	5848	12496	15	-5	-16	-16456	1808	-1520	6	-3	20	-1960	-2904	16864	18	0	-1	119	130	5
-10200	-3996	11828	-13	21	-28	-16072	-1640	1240	-5	-2	-6	-968	-4680	16304	-2	-9	19	-9880	5776	12072	19	-5	-17	-16488	1752	-1296	3	-3	20	-2120	-2840	16840	25	0	-4	124	130	5
-10248	-4016	11772	-13	16	-28	-16072	-1624	1392	-1	-4	-8	-1064	-4752	16248	3	-13	17	-9896	5776	12200	18	0	-15	-16416	1776	-1520	2	1	19	-1976	-2744	16648	28	0	-2	120	130	5
-10232	-4060	11696	-10	17	-26	-15992	-1672	1216	13	-2	-8	-1064	-4808	16552	8	-9	19	-9912	5832	12280	23	-4	-20	-16472	1840	-1384	0	-2	15	-2024	-2784	16744	23	3	-1	122	129	5
-10148	-4016	11716	-16	16	-25	-16120	-1608	1248	7	3	-11	-1048	-4560	16344	6	-14	24	-9992	5776	12248	8	-3	-19	-16528	1840	-1512	2	-2	16	-1960	-2640	16800	19	1	4	122	130	5
-10212	-4000	11700	-16	16	-28	-15952	-1600	1168	9	-5	-16	-928	-4624	16280	-6	-17	25	-9944	5728	12376	14	-5	-21	-16384	1704	-1688	3	-2	16	-2168	-2608	16704	13	6	5	121	130	5
-10196	-3940	11676	-17	17	-31	-16104	-1576	1176	2	1	-14	-1072	-4584	16656	-4	-14	27	-9896	5696	12192	9	-7	-19	-16568	1752	-1456	12	-2	9	-2240	-2696	16792	8	4	11	123	130	5
-10204	-4008	11784	-13	18	-28	-16088	-1688	1144	-5	-1	-19	-1128	-4608	16264	-9	-13	25	-9984	5648	12200	11	-8	-25	-16504	1784	-1296	19	-4	6	-2104	-2800	16688	0	3	9	119	130	5
-10164	-3944	11712	-18	20	-26	-16120	-1696	1096	0	-8	-16	-1104	-4616	16136	-19	-16	19	-9984	5648	12224	8	-5	-27	-16456	1680	-1176	15	-7	6	-2016	-2824	16760	6	1	9	121	130	5
-10204	-4072	11812	-22	22	-32	-15984	-1800	952	-9	-5	-16	-1104	-4824	16320	-22	-15	23	-9904	5752	12200	2	-9	-25	-16464	1808	-1552	11	-5	9	-2096	-2840	16568	10	6	11	118	130	5
-10192	-4060	11752	-19	18	-27	-16000	-1680	1384	-4	-3	-17	-952	-4632	16480	-25	-15	19	-9880	5656	12304	4	-3	-31	-16552	1920	-1328	10	-5	7	-2064	-2808	16712	10	0	8	122	130	5
-10244	-4000	11756	-17	20	-31	-16160	-1488	1144	2	-4	-20	-1008	-4904	16376	-31	-14	22	-10008	5576	12264	5	-12	-28	-16584	1632	-1288	10	-2	11	-2080	-2864	16648	7	0	8	122	129	5
-10236	-4024	11720	-20	21	-29	-16112	-1744	1312	-9	-8	-15	-1200	-4832	16312	-22	-11	20	-9880	5768	12424	11	-9	-26	-16544	1648	-1544	15	-4	7	-2072	-2968	16592	6	1	12	120	130	5
-10200	-4024	11740	-21	21	-26	-15976	-1552	1176	-8	-4	-19	-1080	-4880	16272	-8	-15	22	-9936	5752	12096	10	-5	-27	-16520	1624	-1328	10	-6	6	-1976	-2928	16560	4	1	12	117	129	5
-10196	-4036	11900	-15	19	-26	-16048	-1632	1376	1	-6	-21	-1032	-4808	16136	-6	-17	35	-9912	5736	12416	8	-12	-22	-16456	1744	-1304	12	-4	7	-2072	-2816	16504	6	-1	8	117	129	5
-10204	-4072	11736	-18	20	-32	-16168	-1736	1240	5	-6	-15	-1120	-4728	16440	-2	-20	35	-9864	5696	12176	7	1	-23	-16464	1808	-1440	5	-4	7	-2016	-2968	16432	12	2	4	118	130	5
-10192	-4052	11820	-16	22	-25	-16056	-1784	1264	3	-5	-19	-952	-4824	16384	3	-21	28	-10040	5728	12304	10	-10	-24	-16536	1792	-1568	8	-5	13	-2192	-2720	16616	15	4	7	122	129	5
-10256	-4028	11688	-21	23	-24	-16216	-1664	1232	4	-4	-14	-992	-4696	16328	-7	-17	17	-9920	5672	12296	7	-8	-24	-16504	1600	-1368	5	-4	11	-2160	-2976	16616	11	0	5	118	130	5
-10224	-4084	11768	-19	21	-28	-16064	-1704	1200	-5	0	-13	-944	-4856	16280	-11	-15	20	-9960	5584	12280	11	-10	-23	-16560	1680	-1080	2	-9	14	-2080	-2984	16528	11	-1	3	119	130	5
-10184	-4016	11704	-16	21	-30	-16144	-1736	1488	1	1	-15	-1016	-4752	16328	-17	-20	21	-9800	5624	12368	11	-2	-20	-16544	1696	-1456	7	-6	16	-2072	-2880	16688	14	2	4	121	130	5
-10196	-3988	11756	-19	23	-26	-16184	-1752	1464	4	2	-12	-1032	-4744	16304	-31	-16	19	-9872	5536	12272	17	-6	-19	-16504	1744	-1480	15	-8	21	-2032	-3016	16824	21	0	5	117	130	5
-10228	-3944	11716	-12	19	-26	-16072	-1800	1128	2	4	-11	-1096	-4888	16136	-21	-13	17	-9944	5704	12232	18	5	-21	-16368	1824	-1464	13	1	21	-2080	-3008	16440	24	4	0	117	129	5
-10176	-4096	11676	-12	17	-26	-16136	-1704	1256	6	5	-8	-1072	-5064	16112	-3	-15	18	-9976	5752	12344	16	0	-18	-16480	1632	-1352	9	2	23	-2064	-2936	16864	32	0	-3	119	130	5
-10196	-4024	11748	-9	21	-25	-16104	-1528	1320	6	-1	-6	-992	-4952	16144	12	-19	15	-10024	5696	12256	18	3	-19	-16592	1576	-1576	9	-3	23	-2160	-2848	16776	30	3	-6	118	130	5
-10196	-4036	11744	-16	18	-24	-16136	-1680	1056	2	4	-5	-1008	-4760	16256	21	-17	21	-9912	5712	12336	19	6	-17	-16528	1624	-1520	14	-7	21	-2144	-2824	17016	25	1	-6	120	130	5
-10212	-4040	11692	-12	20	-23	-15976	-1752	1200	1	-1	-9	-1016	-4720	16368	20	-15	18	-9992	5872	12280	18	0	-16	-16568	1920	-1392	8	-5	25	-1928	-2816	16624	23	-1	-8	118	130	5
-10236	-4072	11732	-12	19	-21	-16088	-1648	1440	-2	4	-2	-1080	-4800	16528	9	-14	21	-9992	5808	12296	13	-1	-20	-16552	1952	-1288	4	-5	29	-2128	-2840	16632	21	2	-9	120	130	5
-10288	-4064	11780	-14	26	-22	-16128	-1632	1360	0	1	-5	-912	-4752	16280	-1	-13	19	-9952	5648	12272	19	-3	-17	-16576	1704	-1360	5	-4	26	-2088	-2768	16880	24	-4	-4	118	130	5
-10280	-4104	11740	-18	18	-19	-16032	-1600	1320	2	2	-1	-1056	-4720	16088	-4	-15	20	-9976	5576	12256	19	0	-22	-16624	1656	-1424	11	-5	27	-2016	-2744	16656	24	-3	-4	120	130	5
-10196	-4056	11724	-13	20	-21	-16032	-1648	1208	-4	3	-1	-1056	-4744	16280	-14	-14	20	-10072	5896	12232	14	-1	-22	-16520	1872	-1296	9	-7	21	-1992	-2840	16672	29	1	0	121	130	5
-10236	-4064	11732	-12	19	-24	-16088	-1768	1032	4	0	-1	-1048	-4824	16360	-4	-13	20	-9880	5640	12304	19	-3	-23	-16568	1720	-1440	8	-6	24	-2104	-2656	16888	28	-4	1	118	130	5
-10172	-4060	11736	-10	17	-24	-16080	-1696	1128	4	-2	-8	-1072	-4816	16328	-7	-12	16	-9880	5744	12384	16	-3	-22	-16544	1760	-1360	14	-8	21	-2056	-2896	16688	31	-1	0	119	130	5
-10176	-4024	11740	-10	14	-24	-16088	-1800	1456	5	1	-5	-1008	-4800	16448	5	-11	19	-9832	5592	12232	10	-6	-22	-16440	1800	-1416	6	-6	19	-2192	-2872	16456	31	1	1	118	130	5
-10212	-4016	11796	-9	17	-25	-16064	-1640	1368	8	-2	-5	-968	-4752	16192	12	-15	20	-9872	5576	12432	17	-2	-25	-16408	1808	-1240	9	-1	20	-2104	-2744	16760	26	-3	1	122	130	5
-10180	-4016	11748	-14	18	-29	-16160	-1576	1320	-2	-7	-1	-1152	-4808	16264	6	-24	24	-10104	5704	12248	13	-3	-21	-16456	1792	-1464	6	-9	13	-2192	-2768	16720	22	-3	5	120	129	5
-10196	-4004	11768	-17	20	-25	-15936	-1648	1288	-9	-3	-11	-1032	-4744	16288	1	-14	28	-9872	5576	12200	15	-6	-18	-16536	1792	-1496	10	-6	19	-2072	-2816	16704	18	-4	7	120	130	5
-10192	-4060	11728	-17	17	-31	-16056	-1872	1144	-1	1	-10	-984	-4672	16208	-2	-16	28	-9872	5600	12248	15	-2	-22	-16680	1768	-1304	12	-1	17	-1928	-2824	16728	19	-4	10	121	130	5
-10232	-4072	11732	-10	17	-22	-16000	-1800	1280	1	-1	-10	-1184	-4736	16120	-3	-13	22	-9936	5712	12320	19	-7	-22	-16400	1896	-1576	8	-7	11	-1976	-2896	16840	14	-2	8	122	129	5
-10240	-4016	11760	-11	20	-21	-15960	-1824	1400	2	-3	-7	-984	-4752	16248	-6	-13	20	-9912	5536	12288	12	-8	-20	-16520	1848	-1480	5	-1	16	-2056	-2888	16480	23	1	9	118	129	5
-10200	-4028	11720	-8	17	-25	-16104	-1688	1232	5	4	-6	-904	-4920	16216	-3	-9	17	-10008	5712	12168	11	-6	-22	-16528	1880	-1368	7	-5	20	-2024	-2840	16888	26	3	3	119	129	5
-10212	-4052	11788	-10	19	-21	-16056	-1792	1304	2	-1	-6	-1008	-4680	16120	-1	-10	20	-10056	5568	12160	16	-2	-20	-16600	1728	-1376	11	-4	16	-2032	-2672	16832	27	7	1	121	130	5
-10232	-3972	11764	-13	17	-22	-16128	-1832	1512	3	4	-8	-960	-4704	16216	0	-11	19	-9968	5632	12288	15	2	-20	-16472	1640	-1320	11	-2	10	-1936	-2808	16856	20	4	7	121	130	5
-10240	-4036	11768	-12	19	-25	-16112	-1688	1216	4	-3	-8	-1016	-4688	16272	2	-16	17	-9896	5728	12104	13	-3	-16	-16464	1880	-1176	12	-2	19	-1864	-2824	16552	12	2	-2	118	130	5
-10192	-4048	11716	-13	20	-26	-16056	-1696	1184	3	5	-7	-1032	-4688	16096	-4	-18	23	-9984	5704	12440	14	-3	-21	-16376	1816	-1520	2	-2	12	-2016	-2936	16712	15	4	0	119	130	5
-10260	-3980	11668	-15	19	-26	-16184	-1784	1352	4	3	-9	-864	-4856	16464	-6	-15	23	-9920	5656	12280	13	-7	-21	-16656	1656	-1528	3	-1	20	-2040	-2936	16768	16	-6	-4	117	130	5
-10184	-3976	11776	-15	18	-23	-16088	-1704	1256	1	-1	-7	-1000	-4880	16096	-3	-11	18	-9968	5656	12416	18	-6	-18	-16584	1608	-1384	-1	1	20	-2096	-2872	16608	21	-2	-5	120	129	5
-10248	-4032	11696	-12	13	-24	-16200	-1672	1128	7	4	-8	-1048	-4800	16216	3	-8	19	-9752	5864	12304	19	-2	-22	-16504	1752	-1288	8	2	20	-2256	-2920	16552	25	1	-2	120	129	5
-10204	-4024	11768	-9	20	-23	-16040	-1744	1072	1	-1	-7	-1152	-4696	16168	4	-10	23	-9984	5760	12216	14	-3	-23	-16568	1784	-1384	5	2	18	-2160	-2688	16728	27	-2	5	119	130	5
-10260	-4004	11728	-14	19	-26	-16120	-1640	1208	-1	-2	-3	-1032	-4720	16352	-5	-12	23	-9952	5680	12080	14	-8	-22	-16576	1792	-1280	7	-4	16	-2104	-2824	16720	24	1	5	120	130	5
-10244	-4012	11820	-22	19	-27	-16072	-1736	1256	-2	-1	-12	-1088	-4864	16288	-10	-17	28	-10016	5712	12216	15	1	-21	-16536	1792	-1616	13	-3	18	-2080	-2760	16632	25	-4	9	119	130	5
-10180	-3960	11748	-15	17	-29	-16000	-1760	992	1	-5	-6	-1248	-4832	16128	-11	-12	25	-9960	5872	12240	13	-8	-24	-16616	1672	-1568	13	-3	17	-2072	-2912	16728	27	-2	10	121	130	5
-10216	-4112	11796	-16	21	-29	-16144	-1680	1240	2	-5	-11	-1176	-4904	16208	-5	-20	27	-9856	5672	12336	11	-6	-24	-16736	1784	-1336	6	-4	14	-2192	-2888	16608	27	-3	12	121	130	5
-10200	-3940	11716	-16	18	-24	-16072	-1744	1064	3	-7	-9	-1088	-4896	16288	-2	-14	29	-9968	5680	12216	9	-4	-25	-16592	1864	-1608	10	-11	18	-2128	-2824	16704	25	-4	7	119	130	5
-10268	-4036	11700	-18	19	-26	-16024	-1624	1064	-2	-4	-9	-976	-4840	16416	6	-12	30	-10000	5648	12640	7	-8	-22	-16544	1632	-1360	8	-9	17	-2088	-2792	16680	19	-3	5	119	130	5
-10148	-4008	11724	-17	18	-23	-16096	-1704	1128	-10	-3	-10	-1152	-4888	16272	7	-15	28	-9944	5792	12248	11	-8	-21	-16512	1728	-1392	12	-8	19	-2240	-2944	16672	18	-1	5	122	130	5
-10204	-4016	11736	-13	20	-27	-16160	-1768	1320	-4	-6	-6	-1064	-4840	16128	6	-15	24	-10032	5632	12000	15	-5	-23	-16568	1696	-1480	11	-8	20	-2096	-2856	16664	15	-4	-1	119	130	5
-10136	-4088	11720	-14	19	-26	-16128	-1720	1200	-7	-6	-6	-896	-4888	16280	-1	-13	20	-10016	5616	12264	13	-4	-20	-16352	1792	-1464	8	-9	24	-2096	-2952	16664	18	-2	2	121	130	5
-10260	-4092	11640	-12	20	-25	-15896	-1656	1128	4	-6	-10	-1024	-4824	16352	-4	-9	22	-9912	5840	12472	13	-1	-22	-16656	1888	-1328	7	-5	22	-2104	-2728	16592	23	0	-3	119	130	5
-10236	-4028	11644	-13	14	-23	-15960	-1744	1128	5	-7	-9	-976	-4800	16224	-10	-10	23	-10016	5728	12288	13	-2	-20	-16528	1600	-1416	8	-1	19	-1864	-2888	16552	31	0	2	120	129	5
-10248	-4040	11808	-9	18	-23	-16104	-1848	1264	4	-6	-5	-1096	-4816	16344	-8	-13	17	-9912	5600	12152	15	-4	-21	-16624	1768	-1488	8	-4	23	-1960	-2896	16688	30	-3	1	118	129	5
-10208	-4056	11844	-11	17	-24	-16040	-1656	1392	3	-1	-5	-928	-4752	16320	5	-15	21	-10056	5712	12336	13	-5	-23	-16584	1808	-1544	9	-7	21	-2096	-2992	16528	35	-2	7	121	130	5
-10204	-4020	11640	-11	14	-23	-16144	-1776	1168	3	-2	-9	-1032	-4704	16368	2	-15	21	-9864	5632	12120	15	-4	-17	-16424	1728	-1336	8	-4	23	-1952	-2856	16592	26	3	2	116	129	5
-10192	-4068	11676	-9	19	-25	-16056	-1576	1064	4	-2	-5	-1056	-4888	16120	9	-15	19	-10008	5744	12264	15	4	-19	-16560	1824	-1392	10	-4	17	-2016	-2776	16736	24	-4	0	119	130	5
-10264	-4084	11784	-12	15	-26	-15992	-1752	1288	-2	0	-2	-976	-4816	16256	14	-12	21	-10000	5688	12192	11	-5	-19	-16504	1704	-1368	2	-3	20	-2040	-2816	16912	26	-7	2	116	130	5
-10184	-4032	11720	-15	21	-25	-16112	-1592	1352	-3	2	-10	-928	-4792	16248	5	-15	29	-10160	5632	12176	16	-3	-20	-16544	1704	-1192	8	0	21	-2144	-2976	16560	24	-4	1	121	129	5
-10220	-4008	11712	-18	17	-25	-16144	-1624	1488	-1	-1	-6	-1128	-4792	16200	9	-18	30	-9920	5728	12184	19	1	-23	-16696	1800	-1328	7	0	20	-1944	-2808	16592	21	-5	3	118	130	5
-10208	-4036	11724	-16	19	-26	-16224	-1752	1208	-2	-2	-8	-1024	-4576	16576	2	-18	28	-9920	5632	12296	15	-3	-20	-16560	1672	-1480	9	-6	20	-2040	-2872	16656	24	4	4	120	130	5
-10228	-4024	11744	-16	19	-26	-16072	-1656	1440	-6	0	-10	-1200	-4720	16152	-10	-17	29	-10000	5632	12168	18	-5	-18	-16512	1888	-1328	15	-5	23	-2056	-2840	16536	24	-3	2	120	130	5
-10176	-4088	11672	-16	16	-24	-16104	-1704	1128	-5	3	-10	-992	-4816	16344	-6	-9	18	-9896	5688	12440	18	-2	-22	-16560	1776	-1480	14	-5	21	-2064	-2792	16632	33	0	-1	118	129	5
-10232	-4112	11732	-10	15	-25	-16104	-1776	1200	12	-3	-6	-1016	-4776	16112	1	-5	16	-9976	5680	12288	19	-6	-18	-16504	1880	-1464	6	-10	22	-2072	-2872	16616	34	-1	-3	117	130	5
-10252	-4000	11672	-7	20	-24	-16088	-1704	1184	21	-4	-6	-1064	-4664	16096	4	-8	12	-10032	5840	12320	10	-3	-19	-16592	1696	-1240	2	-5	21	-2024	-2696	16800	33	2	-1	124	129	5
-10164	-4068	11696	-13	18	-25	-16048	-1568	1200	19	2	1	-1136	-4824	16352	11	-12	18	-9968	5584	12424	13	-3	-22	-16416	1800	-1576	3	-4	17	-2144	-2808	16656	23	-1	-3	121	129	5
-10136	-4044	11768	-10	18	-23	-15968	-1664	1352	-1	1	-17	-984	-4608	16336	3	-10	20	-9856	5768	12272	9	-4	-21	-16336	1800	-1264	4	-1	18	-2088	-2776	16744	14	-2	1	121	129	5
-10188	-4028	11712	-14	19	-24	-16184	-1776	1024	-10	-7	-4	-944	-4728	16448	4	-15	25	-9952	5816	12384	11	0	-24	-16568	1672	-1496	7	-9	17	-2128	-2792	16880	14	1	5	120	129	5
-10152	-4032	11728	-13	18	-25	-16216	-1808	1056	-13	-5	-9	-1024	-4648	16312	1	-20	26	-9976	5696	12184	16	-4	-18	-16712	1752	-1392	11	-6	18	-2008	-2888	16736	17	-1	4	121	130	5
-10168	-4052	11664	-16	15	-23	-16032	-1768	1288	-5	-1	-10	-848	-4648	16480	-1	-18	30	-9976	5720	12320	7	-4	-21	-16592	1832	-1296	13	-2	15	-1936	-2896	16960	23	-2	7	120	130	5
-10208	-4020	11736	-15	22	-28	-16128	-1680	1440	-4	-3	-10	-1040	-4840	16168	0	-18	25	-10032	5568	12568	17	-6	-21	-16504	1760	-1184	12	-7	16	-2008	-3016	16616	30	0	4	121	130	5
-10212	-4016	11728	-16	16	-21	-16200	-1672	1128	-2	0	-7	-864	-4680	16160	2	-16	21	-9944	5720	12240	14	0	-25	-16416	1744	-1472	8	-1	19	-2208	-2912	16800	35	2	5	119	130	5
-10180	-4004	11660	-17	20	-24	-16144	-1600	1208	1	1	-10	-984	-4736	16320	8	-15	23	-9912	5672	12304	12	-10	-21	-16488	1680	-1592	4	3	19	-2208	-2840	16848	31	-4	-2	122	129	5
-10184	-4024	11792	-15	23	-26	-16192	-1664	1328	3	-3	-8	-1096	-4696	16328	-6	-11	15	-10088	5624	12160	14	0	-24	-16488	1848	-1360	8	3	20	-2056	-2784	16704	31	-3	0	117	129	5
-10236	-4084	11788	-14	17	-24	-15952	-1568	1016	3	-1	-9	-1104	-4840	16376	-4	-10	23	-9952	5768	12304	11	-4	-23	-16584	1528	-1568	8	1	16	-2024	-2752	16440	23	-3	-1	119	129	5
-10292	-4064	11796	-17	17	-22	-16200	-1688	1200	5	-2	-8	-984	-4728	16160	-6	-13	32	-9896	5800	12216	16	-4	-23	-16680	1808	-1488	2	-1	15	-1928	-2768	16760	18	-3	3	117	129	5
-10232	-3984	11688	-13	18	-27	-16208	-1752	1208	4	-4	-9	-1032	-4832	16368	-6	-16	31	-10048	5744	12344	15	-2	-21	-16560	1752	-1520	1	-3	15	-2256	-2760	16544	21	-5	2	119	129	5
-10236	-4024	11768	-18	20	-30	-16000	-1760	1032	1	-3	-8	-976	-4816	16304	5	-21	24	-9944	5616	12400	14	0	-22	-16528	1680	-1304	3	-6	17	-2112	-2976	16784	23	-4	2	121	129	5
-10228	-4008	11708	-18	13	-25	-16032	-1736	1168	0	-7	-13	-960	-4800	16232	8	-15	24	-9912	5592	12256	15	-4	-22	-16400	1824	-1488	4	-4	19	-2040	-2896	16688	24	1	3	120	129	5
-10228	-4068	11740	-16	21	-26	-16112	-1552	1352	-5	-6	-10	-1008	-4800	16392	4	-15	27	-9904	5736	12232	10	-8	-20	-16568	1728	-1496	9	-9	22	-2056	-2736	16648	28	-5	7	116	129	5
-10152	-4020	11684	-18	20	-26	-16128	-1536	1152	-1	-6	-5	-1000	-4624	16152	5	-12	27	-9888	5784	12232	12	-6	-22	-16648	1752	-1160	17	-6	21	-2064	-2944	16728	24	-2	2	119	129	5
-10124	-4040	11816	-12	19	-23	-16088	-1784	1280	-4	-5	-5	-1000	-4696	16088	-8	-12	21	-9984	5584	12376	14	-5	-20	-16504	1808	-1280	22	-12	22	-2000	-2920	16688	27	-3	-1	117	129	5
-10232	-4048	11660	-13	20	-23	-15928	-1864	1408	3	2	-4	-920	-4776	16192	-6	-3	11	-9912	5728	12296	13	2	-18	-16400	1976	-1376	14	-12	20	-1928	-2856	16728	29	3	-1	120	129	5
-10184	-4132	11716	-5	15	-24	-16128	-1720	1144	22	-4	-5	-1040	-4888	16176	5	-7	10	-9888	5752	12216	17	-2	-18	-16552	1824	-1560	1	-3	21	-1984	-2792	16456	28	0	-1	121	129	5
-10192	-3960	11796	-4	16	-23	-16048	-1664	1664	23	3	-3	-1000	-4824	16392	1	-9	10	-9896	5688	12320	11	-5	-18	-16488	1912	-1272	-15	-1	18	-2104	-2688	16816	24	-2	-1	118	129	5
-10228	-3968	11736	-12	15	-22	-16080	-1688	1200	7	3	-3	-968	-4776	16256	9	-11	17	-10032	5776	12472	14	-7	-18	-16616	1792	-1256	-9	-1	16	-1992	-2936	16728	21	0	-2	120	130	5
-10228	-4000	11696	-11	18	-29	-16000	-1616	1128	-6	-2	-8	-928	-4792	16312	16	-12	20	-9872	5696	12384	12	-1	-22	-16456	1592	-1368	2	-3	13	-2008	-2896	16832	15	-3	2	118	130	5
-10232	-4004	11720	-19	23	-25	-16144	-1728	1200	-7	-2	-13	-1008	-4760	16368	6	-16	31	-9920	5696	12240	15	-6	-16	-16552	1832	-1552	8	-2	16	-2160	-2784	16944	14	0	0	121	130	5
-10152	-4044	11748	-13	21	-32	-16120	-1696	1128	-1	0	-14	-1144	-4536	16344	4	-18	28	-9872	5688	12224	17	-6	-20	-16424	1688	-1488	8	-5	16	-2120	-2928	16440	17	-2	5	119	130	5
-10196	-4012	11708	-14	17	-28	-16024	-1664	1208	-2	1	-13	-1336	-4728	16192	1	-18	38	-10008	5640	12320	16	-9	-23	-16632	1832	-1560	19	-3	18	-2016	-2912	16744	33	-7	-1	120	130	5
-10216	-3960	11652	-19	19	-27	-15984	-1808	1064	-7	2	-18	-1000	-4688	16448	-11	-18	36	-10024	5728	12344	17	-7	-18	-16592	1808	-1416	24	-6	21	-2008	-2784	16712	37	-5	-2	118	130	5
-10220	-4032	11760	-17	21	-26	-16080	-1632	1456	-4	3	-11	-1064	-4704	16168	-10	-15	30	-9840	5688	12224	18	-11	-14	-16568	1856	-1328	18	-4	22	-2288	-2840	16760	41	-1	-1	120	130	5
-10184	-3964	11668	-23	23	-28	-16128	-1776	1280	-7	-8	-17	-1232	-4664	16248	-6	-13	24	-9992	5648	12368	16	-8	-22	-16616	1816	-1432	14	-4	26	-2008	-2728	16608	35	-1	0	117	129	5
-10208	-4020	11720	-22	19	-29	-15936	-1624	1000	-3	-7	-13	-1080	-4816	16232	-12	-12	29	-9872	5760	12288	15	-5	-20	-16352	1864	-1488	5	-9	23	-2120	-2800	16904	29	-3	-5	121	129	5
-10240	-4084	11780	-19	22	-26	-16168	-1792	1184	10	-8	-12	-1168	-4768	16328	-16	-14	27	-9824	5704	12376	19	-6	-21	-16408	1768	-1496	2	-2	20	-2128	-2688	16608	25	-1	-3	122	130	5
-10140	-4040	11652	-14	20	-30	-16184	-1696	1208	9	-11	-15	-968	-4840	16416	-14	-15	28	-9848	5888	12264	13	-1	-19	-16448	1696	-1352	-5	-7	23	-2096	-2880	16480	22	-3	-1	119	129	5
-10204	-4028	11808	-19	19	-30	-16112	-1632	1368	1	-12	-9	-824	-4832	16544	-13	-13	24	-9920	5640	12296	12	0	-19	-16424	1832	-1136	1	-8	21	-2120	-2872	16720	19	-3	-1	117	129	5
-10228	-4072	11612	-22	19	-31	-16056	-1696	1304	-9	-5	-15	-936	-4848	16136	0	-17	26	-9840	5512	12184	20	-3	-21	-16576	1776	-1128	12	-6	22	-2024	-2784	16504	18	0	-3	120	130	5
-10236	-4024	11724	-19	21	-27	-16208	-1824	1512	-10	-6	-9	-1064	-4880	16240	-4	-12	21	-10048	5776	12312	13	-4	-20	-16472	1856	-1432	19	-7	23	-1984	-2816	16688	21	2	-2	118	130	5
-10208	-4112	11696	-15	21	-28	-16040	-1864	1184	-2	-4	-9	-1080	-4816	16176	2	-10	19	-10016	5680	12344	16	-6	-20	-16592	1784	-1304	22	-6	24	-1968	-2808	16720	24	-3	1	118	130	5
-10148	-4032	11696	-11	13	-26	-15984	-1736	1456	13	-1	2	-1120	-4696	16200	9	-10	21	-9960	5672	12160	13	1	-23	-16504	1864	-1360	17	0	17	-1928	-2824	16792	28	0	2	121	130	5
-10140	-4056	11676	-3	17	-21	-16192	-1768	1248	13	-1	1	-984	-4816	16208	13	-9	17	-10008	5704	12256	8	-5	-20	-16544	1792	-1448	4	-1	18	-2120	-2776	16904	33	0	5	120	130	5
-10228	-3984	11824	-12	16	-23	-16048	-1704	1360	7	-2	4	-800	-4744	16312	26	-10	18	-9944	5672	12432	16	-5	-23	-16536	1768	-1440	-3	-3	12	-2064	-2800	16496	25	-2	8	120	130	5
-10208	-3988	11756	-9	16	-22	-16024	-1688	1280	-4	3	-6	-960	-4640	16368	23	-14	20	-9976	5568	12224	13	-4	-26	-16400	1656	-1384	-1	-6	15	-1960	-2792	16608	22	-3	6	119	129	5
-10208	-4068	11660	-12	20	-21	-16072	-1736	1256	-9	4	-6	-944	-4592	16256	12	-14	21	-10016	5656	12536	12	-7	-21	-16544	1680	-1576	3	-6	17	-2096	-2896	16776	13	-9	8	123	130	5
-10268	-4028	11716	-8	18	-21	-16104	-1704	1248	-4	1	-10	-1000	-4576	16360	-7	-20	30	-9944	5672	12256	15	-5	-22	-16608	1656	-1456	12	-3	17	-1960	-2792	16624	10	0	7	119	130	5
-10196	-3932	11664	-12	18	-23	-16144	-1728	1288	-1	0	-9	-1000	-4752	16144	-19	-16	29	-9976	5864	12160	13	-3	-23	-16488	1776	-1280	16	-4	19	-1984	-3056	16792	15	-4	4	121	129	5
-10188	-4028	11740	-17	21	-24	-16192	-1608	1360	1	0	-10	-1064	-4696	16384	-12	-13	27	-10000	5776	12240	13	-2	-24	-16504	1824	-1400	12	2	17	-2104	-2976	16880	20	-4	0	120	129	5
-10204	-4080	11696	-13	20	-26	-15992	-1656	1136	-1	-4	-10	-1168	-4640	16200	-4	-10	21	-9912	5576	12184	14	-7	-18	-16520	1784	-1272	8	0	19	-2104	-2752	16760	33	-1	-4	119	130	5
-10220	-4020	11788	-17	22	-28	-16136	-1832	1184	4	-3	-14	-1128	-4752	16120	-2	-9	19	-10024	5632	12272	16	0	-19	-16528	1808	-1352	5	0	16	-2088	-2840	16800	36	1	-1	121	130	5
-10172	-4004	11752	-19	20	-30	-16064	-1640	1232	0	-2	-14	-1160	-4800	16200	-4	-12	23	-9960	5520	12360	15	-4	-20	-16624	1840	-1448	0	-9	22	-2168	-2824	16608	33	-5	2	119	130	5
-10168	-4040	11876	-15	21	-26	-16072	-1832	1320	0	-5	-10	-1088	-4792	16152	-14	-10	30	-9920	5624	12416	19	-3	-17	-16592	1752	-1512	5	-5	17	-2080	-2656	16536	25	0	7	117	130	5
-10224	-4040	11768	-21	20	-27	-16000	-1752	1288	3	-6	-10	-1056	-4832	16208	-15	-11	28	-9904	5632	12240	13	3	-18	-16448	1912	-1560	6	-4	16	-2168	-2688	16816	14	4	3	119	130	5
-10212	-4040	11812	-13	19	-25	-16048	-1784	1048	4	-5	-9	-1048	-4912	16104	-12	-14	29	-9888	5760	12368	13	-3	-21	-16504	1864	-1568	6	-7	17	-1896	-2752	16672	18	0	1	119	130	5
-10224	-4056	11708	-16	20	-26	-16128	-1744	1352	-4	-8	-9	-1096	-4896	16256	1	-12	22	-10008	5832	12320	13	0	-21	-16528	1760	-1432	9	0	18	-2104	-2872	16736	20	2	-2	117	130	5
-10244	-4080	11660	-13	17	-24	-16048	-1744	1392	0	-9	-13	-1032	-4904	16472	8	-15	20	-9760	5616	12224	11	-1	-20	-16608	1832	-1584	8	-3	17	-2000	-2672	16656	24	0	0	120	129	5
-10164	-4028	11796	-12	19	-23	-16176	-1568	1392	-6	-3	-7	-968	-4864	16336	6	-14	21	-10032	5792	12248	10	-7	-23	-16512	1704	-1288	9	-3	20	-2072	-2800	16560	24	-1	4	118	130	5
-10224	-4068	11796	-12	15	-25	-16104	-1664	1152	-3	-6	-5	-1040	-5000	16216	10	-15	20	-9904	5720	12336	15	-7	-24	-16456	1800	-1280	13	0	17	-2080	-2760	16632	20	0	6	119	130	5
-10212	-4060	11800	-10	18	-25	-16112	-1720	1320	-2	-1	0	-1128	-4680	16200	2	-14	19	-9952	5880	12240	10	-5	-20	-16424	1616	-1264	17	-5	17	-2240	-2888	16440	21	-2	7	119	130	5
-10188	-4012	11852	-10	21	-26	-16040	-1704	1472	-1	-3	-5	-960	-4688	16168	-7	-14	20	-9912	5672	12056	13	-9	-20	-16592	1896	-1432	12	-3	21	-1872	-2824	16744	21	-4	6	119	130	5
-10188	-4000	11740	-14	21	-22	-16064	-1624	1072	4	2	-7	-1120	-4704	16400	1	-14	18	-9856	5680	12336	16	0	-20	-16584	1608	-1384	8	-2	16	-1976	-2880	16632	25	0	5	117	130	5
-10164	-3908	11760	-10	20	-23	-16040	-1744	1400	3	-1	-6	-1000	-4664	16168	5	-17	23	-10008	5608	12472	14	0	-18	-16496	1832	-1208	6	-2	18	-1936	-2816	16792	20	-4	5	120	130	5
-10176	-3976	11752	-14	19	-24	-16048	-1648	1368	-5	-1	-5	-984	-4640	16344	7	-18	23	-10008	5712	12056	11	0	-22	-16568	1704	-1208	1	1	17	-1952	-2888	16936	24	-2	1	117	129	5
-10196	-4004	11804	-15	18	-26	-16096	-1736	1048	-5	-1	-7	-1144	-4728	16272	9	-15	29	-9872	5656	12376	16	3	-22	-16560	1712	-1472	1	-6	20	-2104	-2776	16896	29	-3	-1	120	130	5
-10248	-4032	11796	-15	17	-27	-16168	-1792	1264	3	0	-9	-1096	-4560	16208	0	-18	27	-9864	5712	12488	16	-4	-16	-16520	1800	-1224	7	-6	26	-2072	-2944	16776	26	-3	2	118	130	5
-10232	-4032	11744	-21	18	-27	-16136	-1656	1336	-3	-3	-6	-1080	-4688	16200	-14	-12	25	-9968	5640	12312	14	-3	-19	-16560	1808	-1256	9	-1	16	-2096	-2624	16552	26	0	-1	118	130	5
-10224	-4124	11616	-15	19	-28	-16200	-1816	1280	5	-4	-11	-1096	-4808	16248	-7	-13	22	-10072	5728	12376	14	-4	-17	-16520	1880	-1320	2	1	18	-2072	-2672	16720	21	-2	0	118	130	5
-10172	-4088	11744	-15	18	-23	-15976	-1672	1376	15	-3	-12	-1048	-4672	16024	-13	-13	22	-9920	5752	12160	11	-2	-22	-16624	1800	-1272	3	-4	16	-1992	-2848	16768	21	2	5	121	130	5
-10248	-3944	11876	-13	14	-25	-16056	-1680	1240	11	-7	-5	-1120	-4848	16400	-12	-12	23	-10056	5864	12320	9	-3	-22	-16448	1968	-1496	3	-3	16	-2032	-2776	16784	24	-2	8	120	130	5
-10148	-4024	11864	-10	19	-22	-16104	-1656	1200	-8	-6	-10	-992	-4912	16256	1	-15	18	-10024	5712	12352	14	-2	-23	-16512	1768	-1248	9	-8	19	-1976	-2744	16672	20	2	6	118	130	5
-10180	-4088	11568	-12	19	-21	-16104	-1720	1296	-9	-5	-9	-984	-4736	16304	-4	-10	23	-9872	5712	12432	16	-5	-18	-16512	1936	-1592	17	-10	15	-1952	-3064	16568	14	0	5	119	130	5
-10236	-4016	11772	-15	17	-24	-16216	-1816	1360	-5	-6	-6	-864	-4816	16288	-1	-14	19	-9936	5616	12288	14	-4	-22	-16592	1848	-1344	17	-6	20	-2008	-2880	16936	14	2	2	117	130	5
-10168	-4052	11680	-12	18	-23	-16112	-1800	1176	1	-5	-4	-1080	-4784	16384	5	-12	27	-9992	5688	12120	12	-2	-23	-16560	1800	-1552	13	-10	20	-2064	-2864	16936	21	9	-4	118	130	5
-10264	-4016	11680	-8	19	-24	-16080	-1816	1312	2	-4	-9	-1008	-4728	16384	3	-14	23	-9816	5752	12320	13	-1	-22	-16448	1864	-1376	4	-6	19	-1944	-2840	16616	22	0	2	117	130	5
-10188	-3964	11820	-14	16	-23	-16224	-1680	1240	7	-4	-6	-1008	-4872	16264	-6	-12	26	-9888	5696	12352	12	-2	-23	-16488	1784	-1432	-1	-4	14	-1992	-2936	16608	25	-3	-1	118	129	5
-10152	-4016	11728	-17	17	-26	-16032	-1576	1208	-3	-4	-11	-1048	-4808	16312	1	-8	22	-9856	5704	12280	15	-1	-22	-16472	1760	-1376	-2	0	19	-2024	-2936	16736	28	-1	-2	121	130	5
-10196	-4092	11744	-18	19	-24	-16176	-1776	1160	-1	-1	-9	-1048	-4720	16176	-4	-14	20	-9984	5776	12080	14	-1	-14	-16568	1760	-1352	-5	0	17	-1976	-2808	16656	25	-4	4	120	130	5
-10208	-4048	11744	-19	13	-25	-16120	-1768	1168	5	-3	-12	-1040	-4672	16392	-10	-15	25	-10080	5864	12392	18	-4	-18	-16520	1696	-1624	3	0	14	-2032	-2744	16472	25	-7	4	120	130	5
-10192	-4024	11652	-19	16	-26	-16000	-1688	1400	3	-2	-10	-1168	-4760	16192	-15	-19	28	-9896	5736	12336	14	-4	-21	-16528	1768	-1352	4	0	18	-2160	-2752	16856	25	-1	4	119	130	5
-10240	-4044	11800	-21	20	-25	-16064	-1680	1224	3	2	-14	-952	-4816	16168	-10	-18	27	-10016	5656	12048	16	-6	-19	-16728	1688	-1432	14	-4	17	-2216	-2816	16736	26	-6	4	119	130	5
-10180	-4020	11768	-18	22	-26	-16000	-1736	1224	2	-1	-13	-1040	-4792	16344	-6	-12	25	-9960	5776	12248	14	-5	-18	-16512	1856	-1640	10	-5	19	-2056	-2800	16896	17	-2	4	116	130	5
-10252	-4024	11752	-20	17	-30	-15960	-1704	1360	-4	1	-13	-984	-4776	16064	3	-13	24	-10080	5752	12240	12	-6	-23	-16568	1840	-1152	10	2	16	-1984	-2888	16632	22	-2	2	119	130	5
-10208	-4060	11800	-14	18	-26	-16128	-1816	1480	-5	-3	-8	-1168	-4840	16280	3	-12	22	-9984	5696	12208	15	-2	-25	-16536	1824	-1608	9	-6	22	-2104	-2784	16672	25	-1	2	118	130	5
-10240	-4120	11740	-16	17	-24	-16192	-1768	1144	-5	-2	-4	-1040	-4800	16136	3	-7	20	-9936	5784	12448	8	-9	-22	-16552	1824	-1608	5	-4	16	-2016	-2760	16848	26	-6	6	122	130	5
-10200	-4084	11712	-11	16	-25	-16080	-1624	1104	4	-7	-6	-1048	-4808	16312	8	-13	20	-9944	5736	12528	10	-6	-20	-16472	1840	-1224	2	-9	12	-2056	-2728	16864	24	4	7	119	130	5
-10192	-4000	11820	-12	16	-21	-16000	-1648	1312	6	-8	-2	-1096	-4760	16224	3	-16	22	-9736	5704	12456	13	-3	-24	-16648	1840	-1576	1	-5	13	-2144	-3008	16720	23	1	12	121	130	5
-10220	-3996	11764	-10	16	-25	-16024	-1576	1368	-6	-5	-3	-1040	-4800	16160	5	-12	20	-10008	5784	12360	11	-5	-22	-16576	1880	-1624	8	-8	16	-2064	-2840	16608	15	-3	8	116	130	5
-10204	-4016	11784	-11	17	-24	-15984	-1704	1248	-12	-8	-6	-1096	-4840	16504	-1	-9	19	-9936	5728	12272	12	-4	-23	-16512	1712	-1456	14	-7	15	-1928	-2976	16832	18	-2	7	118	129	5
-10204	-4076	11740	-15	18	-28	-15984	-1680	1416	-5	-6	-7	-1128	-4816	16160	-5	-8	21	-9920	5640	12248	15	-7	-23	-16696	1720	-1472	11	-1	19	-2008	-2728	16680	22	-1	2	121	130	5
-10184	-4040	11792	-13	15	-25	-16032	-1704	1440	6	-4	-6	-1008	-4616	16168	1	-10	22	-10040	5912	12304	10	-10	-17	-16552	1880	-1296	13	-6	20	-2024	-2896	16712	24	0	1	118	130	5
-10220	-3996	11668	-12	19	-28	-16000	-1680	1232	11	-3	-9	-1040	-4816	16448	2	-13	24	-10088	5800	12192	11	-12	-24	-16456	1768	-1584	5	-4	23	-2096	-2800	16504	24	4	4	121	129	5
-10168	-4016	11752	-15	22	-25	-16008	-1664	1416	3	-5	-8	-816	-4600	16552	7	-16	25	-9864	5640	12384	15	-5	-13	-16496	1888	-1440	0	-3	19	-2248	-2808	16880	23	-4	1	120	130	5
-10176	-3988	11772	-17	23	-26	-16048	-1800	1280	-1	-6	-13	-960	-4704	16256	6	-16	24	-10016	5728	12256	12	-3	-21	-16632	1848	-1320	6	-3	22	-2016	-2936	16608	20	-6	1	118	130	5
-10224	-4096	11740	-16	18	-27	-15984	-1800	1328	-5	-1	-8	-1072	-4752	16400	-4	-13	22	-9912	5648	12432	16	3	-18	-16608	1896	-1088	6	2	18	-1984	-2704	16616	23	-3	3	120	130	5
-10124	-4048	11756	-22	14	-28	-16088	-1648	1352	2	-3	-17	-1144	-4736	16360	-7	-14	26	-9912	5592	12184	16	-1	-21	-16544	1840	-1416	10	-3	21	-2168	-2864	16584	19	0	5	120	130	5
-10208	-4020	11720	-19	19	-30	-16136	-1768	1296	3	1	-6	-1024	-4816	16568	-16	-17	27	-10032	5896	12192	14	0	-21	-16632	1824	-1576	6	-2	19	-2056	-2768	16768	27	-6	2	118	130	5
-10196	-4112	11716	-12	20	-24	-16120	-1768	1296	4	1	-11	-1024	-4808	16200	-9	-15	24	-9920	5752	12176	14	2	-19	-16536	1696	-1224	4	-2	21	-2160	-2880	16688	28	-1	-1	120	130	5
-10248	-4048	11728	-17	21	-28	-16008	-1672	1208	-2	2	-9	-984	-4856	16168	-3	-12	24	-9848	5768	12376	12	-4	-19	-16520	1760	-1528	9	-4	17	-2088	-2776	16560	28	-2	-5	121	129	5
-10240	-3956	11716	-14	18	-29	-16080	-1632	1336	-2	-1	-8	-1048	-4896	16264	0	-17	19	-9888	5728	12240	13	-9	-24	-16560	1712	-1448	9	-3	17	-2032	-2680	16600	25	-3	1	118	129	5
-10164	-4036	11704	-15	20	-26	-15992	-1624	1264	-8	-4	-13	-1160	-4544	16496	0	-9	17	-10056	5672	12392	15	-2	-22	-16528	1864	-1392	11	-1	17	-2128	-2840	16904	19	-3	1	118	129	5
-10200	-4012	11760	-12	18	-23	-15856	-1800	1248	-9	1	-11	-1136	-4904	16344	-10	-9	24	-9960	5608	12464	15	-2	-19	-16456	1864	-1336	12	0	14	-2072	-2784	16584	16	2	6	119	129	5
-10220	-4100	11576	-14	19	-24	-15928	-1720	1288	3	-2	-5	-1208	-4768	16424	-1	-7	21	-9832	5856	12200	13	2	-25	-16496	1808	-1560	6	-4	13	-2144	-2840	16432	19	1	2	121	130	5
-10196	-4028	11696	-12	20	-24	-16160	-1736	1016	15	0	-8	-1192	-4880	16064	-1	-12	19	-9912	5696	12304	10	-7	-26	-16536	1912	-1760	-2	-2	15	-2056	-2688	16704	23	3	6	117	130	5
-10188	-4004	11712	-10	19	-22	-16080	-1608	1352	8	-3	-6	-992	-4912	16272	9	-13	18	-9968	5584	12456	8	-3	-23	-16624	1760	-1224	1	-3	12	-1960	-2720	16680	19	-2	7	121	130	5
-10208	-4000	11872	-13	19	-28	-16048	-1736	1200	-3	-4	-7	-904	-4688	16432	14	-13	20	-9960	5520	12264	11	-8	-24	-16376	1808	-1472	7	-3	15	-2176	-2888	16600	19	-4	4	117	130	5
-10212	-4036	11872	-13	19	-28	-16040	-1608	1176	-4	-3	-11	-944	-4688	16216	8	-13	17	-10080	5728	12552	14	-8	-20	-16560	1864	-1352	15	-10	15	-2016	-2816	16552	12	3	3	117	129	5
-10236	-4024	11720	-16	16	-28	-16080	-1640	1136	-2	-2	-11	-1056	-4640	16424	-7	-12	22	-9848	5776	12112	13	-7	-18	-16608	1696	-1344	22	-4	19	-2104	-2928	16672	15	-3	5	117	129	5
-10212	-3976	11716	-19	20	-27	-16176	-1776	1128	-5	-7	-8	-1032	-4752	16336	-16	-12	29	-10104	5608	12200	14	-4	-20	-16536	1768	-1440	15	-1	24	-2032	-2856	16664	21	0	6	120	130	5
-10204	-4040	11632	-15	20	-24	-16144	-1752	1264	-1	-5	-8	-960	-4792	16472	-20	-11	28	-9968	5656	12384	15	-3	-23	-16560	1816	-1416	3	-6	17	-1992	-2952	16712	30	2	4	121	129	5
-10248	-4068	11780	-10	18	-26	-16088	-1704	1168	8	-4	-12	-984	-4776	16360	-13	-13	20	-10000	5688	12064	14	-3	-28	-16448	1728	-1320	0	-4	17	-2032	-2736	16624	37	1	6	119	130	5
-10192	-4056	11712	-15	23	-28	-16176	-1760	1216	5	-2	-13	-984	-4816	16176	-7	-9	19	-9992	5752	12304	12	-2	-21	-16520	1672	-1448	0	0	17	-2032	-2760	16680	30	3	1	119	130	5
-10156	-4044	11764	-15	19	-27	-16048	-1792	1360	0	0	-12	-1056	-4760	16096	5	-10	18	-9936	5712	12320	12	-4	-24	-16552	1792	-1352	3	-1	18	-2160	-2720	16632	18	-4	4	119	130	5
-10248	-4000	11716	-20	22	-29	-15976	-1776	1296	4	-1	-14	-1040	-4752	16264	0	-15	22	-9888	5632	12208	16	-5	-17	-16448	1688	-1112	5	3	17	-2280	-2944	16720	18	1	2	120	130	5
-10136	-4052	11728	-14	22	-29	-16032	-1848	1416	1	-4	-8	-1144	-4808	16224	-3	-11	28	-10080	5736	12272	14	-5	-19	-16544	1800	-1256	11	-3	19	-2032	-2776	16776	14	-3	2	119	130	5
-10264	-4084	11668	-14	18	-24	-15944	-1760	1504	10	-5	-9	-1128	-4792	16224	-2	-14	29	-9976	5872	12216	14	-5	-22	-16512	1800	-1496	7	-2	19	-2176	-2904	16744	10	-6	5	117	130	5
-10188	-4064	11792	-11	20	-27	-16112	-1616	1320	9	2	-6	-1032	-4904	16432	-2	-14	25	-9888	5672	12064	13	-1	-22	-16504	1872	-1472	4	0	17	-2208	-2888	16864	24	-1	2	120	130	5
-10212	-4032	11784	-16	17	-22	-16120	-1744	1216	1	-2	-5	-1048	-4784	16328	0	-10	17	-10008	5608	12304	9	-10	-19	-16464	1744	-1264	5	-3	16	-2216	-3048	16744	24	-4	6	117	130	5
-10256	-3984	11708	-15	20	-25	-15960	-1520	1200	-8	0	-5	-1080	-4768	16456	-1	-13	17	-9968	5736	12208	15	0	-21	-16536	1840	-1376	12	-1	13	-2016	-2880	16512	22	-6	6	120	130	5
-10184	-4048	11768	-13	15	-25	-16104	-1736	1400	-10	-1	-7	-1008	-4856	16200	-3	-14	25	-9912	5688	12304	14	-6	-19	-16416	1776	-1528	7	-6	16	-2072	-2912	16720	29	1	8	119	130	5
-10184	-4036	11632	-12	19	-22	-16168	-1704	904	-9	-4	-7	-1024	-4600	16368	1	-14	24	-9784	5808	12184	16	-2	-19	-16528	1776	-1376	10	-5	14	-2072	-2920	16736	28	1	11	118	130	5
-10176	-4064	11740	-10	17	-28	-16072	-1728	1336	-1	-2	-7	-992	-4824	16280	0	-12	26	-9872	5712	12032	13	-6	-21	-16448	1728	-1488	11	-6	17	-2136	-2888	16632	24	0	7	120	130	5
-10176	-4040	11684	-13	17	-25	-16024	-1736	1216	4	-7	-6	-1000	-4648	16328	0	-12	25	-10056	5688	11976	16	-6	-21	-16520	1776	-1416	7	-7	17	-2096	-2848	16568	24	4	-6	117	130	5
-10236	-4092	11780	-12	22	-28	-16040	-1688	1504	5	-2	-8	-984	-4768	16328	2	-11	25	-9936	5560	12160	13	-4	-20	-16512	1672	-1384	4	-7	21	-2040	-2816	16384	22	3	-10	121	129	5
-10172	-4068	11684	-14	19	-30	-16088	-1632	1264	3	-5	-6	-1056	-4704	16088	3	-10	17	-9968	5608	12208	13	-8	-19	-16520	1760	-1544	6	-6	24	-2104	-2784	16720	25	2	-8	121	130	5
-10220	-4044	11724	-15	19	-29	-15968	-1752	1264	9	-4	-11	-936	-4504	16048	-1	-5	17	-10016	5736	12464	14	-2	-18	-16536	1832	-1168	11	-4	20	-2104	-2888	16760	20	2	-2	119	130	5
-10156	-4000	11804	-15	22	-29	-16096	-1728	1112	11	-4	-4	-976	-4776	16360	-17	-4	17	-9920	5816	12392	16	-4	-17	-16568	1912	-1432	3	-9	22	-2144	-2864	16760	21	1	-4	117	130	5
-10236	-4092	11816	-14	15	-25	-15944	-1704	1216	13	1	-6	-1168	-4768	16104	-13	-7	24	-9968	5720	12200	13	-7	-22	-16480	1888	-1248	-2	-1	18	-2024	-3032	16848	21	1	-3	119	130	5
-10232	-4020	11764	-14	19	-28	-16064	-1704	1312	13	-5	-9	-1000	-4752	16280	-6	-11	25	-10040	5680	12344	14	-5	-19	-16528	1600	-1784	-2	-1	19	-2000	-2888	16560	28	-2	4	118	130	5
-10224	-4044	11716	-20	20	-23	-16088	-1736	1280	5	0	-6	-1072	-4760	16152	8	-20	24	-10016	5632	12120	12	-11	-20	-16520	1784	-1352	1	2	18	-2160	-2792	16712	24	-4	2	121	130	5
-10156	-4092	11784	-19	18	-27	-16072	-1672	1288	-9	5	-8	-968	-4792	16360	10	-18	23	-9976	5632	12200	13	-3	-20	-16520	1856	-1280	8	-2	24	-2024	-2600	16920	31	-2	8	121	130	5
-10168	-4052	11728	-16	16	-27	-16096	-1848	1184	-13	-1	-10	-968	-4784	16200	11	-16	24	-9880	5608	12392	16	-2	-18	-16456	1896	-1240	13	1	18	-1928	-2784	16608	28	-6	7	120	130	5
-10208	-4104	11664	-16	20	-21	-16184	-1680	1128	-10	-2	-12	-1104	-4728	16352	6	-14	25	-9952	5696	12456	11	-4	-24	-16576	1784	-1456	14	-3	12	-2080	-2896	16880	27	-2	8	120	130	5
-10164	-4048	11720	-15	21	-24	-16128	-1608	1096	3	0	-3	-1032	-4744	16312	-4	-13	25	-9816	5680	12232	8	-5	-25	-16688	1760	-1432	6	-2	13	-2088	-2672	16432	23	-5	5	120	130	5
-10120	-3968	11744	-15	17	-23	-16208	-1800	1088	4	-3	-6	-1032	-4832	16320	-5	-13	25	-10000	5592	12232	8	-5	-22	-16504	1744	-1376	9	-8	17	-2208	-2848	16280	20	-4	7	120	130	5
-10264	-4048	11752	-10	17	-25	-16160	-1752	1024	2	-1	-10	-1000	-4760	16328	-3	-16	22	-9936	5712	12440	9	-7	-22	-16456	1792	-1248	6	-5	13	-2216	-2808	16840	22	-2	6	121	130	5
-10252	-4052	11680	-19	17	-29	-16032	-1792	1368	-5	-1	-9	-1280	-4832	16168	3	-13	21	-9880	5576	12184	14	-2	-21	-16560	1704	-1496	4	-2	15	-2072	-2880	16824	20	0	6	119	130	5
-10208	-4036	11624	-13	16	-24	-15976	-1696	1264	-5	-7	-11	-1192	-4760	16376	2	-10	23	-9856	5816	12224	14	-6	-22	-16568	1824	-1448	8	-8	12	-2104	-2736	16648	21	1	8	120	130	5
-10188	-4048	11668	-16	16	-25	-16136	-1744	1152	3	-10	-10	-1056	-4816	16208	-2	-13	20	-9936	5640	12336	13	-8	-20	-16400	1728	-1336	5	-8	15	-2224	-2672	16768	20	3	9	119	130	5
-10212	-4084	11788	-13	19	-23	-15984	-1624	1408	6	-5	-7	-1072	-4856	16536	-6	-8	21	-9912	5640	12544	15	-5	-23	-16408	1768	-1240	7	-6	16	-2072	-2960	16848	21	3	1	122	130	5
-10188	-4084	11692	-15	19	-30	-16072	-1672	1232	-1	-4	-7	-1048	-4784	16424	-4	-11	21	-10008	5744	12392	12	1	-23	-16504	1600	-1648	13	-8	22	-1968	-2984	16840	20	1	0	121	130	5
-10192	-4012	11716	-13	20	-28	-15984	-1768	1448	-4	-10	-8	-1136	-4816	16312	3	-13	24	-9968	5584	12240	12	-4	-19	-16504	1728	-1280	14	-10	19	-1888	-2864	16736	23	1	-3	120	130	5
-10224	-4052	11756	-17	21	-31	-16072	-1800	1256	-3	-7	-6	-1024	-4856	16192	7	-15	27	-9752	5672	12240	12	1	-20	-16456	1808	-1296	13	-8	20	-1992	-2936	16864	26	2	0	119	130	5
-10152	-4004	11720	-13	17	-24	-16000	-1856	1568	1	-9	-9	-1272	-4816	16320	2	-10	24	-9992	5600	12360	15	-1	-21	-16448	1768	-1160	10	-5	25	-1848	-2824	16648	26	3	-2	122	129	5
-10204	-4084	11688	-10	22	-26	-15944	-1512	1584	5	1	-8	-992	-4912	16336	-6	-16	22	-10000	5728	12280	16	-8	-22	-16456	1624	-1304	6	-4	23	-2080	-2824	16800	30	-2	-5	117	130	5
-10192	-4060	11764	-16	15	-23	-16048	-1744	1232	5	3	-7	-1088	-4784	16632	-3	-12	21	-9976	5624	12280	18	-1	-18	-16544	1832	-1456	3	-3	23	-2040	-2840	16824	31	-1	-4	119	130	5
-10184	-4096	11616	-14	19	-22	-16184	-1760	1432	3	-1	-11	-1016	-4904	16304	-6	-14	15	-9920	5656	12056	17	0	-23	-16520	1680	-1232	4	-5	22	-2008	-2744	16712	20	0	-5	119	130	5
-10200	-4064	11704	-16	19	-23	-16184	-1768	1336	3	5	-3	-1024	-4840	16096	4	-14	16	-9968	5792	12264	17	-2	-17	-16656	1704	-1480	4	-2	24	-2128	-2896	16648	22	-1	-5	119	130	5
-10164	-4004	11688	-8	18	-24	-16120	-1768	1248	2	3	-5	-1064	-4752	16080	6	-13	18	-9904	5736	12400	14	-3	-16	-16560	1792	-1456	9	-4	22	-2072	-2608	16800	23	-3	-1	118	130	5
-10256	-4076	11664	-13	23	-26	-16080	-1616	1160	1	2	-7	-1040	-4848	16352	8	-16	22	-9976	5688	12552	16	-3	-22	-16560	1784	-1448	10	-4	20	-2024	-2864	16736	23	-2	-2	121	130	5
-10180	-4008	11736	-13	24	-24	-16080	-1664	1112	-2	3	-9	-936	-4744	16064	8	-19	20	-9968	5680	12296	13	-5	-20	-16560	1824	-1376	10	-2	15	-2064	-2576	16904	23	-8	1	118	130	5
-10200	-4064	11812	-16	21	-23	-16256	-1728	1312	-3	-2	-9	-1016	-4720	16272	3	-15	19	-9888	5712	12208	14	-5	-18	-16608	1808	-1368	12	-4	20	-2072	-2792	16632	26	-6	7	120	130	5
-10164	-4008	11652	-15	21	-25	-16032	-1608	1456	0	-3	-8	-1000	-4728	16176	4	-13	22	-10096	5712	12208	15	-2	-22	-16504	1800	-1328	13	-2	15	-2024	-2856	16720	27	-1	4	121	130	5
-10136	-4068	11676	-13	22	-23	-16216	-1728	1312	-1	-4	-8	-1064	-4560	16544	1	-13	25	-9976	5704	12344	10	-10	-23	-16616	1840	-1624	7	-5	17	-2024	-2936	16680	26	0	7	121	130	5
-10200	-3964	11744	-15	17	-25	-16136	-1632	1224	0	-2	-6	-1104	-4792	16432	6	-16	27	-9976	5704	12240	9	-13	-22	-16600	1672	-1344	12	-12	15	-2176	-2792	16848	27	-2	7	117	130	5
-10160	-4028	11680	-13	15	-26	-16192	-1680	1392	-4	-3	-11	-1064	-4792	16280	-1	-11	24	-9992	5704	12192	14	-9	-19	-16520	1856	-1512	9	-13	18	-2152	-2824	16824	22	0	5	121	130	5
-10200	-4128	11752	-14	20	-27	-16104	-1704	1208	-1	-7	-12	-1104	-4872	16280	0	-13	24	-9968	5784	12232	13	-1	-20	-16640	1864	-1376	10	-2	15	-2144	-2896	16616	22	0	2	119	130	5
-10288	-4016	11648	-16	16	-26	-16056	-1680	1280	3	-4	-10	-1016	-4832	16096	-2	-13	23	-9880	5680	12312	15	-5	-23	-16504	1744	-1536	7	-4	17	-1984	-2656	16720	19	1	2	120	130	5
-10212	-4032	11740	-16	20	-28	-15984	-1696	1208	-1	-4	-13	-1120	-4808	16392	-7	-10	19	-9984	5672	12288	14	-4	-23	-16712	1912	-1344	10	0	22	-2128	-2704	16840	20	-3	1	118	130	5
-10260	-4180	11712	-13	17	-28	-16008	-1696	1392	4	-2	-10	-992	-4744	16200	-3	-13	19	-10056	5696	12248	16	-5	-19	-16472	1776	-1456	8	-1	14	-1976	-2816	16552	18	0	0	123	130	5
-10240	-4076	11800	-12	18	-27	-15960	-1736	1464	3	-4	-6	-936	-4880	16344	-5	-13	27	-10176	5648	12360	13	-5	-20	-16456	1760	-1336	2	-3	22	-2008	-2944	16832	28	-1	2	120	130	5
-10220	-3992	11688	-14	15	-23	-16176	-1784	1240	8	-6	-5	-944	-4768	16368	-1	-15	25	-10024	5672	12368	13	-7	-22	-16640	1752	-1368	2	0	15	-1984	-2824	16760	24	0	4	121	130	5
-10112	-4024	11748	-14	19	-23	-16048	-1656	1472	3	-6	-9	-1016	-4872	16088	4	-19	26	-9736	5672	12240	16	-9	-18	-16360	1792	-1224	9	-7	15	-2024	-2792	16792	25	-2	6	119	130	5
-10160	-4056	11724	-14	19	-27	-16072	-1688	1288	2	-4	-8	-1016	-4816	16344	-1	-19	24	-9880	5832	12440	13	-2	-23	-16512	1696	-1304	10	-6	17	-1968	-2800	16712	20	-5	3	120	130	5
-10156	-4088	11608	-17	19	-21	-16024	-1680	1320	-12	-3	-10	-968	-4664	16496	0	-16	28	-9992	5672	12336	12	-1	-24	-16608	1648	-1528	14	-5	18	-2104	-2784	16648	18	-6	7	120	130	5
-10176	-4112	11744	-16	18	-25	-16160	-1720	1296	-13	-6	-14	-1048	-4776	16192	-2	-15	23	-9920	5760	12440	11	-1	-21	-16624	1696	-1560	18	-5	20	-1944	-2872	16848	26	-3	5	118	130	5
-10224	-4088	11668	-11	19	-24	-16032	-1912	1432	9	-2	-5	-1128	-4696	16368	-2	-15	18	-9840	5864	12248	16	-8	-21	-16552	1640	-1512	7	-2	19	-2032	-2808	16768	28	-6	3	117	130	5
-10232	-4048	11776	-9	18	-23	-16088	-1648	1400	12	2	-6	-1144	-4736	16392	-2	-16	18	-10024	5648	12232	18	-7	-21	-16704	1808	-1496	4	-4	16	-2160	-2920	16840	29	-3	3	123	130	5
-10184	-4024	11764	-7	15	-20	-16088	-1592	1176	4	-3	-10	-984	-4824	16432	6	-15	16	-9984	5584	12264	16	-7	-20	-16568	1776	-1344	2	-4	19	-2232	-2840	16816	24	-5	1	122	130	5
-10180	-3992	11672	-12	20	-27	-16032	-1616	1208	-9	0	-11	-1080	-4760	16144	10	-9	16	-10080	5720	12264	15	-4	-21	-16560	1784	-1328	10	-10	21	-2040	-2872	16712	23	3	-2	120	130	5
-10184	-4056	11752	-14	18	-24	-16112	-1656	1376	-9	-1	-9	-1064	-4832	16320	8	-11	15	-10016	5720	12344	16	-6	-19	-16544	1760	-1168	14	-4	19	-2016	-2808	16544	20	9	-8	120	129	5
-10252	-4032	11760	-10	16	-24	-16048	-1592	1288	1	-1	-7	-1024	-4760	16200	-2	-12	22	-9784	5840	12304	12	1	-18	-16440	1800	-1520	6	-5	18	-2064	-2840	16728	20	2	1	119	130	5
-10212	-3992	11788	-12	18	-20	-16136	-1752	1408	-1	0	-10	-1048	-4744	16096	-7	-12	24	-9920	5816	12544	16	2	-17	-16560	1968	-1480	3	-3	23	-2008	-2904	16776	24	-1	-4	118	130	5
-10212	-4104	11740	-16	18	-31	-16040	-1704	1264	10	1	-5	-1056	-4816	16216	-12	-10	23	-9952	5712	12408	15	-3	-17	-16544	1792	-1464	0	-2	24	-2008	-2888	16664	28	-1	-5	119	130	5
-10176	-4000	11752	-16	19	-25	-16072	-1656	1184	9	1	-5	-928	-4776	16144	-10	-8	16	-10000	5744	12584	14	0	-18	-16696	1984	-1424	0	-1	19	-2032	-2816	16688	31	0	-8	119	130	5
-10212	-4112	11628	-14	18	-28	-16056	-1736	1200	7	-1	-10	-1256	-4632	16336	-2	-15	16	-9944	5696	12224	15	-4	-24	-16472	1776	-1536	4	-1	18	-2120	-2728	16568	25	2	-7	122	130	5
-10212	-4096	11712	-13	16	-27	-16168	-1672	1224	-1	-4	-4	-1088	-4832	16384	3	-16	20	-10024	5808	12320	16	-2	-18	-16528	1840	-1488	6	-2	16	-2032	-2752	16552	23	-3	2	123	130	5
-10168	-4000	11760	-15	17	-23	-16168	-1608	1160	-4	0	-12	-992	-4696	16392	5	-18	26	-9872	5768	12392	15	-3	-20	-16528	1768	-1456	2	-8	17	-2168	-2848	16424	23	-7	7	119	130	5
-10224	-4000	11748	-17	18	-26	-16168	-1728	1280	-5	-2	-11	-952	-4736	16424	-2	-18	29	-9944	5752	12112	10	-10	-19	-16488	1768	-1448	6	-5	17	-2056	-2760	16960	26	-2	7	121	130	5
-10200	-4080	11672	-16	20	-30	-16256	-1728	1216	-3	-3	-13	-912	-4824	16280	-4	-19	30	-10048	5760	12120	12	-5	-21	-16584	1760	-1528	10	-7	17	-2072	-2880	16784	23	-5	6	119	130	5
-10228	-4072	11676	-16	17	-27	-15952	-1816	1144	1	-5	-6	-984	-4888	16160	-1	-17	24	-10176	5784	12344	15	-7	-20	-16544	1720	-1392	14	-6	17	-2016	-2848	16664	19	-4	6	121	130	5
-10232	-4060	11712	-15	20	-27	-16128	-1704	1160	-3	-6	-7	-1072	-4736	16320	0	-17	27	-9864	5760	12208	16	-2	-23	-16536	1704	-1448	16	-4	16	-2008	-2816	16592	18	-8	3	117	130	5
-10176	-4116	11688	-10	17	-26	-16160	-1664	1352	-3	-9	-9	-1136	-4856	16592	5	-11	22	-9944	5736	12176	17	-3	-20	-16504	1856	-1424	9	-9	15	-2160	-2864	16760	21	-3	5	119	130	5
-10216	-4048	11696	-10	19	-24	-16000	-1656	1368	1	-1	-10	-1008	-4768	16232	-2	-14	22	-9896	5616	12312	8	-4	-21	-16568	1952	-1160	3	-3	17	-2208	-2888	16496	24	-6	6	120	130	5
-10216	-4048	11824	-11	17	-27	-16024	-1720	1208	4	-1	-7	-1024	-4736	16320	-6	-11	20	-9992	5776	12336	10	-10	-22	-16504	1784	-1400	-3	-3	15	-2080	-2904	16648	20	-3	8	116	130	5
-10208	-4080	11768	-9	22	-28	-16088	-1600	1280	0	-3	-11	-904	-4624	16232	-12	-17	20	-10032	5672	12160	11	-1	-22	-16544	1824	-1440	3	-8	16	-2064	-2848	16784	15	2	8	119	130	5
-10164	-4000	11728	-19	18	-26	-16088	-1632	1184	-2	-1	-10	-992	-4888	16576	-4	-17	23	-9888	5640	12448	9	-1	-19	-16528	1768	-1368	6	-5	14	-2136	-2824	16760	20	-2	5	121	130	5
-10184	-4044	11772	-17	23	-28	-15912	-1688	1240	-8	-6	-9	-984	-4808	16192	-4	-12	26	-9920	5616	12128	10	-1	-22	-16440	1656	-1336	17	-5	20	-2064	-2880	16680	14	-3	3	118	130	5
-10212	-4064	11732	-14	20	-25	-15992	-1744	1016	-3	-8	-8	-1040	-4848	16248	4	-14	28	-9896	5600	12072	12	-3	-20	-16576	1864	-1264	17	-1	20	-1904	-2984	16776	22	-1	0	121	130	5
-10252	-4064	11720	-11	17	-25	-16176	-1896	1136	4	2	-6	-1016	-4800	16168	6	-12	27	-10008	5640	12360	16	-3	-20	-16456	1696	-1264	12	-4	22	-2120	-2808	16624	29	-6	0	119	129	5
-10224	-3996	11740	-12	20	-24	-16128	-1768	1216	12	-2	-5	-1096	-4656	16144	9	-12	25	-9936	5672	12408	13	-5	-18	-16584	1800	-1464	5	-5	22	-1984	-2792	16392	36	-5	4	119	130	5
-10168	-4024	11724	-10	16	-21	-16064	-1648	1368	9	-2	-4	-1048	-4752	16208	-3	-12	19	-10016	5688	12408	16	0	-19	-16520	1760	-1232	2	3	21	-2176	-2784	16768	34	-1	-1	118	130	5
-10184	-4056	11716	-14	18	-20	-16088	-1760	1360	2	-1	-2	-920	-4704	16432	1	-13	11	-10080	5728	12512	17	-4	-19	-16552	1824	-1520	0	-2	18	-2152	-2816	16712	32	-1	-1	121	130	5
-10184	-4004	11704	-10	17	-26	-16000	-1808	1312	0	0	-8	-944	-4784	16288	-1	-8	15	-9896	5848	12224	16	-6	-19	-16512	1776	-1208	2	2	23	-2032	-2952	16768	25	-6	3	122	130	5
-10240	-4072	11800	-15	20	-25	-16072	-1592	1008	4	1	-3	-1144	-4792	16480	1	-12	19	-9864	5704	12304	13	-4	-20	-16496	1744	-1432	2	1	17	-2016	-2736	16840	21	-2	-2	123	130	5
-10224	-4028	11700	-15	17	-22	-16088	-1760	1104	-1	-2	-5	-1080	-4640	16376	4	-14	23	-9896	5592	12176	12	-1	-22	-16536	1632	-1376	6	-5	21	-2072	-2776	16592	21	-1	1	121	130	5
-10156	-4004	11744	-10	12	-27	-16072	-1704	1160	-1	-3	-10	-1104	-4600	16440	3	-16	24	-9896	5696	12288	14	-8	-20	-16536	1592	-1608	11	-6	19	-2192	-2856	16648	25	-2	1	117	130	5
-10172	-4080	11748	-11	16	-23	-15984	-1760	1320	-2	-1	-5	-1208	-4656	16200	-1	-13	21	-9920	5800	12208	14	-7	-24	-16528	1760	-1528	14	-4	22	-2120	-2816	16792	25	-6	-1	117	130	5
-10180	-3984	11732	-13	17	-22	-16080	-1688	1136	0	-3	-8	-1040	-4888	16368	3	-11	15	-9960	5776	12048	12	-7	-24	-16472	1784	-1456	8	-6	21	-2096	-2904	16672	28	0	1	117	130	5
-10192	-4052	11740	-8	18	-25	-16040	-1752	1384	6	-2	-8	-952	-4728	16304	-1	-14	18	-9848	5624	12144	14	-3	-20	-16640	1768	-1536	12	-7	22	-2168	-2872	16656	30	2	1	117	130	5
-10260	-4032	11768	-15	21	-29	-16080	-1632	1432	6	-4	-12	-1072	-4704	16376	-4	-16	21	-9920	5600	12048	13	-2	-19	-16672	1688	-1392	13	-2	18	-2104	-2760	16880	25	0	4	119	130	5
-10228	-3988	11804	-15	19	-26	-15952	-1656	1208	0	-5	-5	-1088	-4592	16256	-2	-12	20	-9952	5832	12528	17	-4	-21	-16648	1688	-1376	10	-2	16	-2008	-2760	16680	25	-1	2	119	130	5
-10220	-4084	11636	-13	17	-25	-16032	-1872	1472	0	-6	-6	-1032	-4768	16200	-2	-18	24	-9872	5728	12312	13	-7	-19	-16480	1960	-1224	6	-3	21	-2200	-2744	16616	22	-3	4	119	130	5
-10248	-4048	11716	-14	19	-24	-15992	-1576	1232	-3	0	-7	-952	-4688	16240	-4	-16	25	-9872	5784	12216	10	-6	-20	-16552	1888	-1296	4	-6	17	-1952	-2856	16704	19	-2	6	123	130	5
-10248	-4028	11776	-13	20	-26	-15976	-1680	1088	-8	-5	-13	-1000	-4808	16288	-5	-16	29	-9784	5760	12024	12	-10	-22	-16584	1752	-1440	5	-7	20	-2056	-2864	16736	24	-4	3	121	130	5
-10128	-4068	11668	-14	19	-23	-16200	-1696	1376	-4	0	-15	-992	-4784	16224	-2	-14	27	-9968	5632	12168	8	-3	-22	-16384	1856	-1336	7	0	13	-1856	-2960	16760	24	-1	6	117	130	5
-10188	-3992	11744	-7	21	-24	-16072	-1800	1168	4	-4	-7	-1144	-4760	16480	2	-11	25	-9968	5720	12248	11	2	-18	-16592	1728	-1560	12	-2	13	-2080	-2848	16704	27	1	0	119	130	5
-10180	-4052	11728	-13	18	-29	-16160	-1928	1288	1	-2	-9	-1056	-4824	16232	4	-11	23	-9848	5752	12272	16	-2	-20	-16520	1856	-1528	11	-4	16	-2024	-2808	16592	24	-3	3	118	130	5
-10184	-4088	11748	-14	16	-24	-16088	-1656	1184	5	-5	-6	-1080	-4760	16168	6	-11	27	-9984	5832	12288	15	-3	-24	-16544	1784	-1496	5	-2	16	-2080	-2776	16560	24	0	0	117	130	5
-10192	-4064	11684	-16	18	-25	-16096	-1744	1368	-1	-1	-8	-880	-4680	16304	3	-14	25	-9880	5760	12368	10	2	-22	-16528	1704	-1288	3	-1	19	-2040	-2912	16672	23	-2	1	115	130	5
-10196	-4036	11724	-12	20	-25	-16088	-1680	1280	-2	-2	-7	-1024	-4776	16376	-2	-15	23	-9888	5488	12248	10	3	-20	-16544	1744	-1264	7	-5	15	-1968	-2864	16432	27	-3	5	118	130	5
-10152	-4032	11688	-11	19	-24	-16112	-1792	1328	4	-2	-6	-1064	-4688	16216	-2	-13	21	-10008	5736	12440	17	-7	-19	-16752	1888	-1544	9	-4	17	-2176	-2872	16600	24	-3	3	119	130	5
-10220	-3984	11720	-15	21	-24	-16104	-1640	1048	2	-6	-6	-1144	-4824	16096	0	-10	21	-9864	5600	12320	17	-3	-18	-16528	1776	-1384	11	-3	18	-2024	-2912	16880	28	-4	3	118	130	5
-10252	-4072	11804	-10	17	-27	-16184	-1672	1144	-4	-2	-3	-1096	-4920	16256	0	-12	21	-9952	5760	12440	16	1	-23	-16600	1792	-1368	11	-6	18	-1896	-2736	16352	25	-2	3	118	130	5
-10224	-4036	11664	-10	19	-23	-16168	-1688	1464	6	-4	-3	-1048	-4744	16120	7	-8	18	-9832	5832	12144	13	-5	-18	-16504	1896	-1464	6	-1	16	-2104	-2784	16616	33	-8	4	116	130	5
-10188	-4000	11636	-11	16	-18	-16056	-1704	1392	13	0	-4	-1088	-4824	16288	9	-16	22	-9912	5688	12424	8	-6	-25	-16408	1896	-1368	2	-5	15	-2192	-2824	16672	26	-5	0	121	130	5
-10216	-4028	11856	-12	17	-26	-16088	-1608	1088	1	-1	-1	-928	-4792	16344	16	-17	19	-9888	5528	12352	13	-8	-23	-16656	1792	-1336	5	-3	16	-2024	-2704	16648	19	-2	5	117	130	5
-10204	-4028	11656	-7	14	-25	-16088	-1592	1336	-2	0	-6	-960	-4688	16328	11	-15	27	-9880	5752	12264	18	-1	-20	-16568	1744	-1416	10	-10	15	-2104	-2688	16688	14	0	6	118	130	5
-10112	-4080	11680	-16	17	-25	-16112	-1680	1408	-6	-1	-8	-1072	-4584	16248	3	-14	29	-9912	5640	12264	12	-2	-21	-16480	1704	-1552	19	-7	19	-1904	-2824	16728	20	-2	7	119	130	5
-10176	-4020	11756	-11	18	-23	-16000	-1808	1048	-4	0	-5	-960	-4720	16416	-7	-7	21	-9896	5608	12296	21	-2	-23	-16504	1712	-1352	22	-6	22	-2000	-2936	16840	16	1	-5	122	130	5
-10196	-4008	11816	-14	18	-27	-16072	-1784	1560	5	-1	-5	-952	-4720	16264	-10	-7	19	-9824	5696	12160	17	-3	-22	-16472	1952	-1344	17	-6	21	-1928	-2904	16912	24	1	-7	119	130	5
-10140	-4068	11588	-15	19	-24	-16136	-1616	1448	12	1	-6	-1016	-4800	16248	-13	-10	17	-9904	5704	12096	15	-6	-18	-16472	1944	-1400	1	0	20	-2120	-2856	16568	28	0	-4	121	130	5
-10164	-4020	11716	-17	18	-28	-16056	-1680	1168	10	0	-6	-1040	-4760	16168	-8	-7	18	-9984	5832	12392	16	-1	-17	-16472	1872	-1568	-8	-1	21	-2160	-2824	16744	35	0	-7	119	130	5
-10264	-4020	11668	-19	20	-24	-16072	-1768	1176	1	-2	-11	-1056	-4728	16264	0	-10	20	-9848	5776	12288	17	-2	-20	-16544	1824	-1624	-2	-3	20	-2112	-2696	16664	33	4	-5	118	130	5
-10164	-4160	11656	-19	17	-26	-16096	-1688	1256	-1	3	-11	-1096	-4688	16592	4	-11	28	-9888	5728	12408	18	-1	-19	-16536	1824	-1352	-2	0	22	-2104	-2640	16744	25	5	-2	119	130	5
-10232	-3972	11736	-17	19	-28	-16112	-1688	1176	1	-2	-16	-1040	-4704	16232	0	-15	28	-10000	5552	12240	15	-3	-21	-16696	1808	-1520	-1	-5	20	-1944	-2840	16584	19	2	4	121	130	5
-10208	-3980	11728	-20	14	-24	-16080	-1648	1544	4	-3	-11	-1136	-4752	16216	-4	-20	30	-9864	5576	12208	19	-4	-18	-16536	1896	-1208	5	-2	24	-2000	-2744	16960	20	-1	-1	118	130	5
-10200	-4060	11724	-15	17	-26	-16032	-1856	1184	-3	-4	-14	-1152	-4736	16088	-12	-18	22	-9952	5728	12248	15	-11	-19	-16496	1800	-1360	5	-3	20	-2016	-2920	16736	25	1	-1	120	130	5
-10188	-4120	11712	-15	17	-25	-15960	-1744	1064	6	-5	-8	-992	-4808	16224	6	-12	19	-9968	5728	12184	16	1	-18	-16424	1672	-1616	18	-4	22	-1912	-2792	16688	27	-8	-2	119	130	5
-10248	-4060	11856	-13	19	-25	-16024	-1720	1432	1	-5	-10	-1016	-4848	16312	6	-13	19	-9920	5848	12264	13	-7	-18	-16592	1904	-1184	17	-6	16	-2152	-2816	16800	30	-4	-1	119	130	5
-10192	-3988	11676	-14	17	-27	-16304	-1624	1144	-5	-5	-10	-1008	-4848	16176	7	-9	23	-9808	5648	12200	13	-3	-17	-16536	1840	-1336	13	-5	17	-2096	-2776	16768	26	-5	6	122	130	5
-10164	-4068	11696	-18	19	-29	-16072	-1808	1296	-13	-8	-9	-1040	-4744	16392	8	-16	25	-9992	5752	12232	8	-9	-26	-16624	1920	-1616	9	-3	16	-2080	-2744	16832	26	-5	6	119	130	5
-10188	-4068	11692	-18	19	-27	-16000	-1768	1376	-6	-3	-14	-1056	-4760	16200	-6	-14	32	-9840	5760	12240	8	-6	-17	-16680	1672	-1272	7	-5	18	-2152	-2616	17016	20	-5	4	122	130	5
-10180	-4020	11676	-14	21	-26	-16120	-1576	1248	4	-2	-9	-1136	-4536	16448	-8	-15	26	-10008	5792	12312	16	-3	-17	-16576	1776	-1448	7	-6	17	-2136	-2952	16920	19	-1	9	122	130	5
-10212	-4004	11688	-15	15	-24	-16128	-1768	1368	-1	-5	-11	-1144	-4784	16312	-10	-13	27	-9952	5792	12248	18	-9	-19	-16424	1848	-1448	13	-7	16	-2088	-2856	16584	13	-2	9	116	130	5
-10192	-4100	11744	-14	18	-25	-16064	-1648	1088	2	-8	-5	-1040	-4896	16280	-6	-5	20	-10080	5656	12312	15	-7	-22	-16464	1704	-1328	6	-7	17	-1888	-2824	16656	22	-3	6	121	130	5
-10184	-4072	11740	-15	12	-26	-16136	-1896	1256	8	-5	-7	-968	-4968	16200	7	-8	20	-10104	5656	12056	9	-1	-23	-16440	1768	-1512	0	-2	22	-1992	-2824	16688	24	-1	1	121	130	5
-10160	-4080	11708	-8	12	-29	-16208	-1624	1160	14	-1	-9	-968	-4768	16088	18	-7	17	-9968	5792	12304	10	-6	-23	-16480	1712	-1248	2	-2	19	-2152	-2920	16800	21	2	0	121	130	5
-10168	-4056	11700	-14	16	-24	-16280	-1680	1232	8	1	-6	-1016	-4704	16328	16	-9	22	-9920	5688	12240	15	-6	-21	-16480	1888	-1256	6	-3	17	-2216	-2632	16488	25	-1	3	118	130	5
-10152	-4088	11844	-12	16	-28	-16136	-1648	1328	-1	0	-7	-992	-4736	16424	8	-11	25	-9960	5616	12416	8	-8	-20	-16528	1712	-1296	9	-6	18	-2056	-2816	16800	18	1	3	118	130	5
-10200	-3984	11816	-15	19	-26	-15968	-1768	1400	-11	-7	-9	-1000	-4720	16392	-1	-10	30	-9920	5624	12120	14	-1	-20	-16528	1784	-1384	14	-1	14	-1944	-2872	16728	15	-2	9	115	130	5
-10212	-4088	11784	-12	17	-23	-16080	-1736	1416	-2	-3	-5	-1040	-4768	16256	-3	-9	26	-9912	5592	12312	9	-2	-19	-16528	1672	-1336	11	0	19	-1984	-2904	16552	19	-5	9	120	130	5
-10212	-4036	11700	-12	17	-20	-15968	-1664	1264	5	5	-2	-1152	-4656	16136	-4	-12	20	-9968	5600	12304	12	-5	-24	-16656	1904	-1368	4	0	19	-1864	-2872	16648	32	1	8	123	130	5
-10228	-3972	11728	-13	18	-21	-16112	-1624	1288	3	0	-7	-1104	-4704	16424	6	-8	18	-9896	5880	12152	9	-4	-23	-16584	1776	-1496	6	-1	17	-2024	-2848	16544	38	-5	6	120	130	5
-10180	-4032	11812	-8	19	-24	-16144	-1576	1232	3	2	-5	-1008	-4776	16344	9	-12	19	-9952	5864	12224	16	-6	-23	-16464	1728	-1624	6	-2	22	-2080	-2696	16656	35	-1	0	121	130	5
-10224	-4016	11584	-14	18	-22	-16048	-1816	1144	-4	1	-13	-984	-4752	16216	15	-15	25	-9888	5648	12288	10	-3	-22	-16456	1816	-1224	7	2	20	-2056	-2800	16672	31	-3	-3	124	130	5
-10204	-4004	11756	-7	14	-25	-15992	-1680	1048	4	-1	-7	-1056	-4672	16216	15	-13	26	-9888	5776	12040	16	0	-24	-16464	1856	-1296	12	0	22	-1896	-2528	16632	19	-5	1	119	130	5
-10220	-3972	11736	-11	18	-26	-16104	-1568	1440	3	-2	-10	-1064	-4584	16456	3	-13	27	-9936	5768	12424	18	-5	-20	-16608	1792	-1320	7	-7	22	-2072	-2896	16768	17	-2	-2	131	130	5
-10192	-4084	11732	-13	18	-21	-16088	-1696	1112	4	1	-7	-960	-4560	16472	-7	-16	28	-10000	5504	12264	11	1	-20	-16392	1672	-1384	5	-5	19	-1976	-2760	16800	20	-2	0	129	130	5
-10240	-3984	11760	-15	19	-27	-16144	-1632	1160	1	-3	-13	-1008	-4760	16384	-14	-14	27	-9968	5720	12408	17	1	-23	-16488	1952	-1568	5	-8	21	-2080	-2896	16528	22	0	1	125	130	5
-10124	-4004	11716	-21	21	-27	-16040	-1664	1328	-2	-3	-15	-1096	-4752	16176	-9	-10	21	-9872	5736	12304	11	-2	-18	-16528	1768	-1368	9	-4	22	-2064	-2632	16856	27	-1	-2	118	130	5
-10216	-4048	11780	-15	20	-29	-16064	-1728	1296	-6	-6	-11	-992	-4760	16168	-12	-11	25	-9936	5704	12224	18	-2	-24	-16504	1832	-1432	7	-5	19	-2096	-2856	16688	28	1	1	115	130	5
-10224	-4064	11696	-19	18	-27	-16120	-1552	1152	-4	-6	-15	-1160	-4792	16016	-9	-14	24	-10048	5864	12352	11	-3	-20	-16504	1800	-1344	9	-3	15	-2024	-2752	16720	26	3	4	124	129	5
-10224	-4016	11712	-18	20	-23	-15992	-1648	1232	-3	-10	-9	-1024	-4736	16496	-10	-12	30	-9880	5736	12368	15	-7	-22	-16448	1808	-1432	10	-1	18	-2024	-2888	16560	25	3	5	128	130	5
-10212	-4016	11656	-16	21	-30	-16080	-1592	1224	1	-5	-10	-976	-4832	16240	-3	-15	28	-9880	5784	12208	9	-6	-26	-16568	1768	-1536	9	-10	18	-2064	-2744	16584	24	-5	5	125	130	5
-10168	-4048	11708	-13	18	-22	-16128	-1760	1376	-3	-6	-9	-1000	-4696	16288	-6	-13	27	-9912	5840	12128	11	-9	-22	-16656	1832	-1304	7	-8	17	-2112	-2864	16584	19	-1	4	125	130	5
-10180	-4060	11784	-14	15	-25	-16216	-1752	1216	-1	-6	-10	-1032	-4792	16384	3	-14	26	-9960	5744	12224	11	-4	-24	-16544	1728	-1448	8	-3	14	-2032	-2784	16776	16	-5	7	123	130	5
-10200	-4056	11736	-16	19	-27	-16048	-1720	1160	5	0	-14	-1088	-4744	16112	4	-18	25	-9864	5680	12144	8	0	-23	-16456	1864	-1424	4	0	12	-2096	-2760	16864	19	6	5	122	130	5
-10172	-4068	11716	-13	20	-22	-16144	-1616	1352	2	-3	-12	-872	-4856	16328	3	-15	21	-10032	5480	12544	11	-2	-22	-16544	1680	-1336	9	-4	14	-1976	-2912	16664	18	-4	5	122	130	5
-10212	-3984	11712	-14	16	-28	-16096	-1824	1168	1	-3	-5	-816	-4592	16264	4	-17	23	-10008	5672	12200	12	-7	-24	-16512	1784	-1448	9	-6	20	-2168	-2912	16552	21	3	0	119	130	5
-10140	-4040	11708	-14	21	-24	-16136	-1744	1304	-1	1	-8	-1120	-4792	16376	-1	-18	19	-9824	5736	12184	17	-4	-19	-16536	1872	-1472	9	-2	18	-2136	-2784	16904	18	0	-1	122	130	5
-10272	-4056	11752	-11	20	-23	-16008	-1752	1144	-2	-1	-7	-992	-4728	16424	-2	-12	17	-9968	5760	12368	11	2	-21	-16464	1824	-1304	9	1	18	-2008	-2840	16760	18	3	0	122	130	5
-10200	-4056	11760	-14	19	-24	-16040	-1776	1016	5	2	-6	-1184	-4904	16480	-1	-10	18	-9984	5776	12120	13	-8	-21	-16528	1792	-1232	4	-4	20	-2112	-2872	16728	17	-1	-1	122	130	5
-10212	-4036	11732	-12	14	-25	-16096	-1664	1288	-1	-6	-10	-1000	-4656	16120	1	-13	23	-9856	5672	12288	13	1	-20	-16448	1880	-1344	4	-2	14	-2024	-2736	16720	27	-3	5	120	130	5
-10176	-3952	11688	-11	18	-28	-16008	-1832	1160	1	1	-10	-1056	-4664	16232	0	-17	25	-9976	5768	12248	16	-1	-21	-16496	1912	-1456	1	-1	19	-2224	-2856	16672	30	2	7	123	130	5
-10188	-4040	11720	-14	20	-26	-16160	-1736	1328	-5	-5	-10	-976	-4664	16424	2	-13	28	-9864	5680	12424	15	-5	-18	-16456	1808	-1416	3	-2	18	-1992	-2688	16880	26	0	6	123	130	5
-10224	-4056	11756	-16	17	-26	-16080	-1688	1320	1	-4	-11	-928	-4768	16200	1	-14	26	-9976	5736	11936	14	0	-17	-16512	1600	-1440	6	-1	18	-1888	-2792	16664	25	-2	5	123	130	5
-10224	-4044	11692	-13	17	-27	-16040	-1776	1224	1	-7	-7	-1016	-4776	16120	-1	-14	27	-9952	5512	12072	17	-4	-20	-16552	1728	-1480	8	-8	18	-2224	-2800	16712	24	-2	1	122	130	5
-10248	-4096	11800	-13	14	-24	-16128	-1912	1216	1	-3	-10	-1136	-4768	15936	-2	-12	25	-9912	5488	12336	12	-3	-23	-16456	1696	-1256	8	-2	20	-1896	-2728	16616	21	-1	0	123	130	5
-10232	-4052	11680	-13	17	-27	-15984	-1696	1376	9	-5	-11	-1096	-4696	16400	-3	-11	23	-9952	5688	12424	13	-3	-18	-16584	1848	-1424	8	1	20	-2104	-2880	16600	19	-5	5	119	130	5
-10260	-3988	11716	-13	19	-25	-16040	-1616	1264	6	1	-11	-1120	-4696	16400	1	-17	20	-9768	5576	12368	16	-1	-22	-16544	1944	-1400	5	-6	18	-2144	-2888	16680	16	1	-1	120	130	5
-10228	-4120	11708	-13	18	-25	-16184	-1664	1176	-1	-4	-11	-1032	-4888	16256	-5	-11	20	-10016	5840	12104	15	-6	-21	-16616	1744	-1232	6	-6	20	-2072	-2952	16600	23	0	0	121	130	5
-10172	-4112	11844	-17	21	-25	-16088	-1648	1376	-7	-2	-8	-1016	-4848	16416	5	-9	19	-9992	5712	12352	16	-9	-21	-16528	1744	-1560	8	-6	18	-2120	-2904	16776	29	6	-2	118	130	5
-10224	-4076	11688	-10	19	-26	-16000	-1776	1200	-2	-1	-13	-1120	-4584	16448	2	-11	18	-9816	5704	12176	11	-1	-17	-16472	1808	-1288	9	-5	22	-2072	-2856	16968	30	3	-2	119	130	5
-10264	-3988	11648	-7	17	-27	-16096	-1704	1216	5	-1	-4	-968	-4752	16128	3	-16	21	-9912	5616	12216	13	-9	-16	-16696	1696	-1536	5	-8	20	-2008	-2888	17016	19	4	-3	119	130	5
-10228	-3988	11732	-9	23	-24	-16136	-1648	1368	4	0	-7	-1032	-4584	16472	-4	-14	19	-9832	5736	12128	12	2	-20	-16416	1792	-1352	1	-2	12	-2176	-2880	16864	24	2	-5	116	130	5
-10176	-4020	11804	-14	17	-25	-16056	-1728	1280	3	1	-8	-1080	-4760	16256	-3	-11	18	-9944	5656	12448	15	1	-19	-16528	1768	-1520	0	-5	17	-2112	-2920	16720	25	-4	-1	120	130	5
-10200	-4060	11672	-14	16	-30	-16096	-1656	1416	1	0	-1	-1048	-4696	16264	-5	-13	22	-9840	5608	12128	12	-4	-21	-16568	1776	-1232	0	-1	19	-2016	-2912	16832	23	-5	-2	116	130	5
-10212	-4048	11776	-18	16	-24	-16096	-1672	1232	3	-5	-5	-1136	-4800	16280	-4	-13	22	-9840	5768	12320	13	-6	-17	-16512	1752	-1624	0	-3	19	-2104	-2800	16496	29	0	0	118	130	5
-10160	-4080	11836	-18	19	-29	-16080	-1808	1144	9	-7	-5	-1104	-4632	16272	-4	-16	25	-9896	5896	12104	15	-5	-20	-16640	1776	-1288	2	-6	12	-2192	-2816	16544	24	-6	1	119	130	5
-10212	-4028	11688	-19	18	-27	-15952	-1624	1128	2	-3	-13	-1056	-4496	16352	-3	-22	24	-10072	5784	12416	10	-5	-21	-16576	1872	-1336	4	-3	13	-2088	-2624	16648	20	-5	6	118	130	5
-10180	-4036	11704	-17	15	-28	-16040	-1648	1464	-3	-5	-11	-1064	-4688	16192	-8	-16	28	-9832	5800	12576	9	-3	-21	-16520	1744	-1096	5	-7	15	-2104	-2712	16776	20	-2	6	121	130	5
-10248	-4136	11732	-20	14	-33	-16040	-1744	1384	-9	-5	-15	-856	-4632	16216	-8	-19	20	-10000	5608	12112	10	-5	-19	-16552	1776	-1400	12	-9	14	-2056	-2632	16664	15	0	7	120	130	5
-10236	-4092	11764	-19	18	-27	-16088	-1808	1112	-1	-9	-11	-1176	-4768	16104	-9	-14	21	-9936	5800	12360	7	2	-25	-16480	1936	-1424	16	-5	17	-2112	-2728	16680	12	-2	6	123	130	5
-10124	-4028	11828	-16	14	-28	-16056	-1744	1312	4	-8	-15	-1128	-4832	16056	-10	-19	26	-9904	5776	12264	8	-9	-27	-16440	1752	-1360	10	-11	11	-2112	-2840	16536	14	-7	3	123	130	5
-10156	-4040	11704	-17	17	-26	-16064	-1736	1408	-2	-9	-15	-960	-4864	16328	-8	-21	27	-9952	5784	12104	7	-5	-26	-16592	1920	-1232	9	-11	11	-2160	-2864	16608	13	-3	6	120	130	5
-10248	-4024	11736	-22	17	-26	-16024	-1544	1304	-1	-4	-9	-1128	-4856	16488	-8	-13	24	-9912	5808	12200	5	-7	-28	-16544	1664	-1568	6	-7	12	-2080	-2760	16568	17	-4	6	121	130	5
-10256	-4076	11744	-13	16	-26	-15944	-1632	1280	3	-7	-16	-1120	-4896	16536	-3	-11	17	-10088	5704	12368	9	-2	-23	-16672	1760	-1352	8	-2	7	-2080	-2944	16816	11	2	8	119	130	5
-10156	-4084	11776	-16	23	-28	-16064	-1800	1536	-2	-8	-12	-1056	-4864	16192	-5	-12	21	-9936	5728	12424	9	0	-24	-16552	1720	-1376	9	-10	12	-1904	-2808	16536	11	3	13	117	130	5
-10208	-4072	11820	-15	21	-25	-16000	-1720	1256	-4	-4	-9	-1032	-4952	16416	-5	-11	26	-10104	5672	12216	11	-3	-23	-16488	1592	-1448	7	-5	15	-1960	-2912	16680	13	3	10	117	130	5
-10168	-4088	11780	-17	19	-24	-16176	-1720	1256	4	-2	-8	-864	-4760	16368	0	-14	27	-10008	5696	12240	8	-8	-21	-16528	1784	-1200	12	-4	12	-2016	-2816	16800	23	0	6	120	130	5
-10220	-4000	11736	-15	18	-27	-15936	-1704	1264	1	-3	-10	-1096	-4904	16304	5	-12	29	-9912	5696	12144	13	-8	-20	-16616	1648	-1456	10	-4	20	-1872	-2976	16712	26	-2	5	119	130	5
-10184	-4048	11720	-9	22	-27	-15992	-1632	1392	1	2	-10	-1032	-4856	16312	7	-7	26	-9760	5584	12448	12	-4	-19	-16536	1752	-1304	7	-1	18	-2152	-3048	16688	22	5	4	119	130	5
-10172	-4056	11668	-14	16	-25	-16032	-1648	1288	2	1	-5	-1056	-4736	16376	10	-14	26	-10008	5832	12056	13	-6	-24	-16520	1848	-1456	7	-5	20	-1952	-2752	16680	32	3	4	122	130	5
-10248	-4076	11696	-15	18	-20	-16176	-1848	1232	-3	-3	-5	-944	-4792	16264	8	-9	23	-9944	5656	12248	14	-1	-17	-16440	1840	-1336	7	-2	19	-1992	-2904	16632	31	-1	0	119	130	5
-10196	-4112	11700	-12	17	-25	-16112	-1648	1112	0	1	-7	-1016	-4832	16136	-1	-10	21	-9904	5736	12416	15	-5	-17	-16648	1816	-1568	6	-1	25	-2200	-2944	16712	30	-2	4	121	130	5
-10152	-4100	11720	-11	19	-28	-16024	-1792	1240	8	-1	-6	-1128	-4720	16144	-7	-13	18	-9848	5680	12080	18	-4	-19	-16632	1784	-1256	6	-3	23	-2128	-2864	16648	31	-1	3	118	130	5
-10216	-3996	11728	-14	18	-21	-16080	-1640	1256	8	0	-7	-1248	-4800	16328	-12	-14	16	-9968	5720	12216	19	-6	-17	-16504	1728	-1224	3	1	24	-2000	-2864	16728	30	-1	-1	118	130	5
-10164	-4076	11820	-15	16	-29	-16144	-1600	1432	0	1	-9	-1080	-4856	16152	-3	-17	21	-9960	5704	12248	18	-5	-17	-16640	1656	-1704	4	-8	21	-2168	-2752	16648	25	-2	-4	118	130	5
-10196	-4080	11740	-10	16	-27	-15984	-1768	1056	-6	-6	-8	-1072	-4904	16200	7	-14	22	-9816	5888	12528	15	-3	-18	-16464	1664	-1448	10	-1	19	-2128	-2808	16704	22	-2	-5	118	130	5
-10212	-4024	11832	-16	21	-26	-16088	-1496	1624	-7	-3	-12	-1088	-4776	16528	11	-19	22	-9920	5792	12304	20	0	-21	-16568	1768	-1288	13	-5	19	-2192	-2640	16720	16	-1	-1	115	130	5
-10180	-4028	11764	-12	16	-27	-16112	-1808	1264	-2	1	-15	-1056	-4680	16264	4	-11	24	-9960	5624	12224	19	-6	-21	-16424	1832	-1224	11	-4	19	-2040	-2856	16592	21	-6	1	117	130	5
-10256	-3988	11752	-12	16	-24	-16040	-1824	1320	5	-4	-11	-1128	-4760	16248	-5	-12	22	-9912	5784	12184	17	-6	-22	-16520	1872	-1584	11	-14	17	-2024	-2728	16680	19	4	5	117	130	5
-10188	-4124	11772	-13	21	-28	-16144	-1808	1256	5	-3	-9	-1056	-4720	16176	-11	-15	22	-9904	5784	12144	9	-2	-25	-16544	1872	-1344	7	-4	20	-2224	-2848	16480	22	-2	1	118	130	5
-10188	-4096	11668	-10	16	-26	-16072	-1728	1504	8	2	-9	-1008	-4728	16400	-11	-12	17	-9824	5776	12208	12	-5	-21	-16464	1872	-1248	3	-7	16	-2064	-2784	16736	24	1	8	128	130	5
-10216	-3996	11776	-17	20	-29	-16096	-1600	1088	6	-2	-9	-1016	-4800	16288	-6	-12	19	-9896	5624	12224	4	-6	-20	-16520	1856	-1576	4	-6	14	-2160	-2672	16816	22	3	8	124	130	5
-10152	-4064	11748	-15	18	-24	-16072	-1640	1440	-4	-5	-11	-1080	-4792	16536	-1	-11	21	-9976	5768	12248	12	-5	-22	-16608	1704	-1400	7	-7	9	-2088	-2760	16840	14	0	4	118	130	5
-10140	-4056	11748	-16	18	-25	-16040	-1728	1416	-9	-3	-12	-1080	-4848	16376	-5	-12	26	-9944	5744	12304	16	-9	-23	-16464	1840	-1112	14	-5	11	-2032	-2736	16832	13	-1	6	118	130	5
-10232	-4072	11768	-16	16	-24	-15928	-1768	1432	0	-4	-10	-1104	-4760	16352	-2	-10	30	-9992	5632	12192	11	-6	-21	-16704	1880	-1376	6	-4	14	-1896	-2784	16896	12	2	7	116	130	5
-10196	-4088	11652	-20	17	-24	-15984	-1680	1008	2	-5	-10	-1088	-4736	16160	-4	-10	30	-10048	5640	12376	10	-7	-22	-16552	1968	-1488	10	-8	13	-2032	-2952	16760	12	4	5	119	130	5
-10116	-4040	11728	-15	14	-26	-16040	-1688	1432	3	-3	-13	-1104	-4744	16472	-6	-15	22	-9904	5800	12280	8	-10	-20	-16376	1856	-1160	5	-2	14	-2112	-2928	16664	20	-2	4	119	130	5
-10212	-4044	11680	-18	19	-25	-16096	-1800	1384	0	-4	-11	-1064	-4696	16016	1	-14	22	-9896	5672	12264	12	-9	-24	-16424	1616	-1208	8	-3	17	-2056	-2984	16960	25	-2	4	119	130	5
-10132	-3980	11772	-13	18	-22	-16160	-1640	1400	-1	-4	-12	-904	-4744	16224	0	-14	20	-9952	5640	12296	7	1	-22	-16592	1712	-1376	8	-3	17	-2008	-2952	16440	24	0	2	116	130	5
-10232	-4060	11692	-13	18	-26	-16176	-1760	1352	3	-2	-7	-976	-4832	16352	1	-13	24	-9760	5760	12112	14	-4	-23	-16648	1728	-1288	9	-1	19	-2128	-2864	16616	26	-4	3	115	130	5
-10204	-4036	11816	-15	17	-24	-16040	-1728	1200	4	-4	-10	-1240	-4744	16280	-1	-15	21	-10016	5712	12320	16	-2	-21	-16488	1712	-1256	8	2	15	-2168	-2840	16472	23	-5	6	120	130	5
-10252	-4088	11776	-15	18	-23	-16104	-1704	1288	-3	0	-10	-1016	-4704	16280	-7	-14	24	-9840	5720	12344	15	-1	-21	-16512	1584	-1384	3	1	17	-2000	-2856	16904	19	-3	-1	117	130	5
-10220	-4100	11752	-18	19	-25	-16184	-1832	1352	0	-1	-7	-992	-4904	16064	-6	-22	27	-10008	5544	12128	12	-1	-22	-16416	1792	-1576	4	-4	19	-2120	-2744	16936	24	-2	-2	122	130	5
-10172	-4008	11764	-12	21	-26	-16104	-1680	1336	-5	-5	-14	-1128	-4848	16352	-8	-12	24	-10008	5632	12280	12	-8	-22	-16520	1752	-1400	7	-4	21	-2072	-2904	16760	26	-3	3	120	130	5
-10188	-4044	11760	-22	21	-29	-16032	-1768	1088	-5	0	-11	-1096	-4760	16200	-4	-16	15	-10032	5728	12048	12	0	-21	-16592	1944	-1424	6	-4	16	-2096	-2800	17000	24	2	4	116	130	5
-10180	-4044	11744	-14	19	-24	-16056	-1648	1256	3	-2	-7	-1056	-4848	16280	-5	-15	18	-9984	5736	12384	14	0	-19	-16536	1816	-1432	5	0	13	-2144	-2776	16600	22	-3	5	121	130	5
-10204	-4072	11724	-13	19	-21	-16072	-1808	1304	5	0	-7	-984	-4984	16248	4	-14	20	-10008	5648	12368	10	-3	-25	-16576	1792	-1512	5	-1	16	-2168	-2792	16544	20	-3	2	119	130	5
-10216	-4032	11636	-12	16	-26	-15992	-1600	1488	7	-2	-5	-1096	-4728	16248	6	-13	25	-9952	5688	12184	9	0	-23	-16520	1720	-1264	6	-6	12	-2160	-2872	16672	24	5	6	119	130	5
-10152	-4076	11664	-12	18	-23	-16232	-1720	1224	4	-2	-9	-1080	-4640	16504	9	-11	25	-9992	5880	12224	13	-12	-19	-16560	1696	-1472	15	-9	22	-2096	-2896	17008	21	5	7	120	130	5
-10244	-4068	11692	-14	17	-21	-15936	-1664	1296	3	-4	-5	-992	-4840	16784	13	-9	24	-9920	5744	12232	13	-6	-19	-16584	1672	-1720	15	-7	21	-2040	-2840	16656	19	12	1	117	130	5
-10248	-4068	11876	-10	19	-25	-16096	-1688	1352	-7	-4	-4	-984	-4976	16176	12	-10	25	-9936	5776	12320	17	-8	-17	-16552	1752	-1240	14	-7	18	-1968	-2800	16856	17	3	0	122	130	5
-10220	-4080	11700	-6	17	-20	-16080	-1632	1080	-1	3	-6	-1136	-4640	16376	5	-10	19	-9808	5816	12272	18	-4	-19	-16512	1760	-1176	10	-8	17	-2096	-2888	16656	24	4	-4	117	130	5
-10152	-4080	11780	-9	19	-22	-16136	-1560	1376	6	0	-8	-1024	-4528	16328	1	-5	18	-9856	5584	12216	11	-2	-18	-16576	1784	-1352	1	-3	20	-1960	-2912	16760	25	1	-1	124	130	5
-10160	-4016	11696	-11	21	-25	-15984	-1664	1384	6	-1	1	-896	-4728	16200	-14	-8	12	-9952	5792	12368	17	-7	-20	-16480	1696	-1520	-4	1	18	-2032	-2768	16832	29	2	-1	121	130	5
-10240	-4068	11772	-18	20	-23	-16104	-1752	1200	-5	1	-10	-1136	-4864	16512	-11	-9	17	-9920	5704	12320	15	-1	-20	-16648	1912	-1304	-1	2	17	-1992	-2784	16712	26	-1	-3	121	130	5
-10168	-4028	11736	-16	18	-26	-15928	-1760	1400	-8	0	-7	-1232	-4776	16176	-11	-11	17	-9776	5688	12152	18	-2	-19	-16520	1704	-1392	-5	2	15	-2136	-2880	16760	26	-6	1	117	130	5
-10180	-4108	11688	-17	14	-25	-16072	-1720	1376	5	-4	-11	-1144	-4856	16312	-7	-20	22	-10056	5888	12104	17	-5	-20	-16456	1864	-1224	2	-2	16	-2080	-2824	16552	23	-7	5	117	130	5
-10248	-4044	11644	-21	18	-30	-16024	-1776	1152	8	3	-10	-992	-4984	16248	0	-21	27	-9960	5632	12456	15	0	-20	-16400	1672	-1472	3	0	17	-2208	-2720	16920	23	-2	6	115	130	5
-10224	-4024	11744	-14	15	-27	-16104	-1568	1240	8	1	-8	-1024	-4720	16336	8	-21	26	-10032	5728	12024	12	-3	-22	-16632	1680	-1376	4	-3	14	-2016	-2896	16744	26	-5	4	119	130	5
-10176	-4004	11756	-16	9	-24	-16176	-1600	1352	8	0	-9	-1096	-4880	16288	11	-17	25	-10008	5536	12336	15	-7	-14	-16456	1680	-1440	14	1	8	-2056	-2696	16864	25	-5	6	116	130	5
-10236	-4020	11632	-17	16	-29	-16136	-1736	1240	-3	-5	-11	-1032	-4848	16120	10	-13	27	-9920	5640	12264	13	-5	-25	-16440	1704	-1472	20	2	13	-2080	-2912	16776	14	-5	2	118	130	5
-10172	-4020	11836	-18	18	-30	-16032	-1792	1376	-3	-7	-11	-1024	-4664	16528	8	-12	31	-9840	5752	12312	10	-3	-20	-16424	1760	-1368	16	-7	11	-1968	-2760	16904	15	-3	5	122	130	5
-10240	-4024	11712	-20	18	-26	-16024	-1784	1328	-6	0	-12	-1032	-4648	16168	-10	-14	28	-10024	5776	12400	13	-5	-25	-16552	1816	-1736	9	-4	13	-2160	-2888	16568	22	2	8	119	130	5
-10176	-4052	11760	-13	18	-24	-16032	-1768	1264	1	-7	-11	-1064	-4672	16160	-15	-11	21	-9832	5800	12264	7	-3	-24	-16384	1696	-1392	4	-4	13	-2088	-2928	16536	27	-2	8	117	130	5
-10204	-4044	11756	-10	20	-25	-16040	-1688	1152	-6	-6	-6	-1088	-4920	16328	-15	-12	12	-9768	5624	12192	11	-7	-22	-16472	1840	-1624	3	-9	12	-2000	-2904	16656	26	-1	13	119	130	5
-10196	-3980	11764	-15	20	-25	-16088	-1648	1256	-11	-9	-7	-1184	-4880	16240	-8	-6	20	-10008	5592	12432	9	-7	-20	-16520	1712	-1328	7	-8	16	-2120	-3016	16824	16	1	7	120	130	5
-10192	-4040	11804	-17	20	-29	-16080	-1832	1112	-4	-7	-4	-968	-4928	16224	5	-3	21	-10112	5776	12120	12	-2	-20	-16728	1920	-1536	12	-9	15	-2016	-2984	16728	13	5	6	122	130	5
-10204	-4020	11708	-12	22	-25	-16160	-2000	1200	7	-5	-6	-976	-4936	16216	9	-9	27	-9864	5832	12304	14	-6	-22	-16536	1680	-1496	10	-9	25	-1976	-3040	16616	20	6	5	120	130	5
-10192	-4056	11748	-12	13	-26	-16000	-1920	1328	13	-8	-5	-1024	-4888	16168	11	-13	31	-9920	5760	12240	11	-7	-22	-16680	1704	-1480	14	-11	19	-2032	-2912	16496	22	2	7	120	130	5
-10196	-4048	11812	-10	18	-23	-16096	-1648	1416	13	-4	-2	-944	-4792	16200	11	-16	30	-9952	5696	12272	15	4	-21	-16504	1680	-1440	11	-3	21	-2152	-2904	16616	28	-3	0	118	130	5
-10256	-4048	11648	-10	17	-26	-16080	-1744	1376	5	-2	-2	-896	-4848	16064	12	-11	24	-9952	5680	12296	18	-3	-20	-16640	1800	-1400	8	-4	21	-2128	-2816	16768	32	-1	-1	122	130	5
-10188	-4072	11744	-13	17	-22	-16120	-1752	1384	-1	-5	-6	-1056	-4776	16080	7	-18	16	-9848	5744	12344	18	-5	-18	-16536	1728	-1176	6	-9	26	-2016	-2976	16592	32	-4	-2	122	130	5
-10200	-4044	11664	-14	17	-22	-16072	-1744	1448	0	-1	-6	-1016	-4616	16048	5	-15	15	-9880	5656	12176	18	-1	-17	-16480	1728	-1544	6	-7	27	-2080	-2792	16856	36	-4	-3	119	130	5
-10164	-4040	11776	-8	20	-25	-16264	-1608	1064	1	3	-7	-1128	-4736	16152	0	-13	14	-9920	5736	12416	23	-6	-18	-16456	1864	-1432	1	-1	23	-1968	-2656	16688	37	-4	-1	120	130	5
-10156	-4020	11636	-14	18	-27	-16120	-1672	1536	-4	5	-3	-976	-4752	16328	3	-21	16	-9960	5672	12496	18	-2	-18	-16560	1728	-1400	2	0	23	-2112	-2728	16600	37	-5	-8	119	130	5
-10196	-4008	11744	-13	19	-23	-16144	-1632	1352	-3	1	-5	-1016	-4816	16464	-3	-19	17	-9856	5816	12192	21	-2	-22	-16544	1864	-1336	10	-1	23	-1968	-2680	16688	29	-6	-10	118	130	5
-10204	-4060	11780	-14	18	-25	-16088	-1800	1152	-6	2	-9	-1128	-4800	16320	-2	-17	18	-10000	5704	12296	16	-1	-22	-16656	1872	-1360	11	-2	23	-2032	-2720	16800	18	-4	-6	116	130	5
-10312	-4028	11736	-14	19	-25	-15992	-1848	1360	2	3	-7	-1160	-4848	16240	4	-11	21	-10016	5728	12448	14	-2	-18	-16616	1824	-1400	11	-2	25	-2200	-2736	16760	18	-6	-1	117	130	5
-10160	-4120	11620	-8	20	-23	-16104	-1704	1416	10	-1	-6	-1264	-4776	16368	-3	-17	23	-9920	5576	12336	12	3	-18	-16504	1920	-1704	9	-6	17	-2096	-2744	16672	20	-3	5	113	130	5
-10252	-4048	11820	-12	16	-21	-15960	-1536	1232	12	-1	-8	-1192	-4760	16336	-4	-18	25	-9896	5760	12088	12	-6	-20	-16688	1920	-1344	3	-7	17	-2264	-2808	16744	27	-2	7	116	130	5
-10204	-4040	11856	-9	18	-28	-16032	-1640	1056	9	-5	-11	-952	-4568	16344	-1	-15	23	-10024	5672	12536	9	-2	-24	-16640	1784	-1352	2	-7	15	-2088	-2800	16736	26	1	8	117	130	5
-10180	-3892	11808	-15	20	-28	-16056	-1696	1152	1	-7	-13	-992	-4696	16264	-3	-17	20	-9976	5856	12208	14	-3	-25	-16536	1880	-1472	7	-7	15	-2104	-2824	16760	21	-6	4	108	130	5
-10140	-4072	11724	-16	18	-30	-16136	-1752	1280	-8	-6	-12	-1208	-4784	16304	1	-13	26	-9936	5688	12344	13	-5	-21	-16592	1664	-1368	12	-6	15	-2056	-2856	16768	14	0	3	110	130	5
-10104	-4084	11760	-19	16	-27	-16048	-1536	1224	-10	-8	-14	-1104	-4760	16384	-1	-14	25	-10024	5808	12344	12	-1	-23	-16520	1768	-1472	12	-7	17	-1960	-2712	16616	11	2	7	111	130	5
-10160	-4016	11748	-14	19	-25	-16104	-1864	1264	-4	-9	-10	-1032	-4776	16144	-12	-11	28	-9976	5776	12432	10	-9	-21	-16464	1680	-1472	14	-9	17	-2032	-2872	16904	16	1	5	117	130	5
-10244	-3988	11724	-15	17	-28	-16120	-1704	1232	0	-6	-10	-928	-4768	16464	-12	-13	22	-9976	5728	12344	12	-8	-20	-16536	1792	-1280	8	-3	14	-2104	-2984	16560	19	0	5	113	130	5
-10224	-4068	11784	-11	19	-24	-16144	-1872	1440	2	-5	-6	-888	-4960	16280	-11	-8	21	-9936	5752	12048	9	-12	-21	-16504	1824	-1432	5	0	15	-1960	-2848	16784	21	3	3	114	130	5
-10172	-4084	11664	-16	18	-24	-16040	-1592	1616	8	-2	-10	-1040	-4904	16472	-2	-12	16	-9960	5640	12392	15	-4	-22	-16576	1760	-1136	9	2	12	-1960	-2808	16336	20	-2	3	114	130	5
-10216	-4052	11780	-16	16	-26	-16032	-1752	1624	7	1	-9	-992	-4808	16344	3	-13	22	-10032	5584	12416	8	-2	-21	-16616	1912	-1400	6	2	16	-2080	-2896	16552	26	-1	3	114	130	5
-10144	-4016	11812	-17	19	-28	-16088	-1616	1248	7	-2	-4	-1008	-4848	16488	1	-12	27	-9888	5616	12248	11	-2	-26	-16624	1808	-1152	4	2	15	-2168	-2816	16656	25	-11	6	116	130	5
-10232	-4020	11664	-15	19	-29	-16040	-1784	1448	2	1	-8	-1056	-4824	16304	-1	-17	29	-9952	5680	12216	11	-1	-23	-16504	1800	-1400	4	1	16	-2096	-3016	16608	22	-6	7	118	130	5
-10216	-4040	11732	-14	20	-22	-16208	-1744	1072	-4	0	-9	-1096	-4840	16208	2	-18	26	-9912	5648	12440	17	-7	-20	-16496	1800	-1552	6	-2	18	-2192	-2896	16656	21	-5	3	119	130	5
-10216	-4064	11808	-13	21	-25	-15960	-1744	1408	-3	-1	-6	-984	-4784	16232	1	-15	26	-9984	5736	12248	15	-3	-24	-16512	1696	-1480	10	3	16	-2016	-2920	16784	22	-6	3	123	130	5
-10224	-4092	11712	-12	17	-25	-16048	-1768	1384	0	-2	-7	-1192	-4784	16272	4	-16	25	-9808	5752	12160	15	3	-23	-16480	1688	-1264	6	-7	19	-2000	-2888	16768	22	-5	4	121	130	5
-10168	-4036	11684	-10	17	-25	-16064	-1696	1448	3	-1	-10	-1008	-4752	16464	-2	-13	22	-9896	5784	11960	14	-2	-22	-16592	1816	-1416	9	-4	19	-2200	-2872	16568	29	-5	-1	118	130	5
-10208	-4032	11692	-13	17	-23	-16024	-1536	1152	-3	-3	-8	-1056	-4704	16264	4	-12	19	-9976	5752	12120	12	-7	-20	-16584	1896	-1432	11	-5	26	-2136	-2936	16904	30	-4	-3	120	130	5
