#Activity	standing 
#ActivityID	8 
#Date 10-06-18-17
acc_rf_x	acc_rf_y	acc_rf_z	gyro_rf_x	gyro_rf_y	gyro_rf_z	acc_rs_x	acc_rs_y	acc_rs_z	gyro_rs_x	gyro_rs_y	gyro_rs_z	acc_rt_x	acc_rt_y	acc_rt_z	gyro_rt_x	gyro_rt_y	gyro_rt_z	acc_lf_x	acc_lf_y	acc_lf_z	gyro_lf_x	gyro_lf_y	gyro_lf_z	acc_ls_x	acc_ls_y	acc_ls_z	gyro_ls_x	gyro_ls_y	gyro_ls_z	acc_lt_x	acc_lt_y	acc_lt_z	gyro_lt_x	gyro_lt_y	gyro_lt_z	EMG_r	EMG_l	act
-10184	-4028	11728	-424	-8	-330	-15408	5424	-576	-340	-140	111	-16308	836	460	-178	-222	116	-11176	2352	12288	314	-115	-92	-15964	-4388	-1488	-485	-161	256	-15672	-2236	-2044	177	-129	289	120	126	8
-9976	-4164	11532	-439	32	-410	-15432	5512	-368	-130	-76	108	-16476	836	992	-356	-313	120	-10864	2460	12288	205	-26	-47	-16108	-4196	-1224	75	-12	316	-15948	-2124	-1912	218	-241	269	125	129	8
-9752	-4608	11448	-184	123	-251	-15560	5312	-140	12	23	5	-16384	972	884	-360	-2	151	-11048	2424	12248	66	-29	-158	-16104	-3884	-920	111	57	298	-16176	-2076	-1644	-92	-147	264	133	120	8
-9904	-4476	11620	37	217	-78	-15472	5376	-480	60	72	33	-16400	528	640	-288	6	165	-10932	2584	12188	-29	3	-273	-16088	-4092	-884	148	199	276	-16164	-2212	-1900	-157	-9	217	125	127	8
-9964	-4396	11664	117	285	-26	-15624	5424	-504	-290	52	6	-16400	364	104	-11	167	47	-11080	2432	12292	-178	36	-333	-16200	-3924	-1252	539	156	300	-15932	-2284	-2448	97	-26	285	124	122	8
-10220	-4080	11676	-107	105	-177	-15332	5528	-624	-283	56	41	-16216	272	284	297	-24	147	-11276	1848	12384	228	-105	-147	-16024	-3968	-1664	24	-44	156	-15776	-1964	-2368	325	12	247	126	127	8
-10100	-4348	11580	-31	166	-161	-15528	5404	-516	86	-60	-57	-16308	464	468	329	57	124	-11208	2192	12224	314	-105	-76	-16064	-4088	-1196	-105	-153	232	-15952	-2224	-1948	30	-274	321	127	131	8
-9940	-4408	11600	11	182	-118	-15472	5348	-308	307	-78	-38	-16424	772	604	366	207	136	-10968	2548	12276	183	-109	-75	-15980	-4144	-780	-80	-87	263	-16160	-2524	-1580	-220	-341	265	127	130	8
-9908	-4344	11632	34	196	-134	-15532	5548	-468	237	-84	-14	-16368	856	480	174	102	104	-11004	2420	12368	29	-3	-183	-16004	-4016	-972	-38	65	348	-16012	-2436	-1728	155	-224	172	122	128	8
-9956	-4356	11632	18	192	-103	-15460	5460	-448	-90	-15	-36	-16464	884	568	187	100	49	-11076	2460	12320	36	43	-199	-16156	-3968	-1264	295	90	320	-16024	-1956	-2424	447	-171	160	121	130	8
-10164	-4036	11764	-166	115	-184	-15420	5324	-476	-205	-66	18	-16492	600	548	253	2	143	-11212	2120	12380	215	-81	-143	-16160	-3980	-1632	162	-25	254	-15940	-1740	-2544	186	101	345	126	129	8
-10008	-4336	11608	-185	99	-169	-15492	5432	-424	-96	-86	42	-16224	652	488	330	38	160	-11288	2016	12212	460	-129	-44	-15992	-3920	-1452	-147	-257	186	-15876	-1652	-2432	166	92	378	126	125	8
-9960	-4300	11668	-216	88	-212	-15436	5524	-464	92	-51	37	-16280	728	704	184	-66	72	-10992	2476	12304	454	-96	69	-16072	-4156	-880	-236	-142	199	-16200	-2560	-1392	-328	-482	257	132	121	8
-9940	-4348	11500	-52	130	-181	-15476	5268	-328	199	-18	-2	-16548	776	632	139	-10	80	-10876	2776	12192	184	-117	-74	-16024	-4012	-704	-166	36	250	-16100	-2716	-1708	-197	-299	142	128	127	8
-10024	-4372	11564	-16	153	-118	-15444	5504	-460	112	-2	28	-16324	772	360	122	145	24	-11028	2400	12312	-56	52	-234	-16144	-4016	-1204	30	150	228	-15940	-2096	-2192	388	-14	186	133	129	8
-10060	-4236	11696	-80	160	-120	-15484	5492	-560	-115	13	8	-16436	744	124	201	154	129	-11140	2220	12292	106	-14	-181	-16204	-3900	-1444	204	111	267	-15808	-1724	-2256	158	92	310	123	128	8
-10104	-4124	11560	-43	127	-116	-15488	5472	-600	-85	-41	39	-16316	684	396	-84	160	133	-11176	2324	12308	195	-29	-94	-16112	-3900	-1292	67	-18	202	-15932	-1904	-1884	57	-19	353	124	123	8
-9980	-4308	11448	-56	162	-165	-15332	5448	-384	-42	-21	-4	-16316	616	640	162	139	139	-11008	2484	12372	116	-62	-120	-16076	-4032	-904	-75	-6	255	-16208	-2492	-1836	-262	-252	278	120	123	8
-10072	-4260	11624	13	203	-160	-15468	5352	-296	136	-2	-23	-16572	840	696	15	56	125	-11052	2416	12468	60	-54	-220	-16036	-4112	-996	-179	130	329	-15956	-2676	-1744	52	-203	200	127	127	8
-9908	-4364	11548	5	201	-65	-15404	5416	-304	110	11	-37	-16472	864	504	129	193	-37	-11016	2448	12368	-43	29	-272	-16144	-4064	-1280	175	94	288	-15912	-1976	-2228	612	-55	176	129	126	8
-10100	-4264	11700	42	193	-85	-15456	5532	-480	-12	87	-9	-16432	856	516	93	216	51	-11188	2208	12320	49	-1	-211	-16116	-3904	-1560	316	67	229	-15980	-1632	-2416	212	51	328	127	129	8
-10048	-4196	11780	51	224	-62	-15420	5500	-496	-108	8	-38	-16324	536	268	49	236	18	-11268	2148	12352	267	-112	-95	-16112	-3880	-1432	136	-82	184	-15972	-1876	-1980	-76	-101	433	133	133	8
-10024	-4220	11768	-44	184	-131	-15484	5380	-324	-104	2	-34	-16700	720	468	436	323	160	-10944	2560	12264	217	-58	-111	-15996	-4156	-876	32	-21	237	-16040	-2488	-1636	-138	-252	258	124	126	8
-10016	-4224	11728	-45	180	-149	-15432	5452	-352	35	-28	-16	-16424	884	160	329	143	167	-11076	2336	12340	22	-14	-130	-16076	-4112	-1080	34	123	303	-15928	-2512	-1644	304	-25	161	123	130	8
-10020	-4060	11692	-91	126	-179	-15448	5520	-552	-58	-30	-32	-16264	872	196	122	144	63	-11144	2340	12368	36	60	-198	-16240	-3804	-1408	89	136	297	-15896	-1756	-2184	517	100	205	125	121	8
-9944	-4260	11612	-45	162	-146	-15400	5448	-336	-179	33	-35	-16448	712	676	211	304	38	-11180	2368	12240	240	-47	-143	-16084	-3868	-1276	-98	-29	189	-15948	-1684	-2008	-17	22	335	128	128	8
-9928	-4240	11640	-63	170	-140	-15384	5436	-604	-59	0	-55	-16272	716	512	84	410	26	-11060	2336	12244	223	-114	-137	-16100	-3952	-1196	-30	14	180	-15976	-2152	-1732	-436	-58	308	125	126	8
-10004	-4352	11588	-69	185	-134	-15452	5360	-356	-137	81	-37	-16532	668	600	74	279	78	-10972	2352	12228	103	-45	-190	-16068	-4136	-796	226	178	290	-16084	-2668	-1724	-159	-1	225	125	125	8
-9968	-4372	11676	-23	184	-156	-15552	5328	-484	-49	65	-59	-16488	860	364	235	239	78	-11220	2380	12304	37	-27	-188	-16172	-3932	-1324	35	130	278	-15932	-2412	-2252	465	264	210	126	126	8
-10076	-4224	11776	-43	168	-86	-15376	5664	-612	35	34	-87	-16228	708	112	-72	311	143	-11140	2216	12268	139	-70	-118	-16004	-4144	-1400	-51	77	219	-15836	-1808	-2264	321	83	311	126	127	8
-10144	-4168	11584	-65	174	-120	-15436	5496	-632	-246	53	-109	-16084	588	204	-441	452	107	-11320	2292	12192	179	-74	-163	-16132	-3720	-1368	29	60	200	-15940	-1900	-1848	14	13	384	126	128	8
-9948	-4348	11560	-30	170	-178	-15452	5376	-508	-119	22	-140	-16372	724	640	-259	341	-55	-10984	2504	12260	156	-126	-146	-16128	-4012	-916	40	147	220	-16164	-2396	-1552	-298	-40	350	133	122	8
-9956	-4252	11572	104	210	-101	-15424	5392	-332	84	30	-102	-16364	888	328	-51	533	60	-11024	2468	12292	-17	-80	-233	-15988	-4120	-980	204	281	297	-16020	-2652	-1864	108	152	301	128	126	8
-10012	-4164	11604	176	222	-55	-15404	5520	-480	-30	131	-116	-16184	916	240	-573	533	86	-11240	2224	12452	15	-4	-314	-16136	-3920	-1492	308	327	322	-15932	-2144	-1996	556	416	328	127	126	8
-9968	-4184	11676	279	292	7	-15380	5528	-740	-148	192	-135	-16012	584	124	-1056	661	25	-11084	2360	12276	116	-74	-181	-16104	-3816	-1324	329	289	241	-15948	-1836	-2072	436	326	406	127	127	8
-9964	-4232	11480	463	301	92	-15532	5556	-660	-355	338	-202	-15844	748	96	-1508	919	-12	-11092	2240	12136	141	-109	-209	-16028	-3888	-1276	265	310	218	-16080	-2136	-1960	83	233	424	131	125	8
-10004	-4268	11480	521	307	184	-15488	5288	-560	-510	421	-256	-16224	1036	116	-1932	1209	-42	-10992	2332	12292	-25	-60	-268	-16016	-4176	-976	411	419	298	-15984	-2600	-1840	232	327	394	124	125	8
-9972	-4248	11608	694	270	337	-15524	5292	-544	-487	519	-270	-16248	736	76	-2054	1256	-200	-11168	2388	12344	-54	-32	-271	-16056	-3916	-1288	526	480	388	-15956	-2520	-2008	745	575	412	127	141	8
-10044	-3988	11752	544	231	277	-15388	5732	-848	-475	520	-220	-16056	592	-528	-1758	1877	-277	-11248	2204	12364	13	-25	-304	-16056	-3812	-1588	293	382	329	-15860	-1804	-2120	865	571	525	128	128	8
-10232	-3944	11788	273	235	99	-15416	5832	-736	-939	558	-132	-16316	904	-612	-1525	1981	-406	-11052	2504	12340	206	-79	-194	-16140	-4024	-1232	453	451	310	-16008	-1824	-2108	514	468	537	129	124	8
-10200	-3856	11740	86	320	-57	-15508	5436	-660	-1187	594	-178	-16604	660	-500	-1753	1827	-475	-11124	2400	12384	101	-109	-239	-15984	-4064	-1284	316	421	331	-16000	-2244	-2228	327	639	525	129	129	8
-10136	-4004	11704	50	288	-133	-15584	5204	-92	-1007	443	-57	-16448	352	-332	-1827	2180	-598	-11132	2268	12288	37	-83	-271	-16056	-4088	-1228	429	479	342	-15848	-2232	-2040	539	495	526	128	128	8
-10052	-4084	11792	51	237	-46	-15456	5024	-200	-570	326	36	-16200	580	116	-1631	2761	-975	-11000	2388	12424	-36	-54	-244	-16088	-3972	-1120	485	556	422	-15900	-2256	-2024	461	548	548	129	131	8
-10076	-4088	11668	35	235	-101	-15568	5036	-56	-201	283	35	-15592	988	336	-1464	3595	-1604	-10948	2452	12340	-205	35	-348	-16012	-3944	-1412	404	528	435	-15976	-1776	-2224	261	687	448	130	129	8
-10132	-4112	11652	-10	195	-65	-15400	5100	-148	-21	398	103	-15576	1320	856	-447	4466	-2426	-10992	2388	12244	-241	0	-395	-16204	-3780	-1516	404	554	410	-16056	-1616	-2592	178	493	478	129	126	8
-10160	-4040	11612	21	177	-50	-15400	5116	-316	141	417	197	-15588	1356	772	-182	4522	-2497	-11136	2180	12236	-114	-34	-291	-16180	-3688	-1608	85	493	396	-16036	-1752	-2172	-338	283	588	130	128	8
-10056	-4052	11652	45	186	-1	-15484	5380	-344	202	508	249	-16820	-32	-60	407	4647	-2983	-11020	2372	12332	-251	-21	-353	-16096	-4008	-1532	265	497	417	-16016	-2208	-2368	-266	529	535	128	132	8
-10076	-4056	11768	41	136	-43	-15500	5292	-364	257	591	224	-17508	-792	-956	143	3577	-2544	-11052	2376	12312	-316	-24	-483	-16076	-3972	-1600	623	612	443	-15748	-2072	-2640	250	804	510	126	127	8
-10224	-4000	11596	50	148	19	-15492	5308	-712	419	507	283	-17520	-624	-1712	132	2292	-1556	-11044	2328	12240	-473	-32	-502	-16104	-3772	-1752	891	666	501	-15852	-1908	-2932	487	827	690	126	129	8
-10164	-3896	11704	57	120	6	-15404	5560	-968	200	540	309	-16924	-316	-1936	235	1397	-771	-11128	2220	12304	-591	6	-560	-16076	-4020	-1916	1452	824	480	-15904	-1792	-3080	417	911	742	126	131	8
-10108	-3956	11572	21	133	27	-15408	5608	-1020	-100	436	320	-16288	-208	-1592	-39	1202	-371	-10992	2220	12296	-783	-21	-638	-16116	-4140	-1848	2191	1104	577	-15888	-1964	-3232	418	1427	825	125	130	8
-10172	-3904	11804	-7	85	-10	-15348	5632	-1008	-287	387	213	-15792	-188	-1836	-147	1361	-172	-11252	1968	12404	-640	-34	-525	-16120	-3904	-1808	2302	1174	598	-15892	-2096	-3068	870	1522	678	125	128	8
-10124	-3896	11660	-39	117	-55	-15460	5392	-880	-32	269	234	-16280	-184	-1764	399	1244	-90	-11188	1964	12296	-460	197	-343	-16080	-3836	-2068	1902	926	540	-15728	-1808	-3092	529	1375	862	125	130	8
-10092	-3928	11648	-26	74	-71	-15452	5512	-688	145	229	162	-16480	-184	-1868	801	1247	-148	-11108	1904	12512	-268	92	-224	-16064	-4076	-2068	1792	780	560	-15812	-1420	-3148	511	1490	837	125	125	8
-10040	-4012	11652	-41	76	-57	-15476	5400	-636	266	183	174	-16508	8	-1424	947	1036	-103	-11160	1932	12392	-129	31	-140	-16164	-3904	-1672	1792	718	654	-16180	-2052	-2788	-78	1365	820	124	123	8
-10092	-4060	11784	-58	101	-11	-15412	5476	-764	145	221	163	-16460	-12	-1500	933	1042	-109	-11140	1900	12292	-52	-27	-81	-16120	-3760	-1356	1531	581	673	-16172	-1920	-2744	-233	1325	680	124	129	8
-10184	-3916	11788	-78	98	-33	-15436	5560	-864	-44	280	221	-16216	84	-1560	517	962	-72	-11116	1912	12256	-21	-30	-98	-15940	-3972	-1580	1364	488	629	-15792	-2084	-2704	-258	1239	726	124	128	8
-10220	-3884	11612	-40	126	-43	-15360	5472	-888	-199	317	217	-16808	-64	-1656	229	858	40	-11292	1876	12220	-13	-253	-148	-16000	-3716	-1280	1391	499	595	-15896	-1796	-2368	101	915	747	124	127	8
-10020	-4044	11788	-98	103	-47	-15468	5416	-624	-111	335	293	-16328	-4	-1524	-47	635	55	-11088	2124	12332	75	60	-106	-16236	-3376	-1200	829	307	640	-16032	-1700	-2068	443	964	778	124	126	8
-10000	-4020	11736	-143	119	17	-15632	5464	-668	5	295	288	-16264	-140	-1824	-258	693	81	-11100	2320	12312	-30	-44	-300	-16156	-3504	-1128	267	257	587	-16196	-2184	-2304	-59	810	739	124	129	8
-10168	-3928	11672	-144	153	83	-15324	5612	-1152	-55	188	297	-16144	-168	-2192	-286	856	11	-11164	2084	12292	53	2	-245	-15984	-3672	-1416	50	376	508	-15912	-2024	-2480	428	576	563	124	127	8
-10144	-3848	11632	-129	127	45	-15368	5592	-1204	-513	208	342	-16132	-84	-2268	-358	748	44	-10980	2316	12368	44	-60	-255	-16048	-3804	-1312	158	417	537	-15980	-1456	-2920	346	452	665	124	132	8
-10164	-3888	11752	-192	124	-2	-15292	5688	-920	-532	164	324	-16084	80	-2076	-504	612	77	-11052	2196	12428	86	5	-432	-16320	-3792	-1884	35	213	639	-15768	-1080	-3600	629	821	777	124	128	8
-10068	-3864	11776	-224	144	-66	-15320	5756	-808	-613	204	271	-16228	224	-1764	-668	449	103	-11124	1908	12360	107	135	-511	-16292	-3472	-2128	-267	-37	481	-15700	-1224	-3744	481	726	1064	124	129	8
-10012	-3868	11708	-231	223	-90	-15316	5776	-516	-571	246	239	-16248	340	-1720	-643	357	179	-11108	1756	12404	124	26	-432	-16036	-4008	-2072	-18	-40	493	-15552	-1204	-3616	668	649	1171	124	129	8
-10028	-4132	11676	-234	219	-19	-15548	5528	-1008	-33	11	166	-16360	224	-2052	-460	655	145	-11124	1940	12284	277	156	-292	-16196	-3724	-1460	106	-47	531	-16592	-1992	-3156	653	442	1331	124	132	8
-10112	-3924	11704	-296	324	53	-15416	5880	-1152	-205	-79	46	-16180	-48	-2508	-117	1060	-46	-11040	2220	12304	214	120	-548	-16128	-3316	-1412	-524	-331	581	-15704	-1392	-3144	1032	671	1333	124	130	8
-10328	-3804	11680	-284	280	-31	-15316	5876	-1080	-489	-121	63	-16040	-12	-2400	179	1119	-82	-11172	1824	12468	138	-41	-596	-16020	-3772	-1752	-665	-317	507	-15808	-1392	-3432	817	233	1606	124	129	8
-10240	-3692	11756	-287	237	-162	-15064	5820	-972	-740	55	57	-16220	-28	-1948	144	833	-5	-11100	2260	12312	63	55	-538	-16188	-3736	-1576	-447	-227	471	-16332	-2028	-3316	-948	102	1723	124	132	8
-10172	-3956	11616	-200	239	-240	-15156	5500	-412	-485	162	55	-16208	228	-1396	140	373	118	-11248	1696	12332	62	87	-445	-16000	-3756	-1892	-302	-245	524	-15472	-1264	-3232	-775	796	1478	125	131	8
-10028	-4080	11736	-169	198	-171	-15484	5424	-436	46	134	72	-16240	140	-1528	83	232	145	-11280	1784	12276	154	165	-252	-15996	-3428	-1964	-380	-128	408	-15984	-1036	-3524	-457	393	1092	124	130	8
-10120	-3904	11768	-183	237	-113	-15448	5656	-836	174	133	51	-16388	132	-2156	167	285	22	-11344	1784	12152	81	27	-173	-15944	-3464	-1616	-241	61	328	-16600	-1328	-2912	-1464	-104	706	124	132	8
-10248	-3852	11572	-148	236	-75	-15424	5780	-1084	-10	129	43	-16096	120	-2320	112	429	-45	-11200	2032	12248	68	-65	-227	-16332	-3136	-1344	-308	82	284	-16312	-1344	-3096	-1562	5	595	125	136	8
-10264	-3776	11640	-74	224	-118	-15204	5736	-1148	-237	157	73	-16012	128	-2196	-71	405	-97	-11164	2088	12180	5	-167	-330	-16044	-3300	-1388	-562	120	211	-15948	-1088	-3144	-228	-276	277	125	129	8
-10208	-3820	11700	-92	200	-211	-15216	5696	-720	-358	218	53	-16208	208	-2096	-186	120	-22	-11104	2092	12352	-130	-196	-432	-16224	-3616	-1872	-431	70	201	-15796	-1092	-3604	-205	-167	381	125	128	8
-9924	-4080	11636	-112	184	-245	-15508	5588	-584	7	213	22	-16228	44	-2120	-175	-49	65	-11060	2000	12432	1	-31	-298	-16540	-3772	-1916	1	64	184	-15652	-1212	-3504	-159	-61	452	125	130	8
-10120	-3904	11676	-89	193	-95	-15432	5772	-1032	441	56	-48	-16240	-132	-2792	159	113	34	-11172	1712	12232	44	-99	-313	-15928	-3448	-1988	-54	-61	230	-15748	-896	-3532	271	617	466	125	129	8
-10216	-3912	11596	-163	269	-129	-15408	5860	-1384	56	-93	-77	-16032	-136	-2984	326	270	-2	-11184	1920	12244	31	-179	-287	-15988	-3520	-1692	-191	-20	161	-16108	-1088	-3328	-410	95	302	126	132	8
-10352	-3820	11532	-157	253	-141	-15208	5784	-1364	-312	-109	-115	-15940	-80	-2548	378	260	-33	-11116	1944	12336	-26	-313	-263	-16084	-3560	-1380	-534	-16	191	-15788	-1132	-3352	-494	-261	160	126	129	8
-10332	-3832	11760	-70	161	-244	-15104	5664	-928	-368	-91	-72	-15988	284	-1840	219	0	21	-10960	2072	12492	-66	-136	-364	-16352	-3708	-1840	-662	-136	226	-15844	-832	-3740	-382	-107	237	126	128	8
-9992	-3964	11676	-87	118	-305	-15312	5612	-348	-270	47	-55	-16244	352	-1580	-75	-312	2	-11068	1792	12376	55	-91	-392	-16348	-3652	-2180	-379	-291	230	-15984	-740	-4084	-846	405	423	126	130	8
-9980	-4124	11656	-136	177	-119	-15672	5516	-560	336	-67	-202	-16436	96	-2180	-68	-88	-52	-11168	1720	12288	182	56	-283	-16268	-3636	-2276	205	-315	207	-15672	-716	-4320	-479	839	475	126	130	8
-10136	-3980	11696	-245	257	-154	-15524	5856	-1152	114	-134	-135	-16220	32	-2728	45	113	-119	-11256	1828	12196	161	51	-279	-15996	-3324	-2116	62	-495	176	-15564	-916	-3852	-178	676	427	126	128	8
-10324	-3852	11640	-177	244	-133	-15328	5852	-1184	-282	-170	-123	-15924	-36	-2556	184	142	-162	-11316	1748	12284	141	38	-183	-15824	-3572	-1612	85	-373	175	-16104	-1828	-3000	-894	29	172	127	128	8
-10308	-3776	11532	-131	194	-235	-14972	5712	-1024	-485	-73	-143	-15952	36	-1952	61	-53	-71	-11184	1848	12364	75	-149	-133	-15920	-3408	-1092	-295	-175	100	-15840	-2140	-2600	-627	-555	-1	127	129	8
-10204	-3840	11564	-33	102	-349	-15096	5508	-424	-310	57	-72	-16192	152	-1256	4	-508	54	-10960	2144	12376	60	-211	-165	-16404	-3692	-996	-416	-94	139	-15972	-1160	-3188	-127	-640	-72	127	126	8
-9892	-4152	11700	-68	154	-292	-15748	5312	-348	400	32	-167	-16460	-200	-1708	46	-429	35	-11052	1992	12436	64	-6	-301	-16460	-3632	-1948	-100	-214	180	-15956	-548	-3980	-183	0	220	127	128	8
-10200	-3920	11680	-135	194	-156	-15532	5856	-1288	588	-128	-123	-16556	-324	-2628	501	-185	-31	-11108	1976	12320	31	14	-290	-16200	-3600	-2244	561	-150	118	-15696	-684	-4084	84	599	388	127	126	8
-10192	-3940	11656	-135	201	-128	-15388	5688	-1336	-29	-145	-127	-15940	-292	-2688	651	0	-108	-11280	1788	12168	187	86	-146	-15896	-3456	-1844	618	-174	128	-15748	-1100	-3704	-32	444	209	127	128	8
-10324	-3912	11644	-96	169	-170	-15132	5784	-1140	-385	-145	-76	-15848	212	-2220	322	-21	-74	-11132	1900	12236	66	-118	-125	-15800	-3296	-1316	51	-37	68	-15812	-1676	-2844	-89	-539	-170	126	129	8
-10276	-3848	11556	-90	89	-276	-15028	5584	-716	-477	-30	-80	-15988	364	-1384	-43	-381	80	-10952	2044	12156	48	-276	-179	-16168	-3636	-956	-388	-48	42	-15924	-1368	-3136	-1	-962	-207	126	129	8
-10008	-4024	11540	-38	86	-313	-15284	5516	-320	-29	63	-104	-17124	-348	-948	-491	-2744	646	-11124	1740	12324	10	-98	-271	-16352	-3708	-1832	-543	-158	57	-15984	-916	-3720	-192	-521	185	123	124	8
-10036	-4220	11708	-105	131	-164	-15944	5576	-812	918	-108	-164	-18024	-28	-3204	-502	-4280	1987	-11140	2040	12416	118	102	-253	-16544	-3676	-2280	254	-286	136	-15712	-468	-4320	-398	445	275	127	128	8
-10100	-3892	11540	-178	234	-124	-15456	6056	-1168	-118	-40	-202	-16932	-236	-1536	-37	-3958	2070	-11256	1756	12220	241	134	-122	-16096	-3612	-1960	723	-319	141	-15788	-936	-4096	48	324	159	130	129	8
-10212	-3760	11716	-203	246	-164	-15248	5720	-968	-464	54	-301	-16700	88	-1176	14	-3569	2214	-11220	1836	12280	187	81	-161	-15832	-3384	-1600	445	-358	181	-15588	-1384	-3352	43	-302	78	127	129	8
-10264	-3892	11608	-112	187	-196	-15112	5592	-620	-46	71	-141	-15532	240	-388	290	-2827	2311	-11188	1844	12212	109	-193	-147	-15836	-3520	-1088	-5	-200	113	-15764	-1792	-2612	-172	-899	-115	128	127	8
-10252	-3936	11652	-38	92	-305	-15036	5572	-576	212	295	-228	-17052	-492	-304	831	-3929	2724	-11140	1984	12308	0	-197	-226	-16216	-3480	-1056	-638	-201	112	-16232	-1556	-2788	-444	-1048	-234	131	121	8
-10368	-3900	11556	120	30	-413	-15264	5396	-580	252	644	-106	-16756	912	524	3220	-4107	3055	-11124	1996	12424	-18	-171	-264	-16368	-3732	-1576	-512	-140	135	-16004	-880	-3588	-671	-689	-237	123	129	8
-10116	-4000	11504	176	53	-473	-15536	5112	-560	745	756	196	-14560	1744	-1436	3734	-3071	2750	-11172	1948	12316	0	-168	-320	-16200	-3444	-1852	26	-36	111	-15960	-776	-3780	-296	-764	-235	123	124	8
-10032	-4252	11528	202	29	-308	-15428	5276	-1076	917	680	243	-15100	1460	-1648	2219	-2159	522	-11212	1964	12152	-77	-314	-398	-16064	-3140	-1656	-397	-159	58	-16004	-968	-3100	-652	-734	-211	125	129	8
-10080	-3864	11612	117	70	-251	-15576	5952	-1748	516	600	246	-15720	324	-2300	954	-1101	98	-11200	1804	12244	-284	-405	-350	-15988	-3356	-1324	-751	-43	4	-15860	-1544	-2828	-751	-1274	-271	125	127	8
-10024	-3992	11632	26	156	-178	-15720	6020	-1868	165	152	50	-15724	496	-2756	-295	43	51	-11172	1892	12188	-341	-452	-346	-15992	-3416	-1092	-1117	132	-49	-15728	-1852	-2492	-512	-1734	-332	125	127	8
-10076	-3840	11632	-89	145	-212	-15496	6024	-1652	-189	-251	-78	-16396	904	-2136	-678	19	467	-10752	2304	12476	-298	-527	-624	-16552	-3920	-1340	-1253	-74	50	-15680	-1712	-2524	-331	-1671	-250	120	134	8
-10124	-3860	11652	-150	146	-182	-15340	5980	-1192	-438	-442	-202	-15952	692	-1612	-779	36	419	-10964	1420	12396	-119	-201	-557	-16204	-4372	-2472	-489	-125	150	-15340	-736	-4232	344	-116	163	125	126	8
-10184	-4024	11664	-198	182	-220	-15280	5712	-1184	-496	-546	-317	-16128	640	-876	-29	-96	333	-11256	1384	12412	159	20	-277	-16284	-3708	-2668	374	-238	253	-15636	-940	-4364	472	384	187	129	132	8
-10216	-3956	11544	-169	158	-251	-15420	5448	-888	-474	-486	-364	-16380	568	-520	390	-35	147	-11224	1544	12300	220	-10	-95	-15964	-3528	-1868	225	-402	186	-15652	-1092	-3428	-73	171	234	126	130	8
-10160	-3988	11640	-162	134	-254	-15356	5288	-808	-43	-500	-237	-16460	504	-364	986	-314	-28	-11164	1704	12348	89	-103	-121	-15824	-3420	-1232	-235	-295	167	-15884	-1460	-2492	-184	-504	131	126	127	8
-10148	-3984	11708	-143	109	-231	-15280	5484	-820	54	-403	-192	-16456	564	-12	1260	-305	-114	-11084	1828	12412	-30	-245	-154	-16060	-3428	-848	-608	-51	134	-16356	-1872	-1852	-1110	-992	-76	122	134	8
-10172	-3936	11608	-119	123	-250	-15472	5488	-832	-60	-276	-88	-16408	952	124	762	-62	134	-10996	1944	12348	-19	-189	-207	-16396	-3616	-1216	-680	51	120	-15992	-1088	-3204	-615	-583	-61	132	131	8
-10116	-3936	11692	-77	127	-224	-15392	5440	-728	-90	-247	-144	-16512	984	-128	114	-96	230	-11036	1824	12432	25	44	-301	-16552	-3564	-2204	-239	-53	139	-15892	-704	-4080	-275	-268	40	124	129	8
-10128	-4072	11532	-108	177	-140	-15468	5364	-732	21	-38	-77	-16340	820	-352	-58	-161	137	-11180	1364	12420	96	132	-226	-16196	-3592	-2464	450	-155	156	-15320	-684	-3848	376	379	364	130	128	8
-10168	-3968	11492	-91	136	-163	-15320	5516	-864	104	106	22	-16140	1024	-432	-215	-137	-61	-11212	1652	12352	179	-10	-95	-16128	-3304	-1828	475	-208	89	-16004	-1480	-3208	637	408	367	129	127	8
-10180	-3896	11648	-83	115	-140	-15236	5676	-880	73	120	52	-16128	944	-500	-259	-345	-40	-11056	1796	12320	75	-153	-158	-15712	-3540	-1076	-92	-233	99	-16060	-2216	-2364	-341	-167	112	127	129	8
-10096	-3948	11712	-37	130	-182	-15476	5676	-1140	169	114	-2	-16364	672	-1248	-283	-200	207	-11076	1816	12500	45	-234	-180	-16016	-3812	-1076	-33	94	126	-15988	-1908	-2624	575	-1096	-188	127	123	8
-10164	-3920	11660	-29	143	-204	-15360	5724	-1160	175	10	-22	-16424	472	-1328	181	-203	43	-11120	1756	12412	25	-137	-177	-16220	-3560	-1492	-155	159	148	-15832	-1248	-2976	131	-993	-43	127	127	8
-10148	-3844	11704	-35	132	-220	-15344	5652	-1216	6	-89	-76	-16148	340	-984	320	-36	4	-11020	1676	12564	59	-98	-122	-16304	-3640	-1924	-97	145	97	-15656	-800	-3380	180	-405	131	128	127	8
-10064	-3956	11524	-100	149	-197	-15428	5412	-860	-134	-92	-57	-16256	680	-704	456	-98	-29	-11176	1828	12400	97	-98	-129	-16292	-3436	-1648	136	115	115	-15960	-856	-3036	187	-43	230	134	128	8
-10040	-4056	11620	-179	140	-95	-15424	5632	-800	-40	-90	-101	-16508	712	-436	614	-123	-12	-11080	1704	12336	26	-115	-208	-16080	-3524	-1460	-96	85	97	-15888	-1284	-2940	-431	-59	197	126	125	8
-10088	-3888	11656	-136	214	-104	-15360	5488	-916	226	-68	-161	-16372	1192	-856	624	-174	81	-11076	1816	12328	22	-156	-217	-16028	-3656	-1456	-212	166	117	-15828	-1564	-2900	-23	-467	2	126	127	8
-10196	-3856	11564	-154	177	-115	-15340	5688	-1116	324	-82	-93	-16140	548	-676	344	-218	55	-10828	1724	12448	90	-195	-173	-16072	-3684	-1332	-37	242	152	-15800	-1072	-3088	102	-489	100	132	131	8
-10156	-3968	11628	-135	131	-176	-15328	5492	-1048	76	-94	-102	-16376	736	-632	355	-73	1	-10892	1572	12364	92	-60	-278	-16448	-3672	-2016	-177	-47	251	-15744	-836	-3968	-189	138	280	128	129	8
-10124	-3928	11672	-125	134	-185	-15388	5596	-936	-186	-5	15	-16436	1052	-724	147	-110	95	-11020	1692	12368	168	150	-239	-16328	-3600	-2556	297	-333	265	-15644	-628	-4476	343	451	356	126	125	8
-10120	-3988	11716	-85	136	-158	-15420	5516	-1056	-297	20	-3	-16308	868	-644	-316	-99	37	-11216	1464	12492	297	176	-49	-16124	-3748	-2288	755	-394	200	-15516	-964	-3988	-25	598	317	125	128	8
-10108	-3860	11664	-80	143	-147	-15240	5568	-820	-180	62	7	-16224	872	-232	-117	-232	-80	-11256	1436	12392	268	49	38	-15772	-3516	-1612	770	-367	231	-15868	-1824	-3028	247	99	154	126	127	8
-10148	-3876	11704	-77	167	-176	-15332	5564	-928	102	17	-33	-16272	728	-472	131	-53	1	-11100	1856	12400	198	-76	40	-15916	-3376	-980	223	-293	223	-16112	-1896	-2004	136	-588	63	127	125	8
-10172	-3980	11648	-57	184	-202	-15324	5652	-1012	110	32	-78	-16376	548	-772	250	-83	97	-11112	1880	12388	1	-109	-97	-15940	-3368	-912	130	-249	186	-16428	-1888	-1832	-270	-936	69	124	130	8
-10144	-3904	11756	-103	170	-172	-15428	5540	-1056	245	-5	-26	-16492	368	-916	335	-47	24	-10960	2032	12332	58	-26	-177	-16480	-3512	-1224	-39	82	228	-16104	-1216	-2772	-75	-396	219	126	127	8
-10172	-3940	11612	-100	158	-137	-15392	5640	-1184	77	-62	-20	-16216	292	-976	415	-63	-10	-11076	1796	12500	136	40	-197	-16328	-3780	-1896	242	96	178	-15760	-836	-3652	430	111	166	126	128	8
-10184	-3980	11548	-62	142	-189	-15460	5392	-1020	-52	-128	-13	-16384	680	-560	735	-3	84	-11164	1616	12364	185	77	-160	-16040	-3708	-2196	582	90	275	-15544	-900	-3856	618	346	373	125	127	8
-10064	-3980	11612	-86	131	-156	-15360	5464	-792	-19	-66	34	-16556	1052	-292	750	-147	112	-11176	1624	12324	171	63	-55	-16040	-3564	-1704	382	12	246	-15852	-1536	-3148	281	142	303	131	128	8
-10116	-3844	11688	-79	143	-120	-15376	5688	-972	-18	-29	-10	-16304	1072	-676	453	-22	190	-11204	1684	12344	72	-12	-39	-15992	-3504	-1184	-16	74	134	-16204	-1764	-2576	-130	-244	125	127	128	8
-10172	-3944	11564	-100	151	-186	-15196	5748	-1016	-3	-19	29	-16072	1096	-760	-183	-85	119	-10960	1972	12328	89	-97	-84	-16172	-3572	-1028	-132	170	215	-15904	-1356	-2868	-73	-502	167	124	127	8
-10176	-3920	11584	-122	155	-160	-15344	5648	-1076	-122	-46	4	-16356	768	-416	-277	-18	18	-10980	1888	12544	113	-17	-233	-16444	-3496	-1764	-118	-43	290	-15932	-708	-3640	177	-261	277	122	131	8
-10068	-4052	11640	-143	152	-131	-15480	5460	-808	-135	-34	1	-16536	756	-404	-181	-3	27	-11044	1772	12324	211	57	-153	-16476	-3852	-1988	417	-46	283	-15808	-828	-3824	-186	321	331	128	129	8
-10112	-3948	11556	-111	173	-111	-15308	5752	-1028	-68	52	-24	-16340	644	-512	20	9	41	-11160	1596	12488	290	79	-52	-16032	-3740	-1896	662	-72	391	-15696	-1212	-3404	9	267	231	126	131	8
-10188	-3972	11676	-117	162	-148	-15332	5496	-980	-14	66	-4	-16268	696	-432	136	-117	4	-11248	1716	12284	198	55	9	-16000	-3160	-1376	107	-112	300	-15804	-1472	-2640	-141	-161	88	130	128	8
-10144	-3972	11536	-87	147	-146	-15348	5544	-924	161	108	-27	-16528	620	-556	536	-56	108	-11148	1824	12372	61	-100	12	-15956	-3432	-852	-152	80	242	-16268	-1936	-2176	-411	-681	20	129	129	8
-10172	-3960	11700	-96	169	-82	-15456	5728	-952	314	67	-47	-16404	772	-748	902	85	69	-11116	2132	12500	86	-63	-175	-16344	-3584	-1112	5	251	287	-16176	-1360	-2580	-21	-672	88	126	129	8
-10100	-3872	11676	-87	214	-166	-15316	5780	-1080	250	35	-69	-16232	676	-1012	703	123	104	-11124	1696	12252	62	-38	-216	-16180	-3540	-1712	20	334	226	-16040	-1048	-3036	-212	-320	112	125	129	8
-10148	-3928	11612	-120	203	-127	-15408	5484	-1060	120	-3	-9	-16272	772	-904	413	138	96	-11088	1664	12372	86	-55	-201	-16124	-3572	-1872	93	353	189	-15652	-1140	-3348	127	-201	183	130	129	8
-10048	-3860	11664	-97	173	-110	-15364	5592	-896	-86	24	-16	-16428	940	-764	412	-2	13	-11120	1756	12352	107	-84	-113	-16132	-3536	-1720	148	279	179	-15648	-1104	-3184	549	-38	283	125	127	8
-10124	-3896	11684	-136	170	-74	-15448	5664	-880	-63	107	-74	-16324	952	-696	200	-45	-20	-11008	1856	12332	102	-52	-119	-16240	-3704	-1352	-8	231	130	-16192	-1424	-3300	29	115	196	128	132	8
-10100	-3996	11728	-91	203	-104	-15360	5568	-972	291	15	-69	-16456	1036	-532	148	-21	6	-11068	1748	12288	62	-11	-225	-16200	-3568	-1752	-96	105	205	-15944	-980	-3692	176	198	237	126	128	8
-10252	-3776	11708	-128	185	-145	-15356	5596	-1120	132	29	-52	-16300	852	-804	-81	-63	22	-11136	1752	12396	96	81	-225	-16268	-3432	-2080	74	71	169	-15840	-744	-3744	132	-103	272	126	129	8
-10068	-4000	11532	-204	171	-112	-15420	5700	-872	-159	83	-94	-16304	716	-696	-341	7	28	-11172	1668	12352	135	-8	-164	-16152	-3548	-1864	240	-22	144	-15940	-1212	-3460	-190	-144	192	128	130	8
-10192	-3928	11512	-192	223	-34	-15396	5576	-1040	-133	95	-185	-16412	600	-604	-37	48	24	-11152	1592	12340	134	-86	-134	-16020	-3644	-1564	214	28	130	-15704	-1412	-3032	-1	-96	174	125	123	8
-10172	-3892	11660	-165	202	-77	-15304	5564	-1156	191	-18	-114	-16340	576	-496	402	-86	-45	-11096	1888	12528	142	-89	-114	-16068	-3496	-1320	-25	41	168	-15960	-1504	-2880	-145	-232	61	126	127	8
-10236	-3880	11680	-140	199	-133	-15336	5756	-1192	345	-32	-160	-16388	604	-480	570	-119	-52	-11000	1820	12480	107	-61	-166	-16180	-3580	-1428	-70	34	177	-15924	-1268	-3140	142	-405	172	126	127	8
-10136	-3900	11772	-165	214	-159	-15376	5532	-1088	297	-57	-122	-16428	676	-780	774	-79	2	-11096	1812	12436	165	-82	-206	-16208	-3700	-1832	79	-13	153	-15780	-984	-3400	348	-16	341	127	127	8
-10180	-3932	11620	-175	189	-126	-15464	5536	-1056	142	-108	-117	-16356	620	-672	613	66	-32	-11108	1612	12472	190	-4	-201	-16164	-3680	-2040	245	-33	151	-15952	-1160	-3344	399	311	351	125	130	8
-10172	-3976	11520	-120	151	-160	-15340	5560	-1128	-89	-89	-65	-16268	740	-696	404	211	-25	-11072	1748	12496	135	16	-157	-15988	-3604	-1668	303	-38	186	-15812	-1300	-3292	149	173	223	132	129	8
-10136	-3924	11624	-133	166	-143	-15348	5664	-968	-139	-79	-61	-16392	988	-768	140	21	66	-11124	1776	12348	134	-37	-96	-16136	-3468	-1360	122	5	170	-15892	-1172	-2956	145	-327	40	126	127	8
-10196	-3920	11648	-75	162	-145	-15328	5692	-1100	-158	-70	-98	-16272	1128	-576	-161	-7	7	-11040	1788	12420	75	-98	-160	-16152	-3508	-1540	-71	24	123	-15876	-1152	-3104	76	-424	90	123	129	8
-10160	-3924	11648	-97	153	-226	-15308	5584	-1032	-46	-14	-73	-16360	724	-464	-229	-2	26	-11084	1804	12464	107	-93	-138	-16340	-3616	-1748	-29	6	147	-15912	-1104	-3324	168	-152	279	131	128	8
-10124	-3896	11660	-62	161	-189	-15436	5416	-872	80	-36	-58	-16508	680	-668	-187	35	4	-11128	1720	12332	83	31	-188	-16260	-3564	-1888	228	-78	158	-16112	-1332	-3312	-213	188	282	126	133	8
-10124	-3988	11616	-107	175	-158	-15448	5688	-1072	92	-92	-27	-16308	500	-792	-15	49	-54	-11188	1640	12324	112	-21	-133	-16008	-3616	-1656	299	-71	154	-15724	-1216	-3412	104	239	231	127	126	8
-10152	-3932	11744	-98	209	-176	-15452	5572	-1200	-69	-98	-118	-16256	696	-920	214	41	-19	-11148	1800	12384	120	-74	-117	-16040	-3632	-1756	308	-98	121	-15828	-1372	-2964	133	-299	2	130	129	8
-10168	-3900	11680	-106	200	-153	-15320	5572	-1052	-10	-144	-80	-16296	708	-744	426	11	99	-11116	1744	12392	101	-94	-118	-16208	-3588	-1488	-39	-12	157	-15836	-1236	-3132	189	-393	150	128	129	8
-10216	-3876	11580	-126	184	-170	-15372	5488	-1220	-41	-152	-67	-16236	664	-600	401	-13	61	-11076	1768	12396	106	-5	-136	-16192	-3716	-1600	14	-16	174	-15924	-1296	-3304	232	-229	290	125	125	8
-10056	-3936	11592	-92	169	-187	-15420	5468	-748	-118	-78	-89	-16408	740	-304	267	-66	-18	-11080	1804	12440	167	45	-155	-16148	-3660	-2028	181	-102	197	-16092	-1276	-3240	-85	184	331	127	130	8
-10172	-3984	11716	-120	138	-163	-15360	5568	-912	143	-135	-31	-16452	864	-772	121	-1	47	-11140	1628	12296	123	84	-71	-16188	-3500	-1800	403	-96	180	-15776	-1004	-3344	178	266	237	127	128	8
-10140	-3936	11796	-117	176	-138	-15420	5604	-1124	-93	-90	-33	-16304	892	-696	34	51	-12	-11160	1692	12304	134	-13	-75	-16036	-3452	-1556	215	-97	195	-16100	-1416	-3024	126	-189	93	124	130	8
-10180	-3852	11596	-121	149	-141	-15320	5544	-1076	-112	-124	-40	-16228	728	-544	4	-28	55	-11124	1760	12364	130	-101	-51	-16064	-3508	-1576	163	-48	199	-16156	-1608	-2584	-120	-486	90	127	131	8
-10204	-3940	11568	-95	135	-166	-15352	5600	-1076	-124	-110	-31	-16296	724	-740	-135	-2	80	-11020	1840	12344	55	-26	-128	-16180	-3516	-1484	-55	59	183	-15760	-1184	-2956	-51	-305	134	127	120	8
-10192	-3960	11644	-59	157	-185	-15240	5536	-944	-166	-53	-20	-16364	756	-332	-54	-106	8	-11044	1880	12352	44	1	-193	-16348	-3492	-1816	-67	-68	162	-15812	-956	-3472	-178	-103	121	133	129	8
-10128	-4004	11648	-80	154	-197	-15488	5468	-904	28	-52	12	-16404	740	-716	-39	-99	-15	-11140	1652	12360	76	26	-122	-16224	-3640	-1852	269	-4	117	-15760	-964	-3516	189	-115	160	124	129	8
-10140	-3872	11728	-107	118	-187	-15416	5700	-932	122	-129	-55	-16432	580	-916	34	7	-8	-11172	1676	12444	149	-16	-74	-16100	-3512	-1712	352	-84	118	-15764	-1256	-3004	266	8	204	126	127	8
-10124	-3876	11692	-86	171	-176	-15328	5660	-1216	-23	-116	-69	-16196	620	-968	41	180	9	-11108	1836	12380	141	-47	-107	-16136	-3476	-1492	235	-13	120	-16192	-1712	-2720	-23	-62	189	127	133	8
-10172	-3888	11520	-127	146	-181	-15292	5612	-944	-77	-94	-39	-16280	836	-772	292	67	19	-11172	1820	12388	81	-48	-106	-16036	-3776	-1512	83	92	141	-15832	-1628	-2912	208	-344	154	127	122	8
-10184	-3836	11680	-98	118	-218	-15312	5588	-948	-136	-117	-39	-16336	888	-560	154	-49	84	-11028	1892	12316	145	-47	-103	-16328	-3520	-1632	190	137	164	-15740	-1052	-3280	300	-272	127	129	131	8
-10108	-3972	11668	-43	119	-224	-15452	5496	-932	-123	-70	-39	-16496	708	-364	97	8	41	-11076	1832	12388	106	-9	-108	-16220	-3660	-1904	165	42	127	-15656	-800	-3636	232	8	228	128	129	8
-10020	-3972	11584	-56	84	-194	-15360	5444	-816	164	-96	-24	-16320	712	-588	-107	32	-113	-11196	1836	12316	111	-11	-112	-16148	-3636	-1996	272	-64	123	-15760	-944	-3372	400	14	281	129	126	8
-10048	-3908	11576	-89	143	-139	-15488	5544	-916	26	-85	-31	-16380	832	-656	-164	132	-191	-11148	1880	12368	188	8	1	-16172	-3492	-1572	310	-48	102	-15884	-1156	-3112	202	135	256	127	126	8
-10108	-3980	11664	-145	157	-136	-15284	5708	-1072	-228	19	-33	-16316	788	-540	-284	150	-69	-11076	1888	12336	132	-43	-97	-16092	-3456	-1360	120	-26	119	-15916	-1388	-2868	116	8	194	125	130	8
-10144	-4024	11616	-132	131	-167	-15384	5472	-944	54	-62	-78	-16596	876	-416	139	164	136	-11084	1860	12352	90	-55	-134	-16152	-3572	-1504	10	0	124	-15864	-1336	-3104	357	-343	131	130	127	8
-10156	-3860	11612	-126	141	-176	-15344	5544	-1024	9	-2	-70	-17540	536	-424	296	124	479	-11056	1820	12412	116	-83	-164	-16168	-3648	-1620	140	13	129	-15860	-1324	-3236	161	-190	179	128	126	8
-10172	-3908	11644	-104	153	-202	-15452	5480	-920	-32	43	-37	-16368	36	-804	319	423	621	-11056	1788	12416	154	-26	-162	-16260	-3656	-1672	144	1	151	-15960	-1236	-3352	268	3	157	126	129	8
-10112	-3988	11612	-116	165	-196	-15444	5332	-932	93	16	5	-16136	400	-808	967	187	238	-11128	1652	12372	152	26	-120	-16132	-3716	-1716	199	-13	221	-16024	-1204	-3172	127	-71	193	125	132	8
-10092	-3936	11624	-148	99	-122	-15516	5592	-1024	210	-56	16	-15836	1064	-764	996	106	168	-11124	1792	12424	188	-39	-46	-16144	-3596	-1580	141	-24	136	-15820	-1248	-3036	42	56	185	126	130	8
-10200	-3824	11620	-95	137	-147	-15380	5796	-1024	37	-58	-64	-15824	1324	-1124	557	43	129	-11064	1768	12404	123	10	-148	-16144	-3624	-1568	79	-26	191	-15944	-1316	-3128	106	-248	130	124	132	8
-10144	-3876	11604	-121	138	-176	-15256	5704	-1100	-42	-22	-70	-16792	1004	-560	428	-197	152	-11104	1744	12292	106	1	-153	-16100	-3536	-1704	49	0	196	-15940	-1312	-2976	-109	-415	133	129	131	8
-10188	-3816	11664	-108	129	-211	-15444	5628	-964	-41	-119	-34	-16956	352	-788	464	134	417	-11036	1804	12356	118	-62	-152	-16060	-3668	-1632	43	-21	176	-15720	-1160	-3000	9	-266	161	126	133	8
-10184	-3984	11512	-65	131	-213	-15436	5488	-1032	-88	-36	-63	-16080	720	-640	585	125	246	-11088	1796	12460	89	-10	-152	-16152	-3604	-1808	119	-43	162	-15896	-1176	-3024	-10	-216	159	128	130	8
-10072	-3968	11632	-70	133	-164	-15476	5528	-904	27	-116	-51	-15952	964	-840	451	-147	-24	-11084	1920	12376	102	37	-148	-16240	-3616	-1744	101	-54	160	-15804	-1060	-3196	163	20	165	123	126	8
-10128	-3868	11656	-59	143	-148	-15420	5772	-1072	-5	-114	-39	-16180	984	-904	402	-153	-141	-11144	1760	12320	145	43	-125	-16112	-3564	-1700	143	-53	140	-15944	-1348	-3376	29	-48	98	125	128	8
-10224	-3904	11696	-97	191	-196	-15344	5724	-1040	-115	-143	-56	-16116	780	-928	130	76	65	-11160	1692	12304	106	-13	-99	-16152	-3544	-1696	186	12	131	-15924	-1352	-3280	93	-198	92	125	130	8
-10128	-3956	11692	-105	144	-247	-15288	5520	-1024	-175	-86	-63	-16324	744	-524	199	93	93	-11092	1764	12240	115	-110	-99	-16116	-3544	-1648	108	-52	158	-15804	-1124	-3144	283	-275	182	126	128	8
-10108	-3956	11624	-100	153	-210	-15368	5424	-876	-41	-92	-48	-16464	824	-568	268	-22	118	-11020	1864	12380	124	-84	-108	-16196	-3596	-1520	6	-36	100	-16140	-1356	-3308	-111	-153	101	124	128	8
-10104	-3912	11720	-87	124	-221	-15432	5400	-940	71	-103	-25	-16724	772	-664	451	-122	74	-11004	1888	12364	101	-88	-149	-16140	-3676	-1720	127	-12	131	-15944	-1240	-3468	78	-88	97	126	129	8
-10160	-3960	11704	-90	152	-201	-15476	5544	-956	4	-108	-16	-16144	644	-864	545	-139	-47	-11112	1748	12432	136	14	-119	-16172	-3600	-1760	225	-27	144	-15800	-1236	-3344	308	-146	130	126	131	8
-10144	-3940	11664	-80	104	-216	-15404	5584	-1080	-47	-141	-30	-16156	720	-892	245	7	-87	-11088	1780	12432	120	-61	-115	-16092	-3524	-1796	260	-44	93	-15780	-1180	-3052	372	-121	256	125	130	8
-10152	-3884	11664	-65	140	-170	-15420	5616	-1084	-35	-198	-51	-16260	776	-804	-27	153	-48	-11120	1812	12312	115	-48	-128	-16104	-3664	-1432	57	-79	131	-16000	-1516	-2956	231	-162	238	126	129	8
-10188	-3896	11696	-91	123	-187	-15372	5640	-1072	-90	-201	-48	-16288	744	-784	-15	140	-12	-11072	1864	12356	106	17	-154	-16120	-3628	-1484	191	-45	160	-15884	-1336	-2896	177	-33	202	126	129	8
-10228	-3932	11544	-78	117	-232	-15336	5416	-848	-147	-140	-41	-16336	920	-564	-66	98	-29	-11056	1816	12408	121	-40	-148	-16152	-3608	-1540	249	-14	171	-15992	-1312	-3140	327	-130	176	126	130	8
-10136	-3968	11656	-76	115	-188	-15428	5532	-868	-39	-151	-28	-16508	932	-500	-274	75	-91	-11176	1764	12292	107	-56	-121	-16108	-3592	-1688	155	-2	171	-15792	-1180	-3408	284	-96	181	127	128	8
-10056	-3996	11688	-89	146	-179	-15504	5576	-852	169	-146	-41	-16260	672	-788	4	232	-87	-11056	1680	12440	122	-8	-100	-16172	-3712	-1660	160	-10	149	-15924	-1348	-3240	342	-82	185	126	128	8
-10172	-3868	11536	-141	164	-193	-15292	5644	-1076	49	-107	-55	-16028	608	-880	-215	372	-126	-11124	1788	12440	118	-8	-87	-16132	-3632	-1584	209	-6	145	-15960	-1344	-3096	99	-47	195	128	129	8
-10172	-3972	11640	-119	111	-213	-15384	5512	-984	-71	-114	-95	-16388	872	-644	-189	226	-144	-11108	1792	12444	118	-27	-112	-16132	-3540	-1460	133	-5	139	-16012	-1384	-3204	111	-162	167	126	129	8
-10072	-3944	11616	-80	118	-201	-15452	5580	-908	-15	-125	-31	-16396	632	-716	20	385	-50	-11088	1712	12364	99	-47	-149	-16144	-3572	-1664	97	-17	112	-15864	-1308	-3308	111	-178	145	127	130	8
-10104	-3908	11608	-64	147	-169	-15420	5636	-976	12	-100	-72	-16320	736	-904	-24	372	-201	-11108	1800	12368	101	-47	-156	-16132	-3572	-1808	169	-50	176	-15844	-1120	-3480	155	-198	104	127	129	8
-10132	-3948	11548	-60	175	-193	-15368	5500	-1048	-75	-26	-24	-16220	668	-648	-108	530	-289	-11112	1744	12364	174	23	-123	-16180	-3604	-1796	258	-25	141	-15876	-1296	-3228	303	-218	249	127	128	8
-10104	-3952	11672	-108	188	-197	-15396	5560	-824	96	-40	20	-16248	840	-804	-192	865	-519	-11124	1792	12348	165	-5	-118	-16044	-3696	-1532	211	-50	124	-15868	-1420	-3028	182	-115	256	127	129	8
-10068	-4012	11652	-142	155	-179	-15372	5600	-848	145	-8	-36	-15916	600	-1024	-641	1213	-851	-11084	1908	12312	148	-31	-146	-16108	-3684	-1392	221	39	132	-16044	-1508	-3068	68	-22	101	127	130	8
-10180	-3956	11760	-78	152	-170	-15368	5688	-1088	59	-3	-39	-15948	776	-864	-533	1518	-1159	-11160	1832	12264	92	-69	-171	-16120	-3560	-1608	-49	-22	164	-15896	-1288	-3132	283	-424	102	127	129	8
-10124	-3956	11640	-127	166	-187	-15388	5592	-988	-18	32	-6	-15604	964	-664	256	1444	-1550	-11092	1820	12272	94	-105	-182	-16148	-3692	-1656	106	-7	128	-15768	-1176	-3168	335	-399	250	128	132	8
-10184	-3964	11560	-74	147	-195	-15344	5444	-848	55	85	13	-15044	1028	-836	648	1511	-1792	-11092	1740	12400	147	-50	-177	-16160	-3696	-1684	199	29	143	-15840	-1192	-3072	318	-133	319	128	128	8
-10020	-3904	11608	-76	107	-246	-15380	5412	-780	188	145	26	-14864	1232	-880	371	2003	-2180	-11152	1824	12264	161	-26	-157	-16128	-3632	-1612	150	-14	144	-16144	-1364	-3308	286	-9	156	129	125	8
-10144	-3908	11568	-37	144	-170	-15320	5628	-840	234	200	51	-15844	992	-1056	-434	2601	-2452	-11124	1740	12420	199	-45	-141	-16036	-3628	-1612	295	42	152	-15880	-1452	-3012	207	-204	130	129	129	8
-10032	-3960	11544	-76	129	-193	-15368	5528	-956	274	209	18	-17544	-316	-924	-1176	2333	-2161	-11096	1804	12292	140	-56	-182	-15976	-3712	-1564	270	74	119	-15860	-1572	-3020	521	-502	138	129	129	8
-10120	-3924	11612	-73	140	-168	-15544	5672	-1112	235	140	-5	-19116	-1000	-1792	-244	704	-945	-11084	1948	12424	138	-136	-155	-16212	-3688	-1476	268	123	145	-15812	-1448	-2916	654	-436	136	128	126	8
-10224	-3924	11708	-72	166	-168	-15540	5632	-1144	39	121	30	-16572	-100	-1944	567	187	-321	-11260	1688	12200	70	-14	-207	-16208	-3624	-1668	161	92	128	-15968	-1480	-3024	283	-100	264	127	131	8
-10136	-3964	11576	-39	178	-159	-15312	5452	-968	-132	139	13	-15728	312	-1324	185	319	-434	-11204	1744	12240	65	-32	-143	-16160	-3572	-1740	293	131	165	-15708	-1060	-3176	551	121	257	127	128	8
-10108	-4020	11520	-56	131	-167	-15264	5508	-888	-53	130	81	-15676	224	-1708	14	654	-630	-11056	1840	12396	85	-71	-181	-16112	-3552	-1636	202	96	133	-16020	-1180	-3100	529	-177	155	127	130	8
-9932	-3888	11520	-41	153	-162	-15332	5632	-736	348	96	2	-16048	280	-1684	-145	1441	-835	-11144	1820	12300	59	-56	-163	-16052	-3680	-1536	111	145	88	-15860	-1232	-2876	121	-299	210	127	128	8
-10136	-3992	11608	-45	151	-115	-15492	5696	-1400	482	-91	-151	-16296	52	-1840	408	1531	-774	-11084	1860	12368	80	-94	-178	-16156	-3624	-1548	14	114	116	-15920	-1292	-3168	328	-283	219	127	130	8
-10180	-3820	11672	-93	168	-213	-15368	5772	-1400	155	-136	-79	-17180	-296	-1904	404	995	-333	-11036	1852	12512	55	-79	-182	-16260	-3740	-1904	49	63	143	-15884	-1176	-3436	244	-130	283	126	131	8
-10244	-3908	11656	-81	168	-193	-15376	5616	-1100	-201	-144	-89	-16584	-168	-2020	356	445	-78	-11112	1724	12336	119	-28	-208	-16100	-3740	-1924	248	31	129	-15828	-1168	-3348	408	-52	204	127	129	8
-10048	-3896	11652	-125	160	-191	-15296	5384	-836	-303	-52	-67	-16084	264	-1312	359	125	-178	-11204	1728	12248	115	-26	-185	-16112	-3612	-1772	262	-68	136	-15784	-1268	-3304	286	-33	175	126	128	8
-10104	-3984	11632	-87	134	-144	-15452	5432	-880	92	-88	-45	-16204	248	-1404	349	45	-188	-11124	1792	12252	189	-47	-94	-16128	-3672	-1548	232	-48	124	-15856	-1404	-3096	396	-249	152	126	127	8
-10120	-3896	11700	-95	175	-166	-15316	5716	-1024	128	-32	-83	-16132	300	-1560	131	156	-213	-11152	1804	12368	129	-12	-127	-16164	-3556	-1556	77	-33	146	-15832	-1280	-3116	461	-238	246	126	127	8
-10128	-3884	11552	-105	144	-228	-15392	5524	-1108	31	-14	-82	-16204	108	-1592	106	375	-176	-11072	1968	12360	115	-36	-148	-16196	-3608	-1668	33	-74	118	-16356	-1464	-3256	-33	1	197	126	130	8
-10140	-3948	11676	-136	141	-171	-15324	5604	-1064	20	-52	-113	-15556	-132	-1796	29	425	-309	-11080	1788	12364	136	-13	-177	-16096	-3692	-2000	232	-47	187	-15828	-1124	-3316	304	227	203	126	129	8
-10172	-3932	11676	-119	194	-201	-15376	5600	-1072	-92	-46	-126	-16384	-92	-1708	193	416	-266	-11084	1700	12288	152	-29	-212	-16000	-3548	-1752	314	-85	133	-15908	-1212	-3208	405	-118	206	126	128	8
-10112	-3936	11572	-153	196	-189	-15344	5512	-996	-136	-30	-65	-16348	-76	-1576	336	302	-232	-11180	1776	12248	159	-65	-148	-16028	-3616	-1444	221	-30	104	-16220	-1624	-2908	51	-252	207	126	130	8
-10152	-3904	11656	-136	169	-186	-15340	5508	-1104	2	-30	-62	-16256	-92	-1652	383	127	-124	-11080	1776	12360	155	-101	-169	-16152	-3816	-1376	184	46	138	-15952	-1544	-3100	270	-122	158	126	129	8
-10172	-3972	11644	-152	139	-205	-15420	5440	-988	104	-3	-48	-16252	-116	-1652	327	79	-47	-11108	1872	12248	95	-17	-168	-16124	-3664	-1692	91	-33	133	-16032	-1292	-3080	125	-198	105	126	130	8
-10144	-3908	11580	-66	160	-218	-15436	5520	-1016	75	27	-47	-16268	-56	-1712	273	73	-2	-11188	1752	12424	103	-49	-176	-16240	-3544	-1832	117	-29	118	-15832	-1124	-3392	222	-236	190	126	127	8
-10132	-3920	11624	-100	158	-187	-15496	5552	-960	135	-31	-49	-16228	-100	-1764	266	173	-35	-11176	1756	12312	151	-70	-175	-16104	-3716	-1756	261	-63	118	-15808	-1352	-3088	254	-133	207	126	128	8
-10144	-3912	11608	-103	173	-165	-15428	5616	-1240	178	-92	-78	-16192	4	-2056	365	356	-61	-11160	1832	12408	167	-3	-171	-16072	-3736	-1592	358	3	172	-15796	-1504	-2868	188	-42	203	125	128	8
-10184	-3876	11636	-124	223	-152	-15276	5624	-1204	-66	-94	-91	-16116	0	-2048	334	341	-37	-11044	1828	12500	121	21	-158	-16168	-3700	-1484	116	-51	119	-15964	-1320	-3140	452	-162	182	125	128	8
-10180	-3956	11628	-135	193	-176	-15388	5492	-1072	-139	-95	-93	-16216	-84	-1816	381	202	-44	-11100	1864	12320	143	-17	-222	-16064	-3940	-1696	46	-161	173	-16036	-1288	-3328	164	-141	233	125	124	8
-10160	-3920	11648	-91	122	-199	-15344	5488	-1000	-92	-102	-65	-16192	-180	-1672	375	19	-16	-11176	1684	12188	159	132	-207	-16152	-3744	-1948	239	-186	190	-15816	-1128	-3580	-10	184	169	126	129	8
-10132	-3952	11680	-88	137	-202	-15392	5532	-1012	-45	-50	-103	-16196	48	-1672	274	-83	35	-11276	1784	12280	197	80	-135	-16136	-3464	-1768	456	-134	210	-15872	-1144	-3392	258	-200	70	125	128	8
-10052	-3924	11676	-143	138	-177	-15456	5568	-1024	135	-103	-104	-16264	12	-1932	260	70	27	-11136	1764	12380	118	18	-105	-16012	-3624	-1548	226	-146	143	-15760	-1420	-2796	122	-556	138	125	129	8
-10120	-3936	11588	-134	162	-178	-15432	5544	-1048	203	-97	-118	-16164	-16	-1968	336	221	23	-11032	1876	12384	132	-52	-134	-16212	-3736	-1324	102	-122	167	-16136	-1656	-2516	-159	-260	131	125	129	8
-10204	-4036	11684	-144	156	-174	-15416	5508	-1120	33	-196	-113	-16196	-168	-1944	377	269	-55	-11116	1832	12376	110	35	-171	-16096	-3684	-1440	126	-84	148	-15964	-1352	-3112	197	-287	86	125	128	8
-10152	-3856	11664	-102	157	-201	-15324	5648	-1000	-176	-138	-71	-16192	36	-1876	455	63	-55	-11124	1736	12188	97	-8	-141	-16100	-3612	-1524	117	-15	143	-16024	-1400	-3120	-28	-496	92	125	130	8
-10216	-3828	11584	-89	183	-200	-15408	5436	-956	-107	-107	-95	-16252	104	-1616	303	-217	53	-11084	1772	12320	148	-59	-185	-16044	-3784	-1644	174	16	140	-15704	-1268	-3120	249	-221	188	124	128	8
-10036	-4044	11652	-135	158	-175	-15548	5368	-876	217	-133	-90	-16284	-68	-1748	370	-194	50	-11128	1716	12380	159	-80	-125	-16192	-3812	-1664	137	-21	131	-16092	-1496	-2888	434	-191	100	124	129	8
-10140	-3968	11740	-119	126	-166	-15452	5616	-1100	164	-155	-89	-16248	-4	-1808	310	-66	24	-11076	1872	12468	154	-8	-140	-16224	-3680	-1592	101	-12	186	-15848	-1204	-3040	103	-60	220	124	128	8
-10136	-3972	11588	-157	204	-200	-15340	5660	-1188	-121	-151	-89	-16124	80	-1872	131	86	20	-11124	1888	12276	111	-38	-130	-16148	-3620	-1604	4	-56	165	-16020	-1392	-3096	135	-196	232	124	130	8
-10136	-3944	11536	-120	129	-200	-15312	5412	-1028	-288	-135	-54	-16160	-20	-1740	73	51	-25	-11144	1772	12420	69	-13	-177	-16196	-3740	-1772	85	-97	139	-15896	-1288	-3124	35	-134	217	124	132	8
-10200	-3948	11692	-114	128	-225	-15368	5480	-932	-208	-110	-46	-16268	92	-1644	41	-82	-55	-11164	1780	12316	131	-62	-175	-16092	-3748	-1688	172	-23	191	-15840	-1404	-3080	32	-233	79	124	126	8
-10056	-4004	11680	-104	157	-204	-15456	5472	-812	-78	-57	-71	-16324	8	-1620	76	-181	3	-11076	1844	12356	114	-47	-117	-16116	-3632	-1512	96	-30	178	-15900	-1488	-2940	-158	-317	54	124	127	8
-10028	-3972	11664	-106	150	-225	-15312	5532	-744	89	-95	-64	-16184	-140	-1780	93	-159	23	-11080	1864	12396	89	-49	-121	-16128	-3528	-1500	-104	-63	171	-15908	-1344	-3120	31	-390	90	124	128	8
-10152	-3904	11644	-109	188	-159	-15372	5532	-1060	80	-128	-55	-16196	-216	-1880	226	-23	-26	-11100	1832	12320	98	-54	-166	-16228	-3700	-1536	4	-25	104	-15880	-1300	-2996	30	-382	143	124	125	8
-10144	-3936	11656	-112	183	-197	-15332	5560	-1092	-70	-101	-63	-16152	-188	-1928	344	44	-45	-11144	1784	12288	120	-20	-174	-16156	-3684	-1728	140	-45	170	-15804	-1360	-2992	34	-10	248	124	129	8
-10196	-3952	11656	-71	119	-167	-15380	5556	-1124	-133	-124	-64	-16160	4	-1724	284	26	7	-11140	1772	12324	95	-11	-192	-16044	-3652	-1604	188	-26	178	-15888	-1388	-3196	233	-96	114	124	128	8
-10108	-3940	11748	-76	167	-215	-15364	5524	-1052	-174	-62	-64	-16296	12	-1524	173	-70	49	-11104	1644	12376	99	-39	-164	-16124	-3816	-1708	172	-45	153	-15760	-1360	-3064	261	-180	166	124	125	8
-10084	-4032	11608	-112	140	-179	-15464	5468	-744	3	-62	-19	-16228	-48	-1672	136	-129	30	-11092	1836	12304	103	-79	-116	-16084	-3704	-1492	4	-25	171	-15948	-1548	-2904	10	-246	118	124	128	8
-10104	-3968	11672	-126	155	-205	-15420	5468	-800	96	-48	-82	-16188	-4	-1628	192	-109	29	-11080	1904	12372	139	-60	-112	-16180	-3696	-1516	11	-19	157	-15900	-1148	-3008	98	-192	210	124	128	8
-10088	-3912	11696	-114	150	-156	-15492	5580	-984	68	-119	-59	-16228	8	-1912	200	20	-20	-11052	1820	12432	104	-29	-177	-16140	-3744	-1688	-20	-112	213	-15984	-1308	-3144	-97	-64	201	124	129	8
-10096	-3940	11668	-82	182	-184	-15428	5492	-1168	-157	-97	-22	-16184	-36	-1812	66	52	-51	-11184	1848	12364	144	-58	-185	-16116	-3708	-1808	211	-54	146	-15752	-1292	-3224	36	1	153	124	127	8
-10188	-3944	11628	-87	132	-192	-15432	5524	-996	-191	-94	-35	-16208	48	-1808	28	18	-8	-11160	1748	12368	137	18	-109	-16060	-3688	-1624	249	-48	127	-15912	-1516	-3116	88	-171	58	124	130	8
-10088	-3944	11616	-99	160	-157	-15360	5496	-972	-128	-78	-52	-16228	-112	-1716	19	-95	46	-11136	1788	12288	105	-60	-107	-16040	-3800	-1596	124	-63	147	-15908	-1484	-2864	10	-271	106	124	128	8
-10088	-3972	11552	-85	141	-200	-15356	5456	-800	84	-65	-51	-16256	-60	-1760	196	-132	50	-11068	1852	12288	106	-46	-137	-16152	-3664	-1372	20	0	196	-15928	-1452	-2800	86	-307	172	124	127	8
-10156	-3940	11628	-88	146	-201	-15392	5508	-1100	72	-79	-27	-16224	-156	-1792	296	-42	9	-11112	1932	12376	88	-65	-167	-16228	-3608	-1568	-13	-68	167	-16100	-1252	-3180	-153	-55	152	124	128	8
-10156	-4016	11620	-123	192	-197	-15468	5544	-1116	-31	-103	-67	-16248	-76	-1852	229	45	-30	-11172	1720	12484	117	-31	-133	-16172	-3740	-1704	195	-8	166	-15948	-1324	-3140	16	-114	99	124	130	8
-10196	-3912	11548	-93	179	-163	-15312	5688	-952	-205	-96	-54	-16128	52	-1768	147	23	3	-11220	1784	12456	151	-56	-166	-16132	-3748	-1636	242	-23	188	-15832	-1280	-3100	-24	-198	110	124	129	8
-10176	-3896	11668	-111	136	-192	-15368	5424	-880	-123	-71	-19	-16232	80	-1552	173	-82	37	-11128	1848	12312	117	-41	-159	-16096	-3648	-1524	22	-8	214	-16004	-1460	-2860	-26	-426	121	124	127	8
-10012	-3964	11688	-99	139	-186	-15428	5440	-704	32	-36	-10	-16308	-108	-1440	118	-149	22	-11120	1884	12396	130	-67	-147	-16136	-3792	-1472	-7	23	195	-15872	-1336	-2772	-257	-233	106	124	129	8
-10124	-3952	11676	-87	132	-203	-15412	5484	-968	149	-17	-35	-16356	0	-1704	126	-85	38	-11120	1836	12464	135	-117	-145	-16136	-3672	-1596	-24	10	164	-15924	-1304	-3072	68	-357	93	125	130	8
-10116	-3948	11668	-69	142	-141	-15452	5584	-1096	-27	-29	-3	-16212	-148	-1860	113	17	-50	-11192	1848	12432	140	-43	-161	-16152	-3680	-1832	81	-4	155	-15928	-1300	-3132	99	-364	107	125	129	8
-10168	-3988	11620	-92	172	-158	-15372	5580	-1116	-144	-7	-11	-16136	-120	-1756	181	3	-19	-11164	1792	12380	119	-2	-174	-16088	-3800	-1748	174	22	153	-15780	-1400	-2908	208	-4	259	124	128	8
-10192	-3884	11728	-123	123	-185	-15312	5624	-924	-126	-45	7	-16124	-12	-1748	173	-24	31	-11120	1784	12352	115	-49	-140	-16032	-3724	-1420	94	0	180	-15920	-1584	-2896	46	-32	241	124	127	8
-10104	-3908	11684	-90	165	-173	-15460	5496	-796	-63	2	0	-16248	140	-1504	66	-102	79	-11056	1912	12376	116	-58	-127	-16084	-3828	-1532	-32	29	181	-15912	-1460	-2936	-64	-292	126	124	129	8
-10020	-4000	11728	-88	198	-159	-15420	5416	-852	276	-35	-59	-16160	-140	-1756	125	-67	65	-11064	1796	12384	81	-69	-144	-16208	-3684	-1540	-72	61	175	-15832	-1172	-3012	222	-261	142	125	128	8
-10124	-3944	11584	-104	181	-168	-15404	5616	-1052	110	-76	-19	-16304	-172	-1956	196	52	-25	-11072	1840	12364	58	-35	-155	-16156	-3680	-1760	-70	-3	187	-15968	-1196	-3152	35	-9	288	125	130	8
-10144	-3900	11600	-113	151	-179	-15380	5568	-1100	-54	-114	-25	-16068	-56	-1976	184	144	-64	-11132	1756	12372	93	-1	-158	-16116	-3740	-1740	177	53	192	-15876	-1396	-3024	-68	133	312	125	132	8
-10128	-3920	11668	-83	194	-159	-15336	5588	-1124	-190	-57	-68	-16232	52	-1668	136	56	6	-11056	1808	12384	135	-57	-182	-16064	-3684	-1608	124	-59	191	-15780	-1400	-3196	57	44	185	125	127	8
-10144	-3880	11628	-93	139	-170	-15416	5468	-728	-137	-60	-66	-16236	4	-1468	43	-109	20	-11160	1736	12312	160	-54	-164	-16068	-3740	-1624	18	-40	173	-15992	-1460	-3080	8	-295	86	125	128	8
-10016	-4000	11648	-140	141	-184	-15424	5400	-728	86	-22	-91	-16252	-68	-1612	69	-87	55	-11096	1716	12412	140	-55	-147	-16140	-3644	-1732	-91	-59	206	-15812	-1368	-3120	-24	-188	165	125	126	8
-10140	-3972	11600	-142	181	-156	-15432	5636	-852	114	-75	-21	-16216	-144	-1760	156	-5	32	-11124	1804	12328	140	-31	-165	-16120	-3704	-1604	27	4	196	-15840	-1336	-3044	45	-212	172	125	127	8
-10144	-3860	11592	-124	176	-171	-15412	5508	-1020	-110	-44	-34	-16140	-84	-1788	155	107	-11	-11128	1808	12328	166	-69	-167	-16000	-3732	-1616	98	25	216	-15776	-1328	-2992	-26	-36	233	125	122	8
-10168	-3920	11728	-109	161	-175	-15452	5440	-1012	-107	-57	-17	-16172	-72	-1772	139	174	9	-11156	1808	12408	134	-68	-166	-16152	-3708	-1624	69	16	202	-15876	-1432	-3104	6	-76	146	125	129	8
-10144	-3976	11596	-84	157	-194	-15356	5512	-980	-139	20	-17	-16232	-80	-1508	165	-23	47	-11120	1760	12496	119	-25	-149	-16124	-3684	-1604	75	33	190	-15940	-1424	-3056	155	-187	177	125	129	8
-10124	-4016	11652	-69	157	-175	-15428	5452	-788	218	-21	7	-16280	-44	-1540	176	-85	77	-11124	1888	12360	98	-61	-165	-16208	-3672	-1572	-2	-36	245	-15880	-1324	-3028	47	-104	257	125	131	8
-10116	-3964	11700	-83	158	-137	-15420	5556	-892	108	-17	20	-16272	-132	-1752	176	-44	60	-11168	1852	12380	114	-28	-189	-16232	-3828	-1784	12	-90	230	-15728	-1136	-3180	-226	97	253	125	128	8
-10228	-3964	11672	-61	145	-116	-15420	5608	-1192	16	-66	-17	-16100	-4	-1896	179	152	8	-11176	1820	12228	137	22	-148	-16048	-3664	-1808	165	-51	188	-15808	-1224	-3200	144	-180	125	125	128	8
-10180	-3968	11656	-77	153	-182	-15348	5592	-1132	-143	-62	-20	-16184	-4	-1836	172	87	52	-11100	1796	12336	121	-35	-147	-16068	-3604	-1764	122	-41	189	-15692	-1292	-3004	98	-276	209	125	128	8
-10172	-3868	11604	-102	132	-164	-15372	5516	-916	-86	-61	-2	-16188	-44	-1588	206	-6	67	-11100	1808	12268	146	-73	-152	-16112	-3668	-1476	60	-16	170	-16056	-1644	-2708	40	-256	245	125	130	8
-10056	-3956	11652	-66	161	-192	-15440	5472	-752	37	-43	21	-16260	-4	-1604	245	-75	40	-11060	1796	12372	125	-58	-173	-16144	-3784	-1528	70	22	220	-16056	-1504	-2852	23	-148	210	125	131	8
-10120	-3920	11736	-102	161	-126	-15476	5556	-880	165	-63	-41	-16240	32	-1776	223	-11	48	-11112	1868	12372	102	-25	-163	-16196	-3740	-1592	42	6	264	-15904	-1160	-3040	69	-182	134	126	129	8
-10156	-3908	11576	-69	155	-157	-15364	5620	-1016	-31	-93	5	-16188	-8	-1880	227	67	33	-11172	1780	12324	111	47	-179	-16172	-3644	-1752	51	-6	226	-15852	-1032	-3192	158	-248	136	126	128	8
-10120	-3892	11672	-116	155	-174	-15376	5508	-1060	-98	-82	-6	-16200	-4	-1724	200	60	49	-11112	1768	12252	123	-54	-147	-16124	-3612	-1716	152	-12	207	-15808	-1284	-2892	212	-120	276	126	127	8
-10020	-3896	11588	-100	128	-175	-15320	5560	-844	-40	-37	-16	-16252	-8	-1540	230	-27	57	-11172	1772	12292	135	-64	-151	-16116	-3616	-1524	92	-45	178	-15940	-1464	-3016	-78	-51	240	125	128	8
-10076	-3888	11608	-87	158	-161	-15428	5480	-844	1	-17	-10	-16160	112	-1572	102	-6	47	-11088	1864	12356	120	-55	-146	-16048	-3680	-1492	67	-12	202	-15860	-1420	-2900	138	-179	158	126	125	8
-10144	-3964	11556	-114	198	-153	-15432	5460	-988	132	-44	4	-16188	-36	-1872	84	-21	41	-11084	1760	12356	95	-54	-190	-16156	-3720	-1748	46	47	187	-15984	-1324	-3088	170	-220	136	126	128	8
-10112	-3936	11628	-96	171	-157	-15348	5536	-936	11	-55	-8	-16212	-128	-1876	197	-14	14	-11164	1740	12352	125	-13	-168	-16184	-3756	-1688	137	11	217	-15856	-1276	-3148	171	-61	262	126	127	8
-10160	-3952	11700	-99	121	-182	-15344	5620	-1096	-64	-21	-13	-16216	16	-1832	242	-38	9	-11076	1800	12300	140	-49	-153	-16128	-3636	-1652	160	-19	200	-15920	-1308	-2968	116	-95	216	126	129	8
-10148	-3908	11656	-70	142	-161	-15348	5560	-964	-107	-37	-29	-16256	60	-1664	196	-36	25	-11140	1808	12288	128	-68	-120	-16148	-3596	-1636	97	8	207	-15932	-1336	-2968	0	-130	226	126	129	8
-10088	-3908	11772	-58	173	-164	-15500	5524	-892	-65	18	-10	-16196	24	-1476	151	-68	34	-11040	1712	12292	151	-83	-149	-16080	-3780	-1572	126	-10	161	-15860	-1604	-3004	230	-236	160	126	129	8
-10096	-3992	11644	-98	168	-111	-15484	5508	-840	262	-74	-37	-16248	-148	-1736	282	-31	44	-11028	1820	12392	114	-92	-164	-16152	-3776	-1656	180	21	216	-15956	-1420	-3036	300	-131	116	126	127	8
-10196	-3920	11640	-166	193	-152	-15416	5592	-1008	86	-43	-5	-16268	-104	-1788	312	43	12	-11060	1904	12440	139	-29	-145	-16224	-3600	-1704	125	40	180	-15976	-1084	-3108	356	-60	239	126	128	8
-10132	-3984	11616	-141	137	-151	-15436	5668	-1104	42	-49	-27	-16140	-96	-1724	271	42	24	-11164	1808	12324	138	5	-144	-16164	-3644	-1780	153	-9	172	-16068	-1340	-3136	82	-117	191	126	128	8
-10160	-3900	11704	-94	142	-182	-15384	5544	-852	-78	-39	23	-16152	-84	-1680	191	26	33	-11232	1784	12372	165	-18	-115	-16208	-3544	-1820	262	-24	176	-15812	-1320	-3088	225	-130	170	126	129	8
-10108	-3932	11688	-84	124	-186	-15436	5536	-812	-52	-16	28	-16200	-20	-1664	192	-86	57	-11188	1768	12360	146	-63	-168	-16052	-3608	-1528	213	8	187	-16036	-1396	-2828	182	-226	108	126	127	8
-10112	-3964	11672	-93	171	-162	-15400	5572	-788	170	7	-3	-16240	-60	-1628	234	-72	75	-11100	1804	12388	108	-138	-146	-16128	-3732	-1488	44	2	190	-15904	-1476	-3000	112	-293	168	126	126	8
-10164	-3900	11632	-146	225	-154	-15464	5620	-1056	243	-33	25	-16356	-156	-1880	307	-76	53	-11064	1804	12372	91	-38	-100	-16076	-3844	-1536	193	66	205	-15916	-1544	-2992	209	-341	169	126	130	8
-10172	-3888	11608	-96	177	-145	-15356	5568	-1068	74	-26	-13	-16260	-156	-1860	340	-7	74	-11116	1884	12368	149	-46	-177	-16184	-3668	-1644	79	12	199	-15856	-1268	-3084	238	-166	207	126	127	8
-10136	-3856	11668	-76	147	-122	-15384	5576	-1004	-147	16	12	-16208	-16	-1668	315	-122	144	-11068	1856	12384	99	-7	-165	-16192	-3708	-1804	126	-27	183	-15900	-1300	-3124	239	-139	239	126	127	8
-10180	-3944	11524	-99	126	-156	-15352	5552	-880	-124	-22	-2	-16244	-88	-1532	242	-179	165	-11204	1828	12284	177	0	-134	-16116	-3696	-1756	215	27	220	-15832	-1396	-3108	261	-130	232	126	127	8
-10156	-3876	11660	-126	144	-186	-15372	5496	-832	148	44	68	-16268	-20	-1540	327	-277	212	-11128	1728	12452	194	-9	-97	-16104	-3736	-1744	197	-18	204	-15976	-1560	-3040	216	-199	187	126	126	8
-10092	-4040	11632	-139	144	-140	-15444	5448	-1144	345	-38	13	-16176	32	-1736	389	-134	187	-11124	1800	12316	185	-43	-115	-16116	-3664	-1628	112	54	237	-15908	-1372	-2920	15	-258	181	126	128	8
-10176	-3876	11624	-125	154	-143	-15324	5664	-1140	35	-26	79	-16212	64	-1916	294	22	84	-11100	1872	12308	128	-5	-111	-16136	-3636	-1588	22	81	260	-15920	-1424	-3004	20	-340	137	126	128	8
-10172	-3896	11652	-111	144	-156	-15280	5660	-1128	-203	-24	38	-16140	192	-1944	169	23	52	-11080	1968	12340	101	57	-124	-16296	-3700	-1744	85	12	261	-15908	-1188	-3012	175	-310	232	126	132	8
-10188	-3872	11756	-62	122	-205	-15416	5604	-900	-216	-3	57	-16248	68	-1664	47	-69	133	-11148	1792	12392	116	25	-88	-16108	-3692	-1660	147	65	216	-15848	-1164	-2928	-30	-78	320	126	129	8
-10108	-3904	11672	-69	126	-185	-15336	5472	-812	-82	-2	61	-16256	0	-1532	7	-180	87	-11152	1752	12360	146	54	-132	-16188	-3628	-1688	221	38	247	-15880	-1408	-3052	159	98	255	126	128	8
-10116	-3996	11700	-70	154	-119	-15460	5504	-868	349	-83	24	-16324	-76	-1772	135	-188	106	-11140	1816	12288	144	37	-113	-16052	-3672	-1584	157	20	247	-16032	-1484	-2984	104	-276	170	126	129	8
-10188	-3848	11564	-111	157	-131	-15332	5760	-1204	49	-92	10	-16188	20	-1972	154	-74	150	-11124	1832	12376	100	-21	-76	-16092	-3696	-1584	73	45	220	-15996	-1424	-2708	8	-526	119	124	133	8
-10120	-3864	11668	-84	167	-162	-15364	5532	-960	-133	-100	-9	-16176	-24	-1860	99	-172	164	-11096	1864	12364	65	-34	-142	-16228	-3552	-1636	-12	73	203	-15828	-1196	-3004	113	-463	76	126	128	8
-10208	-3868	11704	-100	110	-162	-15324	5576	-1036	-201	-70	25	-16312	-184	-1696	155	-393	266	-11056	1840	12384	91	-44	-149	-16176	-3572	-1752	67	-22	202	-15724	-1048	-3008	373	-500	214	126	121	8
-10100	-3896	11696	-104	116	-194	-15356	5572	-724	-170	-36	-10	-16204	28	-1472	255	-393	251	-11088	1952	12332	133	3	-168	-16240	-3704	-1808	181	-68	186	-15920	-1152	-3336	-139	-11	256	126	127	8
-10028	-4012	11644	-104	128	-169	-15452	5516	-692	291	-130	-14	-16228	84	-1568	356	-493	251	-11132	1700	12404	153	-26	-117	-16148	-3800	-1848	352	-85	182	-15768	-1324	-3284	293	-108	136	127	127	8
-10004	-3984	11772	-92	150	-131	-15292	5860	-1148	143	-110	-9	-16712	-92	-1628	497	-935	446	-11192	1796	12436	147	-5	-77	-16140	-3580	-1736	201	-165	186	-15748	-1200	-3124	336	-350	118	127	123	8
-10160	-3952	11748	-138	166	-181	-15496	5544	-1180	-241	-125	-81	-16620	-40	-1980	546	-1105	689	-11176	1860	12320	143	-28	-71	-16144	-3608	-1468	74	-113	180	-16028	-1476	-2712	-284	-340	139	126	127	8
-10196	-3876	11648	-98	150	-198	-15352	5516	-808	-153	-146	-30	-15920	288	-1544	686	-944	466	-11108	1904	12408	161	-47	-129	-16184	-3624	-1452	47	-78	161	-15996	-1484	-2756	-97	-342	44	127	127	8
-10128	-3860	11664	-119	166	-162	-15236	5516	-804	-101	-37	-10	-16560	260	-1300	647	-1188	503	-11068	1956	12368	114	-33	-132	-16116	-3516	-1628	7	-66	203	-15880	-1088	-2772	-82	-300	106	126	125	8
-10080	-3932	11700	-136	132	-169	-15384	5608	-752	-11	-39	-41	-16084	464	-1248	632	-816	447	-11168	1856	12292	158	-53	-151	-16140	-3636	-1632	62	6	135	-15852	-1312	-2732	1	-204	148	126	126	8
-10128	-3940	11616	-140	183	-141	-15388	5648	-1000	242	-73	10	-15996	488	-1668	630	-361	277	-11068	1836	12300	142	-42	-153	-16212	-3716	-1560	48	-22	123	-16004	-1500	-2632	75	-101	155	126	130	8
-10116	-3884	11784	-154	178	-174	-15404	5584	-992	-24	-23	-88	-15892	312	-1904	289	50	83	-11124	1884	12336	93	13	-143	-16060	-3756	-1400	42	104	159	-16020	-1464	-2552	-256	-28	148	126	130	8
-10172	-3880	11708	-132	174	-206	-15336	5660	-1136	-88	-90	-94	-15800	476	-1792	111	342	-164	-11092	1908	12356	86	-37	-224	-16128	-3500	-1512	-45	129	138	-15920	-1316	-2856	2	-245	37	126	130	8
-10164	-3836	11664	-110	166	-170	-15208	5668	-964	-321	-4	-100	-16316	420	-1228	-184	308	-177	-11128	1880	12272	95	-56	-214	-16172	-3560	-1780	-48	60	151	-15680	-1052	-2840	106	-194	174	127	131	8
-10084	-3928	11648	-97	109	-191	-15432	5456	-736	-191	-6	-99	-16576	172	-1100	-347	100	-131	-11104	1708	12356	137	-21	-157	-16156	-3700	-1808	106	1	127	-15668	-1156	-3032	32	143	199	126	126	8
-10048	-3996	11748	-142	150	-173	-15560	5480	-832	177	-79	-81	-16208	252	-1492	-120	268	-245	-11128	1868	12400	112	-70	-145	-16144	-3576	-1468	137	73	88	-16280	-1528	-2792	-148	70	88	126	132	8
-10128	-3844	11696	-145	216	-161	-15360	5652	-992	-23	21	-93	-16084	-28	-1736	-127	419	-332	-11152	1792	12388	71	-23	-197	-16072	-3660	-1352	16	127	64	-16012	-1508	-2604	-246	-116	86	126	127	8
-10192	-3856	11768	-102	169	-148	-15336	5668	-1164	-132	-12	-113	-16484	40	-1464	-110	374	-268	-11140	1788	12280	96	-118	-177	-16000	-3676	-1680	29	246	93	-15824	-1564	-2636	12	-324	1	125	125	8
-10140	-3836	11616	-108	200	-227	-15356	5660	-892	-211	28	-121	-16464	-92	-1244	88	148	-121	-11056	1952	12372	70	-105	-208	-16124	-3512	-1616	-153	240	58	-15952	-1388	-2724	-147	-346	-1	127	124	8
-10124	-3908	11628	-113	137	-204	-15300	5440	-640	-79	94	-87	-16560	-160	-1196	210	-301	85	-11088	1836	12316	60	-75	-217	-16204	-3784	-1864	-113	257	51	-15956	-1232	-3000	-82	-189	57	127	127	8
-10132	-3972	11724	-104	174	-201	-15440	5432	-752	175	101	-110	-16372	56	-1288	324	-561	128	-11136	1892	12344	51	-25	-244	-16180	-3664	-1864	98	242	46	-15768	-1184	-3112	-203	-18	67	126	125	8
-10112	-3976	11584	-60	172	-177	-15404	5496	-1116	204	83	-82	-16156	24	-1496	286	-403	47	-11164	1844	12264	109	-100	-187	-16128	-3640	-1796	82	179	43	-15964	-1292	-3296	-72	-123	-56	125	126	8
-10140	-3872	11616	-98	183	-142	-15248	5712	-1256	20	49	-74	-16636	100	-1276	353	-548	106	-11164	1820	12408	104	-119	-177	-16096	-3792	-1936	158	104	41	-15952	-1348	-3268	23	-315	-79	127	127	8
-10188	-3864	11572	-111	185	-188	-15396	5744	-1016	-188	74	-134	-17060	-164	-1456	560	-757	531	-11096	1744	12480	150	-94	-141	-16064	-3776	-1860	165	137	58	-15844	-1468	-2872	-112	-383	-61	126	130	8
-10192	-3924	11652	-138	173	-244	-15416	5476	-836	-104	63	-162	-16296	272	-1400	608	-923	767	-11188	1868	12456	150	-72	-111	-16124	-3640	-1740	115	116	52	-15912	-1448	-3096	-81	-420	-86	126	130	8
-10060	-4012	11652	-109	174	-273	-15396	5368	-788	188	102	-133	-16636	260	-1364	890	-1095	649	-11128	1996	12344	123	-104	-146	-16156	-3648	-1628	-79	72	74	-16072	-1484	-2648	-217	-103	113	126	129	8
-10008	-4064	11656	-151	220	-183	-15488	5516	-836	528	62	-130	-16156	136	-1228	1127	-949	252	-11148	1896	12392	67	-52	-191	-16116	-3736	-1852	16	72	53	-16016	-1380	-3112	68	63	17	127	126	8
-10140	-3900	11684	-173	241	-182	-15424	5548	-960	507	13	-117	-15944	88	-1684	980	-439	239	-11164	1792	12360	102	-25	-166	-16156	-3716	-1740	77	92	45	-16020	-1504	-3160	32	-67	-80	127	129	8
-10196	-3792	11600	-121	192	-228	-15332	5708	-1260	-75	1	-150	-15868	396	-1876	472	-192	225	-11064	1760	12380	82	-83	-185	-15980	-3616	-1804	13	30	53	-15740	-1220	-3056	56	-229	29	126	126	8
-10152	-3896	11748	-91	162	-240	-15380	5572	-1324	-53	-136	-207	-15232	544	-1848	264	11	26	-11100	1796	12316	79	-76	-166	-16092	-3672	-1756	-71	56	31	-15872	-1544	-2840	-175	-401	98	126	127	8
-10084	-3920	11624	-138	180	-215	-15428	5440	-1000	-72	-198	-161	-15336	572	-1616	2	137	-387	-11036	1860	12348	64	-130	-195	-16044	-3704	-1712	-114	59	79	-15908	-1856	-2824	-613	-248	-10	127	130	8
-10148	-4028	11736	-134	156	-166	-15476	5552	-1092	-52	-307	-169	-15264	668	-1884	-444	907	-934	-11108	1836	12440	77	-94	-146	-16092	-3896	-1816	-61	54	110	-15932	-1500	-3024	-203	-190	-44	127	128	8
-10140	-3896	11616	-109	163	-162	-15488	5616	-1268	-309	-351	-143	-15592	864	-1876	-1224	1998	-1466	-11116	1820	12232	87	-71	-152	-16124	-3548	-1848	-48	79	121	-15916	-1400	-3020	-82	-319	37	127	128	8
-10216	-3892	11652	-145	184	-228	-15340	5528	-984	-483	-333	-161	-16580	304	-1356	-1825	2552	-1580	-11048	1832	12420	60	-132	-150	-16120	-3728	-1564	-109	39	129	-16164	-1688	-2500	-463	-214	216	127	129	8
-10092	-3864	11636	-137	107	-231	-15320	5452	-744	-436	-286	-133	-17448	-248	-928	-1755	1830	-1204	-11124	1760	12432	68	-93	-186	-16068	-3812	-1772	-27	75	196	-15960	-1640	-2864	-255	26	72	127	128	8
-10112	-3952	11684	-104	144	-202	-15356	5360	-424	-395	-136	-56	-17124	-476	-800	-1182	551	-771	-11044	1952	12328	125	-63	-143	-16224	-3636	-1696	58	96	189	-15904	-1304	-2816	-22	-230	112	127	131	8
-10068	-4016	11680	-129	155	-159	-15492	5300	-588	-80	-14	-88	-17048	-808	-1060	-671	-485	-503	-11196	1784	12336	79	-99	-210	-16060	-3568	-1720	-263	72	112	-15928	-1276	-2892	-139	-372	100	126	126	8
-10232	-4064	11760	-115	181	-171	-15508	5432	-996	43	-59	-38	-16456	-908	-1448	-237	-490	-226	-11096	1816	12368	97	-130	-232	-16048	-3880	-1864	-168	150	144	-15960	-1768	-2856	-230	-409	90	127	123	8
-10152	-3936	11592	-95	200	-171	-15352	5512	-1136	-101	11	-29	-15956	-692	-1424	99	-48	-103	-11140	1796	12324	79	-172	-232	-16072	-3776	-1716	-77	143	164	-15952	-1612	-3028	-203	-397	25	126	127	8
-10220	-3856	11632	-86	164	-168	-15324	5520	-1012	-121	-33	36	-16004	-452	-1448	224	224	108	-11116	1812	12340	110	-99	-149	-16028	-3600	-1840	-43	146	115	-15960	-1468	-2968	77	-700	-20	126	130	8
-10136	-3976	11580	-73	133	-210	-15432	5476	-820	90	-50	-22	-16336	-204	-1436	608	154	185	-11032	1788	12400	71	-136	-214	-16068	-3700	-1928	-102	152	146	-15816	-1468	-3048	111	-754	13	125	125	8
-10096	-3940	11652	-53	86	-182	-15404	5424	-788	355	-20	-11	-16444	-108	-1364	877	-63	67	-11120	1872	12472	133	-112	-156	-16104	-3856	-1972	58	152	97	-15960	-1440	-3128	121	-673	-100	126	131	8
-10076	-3940	11684	-93	146	-181	-15316	5512	-992	375	20	19	-16244	-128	-1360	734	-400	183	-11104	1712	12352	179	-133	-138	-16212	-3672	-2148	142	61	133	-15992	-1344	-2776	58	-630	-143	126	123	8
-10100	-3968	11708	-68	162	-179	-15452	5548	-976	182	76	53	-16572	56	-1464	305	-768	331	-11088	1864	12388	151	9	-162	-16256	-3728	-1684	-47	-14	53	-16288	-2024	-2796	-746	-190	-149	125	131	8
-10160	-3904	11728	-68	148	-145	-15456	5436	-928	145	1	89	-16252	308	-1884	37	-865	355	-11104	1772	12380	159	-85	-205	-16000	-3840	-1796	-26	-70	106	-15852	-1364	-2676	222	57	-331	125	127	8
-10120	-3912	11608	-60	111	-150	-15420	5556	-976	11	46	69	-16076	384	-1468	-159	-837	190	-11112	1832	12440	205	-150	-152	-16168	-3832	-1916	127	-73	124	-15892	-1436	-2712	-202	603	-653	125	128	8
-10060	-4012	11628	-67	128	-137	-15432	5460	-776	-77	30	66	-16172	28	-1396	-328	-578	24	-11176	1856	12448	413	-236	-360	-16100	-3068	-1548	-1211	-1622	-267	-15824	-1020	-3028	-197	-83	-630	125	127	8
-10128	-3912	11672	-90	138	-98	-15412	5648	-1116	263	-113	79	-16100	-232	-1768	-194	-142	-43	-11112	1696	12364	412	-196	-91	-15948	-3920	-1768	-1755	-1385	-130	-15948	-1764	-2980	-1585	-929	-382	124	130	8
-10132	-3992	11684	-121	186	-131	-15416	5628	-1248	-47	-221	11	-16088	-356	-2184	-146	7	9	-11068	1836	12572	246	-70	-178	-16076	-4048	-1892	-1081	-736	68	-15696	-1668	-3080	-1008	-633	-336	124	125	8
-10208	-3872	11600	-73	112	-161	-15344	5576	-1116	-275	-275	6	-16056	-348	-1960	19	-47	86	-11224	1688	12384	380	22	-110	-16120	-3964	-2128	-843	-1031	41	-15652	-1668	-2984	-597	-395	-244	123	125	8
-10184	-3852	11620	-85	104	-189	-15384	5560	-1080	-298	-317	31	-16196	-152	-1536	106	-323	129	-11068	1996	12288	447	21	-52	-16100	-3724	-1720	-927	-920	117	-15932	-1620	-2808	-470	-541	-103	124	128	8
-10176	-3916	11676	-76	85	-200	-15416	5632	-808	-368	-338	-6	-16576	248	-1444	-58	-780	376	-11088	1744	12512	462	64	-34	-16124	-3748	-1540	-913	-778	154	-15960	-1668	-2768	-513	-570	-89	123	121	8
-9956	-3988	11788	-133	105	-212	-15464	5456	-696	-37	-401	-15	-16144	160	-1120	-188	-902	350	-11108	1952	12392	394	-49	-26	-16192	-3824	-1452	-852	-722	165	-15904	-2056	-2728	-471	-572	-77	122	125	8
-10076	-3908	11600	-119	147	-174	-15380	5596	-936	-33	-386	-35	-16264	-64	-1056	49	-768	193	-11040	1940	12292	541	-98	18	-16068	-3724	-1616	-1071	-728	176	-15932	-1608	-2508	-560	-620	-61	124	124	8
-10192	-3940	11632	-113	132	-142	-15420	5476	-980	-118	-391	-11	-16780	-360	-908	127	-1405	340	-11060	2116	12348	366	-65	-35	-16048	-3748	-1560	-927	-637	202	-15840	-1404	-2860	-170	-413	49	122	125	8
-10212	-3996	11664	-117	92	-160	-15424	5412	-828	-180	-335	35	-17136	-88	-1364	30	-2099	1048	-11096	1920	12360	253	-75	-63	-16136	-3792	-1756	-125	-242	290	-15872	-1472	-2764	-20	-431	138	121	127	8
-10140	-3840	11588	-95	129	-161	-15200	5716	-624	-389	-113	72	-16028	372	-512	-757	-1766	975	-11072	2024	12388	211	-19	-74	-16196	-3744	-1508	169	-96	249	-16184	-1720	-2820	-170	-304	149	120	125	8
-10064	-3972	11644	-119	162	-185	-15312	5320	-616	-282	-14	66	-15832	424	-88	-369	-1453	563	-11060	1912	12428	90	27	-105	-16172	-3780	-1804	352	-25	305	-15876	-1752	-2780	281	75	78	121	126	8
-10076	-3944	11708	-100	120	-176	-15432	5280	-556	214	-24	108	-16788	-300	-672	110	-1563	935	-11292	1800	12420	243	26	-78	-16196	-3480	-1444	44	-352	230	-16004	-1480	-2476	273	-230	163	121	127	8
-10148	-3916	11656	-45	121	-151	-15428	5744	-796	223	-55	47	-16560	-100	-1236	154	-1174	1178	-11032	2052	12324	369	29	-123	-16132	-3588	-1332	-559	-424	142	-16160	-1552	-2396	-200	-650	118	121	122	8
-10176	-3956	11704	-45	126	-144	-15356	5700	-972	41	5	50	-15708	540	-920	4	-825	832	-10964	2012	12320	201	-40	-142	-16028	-3888	-1444	-257	-163	154	-16044	-1892	-2448	-153	-516	38	125	133	8
-10152	-3916	11648	-108	105	-188	-15292	5440	-872	16	-3	53	-16604	-24	-372	237	-1182	957	-11140	1912	12388	201	-18	-140	-16100	-3772	-1692	-67	-140	237	-15688	-1624	-2504	93	-157	114	122	129	8
-10200	-3920	11660	-71	100	-139	-15496	5640	-844	76	3	75	-18288	-464	-576	419	-1944	1840	-11064	2004	12284	296	-3	-102	-16172	-3608	-1684	-161	-218	192	-15880	-1508	-2568	278	-170	88	121	130	8
-10148	-3916	11684	-82	156	-182	-15368	5600	-792	-99	108	31	-17016	252	-216	703	-2628	2392	-11044	1920	12372	235	-2	-127	-16100	-3792	-1456	97	-82	143	-16052	-1736	-2648	-70	-237	316	121	124	8
-10048	-4000	11608	-24	150	-169	-15324	5404	-696	87	171	59	-14300	1564	-844	1595	-2070	1801	-11040	1920	12364	150	-27	-157	-16128	-3824	-1444	369	134	223	-15992	-1996	-2496	43	-237	204	124	124	8
-10092	-4012	11596	-68	131	-163	-15340	5508	-1000	296	111	41	-15784	748	-844	859	-1422	995	-11128	1972	12256	69	-29	-132	-16144	-3704	-1540	534	263	218	-15944	-1800	-2512	563	-211	204	123	121	8
-10104	-3872	11764	-95	140	-120	-15492	5900	-1320	238	-42	34	-15972	664	-1164	479	-336	819	-11048	1984	12280	-17	4	-141	-16068	-3560	-1408	793	411	243	-15976	-1700	-2652	684	-124	115	121	119	8
-10176	-3868	11680	-139	186	-171	-15376	5844	-1188	-210	-97	-66	-15856	704	-1704	246	182	363	-10992	1928	12356	-82	36	-227	-16324	-3672	-1764	930	428	248	-15952	-1476	-3112	512	147	249	118	124	8
-10104	-3956	11632	-119	123	-170	-15380	5508	-980	-252	-135	-41	-17128	728	40	509	-285	401	-11172	1704	12472	225	-64	-154	-16028	-3576	-1620	172	-254	124	-15812	-1512	-2808	201	-158	297	124	131	8
-10128	-3948	11712	-84	142	-195	-15412	5564	-808	-200	-127	-8	-17156	324	-76	620	-214	929	-11060	1936	12248	209	-133	-141	-16096	-3764	-1492	-161	-300	169	-16012	-1696	-2336	-86	-451	163	122	127	8
-10076	-3972	11716	-95	109	-185	-15336	5524	-628	-249	-7	7	-16956	856	-80	652	-553	1006	-11076	2008	12360	153	-65	-135	-16056	-3860	-1396	-23	-106	199	-16016	-1844	-2292	28	-483	95	125	127	8
-10076	-3988	11692	-68	153	-165	-15436	5456	-728	-36	-18	36	-15964	612	-552	1132	-594	669	-11120	2052	12316	84	-69	-136	-16156	-3624	-1384	135	58	231	-16076	-1924	-2448	-41	-110	127	121	137	8
-10164	-3972	11704	-50	136	-155	-15300	5476	-908	111	-66	23	-15900	548	-680	1220	-529	459	-11156	1988	12324	108	-14	-184	-16172	-3632	-1528	177	12	224	-15832	-1504	-2612	155	10	163	122	130	8
-10204	-3932	11648	-77	119	-165	-15392	5680	-1036	-21	-140	28	-16088	708	-1112	1298	-178	458	-11132	1904	12244	164	-48	-176	-16140	-3632	-1752	138	-10	173	-15960	-1324	-2764	-75	-162	246	121	130	8
-10116	-3916	11648	-113	139	-200	-15380	5784	-864	-278	-147	-20	-15680	1056	-816	1025	-49	139	-11092	1900	12476	119	-29	-189	-16092	-3760	-1544	59	-23	143	-15916	-1872	-2536	22	-440	245	122	125	8
-10108	-3880	11700	-72	149	-224	-15404	5552	-848	-295	-188	-45	-16004	988	-364	570	-165	167	-11040	1904	12492	119	-67	-164	-16036	-3892	-1432	87	56	219	-16012	-2232	-2280	162	-229	166	123	129	8
-10076	-3900	11692	-84	114	-215	-15372	5592	-768	-169	-210	-3	-16784	1036	-280	252	-451	352	-11156	1800	12404	256	-89	-182	-16124	-3604	-1560	-526	-398	194	-16028	-1640	-2672	350	-88	-17	127	125	8
-10004	-3988	11980	-106	115	-213	-15388	5648	-856	-131	-171	-28	-16572	676	-420	483	-350	363	-11044	2040	12328	247	-148	-139	-16180	-3600	-1568	-574	-379	183	-16068	-1112	-2672	-248	-307	162	118	126	8
-10128	-3960	11660	-92	170	-196	-15308	5528	-760	-381	-109	20	-15628	616	-284	180	-261	175	-11156	1972	12408	157	-44	-118	-16168	-3856	-1692	-198	-210	145	-15924	-1584	-2660	-185	-438	225	123	117	8
-10140	-3920	11600	-55	134	-199	-15368	5396	-740	-306	-125	77	-16192	736	-116	-229	-119	42	-11088	1948	12408	218	-64	-84	-16108	-3768	-1484	-18	-43	225	-15940	-2032	-2520	-162	-250	120	125	119	8
-10072	-3896	11592	-61	118	-175	-15376	5572	-640	-212	-77	90	-16364	944	12	-482	-192	105	-11088	1864	12388	101	-38	-150	-16084	-3816	-1480	88	57	202	-16008	-1712	-2588	-7	-82	164	124	128	8
-10068	-3828	11704	-80	172	-168	-15492	5648	-620	-281	33	125	-16504	848	-164	-229	-138	214	-11108	2000	12336	66	-13	-94	-16092	-3700	-1628	423	183	277	-15984	-1832	-2760	291	-137	206	124	126	8
-10072	-3892	11740	-99	168	-162	-15320	5536	-608	-127	53	42	-16236	560	-224	-77	-293	232	-11060	2064	12344	-16	41	-121	-16160	-3788	-1688	791	307	274	-15908	-1868	-2804	460	-78	286	124	127	8
-10156	-3972	11728	-138	129	-170	-15332	5604	-708	157	21	44	-16048	512	-408	-44	11	35	-11076	1904	12380	11	30	-157	-16128	-3780	-1724	813	344	310	-15984	-1512	-2964	834	36	285	123	128	8
-10120	-3916	11668	-57	113	-179	-15332	5544	-804	99	10	39	-16116	848	-480	-277	144	-11	-11064	1904	12304	-154	67	-236	-16184	-3672	-1884	1449	710	417	-15840	-1368	-3012	818	182	434	125	123	8
-10136	-3944	11612	-104	142	-168	-15352	5632	-680	-32	93	134	-16340	1008	196	-249	60	-7	-11252	1868	12712	-97	50	-194	-16448	-3636	-1696	950	55	290	-15920	-1640	-2800	680	201	360	121	126	8
-10112	-3948	11628	-110	147	-186	-15308	5596	-696	61	145	112	-16952	872	-20	219	194	182	-11012	2116	12324	298	-131	-57	-16060	-3672	-1352	209	-446	173	-15928	-1980	-2104	285	-382	203	124	126	8
-10064	-3908	11684	-84	158	-171	-15364	5588	-832	150	158	116	-16236	752	-552	573	-130	160	-11104	1932	12304	142	-107	-109	-16064	-3780	-1084	141	-163	279	-16120	-1824	-1876	245	-403	222	124	135	8
-10072	-3940	11604	2	125	-165	-15352	5488	-980	171	140	119	-16296	468	-492	629	-258	43	-11044	2032	12392	88	-90	-137	-16044	-3720	-1296	156	37	296	-15988	-1948	-1868	182	-214	289	123	127	8
-10136	-3932	11700	-46	105	-151	-15392	5540	-960	174	99	139	-16208	740	-416	267	68	-15	-11036	2024	12396	93	-62	-196	-16204	-3620	-1420	63	81	259	-15904	-1696	-2292	42	29	318	126	122	8
-10016	-3952	11672	-45	138	-142	-15404	5604	-944	133	128	176	-16448	1076	-336	215	-39	96	-11132	2040	12376	84	-92	-188	-16048	-3712	-1496	124	119	249	-16016	-1512	-2496	119	74	266	123	127	8
-10120	-3880	11748	-53	96	-162	-15392	5768	-780	-73	117	135	-16828	1000	-332	107	-167	175	-11080	1828	12392	141	-40	-146	-16048	-3520	-1396	-194	-61	278	-15980	-1532	-2484	-214	-254	266	125	122	8
-10116	-3876	11736	-38	174	-116	-15396	5672	-892	-140	121	157	-16240	808	-732	-195	-184	189	-11108	1932	12360	74	-68	-196	-16132	-3820	-1460	-406	42	263	-16084	-1696	-2376	-513	-199	246	128	128	8
-10124	-3912	11716	-66	143	-156	-15304	5768	-1056	-95	-30	96	-16076	828	-984	-206	-245	71	-11116	1900	12400	40	-62	-164	-16100	-3772	-1584	-259	130	262	-15944	-1848	-2500	-270	-44	215	122	129	8
-10132	-3820	11660	-151	167	-158	-15356	5880	-1096	-246	-110	58	-16360	1056	-712	-272	-74	64	-11152	1908	12316	64	-39	-165	-16140	-3560	-1696	-127	186	306	-15856	-1272	-2720	-115	-16	173	126	128	8
-10068	-3888	11624	-153	181	-160	-15376	5868	-1028	-356	-87	-61	-16252	1040	-672	-782	2	168	-11104	1960	12320	48	-62	-180	-16168	-3596	-1736	19	240	277	-15888	-1100	-2500	-336	-42	285	124	127	8
-10104	-3908	11660	-153	167	-223	-15296	5592	-832	-517	-115	4	-16520	996	-104	-921	-197	26	-11016	1992	12388	4	-74	-129	-16152	-3644	-1424	137	363	266	-16136	-1892	-2560	-531	29	281	128	127	8
-10044	-3960	11656	-129	164	-174	-15412	5700	-660	-352	-135	-56	-16436	632	-112	-553	-33	126	-11144	1924	12260	-59	-74	-221	-16104	-3652	-1584	115	491	318	-15820	-1780	-2552	-218	222	180	127	129	8
-10172	-3864	11680	-144	158	-172	-15376	5888	-840	-303	-52	-74	-16252	960	-256	-592	-82	154	-11044	1844	12356	-77	-36	-166	-16112	-3628	-1728	300	622	309	-15960	-1544	-2648	-81	-2	241	126	130	8
-10164	-3908	11684	-192	221	-226	-15384	5604	-716	-370	-63	-60	-16368	816	-104	-737	-60	-99	-11188	1824	12368	-145	-25	-236	-16156	-3652	-1808	452	759	374	-15880	-1392	-2588	-77	230	358	128	131	8
-10100	-3920	11660	-124	162	-192	-15372	5452	-592	-258	-10	-33	-16388	836	-140	-685	-82	-121	-11152	1964	12412	-135	-24	-249	-16200	-3628	-1720	561	840	358	-16032	-1604	-2680	166	249	352	127	126	8
-10020	-3940	11688	-140	165	-138	-15296	5632	-604	-65	33	-19	-16868	848	320	-379	-68	6	-11060	1964	12332	-160	-98	-211	-16116	-3640	-1652	464	775	325	-15908	-1672	-2600	49	402	242	127	128	8
-10104	-3944	11704	-126	221	-154	-15428	5704	-708	-4	73	-30	-16208	652	-412	-457	127	112	-11068	1872	12316	-66	-97	-191	-16148	-3612	-1792	348	592	301	-15884	-1656	-2888	436	141	187	127	126	8
-10148	-3860	11668	-97	179	-157	-15316	5700	-816	-35	40	-46	-16128	808	-460	-349	43	-8	-11092	1888	12376	-27	-39	-177	-16116	-3580	-1852	306	411	313	-15852	-1368	-2936	429	122	327	127	123	8
-10080	-3976	11608	-148	173	-161	-15316	5788	-792	-39	-7	-59	-16208	860	-512	-328	63	-249	-11020	1968	12364	-44	-122	-277	-16300	-3736	-1968	382	227	296	-15956	-1608	-3108	235	268	440	127	134	8
-10092	-3912	11696	-166	183	-163	-15360	5752	-972	-69	-45	-58	-16400	900	-328	-455	130	-67	-11176	1704	12376	44	-35	-180	-16064	-3756	-2020	427	114	327	-15756	-1620	-3036	522	302	381	126	129	8
-10188	-3876	11696	-145	205	-178	-15452	5744	-980	-195	-65	-21	-16408	560	-528	-78	151	125	-11128	1904	12368	60	-14	-129	-16200	-3668	-1820	436	63	313	-15856	-1640	-3056	545	272	424	127	128	8
-10064	-3908	11700	-160	220	-159	-15440	5628	-872	-252	-72	-62	-16292	564	-648	-258	98	138	-11076	1804	12444	104	27	-124	-16108	-3632	-1820	246	-152	306	-15832	-1580	-2788	481	318	539	127	134	8
-10060	-3976	11664	-159	174	-167	-15456	5564	-808	25	-191	-82	-16136	628	-396	-84	191	-29	-11036	1900	12460	107	-15	-235	-16124	-3656	-1744	159	-219	346	-15996	-1748	-2740	105	431	671	128	129	8
-10100	-3920	11528	-171	190	-132	-15432	5788	-936	13	-282	-7	-16468	708	-348	265	457	-41	-11056	1984	12436	63	60	-190	-16156	-3680	-1836	296	-158	370	-15948	-1576	-3100	86	222	704	125	131	8
-10124	-3920	11708	-210	182	-137	-15376	5784	-968	-255	-304	-59	-16564	760	-372	117	551	79	-11140	1840	12456	187	75	-154	-16180	-3644	-1956	148	-319	334	-15808	-1488	-3208	211	-12	847	129	129	8
-10204	-3928	11672	-179	192	-92	-15400	5692	-864	-383	-270	-83	-16252	664	-660	-148	302	308	-11076	1780	12476	192	81	-139	-16112	-3680	-1804	413	-282	391	-15776	-1364	-3140	680	-193	1068	129	129	8
-10192	-3964	11608	-152	151	-174	-15200	5632	-656	-398	-232	-38	-16176	824	-104	307	207	25	-11148	1864	12336	256	113	-85	-16152	-3556	-1856	406	-310	398	-15592	-1548	-2744	933	-90	1482	129	129	8
-10044	-3988	11680	-128	130	-163	-15344	5560	-544	-154	-193	12	-16268	1300	80	252	171	-102	-11116	1940	12408	222	77	-109	-16152	-3604	-1640	229	-449	423	-16264	-1784	-2520	-375	498	1064	129	129	8
-10092	-4004	11752	-147	161	-156	-15324	5748	-636	88	-182	-18	-16820	1168	-444	112	10	-225	-11180	1812	12356	263	51	-49	-16112	-3528	-1460	375	-282	369	-16076	-1428	-2584	146	298	863	128	130	8
-10176	-3900	11848	-152	205	-165	-15352	5796	-944	-31	-142	-61	-16828	1128	-472	93	22	-192	-11160	1932	12356	232	81	-74	-16168	-3288	-1556	364	-245	328	-16092	-980	-2600	180	6	620	127	128	8
-10196	-3852	11680	-163	244	-230	-15340	5676	-824	-319	-98	-25	-16244	496	-584	-249	57	-40	-11208	1840	12300	178	48	-111	-16172	-3388	-1552	186	-184	281	-16116	-1224	-2484	-231	-88	615	127	126	8
-10084	-3956	11660	-153	150	-171	-15324	5524	-596	-338	-88	60	-16272	900	220	-150	237	-93	-11124	1904	12400	147	-38	-172	-16188	-3624	-1628	103	-223	293	-16192	-1564	-2576	-485	382	524	125	129	8
-10088	-3948	11672	-155	165	-172	-15404	5672	-552	-141	-26	30	-16452	1048	-180	-275	393	9	-11092	1808	12208	149	38	-144	-16180	-3600	-1572	272	-186	256	-15844	-1116	-2792	198	551	401	127	128	8
-10124	-3976	11556	-92	175	-166	-15256	5764	-676	-109	31	18	-16740	1036	-368	-80	6	21	-11164	1900	12360	112	80	-191	-16196	-3264	-1724	104	-263	265	-15864	-1152	-3132	242	372	380	124	128	8
-10140	-3948	11692	-126	211	-148	-15396	5676	-684	20	31	-16	-16368	560	-508	214	-149	85	-11148	1780	12268	74	-80	-153	-16048	-3488	-1740	306	-186	172	-15796	-1312	-2908	322	171	516	126	127	8
-10140	-3920	11632	-118	179	-145	-15216	5748	-768	129	-25	14	-15908	248	-248	690	166	250	-11220	1832	12276	123	-28	-128	-16040	-3480	-1576	327	-105	185	-15936	-1528	-2488	187	67	479	127	125	8
-10152	-3884	11672	-97	161	-179	-15276	5716	-792	-32	-17	-14	-16316	840	-368	670	319	-86	-11032	2096	12560	165	-86	-106	-16216	-3640	-1364	201	-61	197	-16324	-1216	-2572	-23	70	222	127	127	8
-10104	-3912	11764	-22	134	-186	-15452	5656	-704	-22	37	-4	-16776	1020	-156	538	212	69	-11104	1740	12404	113	-28	-139	-16100	-3540	-1532	-28	-20	203	-15944	-1220	-2740	60	-137	234	127	127	8
-10132	-3876	11672	-103	148	-161	-15396	5872	-700	28	49	-34	-16392	876	-500	310	184	43	-11156	1892	12344	121	-33	-174	-16068	-3496	-1716	-28	-31	188	-15780	-1020	-2948	185	-125	273	127	128	8
-10060	-3964	11708	-124	206	-178	-15348	5756	-704	230	-60	-79	-15916	840	-612	335	122	7	-11104	1912	12360	113	-51	-137	-16276	-3476	-1592	122	-38	145	-16008	-1208	-2884	29	126	367	126	128	8
-10168	-3884	11748	-137	193	-161	-15392	5820	-864	99	-37	-73	-16268	776	-592	217	317	-30	-11120	1860	12420	123	-84	-174	-16200	-3664	-1372	144	37	157	-16356	-1692	-2624	-271	274	243	127	128	8
-10132	-3888	11688	-106	165	-164	-15388	5696	-732	-79	-63	-64	-16648	832	-428	221	428	43	-11148	1916	12320	94	-23	-170	-16132	-3532	-1544	104	87	148	-16196	-1448	-2916	-173	107	76	122	129	8
-10196	-3928	11684	-107	164	-161	-15340	5744	-736	-115	45	-51	-16484	660	-228	468	219	266	-11164	1868	12284	77	-50	-176	-16116	-3468	-1500	-58	121	142	-15772	-1240	-2936	45	-335	108	127	128	8
-10140	-3896	11628	-120	138	-229	-15224	5604	-632	-51	127	-30	-16452	948	-292	549	32	87	-11128	1868	12260	92	-60	-173	-16116	-3436	-1644	-101	52	116	-15732	-1028	-2992	109	-253	291	128	128	8
-10064	-3980	11652	-111	123	-214	-15340	5656	-640	109	91	3	-16044	812	-436	174	48	-122	-11228	1872	12284	109	-72	-180	-16208	-3644	-1716	76	121	133	-16140	-1348	-2852	-12	54	444	126	127	8
-10068	-3928	11680	-108	166	-154	-15424	5708	-640	371	62	-68	-16016	536	-468	358	253	27	-11096	2008	12344	124	-14	-194	-16248	-3480	-1476	-22	67	179	-16148	-1540	-2820	-274	282	258	128	127	8
-10116	-3936	11636	-137	171	-163	-15312	5804	-1120	94	56	-9	-16596	856	-728	-330	421	-213	-11052	1808	12328	84	17	-184	-16104	-3724	-1696	139	167	177	-15832	-1288	-3096	90	210	202	129	128	8
-10156	-3896	11648	-152	186	-162	-15316	5724	-968	-188	54	-81	-16368	596	-708	-255	495	-51	-11176	1848	12356	101	-58	-206	-16076	-3476	-1692	67	169	193	-15980	-1392	-3000	191	-246	179	129	130	8
-10180	-3876	11604	-130	153	-171	-15316	5636	-780	-281	69	-46	-16212	504	-528	149	415	6	-11224	1872	12376	107	-72	-204	-16172	-3608	-1632	39	181	142	-15804	-1228	-2828	119	-129	317	127	127	8
-10120	-3896	11648	-77	110	-178	-15388	5576	-712	-280	90	-41	-16436	756	-60	369	225	-183	-11136	1952	12380	98	-24	-192	-16216	-3424	-1564	78	213	179	-16136	-1512	-2680	-59	28	308	128	135	8
-10044	-4000	11672	-87	167	-157	-15340	5516	-444	317	166	13	-16404	1032	-220	262	248	-145	-11084	1932	12392	82	6	-199	-16156	-3612	-1664	21	185	154	-15736	-1020	-3176	90	178	252	125	128	8
-10068	-3964	11712	-67	177	-149	-15368	5776	-836	340	164	9	-16324	728	-804	319	250	286	-11168	1840	12268	102	-3	-174	-16140	-3428	-1748	75	156	125	-15720	-976	-3336	509	5	257	127	129	8
-10200	-3860	11576	-151	181	-133	-15332	5840	-1104	-17	134	-26	-15856	704	-1336	217	484	96	-11172	1856	12408	120	12	-197	-16180	-3556	-1804	215	75	143	-15844	-976	-3480	595	172	361	125	128	8
-10192	-3916	11704	-108	137	-132	-15320	5768	-892	56	21	-23	-16216	552	-936	525	630	54	-11080	1844	12340	143	30	-162	-16296	-3676	-1904	151	-134	124	-15872	-1172	-3644	215	390	392	125	124	8
-10184	-3900	11660	-123	137	-161	-15212	5816	-848	5	-5	-57	-16576	688	-788	697	492	203	-11204	1824	12280	137	109	-131	-16092	-3524	-1872	256	-156	161	-15892	-1276	-3296	139	358	430	125	129	8
-10136	-3936	11596	-129	174	-201	-15296	5672	-724	18	97	-19	-16460	796	-644	961	137	227	-11168	1892	12284	193	54	-142	-16056	-3516	-1648	121	-201	154	-15832	-1248	-3264	229	-180	128	127	128	8
-10072	-3992	11760	-101	110	-159	-15412	5604	-764	279	23	-68	-16300	960	-812	591	222	157	-11252	1808	12356	174	-63	-141	-16096	-3628	-1732	130	-147	139	-15704	-1124	-2980	191	-99	293	126	128	8
-10116	-3880	11500	-129	171	-164	-15368	5868	-1096	213	-5	-115	-16168	908	-1148	368	298	113	-11120	1836	12332	187	24	-123	-16272	-3564	-1500	179	-160	207	-16160	-1276	-2876	171	251	423	127	129	8
-10180	-3864	11632	-167	165	-177	-15388	5836	-1084	182	-30	-115	-16196	540	-720	464	445	190	-11136	1920	12448	198	31	-139	-16220	-3624	-1432	73	-264	180	-16384	-1328	-3100	-485	553	352	131	129	8
-10108	-4076	11768	-102	196	-202	-15316	5616	-964	23	-89	-26	-16348	1064	-384	314	568	15	-11176	1796	12344	162	113	-149	-16000	-3700	-1740	245	-192	247	-15852	-1364	-3132	-88	280	196	128	128	8
-10088	-3836	11748	-44	194	-172	-15372	5656	-900	-200	15	-9	-16492	980	-564	237	116	26	-11228	1804	12292	123	43	-134	-15980	-3392	-1552	376	-10	213	-15804	-1336	-2836	231	-77	134	127	128	8
-9984	-3964	11752	-119	285	-235	-15308	5716	-700	-231	7	-24	-16404	972	-832	-139	154	-45	-11092	2020	12364	137	31	-141	-16244	-3396	-1348	3	-46	154	-15880	-1064	-2720	114	48	314	127	128	8
-10000	-3936	11580	-144	338	-140	-15400	5800	-820	69	-144	-124	-15964	840	-1252	-351	469	-58	-11092	1996	12200	114	42	-195	-16192	-3496	-1468	68	36	145	-16324	-1428	-2772	-117	319	412	125	129	8
-10288	-3856	11880	-24	287	-117	-15316	5904	-1400	-105	-290	-178	-16104	760	-1692	-136	821	-109	-11028	1912	12380	158	56	-206	-16276	-3672	-1648	241	16	152	-15880	-1084	-3452	140	509	252	127	128	8
-10256	-3796	11664	-209	341	-175	-15272	5872	-1220	-607	-352	-153	-16648	868	-1264	-227	650	-70	-11244	1768	12336	164	83	-223	-16092	-3588	-1836	267	-37	162	-15792	-1068	-3748	284	300	197	126	128	8
-10280	-3800	11600	-137	273	-274	-15116	5764	-916	-874	-257	-161	-16832	872	-1240	-182	584	2	-11224	1772	12240	149	59	-210	-16088	-3520	-1812	235	-93	119	-15652	-1048	-3348	189	112	224	127	127	8
-10100	-3984	11668	-126	269	-332	-15228	5624	-316	-542	-169	-166	-16348	1124	-200	-109	46	21	-11196	1948	12368	176	-46	-107	-16056	-3636	-1420	96	-54	131	-15808	-1120	-2916	-177	197	291	128	128	8
-10032	-3936	11628	-134	227	-249	-15332	5392	-316	-57	-84	-213	-16488	872	-12	76	-29	-106	-11020	1988	12316	145	-47	-147	-16172	-3516	-1364	-133	-143	107	-16120	-1048	-2988	-360	153	126	126	128	8
-10204	-3996	11476	-85	233	-249	-15380	5548	-860	102	-33	-156	-16512	740	-584	272	39	-117	-11240	1824	12256	107	47	-213	-16208	-3576	-1704	32	-101	134	-15960	-1052	-3288	-341	96	148	128	127	8
-10184	-3920	11528	-111	209	-221	-15320	5616	-708	-183	108	-42	-16244	732	-636	-147	-7	-109	-11280	1856	12264	143	-28	-165	-16064	-3484	-1608	227	-14	75	-15856	-1256	-3144	-138	-66	165	126	127	8
-10064	-4040	11624	-68	230	-228	-15448	5624	-608	-218	158	-109	-16080	708	-632	-303	25	-76	-11212	1808	12208	129	-34	-185	-16000	-3468	-1480	82	63	35	-15984	-1580	-2856	-127	-144	62	128	126	8
-10176	-3956	11560	-123	240	-242	-15436	5708	-668	-36	122	-20	-16268	676	-928	-178	268	68	-11056	1908	12376	94	-136	-173	-16076	-3700	-1208	-22	131	42	-16060	-1512	-2848	-195	-163	57	128	129	8
-10200	-3988	11696	-179	230	-224	-15448	5756	-724	0	128	-63	-16604	592	-972	257	173	133	-11172	1896	12360	70	-66	-203	-16188	-3684	-1560	-82	143	66	-16000	-1440	-3212	199	-192	67	127	129	8
-10268	-3916	11600	-127	198	-212	-15356	5640	-860	111	35	-74	-16424	448	-1080	482	162	272	-11128	1888	12384	61	-4	-222	-16220	-3724	-1764	6	148	90	-15956	-1208	-3468	163	-86	133	126	128	8
-10224	-3984	11580	-64	170	-210	-15248	5636	-912	-117	76	5	-16500	720	-888	571	86	318	-11188	1756	12244	89	-18	-208	-16084	-3704	-2044	218	140	77	-15496	-992	-3372	55	107	176	127	127	8
-10228	-3932	11568	-121	154	-251	-15412	5744	-744	-227	103	21	-16580	816	-584	838	-46	269	-11192	1772	12268	145	-122	-135	-16060	-3440	-1676	197	196	130	-16044	-1304	-3080	-52	-75	103	128	127	8
-10076	-4084	11628	-138	173	-191	-15484	5608	-600	115	106	-49	-16212	732	-840	781	164	389	-10980	1892	12256	72	-168	-176	-15900	-3552	-1084	-93	269	111	-16320	-1528	-2608	-593	-488	-26	128	131	8
-10040	-4072	11640	-104	208	-169	-15420	5824	-948	150	84	-55	-16036	952	-1012	409	318	257	-11048	1980	12388	33	-133	-234	-16260	-3676	-1588	-375	248	124	-15820	-1292	-3152	-314	-205	73	127	129	8
-10260	-3948	11572	-128	194	-163	-15300	5644	-880	34	60	-38	-16068	900	-1048	157	180	93	-11092	1952	12440	9	32	-251	-16380	-3760	-2040	-164	160	179	-15660	-824	-3884	-132	174	275	129	129	8
-10132	-3968	11616	-111	165	-189	-15316	5704	-820	-151	76	24	-16480	876	-448	-5	149	99	-11200	1656	12320	106	37	-196	-16168	-3736	-2284	239	93	199	-15936	-1040	-3712	-271	324	186	127	131	8
-10248	-3956	11600	-118	126	-214	-15368	5616	-632	-195	183	87	-16796	984	-320	251	48	188	-11252	1804	12216	160	-47	-162	-15968	-3428	-1712	318	95	173	-15792	-1360	-3068	-108	323	185	125	131	8
-10168	-4052	11544	-64	196	-161	-15352	5604	-484	-101	291	33	-16052	592	-616	293	140	169	-11184	1804	12292	80	-119	-151	-15800	-3476	-1360	10	202	163	-15764	-1720	-2656	21	-231	129	128	128	8
-10152	-3972	11592	-67	160	-150	-15224	5756	-848	310	248	21	-16140	760	-824	418	154	260	-11156	1960	12324	96	-200	-151	-15984	-3616	-1256	-215	398	166	-16060	-1652	-2500	161	-580	169	123	130	8
-10212	-3892	11596	-103	128	-175	-15340	5672	-1124	134	245	30	-16072	628	-1208	607	20	77	-11084	2064	12328	98	-228	-195	-16440	-3724	-1620	-368	331	263	-15984	-1004	-3300	-83	57	184	127	128	8
-10184	-3924	11660	-75	97	-175	-15356	5688	-1024	142	197	53	-16252	652	-1280	783	195	97	-11100	1828	12304	52	-52	-207	-16248	-3724	-2076	-193	251	155	-15880	-836	-3732	-60	313	370	125	128	8
-10196	-4024	11620	-87	94	-165	-15332	5812	-1036	17	187	64	-16244	1096	-1016	518	108	-20	-11200	1816	12296	119	-8	-223	-16184	-3516	-2244	298	292	236	-15640	-880	-3984	308	350	407	129	125	8
-10156	-4020	11620	-102	132	-201	-15288	5680	-880	-111	221	59	-15992	1136	-928	243	31	45	-11168	1720	12280	143	-37	-157	-16044	-3608	-1940	270	151	194	-15744	-1232	-3416	195	280	208	124	127	8
-10136	-4004	11580	-103	159	-188	-15420	5708	-1088	348	1	-22	-16380	932	-1432	-231	268	84	-11120	1872	12120	92	-102	-94	-16092	-3628	-1692	50	156	176	-15884	-1092	-3396	76	100	79	126	128	8
-10212	-3876	11588	-137	200	-187	-15376	5932	-1216	64	-2	-58	-16300	720	-1516	33	339	-2	-11128	1908	12208	90	-7	-193	-16224	-3436	-1824	-201	-50	145	-16004	-1056	-3828	41	-162	182	125	128	8
-10240	-3908	11660	-154	189	-172	-15316	5716	-1212	-70	-76	-78	-16156	852	-1136	-43	469	-13	-11120	1868	12308	119	127	-197	-16464	-3692	-2248	110	-141	113	-15716	-896	-4048	158	-5	396	126	130	8
-10244	-3960	11620	-90	133	-177	-15276	5608	-892	-184	-47	-67	-16184	972	-972	-133	434	-171	-11192	1684	12276	209	101	-126	-16132	-3636	-1988	430	-174	117	-15960	-1180	-3636	62	322	294	123	130	8
-10136	-4028	11480	-101	124	-200	-15264	5532	-644	-198	87	-57	-17124	996	-548	293	112	82	-11232	1688	12256	268	24	-84	-15848	-3676	-1764	514	-150	214	-15760	-1428	-3044	196	195	116	122	125	8
-10172	-3892	11612	-102	161	-196	-15432	5676	-676	219	55	-111	-16656	740	-1140	467	96	179	-11244	1844	12260	160	-57	-99	-15932	-3324	-1292	94	12	166	-15948	-1492	-2584	36	-420	30	128	127	8
-10200	-3988	11596	-90	232	-162	-15500	5720	-1136	293	-65	-106	-16268	660	-1568	739	-159	160	-11016	2052	12316	79	-112	-163	-16236	-3540	-1208	-278	37	153	-16184	-1304	-2900	-26	-526	118	126	123	8
-10188	-3880	11648	-81	199	-217	-15220	5656	-1172	154	-119	-91	-16308	748	-1312	794	75	-39	-11152	1992	12352	77	-11	-261	-16220	-3816	-1868	-233	80	184	-15960	-1116	-3184	-260	-85	245	123	129	8
-10248	-3964	11520	-122	127	-200	-15368	5672	-1100	-160	-49	-26	-16424	832	-916	489	21	53	-11264	1776	12264	137	-23	-186	-16104	-3720	-2224	300	159	235	-15512	-980	-3812	-42	216	239	127	127	8
-10168	-4072	11604	-80	96	-247	-15388	5432	-888	-263	5	-2	-16468	928	-588	219	-176	100	-11268	1756	12276	148	-46	-147	-16012	-3392	-1984	47	41	189	-15552	-1204	-3628	252	48	190	122	127	8
-10204	-4056	11760	-59	75	-190	-15404	5496	-708	-267	80	44	-16628	948	-548	-80	-473	155	-11240	1776	12384	84	-108	-85	-15964	-3696	-1604	-214	29	233	-15932	-1556	-3144	-32	-239	244	125	127	8
-10048	-4048	11512	-112	152	-96	-15488	5432	-932	270	-41	90	-16280	880	-1356	-331	-561	86	-11092	1964	12312	103	-159	-114	-16060	-3700	-1396	-271	138	278	-16096	-1612	-3028	-223	-252	311	125	127	8
-10076	-3876	11628	-76	174	-120	-15352	5808	-1268	82	-110	117	-15748	384	-1620	-637	-373	-58	-11068	2012	12480	104	-60	-202	-16192	-4036	-2008	-336	-33	346	-15820	-1168	-4016	-278	94	361	124	127	8
-10236	-3832	11612	-110	150	-148	-15472	5808	-1396	-404	-201	118	-15876	660	-1752	-1057	-52	32	-11212	1676	12328	125	118	-128	-16212	-3768	-2344	186	-51	394	-15652	-1108	-4292	26	196	472	125	126	8
-10328	-3784	11640	-138	65	-210	-15284	5932	-1144	-698	-243	179	-16396	900	-1380	-1074	-198	275	-11264	1776	12264	206	100	-66	-16164	-3464	-2204	312	-266	439	-15540	-940	-3764	-179	192	418	125	128	8
-10152	-3944	11656	-157	146	-245	-15332	5864	-824	-824	-283	132	-16120	956	-1060	-927	-340	316	-11288	1776	12200	193	82	5	-16072	-3448	-1756	60	-258	427	-15872	-1400	-3184	-182	-314	320	124	129	8
-10088	-4012	11580	-193	175	-255	-15304	5660	-548	-448	-355	47	-16480	792	-852	-554	-414	323	-11088	1884	12328	143	-22	-48	-16072	-3444	-1416	-234	-232	403	-15844	-1420	-2908	-285	-791	251	125	127	8
-10208	-3992	11576	-182	174	-136	-15404	5768	-880	-99	-466	-7	-16632	464	-892	204	-42	294	-10964	1976	12524	136	-7	-81	-16412	-3364	-1684	-72	-171	292	-16008	-796	-3484	347	-618	310	124	127	8
-10248	-3924	11536	-161	203	-158	-15232	5732	-752	-294	-394	2	-16284	696	-636	818	122	228	-11188	1872	12308	153	83	-120	-16288	-3496	-2096	371	-242	312	-16288	-516	-3928	313	-174	348	124	126	8
-10176	-3944	11500	-65	148	-197	-15180	5748	-680	-279	-345	-34	-16260	1188	-12	1194	128	117	-11208	1736	12164	228	44	-83	-16288	-3372	-2280	428	-244	262	-15824	-532	-3796	611	31	279	124	128	8
-10192	-3964	11572	-29	151	-203	-15324	5692	-388	98	-51	-35	-16536	1284	44	1170	189	360	-11300	1868	12204	225	32	-45	-16092	-3264	-1656	780	-219	153	-15880	-1060	-2972	883	-349	101	127	128	8
-10176	-3960	11580	-73	128	-199	-15268	5612	-452	383	107	-37	-16352	1400	-264	1156	-96	184	-11160	1824	12188	172	-77	-85	-15940	-3316	-1264	275	-155	68	-16344	-1620	-2216	603	-795	59	127	129	8
-10052	-4008	11696	-85	154	-149	-15252	5668	-660	776	144	-66	-16524	1232	-984	1265	-62	7	-11120	1884	12332	128	-252	-138	-16120	-3532	-1192	75	-54	81	-15848	-1020	-2560	497	-773	-63	124	129	8
-10140	-4048	11680	-69	142	-142	-15552	5960	-1128	542	110	-133	-16468	1032	-1508	1094	314	76	-11124	1976	12256	120	-110	-213	-16488	-3168	-1460	-91	34	35	-16160	-688	-2928	372	-635	106	125	127	8
-10236	-3808	11580	-138	132	-159	-15400	6048	-1140	296	6	-142	-16096	1152	-1668	923	312	47	-11212	1900	12340	48	-159	-222	-16208	-3492	-1632	-170	-8	-70	-15832	-700	-2952	-41	-382	136	123	127	8
-10168	-3872	11620	-193	141	-209	-15244	5884	-1184	-29	-6	-170	-16052	1172	-1472	820	-65	-40	-11192	1816	12064	63	-160	-220	-15848	-3580	-1756	50	129	-56	-15592	-1224	-2800	55	54	127	124	128	8
-10224	-3884	11684	-108	143	-261	-15336	5808	-892	-107	-56	-200	-15768	1480	-1116	-2	-180	-69	-11172	1872	12136	74	-213	-191	-16020	-3640	-1520	26	256	-6	-15952	-1472	-2816	7	196	-102	122	125	8
-10108	-3960	11640	-144	147	-246	-15588	5824	-908	-9	-200	-294	-16652	952	-1172	-444	-314	-119	-11028	2004	12456	15	-153	-267	-16428	-3656	-1724	-365	70	72	-16076	-1132	-3708	-268	177	-152	121	127	8
-10168	-4020	11580	-189	220	-216	-15428	5772	-1044	-139	-208	-281	-16364	628	-1144	-308	-99	-267	-11016	1912	12444	67	27	-257	-16348	-3736	-2040	-95	22	34	-15780	-756	-4112	-370	6	-34	126	127	8
-10228	-3992	11496	-138	215	-202	-15280	5692	-996	-410	-298	-279	-16136	820	-796	-198	-2	-261	-11276	1752	12296	77	7	-218	-16116	-3480	-2352	-79	-183	54	-15928	-972	-3956	-617	159	-11	122	130	8
-10216	-3916	11596	-154	227	-264	-15196	5620	-720	-483	-218	-223	-16468	872	-436	-353	-103	-36	-11240	1728	12280	138	-2	-138	-16028	-3648	-2008	128	-204	53	-15660	-1428	-3500	-529	176	34	125	127	8
-10244	-3964	11548	-81	217	-295	-15380	5508	-488	-320	-78	-193	-16312	596	-328	-231	-334	11	-11208	1800	12316	113	-90	-127	-15924	-3556	-1432	108	-105	84	-16000	-2076	-2956	-263	-378	-96	127	132	8
-10020	-4176	11620	-111	252	-228	-15452	5268	-508	243	-92	-154	-16364	368	-524	137	-313	-83	-11000	2020	12392	89	-122	-186	-16220	-3692	-1424	-296	-183	141	-15816	-1608	-3192	-109	-438	-19	127	127	8
-10220	-4076	11628	-119	199	-170	-15492	5640	-1044	412	-128	-61	-16440	256	-1112	212	-83	122	-11088	1812	12364	77	66	-168	-16272	-3812	-1924	-114	-215	183	-15652	-1372	-3744	133	-368	168	124	128	8
-10188	-3908	11512	-151	183	-154	-15432	5656	-1188	-80	-157	-42	-15884	412	-1384	338	57	84	-11332	1816	12252	144	115	-115	-16284	-3608	-2304	349	-228	239	-15608	-1108	-3956	454	38	497	124	124	8
-10228	-3908	11632	-113	128	-124	-15232	5712	-1072	-109	-267	17	-15864	836	-1112	354	60	57	-11240	1896	12264	234	64	-76	-15928	-3696	-1892	481	-256	289	-15868	-1468	-3544	115	126	405	124	129	8
-10240	-3936	11592	-53	44	-154	-15288	5796	-812	-313	-219	51	-16636	1120	-300	375	177	184	-11248	1608	12384	223	-2	-23	-15932	-3828	-1492	524	-111	346	-15880	-1820	-2444	416	-42	231	124	130	8
-10156	-3960	11612	-91	69	-198	-15316	5728	-444	-253	-106	-34	-16348	1220	16	202	244	196	-11136	1964	12320	173	-90	-12	-16192	-3380	-1004	121	-49	369	-16028	-1824	-2352	388	-33	198	126	128	8
-9988	-4112	11720	-118	156	-195	-15468	5472	-280	264	-23	1	-16488	952	-196	305	380	36	-10944	2192	12504	106	24	-164	-16704	-3256	-1212	-323	-120	305	-16536	-740	-2908	75	292	383	123	130	8
-10036	-4060	11588	-143	205	-145	-15488	5468	-492	364	69	-18	-16836	580	-388	419	547	73	-10980	1952	12468	115	148	-186	-16352	-3604	-1836	175	-39	238	-16004	-484	-3616	-159	460	520	124	129	8
-10288	-4072	11620	-83	220	-80	-15452	5388	-856	392	108	54	-16268	688	-1040	571	442	133	-11256	1720	12292	233	215	-260	-15972	-3528	-2292	505	-66	290	-15848	-540	-3852	-95	466	539	125	128	8
-10296	-4020	11524	-66	209	-103	-15264	5572	-924	151	184	132	-16264	1016	-1252	657	66	-17	-11340	1708	12296	179	81	-198	-15944	-3572	-2144	530	-127	197	-15168	-1288	-4148	3	-3	96	126	130	8
-10200	-3816	11604	-31	141	-115	-15216	5860	-952	50	219	158	-16164	1308	-1192	275	-159	155	-11296	1716	12124	201	-55	-81	-15768	-3508	-1744	275	-137	162	-15596	-1556	-3544	497	-803	-114	126	127	8
-10100	-3964	11648	-43	135	-160	-15280	5900	-916	166	86	64	-16264	1200	-1472	100	-136	277	-11300	1812	12176	128	-94	-43	-16076	-3676	-1400	-14	-138	182	-16072	-1816	-2992	92	-1031	1	121	131	8
-10140	-3904	11568	-93	131	-168	-15496	5880	-1008	131	-23	-4	-16448	704	-1392	17	35	178	-10908	2228	12480	186	-15	-122	-16668	-3728	-1408	69	-217	260	-15900	-1112	-3720	113	-353	206	126	126	8
-10272	-3916	11596	-131	153	-206	-15344	5696	-1052	99	-148	-37	-16236	584	-1512	643	110	72	-11192	1704	12228	226	171	-121	-16192	-3632	-2108	434	-265	280	-15924	-740	-3932	468	-275	238	124	133	8
-10248	-3964	11592	-84	112	-221	-15248	5700	-988	99	-216	-76	-15988	612	-1196	948	-177	-56	-11316	1824	12112	244	122	-71	-16128	-3436	-2128	660	-307	247	-15604	-648	-3736	727	-159	300	125	130	8
-10108	-4060	11700	-44	54	-197	-15360	5608	-780	-44	-182	-54	-16260	876	-740	1065	-336	67	-11344	1808	12048	194	28	-34	-15908	-3508	-1664	503	-358	199	-15556	-1008	-3144	557	-278	245	126	128	8
-10196	-3976	11720	-63	96	-220	-15412	5532	-608	51	-151	-1	-16372	1076	-516	760	-365	243	-11212	1836	12216	139	-33	3	-16036	-3356	-1072	334	-208	166	-16068	-1484	-2580	509	-745	195	125	128	8
-10012	-4060	11680	-107	100	-136	-15500	5512	-720	647	-309	-58	-16260	884	-1180	242	-151	334	-10880	2312	12372	149	-63	-122	-16344	-3636	-1004	-30	-348	135	-16256	-968	-3200	175	-431	177	126	131	8
-10264	-3856	11720	-139	127	-85	-15340	5976	-1372	130	-361	-70	-16384	956	-1700	114	61	208	-11164	1804	12332	176	83	-162	-16240	-3720	-1896	205	-400	229	-15752	-904	-3916	292	-142	172	125	128	8
-10248	-3976	11556	-162	127	-143	-15304	5856	-1100	-467	-342	-115	-15988	1332	-1496	-62	-89	-33	-11300	1748	12260	305	167	-113	-16180	-3516	-2168	744	-463	141	-15268	-620	-4016	712	-71	303	127	127	8
-10220	-3924	11540	-167	117	-201	-15136	5816	-620	-378	-378	-177	-16132	1460	-800	-222	-308	-80	-11372	1840	12088	236	18	-95	-16068	-3460	-1904	682	-571	132	-15596	-1088	-3180	483	66	374	124	127	8
-10136	-3976	11684	-180	185	-284	-15308	5700	-344	-108	-325	-191	-16092	1328	-712	-260	-433	42	-11168	1880	12252	212	-98	21	-15912	-3516	-936	211	-478	119	-16288	-1736	-2316	-233	-311	30	125	129	8
-10116	-4044	11600	-155	188	-254	-15380	5556	-620	452	-421	-269	-16340	956	-960	-248	-527	49	-10952	2304	12392	128	-82	-110	-16200	-3452	-708	-243	-422	130	-16320	-1324	-2672	-91	-639	-169	127	121	8
-10224	-3976	11556	-119	191	-231	-15400	5668	-1024	138	-377	-261	-17372	252	-1192	291	-370	-50	-11116	2084	12372	136	-52	-162	-16280	-3544	-1348	-175	-312	165	-16224	-864	-2880	-747	-915	-288	126	130	8
-10240	-3996	11668	-86	183	-253	-15472	5600	-784	-196	-389	-185	-15980	472	-968	634	-164	-138	-11268	1852	12292	155	-10	-145	-16228	-3376	-1588	225	-196	104	-16040	-1148	-3140	-1023	-925	-329	127	129	8
-10132	-3968	11568	-81	142	-236	-15240	5508	-640	-291	-318	-155	-16356	1128	-252	659	-321	22	-11200	1852	12232	172	-82	-116	-15984	-3552	-1436	213	-76	72	-15728	-1340	-3080	-718	-862	-437	127	131	8
-10104	-4012	11596	-49	125	-200	-15440	5588	-292	-21	-258	-123	-16388	1364	-348	279	-422	134	-11180	1844	12304	118	-151	-80	-16032	-3664	-1356	103	-7	79	-15772	-1700	-2824	-343	-945	-516	128	129	8
-10144	-3928	11724	-54	120	-144	-15308	5712	-480	351	-258	-176	-16168	1144	-900	9	-362	-7	-10980	2180	12428	60	-85	-121	-16492	-3440	-1456	-246	-183	101	-15756	-984	-3624	380	-521	-101	127	128	8
-10176	-4008	11488	-84	167	-171	-15440	5612	-1112	554	-345	-231	-16076	744	-996	-2	-312	-217	-11144	1920	12292	103	-34	-109	-16304	-3760	-1776	69	-278	64	-15948	-832	-3432	345	-363	235	126	127	8
-10192	-3904	11700	-117	180	-128	-15424	5684	-1112	182	-379	-200	-16344	624	-1232	72	-121	-326	-11320	1904	12084	151	19	-114	-16132	-3584	-1820	454	-336	89	-15440	-1048	-3504	185	-25	423	127	125	8
-10204	-3888	11600	-92	137	-191	-15280	5708	-928	-131	-345	-157	-16476	888	-784	407	-277	-153	-11252	1920	12256	148	16	-47	-15960	-3880	-1540	562	-259	120	-15684	-1716	-2868	386	-208	48	126	129	8
-10148	-3920	11532	-79	140	-253	-15300	5612	-480	-256	-291	-180	-16348	1176	-616	234	-520	18	-11292	1948	12328	107	45	35	-16008	-3624	-1164	236	-202	205	-15808	-1728	-2492	554	-620	41	127	128	8
-10080	-3992	11556	-122	140	-181	-15396	5516	-404	22	-285	-140	-16284	848	-476	121	-641	-8	-11264	2020	12300	45	-144	-20	-16312	-3644	-1004	-314	-303	195	-16192	-984	-2840	113	-111	5	127	127	8
-10128	-4068	11612	-137	178	-184	-15428	5516	-432	71	-297	-254	-16228	652	-680	21	-156	-24	-11160	2016	12284	105	5	-155	-16264	-3664	-1428	-376	-337	219	-16068	-1008	-3248	-280	18	212	127	128	8
-10136	-3928	11596	-130	162	-152	-15444	5592	-748	-79	-338	-148	-16492	580	-940	151	55	-68	-11224	1988	12364	100	105	-137	-16228	-3452	-1756	129	-310	228	-15688	-1008	-3344	-127	-9	354	126	132	8
-10160	-4044	11588	-128	165	-165	-15316	5616	-500	-144	-328	-93	-16208	860	-648	154	233	-145	-11316	1788	12072	207	45	-89	-15996	-3700	-1696	533	-254	168	-15592	-1220	-3084	-93	77	278	126	123	8
-10156	-3928	11680	-117	162	-176	-15292	5516	-352	-229	-182	-59	-16160	1156	-344	-145	228	-223	-11176	1904	12164	177	-59	-70	-16004	-3668	-1032	371	-161	170	-15920	-1796	-2600	110	-117	70	126	128	8
-10120	-4004	11640	-90	159	-194	-15380	5520	-312	-168	-28	-74	-15964	1228	-308	-631	445	-523	-11036	2092	12304	183	-73	-94	-16284	-3552	-864	-192	-225	167	-15868	-1376	-2900	530	-120	83	127	125	8
-10120	-3908	11536	-67	167	-151	-15376	5512	-256	136	31	-89	-15504	1208	-612	-1203	1184	-1032	-10956	2064	12276	127	145	-158	-16296	-3660	-1200	-203	-251	177	-16148	-1112	-3592	23	183	253	127	127	8
-10120	-4084	11652	-128	203	-140	-15456	5456	-516	261	43	-45	-14904	1164	-844	-1042	2606	-2015	-11216	1792	12232	160	171	-110	-16080	-3796	-1696	302	-193	192	-16080	-1448	-3388	-113	292	335	127	129	8
-10224	-3932	11576	-129	167	-155	-15324	5620	-772	-17	60	18	-15496	1408	-644	-357	3837	-2711	-11312	1812	12072	209	67	-75	-15932	-3528	-1316	560	-61	176	-15668	-1268	-2848	-16	241	189	128	128	8
-10196	-4008	11632	-107	168	-148	-15300	5704	-560	-340	138	25	-16352	496	-376	1	4060	-2840	-11272	2048	12236	146	-112	-104	-16132	-3288	-1008	170	-44	178	-16004	-1368	-2504	167	-417	-9	128	128	8
-10132	-3952	11636	-87	137	-185	-15304	5412	-264	-157	280	-27	-17304	-388	-684	-8	3060	-2574	-11216	2004	12232	134	-68	-152	-16068	-3580	-1128	-200	32	201	-15876	-1612	-2532	-6	-573	182	127	129	8
-10228	-4096	11560	-104	151	-128	-15420	5288	-432	490	255	-57	-18120	-312	-1384	131	1692	-1719	-11048	2092	12312	123	-4	-145	-16420	-3668	-1328	-252	23	214	-15680	-1268	-2696	241	42	477	127	128	8
-10100	-4108	11688	-115	178	-107	-15580	5448	-704	598	168	2	-17052	-220	-1760	577	558	-909	-11188	1944	12280	145	29	-132	-16364	-3788	-1780	108	-73	200	-15976	-684	-3756	-152	832	308	127	129	8
-10228	-3868	11500	-89	146	-29	-15436	5916	-1140	310	122	11	-16372	-100	-1964	680	327	-584	-11344	1880	12240	200	150	-148	-16132	-3348	-1648	521	-12	197	-15724	-1040	-3688	255	345	342	127	128	8
-10264	-3884	11580	-113	159	-109	-15328	5792	-1180	-184	61	9	-16172	68	-2052	541	498	-430	-11348	1908	12208	227	-19	-130	-15836	-3472	-1296	382	-10	151	-15584	-1616	-2976	332	-183	322	127	127	8
-10220	-3884	11504	-129	116	-140	-15336	5740	-772	-306	-14	-38	-16112	324	-1588	378	614	-223	-11260	1888	12152	122	-109	-100	-16076	-3556	-948	62	96	123	-16584	-1940	-2164	345	-248	111	126	129	8
-10092	-4004	11552	-113	82	-189	-15384	5700	-552	-104	-57	-100	-16124	464	-1388	371	561	-187	-11044	2152	12392	100	-201	-112	-16336	-3692	-864	-78	166	200	-15808	-1128	-2812	284	80	277	127	128	8
-10096	-3988	11628	-165	121	-229	-15476	5644	-592	236	-121	-163	-16416	352	-1504	412	551	-131	-11244	1996	12296	66	-40	-237	-16208	-3524	-1552	-336	67	106	-15772	-896	-3464	76	83	445	126	128	8
-10284	-3936	11548	-132	168	-175	-15408	5620	-716	90	-70	-130	-16408	172	-1540	447	379	-161	-11284	2016	12196	117	2	-204	-16220	-3548	-1756	182	97	63	-14732	-808	-3692	331	477	851	126	127	8
-10156	-4000	11560	-120	158	-182	-15396	5592	-668	-145	-31	-96	-16456	272	-1512	415	235	-255	-11292	1916	12192	144	-36	-175	-15960	-3612	-1556	320	94	79	-18444	-1940	-2872	-45	863	390	126	129	8
-10100	-4076	11632	-75	158	-174	-15340	5608	-524	-138	37	-44	-16260	304	-1296	201	85	-220	-11300	1884	12224	57	-66	-154	-16180	-3636	-984	195	185	117	-15600	-1320	-2600	368	403	382	126	128	8
-10152	-3972	11644	-82	138	-147	-15432	5580	-564	-92	144	-42	-16284	336	-1224	-20	57	-123	-11280	1912	12296	96	-91	-95	-15980	-3416	-620	-102	300	138	-15644	-1584	-2772	234	-5	245	126	128	8
-10172	-3900	11664	-92	156	-177	-15328	5636	-592	33	119	-42	-16268	256	-1352	-77	226	-82	-11168	2052	12248	7	-90	-255	-16440	-3472	-1360	-456	190	133	-15052	-1020	-3812	73	24	740	126	128	8
-10068	-4020	11668	-94	156	-185	-15464	5524	-652	127	90	-40	-16276	128	-1740	-41	441	-131	-11296	1988	12204	20	-16	-258	-16272	-3708	-1932	-59	150	71	-14280	-1124	-3840	43	626	1533	126	128	8
-10128	-3988	11640	-86	159	-141	-15404	5708	-764	-17	53	-80	-16284	-16	-1772	169	445	-244	-11260	1816	12216	135	27	-197	-16040	-3776	-1636	361	182	142	-15084	-1520	-3244	113	1481	2237	126	129	8
-10176	-3984	11656	-116	213	-194	-15336	5636	-796	-20	54	-136	-16364	168	-1712	353	512	-230	-11204	1908	12148	130	-82	-198	-15952	-3604	-1280	207	221	179	-16112	-1528	-3072	1227	1348	2279	125	129	8
-10144	-3888	11556	-153	192	-172	-15276	5624	-620	18	102	-122	-16228	92	-1544	451	322	-117	-11276	2052	12256	92	-126	-175	-16040	-3604	-844	-131	360	167	-15900	-1508	-2852	1528	1227	2294	126	130	8
-10152	-3988	11644	-108	184	-198	-15288	5560	-620	196	106	-146	-16176	68	-1544	590	210	-60	-11012	2276	12500	74	-40	-200	-16584	-3564	-1092	-314	326	261	-16732	-872	-3336	765	-106	1500	126	130	8
-10080	-4092	11636	-143	188	-145	-15512	5560	-840	403	-27	-148	-16180	32	-1736	532	369	-107	-11196	1956	12144	112	78	-251	-16240	-3792	-1556	-210	304	186	-16892	-376	-3604	573	-436	865	126	130	8
-10156	-4024	11664	-188	227	-113	-15468	5664	-748	-2	18	-153	-16292	60	-1864	531	404	-196	-11292	2148	12124	328	136	-287	-16152	-3660	-1564	325	462	286	-16224	-332	-3440	570	-439	698	126	130	8
-10160	-3976	11628	-175	217	-108	-15364	5592	-708	-173	72	-140	-16220	96	-1716	494	268	-103	-11276	1828	12220	238	89	-258	-15968	-3404	-1340	68	511	262	-15892	-768	-2928	626	-391	357	126	130	8
-10224	-3964	11664	-170	211	-147	-15260	5456	-544	-8	149	-114	-16320	120	-1312	368	49	-52	-11284	1928	12196	225	8	-241	-15940	-3380	-1348	28	527	222	-15904	-864	-2616	658	-461	74	126	130	8
-10156	-3944	11604	-103	186	-125	-15368	5448	-612	340	155	-94	-16200	212	-1156	357	-9	-33	-11260	1976	12212	152	-76	-243	-16184	-3356	-1376	-548	537	137	-15944	-820	-2996	254	-443	100	126	130	8
-10120	-4016	11528	-95	198	-126	-15504	5568	-756	353	220	-113	-16244	8	-1624	336	119	-82	-11128	2180	12292	136	18	-337	-16628	-3504	-1944	-375	481	102	-15828	-624	-3956	-146	-20	333	127	130	8
-10240	-3972	11644	-96	212	-75	-15452	5592	-1028	176	152	-41	-16092	-12	-2032	393	403	-193	-11204	1812	12340	124	3	-309	-16312	-3696	-2228	0	311	7	-15772	-384	-4368	-219	502	434	126	129	8
-10240	-3940	11576	-129	213	-127	-15376	5744	-836	-79	160	-95	-16140	-28	-2032	371	390	-127	-11240	1828	12336	163	50	-288	-16108	-3744	-2084	374	218	75	-16100	-632	-4488	96	807	459	126	129	8
-10196	-3972	11600	-97	207	-121	-15352	5588	-776	-109	126	-122	-16400	116	-1720	340	246	-6	-11280	1816	12192	165	-2	-135	-16008	-3528	-1588	445	196	124	-15604	-1068	-3592	686	361	292	126	129	8
-10312	-3960	11588	-143	154	-183	-15368	5524	-788	150	149	-117	-16196	188	-1488	335	92	1	-11208	2040	12232	100	-112	-146	-15960	-3420	-1352	57	175	80	-15956	-1180	-3032	868	-329	92	126	129	8
-10236	-3992	11548	-78	150	-177	-15400	5368	-736	285	145	-101	-16200	24	-1484	354	57	-61	-11100	2076	12140	106	-130	-192	-16236	-3576	-1416	-96	176	61	-15856	-768	-3124	727	-483	147	126	129	8
-10104	-4012	11628	-151	146	-141	-15516	5592	-808	342	93	-186	-16112	-52	-1904	538	284	-185	-11284	1764	12364	191	107	-216	-16400	-3652	-2120	-114	-39	64	-15992	-688	-3952	154	67	315	126	129	8
-10152	-3944	11540	-221	194	-106	-15448	5752	-1140	159	-25	-122	-16284	4	-2260	685	444	-199	-11224	1864	12324	188	124	-198	-16228	-3896	-2208	565	-78	78	-15792	-612	-4344	324	498	413	126	128	8
-10304	-3976	11536	-217	232	-52	-15440	5556	-1144	30	-115	-267	-16204	16	-2068	585	575	-59	-11320	1832	12104	292	136	-57	-15960	-3784	-1804	963	-10	111	-15660	-928	-3624	646	366	251	126	128	8
-10272	-3848	11516	-163	196	-170	-15280	5656	-1068	51	-63	-190	-15992	28	-1596	645	336	-46	-11232	2000	12180	220	-20	-41	-15920	-3324	-1212	541	55	72	-15964	-1108	-2724	866	-60	132	126	128	8
-10256	-3980	11596	-96	135	-193	-15344	5244	-620	97	84	-105	-16156	124	-1272	607	78	29	-11244	2152	12156	120	-175	-163	-16128	-3580	-1028	-74	54	60	-15924	-1176	-2768	423	-319	154	126	128	8
-10100	-4112	11588	-68	176	-186	-15596	5292	-604	379	121	-143	-16288	-160	-1504	605	87	-32	-11268	1948	12236	47	0	-257	-16356	-3628	-1700	-298	33	58	-16032	-892	-3636	-134	-87	255	126	129	8
-10076	-4036	11620	-71	113	-140	-15496	5612	-992	474	43	-31	-16348	-56	-1988	693	295	-108	-11264	1920	12200	106	0	-174	-16160	-3612	-1912	268	73	74	-15952	-324	-4088	-59	247	349	127	128	8
-10248	-3892	11552	-23	162	-85	-15420	5780	-1068	14	49	-53	-16240	112	-2328	456	424	-50	-11368	1848	12208	136	-74	-180	-15980	-3624	-1880	477	-5	49	-15712	-632	-3720	256	308	300	127	128	8
-10256	-3864	11608	-80	160	-171	-15268	5592	-912	-67	29	-39	-16136	184	-1952	245	287	-33	-11188	1900	12152	103	-136	-164	-16032	-3700	-1508	340	106	50	-15584	-1144	-3240	466	35	182	126	128	8
-10208	-3908	11612	-63	116	-232	-15312	5508	-672	-106	70	-82	-16192	212	-1752	216	95	-26	-11100	2048	12324	109	-144	-135	-16132	-3852	-1452	162	56	115	-15924	-1312	-3236	405	-127	150	126	128	8
-10152	-3908	11604	-90	145	-182	-15288	5532	-792	166	90	-70	-16176	68	-1560	315	-3	-53	-11156	1960	12212	70	-21	-192	-16364	-3752	-1716	-82	-72	66	-15852	-912	-3896	54	-35	186	127	128	8
-10116	-4100	11576	-91	158	-165	-15588	5444	-960	302	-7	-106	-16212	-72	-2236	292	125	-84	-11280	1872	12228	99	30	-163	-16132	-3680	-1944	167	-106	64	-15828	-540	-4068	-22	0	260	127	128	8
-10200	-3868	11632	-107	166	-182	-15484	5724	-1064	8	-30	-93	-16220	-156	-2324	342	139	-68	-11248	1924	12128	134	-112	-158	-16028	-3576	-1800	393	-86	85	-15672	-608	-3612	224	-9	251	127	128	8
-10284	-3980	11640	-130	168	-178	-15336	5620	-1056	-88	-71	-122	-16248	-100	-2064	419	143	-48	-11256	1952	12176	150	-134	-154	-15952	-3712	-1332	520	59	65	-15868	-1076	-3032	554	-179	153	127	128	8
-10244	-3976	11580	-80	141	-238	-15296	5420	-808	-173	4	-90	-16156	84	-1648	400	42	-5	-11092	2048	12276	129	-137	-146	-16216	-3644	-1216	200	39	74	-15872	-1136	-3180	583	-171	98	127	128	8
-10116	-3984	11572	-57	164	-227	-15440	5384	-556	49	28	-90	-16200	168	-1628	255	-78	12	-11180	1920	12212	85	-99	-175	-16288	-3704	-1656	25	29	59	-16056	-936	-3504	269	-61	198	127	128	8
-10124	-4052	11568	-100	165	-158	-15612	5496	-800	383	-27	-87	-16188	-56	-1884	307	187	-78	-11256	1968	12212	105	29	-157	-16164	-3728	-1728	145	-6	68	-15960	-676	-3612	21	-7	232	127	128	8
-10196	-4028	11552	-110	196	-99	-15492	5724	-1176	139	-56	-118	-16224	-96	-2344	352	269	-82	-11284	1944	12244	135	-39	-145	-16096	-3676	-1668	358	69	156	-15828	-744	-3648	118	26	222	126	128	8
-10272	-3948	11592	-104	209	-180	-15412	5556	-980	-145	-34	-111	-16152	-36	-2044	289	218	-41	-11284	1928	12220	138	-127	-161	-15948	-3764	-1536	167	57	127	-15744	-1148	-3240	147	-102	119	127	128	8
-10276	-3968	11564	-117	170	-206	-15240	5492	-776	-169	24	-98	-16212	56	-1624	261	-29	15	-11220	2024	12264	96	-130	-170	-16092	-3704	-1404	-66	51	139	-15808	-1132	-3348	68	-177	94	126	128	8
-10176	-3968	11548	-83	155	-199	-15332	5292	-644	-36	70	-65	-16224	-8	-1336	210	-215	21	-11184	1976	12300	102	-52	-185	-16188	-3692	-1784	-92	-3	135	-15876	-796	-3692	-177	-161	153	127	128	8
-10120	-4084	11616	-69	115	-188	-15520	5436	-688	357	94	-31	-16284	-64	-1656	215	-148	-21	-11332	1936	12272	109	-23	-193	-16164	-3668	-2012	43	-18	83	-15912	-588	-3944	-322	7	248	127	128	8
-10136	-3940	11668	-114	154	-131	-15540	5628	-1100	260	1	-103	-16248	-96	-2332	251	166	-93	-11228	1896	12188	130	-48	-177	-15984	-3544	-1872	246	-17	121	-15756	-668	-3680	4	54	227	127	128	8
-10228	-3892	11692	-94	151	-185	-15400	5684	-1048	-127	17	-27	-16076	-128	-2264	221	272	-65	-11300	1900	12220	125	-106	-151	-16024	-3632	-1512	213	39	123	-15828	-1028	-3288	352	-118	108	127	128	8
-10208	-3944	11532	-62	170	-172	-15344	5552	-968	-144	-50	-59	-16168	64	-1996	209	176	-27	-11168	2024	12280	104	-162	-144	-16124	-3744	-1260	56	17	128	-15772	-1140	-3316	280	-218	148	127	128	8
-10192	-3936	11628	-83	125	-194	-15348	5356	-756	-203	55	-34	-16168	48	-1652	180	-91	5	-11144	2028	12208	93	-151	-173	-16256	-3772	-1756	-166	-30	73	-15924	-1012	-3684	-81	-11	174	127	128	8
-10112	-4080	11712	-100	151	-207	-15548	5348	-524	179	63	-37	-16248	-40	-1744	128	-172	2	-11200	1836	12380	107	47	-152	-16200	-3748	-1928	157	-87	144	-15848	-696	-3976	-24	166	281	127	128	8
-10164	-3972	11652	-110	163	-151	-15452	5588	-1052	401	-83	-25	-16236	-148	-2272	206	129	-64	-11240	1904	12196	137	-22	-150	-16044	-3696	-1684	332	-49	112	-15716	-756	-3680	131	179	278	127	128	8
-10224	-3916	11576	-75	196	-128	-15416	5672	-1272	-60	-103	-75	-16072	-108	-2592	219	312	-87	-11220	1848	12272	171	-137	-105	-16004	-3676	-1512	305	17	127	-15708	-1072	-3276	348	-74	270	126	128	8
-10228	-3940	11440	-114	154	-215	-15372	5528	-1068	-224	-126	-90	-16104	-56	-2164	149	228	-13	-11168	2040	12208	108	-144	-161	-16144	-3728	-1332	87	5	144	-15892	-1164	-3220	223	-207	149	126	128	8
-10256	-3888	11592	-122	140	-221	-15372	5388	-756	-292	-81	-24	-16208	-8	-1612	139	-6	14	-11204	1948	12304	94	-18	-196	-16268	-3816	-1580	-210	-51	187	-15944	-1124	-3624	-171	-62	166	126	128	8
-10128	-4096	11540	-106	94	-230	-15460	5336	-436	61	-73	-34	-16288	-44	-1548	57	-89	-43	-11300	1888	12260	132	45	-163	-16228	-3600	-1880	11	-62	209	-15900	-660	-3932	-219	132	185	126	128	8
-10132	-4048	11556	-160	167	-164	-15536	5556	-772	219	-62	-75	-16316	-136	-1976	159	48	-49	-11272	1868	12180	127	7	-159	-15992	-3752	-1772	224	-62	169	-15748	-632	-3668	-210	157	249	126	128	8
-10264	-3936	11536	-145	185	-120	-15464	5664	-1036	-23	-2	-47	-16264	-64	-2256	235	135	-51	-11288	1832	12152	188	-74	-150	-15916	-3604	-1616	241	22	143	-15636	-876	-3180	52	-105	173	126	127	8
-10256	-3916	11548	-117	179	-188	-15340	5492	-972	-107	-16	-62	-16148	-40	-1820	220	76	-7	-11164	2040	12260	117	-161	-152	-16048	-3656	-1316	-12	75	175	-15800	-1292	-3204	110	-193	115	127	128	8
