#Activity	sitting 
#ActivityID	5 
#Date 10-07-18-06
acc_rf_x	acc_rf_y	acc_rf_z	gyro_rf_x	gyro_rf_y	gyro_rf_z	acc_rs_x	acc_rs_y	acc_rs_z	gyro_rs_x	gyro_rs_y	gyro_rs_z	acc_rt_x	acc_rt_y	acc_rt_z	gyro_rt_x	gyro_rt_y	gyro_rt_z	acc_lf_x	acc_lf_y	acc_lf_z	gyro_lf_x	gyro_lf_y	gyro_lf_z	acc_ls_x	acc_ls_y	acc_ls_z	gyro_ls_x	gyro_ls_y	gyro_ls_z	acc_lt_x	acc_lt_y	acc_lt_z	gyro_lt_x	gyro_lt_y	gyro_lt_z	EMG_r	EMG_l	act
-9192	-8276	10020	-61	122	-183	-16484	1916	-2204	-36	-318	270	-3144	-5004	15488	461	-27	109	-10472	3340	12680	166	-52	-81	-15948	-2504	-792	27	-284	96	-1880	-700	16916	494	-111	-105	125	114	5
-9264	-8316	10000	-55	85	-205	-16488	1936	-2136	-122	-297	231	-3104	-4908	15668	441	-100	105	-10376	3360	12724	183	2	-111	-15964	-2548	-724	79	-297	73	-1864	-596	16904	398	-158	-100	125	114	5
-9260	-8384	10008	-81	93	-206	-16508	1948	-2044	-160	-299	232	-3160	-4832	15680	436	-124	174	-10384	3380	12692	197	62	-107	-15996	-2512	-624	63	-320	72	-1776	-580	16896	324	-93	-58	125	114	5
-9204	-8276	10012	-113	116	-185	-16452	1996	-2032	-101	-270	161	-3080	-4800	15660	400	-164	240	-10432	3348	12672	176	17	-94	-16012	-2556	-596	79	-332	71	-1672	-544	16872	255	-124	7	125	114	5
-9216	-8340	9908	-112	111	-179	-16496	1912	-2008	-119	-279	114	-2924	-4756	15820	296	-188	229	-10444	3436	12808	133	79	-147	-15936	-2568	-548	138	-297	46	-1564	-604	16900	287	-91	-20	125	114	5
-9280	-8344	9964	-122	140	-210	-16500	1880	-1816	-61	-245	51	-2848	-4744	15716	130	-201	255	-10416	3412	12780	154	38	-106	-15936	-2636	-316	188	-265	31	-1416	-592	16972	268	-117	6	125	114	5
-9260	-8368	9940	-124	137	-231	-16540	1928	-1944	44	-128	60	-2708	-4716	15700	44	-224	314	-10416	3320	12768	140	17	-131	-15992	-2556	-504	210	-202	2	-1444	-644	17040	221	-79	-39	125	114	5
-9216	-8376	9972	-100	144	-154	-16412	1900	-1820	101	-97	37	-2752	-4764	15780	17	-230	277	-10424	3436	12744	141	10	-107	-15980	-2560	-380	154	-118	31	-1424	-664	17012	174	-20	-110	125	114	5
-9284	-8336	9948	-152	134	-186	-16452	1876	-1832	176	-66	21	-2740	-4756	15772	-158	-227	238	-10432	3440	12788	143	11	-159	-15960	-2588	-372	109	-55	6	-1504	-696	16960	206	13	-128	125	114	5
-9276	-8316	9984	-160	176	-184	-16520	1956	-1924	135	98	-18	-2772	-4800	15584	-219	-185	330	-10440	3492	12716	132	21	-158	-16032	-2516	-468	54	-34	12	-1496	-572	17088	175	-3	-105	125	114	5
-9196	-8364	9956	-148	182	-201	-16472	1860	-1852	107	153	-11	-2860	-4844	15652	-360	-217	329	-10448	3424	12780	94	-17	-168	-15944	-2440	-440	39	56	-21	-1600	-580	17016	110	-49	-112	126	114	5
-9208	-8380	9936	-178	182	-175	-16508	1940	-1984	36	198	-53	-3004	-4896	15648	-477	-267	312	-10432	3448	12736	96	-13	-196	-16000	-2492	-536	12	31	-42	-1696	-660	16820	92	-94	-72	126	114	5
-9220	-8292	9924	-123	200	-156	-16500	1852	-2080	-6	242	-48	-3084	-5004	15544	-524	-278	391	-10424	3360	12744	130	-45	-169	-16044	-2500	-548	108	36	5	-1800	-636	16940	30	-86	19	126	114	5
-9264	-8344	9936	-146	170	-175	-16552	1908	-2212	29	192	-105	-3244	-5088	15648	-483	-317	472	-10396	3440	12800	121	-25	-187	-16040	-2484	-608	145	10	-84	-1992	-748	16960	85	-48	112	127	115	5
-9216	-8284	9960	-168	201	-201	-16532	1856	-2224	23	156	-96	-3284	-5120	15520	-403	-350	568	-10440	3420	12764	111	-12	-152	-16024	-2392	-712	196	-15	-73	-2032	-664	16984	71	-50	179	126	114	5
-9280	-8320	10044	-178	180	-192	-16488	1816	-2468	42	58	-94	-3444	-5216	15472	-320	-310	597	-10432	3336	12716	127	48	-184	-16028	-2512	-796	241	-137	-99	-2116	-668	16820	82	12	184	126	114	5
-9264	-8400	10096	-190	182	-228	-16516	1824	-2544	72	-27	-90	-3412	-5180	15468	-232	-323	559	-10400	3372	12732	142	18	-121	-16020	-2436	-796	207	-221	-126	-2148	-704	16796	86	-30	181	126	114	5
-9240	-8360	9900	-173	162	-224	-16520	1764	-2440	22	-158	-49	-3468	-5168	15532	-69	-240	520	-10416	3372	12808	158	23	-102	-16044	-2504	-920	212	-324	-118	-2124	-784	16820	28	16	181	126	115	5
-9252	-8312	10036	-206	154	-223	-16548	1776	-2400	38	-290	-93	-3368	-5200	15616	101	-205	426	-10464	3356	12800	146	66	-65	-15996	-2532	-724	266	-417	-112	-2112	-752	16900	70	-16	108	126	114	5
-9236	-8368	9912	-204	162	-311	-16488	1864	-2292	-15	-371	-54	-3300	-5104	15456	65	-162	346	-10412	3388	12744	186	46	-82	-16044	-2608	-540	328	-500	-141	-1992	-692	16824	56	-81	55	125	114	5
-9276	-8372	9868	-219	134	-280	-16516	1752	-2208	-198	-389	-65	-3040	-5172	15552	114	-215	291	-10424	3296	12768	185	80	-127	-15988	-2640	-540	482	-579	-126	-1792	-736	16984	41	-60	4	125	114	5
-9212	-8400	9904	-197	126	-222	-16544	1704	-2248	-58	-431	-107	-3084	-5196	15764	62	-129	295	-10448	3456	12692	207	57	-10	-15932	-2692	-456	420	-559	-107	-1672	-772	16868	-31	4	-78	125	113	5
-9300	-8332	9920	-200	120	-242	-16520	1716	-1928	-96	-393	-61	-2892	-5120	15588	54	-163	261	-10384	3420	12684	208	54	-80	-16000	-2680	-420	469	-562	-130	-1520	-936	16912	22	19	-114	125	114	5
-9252	-8376	10004	-179	158	-236	-16508	1724	-1920	-34	-315	-22	-2744	-5060	15584	148	-165	278	-10460	3368	12824	202	103	-59	-15980	-2656	-272	450	-535	-61	-1516	-872	16996	52	-11	-164	125	114	5
-9316	-8452	10096	-205	158	-247	-16544	1684	-1796	-71	-285	-51	-2732	-5152	15628	143	-155	298	-10456	3468	12824	190	126	-91	-15968	-2660	-320	395	-479	-59	-1408	-900	17048	7	45	-171	126	114	5
-9368	-8316	10008	-180	133	-239	-16512	1592	-1700	94	-241	-16	-2716	-5028	15736	39	-129	274	-10344	3424	12768	174	93	-88	-15916	-2628	-164	345	-411	-25	-1308	-908	16884	108	12	-241	126	114	5
-9244	-8388	9924	-161	140	-208	-16512	1656	-1860	52	-196	-18	-2740	-5012	15728	61	-124	302	-10432	3404	12720	150	48	-109	-15948	-2644	-216	236	-293	-14	-1240	-880	17064	135	11	-188	126	114	5
-9204	-8328	9900	-161	144	-226	-16500	1764	-1780	114	-118	24	-2780	-4964	15636	34	-150	285	-10436	3460	12716	131	31	-124	-15988	-2588	-256	191	-234	53	-1316	-900	17004	229	29	-200	126	114	5
-9212	-8412	9960	-182	146	-164	-16484	1764	-1856	64	-63	-8	-2864	-5048	15592	-91	-144	346	-10404	3456	12768	153	21	-111	-15980	-2628	-260	156	-177	70	-1436	-792	16952	359	14	-173	126	114	5
-9216	-8364	10008	-132	149	-180	-16504	1728	-1932	-10	-25	-15	-2888	-4960	15636	-128	-198	436	-10520	3536	12716	159	34	-132	-15972	-2656	-196	126	-126	51	-1488	-728	17004	404	-53	-112	126	114	5
-9232	-8400	9904	-117	185	-200	-16544	1672	-1968	34	-12	24	-3012	-5080	15624	-148	-247	408	-10380	3480	12792	130	39	-144	-15940	-2492	-200	125	-94	80	-1552	-728	16932	344	-82	-12	125	114	5
-9308	-8440	10016	-130	175	-192	-16540	1696	-2032	19	33	-1	-2976	-5076	15444	-122	-253	410	-10508	3460	12684	92	40	-159	-15976	-2568	-312	164	-48	29	-1596	-584	16968	286	-61	-65	126	114	5
-9272	-8432	9948	-95	182	-176	-16540	1588	-1836	30	82	-34	-3036	-5164	15720	-98	-224	382	-10424	3424	12748	127	57	-142	-15924	-2548	-292	156	-45	4	-1664	-656	17032	211	-12	-70	125	114	5
-9192	-8436	9936	-114	145	-174	-16548	1568	-1996	27	58	-2	-3004	-5140	15584	-58	-216	375	-10484	3396	12772	124	36	-155	-16036	-2496	-352	115	-75	16	-1664	-652	17004	170	13	-80	125	114	5
-9220	-8416	9948	-118	150	-181	-16508	1696	-1908	88	6	17	-3016	-5092	15668	-93	-164	342	-10440	3456	12700	142	-11	-125	-15976	-2476	-412	88	-51	-8	-1700	-640	16908	98	96	-72	125	114	5
-9300	-8392	10004	-119	173	-166	-16568	1648	-1976	116	-23	24	-3076	-5052	15588	-138	-189	303	-10504	3412	12752	152	-2	-172	-16028	-2540	-288	31	-111	17	-1752	-636	16944	108	50	-61	125	114	5
-9300	-8416	10032	-116	156	-172	-16540	1764	-2092	80	9	60	-3084	-5088	15580	-167	-205	296	-10464	3400	12624	119	2	-167	-15996	-2508	-320	30	-45	-48	-1748	-652	16808	137	17	-97	125	114	5
-9252	-8448	9860	-114	154	-231	-16500	1780	-2048	93	-35	36	-3072	-5036	15600	-144	-215	239	-10484	3380	12700	126	-35	-106	-16060	-2520	-196	25	-28	-42	-1748	-684	16892	92	-4	-32	125	114	5
-9248	-8316	9988	-130	155	-259	-16528	1668	-2100	56	-7	18	-3080	-5076	15560	-106	-246	242	-10516	3424	12716	144	-46	-124	-16012	-2564	-304	58	-71	-38	-1728	-672	17036	49	29	-9	125	114	5
-9300	-8448	9868	-126	152	-167	-16548	1744	-2064	-26	-66	-35	-3092	-5056	15584	-153	-252	260	-10516	3432	12728	146	-37	-149	-16004	-2560	-340	20	-89	-128	-1764	-656	16932	28	-13	15	125	114	5
-9292	-8408	10060	-123	150	-184	-16584	1720	-2052	29	-14	-37	-2976	-5112	15624	-214	-215	291	-10456	3416	12628	130	-8	-129	-15960	-2532	-292	62	-70	-129	-1716	-652	16744	16	23	18	125	114	5
-9240	-8460	9932	-166	175	-188	-16536	1708	-1948	26	-41	-23	-3048	-4980	15544	-235	-204	295	-10472	3448	12664	126	-39	-100	-16024	-2556	-388	68	-91	-104	-1784	-752	16992	8	77	32	126	114	5
-9204	-8464	9912	-138	162	-236	-16532	1724	-2028	8	-76	-89	-3084	-5088	15460	-223	-225	315	-10456	3452	12732	144	-31	-146	-15984	-2596	-284	68	-114	-85	-1752	-852	16968	-7	100	106	126	114	5
-9236	-8424	9960	-151	119	-193	-16576	1656	-2008	-11	-71	-102	-3044	-5040	15632	-237	-243	344	-10392	3340	12740	114	-15	-132	-16024	-2564	-384	40	-92	-115	-1732	-768	16944	-29	73	61	125	114	5
-9216	-8392	9880	-157	154	-210	-16532	1636	-2092	83	-79	-96	-2960	-5148	15572	-254	-206	365	-10400	3488	12684	110	-31	-114	-16032	-2596	-300	26	-139	-146	-1656	-792	16968	40	75	89	126	114	5
-9316	-8296	9892	-154	158	-220	-16448	1708	-1888	13	-49	-129	-2972	-5076	15588	-286	-226	378	-10496	3456	12644	109	12	-177	-15948	-2656	-188	18	-162	-126	-1696	-880	16964	-76	60	86	125	114	5
-9224	-8424	9916	-170	173	-203	-16568	1560	-1916	64	-37	-143	-2920	-5104	15620	-368	-280	444	-10440	3448	12676	116	-25	-147	-15964	-2632	-324	5	-135	-97	-1648	-892	16900	-30	2	87	125	114	5
-9200	-8428	9892	-189	189	-196	-16612	1640	-1860	79	53	-181	-2940	-5168	15544	-380	-301	445	-10400	3472	12732	140	-18	-157	-15960	-2612	-276	5	-122	-85	-1520	-936	16896	-10	22	74	126	114	5
-9224	-8448	9884	-170	169	-189	-16520	1624	-2028	52	81	-153	-2928	-5120	15528	-435	-272	449	-10484	3456	12720	146	13	-115	-15916	-2704	-352	58	-83	-85	-1532	-936	16936	-14	-42	59	126	114	5
-9256	-8408	9820	-207	173	-211	-16516	1524	-2144	63	53	-167	-3088	-5284	15600	-484	-285	444	-10404	3444	12616	111	-13	-141	-16004	-2652	-320	59	-68	-57	-1652	-892	16760	59	12	31	125	114	5
-9256	-8448	9912	-184	204	-216	-16572	1544	-1904	-36	82	-154	-3024	-5356	15436	-433	-296	379	-10516	3456	12616	109	-38	-148	-16012	-2608	-244	3	-90	-68	-1688	-976	16904	133	-25	36	126	114	5
-9328	-8536	9808	-180	180	-220	-16536	1448	-1976	91	50	-146	-3068	-5432	15500	-393	-289	460	-10556	3468	12624	106	10	-152	-16000	-2568	-212	7	-83	-36	-1656	-888	17012	190	-38	63	125	114	5
-9268	-8436	9936	-178	163	-207	-16532	1496	-2004	90	32	-122	-3068	-5484	15424	-345	-278	441	-10492	3476	12652	153	-15	-196	-15992	-2544	-400	27	-110	-52	-1724	-780	16812	178	19	118	125	114	5
-9260	-8548	9844	-138	143	-195	-16548	1408	-2072	16	17	-95	-3108	-5496	15452	-204	-291	431	-10448	3476	12732	123	-30	-151	-15992	-2560	-232	15	-113	-67	-1672	-832	16960	185	29	166	126	114	5
-9256	-8408	9900	-143	165	-217	-16564	1400	-2136	54	-6	-35	-3016	-5548	15480	-119	-256	406	-10440	3456	12712	141	-38	-176	-16028	-2648	-372	-12	-117	-67	-1780	-828	16980	164	4	191	126	115	5
-9276	-8416	9996	-171	148	-203	-16580	1452	-1976	62	38	-37	-2924	-5504	15496	-61	-195	354	-10432	3456	12680	105	15	-152	-15964	-2700	-320	-1	-112	-79	-1752	-876	17012	171	44	176	126	114	5
-9260	-8436	9988	-116	171	-215	-16604	1468	-2088	56	30	2	-2912	-5444	15464	-56	-167	287	-10456	3460	12648	118	-33	-153	-15984	-2684	-216	35	-107	-92	-1640	-916	17004	191	53	90	126	114	5
-9228	-8480	9860	-129	145	-186	-16560	1400	-1968	125	2	81	-2836	-5412	15456	-25	-181	215	-10516	3448	12704	62	48	-148	-15980	-2664	-228	7	-104	-36	-1608	-824	16912	166	41	-4	125	114	5
-9224	-8532	9812	-151	131	-142	-16572	1424	-1960	114	7	80	-2972	-5436	15416	23	-124	202	-10484	3492	12696	95	-34	-127	-15964	-2620	-140	19	-56	-41	-1552	-884	16912	125	-8	-44	126	114	5
-9252	-8436	9856	-153	153	-176	-16572	1408	-1972	170	-3	123	-2852	-5360	15632	30	-137	196	-10504	3436	12772	48	28	-162	-15980	-2672	-200	-7	-46	-38	-1488	-860	16980	71	-43	-6	126	114	5
-9232	-8448	9828	-136	134	-171	-16592	1504	-1876	135	21	115	-2920	-5256	15576	28	-119	194	-10440	3420	12700	101	1	-158	-16004	-2604	-232	-22	-19	-57	-1632	-848	17040	51	26	63	126	114	5
-9272	-8432	9916	-121	150	-157	-16492	1460	-2004	110	59	103	-2816	-5248	15500	-40	-174	248	-10496	3496	12672	82	-5	-166	-15952	-2604	-304	-40	-19	-54	-1688	-892	17044	77	41	94	126	114	5
-9268	-8448	9976	-114	162	-189	-16504	1544	-2092	101	112	103	-2980	-5344	15480	-134	-175	309	-10416	3484	12776	76	-8	-179	-16024	-2644	-224	-29	13	-28	-1680	-888	17024	94	51	97	126	114	5
-9316	-8480	9856	-84	154	-151	-16508	1476	-2144	104	125	79	-3008	-5384	15468	-137	-180	273	-10452	3456	12780	90	-47	-178	-15996	-2584	-228	-21	15	-55	-1724	-908	16956	183	44	119	126	114	5
-9272	-8440	9908	-94	137	-158	-16540	1488	-2116	161	82	98	-3084	-5428	15400	-116	-174	279	-10444	3488	12636	98	-21	-175	-15980	-2552	-212	6	-25	-25	-1804	-852	16788	250	22	130	126	114	5
-9288	-8396	9896	-106	137	-162	-16512	1432	-2180	129	23	104	-3100	-5436	15504	-74	-190	296	-10496	3428	12644	123	-75	-173	-15980	-2644	-228	15	-19	-32	-1748	-832	16868	274	-11	123	126	114	5
-9272	-8444	9844	-74	150	-184	-16540	1448	-2200	125	44	103	-3048	-5340	15440	-47	-245	217	-10496	3428	12680	118	-58	-135	-16004	-2628	-520	4	9	-35	-1784	-820	16904	208	-19	99	125	114	5
-9272	-8372	9836	-96	144	-156	-16504	1460	-2112	86	-21	146	-3072	-5448	15536	-11	-140	250	-10452	3444	12648	123	-23	-135	-16016	-2524	-280	47	-65	-33	-1828	-808	16912	186	-15	84	125	114	5
-9252	-8428	9872	-106	137	-177	-16544	1448	-2104	33	4	121	-3040	-5456	15420	38	-177	207	-10468	3452	12600	144	-31	-154	-16008	-2560	-428	-74	-66	-44	-1800	-836	16852	167	-14	59	125	114	5
-9284	-8524	9912	-112	127	-141	-16544	1448	-2072	56	5	122	-2980	-5408	15412	89	-166	200	-10420	3388	12628	116	-7	-151	-16044	-2536	-344	-92	-73	-36	-1728	-884	16884	141	9	82	126	114	5
-9208	-8356	9952	-86	141	-175	-16576	1480	-2064	68	-52	181	-3112	-5416	15440	74	-182	181	-10440	3452	12668	117	-18	-171	-15988	-2612	-304	-88	-92	-96	-1784	-920	16888	130	18	102	126	114	5
-9240	-8428	9816	-66	149	-165	-16508	1484	-2104	35	-56	139	-3072	-5340	15404	61	-160	179	-10444	3408	12700	99	52	-140	-15948	-2660	-276	-43	-120	-72	-1712	-888	16944	182	-23	128	126	114	5
-9268	-8344	9884	-66	114	-154	-16472	1496	-2088	-4	-89	165	-3068	-5292	15432	92	-175	179	-10476	3468	12716	111	-8	-156	-15980	-2688	-276	-24	-106	-46	-1672	-912	17052	210	-46	128	126	114	5
-9296	-8396	9944	-50	138	-182	-16472	1516	-2020	11	-71	177	-3004	-5348	15484	103	-174	146	-10420	3472	12756	129	-62	-149	-16028	-2604	-296	-14	-129	-70	-1768	-876	16916	257	-35	95	126	114	5
-9252	-8400	9932	-111	157	-199	-16552	1564	-1976	42	-56	134	-2988	-5332	15492	103	-160	109	-10436	3440	12708	127	-13	-132	-15964	-2592	-308	24	-79	-55	-1624	-840	16964	241	-54	78	126	114	5
-9244	-8392	9864	-78	110	-163	-16536	1516	-2008	46	-36	154	-2932	-5248	15616	58	-154	153	-10400	3444	12764	106	19	-153	-15956	-2640	-180	3	-77	-52	-1636	-792	16996	200	-42	84	125	114	5
-9304	-8428	9856	-119	138	-154	-16584	1588	-1964	62	-55	145	-2996	-5236	15596	27	-136	160	-10520	3456	12700	119	-39	-156	-16024	-2612	-268	-18	-74	-76	-1612	-808	16992	161	41	50	126	114	5
-9212	-8416	9808	-97	145	-195	-16520	1636	-2092	57	-46	121	-2988	-5240	15520	-9	-147	176	-10468	3508	12724	131	-43	-166	-15960	-2564	-316	-33	-38	-56	-1652	-808	16796	145	17	42	125	114	5
-9252	-8408	9872	-113	139	-211	-16444	1604	-2060	50	-57	99	-3012	-5300	15648	-4	-169	168	-10436	3440	12716	141	-32	-143	-16048	-2572	-240	-60	-44	-9	-1792	-824	17048	110	-7	63	125	114	5
-9240	-8412	9912	-132	144	-190	-16544	1528	-2052	71	-47	79	-3028	-5276	15584	-45	-181	176	-10460	3468	12772	116	16	-165	-15988	-2644	-260	-38	-28	-68	-1604	-832	17084	135	-22	86	125	114	5
-9260	-8512	9804	-146	145	-182	-16560	1576	-2092	41	-53	74	-3032	-5224	15496	-50	-140	177	-10432	3444	12736	117	19	-187	-15968	-2656	-208	-4	-51	-46	-1628	-844	16908	172	-59	76	125	114	5
-9252	-8472	9916	-137	162	-201	-16508	1512	-2092	15	-55	48	-2996	-5348	15596	-104	-191	206	-10524	3440	12744	81	-18	-170	-15956	-2588	-180	-16	5	-99	-1668	-908	16928	154	-71	109	125	114	5
-9272	-8472	9788	-108	153	-193	-16540	1504	-1956	59	-41	31	-2996	-5320	15536	-111	-165	241	-10472	3448	12680	79	8	-177	-15968	-2580	-260	-65	39	-65	-1636	-864	16992	137	-22	70	125	114	5
-9176	-8412	9860	-133	147	-205	-16488	1476	-1972	48	-62	11	-2964	-5364	15500	-152	-177	250	-10456	3392	12704	66	-26	-135	-15968	-2632	-224	-33	20	-21	-1692	-864	16896	135	1	158	125	114	5
-9228	-8464	9964	-138	155	-227	-16488	1448	-2000	30	-33	-8	-2956	-5428	15560	-125	-201	242	-10464	3492	12596	85	-4	-190	-15996	-2604	-252	-67	12	-70	-1644	-824	16960	155	-23	186	125	114	5
-9268	-8508	9964	-134	145	-201	-16508	1440	-2040	41	-48	6	-2856	-5384	15636	-100	-207	240	-10440	3452	12760	95	-41	-207	-15980	-2616	-192	-128	48	-83	-1696	-876	16924	160	-50	125	125	114	5
-9184	-8420	9948	-138	117	-210	-16512	1500	-2016	44	-19	13	-2888	-5336	15444	-92	-196	215	-10524	3388	12676	116	-49	-202	-15956	-2616	-324	-99	39	-76	-1652	-880	16992	123	22	138	126	114	5
-9168	-8448	9916	-111	118	-184	-16548	1428	-1972	33	4	42	-2768	-5344	15524	-150	-187	214	-10460	3488	12792	71	-42	-180	-16020	-2644	-300	-70	23	-55	-1640	-776	16916	116	17	164	125	114	5
-9280	-8500	9968	-119	172	-185	-16508	1416	-1960	137	43	59	-2792	-5484	15496	-145	-207	217	-10448	3408	12692	94	-25	-157	-16084	-2720	-252	-64	47	-50	-1644	-916	16980	128	5	115	125	114	5
-9256	-8412	9892	-91	177	-156	-16588	1376	-1988	129	118	69	-2788	-5512	15528	-162	-185	187	-10472	3456	12812	85	-40	-192	-15960	-2688	-372	-55	34	-66	-1668	-956	16996	130	-15	98	125	114	5
-9224	-8488	9868	-61	160	-168	-16556	1392	-1884	168	157	107	-2780	-5424	15504	-161	-200	163	-10452	3424	12884	86	-35	-192	-15976	-2732	-288	16	74	-43	-1640	-1044	16944	143	14	33	125	114	5
-9208	-8492	9856	-108	169	-119	-16520	1360	-2020	185	159	152	-2752	-5480	15460	-133	-179	111	-10428	3496	12720	63	-15	-165	-15960	-2652	-284	60	96	-7	-1568	-976	17036	166	-20	-9	125	114	5
-9220	-8408	9880	-103	146	-134	-16524	1380	-1952	218	213	143	-2876	-5512	15572	-53	-171	139	-10404	3400	12748	101	1	-202	-15988	-2680	-332	25	139	-2	-1656	-976	16896	197	7	-25	125	114	5
-9288	-8440	9908	-55	128	-166	-16516	1356	-1992	247	217	189	-2968	-5460	15424	-50	-192	127	-10432	3464	12716	73	32	-180	-15992	-2720	-440	37	101	3	-1692	-980	16916	247	-24	-26	125	114	5
-9156	-8348	9816	-78	97	-169	-16484	1420	-2152	335	245	226	-2908	-5452	15484	-14	-116	144	-10480	3428	12668	79	-33	-155	-15992	-2632	-332	63	88	6	-1796	-1012	16776	231	31	-42	126	114	5
-9228	-8408	9828	-84	129	-133	-16516	1420	-2216	260	150	203	-3164	-5448	15468	-2	-139	124	-10472	3404	12792	118	-31	-173	-15972	-2660	-412	13	50	37	-1908	-964	17040	288	9	-22	125	114	5
-9268	-8444	10004	-56	132	-97	-16516	1488	-2272	257	150	200	-3188	-5424	15428	-67	-185	142	-10472	3436	12764	84	-20	-140	-15976	-2624	-492	29	19	47	-1872	-896	16912	325	4	-32	125	114	5
-9252	-8432	9828	-55	123	-92	-16480	1508	-2364	184	86	195	-3280	-5460	15416	-63	-155	103	-10512	3432	12756	131	-18	-137	-16036	-2592	-516	48	-64	43	-1976	-884	16876	354	-49	-29	125	114	5
-9296	-8412	9924	-76	132	-169	-16532	1552	-2316	106	36	212	-3268	-5520	15380	33	-167	116	-10452	3404	12768	126	-7	-163	-15984	-2560	-440	69	-102	40	-1960	-864	16920	332	-34	-3	125	114	5
-9292	-8440	9808	-83	129	-178	-16528	1496	-2360	73	-23	186	-3280	-5512	15356	151	-148	116	-10460	3500	12728	128	-4	-121	-15952	-2600	-436	22	-96	9	-1968	-784	16884	317	-39	12	125	114	5
-9276	-8440	9924	-85	127	-210	-16504	1508	-2384	45	-115	157	-3116	-5436	15348	190	-126	152	-10444	3464	12748	152	-34	-112	-15976	-2576	-348	-3	-158	-13	-1728	-808	16844	253	-79	15	125	114	5
-9280	-8408	9956	-74	140	-176	-16508	1508	-2384	42	-157	180	-3152	-5364	15480	186	-92	129	-10452	3432	12796	141	5	-109	-15976	-2592	-484	6	-191	4	-1700	-848	16956	245	-14	-38	125	114	5
-9248	-8416	9948	-92	121	-202	-16452	1516	-2280	28	-198	110	-3040	-5392	15400	180	-89	139	-10296	3412	12640	191	-18	-115	-15912	-2564	-460	-56	-163	-7	-1744	-860	16768	282	-40	19	125	114	5
-9272	-8480	9864	-111	85	-203	-16484	1464	-2152	24	-195	133	-2884	-5380	15480	109	-136	143	-10516	3396	12632	143	-19	-133	-16160	-2612	-304	-39	-180	-37	-1668	-812	17080	245	-42	51	125	114	5
-9232	-8472	9948	-101	147	-227	-16544	1480	-2020	40	-189	152	-2916	-5356	15504	171	-91	144	-10476	3476	12768	127	-10	-120	-15908	-2608	-324	-39	-155	-39	-1660	-812	17012	231	-38	113	125	114	5
-9240	-8448	9888	-76	149	-189	-16468	1420	-1968	38	-152	114	-2816	-5408	15584	91	-104	145	-10496	3416	12708	141	-47	-121	-16008	-2608	-204	12	-134	-8	-1536	-828	16964	189	-48	99	125	114	5
-9256	-8420	9880	-85	137	-199	-16512	1444	-2108	71	-106	150	-2776	-5392	15476	80	-134	164	-10520	3492	12740	110	-32	-114	-15976	-2532	-244	20	-101	-52	-1632	-764	17004	221	-39	74	126	114	5
-9196	-8496	9972	-102	137	-162	-16544	1384	-1936	51	-87	114	-2868	-5444	15588	38	-119	178	-10464	3448	12648	114	2	-147	-15956	-2656	-192	23	-118	-68	-1620	-860	16840	181	-72	61	125	114	5
-9240	-8468	9960	-100	131	-145	-16572	1424	-1992	34	-40	133	-2760	-5428	15396	69	-110	153	-10500	3476	12672	116	14	-143	-15964	-2620	-168	6	-77	-87	-1580	-848	16852	164	-54	71	126	114	5
-9220	-8492	9844	-88	103	-172	-16528	1376	-2044	49	-13	182	-2848	-5476	15456	123	-103	85	-10424	3464	12720	62	-27	-156	-16016	-2648	-216	-24	-42	-81	-1564	-788	16924	147	-88	92	126	114	5
-9300	-8492	9964	-78	161	-151	-16536	1360	-2040	78	20	183	-2764	-5484	15536	50	-148	75	-10448	3476	12692	80	-18	-149	-15932	-2656	-176	-71	-1	-22	-1536	-848	17008	114	-134	74	126	114	5
-9304	-8464	9964	-60	136	-162	-16528	1396	-2008	126	15	246	-2792	-5540	15408	84	-156	81	-10452	3440	12708	89	-7	-160	-15956	-2720	-224	-35	31	-29	-1500	-972	16984	127	-140	96	126	114	5
-9248	-8432	9896	-68	142	-114	-16504	1344	-2080	108	6	289	-2848	-5580	15516	168	-119	131	-10468	3424	12652	74	-28	-171	-15968	-2656	-336	-27	76	3	-1564	-956	17040	142	-118	80	126	114	5
-9244	-8436	9920	-49	149	-111	-16556	1448	-2140	77	80	273	-2892	-5616	15424	211	-83	123	-10492	3352	12748	93	-12	-210	-15972	-2716	-408	-9	70	-5	-1660	-992	16944	154	-78	54	126	114	5
-9260	-8400	9900	-41	124	-124	-16484	1440	-2092	133	77	328	-2992	-5512	15356	199	-94	97	-10468	3360	12692	101	-28	-170	-15960	-2572	-352	22	69	43	-1744	-944	16904	342	-37	62	126	114	5
-9268	-8368	9804	-1	113	-119	-16580	1396	-2332	98	29	381	-3152	-5632	15492	269	-52	79	-10476	3388	12656	104	9	-161	-16008	-2612	-492	-7	68	18	-1792	-892	16816	378	-53	98	125	114	5
-9348	-8416	9828	-19	121	-125	-16556	1404	-2332	99	-31	406	-3212	-5548	15400	352	-17	24	-10480	3436	12800	106	27	-132	-15988	-2552	-416	8	-15	-3	-1952	-792	16956	326	-75	121	126	114	5
-9224	-8460	9888	-5	91	-142	-16528	1508	-2332	107	-72	449	-3100	-5468	15376	473	-53	-59	-10436	3412	12812	96	-34	-131	-15948	-2604	-560	33	-23	17	-1872	-844	16884	354	-88	56	125	114	5
-9268	-8384	9956	-46	101	-148	-16404	1548	-2432	69	-97	394	-3164	-5292	15340	511	-66	-69	-10440	3428	12640	133	-30	-150	-16012	-2560	-436	-8	-71	1	-1788	-732	17004	256	-80	18	125	114	5
-9272	-8384	10008	0	78	-119	-16520	1616	-2228	73	-145	401	-3100	-5244	15556	523	-11	-71	-10452	3440	12732	117	19	-148	-16032	-2568	-360	25	-109	0	-1792	-748	16852	233	-49	13	125	114	5
-9272	-8372	9860	-20	103	-141	-16528	1672	-2092	31	-161	403	-3108	-5180	15556	477	19	-25	-10416	3448	12704	149	-44	-112	-16004	-2528	-444	38	-136	3	-1680	-772	16932	171	-12	66	125	114	5
-9304	-8376	9924	-59	75	-148	-16496	1692	-2212	32	-174	341	-3096	-5072	15548	428	-13	-9	-10484	3400	12684	137	13	-122	-15984	-2640	-312	-12	-161	-50	-1748	-828	16892	210	-3	11	125	114	5
-9244	-8484	9928	-54	94	-146	-16500	1708	-2192	30	-87	268	-3104	-5108	15560	318	-30	21	-10444	3424	12712	128	10	-126	-16016	-2536	-424	-24	-169	-35	-1680	-756	16920	271	-36	71	125	114	5
-9312	-8380	9928	-91	127	-165	-16480	1704	-2032	-49	-174	205	-3060	-5080	15600	314	-35	58	-10432	3456	12708	126	-51	-133	-15992	-2560	-260	-3	-162	-8	-1568	-800	16980	218	-64	102	125	114	5
-9300	-8416	9920	-81	117	-177	-16524	1620	-2012	51	-147	165	-2848	-5028	15680	216	-98	116	-10444	3428	12572	141	-4	-115	-15996	-2660	-248	-1	-156	-58	-1608	-788	16836	225	-39	105	125	114	5
-9248	-8424	9932	-92	113	-194	-16472	1724	-1848	68	-132	132	-2900	-4992	15648	149	-98	157	-10336	3472	12672	120	-58	-144	-15932	-2664	-168	-25	-90	-27	-1476	-836	16996	229	10	92	126	114	5
-9304	-8416	9860	-93	135	-179	-16528	1700	-1984	121	-109	104	-2816	-5028	15644	12	-117	202	-10472	3420	12600	88	-6	-149	-15960	-2664	-104	-22	-43	-51	-1412	-832	17060	192	-42	42	126	114	5
-9300	-8496	9876	-166	131	-219	-16428	1652	-1912	169	-3	67	-2748	-5228	15580	30	-163	274	-10452	3380	12740	94	-8	-178	-15968	-2692	-188	-4	-13	-9	-1392	-848	17008	137	-33	23	126	114	5
-9304	-8352	9928	-196	161	-184	-16540	1592	-2056	196	4	54	-2792	-5164	15680	-55	-192	284	-10428	3428	12824	78	-37	-185	-16032	-2612	-244	-40	53	33	-1480	-804	16960	145	-28	-31	126	114	5
-9316	-8448	9944	-170	167	-215	-16492	1504	-1896	191	28	42	-2860	-5228	15652	-93	-167	306	-10500	3428	12724	48	41	-158	-15984	-2688	-220	2	58	7	-1516	-848	17024	147	-65	-8	126	115	5
-9304	-8460	9968	-107	170	-180	-16524	1556	-2160	181	43	80	-3004	-5240	15600	-167	-161	260	-10452	3460	12784	75	3	-186	-15980	-2516	-312	-24	87	26	-1464	-836	16980	208	22	-14	126	115	5
-9220	-8424	9852	-170	184	-147	-16476	1520	-2140	144	73	73	-3080	-5336	15440	-217	-186	252	-10412	3412	12744	92	-19	-151	-16000	-2544	-368	2	71	13	-1784	-812	16888	268	-48	18	126	114	5
-9204	-8424	9824	-171	157	-200	-16468	1468	-1980	105	48	53	-3072	-5412	15428	-223	-182	257	-10524	3472	12828	106	-48	-170	-16044	-2616	-448	41	72	-7	-1820	-808	16964	296	-45	32	126	114	5
-9248	-8416	9900	-82	170	-207	-16572	1496	-2360	63	-23	112	-3172	-5484	15444	-59	-206	245	-10504	3364	12728	92	3	-156	-15940	-2552	-448	43	-13	-37	-1900	-656	16900	271	-16	100	126	114	5
-9304	-8424	9828	-125	147	-200	-16580	1468	-2276	59	-56	118	-3172	-5496	15384	41	-138	218	-10572	3456	12624	109	-46	-146	-15968	-2524	-424	14	0	-77	-1900	-664	16828	211	-1	75	125	114	5
-9300	-8412	9892	-89	142	-199	-16560	1488	-2216	64	-124	175	-3108	-5476	15508	116	-97	156	-10472	3384	12756	105	-30	-132	-15992	-2528	-500	-22	-94	-111	-1840	-724	16844	127	3	98	125	114	5
-9252	-8408	9908	-106	118	-177	-16500	1556	-2252	90	-176	162	-3152	-5448	15556	155	-57	110	-10420	3396	12720	122	-1	-151	-15984	-2492	-404	-55	-128	-102	-1760	-788	16816	151	15	122	125	114	5
-9312	-8480	9904	-106	112	-175	-16492	1520	-2200	46	-189	212	-3052	-5392	15436	216	-54	59	-10412	3440	12712	135	-31	-138	-15976	-2532	-432	-54	-173	-110	-1760	-732	16956	99	-5	117	125	114	5
-9252	-8428	9912	-98	125	-194	-16552	1564	-2040	54	-213	204	-2980	-5272	15540	251	-47	31	-10452	3452	12700	107	-4	-125	-15916	-2560	-288	-80	-213	-107	-1732	-796	16956	145	-7	73	125	114	5
-9240	-8456	9876	-69	96	-178	-16524	1544	-1984	35	-167	177	-2832	-5228	15508	240	-59	51	-10476	3404	12688	150	-29	-117	-15976	-2632	-296	-47	-193	-88	-1512	-820	16976	74	-33	131	125	114	5
-9224	-8460	9904	-67	137	-162	-16556	1584	-1980	36	-162	202	-2812	-5244	15612	235	-100	26	-10420	3480	12800	132	-39	-116	-15876	-2608	-196	-11	-117	-82	-1444	-824	16856	75	-54	79	125	114	5
-9292	-8384	9892	-89	119	-188	-16540	1512	-1992	36	-61	196	-2776	-5208	15536	167	-120	73	-10520	3448	12804	113	-19	-153	-15892	-2700	-108	-29	-102	-27	-1372	-844	16952	86	1	69	126	114	5
-9252	-8412	9936	-66	169	-173	-16556	1596	-1920	25	-44	229	-2768	-5132	15604	109	-173	88	-10440	3440	12780	107	-13	-149	-15952	-2696	-212	-15	-42	-72	-1312	-892	17104	94	-67	58	126	114	5
-9212	-8424	9880	-81	132	-175	-16548	1572	-1804	79	9	145	-2744	-5248	15600	52	-158	143	-10512	3408	12676	126	-4	-175	-16000	-2724	-144	-3	-24	-11	-1332	-888	16988	179	-44	29	126	114	5
-9248	-8392	9804	-46	157	-129	-16488	1596	-2040	100	63	193	-2840	-5248	15648	-7	-150	179	-10468	3400	12864	100	-22	-166	-15984	-2664	-128	-2	79	19	-1444	-892	17028	134	-45	40	126	114	5
-9264	-8468	9876	-102	146	-146	-16520	1556	-1936	140	82	193	-2928	-5204	15552	-59	-136	217	-10452	3352	12680	86	37	-152	-16068	-2696	-248	43	122	24	-1468	-908	17036	219	-29	12	126	114	5
-9272	-8388	9956	-88	142	-154	-16488	1536	-2132	128	102	151	-2968	-5300	15532	-110	-187	240	-10452	3416	12764	92	-54	-182	-16008	-2620	-420	49	124	28	-1652	-860	16840	290	-6	10	126	114	5
-9304	-8432	9876	-84	160	-145	-16516	1604	-2204	106	62	172	-3136	-5316	15456	-65	-201	227	-10476	3428	12708	79	-34	-144	-16052	-2560	-388	-9	69	0	-1792	-748	16824	299	-30	16	126	114	5
-9256	-8436	9912	-83	128	-148	-16488	1568	-2164	87	81	182	-3088	-5344	15452	-13	-159	227	-10440	3444	12672	108	-1	-191	-15992	-2604	-440	1	45	30	-1836	-708	16832	262	-20	65	126	114	5
-9224	-8472	9880	-65	136	-142	-16536	1584	-2080	55	53	159	-3116	-5348	15548	14	-118	167	-10440	3444	12696	92	-69	-175	-15988	-2456	-456	15	3	3	-1844	-728	16932	231	-40	37	126	114	5
-9272	-8384	9860	-68	117	-206	-16544	1540	-2160	52	11	154	-3248	-5392	15476	52	-155	167	-10432	3420	12696	127	23	-169	-15992	-2628	-480	-10	-46	7	-1872	-712	16844	163	17	49	125	114	5
-9352	-8428	9872	-107	134	-147	-16536	1600	-2264	95	-60	157	-3224	-5344	15520	93	-148	181	-10400	3412	12672	119	-41	-85	-16004	-2552	-388	-2	-71	-38	-1940	-856	16888	153	-3	58	125	114	5
-9232	-8372	9984	-92	147	-183	-16428	1616	-2148	6	-130	184	-3124	-5244	15428	147	-99	118	-10464	3416	12684	138	3	-110	-16000	-2512	-364	10	-137	-70	-1780	-796	16872	215	-21	51	125	114	5
-9232	-8432	9964	-99	109	-199	-16460	1648	-2224	-19	-119	168	-3040	-5272	15464	181	-114	102	-10504	3432	12712	141	-2	-126	-15952	-2612	-316	1	-130	-62	-1628	-812	16972	206	-25	68	125	114	5
-9304	-8452	9940	-75	128	-199	-16460	1576	-2108	20	-150	152	-2900	-5212	15460	167	-106	143	-10508	3428	12740	145	3	-114	-15976	-2656	-280	-53	-167	-8	-1548	-912	16972	165	-25	70	125	114	5
-9312	-8312	9892	-97	163	-208	-16548	1668	-2052	57	-148	124	-2892	-5148	15652	137	-108	102	-10456	3464	12608	143	17	-119	-15988	-2644	-328	-6	-138	-60	-1424	-864	17052	151	-36	70	126	114	5
-9200	-8332	9920	-99	122	-200	-16520	1572	-2120	47	-110	127	-2884	-5264	15636	142	-122	169	-10408	3452	12736	110	-34	-115	-15932	-2632	-176	-44	-115	-48	-1464	-800	17068	121	-7	46	126	114	5
-9260	-8456	9944	-94	153	-211	-16528	1596	-2068	65	-72	124	-2888	-5180	15532	54	-158	187	-10420	3436	12676	123	-20	-122	-16004	-2660	-168	1	-62	-9	-1500	-832	16884	177	-31	60	126	114	5
-9184	-8452	9884	-91	120	-185	-16568	1604	-2124	101	-5	88	-2896	-5140	15500	-26	-160	215	-10452	3412	12680	104	-4	-173	-15944	-2592	-304	-4	-35	-50	-1564	-788	17016	160	11	37	126	114	5
-9248	-8428	9932	-123	133	-172	-16444	1652	-1928	59	-13	79	-2824	-5232	15560	-108	-174	219	-10412	3452	12696	116	-35	-164	-15988	-2632	-332	45	-36	-26	-1668	-836	16792	220	8	72	126	114	5
-9276	-8424	9880	-89	147	-202	-16552	1536	-2108	64	-60	76	-2908	-5380	15496	-82	-139	246	-10472	3436	12780	126	-38	-172	-15984	-2648	-472	48	-75	-73	-1532	-884	16948	221	8	64	126	114	5
-9268	-8412	9928	-111	126	-154	-16500	1516	-2000	41	-14	101	-2992	-5272	15416	-40	-158	238	-10432	3448	12628	104	26	-142	-15912	-2648	-296	68	-55	-53	-1628	-900	16844	245	9	57	126	114	5
-9272	-8376	9884	-106	105	-201	-16528	1508	-2096	121	24	72	-2964	-5252	15424	-84	-193	233	-10420	3424	12700	118	6	-164	-15948	-2592	-232	23	2	-7	-1652	-792	16948	217	-12	3	125	114	5
-9268	-8392	9944	-99	116	-152	-16484	1564	-2024	162	6	98	-3008	-5336	15472	-35	-192	206	-10416	3412	12704	87	-6	-135	-16024	-2600	-372	4	-46	-38	-1688	-732	16936	214	-19	-21	126	114	5
-9296	-8420	9904	-134	133	-161	-16496	1564	-2156	110	-29	101	-3020	-5280	15536	-6	-170	194	-10456	3372	12704	85	33	-109	-15928	-2568	-356	9	-41	-39	-1656	-804	16952	123	16	0	126	114	5
-9216	-8392	9892	-141	130	-180	-16440	1524	-2180	94	31	97	-3012	-5300	15500	51	-157	205	-10508	3408	12756	101	-9	-136	-15964	-2592	-408	-15	-58	3	-1568	-868	16936	84	20	2	126	114	5
-9268	-8420	9920	-128	149	-182	-16480	1656	-2052	104	-20	66	-2944	-5216	15568	37	-151	210	-10420	3404	12716	112	41	-146	-16012	-2672	-240	-26	-56	7	-1660	-884	16988	84	49	-7	125	114	5
-9248	-8424	9976	-121	139	-186	-16516	1596	-2056	116	-19	62	-3028	-5144	15520	-104	-159	211	-10420	3468	12728	143	-9	-169	-15992	-2724	-224	53	-77	-7	-1596	-904	17024	181	-26	-45	125	114	5
-9256	-8396	9832	-135	131	-170	-16552	1616	-2104	88	-27	68	-3012	-5296	15612	-81	-171	210	-10408	3496	12708	103	24	-156	-16012	-2608	-332	25	-42	-2	-1584	-812	16984	227	-48	-50	126	114	5
-9292	-8408	9928	-148	127	-159	-16568	1584	-2080	43	-7	53	-2916	-5220	15496	-51	-199	283	-10436	3464	12752	108	1	-137	-15984	-2620	-224	58	-9	46	-1600	-872	16960	225	6	34	126	114	5
-9172	-8420	9984	-152	182	-204	-16548	1580	-2012	71	-7	23	-2840	-5236	15536	-99	-224	337	-10392	3488	12784	119	7	-169	-15928	-2664	-200	44	-17	16	-1476	-804	16948	215	-15	25	126	114	5
-9244	-8476	9888	-99	140	-183	-16520	1508	-2080	77	24	46	-2996	-5340	15432	-78	-185	354	-10460	3408	12736	117	-23	-147	-15976	-2592	-368	-33	-29	5	-1648	-808	16916	186	2	5	126	114	5
-9276	-8400	9860	-143	160	-183	-16448	1536	-2040	114	-11	43	-3040	-5436	15500	-48	-167	341	-10400	3408	12716	131	-62	-161	-15976	-2568	-332	-9	-22	-5	-1732	-864	16944	179	9	46	126	114	5
-9296	-8416	9992	-150	148	-155	-16500	1448	-2148	126	-16	61	-3020	-5424	15468	-32	-182	314	-10440	3388	12660	109	-16	-130	-15996	-2580	-336	-20	-15	16	-1720	-768	16988	230	-21	4	126	114	5
-9292	-8492	9968	-108	169	-163	-16564	1500	-2192	104	-19	56	-3036	-5392	15528	-60	-182	231	-10488	3448	12744	122	-55	-127	-15964	-2584	-268	3	-61	-18	-1680	-760	16924	228	10	24	126	114	5
-9312	-8428	9892	-89	111	-185	-16560	1396	-2080	44	-44	114	-2984	-5476	15428	-47	-146	213	-10440	3472	12788	110	-8	-149	-15972	-2604	-308	20	-58	-2	-1776	-672	16984	132	-9	36	126	114	5
-9300	-8464	9852	-79	160	-144	-16548	1448	-2108	15	-14	124	-3004	-5484	15524	30	-103	167	-10492	3404	12736	128	-42	-125	-16012	-2564	-336	10	-81	6	-1636	-764	16948	93	8	42	126	114	5
-9224	-8448	9928	-74	126	-143	-16484	1492	-2284	-1	-61	138	-3040	-5456	15484	76	-113	129	-10464	3484	12612	119	-28	-144	-15972	-2608	-384	-17	-78	-39	-1636	-820	17008	141	-13	58	126	114	5
-9236	-8432	9944	-68	128	-154	-16492	1500	-2132	28	-84	199	-2988	-5448	15592	94	-112	113	-10396	3424	12660	127	-15	-166	-15952	-2592	-276	18	-85	6	-1644	-812	17000	193	-40	65	126	114	5
-9260	-8412	9944	-68	133	-175	-16496	1492	-2056	32	-63	176	-2956	-5444	15508	152	-121	151	-10468	3440	12740	108	-45	-121	-15984	-2604	-272	-25	-74	-10	-1600	-804	16900	217	-44	91	126	114	5
-9264	-8372	9868	-122	138	-165	-16472	1516	-2284	38	-98	215	-2944	-5436	15556	199	-127	129	-10440	3428	12740	139	-15	-134	-15996	-2620	-360	-29	-84	-30	-1608	-788	16976	202	-33	108	126	114	5
-9268	-8400	9908	-58	107	-191	-16524	1568	-2032	50	-56	195	-2904	-5352	15456	192	-118	110	-10424	3456	12644	125	-17	-138	-16016	-2624	-232	9	-92	-42	-1672	-800	16936	162	-58	39	126	114	5
-9244	-8436	9920	-74	154	-158	-16504	1612	-2016	54	-73	219	-2876	-5252	15508	192	-100	160	-10456	3436	12712	152	-3	-140	-15940	-2600	-248	-2	-81	-43	-1504	-804	16984	171	1	43	126	115	5
-9248	-8416	9984	-98	104	-178	-16480	1484	-2088	62	-33	184	-2900	-5280	15508	146	-87	155	-10408	3504	12724	114	-35	-165	-15956	-2628	-300	1	-61	-15	-1576	-844	16924	192	-17	36	126	114	5
-9276	-8452	9908	-66	113	-152	-16596	1564	-2020	56	11	178	-2960	-5208	15612	79	-143	165	-10420	3448	12728	99	-27	-142	-15936	-2600	-388	33	-28	19	-1552	-828	16952	250	-2	13	126	114	5
-9224	-8444	9880	-63	120	-156	-16588	1604	-2116	78	-28	166	-2944	-5224	15532	15	-130	155	-10492	3440	12668	127	8	-125	-16008	-2684	-396	27	-33	25	-1572	-856	16924	238	-11	-5	126	114	5
-9208	-8420	9972	-99	136	-156	-16528	1536	-2100	71	6	128	-2992	-5284	15536	-15	-145	175	-10436	3420	12688	90	17	-133	-15956	-2600	-400	9	-10	-5	-1652	-776	16948	223	-17	-21	126	115	5
-9180	-8396	9884	-103	119	-157	-16540	1628	-1932	54	21	144	-2996	-5280	15448	45	-129	203	-10420	3496	12692	118	-45	-140	-15944	-2600	-320	48	-21	37	-1608	-820	16904	198	-41	5	126	115	5
-9284	-8468	9920	-94	155	-165	-16480	1564	-2112	69	-8	157	-2896	-5312	15588	16	-131	204	-10400	3432	12716	122	-32	-151	-15952	-2576	-312	21	-58	15	-1564	-812	16856	247	9	-19	126	115	5
-9288	-8444	10020	-100	173	-205	-16544	1568	-2112	77	10	130	-2996	-5292	15584	52	-120	212	-10492	3424	12820	140	-9	-141	-16012	-2632	-244	11	5	26	-1628	-788	16984	231	-29	-24	126	115	5
-9240	-8456	9864	-86	156	-198	-16480	1544	-2068	71	17	147	-2936	-5296	15480	43	-129	242	-10524	3436	12804	145	3	-143	-15972	-2540	-380	-51	-22	-12	-1608	-772	16912	232	-11	26	126	114	5
-9268	-8468	9888	-67	151	-159	-16584	1536	-2012	107	-47	145	-2984	-5288	15524	3	-150	234	-10396	3432	12728	119	-37	-151	-16008	-2520	-244	15	-61	-6	-1644	-800	16936	210	-19	10	126	115	5
-9264	-8448	9884	-112	117	-204	-16580	1512	-2180	71	-19	128	-3004	-5356	15564	29	-150	190	-10472	3440	12776	81	-74	-154	-15932	-2616	-304	-22	-15	13	-1584	-804	16980	247	-70	25	126	115	5
-9272	-8388	9948	-142	151	-174	-16552	1596	-2056	32	-28	170	-2988	-5348	15480	83	-160	202	-10444	3372	12516	133	19	-166	-16044	-2616	-328	-19	-35	-42	-1640	-748	16896	137	-58	9	126	114	5
-9368	-8448	9868	-97	124	-166	-16512	1508	-2068	68	-50	133	-2972	-5324	15564	63	-176	199	-10468	3372	12796	87	9	-183	-16032	-2620	-316	-31	-30	12	-1664	-760	17040	180	-55	35	126	114	5
-9340	-8448	10024	-99	137	-181	-16520	1528	-2112	27	24	154	-3028	-5296	15504	59	-148	197	-10432	3412	12588	129	-39	-142	-16084	-2636	-440	29	-24	9	-1628	-720	16960	211	-25	56	126	115	5
-9232	-8392	9860	-91	147	-155	-16488	1556	-2156	-18	3	154	-2952	-5316	15496	51	-114	197	-10400	3432	12672	131	-42	-136	-15948	-2644	-264	37	-12	-6	-1668	-808	16936	174	-4	50	126	115	5
-9256	-8416	9912	-123	146	-201	-16500	1504	-2092	36	-7	147	-2948	-5304	15540	51	-157	226	-10460	3524	12672	102	-42	-159	-15984	-2528	-392	27	-47	-9	-1640	-848	16948	227	-21	37	126	115	5
-9220	-8400	9884	-98	133	-195	-16528	1504	-2076	94	4	146	-3048	-5364	15432	38	-106	208	-10536	3416	12832	113	-34	-171	-16068	-2568	-364	-23	-30	-1	-1696	-812	17036	261	-17	36	126	115	5
-9184	-8488	9776	-90	118	-147	-16536	1504	-2096	141	-9	187	-2992	-5224	15520	30	-149	137	-10428	3420	12756	155	-13	-122	-15984	-2484	-332	-5	-19	-6	-1568	-768	16812	272	-3	11	126	114	5
-9224	-8408	9872	-104	82	-155	-16520	1552	-2160	177	-37	212	-2940	-5240	15524	54	-153	123	-10416	3420	12736	79	-13	-133	-16004	-2560	-312	-41	-59	14	-1612	-684	16912	244	-77	-36	127	115	5
-9244	-8412	10056	-125	142	-182	-16556	1584	-2004	177	-26	169	-3008	-5272	15560	113	-166	131	-10452	3448	12616	100	5	-146	-16048	-2596	-376	10	-23	-17	-1636	-712	16928	143	-16	-21	127	115	5
-9312	-8324	9872	-79	132	-143	-16584	1672	-2164	109	11	163	-2956	-5228	15512	18	-193	165	-10520	3520	12708	68	16	-146	-15992	-2592	-336	41	-50	18	-1716	-796	16812	91	-41	0	127	115	5
-9232	-8424	9832	-156	93	-184	-16524	1676	-2156	122	-14	116	-2984	-5252	15548	30	-146	194	-10464	3468	12748	97	10	-113	-15980	-2628	-276	37	-23	4	-1652	-756	17008	154	13	-11	127	115	5
-9236	-8388	9904	-176	105	-157	-16528	1656	-2056	68	-46	95	-3052	-5200	15584	-26	-147	202	-10492	3492	12696	68	1	-155	-16036	-2564	-416	61	-88	-38	-1660	-752	16832	204	11	10	127	115	5
-9312	-8440	9876	-156	127	-183	-16492	1588	-2152	72	-44	75	-3124	-5232	15560	-62	-146	231	-10376	3416	12708	137	-67	-127	-15988	-2512	-312	27	-96	-47	-1652	-812	16928	287	3	10	126	114	5
-9232	-8404	9948	-172	136	-206	-16468	1588	-2120	74	-100	90	-3080	-5324	15520	24	-158	257	-10440	3460	12644	140	-46	-143	-15972	-2584	-412	45	-106	-39	-1680	-724	16996	254	0	62	126	114	5
-9252	-8408	9896	-123	143	-174	-16520	1520	-2180	78	-89	31	-3072	-5368	15412	-1	-152	256	-10448	3436	12752	122	-54	-139	-16052	-2540	-248	-1	-108	-23	-1648	-780	16876	209	-10	60	126	114	5
-9264	-8412	9868	-118	117	-207	-16548	1492	-2172	57	-86	36	-3008	-5280	15440	77	-163	246	-10492	3424	12668	148	-32	-128	-15980	-2576	-392	-46	-109	-32	-1612	-792	16828	141	18	48	126	114	5
-9316	-8416	9980	-76	156	-219	-16504	1524	-2120	89	-47	47	-2928	-5292	15504	1	-170	263	-10428	3452	12760	173	-44	-120	-15980	-2580	-304	1	-130	-33	-1524	-756	16996	129	5	82	126	115	5
-9184	-8392	9944	-126	156	-223	-16544	1524	-2052	72	-83	72	-2944	-5316	15600	-25	-127	253	-10436	3488	12668	116	-61	-110	-15956	-2596	-360	-21	-81	-31	-1576	-872	16916	185	-13	-30	126	115	5
-9284	-8372	9852	-130	149	-210	-16492	1508	-2052	61	-65	70	-2908	-5380	15544	-70	-151	237	-10428	3432	12712	163	18	-126	-15976	-2652	-308	-15	-125	-27	-1624	-872	16952	200	7	-29	126	114	5
-9296	-8480	9880	-114	145	-217	-16512	1480	-2124	27	-57	49	-2904	-5332	15456	-94	-152	213	-10456	3432	12696	145	43	-166	-16016	-2600	-244	5	-46	-7	-1592	-744	16976	191	-31	-1	126	115	5
-9272	-8420	9972	-138	102	-181	-16536	1484	-1992	42	-22	98	-2924	-5392	15536	-53	-163	175	-10480	3508	12724	141	-42	-150	-15980	-2572	-200	46	-92	-24	-1556	-784	16856	189	-40	2	127	115	5
-9232	-8464	9768	-102	108	-193	-16580	1528	-2076	22	-41	107	-2988	-5448	15344	-21	-164	179	-10452	3488	12756	161	-18	-148	-15956	-2584	-172	42	-79	-2	-1676	-828	16976	230	-34	15	127	114	5
-9248	-8416	9844	-108	119	-174	-16480	1396	-2240	52	-23	89	-2936	-5424	15348	25	-156	202	-10476	3428	12804	143	-48	-129	-15956	-2576	-336	19	-44	-17	-1592	-728	16940	223	-58	10	127	115	5
-9284	-8412	9884	-86	138	-191	-16596	1556	-2104	65	-48	123	-2992	-5388	15512	42	-143	205	-10460	3432	12676	104	-45	-171	-15996	-2544	-268	9	-74	-13	-1632	-708	17020	188	-13	22	126	115	5
-9200	-8508	9896	-99	139	-171	-16472	1432	-2064	72	-65	134	-2940	-5388	15476	25	-152	188	-10456	3480	12752	88	-7	-115	-16040	-2624	-316	10	-54	-67	-1628	-736	16924	144	-2	54	126	115	5
-9264	-8408	9964	-80	131	-190	-16584	1552	-2100	57	-46	160	-2932	-5352	15568	70	-143	188	-10472	3416	12672	129	-56	-146	-16004	-2564	-380	8	-69	-13	-1596	-740	16984	142	-12	77	126	115	5
-9276	-8400	9964	-115	137	-171	-16504	1532	-2116	41	-67	114	-2964	-5404	15632	87	-134	148	-10420	3456	12720	85	-27	-136	-15924	-2592	-220	1	-75	-18	-1592	-744	16972	145	6	71	126	114	5
-9320	-8388	9980	-79	157	-191	-16480	1604	-2092	38	-82	126	-2952	-5308	15452	166	-101	140	-10484	3428	12692	121	37	-116	-15984	-2584	-392	-29	-58	-30	-1640	-776	17012	173	28	76	126	115	5
-9224	-8464	9968	-106	120	-181	-16508	1484	-2084	27	-71	154	-2884	-5344	15652	121	-136	132	-10448	3468	12720	140	-29	-144	-16024	-2552	-232	-7	-115	-43	-1620	-824	16996	184	16	43	126	114	5
-9248	-8412	9836	-107	111	-179	-16564	1536	-2024	57	-61	146	-2932	-5316	15504	85	-130	148	-10396	3536	12772	135	-15	-131	-15972	-2608	-260	-8	-66	-30	-1444	-772	16868	224	-80	52	126	114	5
-9336	-8408	9976	-93	134	-194	-16572	1524	-2032	52	-34	145	-2864	-5392	15588	64	-124	155	-10472	3480	12760	120	-27	-152	-15988	-2640	-240	1	-37	-20	-1488	-780	16876	140	-37	40	126	114	5
-9308	-8492	9880	-51	131	-130	-16488	1512	-1924	84	-36	156	-2812	-5312	15604	93	-164	144	-10428	3460	12756	118	-7	-142	-16012	-2608	-172	8	-5	-14	-1412	-828	17036	137	-8	40	126	115	5
-9220	-8392	9868	-75	128	-174	-16532	1532	-2048	105	-13	169	-2824	-5248	15568	109	-175	176	-10484	3496	12816	107	10	-158	-15992	-2632	-348	-26	12	5	-1444	-828	16996	123	-45	29	126	115	5
-9340	-8408	9852	-78	120	-182	-16440	1544	-1984	89	37	158	-2832	-5316	15616	40	-146	177	-10468	3492	12772	61	-52	-171	-15960	-2632	-240	-2	54	-8	-1420	-884	16948	119	9	58	126	115	5
-9200	-8408	9944	-76	142	-157	-16640	1504	-2052	113	110	149	-2820	-5332	15540	-43	-133	205	-10560	3492	12812	83	-15	-178	-15952	-2600	-140	21	32	48	-1520	-776	17004	166	42	21	126	115	5
-9236	-8428	9848	-74	133	-134	-16508	1516	-2060	130	98	140	-3068	-5332	15452	-52	-113	247	-10528	3424	12740	79	-5	-143	-15960	-2564	-236	17	86	13	-1600	-768	16848	212	-1	34	127	115	5
-9224	-8416	10036	-105	129	-171	-16572	1528	-2160	109	69	171	-3068	-5420	15456	3	-136	171	-10432	3428	12696	78	-35	-194	-16008	-2560	-360	8	44	25	-1756	-748	16828	228	-53	27	126	114	5
-9248	-8340	9944	-97	107	-132	-16504	1568	-2232	59	50	195	-3168	-5348	15488	18	-173	177	-10420	3420	12756	103	-2	-145	-15972	-2536	-420	21	44	9	-1748	-744	16848	272	6	41	126	115	5
-9264	-8408	9972	-85	128	-176	-16584	1504	-2248	84	18	168	-3204	-5328	15452	38	-197	156	-10484	3448	12716	87	-12	-168	-16036	-2560	-524	45	22	-20	-1836	-712	16924	251	-32	61	126	115	5
-9236	-8360	9944	-64	141	-189	-16468	1596	-2168	41	-50	150	-3128	-5336	15508	85	-167	169	-10504	3420	12728	123	-48	-175	-16048	-2512	-404	33	-44	-49	-1832	-628	17040	161	-31	100	126	115	5
-9268	-8436	9972	-78	105	-171	-16512	1576	-2120	19	-103	171	-3016	-5356	15504	136	-118	172	-10496	3380	12684	136	-43	-102	-16036	-2572	-448	-29	-132	-68	-1752	-728	16900	151	30	114	126	114	5
-9280	-8412	9900	-108	89	-188	-16488	1516	-2152	6	-109	195	-3064	-5332	15564	162	-50	156	-10492	3456	12716	108	16	-123	-16048	-2572	-424	12	-141	-37	-1676	-732	16912	160	90	55	126	114	5
-9312	-8456	9952	-87	100	-187	-16536	1516	-2056	45	-90	162	-3052	-5184	15552	109	-65	84	-10452	3448	12828	164	-26	-108	-15948	-2576	-224	-18	-183	-35	-1656	-780	16908	177	80	59	126	114	5
-9252	-8444	9960	-107	106	-219	-16440	1628	-1980	127	-158	124	-2988	-5236	15532	59	-111	65	-10436	3440	12684	115	-54	-113	-16012	-2564	-244	-22	-171	-21	-1536	-780	16980	219	6	11	126	114	5
-9232	-8416	9988	-163	142	-164	-16560	1568	-2108	144	-127	152	-2812	-5208	15564	133	-115	81	-10504	3416	12704	178	-40	-120	-15964	-2572	-344	-37	-120	-61	-1476	-736	16932	149	-54	-6	126	114	5
-9228	-8408	9888	-144	133	-215	-16564	1616	-2056	88	-69	97	-2836	-5148	15596	62	-111	134	-10408	3420	12712	106	12	-130	-15960	-2628	-264	13	-104	-51	-1404	-784	16908	38	-27	2	126	114	5
-9240	-8420	9952	-177	145	-186	-16472	1604	-2048	87	-44	91	-2824	-5224	15628	19	-128	220	-10452	3496	12724	91	6	-143	-15996	-2712	-148	24	-100	-2	-1448	-880	16896	72	20	-13	126	115	5
-9260	-8464	9812	-137	140	-173	-16488	1556	-1820	62	-22	70	-2912	-5228	15596	-45	-160	274	-10472	3464	12688	133	10	-155	-16004	-2656	-268	94	-39	12	-1448	-888	17012	178	0	2	126	115	5
-9228	-8408	9948	-170	160	-163	-16508	1504	-2008	45	9	24	-2908	-5216	15512	-117	-205	302	-10488	3448	12684	80	45	-171	-15984	-2608	-180	22	20	-29	-1528	-828	17044	307	8	37	126	115	5
-9228	-8396	9924	-128	144	-215	-16496	1524	-2104	122	30	31	-2872	-5372	15504	-134	-183	297	-10536	3436	12840	113	25	-133	-15956	-2536	-412	35	-20	-16	-1460	-792	16868	320	1	82	126	114	5
-9292	-8428	9912	-143	139	-201	-16544	1524	-2072	145	26	93	-2944	-5404	15488	-108	-200	292	-10424	3444	12792	117	12	-150	-15996	-2552	-304	-10	-13	-36	-1668	-624	17012	269	-30	64	126	114	5
-9300	-8424	10000	-111	176	-194	-16532	1444	-2104	127	17	85	-2996	-5488	15464	-14	-147	261	-10428	3452	12740	127	8	-164	-16004	-2524	-436	3	-20	-14	-1696	-660	17080	174	-12	81	126	114	5
-9236	-8372	9956	-99	143	-178	-16448	1432	-2268	80	-33	154	-3112	-5532	15448	-25	-133	209	-10524	3404	12688	126	-19	-151	-15988	-2496	-308	-27	4	-47	-1716	-672	16956	125	-1	47	126	114	5
-9284	-8444	9948	-71	116	-151	-16488	1428	-2108	27	-40	151	-3060	-5584	15428	77	-112	184	-10428	3420	12824	133	-67	-109	-16000	-2504	-340	8	-66	-30	-1704	-716	16828	167	-28	43	126	114	5
-9232	-8492	9932	-108	146	-186	-16552	1416	-2232	33	-91	143	-2980	-5392	15328	114	-91	117	-10480	3392	12680	171	-37	-142	-16040	-2500	-368	-25	-121	-78	-1656	-788	16904	188	-33	85	126	114	5
-9268	-8452	10024	-108	153	-161	-16520	1464	-2152	26	-115	177	-2984	-5456	15364	147	-74	95	-10448	3460	12776	94	-61	-161	-15988	-2508	-340	-37	-116	-62	-1640	-776	17048	166	10	106	126	114	5
-9244	-8452	9896	-56	143	-163	-16520	1532	-2128	36	-72	213	-2980	-5412	15560	146	-82	38	-10452	3376	12736	144	-33	-141	-15968	-2568	-344	-51	-93	-30	-1584	-744	16920	153	-2	128	126	114	5
-9256	-8436	9900	-61	140	-149	-16548	1532	-2016	37	-90	168	-2936	-5300	15588	210	-102	75	-10536	3444	12692	148	-29	-128	-16044	-2648	-264	-27	-64	-46	-1608	-848	16896	141	-72	81	126	114	5
-9260	-8396	9804	-49	157	-172	-16536	1576	-2076	58	-97	198	-2848	-5260	15624	204	-136	90	-10484	3480	12752	148	2	-127	-15988	-2644	-212	-23	-94	-36	-1528	-912	16956	125	-51	80	126	115	5
-9288	-8400	9948	-80	116	-188	-16532	1588	-1960	61	-101	168	-2896	-5184	15580	159	-124	111	-10436	3436	12788	129	-16	-143	-15976	-2608	-188	-35	-58	-18	-1464	-860	16960	163	6	47	126	114	5
-9272	-8460	9900	-94	117	-155	-16524	1560	-2064	52	21	162	-2880	-5264	15488	105	-126	156	-10428	3400	12728	78	11	-140	-15920	-2640	-284	-16	-5	-54	-1456	-804	16868	149	-97	29	126	114	5
-9340	-8400	9848	-111	120	-179	-16516	1588	-1944	68	16	194	-2876	-5216	15488	22	-121	129	-10436	3520	12728	104	-21	-144	-16004	-2612	-280	6	-8	-28	-1488	-856	16948	126	-79	41	126	114	5
-9192	-8404	9772	-85	111	-167	-16472	1532	-2056	92	8	190	-2828	-5248	15572	-19	-143	174	-10464	3400	12692	101	-8	-158	-16004	-2568	-244	-18	26	-37	-1504	-752	17112	137	-60	16	126	115	5
-9220	-8412	9884	-132	167	-151	-16556	1496	-2068	76	54	147	-2880	-5308	15476	-48	-175	235	-10492	3412	12724	99	26	-147	-16024	-2572	-340	1	-2	-2	-1532	-860	16892	185	-24	19	126	114	5
-9228	-8472	9912	-129	152	-151	-16520	1564	-2148	78	39	144	-3060	-5336	15508	-49	-169	233	-10468	3396	12776	106	-50	-165	-16044	-2608	-252	44	15	-7	-1568	-716	16956	264	-43	39	126	114	5
-9204	-8412	9812	-104	122	-134	-16588	1484	-2236	95	93	151	-3008	-5316	15604	-29	-180	244	-10440	3484	12712	125	-7	-174	-15912	-2580	-392	46	-4	-40	-1652	-760	16928	229	1	33	126	114	5
-9252	-8428	9880	-99	144	-181	-16588	1560	-2216	81	43	160	-3076	-5372	15384	-11	-143	222	-10424	3424	12680	98	-42	-162	-15932	-2600	-408	25	-8	23	-1700	-712	16908	295	-45	36	126	114	5
-9276	-8436	9884	-57	134	-165	-16492	1492	-2312	64	-10	154	-3040	-5388	15468	7	-149	153	-10404	3472	12720	126	-4	-147	-16028	-2532	-432	4	-62	-23	-1748	-728	17008	276	-47	26	126	114	5
-9268	-8380	9860	-90	121	-182	-16528	1488	-2180	59	-63	168	-3064	-5332	15584	86	-149	152	-10472	3480	12720	135	-16	-166	-15996	-2572	-372	10	-32	-46	-1788	-668	16892	167	7	63	126	114	5
-9256	-8372	9832	-112	106	-183	-16512	1564	-2196	53	-99	211	-2996	-5348	15436	150	-105	133	-10480	3452	12704	103	29	-113	-16004	-2616	-272	6	-89	-33	-1692	-748	16964	102	-10	74	126	114	5
-9256	-8408	9896	-83	143	-181	-16496	1528	-2168	31	-87	147	-2988	-5296	15428	145	-94	131	-10476	3444	12668	132	1	-120	-16048	-2576	-312	-52	-96	-61	-1648	-708	16992	93	21	45	126	114	5
-9272	-8436	9916	-76	129	-201	-16492	1524	-2108	6	-68	179	-2984	-5312	15488	90	-121	131	-10368	3440	12740	158	5	-109	-16008	-2552	-268	-21	-87	-67	-1584	-812	16828	169	-29	80	126	114	5
-9252	-8412	9972	-95	102	-225	-16472	1524	-2208	5	-116	136	-3008	-5256	15556	112	-106	171	-10436	3464	12676	121	-21	-134	-16004	-2560	-380	-33	-109	-17	-1608	-840	17048	179	-31	88	126	114	5
-9216	-8424	9980	-105	99	-180	-16520	1584	-2000	18	-101	105	-2940	-5264	15616	106	-129	165	-10424	3472	12776	111	-18	-100	-16012	-2604	-244	2	-106	-51	-1560	-748	16924	207	-37	88	126	114	5
-9320	-8384	9872	-125	126	-206	-16504	1572	-2020	51	-79	121	-2888	-5176	15504	63	-141	184	-10424	3472	12732	139	9	-119	-15996	-2684	-388	26	-87	-14	-1620	-752	17008	235	-24	53	126	114	5
-9260	-8388	9924	-105	164	-174	-16492	1620	-2008	15	-88	117	-2896	-5284	15572	53	-148	183	-10428	3484	12668	140	-38	-124	-15940	-2616	-236	31	-112	-34	-1552	-704	16948	177	-2	56	126	114	5
-9284	-8400	10004	-116	122	-172	-16496	1508	-2052	42	-16	96	-2804	-5332	15480	58	-140	213	-10392	3452	12748	147	-34	-159	-16000	-2584	-200	11	-84	-13	-1536	-836	16956	153	-13	69	126	114	5
-9220	-8396	9924	-92	113	-199	-16540	1532	-2032	59	-16	89	-2900	-5256	15572	4	-144	199	-10440	3520	12772	148	-16	-110	-15988	-2584	-272	31	-40	-6	-1448	-864	16960	186	48	11	126	114	5
-9268	-8464	9960	-88	161	-145	-16492	1484	-2132	121	34	99	-2920	-5308	15560	-96	-128	159	-10396	3496	12676	144	-29	-133	-15928	-2628	-152	15	-35	-37	-1476	-808	16972	234	-3	5	126	114	5
-9228	-8388	9968	-116	150	-189	-16472	1628	-2048	136	25	145	-2896	-5340	15508	-63	-161	133	-10404	3452	12704	109	2	-128	-15980	-2552	-300	0	-39	21	-1532	-756	16940	233	5	1	126	114	5
-9256	-8428	9860	-103	106	-193	-16576	1536	-2012	132	15	107	-2920	-5380	15500	25	-181	193	-10464	3536	12780	106	3	-158	-16004	-2576	-308	13	-26	-49	-1524	-708	17012	132	-26	-37	126	114	5
-9224	-8488	9920	-144	160	-158	-16492	1544	-2020	123	24	136	-2928	-5324	15576	-8	-162	164	-10448	3444	12796	66	23	-141	-16020	-2544	-276	-36	-1	-32	-1624	-764	16904	126	-2	8	126	114	5
-9300	-8420	9968	-117	143	-158	-16492	1524	-2060	135	48	153	-2996	-5352	15596	47	-145	183	-10432	3496	12704	67	-8	-155	-15928	-2600	-360	-14	2	-61	-1632	-736	16920	157	31	64	126	114	5
-9272	-8468	9932	-133	131	-112	-16536	1520	-2076	111	7	137	-3060	-5376	15508	-3	-142	169	-10472	3492	12804	126	-64	-154	-15960	-2516	-288	36	-11	-46	-1628	-808	16940	190	13	59	126	114	5
-9268	-8444	9920	-143	141	-170	-16516	1500	-2060	107	13	136	-3076	-5348	15584	2	-157	182	-10448	3420	12720	112	-58	-106	-16024	-2532	-364	31	-19	-43	-1656	-796	16940	217	25	32	126	114	5
-9236	-8408	9960	-96	135	-152	-16484	1560	-2184	109	-57	148	-3072	-5344	15520	31	-121	223	-10432	3472	12684	135	-16	-113	-15984	-2524	-344	35	-29	-48	-1656	-740	16756	251	21	85	126	114	5
-9280	-8464	9924	-89	96	-162	-16520	1520	-2240	43	-81	133	-2996	-5352	15396	137	-123	160	-10484	3464	12752	131	-27	-161	-16012	-2576	-488	-8	-55	-72	-1716	-716	17036	196	33	82	126	114	5
-9288	-8404	9952	-100	154	-188	-16432	1528	-2192	58	-108	144	-3028	-5352	15372	127	-105	165	-10436	3424	12712	113	-25	-113	-15956	-2620	-244	-21	-113	-79	-1652	-728	16880	132	11	108	126	114	5
-9256	-8460	9772	-71	100	-156	-16564	1548	-2012	49	-124	115	-2944	-5328	15492	148	-103	149	-10448	3416	12580	113	-4	-151	-16000	-2544	-348	-26	-149	-21	-1600	-728	16932	141	-4	79	126	114	5
-9276	-8420	9904	-108	142	-191	-16544	1472	-1944	92	-112	125	-2872	-5296	15448	95	-88	146	-10412	3496	12720	120	-11	-109	-16032	-2632	-292	-52	-78	-33	-1528	-824	17068	126	21	43	126	114	5
-9260	-8440	9968	-82	107	-221	-16480	1584	-2064	26	-98	102	-2828	-5228	15536	87	-121	135	-10392	3424	12672	126	-29	-146	-16016	-2692	-208	-31	-83	-23	-1536	-840	16944	143	24	48	126	114	5
-9280	-8420	9904	-38	141	-183	-16500	1516	-1936	76	-39	155	-2776	-5332	15524	77	-129	181	-10408	3460	12816	116	-3	-161	-16020	-2660	-276	-6	-98	-34	-1492	-832	16984	161	-4	17	126	114	5
-9332	-8388	9900	-47	112	-150	-16560	1488	-2000	91	-28	123	-2860	-5296	15608	-3	-137	177	-10428	3412	12788	132	-1	-138	-15988	-2612	-184	11	-54	19	-1464	-796	16980	177	-20	29	126	114	5
-9244	-8444	9852	-77	99	-137	-16480	1492	-1948	91	0	143	-2872	-5280	15532	14	-149	174	-10436	3432	12720	126	-8	-151	-16064	-2624	-164	24	-7	-2	-1452	-860	16900	217	-62	40	126	114	5
-9184	-8436	9900	-113	156	-172	-16500	1516	-1968	57	34	140	-2820	-5276	15488	47	-155	140	-10392	3428	12740	91	18	-146	-15996	-2592	-136	3	3	-11	-1512	-728	16984	210	-49	53	126	114	5
-9300	-8456	9896	-69	127	-160	-16584	1512	-2056	103	36	201	-2900	-5384	15576	3	-176	198	-10448	3408	12720	91	-63	-143	-16008	-2624	-252	-5	73	-27	-1492	-768	16924	212	-53	57	126	114	5
-9192	-8408	9952	-72	137	-157	-16504	1464	-2084	73	72	171	-2956	-5356	15504	-25	-168	193	-10428	3472	12788	77	-20	-183	-16016	-2548	-268	-19	36	-24	-1588	-784	16948	165	-21	50	126	114	5
-9208	-8388	9944	-61	117	-164	-16496	1520	-2132	130	39	174	-3052	-5352	15564	-19	-170	216	-10416	3444	12720	99	10	-146	-15976	-2628	-388	34	53	12	-1644	-800	16872	203	1	52	126	114	5
-9264	-8428	9856	-88	112	-150	-16528	1568	-2164	92	28	171	-3068	-5388	15492	52	-118	201	-10440	3464	12652	114	-63	-184	-16024	-2552	-340	32	31	-10	-1780	-784	16908	206	3	85	126	114	5
-9312	-8428	9876	-70	142	-163	-16500	1508	-2148	65	-13	173	-3068	-5292	15548	83	-113	155	-10472	3404	12656	138	-47	-128	-16012	-2508	-436	-7	-37	-36	-1792	-756	16852	250	-7	81	126	114	5
-9236	-8416	9824	-45	110	-141	-16524	1584	-2180	28	-4	194	-3148	-5244	15500	98	-144	147	-10484	3432	12748	114	-7	-138	-16000	-2548	-320	27	-17	-30	-1784	-712	16872	251	-28	30	126	114	5
-9232	-8380	10004	-112	123	-191	-16516	1604	-2152	48	-49	158	-3100	-5324	15540	112	-117	120	-10448	3468	12800	113	-16	-121	-16048	-2520	-336	0	-101	-44	-1716	-676	17004	182	-5	72	126	114	5
-9304	-8428	9952	-123	118	-154	-16556	1592	-2220	46	-94	138	-3032	-5252	15560	137	-97	140	-10488	3432	12652	131	-31	-88	-15988	-2524	-248	-35	-104	-36	-1612	-744	16948	112	26	65	125	114	5
-9260	-8344	9936	-117	171	-177	-16552	1612	-2124	32	-84	111	-2940	-5240	15564	98	-128	153	-10456	3480	12684	159	-18	-129	-16040	-2548	-216	-23	-127	-67	-1556	-776	16940	87	-13	48	126	114	5
-9232	-8392	9848	-98	140	-190	-16528	1608	-1956	51	-52	158	-2892	-5220	15544	-20	-120	178	-10408	3468	12780	128	-57	-110	-15996	-2528	-252	-23	-138	-75	-1536	-784	16992	149	-19	71	126	114	5
-9280	-8428	9908	-98	94	-231	-16552	1520	-2004	13	-78	123	-2916	-5264	15576	17	-112	162	-10432	3412	12752	121	-15	-141	-15924	-2588	-312	-51	-100	-56	-1548	-800	16952	155	-15	125	126	114	5
-9200	-8452	9948	-70	146	-206	-16568	1552	-1972	45	-70	96	-2872	-5332	15600	40	-155	183	-10368	3544	12772	115	-17	-132	-15956	-2668	-152	-60	-32	-57	-1472	-892	17048	164	-29	118	126	114	5
-9200	-8464	9912	-101	135	-175	-16480	1512	-1948	81	-29	126	-2744	-5284	15624	44	-172	217	-10428	3500	12744	102	24	-147	-15960	-2680	-212	6	-27	-66	-1368	-836	17052	174	-23	71	126	114	5
-9280	-8372	9920	-91	144	-218	-16544	1500	-2052	86	-38	131	-2808	-5352	15588	-12	-157	243	-10456	3416	12776	82	-6	-140	-15988	-2744	-92	23	24	-21	-1480	-788	16980	188	-37	51	126	114	5
-9248	-8432	9924	-72	169	-134	-16488	1516	-2040	114	15	106	-2932	-5364	15508	-40	-156	225	-10492	3460	12660	122	-41	-164	-15960	-2592	-304	27	55	-5	-1580	-764	16956	197	-28	29	126	114	5
-9216	-8404	9840	-114	131	-141	-16472	1524	-1992	82	33	121	-3000	-5392	15492	7	-131	179	-10400	3452	12692	97	18	-185	-15972	-2504	-356	-20	17	-34	-1628	-772	17008	204	-27	2	126	114	5
-9300	-8364	9904	-95	130	-156	-16500	1532	-2256	76	2	154	-3036	-5376	15532	-43	-123	155	-10504	3384	12820	102	-4	-149	-15968	-2628	-388	-2	-28	-14	-1668	-768	16968	222	9	24	126	114	5
-9292	-8400	9820	-88	122	-164	-16504	1532	-2056	35	-45	158	-3044	-5436	15424	-31	-145	167	-10368	3476	12744	130	23	-162	-15940	-2460	-360	19	-32	-50	-1696	-716	17080	190	-13	71	125	114	5
-9252	-8424	9948	-84	125	-173	-16492	1548	-2080	26	-23	143	-3076	-5456	15524	54	-140	158	-10436	3428	12752	102	15	-171	-16028	-2552	-440	-19	-88	-71	-1692	-692	17024	165	-33	103	126	114	5
-9280	-8464	9924	-24	134	-165	-16556	1500	-2164	12	-76	182	-2932	-5380	15452	125	-104	120	-10456	3424	12760	105	-11	-147	-16024	-2556	-308	-54	-99	-72	-1680	-768	16964	168	8	144	125	114	5
-9252	-8428	9976	-50	139	-171	-16544	1428	-2116	25	-59	205	-2972	-5356	15532	141	-106	143	-10448	3492	12728	123	12	-119	-16008	-2664	-252	-37	-94	-46	-1580	-784	16928	185	44	77	125	114	5
-9268	-8456	9920	-74	102	-161	-16464	1532	-2056	144	-79	159	-2924	-5276	15444	135	-93	139	-10432	3496	12812	134	-51	-159	-15968	-2680	-184	-90	-102	-64	-1452	-744	16896	184	-4	49	125	114	5
-9276	-8400	9876	-117	106	-177	-16520	1528	-2012	166	-89	169	-2812	-5340	15584	147	-119	156	-10424	3436	12748	87	3	-142	-15976	-2652	-252	-6	-42	7	-1452	-764	17020	195	-24	28	126	114	5
-9268	-8436	9944	-127	137	-178	-16580	1536	-1944	154	-18	150	-2860	-5244	15568	52	-133	155	-10392	3412	12644	92	-23	-149	-16004	-2568	-216	-17	23	-44	-1532	-836	16936	167	-28	8	126	114	5
-9224	-8460	9812	-97	139	-164	-16532	1572	-1992	148	4	137	-2872	-5224	15600	76	-125	173	-10468	3480	12700	120	34	-135	-15980	-2648	-244	-4	-50	-8	-1568	-836	16944	127	22	34	126	114	5
-9268	-8456	10004	-108	122	-152	-16524	1572	-1960	120	-18	128	-2872	-5196	15500	-18	-131	178	-10468	3340	12732	47	8	-115	-16008	-2644	-284	23	4	-27	-1572	-864	16916	200	3	-12	125	114	5
-9296	-8436	9808	-111	127	-145	-16440	1552	-2112	101	34	79	-2916	-5276	15564	-76	-141	200	-10436	3500	12724	98	3	-163	-16016	-2588	-292	33	6	-10	-1540	-856	16932	271	-37	-31	125	114	5
-9260	-8404	9928	-90	148	-164	-16484	1572	-2096	33	27	115	-2980	-5344	15476	-58	-149	235	-10388	3372	12804	126	-34	-146	-16000	-2552	-308	30	-28	-3	-1636	-748	16880	237	18	36	125	114	5
-9256	-8404	9932	-120	140	-181	-16520	1536	-2140	126	-8	125	-3056	-5432	15516	-10	-166	241	-10416	3452	12704	108	8	-152	-16000	-2512	-316	4	-2	-18	-1728	-776	16892	233	21	54	125	114	5
-9328	-8420	9852	-105	151	-146	-16512	1580	-2152	134	15	129	-3052	-5464	15592	45	-140	202	-10400	3464	12680	170	-15	-162	-15920	-2548	-316	-15	-12	9	-1676	-660	16876	180	3	83	125	114	5
-9188	-8380	9828	-122	154	-178	-16484	1540	-2088	93	-64	145	-3100	-5388	15504	79	-154	156	-10448	3388	12652	95	-59	-148	-15968	-2484	-332	-5	-38	-33	-1644	-716	16888	141	37	63	126	114	5
-9344	-8388	9944	-74	113	-157	-16532	1508	-2140	97	-27	137	-3052	-5428	15508	114	-126	129	-10460	3384	12672	114	-50	-127	-16056	-2524	-324	-15	-102	-75	-1696	-708	16900	145	-6	92	126	114	5
-9304	-8392	9984	-76	95	-158	-16524	1552	-2068	69	-104	125	-3052	-5336	15524	123	-127	151	-10448	3408	12740	125	-34	-150	-16000	-2500	-232	-52	-117	-56	-1660	-740	16896	177	1	97	125	114	5
-9280	-8472	9916	-83	140	-201	-16592	1536	-2024	15	-72	152	-3024	-5308	15580	117	-110	129	-10416	3420	12596	122	7	-127	-16012	-2596	-260	-42	-94	-46	-1632	-788	16984	118	37	129	125	114	5
-9240	-8364	9956	-78	121	-196	-16504	1520	-2004	35	-90	171	-2928	-5312	15536	91	-144	111	-10504	3444	12732	121	-49	-130	-16008	-2560	-240	-16	-106	-43	-1548	-816	16884	129	12	90	125	114	5
-9208	-8528	9816	-88	95	-201	-16560	1516	-1972	30	-74	162	-2872	-5288	15520	82	-120	105	-10456	3448	12748	126	-19	-151	-16028	-2628	-280	22	-86	-44	-1556	-820	16940	155	-16	76	125	114	5
-9244	-8472	9944	-93	148	-172	-16416	1536	-1964	27	-68	156	-2868	-5284	15604	119	-103	128	-10464	3508	12716	114	-18	-137	-15936	-2564	-240	-23	-88	-40	-1512	-804	17016	173	-29	61	125	114	5
-9208	-8500	10056	-58	138	-182	-16528	1492	-1976	65	-41	157	-2852	-5264	15624	92	-129	125	-10412	3432	12844	138	-23	-104	-15968	-2648	-224	-26	-71	-18	-1468	-856	17076	147	1	30	125	114	5
-9236	-8476	9952	-110	138	-158	-16528	1568	-2052	75	-71	142	-2952	-5256	15584	42	-139	119	-10384	3384	12716	93	-6	-151	-16016	-2608	-280	-20	-53	-16	-1520	-764	16948	147	1	58	126	114	5
-9204	-8380	9760	-87	152	-163	-16440	1572	-2088	108	10	112	-2872	-5240	15536	-39	-145	177	-10480	3468	12684	90	-15	-145	-15972	-2596	-192	0	-27	-18	-1528	-844	16932	169	-15	48	126	114	5
-9284	-8448	10020	-92	120	-185	-16504	1648	-2108	98	21	108	-2920	-5252	15484	-18	-146	181	-10416	3416	12684	117	-28	-137	-15976	-2640	-420	30	-31	-18	-1536	-812	16984	161	-33	16	126	114	5
-9256	-8376	9872	-101	142	-203	-16484	1584	-2040	53	-3	130	-2976	-5316	15624	2	-171	223	-10404	3504	12768	110	68	-140	-15916	-2588	-360	3	-46	20	-1616	-808	16992	148	-39	10	126	114	5
-9232	-8416	9772	-113	124	-195	-16524	1516	-2088	80	-22	105	-2980	-5352	15528	-11	-148	191	-10456	3444	12744	129	7	-143	-15956	-2580	-292	0	-52	24	-1596	-788	17112	226	-17	5	126	114	5
-9248	-8428	9940	-89	128	-187	-16520	1552	-2148	81	-6	92	-2976	-5400	15484	0	-124	170	-10320	3464	12828	113	-36	-110	-15956	-2540	-428	7	-44	26	-1640	-700	17000	231	9	16	126	114	5
-9240	-8416	9920	-83	130	-178	-16568	1560	-2120	73	-38	143	-3012	-5336	15520	8	-137	181	-10440	3460	12616	109	-3	-110	-16056	-2560	-264	-15	-61	-27	-1604	-716	16932	168	-25	43	125	114	5
-9228	-8368	9916	-106	155	-193	-16564	1516	-2132	84	9	134	-2988	-5452	15552	82	-150	151	-10472	3492	12772	98	-20	-151	-15984	-2528	-268	-9	-64	-32	-1628	-712	16984	184	-16	66	125	114	5
-9260	-8448	9984	-75	144	-181	-16488	1548	-2124	76	-69	179	-2992	-5324	15528	109	-107	174	-10488	3484	12712	165	-26	-125	-16000	-2492	-220	3	-44	-19	-1652	-752	16872	150	-2	93	126	114	5
-9264	-8448	9908	-74	114	-189	-16580	1528	-2168	81	-10	147	-2944	-5344	15500	68	-109	156	-10424	3448	12720	68	-27	-143	-15964	-2584	-284	13	-89	-17	-1628	-784	16980	177	26	54	126	114	5
-9292	-8508	9944	-82	108	-182	-16588	1544	-2112	90	-54	155	-2888	-5344	15516	86	-118	165	-10444	3420	12760	113	15	-170	-16020	-2540	-200	-13	-57	-32	-1648	-744	17020	178	21	83	126	114	5
-9288	-8400	9900	-52	144	-163	-16532	1620	-2120	57	-57	164	-2992	-5336	15560	108	-126	150	-10460	3432	12712	108	-3	-163	-15984	-2616	-248	10	-68	2	-1576	-820	16880	160	-20	70	125	114	5
-9324	-8420	10012	-49	119	-188	-16544	1624	-2096	48	-65	141	-2908	-5256	15632	86	-125	158	-10444	3416	12788	127	-13	-126	-16004	-2544	-236	-11	-73	-55	-1584	-808	16936	172	-19	55	126	114	5
-9288	-8468	9932	-99	133	-204	-16544	1548	-2052	52	-49	165	-2952	-5296	15488	96	-112	133	-10444	3496	12664	116	-32	-128	-15928	-2632	-192	10	-52	12	-1508	-856	16824	174	-24	67	126	114	5
-9216	-8396	9804	-55	138	-149	-16480	1556	-2080	70	-92	173	-2976	-5300	15504	97	-103	163	-10424	3464	12632	91	-2	-126	-16012	-2540	-292	18	-60	-7	-1564	-816	16936	228	-19	13	126	114	5
-9220	-8388	9880	-43	136	-171	-16508	1548	-2148	47	-25	186	-2972	-5248	15468	57	-146	176	-10440	3500	12668	108	-8	-170	-15952	-2596	-304	27	-54	-22	-1620	-708	17020	230	-2	22	126	114	5
-9288	-8444	9888	-107	168	-165	-16508	1564	-2124	78	-31	149	-2960	-5248	15568	64	-138	193	-10424	3552	12668	137	-18	-161	-15992	-2536	-348	23	-57	-25	-1668	-708	16816	210	-28	42	126	114	5
-9252	-8412	9968	-132	107	-188	-16500	1604	-2180	96	-47	146	-2984	-5256	15524	47	-139	164	-10488	3496	12684	131	-52	-137	-16004	-2604	-284	-4	-74	-28	-1648	-752	16836	209	-37	22	126	114	5
-9328	-8436	9808	-121	125	-223	-16540	1564	-2144	45	-48	148	-3024	-5188	15432	69	-109	184	-10448	3496	12692	128	-33	-157	-15968	-2556	-252	56	-84	-57	-1688	-700	16852	181	11	71	126	114	5
-9276	-8388	9920	-84	130	-188	-16540	1560	-2000	42	-26	121	-3036	-5268	15556	52	-124	168	-10476	3448	12680	132	-22	-126	-16052	-2572	-204	18	-66	-66	-1556	-744	16928	151	-17	74	126	114	5
-9280	-8428	9992	-97	130	-184	-16512	1584	-2008	43	-56	128	-2912	-5360	15496	65	-96	209	-10424	3400	12828	115	-15	-138	-16048	-2556	-252	12	-105	-46	-1608	-744	17044	209	-9	92	126	114	5
-9208	-8380	9956	-79	138	-149	-16472	1492	-2136	62	-69	171	-2928	-5332	15616	45	-112	178	-10468	3452	12716	148	-30	-143	-15908	-2584	-272	-1	-107	-25	-1608	-732	17000	160	13	102	125	114	5
-9288	-8496	9940	-86	129	-173	-16532	1560	-2108	119	-63	141	-2960	-5368	15492	37	-104	117	-10448	3492	12724	93	8	-127	-15908	-2668	-244	0	-73	-6	-1480	-640	17008	220	7	71	125	114	5
-9264	-8440	9964	-108	128	-174	-16548	1488	-2032	171	-62	180	-2840	-5424	15620	100	-89	134	-10476	3504	12708	94	-5	-176	-15988	-2560	-244	-56	-47	-45	-1480	-672	17132	154	-3	66	126	114	5
-9308	-8496	9880	-138	121	-168	-16600	1484	-2144	180	-22	186	-2832	-5384	15556	89	-144	138	-10432	3428	12664	109	34	-133	-16032	-2672	-220	3	-28	-50	-1520	-820	17004	91	-5	26	126	114	5
-9268	-8404	9916	-145	112	-183	-16508	1472	-2072	165	-2	147	-2984	-5320	15544	73	-101	92	-10416	3392	12680	81	-52	-159	-15912	-2664	-280	-30	-28	-41	-1596	-732	16968	98	5	29	126	114	5
-9240	-8488	9948	-82	128	-161	-16568	1508	-1980	169	14	145	-2908	-5312	15508	38	-100	132	-10384	3440	12628	85	35	-104	-15972	-2572	-244	81	6	-16	-1644	-732	17020	131	20	39	126	114	5
-9288	-8424	9944	-83	130	-169	-16480	1548	-2036	125	48	156	-2916	-5364	15452	36	-132	98	-10448	3456	12720	125	-23	-121	-15964	-2508	-324	76	-35	-25	-1660	-752	16900	191	1	52	126	114	5
-9252	-8404	9940	-100	132	-143	-16580	1428	-2084	112	-4	207	-2976	-5384	15528	28	-107	139	-10460	3492	12712	143	1	-124	-15932	-2508	-344	44	-76	-54	-1712	-744	17016	194	48	116	126	114	5
-9292	-8408	9920	-73	140	-141	-16480	1532	-2064	150	0	199	-3012	-5380	15500	65	-160	158	-10452	3460	12800	126	-22	-116	-16016	-2468	-456	0	-114	-81	-1772	-700	16840	137	54	169	126	114	5
-9264	-8424	9892	-88	122	-193	-16612	1488	-2244	99	-27	183	-3080	-5396	15528	125	-136	123	-10512	3436	12740	153	-41	-99	-16012	-2572	-388	32	-134	-82	-1780	-788	16952	148	32	127	126	114	5
-9252	-8444	9844	-46	140	-170	-16532	1532	-2152	201	-8	266	-3080	-5420	15480	166	-125	123	-10376	3452	12772	160	17	-135	-15992	-2564	-328	-6	-172	-81	-1640	-824	16776	105	2	142	126	114	5
-9264	-8412	9824	-52	137	-124	-16524	1480	-2156	156	-57	284	-3044	-5404	15376	248	-74	35	-10424	3444	12792	142	-44	-118	-16012	-2588	-328	23	-178	-79	-1556	-856	16968	127	-24	81	126	114	5
-9264	-8428	9928	-25	150	-183	-16512	1572	-2096	100	-125	280	-2972	-5388	15488	308	-57	15	-10464	3500	12664	162	-26	-132	-15976	-2644	-300	24	-177	-83	-1528	-904	16924	197	-16	-18	126	114	5
-9176	-8376	9976	-27	96	-180	-16560	1592	-2088	80	-98	305	-2920	-5260	15432	298	-39	8	-10436	3488	12664	142	-82	-128	-15952	-2656	-140	54	-141	-18	-1500	-824	16976	194	-67	3	126	114	5
-9268	-8460	9892	-5	113	-130	-16544	1644	-2124	56	-104	327	-2924	-5264	15524	286	-49	-16	-10416	3428	12600	150	10	-106	-15952	-2668	-228	21	-134	-31	-1368	-832	16932	168	-43	24	125	114	5
-9212	-8424	9932	-1	94	-150	-16524	1644	-2168	50	-104	288	-2940	-5160	15608	261	-101	14	-10404	3448	12780	119	-6	-161	-15996	-2628	-52	-19	-64	-23	-1320	-880	16920	191	-45	47	125	114	5
-9252	-8420	9952	1	100	-153	-16472	1704	-2036	37	-58	274	-3028	-5028	15576	209	-125	45	-10440	3496	12820	120	-13	-123	-15936	-2576	-92	-54	-9	-31	-1384	-828	17012	253	-44	36	125	114	5
-9232	-8400	9904	-73	138	-173	-16396	1812	-2048	7	-126	206	-3016	-5036	15656	192	-117	103	-10432	3556	12692	96	-21	-161	-15992	-2568	-212	-68	16	-11	-1320	-712	17004	279	-67	77	125	114	5
-9304	-8408	9932	-108	139	-212	-16496	1816	-2004	-70	-78	150	-2960	-4956	15732	114	-176	234	-10396	3444	12672	47	0	-178	-15980	-2516	-148	-102	92	-15	-1456	-636	17016	242	-50	131	125	114	5
-9232	-8424	9868	-133	149	-185	-16456	1776	-1956	-14	-24	64	-2856	-4960	15668	46	-173	341	-10436	3484	12824	62	-8	-185	-15976	-2532	-220	-116	113	-53	-1516	-636	16940	163	-30	148	126	114	5
-9280	-8404	9948	-143	145	-234	-16532	1688	-1924	47	19	30	-2936	-4960	15536	-104	-198	409	-10436	3384	12776	54	-39	-229	-16012	-2544	-288	-111	112	-80	-1608	-660	17032	81	15	181	125	114	5
-9224	-8448	9928	-130	164	-199	-16496	1704	-2136	132	-37	-9	-2968	-4992	15580	-191	-230	408	-10380	3380	12756	61	-45	-148	-15960	-2584	-284	-27	129	-93	-1756	-668	16876	78	5	125	125	114	5
-9240	-8364	9944	-173	173	-192	-16532	1652	-2104	105	-73	-29	-3020	-5056	15596	-172	-201	381	-10444	3468	12800	32	-55	-178	-16008	-2548	-288	-32	64	-91	-1824	-704	16952	77	13	88	125	114	5
-9252	-8440	9972	-199	135	-189	-16540	1692	-2140	105	-80	-100	-3100	-5132	15568	-224	-151	291	-10452	3432	12700	78	-51	-154	-15992	-2528	-408	-44	74	-89	-1824	-704	16956	85	25	29	125	114	5
-9268	-8468	9976	-184	144	-217	-16472	1656	-2088	5	-51	-88	-3188	-5132	15536	-269	-154	282	-10440	3432	12596	53	-28	-157	-15924	-2544	-268	-47	9	-138	-1764	-620	16972	55	-34	47	125	114	5
-9280	-8468	9860	-186	151	-258	-16512	1652	-2128	-57	-68	-166	-3072	-5208	15640	-306	-145	265	-10464	3408	12716	58	-92	-176	-15960	-2588	-356	-81	-8	-181	-1684	-752	16928	-89	-9	74	125	114	5
-9208	-8408	9932	-230	157	-250	-16512	1640	-2052	-66	-94	-188	-3032	-5260	15572	-287	-200	368	-10404	3484	12780	94	-11	-153	-15992	-2564	-464	-88	-41	-162	-1668	-760	16860	-127	17	170	126	114	5
-9264	-8436	9972	-192	152	-272	-16536	1520	-2096	-82	-74	-188	-2928	-5320	15488	-312	-220	440	-10464	3432	12740	82	-45	-139	-15968	-2704	-344	-120	-50	-189	-1540	-876	16908	-124	-20	240	126	114	5
-9232	-8392	9888	-209	150	-227	-16516	1444	-2012	-34	-84	-211	-2824	-5344	15528	-303	-267	438	-10424	3424	12796	103	-44	-125	-15980	-2728	-416	-80	-83	-168	-1684	-964	16916	-92	66	221	126	114	5
-9236	-8436	9920	-220	158	-250	-16536	1360	-1892	67	-76	-164	-2760	-5412	15488	-296	-258	454	-10436	3396	12640	115	-53	-115	-15936	-2800	-268	-32	-136	-97	-1600	-1024	17096	-24	49	161	126	114	5
-9148	-8408	9908	-220	163	-243	-16568	1356	-1980	116	-38	-125	-2760	-5540	15464	-297	-225	385	-10436	3416	12716	107	-45	-117	-15908	-2832	-356	29	-125	-72	-1572	-1064	16948	66	4	108	126	114	5
-9236	-8512	9844	-196	155	-260	-16540	1356	-2012	127	15	-21	-2784	-5564	15376	-303	-209	325	-10392	3420	12808	150	-11	-105	-16004	-2804	-524	96	-150	-22	-1540	-1124	16928	154	-30	-7	125	114	5
-9272	-8476	9940	-131	145	-179	-16548	1364	-2020	71	19	18	-2824	-5632	15488	-218	-202	268	-10432	3456	12744	107	27	-146	-15916	-2836	-308	97	-154	-27	-1568	-1104	16892	266	-49	-62	126	114	5
-9272	-8476	9896	-88	162	-195	-16576	1312	-1968	50	20	107	-2792	-5704	15432	-119	-171	226	-10420	3456	12704	164	-8	-91	-15956	-2796	-388	125	-128	107	-1588	-1056	17000	232	-4	-174	126	114	5
-9308	-8420	9948	-62	138	-173	-16556	1240	-2120	23	54	143	-2828	-5668	15512	-46	-192	195	-10460	3440	12856	204	8	-70	-15908	-2700	-284	95	-159	100	-1580	-944	16928	335	0	-186	126	114	5
-9264	-8488	10020	-80	147	-132	-16572	1348	-2148	85	45	255	-2912	-5660	15468	46	-155	106	-10484	3392	12808	212	38	-128	-15980	-2740	-360	144	-132	111	-1496	-920	16908	332	11	-198	126	114	5
-9300	-8472	9836	-11	124	-140	-16544	1312	-2004	102	-1	276	-2936	-5676	15392	148	-129	57	-10388	3384	12724	207	54	-103	-16012	-2632	-332	130	-158	146	-1568	-908	16944	367	-7	-228	126	114	5
-9268	-8480	9948	-19	93	-136	-16524	1380	-2184	113	-29	306	-3048	-5492	15388	242	-74	27	-10492	3404	12664	202	-8	-82	-15960	-2664	-232	143	-184	145	-1660	-832	16808	406	-31	-243	126	114	5
-9196	-8436	9912	-34	96	-123	-16488	1496	-2124	89	-30	315	-3060	-5496	15444	249	-96	40	-10440	3440	12808	215	-16	-77	-15964	-2560	-296	148	-189	158	-1624	-780	16780	457	-31	-209	126	114	5
-9244	-8404	9916	-19	102	-138	-16508	1520	-2048	83	-41	329	-3012	-5392	15512	300	-86	29	-10400	3444	12692	180	42	-97	-15936	-2528	-188	127	-163	123	-1636	-760	16936	417	-61	-116	126	114	5
-9240	-8404	9872	-49	112	-162	-16536	1576	-2028	43	-68	311	-2988	-5316	15572	292	-80	41	-10428	3504	12656	156	-23	-117	-15968	-2560	-224	82	-156	125	-1504	-736	16988	410	-9	-54	126	114	5
-9248	-8400	9972	-28	113	-130	-16468	1528	-1956	77	-62	261	-2984	-5176	15480	194	-122	66	-10416	3484	12748	161	18	-89	-15924	-2520	-76	73	-161	98	-1512	-768	16820	431	-1	-80	126	114	5
-9272	-8388	9876	-53	128	-167	-16564	1580	-1892	105	-1	268	-2868	-5240	15500	174	-129	102	-10416	3484	12696	124	24	-147	-16032	-2552	-180	54	-79	146	-1468	-656	16964	429	17	-90	126	114	5
-9212	-8456	9812	-100	117	-129	-16516	1552	-1884	144	-7	209	-2856	-5172	15564	240	-125	148	-10424	3488	12772	116	34	-110	-15956	-2600	-60	74	-74	80	-1412	-668	16908	359	-69	-56	126	114	5
-9228	-8440	9880	-94	119	-157	-16512	1652	-1996	182	-9	199	-2868	-5092	15652	134	-152	173	-10420	3500	12724	80	36	-170	-16048	-2592	-80	33	-20	77	-1332	-668	16888	282	-17	-42	126	114	5
-9252	-8444	9852	-102	130	-196	-16472	1664	-2064	202	22	127	-2908	-5064	15588	57	-124	219	-10452	3504	12748	104	-13	-147	-15944	-2532	-12	22	42	49	-1524	-756	16956	241	1	-38	126	114	5
-9244	-8384	9900	-132	171	-147	-16536	1688	-2104	154	41	115	-2920	-5140	15676	-103	-138	266	-10436	3412	12648	84	-5	-158	-16012	-2588	-260	29	34	43	-1576	-692	16756	299	-5	-43	125	114	5
-9236	-8404	9960	-115	167	-170	-16496	1632	-2052	126	87	91	-2984	-5204	15472	-232	-181	302	-10460	3516	12688	109	1	-151	-16000	-2576	-208	37	54	59	-1520	-692	16960	255	-23	12	126	114	5
-9244	-8452	9872	-155	185	-182	-16508	1620	-2056	78	65	39	-3048	-5312	15480	-189	-199	332	-10396	3540	12792	97	26	-199	-15980	-2548	-304	24	43	-8	-1660	-756	16864	314	12	73	125	114	5
-9244	-8412	9912	-122	142	-154	-16516	1564	-2128	72	43	37	-3032	-5308	15412	-146	-194	337	-10468	3516	12672	81	-7	-155	-15960	-2504	-352	-15	54	9	-1736	-612	16936	308	-31	16	126	114	5
-9260	-8404	9916	-111	143	-193	-16520	1532	-2248	59	-19	-2	-3080	-5400	15552	-122	-198	332	-10448	3500	12596	115	-15	-160	-15984	-2488	-236	-13	14	-33	-1776	-668	16908	258	19	57	126	114	5
-9280	-8416	10028	-121	143	-179	-16552	1532	-2220	56	-1	-12	-3072	-5384	15608	-80	-181	350	-10456	3424	12772	112	-70	-144	-16060	-2436	-320	-8	-38	-38	-1708	-616	16900	185	2	107	125	114	5
-9256	-8448	9912	-137	170	-177	-16528	1504	-2120	38	-15	19	-3040	-5416	15560	-74	-172	327	-10336	3540	12692	116	35	-139	-15984	-2504	-320	-32	-65	-52	-1700	-704	16912	206	-32	61	125	114	5
-9316	-8412	9904	-119	142	-218	-16516	1480	-2032	58	-116	6	-3032	-5384	15492	-105	-145	292	-10460	3480	12724	134	-16	-103	-16028	-2544	-388	-12	-102	-9	-1708	-716	16932	192	40	75	125	114	5
-9280	-8436	9932	-123	151	-204	-16552	1428	-2168	44	-89	67	-2932	-5472	15536	-42	-152	264	-10404	3484	12848	185	-67	-118	-15996	-2552	-260	-28	-124	-73	-1608	-736	17024	174	-20	56	125	114	5
-9284	-8356	9908	-153	143	-225	-16528	1472	-2208	36	-103	34	-2892	-5380	15468	16	-161	177	-10400	3480	12812	130	-39	-101	-16004	-2564	-288	-17	-152	-37	-1568	-812	16912	169	14	33	126	114	5
-9232	-8500	9936	-136	106	-220	-16460	1448	-2072	12	-115	55	-2912	-5460	15420	9	-131	201	-10428	3416	12696	171	-61	-129	-15948	-2628	-212	-10	-113	-105	-1540	-772	16948	181	5	26	126	114	5
-9264	-8420	9936	-145	121	-222	-16524	1480	-1968	23	-70	71	-2892	-5416	15460	-51	-138	181	-10412	3508	12800	137	-36	-131	-16024	-2572	-180	24	-107	-3	-1476	-740	16928	203	-33	-6	126	114	5
-9248	-8484	9868	-117	163	-184	-16544	1432	-2024	21	-41	121	-2812	-5432	15544	-25	-139	145	-10440	3424	12772	146	-44	-140	-15884	-2664	-148	4	-72	-1	-1464	-792	16908	220	-8	6	125	114	5
-9212	-8464	9864	-107	102	-175	-16540	1388	-1960	29	-27	121	-2872	-5476	15440	-3	-126	165	-10468	3472	12716	133	-27	-146	-16020	-2616	-108	12	-54	-38	-1484	-760	16948	214	-55	32	126	114	5
-9248	-8372	9856	-123	147	-165	-16572	1328	-2016	57	-21	107	-2836	-5460	15536	42	-134	173	-10400	3436	12744	164	31	-163	-15956	-2556	-224	21	-28	-25	-1456	-756	16920	176	-25	51	126	114	5
-9296	-8476	9868	-99	135	-149	-16540	1432	-2080	111	-14	132	-2884	-5440	15500	86	-165	165	-10380	3512	12692	111	-10	-152	-15996	-2628	-136	11	-1	-11	-1556	-724	17040	196	-25	28	126	114	5
-9260	-8488	9916	-90	84	-156	-16552	1344	-2048	108	12	201	-2908	-5500	15452	53	-138	173	-10384	3476	12768	113	-25	-147	-15992	-2580	-232	41	-22	18	-1552	-740	16912	178	-2	43	126	115	5
-9276	-8408	9892	-85	150	-180	-16532	1420	-2000	59	-19	189	-2880	-5472	15564	89	-134	170	-10444	3500	12764	114	48	-152	-15948	-2548	-196	10	-6	-20	-1540	-684	16964	185	27	55	126	114	5
-9252	-8392	9928	-108	130	-160	-16588	1492	-2000	65	66	187	-2896	-5464	15500	82	-137	162	-10420	3468	12736	113	-11	-170	-15944	-2608	-276	-21	-16	-32	-1544	-740	16956	197	0	48	126	114	5
-9308	-8420	9924	-103	150	-153	-16536	1388	-2196	93	35	172	-2984	-5420	15568	65	-100	126	-10464	3452	12712	92	-8	-127	-16000	-2564	-224	28	-9	-1	-1548	-692	17012	180	4	9	126	114	5
-9216	-8424	9900	-62	152	-138	-16520	1480	-2104	74	17	232	-3016	-5340	15416	144	-108	117	-10504	3560	12696	107	-6	-152	-16064	-2576	-244	-25	-24	10	-1640	-756	16972	203	-15	14	126	114	5
-9220	-8388	9892	-70	129	-129	-16568	1496	-2104	85	22	222	-3024	-5328	15452	109	-95	114	-10480	3432	12824	88	-35	-138	-16032	-2532	-212	-9	15	7	-1644	-716	16796	184	-30	3	126	114	5
-9268	-8448	9968	-99	127	-144	-16552	1532	-2144	61	11	193	-3012	-5268	15568	110	-135	104	-10412	3436	12724	144	-12	-167	-16008	-2520	-256	17	8	29	-1648	-684	16932	189	-14	43	126	114	5
-9300	-8440	9896	-98	108	-179	-16556	1592	-2020	79	1	168	-3004	-5276	15352	71	-121	135	-10404	3512	12712	112	-51	-140	-16008	-2504	-316	-44	-19	-27	-1580	-680	17096	152	-15	27	126	114	5
-9240	-8396	9928	-81	129	-185	-16552	1540	-2176	47	-1	179	-2992	-5264	15580	36	-158	173	-10464	3444	12620	109	-75	-133	-16028	-2480	-368	8	-30	-8	-1592	-732	17064	153	-15	53	126	114	5
-9276	-8392	9964	-52	143	-169	-16500	1544	-2076	52	-12	134	-2948	-5312	15484	46	-140	191	-10416	3392	12680	121	-18	-144	-16012	-2552	-220	-22	-31	26	-1548	-708	17048	145	6	54	126	114	5
-9212	-8432	9848	-121	151	-196	-16496	1580	-1980	84	-26	104	-3008	-5360	15556	16	-149	174	-10412	3472	12752	94	-82	-163	-15936	-2544	-284	-45	-27	-46	-1548	-660	16952	153	22	75	126	114	5
-9236	-8444	9908	-107	124	-156	-16496	1548	-2144	94	-49	121	-2984	-5340	15520	32	-166	214	-10488	3532	12760	117	-38	-162	-16016	-2476	-296	-2	-40	-34	-1664	-660	16928	193	58	87	125	114	5
-9284	-8416	9876	-102	157	-211	-16500	1468	-2140	86	-71	104	-3004	-5328	15488	32	-151	203	-10388	3440	12844	94	-6	-149	-16056	-2604	-244	-20	-53	-61	-1628	-696	16956	156	-34	88	126	114	5
-9240	-8428	9856	-96	115	-189	-16520	1456	-2168	38	-71	99	-2988	-5372	15512	29	-150	208	-10436	3424	12892	89	23	-130	-15996	-2556	-384	-32	-25	-59	-1544	-664	17000	129	-36	108	126	114	5
-9320	-8420	9912	-109	131	-186	-16460	1552	-1992	43	-40	90	-3012	-5400	15448	12	-154	181	-10416	3488	12796	87	-22	-169	-15952	-2600	-80	-24	-50	-56	-1572	-704	16952	112	-35	78	126	114	5
-9228	-8476	10028	-118	136	-192	-16500	1440	-2132	102	-59	82	-2980	-5384	15456	-43	-163	206	-10448	3432	12820	119	-36	-191	-15976	-2592	-340	10	-61	-32	-1596	-808	16964	140	-10	39	126	114	5
-9288	-8372	9952	-132	130	-199	-16536	1544	-2220	45	-91	83	-3004	-5412	15564	2	-106	237	-10412	3428	12676	115	-35	-145	-16008	-2600	-344	10	-63	-51	-1604	-692	16908	158	17	53	126	114	5
-9248	-8416	9916	-116	124	-209	-16528	1416	-2100	32	-41	116	-3028	-5420	15544	32	-112	204	-10436	3472	12648	135	-22	-115	-16032	-2540	-248	-13	-67	-60	-1636	-740	16948	189	1	88	126	114	5
-9168	-8432	9812	-97	116	-200	-16500	1428	-2028	60	-62	129	-2884	-5428	15524	62	-104	196	-10444	3464	12704	115	-68	-142	-15992	-2584	-216	-38	-117	-56	-1568	-764	17036	236	14	62	126	114	5
-9292	-8476	9860	-97	115	-159	-16568	1432	-2028	96	-93	177	-2920	-5372	15520	74	-100	118	-10416	3480	12616	129	18	-153	-15928	-2628	-156	-46	-102	-16	-1516	-688	17004	212	52	69	126	114	5
-9260	-8436	9820	-114	145	-193	-16476	1428	-1968	128	-84	135	-2860	-5348	15556	7	-92	101	-10440	3484	12720	117	-16	-153	-15948	-2564	-244	-26	-76	-72	-1480	-696	16936	189	-5	-4	125	114	5
-9264	-8468	10016	-95	127	-196	-16468	1476	-1844	180	-36	177	-2848	-5444	15552	89	-105	128	-10488	3488	12728	119	-12	-131	-15984	-2604	-196	14	-35	-14	-1492	-724	16920	103	-20	13	126	114	5
-9300	-8476	9968	-152	146	-121	-16476	1476	-2100	163	14	144	-2836	-5412	15672	51	-165	169	-10464	3484	12640	76	24	-142	-15996	-2584	-204	14	-14	-3	-1544	-740	17008	95	10	-20	126	114	5
-9192	-8480	9860	-152	135	-168	-16532	1532	-2040	145	35	110	-2968	-5296	15456	-9	-181	186	-10464	3556	12708	81	-16	-159	-16036	-2516	-240	22	-21	-46	-1596	-828	16840	106	12	36	126	114	5
-9216	-8480	9880	-131	139	-189	-16540	1524	-2180	131	9	145	-3036	-5360	15584	-12	-132	196	-10472	3456	12692	81	3	-118	-16012	-2564	-216	9	-11	-16	-1556	-780	16944	175	5	34	126	114	5
-9264	-8420	10072	-151	151	-158	-16512	1516	-2032	98	-9	116	-2984	-5372	15440	3	-135	214	-10488	3424	12716	84	-53	-188	-15952	-2556	-272	15	20	34	-1612	-748	16940	272	7	37	126	114	5
-9232	-8492	9928	-128	134	-153	-16468	1452	-2028	78	-15	115	-3028	-5432	15428	50	-152	208	-10412	3560	12732	113	0	-153	-16012	-2580	-432	26	-1	-67	-1728	-712	16876	267	-18	64	126	114	5
-9276	-8376	9968	-122	139	-181	-16524	1476	-2072	71	-44	140	-3040	-5400	15480	55	-125	225	-10456	3496	12704	117	-37	-142	-16072	-2572	-308	31	-44	-29	-1652	-688	16860	301	28	46	126	114	5
-9260	-8468	9864	-129	137	-169	-16564	1404	-2132	77	-60	140	-2984	-5476	15388	27	-138	182	-10404	3540	12796	123	31	-179	-16036	-2492	-292	-39	-64	-26	-1616	-700	17072	213	25	16	125	114	5
-9280	-8448	9812	-130	168	-199	-16568	1432	-2128	106	-75	115	-2964	-5404	15516	65	-136	185	-10452	3496	12760	158	14	-138	-15988	-2560	-232	-25	-65	-15	-1636	-644	16860	118	-5	43	126	114	5
-9348	-8468	9972	-89	144	-177	-16552	1444	-2056	98	-112	132	-2984	-5420	15384	99	-100	149	-10448	3484	12704	156	-32	-110	-16008	-2572	-240	-62	-91	-49	-1624	-676	16872	112	-35	58	125	114	5
-9212	-8444	9948	-87	111	-180	-16528	1448	-2160	50	-89	122	-2956	-5360	15452	93	-110	104	-10404	3464	12680	149	-15	-116	-15952	-2532	-256	-13	-64	-63	-1604	-772	16992	155	12	51	126	114	5
-9280	-8444	9880	-84	130	-185	-16520	1424	-2004	32	-80	132	-2868	-5400	15444	83	-134	158	-10432	3460	12716	129	18	-137	-16040	-2604	-200	19	-99	-19	-1604	-732	16872	146	18	60	126	114	5
-9248	-8476	9848	-100	121	-172	-16544	1432	-2176	18	-64	148	-2868	-5428	15480	56	-144	172	-10460	3452	12756	130	-65	-119	-16008	-2560	-200	14	-80	-8	-1528	-816	16924	152	-30	59	126	114	5
-9264	-8420	9948	-57	115	-208	-16496	1492	-2092	31	-39	171	-2868	-5364	15472	66	-115	160	-10376	3480	12804	135	15	-137	-15984	-2624	-124	15	-59	-57	-1488	-752	16948	181	7	47	125	114	5
-9240	-8372	9796	-116	115	-227	-16524	1452	-2088	52	-38	132	-2868	-5396	15440	63	-150	169	-10400	3484	12844	132	11	-141	-16020	-2548	-156	-10	-39	1	-1520	-756	16944	182	-11	44	126	114	5
-9228	-8404	9788	-120	125	-184	-16504	1520	-1968	84	-51	114	-2904	-5332	15552	40	-144	218	-10440	3556	12700	102	-15	-120	-15988	-2568	-208	-6	-59	-11	-1524	-660	16976	217	-34	40	126	114	5
-9272	-8416	9896	-116	146	-194	-16496	1528	-2080	106	-9	144	-2904	-5452	15464	16	-158	179	-10416	3424	12672	108	-11	-147	-16012	-2516	-240	-29	-66	-10	-1584	-752	16996	197	-46	37	126	114	5
-9280	-8464	9928	-100	157	-161	-16528	1536	-2100	93	-9	183	-2912	-5380	15452	56	-169	187	-10472	3476	12704	122	19	-166	-15972	-2564	-228	20	-46	17	-1572	-792	16912	177	-78	16	126	114	5
-9232	-8468	9864	-94	108	-147	-16556	1512	-2124	108	7	130	-2948	-5372	15520	17	-147	199	-10476	3436	12712	95	0	-142	-16032	-2532	-264	-11	-42	-14	-1592	-744	16936	167	-22	40	126	114	5
-9264	-8476	9928	-77	138	-195	-16584	1420	-2128	53	-33	158	-2948	-5460	15672	22	-148	201	-10396	3528	12600	125	-9	-151	-15940	-2544	-288	11	-74	7	-1552	-808	16900	208	-8	-8	126	114	5
-9240	-8492	9968	-72	131	-157	-16560	1468	-2064	41	5	162	-2992	-5408	15484	60	-153	184	-10448	3484	12692	120	-18	-146	-15956	-2548	-308	43	-54	12	-1632	-732	16908	245	-15	26	126	114	5
-9260	-8432	9948	-94	129	-175	-16592	1412	-2076	45	-38	157	-3044	-5408	15496	49	-133	170	-10404	3424	12640	84	28	-135	-16016	-2560	-240	2	-39	-12	-1624	-708	16964	240	0	10	126	114	5
-9280	-8404	9764	-90	118	-164	-16496	1508	-2080	75	-45	184	-3020	-5368	15548	31	-136	138	-10472	3512	12632	129	-8	-153	-15996	-2460	-180	-35	-65	-20	-1588	-676	16912	201	-34	-8	126	114	5
-9304	-8400	9856	-82	142	-174	-16568	1532	-2136	66	-68	170	-2940	-5432	15536	46	-156	159	-10436	3520	12712	115	-26	-123	-16008	-2596	-252	4	-71	-19	-1616	-688	16952	187	-11	43	126	114	5
-9264	-8484	9972	-71	139	-173	-16516	1504	-2104	53	-32	134	-2960	-5328	15564	77	-112	150	-10444	3460	12716	100	-62	-133	-16020	-2432	-268	4	-66	-28	-1568	-724	16976	172	1	48	126	114	5
-9248	-8444	9992	-91	109	-171	-16520	1484	-2020	73	-84	112	-3012	-5364	15540	89	-147	205	-10460	3524	12788	115	-6	-111	-16004	-2600	-196	-6	-58	-31	-1540	-744	16904	159	-36	81	126	114	5
-9228	-8404	9972	-75	146	-159	-16524	1520	-2088	24	-58	129	-2932	-5412	15444	77	-137	201	-10424	3492	12772	106	-15	-141	-15972	-2580	-192	-19	-40	-28	-1596	-716	16972	172	-29	54	125	114	5
-9192	-8384	9884	-104	150	-198	-16544	1516	-2080	34	-68	113	-2968	-5376	15540	62	-147	148	-10364	3496	12724	89	-10	-178	-16024	-2552	-208	5	-79	-1	-1556	-780	16952	172	-27	83	126	114	5
-9224	-8440	10008	-97	122	-185	-16544	1456	-2000	39	-3	123	-2980	-5376	15548	70	-125	185	-10436	3492	12688	118	-17	-147	-16020	-2536	-216	5	-64	-19	-1584	-732	16968	195	-20	42	126	114	5
-9260	-8416	9968	-99	146	-178	-16528	1488	-2144	50	-32	158	-2904	-5432	15456	25	-139	201	-10468	3464	12808	90	-19	-133	-15984	-2508	-192	19	-44	-49	-1536	-796	16956	199	-27	46	126	114	5
-9272	-8428	9912	-95	144	-198	-16576	1480	-2040	98	-42	140	-2992	-5384	15532	-7	-118	203	-10400	3460	12744	119	-70	-158	-16004	-2508	-300	-45	-98	-20	-1560	-696	16872	231	-56	10	126	114	5
-9292	-8384	9892	-59	130	-209	-16568	1500	-2116	72	-30	123	-3032	-5436	15536	25	-135	176	-10360	3464	12748	152	-20	-139	-15952	-2528	-132	36	-27	-16	-1540	-640	16900	165	-31	28	126	114	5
-9248	-8420	9940	-110	123	-156	-16516	1456	-2040	16	-35	164	-2860	-5388	15420	2	-189	155	-10448	3464	12816	119	-19	-188	-16040	-2512	-296	-33	-35	-30	-1516	-664	16900	175	-32	41	126	114	5
-9208	-8404	9984	-99	122	-186	-16580	1496	-2136	69	-20	141	-2948	-5384	15568	53	-124	173	-10388	3456	12704	134	-43	-147	-16048	-2584	-268	-25	-48	16	-1580	-696	17084	135	-3	66	126	114	5
-9256	-8428	9944	-85	148	-202	-16532	1500	-2148	43	-13	149	-2948	-5400	15468	33	-130	179	-10436	3384	12668	115	2	-162	-16036	-2524	-260	37	-40	-63	-1612	-716	16868	144	-13	84	125	114	5
-9224	-8404	9920	-104	122	-173	-16532	1412	-2072	43	-19	119	-2912	-5372	15492	57	-121	184	-10404	3528	12684	133	-36	-173	-15992	-2528	-264	-7	-67	-24	-1628	-752	16960	230	-1	79	126	114	5
-9276	-8452	9996	-136	134	-144	-16524	1496	-2052	58	-37	168	-2916	-5388	15552	56	-116	194	-10408	3440	12636	127	-30	-161	-16012	-2560	-144	3	-65	-63	-1588	-752	17020	179	-12	92	126	114	5
-9296	-8440	9892	-56	166	-158	-16540	1452	-2072	102	-39	103	-2944	-5344	15460	43	-123	117	-10360	3544	12752	100	-46	-109	-15988	-2616	-264	8	-66	29	-1508	-808	16904	236	28	63	126	114	5
-9204	-8408	9804	-102	130	-181	-16552	1480	-2056	126	-34	131	-2876	-5340	15520	11	-150	116	-10420	3524	12748	77	-10	-136	-15984	-2544	-304	-8	-59	-47	-1504	-680	16876	201	11	-9	125	114	5
-9228	-8404	9976	-85	147	-164	-16564	1540	-1960	147	-20	122	-2840	-5388	15500	60	-146	137	-10432	3464	12656	104	-40	-182	-16024	-2560	-332	18	-51	-14	-1432	-752	16976	108	14	15	126	114	5
-9260	-8456	9908	-156	136	-210	-16544	1500	-2092	117	34	161	-2888	-5316	15576	43	-170	174	-10432	3460	12716	87	-10	-156	-16032	-2560	-320	1	-20	-32	-1520	-772	17028	124	-29	17	126	114	5
-9216	-8400	9868	-147	116	-169	-16544	1488	-2136	129	38	135	-2992	-5384	15532	1	-133	210	-10388	3444	12600	97	32	-118	-16008	-2540	-152	3	-7	-52	-1556	-772	16948	104	35	65	125	114	5
-9260	-8464	9892	-124	120	-200	-16552	1512	-2100	140	-24	135	-3032	-5416	15508	18	-136	210	-10432	3444	12748	131	-23	-145	-16028	-2524	-268	24	-30	-51	-1628	-776	16896	217	1	60	126	114	5
-9264	-8448	9984	-133	111	-179	-16488	1480	-2116	114	4	112	-3012	-5400	15560	-34	-187	198	-10440	3484	12636	92	12	-150	-16040	-2540	-340	-1	-31	-20	-1648	-776	17020	262	-11	57	126	114	5
-9252	-8444	9836	-125	153	-166	-16540	1448	-2196	77	-30	102	-3052	-5396	15456	3	-140	205	-10352	3408	12712	125	-26	-143	-16004	-2556	-264	32	-87	-5	-1688	-720	16980	263	-28	74	126	114	5
-9316	-8416	9924	-137	116	-181	-16552	1504	-2128	107	-33	142	-2992	-5392	15384	59	-131	208	-10472	3460	12724	130	-11	-130	-15996	-2548	-264	28	-55	-19	-1720	-700	16780	239	-3	65	126	114	5
-9184	-8432	9808	-119	144	-170	-16572	1432	-2212	101	-38	128	-2964	-5420	15520	72	-125	182	-10460	3468	12736	129	-23	-149	-15980	-2600	-272	22	-63	-16	-1588	-732	16912	147	-11	62	126	114	5
-9208	-8408	9904	-89	142	-222	-16480	1440	-1976	97	-63	150	-2928	-5436	15508	70	-111	172	-10448	3404	12824	156	-31	-103	-16008	-2556	-268	10	-92	-58	-1628	-740	17016	132	-4	40	126	114	5
-9292	-8368	9884	-76	150	-186	-16548	1508	-2064	68	-105	172	-2908	-5356	15464	86	-114	140	-10436	3488	12788	107	-11	-157	-15984	-2544	-228	-22	-78	-38	-1576	-672	16924	163	-39	51	126	114	5
-9240	-8464	9880	-51	139	-189	-16516	1472	-2176	74	-135	163	-2936	-5332	15432	72	-141	143	-10456	3480	12652	145	-37	-133	-16012	-2520	-264	-15	-72	-72	-1572	-720	17000	144	-23	41	126	114	5
-9252	-8424	9952	-51	139	-190	-16508	1508	-2132	27	-50	134	-2956	-5368	15420	44	-139	176	-10408	3476	12716	134	2	-116	-16048	-2556	-208	23	-104	-26	-1612	-804	16936	145	-3	59	126	114	5
-9236	-8500	9948	-107	118	-176	-16524	1508	-2032	31	-30	147	-2932	-5328	15472	44	-121	187	-10424	3448	12648	121	29	-152	-15972	-2628	-180	-2	-86	-25	-1588	-692	16956	143	-37	83	126	114	5
-9324	-8408	9944	-86	134	-182	-16564	1488	-1996	50	-40	137	-2936	-5364	15480	38	-110	190	-10408	3436	12692	94	-25	-111	-16052	-2528	-116	34	-75	-9	-1500	-768	17040	194	-15	66	126	114	5
-9300	-8364	10016	-85	155	-169	-16520	1432	-2100	64	-74	121	-2984	-5404	15600	59	-190	176	-10428	3512	12772	114	-18	-135	-16020	-2536	-164	13	-93	-4	-1576	-752	17108	193	-28	22	126	114	5
-9280	-8372	9832	-116	166	-187	-16488	1484	-2076	91	-44	142	-2944	-5372	15536	71	-134	204	-10384	3464	12664	116	-24	-112	-15940	-2508	-212	-15	-46	-25	-1516	-732	16932	268	-44	12	126	114	5
-9240	-8424	9916	-103	135	-230	-16568	1476	-2136	40	-41	152	-2876	-5352	15528	53	-171	229	-10440	3460	12652	124	-16	-130	-15960	-2548	-212	-27	-74	-22	-1488	-684	17004	195	8	43	126	114	5
-9152	-8376	9904	-94	135	-190	-16568	1456	-2128	87	-75	108	-2844	-5300	15560	19	-163	222	-10464	3516	12784	130	-22	-134	-15960	-2568	-280	-20	-64	-30	-1548	-776	16904	118	-8	38	126	114	5
-9268	-8440	9820	-108	129	-190	-16524	1444	-2124	60	-18	123	-2884	-5304	15524	2	-157	214	-10460	3420	12692	112	4	-127	-15968	-2568	-248	-2	-40	-13	-1508	-728	17060	138	-5	8	126	114	5
-9304	-8488	9832	-83	119	-147	-16532	1456	-1940	75	-1	93	-2936	-5388	15576	-31	-134	204	-10448	3468	12744	144	-36	-121	-16012	-2528	-152	15	3	-12	-1544	-752	17008	172	-15	18	126	114	5
-9212	-8500	9896	-91	112	-187	-16520	1452	-2060	76	24	122	-2864	-5468	15500	-43	-174	160	-10472	3480	12700	123	24	-153	-15928	-2480	-204	21	-16	36	-1536	-684	16896	216	-3	2	126	114	5
-9252	-8492	9936	-97	146	-168	-16508	1396	-2124	72	13	111	-2964	-5484	15488	-62	-191	199	-10472	3528	12688	117	14	-161	-15988	-2540	-200	-21	-49	12	-1540	-720	16980	245	-31	9	125	114	5
-9204	-8368	9832	-99	155	-168	-16564	1540	-2196	128	1	114	-2956	-5456	15564	-48	-141	196	-10368	3596	12676	77	-30	-185	-16008	-2468	-328	26	-45	-1	-1592	-656	16984	188	-43	-13	126	114	5
-9268	-8456	9900	-122	150	-155	-16508	1492	-2160	97	-11	160	-2976	-5488	15568	13	-147	187	-10456	3428	12784	141	-40	-141	-15996	-2448	-140	35	-43	-89	-1548	-624	17000	140	-16	33	126	114	5
-9232	-8448	9824	-128	160	-172	-16544	1444	-1992	65	2	149	-2976	-5456	15488	16	-151	176	-10416	3504	12760	114	-43	-140	-16004	-2532	-204	4	-18	-58	-1548	-672	16948	90	11	59	126	114	5
-9260	-8460	9820	-98	128	-144	-16560	1440	-2040	48	1	126	-2976	-5504	15448	23	-140	187	-10488	3468	12776	134	-5	-171	-16016	-2576	-160	-15	-45	-70	-1516	-696	17012	144	-31	108	126	114	5
-9284	-8496	9904	-96	139	-165	-16504	1440	-2064	87	-16	135	-2908	-5416	15500	-9	-156	175	-10488	3456	12696	69	-30	-189	-15968	-2536	-272	-38	-47	-50	-1612	-784	17016	159	17	112	126	114	5
-9292	-8436	9884	-110	131	-190	-16560	1480	-2176	108	-47	156	-2980	-5412	15460	47	-140	173	-10416	3480	12712	64	-8	-123	-15940	-2604	-296	-26	-38	-46	-1552	-736	17048	191	4	76	125	114	5
-9276	-8476	9968	-120	95	-208	-16532	1380	-2152	86	27	141	-2932	-5404	15596	61	-110	181	-10504	3464	12876	111	-32	-123	-15952	-2620	-196	18	-52	-25	-1584	-852	16880	205	-9	72	126	114	5
-9284	-8440	9912	-114	136	-195	-16564	1464	-2060	90	-44	143	-2972	-5432	15484	78	-121	165	-10368	3516	12744	136	27	-151	-16048	-2632	-240	1	-52	-49	-1612	-836	16980	208	-34	53	126	114	5
-9284	-8392	9784	-97	117	-160	-16528	1528	-2180	72	-9	151	-2980	-5432	15360	73	-157	187	-10456	3492	12704	127	-9	-116	-16040	-2552	-276	6	-68	-21	-1560	-732	16936	196	8	24	126	114	5
-9200	-8460	9932	-74	133	-169	-16520	1496	-2104	64	-47	126	-2972	-5364	15496	90	-112	191	-10396	3444	12680	115	-17	-112	-16048	-2592	-240	-14	-64	2	-1464	-740	16908	216	-2	14	125	114	5
-9252	-8480	9976	-79	126	-162	-16540	1512	-2112	43	-33	128	-2960	-5408	15472	84	-137	146	-10440	3516	12700	117	10	-129	-16008	-2584	-276	-35	-73	-10	-1544	-720	16916	213	2	28	125	114	5
-9332	-8444	9928	-104	144	-202	-16544	1488	-2092	63	-43	147	-2908	-5372	15584	99	-121	165	-10412	3476	12720	144	-2	-133	-15992	-2608	-204	-39	-74	-7	-1532	-776	16980	190	33	5	126	114	5
-9260	-8496	9956	-96	100	-177	-16544	1492	-2000	51	-15	151	-2908	-5308	15496	38	-110	191	-10408	3444	12744	114	13	-116	-15972	-2560	-292	-28	-86	-17	-1496	-652	16884	166	3	10	126	114	5
-9260	-8384	9912	-96	122	-159	-16548	1516	-2076	44	-57	119	-2864	-5384	15432	20	-143	156	-10428	3452	12700	135	-72	-136	-16060	-2556	-132	2	-99	-21	-1540	-644	17040	178	28	75	126	114	5
-9300	-8428	9892	-109	146	-162	-16532	1540	-2036	43	-24	154	-2888	-5404	15548	2	-134	193	-10420	3500	12764	144	24	-159	-16100	-2484	-164	-32	-57	-13	-1548	-728	16932	203	-4	35	126	114	5
-9256	-8412	9832	-85	149	-175	-16528	1400	-2084	88	15	120	-2896	-5348	15528	7	-152	192	-10460	3572	12852	124	-13	-176	-15992	-2516	-196	-19	-31	-17	-1584	-692	16964	214	84	61	125	114	5
-9260	-8396	9972	-93	125	-161	-16552	1460	-1968	88	21	130	-2904	-5360	15512	-29	-151	150	-10412	3436	12752	115	-25	-164	-15980	-2556	-60	3	-40	-38	-1544	-676	16888	204	53	25	126	114	5
-9272	-8428	9860	-97	134	-155	-16496	1452	-2080	140	-14	148	-2872	-5420	15444	31	-137	146	-10360	3556	12612	91	-28	-180	-16020	-2580	-172	24	1	-19	-1540	-648	16912	163	14	12	126	114	5
-9248	-8432	9888	-84	117	-182	-16560	1528	-2196	157	33	142	-2880	-5420	15536	45	-139	194	-10416	3508	12600	89	-30	-141	-15972	-2488	-112	11	4	-47	-1532	-752	17008	80	-5	29	126	114	5
-9236	-8360	9828	-120	138	-160	-16564	1440	-2012	175	24	121	-2876	-5344	15548	-3	-123	163	-10452	3452	12688	103	2	-154	-15980	-2492	-316	-30	-7	-26	-1540	-788	17096	58	9	46	126	114	5
-9280	-8440	9820	-160	127	-171	-16472	1488	-2228	156	-9	143	-2976	-5360	15484	-6	-148	167	-10496	3476	12716	43	8	-156	-16064	-2580	-244	-31	25	-33	-1672	-772	16980	157	-6	47	126	114	5
-9164	-8468	9856	-131	133	-195	-16572	1516	-2044	151	-13	132	-3028	-5396	15496	-13	-117	162	-10420	3472	12696	88	-36	-174	-16000	-2588	-200	-10	-30	-11	-1620	-724	16824	195	-8	28	126	114	5
-9276	-8376	9828	-125	147	-155	-16520	1468	-2272	101	-41	139	-3000	-5400	15444	-64	-157	206	-10344	3444	12608	101	-43	-134	-16016	-2556	-340	6	-4	-21	-1676	-804	16944	182	5	69	126	114	5
-9240	-8440	9908	-115	124	-168	-16540	1552	-2156	59	-11	90	-2984	-5480	15520	-4	-137	198	-10456	3488	12764	87	-14	-136	-15992	-2524	-244	24	-54	-51	-1620	-796	16796	196	2	89	126	114	5
-9228	-8448	9956	-119	116	-181	-16484	1496	-2128	79	-63	64	-3008	-5452	15496	45	-111	199	-10388	3444	12768	115	-8	-124	-16004	-2520	-248	9	-48	-40	-1664	-680	16924	199	12	73	126	114	5
-9260	-8500	9828	-115	137	-170	-16572	1476	-2172	98	-30	103	-3008	-5424	15480	73	-134	193	-10404	3432	12684	113	-67	-164	-16044	-2536	-316	-61	-61	-49	-1608	-728	16888	175	10	89	125	114	5
-9260	-8476	9924	-103	136	-180	-16520	1480	-2052	91	-72	117	-2960	-5464	15492	49	-120	183	-10428	3468	12676	94	-54	-116	-16016	-2600	-240	-69	-65	-41	-1576	-752	16944	148	-18	73	126	114	5
-9232	-8424	9860	-128	141	-166	-16560	1460	-2196	75	-83	115	-3000	-5404	15384	52	-79	163	-10376	3480	12772	116	-33	-155	-16000	-2556	-260	-35	-55	-39	-1512	-756	16892	153	12	96	126	114	5
-9244	-8440	9872	-106	122	-213	-16536	1460	-2184	61	-71	137	-2960	-5384	15468	33	-91	184	-10408	3528	12640	138	-39	-156	-15960	-2556	-200	-58	-68	-46	-1552	-752	17044	139	-25	74	126	114	5
-9268	-8392	9920	-94	158	-199	-16512	1464	-2160	55	-38	105	-2952	-5408	15488	23	-157	191	-10456	3488	12684	121	-27	-149	-16036	-2572	-164	-60	-63	-50	-1612	-724	16940	144	-2	90	126	114	5
-9212	-8432	9872	-89	130	-202	-16560	1400	-2048	59	-39	129	-2876	-5440	15516	43	-169	163	-10480	3396	12736	124	-20	-155	-16016	-2596	-204	-30	-60	-76	-1552	-732	16948	134	3	65	125	114	5
-9332	-8416	9880	-93	157	-193	-16532	1460	-2064	33	-8	102	-2900	-5360	15588	33	-167	161	-10488	3444	12768	149	-2	-126	-16052	-2620	-268	38	-36	-12	-1520	-744	16800	172	-56	42	126	114	5
-9244	-8504	9848	-60	123	-161	-16496	1484	-2184	58	-27	125	-2948	-5476	15392	29	-172	195	-10412	3488	12816	90	-39	-157	-15988	-2496	-204	20	-50	-12	-1560	-700	16884	196	-27	60	126	114	5
-9228	-8488	9908	-93	134	-180	-16544	1476	-2184	37	-64	141	-2976	-5420	15492	9	-142	167	-10424	3464	12724	125	-22	-121	-15932	-2580	-340	-6	-19	-36	-1568	-732	16984	205	34	58	125	114	5
-9232	-8448	9872	-105	143	-207	-16532	1512	-2128	71	-40	145	-2856	-5436	15432	52	-140	172	-10420	3460	12692	89	22	-119	-16004	-2556	-124	-28	-21	-69	-1512	-660	16948	186	6	61	125	114	5
-9288	-8412	9908	-100	140	-197	-16524	1480	-1956	99	-10	162	-2964	-5412	15464	38	-142	166	-10420	3496	12724	116	40	-198	-16012	-2580	-180	-47	-47	-46	-1572	-700	16964	140	14	52	126	114	5
-9300	-8492	9904	-119	141	-150	-16540	1488	-2092	66	-36	146	-2968	-5436	15452	37	-133	151	-10388	3476	12728	101	-5	-146	-15952	-2520	-220	-12	-85	-16	-1596	-744	16896	125	-39	77	126	114	5
-9216	-8508	9916	-112	102	-190	-16540	1544	-2092	68	-21	136	-2932	-5412	15592	24	-164	159	-10488	3456	12728	104	-63	-149	-15972	-2544	-248	-21	-44	-32	-1560	-692	16916	136	-3	73	126	114	5
-9256	-8432	9924	-89	122	-148	-16516	1476	-1992	62	-22	123	-2936	-5420	15544	-1	-161	196	-10472	3484	12824	112	-31	-150	-16080	-2564	-244	-24	-41	-14	-1532	-752	16900	214	28	43	126	114	5
-9240	-8480	9872	-90	141	-193	-16568	1432	-2032	110	-39	168	-2964	-5408	15420	-8	-137	192	-10420	3388	12720	90	8	-167	-16060	-2584	-120	25	-20	-33	-1612	-748	16876	200	-21	51	125	114	5
-9308	-8436	9916	-105	111	-165	-16464	1480	-2084	61	-4	144	-2988	-5420	15448	14	-136	193	-10428	3436	12676	99	-17	-141	-15936	-2520	-288	11	-24	-18	-1508	-760	16888	199	-39	71	126	114	5
-9228	-8432	9916	-99	137	-169	-16544	1512	-2100	89	-40	136	-2988	-5440	15436	33	-157	144	-10408	3440	12768	98	-60	-157	-16064	-2600	-168	-15	-42	-57	-1552	-824	16980	203	-13	64	126	114	5
-9312	-8424	9812	-85	145	-190	-16548	1456	-2064	37	-34	133	-2912	-5416	15572	41	-133	159	-10412	3456	12724	107	-45	-140	-16052	-2548	-328	-22	-16	-21	-1532	-764	16968	144	-11	52	126	114	5
-9236	-8404	9868	-79	142	-175	-16564	1508	-2132	54	-15	147	-2976	-5520	15508	64	-141	177	-10412	3512	12816	125	-18	-143	-16020	-2544	-216	-27	12	-9	-1604	-708	16952	175	-29	54	126	114	5
-9252	-8440	9912	-88	154	-197	-16536	1452	-2104	46	-36	126	-2912	-5368	15500	39	-150	195	-10448	3496	12728	114	-9	-127	-15972	-2584	-360	-51	-9	-74	-1672	-688	16896	163	-8	81	125	114	5
-9252	-8388	9920	-76	107	-192	-16524	1504	-2292	57	-14	155	-2924	-5428	15580	63	-159	162	-10384	3448	12784	120	3	-126	-16060	-2572	-232	-39	-14	-57	-1608	-748	16984	190	-36	60	125	114	5
-9276	-8404	9940	-69	117	-191	-16456	1504	-2056	85	-28	130	-2960	-5420	15520	27	-127	168	-10412	3496	12740	121	-18	-146	-16024	-2544	-184	-9	-41	-31	-1648	-772	16928	189	32	41	126	114	5
-9188	-8428	9892	-107	116	-211	-16544	1456	-2168	19	-26	122	-2928	-5388	15524	16	-139	183	-10380	3520	12648	131	-71	-144	-16012	-2552	-236	5	-25	-45	-1628	-788	17076	123	-16	79	126	114	5
-9264	-8452	9920	-56	126	-174	-16524	1464	-2220	36	-47	138	-2936	-5408	15468	46	-162	183	-10408	3468	12756	116	-26	-132	-15964	-2496	-256	5	-73	-52	-1644	-784	17000	163	9	44	126	114	5
-9284	-8460	9984	-98	142	-192	-16480	1496	-2200	47	-58	136	-2952	-5424	15464	37	-131	153	-10440	3456	12880	121	41	-116	-16040	-2568	-280	14	-45	-46	-1596	-748	16956	173	-3	57	126	114	5
-9256	-8376	9980	-121	133	-196	-16488	1408	-2128	63	-36	109	-2940	-5416	15516	39	-147	193	-10344	3428	12788	123	-69	-119	-15996	-2592	-308	-6	-76	-66	-1540	-784	16920	225	8	30	126	114	5
-9276	-8472	9936	-95	146	-181	-16544	1464	-1968	41	-33	116	-2924	-5420	15496	21	-144	154	-10444	3476	12732	98	-15	-151	-15956	-2552	-240	-24	-34	-33	-1504	-748	16960	198	-1	75	126	114	5
-9224	-8444	9912	-79	133	-166	-16492	1444	-1956	63	-42	108	-2896	-5424	15408	-7	-142	176	-10416	3464	12756	117	-10	-149	-16028	-2536	-216	-10	-54	-29	-1556	-800	16808	144	-11	65	126	114	5
-9252	-8396	9892	-121	160	-180	-16508	1420	-2068	91	-22	115	-2916	-5400	15492	-9	-157	208	-10412	3504	12696	96	-23	-156	-15996	-2504	-264	-23	-61	-62	-1568	-752	17036	179	-4	51	126	114	5
-9268	-8416	9828	-78	135	-155	-16516	1432	-2052	41	-6	101	-2928	-5388	15476	-52	-134	194	-10452	3464	12736	114	-35	-106	-15960	-2556	-268	-13	-40	-38	-1524	-724	17004	142	7	71	126	114	5
-9196	-8432	9836	-115	119	-176	-16548	1452	-2120	62	-23	121	-2988	-5428	15456	-9	-155	224	-10424	3480	12640	135	-65	-144	-15936	-2516	-236	-34	-34	-51	-1588	-732	16888	169	-13	66	126	114	5
-9248	-8480	9884	-133	93	-199	-16548	1448	-2056	66	-37	112	-2912	-5468	15540	4	-164	209	-10404	3472	12752	126	-27	-132	-16036	-2584	-328	29	-73	-76	-1548	-832	16928	182	-3	77	125	114	5
-9272	-8464	9884	-104	148	-200	-16540	1368	-2064	40	-15	96	-2944	-5512	15492	16	-98	171	-10396	3496	12816	110	-37	-123	-16088	-2668	-132	4	-39	-84	-1548	-832	17004	221	34	50	126	114	5
-9284	-8488	9832	-114	130	-169	-16576	1404	-2124	114	25	138	-2940	-5436	15472	24	-139	144	-10348	3436	12644	117	5	-149	-15992	-2612	-196	14	-57	-7	-1540	-736	16888	210	26	39	125	114	5
-9280	-8428	9940	-89	105	-187	-16544	1444	-2100	150	-27	146	-2980	-5468	15528	22	-150	183	-10404	3472	12840	86	-1	-153	-15980	-2548	-240	-5	-37	-66	-1516	-732	16928	219	33	51	126	114	5
-9260	-8412	9808	-140	125	-171	-16548	1444	-1960	142	11	126	-2884	-5472	15488	115	-164	183	-10460	3460	12692	79	44	-121	-15956	-2572	-276	-13	-34	22	-1576	-732	16936	151	12	37	126	114	5
-9220	-8440	9944	-137	131	-151	-16524	1460	-2040	188	11	144	-2880	-5392	15524	70	-129	158	-10456	3484	12828	93	-8	-118	-15972	-2560	-232	-22	-32	18	-1632	-804	16984	156	25	2	126	114	5
-9300	-8412	9904	-93	131	-154	-16520	1520	-2036	161	24	183	-2972	-5436	15356	72	-129	159	-10400	3468	12664	96	29	-123	-16008	-2560	-248	9	-15	8	-1624	-800	16916	208	-4	12	126	114	5
-9272	-8444	9864	-148	134	-168	-16544	1460	-2184	143	-49	151	-2968	-5416	15468	7	-112	204	-10412	3484	12812	98	18	-171	-15980	-2640	-348	20	-38	26	-1604	-816	16876	266	-29	-9	126	114	5
-9300	-8448	9932	-95	130	-155	-16536	1460	-2092	95	-17	145	-2988	-5460	15380	8	-114	194	-10396	3516	12680	143	-72	-103	-15920	-2564	-224	21	-27	-12	-1604	-812	17000	272	9	22	126	114	5
-9304	-8432	9948	-82	133	-135	-16496	1488	-2128	85	-4	165	-3020	-5468	15440	81	-125	215	-10424	3456	12652	95	-22	-120	-16004	-2492	-264	36	-23	-31	-1632	-784	17016	266	3	68	125	114	5
-9228	-8464	9844	-102	129	-178	-16552	1424	-2216	81	-76	147	-2984	-5428	15476	90	-141	198	-10484	3436	12696	103	-34	-140	-15992	-2536	-348	14	-87	-41	-1548	-680	16924	254	-30	73	125	114	5
-9312	-8444	9924	-122	132	-178	-16620	1460	-2080	65	-16	159	-2992	-5404	15492	93	-106	185	-10432	3448	12760	138	-40	-147	-15976	-2516	-208	-39	-94	17	-1644	-688	16908	173	-26	66	126	114	5
-9244	-8396	9868	-77	126	-178	-16484	1456	-2092	68	-75	163	-3004	-5432	15372	111	-113	166	-10404	3432	12760	96	-19	-132	-16060	-2544	-264	-12	-61	-43	-1660	-700	16892	165	-12	73	126	114	5
-9272	-8444	9924	-75	106	-197	-16484	1436	-2152	97	-92	162	-2988	-5412	15464	74	-162	209	-10416	3476	12836	181	-17	-115	-15984	-2572	-276	-23	-103	-20	-1616	-764	16952	184	-11	80	126	114	5
-9236	-8472	9948	-93	153	-169	-16500	1548	-2116	69	-106	145	-2924	-5440	15548	73	-155	185	-10448	3500	12672	117	24	-133	-16004	-2600	-312	-2	-102	-35	-1592	-740	17020	172	-40	97	126	114	5
-9244	-8396	9876	-108	128	-195	-16544	1476	-2132	31	-56	149	-2884	-5440	15492	78	-117	190	-10412	3384	12672	139	-23	-146	-15928	-2584	-308	3	-102	-16	-1564	-728	16908	163	0	58	126	114	5
-9276	-8452	9876	-81	151	-168	-16556	1400	-2128	52	-101	147	-2852	-5460	15460	86	-155	159	-10436	3436	12720	143	-19	-143	-16012	-2568	-272	67	-96	-43	-1600	-756	17028	184	-16	45	126	114	5
-9240	-8504	9812	-98	129	-157	-16572	1452	-2084	37	-71	176	-2940	-5404	15420	80	-87	141	-10416	3424	12760	127	-46	-129	-16068	-2604	-180	33	-93	-3	-1568	-748	16940	207	-11	29	126	114	5
-9212	-8516	9884	-74	158	-187	-16456	1496	-2188	88	-48	167	-2940	-5416	15432	67	-130	193	-10396	3476	12752	111	-16	-144	-16024	-2496	-260	36	-114	-24	-1528	-716	17056	253	-30	43	125	114	5
-9240	-8392	9900	-46	152	-146	-16504	1392	-2072	73	-52	139	-2872	-5416	15460	31	-133	146	-10496	3472	12800	113	15	-132	-15980	-2564	-284	24	-57	7	-1536	-712	17004	207	-13	23	126	114	5
-9268	-8456	9876	-62	137	-158	-16484	1396	-2144	70	-47	138	-2912	-5432	15464	3	-176	153	-10424	3456	12712	119	31	-123	-15996	-2560	-124	-11	-88	-48	-1576	-668	16972	142	0	38	126	114	5
-9308	-8416	9868	-78	142	-177	-16608	1512	-1984	37	-21	163	-2916	-5420	15432	50	-165	195	-10456	3472	12740	114	7	-125	-15956	-2552	-168	10	-58	-28	-1552	-704	16928	133	2	43	126	114	5
-9292	-8456	9944	-94	143	-203	-16564	1468	-2056	10	1	122	-2912	-5408	15552	50	-156	219	-10432	3520	12792	108	-17	-141	-15924	-2576	-156	8	-57	-27	-1560	-780	17060	147	-34	61	126	114	5
-9288	-8424	9924	-90	158	-149	-16596	1460	-2132	80	-8	148	-2928	-5460	15424	17	-138	162	-10456	3504	12804	90	-2	-158	-15960	-2544	-244	42	-15	13	-1508	-776	17032	211	-1	54	126	114	5
-9240	-8468	9840	-95	153	-195	-16560	1396	-2184	86	-11	172	-2948	-5464	15440	36	-147	188	-10416	3512	12660	98	-17	-152	-15992	-2592	-272	29	-43	3	-1564	-796	16940	256	8	23	126	114	5
-9212	-8480	9908	-99	149	-147	-16560	1460	-2160	79	-34	143	-2940	-5368	15528	19	-148	195	-10468	3488	12740	116	-22	-167	-16000	-2540	-164	42	-49	-1	-1564	-736	16916	247	-40	64	126	114	5
-9272	-8432	9956	-82	105	-134	-16488	1468	-2008	102	-19	171	-2928	-5428	15460	36	-146	137	-10408	3468	12760	102	-20	-160	-15992	-2544	-248	-35	-31	-3	-1636	-664	16972	209	-18	69	126	114	5
-9348	-8416	9984	-139	153	-177	-16540	1428	-2100	46	-20	161	-2992	-5464	15448	60	-141	181	-10404	3488	12720	138	14	-139	-16024	-2552	-252	-27	-13	-10	-1552	-728	17024	174	-34	56	126	114	5
-9312	-8412	9820	-95	118	-161	-16520	1468	-2148	55	-31	165	-3012	-5420	15448	89	-150	170	-10432	3520	12652	113	-28	-167	-16028	-2588	-280	6	-57	10	-1628	-708	16968	137	-1	51	126	114	5
-9204	-8496	9816	-109	130	-137	-16548	1476	-2124	58	-13	154	-2972	-5420	15452	96	-138	156	-10368	3512	12704	99	-42	-165	-16000	-2516	-200	-25	-58	-7	-1608	-712	16884	208	-1	49	126	114	5
-9312	-8476	9828	-89	143	-193	-16540	1492	-2016	22	-14	167	-2944	-5376	15452	79	-131	162	-10432	3568	12652	118	12	-136	-16000	-2524	-280	-15	-56	-24	-1568	-700	16908	216	14	62	126	114	5
-9316	-8440	9916	-107	114	-172	-16536	1500	-2152	33	-26	164	-2940	-5384	15516	49	-125	160	-10448	3484	12648	121	-32	-156	-15988	-2548	-240	-23	-37	-25	-1560	-724	17000	197	-3	47	126	114	5
-9268	-8444	9792	-98	129	-158	-16520	1536	-2104	73	-79	135	-2980	-5376	15416	68	-130	166	-10464	3484	12796	99	32	-157	-15964	-2568	-164	-15	-62	-45	-1616	-704	16864	165	2	63	126	114	5
-9268	-8448	9876	-98	146	-173	-16472	1496	-2116	76	-1	150	-2988	-5388	15532	19	-160	145	-10480	3520	12832	129	-16	-182	-16040	-2588	-192	-6	-57	-10	-1560	-772	17076	128	16	65	126	114	5
-9212	-8424	9828	-106	130	-187	-16496	1492	-2200	78	-9	128	-2912	-5420	15528	43	-177	172	-10404	3452	12760	116	-49	-132	-16008	-2568	-200	-23	-54	1	-1556	-716	17016	168	-42	65	126	114	5
-9288	-8420	9976	-79	138	-193	-16520	1456	-2032	47	-30	108	-2888	-5336	15484	41	-141	213	-10380	3524	12704	97	12	-143	-16000	-2564	-284	-30	-88	-27	-1476	-764	16868	158	5	42	126	114	5
-9192	-8464	10012	-99	149	-178	-16564	1524	-2040	85	-21	109	-2908	-5448	15344	-15	-124	198	-10408	3460	12724	105	-7	-144	-15992	-2612	-184	1	-23	-20	-1452	-760	16992	187	-4	47	126	114	5
-9240	-8408	9848	-107	142	-162	-16484	1512	-2112	75	-37	86	-2900	-5444	15508	-10	-165	209	-10400	3416	12752	100	-16	-178	-16064	-2632	-232	-14	-42	-15	-1500	-808	16880	192	-8	31	126	114	5
-9232	-8484	9852	-127	114	-189	-16552	1432	-1960	93	-27	114	-2984	-5404	15392	1	-179	199	-10472	3508	12792	114	-13	-123	-15972	-2556	-120	6	-15	-24	-1552	-716	16872	173	-2	31	126	114	5
-9264	-8452	9868	-85	129	-179	-16508	1476	-2124	121	-12	145	-2964	-5468	15464	-26	-145	190	-10412	3500	12840	111	-13	-168	-16012	-2548	-264	-33	-32	-46	-1648	-732	17012	207	-20	71	126	114	5
-9264	-8444	9924	-121	154	-161	-16548	1504	-2128	69	-34	136	-3056	-5440	15464	-3	-149	194	-10404	3440	12692	109	-20	-176	-16000	-2528	-312	-25	-32	-28	-1636	-724	16952	197	-3	92	126	114	5
-9340	-8468	10016	-81	127	-184	-16496	1444	-2092	12	-55	124	-2952	-5536	15632	54	-123	188	-10456	3468	12704	118	-19	-120	-16060	-2508	-360	5	-74	-46	-1568	-760	16892	183	25	91	126	114	5
-9268	-8512	10036	-96	115	-166	-16544	1416	-2052	13	-40	160	-2908	-5516	15504	87	-126	168	-10400	3448	12888	134	-36	-144	-15984	-2636	-312	-17	-81	-48	-1516	-732	16928	166	31	109	126	114	5
-9272	-8456	9860	-99	125	-176	-16516	1420	-2052	72	-53	140	-2924	-5512	15552	112	-86	148	-10420	3520	12812	125	10	-109	-16040	-2572	-252	-22	-57	-56	-1504	-800	17036	160	33	42	126	114	5
-9280	-8480	9884	-92	130	-147	-16500	1452	-1996	136	-46	179	-2856	-5360	15548	62	-111	127	-10440	3444	12656	81	-2	-143	-15948	-2612	-64	-17	-53	-48	-1428	-700	16904	211	9	-27	126	115	5
-9260	-8420	9824	-75	98	-183	-16552	1508	-2000	125	-39	145	-2840	-5360	15580	76	-96	94	-10432	3500	12664	89	22	-127	-16032	-2636	-256	-21	-18	-58	-1448	-728	16892	159	-8	27	126	114	5
-9300	-8484	9936	-123	118	-176	-16528	1484	-2116	137	15	138	-2816	-5408	15560	62	-150	175	-10392	3488	12776	74	-12	-155	-16012	-2560	-304	-21	7	-4	-1512	-768	17012	105	-11	-8	126	114	5
-9220	-8516	9868	-125	167	-118	-16608	1464	-2056	108	28	126	-2928	-5348	15564	5	-173	195	-10420	3452	12676	80	13	-155	-15976	-2588	-176	-13	-33	11	-1476	-804	16908	109	-13	27	126	114	5
-9272	-8432	9952	-124	142	-166	-16560	1456	-2032	112	20	141	-2896	-5372	15568	-2	-148	230	-10444	3472	12792	77	3	-165	-15972	-2596	-140	-2	24	-10	-1496	-768	16956	137	7	70	126	114	5
-9236	-8476	9936	-163	153	-150	-16504	1444	-2096	135	27	94	-3004	-5488	15496	-39	-142	232	-10380	3480	12648	73	-1	-158	-15972	-2564	-240	14	6	-16	-1560	-780	16952	196	8	86	126	115	5
-9252	-8452	9764	-104	138	-167	-16536	1424	-2096	134	9	132	-2936	-5444	15440	-44	-136	221	-10448	3472	12788	108	-24	-183	-15964	-2576	-356	33	36	-29	-1644	-760	17016	292	16	48	126	115	5
-9264	-8468	9800	-140	125	-184	-16468	1424	-2124	127	10	129	-2988	-5488	15484	22	-139	205	-10424	3496	12656	142	-13	-144	-16004	-2540	-216	10	-25	-28	-1680	-620	16820	320	30	54	126	115	5
-9284	-8472	9768	-90	143	-169	-16560	1452	-2224	135	7	112	-3064	-5516	15420	55	-121	180	-10452	3480	12692	97	-6	-135	-16060	-2572	-320	-44	-31	-48	-1644	-628	16912	176	13	50	126	115	5
-9264	-8488	9884	-62	164	-185	-16560	1412	-2140	75	-59	135	-3040	-5452	15492	103	-126	182	-10432	3420	12880	135	-18	-156	-16000	-2380	-416	-39	-23	-33	-1632	-688	16900	140	22	70	127	115	5
-9288	-8456	9832	-81	129	-179	-16508	1396	-2032	49	-44	142	-2992	-5412	15468	81	-127	170	-10428	3428	12804	118	-66	-125	-15948	-2520	-412	-38	-63	-54	-1632	-708	16788	143	13	69	127	115	5
-9296	-8476	9944	-67	131	-168	-16552	1476	-2124	35	-81	178	-2968	-5424	15404	99	-88	149	-10424	3524	12768	108	-38	-152	-15940	-2560	-264	-38	-59	-12	-1620	-740	16964	142	33	85	127	115	5
-9284	-8460	9940	-113	137	-196	-16532	1476	-2196	27	-90	152	-2924	-5452	15520	110	-99	166	-10416	3428	12724	127	-4	-141	-16000	-2612	-220	-9	-123	-30	-1548	-760	16892	212	21	87	127	115	5
-9268	-8496	9856	-51	148	-173	-16536	1424	-2048	21	-77	159	-2852	-5412	15564	86	-93	143	-10468	3484	12840	111	-38	-141	-15980	-2608	-232	20	-96	-42	-1496	-720	16956	207	-15	58	127	115	5
-9236	-8452	9912	-85	136	-178	-16508	1404	-1984	55	-70	153	-2872	-5380	15540	92	-105	164	-10404	3468	12752	152	-1	-142	-15932	-2572	-180	3	-41	-75	-1524	-740	17120	207	13	38	127	115	5
-9284	-8440	9792	-65	122	-197	-16552	1472	-2124	95	-40	168	-2984	-5340	15548	58	-122	182	-10404	3488	12708	123	-19	-140	-16012	-2496	-248	6	-78	-32	-1524	-752	17008	209	20	38	127	115	5
-9292	-8456	9860	-58	153	-179	-16516	1456	-2112	91	-40	138	-2908	-5356	15368	58	-158	156	-10340	3460	12784	129	-27	-156	-15984	-2556	-160	-1	-65	-25	-1524	-732	16912	179	-17	25	127	115	5
-9296	-8372	9848	-77	130	-183	-16472	1520	-2008	86	-68	141	-2904	-5344	15588	12	-130	163	-10444	3508	12760	104	-18	-142	-15988	-2604	-260	-30	-49	-42	-1500	-688	16956	166	9	18	128	116	5
-9276	-8460	9836	-71	135	-173	-16520	1520	-2016	71	10	116	-2904	-5400	15432	-33	-164	170	-10476	3484	12744	124	22	-174	-15920	-2496	-172	-3	-69	-9	-1544	-736	16964	118	-27	51	128	115	5
-9272	-8484	9904	-126	154	-195	-16532	1464	-2036	95	-9	99	-2916	-5444	15500	-43	-171	180	-10476	3476	12668	118	-21	-157	-15968	-2536	-228	-17	-14	-36	-1604	-696	16888	142	-27	36	128	116	5
-9316	-8420	9876	-121	149	-194	-16480	1520	-2048	82	-10	136	-2960	-5416	15564	-34	-169	179	-10416	3492	12716	117	-27	-158	-15952	-2556	-216	11	-31	1	-1536	-768	16944	164	-30	10	128	115	5
-9240	-8448	9896	-112	137	-167	-16488	1452	-2056	80	12	113	-2980	-5468	15420	-3	-156	209	-10412	3472	12740	122	-60	-109	-15968	-2572	-248	14	-1	-56	-1628	-700	16980	205	-34	59	128	116	5
-9212	-8496	9792	-90	125	-185	-16544	1432	-2144	83	-18	125	-2976	-5432	15460	7	-150	165	-10404	3500	12760	98	-11	-130	-15992	-2560	-156	4	-26	-66	-1576	-668	16872	182	-26	59	128	116	5
-9292	-8436	9836	-111	124	-192	-16536	1416	-2152	63	-30	107	-3012	-5460	15468	-2	-151	198	-10420	3476	12720	76	-25	-150	-16004	-2536	-312	20	-35	-46	-1568	-696	16960	162	-31	64	128	116	5
-9300	-8452	9888	-87	114	-153	-16520	1432	-2152	68	-41	134	-2932	-5480	15380	43	-152	185	-10428	3492	12668	112	-28	-133	-16020	-2552	-268	-17	-57	-83	-1524	-764	16928	138	14	59	129	116	5
-9212	-8444	9864	-120	140	-181	-16536	1536	-2112	54	-13	122	-2944	-5420	15456	38	-130	158	-10444	3520	12796	88	-52	-148	-15992	-2516	-256	-36	-33	-75	-1592	-752	16940	85	-8	65	129	116	5
-9252	-8400	9892	-112	164	-175	-16528	1476	-2156	47	-62	141	-2896	-5340	15504	27	-125	156	-10456	3408	12788	105	-20	-142	-15992	-2588	-216	-14	-46	-76	-1580	-836	17016	103	14	88	129	116	5
-9308	-8476	9984	-83	142	-183	-16568	1488	-2068	62	-49	173	-2892	-5436	15552	47	-127	165	-10396	3468	12608	81	3	-170	-15936	-2636	-288	-20	-44	-94	-1600	-824	16908	110	14	51	129	116	5
-9232	-8464	9948	-71	122	-187	-16496	1412	-2136	32	-18	125	-2972	-5460	15432	-37	-127	192	-10484	3448	12684	118	-35	-126	-16000	-2540	-240	10	-45	-29	-1588	-804	17004	133	-11	68	129	116	5
-9268	-8496	9888	-88	203	-178	-16488	1480	-2048	30	-70	99	-2968	-5456	15396	-8	-152	135	-10424	3456	12720	125	-56	-161	-16024	-2636	-216	7	-28	-51	-1576	-764	17056	202	-7	49	129	116	5
-9268	-8384	9948	-116	134	-161	-16540	1420	-2076	34	-45	129	-2860	-5432	15416	-4	-140	191	-10356	3468	12760	112	-16	-166	-16024	-2612	-392	14	-59	-28	-1548	-756	16924	200	-11	34	129	117	5
-9156	-8464	9868	-109	168	-211	-16464	1432	-2056	100	-33	115	-2900	-5476	15480	8	-165	200	-10404	3440	12848	125	-48	-142	-15988	-2616	-388	-2	-51	-9	-1612	-804	16956	191	-15	43	129	117	5
-9236	-8460	9904	-130	134	-195	-16508	1508	-2040	97	-37	118	-2920	-5460	15500	22	-164	193	-10428	3416	12764	98	-6	-127	-16040	-2564	-232	15	-52	-18	-1552	-720	16872	202	-45	31	130	117	5
-9224	-8524	9880	-68	124	-194	-16548	1508	-2064	74	-60	142	-2956	-5440	15416	7	-147	179	-10440	3464	12668	131	2	-165	-16028	-2500	-312	33	-69	-25	-1636	-736	16884	190	-40	42	130	117	5
-9280	-8456	9844	-124	155	-186	-16492	1388	-2048	72	-16	152	-2964	-5436	15436	30	-165	195	-10492	3456	12740	105	-21	-143	-16016	-2560	-216	-1	-58	-23	-1620	-756	16892	179	-29	70	129	116	5
-9272	-8452	9828	-87	124	-199	-16528	1360	-2184	88	-45	142	-2872	-5484	15468	31	-125	194	-10384	3428	12828	109	-8	-148	-15968	-2544	-76	-26	-83	-62	-1608	-724	16900	212	5	28	129	117	5
-9260	-8460	9972	-73	131	-178	-16460	1408	-2100	-18	-51	131	-2944	-5448	15532	69	-137	177	-10492	3456	12748	117	-26	-146	-15984	-2552	-316	9	-88	-16	-1668	-732	16980	167	-17	79	130	116	5
-9288	-8472	9924	-67	117	-164	-16452	1412	-2152	1	-72	180	-2976	-5432	15500	85	-130	174	-10440	3508	12684	130	-28	-120	-16056	-2528	-228	9	-73	-53	-1580	-728	17084	165	-32	89	130	117	5
-9300	-8508	9936	-126	125	-206	-16548	1436	-2120	54	-42	149	-2868	-5492	15544	109	-103	171	-10464	3452	12696	119	-60	-120	-15988	-2624	-176	-4	-85	-48	-1564	-796	16988	208	25	53	130	117	5
-9264	-8484	9876	-83	127	-175	-16564	1392	-2028	83	-51	170	-2860	-5436	15424	106	-83	103	-10436	3524	12628	129	-12	-148	-15944	-2584	-152	-3	-79	-53	-1556	-772	16988	222	7	25	130	117	5
-9212	-8448	9912	-115	133	-218	-16564	1432	-2052	125	-95	211	-2932	-5388	15436	57	-108	115	-10400	3508	12916	110	-21	-117	-15968	-2564	-248	0	-72	-27	-1504	-700	17032	186	-2	-13	129	117	5
-9196	-8448	9928	-96	89	-186	-16520	1488	-2112	142	-9	170	-2852	-5380	15548	119	-103	141	-10360	3472	12704	99	27	-151	-16032	-2568	-264	43	-41	-15	-1456	-696	16956	156	-48	15	130	117	5
-9316	-8492	9812	-102	127	-140	-16548	1480	-2056	115	58	182	-2876	-5360	15492	60	-138	144	-10348	3444	12672	90	14	-150	-16000	-2600	-128	45	-8	0	-1440	-760	16988	119	-30	14	130	117	5
-9260	-8468	9912	-159	135	-167	-16512	1500	-2040	116	38	132	-2888	-5324	15548	21	-158	187	-10428	3444	12668	72	16	-193	-16032	-2604	-208	-24	12	15	-1488	-808	16916	132	1	3	130	117	5
-9260	-8456	9908	-99	147	-148	-16584	1512	-2048	122	24	124	-2924	-5396	15416	3	-106	216	-10332	3484	12768	69	23	-155	-15976	-2652	-224	-26	-16	-4	-1552	-744	16932	171	26	60	130	117	5
-9252	-8368	9896	-144	143	-161	-16544	1476	-2100	113	4	123	-3032	-5444	15356	-86	-158	240	-10396	3412	12632	79	-7	-141	-15976	-2456	-272	1	-13	20	-1540	-752	16968	222	-8	25	130	117	5
-9260	-8512	9876	-110	124	-143	-16552	1472	-2032	116	35	131	-3044	-5468	15520	-31	-199	229	-10432	3496	12832	76	31	-152	-16040	-2564	-284	27	-62	-1	-1716	-744	16972	243	-3	59	130	117	5
-9340	-8484	9860	-96	157	-156	-16524	1472	-2248	84	-28	93	-3080	-5444	15476	14	-161	201	-10380	3456	12780	107	8	-147	-16024	-2488	-316	-13	-14	7	-1680	-624	16796	266	5	62	131	117	5
-9288	-8412	9872	-57	117	-172	-16552	1400	-2168	98	-60	168	-3044	-5440	15500	93	-152	166	-10452	3488	12724	124	-26	-139	-16040	-2496	-256	-32	-57	-49	-1628	-632	16888	189	21	20	131	117	5
-9224	-8436	9932	-99	151	-204	-16500	1396	-2192	46	-61	131	-2948	-5472	15508	112	-121	160	-10436	3408	12736	105	-42	-169	-16004	-2468	-272	-54	-78	-44	-1636	-696	16876	147	-7	57	131	117	5
