#Activity	standing 
#ActivityID	8 
#Date 10-06-18-17
acc_rf_x	acc_rf_y	acc_rf_z	gyro_rf_x	gyro_rf_y	gyro_rf_z	acc_rs_x	acc_rs_y	acc_rs_z	gyro_rs_x	gyro_rs_y	gyro_rs_z	acc_rt_x	acc_rt_y	acc_rt_z	gyro_rt_x	gyro_rt_y	gyro_rt_z	acc_lf_x	acc_lf_y	acc_lf_z	gyro_lf_x	gyro_lf_y	gyro_lf_z	acc_ls_x	acc_ls_y	acc_ls_z	gyro_ls_x	gyro_ls_y	gyro_ls_z	acc_lt_x	acc_lt_y	acc_lt_z	gyro_lt_x	gyro_lt_y	gyro_lt_z	EMG_r	EMG_l	act
-10160	-3944	11628	-129	117	-195	-15388	5468	-572	34	46	-36	-16320	-68	-1388	254	-76	20	-11224	1848	12280	174	11	-111	-16040	-3696	-1332	185	-94	234	-15852	-1800	-2824	6	-34	364	126	125	8
-10164	-3996	11584	-90	141	-163	-15492	5436	-752	112	48	16	-16256	-48	-1444	180	-41	20	-11160	1936	12292	115	-58	-86	-16100	-3624	-1100	-15	-9	205	-16456	-1992	-2428	-205	-186	165	126	137	8
-10172	-3980	11636	-99	167	-146	-15412	5568	-784	122	30	36	-16192	-60	-1704	83	63	-10	-11076	1976	12320	109	-67	-150	-16172	-3744	-1096	-171	10	211	-15856	-1472	-2596	-345	-46	249	126	129	8
-10148	-3984	11672	-79	169	-160	-15436	5552	-860	-148	5	41	-16224	40	-1732	10	43	5	-11088	1900	12276	97	-15	-221	-16072	-3728	-1520	-22	150	213	-16080	-1512	-2984	-21	-221	160	126	128	8
-10156	-3900	11656	-107	156	-194	-15388	5500	-720	-176	-27	34	-16228	64	-1612	13	-55	26	-11212	1844	12304	97	-74	-194	-16104	-3788	-1708	-8	64	221	-15656	-1244	-3100	-437	-92	145	126	130	8
-10096	-4052	11720	-126	132	-148	-15524	5508	-532	-59	1	20	-16264	-72	-1376	16	-142	53	-11148	1848	12364	134	2	-166	-16232	-3684	-1760	85	48	257	-15472	-1312	-3444	162	-15	271	126	124	8
-10164	-3980	11552	-121	124	-147	-15416	5600	-772	64	-38	-93	-16328	4	-1524	-15	-43	41	-11164	1880	12268	142	-20	-143	-16160	-3664	-1548	17	-34	176	-16520	-1804	-3076	-455	-98	100	125	130	8
-10168	-4012	11676	-140	142	-183	-15396	5592	-784	113	-63	-52	-16188	-68	-1864	97	47	51	-11152	1792	12300	143	-96	-148	-16044	-3792	-1244	12	87	183	-15976	-1816	-2660	-347	-67	160	125	129	8
-10208	-3952	11692	-127	164	-196	-15388	5568	-916	-37	-28	-27	-16204	4	-1756	282	63	-11	-11040	2092	12352	122	-73	-177	-16156	-3628	-1340	-53	50	190	-15856	-1360	-3036	371	-192	172	125	128	8
-10092	-3972	11636	-129	137	-179	-15416	5532	-776	-86	-48	18	-16204	-12	-1620	268	37	-15	-11160	1792	12308	92	14	-175	-16220	-3728	-1632	-118	-34	184	-16264	-1620	-3112	-397	-338	19	125	130	8
-10128	-3936	11628	-123	108	-183	-15360	5556	-608	-95	-19	-43	-16316	48	-1336	164	-47	33	-11264	1836	12308	116	-26	-154	-16100	-3716	-1716	146	-4	194	-15692	-1416	-3280	-209	-88	256	126	127	8
-10092	-4020	11652	-106	141	-182	-15416	5500	-604	-48	43	-20	-16288	76	-1364	140	-146	39	-11232	1896	12308	82	-42	-134	-16092	-3548	-1604	122	5	203	-15776	-1480	-3304	-54	-139	232	125	130	8
-10100	-3996	11688	-53	160	-148	-15408	5528	-628	86	19	-7	-16280	-100	-1468	139	-125	27	-11152	1992	12204	125	-108	-157	-16160	-3688	-1448	-18	14	153	-15920	-1504	-2832	298	-324	182	125	129	8
-10120	-3968	11668	-86	169	-147	-15488	5624	-780	226	-33	-20	-16264	-132	-1732	201	30	10	-11172	1900	12344	120	-27	-197	-16204	-3800	-1512	7	19	164	-15740	-1600	-2840	32	35	260	125	129	8
-10136	-3936	11724	-66	175	-138	-15420	5664	-1000	-10	-69	-21	-16164	-76	-1780	215	107	26	-11168	1864	12344	156	-29	-172	-16192	-3696	-1612	104	16	206	-16092	-1500	-3344	85	36	125	125	130	8
-10208	-3972	11556	-80	183	-180	-15380	5516	-804	-173	-52	25	-16152	-68	-1748	112	106	9	-11160	1700	12400	122	7	-171	-16148	-3764	-1756	148	-7	194	-15872	-1408	-3300	20	-251	146	125	131	8
-10148	-3968	11616	-93	134	-173	-15340	5560	-628	-172	-69	-18	-16240	76	-1596	194	-51	50	-11212	1904	12236	116	-77	-117	-16044	-3700	-1680	76	-70	211	-15600	-1428	-3044	63	-392	275	126	128	8
-10108	-4060	11756	-84	156	-203	-15420	5472	-452	34	-27	-78	-16368	-12	-1436	208	-213	82	-11148	1860	12276	133	-84	-131	-16180	-3556	-1360	7	-68	159	-15836	-1492	-2548	459	-247	311	125	125	8
-10096	-3948	11656	-99	120	-157	-15368	5488	-700	222	-101	-52	-16252	-68	-1404	349	-171	26	-11108	2104	12504	125	-75	-187	-16156	-3852	-1428	-73	-108	203	-15944	-1372	-2824	-231	131	224	125	127	8
-10180	-3928	11652	-76	137	-165	-15424	5620	-924	135	-120	-49	-16180	20	-1736	323	27	0	-11156	1872	12324	102	5	-158	-16180	-3724	-1476	141	-37	155	-15848	-1460	-3092	249	27	203	125	126	8
-10160	-4000	11724	-133	136	-155	-15464	5640	-828	-227	-106	-22	-16176	72	-1708	146	129	13	-11236	1904	12264	157	12	-175	-16144	-3608	-1744	146	-81	211	-15728	-1272	-3212	241	-154	177	125	125	8
-10184	-3876	11628	-137	143	-187	-15328	5592	-716	-189	-80	-29	-16204	28	-1268	83	14	55	-11292	1876	12288	156	-90	-113	-16056	-3656	-1544	67	-55	147	-15844	-1436	-2860	-89	-210	129	126	128	8
-10044	-3980	11572	-101	111	-197	-15344	5532	-440	-44	-46	-22	-16316	40	-1220	119	-97	83	-11192	1972	12328	119	-27	-123	-16120	-3648	-1356	29	-67	179	-15812	-1644	-2920	246	-186	246	125	125	8
-10088	-3996	11632	-85	154	-185	-15440	5496	-656	197	-28	-50	-16316	4	-1452	208	-108	55	-11112	1904	12388	125	-62	-96	-16180	-3652	-1448	10	-61	205	-16268	-1664	-2952	-89	-195	166	125	130	8
-10172	-3940	11588	-95	167	-188	-15444	5504	-788	178	-20	-38	-16188	-72	-1608	316	-43	-29	-11044	1944	12220	160	-79	-165	-16120	-3812	-1692	161	-40	201	-15852	-1380	-3076	-115	39	172	125	125	8
-10148	-3952	11660	-110	206	-146	-15444	5628	-860	-57	-50	-18	-16232	-36	-1720	315	114	-38	-11208	1924	12216	123	-4	-171	-16184	-3628	-1552	232	2	170	-15948	-1508	-3332	98	-243	-1	125	129	8
-10232	-3912	11676	-119	170	-162	-15408	5640	-836	-106	-62	-67	-16112	-36	-1544	233	92	19	-11184	1944	12420	130	-109	-165	-16044	-3712	-1552	52	-82	184	-15816	-1412	-2956	35	-297	37	125	127	8
-10216	-4004	11588	-142	166	-204	-15380	5500	-704	-27	-66	-50	-16296	-92	-1388	219	32	60	-11180	1944	12276	106	-50	-149	-16132	-3796	-1392	11	-43	154	-15884	-1648	-2640	81	-390	225	125	130	8
-10168	-3944	11692	-91	158	-203	-15396	5396	-592	93	-31	-71	-16276	-72	-1416	299	-125	66	-11096	1924	12276	117	-111	-162	-16208	-3712	-1492	-33	-75	175	-16108	-1588	-2792	-18	-183	162	125	129	8
-10184	-3972	11676	-113	149	-161	-15404	5500	-748	160	-55	-54	-16260	-80	-1552	335	-60	29	-11184	1900	12296	115	-28	-171	-16120	-3700	-1440	112	-56	123	-16064	-1488	-2852	13	-49	180	125	130	8
-10136	-3992	11588	-123	158	-160	-15424	5580	-900	33	-16	-30	-16180	4	-1724	294	-12	-41	-11184	1956	12344	138	-62	-196	-16144	-3780	-1496	199	-15	191	-15876	-1364	-3052	285	-135	163	125	130	8
-10168	-3888	11604	-82	175	-163	-15364	5620	-1012	-50	-94	-45	-16164	36	-1704	174	44	9	-11176	1848	12364	113	-46	-181	-16136	-3684	-1580	80	-44	164	-15844	-1556	-3064	72	-235	158	125	128	8
-10212	-3916	11584	-127	176	-204	-15360	5604	-740	-109	-114	-83	-16188	140	-1464	112	101	37	-11156	1848	12276	115	-16	-147	-16116	-3696	-1556	106	-19	184	-15796	-1556	-2904	186	-268	183	125	126	8
-10084	-3944	11596	-130	152	-201	-15356	5476	-656	-76	-36	-37	-16316	8	-1292	163	-74	69	-11068	1888	12312	97	-45	-171	-16088	-3688	-1388	6	-47	174	-15828	-1512	-2800	-58	-227	208	125	128	8
-10148	-4004	11692	-99	126	-188	-15348	5440	-636	55	-24	-88	-16340	-100	-1300	258	-193	32	-11120	1936	12304	128	-112	-122	-16140	-3752	-1288	-1	-33	192	-15972	-1468	-2852	227	-185	243	125	126	8
-10144	-3984	11600	-82	151	-197	-15564	5460	-756	234	-90	-71	-16272	-100	-1596	371	-98	-22	-11160	1828	12304	147	-47	-172	-16108	-3636	-1692	30	-27	147	-16168	-1612	-2920	-128	50	85	125	127	8
-10200	-4024	11716	-169	152	-153	-15424	5688	-836	41	-53	-20	-16176	-60	-1556	343	60	-13	-11080	1876	12460	148	6	-162	-16076	-3840	-1504	77	-65	205	-15840	-1440	-3400	51	100	167	125	129	8
-10164	-3972	11616	-156	142	-146	-15336	5628	-828	-106	-70	-64	-16144	88	-1580	225	204	72	-11232	1736	12260	146	-8	-108	-16004	-3736	-1632	144	-111	188	-15952	-1576	-3124	172	-210	192	125	128	8
-10160	-3912	11620	-131	129	-175	-15340	5548	-664	-104	-49	-21	-16264	68	-1512	143	145	78	-11164	1868	12260	125	-53	-165	-16036	-3628	-1420	74	-26	149	-16068	-1776	-2620	-14	-281	182	125	129	8
-10196	-4012	11540	-87	118	-167	-15412	5440	-672	14	3	-22	-16332	48	-1332	217	-33	64	-11200	1880	12284	163	-57	-140	-16060	-3628	-1432	41	-16	170	-15832	-1556	-2692	167	-146	220	126	123	8
-10116	-3972	11608	-83	134	-162	-15468	5468	-648	117	29	-27	-16364	-20	-1512	311	-164	23	-11088	2032	12276	121	-115	-128	-16164	-3692	-1232	10	-29	177	-15884	-1488	-2748	93	-194	193	125	126	8
-10108	-4032	11600	-104	105	-179	-15400	5612	-752	202	-40	-46	-16256	-44	-1684	258	-4	-7	-11128	1932	12236	140	-66	-201	-16184	-3752	-1356	-8	53	161	-15936	-1496	-3076	81	-205	150	126	130	8
-10184	-3944	11644	-139	177	-130	-15480	5640	-932	69	-68	-25	-16196	-32	-1788	225	130	-23	-11120	1924	12236	124	-60	-170	-16132	-3696	-1532	86	15	145	-15688	-1468	-3072	183	33	271	125	126	8
-10144	-3916	11704	-87	207	-198	-15352	5560	-860	-131	-68	-42	-16140	72	-1680	88	143	6	-11132	1832	12344	104	-34	-169	-16140	-3796	-1540	93	17	163	-15744	-1348	-3056	138	54	143	126	127	8
-10084	-3956	11692	-101	129	-151	-15380	5492	-736	-88	-66	-20	-16176	40	-1372	117	27	65	-11196	1884	12368	104	-64	-157	-16024	-3708	-1580	4	-28	175	-15884	-1584	-3028	3	-95	145	126	128	8
-10140	-3920	11576	-68	135	-169	-15376	5532	-512	-76	0	-69	-16204	12	-1364	136	-2	-10	-11100	1904	12264	99	-39	-142	-16212	-3680	-1380	-64	3	160	-15868	-1508	-2840	-127	-72	204	126	131	8
-10104	-4016	11732	-61	152	-164	-15468	5476	-700	89	-34	-44	-16332	-8	-1452	148	-148	30	-11160	1916	12276	106	-35	-167	-16084	-3692	-1456	42	-7	157	-15964	-1456	-2840	-17	-200	177	126	129	8
-10128	-4004	11596	-105	181	-164	-15496	5620	-816	92	-50	-29	-16256	-72	-1692	230	-5	-22	-11168	1892	12344	141	-71	-202	-16212	-3724	-1572	50	17	160	-15808	-1420	-2968	137	-213	188	126	121	8
-10180	-3940	11528	-138	162	-156	-15376	5656	-916	-115	-96	-64	-16224	32	-1696	188	139	-18	-11084	1892	12304	97	-94	-170	-16260	-3672	-1560	118	25	180	-15860	-1500	-3160	-250	35	178	126	129	8
-10184	-4004	11600	-130	146	-196	-15388	5476	-712	-142	-67	-35	-16188	20	-1372	141	119	-3	-11264	1804	12392	108	-2	-107	-16116	-3716	-1688	56	-49	171	-15816	-1624	-3140	58	38	122	126	126	8
-10140	-3968	11576	-112	141	-186	-15296	5480	-496	-72	59	-8	-16272	96	-1344	144	-19	45	-11228	1896	12268	101	6	-151	-16088	-3532	-1548	127	-26	188	-15812	-1444	-2868	182	-218	136	126	127	8
-10136	-4064	11652	-92	159	-183	-15388	5496	-604	58	44	-2	-16316	-112	-1320	218	-133	46	-11140	1968	12356	110	-42	-168	-16152	-3612	-1340	-23	-4	153	-16076	-1644	-2656	-142	-185	204	126	126	8
-10096	-4032	11544	-104	169	-161	-15480	5380	-764	220	6	-31	-16300	-120	-1604	285	-61	16	-11124	2036	12376	128	-78	-160	-16116	-3748	-1452	23	39	150	-15896	-1768	-2680	94	-133	200	126	125	8
-10176	-3940	11688	-61	148	-163	-15440	5592	-812	11	7	34	-16200	44	-1768	271	21	4	-11140	1984	12324	117	-31	-173	-16196	-3820	-1392	82	95	176	-16000	-1404	-3052	213	-103	137	126	124	8
-10128	-3932	11672	-55	141	-145	-15380	5672	-780	-39	-8	-2	-16184	48	-1760	129	170	22	-11160	1820	12320	120	-40	-171	-16092	-3728	-1592	28	61	159	-16020	-1524	-3008	-126	-80	141	126	129	8
-10136	-3944	11696	-113	162	-161	-15416	5548	-660	-119	-53	-5	-16196	16	-1632	86	86	8	-11212	1832	12264	114	-26	-181	-16092	-3680	-1528	-3	36	180	-16056	-1604	-3032	12	-3	144	126	132	8
-10188	-3984	11580	-124	180	-187	-15340	5540	-740	-24	-16	-20	-16248	-28	-1572	115	-40	14	-11208	1920	12272	73	-48	-159	-16076	-3760	-1472	9	-23	204	-15936	-1520	-2948	-33	-126	100	126	130	8
-10152	-3956	11580	-76	125	-138	-15432	5496	-648	37	-23	-36	-16312	-76	-1484	218	-115	11	-11192	1892	12320	90	-47	-168	-16144	-3668	-1604	6	32	199	-15764	-1380	-2916	-148	-302	136	126	126	8
-10128	-4016	11616	-102	151	-170	-15500	5524	-776	-24	-9	-28	-16272	-72	-1520	176	-98	15	-11172	1916	12336	108	-79	-148	-16136	-3632	-1468	1	24	162	-15800	-1500	-2816	-38	-339	213	126	125	8
-10156	-3988	11652	-107	158	-138	-15444	5596	-860	19	-8	-47	-16308	16	-1536	146	-59	3	-11084	1932	12296	105	-40	-159	-16100	-3828	-1368	-26	-3	171	-16088	-1600	-2700	30	-167	206	126	132	8
-10112	-3976	11560	-90	173	-173	-15492	5564	-820	12	-45	-25	-16228	-68	-1564	131	101	-16	-11216	1888	12320	108	-14	-217	-16220	-3868	-1612	25	15	189	-15996	-1544	-2964	-102	-103	154	126	131	8
-10128	-3988	11660	-103	157	-146	-15364	5660	-684	-79	-64	-44	-16244	-16	-1604	105	156	0	-11156	1908	12332	105	5	-160	-16088	-3672	-1584	153	-32	219	-15640	-1280	-3068	14	-93	60	126	128	8
-10180	-4008	11564	-92	145	-168	-15416	5496	-828	-61	-67	-40	-16284	48	-1492	196	68	40	-11188	1868	12300	154	-37	-167	-16096	-3656	-1472	61	-52	168	-15772	-1420	-3220	117	-299	74	126	127	8
-10184	-3932	11660	-121	168	-172	-15376	5480	-764	-27	-55	-41	-16244	-124	-1472	245	-126	43	-11140	1908	12300	126	-87	-139	-16100	-3772	-1456	68	-43	169	-15804	-1552	-2812	13	-365	234	126	127	8
-10116	-4016	11608	-95	158	-184	-15492	5416	-792	80	-5	-36	-16280	-140	-1376	249	-108	26	-11136	1820	12344	120	-82	-168	-16088	-3660	-1344	68	-14	140	-16356	-2032	-2732	-323	-180	134	126	129	8
-10172	-4012	11636	-113	144	-176	-15412	5636	-908	107	-31	-40	-16268	16	-1616	242	9	30	-11108	1872	12296	124	-78	-149	-16056	-3684	-1456	49	49	188	-16000	-1500	-3156	69	-111	104	126	122	8
-10192	-3952	11652	-114	178	-215	-15448	5588	-948	-51	-64	-36	-16152	40	-1636	237	23	31	-11168	1912	12352	133	-73	-148	-16164	-3700	-1332	45	-6	188	-15944	-1532	-3012	5	-308	89	126	128	8
-10260	-3964	11652	-64	152	-205	-15440	5540	-940	-150	-92	-42	-16164	-40	-1508	203	105	44	-11056	1884	12400	114	-75	-80	-16280	-3824	-1616	111	52	198	-15884	-1448	-2804	295	-336	146	126	129	8
-10140	-3964	11552	-111	180	-205	-15308	5516	-660	-108	-47	-21	-16236	-100	-1388	202	-101	19	-11132	1920	12356	101	-50	-139	-16204	-3688	-1548	-6	-9	198	-15796	-1312	-2912	193	-132	306	126	128	8
-10112	-4036	11612	-72	173	-150	-15404	5424	-704	17	-54	-35	-16336	-136	-1376	197	-142	32	-11060	1968	12356	115	-21	-165	-16148	-3728	-1456	-17	-77	210	-16044	-1532	-2696	110	-71	305	126	132	8
-10072	-4028	11720	-103	174	-150	-15424	5548	-664	82	-25	-35	-16220	-48	-1508	182	-88	14	-11128	1964	12452	147	-18	-148	-16112	-3876	-1688	67	-39	207	-15800	-1276	-3120	158	224	253	126	127	8
-10180	-3984	11572	-93	164	-156	-15384	5656	-852	-49	-71	-26	-16196	84	-1696	160	72	8	-11168	1884	12372	144	9	-149	-16144	-3668	-1676	193	-75	153	-15864	-1452	-3036	183	-69	131	126	127	8
-10144	-4020	11712	-148	138	-171	-15448	5564	-812	-132	-98	-33	-16132	52	-1568	107	126	29	-11200	1824	12296	144	-48	-152	-16040	-3796	-1612	95	-58	168	-15976	-1492	-2936	-60	-259	155	126	127	8
-10112	-3960	11676	-119	133	-197	-15292	5536	-672	-95	-77	-14	-16364	-28	-1364	198	34	63	-11132	1908	12376	87	-50	-153	-16144	-3700	-1392	28	-46	143	-15832	-1700	-2596	-145	-348	181	126	124	8
-10120	-3976	11540	-92	128	-160	-15400	5464	-552	2	-35	-25	-16336	-32	-1268	251	-65	33	-11132	1936	12344	98	-97	-137	-16116	-3712	-1400	-34	-41	182	-15856	-1488	-2780	-55	-254	167	126	127	8
-10124	-4004	11644	-66	116	-182	-15400	5368	-632	115	37	-49	-16320	-144	-1352	329	-107	-34	-11176	1888	12408	101	-110	-172	-16200	-3704	-1584	55	-15	179	-15864	-1428	-2924	125	-109	219	126	125	8
-10104	-4056	11624	-83	173	-142	-15544	5508	-832	369	-28	-39	-16272	-48	-1648	380	59	-10	-11036	1884	12260	122	-39	-196	-16216	-3680	-1504	143	-30	201	-15832	-1460	-3116	274	83	243	126	128	8
-10168	-3904	11660	-119	186	-136	-15444	5672	-904	1	-51	0	-16152	-40	-1900	234	202	45	-11024	1832	12376	121	-10	-187	-16160	-3820	-1632	116	-92	177	-15892	-1568	-3228	346	162	302	126	129	8
-10160	-3960	11604	-98	192	-152	-15420	5584	-824	50	-136	-15	-16104	0	-1872	158	233	61	-11188	1872	12328	117	44	-189	-16116	-3700	-1712	128	-135	187	-15932	-1604	-3012	148	206	221	126	129	8
-10224	-3944	11668	-144	178	-165	-15352	5544	-608	-178	-123	-34	-16304	24	-1612	177	98	90	-11228	1748	12264	109	28	-153	-16104	-3608	-1480	147	-61	195	-15836	-1484	-2900	202	-88	233	126	126	8
-10216	-3980	11540	-106	174	-193	-15384	5444	-636	-103	-65	-26	-16336	-12	-1328	238	-116	83	-11132	1892	12336	149	-55	-149	-16068	-3696	-1468	69	-32	165	-15972	-1592	-2708	45	-322	212	126	129	8
-10100	-4052	11688	-97	117	-212	-15448	5484	-596	55	-32	-28	-16408	-80	-1400	341	-231	40	-11124	1852	12428	108	-84	-169	-16184	-3692	-1456	-31	-69	192	-15940	-1540	-2704	75	-263	250	126	125	8
-10128	-3972	11584	-65	149	-161	-15408	5508	-568	184	-20	-75	-16288	0	-1548	267	-54	-17	-11144	1872	12380	93	-13	-182	-16224	-3804	-1528	86	-65	243	-15720	-1300	-2876	-330	106	223	126	128	8
-10196	-3920	11568	-108	173	-155	-15452	5744	-956	-7	-85	-7	-16192	156	-1724	219	167	7	-11220	1860	12452	129	-10	-136	-16108	-3664	-1784	157	-18	182	-15772	-1436	-3072	181	-175	127	126	128	8
-10168	-3996	11604	-111	131	-183	-15428	5544	-788	-158	-53	-34	-16252	-76	-1512	142	175	8	-11216	1888	12288	111	-20	-150	-16116	-3624	-1520	58	-37	207	-15860	-1588	-2660	161	-215	256	126	131	8
-10136	-3960	11708	-106	168	-189	-15416	5536	-836	-117	-44	-58	-16248	-40	-1316	226	11	49	-11172	1916	12468	131	-29	-169	-16152	-3756	-1472	101	-30	179	-15784	-1580	-2624	210	17	304	126	127	8
-10176	-4016	11592	-105	147	-150	-15452	5376	-572	25	-12	-25	-16252	-96	-1368	244	-17	29	-11200	1912	12272	132	-13	-188	-16148	-3736	-1440	22	-43	138	-16048	-1568	-2876	229	33	219	126	129	8
-10092	-4020	11576	-130	165	-149	-15484	5464	-716	211	-6	-18	-16224	-88	-1672	177	-78	68	-11140	1856	12412	66	-14	-172	-16160	-3824	-1628	158	-101	179	-16048	-1428	-3220	67	111	225	126	129	8
-10180	-3932	11604	-116	204	-157	-15328	5724	-1072	91	-75	-6	-16140	-4	-1908	213	127	-15	-11832	1800	12264	124	22	-206	-16248	-3956	-2052	161	-130	187	-15868	-1324	-3240	228	-8	224	126	127	8
-10184	-3916	11668	-105	218	-144	-15460	5588	-908	-210	-108	-58	-16160	92	-1828	110	164	30	-11212	1812	12276	146	9	-121	-16100	-3716	-1424	144	-110	173	-15700	-1452	-2952	90	-77	226	126	128	8
-10212	-3880	11532	-123	138	-176	-15344	5500	-700	-213	-140	-63	-16216	44	-1452	142	44	22	-11148	1928	12388	138	-58	-105	-16108	-3656	-1272	18	-107	175	-15880	-1544	-2604	-153	-80	188	126	126	8
-10156	-4016	11652	-100	145	-208	-15324	5516	-480	-44	-101	-47	-16368	96	-1164	265	-126	40	-11116	1960	12388	131	-44	-174	-16048	-3680	-1344	-87	-50	168	-15900	-1544	-2756	-217	-341	110	126	127	8
-10076	-3952	11584	-102	149	-169	-15468	5412	-572	33	-21	-70	-16340	108	-1132	261	-160	37	-11156	1884	12304	102	-69	-195	-16156	-3660	-1544	-35	-29	176	-15792	-1288	-2892	-32	-236	160	126	128	8
-10144	-3996	11704	-98	139	-166	-15524	5456	-912	180	-41	-60	-16276	-72	-1632	293	-42	-25	-11128	1924	12360	129	-84	-188	-16120	-3676	-1588	22	-18	170	-16164	-1552	-2936	-105	-56	215	126	129	8
-10184	-3900	11732	-118	166	-137	-15412	5616	-764	-149	-11	-6	-16220	-8	-1748	124	89	-2	-11124	1864	12324	159	-33	-173	-16180	-3716	-1364	33	41	152	-16044	-1696	-2824	-2	-57	140	126	129	8
-10156	-3948	11688	-88	146	-193	-15360	5536	-820	-234	-39	-25	-16136	72	-1544	-40	40	31	-11168	1888	12360	144	-79	-141	-16024	-3728	-1392	52	101	208	-15916	-1688	-2596	27	-152	134	126	131	8
-10168	-4004	11624	-102	153	-172	-15376	5524	-628	-164	0	-23	-16208	52	-1468	-71	-89	29	-11156	1960	12316	93	-107	-150	-16040	-3636	-1284	-151	133	167	-16052	-1724	-2808	-368	-163	71	126	130	8
-10128	-4004	11568	-103	126	-202	-15364	5480	-708	-71	8	-13	-16316	76	-1524	-82	-202	38	-11124	1896	12308	83	-84	-170	-16104	-3652	-1420	-119	186	213	-15944	-1504	-2912	-271	-391	55	126	129	8
-10136	-3960	11600	-105	180	-167	-15408	5624	-792	155	-42	-21	-16264	-12	-1692	36	-137	-11	-11132	1924	12328	94	-61	-188	-16224	-3628	-1552	-152	133	176	-16220	-1372	-2972	-330	-306	116	126	134	8
-10172	-3968	11676	-152	159	-169	-15460	5636	-1012	-103	-80	-45	-16244	-20	-1736	37	-42	1	-11100	1784	12292	92	-103	-183	-16192	-3716	-1676	-198	50	153	-15704	-1236	-3348	-276	-66	156	126	128	8
-10200	-3896	11616	-80	147	-176	-15340	5532	-796	-218	-96	-54	-16252	-16	-1544	65	-3	-12	-11152	1848	12236	83	-42	-169	-16204	-3720	-1728	34	18	189	-15684	-1340	-3124	125	-111	200	126	129	8
-10160	-3876	11648	-101	188	-149	-15376	5552	-620	-183	-30	-48	-16268	64	-1264	117	-85	26	-11104	1880	12248	132	-25	-161	-16128	-3616	-1644	115	-52	190	-15844	-1464	-3136	-235	67	131	126	129	8
-10124	-3972	11520	-80	132	-188	-15392	5488	-728	-33	-13	-47	-16280	-8	-1384	154	-95	16	-11136	1848	12348	125	-76	-151	-16096	-3672	-1568	73	-39	181	-15936	-1568	-3172	68	-350	10	126	129	8
-10148	-3948	11644	-115	182	-196	-15388	5584	-684	123	35	-33	-16288	8	-1572	305	-96	37	-11248	1852	12388	131	-79	-152	-16100	-3600	-1580	35	-30	119	-15632	-1476	-2828	244	-492	197	126	127	8
-10148	-3956	11632	-64	199	-171	-15420	5556	-796	232	-25	-93	-16336	-124	-1536	375	7	15	-11176	1964	12300	129	-109	-172	-16180	-3668	-1348	92	22	153	-16272	-1852	-2416	284	-399	267	126	134	8
-10236	-3976	11592	-149	199	-191	-15496	5512	-808	131	-59	-55	-16172	-116	-1680	411	119	-23	-11036	1972	12496	144	-88	-165	-16312	-3940	-1480	89	-1	171	-15932	-1356	-2904	172	158	198	126	130	8
-10184	-4004	11680	-86	198	-163	-15448	5624	-772	-2	-42	-47	-16180	32	-1684	357	107	7	-11128	1872	12196	144	-13	-158	-16084	-3764	-1532	114	-29	183	-15896	-1292	-3196	451	-51	105	126	127	8
-10104	-3916	11696	-104	133	-165	-15452	5492	-720	-111	-15	-31	-16152	-4	-1504	259	59	40	-11204	1840	12276	120	52	-172	-16108	-3692	-1668	98	-44	185	-15584	-1308	-2944	9	-193	183	126	128	8
-10176	-3984	11604	-116	156	-208	-15400	5500	-584	-31	-57	-28	-16304	-100	-1372	228	-95	73	-11172	1872	12284	118	-38	-132	-16136	-3688	-1668	87	-47	105	-15812	-1444	-2988	322	-322	253	126	127	8
-10036	-4012	11648	-129	151	-159	-15476	5484	-556	130	-64	-45	-16272	-52	-1492	203	-158	34	-11084	1948	12360	116	-79	-151	-16068	-3620	-1304	39	-15	150	-16328	-1864	-2576	-139	-244	218	126	133	8
-10156	-3960	11564	-155	165	-161	-15432	5556	-852	202	-80	-78	-16216	52	-1704	211	29	-17	-11096	1808	12232	97	-104	-181	-16064	-3700	-1436	-17	9	153	-15776	-1492	-2748	19	-101	202	126	130	8
-10212	-3948	11632	-145	197	-172	-15400	5692	-984	-73	-127	-53	-16148	64	-1800	220	109	-48	-11076	1976	12380	114	-116	-210	-16156	-3788	-1628	44	58	151	-15816	-1376	-3156	429	-259	126	126	128	8
-10144	-3928	11556	-122	162	-205	-15404	5472	-692	-143	-80	-47	-16180	-100	-1520	232	27	-15	-11096	1856	12424	129	-37	-178	-16196	-3936	-1772	128	-74	223	-15720	-1220	-3092	377	-12	280	126	128	8
-10180	-3960	11608	-67	152	-189	-15316	5544	-592	-36	-67	-27	-16248	-132	-1244	312	-99	37	-11220	1800	12348	176	-7	-176	-16156	-3672	-1716	190	-82	162	-16160	-1740	-3112	262	144	290	126	128	8
-10080	-4028	11580	-102	150	-198	-15516	5452	-460	97	39	-39	-16308	-4	-1096	237	-162	56	-11168	1852	12304	165	-29	-129	-16100	-3604	-1416	125	-104	196	-15964	-1516	-2960	207	118	301	126	129	8
-10060	-4020	11640	-101	159	-157	-15380	5532	-664	199	42	-19	-16264	-40	-1540	228	-33	27	-11156	1904	12400	145	-106	-156	-16068	-3712	-1344	83	-62	158	-16116	-1648	-2888	202	-228	137	126	128	8
-10224	-3964	11728	-126	162	-145	-15428	5708	-1180	209	-75	13	-16176	-44	-1940	356	182	2	-11188	1928	12252	106	-30	-164	-16124	-3680	-1644	72	-55	173	-15896	-1508	-3076	175	-271	189	126	131	8
-10220	-3952	11672	-118	178	-157	-15392	5636	-852	-132	-70	-48	-16104	-56	-1792	283	171	10	-11208	1888	12308	91	15	-194	-16164	-3660	-1744	194	-86	154	-15716	-1392	-3104	382	-50	323	126	125	8
-10196	-3888	11616	-60	140	-193	-15352	5548	-720	-161	-61	-33	-16276	-40	-1416	165	76	121	-11168	1828	12260	156	12	-145	-16100	-3728	-1496	145	-112	205	-15932	-1540	-2908	67	-30	301	126	127	8
-10156	-3952	11564	-79	137	-208	-15388	5412	-616	-20	1	-23	-16292	-40	-1068	221	-113	81	-11144	1908	12376	96	-13	-142	-16156	-3796	-1400	136	-137	203	-15848	-1672	-2816	61	-25	202	126	124	8
-10088	-4004	11660	-97	137	-160	-15484	5372	-504	193	-2	8	-16328	-112	-1404	342	-190	56	-11152	1924	12400	120	-29	-126	-16032	-3692	-1476	86	-31	210	-15900	-1756	-2640	95	-44	190	126	129	8
-10080	-3912	11668	-113	178	-162	-15492	5652	-884	314	-38	-31	-16212	-116	-1908	369	38	-16	-11192	1828	12428	170	-20	-123	-16096	-3552	-1476	23	-1	180	-15908	-1384	-3240	221	-396	120	126	128	8
-10208	-3880	11676	-143	182	-163	-15512	5700	-1008	-85	-129	-23	-16180	20	-1752	224	159	32	-11156	1868	12296	129	-47	-177	-16212	-3596	-1600	3	-60	180	-15728	-1260	-3176	212	-209	379	126	125	8
-10216	-3984	11580	-168	143	-173	-15420	5452	-752	-155	-129	8	-16196	24	-1392	120	184	74	-11172	1860	12236	176	-12	-128	-16188	-3768	-1628	26	-123	200	-16032	-1576	-3012	-154	180	313	126	129	8
-10164	-3968	11548	-86	128	-174	-15308	5476	-708	-175	-68	21	-16308	56	-1268	116	25	84	-11320	1764	12212	179	-10	-169	-16136	-3664	-1488	215	-145	228	-15976	-1636	-3060	97	208	218	126	130	8
-10092	-4044	11616	-91	94	-183	-15380	5420	-480	4	5	6	-16360	36	-1180	172	-180	67	-11152	1864	12248	149	4	-128	-16108	-3696	-1308	221	-65	243	-15964	-1600	-2804	229	-278	118	126	128	8
-10100	-3992	11600	-134	158	-172	-15432	5532	-604	182	-17	-11	-16264	-20	-1728	237	-145	28	-11120	1884	12360	85	-34	-151	-16084	-3704	-1244	-27	12	201	-15912	-1596	-2784	18	-493	148	126	130	8
-10140	-3972	11624	-120	177	-122	-15444	5688	-1064	214	-102	-59	-16164	-12	-1748	209	64	33	-11092	1892	12360	103	-31	-143	-16212	-3848	-1412	13	25	237	-15912	-1464	-2848	94	-176	356	126	127	8
-10188	-3936	11636	-103	171	-174	-15444	5604	-900	-191	-116	-18	-16248	4	-1624	70	135	19	-11192	1884	12328	84	20	-166	-16156	-3820	-1700	-68	-106	251	-15928	-1240	-3132	-274	260	245	126	129	8
-10124	-3916	11740	-90	130	-185	-15348	5532	-720	-260	-114	8	-16204	-4	-1516	86	92	32	-11200	1800	12176	154	11	-149	-16172	-3600	-1676	263	-55	208	-15760	-1348	-3256	118	37	192	126	127	8
-10148	-3976	11596	-25	124	-165	-15336	5436	-548	-205	-18	-18	-16360	32	-1452	142	-159	75	-11228	1912	12348	123	-31	-128	-16068	-3668	-1592	98	-90	139	-15848	-1368	-3024	201	-150	152	126	126	8
-10104	-4032	11656	-81	105	-134	-15416	5468	-588	128	-33	5	-16292	-68	-1336	152	-219	88	-11208	1884	12308	111	-40	-143	-16060	-3720	-1344	-37	-94	177	-16136	-1732	-2748	-298	-290	119	126	127	8
-10148	-3972	11600	-111	169	-166	-15472	5596	-828	229	-142	-7	-16236	36	-1636	192	-23	36	-11136	1812	12388	107	-53	-155	-16104	-3696	-1320	-45	6	216	-15936	-1740	-2840	-205	-358	142	126	125	8
-10132	-3984	11632	-119	164	-156	-15424	5716	-936	-170	-105	26	-16236	120	-1820	59	95	33	-11132	1964	12296	102	-92	-196	-16228	-3636	-1520	-68	17	211	-15788	-1160	-3072	-36	-325	171	126	128	8
-10140	-3904	11584	-114	149	-147	-15448	5680	-1008	-216	-117	-33	-16236	56	-1416	22	86	0	-11104	1860	12348	143	-65	-159	-16188	-3724	-1680	29	-23	247	-15908	-1296	-2944	97	-173	205	126	127	8
-10156	-4016	11620	-114	152	-176	-15440	5512	-564	-274	-92	-44	-16284	52	-1492	82	-155	3	-11228	1904	12332	105	8	-145	-16204	-3716	-1624	107	-65	187	-15840	-1320	-3036	-110	197	261	126	127	8
-10056	-3992	11772	-106	128	-183	-15396	5532	-604	-21	-64	-37	-16304	56	-1412	65	-228	32	-11116	1828	12256	108	21	-156	-16076	-3608	-1440	69	-43	195	-15996	-1640	-2884	-173	-73	128	126	127	8
-10192	-3956	11644	-125	158	-124	-15416	5644	-680	118	-62	-67	-16284	44	-1372	59	-249	41	-11128	1876	12232	127	-66	-155	-16032	-3624	-1336	-53	-1	176	-15916	-1452	-2772	-224	-547	-17	126	128	8
-10244	-3948	11600	-145	124	-160	-15360	5704	-908	-31	-157	-60	-16192	40	-1752	19	-33	34	-11136	1916	12216	69	-75	-155	-16104	-3740	-1336	-34	26	197	-15776	-1416	-2880	-180	-599	34	126	128	8
-10180	-4040	11656	-132	192	-127	-15472	5556	-748	-254	-142	-31	-16232	0	-1592	-4	-3	1	-11184	1912	12280	86	-110	-159	-16140	-3764	-1460	-149	-10	196	-15812	-1372	-2972	-204	-246	195	126	125	8
-10256	-3948	11640	-135	168	-220	-15340	5592	-568	-204	-153	-38	-16256	16	-1376	75	-67	-8	-11144	1852	12424	100	-39	-152	-16176	-3756	-1568	21	3	190	-15848	-1444	-3104	-206	-86	144	125	127	8
-10180	-3940	11668	-78	123	-210	-15324	5488	-600	-209	-44	-52	-16236	168	-1108	122	-239	36	-11160	1868	12264	120	-54	-104	-16116	-3584	-1364	68	25	212	-15880	-1456	-2996	20	-229	110	125	127	8
-10056	-4000	11668	-84	149	-186	-15480	5444	-496	51	-39	-43	-16312	16	-1432	124	-285	41	-11100	1996	12296	108	-58	-167	-16136	-3564	-1436	-52	1	170	-16088	-1464	-3016	-256	-298	27	126	129	8
-10104	-4004	11744	-84	162	-169	-15448	5564	-708	138	-89	-58	-16256	-8	-1592	181	-182	-3	-11184	1848	12400	97	-86	-129	-16096	-3684	-1504	-25	32	197	-15760	-1512	-3028	2	-444	102	125	129	8
-10196	-3936	11640	-118	171	-152	-15456	5700	-844	109	-193	-53	-16208	84	-1764	143	15	-25	-11144	1924	12300	95	-67	-194	-16168	-3640	-1568	-19	-22	166	-15764	-1372	-2948	234	-472	203	125	127	8
-10152	-3992	11696	-130	176	-184	-15432	5544	-748	-261	-97	-26	-16248	-20	-1576	69	-21	8	-11128	1936	12348	131	-25	-168	-16140	-3712	-1524	-62	-106	170	-16196	-1596	-2852	-159	-127	198	126	130	8
-10164	-3952	11640	-102	138	-166	-15336	5572	-764	-217	-114	-55	-16204	56	-1256	101	-85	49	-11192	1704	12364	83	-23	-173	-16156	-3792	-1636	98	-82	145	-15924	-1404	-3176	140	86	131	125	129	8
-10136	-3952	11612	-65	118	-211	-15400	5488	-472	-190	-45	-15	-16340	76	-1348	74	-339	34	-11124	1900	12216	127	-7	-165	-16072	-3488	-1468	122	-89	159	-15888	-1368	-2864	118	-250	64	125	128	8
-10044	-3996	11544	-42	168	-191	-15416	5476	-448	0	-73	-52	-16400	-24	-1368	28	-370	23	-11144	1892	12216	107	-28	-154	-16116	-3604	-1332	-78	-94	147	-16032	-1612	-2680	-285	-494	146	125	128	8
-10124	-3920	11644	-72	155	-207	-15432	5656	-748	118	-129	-68	-16288	52	-1600	139	-212	-14	-11180	1852	12340	104	-105	-171	-16068	-3780	-1548	-53	-52	170	-15996	-1748	-2620	-141	-410	182	125	130	8
-10160	-3984	11712	-129	159	-154	-15464	5556	-780	22	-166	-126	-16260	20	-1736	128	-19	-30	-11168	1908	12384	125	-95	-158	-16164	-3624	-1548	51	24	205	-15860	-1396	-2804	-38	-279	86	125	127	8
-10128	-3940	11728	-156	174	-157	-15428	5572	-788	-161	-152	-80	-16276	-28	-1536	130	5	-29	-11084	1952	12372	98	-93	-177	-16244	-3528	-1544	-88	-80	152	-15876	-1220	-3164	-10	-194	115	124	127	8
-10196	-3896	11696	-137	151	-222	-15364	5476	-592	-173	-137	-80	-16296	4	-1336	147	-113	25	-11184	1792	12288	125	-52	-184	-16088	-3748	-1668	28	-72	178	-15848	-1536	-2884	245	-211	198	124	125	8
-10168	-3900	11516	-120	122	-201	-15388	5532	-624	-194	-104	-72	-16292	-72	-1188	159	-300	73	-11176	1900	12356	176	-91	-156	-16104	-3704	-1432	98	-63	205	-15888	-1624	-2792	46	-83	217	124	129	8
-10136	-4024	11688	-95	140	-193	-15464	5436	-460	122	-63	-33	-16324	-40	-1388	159	-258	54	-11160	1952	12240	105	-8	-159	-16132	-3644	-1212	37	-5	147	-16244	-1688	-2612	-260	-153	59	124	128	8
-10092	-3988	11672	-115	156	-140	-15424	5604	-688	247	-172	-60	-16188	40	-1748	142	-28	-1	-11124	1836	12372	71	-79	-167	-16068	-3628	-1376	-75	2	199	-16004	-1516	-2928	-144	-390	85	124	126	8
-10188	-3928	11656	-107	175	-154	-15444	5768	-920	-163	-128	-56	-16228	100	-1628	58	23	-43	-11176	1860	12280	66	-77	-186	-16168	-3648	-1536	-64	4	153	-15760	-1264	-2916	60	-471	60	123	125	8
-10288	-3920	11616	-88	141	-196	-15352	5396	-824	-260	-157	-37	-16244	-16	-1260	22	-14	-46	-11256	1884	12276	80	-58	-154	-16132	-3652	-1664	-32	20	151	-15972	-1480	-2716	71	-285	273	123	126	8
-10104	-4036	11616	-73	145	-208	-15324	5464	-428	-287	-78	-11	-16320	-8	-1104	66	-243	24	-11132	1956	12424	102	-114	-173	-16148	-3768	-1636	-25	18	188	-15904	-1624	-2568	-353	-79	179	123	123	8
-10132	-4012	11664	-69	146	-172	-15420	5556	-304	79	-26	-27	-16316	40	-1072	31	-336	94	-11096	1900	12288	121	-42	-178	-16100	-3592	-1352	4	49	173	-16196	-1740	-2908	-264	-210	-27	122	127	8
-10068	-4012	11696	-83	130	-180	-15468	5596	-612	133	-13	-44	-16276	52	-1484	126	-267	50	-11136	1808	12340	139	-110	-165	-16096	-3548	-1464	-2	19	140	-15848	-1420	-2952	50	-549	-78	124	126	8
-10132	-3968	11656	-75	114	-187	-15440	5648	-848	77	-70	-47	-16488	-128	-1568	175	-582	128	-11160	1868	12332	112	-134	-173	-16120	-3708	-1600	78	56	137	-15676	-1280	-3072	356	-577	173	125	125	8
-10200	-3948	11680	-105	138	-165	-15496	5584	-716	-59	-61	-25	-17044	-176	-948	10	-2150	506	-11152	1896	12292	121	-93	-162	-16124	-3700	-1600	137	47	143	-16052	-1652	-2596	261	-339	298	121	127	8
-10220	-3976	11608	-108	135	-176	-15424	5504	-592	-4	-51	-53	-16332	76	-1580	-237	-2314	1278	-11136	1904	12296	143	-101	-153	-16148	-3804	-1440	94	0	146	-15908	-1648	-2708	-5	66	272	122	120	8
-10080	-3976	11644	-49	148	-174	-15420	5696	-680	-161	9	-31	-16136	120	-924	278	-2108	572	-11144	1984	12468	123	-66	-153	-16108	-3784	-1484	93	72	201	-15940	-1544	-2868	330	-257	42	121	123	8
-10164	-3940	11672	-96	140	-195	-15412	5552	-668	-20	-2	-22	-15808	408	-1052	376	-1486	359	-11028	1848	12424	103	-76	-166	-16128	-3668	-1548	-5	-1	169	-15932	-1340	-2968	26	-437	28	123	124	8
-10064	-3924	11608	-69	125	-198	-15380	5468	-724	183	-83	-54	-16236	-176	-1004	332	-1206	436	-11184	1832	12412	143	-126	-169	-16220	-3736	-1760	-32	-98	166	-15916	-1296	-3128	49	-334	178	120	128	8
-10112	-3948	11680	-115	160	-180	-15480	5700	-788	112	-139	-50	-16732	-112	-1328	176	-1250	775	-11164	1872	12356	118	3	-128	-16168	-3552	-1728	84	-147	184	-15860	-1308	-2928	98	-225	228	120	129	8
-10140	-3980	11736	-119	160	-139	-15492	5556	-772	-206	-74	-10	-16400	164	-1072	-83	-1073	984	-11164	1828	12348	154	-40	-157	-16096	-3668	-1576	118	-148	161	-15852	-1404	-2444	34	-145	270	121	122	8
-10152	-3904	11632	-98	141	-175	-15312	5464	-588	-182	-63	-32	-15816	556	-776	-129	-982	724	-11156	1960	12384	149	-36	-151	-16116	-3708	-1480	110	-106	169	-15940	-1644	-2736	-120	-110	48	121	125	8
-10120	-4040	11688	-99	153	-154	-15460	5492	-456	-41	-68	-29	-15864	320	-728	454	-482	232	-11124	1840	12328	151	-65	-169	-16184	-3820	-1480	133	-34	169	-16032	-1616	-2768	275	-488	26	121	123	8
-10112	-3988	11740	-141	161	-142	-15432	5568	-500	146	-127	-48	-15692	280	-1112	489	415	-188	-11164	1860	12272	137	-54	-128	-16128	-3672	-1492	51	-41	178	-15908	-1424	-2748	34	-403	170	121	122	8
-10184	-3932	11636	-145	173	-183	-15404	5676	-792	137	-182	-116	-15576	568	-1264	410	1192	-602	-11124	1912	12408	81	-27	-148	-16120	-3700	-1564	35	-41	154	-16160	-1668	-2828	-42	-248	203	122	126	8
-10220	-3960	11644	-106	141	-193	-15380	5608	-776	-63	-190	-63	-15940	420	-968	230	1990	-1013	-11116	1820	12388	112	-100	-145	-16128	-3728	-1536	49	-56	147	-15972	-1440	-2728	38	-141	76	122	123	8
-10144	-4004	11684	-110	167	-180	-15432	5620	-640	-224	-138	-43	-16464	144	-780	261	2310	-1110	-11120	1876	12428	125	-50	-128	-16124	-3612	-1476	84	-62	187	-15932	-1352	-2872	105	-235	46	122	123	8
-10112	-3944	11564	-75	131	-201	-15344	5452	-504	-275	3	-8	-17172	-368	-740	203	1136	-703	-11132	1868	12352	110	-72	-186	-16112	-3608	-1404	3	-76	128	-15984	-1600	-2892	-25	-466	75	123	127	8
-10140	-3984	11644	-98	125	-207	-15536	5444	-464	-16	-27	-17	-17236	144	-1232	147	-858	300	-11152	1792	12308	95	-29	-159	-16124	-3764	-1564	92	-28	143	-16004	-1716	-2612	174	-491	181	122	126	8
-10080	-3964	11660	-100	149	-142	-15480	5640	-548	182	-40	-19	-16272	320	-976	-252	-1023	404	-11116	1928	12432	134	-82	-148	-16204	-3640	-1400	90	-51	165	-16088	-1736	-2504	-188	-222	202	122	129	8
-10088	-3996	11700	-110	160	-193	-15392	5536	-636	-20	-38	-96	-15784	20	-1080	-55	-532	28	-11144	1924	12480	106	-107	-140	-16092	-3744	-1416	16	-48	163	-15924	-1480	-2728	22	-163	73	122	127	8
-10140	-3940	11560	-134	149	-163	-15408	5668	-844	22	-129	-52	-16120	96	-1104	488	362	-299	-11108	1848	12456	132	-63	-185	-16060	-3704	-1468	16	-23	181	-15800	-1512	-2788	155	-471	-4	123	127	8
-10160	-3932	11692	-147	145	-192	-15340	5724	-700	-160	-144	-70	-16124	336	-1264	531	789	-363	-11120	1860	12324	121	-92	-120	-16120	-3748	-1476	41	-27	169	-15764	-1424	-2600	189	-419	147	122	125	8
-10152	-3960	11588	-105	134	-247	-15280	5480	-516	-136	-106	-99	-16480	-88	-596	188	380	-133	-11184	1836	12364	171	-118	-85	-16212	-3580	-1400	1	-93	189	-16264	-1772	-2596	-190	-216	160	124	128	8
-10132	-3980	11604	-72	98	-225	-15508	5372	-424	88	-60	-67	-17212	-324	-1148	68	-1207	552	-11136	1864	12368	130	-32	-130	-16152	-3708	-1516	62	-99	167	-16144	-1364	-2676	24	-217	141	123	127	8
-10180	-3980	11528	-103	103	-201	-15488	5608	-532	39	-5	-19	-16600	144	-1044	34	-1647	786	-11140	1948	12336	129	-46	-176	-16116	-3608	-1356	112	-68	146	-15876	-1408	-2632	229	-334	120	123	124	8
-10132	-3944	11564	-93	127	-201	-15388	5408	-408	-91	66	-4	-15752	364	-504	-21	-1222	412	-11052	1892	12368	116	-97	-160	-16168	-3700	-1528	67	-53	121	-15868	-1552	-2544	11	-263	139	126	125	8
-10112	-3984	11628	-72	116	-163	-15396	5520	-508	63	7	53	-16164	220	-480	-6	-749	147	-11128	1844	12308	126	-50	-181	-16132	-3744	-1524	95	-28	147	-16040	-1824	-2568	24	-222	128	124	127	8
-10148	-3884	11688	-89	133	-198	-15484	5684	-600	133	24	-10	-16924	208	-928	147	-796	398	-11112	1892	12372	126	-63	-186	-16116	-3608	-1404	0	-16	160	-16048	-1724	-2752	99	-323	182	123	128	8
-10188	-3936	11648	-101	161	-165	-15428	5684	-664	-11	-15	-22	-16216	460	-1136	-116	-691	535	-11140	1896	12368	79	2	-169	-16084	-3692	-1492	13	-58	174	-15904	-1488	-2600	172	-305	174	124	131	8
-10224	-3940	11568	-100	171	-186	-15388	5448	-588	29	20	-9	-15788	256	-880	-121	-439	235	-11172	1868	12452	106	-70	-170	-16116	-3756	-1440	56	49	147	-15956	-1536	-2696	204	-126	155	124	128	8
-10112	-4040	11620	-99	141	-182	-15456	5440	-620	106	-11	-17	-15868	56	-840	332	116	-201	-11144	1904	12412	96	-19	-170	-16168	-3736	-1472	111	17	204	-15992	-1544	-2768	266	-156	145	124	127	8
-10116	-3980	11632	-101	138	-161	-15468	5452	-568	128	-41	-48	-16372	-48	-796	601	380	-273	-11080	1900	12324	113	-27	-166	-16168	-3656	-1556	11	-27	182	-15928	-1576	-2640	52	-236	190	127	128	8
-10180	-3896	11644	-153	138	-105	-15468	5636	-728	101	-104	-30	-16596	180	-992	359	189	-30	-11160	1864	12392	113	-73	-159	-16156	-3684	-1428	46	-17	192	-16016	-1612	-2516	-23	-213	174	125	131	8
-10228	-3944	11704	-104	164	-154	-15384	5652	-660	-97	-77	-43	-16620	388	-1088	-49	-174	306	-11128	1896	12424	121	-67	-149	-16164	-3660	-1536	61	-5	188	-15896	-1536	-2572	99	-91	149	126	127	8
-10160	-3952	11636	-113	144	-175	-15384	5540	-652	-128	-11	-10	-15980	356	-836	-130	-47	78	-11096	1960	12368	131	-62	-162	-16128	-3700	-1384	72	-41	180	-15968	-1468	-2592	84	-211	141	126	129	8
-10128	-3984	11592	-93	148	-151	-15348	5524	-596	39	-78	-69	-15932	344	-708	-102	-51	26	-11188	1796	12388	122	-30	-156	-16088	-3636	-1540	43	-36	224	-16072	-1624	-2528	55	-227	211	126	132	8
-10136	-3948	11660	-70	187	-199	-15352	5692	-472	-75	-52	-42	-16176	280	-620	289	749	-475	-11140	1888	12280	88	-61	-142	-16132	-3672	-1604	63	-87	218	-16148	-1724	-2564	-82	-207	189	126	128	8
-10088	-3956	11624	-105	149	-174	-15460	5460	-524	-17	-26	-2	-16644	-36	-824	207	569	-297	-11128	1944	12316	127	-22	-148	-16120	-3700	-1420	82	-31	202	-15936	-1464	-2588	185	-166	213	127	123	8
-10112	-3988	11632	-118	148	-149	-15448	5572	-512	55	-50	-3	-16580	92	-1076	128	107	8	-11020	1920	12424	120	-18	-165	-16112	-3656	-1416	48	-23	191	-16064	-1428	-2728	-61	-160	182	127	130	8
-10160	-3972	11588	-87	152	-153	-15404	5520	-600	195	-88	-31	-16184	164	-1008	126	252	3	-11100	1896	12360	98	-4	-159	-16116	-3736	-1388	31	-56	202	-15936	-1584	-2672	18	-134	224	127	130	8
-10148	-3884	11680	-108	181	-141	-15392	5572	-708	-46	-59	6	-16032	140	-936	171	280	-49	-11180	1852	12348	106	-18	-180	-16112	-3708	-1556	82	-32	193	-15856	-1560	-2668	214	-201	190	127	127	8
-10116	-3924	11632	-126	169	-141	-15324	5576	-564	-75	-72	19	-16072	116	-928	380	810	-219	-11100	1916	12360	114	-47	-186	-16176	-3648	-1548	40	-57	202	-15984	-1480	-2640	-106	-87	152	127	125	8
-10136	-3916	11548	-94	140	-192	-15304	5572	-572	-134	-10	-9	-16400	-24	-684	414	706	-315	-11124	1848	12356	138	-43	-153	-16160	-3648	-1516	31	-47	162	-15900	-1668	-2704	39	-110	131	126	128	8
-10128	-4000	11648	-119	129	-182	-15428	5392	-416	12	-39	32	-17252	-4	-1032	285	-1030	460	-11124	1820	12360	128	-17	-122	-16136	-3664	-1460	97	-41	171	-16136	-1656	-2732	20	-214	61	127	129	8
-10128	-3916	11636	-82	195	-141	-15504	5716	-632	194	-8	-15	-16888	248	-1284	-244	-1665	894	-11072	1884	12324	145	-54	-148	-16116	-3592	-1412	33	-51	178	-15952	-1480	-2644	-50	-239	151	127	127	8
-10084	-3884	11664	-119	180	-165	-15304	5572	-664	-100	3	-18	-15536	364	-872	-368	-1113	540	-11132	1944	12360	131	-41	-170	-16100	-3716	-1544	22	-32	178	-15988	-1648	-2492	24	-168	208	128	132	8
-10172	-3964	11592	-67	141	-172	-15440	5412	-592	-68	21	12	-15976	184	-612	-14	-401	55	-11032	1916	12452	125	-86	-125	-16116	-3668	-1452	75	-13	177	-15912	-1488	-2560	78	-102	184	129	131	8
-10140	-3868	11496	-51	113	-192	-15380	5556	-608	12	-14	7	-16920	-176	-508	431	-1053	338	-11148	1856	12292	117	-26	-143	-16020	-3608	-1560	34	-4	172	-15940	-1596	-2572	33	-213	156	127	131	8
-10152	-3980	11740	-115	145	-176	-15552	5760	-484	11	30	-5	-17372	152	-1216	178	-1519	1096	-11076	1928	12412	138	11	-193	-16160	-3664	-1476	16	-16	173	-15944	-1548	-2576	29	-199	182	127	135	8
-10204	-3884	11636	-99	184	-205	-15304	5504	-516	-22	69	-10	-15812	348	-496	-281	-1769	1116	-11216	1848	12368	128	-32	-168	-16108	-3740	-1416	39	8	180	-15876	-1512	-2668	157	-162	131	127	128	8
-10124	-3972	11596	-72	127	-195	-15500	5392	-476	55	117	30	-16248	-36	-96	80	-1678	955	-11112	1912	12344	163	-43	-129	-16136	-3628	-1496	100	47	162	-16208	-1652	-2408	40	-241	162	129	129	8
-10072	-4008	11784	-103	133	-189	-15428	5452	-196	181	153	58	-16744	8	-752	913	-1427	988	-11104	1984	12240	135	-41	-177	-16188	-3616	-1404	37	-1	180	-16092	-1656	-2660	-216	-71	194	129	128	8
-10092	-3916	11692	-97	146	-161	-15416	5668	-616	260	122	9	-16112	476	-228	605	-1247	989	-11088	1776	12324	125	-28	-156	-16156	-3788	-1476	5	12	179	-15908	-1680	-2652	272	-234	56	128	129	8
-10136	-3936	11560	-108	158	-157	-15440	5644	-724	-6	150	-3	-16360	612	-480	181	-1181	1330	-11148	1884	12392	99	-64	-152	-16108	-3696	-1504	109	53	191	-15828	-1540	-2584	142	-261	186	129	129	8
-10152	-4016	11740	-65	140	-185	-15380	5500	-592	50	101	64	-16192	456	-488	420	-1346	1331	-11092	1952	12352	137	-56	-116	-16188	-3664	-1404	78	42	180	-16112	-1684	-2652	148	-184	259	125	129	8
-10100	-4012	11624	-67	140	-209	-15372	5608	-708	29	94	34	-16324	592	-300	972	-1386	1104	-11168	1944	12304	100	-62	-140	-16072	-3776	-1472	103	13	223	-16068	-1772	-2560	69	-112	203	128	131	8
-10116	-3976	11524	-60	115	-162	-15428	5524	-604	19	60	58	-16392	636	-188	1118	-1251	1032	-11148	1888	12292	109	-116	-163	-16088	-3644	-1512	9	59	224	-15960	-1464	-2596	91	-93	174	125	129	8
-10112	-3980	11756	-60	129	-165	-15460	5620	-572	46	85	40	-16052	812	-528	1154	-1245	887	-11192	1880	12284	92	-41	-173	-16128	-3596	-1700	34	85	169	-15960	-1408	-2740	134	-303	103	128	129	8
-10140	-3992	11560	-51	143	-185	-15344	5540	-728	20	96	84	-16168	616	-668	854	-1092	780	-11172	1796	12376	127	-111	-182	-16144	-3664	-1500	25	54	193	-15868	-1548	-2640	127	-293	239	126	126	8
-10132	-4020	11740	-35	84	-176	-15424	5640	-696	26	23	86	-16808	792	-352	691	-925	747	-11120	1920	12420	95	11	-156	-16180	-3684	-1548	84	10	200	-15980	-1644	-2648	26	-80	235	126	123	8
-10156	-3908	11684	-53	148	-198	-15388	5604	-740	-96	2	82	-15924	764	-404	299	-448	507	-11100	1888	12376	118	-31	-191	-16140	-3664	-1456	10	-13	187	-15996	-1620	-2504	-121	8	234	127	129	8
-10144	-3960	11600	-81	143	-147	-15380	5652	-676	-174	-19	53	-16008	792	-428	-225	-235	107	-11112	1892	12360	102	-27	-149	-16100	-3696	-1444	-4	12	196	-16016	-1576	-2680	24	-252	113	129	129	8
-10104	-4104	11692	-73	126	-197	-15460	5640	-608	-99	-42	20	-16692	704	-8	375	-290	172	-11040	1848	12352	124	-78	-185	-16096	-3768	-1544	68	25	190	-15956	-1632	-2680	68	-230	143	125	129	8
-10064	-3952	11632	-101	146	-202	-15412	5604	-768	-89	-47	-27	-16064	504	-176	174	-56	208	-11112	1868	12368	91	5	-164	-16076	-3652	-1500	78	8	228	-16056	-1680	-2612	107	-122	207	128	130	8
-10136	-3904	11596	-139	171	-175	-15376	5604	-832	86	-128	-57	-16152	584	-608	-189	57	280	-11136	1808	12400	123	-50	-170	-16148	-3672	-1412	33	3	184	-16256	-1708	-2568	-36	-118	201	130	130	8
-10140	-3988	11600	-110	150	-172	-15360	5528	-780	-52	-40	-29	-16344	676	16	84	-57	10	-11112	1812	12332	130	-19	-159	-16064	-3652	-1636	37	13	221	-15840	-1408	-2640	60	-206	190	128	128	8
-10080	-4000	11692	-119	138	-197	-15384	5560	-532	-39	-33	9	-16540	744	8	279	71	7	-11136	1860	12352	109	-25	-155	-16132	-3648	-1516	87	23	174	-15880	-1452	-2676	33	-126	150	126	129	8
-10108	-3936	11624	-67	148	-171	-15328	5552	-560	-1	-18	18	-16444	856	-136	291	60	37	-11172	1828	12384	119	-1	-168	-16156	-3684	-1672	53	-33	170	-15944	-1432	-2632	331	-230	230	128	129	8
-10112	-3984	11592	-90	145	-173	-15384	5636	-612	130	0	16	-16248	776	-244	339	-85	-3	-11044	1832	12420	89	-38	-144	-16084	-3648	-1520	48	-32	230	-16208	-1672	-2276	35	-173	304	127	130	8
-10148	-3972	11620	-112	156	-137	-15336	5604	-660	202	1	-6	-16172	644	-332	-25	188	-117	-11092	1880	12328	90	0	-188	-16176	-3664	-1476	38	-28	208	-15948	-1624	-2552	-85	9	249	126	125	8
-10168	-3852	11600	-104	175	-165	-15384	5728	-816	93	-57	-82	-16324	908	92	-41	252	-62	-11180	1928	12316	116	-25	-168	-16124	-3776	-1584	144	-28	204	-15932	-1572	-2576	194	-17	169	127	129	8
-10164	-3944	11632	-108	128	-165	-15344	5616	-688	-43	-33	-23	-16336	900	152	55	240	-42	-11124	1852	12344	97	-16	-157	-16148	-3620	-1476	74	-13	194	-15880	-1396	-2680	347	-222	189	127	124	8
-10060	-3972	11676	-118	123	-165	-15400	5552	-592	-82	-47	-51	-16584	588	-60	148	-159	87	-11116	1904	12364	124	-2	-153	-16100	-3712	-1596	23	-35	191	-15964	-1564	-2604	9	-144	260	127	128	8
-10140	-3976	11696	-91	150	-155	-15408	5532	-604	6	9	25	-16332	576	-56	417	-153	21	-11104	1812	12408	111	-13	-145	-16132	-3672	-1528	18	-15	208	-15944	-1428	-2596	-73	-30	227	132	128	8
-10172	-3908	11748	-110	155	-160	-15384	5564	-728	7	-25	14	-16524	576	-136	233	-109	97	-11156	1896	12376	129	-60	-140	-16068	-3656	-1528	63	-21	224	-15864	-1420	-2676	13	-128	132	129	128	8
-10168	-3936	11636	-79	153	-194	-15372	5756	-780	-73	-43	31	-16148	732	-436	141	41	38	-11112	1808	12336	159	-43	-177	-16160	-3628	-1608	83	0	188	-16000	-1464	-2580	145	-243	181	128	128	8
-10172	-3996	11680	-102	142	-174	-15356	5632	-600	-106	-8	-31	-16424	732	-124	258	-56	71	-11128	1844	12380	109	-43	-130	-16200	-3716	-1536	35	-12	181	-16040	-1620	-2580	16	-68	215	129	124	8
-10120	-4024	11688	-81	157	-155	-15420	5620	-756	-50	-14	19	-16420	796	-160	103	153	56	-11104	1812	12456	150	-27	-159	-16128	-3740	-1620	-10	-52	198	-15952	-1472	-2640	-38	-42	173	128	126	8
-10196	-3900	11612	-114	182	-152	-15336	5736	-720	63	-80	-63	-16356	836	-224	69	13	40	-11132	1876	12372	136	-8	-150	-16104	-3644	-1508	34	-41	188	-16032	-1544	-2704	-51	-170	176	127	129	8
-10164	-3960	11536	-162	179	-173	-15428	5488	-796	9	-116	-45	-16192	728	-176	268	53	-72	-11108	1844	12376	144	-59	-165	-16192	-3572	-1452	41	-29	215	-16072	-1540	-2580	8	-146	123	130	129	8
-10148	-3888	11628	-119	164	-157	-15296	5616	-748	-13	-41	-42	-16344	584	-96	71	67	-25	-11176	1800	12416	137	-31	-159	-16084	-3728	-1636	88	-28	228	-15904	-1480	-2656	206	-137	179	128	129	8
-10096	-3984	11704	-137	123	-173	-15364	5564	-640	-12	-22	5	-16580	716	120	180	-45	45	-11072	1900	12276	135	-39	-171	-16136	-3632	-1400	52	-66	175	-16232	-1652	-2344	-6	-209	234	131	139	8
-10176	-3932	11652	-118	131	-173	-15412	5648	-604	-92	0	-6	-16484	652	4	250	-22	136	-11140	1852	12268	122	-31	-134	-16116	-3744	-1620	23	-24	209	-15852	-1456	-2620	-158	-10	244	124	129	8
-10152	-3960	11612	-99	144	-164	-15432	5588	-644	-50	-25	-34	-16360	772	-380	351	-171	150	-11156	1880	12352	96	-16	-169	-16148	-3668	-1472	80	3	164	-15872	-1468	-2576	222	-250	136	127	121	8
-10160	-3964	11596	-91	162	-162	-15376	5676	-656	-70	-21	-35	-16316	452	-432	218	-108	166	-11164	1904	12248	134	-60	-183	-16164	-3620	-1560	50	4	165	-15964	-1424	-2644	-118	-132	147	129	129	8
-10128	-3928	11628	-77	131	-137	-15392	5648	-804	-57	-57	-47	-16212	936	-264	114	44	-27	-11116	1736	12460	136	-39	-150	-16116	-3708	-1644	50	-21	175	-15896	-1584	-2784	120	-83	255	126	128	8
-10148	-3984	11636	-89	146	-138	-15388	5572	-612	-39	-14	-45	-16444	804	116	238	68	-26	-11152	1856	12356	107	-9	-140	-16124	-3668	-1472	106	-35	194	-16084	-1600	-2568	2	-181	188	134	129	8
-10152	-3900	11556	-93	160	-178	-15384	5668	-548	-3	-19	-32	-16624	708	28	251	-32	147	-11160	1876	12356	129	-78	-150	-16084	-3652	-1600	52	-19	193	-16068	-1540	-2660	-85	-122	131	128	130	8
-10144	-3964	11632	-53	178	-164	-15424	5692	-708	21	-52	-42	-16316	696	-460	68	-90	137	-11144	1912	12392	126	-39	-192	-16152	-3588	-1588	91	2	212	-15844	-1476	-2712	147	-177	177	127	125	8
-10064	-3956	11668	-90	170	-183	-15368	5572	-760	24	-57	-49	-16452	596	-64	220	-149	54	-11076	1916	12416	148	-83	-151	-16172	-3640	-1536	54	-33	152	-15996	-1512	-2688	36	-152	175	127	125	8
-10152	-3992	11644	-110	120	-180	-15408	5580	-756	-22	-81	-22	-16280	696	-204	241	60	68	-11120	1812	12284	96	-30	-149	-16140	-3692	-1528	70	-32	153	-16016	-1580	-2564	-253	-58	131	127	130	8
-10140	-3944	11684	-88	145	-218	-15340	5688	-664	-94	-55	-20	-16356	600	-248	167	-25	9	-11128	1836	12340	116	-34	-153	-16108	-3608	-1612	55	-3	169	-16016	-1564	-2640	37	-203	103	128	129	8
-10108	-3968	11656	-101	159	-170	-15384	5652	-564	-91	-81	-37	-16440	788	-312	431	-134	160	-11120	1864	12260	149	-57	-167	-16112	-3588	-1552	39	-34	190	-15884	-1424	-2724	121	-285	178	127	122	8
-10148	-3916	11660	-54	143	-169	-15364	5584	-700	-5	-34	-70	-16416	816	-176	457	-178	128	-11112	1948	12440	114	-40	-176	-16164	-3672	-1556	61	-66	153	-15996	-1624	-2548	36	-216	210	128	128	8
-10176	-3848	11744	-73	136	-192	-15388	5688	-612	-39	-78	-56	-16316	740	-208	277	-87	68	-11160	1780	12284	115	-24	-146	-16104	-3652	-1432	94	-27	143	-16160	-1604	-2356	163	-188	215	125	132	8
-10124	-3976	11652	-99	162	-166	-15392	5572	-600	-28	-47	-23	-16368	732	64	82	-111	8	-11152	1888	12340	115	-4	-190	-16132	-3708	-1528	78	-13	184	-16156	-1596	-2432	-151	-118	147	126	133	8
-10132	-3916	11752	-92	143	-178	-15392	5688	-536	-49	-84	-31	-16404	744	20	133	-121	-8	-11148	1836	12308	90	-45	-121	-16164	-3724	-1644	44	-26	215	-15868	-1420	-2840	116	-191	78	127	128	8
-10072	-3972	11792	-124	150	-151	-15452	5756	-756	-73	-106	-12	-16376	748	-472	434	-82	221	-11112	1896	12264	102	-48	-176	-16096	-3580	-1652	55	-57	131	-15780	-1296	-2796	269	-331	124	127	128	8
-10180	-3944	11700	-89	151	-194	-15324	5700	-728	-37	-160	-109	-16124	692	-436	278	-148	113	-11168	1848	12376	114	-27	-107	-16136	-3664	-1636	89	-74	148	-15792	-1300	-2708	204	-310	169	128	131	8
-10140	-3912	11628	-102	153	-201	-15312	5612	-716	-42	-169	-89	-16240	716	4	390	-207	59	-11128	1896	12352	136	-49	-173	-16076	-3620	-1384	27	-71	119	-16216	-1840	-2428	-205	-103	211	131	126	8
-10084	-3896	11612	-111	159	-193	-15412	5700	-644	-96	-176	-70	-16496	784	56	485	-44	106	-11124	1864	12304	103	-48	-168	-16112	-3660	-1564	118	-14	169	-15904	-1524	-2516	88	-139	101	128	128	8
-10180	-3996	11588	-110	148	-218	-15444	5664	-668	-105	-154	-73	-16664	772	-216	492	-140	240	-11136	1868	12264	136	-4	-185	-16104	-3676	-1584	99	-36	178	-15944	-1408	-2672	193	-284	72	127	128	8
-10160	-3924	11616	-145	98	-201	-15524	5544	-540	-213	-402	-117	-16268	856	32	607	-341	182	-11112	1824	12280	129	16	-118	-16144	-3724	-1636	18	-101	164	-15928	-1432	-2664	200	-258	218	131	129	8
-10172	-3888	11656	-243	84	-201	-15472	5476	-408	-39	-859	-206	-16444	656	152	737	-312	162	-11108	1932	12452	158	-43	-155	-16152	-3668	-1492	-10	-106	125	-16092	-1504	-2412	-108	-140	172	126	129	8
-10184	-3868	11632	-231	77	-234	-15228	5696	-664	313	-652	-83	-16376	644	-160	737	-320	158	-11116	1888	12376	132	-49	-111	-16176	-3636	-1476	55	-82	151	-15916	-1416	-2444	-98	-139	118	125	126	8
-10100	-3992	11632	-219	119	-225	-15352	5724	-732	66	-279	-50	-16400	696	-104	451	-362	101	-11084	1936	12300	124	-50	-158	-16160	-3604	-1528	101	-49	103	-15860	-1540	-2560	179	-257	99	127	125	8
-10112	-4020	11516	-124	144	-265	-15432	5584	-572	-81	-86	-49	-16348	912	104	418	-197	65	-11060	1816	12392	137	-91	-172	-16108	-3624	-1576	101	-80	132	-15944	-1568	-2696	178	-272	133	124	126	8
-10136	-3992	11700	-148	128	-228	-15312	5644	-660	175	-61	-45	-16528	800	52	335	-118	184	-11136	1824	12296	115	-24	-157	-16164	-3744	-1488	114	-60	120	-16088	-1664	-2576	124	-217	125	127	131	8
-10144	-4020	11724	-154	151	-205	-15412	5608	-660	95	26	-69	-16360	792	-284	275	-180	195	-11092	1908	12408	128	-26	-131	-16092	-3624	-1444	87	-75	164	-15968	-1560	-2468	-62	-156	174	128	129	8
-10120	-4072	11640	-145	171	-184	-15376	5696	-784	-43	96	-22	-16280	804	-360	284	-118	128	-11072	1868	12264	176	-31	-119	-16076	-3724	-1424	73	-70	129	-16036	-1668	-2452	52	-183	65	126	131	8
-10152	-4020	11664	-136	137	-188	-15484	5568	-564	-185	-43	-62	-16392	712	40	191	-154	106	-11080	1836	12368	142	-73	-171	-16188	-3712	-1596	86	-62	159	-15936	-1504	-2700	218	-289	95	138	129	8
-10088	-3976	11680	-150	143	-189	-15336	5432	-484	28	-264	-121	-16596	544	180	46	120	351	-11084	1856	12300	127	-46	-147	-16172	-3600	-1524	100	-19	162	-15916	-1520	-2412	168	-281	237	127	127	8
-10092	-3912	11720	-145	123	-207	-15340	5624	-472	74	-160	-43	-16596	700	212	330	-120	315	-11104	1940	12364	114	-58	-165	-16076	-3612	-1396	81	2	143	-16056	-1720	-2364	-170	-90	228	126	130	8
-10116	-4080	11612	-64	146	-210	-15468	5592	-516	19	-42	-39	-16556	908	-52	633	-105	294	-11140	1808	12368	84	-32	-164	-16048	-3752	-1568	43	11	179	-16004	-1588	-2512	113	-103	110	127	129	8
-10100	-3888	11728	-79	162	-171	-15396	5612	-620	-102	2	-55	-16312	956	12	313	-96	370	-11124	1884	12356	120	-16	-141	-16152	-3584	-1516	52	-33	124	-15992	-1436	-2504	83	-342	64	126	129	8
-10124	-3968	11644	-96	183	-185	-15428	5556	-460	-163	12	-39	-16360	700	-88	361	-8	262	-11092	1840	12320	97	-23	-156	-16136	-3688	-1488	6	-55	164	-15796	-1472	-2568	6	-239	169	133	128	8
-10148	-4052	11736	-115	168	-193	-15360	5532	-532	69	-103	-24	-15788	816	-216	461	215	123	-11132	1888	12316	91	-22	-174	-16184	-3688	-1624	64	-99	152	-16004	-1680	-2328	177	-192	267	130	130	8
-10136	-3932	11660	-110	155	-189	-15404	5576	-344	-19	-327	-122	-16300	1052	-84	317	-205	208	-11072	1976	12428	111	-43	-157	-16128	-3660	-1452	68	-69	150	-15844	-1420	-2564	16	-54	161	126	129	8
-10208	-3952	11600	-154	139	-188	-15324	5612	-444	115	-279	-74	-16724	920	-88	305	-116	180	-11112	1832	12408	104	-34	-142	-16144	-3712	-1500	136	-36	184	-15856	-1480	-2620	144	-136	140	134	132	8
-10112	-3892	11752	-160	128	-200	-15356	5636	-476	86	-258	-50	-16360	780	-168	583	-208	198	-11156	1872	12380	133	-59	-157	-16120	-3668	-1548	23	-79	146	-15864	-1376	-2728	51	-126	153	132	128	8
-10184	-4008	11752	-140	100	-204	-15336	5580	-592	82	-231	-54	-16736	1016	104	768	-170	169	-11088	1876	12408	138	-69	-164	-16088	-3688	-1580	67	-111	127	-15924	-1452	-2684	151	-283	104	124	129	8
-10272	-3812	11716	-295	71	-250	-15352	5384	-304	3	-687	-43	-16232	884	32	617	-290	119	-11164	1876	12384	148	-21	-137	-16112	-3616	-1428	83	-86	144	-16104	-1620	-2576	37	-299	202	125	130	8
-10244	-4128	11772	-448	96	-369	-15384	5604	-312	725	-546	-28	-15696	748	260	960	-235	200	-11072	1924	12396	92	-26	-147	-16092	-3704	-1408	79	-88	148	-16192	-1728	-2124	-66	-186	160	127	128	8
-9976	-4096	11568	-505	123	-398	-15344	5756	-688	801	-272	25	-16316	1152	188	861	-353	81	-11096	1876	12256	111	-82	-142	-16092	-3684	-1444	103	-17	155	-15928	-1596	-2408	40	5	84	129	128	8
-10044	-4120	11588	-246	170	-229	-15336	5544	-628	501	-25	-6	-16332	944	252	519	-339	26	-11112	1888	12412	91	-44	-164	-16120	-3652	-1432	66	-22	133	-16084	-1648	-2508	198	-371	67	124	133	8
-10028	-4156	11656	-142	163	-233	-15512	5528	-576	207	129	-8	-16244	912	56	243	-264	48	-11116	1840	12276	119	-52	-156	-16096	-3716	-1652	55	-45	139	-15928	-1452	-2424	120	-299	199	127	128	8
-10064	-4112	11620	-129	216	-161	-15396	5588	-476	72	181	28	-16640	1136	12	291	-135	160	-11140	1840	12396	117	-58	-154	-16208	-3664	-1504	107	-17	145	-15992	-1600	-2260	159	-133	219	126	125	8
-10132	-4000	11684	-53	207	-156	-15420	5876	-796	-26	168	-10	-16148	756	-544	149	65	51	-11092	1996	12296	88	-40	-187	-16160	-3644	-1352	29	2	138	-16104	-1680	-2452	-6	-18	130	123	130	8
-10132	-4048	11680	-76	208	-164	-15360	5660	-564	-141	38	-77	-16148	816	-260	94	0	14	-11104	1884	12344	79	-42	-192	-16092	-3696	-1552	83	-4	135	-16052	-1812	-2628	122	-168	100	128	129	8
-10152	-4120	11708	-113	129	-229	-15556	5516	-496	-57	-164	-56	-16356	904	-132	140	-63	43	-11148	1840	12352	146	-27	-156	-16108	-3676	-1532	93	-17	171	-15820	-1532	-2716	244	-308	126	124	129	8
-10052	-3964	11684	-215	110	-211	-15332	5508	-448	180	-174	-62	-16544	840	256	451	-175	70	-11108	1796	12304	110	15	-133	-16116	-3732	-1484	65	-8	151	-15952	-1472	-2360	230	-158	255	129	129	8
-10168	-3944	11748	-218	123	-243	-15316	5516	-344	229	-136	-51	-16304	740	268	578	-125	-36	-11084	1876	12392	126	-83	-161	-16152	-3668	-1364	-28	-7	117	-16204	-1716	-2224	20	-123	288	125	130	8
-10088	-4204	11636	-169	126	-226	-15440	5536	-428	314	-11	10	-16276	908	196	748	-222	-84	-11108	1932	12372	107	-30	-201	-16156	-3708	-1444	-32	-33	190	-16096	-1660	-2268	-187	-19	178	127	133	8
-10068	-4124	11628	-128	122	-207	-15364	5648	-480	260	33	-1	-16580	836	24	564	-204	62	-11128	1900	12272	89	-79	-168	-16124	-3620	-1584	80	39	166	-15944	-1488	-2536	51	-269	56	127	128	8
-10144	-4032	11608	-81	165	-188	-15468	5676	-532	41	42	-18	-16264	944	-60	574	-8	63	-11136	1884	12336	81	-47	-162	-16132	-3664	-1640	63	1	175	-15984	-1488	-2768	187	-310	122	125	128	8
-10112	-4052	11648	-111	190	-179	-15388	5636	-576	97	-9	-30	-16276	952	-200	296	-22	99	-11092	1800	12348	157	-51	-129	-16100	-3772	-1512	75	-30	173	-16016	-1656	-2680	98	-204	272	125	125	8
-10092	-4036	11644	-106	156	-189	-15412	5560	-640	80	-52	-56	-16180	812	180	65	-130	24	-11072	1936	12316	126	-14	-171	-16196	-3696	-1524	60	-43	175	-16092	-1748	-2336	28	-14	221	128	131	8
-10196	-3940	11704	-177	110	-216	-15380	5556	-392	70	-165	-56	-16368	800	112	352	14	41	-11168	1832	12280	123	-51	-120	-16176	-3656	-1596	62	-48	217	-15968	-1528	-2576	108	-87	164	128	130	8
-10272	-3912	11356	-243	124	-247	-15508	5608	-396	187	-104	-8	-16372	928	192	348	-183	84	-11088	1860	12392	142	-35	-169	-16116	-3644	-1528	74	-52	196	-15916	-1436	-2524	314	-341	111	129	128	8
-10088	-4048	11672	-168	136	-202	-15340	5752	-708	89	-2	-37	-16476	912	60	341	-187	115	-11112	1932	12312	152	-18	-140	-16156	-3736	-1540	71	-52	200	-15984	-1620	-2352	186	-287	246	123	125	8
-10100	-4028	11660	-153	184	-188	-15496	5596	-476	-24	6	-60	-16368	692	-156	360	155	101	-11028	1908	12380	182	-8	-156	-16156	-3676	-1376	63	-30	210	-15972	-1624	-2376	-196	-25	253	127	131	8
-10032	-4108	11640	-188	127	-180	-15360	5608	-528	55	-63	-26	-16324	880	28	357	95	12	-11136	1920	12392	143	-66	-113	-16160	-3716	-1316	28	-24	182	-16080	-1520	-2456	-143	-56	182	126	132	8
-10060	-4160	11540	-199	168	-169	-15408	5660	-720	32	-44	-69	-16252	924	44	268	-34	50	-11152	1840	12352	108	-48	-168	-16124	-3624	-1600	34	14	178	-15932	-1504	-2560	90	-291	115	125	129	8
-10044	-4000	11616	-102	144	-151	-15424	5592	-436	-32	18	-27	-16264	948	380	186	-109	36	-11104	1844	12380	107	-63	-152	-16160	-3712	-1580	73	17	195	-15912	-1548	-2480	91	-204	159	124	129	8
-10024	-4112	11772	-76	190	-171	-15500	5484	-312	-61	14	-2	-16428	976	356	193	9	105	-11172	1892	12432	96	-40	-143	-16140	-3660	-1536	85	-52	189	-16008	-1624	-2416	210	-185	250	124	128	8
-10064	-3988	11676	-120	128	-172	-15364	5596	-544	103	4	38	-16316	812	260	122	-54	69	-11028	1932	12376	102	11	-164	-16156	-3752	-1416	30	-73	202	-16124	-1740	-2192	-73	-150	254	123	126	8
-10108	-4060	11612	-94	125	-203	-15352	5644	-592	77	53	-11	-16392	740	132	177	-179	39	-11172	1780	12304	118	-30	-177	-16084	-3720	-1520	9	-12	154	-15896	-1540	-2420	74	-83	170	121	129	8
-10128	-4092	11648	-94	148	-161	-15436	5640	-704	76	75	-2	-16420	824	228	317	-56	34	-11156	1904	12324	117	-36	-159	-16160	-3656	-1496	68	31	174	-15928	-1564	-2544	304	-188	183	124	127	8
-10216	-4032	11888	-111	149	-148	-15400	5636	-424	131	-53	23	-16484	868	64	351	-72	41	-11124	1872	12200	67	-69	-178	-16136	-3692	-1432	9	-41	183	-16116	-1528	-2580	-21	-87	182	125	127	8
-10048	-4128	11612	-117	133	-162	-15440	5620	-636	237	-51	10	-16436	812	76	396	-158	75	-11100	1824	12392	140	-48	-175	-16224	-3768	-1624	-57	-125	167	-15972	-1608	-2552	10	-186	182	127	131	8
-10152	-3992	11684	-110	116	-193	-15424	5656	-628	265	-8	-6	-16280	780	-188	165	-215	110	-11168	1924	12424	164	-74	-201	-16104	-3596	-1464	-307	-384	94	-15936	-1432	-2572	-104	-135	145	127	128	8
-10124	-4124	11708	-114	141	-229	-15384	5608	-704	-72	-90	23	-16300	824	-132	239	-277	92	-11140	1780	12348	144	-79	-179	-16164	-3748	-1588	-349	-408	151	-15844	-1500	-2704	86	-241	165	124	127	8
-10096	-4088	11652	-159	135	-187	-15436	5696	-548	-32	-82	-14	-16416	792	-224	312	-72	64	-11156	1808	12388	215	-111	-212	-16316	-3780	-1420	-573	-944	-41	-16080	-1728	-2672	-172	-303	166	127	130	8
-10088	-4052	11652	-128	78	-226	-15400	5744	-600	45	-177	-27	-16192	968	-120	204	-99	73	-11064	1796	12456	271	103	-101	-16016	-3612	-1248	-899	-973	62	-15996	-1440	-2396	-211	-485	139	123	129	8
-10044	-4060	11728	-119	155	-226	-15416	5812	-636	-78	-152	-40	-16480	992	272	256	-202	202	-11196	1968	12280	209	-101	-138	-16096	-3604	-1396	-644	-579	140	-16040	-1768	-2292	-458	-602	139	122	132	8
-10176	-4040	11708	-172	160	-230	-15508	5440	-444	85	-185	-87	-16380	784	100	315	-119	103	-11404	1788	12228	217	-137	-149	-16200	-3872	-1564	-566	-651	103	-15904	-1688	-2244	-309	-649	63	128	127	8
-10084	-4096	11704	-188	169	-220	-15356	5588	-644	39	-255	3	-16544	840	116	325	-83	113	-11160	1980	12356	333	-21	-84	-16112	-3312	-1160	-976	-881	76	-16152	-1396	-2048	-356	-602	7	132	124	8
-10012	-4148	11556	-168	150	-222	-15436	5736	-592	-64	-208	-19	-16340	964	96	529	-73	111	-11016	1940	12300	245	-49	-98	-16068	-3808	-1376	-838	-493	124	-16072	-1516	-2096	-660	-591	97	126	127	8
-10028	-4032	11656	-184	171	-210	-15396	5744	-512	-170	-176	-61	-16412	1108	220	195	-143	76	-11120	1868	12376	161	-87	-144	-16144	-3816	-1376	-386	-233	171	-15928	-1656	-2228	-200	-600	136	129	128	8
-10092	-4088	11640	-177	125	-195	-15340	5548	-292	-151	-120	-32	-16392	1036	180	148	-92	121	-11072	2024	12400	237	-17	-104	-16136	-3656	-1332	-374	-217	174	-15996	-1736	-2112	-168	-335	171	130	127	8
-10068	-4152	11576	-149	143	-211	-15348	5608	-384	91	-101	-39	-16372	1024	400	298	-173	98	-11088	1904	12332	173	-102	-182	-16116	-3844	-1316	-269	-79	201	-16116	-1628	-2072	-223	-243	196	127	132	8
-10092	-4064	11576	-115	176	-187	-15380	5572	-404	-23	-13	16	-16308	944	404	210	38	98	-11104	1896	12296	123	-47	-174	-16176	-3728	-1396	-181	-2	195	-16052	-1412	-2432	-79	-186	49	123	131	8
-10084	-4100	11720	-88	137	-168	-15368	5556	-372	-87	31	-29	-16376	1112	204	60	41	43	-11024	1916	12304	129	-142	-208	-16088	-3556	-1404	-513	-226	141	-15892	-1424	-2428	-198	-344	89	130	127	8
-10120	-4152	11648	-121	170	-203	-15368	5576	-436	-2	17	-3	-16476	676	108	-40	-51	77	-11212	1776	12372	297	39	-64	-16184	-3584	-1436	-868	-501	84	-16008	-1576	-2308	-22	-586	156	121	130	8
-10152	-4052	11584	-120	121	-179	-15396	5608	-608	109	0	3	-16244	908	188	231	-169	-11	-11112	1908	12288	310	-67	-46	-16080	-3624	-1424	-831	-502	116	-16092	-1696	-1940	-275	-585	168	124	129	8
-10180	-4132	11644	-100	145	-148	-15412	5616	-536	142	-14	45	-16488	860	188	228	-80	14	-11052	2092	12404	219	-36	-96	-16088	-3632	-1244	-564	-164	202	-15836	-1328	-2140	-141	-163	144	123	131	8
-10188	-4096	11612	-87	159	-171	-15412	5748	-784	66	28	28	-16472	992	-20	172	-49	109	-11068	1940	12384	146	-89	-143	-16112	-3672	-1364	-310	-19	222	-15944	-1516	-2348	199	-447	139	124	127	8
-10108	-4132	11556	-104	163	-166	-15380	5716	-652	2	35	-50	-16216	844	-160	61	-204	92	-11080	2012	12328	96	-83	-202	-16180	-3756	-1524	-169	47	260	-15800	-1472	-2380	109	-416	237	121	130	8
-10096	-4028	11732	-75	133	-198	-15380	5676	-736	-34	-73	-57	-16368	948	-216	74	-237	-15	-11028	2020	12432	92	-43	-153	-16144	-3808	-1356	160	223	227	-16048	-1612	-2308	-154	-238	240	127	133	8
-10060	-4084	11700	-128	138	-167	-15356	5820	-648	-95	-149	-30	-16328	1060	-284	138	-155	87	-11112	1864	12304	99	3	-186	-16172	-3580	-1464	21	39	215	-16012	-1476	-2412	108	-185	162	123	129	8
-10124	-3976	11500	-127	163	-187	-15388	5844	-748	-270	-197	-131	-16264	744	-176	-221	66	204	-11068	1952	12364	145	-48	-167	-16160	-3648	-1456	-115	-36	172	-15984	-1420	-2400	15	-401	171	130	131	8
-10176	-4076	11568	-119	188	-212	-15388	5476	-488	-288	-165	-133	-16332	656	80	2	100	159	-11108	1956	12272	82	-10	-119	-16100	-3836	-1508	152	99	211	-15776	-1464	-2448	118	-356	239	122	129	8
-10060	-4080	11724	-143	122	-194	-15392	5584	-324	-93	-256	-98	-16252	940	308	39	-8	31	-11068	1916	12236	113	-11	-84	-16164	-3692	-1444	464	209	253	-16036	-1616	-2096	273	-288	270	121	126	8
-9960	-4148	11716	-64	160	-162	-15364	5600	-332	-213	-100	-62	-16648	1108	724	112	-17	41	-11080	2072	12456	29	26	-131	-16168	-3744	-1336	533	356	337	-16012	-1556	-2380	-331	240	309	124	126	8
-10048	-4152	11592	6	229	-131	-15364	5648	-492	-237	-24	-74	-16260	896	256	24	166	108	-11048	1908	12392	-24	60	-155	-16136	-3852	-1468	848	523	346	-15964	-1464	-2492	314	206	173	124	128	8
-10092	-4084	11720	91	226	-99	-15284	5832	-648	-374	88	-72	-16068	844	60	-130	167	34	-11108	1936	12248	-63	85	-159	-16040	-3596	-1576	952	613	423	-15868	-1360	-2544	472	204	242	123	127	8
-10056	-4152	11672	109	280	-101	-15344	5552	-656	-523	141	-106	-16188	988	92	-484	320	28	-11164	1792	12328	-34	68	-160	-16116	-3728	-1500	1032	571	375	-15920	-1480	-2284	485	265	407	120	124	8
-10096	-4068	11612	212	264	-40	-15396	5636	-628	-547	229	-91	-16492	1180	24	-760	382	234	-11116	1956	12356	-14	-42	-179	-16192	-3620	-1192	967	548	346	-16332	-1916	-2192	145	470	375	122	130	8
-10136	-4024	11588	237	260	14	-15420	5644	-536	-708	312	-95	-16812	1044	-192	-754	287	198	-11040	1940	12468	-60	20	-183	-16136	-3600	-1380	730	381	359	-15980	-1448	-2424	221	508	293	123	125	8
-10260	-3888	11684	140	248	-85	-15424	5780	-620	-864	238	-128	-16240	692	-316	-593	357	16	-11112	1912	12420	3	-5	-160	-16128	-3632	-1440	713	358	302	-16012	-1580	-2468	288	-20	144	124	126	8
-10224	-3904	11788	-74	177	-135	-15572	5508	60	-1042	-332	-108	-16332	828	-188	-178	356	17	-11148	1816	12340	15	-44	-193	-16144	-3680	-1480	611	261	270	-15812	-1352	-2272	155	59	268	122	125	8
-10088	-4124	11704	-233	143	-224	-15276	5508	-248	-77	-500	-155	-16324	996	440	66	-60	62	-11112	1912	12500	114	-25	-133	-16144	-3616	-1304	436	85	228	-16256	-1772	-2116	-32	117	273	126	127	8
-10140	-4116	11656	-165	133	-196	-15352	5740	-244	130	-308	-102	-16408	904	548	178	39	80	-11100	1828	12420	91	-19	-142	-16180	-3540	-1292	181	-31	236	-16156	-1524	-2068	-273	137	309	123	131	8
-10088	-4084	11656	-105	171	-212	-15400	5628	-292	-23	-114	-145	-16216	1112	380	-117	-33	70	-11096	1952	12284	52	-29	-204	-16108	-3640	-1384	42	-18	229	-16056	-1540	-2168	-391	49	172	121	127	8
-10116	-4172	11640	-65	192	-196	-15400	5576	-420	-12	-37	-25	-16960	1072	324	174	52	124	-11072	1960	12392	95	33	-199	-16148	-3692	-1436	101	-17	182	-15924	-1620	-2252	-170	-186	86	123	124	8
-10096	-4004	11600	-58	241	-120	-15492	5824	-640	-201	10	-8	-16444	896	-64	138	204	81	-11084	1936	12352	113	-25	-156	-16168	-3656	-1500	172	-22	210	-15952	-1444	-2336	-94	-31	157	123	127	8
-10060	-4068	11676	-68	237	-158	-15332	5648	-668	-452	124	-33	-16260	808	-136	164	132	67	-11204	1796	12272	147	-52	-159	-16204	-3544	-1324	98	-138	156	-15964	-1620	-2340	133	-99	306	124	125	8
-10168	-3916	11652	-14	198	-112	-15548	5456	-388	-378	-35	-8	-16236	1000	172	-216	160	152	-11104	1924	12312	122	-36	-158	-16088	-3664	-1288	-103	-211	157	-16112	-1788	-1892	-197	-49	350	121	134	8
-10080	-4120	11560	-92	182	-150	-15360	5496	-348	-147	-114	-15	-16456	1036	56	-202	98	169	-11092	1924	12372	130	-39	-170	-16088	-3824	-1364	-25	-97	202	-15944	-1600	-2124	-118	195	250	121	128	8
-10172	-3888	11672	-162	121	-172	-15428	5560	-132	-158	-442	-96	-16420	868	228	6	102	44	-11208	1832	12260	165	-90	-164	-16324	-3652	-1304	-70	-194	148	-16044	-1488	-2228	178	-65	90	122	127	8
-10080	-4080	11620	-135	128	-140	-15420	5576	-276	9	-308	-35	-16564	848	492	425	-104	30	-11180	1972	12216	216	-127	-265	-16140	-3460	-1304	-695	-519	93	-16120	-1416	-2332	160	-88	72	123	128	8
-10088	-4064	11540	-152	136	-177	-15384	5620	-292	263	-201	-4	-16264	968	508	516	11	14	-11104	1840	12412	163	-110	-177	-16080	-3668	-1372	-712	-422	149	-15916	-1476	-2320	-464	-311	285	124	124	8
-10124	-4068	11636	-89	136	-177	-15344	5660	-424	152	-14	-19	-16232	1168	152	91	34	160	-11108	1928	12284	132	-86	-204	-16132	-3644	-1384	-262	-48	222	-16084	-1656	-2156	-440	-107	207	123	128	8
-10156	-4040	11588	-67	154	-200	-15364	5608	-412	10	75	-15	-16212	936	192	-123	-109	-16	-11112	1864	12292	97	-74	-169	-16180	-3524	-1404	-139	125	237	-16156	-1580	-2568	-168	113	207	124	128	8
-10108	-4020	11740	-43	148	-178	-15412	5484	-512	-14	124	44	-16392	908	200	-31	-28	-24	-11100	1852	12404	67	-56	-184	-16104	-3692	-1320	44	244	236	-16164	-1584	-2776	-111	-40	172	137	128	8
-10100	-4128	11684	-38	183	-132	-15384	5676	-440	-82	202	102	-16592	1056	156	-63	180	105	-11128	1828	12408	94	18	-183	-16160	-3740	-1588	179	280	299	-15864	-1612	-2600	112	-123	246	123	127	8
-10148	-4032	11684	-54	172	-137	-15392	5732	-636	-193	276	76	-16172	1064	-332	-300	104	150	-11116	1852	12396	79	37	-111	-16156	-3640	-1560	279	314	314	-15828	-1540	-2396	298	9	277	122	127	8
-10172	-4008	11760	-13	207	-107	-15304	5744	-616	-363	312	57	-16168	916	-280	-416	83	39	-11104	1920	12236	110	-5	-136	-16072	-3644	-1440	232	303	303	-16084	-1600	-2312	101	199	349	122	136	8
-10084	-4012	11624	18	234	-150	-15376	5708	-484	-392	273	19	-16236	996	0	-335	134	98	-11156	1972	12392	85	17	-129	-16132	-3632	-1428	221	276	309	-16092	-1516	-2420	-67	227	266	122	129	8
-10124	-4112	11484	-34	208	-179	-15408	5612	-372	-428	256	13	-16168	1052	60	-208	129	50	-11148	1876	12252	105	-20	-177	-16160	-3604	-1544	176	204	353	-15996	-1312	-2596	88	-75	181	122	127	8
-10104	-4032	11548	-12	187	-115	-15308	5568	-468	-355	212	20	-16684	1160	132	-251	39	64	-11188	1916	12404	153	-48	-143	-16216	-3564	-1512	155	175	291	-16080	-1336	-2448	-54	-113	267	123	128	8
-10100	-4056	11680	-31	172	-164	-15400	5564	-380	-321	163	88	-16412	948	224	-239	46	-89	-11124	1912	12340	143	-42	-120	-16228	-3536	-1528	63	110	242	-16000	-1400	-2412	-98	95	394	123	124	8
-10152	-4000	11560	18	180	-136	-15436	5604	-444	-270	131	71	-16336	784	320	-520	202	61	-11120	1972	12400	87	-75	-104	-16132	-3568	-1348	56	143	235	-16224	-1816	-2164	-302	241	302	125	129	8
-10104	-4032	11592	-18	176	-146	-15344	5520	-396	-262	209	103	-16256	1184	52	-295	153	-15	-11120	1828	12332	72	-4	-144	-16080	-3580	-1376	56	139	235	-16016	-1620	-2408	-316	247	250	123	128	8
-10156	-4020	11592	-32	160	-90	-15384	5688	-416	-195	200	61	-16116	1256	340	-315	-34	-149	-11088	1840	12348	88	-34	-187	-16180	-3544	-1444	2	140	288	-15932	-1504	-2524	137	-77	152	124	128	8
-10136	-4052	11632	-20	183	-132	-15416	5688	-564	-174	185	29	-16196	844	-36	-384	-92	-132	-11112	1772	12448	73	-55	-174	-16192	-3672	-1560	-37	129	212	-15920	-1440	-2348	152	-192	297	126	127	8
-10204	-4036	11664	-4	173	-157	-15424	5688	-536	-118	138	48	-16580	812	-96	-414	21	-114	-11096	1824	12312	77	-40	-163	-16172	-3620	-1576	4	114	200	-15976	-1392	-2388	-33	175	377	125	129	8
-10164	-3940	11644	-56	173	-157	-15336	5732	-560	-86	109	53	-16676	820	-52	-194	117	-90	-11072	1928	12348	57	-43	-181	-16148	-3656	-1548	16	120	207	-15924	-1440	-2480	111	276	351	123	123	8
-10148	-3968	11584	-46	163	-125	-15380	5692	-592	-126	92	7	-16472	856	268	80	81	-103	-11140	1900	12324	99	-28	-166	-16136	-3580	-1456	38	149	227	-16068	-1412	-2404	112	119	251	125	129	8
-10116	-4040	11592	-27	194	-152	-15344	5724	-432	-163	67	24	-16492	940	368	219	127	-10	-11120	1828	12360	93	-72	-177	-16220	-3604	-1476	-45	130	203	-15952	-1428	-2528	121	-24	254	125	128	8
-10104	-4000	11712	-68	143	-143	-15380	5652	-384	123	61	-14	-16316	864	76	288	207	-84	-11108	1880	12380	106	-78	-179	-16188	-3596	-1580	0	136	242	-16016	-1392	-2440	114	29	351	126	129	8
-10144	-3980	11636	-84	174	-121	-15312	5764	-468	55	73	-21	-16268	972	-36	54	203	-38	-11156	1936	12248	102	-89	-184	-16208	-3596	-1596	-34	139	205	-15960	-1412	-2172	-18	191	431	127	125	8
-10196	-4008	11588	-114	173	-116	-15368	5752	-640	76	54	-27	-16372	984	144	11	319	-11	-11024	1908	12340	101	-57	-213	-16104	-3692	-1500	-24	143	277	-15996	-1440	-2396	-399	394	300	132	130	8
-10108	-3996	11628	-105	163	-100	-15408	5648	-568	73	23	-23	-16608	956	-76	-2	356	-62	-11124	1816	12224	91	0	-192	-16164	-3512	-1648	-17	120	265	-15856	-1396	-2656	153	249	172	127	127	8
-10224	-3888	11744	-113	175	-95	-15348	5784	-640	-17	-10	-23	-16436	1020	-44	-63	288	-17	-11076	1828	12400	114	-32	-207	-16176	-3576	-1740	-6	93	239	-15888	-1284	-2724	82	213	250	128	128	8
-10180	-3968	11604	-139	195	-113	-15360	5736	-700	-94	26	-32	-16372	928	-92	-177	359	-47	-11220	1864	12384	156	-3	-163	-16240	-3492	-1736	81	97	189	-15944	-1400	-2772	240	268	438	127	121	8
-10080	-4000	11568	-127	147	-150	-15324	5676	-400	-175	62	-33	-16288	880	-48	-281	374	-106	-11124	1964	12412	136	-57	-136	-16132	-3580	-1452	67	87	189	-16364	-1596	-2632	-662	506	241	126	130	8
-10096	-4036	11724	-117	165	-139	-15292	5680	-388	-12	40	-51	-16532	980	76	85	319	-66	-11152	1848	12432	112	30	-211	-16112	-3692	-1712	91	36	246	-15908	-1316	-3056	13	389	179	127	126	8
-10212	-3956	11656	-111	201	-149	-15380	5816	-584	15	45	-14	-16532	936	-68	250	240	95	-11136	1796	12344	138	48	-181	-16172	-3516	-1700	154	19	271	-15952	-1236	-2876	107	33	120	125	127	8
-10196	-3944	11684	-106	175	-156	-15352	5736	-632	-19	54	-62	-16208	852	-300	289	241	-5	-11136	1784	12348	137	69	-179	-16240	-3520	-1596	119	-37	199	-16108	-1204	-2784	-284	220	267	126	128	8
-10124	-3960	11568	-100	159	-167	-15316	5632	-512	-37	24	-61	-16260	888	132	374	265	-48	-11032	1800	12436	133	-48	-151	-16216	-3612	-1560	190	-43	196	-15848	-1464	-2676	67	469	357	127	127	8
-10116	-4000	11660	-126	171	-152	-15396	5660	-428	120	52	-63	-16336	948	92	199	392	-47	-11120	1916	12360	137	3	-150	-16136	-3504	-1312	123	-3	181	-16328	-1752	-2460	-167	369	246	126	135	8
-10116	-4048	11612	-142	159	-99	-15376	5676	-400	159	79	-51	-16444	1000	60	224	407	-17	-11076	1896	12292	93	24	-198	-16096	-3572	-1536	98	-10	182	-16008	-1384	-2584	-145	401	219	130	131	8
-10120	-4008	11640	-155	189	-100	-15392	5768	-544	98	61	-101	-16536	1076	-64	359	453	15	-11176	1812	12316	102	6	-139	-16112	-3532	-1652	180	36	196	-15868	-1436	-2792	259	147	188	128	127	8
-10220	-3984	11584	-153	229	-168	-15320	5764	-704	23	66	-40	-16356	896	-376	86	252	63	-11116	1872	12392	118	-1	-173	-16232	-3480	-1568	104	-19	196	-15856	-1148	-2780	100	91	231	126	127	8
-10152	-4028	11604	-109	183	-196	-15296	5820	-540	-28	18	-84	-16100	764	-268	-51	325	18	-11084	1828	12372	125	58	-165	-16240	-3468	-1612	169	-9	221	-15848	-1216	-2844	180	342	389	127	127	8
-10092	-4000	11608	-114	160	-175	-15396	5632	-376	-6	-7	-111	-16424	896	-240	23	291	-101	-11124	1812	12268	112	86	-200	-16196	-3592	-1648	204	-79	145	-16016	-1372	-2688	70	637	432	128	123	8
-10220	-4004	11560	-141	182	-128	-15376	5684	-492	41	0	-70	-16480	932	-116	163	397	-41	-11104	1868	12388	102	54	-154	-16168	-3556	-1724	272	-76	198	-16008	-1400	-3120	-239	739	179	127	129	8
-10092	-4020	11704	-133	208	-139	-15404	5724	-668	48	-62	-110	-16508	1072	-348	402	373	-14	-11176	1772	12368	179	39	-134	-16068	-3636	-1536	260	-127	200	-15888	-1352	-3052	146	83	17	131	127	8
-10220	-3940	11656	-128	177	-175	-15296	5804	-708	-120	-4	-118	-16352	796	-556	312	198	72	-11228	1876	12312	148	-12	-136	-16112	-3528	-1556	127	-123	184	-15884	-1436	-2820	40	-74	182	126	129	8
-10248	-3932	11624	-167	148	-184	-15368	5672	-648	-152	-32	-110	-16284	832	-148	286	299	-71	-11224	1896	12396	165	-16	-126	-16212	-3536	-1452	127	-96	160	-15864	-1392	-2568	-85	163	305	127	127	8
-10104	-3980	11608	-151	152	-240	-15344	5616	-384	-26	-28	-140	-16408	896	-128	248	270	-15	-11072	1984	12392	130	-63	-167	-16192	-3464	-1388	225	-36	167	-16320	-1524	-2548	15	252	256	126	129	8
-10084	-4028	11584	-119	148	-212	-15260	5660	-556	72	-11	-86	-16444	856	-92	301	224	-24	-11120	1840	12348	122	-40	-216	-16188	-3536	-1472	83	-108	110	-15936	-1068	-3068	86	483	256	128	128	8
-10160	-4020	11588	-122	154	-227	-15380	5580	-680	-31	76	-81	-16364	852	164	340	86	-18	-11084	1840	12356	159	53	-161	-16112	-3632	-1604	249	-25	126	-15972	-1488	-3112	288	220	248	127	128	8
-10124	-4072	11584	-123	191	-169	-15360	5632	-624	46	59	-63	-16264	752	-352	163	286	-115	-11140	1840	12224	162	-33	-206	-16120	-3624	-1544	332	-26	126	-15808	-1492	-2908	347	103	277	128	127	8
-10100	-4004	11600	-120	180	-127	-15396	5732	-536	104	9	-54	-16508	992	-216	275	306	-123	-11132	1768	12352	146	-61	-177	-16072	-3576	-1356	140	-80	138	-16052	-1588	-2556	331	222	414	127	133	8
-10148	-3956	11716	-106	180	-148	-15392	5632	-624	139	-12	-99	-16284	808	-488	99	388	-74	-11212	1872	12280	151	-13	-130	-16152	-3516	-1408	80	7	133	-16080	-1344	-2804	-184	318	215	125	128	8
-10136	-3992	11628	-113	165	-144	-15384	5616	-460	41	41	-75	-16492	908	-308	71	291	-62	-11188	1868	12276	98	-66	-193	-16088	-3556	-1428	115	-6	133	-15892	-1328	-3076	197	-22	178	126	127	8
-10120	-4028	11696	-104	151	-151	-15492	5624	-464	142	-8	-95	-16344	692	-516	-3	316	-37	-11088	1924	12328	153	5	-222	-16216	-3632	-1744	144	-36	140	-15824	-1120	-3344	273	6	242	127	127	8
-10168	-3996	11584	-109	197	-154	-15296	5656	-596	61	-29	-118	-16328	812	-412	50	255	-80	-11172	1832	12396	162	-11	-159	-16212	-3684	-1776	209	-99	138	-15732	-1304	-3376	305	317	338	127	123	8
-10172	-4036	11632	-137	170	-138	-15340	5656	-784	44	-14	-111	-16160	772	-364	-61	446	-95	-11104	1836	12300	169	1	-160	-16092	-3600	-1660	319	-92	174	-15908	-1428	-3168	-57	583	276	127	128	8
-10184	-4008	11528	-136	204	-154	-15336	5568	-656	107	-15	-66	-16272	956	-372	-245	591	-256	-11216	1840	12332	171	-13	-139	-16084	-3552	-1424	265	-107	184	-15920	-1396	-3048	85	148	171	127	127	8
-10140	-3976	11580	-122	156	-146	-15552	5512	-528	225	-55	-120	-15992	888	-604	-557	889	-325	-11184	1932	12372	117	-58	-171	-16104	-3472	-1284	117	-115	129	-15908	-1424	-2892	281	-135	163	127	128	8
-10092	-3896	11516	-120	185	-104	-15304	5764	-784	290	-93	-147	-15916	940	-708	-733	1461	-723	-11120	1928	12356	151	-40	-170	-16204	-3560	-1616	190	-75	109	-15816	-1356	-3012	365	-18	346	127	125	8
-10272	-3984	11600	-169	187	-157	-15360	5672	-632	-58	-5	-109	-15668	1232	-512	-745	2152	-1174	-11172	1900	12288	123	-14	-164	-16156	-3624	-1484	142	-109	100	-16352	-1552	-3164	-38	333	236	128	127	8
-10192	-4008	11500	-141	160	-194	-15364	5496	-408	-22	54	-49	-15444	1368	-228	-621	3119	-1867	-11156	1884	12424	135	19	-144	-16080	-3624	-1404	131	-53	110	-15996	-1332	-3064	-37	231	173	129	128	8
-10112	-4108	11648	-126	202	-139	-15476	5476	-520	265	29	-83	-15492	1360	-188	-227	3952	-2588	-11188	1872	12288	153	-45	-159	-16084	-3464	-1428	5	29	122	-15872	-1392	-2940	21	100	164	130	128	8
-10204	-3904	11648	-142	170	-95	-15312	5624	-640	245	78	-41	-16168	660	-496	444	4166	-2872	-11140	1964	12376	118	-62	-148	-16196	-3668	-1516	69	55	158	-15772	-1236	-3168	411	-123	273	130	128	8
-10216	-3904	11560	-62	161	-155	-15316	5648	-680	99	115	-51	-16948	-368	-956	897	3520	-2863	-11156	1808	12344	123	-8	-189	-16176	-3644	-1572	181	7	165	-15804	-1384	-2888	400	128	497	129	128	8
-10088	-4092	11592	-102	148	-126	-15440	5420	-620	191	85	-17	-17564	-628	-1688	824	2434	-2096	-11196	1820	12348	123	-34	-174	-16148	-3632	-1528	130	-30	145	-15796	-1152	-3044	-40	386	334	129	128	8
-10140	-3972	11644	-106	140	-99	-15436	5676	-740	345	-38	-84	-17024	-240	-1836	627	1429	-1090	-11136	1892	12276	141	17	-171	-16100	-3572	-1504	168	-12	164	-15784	-1420	-3272	340	209	229	128	128	8
-10200	-3912	11724	-147	159	-143	-15460	5868	-920	-7	-102	-98	-16620	52	-1840	566	909	-456	-11260	1788	12188	136	-6	-160	-16076	-3736	-1560	158	-13	138	-15996	-1500	-2972	287	-10	232	128	128	8
-10244	-3956	11468	-131	155	-161	-15392	5628	-932	-81	-163	-120	-16344	100	-1536	444	814	-211	-11164	1860	12412	132	-68	-157	-16216	-3592	-1408	171	86	128	-15984	-1412	-2712	73	52	318	128	128	8
-10108	-3952	11632	-165	141	-205	-15332	5580	-644	-135	-173	-152	-16384	96	-1316	665	720	-224	-11108	1924	12388	100	-26	-164	-16240	-3640	-1384	3	12	201	-15880	-1344	-3116	-96	191	325	128	128	8
-10164	-3972	11616	-125	140	-209	-15376	5520	-452	-95	-113	-85	-16432	196	-1016	844	592	-250	-11220	1908	12356	96	-32	-175	-16172	-3520	-1516	-35	27	183	-16020	-1296	-3052	4	80	340	127	128	8
-10148	-4052	11548	-91	144	-151	-15360	5560	-556	65	-86	-35	-16540	292	-952	680	524	-238	-11152	1856	12424	151	-38	-172	-16192	-3584	-1504	117	0	145	-16048	-1316	-3152	-86	182	248	127	129	8
-10112	-3936	11664	-119	187	-196	-15460	5616	-456	142	-16	-49	-16256	412	-1252	379	417	-186	-11248	1784	12280	135	2	-161	-16068	-3660	-1588	120	65	142	-15876	-1408	-3096	143	23	193	127	128	8
-10176	-3936	11624	-139	194	-142	-15356	5700	-856	234	-41	-55	-16248	372	-1428	232	468	-103	-11124	1908	12296	81	-89	-187	-16124	-3540	-1484	32	79	153	-16020	-1480	-2888	100	-239	198	127	128	8
-10236	-3948	11576	-95	181	-196	-15348	5612	-740	-145	76	-22	-16396	100	-1444	80	364	-117	-11112	1952	12332	103	-85	-207	-16184	-3668	-1576	-12	122	172	-15636	-1248	-3112	245	-71	434	127	127	8
-10236	-4004	11620	-144	135	-173	-15340	5400	-536	-149	112	-8	-16308	-52	-1312	24	177	-82	-11104	1912	12468	137	-39	-232	-16236	-3712	-1664	25	-13	202	-16336	-1480	-3052	212	365	410	127	131	8
-10096	-4012	11564	-119	165	-141	-15440	5576	-488	114	96	-25	-16356	-24	-1376	126	196	-75	-11140	1692	12448	198	57	-177	-16184	-3788	-1816	303	-3	195	-16172	-1412	-3204	-82	360	225	127	132	8
-10188	-3996	11708	-147	195	-134	-15464	5708	-720	228	9	-35	-16336	60	-1824	329	347	-57	-11180	1808	12300	163	65	-161	-16004	-3572	-1548	268	41	220	-15596	-1308	-3232	-79	-4	62	127	129	8
-10224	-3924	11676	-158	219	-113	-15360	5716	-904	90	-68	-52	-16184	-12	-2000	467	393	-26	-11200	1816	12292	204	-15	-113	-15968	-3372	-1404	-94	10	172	-15840	-1312	-3140	-4	-567	14	127	128	8
-10288	-3908	11560	-115	205	-131	-15312	5636	-648	-112	-37	-37	-16236	60	-1664	457	333	0	-11140	1956	12288	79	-58	-170	-16276	-3560	-1468	-212	48	196	-15796	-1228	-3048	-165	-365	283	127	129	8
-10128	-3928	11528	-67	93	-203	-15292	5568	-520	-150	27	-14	-16248	112	-1124	351	98	11	-11184	1840	12344	90	-60	-196	-16112	-3620	-1556	32	123	175	-16168	-1376	-2924	-246	143	324	127	129	8
-10084	-4080	11740	-112	152	-174	-15408	5544	-380	93	50	-9	-16332	148	-1172	237	32	4	-11104	1916	12204	123	48	-191	-16264	-3444	-1608	135	84	194	-16068	-1204	-3200	-8	345	306	127	130	8
-10092	-4040	11576	-109	192	-117	-15480	5680	-632	287	37	-19	-16308	292	-1592	237	175	-60	-11200	1864	12372	127	-70	-185	-16108	-3576	-1464	201	116	175	-15820	-1316	-3044	125	45	191	127	128	8
-10224	-3896	11588	-141	201	-111	-15408	5892	-1008	36	-33	-56	-16108	200	-2080	203	341	-81	-11128	1856	12344	86	-88	-210	-16104	-3600	-1336	40	138	168	-15764	-1496	-3008	240	-271	142	127	129	8
-10296	-3976	11584	-105	183	-136	-15320	5612	-900	-175	-60	-60	-16224	72	-1808	61	273	-22	-11120	1916	12420	92	-73	-205	-16256	-3700	-1476	-95	107	162	-15736	-1256	-3276	160	-74	341	127	127	8
-10292	-3928	11652	-72	147	-226	-15292	5528	-644	-263	-36	-14	-16240	80	-1428	-24	38	-12	-11100	1792	12256	70	-32	-157	-16208	-3596	-1580	-84	28	169	-16172	-1092	-3520	-109	164	219	126	130	8
-10156	-4000	11576	-43	109	-197	-15384	5464	-348	-193	59	-1	-16328	168	-1332	-5	-172	-40	-11172	1844	12188	118	-10	-213	-16200	-3548	-1712	19	-60	198	-15708	-788	-3560	-213	246	184	127	129	8
-10120	-4080	11584	-118	139	-165	-15376	5612	-488	184	14	-51	-16300	104	-1612	55	-105	-34	-11212	1816	12368	98	30	-195	-16140	-3536	-1816	211	-64	130	-15748	-1280	-3468	-46	-125	60	127	128	8
-10268	-3940	11568	-157	195	-134	-15328	5836	-948	113	-21	-86	-16244	92	-1852	204	21	-57	-11252	1840	12244	120	-81	-169	-16080	-3564	-1492	99	-44	173	-15808	-1408	-3116	-70	-367	154	128	128	8
-10176	-3972	11612	-143	178	-181	-15416	5628	-956	-77	-38	-56	-16312	-148	-1584	156	-233	54	-11116	1952	12328	126	-47	-125	-16220	-3552	-1360	-61	-3	161	-16068	-1444	-2820	-265	-232	160	126	127	8
-10236	-4008	11676	-112	139	-214	-15444	5540	-684	-83	-35	-55	-17008	-72	-1576	40	-1638	602	-11124	1896	12332	50	3	-184	-16260	-3608	-1500	-26	-28	177	-15868	-1312	-3212	66	-13	236	126	126	8
-10184	-3976	11640	-64	129	-204	-15440	5528	-484	-96	44	-28	-16264	424	-1432	-302	-1746	795	-11108	1828	12392	97	18	-173	-16224	-3644	-1760	36	-64	161	-16060	-1144	-3400	-37	158	162	126	127	8
-10072	-4004	11640	-120	186	-150	-15372	5564	-720	173	65	-47	-15736	268	-1048	51	-1016	254	-11296	1760	12268	147	28	-169	-16132	-3632	-1668	318	-42	98	-15796	-1208	-3300	195	1	80	126	128	8
-10172	-3916	11680	-105	183	-188	-15400	5680	-812	136	-15	-103	-15968	208	-1592	367	-101	-114	-11284	1788	12292	150	-29	-159	-16144	-3504	-1436	196	31	110	-15788	-1380	-3024	268	-252	160	126	127	8
-10216	-3920	11572	-104	168	-179	-15352	5832	-948	-48	-90	-74	-15916	88	-1840	309	525	-148	-11016	1904	12364	93	-93	-143	-16176	-3620	-1424	-57	11	77	-15808	-1308	-3040	159	-243	304	126	125	8
-10228	-3988	11524	-121	152	-210	-15364	5608	-736	-230	-92	-116	-16196	52	-1428	70	566	-100	-11116	1932	12364	91	-76	-205	-16188	-3944	-1676	-10	-48	173	-15868	-1352	-3012	68	-194	328	125	126	8
-10260	-3992	11548	-90	146	-213	-15372	5460	-548	-199	-32	-51	-16568	48	-1188	34	-23	-32	-11288	1876	12168	126	8	-168	-16172	-3584	-1800	-10	-117	167	-15792	-1080	-3532	-118	28	82	126	127	8
-10084	-4108	11680	-91	106	-220	-15508	5488	-168	75	-31	-39	-16688	60	-1296	73	-608	237	-11284	1824	12188	150	17	-183	-16084	-3528	-1716	71	-114	151	-15796	-1196	-3308	-52	-240	134	125	127	8
-10120	-3928	11632	-92	167	-203	-15396	5836	-624	233	-23	-20	-16172	240	-1640	60	-548	179	-11428	1768	12248	89	-35	-167	-16132	-3632	-1432	65	-93	110	-15744	-1336	-2920	54	-242	255	125	125	8
-10188	-3896	11584	-164	204	-154	-15308	5728	-992	98	-55	-87	-15860	248	-1544	212	3	-10	-11096	1916	12288	104	-45	-180	-16132	-3632	-1416	110	46	172	-16276	-1748	-2992	-22	-96	107	125	126	8
-10252	-3980	11680	-117	165	-163	-15424	5676	-920	-130	-122	-69	-16068	124	-1496	210	444	-115	-11096	1940	12316	115	-136	-135	-16144	-3660	-1460	67	73	139	-15864	-1196	-3172	-19	-105	20	125	127	8
-10212	-3952	11652	-105	123	-191	-15276	5524	-636	-282	-56	-65	-16232	316	-1180	235	507	-193	-11196	1944	12316	115	-30	-229	-16108	-3624	-1708	-36	10	119	-15768	-1100	-3652	159	-372	54	125	127	8
-10108	-3984	11576	-91	116	-192	-15372	5476	-436	-209	67	-39	-16344	304	-984	251	344	-298	-11280	1768	12184	120	-77	-156	-16152	-3652	-1932	26	-68	130	-15540	-1048	-3588	309	-240	244	125	127	8
-10100	-3992	11660	-109	149	-137	-15400	5540	-616	294	20	-58	-16292	48	-1408	374	384	-271	-11144	1796	12388	162	-67	-128	-16092	-3680	-1620	180	-71	99	-15988	-1452	-2956	236	85	313	125	126	8
-10200	-3992	11560	-118	181	-151	-15412	5724	-1024	322	-72	-18	-16228	-160	-1724	459	632	-256	-11088	1956	12264	166	-67	-164	-16060	-3592	-1304	145	-13	134	-16200	-1440	-3096	-37	37	92	125	127	8
-10308	-3892	11736	-141	169	-173	-15376	5648	-1000	-130	-89	-64	-16204	12	-1740	454	657	-170	-11124	1856	12356	127	-68	-147	-16064	-3572	-1344	-5	21	177	-15980	-1368	-3156	-16	-280	62	125	127	8
-10244	-3932	11640	-147	194	-180	-15328	5532	-796	-213	-62	-44	-16288	140	-1636	339	471	-111	-11184	1836	12400	98	-31	-197	-16236	-3568	-1836	-49	-44	214	-15692	-1204	-3680	175	-392	132	125	127	8
-10132	-3984	11652	-111	125	-219	-15304	5536	-404	-219	-7	-31	-16416	24	-1164	235	44	-99	-11244	1784	12280	134	-7	-154	-16108	-3732	-1716	117	-70	168	-15584	-1196	-3328	167	-112	322	124	126	8
-10124	-4056	11528	-110	166	-190	-15432	5444	-380	175	4	-58	-16368	-24	-1300	253	-120	-28	-11148	1844	12320	150	-42	-133	-16116	-3596	-1456	192	-75	155	-16124	-1512	-2852	70	79	306	125	125	8
-10084	-4048	11616	-115	187	-152	-15516	5664	-816	383	-83	-86	-16292	40	-1708	334	16	18	-11160	1972	12280	171	-81	-159	-16124	-3596	-1248	116	6	173	-16044	-1344	-3028	-21	-55	-8	124	127	8
-10296	-3884	11580	-83	191	-172	-15368	5784	-1048	25	-87	-88	-16272	96	-1836	361	87	-1	-11152	1880	12252	96	-84	-148	-16136	-3476	-1444	-6	15	151	-15824	-1340	-3228	233	-355	2	125	127	8
-10172	-3996	11512	-98	167	-221	-15420	5600	-932	-257	-141	-64	-16572	-112	-1552	76	-564	213	-11152	1932	12300	103	-39	-200	-16200	-3608	-1716	-26	-65	134	-15652	-976	-3492	257	-382	235	125	126	8
-10140	-4060	11560	-80	136	-218	-15456	5536	-544	-186	-110	-8	-16812	104	-1248	-197	-1526	569	-11148	1736	12344	143	-2	-140	-16212	-3632	-1916	80	-117	158	-15820	-1244	-3480	34	37	291	125	126	8
-10104	-4036	11524	-80	156	-206	-15348	5500	-196	-115	38	-56	-16264	56	-944	-218	-1910	648	-11164	1876	12432	138	17	-105	-16120	-3624	-1556	240	-123	153	-16104	-1384	-3020	-59	58	127	125	128	8
-10140	-4064	11716	-113	160	-152	-15364	5660	-820	317	-35	-82	-16472	-88	-1208	61	-1763	604	-11220	1920	12260	146	-102	-116	-16016	-3520	-1336	135	-23	162	-15832	-1364	-2896	8	-349	-19	125	127	8
-10160	-3992	11612	-106	177	-148	-15528	5760	-1040	159	-121	-88	-16292	284	-1864	170	-1084	811	-11124	1952	12356	89	-121	-188	-16168	-3588	-1488	-22	-15	153	-15840	-1328	-3156	197	-681	75	124	127	8
-10196	-4028	11608	-135	192	-192	-15316	5656	-900	-250	-146	-84	-15824	336	-1396	170	-650	555	-11136	1932	12428	112	-57	-163	-16264	-3828	-1592	6	-82	171	-15884	-1232	-3264	211	-260	338	125	127	8
-10184	-4024	11536	-93	126	-195	-15336	5476	-576	-251	-81	-42	-16248	24	-604	-20	-811	355	-11184	1844	12320	168	36	-135	-16208	-3644	-1724	228	-91	153	-16460	-1536	-3116	-351	71	81	124	130	8
-10176	-3992	11644	-98	80	-190	-15312	5488	-436	-96	-13	-47	-17200	-160	-888	110	-1459	919	-11176	1804	12336	175	-19	-110	-16104	-3560	-1476	215	-85	182	-15720	-1292	-3204	-254	-131	-52	124	126	8
-10176	-4096	11616	-101	119	-182	-15444	5540	-424	-82	2	-33	-16504	444	-836	65	-1683	1106	-11204	1880	12448	92	-53	-157	-16052	-3428	-1440	-12	-66	140	-15896	-1308	-3332	85	-833	-221	124	127	8
-10144	-4056	11588	-67	149	-162	-15452	5524	-468	202	72	-18	-16676	256	-1044	303	-1868	1217	-11160	1888	12344	115	-122	-170	-16100	-3748	-1580	-4	-55	157	-15524	-1188	-2984	256	-755	68	122	127	8
-10156	-4040	11672	-96	172	-172	-15472	5588	-524	291	36	-59	-16160	136	-956	306	-1369	1287	-11152	1904	12328	128	-56	-165	-16184	-3640	-1556	11	-17	156	-16076	-1444	-2832	112	-146	372	123	130	8
-10156	-4040	11684	-113	158	-166	-15440	5696	-872	0	-61	-13	-16140	300	-1132	352	-998	1172	-11148	1868	12396	109	-53	-176	-16180	-3852	-1540	74	-112	140	-15928	-1276	-3020	-136	159	264	127	127	8
-10188	-3948	11556	-86	139	-189	-15292	5568	-768	-155	-5	-18	-16176	376	-920	510	-1166	1017	-11152	1836	12372	155	-20	-161	-16132	-3664	-1600	239	-10	166	-15700	-1404	-3284	321	-40	23	123	126	8
-10236	-3948	11552	-85	117	-209	-15392	5568	-632	-92	-40	6	-16160	520	-888	461	-1391	1343	-11196	1828	12352	142	-61	-163	-16112	-3580	-1592	36	-73	157	-15752	-1172	-3224	324	-526	-21	126	127	8
-10352	-3876	11492	-50	114	-249	-15200	5720	-712	-6	41	14	-16032	964	-564	778	-1415	1107	-11184	1828	12248	110	-84	-149	-16076	-3652	-1536	-62	-75	153	-16056	-1448	-2836	21	-381	189	124	129	8
-10112	-4108	11592	0	131	-191	-15140	5456	-608	-41	116	35	-16440	792	-516	707	-1273	717	-11060	1916	12360	122	-20	-162	-16284	-3744	-1372	25	-78	170	-16212	-1460	-2948	-305	-115	210	124	127	8
-10132	-3944	11636	-52	112	-156	-15472	5656	-736	239	11	-2	-16064	760	-1024	369	-787	471	-11124	1940	12272	103	-16	-167	-16156	-3728	-1536	114	-85	177	-16140	-1228	-3160	-334	-129	-6	125	130	8
-10232	-3932	11664	-83	148	-171	-15340	5832	-960	10	-34	18	-16252	784	-760	300	-554	472	-11236	1764	12260	143	-29	-177	-16152	-3536	-1768	217	-61	214	-15668	-1136	-3448	62	-443	-88	123	128	8
-10216	-3936	11532	-118	159	-223	-15380	5660	-764	-157	-43	-11	-16412	604	-804	218	-379	492	-11208	1844	12224	164	-64	-133	-16084	-3624	-1748	159	-125	171	-15492	-1312	-3344	302	-644	64	125	127	8
-10212	-3948	11680	-96	130	-215	-15328	5588	-568	-131	-31	-41	-16112	504	-788	61	-371	440	-11176	1828	12336	173	-100	-95	-16092	-3660	-1468	98	-152	196	-16080	-1944	-2640	16	-385	241	122	127	8
-10160	-3932	11652	-45	97	-244	-15292	5452	-584	-14	40	34	-16536	508	-400	457	-808	436	-11192	1896	12400	161	-113	-122	-16176	-3656	-1252	103	-26	154	-16188	-1668	-2748	-202	-174	67	122	127	8
-10152	-3984	11696	-41	49	-246	-15400	5620	-556	71	105	57	-16112	552	-364	813	-647	534	-11096	1844	12380	116	-91	-152	-16148	-3496	-1396	39	41	150	-15916	-1240	-3128	328	-287	86	125	126	8
-10128	-4048	11496	-22	118	-205	-15460	5504	-708	47	165	36	-16300	820	-740	679	-638	331	-11136	1912	12364	141	-110	-185	-16180	-3736	-1588	41	32	140	-15848	-1040	-3244	362	-496	76	127	127	8
-10112	-4056	11568	-70	141	-147	-15496	5640	-808	247	28	50	-16200	584	-736	543	-510	197	-11160	1848	12364	122	-64	-162	-16104	-3844	-1760	85	-20	157	-15760	-1380	-3156	72	-172	252	123	128	8
-10144	-3948	11668	-63	132	-161	-15372	5788	-956	95	-13	21	-16160	904	-408	557	-257	147	-11128	1896	12252	144	18	-127	-16108	-3676	-1516	98	-48	200	-16164	-1672	-2864	248	61	311	125	131	8
-10104	-3948	11708	-50	114	-185	-15384	5672	-752	-56	-32	11	-16468	872	-428	139	-109	251	-11124	1824	12344	144	-64	-158	-16104	-3624	-1376	-19	-20	202	-16008	-1304	-3012	-371	-95	103	124	129	8
-10160	-3996	11616	-60	101	-175	-15352	5736	-808	-143	-7	20	-16224	832	-740	-178	-87	320	-11196	1812	12352	109	-13	-184	-16060	-3608	-1372	58	15	194	-15824	-1364	-3256	162	-566	32	130	127	8
-10160	-3976	11636	-84	136	-196	-15344	5552	-652	-148	44	40	-16596	832	-276	193	-359	158	-11228	1812	12160	107	-77	-153	-16148	-3560	-1616	86	9	166	-15672	-1020	-3120	367	-583	161	123	128	8
-10156	-3960	11544	-33	105	-202	-15348	5504	-700	-99	31	47	-16436	572	-208	491	-405	70	-11136	1836	12368	129	-35	-165	-16268	-3608	-1708	147	-26	148	-16016	-1484	-2872	352	-173	424	127	129	8
-10008	-4020	11536	-91	150	-198	-15424	5508	-640	114	68	69	-16336	636	-232	311	-318	163	-11184	1912	12436	165	-13	-158	-16196	-3724	-1492	98	-109	178	-16004	-1460	-2720	86	254	323	123	131	8
-10184	-3908	11700	-120	174	-155	-15488	5748	-868	342	-34	10	-16008	632	-748	-35	117	102	-11148	1900	12244	160	10	-133	-16080	-3640	-1488	229	-63	241	-15888	-1372	-3192	302	71	116	124	127	8
-10164	-3960	11616	-96	170	-135	-15412	5772	-1200	126	-126	7	-16388	832	-724	413	199	62	-11200	1852	12352	169	-140	-182	-16056	-3536	-1600	221	-37	206	-15748	-1292	-3244	233	-421	14	125	128	8
-10208	-3968	11624	-130	137	-187	-15428	5624	-828	-85	-105	-72	-16612	716	-360	639	-166	225	-11188	1800	12412	101	-16	-143	-16056	-3720	-1604	63	-79	208	-15720	-1360	-3092	217	-562	164	124	128	8
-10212	-3916	11564	-106	137	-180	-15344	5620	-704	-59	-109	-64	-16184	652	-620	336	108	190	-11168	1904	12312	125	-84	-155	-16164	-3580	-1396	84	-25	173	-16140	-1608	-2616	120	-327	353	124	128	8
-10144	-3996	11528	-111	157	-165	-15332	5564	-732	-143	-66	-45	-16416	876	-184	316	-109	122	-11048	1944	12388	152	-75	-159	-16244	-3736	-1328	11	-32	197	-15992	-1256	-2924	-117	-10	249	124	130	8
-10168	-3892	11540	-112	136	-136	-15388	5676	-460	-56	-80	-20	-16424	912	-288	497	-243	20	-11188	1908	12380	132	-44	-176	-16152	-3708	-1448	177	-12	187	-15796	-1228	-3028	218	-104	129	126	128	8
-10172	-3912	11636	-65	148	-165	-15328	5752	-816	-71	-64	37	-16440	916	-340	543	-315	50	-11144	1960	12280	114	24	-150	-16148	-3568	-1508	83	-82	198	-15680	-1168	-3128	463	-295	183	130	127	8
-10108	-3896	11672	-74	169	-197	-15344	5592	-696	-59	-23	13	-16420	792	-400	243	-154	180	-11144	1848	12268	147	-51	-144	-16120	-3696	-1468	94	-59	184	-15992	-1464	-2792	141	-136	346	125	127	8
-10072	-3984	11636	-128	167	-140	-15448	5592	-772	162	-110	-69	-16080	792	-652	-163	21	170	-11108	1940	12432	112	6	-124	-16172	-3592	-1460	79	-45	171	-16056	-1400	-2820	-40	84	259	125	128	8
-10220	-3924	11672	-149	174	-157	-15312	5792	-932	48	-132	-52	-16160	724	-784	-150	11	-3	-11064	1924	12256	99	-49	-172	-16180	-3664	-1456	25	-38	177	-15884	-1120	-3160	89	10	143	127	130	8
-10204	-3936	11624	-142	188	-178	-15460	5668	-900	-66	-129	-81	-16532	920	-612	241	149	29	-11168	1824	12440	80	-49	-196	-16120	-3516	-1696	-46	-132	177	-15736	-1108	-3424	200	-300	80	126	128	8
-10212	-3908	11712	-115	121	-196	-15344	5580	-656	-114	-84	-61	-16404	776	-208	463	-125	72	-11248	1828	12396	151	-37	-127	-16116	-3660	-1744	112	-137	172	-15856	-1444	-3164	142	-239	258	125	127	8
-10136	-3984	11660	-79	172	-160	-15364	5608	-672	-71	-93	-27	-16228	692	-452	286	-171	34	-11196	1848	12268	149	-42	-119	-16080	-3700	-1404	113	-89	139	-16104	-1732	-2548	-66	-70	344	126	128	8
-10168	-3980	11648	-97	163	-197	-15404	5640	-640	-74	-39	-28	-16356	932	-236	47	-211	-6	-11080	1920	12352	105	-68	-145	-16144	-3652	-1224	45	-49	181	-15828	-1380	-2812	-250	-10	134	126	128	8
-10132	-3940	11636	-79	165	-191	-15440	5632	-720	-31	-30	-22	-16300	832	-116	-23	-96	-87	-11112	1956	12448	87	9	-161	-16172	-3608	-1488	-63	-72	191	-15892	-1256	-3192	213	-189	103	127	128	8
-10020	-4044	11768	-103	169	-174	-15416	5600	-620	235	-102	-143	-16572	828	-492	142	96	54	-11200	1876	12396	119	-14	-134	-16228	-3652	-1716	25	-130	145	-15812	-1064	-3252	173	-76	209	125	130	8
-10124	-3972	11596	-156	184	-176	-15396	5780	-728	53	-135	-59	-16392	760	-624	179	81	68	-11356	1664	12280	147	-28	-157	-16072	-3528	-1640	209	-136	173	-15956	-1284	-3224	-28	105	209	127	129	8
-10264	-3924	11448	-175	175	-201	-15360	5628	-760	-155	-106	-56	-16276	736	-248	-32	-43	-66	-11164	1848	12412	163	-64	-152	-16016	-3552	-1316	179	-86	157	-16080	-1736	-2676	-85	-29	206	120	130	8
-10116	-3940	11640	-115	173	-156	-15376	5548	-580	-153	-98	-27	-16512	724	-40	-5	-10	39	-11168	1840	12280	153	-169	-165	-16028	-3704	-1216	7	-22	146	-15944	-1772	-2512	-62	-279	183	126	127	8
-10156	-4036	11552	-116	131	-200	-15388	5616	-568	-44	-42	-42	-16396	708	-128	295	-64	50	-11084	1864	12452	84	-44	-199	-16228	-3704	-1464	-150	-6	143	-15932	-1340	-2964	165	-262	41	127	127	8
-10068	-4012	11552	-98	164	-188	-15408	5604	-580	-72	16	-41	-16412	824	-456	445	-207	89	-11152	1800	12372	134	-37	-154	-16268	-3596	-1732	64	18	157	-15884	-964	-3296	42	-94	216	126	128	8
-10180	-3988	11788	-115	170	-176	-15388	5624	-704	-70	-19	-38	-16288	644	-388	195	-198	82	-11212	1884	12420	72	17	-155	-16160	-3548	-1560	64	-40	169	-15948	-1356	-3040	-83	52	339	125	128	8
-10128	-4028	11724	-107	168	-187	-15376	5572	-868	3	-66	-82	-16172	692	-440	91	17	-45	-11140	1868	12296	96	-73	-180	-16056	-3644	-1324	102	-4	148	-16148	-1668	-2628	-289	125	152	126	131	8
-10140	-3968	11608	-107	139	-158	-15364	5664	-712	-4	-86	-77	-16324	864	-320	148	61	-22	-11092	1824	12264	95	-101	-173	-15944	-3652	-1256	88	113	199	-15812	-1480	-2688	116	-116	7	126	128	8
-10152	-3960	11596	-113	152	-178	-15364	5620	-656	-105	-68	-38	-16604	804	-156	259	10	97	-11124	1868	12220	81	-99	-193	-16056	-3516	-1356	-120	89	177	-15952	-1152	-3196	106	-470	67	124	127	8
-10176	-3920	11564	-15	148	-147	-15388	5600	-656	-98	22	-8	-16372	816	-176	57	-138	105	-11124	1852	12396	109	-20	-224	-16336	-3776	-1716	-204	-38	182	-15824	-1064	-3128	125	-421	136	126	127	8
-10184	-4060	11660	-73	182	-159	-15352	5600	-680	-63	46	51	-16328	660	-472	26	-194	44	-11192	1756	12404	139	25	-135	-16192	-3828	-1880	158	-96	185	-16060	-1420	-3356	-188	503	292	128	127	8
-10172	-3928	11556	-77	168	-172	-15400	5584	-660	-7	25	41	-16440	828	-472	179	-320	-30	-11220	1816	12284	175	29	-134	-16000	-3580	-1464	271	-43	162	-15856	-1412	-3180	105	483	234	127	128	8
-10140	-3940	11568	-87	167	-166	-15420	5676	-680	44	-18	-22	-16324	764	-556	23	-284	-71	-11208	1872	12352	106	-60	-139	-15996	-3536	-1316	38	-34	201	-15904	-1472	-3056	73	-211	50	127	128	8
-10148	-3932	11588	-80	160	-169	-15396	5776	-760	55	-63	54	-16312	768	-624	-26	-88	-17	-11180	1840	12284	107	-54	-143	-16040	-3684	-1428	-246	25	217	-15932	-1580	-2960	-144	-477	161	129	129	8
-10124	-3972	11620	-76	148	-166	-15352	5636	-752	-47	-68	11	-16412	924	-812	-109	-96	236	-11036	1904	12384	105	-55	-135	-16344	-3732	-1480	-249	-26	194	-15884	-1564	-3008	-223	-447	183	128	127	8
-10192	-3908	11584	-54	117	-157	-15416	5704	-892	-141	-118	-14	-16216	596	-892	-124	-332	216	-11216	1884	12412	112	-12	-143	-16224	-3776	-1696	-14	-133	220	-15816	-1116	-3428	-424	4	141	122	127	8
-10140	-3940	11664	-137	116	-199	-15444	5712	-776	-251	-203	-48	-16264	468	-408	128	-374	51	-11144	1880	12296	132	-14	-143	-16132	-3516	-1588	93	-138	209	-15672	-1136	-3336	-190	-125	75	126	129	8
-10220	-3880	11580	-129	122	-193	-15364	5636	-716	-243	-230	-62	-16424	788	12	397	-123	100	-11272	1804	12288	191	-5	-90	-15996	-3628	-1484	192	-132	198	-15676	-1432	-2964	63	-141	215	127	130	8
-10108	-3976	11576	-112	145	-170	-15356	5620	-472	-191	-171	-49	-16428	1028	308	281	-49	108	-11184	1920	12244	153	-55	-94	-16024	-3584	-1464	239	-120	197	-15956	-1552	-2616	-46	-221	168	126	129	8
-10156	-3936	11676	-99	173	-202	-15328	5592	-460	-63	-57	-54	-16436	936	164	214	-57	107	-11048	1972	12388	127	-44	-159	-16156	-3556	-1208	-140	22	154	-16204	-1412	-2676	45	-147	217	129	128	8
-10168	-4024	11644	-102	180	-172	-15364	5544	-588	49	25	22	-16456	912	104	134	-149	72	-11100	1924	12244	91	-39	-224	-16168	-3660	-1452	-90	45	146	-16344	-1296	-3048	-193	-134	106	126	130	8
-10124	-3944	11572	-91	152	-183	-15348	5640	-628	64	95	7	-16372	776	-112	247	-63	-7	-11168	1808	12260	112	-26	-203	-16192	-3612	-1724	154	59	118	-15916	-1212	-3336	114	32	82	127	129	8
-10192	-3972	11608	-88	121	-174	-15456	5636	-672	6	47	1	-16416	980	-576	264	-134	-83	-11176	1868	12320	122	-34	-129	-16104	-3544	-1700	227	65	98	-15696	-1232	-3288	181	-152	134	125	128	8
-10076	-3968	11688	-103	165	-135	-15324	5776	-720	5	28	-14	-16236	816	-672	-117	-102	80	-11148	1840	12308	127	-91	-189	-16056	-3620	-1536	26	-37	97	-15952	-1400	-2876	-16	-276	173	126	131	8
-10204	-3992	11564	-92	139	-187	-15372	5764	-700	-76	45	-58	-16188	812	-544	-91	-61	48	-11120	1936	12344	115	-96	-166	-16120	-3680	-1424	-9	68	108	-15716	-1464	-2872	-123	-210	159	125	128	8
-10128	-3960	11696	-106	142	-178	-15360	5652	-688	-68	-33	-93	-16288	568	-300	-229	-63	-75	-11068	1876	12296	88	-130	-199	-16184	-3624	-1444	-82	-14	125	-16088	-1384	-2996	110	-102	141	126	130	8
-10244	-3948	11664	-91	154	-148	-15480	5676	-652	122	-97	-132	-16372	604	-528	-8	104	-65	-11156	1812	12304	106	9	-208	-16264	-3716	-1752	85	-56	151	-15864	-1144	-3312	26	48	176	127	125	8
-10200	-3948	11624	-133	186	-169	-15436	5668	-828	83	-132	-139	-16432	736	-460	268	130	4	-11188	1764	12364	169	22	-181	-16172	-3652	-1704	217	-82	142	-15840	-1372	-3200	51	86	165	129	128	8
-10204	-3964	11664	-145	178	-197	-15416	5632	-804	-56	-153	-115	-16344	780	-444	270	110	22	-11172	1868	12264	147	-4	-139	-16040	-3644	-1540	122	-74	133	-15800	-1488	-3072	140	-57	193	131	125	8
-10196	-3924	11608	-144	156	-184	-15356	5564	-564	-85	-133	-142	-16368	732	-260	238	9	5	-11180	1836	12268	121	-84	-130	-15944	-3616	-1276	9	-17	188	-15864	-1596	-2860	-66	-197	137	124	128	8
-10140	-4028	11588	-117	152	-176	-15364	5548	-676	-64	-106	-104	-16376	868	-180	174	-12	-19	-11152	1864	12284	127	-86	-146	-16152	-3504	-1216	-119	6	132	-16316	-1600	-2656	-140	-248	144	128	126	8
-10168	-4032	11688	-122	160	-176	-15396	5536	-568	-63	-90	-107	-16352	800	-252	-6	-12	14	-11148	1796	12420	83	-86	-195	-16108	-3548	-1256	-156	-15	151	-15912	-1076	-3340	-327	-128	65	124	128	8
-10176	-3944	11620	-95	153	-183	-15432	5640	-700	-130	-8	-91	-16512	908	-80	21	-48	-8	-11204	1892	12328	120	-47	-184	-16136	-3572	-1592	71	-13	141	-15812	-1276	-3364	-148	-187	12	126	128	8
-10104	-3988	11640	-108	167	-196	-15472	5564	-564	-144	-50	-87	-16376	888	-336	84	-82	-20	-11208	1756	12304	134	-27	-190	-16096	-3632	-1628	35	-14	119	-15680	-1360	-3112	79	-222	157	126	128	8
-10104	-3956	11648	-161	179	-178	-15396	5640	-544	57	-44	-108	-16276	740	-340	-49	-125	-2	-11208	1896	12368	88	-106	-152	-16064	-3724	-1396	-32	49	142	-16016	-1680	-2656	-23	-5	238	126	128	8
-10192	-3944	11592	-94	173	-194	-15424	5644	-792	52	-47	-66	-16284	608	-364	-66	-34	-68	-11036	1988	12304	113	-85	-176	-16160	-3708	-1320	-59	33	129	-15972	-1404	-2796	-129	151	165	126	129	8
-10184	-3960	11664	-98	156	-179	-15364	5728	-668	42	-85	-108	-16424	724	-440	22	112	-52	-11200	1868	12356	49	-14	-203	-16252	-3604	-1592	-6	6	171	-15848	-1324	-3436	161	16	133	131	128	8
-10176	-3996	11516	-128	181	-185	-15416	5568	-640	6	-56	-72	-16496	776	-128	127	-8	-1	-11176	1760	12288	90	-3	-187	-16248	-3592	-1684	143	-8	135	-15704	-1164	-3488	226	-71	257	126	127	8
-10176	-4008	11588	-89	184	-168	-15408	5688	-716	-171	-9	-40	-16220	740	-368	-20	38	14	-11232	1780	12340	115	-58	-177	-16044	-3708	-1660	173	-45	124	-15968	-1408	-3032	-113	37	142	128	129	8
-10132	-4004	11560	-110	176	-196	-15424	5492	-556	-49	-52	-78	-16244	628	-304	-6	36	-26	-11164	1816	12380	105	-12	-148	-16004	-3748	-1308	69	12	153	-15876	-1640	-2760	-201	-80	84	126	128	8
-10148	-3944	11568	-185	198	-144	-15480	5592	-756	251	-151	-81	-16312	664	-620	-1	234	6	-11068	2008	12364	110	-97	-158	-16148	-3652	-1080	-89	35	151	-15812	-1360	-3004	-91	-359	34	131	128	8
-10368	-3912	11640	-179	169	-121	-15476	5724	-852	131	-218	-126	-16504	732	-560	200	175	-75	-11104	1860	12440	77	38	-199	-16248	-3748	-1648	-91	-51	172	-15688	-1032	-3456	204	-69	266	125	128	8
-10196	-3884	11688	-177	145	-159	-15384	5640	-844	-198	-217	-114	-16252	684	-388	54	207	-87	-11132	1700	12448	171	85	-177	-16324	-3644	-1832	322	-148	143	-15572	-1100	-3640	343	486	479	129	127	8
-10192	-3984	11600	-193	119	-147	-15344	5672	-452	-193	-196	-97	-16460	736	-92	45	139	61	-10844	1512	12180	181	65	-143	-16132	-3592	-1820	395	-243	161	-16084	-1172	-3424	-71	725	411	127	123	8
-10172	-4020	11552	-172	120	-151	-15400	5640	-516	19	-155	-108	-16404	936	-176	127	137	26	-11248	1776	12152	191	4	-62	-15852	-3628	-1208	378	-139	194	-15976	-1760	-3012	-123	86	8	126	128	8
-10160	-4004	11608	-164	180	-130	-15440	5676	-528	106	-165	-111	-16388	720	-544	153	133	66	-11176	1972	12276	131	-74	-132	-16024	-3532	-1168	-79	-71	150	-16000	-1716	-2740	215	-715	-87	129	128	8
-10228	-3880	11712	-184	195	-136	-15416	5692	-776	9	-189	-133	-16368	508	-756	149	55	145	-11188	1840	12276	70	-115	-191	-16220	-3808	-1368	-138	0	179	-15816	-1200	-3028	8	-562	215	131	125	8
-10244	-3940	11588	-170	182	-175	-15368	5604	-696	-157	-215	-84	-16340	616	-468	386	39	17	-11176	1892	12236	105	-57	-164	-16200	-3604	-1616	-31	-24	134	-15880	-1156	-3188	-222	98	282	127	130	8
-10160	-3928	11660	-157	152	-178	-15332	5552	-616	-312	-133	-49	-16336	868	48	364	-38	-29	-11208	1852	12416	158	-41	-162	-16164	-3660	-1616	186	-9	132	-15952	-1332	-3212	-101	156	172	123	128	8
-10200	-4004	11620	-93	159	-199	-15300	5540	-352	-187	-34	-56	-16544	1044	28	391	-223	35	-11120	1912	12484	151	-65	-157	-16016	-3680	-1320	131	24	164	-15888	-1484	-3180	-372	-291	-188	126	128	8
-10168	-4004	11744	-84	180	-182	-15392	5644	-512	51	-61	-68	-16344	800	-392	46	-105	129	-11128	1872	12208	92	-51	-163	-16036	-3732	-1476	18	102	168	-15772	-1680	-3156	-115	-868	-291	126	128	8
-10148	-3976	11628	-68	222	-181	-15336	5680	-600	-17	-36	-56	-16324	716	-440	150	-102	92	-11008	1904	12356	131	-113	-126	-16180	-3652	-1456	-23	68	211	-15496	-1124	-3264	187	-756	27	126	128	8
-10208	-3936	11604	-107	214	-186	-15432	5508	-716	84	-88	-81	-16188	756	-408	127	-46	43	-11208	1984	12240	139	10	-143	-16260	-3772	-1808	-77	-137	158	-15520	-1048	-3532	74	-110	390	125	123	8
-10152	-3976	11660	-71	191	-234	-15412	5540	-736	146	-110	-98	-16240	628	-340	176	0	-5	-11140	1880	12124	180	6	-152	-16048	-3724	-1728	238	-149	138	-16020	-1392	-3472	-64	258	196	125	129	8
-10144	-4040	11688	-101	168	-168	-15424	5544	-584	129	-94	-128	-16428	536	-624	251	135	42	-11236	1744	12324	185	-30	-124	-15956	-3704	-1412	427	-87	207	-15780	-1596	-3104	249	140	170	128	128	8
-10232	-4016	11584	-139	185	-163	-15468	5512	-708	0	-183	-73	-16372	508	-664	474	97	104	-11192	1860	12216	166	-36	-117	-16000	-3632	-1364	108	-102	229	-16080	-1636	-3036	383	-523	-7	128	129	8
-10172	-3952	11592	-117	150	-170	-15428	5572	-708	-7	-256	-78	-16328	672	-344	582	91	112	-11100	2096	12428	136	-29	-110	-16136	-3712	-1340	-143	-64	225	-16008	-1504	-3044	53	-561	216	127	130	8
-10100	-4040	11596	-185	142	-182	-15448	5716	-492	4	-239	-105	-16400	856	-488	449	-64	181	-11120	1936	12268	155	-42	-96	-16096	-3772	-1352	-120	-92	245	-15808	-1044	-3020	-227	-59	224	125	126	8
-10176	-3960	11496	-119	168	-178	-15412	5624	-504	-215	-168	-56	-16392	756	-296	312	-87	113	-11260	1972	12220	137	17	-136	-16112	-3612	-1560	70	-73	209	-15948	-1228	-3088	-279	3	117	129	129	8
-10216	-4072	11536	-77	141	-198	-15392	5468	-564	-189	-128	-16	-16408	832	-160	187	-51	51	-11236	1776	12336	170	-81	-180	-16104	-3604	-1528	168	-85	194	-15708	-1304	-3212	38	-366	19	125	128	8
-10152	-4020	11664	-95	121	-198	-15348	5512	-488	-227	-96	28	-16412	944	20	142	-171	6	-11112	1828	12312	168	-137	-116	-16064	-3724	-1524	97	-49	210	-15864	-1644	-2964	128	-570	131	128	129	8
-10096	-4076	11724	-109	168	-207	-15436	5444	-316	-24	-51	-6	-16408	768	-40	10	-120	170	-11132	1908	12340	113	-50	-121	-16256	-3708	-1376	-83	-62	206	-16232	-1448	-2824	-124	-300	184	124	129	8
-10148	-3968	11572	-62	137	-149	-15420	5584	-484	58	-37	12	-16316	624	-540	3	-170	194	-11152	1924	12304	115	-82	-171	-16176	-3732	-1320	-95	-32	227	-15984	-1264	-2980	-240	-296	186	127	128	8
-10176	-3964	11672	-56	176	-137	-15436	5616	-716	116	-90	-63	-16308	608	-560	173	-46	53	-11224	1872	12248	91	-38	-199	-16196	-3608	-1492	-24	-60	190	-15532	-1212	-3220	103	-197	203	126	127	8
-10192	-3960	11600	-71	148	-161	-15392	5568	-716	-93	-84	-40	-16284	896	-528	109	-58	-66	-11236	1748	12376	178	12	-155	-16200	-3632	-1588	228	-49	193	-15708	-1248	-3216	545	-100	332	125	123	8
-10144	-4012	11628	-82	136	-168	-15396	5620	-500	-95	-94	-8	-16460	816	196	284	-139	22	-11140	1816	12268	109	-50	-151	-16120	-3708	-1600	196	-81	146	-15896	-1292	-3012	-42	98	157	126	128	8
-10188	-3976	11632	-76	142	-184	-15440	5544	-572	-41	-94	35	-16432	776	-108	203	-133	162	-11204	1896	12276	145	-93	-90	-16044	-3684	-1256	58	-64	212	-16288	-1912	-2940	-217	-352	12	127	128	8
-10156	-3940	11612	-69	137	-150	-15360	5736	-556	-36	-22	24	-16372	796	-320	217	-165	162	-11096	1924	12328	116	-83	-127	-16028	-3672	-1300	-38	0	224	-15716	-1340	-3028	61	-640	79	126	127	8
-10168	-4024	11628	-96	124	-154	-15392	5472	-588	-5	-55	2	-16276	736	-468	101	-101	61	-11068	1892	12356	109	-52	-185	-16168	-3716	-1552	-97	-38	233	-15656	-1164	-3016	338	-501	303	125	123	8
-10196	-3984	11588	-59	159	-159	-15304	5612	-592	27	-39	-23	-16288	780	-288	31	-1	-59	-11120	2060	12344	120	-56	-173	-16256	-3700	-1660	59	-99	201	-16100	-1268	-3084	-137	215	279	126	131	8
-10160	-3980	11668	-90	143	-148	-15408	5608	-560	12	-68	30	-16284	880	-288	155	66	10	-11140	1844	12264	137	-22	-130	-16192	-3668	-1436	170	-52	185	-15900	-1392	-2980	-209	257	173	128	127	8
-10064	-3980	11644	-95	168	-159	-15392	5648	-584	-31	-89	14	-16452	812	-248	56	-9	163	-11156	1920	12236	123	-21	-161	-16008	-3508	-1308	42	-29	234	-15880	-1508	-3000	129	-283	119	126	125	8
-10096	-4048	11544	-117	161	-204	-15416	5528	-440	-32	-31	32	-16312	704	-352	149	-43	116	-11120	1828	12492	131	-61	-133	-16152	-3768	-1364	-70	3	200	-16196	-1584	-2656	29	-527	103	126	128	8
-10172	-4008	11664	-135	168	-162	-15432	5576	-600	45	-31	-6	-16380	788	-316	180	-150	21	-11176	1856	12296	124	-33	-161	-16252	-3640	-1556	27	32	228	-15684	-1216	-2968	73	-197	205	124	128	8
-10240	-4000	11632	-115	135	-163	-15412	5632	-600	-9	-33	5	-16308	808	-224	64	3	-36	-11200	1904	12348	152	0	-161	-16152	-3488	-1412	44	47	175	-16012	-1428	-2984	26	-110	256	126	123	8
-10148	-4020	11648	-112	147	-166	-15396	5600	-556	18	-12	-7	-16256	904	-272	-21	53	-35	-11116	1888	12428	110	-103	-166	-16144	-3656	-1432	-25	-22	176	-15868	-1248	-3024	-190	-11	177	125	128	8
-10112	-4064	11604	-81	160	-171	-15376	5588	-500	29	15	-49	-16340	736	-168	41	62	-69	-11144	1836	12304	127	-38	-181	-16188	-3668	-1488	92	-19	191	-15776	-1412	-3116	336	-141	139	129	128	8
-10184	-4048	11660	-139	208	-196	-15464	5608	-592	106	-23	-64	-16392	732	-112	-59	124	86	-11192	1824	12252	123	-25	-149	-16156	-3652	-1532	49	-44	206	-15812	-1248	-3092	180	-57	257	124	119	8
-10164	-4004	11656	-138	131	-144	-15388	5544	-620	-16	16	-16	-16492	768	-376	140	69	90	-11172	1892	12280	106	-15	-142	-16128	-3620	-1532	-4	-31	211	-16008	-1300	-3112	-459	-10	197	125	128	8
-10152	-4036	11616	-102	152	-146	-15364	5532	-568	15	-13	5	-16256	660	-352	184	-11	7	-11104	1812	12388	118	-26	-167	-16100	-3540	-1256	31	31	167	-15896	-1536	-2884	101	-289	176	126	128	8
-10152	-3924	11564	-98	147	-146	-15448	5596	-620	-46	-5	14	-16236	736	-324	-57	-27	-30	-11224	1812	12348	114	-97	-208	-16128	-3556	-1260	3	102	174	-16012	-1372	-2768	150	-248	173	126	129	8
-10148	-4048	11648	-107	154	-127	-15456	5576	-516	51	-70	-2	-16232	700	-360	-20	-10	-64	-11172	1784	12216	98	-23	-244	-16168	-3692	-1616	83	70	233	-15772	-1352	-3124	219	-10	262	125	123	8
-10220	-3896	11612	-115	141	-159	-15336	5756	-764	23	-91	-50	-16340	852	-424	136	53	59	-11108	1928	12372	110	3	-173	-16296	-3704	-1504	54	38	188	-15860	-1244	-3168	77	44	189	126	125	8
-10148	-3960	11588	-101	134	-223	-15384	5652	-708	-98	-61	-64	-16228	704	-428	165	-5	114	-11168	1840	12392	110	-25	-185	-16152	-3668	-1504	16	-14	157	-15796	-1268	-3216	-204	-86	184	126	127	8
-10212	-4004	11612	-155	115	-157	-15388	5484	-544	-53	-29	-96	-16340	748	-208	84	-34	-21	-11152	1896	12292	145	-30	-152	-16136	-3544	-1528	5	-23	170	-15752	-1232	-3136	175	-265	147	125	127	8
-10156	-4080	11560	-98	115	-170	-15456	5540	-404	-43	-52	-34	-16524	708	-168	108	-70	-44	-11220	1896	12268	137	-71	-156	-16160	-3624	-1484	-9	-9	191	-15868	-1320	-2860	239	-183	256	125	127	8
-10120	-3984	11648	-80	140	-158	-15416	5576	-564	60	-28	-4	-16432	908	-52	247	11	-42	-11108	1940	12300	103	-37	-163	-16284	-3724	-1572	88	-47	184	-15948	-1208	-2928	-141	117	247	125	127	8
-10072	-4032	11592	-78	169	-141	-15436	5576	-576	45	-1	20	-16420	772	-216	115	137	9	-11156	1860	12280	145	10	-155	-16120	-3580	-1416	93	-50	167	-15916	-1412	-3080	-45	-58	179	123	127	8
-10204	-3952	11640	-126	174	-134	-15344	5704	-740	8	-34	-48	-16332	724	-368	156	-34	70	-11164	1872	12268	116	-22	-163	-16148	-3648	-1444	87	-61	158	-15872	-1452	-3136	231	-251	159	124	125	8
-10152	-3980	11616	-99	149	-186	-15372	5584	-652	-104	-15	-65	-16308	820	-336	88	-44	-3	-11124	1876	12320	119	-39	-86	-16152	-3740	-1328	90	31	158	-15968	-1528	-3100	26	-151	179	123	124	8
-10128	-3944	11600	-102	151	-200	-15368	5552	-596	-19	-11	-46	-16352	772	-320	271	-37	-36	-11088	1836	12352	95	-57	-187	-16128	-3564	-1424	73	64	165	-16104	-1532	-3112	-95	-19	61	124	127	8
-10180	-3956	11608	-105	152	-166	-15436	5604	-520	10	-27	-63	-16344	684	-368	267	73	135	-11144	1912	12348	94	-18	-203	-16144	-3592	-1352	-4	47	142	-15812	-1280	-3236	38	-176	169	123	126	8
-10140	-3948	11564	-82	148	-173	-15376	5564	-796	-74	13	-62	-16360	832	-300	121	-90	78	-11072	1940	12260	71	-58	-199	-16160	-3640	-1524	9	-26	172	-15724	-1040	-3424	194	-255	165	124	126	8
-10136	-4080	11696	-91	169	-126	-15476	5516	-540	53	-61	-44	-16352	576	-140	234	50	-58	-11084	1892	12340	154	-3	-169	-16196	-3708	-1648	140	-36	161	-15692	-1312	-3092	278	34	314	126	125	8
-10192	-3964	11628	-95	167	-110	-15368	5680	-540	-1	-61	-53	-16356	828	-340	231	169	-16	-11232	1840	12340	108	-33	-161	-16176	-3556	-1436	174	-52	142	-16164	-1680	-3000	-106	216	249	123	128	8
-10148	-3964	11620	-100	183	-202	-15324	5632	-668	-16	-52	-36	-16336	920	-432	128	46	49	-11116	1848	12336	109	-48	-146	-16020	-3640	-1284	78	-18	182	-15868	-1432	-2860	-64	-169	95	126	127	8
-10116	-3888	11656	-118	167	-164	-15404	5636	-636	-128	-30	-62	-16476	764	-140	123	-118	-1	-11136	1928	12416	93	-64	-206	-16168	-3576	-1276	-77	28	184	-15856	-1468	-2960	192	-413	93	125	125	8
-10152	-3924	11544	-86	148	-191	-15376	5588	-496	12	-14	-66	-16456	652	-72	86	-112	3	-11084	1812	12292	88	-29	-156	-16184	-3680	-1544	-22	9	172	-16488	-1632	-3060	-174	-256	82	123	129	8
-10196	-4012	11620	-104	179	-182	-15380	5568	-576	98	-10	-54	-16372	696	-232	276	10	-26	-11160	1744	12212	106	18	-173	-16104	-3628	-1600	110	23	156	-15796	-1068	-3196	20	-26	199	123	126	8
-10160	-3940	11664	-108	167	-159	-15376	5640	-652	113	-35	-22	-16388	724	-268	278	27	2	-11140	1896	12436	124	-49	-176	-16084	-3572	-1472	60	-8	125	-15888	-1328	-3112	-77	-169	170	124	127	8
-10092	-3968	11704	-147	163	-148	-15396	5644	-668	52	-14	-90	-16312	748	-524	332	92	69	-11116	1852	12324	88	-83	-178	-16168	-3792	-1484	62	5	145	-15736	-1496	-2968	254	-214	260	123	127	8
-10176	-3896	11616	-87	120	-186	-15392	5624	-708	-24	-43	-65	-16272	760	-388	174	48	64	-11104	1820	12300	136	-61	-155	-16200	-3716	-1640	154	-12	167	-16020	-1492	-3124	437	-57	230	123	127	8
-10128	-4004	11700	-87	130	-208	-15408	5500	-484	-18	-92	-54	-16360	684	-296	349	33	114	-11176	1868	12280	121	-33	-163	-16152	-3580	-1500	102	-50	138	-16280	-1356	-2824	-77	-13	230	124	128	8
-10152	-3952	11576	-94	133	-178	-15344	5608	-504	-66	-69	-61	-16436	756	-296	174	-48	81	-11076	1824	12256	112	-62	-175	-16132	-3684	-1500	70	-26	170	-15948	-1448	-3064	-148	-101	143	123	127	8
-10128	-3980	11564	-106	152	-189	-15396	5544	-532	55	-77	-49	-16484	736	-372	488	-24	35	-11188	1848	12316	124	-61	-189	-16132	-3640	-1380	21	29	150	-15808	-1404	-3068	56	-508	21	123	127	8
-10160	-4028	11592	-104	169	-157	-15456	5620	-700	53	-100	-37	-16332	808	-280	378	41	86	-11164	1920	12260	120	-80	-154	-16172	-3636	-1504	34	-26	195	-15648	-1124	-3108	258	-345	180	126	126	8
-10156	-3984	11600	-93	157	-183	-15416	5612	-632	-92	-90	-50	-16228	716	-452	99	-87	98	-11116	1884	12264	131	-44	-132	-16152	-3644	-1612	43	-78	188	-15816	-1220	-3120	-14	54	301	123	127	8
-10152	-3960	11640	-93	159	-136	-15348	5552	-508	-23	-88	-41	-16364	764	-344	233	-27	55	-11168	1920	12376	132	21	-132	-16148	-3656	-1452	67	-104	204	-16232	-1632	-2972	-68	91	217	123	128	8
-10108	-3932	11544	-108	156	-180	-15392	5508	-500	32	-60	-39	-16444	948	-48	329	-11	0	-11096	1904	12348	128	-10	-156	-16140	-3624	-1456	180	-10	194	-15976	-1516	-2792	-50	-167	112	124	131	8
-10152	-3976	11680	-110	174	-175	-15420	5608	-548	51	-59	-49	-16284	792	-296	313	17	42	-11188	1872	12320	126	-77	-132	-16092	-3564	-1452	64	-35	209	-15804	-1220	-3044	116	-425	104	123	126	8
-10152	-3968	11608	-74	145	-196	-15400	5584	-636	46	-7	-30	-16444	688	-528	239	-26	106	-11124	1908	12192	105	-77	-179	-16144	-3608	-1416	-16	32	179	-15952	-1444	-2984	-79	-388	164	124	128	8
-10144	-4012	11652	-124	121	-172	-15360	5564	-716	-13	-4	-14	-16420	664	-104	250	-127	77	-11136	1876	12296	145	-74	-175	-16132	-3668	-1508	33	-29	206	-15856	-1348	-3116	-39	-197	201	123	127	8
-10160	-3984	11668	-139	152	-155	-15496	5532	-532	28	-22	-39	-16324	632	-476	221	40	44	-11200	1904	12332	173	-47	-142	-16160	-3584	-1448	153	-1	228	-15876	-1360	-2928	297	73	290	125	122	8
-10144	-3972	11660	-158	113	-171	-15376	5596	-592	24	-9	-13	-16412	852	-332	345	37	13	-11184	1908	12308	149	-84	-175	-16112	-3672	-1440	98	11	191	-15992	-1344	-3136	-15	165	153	125	128	8
-10180	-3948	11572	-127	111	-168	-15416	5612	-592	45	-14	-34	-16368	904	-284	262	-69	66	-11216	1932	12304	147	-44	-114	-16072	-3600	-1412	78	5	210	-16004	-1572	-3184	112	-223	112	125	128	8
-10148	-3980	11648	-101	146	-184	-15308	5588	-572	-41	46	-14	-16464	716	-184	219	-29	94	-11204	1876	12380	118	-53	-119	-16084	-3620	-1492	17	31	183	-15832	-1436	-2932	113	-354	230	123	128	8
-10148	-3996	11540	-84	136	-151	-15372	5524	-512	1	20	7	-16292	740	-320	25	-51	-23	-11092	1968	12332	106	-60	-134	-16192	-3612	-1492	-41	-1	232	-15808	-1284	-2996	222	-107	362	123	127	8
-10160	-3904	11688	-102	169	-173	-15424	5636	-604	76	-6	29	-16308	740	-460	117	-77	-7	-11100	1836	12448	143	-30	-160	-16160	-3668	-1456	-9	-44	170	-16036	-1284	-2924	-33	101	273	128	129	8
-10124	-3960	11644	-96	159	-194	-15480	5644	-592	32	-59	-20	-16380	836	-440	103	1	61	-11212	1808	12364	116	12	-178	-16140	-3688	-1508	125	-24	189	-15780	-1292	-3080	-55	68	126	129	129	8
-10160	-3952	11672	-74	178	-158	-15424	5592	-604	-5	-68	0	-16344	784	-304	97	102	54	-11228	1816	12408	122	-58	-205	-16096	-3504	-1556	155	-44	185	-15816	-1332	-3348	105	-294	123	126	127	8
-10160	-3968	11596	-89	170	-196	-15308	5600	-664	-77	-74	-16	-16368	760	-368	186	-101	137	-11168	1828	12468	93	-40	-171	-16064	-3708	-1564	-53	-78	171	-15800	-1496	-3112	-49	-421	181	127	128	8
-10164	-3988	11652	-87	178	-189	-15372	5580	-564	3	-36	-20	-16388	752	-216	185	-42	46	-11116	1844	12296	131	-21	-141	-16140	-3736	-1416	76	-35	230	-15920	-1592	-2840	43	-177	280	129	124	8
-10144	-3972	11620	-75	126	-172	-15392	5600	-512	121	-79	-8	-16508	764	-384	264	-31	34	-11144	1944	12384	112	-46	-167	-16164	-3504	-1372	-15	-18	228	-16120	-1356	-3032	-231	82	174	125	129	8
-10132	-3936	11656	-114	164	-184	-15388	5656	-656	29	-86	-13	-16352	752	-460	351	56	151	-11120	1828	12360	100	-48	-204	-16060	-3624	-1408	79	-17	214	-15872	-1204	-2904	-159	12	171	124	127	8
-10164	-4048	11592	-96	136	-162	-15420	5652	-632	-123	-19	-29	-16424	772	-276	354	-90	157	-11200	1860	12308	136	-66	-161	-16180	-3632	-1548	92	-4	230	-15812	-1460	-3128	125	-290	179	124	123	8
