#Activity	standing 
#ActivityID	8 
#Date 09-23-18-01
acc_rf_x	acc_rf_y	acc_rf_z	gyro_rf_x	gyro_rf_y	gyro_rf_z	acc_rs_x	acc_rs_y	acc_rs_z	gyro_rs_x	gyro_rs_y	gyro_rs_z	acc_rt_x	acc_rt_y	acc_rt_z	gyro_rt_x	gyro_rt_y	gyro_rt_z	acc_lf_x	acc_lf_y	acc_lf_z	gyro_lf_x	gyro_lf_y	gyro_lf_z	acc_ls_x	acc_ls_y	acc_ls_z	gyro_ls_x	gyro_ls_y	gyro_ls_z	acc_lt_x	acc_lt_y	acc_lt_z	gyro_lt_x	gyro_lt_y	gyro_lt_z	EMG_r	EMG_l	act
-8076	-2008	13712	-7	35	-10	-16184	2072	-1488	39	24	39	-16152	1000	-2384	20	1	46	-8560	472	14680	193	284	-206	-16400	-48	-2520	27	32	48	-15744	-1760	-2688	157	39	38	126	125	8
-8052	-2048	13648	-4	50	-9	-16240	1808	-1816	49	37	43	-16056	632	-2728	108	38	76	-8552	568	14368	187	246	-185	-16456	136	-2544	70	24	50	-15816	-1608	-3080	193	24	42	126	124	8
-8124	-2160	13584	-5	62	1	-16200	1992	-2232	29	47	46	-16224	984	-3384	11	13	111	-8536	552	14392	223	247	-152	-16464	368	-2600	63	-5	54	-15928	-1200	-3040	206	19	73	127	124	8
-8128	-2140	13480	2	58	5	-16008	1848	-2496	27	44	42	-15664	1568	-3984	-83	-23	123	-8464	464	14480	183	138	-130	-16144	416	-2504	74	-10	50	-15624	-856	-2624	203	36	96	127	124	8
-8192	-1844	13684	5	38	5	-15184	2104	-2600	-22	45	42	-14744	1800	-4176	-64	-26	110	-8624	584	14360	157	15	-125	-16312	520	-2304	88	-17	45	-15680	-712	-2592	161	50	85	127	124	8
-8336	-1852	13684	5	2	-3	-15488	1872	-2576	-21	41	41	-14744	1624	-4088	57	12	98	-8416	592	14456	144	-84	-115	-16376	472	-2432	36	-21	40	-16008	-376	-2272	57	61	80	127	124	8
-8280	-1832	13716	4	-28	-20	-15408	2232	-2720	-13	35	40	-15080	1368	-3512	140	79	77	-8584	648	14664	114	-130	-76	-16600	152	-1928	35	0	28	-16080	528	-1656	-59	63	35	128	124	8
-8220	-1868	13672	-3	-35	-30	-16120	2248	-2136	12	29	43	-15968	1808	-3008	175	108	67	-8424	552	14528	106	-72	-39	-16776	400	-1632	36	16	26	-16456	760	-1160	-134	90	-29	127	124	8
-8036	-2016	13704	-2	-22	-35	-16624	2184	-1608	48	35	36	-16672	2112	-2648	196	126	88	-8328	552	14400	78	43	-76	-16728	800	-1624	-24	37	19	-16672	664	-1280	-132	96	-65	127	124	8
-7928	-2080	13748	-1	12	-29	-16376	2232	-1680	62	50	24	-16552	2360	-2536	172	96	117	-8416	776	14680	57	207	-192	-16912	496	-1440	-92	58	4	-16600	-384	-1744	-66	54	-63	127	124	8
-8096	-2088	13716	-10	43	-16	-16392	1880	-1824	60	70	23	-16472	2624	-2976	41	73	72	-8488	544	14456	45	295	-298	-16720	168	-1888	-72	73	-4	-16208	-1320	-2328	-2	23	-41	127	125	8
-8212	-2096	13608	-3	61	-5	-16056	2096	-2336	67	81	19	-16160	2256	-3512	-102	48	35	-8576	552	14496	48	264	-322	-16416	264	-2352	-12	79	-7	-15720	-1960	-2752	54	13	-18	127	125	8
-8172	-2080	13592	-4	62	6	-15848	2224	-2368	5	81	25	-15560	2208	-4200	-186	3	9	-8520	568	14560	73	190	-305	-16168	312	-2624	7	74	-4	-15480	-1848	-3152	84	27	23	128	124	8
-8340	-1944	13704	1	47	8	-15376	2184	-2912	-64	85	14	-14960	2360	-4688	-197	-14	-21	-8512	424	14360	67	131	-251	-16176	160	-2880	16	66	-6	-15536	-1656	-3320	101	35	21	127	123	8
-8232	-1920	13568	-5	28	2	-15544	2088	-2904	-68	72	2	-15032	2336	-4704	-206	-12	-25	-8408	440	14472	116	31	-156	-16296	168	-2936	26	47	-9	-15896	-1120	-2944	118	63	13	127	123	8
-8244	-1828	13736	-3	8	-9	-15848	2520	-3008	-37	41	-3	-15344	1744	-4624	-129	41	-31	-8576	592	14456	94	4	-140	-16416	288	-2504	14	29	-1	-15976	-1056	-2672	106	104	14	127	123	8
-8312	-1768	13528	-16	0	-23	-15864	2520	-3056	-13	22	0	-15544	1672	-4320	-56	87	-26	-8520	576	14568	94	-83	-160	-16328	136	-2352	18	21	1	-16128	-816	-2584	34	98	7	127	124	8
-8192	-1968	13676	-13	-4	-37	-15904	2560	-2648	-17	9	-12	-15792	1416	-4264	26	105	1	-8592	616	14488	97	-107	-187	-16248	88	-2256	47	23	8	-16064	-448	-2536	-14	63	-28	127	124	8
-8220	-1972	13724	-15	-7	-40	-15728	2200	-2360	10	8	-30	-15944	1072	-4088	86	70	42	-8480	640	14448	60	-149	-154	-16576	224	-2288	48	34	16	-16192	-520	-2888	-52	25	-56	127	124	8
-8228	-2040	13628	-17	1	-34	-16008	2096	-2304	9	7	-24	-15960	856	-3736	93	3	48	-8472	592	14504	56	-122	-142	-16648	536	-2416	-21	26	9	-16312	-488	-3144	-85	-8	-60	127	124	8
-8148	-2072	13760	-15	4	-32	-16104	1936	-2648	72	16	-25	-16104	1320	-4104	66	-22	36	-8544	560	14528	85	-9	-154	-16696	368	-2704	-68	31	-2	-16152	-1080	-3176	-115	-24	-67	127	124	8
-8112	-1988	13624	-13	16	-20	-16288	2248	-2648	63	10	-25	-16016	2104	-4344	63	-36	4	-8544	624	14552	60	10	-175	-16576	344	-2824	-68	16	-7	-15808	-1792	-3752	-81	-26	-53	127	124	8
-8144	-1952	13744	-15	16	-22	-16080	2288	-2808	24	1	-23	-15432	2616	-4520	92	-42	-15	-8624	536	14344	62	-2	-204	-16640	-56	-3032	-42	-9	-6	-15896	-2392	-3464	-38	-23	-43	127	124	8
-8224	-1904	13600	-17	16	-29	-15800	2048	-2800	-17	-16	-20	-15288	2416	-4240	48	-27	-28	-8504	472	14520	123	-39	-182	-16504	-48	-2880	-34	-6	-3	-15552	-2152	-2400	-53	-31	-5	127	125	8
-8152	-1908	13648	-23	19	-28	-16136	2136	-2376	-17	-27	-14	-15704	1768	-3672	12	-4	-38	-8552	416	14640	128	-77	-98	-16144	72	-2560	17	-20	9	-15680	-1272	-1952	-90	4	22	127	125	8
-8188	-1936	13684	-24	22	-31	-16056	2112	-2528	-23	-30	-19	-15816	808	-2952	-6	27	-31	-8472	544	14136	120	-107	-20	-16448	48	-2096	-23	-6	15	-15944	-296	-1008	-147	56	10	126	124	8
-8180	-1904	13680	-17	15	-37	-15696	1904	-2040	-48	-5	-16	-15712	272	-2448	2	66	28	-8360	560	14528	94	-126	13	-16352	168	-1616	-48	26	10	-16104	-88	-760	-157	103	-21	126	124	8
-8160	-2108	13660	-13	12	-25	-15840	1584	-2048	-21	19	-6	-16152	384	-2408	-39	33	58	-8456	736	14624	27	-51	-114	-16496	376	-1760	-70	42	25	-16464	-968	-1936	-16	81	-56	127	123	8
-8152	-2104	13688	-6	13	-14	-16168	1800	-1840	15	40	1	-16192	1176	-3288	-48	4	71	-8536	744	14584	42	92	-250	-16832	152	-2256	-52	47	28	-16600	-1792	-2816	156	29	-43	127	124	8
-8112	-2008	13620	-10	25	-8	-16136	2032	-2424	28	46	23	-16032	1488	-3888	-42	-15	57	-8368	616	14512	108	105	-249	-16552	184	-2672	44	58	14	-16024	-1600	-3176	188	-4	11	126	124	8
-8176	-2008	13704	-7	23	-1	-15840	2040	-2688	20	45	26	-15464	1648	-4176	-3	-23	42	-8560	472	14600	87	164	-360	-16472	232	-2960	76	36	21	-15584	-1912	-3736	173	2	45	126	124	8
-8192	-1908	13576	-7	25	-5	-15856	2392	-2624	27	36	18	-15552	1824	-4448	15	-9	36	-8632	560	14408	109	96	-315	-16512	184	-3168	57	12	18	-15760	-1552	-4104	165	-13	47	127	124	8
-8184	-1788	13604	-8	25	-7	-15936	2440	-2808	14	16	13	-15488	2352	-4344	-6	3	31	-8488	424	14504	151	135	-195	-16440	8	-2920	44	-2	9	-15840	-1360	-3696	149	-9	37	127	124	8
-8252	-1896	13692	-15	29	-15	-16080	2336	-2936	-12	6	-7	-15576	2760	-4288	-31	16	33	-8592	424	14528	203	145	-100	-16552	32	-2704	47	-18	2	-15848	-896	-3088	108	21	23	127	124	8
-8276	-1932	13752	-14	37	-17	-16104	2360	-2792	-15	4	-15	-15800	2816	-4184	-37	17	17	-8456	512	14576	217	135	-19	-16424	208	-2592	40	-22	12	-15896	-856	-2408	47	42	2	126	123	8
-8144	-1912	13636	-13	40	-23	-15664	2520	-2448	-13	-1	-21	-15584	2376	-4072	-1	13	2	-8560	728	14608	178	45	-58	-16216	208	-2032	41	-23	10	-15736	-664	-2216	2	43	-18	126	123	8
-8176	-1924	13724	-21	40	-24	-15880	2160	-2216	-17	8	-23	-15616	1480	-4168	10	4	-6	-8560	488	14544	123	-45	-101	-16288	368	-2288	20	-25	20	-15904	-256	-2336	-40	29	-30	126	123	8
-8232	-1924	13676	-20	34	-28	-15824	2160	-2648	-7	9	-26	-15560	864	-4032	10	-10	-4	-8488	640	14584	88	-128	-126	-16200	376	-2720	-20	-13	10	-16024	8	-2848	-119	-2	-56	126	123	8
-8264	-1988	13548	-16	22	-26	-15800	1832	-2968	12	12	-30	-15496	560	-4056	23	-17	7	-8456	592	14664	76	-82	-115	-16472	368	-2368	-42	-4	-5	-16016	-400	-2744	-179	-25	-92	126	123	8
-8192	-1936	13640	-15	19	-28	-15896	2120	-2520	43	3	-12	-15712	1160	-4192	57	-5	9	-8608	520	14456	2	-185	-117	-16424	168	-2376	-53	4	-4	-16000	-1104	-2616	-157	-6	-91	126	123	8
-8264	-1936	13648	-20	7	-21	-15784	2184	-2712	13	2	-20	-15760	1576	-3728	39	-2	12	-8592	704	14504	2	-140	-173	-16400	120	-2392	-68	9	-12	-16120	-1544	-2208	-95	17	-72	126	124	8
-8252	-1920	13596	-16	2	-26	-15912	2080	-2496	-23	3	-23	-15752	2088	-3544	20	1	16	-8496	480	14560	42	-92	-240	-16680	32	-2256	-49	17	-8	-16208	-1928	-1776	-39	29	-43	126	124	8
-8104	-1984	13600	-16	9	-15	-15992	1960	-2048	-27	11	-23	-15912	2128	-3528	-25	-10	-1	-8352	480	14368	56	-56	-213	-16568	-40	-2320	-10	29	-7	-16200	-1904	-2168	28	26	-16	126	124	8
-8096	-2048	13612	-15	15	-15	-16144	2152	-2256	-26	24	-22	-16040	1928	-3392	-82	-29	-26	-8480	488	14408	42	35	-200	-16520	-104	-2496	-4	33	9	-16064	-1736	-2192	77	34	1	126	124	8
-8160	-1916	13660	-15	26	-19	-15968	2232	-2360	-3	23	-18	-15784	1536	-3544	-97	-33	-33	-8520	552	14504	117	81	-211	-16448	8	-2464	-17	36	10	-16008	-1608	-2752	96	37	24	126	124	8
-8180	-1912	13660	-13	34	-16	-16056	2072	-2432	-9	30	-17	-15848	1368	-3584	-101	-32	-22	-8416	592	14392	85	114	-174	-16424	88	-2760	-11	35	11	-15856	-1424	-3000	94	35	25	126	124	8
-8244	-1988	13712	-12	40	-15	-16112	1928	-2656	-23	29	-14	-15872	1288	-3760	-67	-33	-8	-8544	536	14480	99	94	-167	-16480	304	-2600	4	25	11	-15848	-1152	-3384	72	22	10	126	124	8
-8212	-1984	13668	-8	40	-10	-15984	1992	-2520	-4	28	-9	-15656	1040	-4240	-29	-26	-5	-8592	536	14576	147	38	-151	-16392	280	-2888	13	13	15	-15848	-1032	-3680	50	-3	-9	126	124	8
-8248	-1940	13640	-6	42	-13	-15864	2120	-2624	17	28	-5	-15440	904	-4304	-2	-29	15	-8680	560	14512	103	17	-163	-16320	304	-2912	33	7	16	-15728	-1024	-3288	28	-20	-23	126	124	8
-8308	-1864	13756	-5	35	-19	-15768	2288	-2536	18	26	-6	-15600	1128	-4112	-1	-29	25	-8608	536	14448	111	-43	-163	-16424	160	-2688	48	-4	9	-15736	-1328	-3088	-1	-13	-22	126	124	8
-8296	-1972	13552	-9	29	-18	-15792	2088	-2888	12	19	-6	-15384	1280	-4008	41	-19	39	-8584	440	14640	119	-19	-139	-16376	264	-2680	26	-14	13	-15944	-1400	-3104	-22	-9	-7	126	124	8
-8208	-1880	13600	-8	21	-23	-15856	1992	-2624	25	17	-7	-15408	1456	-4400	73	-6	44	-8408	576	14568	114	-70	-152	-16368	32	-2896	1	-11	11	-15912	-1432	-2648	-25	-15	-6	126	124	8
-8324	-1936	13628	-7	12	-22	-15784	2000	-2952	35	4	-6	-15512	1624	-4352	80	-1	33	-8448	456	14576	147	-116	-134	-16440	72	-2616	9	-12	7	-15880	-1496	-2272	-21	-15	-9	126	124	8
-8304	-1940	13708	-11	7	-27	-15792	2136	-2656	19	-1	-7	-15560	1744	-4008	65	2	31	-8448	600	14392	136	-39	-92	-16656	136	-2584	5	-8	14	-16032	-1368	-2480	8	-5	1	126	124	8
-8248	-1964	13664	-14	5	-20	-15984	2152	-2608	-1	-8	-11	-15464	1800	-3928	44	6	26	-8392	616	14704	95	-41	-73	-16472	120	-2400	7	-9	15	-16232	-1072	-2232	25	12	6	126	124	8
-8192	-1980	13588	-14	8	-25	-16136	1952	-2736	-5	-8	-14	-15832	1720	-3672	14	8	26	-8512	680	14416	85	-43	-127	-16448	24	-2024	4	-1	13	-16152	-1000	-2632	25	21	5	126	124	8
-8284	-1940	13600	-13	9	-25	-15912	2176	-2680	4	-6	-16	-15944	1744	-3848	-11	7	19	-8488	504	14320	147	43	-146	-16448	152	-2632	13	1	16	-16160	-1040	-2192	32	21	0	126	124	8
-8232	-1972	13560	-13	10	-26	-16064	1984	-2536	-8	-4	-8	-15904	1680	-3680	-27	-5	14	-8504	584	14544	104	8	-155	-16368	184	-2448	10	10	17	-16080	-1048	-2280	32	11	-2	126	123	8
-8196	-1900	13712	-12	17	-21	-15888	2096	-2224	-10	-1	-10	-15832	1488	-3848	-26	-5	9	-8368	456	14592	46	4	-167	-16304	72	-2568	2	10	13	-16072	-1128	-2520	25	11	0	126	124	8
-8240	-1980	13656	-12	18	-21	-15832	1952	-2680	6	4	-8	-15624	1288	-3712	-23	-12	6	-8544	560	14488	91	33	-180	-16496	168	-2760	-18	8	16	-15952	-1312	-2808	18	3	-4	126	124	8
-8208	-1912	13596	-8	15	-21	-15936	2056	-3104	7	7	-9	-15656	1344	-3784	-20	-11	2	-8368	560	14568	73	15	-162	-16544	-16	-2872	-13	12	12	-15952	-1272	-2704	17	-2	-9	127	124	8
-8308	-1956	13572	-11	17	-17	-16048	2024	-2576	-1	3	-6	-15632	1360	-4080	-24	-13	1	-8536	512	14288	96	54	-159	-16656	40	-2904	-1	9	10	-15784	-1448	-3224	17	-3	-13	126	124	8
-8208	-1960	13604	-12	19	-18	-16000	2120	-2584	-1	1	-10	-15720	1400	-3904	-14	-15	15	-8512	504	14432	119	-26	-152	-16312	224	-2720	2	4	13	-15896	-1536	-3016	4	7	-7	126	124	8
-8228	-1920	13620	-13	19	-22	-15856	1928	-2976	-7	-4	-8	-15632	1352	-4000	-9	-17	19	-8640	640	14544	124	9	-115	-16392	-96	-2720	2	-6	13	-15840	-1272	-2800	-2	2	-3	126	124	8
-8268	-1868	13608	-16	17	-23	-15752	2160	-2744	1	-5	-10	-15544	1392	-4120	8	-9	16	-8608	496	14488	137	27	-158	-16400	-88	-2568	13	-4	14	-15968	-1512	-2736	-8	-9	4	127	124	8
-8264	-2016	13556	-14	15	-24	-15776	1984	-2656	3	-3	-8	-15648	1480	-3808	13	-10	20	-8544	432	14752	152	26	-103	-16440	120	-2464	14	-10	13	-15768	-1648	-2856	19	-6	7	126	124	8
-8212	-1920	13720	-11	12	-24	-15888	2048	-2800	15	-5	-5	-15520	1384	-3872	20	-7	26	-8384	496	14472	98	-1	-135	-16520	80	-2704	20	-17	18	-15872	-1408	-2736	38	-1	5	127	124	8
-8216	-2004	13540	-10	6	-29	-15848	2024	-2816	12	-6	-5	-15760	1376	-3984	31	-9	28	-8560	560	14624	124	24	-140	-16416	176	-2800	28	-14	16	-15896	-1288	-2736	45	-5	15	126	124	8
-8168	-1944	13676	-10	5	-26	-15984	2072	-2792	9	-9	-4	-15824	1392	-4016	24	-10	28	-8504	576	14400	172	-6	-113	-16456	88	-2784	35	-9	23	-16016	-1208	-2592	53	-10	9	126	124	8
-8268	-1952	13752	-15	10	-22	-15976	1960	-2632	7	-10	-9	-15704	1432	-3912	21	-12	34	-8528	480	14536	154	-3	-108	-16496	176	-2544	34	-11	24	-15968	-1160	-2648	42	-11	14	127	124	8
-8176	-1872	13616	-9	11	-22	-15904	2224	-2472	11	-15	-5	-15824	1520	-3840	23	-10	33	-8608	464	14712	152	-34	-119	-16456	144	-2640	30	-13	25	-15968	-1312	-2648	41	-7	18	127	124	8
-8200	-1940	13632	-13	14	-23	-15904	2072	-2512	10	-12	-5	-15768	1616	-3776	18	-16	32	-8320	520	14600	189	-13	-114	-16656	16	-2376	22	-13	24	-15936	-1232	-2736	43	-9	19	127	124	8
-8280	-1908	13640	-13	15	-25	-15856	2048	-2824	5	-10	-2	-15760	1584	-3976	18	-25	28	-8576	544	14672	172	-56	-116	-16408	-40	-2640	22	-7	22	-15984	-1336	-2632	38	-13	15	127	124	8
-8216	-2016	13508	-16	13	-24	-15832	1928	-2680	11	-10	-5	-15584	1496	-4000	12	-21	23	-8512	520	14336	190	19	-125	-16448	88	-2616	24	-10	24	-15784	-1368	-2800	34	-15	17	127	124	8
-8284	-1928	13644	-13	6	-25	-15888	2088	-2736	14	-9	-1	-15640	1488	-4112	4	-22	20	-8440	544	14232	170	44	-61	-16472	-24	-2512	25	-10	20	-15864	-1376	-2576	33	-19	16	127	124	8
-8180	-1948	13620	-11	4	-25	-15824	1976	-2784	0	-9	-7	-15528	1568	-4168	4	-24	18	-8528	480	14848	183	-18	-62	-16536	96	-2888	17	-11	23	-16080	-1200	-2360	36	-14	24	126	124	8
-8256	-1960	13632	-14	4	-27	-15856	2064	-2472	7	-12	-4	-15656	1416	-4304	-3	-21	25	-8472	488	14504	169	4	-105	-16504	-16	-2560	15	-20	22	-15984	-1312	-2968	42	-19	16	126	124	8
-8208	-1948	13700	-12	-1	-25	-16000	2120	-2704	-1	-13	-3	-15720	1560	-4104	1	-24	22	-8528	456	14792	212	38	-114	-16600	88	-2840	23	-24	20	-16048	-1168	-2768	35	-21	16	126	124	8
-8200	-1760	13756	-9	-2	-26	-15816	2184	-2824	12	-21	-11	-15632	1576	-4136	6	-28	16	-8592	680	14584	186	-13	-77	-16320	200	-2448	32	-21	23	-15808	-1288	-2848	38	-21	16	126	124	8
-8168	-2008	13636	-10	-3	-26	-16008	2200	-2792	7	-22	-9	-15704	1608	-4120	-5	-29	23	-8488	480	14536	174	22	-112	-16480	232	-2760	29	-22	26	-15936	-1328	-2824	41	-21	20	126	124	8
-8208	-1992	13560	-16	0	-26	-16008	2208	-2648	-9	-30	-9	-15816	1720	-3984	1	-30	24	-8504	416	14208	168	29	-88	-16320	168	-2560	23	-29	29	-15904	-1336	-2872	37	-34	24	126	124	8
-8200	-1948	13680	-13	-1	-26	-15952	1984	-2608	2	-31	-16	-15768	1592	-3792	16	-28	22	-8520	560	14664	159	-21	-96	-16408	80	-2576	25	-26	22	-15784	-1208	-2592	41	-35	25	126	124	8
-8192	-2000	13600	-12	1	-27	-16008	2312	-2664	10	-36	-7	-15792	1512	-4144	23	-25	23	-8448	448	14488	183	-76	-110	-16424	88	-2808	23	-26	25	-15992	-1288	-2680	43	-29	30	126	124	8
-8184	-1952	13660	-16	6	-29	-16072	2176	-2456	7	-37	-11	-15824	1544	-3960	33	-23	22	-8456	544	14560	151	20	-99	-16528	56	-2480	18	-30	25	-15984	-1240	-2840	44	-31	25	126	124	8
-8176	-1952	13692	-14	3	-29	-16008	2000	-2768	-4	-34	-13	-15888	1464	-3976	42	-25	26	-8672	400	14520	158	3	-88	-16504	-8	-2752	20	-37	27	-16096	-1216	-2760	38	-32	28	126	124	8
-8204	-1924	13688	-22	4	-32	-15808	2080	-2600	12	-38	-9	-15784	1472	-3800	46	-30	38	-8616	536	14440	175	-41	-91	-16352	56	-2440	23	-36	26	-15928	-1128	-2624	38	-37	26	126	124	8
-8156	-1952	13612	-20	3	-28	-15808	1968	-2664	14	-34	-8	-15696	1552	-3712	37	-31	32	-8464	552	14536	155	-2	-85	-16392	48	-2424	30	-37	21	-15832	-1160	-2696	42	-39	23	126	124	8
-8168	-1996	13596	-15	0	-30	-16032	2000	-2592	12	-29	-8	-15704	1624	-3656	33	-36	30	-8464	520	14528	195	-42	-71	-16504	288	-2464	21	-35	27	-15928	-1104	-2616	40	-34	28	126	124	8
-8196	-1900	13680	-14	3	-27	-15856	2136	-2592	8	-31	-11	-15816	1608	-3736	32	-33	26	-8456	512	14416	159	-38	-87	-16544	96	-2328	20	-34	21	-15936	-1248	-2704	50	-38	27	126	124	8
-8192	-1948	13672	-16	1	-32	-16000	2160	-2472	8	-30	-10	-15680	1592	-3672	23	-36	23	-8472	536	14504	146	-43	-112	-16560	160	-2536	26	-36	23	-15944	-1128	-2760	49	-35	27	126	124	8
-8208	-1912	13576	-15	-1	-27	-15904	2112	-2400	5	-29	-13	-15688	1656	-3784	10	-39	22	-8512	440	14696	115	-20	-96	-16328	144	-2680	35	-32	25	-16080	-1104	-2472	53	-42	25	126	124	8
-8196	-2004	13644	-17	1	-28	-15952	2104	-2872	0	-28	-8	-15720	1744	-3696	-9	-40	17	-8504	576	14416	176	-88	-110	-16368	104	-2640	30	-31	22	-15992	-1136	-2440	53	-41	27	126	124	8
-8112	-1980	13516	-15	4	-28	-15920	2040	-2672	-3	-28	-12	-15768	1424	-4000	-3	-39	20	-8312	568	14672	129	-43	-106	-16488	120	-2400	12	-38	27	-16080	-1272	-2360	56	-38	33	126	123	8
-8208	-1948	13616	-14	4	-30	-15952	2136	-2352	-2	-32	-17	-15616	1512	-4096	1	-37	15	-8584	488	14472	157	-18	-79	-16552	120	-2520	16	-35	22	-15944	-1248	-2736	58	-39	35	126	123	8
-8152	-1984	13704	-18	3	-28	-16000	2080	-2056	7	-35	-10	-15600	1568	-3984	8	-35	19	-8408	544	14696	171	19	-82	-16384	72	-2656	17	-36	20	-15880	-1184	-2584	57	-40	31	126	123	8
-8160	-1960	13644	-18	7	-25	-15952	2096	-2504	4	-43	-10	-15784	1496	-4104	11	-36	20	-8528	560	14400	158	-54	-62	-16368	80	-2384	19	-36	24	-15976	-1168	-2472	53	-33	35	126	123	8
-8180	-1960	13756	-15	10	-29	-16080	1984	-2480	-5	-43	-18	-15792	1408	-4016	17	-34	24	-8456	440	14416	129	-50	-85	-16552	200	-2440	24	-32	21	-16048	-1056	-2856	36	-42	38	126	123	8
-8108	-1988	13684	-20	7	-28	-15856	1960	-2568	-10	-40	-18	-15488	1440	-3768	29	-35	24	-8464	432	14392	127	-27	-70	-16488	112	-2216	20	-40	20	-16168	-928	-2376	41	-46	29	126	123	8
-8128	-1900	13652	-19	11	-28	-16000	1976	-2336	-2	-41	-17	-15720	1368	-3576	29	-37	30	-8416	640	14520	129	-110	-111	-16640	152	-2640	18	-39	20	-16128	-1192	-2480	41	-44	18	126	123	8
-8132	-1988	13608	-20	7	-26	-15904	2104	-2176	3	-37	-13	-15792	1472	-3808	28	-35	24	-8552	744	14456	112	-45	-127	-16448	152	-2288	10	-38	21	-16088	-1184	-2376	33	-31	17	126	123	8
-8120	-2044	13776	-17	13	-28	-16064	2120	-2664	12	-40	-13	-15920	1408	-3584	34	-37	20	-8504	632	14472	160	-4	-97	-16544	96	-2496	8	-40	20	-16064	-1112	-2496	22	-35	12	126	123	8
-8132	-1984	13756	-18	11	-23	-15992	1984	-2552	1	-31	-17	-15736	1600	-3840	16	-38	21	-8456	504	14528	127	4	-106	-16480	56	-2144	9	-41	22	-16016	-984	-2520	28	-30	11	126	123	8
-8156	-1988	13640	-19	13	-25	-16008	1968	-2488	-2	-37	-17	-15840	1496	-3688	11	-36	22	-8464	560	14488	189	-14	-99	-16520	176	-2296	2	-37	21	-16136	-1184	-2320	35	-26	20	126	123	8
-8140	-1992	13608	-15	13	-26	-15928	2040	-2432	-2	-32	-19	-15808	1504	-3424	11	-35	13	-8680	632	14408	158	-22	-96	-16360	88	-2152	0	-39	15	-16040	-992	-2264	24	-28	22	126	123	8
-8160	-1988	13732	-17	16	-27	-15936	1984	-2440	-3	-25	-22	-15616	1472	-3544	9	-38	15	-8520	424	14232	125	0	-131	-16240	128	-2176	8	-39	19	-16032	-1048	-2288	25	-30	17	125	123	8
-8128	-1956	13740	-17	11	-28	-15768	1960	-2576	4	-23	-17	-15824	1600	-3408	-6	-50	13	-8488	568	14600	133	-20	-170	-16536	160	-2272	15	-32	19	-16120	-1128	-2248	29	-21	17	126	123	8
-8148	-2044	13744	-16	11	-26	-15952	1984	-2328	5	-22	-17	-15752	1368	-3328	-12	-47	11	-8424	496	14424	108	-25	-131	-16352	24	-2184	4	-30	16	-16112	-1064	-2400	21	-18	17	126	123	8
-8144	-1984	13744	-17	7	-28	-15904	1984	-2424	0	-24	-18	-15808	1488	-3680	-7	-43	12	-8504	544	14520	159	-78	-100	-16352	144	-2312	-1	-27	21	-16040	-1088	-2184	17	-27	12	126	123	8
-8120	-2004	13608	-15	7	-24	-15928	2152	-2520	-6	-22	-16	-15768	1576	-3728	-8	-35	18	-8344	488	14600	113	-66	-109	-16424	232	-2176	16	-29	20	-16040	-1160	-2000	17	-29	9	126	123	8
-8080	-1976	13712	-14	14	-24	-16008	1992	-2336	-2	-22	-13	-15952	1472	-3736	0	-33	16	-8440	504	14504	169	-88	-96	-16600	120	-2312	8	-24	19	-16072	-1144	-2504	20	-24	18	126	123	8
-8212	-2052	13676	-15	13	-25	-15808	2056	-2448	2	-24	-14	-15736	1360	-3872	4	-31	17	-8464	616	14368	121	4	-112	-16584	112	-2368	4	-26	20	-16048	-1168	-2336	29	-20	16	126	123	8
-8220	-1932	13636	-18	10	-26	-16048	1960	-2448	-5	-25	-12	-15640	1504	-3528	6	-34	19	-8448	512	14440	106	26	-136	-16576	144	-2336	5	-24	20	-16040	-1032	-2216	34	-21	14	126	123	8
-8072	-1992	13724	-16	8	-26	-15976	1944	-2656	-3	-24	-20	-15816	1568	-3752	2	-39	18	-8648	608	14592	145	-5	-139	-16440	320	-2352	13	-27	18	-15912	-1016	-2400	32	-16	16	126	123	8
-8148	-2056	13696	-15	12	-25	-15992	2056	-2424	-4	-26	-14	-15784	1504	-3640	11	-34	13	-8400	416	14568	127	-32	-121	-16528	56	-2288	8	-25	18	-15992	-936	-2320	24	-13	18	126	124	8
-8104	-1992	13804	-17	9	-22	-15888	2008	-2216	0	-24	-15	-15864	1392	-3400	17	-36	12	-8592	632	14536	146	23	-98	-16480	32	-2224	10	-30	22	-16016	-1192	-2464	18	-24	8	126	124	8
-8144	-2036	13688	-13	12	-25	-15912	2152	-2192	-4	-24	-15	-15744	1376	-3712	11	-33	17	-8392	584	14504	126	1	-87	-16456	184	-2160	13	-22	18	-16024	-968	-2288	14	-22	10	126	123	8
-8080	-2036	13704	-16	10	-23	-15896	1872	-2184	-1	-22	-14	-15824	1424	-3752	7	-31	22	-8368	608	14448	150	-86	-123	-16440	240	-2096	12	-17	20	-16040	-1040	-2016	10	-22	10	126	123	8
-8124	-1960	13804	-11	15	-23	-15952	1904	-2120	6	-22	-14	-15704	1456	-3336	0	-29	20	-8600	568	14560	140	-15	-98	-16728	144	-2120	1	-18	19	-16200	-888	-2184	17	-10	8	126	124	8
-8136	-1996	13768	-15	11	-24	-16064	2072	-2560	-1	-19	-16	-15776	1432	-3688	6	-27	17	-8368	464	14640	113	19	-133	-16520	192	-2184	1	-15	19	-16120	-1320	-2352	13	-14	1	126	124	8
-8148	-2000	13684	-15	15	-24	-15912	2096	-2512	2	-17	-15	-15792	1632	-3608	3	-26	18	-8520	560	14568	120	-12	-140	-16440	80	-2024	12	-22	20	-16016	-1272	-2280	20	-12	3	126	124	8
-8164	-2016	13676	-15	9	-25	-15992	2072	-2568	-1	-16	-11	-15744	1480	-3680	-9	-29	17	-8552	520	14184	151	14	-145	-16456	32	-2376	5	-21	18	-16048	-1080	-2232	17	-11	7	126	124	8
-8104	-1976	13716	-16	11	-23	-15984	2056	-2736	1	-18	-9	-15704	1472	-3632	-8	-33	13	-8544	680	14664	133	-37	-98	-16464	8	-2272	-1	-14	15	-15976	-1072	-2112	15	-13	11	126	124	8
-8116	-2012	13660	-13	13	-24	-15984	1968	-2176	-2	-13	-11	-15880	1416	-3752	-13	-25	16	-8560	568	14848	111	20	-123	-16440	104	-2368	9	-13	19	-16072	-1080	-2160	17	-13	11	126	123	8
-8140	-1996	13656	-16	15	-25	-15864	2128	-2416	-6	-11	-13	-15752	1496	-3808	-5	-29	16	-8536	584	14584	142	-18	-115	-16456	232	-2272	15	-13	18	-16232	-904	-1984	31	-12	14	126	123	8
-8100	-1916	13648	-16	12	-25	-15984	2096	-2472	-2	-20	-8	-15840	1392	-3744	1	-24	19	-8352	536	14480	147	-61	-130	-16504	240	-1984	20	-6	23	-16176	-1064	-2104	35	-9	12	126	124	8
-8124	-2040	13680	-16	12	-26	-15928	2080	-2360	0	-19	-11	-15752	1440	-3472	-5	-25	24	-8472	584	14536	121	-20	-139	-16416	136	-1952	9	-14	21	-16112	-952	-2360	33	-5	10	126	123	8
-8132	-2012	13768	-10	12	-25	-16040	2176	-2224	5	-14	-10	-15888	1536	-3544	1	-24	19	-8496	568	14640	116	-3	-136	-16616	128	-2272	5	-8	20	-15952	-1040	-2320	26	-5	5	126	124	8
-8084	-2040	13696	-11	12	-23	-15936	2024	-2112	-6	-15	-10	-15672	1456	-3320	8	-23	22	-8456	440	14480	103	-2	-128	-16448	168	-2256	2	-13	15	-16072	-1064	-2168	9	-9	1	126	123	8
-8104	-2096	13684	-15	10	-20	-16040	2120	-2208	-4	-11	-11	-15832	1432	-3640	16	-23	16	-8584	656	14472	123	-45	-87	-16512	208	-1992	5	-11	14	-15984	-1000	-2344	4	-8	4	126	124	8
-8164	-2048	13728	-12	10	-23	-15992	2064	-2448	-4	-10	-4	-15880	1512	-3464	14	-26	20	-8552	592	14568	143	-36	-129	-16552	184	-2328	1	-7	23	-15904	-1152	-1984	5	-8	6	126	124	8
-8124	-2052	13668	-18	17	-21	-15848	1880	-2280	0	-13	-7	-15696	1608	-3568	3	-23	18	-8424	552	14384	113	-57	-122	-16376	224	-2376	2	-7	18	-16040	-1048	-2272	14	-11	4	126	123	8
-8196	-2024	13736	-15	12	-24	-15944	2040	-2152	-4	-3	-9	-15904	1480	-3552	-4	-20	18	-8456	712	14408	116	-44	-165	-16552	88	-2120	6	0	16	-16168	-936	-2096	18	-10	8	126	124	8
-8212	-1984	13548	-14	13	-23	-15768	1984	-2384	0	-7	-4	-15768	1736	-3768	-12	-19	17	-8456	624	14360	105	-12	-122	-16440	120	-2240	5	0	21	-16104	-1040	-2408	18	-5	8	126	124	8
-8140	-2012	13664	-14	9	-27	-15864	1976	-2456	0	-5	-10	-15824	1520	-3832	-13	-20	17	-8344	456	14560	112	-62	-147	-16496	120	-2176	7	0	19	-16152	-1040	-2240	20	-6	7	126	124	8
-8132	-2032	13664	-13	11	-24	-16032	1896	-2256	-2	-9	-12	-15784	1584	-3760	-14	-18	15	-8312	704	14472	125	-32	-100	-16544	80	-2216	3	-6	21	-16152	-1152	-2240	22	-7	4	126	124	8
-8120	-2056	13688	-16	13	-24	-16104	1984	-2152	-3	-7	-6	-15928	1392	-3608	-14	-21	20	-8344	504	14672	119	-10	-138	-16520	128	-2080	5	3	20	-16088	-1096	-2296	18	-10	5	126	124	8
-8104	-1980	13784	-12	13	-21	-15944	2000	-2704	-3	-9	-5	-15704	1552	-3640	-6	-20	15	-8424	672	14512	115	-49	-140	-16520	192	-2328	3	-2	20	-15984	-1056	-2304	24	-4	8	126	124	8
-8084	-1980	13700	-13	14	-24	-15896	2008	-2336	-5	-7	0	-15744	1328	-3752	-2	-17	21	-8392	728	14680	134	-39	-132	-16392	144	-2320	9	-2	18	-16104	-1064	-2264	21	-8	10	126	124	8
-8136	-2032	13604	-10	17	-18	-15944	1952	-2256	8	-11	-9	-15640	1480	-3640	0	-21	21	-8472	584	14496	113	-6	-157	-16448	312	-2200	9	-1	24	-16040	-976	-2120	28	-4	10	126	124	8
-8096	-1984	13624	-15	12	-27	-16008	2032	-2488	0	-10	-5	-15776	1424	-3752	7	-23	21	-8608	568	14520	108	-9	-156	-16464	144	-2224	7	-1	18	-16040	-1056	-2152	24	-6	8	126	124	8
-8148	-2016	13592	-11	15	-24	-15968	1904	-2408	-6	-8	-10	-15752	1416	-3600	6	-19	25	-8400	720	14320	96	16	-144	-16584	136	-2400	6	-5	21	-16136	-1048	-2040	20	-6	5	126	124	8
-8096	-2044	13720	-20	16	-24	-15936	1912	-2272	-3	-12	-6	-15800	1432	-3712	10	-24	22	-8480	672	14624	134	-70	-138	-16520	128	-2288	5	-2	21	-16016	-1000	-2112	14	-6	6	126	124	8
-8160	-1996	13676	-14	13	-25	-16040	2056	-2672	5	-8	-6	-15832	1568	-3544	-1	-25	22	-8528	496	14392	127	-4	-149	-16584	88	-2160	3	-3	22	-16112	-1184	-2440	16	-8	-2	126	124	8
-8104	-2008	13680	-10	11	-20	-16040	2080	-2352	-2	-7	-2	-15744	1504	-3528	0	-27	19	-8408	712	14472	125	-28	-141	-16584	-40	-2280	9	-5	22	-16000	-1200	-2336	22	-10	4	126	124	8
-8160	-2008	13764	-15	12	-18	-16048	2072	-2216	-9	-4	-9	-15824	1488	-3464	5	-26	18	-8424	664	14480	116	-23	-154	-16336	264	-2040	22	-6	20	-16072	-1088	-2384	29	-5	8	126	124	8
-8084	-2036	13692	-12	12	-20	-16064	1960	-2448	-2	-7	-5	-15680	1584	-3528	-2	-27	17	-8360	672	14304	115	-34	-127	-16504	232	-2176	15	-9	26	-16216	-1048	-2064	41	-1	11	126	124	8
-8132	-2000	13768	-16	12	-25	-15800	2040	-2336	6	-3	-7	-15864	1416	-3520	-11	-28	16	-8424	704	14632	128	-33	-93	-16568	8	-2048	14	-6	25	-16096	-1000	-2320	33	-8	12	126	124	8
-8052	-2064	13728	-14	15	-19	-16024	1992	-2480	0	-2	-5	-15808	1536	-3600	-5	-26	13	-8472	480	14496	138	-42	-140	-16576	224	-2032	16	-1	25	-16112	-952	-2416	36	-2	8	126	124	8
-8136	-2004	13704	-12	15	-19	-15960	1920	-2248	-1	-7	-3	-15832	1544	-3720	-4	-26	18	-8480	496	14768	154	-8	-120	-16480	112	-2304	20	-7	22	-16120	-1104	-2160	43	-9	4	126	124	8
-8040	-2028	13744	-17	16	-26	-15976	2024	-2448	-2	-6	-2	-15904	1480	-3760	-6	-33	18	-8360	648	14640	109	-25	-127	-16424	176	-2120	36	-4	22	-16152	-1040	-2280	55	-14	-9	126	123	8
-8144	-2068	13692	-16	16	-20	-15944	1992	-2512	-7	-9	-10	-15768	1456	-3576	-20	-33	21	-8408	720	14520	137	-36	-129	-16480	296	-2144	41	-3	25	-16096	-920	-2344	54	-6	3	126	124	8
-8060	-2000	13728	-10	18	-25	-15952	2008	-2424	-3	-12	-7	-15816	1584	-3744	-12	-28	17	-8496	680	14568	94	20	-169	-16472	232	-2120	34	-5	27	-16176	-872	-2192	53	-7	3	126	124	8
-8104	-2000	13660	-18	15	-20	-15888	2040	-2328	-10	-6	-8	-15824	1504	-3776	-14	-30	12	-8536	568	14672	121	-35	-146	-16552	176	-2032	21	-1	24	-16088	-832	-2120	45	-3	4	126	124	8
-8064	-2044	13736	-12	11	-23	-15944	1976	-2512	-9	-11	-14	-15768	1520	-3552	-18	-33	12	-8456	600	14536	78	-54	-151	-16416	352	-2208	22	4	18	-15992	-976	-2152	31	-9	0	126	124	8
-8096	-1944	13744	-9	12	-21	-15952	2000	-2432	-3	-12	-10	-15824	1672	-3488	-21	-31	7	-8488	536	14384	147	-35	-135	-16536	208	-2368	8	4	20	-16040	-1000	-2336	21	-7	-3	126	124	8
-8076	-2016	13632	-11	13	-21	-16008	2184	-2624	-7	-9	-7	-15808	1688	-3336	-18	-32	1	-8544	616	14512	115	-42	-115	-16688	136	-2128	13	0	23	-16096	-1064	-2144	24	-4	-5	126	124	8
-8160	-2036	13688	-17	11	-21	-16064	2168	-2296	-13	-7	-12	-15984	1496	-3608	-30	-37	-1	-8376	504	14560	149	15	-120	-16456	40	-2288	43	4	22	-16080	-1088	-2304	52	-24	-18	126	124	8
-8108	-1996	13660	-13	16	-20	-16032	2064	-2200	-12	-10	-14	-15864	1592	-3184	-39	-42	0	-8376	712	14560	141	-36	-141	-16520	400	-2104	44	2	19	-16080	-928	-2160	63	-7	-10	126	124	8
-8112	-1992	13644	-15	15	-19	-15880	2032	-2448	-16	-1	-11	-15816	1560	-3336	-39	-47	-2	-8224	640	14408	132	-49	-148	-16488	328	-2056	19	4	18	-16008	-1016	-2352	55	0	-1	126	123	8
-8120	-2032	13700	-15	14	-22	-15968	1960	-2112	-11	-4	-16	-15912	1624	-3536	-35	-46	-7	-8536	592	14624	108	-2	-112	-16448	40	-2248	14	-1	15	-15984	-1096	-2456	53	-12	-14	126	124	8
-8092	-2032	13728	-18	20	-19	-16136	2048	-2288	-14	-4	-18	-15864	1576	-3640	-42	-43	-13	-8256	568	14376	132	39	-140	-16600	136	-2416	37	-2	14	-16040	-1064	-2400	58	-18	-14	126	123	8
-8108	-2016	13664	-18	25	-17	-16256	2104	-2288	4	-10	-23	-15944	1672	-3608	-42	-47	-11	-8552	520	14408	137	-9	-133	-16424	296	-2192	37	-3	15	-15808	-1208	-2448	77	-29	-17	126	123	8
-8164	-1968	13688	-17	27	-20	-16064	2296	-2336	-7	-15	-31	-15696	1784	-3664	-39	-50	-11	-8656	432	14744	123	-97	-117	-16472	184	-2536	32	-12	16	-15936	-1088	-2528	90	-22	-5	126	123	8
-8184	-2108	13752	-16	26	-24	-15848	1960	-2536	-15	-14	-32	-15616	1736	-3792	-48	-52	-11	-8488	544	14536	110	-124	-136	-16368	-16	-2104	43	-20	8	-15824	-1208	-2704	106	-38	-9	126	123	8
-8156	-2016	13652	-18	19	-26	-15936	2000	-2384	1	-23	-43	-15576	1680	-3696	-60	-53	-16	-8424	608	14368	94	-177	-106	-16456	176	-2344	59	-24	7	-15880	-968	-2792	108	-30	-6	126	123	8
-8132	-2052	13796	-18	19	-30	-15928	2152	-2208	-8	-27	-39	-15712	1768	-3696	-47	-47	-31	-8344	608	14336	132	-233	-90	-16616	280	-2352	48	-32	2	-16024	-872	-2392	71	-14	-3	126	123	8
-8184	-2032	13688	-23	20	-30	-16064	1928	-2320	-11	-28	-43	-15896	1632	-3512	-21	-47	-36	-8264	680	14552	128	-134	-106	-16648	112	-2296	22	-44	0	-16016	-768	-2416	27	-10	-16	126	123	8
-8056	-2056	13640	-21	29	-29	-16168	2048	-2360	-14	-30	-45	-16072	1464	-3648	-12	-47	-32	-8352	720	14376	140	-98	-74	-16688	-72	-2160	32	-39	-4	-16432	-904	-2032	-2	-30	-49	126	123	8
-8128	-2116	13668	-25	31	-26	-16008	1960	-2280	-9	-32	-49	-15976	1144	-3320	-23	-46	-30	-8496	616	14480	181	-16	-116	-16616	-24	-2040	56	-38	-8	-16304	-416	-1664	-30	-41	-69	125	123	8
-8176	-2048	13620	-21	37	-19	-15992	2032	-2480	-26	-32	-54	-16104	1168	-3328	-33	-51	-28	-8344	648	14352	133	51	-101	-16504	224	-1848	38	-33	-8	-16232	-480	-1768	-40	-37	-76	125	123	8
-8176	-2056	13576	-16	33	-21	-15896	1960	-2232	-43	-24	-55	-15896	1424	-2872	-44	-55	-30	-8336	576	14688	121	42	-140	-16560	208	-2056	-17	-30	-13	-16232	-632	-1432	-80	-10	-71	125	123	8
-8168	-2024	13656	-21	36	-22	-15888	2000	-2096	-24	-21	-55	-15848	1688	-3168	-62	-56	-40	-8424	656	14448	97	99	-150	-16312	8	-1848	-42	-11	-26	-16120	-1104	-1744	-91	-20	-79	125	123	8
-8164	-1900	13732	-19	31	-21	-15944	2032	-2072	-16	-13	-51	-15840	1912	-3152	-84	-56	-55	-8416	512	14544	102	21	-127	-16392	-128	-2000	-16	1	-24	-15976	-1080	-1600	-65	-35	-97	125	124	8
-8148	-2144	13772	-16	24	-20	-15864	1872	-2168	-28	-18	-50	-15856	1864	-3336	-109	-52	-69	-8320	616	14704	80	18	-165	-16408	56	-2136	-11	10	-25	-16064	-1048	-1928	-55	-13	-84	125	124	8
-8148	-2112	13576	-23	25	-23	-15800	2008	-2128	-30	-10	-62	-15744	1712	-3296	-122	-52	-83	-8376	552	14456	46	-24	-138	-16392	168	-2144	-35	17	-31	-15984	-936	-1976	-82	-6	-66	125	124	8
-8176	-2036	13720	-26	21	-27	-15888	1992	-2176	-35	-16	-66	-15704	1456	-3504	-138	-43	-96	-8360	680	14808	-2	-59	-96	-16536	96	-2184	-60	14	-34	-16032	-1168	-1768	-76	1	-66	125	124	8
-8108	-2048	13660	-24	12	-26	-15888	1824	-2216	-41	-14	-66	-15736	1664	-3336	-139	-36	-104	-8488	536	14408	34	-69	-157	-16584	-32	-2352	-50	19	-34	-15968	-1192	-2288	-61	2	-79	125	124	8
-8124	-2076	13644	-21	8	-37	-15920	1800	-2320	-30	-13	-75	-15672	1304	-3472	-126	-47	-106	-8480	496	14488	54	-24	-118	-16504	192	-2352	-46	19	-36	-16024	-1016	-2064	-80	14	-86	125	124	8
-8100	-2004	13708	-12	-2	-30	-16048	1744	-2032	-29	-21	-80	-15856	1120	-3336	-115	-40	-111	-8408	496	14664	29	-93	-87	-16528	88	-2304	-63	19	-43	-16200	-864	-2240	-131	17	-96	125	124	8
-8140	-2032	13616	-22	5	-33	-16088	2008	-2136	1	-18	-78	-15960	1128	-3248	-78	-43	-106	-8352	600	14528	-4	-31	-111	-16640	24	-2000	-81	19	-48	-16136	-840	-2216	-157	3	-111	125	124	8
-8160	-2084	13684	-24	11	-34	-16000	1792	-2136	-30	-18	-84	-15992	1136	-3072	-59	-47	-104	-8448	608	14416	-7	-39	-159	-16384	-8	-2056	-86	22	-51	-16152	-808	-2064	-175	-13	-127	125	124	8
-8096	-2128	13704	-28	14	-35	-15928	1624	-2120	-45	-17	-90	-15848	1080	-3216	-57	-45	-86	-8392	464	14648	-18	8	-122	-16544	272	-2064	-82	35	-55	-16216	-880	-2096	-216	-33	-135	124	124	8
-8156	-2080	13572	-27	12	-33	-15944	1664	-2072	-34	-14	-91	-15848	1016	-2816	-41	-41	-87	-8496	656	14672	4	-15	-173	-16448	192	-2160	-118	29	-64	-16120	-1088	-2328	-234	-30	-128	124	124	8
-8152	-2044	13664	-26	7	-30	-15960	1456	-2208	-2	-7	-87	-15888	992	-3136	-46	-34	-92	-8400	560	14576	-36	-40	-171	-16528	-136	-2368	-136	37	-73	-15984	-1464	-2464	-220	-32	-134	124	124	8
-8156	-2136	13632	-22	2	-36	-16096	1696	-2304	8	-9	-89	-15768	1328	-3128	-47	-28	-99	-8424	456	14608	-30	-28	-139	-16480	-272	-2488	-97	34	-71	-15992	-1784	-2584	-186	-41	-137	125	124	8
-8208	-2104	13584	-23	3	-33	-15920	1784	-2560	3	-7	-102	-15848	1360	-3048	-53	-14	-95	-8384	464	14496	-37	-63	-196	-16792	56	-2280	-80	35	-75	-16104	-1536	-2232	-150	-21	-125	125	124	8
-8168	-2152	13664	-24	6	-35	-16136	1664	-2120	-3	1	-92	-15896	1040	-2976	-60	-12	-102	-8512	608	14672	6	-44	-204	-16584	-32	-2232	-104	24	-81	-16232	-1400	-2352	-137	-17	-94	125	124	8
-8008	-2092	13656	-27	7	-35	-16088	1656	-2248	7	-5	-108	-15960	1064	-2904	-53	-4	-111	-8400	560	14424	7	-29	-197	-16472	-256	-2144	-80	20	-85	-16112	-1616	-2560	-113	-25	-100	125	124	8
-8060	-2028	13592	-22	7	-35	-15896	1592	-2096	5	4	-99	-15928	784	-2872	-35	-4	-115	-8288	520	14520	-10	-34	-205	-16536	-344	-2152	-31	18	-79	-16016	-1640	-2344	-79	-38	-117	125	124	8
-8192	-2156	13736	-26	4	-31	-16088	1480	-2032	18	8	-106	-16016	784	-2904	-36	-3	-110	-8336	344	14608	26	5	-178	-16544	-288	-2232	-9	9	-79	-16104	-1800	-1952	-37	-34	-111	125	124	8
-8116	-2084	13656	-22	6	-36	-16072	1400	-2016	6	12	-103	-15896	536	-2896	-22	-2	-106	-8400	536	14424	36	-8	-177	-16408	-392	-2272	8	14	-80	-15840	-1912	-1888	-1	-28	-106	125	124	8
-8044	-2104	13744	-21	6	-35	-15952	1456	-2104	7	12	-104	-16080	576	-2808	-10	2	-97	-8456	504	14648	5	18	-200	-16456	-256	-2008	33	12	-81	-16032	-1768	-2320	19	-34	-105	125	124	8
-8064	-2152	13684	-21	9	-31	-16040	1384	-2408	17	19	-108	-16040	536	-2960	-2	16	-88	-8472	392	14360	25	-40	-211	-16416	-168	-2392	33	12	-85	-15968	-1600	-2192	20	-39	-105	125	124	8
-8056	-2188	13616	-21	7	-31	-16176	1456	-2016	44	22	-112	-16112	584	-2696	25	36	-77	-8408	488	14480	29	-51	-189	-16576	-416	-2512	26	17	-88	-15936	-1696	-2160	17	-42	-101	125	124	8
-8100	-2224	13704	-16	13	-28	-16120	1488	-1880	65	30	-105	-15864	528	-3072	55	42	-73	-8376	520	14504	24	-34	-220	-16440	-416	-2392	32	18	-86	-15984	-1816	-1992	18	-51	-107	126	124	8
-8104	-2100	13724	-14	17	-34	-16000	1472	-2360	57	31	-113	-15976	816	-3272	71	48	-66	-8384	408	14584	0	-54	-221	-16552	-416	-2288	36	16	-88	-15944	-1872	-2264	24	-53	-104	126	124	8
-8148	-2188	13636	-23	10	-36	-15944	1416	-2184	56	37	-107	-15760	592	-3168	67	51	-69	-8416	352	14496	18	-28	-239	-16496	-448	-2336	40	10	-91	-15976	-1928	-2096	43	-48	-101	126	124	8
-8152	-2128	13652	-26	12	-32	-16024	1104	-2360	69	40	-106	-16032	520	-3136	59	57	-66	-8368	520	14792	42	-32	-252	-16424	-552	-2352	50	10	-91	-15928	-2152	-2104	56	-54	-91	127	124	8
-8156	-2164	13644	-22	10	-34	-16176	1056	-2168	69	46	-110	-16000	424	-3224	70	56	-75	-8504	464	14648	25	5	-255	-16584	-576	-2512	68	5	-83	-16008	-2232	-1992	83	-57	-92	126	123	8
-8116	-2156	13596	-22	7	-30	-15984	1296	-2216	60	51	-110	-15872	312	-2952	69	49	-71	-8392	504	14488	60	-52	-215	-16352	-600	-2344	69	4	-86	-15944	-2048	-1936	107	-52	-85	126	123	8
-8132	-2200	13700	-21	8	-33	-16064	1104	-2216	64	53	-107	-16000	336	-3288	71	59	-62	-8344	584	14616	36	4	-205	-16456	-536	-2280	87	3	-85	-15968	-2240	-2120	124	-52	-72	127	123	8
-8136	-2148	13712	-20	8	-28	-15952	1048	-2304	68	49	-107	-15832	280	-3136	77	60	-60	-8392	592	14736	78	5	-210	-16360	-664	-2192	103	1	-82	-15864	-2280	-2064	143	-57	-70	126	123	8
-8072	-2260	13608	-16	10	-26	-16040	1032	-2256	69	53	-108	-15928	96	-3272	73	59	-50	-8320	512	14384	67	24	-237	-16416	-744	-2544	122	3	-81	-16024	-2368	-2112	161	-71	-68	127	123	8
-8112	-2144	13580	-24	6	-29	-16088	1040	-2336	66	57	-102	-15920	328	-3576	77	64	-44	-8536	400	14688	103	37	-216	-16440	-736	-2472	143	-2	-79	-15872	-2296	-2064	168	-74	-54	127	123	8
-8068	-2180	13784	-21	6	-29	-15856	952	-2448	71	54	-99	-15840	216	-3432	96	59	-35	-8408	456	14616	127	60	-216	-16560	-840	-2312	141	-2	-79	-15968	-2280	-2032	171	-82	-46	127	123	8
-8068	-2092	13692	-22	9	-35	-15856	1080	-2472	83	61	-106	-15832	184	-3672	119	56	-29	-8488	424	14696	127	55	-226	-16352	-728	-2048	134	-12	-70	-16032	-2480	-1992	174	-93	-45	127	123	8
-8076	-2160	13664	-18	8	-33	-16008	1072	-2400	85	61	-102	-15792	384	-3640	116	60	-19	-8312	352	14688	147	119	-206	-16488	-992	-2328	128	-5	-71	-16032	-2760	-1896	178	-107	-38	127	123	8
-8068	-2172	13720	-21	6	-30	-16096	944	-2672	56	55	-100	-15768	208	-3504	103	62	-2	-8552	488	14544	124	101	-201	-16384	-944	-2384	130	-16	-71	-15984	-2584	-1984	197	-112	-33	127	121	8
-8112	-2280	13672	-21	5	-31	-16136	616	-2584	70	54	-103	-15768	192	-3680	109	59	-1	-8560	376	14608	137	80	-137	-16400	-800	-2464	142	-15	-66	-15904	-2472	-1856	226	-114	-21	127	120	8
-8176	-2196	13700	-22	6	-27	-15928	760	-2368	98	48	-96	-15792	-152	-3648	191	77	-9	-8400	464	14512	150	103	-152	-16480	-872	-2560	142	-21	-64	-15896	-2528	-1784	246	-107	-10	127	120	8
-8084	-2196	13684	-16	5	-35	-16040	840	-2408	114	47	-89	-15944	-208	-3456	210	76	10	-8528	584	14840	179	51	-164	-16360	-1064	-2536	141	-33	-63	-16048	-2648	-1840	252	-110	1	127	120	8
-8112	-2188	13680	-21	3	-33	-15808	848	-2304	91	57	-90	-15816	-48	-3272	218	72	38	-8440	416	14536	141	72	-104	-16416	-1128	-2392	151	-36	-58	-15952	-2584	-1704	258	-114	7	127	120	8
-8084	-2224	13672	-19	8	-31	-16120	368	-2336	120	58	-89	-15872	-232	-3248	248	79	41	-8456	424	14528	163	41	-116	-16312	-1024	-2528	171	-36	-59	-15880	-2488	-1824	280	-125	5	127	120	8
-8056	-2188	13688	-15	7	-28	-16216	624	-2176	160	62	-82	-15928	-24	-3408	265	73	39	-8488	616	14584	178	41	-127	-16360	-936	-2192	174	-53	-57	-15984	-2480	-1584	303	-133	9	127	120	8
-8072	-2248	13804	-10	10	-25	-15960	768	-2504	178	60	-81	-15976	144	-3616	276	64	36	-8584	352	14448	137	60	-145	-16504	-984	-2576	162	-54	-57	-16008	-2392	-1456	309	-138	19	127	120	8
-8308	-2272	13220	-17	5	-26	-16008	840	-2480	166	65	-76	-15776	152	-3648	290	66	47	-8464	440	14672	121	-7	-148	-16376	-1048	-2120	169	-52	-57	-16072	-2464	-1520	323	-150	26	127	119	8
-8036	-2300	13744	-9	9	-27	-16032	648	-2672	172	66	-86	-15856	328	-3672	294	68	46	-8456	408	14544	133	-18	-102	-16384	-1128	-2200	167	-58	-56	-16104	-2360	-1488	342	-153	31	127	119	8
-8036	-2208	13656	-17	9	-27	-15976	688	-2576	171	67	-80	-15744	392	-3840	291	65	36	-8336	424	14568	160	10	-115	-16376	-1184	-2216	171	-49	-60	-16120	-2344	-992	346	-165	38	127	119	8
-8072	-2140	13648	-16	15	-31	-16024	768	-2584	197	67	-81	-15720	312	-4184	294	68	38	-8416	480	14512	167	17	-102	-16496	-1080	-2272	181	-52	-56	-16288	-2272	-1056	345	-183	42	127	120	8
-8016	-2276	13736	-24	21	-32	-16064	1216	-2752	167	69	-85	-15704	528	-3920	262	46	51	-8512	256	14792	240	16	-136	-16416	-1320	-2088	184	-41	-53	-16008	-2344	-800	341	-192	42	127	120	8
-8048	-2284	13648	-29	25	-47	-16072	664	-3048	148	68	-84	-15792	352	-4032	255	60	43	-8440	568	14536	204	40	-142	-16416	-1328	-1984	190	-42	-51	-15928	-2360	-704	348	-208	43	127	119	8
-8116	-2312	13680	-31	28	-40	-16208	256	-2952	157	53	-92	-15672	56	-4168	263	64	45	-8344	608	14552	180	76	-137	-16408	-1336	-1984	182	-36	-48	-16104	-2208	-720	349	-217	43	127	119	8
-8168	-2228	13776	-29	23	-38	-15976	504	-3008	168	47	-85	-15624	-80	-4088	265	62	44	-8600	504	14480	162	56	-161	-16568	-1232	-1856	170	-32	-54	-16160	-2192	-856	344	-221	47	127	119	8
-8092	-2260	13624	-22	20	-36	-15880	424	-2880	157	44	-86	-15696	-112	-4080	280	50	31	-8632	344	14424	165	76	-172	-16408	-1280	-2200	163	-33	-54	-16216	-2056	-488	321	-221	43	127	118	8
-8036	-2200	13668	-24	16	-35	-15976	440	-2704	165	40	-90	-15808	-104	-4216	286	50	44	-8464	592	14832	191	75	-166	-16560	-1336	-2128	168	-22	-54	-16112	-2112	-440	298	-232	45	127	118	8
-8096	-2316	13632	-27	20	-36	-15984	496	-2936	183	42	-82	-15952	40	-4080	293	50	45	-8464	600	14608	112	54	-148	-16384	-1320	-1872	175	-18	-50	-16176	-2056	-472	259	-243	43	127	119	8
-8096	-2244	13660	-33	28	-41	-16056	672	-3024	136	47	-84	-15760	144	-4144	246	33	58	-8520	448	14632	152	39	-169	-16472	-1304	-2000	169	-14	-50	-16032	-1936	-296	237	-257	47	127	119	8
-8132	-2244	13612	-29	26	-40	-15808	256	-2840	97	40	-90	-15568	256	-4200	236	30	54	-8592	592	14672	144	20	-136	-16464	-1312	-2224	161	-3	-54	-15896	-1944	-160	220	-266	48	127	120	8
-8096	-2272	13652	-25	21	-40	-15896	96	-3040	110	32	-91	-15744	112	-4128	222	32	31	-8344	520	14200	217	-71	-128	-16232	-1400	-2048	167	7	-49	-15912	-2024	168	194	-269	35	127	120	8
-8084	-2236	13692	-29	19	-44	-16136	240	-2744	131	33	-82	-15760	200	-4184	197	31	13	-8408	392	14488	158	-60	-157	-16456	-1432	-1904	176	12	-49	-16136	-2064	328	178	-282	27	127	120	8
-8056	-2288	13604	-23	18	-41	-16032	360	-2768	131	25	-86	-15704	280	-4240	168	25	8	-8352	592	14784	164	-143	-125	-16336	-1632	-2096	165	24	-47	-16104	-1952	232	154	-301	25	127	119	8
-8048	-2256	13736	-27	19	-39	-16088	432	-2752	89	21	-95	-15768	440	-4296	130	20	23	-8544	536	14896	17	-135	-172	-16408	-1464	-1904	145	37	-49	-16104	-1736	400	128	-314	25	127	119	8
-8092	-2288	13632	-24	25	-34	-16136	272	-3056	44	27	-99	-15744	16	-4136	109	16	21	-8472	416	14512	74	-177	-145	-16384	-1656	-2008	121	52	-47	-16168	-1872	568	124	-317	15	127	120	8
-8044	-2284	13692	-22	29	-36	-15896	-120	-2712	50	20	-93	-15688	-216	-4072	119	17	-6	-8344	512	14624	64	-157	-171	-16344	-1520	-1936	89	52	-44	-16032	-1888	792	116	-307	1	127	119	8
-8100	-2300	13636	-23	20	-30	-16024	-80	-3200	102	20	-94	-15816	-288	-4120	121	17	-21	-8560	552	14576	40	-186	-183	-16400	-1376	-2040	69	56	-43	-16176	-2016	336	105	-296	0	127	120	8
-8032	-2320	13700	-22	19	-32	-15992	-32	-2624	101	19	-93	-15720	-136	-4208	119	13	-17	-8344	488	14584	-9	-208	-191	-16296	-1568	-1848	49	67	-49	-16216	-1880	880	65	-280	1	127	120	8
-8108	-2284	13776	-17	17	-33	-15792	-144	-2784	57	24	-96	-15712	-184	-3904	107	-3	-1	-8208	624	14552	16	-79	-216	-16544	-1648	-1584	39	68	-45	-16336	-1880	616	34	-260	11	126	120	8
-8072	-2332	13712	-22	11	-28	-15896	-192	-2960	33	24	-87	-15768	40	-3928	89	-5	-9	-8288	552	14640	-8	-28	-258	-16656	-1496	-1992	3	50	-39	-16376	-2352	680	45	-235	5	127	120	8
-8080	-2272	13692	-18	13	-21	-15912	-80	-3048	31	16	-90	-15752	16	-4360	44	-5	-14	-8288	552	14312	-24	17	-302	-16632	-1696	-2272	-9	51	-46	-16296	-2440	544	64	-200	-15	127	121	8
-8104	-2328	13640	-16	9	-21	-15912	128	-2968	-14	19	-84	-15776	-96	-4256	13	-10	-31	-8384	600	14624	10	19	-343	-16400	-1808	-2376	-6	41	-39	-16200	-2256	304	56	-176	-14	127	121	8
-8204	-2312	13624	-17	10	-19	-15952	-344	-3112	-14	14	-89	-15744	-376	-4064	3	-2	-48	-8352	480	14448	86	52	-311	-16344	-1776	-2192	10	37	-41	-16272	-2352	336	56	-147	-15	127	121	8
-8088	-2336	13684	-18	11	-21	-15968	-312	-3096	11	14	-70	-15704	-456	-4168	-5	-9	-48	-8512	344	14640	47	49	-276	-16400	-1752	-2528	26	31	-38	-16192	-2280	456	52	-127	-26	126	122	8
-8092	-2332	13628	-17	8	-21	-15936	-216	-2880	6	13	-74	-15744	-592	-4040	-19	-18	-54	-8392	472	14640	21	-7	-246	-16168	-1752	-2184	35	24	-33	-15944	-2264	376	33	-116	-31	126	121	8
-8072	-2432	13584	-19	10	-15	-15816	-360	-2840	6	12	-69	-15832	-480	-3808	-18	-17	-52	-8368	248	14384	89	-17	-282	-16352	-1672	-2448	31	14	-31	-16016	-2192	424	7	-97	-30	126	122	8
-8096	-2228	13664	-16	7	-16	-15952	-56	-2976	29	11	-71	-15736	-304	-4120	-11	-20	-48	-8352	416	14496	79	-23	-254	-16336	-1832	-2152	1	-1	-35	-16160	-2368	376	-19	-60	-41	126	122	8
-8060	-2188	13740	-16	6	-19	-16000	32	-2784	12	18	-61	-15600	-256	-3912	6	-25	-50	-8440	384	14432	46	-33	-252	-16240	-1672	-2600	4	-7	-37	-16072	-2416	512	-41	-42	-46	126	123	8
-8016	-2332	13620	-16	6	-21	-15848	-312	-3072	11	18	-65	-15544	-432	-3864	1	-28	-43	-8384	448	14664	14	-85	-239	-16184	-1840	-2152	11	-9	-34	-15968	-2408	832	-52	-31	-55	126	123	8
-8108	-2412	13672	-17	6	-24	-16056	-128	-3160	21	25	-62	-15768	-488	-4152	5	-21	-39	-8496	408	14528	-11	-183	-191	-16104	-1824	-2504	29	-8	-31	-16136	-2392	808	-40	-44	-64	126	123	8
-8068	-2352	13644	-17	6	-21	-16072	-112	-3088	6	17	-58	-15880	-472	-4472	-17	-28	-49	-8512	336	14576	8	-241	-186	-16320	-1680	-2184	32	-7	-33	-16168	-2376	944	-33	-70	-61	126	120	8
-8048	-2308	13752	-17	13	-20	-15896	-232	-3088	5	13	-60	-15808	-192	-4472	-46	-33	-49	-8376	568	14592	34	-272	-158	-16416	-1768	-2304	7	-4	-29	-16224	-2352	1032	-30	-83	-47	126	120	8
-8080	-2264	13668	-21	10	-21	-15936	-144	-3224	-15	9	-56	-15704	-224	-4528	-74	-35	-39	-8400	440	14640	-52	-299	-203	-16376	-1896	-2304	-18	-1	-36	-16440	-2248	1248	32	-127	-51	126	120	8
-7992	-2276	13620	-14	10	-22	-15840	-256	-3008	-45	0	-59	-15536	-312	-4504	-91	-36	-52	-8360	472	14688	-36	-428	-138	-16304	-1936	-2256	-6	7	-29	-17168	-2760	944	133	-290	-73	126	125	8
-8108	-2376	13692	-15	8	-24	-15848	-544	-3096	-46	-6	-51	-15824	-664	-4408	-99	-35	-64	-8440	440	14584	-12	-379	-236	-16408	-1936	-2384	-6	11	-22	-16280	-3304	1344	162	-424	-68	126	123	8
-8064	-2364	13628	-15	7	-21	-16168	-440	-3168	-12	-16	-52	-15760	-824	-4488	-98	-35	-68	-8080	392	14456	-12	-349	-220	-16536	-2280	-1984	-1	12	-11	-15568	-2928	1536	128	-353	-69	126	125	8
-8068	-2348	13656	-21	7	-24	-15800	-256	-3040	-20	-25	-42	-15680	-968	-4392	-82	-46	-53	-8208	456	14672	2	-243	-240	-16400	-2240	-2256	44	9	-5	-15400	-2472	1520	113	-183	-48	126	126	8
-8052	-2312	13640	-18	3	-22	-15848	-248	-2984	-48	-23	-38	-15616	-944	-4320	-62	-45	-42	-8200	344	14608	30	-196	-209	-16368	-2048	-2296	79	11	2	-15464	-2024	1720	39	-53	-16	126	125	8
-8116	-2328	13652	-14	-2	-21	-15896	-488	-3064	-46	-32	-37	-15632	-880	-3888	-39	-42	-30	-8456	320	14848	15	-206	-171	-16328	-1856	-2216	18	13	5	-15696	-2136	1520	-58	40	-5	126	125	8
-8004	-2396	13640	-16	-1	-19	-16200	-504	-3040	-18	-32	-29	-15824	-936	-3840	-21	-33	-33	-8256	408	14896	45	-123	-150	-16136	-2040	-2152	-28	21	-2	-15552	-2216	1504	-148	69	-9	126	125	8
-7992	-2340	13712	-17	3	-20	-15936	-432	-2720	0	-21	-24	-15936	-832	-3608	-4	-28	-30	-8176	368	14720	52	-216	-120	-16224	-1960	-2136	-36	27	0	-15784	-2184	1464	-239	112	12	126	125	8
-8084	-2272	13664	-16	5	-17	-15912	-216	-2704	-1	-16	-18	-16024	-744	-3496	-9	-37	-18	-8224	336	14784	35	-168	-78	-16224	-2080	-2384	-44	46	0	-15984	-2280	1600	-310	160	25	126	124	8
-8000	-2336	13680	-15	3	-25	-15808	-440	-2632	13	-8	-15	-15832	-864	-3656	5	-37	-26	-8200	336	14544	54	-208	-60	-16304	-2056	-2256	-43	48	2	-15984	-2632	1368	-325	177	22	126	124	8
-7984	-2304	13724	-13	2	-21	-16040	-312	-3072	72	-4	-11	-15904	-640	-3856	6	-42	-41	-8368	408	14560	62	-237	-106	-16392	-1880	-2272	-20	57	7	-16216	-2696	1328	-291	185	18	126	123	8
-7948	-2288	13708	-14	5	-20	-16040	-312	-2856	80	0	-3	-15960	-536	-4104	0	-49	-48	-8208	336	14960	56	-186	-121	-16496	-1896	-1984	-28	56	6	-16336	-2488	1440	-237	183	9	126	123	8
-8084	-2336	13656	-12	12	-23	-15968	-240	-3128	50	1	2	-15752	-584	-4456	-26	-47	-53	-8392	472	14616	15	-152	-217	-16424	-1896	-2256	-31	61	7	-16504	-2432	1144	-166	166	-3	126	123	8
-8020	-2296	13680	-10	14	-19	-15912	-440	-3184	16	-1	4	-15688	-648	-4376	-31	-58	-49	-8384	232	14600	28	-184	-271	-16488	-2040	-2216	-5	66	7	-16264	-2432	1328	-93	143	-17	126	124	8
-8020	-2328	13708	-11	11	-18	-15864	-320	-2960	2	-11	5	-15688	-776	-4688	-47	-67	-45	-8264	248	14688	18	-138	-293	-16480	-2024	-2048	21	65	11	-16304	-2520	1080	-44	115	-11	126	123	8
-8016	-2320	13740	-17	9	-19	-15928	-376	-2992	-5	-22	11	-15528	-896	-4424	-67	-79	-43	-8312	368	14512	32	23	-315	-16408	-1872	-2576	16	59	12	-16344	-2424	1056	-28	75	-1	126	123	8
-8052	-2208	13700	-8	12	-15	-15920	-16	-3176	-15	-24	3	-15456	-360	-4440	-87	-83	-33	-8384	504	14816	26	0	-323	-16600	-1912	-2520	10	64	16	-16176	-2480	880	-28	54	11	126	124	8
-8012	-2332	13708	-12	6	-24	-15856	-232	-3160	-55	-35	7	-15480	-320	-4408	-104	-85	-17	-8240	464	14680	-14	7	-374	-16400	-1864	-2288	-22	68	22	-16128	-2448	904	-71	52	40	126	124	8
-8020	-2324	13716	-11	4	-26	-16040	-520	-3360	-49	-49	5	-15328	-856	-4144	-98	-75	-31	-8320	232	14784	17	-52	-386	-16112	-2048	-2416	-63	65	17	-16096	-2600	768	-127	51	48	126	124	8
-8100	-2324	13692	-13	2	-26	-15888	-336	-3176	-37	-65	10	-15608	-1176	-4568	-73	-62	-31	-8248	432	14632	-11	-95	-349	-16296	-2272	-2560	-58	55	33	-15952	-2592	480	-181	37	37	125	124	8
-7996	-2324	13752	-12	-4	-27	-15976	-72	-2792	-48	-68	19	-15608	-976	-3896	-65	-71	-19	-8280	232	14536	25	-76	-361	-16232	-2160	-2640	-51	58	38	-15944	-2624	424	-226	27	29	125	125	8
-8000	-2240	13812	-14	-8	-27	-15760	-144	-2888	-70	-65	14	-15680	-816	-3896	-75	-65	14	-8280	240	14816	87	81	-295	-16400	-2040	-2600	-81	48	36	-16392	-2616	128	-278	31	23	125	125	8
-7988	-2376	13776	-11	-4	-30	-16104	-648	-2976	-76	-72	19	-15896	-808	-3488	-62	-63	28	-8144	128	14600	116	90	-291	-16216	-1960	-2656	-134	32	47	-15992	-2944	-64	-310	52	35	126	125	8
-7960	-2380	13664	-10	-2	-25	-16032	-616	-2632	-41	-65	39	-15936	-1104	-3728	-67	-63	15	-8248	96	14632	113	87	-222	-16256	-2280	-2720	-137	18	48	-15944	-2896	168	-313	65	35	125	125	8
-7892	-2380	13784	-6	-1	-23	-15976	-288	-2952	-49	-59	41	-15792	-1144	-3520	-92	-68	29	-8320	184	14760	124	72	-151	-16240	-2144	-2856	-103	9	50	-16096	-3088	248	-266	80	28	125	125	8
-7932	-2380	13820	-4	2	-17	-16064	-416	-2672	-69	-55	47	-15840	-1120	-3528	-113	-57	38	-8224	280	14912	91	76	-144	-16200	-2176	-2840	-102	-6	60	-15816	-3072	112	-225	95	44	125	124	8
-7948	-2388	13668	-5	9	-13	-16208	-344	-2712	-66	-52	53	-15888	-872	-3792	-107	-61	37	-8128	240	14824	134	24	-137	-16176	-2112	-2920	-82	-17	64	-15944	-3440	144	-157	89	42	125	124	8
-7924	-2224	13648	-4	13	-13	-15768	-32	-2904	-75	-49	55	-15544	-696	-3688	-108	-63	55	-8264	256	14680	186	34	-115	-16328	-2024	-2656	-30	-33	68	-16072	-3432	312	-67	98	35	125	124	8
-7952	-2344	13752	-3	10	-16	-16032	-64	-2672	-67	-51	58	-15840	-720	-3888	-97	-60	56	-8168	392	14712	175	9	-115	-16336	-1760	-2864	-16	-42	84	-16072	-3104	480	-5	123	55	125	124	8
-7952	-2260	13624	-11	13	-16	-16104	-216	-2912	-36	-57	65	-15800	-904	-3768	-97	-59	61	-8464	160	14736	187	21	-162	-16208	-2120	-2888	-17	-52	88	-16080	-3064	376	28	140	79	126	126	8
-7948	-2328	13652	-4	12	-20	-16072	-136	-2816	-43	-62	71	-15808	-896	-3840	-85	-54	58	-8336	72	14576	224	-6	-50	-16240	-1976	-2696	17	-54	90	-16040	-2800	440	32	138	70	126	125	8
-8040	-2272	13716	-6	9	-20	-15952	-16	-2896	-71	-61	76	-15664	-944	-3920	-78	-59	68	-8232	264	14512	255	103	-10	-16336	-1904	-2696	19	-58	98	-16168	-2544	320	37	153	73	125	125	8
-8028	-2280	13648	-3	7	-16	-15896	-152	-2760	-73	-63	76	-15736	-944	-3832	-59	-56	88	-8280	272	14632	244	106	-45	-16576	-1672	-2448	-36	-71	106	-16352	-2568	272	16	170	73	125	124	8
-8012	-2288	13740	0	2	-20	-16096	-104	-2720	-47	-67	81	-15880	-800	-3768	-54	-57	100	-8440	448	14744	226	83	-98	-16392	-1928	-2712	-57	-74	117	-16232	-2512	208	-27	159	72	125	123	8
-8032	-2320	13744	-3	8	-17	-15936	-88	-2832	-40	-73	91	-15808	-824	-3768	-32	-55	96	-8520	392	14440	246	67	-51	-16232	-1888	-2696	-51	-63	115	-16064	-2432	224	-50	161	69	125	124	8
-8008	-2320	13712	2	4	-18	-15928	-96	-2808	-44	-74	92	-15880	-816	-3768	-21	-57	98	-8336	424	14744	256	60	9	-16224	-1816	-2616	-31	-62	122	-16000	-2464	32	-66	168	70	125	124	8
-7956	-2272	13832	1	3	-19	-15944	-56	-2568	-33	-80	96	-15808	-840	-3872	-29	-50	107	-8224	312	14640	224	117	-40	-16416	-1616	-2312	-58	-68	129	-15936	-2320	-8	-86	156	67	125	124	8
-7876	-2320	13776	2	8	-18	-16168	8	-2448	-49	-81	105	-15888	-776	-4064	-34	-47	115	-8360	248	14648	216	109	-12	-16352	-1712	-2680	-59	-81	135	-16152	-2320	-104	-116	152	61	125	125	8
-7928	-2272	13672	0	11	-16	-16064	128	-2656	-71	-75	114	-15872	-536	-3512	-31	-48	124	-8304	136	14792	211	82	17	-16168	-1680	-2784	-72	-69	135	-16152	-2528	-32	-131	166	67	125	124	8
-7968	-2196	13736	-2	6	-14	-16096	56	-2504	-71	-78	118	-15872	-568	-3280	-40	-47	133	-8320	456	14664	248	84	6	-16320	-1568	-2448	-92	-84	138	-15952	-2496	-104	-112	185	65	125	122	8
-7924	-2312	13704	0	10	-19	-16080	232	-2448	-59	-69	120	-15752	-528	-3016	-36	-55	131	-8192	264	14568	232	85	38	-16536	-1632	-2560	-113	-95	147	-16120	-2776	-464	-93	208	48	125	124	8
-7960	-2280	13692	3	5	-17	-16184	256	-2368	-56	-58	123	-15768	-200	-3072	-33	-57	140	-8216	320	14528	289	100	61	-16568	-1568	-2768	-118	-105	155	-15912	-2600	-512	-72	226	46	125	124	8
-7960	-2320	13788	11	9	-10	-16128	80	-2216	-25	-60	126	-15880	-320	-3264	-39	-57	139	-8208	144	14528	245	167	33	-16528	-1336	-2544	-76	-105	151	-16176	-2456	-504	-31	244	51	125	124	8
-7980	-2316	13736	3	12	-13	-15936	352	-2680	-20	-55	134	-15920	-288	-3336	-27	-54	133	-8368	288	14552	303	188	33	-16384	-1192	-2256	-65	-116	156	-15992	-2480	-616	13	257	75	125	124	8
-7892	-2220	13796	8	10	-11	-16104	480	-2560	-32	-52	137	-15792	-328	-3496	-23	-56	133	-8336	264	14592	301	190	26	-16248	-1448	-2624	-51	-123	161	-15864	-2312	-584	23	249	82	126	124	8
-7964	-2264	13784	5	15	-9	-16072	552	-2496	-41	-52	136	-15840	-240	-3568	-21	-47	144	-8168	256	14752	325	136	53	-16208	-1344	-2216	8	-122	164	-16048	-1912	-560	25	232	90	125	124	8
-8012	-2224	13680	7	14	-14	-16000	496	-2512	-23	-55	135	-15912	-216	-3408	-18	-43	154	-8312	344	14552	316	108	92	-16488	-1032	-2088	46	-116	162	-16112	-1704	-784	12	217	93	125	124	8
-8024	-2260	13816	2	15	-17	-15920	672	-2536	-34	-51	137	-15736	-248	-3488	1	-47	160	-8336	448	14664	339	97	88	-16392	-752	-2032	-7	-118	163	-16224	-1480	-696	-19	212	109	125	124	8
-7892	-2280	13744	5	13	-17	-16072	456	-2376	-35	-50	138	-15696	8	-3336	5	-41	166	-8408	488	14584	288	51	73	-16280	-1096	-2024	-67	-109	157	-16024	-1552	-528	-66	191	116	125	124	8
-7920	-2216	13736	7	11	-14	-16176	592	-2440	-26	-49	141	-15936	104	-3216	11	-42	175	-8136	416	14592	283	93	86	-16344	-1368	-2112	-70	-105	156	-16136	-1864	-672	-89	168	109	126	124	8
-7964	-2252	13724	5	14	-14	-15976	680	-2288	-24	-43	139	-15912	288	-3312	3	-50	183	-8376	328	14616	294	99	58	-16416	-1200	-2112	-36	-91	164	-16256	-1992	-528	-69	147	94	126	123	8
-7920	-2196	13744	3	15	-5	-15912	816	-2376	-50	-39	140	-15824	312	-3624	-4	-56	185	-8440	328	14696	278	52	64	-16456	-920	-2040	-27	-79	162	-16136	-1800	-216	-65	136	105	126	125	8
-7956	-2208	13772	4	13	-13	-16056	656	-2016	-56	-38	143	-15736	456	-3408	-7	-56	177	-8624	512	14608	299	28	118	-16384	-672	-1520	-24	-63	157	-16208	-1616	-192	-52	143	109	125	124	8
-7908	-2164	13736	6	15	-14	-16120	808	-2408	-35	-43	137	-15864	360	-3440	-12	-48	168	-8256	536	14776	251	-2	8	-16520	-520	-1776	-84	-59	155	-16288	-1464	-528	-43	139	131	125	124	8
-7916	-2196	13872	1	13	-17	-16144	992	-2400	-28	-43	141	-15792	528	-3376	-11	-43	160	-8232	624	14520	217	8	0	-16520	-720	-1536	-131	-55	148	-16528	-1520	-648	-38	119	150	126	124	8
-7968	-2168	13740	6	16	-13	-16128	904	-2360	-40	-46	138	-16024	368	-3448	-26	-39	153	-8320	456	14528	220	-25	-34	-16416	-984	-1744	-113	-31	151	-16104	-1600	-440	-28	92	145	126	124	8
-7968	-2124	13756	-3	16	-18	-15904	1072	-2344	-73	-39	144	-15888	440	-3336	-45	-45	162	-8448	432	14632	231	41	-4	-16392	-976	-1992	-62	-21	160	-16328	-1792	-616	3	72	124	126	124	8
-7912	-2200	13672	1	19	-15	-16096	912	-2256	-89	-39	143	-15864	328	-3296	-55	-58	165	-8352	464	14496	203	10	17	-16456	-568	-1952	-53	-10	170	-16336	-1704	-552	22	69	125	126	123	8
-7952	-2216	13728	-2	16	-14	-16128	928	-2224	-87	-34	134	-15944	432	-3224	-59	-64	163	-8264	440	14624	220	42	-13	-16488	-664	-1824	-76	-6	164	-16096	-1480	-664	28	64	142	126	123	8
-7952	-2156	13688	1	16	-11	-16072	960	-2408	-68	-38	145	-15864	464	-3168	-63	-57	156	-8240	408	14696	224	28	25	-16520	-552	-1784	-92	-2	153	-16192	-1440	-1016	50	85	143	126	122	8
-7884	-2108	13756	7	15	-15	-16000	1232	-2256	-66	-30	142	-15936	608	-3080	-47	-56	162	-8368	456	14800	216	131	-50	-16648	-288	-1896	-109	-8	156	-16440	-1232	-1432	65	80	148	126	123	8
-7944	-2096	13708	4	14	-15	-16080	1040	-2152	-62	-29	137	-15960	584	-3112	-36	-57	169	-8424	576	14488	217	94	-64	-16520	-552	-2240	-100	7	155	-16232	-1432	-1256	51	85	157	126	122	8
-7992	-2208	13832	-3	15	-17	-16184	1184	-2344	-48	-27	137	-15976	560	-3312	-39	-54	167	-8504	440	14608	218	5	-82	-16408	-584	-2144	-61	2	152	-15984	-1304	-1544	54	77	149	126	124	8
-7976	-2124	13780	-1	16	-16	-16080	1344	-2096	-61	-26	143	-15944	704	-3136	-32	-52	166	-8328	480	14600	244	-23	-61	-16376	-424	-1872	-35	0	160	-15912	-1328	-1552	58	72	136	126	123	8
-7964	-2136	13708	-1	17	-12	-16096	1344	-2280	-78	-21	145	-15888	848	-3328	-39	-51	164	-8408	400	14440	281	85	-30	-16440	-376	-2048	-62	-11	163	-16136	-1408	-1216	73	71	128	126	123	8
-7952	-2120	13688	3	13	-15	-16032	1392	-2368	-87	-17	143	-16064	1000	-3192	-39	-48	166	-8440	408	14456	251	-8	18	-16504	-192	-2016	-71	-10	155	-16080	-1248	-1448	44	93	137	126	123	8
-7940	-2116	13644	1	19	-8	-15912	1424	-2184	-90	-16	144	-15784	1056	-3216	-71	-62	158	-8472	648	14648	247	-1	13	-16472	-192	-2120	-69	-11	156	-16104	-1096	-1480	43	114	138	126	123	8
-7932	-2104	13812	1	19	-5	-16064	1472	-2336	-80	-15	142	-15880	864	-3048	-70	-53	158	-8352	544	14736	230	-2	-56	-16560	-24	-2008	-73	-13	151	-16336	-840	-1536	49	118	120	127	123	8
-8012	-2132	13708	3	19	-9	-15912	1424	-2208	-81	-13	151	-15784	904	-3136	-70	-57	151	-8344	536	14840	234	1	-13	-16624	-232	-2064	-63	-9	148	-16152	-1104	-1488	58	112	119	126	123	8
-8036	-2156	13776	5	16	-10	-15936	1608	-2304	-79	-11	143	-15832	944	-3040	-85	-61	153	-8472	616	14808	275	-20	-36	-16528	-168	-1984	-39	-15	153	-16416	-1168	-1232	71	104	125	127	123	8
-7916	-2052	13732	3	10	-11	-15968	1576	-2320	-82	-11	143	-15960	1200	-3288	-90	-58	147	-8320	576	14584	246	19	-51	-16520	-40	-1952	-38	-8	154	-16256	-1048	-1296	78	107	135	127	123	8
-7992	-2124	13712	0	18	-9	-16096	1792	-2200	-81	-17	135	-15968	1208	-3232	-90	-50	147	-8272	496	14816	253	-2	-43	-16552	-40	-1984	-48	-4	149	-16168	-1088	-1232	89	110	147	127	124	8
-7960	-2096	13796	0	19	-9	-16080	1712	-2200	-82	-15	136	-15856	1352	-3232	-88	-53	145	-8328	608	14592	190	61	-44	-16488	-176	-2192	-41	7	149	-16200	-1072	-1304	101	101	138	127	124	8
-7948	-2080	13876	-4	24	-9	-16056	1840	-2272	-85	-19	135	-15912	1304	-3184	-89	-54	148	-8232	584	14384	241	105	-62	-16736	176	-2032	-25	0	151	-16384	-1032	-1448	126	111	142	126	124	8
-7932	-2104	13832	-1	25	-9	-16088	1840	-1872	-88	-19	136	-15912	1400	-3288	-90	-65	148	-8384	424	14704	227	128	-78	-16600	168	-2056	-52	-3	153	-16240	-744	-1480	138	124	142	127	124	8
-8060	-2024	13688	1	25	-8	-15936	1856	-2336	-89	-16	134	-15832	1128	-3088	-75	-55	135	-8480	680	14560	289	90	-66	-16504	56	-2056	-61	3	139	-15872	-720	-1568	135	124	139	127	124	8
-8016	-2096	13772	-2	20	-10	-15864	1824	-2480	-82	-16	131	-15760	1096	-3200	-59	-59	136	-8264	496	14520	239	61	-24	-16488	-40	-2040	-22	11	141	-15992	-808	-1576	130	112	132	126	124	8
-7976	-2048	13832	0	16	-16	-15808	1968	-1920	-77	-12	128	-15832	1312	-3240	-57	-63	139	-8216	600	14416	248	-10	-28	-16680	512	-1928	-9	14	147	-16136	-648	-1680	109	99	133	126	124	8
-7952	-2068	13768	2	18	-9	-15984	1936	-2032	-70	-10	125	-15984	1304	-3008	-63	-69	143	-8352	624	14576	264	34	-29	-16496	208	-2048	-31	8	146	-16224	-656	-1552	119	93	146	126	124	8
-7936	-2052	13748	-1	17	-10	-16120	2176	-2256	-65	-10	123	-15880	1520	-2872	-60	-66	143	-8304	904	14400	235	89	-67	-16632	232	-1992	-15	11	141	-16176	-720	-1784	125	97	145	126	124	8
-7956	-2080	13788	4	21	-7	-15920	2120	-1992	-63	-6	127	-15992	1568	-2976	-60	-62	138	-8472	576	14640	211	106	-55	-16648	464	-1920	-20	9	146	-16232	-600	-2008	125	101	135	127	124	8
-7900	-2080	13936	4	24	-15	-16040	2192	-2248	-66	-10	131	-15960	1568	-3224	-54	-59	141	-8256	592	14560	237	99	-91	-16496	160	-2152	-20	6	142	-16224	-472	-2120	94	83	126	126	125	8
-7996	-2076	13764	0	21	-10	-16104	2304	-2104	-64	-4	123	-16104	1680	-3120	-53	-68	137	-8304	544	14560	275	61	-41	-16592	240	-2120	-2	6	142	-16152	-464	-2184	58	73	107	126	125	8
-7980	-2084	13872	-1	31	-7	-15912	2352	-2104	-62	-6	122	-15992	1792	-2848	-63	-73	134	-8312	720	14632	298	54	-1	-16616	568	-2184	0	0	146	-16224	-536	-2176	31	71	105	126	124	8
-7980	-2060	13768	0	28	-4	-15920	2232	-2056	-63	-4	119	-15976	1736	-2824	-69	-73	127	-8312	632	14600	259	49	-29	-16480	456	-2096	-29	-2	140	-16112	-616	-1912	20	71	117	126	125	8
-7996	-1960	13612	-3	30	-7	-16072	2248	-1976	-57	-4	121	-16048	1792	-2864	-77	-87	123	-8272	536	14648	268	28	-19	-16520	600	-1952	-8	-2	131	-16008	-488	-2144	42	65	104	126	125	8
-7944	-2080	13764	1	29	-2	-15928	2360	-2296	-52	-3	109	-15840	1984	-2816	-82	-89	116	-8440	720	14536	255	47	-73	-16560	648	-2112	-4	-7	138	-16160	24	-2296	52	83	107	126	125	8
-7892	-2016	13700	-1	28	-1	-16008	2424	-2064	-54	-5	108	-15920	1904	-3280	-86	-90	117	-8256	720	14752	243	19	-44	-16488	680	-1952	-7	-4	126	-16216	40	-2032	19	69	111	126	125	8
-8036	-1996	13876	-2	34	-5	-15912	2440	-2336	-53	-5	105	-15824	1888	-3152	-72	-95	108	-8488	720	14592	234	20	-74	-16392	704	-2088	-26	-4	118	-16072	56	-2056	-10	58	112	126	125	8
-8044	-2032	13760	-5	32	-1	-15840	2520	-2296	-60	-2	103	-15888	1864	-3024	-68	-100	103	-8456	632	14696	196	33	-96	-16568	776	-1952	-48	-8	119	-15968	-24	-2128	-25	47	94	127	125	8
-7972	-2020	13680	-4	31	-1	-15912	2632	-2200	-64	-5	98	-15848	2112	-3080	-81	-110	97	-8600	584	14672	229	2	-58	-16392	824	-2040	-69	-2	113	-16128	-72	-2192	-67	36	88	126	125	8
-8052	-1924	13748	-5	27	-4	-15760	2576	-2120	-70	-2	95	-15688	2224	-3088	-85	-121	93	-8368	776	14336	203	-43	-47	-16376	752	-2248	-73	-2	112	-15976	-296	-2264	-83	40	94	127	126	8
-8036	-2020	13684	0	23	-4	-15880	2496	-2096	-67	-3	85	-15904	2168	-3120	-81	-140	84	-8352	616	14600	192	-66	-61	-16368	608	-2248	-100	-3	97	-15904	-360	-2224	-69	24	73	126	128	8
-8056	-1972	13772	-4	18	-5	-16000	2392	-2216	-45	0	86	-16152	2184	-2912	-88	-179	70	-8352	744	14736	221	-82	-30	-16568	736	-2088	-63	-6	103	-15968	-160	-2320	-53	38	75	126	127	8
-7944	-1980	13716	-5	16	-1	-15864	2680	-2080	-37	2	85	-15888	2440	-2880	-111	-230	66	-8392	616	14528	175	-84	-76	-16696	720	-2384	-62	-17	99	-16288	-40	-2352	-58	44	79	126	127	8
-8048	-1908	13820	-4	24	1	-16000	2880	-2192	-53	-6	70	-15928	2760	-2768	-126	-240	64	-8336	520	14728	115	-103	-85	-16712	768	-2288	-77	-17	90	-16128	-112	-2408	-81	37	77	126	126	8
-8020	-2028	13852	-5	19	-5	-15944	2944	-2168	-57	-3	74	-15792	2672	-2840	-152	-208	63	-8552	800	14632	179	-96	-59	-16408	632	-2256	-71	-21	87	-16120	40	-2336	-94	30	60	126	126	8
-8036	-1948	13804	-14	29	-10	-15888	2752	-2232	-77	-8	47	-16008	2672	-2768	-193	-192	40	-8304	624	14744	216	-37	-35	-16608	904	-1840	-56	-21	87	-16120	96	-2168	-120	22	35	126	126	8
-8040	-1924	13744	-7	25	-16	-15824	2720	-2304	-74	-20	50	-15656	2216	-2944	-189	-150	32	-8368	712	14528	165	-26	-40	-16520	1112	-1896	-78	-24	84	-16328	-88	-2192	-130	21	36	126	125	8
-8052	-1952	13748	-11	26	-18	-15856	2848	-2456	-62	-33	42	-15696	2096	-2848	-158	-105	23	-8320	784	14640	199	-81	-72	-16544	1096	-2032	-96	-25	75	-16120	-160	-1888	-122	19	40	126	125	8
-8108	-2016	13816	-13	26	-16	-15904	2632	-2400	-55	-45	32	-15944	2168	-2744	-149	-72	15	-8392	728	14816	192	-9	-38	-16504	776	-2144	-62	-23	72	-16168	-360	-2088	-76	4	29	125	126	8
-8052	-1916	13772	-13	29	-17	-15920	2752	-2256	-66	-47	24	-15880	2248	-2704	-147	-68	18	-8168	768	14680	192	-85	-87	-16464	1008	-2344	-15	-14	74	-16016	-272	-1816	-28	2	27	125	126	8
-8048	-1948	13744	-10	17	-20	-15888	2896	-2192	-92	-53	20	-15776	2088	-2520	-144	-68	18	-8464	760	14720	209	-78	-61	-16456	1192	-2024	-18	-10	71	-16096	120	-2328	-25	6	45	125	126	8
-8060	-1888	13760	-16	19	-20	-15824	2872	-2080	-99	-53	11	-15824	2168	-2608	-146	-82	23	-8424	816	14544	171	-85	-80	-16408	1032	-2176	-38	-18	60	-16344	320	-2040	-28	6	52	125	126	8
-8112	-1992	13728	-19	17	-22	-15904	2616	-2064	-74	-51	9	-16048	1992	-2448	-114	-90	17	-8360	648	14736	137	-87	-112	-16512	984	-1944	-43	-16	59	-16096	-80	-2160	-19	-5	29	125	126	8
-8012	-1952	13744	-17	18	-28	-15992	2800	-1864	-57	-61	3	-15976	1960	-2600	-69	-91	6	-8488	824	14304	136	-39	-86	-16560	1032	-2136	-21	-14	57	-16136	-56	-2216	-1	-5	13	125	126	8
-8048	-1912	13764	-16	18	-24	-15864	2848	-2224	-44	-58	9	-15960	2104	-2584	-31	-87	6	-8456	672	14672	172	-72	-60	-16504	1048	-2104	-19	-10	56	-16208	80	-2376	-27	0	13	124	125	8
-8048	-1960	13804	-15	16	-27	-15912	2704	-1880	-58	-58	3	-16200	2152	-2064	-18	-76	11	-8320	816	14528	175	-69	-50	-16552	960	-2184	-28	-19	55	-16104	160	-2056	-51	-1	8	124	126	8
-8072	-1944	13772	-14	19	-26	-16112	2840	-1968	-71	-60	-3	-16184	2240	-2088	-38	-75	8	-8280	736	14568	146	-69	-102	-16528	1112	-2008	-32	-11	51	-16160	192	-1936	-54	0	5	124	125	8
-8044	-1936	13860	-19	17	-30	-15968	2800	-1864	-59	-55	-7	-15872	2216	-1880	-59	-72	10	-8528	776	14704	146	-105	-87	-16600	1256	-1920	-43	-10	43	-16224	232	-2016	-72	0	7	124	125	8
-8084	-1884	13756	-20	11	-30	-15864	2680	-1864	-64	-51	-4	-15864	2152	-1688	-84	-85	5	-8448	632	14640	76	-80	-104	-16488	1096	-1888	-59	-6	43	-16120	248	-2120	-90	-6	9	125	125	8
-7972	-1888	13888	-23	10	-37	-16000	2760	-1968	-41	-46	-5	-16056	2208	-1824	-104	-94	-4	-8448	816	14560	131	-91	-114	-16704	1040	-1776	-68	-7	39	-16104	-128	-2328	-93	-5	-2	125	125	8
-8088	-2068	13728	-15	7	-27	-16064	2704	-1728	-38	-34	-6	-16024	2312	-1912	-108	-112	-15	-8336	744	14528	123	-36	-101	-16608	1000	-2000	-62	-2	37	-16128	-168	-2088	-80	-25	-16	125	125	8
-8080	-1980	13708	-16	9	-24	-16000	2760	-1864	-28	-31	-6	-16184	2272	-1928	-114	-125	-30	-8384	656	14680	130	-11	-96	-16568	1128	-2016	-62	-3	31	-16160	-224	-1992	-66	-13	-1	125	125	8
-8048	-2020	13704	-14	12	-25	-15936	2744	-1736	-42	-19	-4	-16240	2296	-1976	-126	-140	-30	-8392	712	14536	119	-29	-99	-16440	1336	-2040	-45	-5	27	-16200	-104	-2192	-55	-7	7	125	125	8
-8008	-1980	13824	-20	14	-22	-15936	2632	-1560	-34	-11	-6	-16016	2232	-1800	-145	-145	-32	-8416	736	14544	143	-56	-92	-16616	1024	-1944	-35	-15	29	-16120	-24	-2288	-36	-11	8	125	125	8
-8064	-2008	13712	-15	14	-19	-15888	2648	-1656	-29	-13	-7	-16168	1976	-1816	-168	-139	-37	-8304	552	14640	128	-71	-103	-16568	1136	-2136	-21	-14	24	-16208	-168	-2328	-27	-9	2	125	125	8
-8032	-1924	13756	-13	14	-16	-15976	2688	-1584	-19	-15	-11	-16104	1752	-1880	-157	-123	-38	-8496	752	14584	153	-49	-112	-16624	1000	-2152	-8	-20	19	-16064	-256	-2240	6	-16	-10	125	125	8
-7972	-1992	13792	-17	13	-18	-16000	2856	-1576	1	-16	-16	-16160	1768	-1912	-133	-107	-31	-8520	776	14728	145	-15	-131	-16496	1216	-1960	28	-22	19	-16072	40	-2400	35	-12	-15	125	125	8
-8052	-1960	13712	-15	22	-16	-15936	2920	-2096	-8	-16	-20	-16272	1912	-1832	-98	-99	-28	-8536	792	14736	148	-64	-129	-16400	1056	-2144	38	-26	20	-16080	-32	-2264	46	-13	-12	125	125	8
-8036	-1972	13768	-17	25	-14	-15896	2856	-1848	-12	-19	-23	-16136	1904	-1864	-70	-86	-30	-8176	752	14560	127	-60	-121	-16544	1048	-1800	48	-28	14	-16136	-56	-2216	41	-15	-16	125	124	8
-8008	-1896	13780	-14	27	-16	-15928	2872	-1776	-9	-17	-25	-16088	1848	-1736	-38	-83	-23	-8328	584	14552	109	-62	-125	-16368	1320	-1912	45	-24	14	-16072	-88	-1888	42	-17	-23	125	124	8
-8140	-1952	13736	-17	26	-19	-15984	2856	-1776	-8	-9	-28	-16016	1896	-1648	-49	-91	-20	-8304	744	14568	126	-89	-104	-16464	1336	-1752	24	-26	12	-16216	48	-2072	24	0	-15	125	125	8
-8012	-1912	13856	-17	18	-20	-15752	2896	-1544	-4	-9	-27	-15896	1976	-1760	-28	-86	-18	-8320	712	14648	140	-45	-151	-16416	1128	-1936	-11	-25	6	-16104	56	-2176	-9	-4	-15	126	124	8
-8080	-1980	13700	-18	12	-28	-15840	2720	-1968	6	-8	-28	-15952	1888	-1880	-14	-87	-14	-8352	624	14536	112	-109	-87	-16448	1080	-2048	-12	-25	7	-16080	-48	-2008	-37	-2	-32	126	124	8
-8048	-2000	13760	-14	12	-33	-15824	2768	-2048	17	-7	-26	-15952	1880	-1624	-8	-87	-17	-8328	896	14544	107	-41	-74	-16608	1072	-1720	-16	-21	3	-16200	240	-2208	-61	10	-31	126	124	8
-8060	-1960	13720	-20	7	-36	-15984	2688	-1792	20	-7	-27	-16232	2040	-1864	-24	-81	-28	-8224	816	14712	109	-34	-93	-16856	1296	-1784	-56	-25	1	-16208	368	-1888	-104	28	-20	125	124	8
-7996	-1944	13768	-19	8	-30	-15960	2888	-1984	11	-12	-29	-16128	2224	-1664	-35	-79	-33	-8312	648	14720	98	-11	-119	-16568	1096	-1824	-82	-16	-6	-16072	-32	-1984	-131	22	-43	126	124	8
-8088	-2120	13732	-22	8	-32	-15976	2800	-1944	-20	-10	-40	-16088	2072	-1680	-57	-89	-32	-8328	664	14832	113	40	-87	-16640	768	-1848	-63	-15	-5	-16176	-8	-1712	-105	4	-81	125	124	8
-8060	-1980	13724	-28	6	-32	-15928	2896	-2016	-17	-18	-39	-16056	2352	-1736	-112	-96	-47	-8328	704	14648	126	79	-147	-16576	1064	-1664	-26	-9	-6	-16152	536	-1632	-120	12	-74	125	124	8
-7996	-2036	13724	-24	11	-27	-15992	2736	-2032	-25	-17	-42	-16160	2424	-1776	-141	-85	-57	-8368	808	14584	95	30	-114	-16456	1248	-1736	-46	1	-7	-16224	192	-1720	-143	21	-72	126	124	8
-8076	-2008	13812	-25	10	-32	-16056	2688	-1816	-27	-17	-54	-16064	2368	-1616	-166	-86	-76	-8392	608	14624	77	25	-104	-16536	1312	-1864	-68	13	-17	-16264	400	-2056	-149	13	-81	126	124	8
-8076	-1964	13824	-26	15	-31	-15960	2760	-2304	-47	-23	-57	-15976	2232	-1792	-177	-72	-95	-8312	704	14528	53	20	-145	-16544	1216	-1672	-79	17	-22	-16240	200	-1776	-152	-1	-99	126	124	8
-8056	-2008	13828	-27	13	-34	-15920	2848	-1808	-63	-33	-64	-15856	2040	-1712	-187	-50	-94	-8280	824	14584	59	52	-163	-16552	1168	-1848	-66	29	-27	-16176	-80	-1920	-141	-14	-112	125	124	8
-8088	-2124	13700	-25	9	-34	-16056	2520	-1808	-51	-40	-69	-16136	1736	-1584	-197	-23	-98	-8328	784	14704	29	24	-181	-16360	1016	-2040	-55	32	-30	-16136	-72	-1984	-116	-4	-112	125	125	8
-7960	-2012	13768	-26	11	-34	-16024	2720	-1832	-50	-41	-73	-16256	1488	-1488	-162	15	-84	-8248	728	14728	19	-19	-181	-16472	1336	-2048	-44	42	-36	-16176	-128	-1936	-105	-10	-93	125	125	8
-8008	-2072	13700	-26	10	-40	-15880	2688	-1808	-42	-48	-77	-16080	1376	-1600	-102	40	-70	-8288	808	14744	-3	-55	-207	-16480	1240	-1912	-64	43	-50	-16248	-168	-2048	-101	-3	-76	126	125	8
-8112	-1996	13700	-31	9	-39	-15768	2728	-1896	-40	-48	-79	-15928	1192	-1528	-65	48	-56	-8216	768	14712	-29	-56	-179	-16616	1112	-1856	-75	45	-48	-16120	-368	-2144	-79	-11	-80	126	125	8
-8096	-2096	13728	-29	3	-43	-16024	2376	-1608	-19	-49	-79	-16200	1112	-1208	-33	69	-49	-8312	656	14632	20	-49	-231	-16488	848	-1816	-37	50	-48	-16232	-520	-2296	-47	-36	-96	126	125	8
-7992	-2092	13720	-27	5	-42	-16136	2424	-1792	0	-45	-78	-16416	1256	-1096	5	74	-43	-8352	752	14688	19	-13	-208	-16712	1040	-2128	-5	50	-44	-16048	-312	-2120	-38	-20	-93	125	125	8
-8016	-2124	13728	-24	9	-37	-16008	2560	-1728	14	-40	-72	-16232	1352	-1240	36	65	-28	-8320	688	14672	9	-49	-273	-16392	816	-2088	-18	43	-41	-16064	-536	-2128	-36	-13	-85	125	125	8
-8056	-2056	13672	-21	12	-31	-16168	2488	-1760	12	-37	-74	-16192	1536	-1144	42	58	-34	-8528	664	14528	13	-72	-204	-16528	944	-2216	-18	40	-54	-15872	-520	-2416	-24	-17	-87	125	125	8
-8008	-2100	13848	-23	19	-29	-15968	2288	-1544	-3	-23	-78	-16080	1560	-1272	45	45	-26	-8384	640	14720	22	-32	-205	-16384	856	-2048	-2	41	-48	-16048	-840	-2376	-1	-21	-92	126	125	8
-8012	-2136	13788	-21	16	-28	-15992	2472	-1808	10	-15	-75	-16296	1512	-1272	35	39	-30	-8328	608	14560	51	-71	-213	-16528	704	-2176	28	29	-46	-15992	-808	-2344	17	-34	-94	126	125	8
-8008	-2008	13724	-20	15	-31	-15840	2544	-1560	13	-5	-74	-16040	1504	-1392	23	39	-36	-8264	592	14600	27	-36	-191	-16616	872	-2064	40	32	-44	-16176	-872	-2360	33	-30	-83	126	125	8
-8064	-2056	13764	-16	9	-32	-15896	2480	-1560	15	5	-67	-16088	1520	-1296	1	29	-50	-8352	704	14608	49	-121	-230	-16488	784	-2376	36	16	-43	-16008	-888	-2528	30	-26	-65	126	125	8
-8020	-2088	13756	-13	5	-32	-15816	2312	-1616	23	11	-63	-16096	1536	-1248	-1	37	-54	-8408	536	14448	62	-90	-191	-16392	760	-2248	29	16	-49	-16064	-720	-2216	42	-20	-66	126	124	8
-8020	-2084	13700	-13	9	-29	-15920	2368	-1504	55	13	-69	-16248	1432	-1344	-26	37	-50	-8528	760	14648	71	-111	-186	-16520	888	-2096	19	4	-43	-16168	-528	-2104	37	-6	-67	126	124	8
-8016	-2112	13828	-18	6	-25	-15992	2504	-1568	56	16	-66	-16392	1496	-1528	-25	49	-56	-8368	744	14600	41	-80	-155	-16560	560	-2096	21	6	-55	-16208	-528	-2104	18	-13	-67	126	124	8
-8028	-2100	13728	-17	15	-27	-16064	2416	-1672	30	19	-68	-16232	1328	-1720	5	57	-46	-8368	544	14848	86	-73	-113	-16496	760	-2144	57	5	-49	-16112	-752	-2032	37	-27	-84	126	124	8
-8024	-2160	13636	-18	14	-28	-15936	2488	-1960	35	18	-66	-16248	1072	-1520	29	71	-32	-8264	536	14632	56	-36	-181	-16552	880	-2136	79	7	-44	-16336	-672	-1728	65	-27	-76	126	124	8
-7984	-2108	13724	-14	17	-24	-15984	2240	-1920	34	21	-69	-15992	976	-1656	47	86	-19	-8272	624	14824	31	-19	-210	-16520	824	-1992	47	10	-48	-16176	-744	-1960	78	-34	-54	126	124	8
-7992	-2076	13740	-17	18	-24	-16040	2176	-1928	56	20	-68	-16176	1072	-1928	69	91	-19	-8336	512	14776	113	-15	-207	-16488	728	-2112	53	8	-55	-16024	-960	-1760	102	-27	-49	126	124	8
-8036	-2080	13824	-13	12	-25	-15968	2216	-1912	62	25	-67	-16064	1088	-1760	80	81	-10	-8400	728	14352	81	18	-187	-16440	672	-2000	67	12	-49	-16016	-824	-2056	122	-22	-47	127	124	8
-8000	-2056	13728	-8	6	-26	-15888	2264	-1736	58	29	-63	-15912	1264	-1976	90	67	6	-8344	544	14520	78	12	-192	-16344	784	-2232	56	7	-48	-16168	-656	-2056	119	-26	-39	127	124	8
-7976	-2052	13768	-14	5	-27	-15856	2176	-1824	45	30	-69	-16064	1240	-1816	96	70	5	-8456	624	14544	76	29	-208	-16456	632	-2128	51	7	-53	-16160	-664	-1840	104	-23	-36	127	124	8
-8072	-2096	13840	-9	4	-28	-16000	2264	-1720	62	28	-68	-16008	1352	-1912	118	81	3	-8336	600	14432	31	-6	-182	-16528	744	-2328	56	4	-53	-16080	-752	-2248	98	-27	-42	127	124	8
-7968	-2048	13844	-10	3	-27	-16112	2080	-2056	82	28	-69	-16184	1160	-2064	162	102	-2	-8280	744	14664	44	-49	-192	-16512	520	-2200	63	8	-55	-16120	-800	-2128	100	-27	-46	127	124	8
-7968	-2020	13812	-15	5	-30	-15920	2224	-2072	97	19	-67	-16184	1168	-1848	196	119	-7	-8360	688	14568	82	-53	-189	-16504	616	-2040	58	-3	-55	-16136	-840	-1952	107	-29	-47	127	124	8
-7992	-2128	13536	-10	4	-30	-16056	2256	-1720	87	18	-70	-16208	1320	-2144	199	134	7	-8320	584	14472	57	-41	-202	-16536	520	-2128	65	-3	-52	-15984	-936	-1728	96	-20	-48	127	124	8
-8028	-2184	13764	-14	8	-28	-16200	2184	-1736	91	17	-73	-16096	1360	-2112	193	132	10	-8352	680	14680	55	-1	-205	-16392	600	-2088	71	-6	-60	-16008	-712	-2112	83	-21	-52	127	124	8
-8028	-2104	13956	-17	12	-24	-16072	2112	-1776	80	16	-79	-16000	1200	-2112	152	123	-1	-8456	656	14520	65	-70	-166	-16536	464	-2024	57	-8	-55	-16144	-720	-1824	67	-23	-51	128	124	8
-7960	-2124	13840	-10	12	-21	-16040	2176	-1872	76	20	-77	-16096	1280	-2144	127	103	-10	-8320	656	14608	56	-95	-213	-16544	504	-2304	42	-5	-57	-16264	-808	-1992	60	-36	-54	128	124	8
-8008	-2176	13792	-14	6	-27	-15992	2072	-1848	65	31	-75	-16016	1480	-1864	102	66	-18	-8488	632	14728	51	-46	-195	-16488	416	-2128	45	-8	-59	-16120	-1336	-1832	60	-53	-64	127	123	8
-7992	-2128	13760	-10	10	-26	-16008	1808	-1864	69	42	-71	-16296	1640	-2096	105	15	-28	-8224	648	14600	88	25	-201	-16480	432	-2272	50	-7	-50	-16304	-1384	-1856	90	-52	-60	128	124	8
-7940	-2088	13664	-17	8	-26	-15952	1880	-1720	100	40	-66	-16440	1488	-2200	110	-79	-29	-8240	632	14592	101	-10	-196	-16456	264	-2192	59	-12	-57	-15968	-1416	-1888	109	-52	-41	128	123	8
-7972	-2100	13804	-11	10	-27	-15896	1992	-1768	97	48	-66	-16544	1288	-2264	96	-256	-10	-8208	560	14576	79	-15	-176	-16392	408	-2328	72	-9	-50	-16168	-1152	-1984	130	-43	-36	129	123	8
-7984	-2128	13732	-11	15	-24	-16056	2048	-2024	121	43	-76	-16424	1200	-2376	80	-365	8	-8424	464	14440	91	-38	-152	-16536	320	-2288	72	-14	-47	-16112	-1312	-2064	145	-48	-27	126	123	8
-8048	-2140	13720	-18	16	-24	-15920	2072	-2064	124	31	-74	-16080	1112	-2496	-31	-369	42	-8344	600	14648	73	-29	-165	-16464	336	-2296	69	-18	-47	-16136	-1072	-2008	146	-58	-21	130	123	8
-8048	-2160	13732	-16	10	-32	-16008	1976	-2536	81	28	-74	-15968	632	-2160	-42	-314	58	-8352	664	14728	100	-67	-134	-16568	160	-1928	77	-20	-49	-16088	-1192	-1960	147	-68	-19	131	122	8
-7956	-2156	13776	-16	13	-30	-16232	1920	-2176	72	18	-84	-15752	592	-2232	56	-148	29	-8424	648	14680	112	-24	-167	-16544	216	-2344	98	-25	-45	-16032	-1208	-1992	156	-71	-22	129	122	8
-7972	-2092	13780	-20	10	-34	-16032	1968	-2080	78	5	-82	-15792	960	-1904	105	15	16	-8240	640	14536	130	-51	-139	-16512	376	-2352	107	-24	-44	-15944	-1224	-2072	171	-69	-18	129	122	8
-8024	-2080	13704	-20	9	-38	-15992	1816	-1976	81	-4	-82	-15752	1000	-1904	124	67	18	-8320	488	14520	89	-31	-139	-16648	112	-2272	93	-32	-41	-16144	-1128	-1936	172	-62	-22	129	122	8
-7952	-2088	13764	-16	-1	-35	-15936	1720	-2128	84	-13	-87	-15808	1144	-2120	170	130	17	-8344	512	14720	105	-21	-167	-16472	224	-2296	100	-36	-43	-16144	-944	-1800	151	-57	-21	128	122	8
-7944	-2132	13804	-27	3	-36	-16080	1712	-2168	73	-10	-86	-15832	1048	-2184	203	183	4	-8280	640	14424	73	-19	-137	-16616	40	-1920	90	-36	-38	-16216	-960	-1632	139	-59	-24	128	120	8
-7908	-2080	13820	-23	4	-37	-16096	1608	-2112	65	-11	-82	-15736	936	-2224	266	261	-10	-8232	672	14472	115	-43	-120	-16680	80	-1936	71	-41	-45	-16152	-1080	-1600	126	-66	-18	128	120	8
-7956	-2184	13776	-20	9	-35	-16096	1728	-2216	65	-15	-83	-15920	920	-1968	284	393	-21	-8400	416	14648	123	-12	-159	-16496	128	-2048	66	-38	-43	-16160	-1160	-1704	125	-62	-23	127	120	8
-8040	-2184	13672	-19	6	-37	-16048	1728	-2264	63	-13	-79	-16296	992	-1968	244	429	-25	-8224	536	14456	103	25	-135	-16512	104	-2256	61	-40	-41	-16176	-1016	-1656	131	-63	-20	127	121	8
-7996	-2132	13832	-23	7	-32	-16032	1768	-1928	57	-9	-83	-16656	920	-2280	198	326	-37	-8384	600	14512	102	29	-149	-16616	8	-2032	70	-45	-44	-16224	-1136	-1696	130	-64	-17	127	121	8
-7916	-2096	13832	-20	5	-30	-16008	1576	-1864	47	-4	-77	-16336	1056	-2264	180	210	-53	-8320	544	14792	132	12	-127	-16352	160	-2144	77	-45	-41	-16048	-1088	-1408	123	-66	-19	126	121	8
-7924	-2176	13804	-18	9	-31	-16104	1648	-2056	54	-5	-75	-16336	1576	-2200	180	126	-31	-8368	376	14648	90	20	-110	-16552	16	-2240	61	-41	-49	-16080	-1112	-1544	109	-71	-20	126	121	8
-7964	-2140	13744	-18	7	-27	-16024	1640	-1920	52	5	-81	-16200	1384	-2144	144	76	-17	-8304	584	14720	118	-25	-118	-16408	80	-2104	68	-39	-47	-16000	-1000	-1400	102	-78	-22	126	121	8
-7880	-2140	13788	-19	8	-30	-16064	1664	-1616	37	10	-76	-16184	1200	-2424	93	63	-24	-8360	592	14752	124	-12	-122	-16560	72	-1952	75	-31	-51	-16176	-1072	-1192	105	-76	-28	126	122	8
-7968	-2028	13788	-12	9	-30	-16056	1552	-2144	45	16	-81	-16152	1176	-2672	76	58	-35	-8352	584	14688	90	-14	-129	-16592	-16	-2000	72	-37	-48	-16160	-1104	-1600	107	-79	-36	125	122	8
-7876	-2116	13788	-16	10	-33	-16040	1568	-2056	57	12	-77	-16024	952	-2672	79	60	-41	-8280	632	14504	86	54	-159	-16528	8	-1840	54	-40	-49	-16328	-1016	-1320	99	-79	-42	125	122	8
-7996	-2092	13660	-20	9	-35	-16008	1544	-2032	57	16	-79	-15912	1104	-2664	63	58	-37	-8344	664	14528	99	54	-152	-16408	-152	-1728	57	-39	-51	-16176	-984	-1056	72	-76	-42	125	122	8
-7892	-2192	13784	-18	9	-31	-16048	1640	-2136	61	17	-77	-16048	1064	-2744	39	50	-34	-8336	536	14568	92	-11	-135	-16448	-168	-2056	63	-37	-52	-16224	-1104	-1472	80	-77	-55	125	122	8
-7972	-2120	13796	-19	10	-30	-16112	1552	-2296	43	15	-87	-16096	888	-2728	38	54	-34	-8272	576	14728	82	54	-163	-16472	-152	-2040	58	-29	-49	-16064	-1296	-1192	97	-82	-44	125	122	8
-8004	-2160	13684	-21	10	-30	-15920	1520	-2272	17	10	-81	-15840	632	-2856	26	50	-38	-8392	544	14760	109	9	-164	-16520	-16	-1744	53	-31	-51	-16096	-1408	-960	110	-71	-28	126	122	8
-7920	-2160	13824	-24	5	-35	-16008	1488	-2208	15	13	-85	-15912	688	-2952	37	55	-36	-8424	512	14496	77	37	-168	-16424	-88	-1944	64	-26	-56	-16176	-1696	-1016	136	-73	-19	125	122	8
-7844	-2096	13784	-22	3	-34	-16024	1592	-1792	19	7	-83	-15848	704	-2808	40	52	-19	-8272	608	14560	117	4	-141	-16600	-296	-1608	63	-25	-49	-16368	-1696	-1352	157	-78	-17	125	122	8
-7896	-2156	13692	-23	12	-41	-16088	1328	-1952	17	7	-88	-16112	576	-2672	61	56	-6	-8240	600	14688	141	86	-146	-16688	-440	-1872	85	-19	-46	-16264	-1584	-1176	175	-85	-9	126	122	8
-7912	-2272	13784	-24	13	-36	-16200	1248	-1960	50	4	-81	-16032	280	-2728	119	64	3	-8336	704	14912	113	127	-141	-16408	-272	-1960	103	-24	-35	-16208	-1376	-1024	187	-88	-7	126	122	8
-7896	-2148	13724	-25	16	-34	-16024	1216	-1992	76	4	-78	-16184	136	-2792	148	66	8	-8256	552	14544	129	109	-161	-16568	-232	-2088	102	-20	-37	-16152	-1416	-1224	200	-70	-5	126	122	8
-7860	-2244	13852	-22	11	-31	-15960	1200	-1944	71	6	-76	-16176	352	-2592	171	74	14	-8192	448	14520	137	141	-100	-16376	-368	-1984	100	-24	-41	-16088	-1304	-1000	197	-50	-2	126	122	8
-7936	-2244	13804	-22	17	-26	-16072	1216	-2112	59	12	-72	-16112	480	-2584	170	67	22	-8352	448	14560	125	91	-152	-16368	-232	-1840	93	-27	-41	-16096	-1056	-1144	192	-41	-1	126	122	8
-7852	-2188	13780	-18	17	-23	-15880	1384	-2040	52	20	-70	-16080	704	-2408	171	63	30	-8320	592	14688	121	55	-148	-16528	-368	-2344	81	-39	-45	-16176	-1080	-1256	187	-35	-19	127	122	8
-7904	-2224	13844	-15	16	-25	-15888	1024	-1960	53	28	-66	-16056	784	-2368	161	54	23	-8416	640	14544	71	15	-186	-16544	-224	-2144	69	-38	-45	-16120	-992	-928	152	-40	-32	127	122	8
-7916	-2288	13796	-15	15	-24	-16104	952	-1888	57	36	-63	-16120	952	-2584	137	55	5	-8352	552	14592	108	-23	-131	-16504	-328	-1632	81	-28	-50	-16280	-888	-912	114	-41	-36	127	122	8
-7920	-2224	13808	-18	15	-25	-16176	1256	-1864	59	46	-68	-16104	872	-2312	101	46	-6	-8384	608	14632	59	-8	-163	-16584	-256	-1848	71	-36	-57	-16144	-912	-1168	81	-40	-38	127	122	8
-7968	-2168	13764	-13	15	-18	-16128	1208	-1968	40	56	-63	-15936	680	-2592	74	50	-13	-8336	512	14848	82	-3	-171	-16544	-408	-1872	45	-35	-58	-16256	-1128	-1080	70	-45	-45	127	122	8
-7892	-2160	13680	-16	18	-18	-16088	1224	-1896	58	62	-66	-16072	896	-2736	72	60	-16	-8360	608	14592	61	2	-151	-16560	-536	-1752	64	-35	-59	-16344	-1312	-944	69	-37	-49	127	122	8
-7864	-2136	13776	-15	21	-26	-16024	1320	-2232	76	66	-73	-15952	896	-2456	54	59	-9	-8424	560	14872	132	46	-149	-16624	-560	-1576	69	-26	-58	-16264	-1328	-888	77	-46	-53	127	122	8
-7856	-2168	13720	-16	25	-26	-16216	1136	-2184	89	65	-75	-15904	656	-2880	79	69	-19	-8376	800	14696	132	61	-184	-16424	-576	-2048	94	-20	-52	-16104	-1640	-496	101	-64	-61	127	122	8
-7944	-2176	13808	-17	27	-31	-16136	1064	-2136	143	65	-74	-15920	480	-3128	108	82	-28	-8368	632	14672	128	27	-143	-16488	-608	-1784	108	-11	-49	-16168	-1608	-488	113	-68	-56	127	122	8
-7960	-2160	13664	-24	20	-29	-15952	1272	-2336	129	58	-68	-15928	408	-3464	110	84	-29	-8368	488	14712	128	66	-177	-16576	-592	-1672	92	3	-52	-16368	-1536	-488	127	-55	-39	127	122	8
-7916	-2228	13744	-19	21	-25	-15928	1176	-2232	80	56	-73	-15824	224	-3552	111	73	-3	-8264	440	14560	159	169	-213	-16672	-584	-1768	76	-5	-50	-16488	-1808	-672	142	-37	-30	127	123	8
-7896	-2104	13772	-20	18	-27	-15952	904	-2552	99	50	-83	-15784	184	-3656	148	70	0	-8456	552	14736	146	160	-211	-16576	-856	-1712	85	6	-52	-16280	-1968	-552	164	-37	-29	127	122	8
-7964	-2220	13796	-18	21	-30	-16048	896	-2440	130	50	-67	-15832	224	-3328	194	67	6	-8488	496	14608	170	187	-178	-16552	-728	-1736	129	19	-42	-16104	-1712	-296	192	-50	-26	127	123	8
-7824	-2180	13832	-23	16	-32	-15912	1120	-2536	147	51	-66	-15872	528	-3264	184	55	24	-8288	560	14840	187	210	-187	-16608	-656	-1744	135	14	-39	-16288	-1552	-488	216	-44	-32	127	123	8
-7888	-2260	13684	-19	12	-29	-16208	888	-2080	110	43	-70	-15784	272	-3440	188	54	32	-8464	448	14776	109	220	-180	-16544	-504	-1864	109	20	-34	-16296	-1440	-536	200	-51	-25	127	123	8
-7960	-2172	13756	-13	15	-24	-16072	704	-2568	131	40	-78	-15936	336	-3360	208	65	15	-8392	544	14576	142	267	-188	-16512	-688	-1816	104	23	-33	-16360	-1584	-712	174	-53	-19	127	123	8
-7928	-2124	13768	-20	11	-33	-16000	904	-2648	130	35	-60	-15912	776	-3448	185	58	18	-8288	608	14592	149	228	-175	-16408	-656	-1728	95	34	-35	-16008	-1784	-672	181	-55	-16	127	122	8
-7952	-2216	13708	-21	14	-36	-16168	872	-2568	116	30	-57	-15944	576	-3448	137	60	15	-8456	552	14496	155	283	-206	-16352	-744	-1888	105	36	-24	-16128	-1912	-640	186	-61	-22	127	122	8
-7964	-2292	13716	-14	12	-29	-16088	640	-2656	85	25	-61	-15880	248	-3560	111	63	8	-8352	776	14264	157	238	-178	-16352	-688	-1648	96	34	-24	-16208	-1648	-904	170	-56	-26	127	122	8
-7892	-2224	13816	-16	8	-29	-15944	960	-2416	51	24	-59	-15832	224	-3528	99	44	3	-8544	392	14528	161	167	-176	-16496	-728	-1952	76	29	-20	-16288	-1720	-760	139	-56	-21	127	122	8
-7944	-2140	13852	-21	6	-29	-16032	696	-2096	60	30	-54	-16000	312	-3120	100	33	-5	-8272	320	14512	177	168	-153	-16472	-840	-2208	83	36	-24	-16072	-1736	-640	110	-53	-22	127	122	8
-7920	-2292	13792	-14	3	-29	-16136	520	-2168	99	31	-48	-16176	440	-3224	93	26	0	-8360	752	14640	117	182	-158	-16496	-800	-2032	76	30	-19	-16000	-1720	-832	105	-56	-31	127	122	8
-7932	-2220	13736	-13	9	-28	-16184	840	-2472	111	34	-39	-15912	240	-3384	83	20	1	-8376	584	14584	178	151	-171	-16640	-512	-2096	52	25	-12	-16280	-1624	-784	93	-50	-36	127	122	8
-7936	-2236	13840	-13	6	-28	-15912	944	-2440	51	40	-31	-15928	136	-3248	71	7	10	-8352	464	14696	78	168	-191	-16584	-912	-2136	30	24	-14	-16152	-1832	-1008	66	-41	-23	127	122	8
-7908	-2248	13744	-16	1	-26	-16240	592	-2432	7	40	-38	-16016	224	-3336	46	3	5	-8360	472	14704	143	165	-161	-16440	-880	-2008	42	28	-16	-16040	-1792	-856	59	-34	-28	127	122	8
-7880	-2280	13796	-13	3	-26	-16080	504	-2760	49	38	-31	-15968	152	-3536	40	6	-6	-8320	576	14504	130	132	-151	-16448	-776	-1920	59	25	-8	-15912	-1784	-640	69	-37	-34	127	122	8
-7876	-2224	13776	-10	8	-22	-15984	1088	-2592	70	34	-21	-15800	120	-3784	54	8	-14	-8456	568	14416	135	95	-171	-16488	-704	-2304	61	24	-7	-16256	-1640	-888	70	-32	-23	127	123	8
-7908	-2128	13804	-7	9	-24	-16080	1016	-2624	15	34	-25	-15712	304	-3560	39	0	8	-8368	592	14584	159	53	-141	-16424	-600	-1928	43	21	-2	-16048	-1824	-560	53	-28	-12	127	123	8
-7824	-2208	13800	-16	6	-28	-16072	584	-2720	11	33	-33	-15920	440	-3544	20	0	20	-8480	568	14176	109	-3	-144	-16280	-792	-1904	38	24	-2	-15896	-1744	-648	45	-29	-6	126	123	8
-7964	-2280	13760	-11	4	-26	-15824	440	-2488	25	14	-16	-15624	72	-3456	23	8	8	-8512	520	14280	50	26	-133	-16232	-936	-2088	27	20	1	-15928	-1664	-664	43	-28	-7	127	123	8
-7896	-2244	13764	-9	-2	-27	-16048	456	-2720	26	21	-22	-15872	200	-3880	-7	11	0	-8496	520	14696	35	-1	-158	-16672	-848	-2112	-11	15	4	-16160	-1488	-664	43	-34	-11	127	123	8
-7936	-2252	13808	-8	2	-23	-16144	1248	-2720	-2	4	-27	-15760	608	-3920	-66	-7	9	-8320	448	14776	90	52	-132	-16840	-952	-2080	-27	13	2	-16256	-1760	-856	22	-36	-9	127	123	8
-7804	-2208	13780	-16	10	-23	-16328	1128	-2984	-69	-6	-28	-15960	904	-4208	-106	-23	24	-8472	536	14872	120	25	-148	-16592	-944	-2160	-13	11	2	-16104	-2072	-544	6	-22	-11	126	123	8
-7920	-2228	13828	-19	16	-24	-16240	624	-2720	-100	-19	-23	-15984	1064	-4088	-102	-23	26	-8424	504	14624	116	84	-100	-16384	-872	-2120	9	11	5	-15840	-1984	-928	12	-13	-10	126	123	8
-7860	-2236	13944	-18	24	-22	-16224	520	-2680	-22	-36	-31	-15584	408	-4000	-41	4	-20	-8608	616	14520	95	59	-110	-16480	-904	-2128	24	10	7	-15864	-1664	-816	21	-11	-14	126	123	8
-7916	-2256	13772	-24	23	-29	-16112	824	-2912	-5	-45	-17	-15664	136	-3912	-46	8	-23	-8544	552	14480	126	6	-132	-16528	-800	-2040	17	1	9	-16008	-1456	-936	-18	-7	-22	125	123	8
-7928	-2252	13868	-28	26	-30	-16008	904	-2624	-15	-50	-29	-16104	-64	-3544	-33	21	-9	-8376	496	14600	105	22	-160	-16544	-816	-2040	-15	-3	9	-16152	-1624	-496	-68	10	-26	125	122	8
-7816	-2268	13688	-26	28	-26	-16312	504	-2424	-48	-49	-25	-16096	-288	-3224	0	34	12	-8496	456	14608	95	110	-179	-16416	-1040	-1928	-18	-8	5	-16032	-1688	-712	-114	26	-46	125	123	8
-7900	-2200	13896	-19	34	-21	-16064	744	-2472	-27	-49	-12	-16048	-344	-2992	18	49	26	-8392	488	14320	125	93	-140	-16504	-928	-2152	-14	-11	10	-16336	-1848	-536	-121	48	-59	125	123	8
-7884	-2264	13736	-21	31	-21	-15816	496	-2256	-62	-41	-4	-15952	-432	-3200	2	44	46	-8592	408	14536	109	51	-130	-16456	-1024	-1664	11	-12	16	-15856	-1976	-568	-117	65	-51	125	123	8
-7860	-2300	13692	-16	31	-19	-16184	376	-1920	-44	-28	5	-16000	-424	-2592	-1	45	49	-8416	592	14424	135	-20	-108	-16264	-808	-1912	13	-9	20	-16072	-1952	-304	-97	80	-50	126	123	8
-7860	-2304	13688	-7	32	-15	-16176	416	-2032	-5	-20	13	-15944	-8	-2944	-29	43	48	-8384	496	14568	100	-48	-49	-16352	-720	-1920	-7	-8	25	-16064	-1776	-160	-80	92	-35	126	124	8
-7936	-2216	13736	-6	30	-11	-15808	808	-2296	1	-5	22	-15984	72	-2864	-14	35	42	-8400	600	14488	116	-105	-132	-16624	-832	-1896	-25	-3	22	-16280	-2128	56	-91	97	-19	126	124	8
-7952	-2284	13764	-5	22	-16	-15928	640	-2208	6	10	27	-15936	-24	-3000	-10	27	43	-8552	408	14520	127	-53	-184	-16408	-1048	-1664	-20	5	32	-16352	-2272	-88	-78	99	1	126	124	8
-7976	-2252	13716	-5	26	-12	-16248	248	-2232	46	15	45	-16112	64	-3216	-8	28	43	-8472	496	14568	93	-29	-181	-16496	-944	-1928	-5	13	42	-16216	-2240	-232	-39	106	2	126	124	8
-7908	-2192	13760	-5	27	-6	-15968	752	-2552	57	24	55	-15992	120	-3168	-13	31	49	-8424	568	14432	76	-40	-198	-16440	-1008	-2008	-11	13	44	-16416	-1936	-136	-4	114	19	126	124	8
-7904	-2280	13800	4	29	-3	-16064	840	-2624	4	30	57	-15824	-80	-3512	-16	32	60	-8560	496	14720	107	-2	-173	-16424	-816	-1768	-16	24	41	-16160	-1776	-312	-5	116	30	126	124	8
-7972	-2272	13696	0	30	-4	-16120	800	-2456	-25	28	54	-15976	-128	-3840	-35	39	63	-8384	536	14720	59	-13	-184	-16568	-800	-1608	-29	30	47	-16216	-1704	-544	-9	116	32	126	124	8
-7928	-2220	13796	1	28	-3	-16232	760	-2512	-8	23	59	-16024	160	-4088	-6	32	70	-8240	552	14512	78	-1	-177	-16408	-896	-1936	-47	37	49	-16088	-1648	-568	-29	108	21	127	124	8
-7940	-2176	13752	0	34	-2	-16080	880	-2688	31	19	58	-15888	384	-3808	28	27	85	-8488	496	14504	33	0	-178	-16360	-904	-2048	-38	52	50	-16096	-1488	-720	-51	94	13	127	124	8
-7992	-2156	13820	-3	35	0	-16120	1184	-2576	-3	20	63	-15800	608	-3736	31	31	97	-8504	568	14592	71	37	-174	-16384	-888	-2128	-24	61	54	-16152	-1800	-960	-50	104	7	127	124	8
-8044	-2228	13736	-3	32	-7	-15888	744	-2528	-45	25	62	-15704	600	-3560	28	27	92	-8368	488	14384	44	-43	-167	-16448	-608	-2064	-39	54	53	-16224	-1784	-880	-45	116	4	127	125	8
-7976	-2260	13676	-2	28	-8	-15760	992	-2584	-49	25	65	-15600	520	-3648	1	16	84	-8464	664	14728	42	-17	-228	-16536	-720	-2152	-57	55	60	-16248	-1728	-1008	-69	126	10	127	125	8
-7988	-2128	13736	-1	20	-11	-15848	848	-2488	-58	30	69	-15688	448	-3608	-28	3	82	-8352	472	14384	65	-35	-221	-16480	-952	-2016	-59	53	57	-16168	-1872	-976	-87	134	14	127	125	8
-8000	-2208	13796	0	16	-13	-16024	712	-2520	-9	27	72	-15688	584	-3424	-31	16	66	-8520	376	14624	82	-35	-208	-16424	-816	-2192	-53	58	60	-15888	-2128	-1584	-84	113	7	127	125	8
-8028	-2176	13736	0	17	-9	-16064	952	-2728	1	21	70	-15856	696	-3904	-56	15	66	-8416	568	14552	84	-34	-171	-16416	-960	-2288	-57	59	66	-16032	-1992	-1312	-70	98	-3	128	125	8
-7948	-2240	13588	2	15	-9	-16072	1056	-2664	-42	19	77	-15816	760	-3648	-59	19	65	-8520	512	14568	67	-33	-136	-16392	-688	-2296	-69	47	70	-16072	-1880	-1240	-71	103	13	128	125	8
-7956	-2152	13728	1	19	-6	-15920	1208	-2488	-74	11	68	-15808	696	-4144	-120	14	58	-8408	408	14480	97	-53	-114	-16464	-608	-2256	-63	55	66	-15936	-2024	-1320	-69	116	31	128	126	8
-8056	-2124	13808	2	20	-7	-16104	1192	-2632	-94	11	71	-15824	672	-3720	-138	2	66	-8464	672	14592	110	-52	-164	-16696	-608	-2112	-69	39	74	-16208	-2216	-1376	-45	132	38	128	126	8
-7908	-2172	13676	-3	17	-15	-16128	1080	-2584	-73	5	78	-15680	392	-3912	-104	4	52	-8424	496	14664	118	67	-191	-16632	-896	-2448	-59	33	74	-15992	-2232	-1520	-41	140	41	128	125	8
-7916	-2228	13720	-8	23	-14	-16024	848	-2248	-32	-3	72	-15920	408	-3808	-52	7	57	-8320	488	14696	166	7	-128	-16512	-824	-2576	-36	28	82	-16096	-1896	-1544	-42	141	37	127	125	8
-8020	-2184	13840	-7	26	-11	-16072	1216	-2648	-12	-10	77	-15952	392	-3832	-31	0	73	-8360	432	14624	150	22	-140	-16448	-512	-2584	-20	20	78	-15984	-1648	-1896	-55	142	27	127	125	8
-7936	-2116	13640	-4	32	-7	-16008	1232	-2496	-63	-7	80	-15872	288	-3944	-18	-8	89	-8608	432	14528	185	-44	-100	-16520	-576	-2432	-33	18	79	-15936	-1264	-1824	-94	144	25	127	125	8
-7976	-2056	13852	-2	32	-1	-15944	1336	-2720	-108	-2	78	-15736	424	-3696	-45	-7	101	-8592	560	14568	142	-35	-106	-16520	-528	-2368	-40	13	77	-16096	-1608	-1760	-133	133	25	127	125	8
-7964	-2136	13668	-4	30	-6	-15968	1152	-2480	-104	-6	74	-15776	824	-3544	-68	-6	108	-8448	496	14600	119	18	-117	-16584	-568	-2272	-49	9	83	-16080	-1752	-1600	-136	129	17	127	125	8
-8016	-2044	13712	-3	28	-4	-15920	1208	-2832	-90	-7	80	-15904	872	-3792	-95	-3	96	-8352	512	14592	133	-49	-135	-16344	-608	-2496	-59	10	82	-16128	-1896	-1664	-132	112	14	127	125	8
-8100	-2132	13700	1	22	-9	-15784	1208	-2488	-84	-6	85	-15552	904	-3640	-95	-11	82	-8408	560	14576	116	-103	-151	-16464	-552	-2136	-47	10	86	-15904	-1904	-1752	-112	105	12	127	125	8
-8024	-2100	13716	-5	15	-9	-15832	1280	-2672	-59	-6	86	-15696	944	-3752	-100	-20	76	-8520	464	14608	131	-111	-141	-16184	-520	-2184	-57	17	91	-16000	-1864	-1520	-100	117	30	127	125	8
-7992	-2068	13740	3	12	-11	-16040	1296	-2192	-59	-7	90	-15704	848	-3568	-120	-24	69	-8368	392	14552	147	-58	-138	-16496	-592	-2136	-83	12	91	-16176	-1808	-1608	-95	122	46	127	126	8
-7908	-2112	13840	2	13	-9	-16224	1416	-2552	-72	-15	90	-15976	704	-3880	-135	-20	71	-8544	488	14648	135	-93	-103	-16464	-712	-2288	-76	14	90	-16072	-2000	-1496	-91	120	67	127	125	8
-8084	-2128	13764	-1	25	-5	-16176	1344	-2752	-94	-18	82	-15848	696	-3888	-104	-9	79	-8536	472	14512	176	-50	-125	-16440	-608	-2296	-62	19	90	-16048	-1752	-1760	-78	110	73	127	125	8
-8008	-2164	13744	-7	26	-8	-15968	1360	-2512	-97	-22	88	-15776	504	-4080	-80	-19	92	-8488	576	14560	184	-67	-66	-16488	-536	-2312	-48	20	99	-15904	-1664	-1784	-52	98	70	126	125	8
-8076	-2096	13840	-4	26	-10	-15912	1280	-2320	-84	-21	85	-15680	456	-3632	-78	-25	104	-8376	600	14600	165	-19	-126	-16464	-384	-2120	-44	17	102	-16144	-1520	-1728	-35	95	66	126	125	8
-8052	-2144	13796	-5	20	-11	-16008	1416	-2504	-72	-20	90	-15752	664	-3576	-55	-27	101	-8424	640	14728	161	5	-116	-16576	-336	-2208	-54	20	102	-16352	-1392	-2056	-35	100	65	126	125	8
-8000	-2108	13624	-5	21	-13	-16048	1496	-2448	-62	-20	93	-15840	848	-3416	-18	-29	103	-8512	536	14496	163	22	-113	-16480	-264	-2280	-56	16	99	-16048	-1528	-1952	-29	101	60	126	125	8
-7976	-2120	13648	-3	20	-9	-16048	1600	-2224	-35	-10	96	-15904	904	-3688	-14	-31	106	-8544	480	14392	168	70	-121	-16352	-352	-2432	-47	15	95	-15992	-1584	-1976	-25	88	59	126	125	8
-7988	-2116	13752	-3	23	-5	-16000	1776	-2360	-41	-14	94	-15584	1072	-3832	-10	-41	108	-8408	600	14600	204	-33	-91	-16264	-264	-2656	-30	24	100	-15744	-1432	-2120	-16	77	60	126	125	8
-8028	-2120	13732	-1	24	-7	-15936	1664	-2704	-59	-13	99	-15800	1168	-3712	-27	-38	112	-8384	512	14632	152	-66	-80	-16344	-192	-2520	-29	17	103	-15800	-1520	-1984	-17	81	66	126	125	8
-8096	-2096	13716	0	28	-6	-15952	1712	-2272	-70	-20	88	-15928	1288	-3840	-58	-38	108	-8480	568	14624	190	-91	-109	-16456	-216	-2432	-54	10	104	-16008	-1560	-2232	-17	86	72	126	125	8
-8076	-2068	13764	-7	23	-7	-15904	1816	-2728	-66	-22	87	-15640	1304	-3528	-78	-32	97	-8440	632	14576	160	-70	-111	-16528	-280	-2384	-60	8	98	-16072	-1664	-2336	-30	94	75	126	125	8
-8084	-2028	13716	-7	20	-10	-15760	1792	-2600	-94	-16	91	-15696	1280	-3696	-106	-42	94	-8384	592	14472	197	-30	-61	-16552	-80	-2568	-37	2	99	-16112	-1464	-2120	-20	94	71	126	125	8
-8060	-2000	13656	-4	16	-14	-15888	1728	-2408	-93	-15	82	-15768	1504	-3632	-129	-38	80	-8320	496	14552	207	-13	-60	-16552	-32	-2704	-39	-10	105	-16072	-1376	-2320	-27	113	72	126	125	8
-8076	-2144	13800	-2	22	-4	-16128	1920	-2456	-93	-18	88	-15760	1368	-3744	-130	-38	78	-8344	544	14696	217	32	-79	-16456	-48	-2584	-52	-7	104	-16192	-1160	-2160	-45	108	65	126	125	8
-8072	-2040	13736	-4	20	-8	-16040	1864	-2784	-95	-19	81	-15720	1240	-3920	-107	-40	75	-8408	616	14728	226	45	-69	-16440	-136	-2416	-32	-6	104	-16048	-1232	-2216	-53	89	56	126	125	8
-8016	-2092	13672	-6	26	-11	-16008	1960	-2320	-106	-20	86	-15824	1168	-3648	-97	-39	86	-8408	544	14640	205	80	-80	-16536	24	-2520	-26	2	101	-16192	-1144	-1864	-50	82	59	127	127	8
-7996	-2060	13640	-5	25	-9	-16080	1864	-2328	-94	-19	81	-15696	1112	-3504	-100	-36	96	-8520	536	14680	198	71	-67	-16440	0	-2248	-25	-4	99	-16064	-1240	-1872	-34	78	61	127	127	8
-8044	-2100	13580	-6	22	-11	-15904	2032	-2408	-89	-19	84	-15736	1240	-3408	-91	-35	99	-8472	312	14624	161	34	-95	-16400	160	-2448	-32	6	103	-15752	-1192	-2168	-12	69	72	127	127	8
-8064	-2048	13700	-6	23	-5	-15960	1960	-2496	-72	-24	74	-15736	1440	-3728	-95	-29	102	-8392	664	14520	192	-24	-98	-16496	-72	-2368	-39	6	100	-15984	-1288	-2288	15	62	67	127	127	8
-8080	-2036	13796	-9	27	-10	-16192	2192	-2576	-60	-25	77	-15840	1768	-3640	-83	-24	93	-8400	496	14552	193	31	-161	-16632	320	-2472	-33	6	96	-16112	-1152	-2768	25	88	78	127	127	8
-8044	-2044	13812	-2	29	-12	-16224	2048	-2432	-69	-33	76	-15896	1768	-3464	-57	-18	92	-8560	440	14608	232	117	-182	-16528	40	-2576	-47	-1	94	-16128	-1088	-2584	4	111	82	127	127	8
-8036	-2024	13804	-8	42	-8	-16112	2048	-2344	-78	-35	70	-16072	1488	-3488	-47	-15	95	-8288	488	14608	236	180	-114	-16672	-136	-2464	-34	-11	89	-15976	-1192	-2512	-3	97	62	127	127	8
-8076	-1992	13716	-8	43	-9	-15960	2064	-2128	-98	-27	73	-15976	1200	-3072	-42	-17	91	-8320	568	14672	241	194	-56	-16496	-8	-2592	8	-8	93	-16016	-912	-2344	-6	84	49	126	127	8
-8076	-2028	13804	-10	41	-3	-15760	2048	-2064	-109	-18	65	-15736	1232	-3200	-64	-24	97	-8400	704	14624	258	156	-135	-16528	408	-2272	11	-9	96	-15944	-776	-2328	-4	81	56	126	127	8
-8160	-2000	13724	-11	39	-4	-16000	1968	-2216	-89	-9	77	-15864	1168	-3296	-79	-26	101	-8504	672	14504	223	200	-95	-16360	288	-2472	-8	3	93	-16064	-912	-1896	-17	72	58	126	127	8
-8120	-1964	13724	-7	32	-3	-15936	2088	-2136	-59	-1	78	-15872	1328	-3224	-70	-27	96	-8616	544	14400	200	120	-157	-16496	288	-2248	-5	12	89	-16048	-728	-2128	-20	58	53	126	127	8
-8044	-1976	13600	-2	32	6	-15832	2232	-2520	-46	0	78	-15856	1680	-3080	-68	-30	94	-8496	616	14720	171	58	-148	-16472	368	-2312	-15	18	95	-16024	-888	-2416	-4	60	51	127	127	8
-8068	-2036	13620	0	36	0	-16032	2224	-2352	-29	3	78	-15992	1984	-3432	-99	-31	91	-8416	592	14648	153	79	-155	-16544	264	-2272	-33	20	88	-16008	-976	-2536	1	60	50	127	127	8
-8100	-2000	13564	2	38	2	-16000	2432	-2328	-48	4	72	-15784	2008	-3616	-91	-28	89	-8496	568	14632	191	80	-162	-16440	328	-2616	-34	28	85	-15992	-968	-2576	6	71	56	127	126	8
-8168	-1976	13716	-5	42	0	-15928	2456	-2504	-56	6	70	-15768	2032	-3360	-97	-29	83	-8512	400	14488	197	62	-136	-16424	392	-2624	-19	27	88	-16088	-1064	-2792	-6	65	60	127	126	8
-8132	-1948	13672	-5	35	-7	-15760	2224	-2408	-75	12	71	-15568	1704	-3640	-65	-41	80	-8392	560	14456	199	41	-168	-16328	488	-2664	-35	22	88	-15888	-968	-2640	-16	59	68	127	126	8
-8080	-1976	13656	-8	29	0	-15936	2216	-2184	-67	9	59	-15816	1608	-3560	-54	-51	71	-8448	704	14504	166	-21	-87	-16392	448	-2432	-41	21	84	-15784	-992	-2624	-13	55	68	126	126	8
-8060	-1976	13796	2	30	6	-16120	2168	-2048	-62	17	53	-16128	1608	-3408	-42	-74	76	-8384	680	14840	160	-59	-96	-16600	368	-2472	-32	16	83	-15928	-936	-2512	-6	50	67	127	127	8
-8028	-1936	13636	3	44	8	-16368	2512	-2456	-34	23	53	-16328	1696	-3272	-4	-100	75	-8400	640	14536	151	-16	-125	-16552	368	-2504	-27	19	81	-16024	-1032	-2864	14	55	62	126	127	8
-8112	-1932	13744	-3	55	2	-15992	2488	-2184	-8	30	52	-16032	1936	-3024	6	-120	78	-8472	608	14512	156	73	-159	-16496	496	-2488	-26	13	79	-16008	-856	-2936	12	52	54	126	127	8
-8096	-1868	13648	3	57	0	-15784	2512	-2256	16	52	67	-15864	1720	-2728	1	-127	89	-8544	560	14560	180	34	-99	-16392	520	-2448	-11	7	80	-15888	-816	-2976	4	38	58	126	127	8
-8216	-1972	13680	0	58	-1	-15752	2312	-2496	-17	56	60	-15856	1784	-2880	-10	-143	81	-8584	624	14472	192	58	-118	-16456	336	-2632	-9	11	81	-15856	-912	-3024	-2	27	52	126	126	8
-8264	-1916	13588	4	47	-3	-15696	2128	-2592	-20	70	63	-15576	1944	-3152	-28	-154	67	-8600	728	14424	173	20	-102	-16240	400	-2384	-18	2	79	-15968	-832	-2984	-26	16	46	126	126	8
-8224	-1952	13584	1	37	-3	-15664	2104	-2528	-14	74	76	-15584	1872	-3352	-66	-153	45	-8320	544	14440	170	-7	-79	-16360	584	-2784	-30	-1	78	-15872	-920	-2856	-28	16	50	126	126	8
-8232	-1704	13640	5	21	-6	-15664	2416	-2536	-10	81	68	-15472	2008	-3040	-89	-170	32	-8464	544	14432	152	24	-112	-16392	496	-2584	-38	-4	76	-16040	-904	-3016	-21	17	48	126	125	8
-8232	-1772	13628	1	13	-6	-15680	2448	-2792	-20	81	75	-15552	1960	-3200	-114	-180	25	-8592	504	14312	145	-18	-71	-16360	424	-2320	-31	-3	73	-15960	-616	-2824	-36	16	50	125	125	8
-8204	-1808	13580	2	0	-10	-15776	2304	-2712	-12	74	73	-15592	2024	-3128	-153	-194	27	-8424	768	14416	165	-115	-78	-16456	648	-2504	-42	-3	72	-16024	-648	-2800	-47	12	51	125	124	8
-8256	-1872	13640	-3	-9	-15	-15896	2640	-2680	-15	71	69	-15560	2112	-3376	-152	-191	25	-8440	568	14480	179	-121	-108	-16408	424	-2736	-63	-9	72	-16080	-1064	-2608	-51	7	48	125	124	8
-8152	-1976	13700	2	-12	-15	-15920	2576	-2592	-14	63	67	-15880	1960	-3568	-132	-171	17	-8528	592	14336	160	-89	-74	-16392	400	-2488	-29	-4	71	-15912	-856	-2920	-30	-2	39	125	124	8
-8236	-1856	13632	0	-17	-15	-15896	2672	-2680	-16	55	67	-15736	1904	-3528	-119	-163	18	-8448	640	14664	184	-79	-72	-16472	816	-2408	-20	-13	80	-16112	-560	-2704	-23	15	52	125	124	8
-8180	-1940	13596	-4	-14	-21	-15992	2648	-2600	-23	46	66	-15784	1656	-3416	-113	-167	28	-8352	736	14576	176	-79	-104	-16440	728	-2496	-50	-16	70	-16016	-704	-2856	-30	15	67	125	124	8
-8144	-1852	13676	-6	-24	-28	-15800	2696	-2800	-41	49	56	-15712	1608	-3472	-94	-167	31	-8384	520	14760	122	-90	-67	-16616	496	-2704	-48	-16	69	-16008	-1040	-2800	-9	12	54	125	123	8
-8072	-1912	13740	-9	-18	-19	-16104	2392	-2912	1	28	54	-16024	2000	-3384	-90	-143	37	-8416	600	14608	215	-23	-105	-16536	800	-2528	-18	-15	75	-16048	-728	-2928	-10	11	44	125	123	8
-8160	-1940	13756	-4	-6	-18	-16104	2816	-2992	21	7	53	-15984	2056	-3600	-54	-112	42	-8424	600	14264	168	-10	-85	-16448	976	-2624	-27	-20	77	-16032	-440	-2648	-15	19	59	124	124	8
-8096	-1836	13712	-1	8	-20	-16056	2896	-3192	12	-7	42	-15888	2088	-3432	-20	-84	49	-8384	536	14576	150	-10	-100	-16552	768	-2536	-48	-21	69	-15968	-624	-2944	-14	8	60	125	124	8
-8140	-1880	13788	-8	13	-21	-15984	2880	-3032	-23	-28	39	-15792	2176	-3528	-22	-59	57	-8584	608	14424	219	12	-92	-16488	528	-2752	-17	-22	65	-15968	-632	-2784	13	-6	48	125	124	8
-8204	-1864	13740	-20	15	-27	-15992	3032	-2984	-47	-47	30	-15672	2320	-3432	-27	-40	70	-8456	624	14680	198	26	-80	-16560	744	-2240	0	-20	65	-15904	-552	-2800	15	1	52	125	124	8
-8172	-1852	13704	-18	11	-30	-15760	2688	-3072	-75	-61	24	-15608	2016	-3440	-18	-21	66	-8584	568	14504	197	-37	-51	-16376	784	-2352	-7	-25	65	-15872	-624	-2904	22	-1	55	126	124	8
-8132	-1852	13716	-16	4	-31	-15784	2736	-2936	-74	-76	14	-15632	2120	-3224	-21	-9	55	-8472	736	14528	153	33	-116	-16408	864	-2424	-6	-22	53	-15968	-536	-2872	19	6	54	126	124	8
-8180	-1912	13804	-21	-4	-34	-15920	2616	-2856	-62	-89	15	-15736	2184	-3456	-44	2	49	-8624	568	14512	175	2	-73	-16584	752	-2432	-10	-31	60	-16016	-560	-2760	19	4	48	126	123	8
-8108	-1916	13768	-21	-8	-35	-15880	2928	-2552	-59	-96	10	-15912	2176	-3408	-42	13	47	-8528	744	14496	188	20	-67	-16488	856	-2488	-17	-37	48	-15896	-344	-2888	9	1	37	126	124	8
-8152	-1888	13644	-26	-3	-40	-15808	3016	-2712	-67	-108	9	-15816	2200	-3232	-41	22	47	-8512	592	14552	194	-23	-57	-16368	928	-2376	-7	-32	52	-15984	-480	-2752	1	-1	33	125	124	8
-8164	-1852	13788	-24	-6	-40	-15808	2904	-2784	-92	-116	2	-15848	2152	-2992	-17	42	46	-8512	672	14496	150	-53	-103	-16424	984	-2272	-4	-26	55	-15936	-344	-2824	-10	-6	31	126	124	8
-8072	-1912	13736	-31	-3	-43	-15856	2736	-2496	-94	-120	-2	-15880	2136	-2848	-5	47	45	-8472	592	14552	136	-87	-80	-16512	1008	-2304	-8	-28	49	-16008	-320	-2688	-4	-2	29	126	124	8
-8040	-1880	13684	-28	-5	-43	-15848	2608	-2560	-77	-116	-10	-15904	2096	-2744	-5	53	45	-8592	560	14304	128	-51	-134	-16392	1136	-2248	-18	-29	45	-16064	-464	-2992	-11	-1	27	126	124	8
-8080	-1988	13664	-24	4	-41	-16000	2744	-2256	-51	-119	-12	-16008	2096	-2640	-7	48	41	-8384	552	14608	158	-51	-101	-16528	888	-2320	-26	-29	40	-16016	-360	-2728	-14	-6	26	126	124	8
-8164	-1960	13736	-24	13	-38	-15760	2840	-2200	-56	-105	-10	-15968	1920	-2472	6	42	41	-8464	720	14552	162	-48	-111	-16600	792	-2104	-20	-15	43	-16032	-592	-2816	2	-11	23	126	124	8
-8120	-1916	13760	-25	7	-36	-15888	2896	-1920	-54	-105	-10	-16000	2152	-2528	9	16	41	-8456	768	14616	176	-17	-91	-16488	752	-2240	-10	-28	40	-16032	-560	-2816	11	-17	22	126	124	8
-8128	-1964	13716	-23	8	-35	-15800	2568	-2120	-67	-79	-14	-16064	2104	-2224	-2	-8	35	-8584	728	14472	172	1	-88	-16536	904	-2320	-11	-23	38	-16088	-656	-2592	23	-10	24	126	124	8
-8104	-1968	13720	-19	6	-32	-16120	2640	-2120	-42	-64	-6	-16168	2056	-1952	-1	-22	24	-8504	616	14552	175	21	-101	-16552	912	-2504	-11	-25	32	-16000	-568	-2744	28	-2	40	126	124	8
-8052	-1976	13720	-17	13	-27	-16056	2776	-1728	-11	-54	-8	-16112	2152	-2032	-3	-35	18	-8544	600	14360	162	18	-102	-16472	784	-2528	-6	-29	28	-15992	-504	-2904	30	-9	33	126	124	8
-8068	-1968	13704	-16	17	-24	-15936	2704	-1768	3	-36	-3	-16024	2152	-2264	-5	-37	13	-8512	712	14576	157	-11	-119	-16408	832	-2232	12	-35	29	-15952	-392	-2888	26	-12	20	126	124	8
-8060	-1932	13804	-16	20	-27	-15864	2832	-1880	7	-27	-8	-16000	2112	-2456	-26	-48	22	-8480	608	14600	146	-13	-116	-16488	968	-2352	13	-37	30	-16152	-264	-3072	18	-18	15	126	124	8
-8104	-1988	13812	-12	19	-21	-15928	2648	-2192	3	-18	-8	-15896	2128	-2696	-33	-51	22	-8472	584	14416	126	-71	-105	-16392	912	-2584	-5	-37	25	-15864	-368	-2824	1	-21	18	126	124	8
-8136	-1948	13672	-14	17	-26	-15888	2704	-2256	5	-13	-10	-15880	2080	-2616	-33	-44	21	-8544	728	14608	155	-50	-112	-16400	784	-2232	7	-42	25	-15928	-496	-2816	-1	-19	20	126	124	8
-8004	-2012	13704	-14	18	-20	-15864	2896	-1904	10	-14	-7	-15896	2056	-3008	-26	-34	16	-8440	520	14320	114	-20	-108	-16480	1056	-2256	21	-37	23	-16008	-560	-2480	12	-26	7	126	124	8
-8124	-1868	13704	-10	15	-24	-15944	2816	-2288	26	-15	-9	-16080	2240	-2896	-30	-29	17	-8448	864	14672	120	-82	-109	-16408	1024	-2408	-4	-34	20	-16136	-400	-2632	12	-22	18	126	124	8
-8092	-1932	13728	-15	19	-26	-15864	2928	-2032	1	-16	-12	-15888	2080	-2936	-6	-28	18	-8376	688	14408	128	3	-123	-16480	736	-2440	6	-32	12	-16200	-536	-2560	40	-26	19	126	124	8
-8108	-1908	13800	-16	8	-24	-15816	2728	-2320	-1	-23	-15	-15888	2096	-3184	6	-30	20	-8496	648	14568	147	16	-121	-16528	960	-2368	38	-28	17	-15936	-368	-2528	58	-17	15	126	124	8
-8136	-1908	13704	-14	10	-30	-15960	2776	-2352	3	-24	-15	-15760	1920	-2960	11	-30	17	-8544	624	14552	115	28	-143	-16512	1064	-1984	25	-32	18	-16064	-368	-2360	54	-17	22	126	124	8
-8120	-1952	13736	-17	9	-29	-15768	2856	-2280	10	-25	-16	-15912	1992	-3008	30	-27	15	-8480	648	14536	116	-33	-128	-16416	800	-2336	9	-26	14	-16032	-280	-2528	44	-17	21	126	124	8
-8112	-1960	13744	-15	13	-30	-15992	2752	-2080	23	-36	-25	-16008	2184	-2888	34	-16	18	-8448	744	14432	142	-48	-138	-16488	792	-2208	23	-16	13	-16088	-336	-2504	49	-27	8	126	124	8
-8092	-1956	13780	-20	14	-27	-15936	2872	-2144	11	-39	-27	-15952	2144	-2856	31	-6	20	-8320	792	14520	121	-75	-160	-16552	880	-2192	32	-18	12	-16144	-280	-2496	53	-26	5	126	124	8
-8180	-1952	13664	-17	16	-25	-15848	2856	-2368	10	-42	-20	-15872	1984	-2848	41	5	24	-8504	736	14632	151	-8	-131	-16392	984	-2184	24	-20	8	-16016	-336	-2648	53	-24	4	126	124	8
-8092	-1968	13740	-17	21	-31	-15920	2792	-2192	-17	-44	-31	-15840	2056	-2744	37	12	19	-8544	632	14432	148	1	-153	-16640	840	-2448	19	-14	8	-15968	-408	-2752	57	-25	5	126	124	8
-8176	-1964	13688	-20	16	-30	-16040	2680	-1968	-17	-40	-33	-15904	2040	-2680	31	16	15	-8456	752	14528	141	-51	-138	-16496	912	-2280	29	-18	11	-16040	-552	-2536	66	-26	-5	126	124	8
-8032	-1912	13704	-19	20	-27	-16176	2736	-2096	0	-45	-37	-16072	2056	-2544	29	25	10	-8528	680	14696	137	-39	-116	-16408	752	-2312	47	-24	8	-15952	-520	-2792	77	-27	-4	126	124	8
-8100	-1920	13784	-19	25	-26	-15824	2832	-2288	0	-42	-33	-15968	2096	-2600	31	17	10	-8584	776	14592	121	-38	-136	-16448	920	-2192	49	-24	7	-16104	-440	-2672	78	-26	7	126	123	8
-8040	-1888	13640	-23	23	-26	-15952	2808	-2032	-12	-32	-36	-15800	1992	-2840	31	6	17	-8576	608	14576	131	-28	-114	-16520	912	-1952	50	-20	3	-16080	-424	-2768	88	-28	14	126	123	8
-8060	-2000	13704	-18	22	-21	-15968	2576	-1976	-7	-27	-41	-15984	1928	-2520	14	2	13	-8456	624	14512	132	-94	-164	-16592	968	-2496	51	-22	3	-15928	-408	-2816	97	-32	3	126	124	8
-8120	-2040	13764	-19	25	-20	-16008	2552	-2104	26	-25	-36	-15952	1864	-2704	18	7	11	-8448	720	14576	103	-5	-140	-16512	984	-2128	40	-25	-1	-16200	-312	-2552	83	-29	-2	126	124	8
-8016	-1944	13784	-11	24	-24	-15968	2600	-2032	40	-24	-31	-16048	1904	-2648	47	8	7	-8352	624	14216	100	8	-144	-16408	728	-2232	30	-23	-2	-16120	-536	-2904	73	-31	-3	127	123	8
-8064	-1972	13572	-17	20	-24	-15832	2768	-2216	31	-20	-28	-15840	1912	-3000	56	2	11	-8520	768	14616	121	15	-123	-16488	760	-2224	51	-27	-4	-15912	-608	-2496	68	-35	-13	127	123	8
-8080	-1920	13684	-17	18	-26	-15800	2672	-1792	25	-13	-32	-15768	2016	-2808	43	-9	15	-8400	664	14672	118	1	-127	-16496	928	-1904	47	-25	1	-16120	-392	-2296	47	-26	-7	127	123	8
-8176	-2028	13704	-19	14	-29	-15952	2488	-2000	14	-5	-33	-15744	2072	-2704	42	-17	14	-8480	776	14536	118	-61	-111	-16496	864	-2032	25	-23	-3	-16096	-400	-2504	40	-24	-6	127	123	8
-8044	-1984	13688	-15	8	-30	-15856	2688	-2000	15	1	-36	-15880	1944	-2648	48	-16	1	-8392	728	14480	136	-100	-95	-16568	784	-2024	19	-18	-6	-16072	-168	-2360	28	-29	-10	127	123	8
-8116	-1956	13672	-15	6	-27	-15832	2568	-2056	20	-4	-33	-15928	2032	-2696	42	-17	3	-8368	744	14496	101	-65	-198	-16504	800	-2144	18	-14	-2	-16048	-192	-2504	18	-26	-18	126	123	8
-8076	-1984	13624	-11	5	-24	-15896	2696	-2048	19	4	-33	-15880	2032	-2840	28	-16	-6	-8464	688	14480	97	-73	-149	-16488	1024	-2136	-2	-14	-14	-16064	-240	-2328	5	-25	-18	126	123	8
-8100	-1996	13612	-14	9	-27	-15936	2776	-2096	14	5	-35	-15880	2208	-2848	6	-20	-12	-8464	656	14576	51	-40	-157	-16392	720	-2288	-11	-7	-13	-15888	-432	-2328	-1	-30	-23	127	123	8
-8056	-2020	13716	-15	11	-27	-16024	2592	-2016	16	3	-35	-15880	2088	-2792	-20	-19	-16	-8488	800	14592	102	-79	-138	-16520	792	-2160	0	-1	-10	-15976	-536	-2288	-5	-35	-28	127	123	8
-8096	-2020	13756	-18	11	-27	-16048	2624	-2144	17	-6	-44	-15952	2120	-2912	-25	-11	-22	-8344	640	14432	96	-102	-115	-16536	832	-2080	-6	-5	-15	-16112	-392	-2448	-7	-34	-25	126	123	8
-8100	-1952	13760	-18	12	-32	-15840	2712	-2072	-10	-3	-46	-15784	2072	-3080	-21	-12	-22	-8456	672	14352	79	-98	-165	-16376	752	-2176	-12	-5	-16	-15960	-552	-2584	4	-34	-27	126	123	8
-8108	-2004	13720	-18	6	-29	-15728	2424	-2208	-10	-12	-51	-15792	1960	-2872	-32	-22	-28	-8448	776	14528	54	-76	-184	-16616	640	-2192	12	4	-18	-16096	-576	-2376	18	-37	-32	126	123	8
-8144	-2004	13572	-20	0	-28	-15936	2560	-2200	1	-8	-47	-15920	1904	-2864	-29	-23	-36	-8712	632	14680	47	-93	-161	-16448	840	-2152	21	0	-12	-16104	-424	-2272	15	-28	-23	126	123	8
-8136	-2056	13800	-19	4	-31	-15984	2600	-2016	10	-6	-47	-15960	1872	-2848	-17	-28	-43	-8368	760	14240	79	-99	-166	-16552	696	-2104	-11	-1	-19	-16120	-504	-2344	-1	-26	-20	126	123	8
-8044	-2044	13712	-18	3	-31	-15816	2568	-2296	15	-7	-48	-15720	1920	-2752	-6	-23	-40	-8488	584	14512	81	-99	-116	-16576	736	-2248	-21	-3	-22	-16160	-472	-2680	-17	-40	-34	126	123	8
-8072	-2016	13752	-17	4	-34	-16032	2576	-2080	10	-10	-52	-15800	1800	-3040	-6	-26	-33	-8512	592	14576	33	-17	-140	-16552	528	-2304	-22	-2	-20	-16120	-472	-2296	-27	-40	-43	126	123	8
-8084	-2056	13724	-23	5	-34	-15920	2552	-2056	13	-19	-55	-15984	1752	-2776	1	-28	-30	-8400	672	14472	69	-82	-111	-16448	720	-2144	-23	-2	-20	-16160	-776	-2456	-41	-52	-41	126	124	8
-8168	-2008	13736	-13	0	-35	-15856	2344	-2144	19	-14	-53	-15856	1680	-2976	4	-18	-29	-8392	752	14544	62	-79	-115	-16520	832	-2096	-27	-1	-24	-16064	-560	-2568	-49	-41	-30	126	124	8
-8092	-2036	13724	-21	8	-32	-15992	2480	-1976	17	-19	-57	-15864	1808	-3008	9	-19	-29	-8360	664	14720	59	-123	-181	-16464	704	-2296	-41	-3	-22	-16152	-656	-2576	-46	-45	-32	126	124	8
-8040	-1996	13748	-12	0	-37	-15944	2368	-1944	14	-18	-53	-15800	1920	-2768	4	-21	-31	-8456	584	14768	67	-145	-159	-16584	576	-2184	-30	-5	-25	-16144	-776	-2592	-42	-53	-36	126	124	8
-8060	-1996	13744	-20	-1	-36	-16080	2456	-1944	23	-20	-51	-16016	1704	-2648	3	-28	-34	-8440	656	14392	60	-110	-138	-16456	736	-2384	-11	-2	-22	-16024	-912	-2384	-35	-55	-31	126	124	8
-8052	-2000	13764	-18	7	-29	-16008	2424	-2096	17	-16	-47	-15944	1832	-2760	13	-32	-30	-8480	496	14584	50	-42	-136	-16512	696	-2392	-26	-14	-17	-16040	-832	-2440	-24	-50	-25	126	124	8
-8000	-2028	13736	-16	4	-34	-15936	2520	-2136	18	-17	-54	-16008	1656	-2616	17	-37	-31	-8328	576	14520	58	-85	-125	-16528	560	-2344	-24	-18	-14	-15952	-800	-2536	-12	-51	-20	126	124	8
-8052	-2072	13592	-17	6	-30	-16080	2408	-2016	24	-13	-55	-15928	1584	-2888	9	-32	-29	-8512	600	14384	106	-95	-110	-16496	632	-2160	0	-13	-16	-15944	-912	-2400	10	-52	-22	126	124	8
-7976	-2008	13748	-12	8	-30	-16064	2376	-2064	28	-15	-51	-15928	1496	-2704	18	-33	-26	-8528	608	14688	103	-96	-96	-16472	656	-2248	17	-16	-19	-15936	-768	-2112	34	-48	-15	126	124	8
-8048	-2060	13716	-18	5	-30	-15912	2368	-2016	38	-17	-51	-15920	1592	-2896	15	-18	-24	-8312	736	14664	82	-141	-130	-16472	712	-2128	18	-14	-12	-16032	-760	-2248	41	-57	-16	126	124	8
-8060	-2080	13724	-17	1	-28	-15880	2448	-1968	36	-17	-49	-15856	1424	-2856	26	-22	-20	-8464	640	14584	79	-158	-145	-16560	472	-2176	31	-15	-12	-16064	-768	-2064	43	-55	-17	126	125	8
-8056	-1996	13700	-17	-3	-34	-15928	2328	-2016	34	-14	-50	-16016	1584	-2720	38	-22	-13	-8544	536	14592	126	-186	-138	-16592	568	-2432	34	-17	-15	-16064	-656	-2016	41	-49	-14	126	124	8
-8012	-2008	13772	-18	1	-34	-16128	2136	-2168	40	-16	-52	-16008	1512	-2696	47	-21	-14	-8520	736	14472	105	-173	-104	-16536	504	-2104	21	-16	-17	-16088	-664	-2008	40	-50	-20	126	124	8
-7960	-2084	13776	-22	3	-35	-16072	2432	-1968	40	-13	-48	-16008	1576	-2904	51	-15	-19	-8336	632	14536	93	-141	-141	-16760	464	-2216	11	-17	-12	-16112	-784	-2320	35	-48	-23	126	124	8
-8024	-2080	13740	-19	8	-26	-15960	2368	-2024	35	-15	-49	-16072	1504	-2984	47	-21	-15	-8312	488	14584	104	-57	-123	-16504	376	-1864	14	-15	-18	-16080	-664	-2320	25	-52	-23	126	124	8
-8004	-2028	13836	-15	8	-31	-16032	2280	-2184	25	-12	-47	-15944	1576	-3048	37	-24	-16	-8480	752	14368	88	-71	-120	-16488	536	-2032	17	-14	-14	-16152	-752	-2152	29	-53	-16	126	125	8
-8016	-2028	13812	-15	5	-29	-16040	2264	-2176	17	-17	-49	-15960	1584	-2640	30	-21	-16	-8480	544	14632	117	-75	-145	-16408	488	-2056	13	-11	-16	-16104	-912	-2040	40	-53	-7	126	125	8
-8052	-2008	13796	-18	4	-30	-15720	2232	-1912	13	-15	-45	-15864	1440	-2824	25	-27	-15	-8384	496	14512	101	-113	-153	-16640	608	-2120	8	-13	-9	-16144	-856	-2288	37	-55	-5	126	125	8
-7992	-2008	13804	-14	7	-31	-15944	2136	-2080	29	-15	-36	-16032	1368	-2848	17	-25	-13	-8440	488	14600	74	-90	-166	-16536	408	-2336	10	-18	-9	-15976	-840	-2216	48	-60	-4	126	125	8
-7988	-2068	13792	-13	6	-33	-16000	2208	-2016	36	-15	-44	-15912	1536	-2904	24	-28	-14	-8424	784	14520	84	-50	-135	-16552	344	-2296	13	-12	-11	-16144	-984	-2288	52	-60	-2	126	125	8
-7944	-2048	13772	-11	10	-29	-16064	2168	-2192	34	-16	-40	-16016	1632	-2680	36	-27	-13	-8504	592	14776	104	-72	-89	-16536	536	-2336	21	-22	-7	-15888	-856	-2104	55	-51	4	126	125	8
-8000	-1980	13820	-22	10	-29	-15920	2312	-2208	27	-13	-37	-15928	1472	-2816	34	-28	-10	-8384	608	14616	132	-82	-107	-16504	608	-2344	17	-27	-2	-16104	-808	-1928	62	-44	4	126	125	8
-8008	-2000	13736	-13	6	-30	-16160	2088	-2328	16	-20	-45	-16056	1464	-2584	26	-17	2	-8464	536	14760	114	-69	-71	-16584	376	-2400	23	-24	-6	-16080	-880	-2304	60	-43	1	126	124	8
-8052	-2028	13724	-16	17	-26	-15976	2384	-2016	23	-22	-44	-15944	1456	-2832	23	-13	-2	-8320	624	14672	97	-93	-114	-16544	352	-2128	32	-32	-11	-16136	-784	-2168	62	-41	1	126	124	8
-7940	-2024	13796	-17	19	-25	-16176	2288	-1880	20	-20	-42	-15904	1504	-2832	38	-1	-5	-8320	784	14776	82	-11	-132	-16616	520	-2224	33	-37	-8	-15936	-712	-2296	64	-35	4	126	125	8
-8048	-2060	13752	-26	18	-26	-16088	2224	-2192	20	-24	-48	-16072	1384	-2808	41	3	3	-8416	648	14568	142	-30	-126	-16632	472	-1992	29	-43	-12	-16152	-752	-2104	60	-38	-6	126	124	8
-7936	-2044	13736	-22	23	-25	-16072	2232	-2184	6	-21	-43	-16120	1544	-2712	35	-7	13	-8440	736	14760	105	53	-129	-16792	464	-2088	32	-38	-9	-16200	-792	-2184	58	-40	-11	126	124	8
-7948	-1996	13740	-18	20	-27	-15976	2224	-2024	17	-24	-47	-15896	1472	-2792	30	-20	-4	-8208	608	14624	112	-6	-122	-16344	288	-2224	22	-47	-12	-16080	-976	-1800	69	-38	-9	126	124	8
-8004	-2140	13792	-14	20	-27	-15832	2176	-1952	8	-17	-41	-15960	1624	-2840	32	-19	3	-8472	568	14824	171	81	-120	-16640	408	-1904	35	-44	-9	-15984	-976	-2096	70	-44	-13	126	124	8
-7964	-2072	13756	-19	22	-23	-16224	2208	-2144	9	-18	-40	-16128	1560	-2712	35	-25	-9	-8400	576	14568	142	11	-103	-16320	392	-2136	47	-40	-7	-15888	-608	-2112	74	-30	-1	126	124	8
-7988	-2068	13804	-20	28	-23	-16064	2208	-2048	9	-25	-46	-15896	1704	-2824	25	-10	-12	-8440	640	14704	152	30	-147	-16608	568	-2040	41	-43	-13	-16304	-768	-1976	80	-27	-2	126	124	8
-7964	-2044	13672	-18	24	-22	-15952	2224	-2144	21	-16	-41	-15848	1360	-2840	43	2	-4	-8328	544	14448	158	-2	-142	-16400	136	-1968	45	-41	-9	-16104	-768	-1992	71	-29	-1	126	124	8
-7980	-2080	13704	-17	27	-23	-16216	1952	-2272	20	-34	-42	-16032	1168	-3048	42	23	6	-8384	600	14592	129	-9	-144	-16656	328	-2152	48	-38	-4	-16304	-912	-1632	61	-23	-17	125	124	8
-8048	-2056	13772	-19	24	-21	-15864	2152	-2112	25	-29	-42	-16072	1152	-2968	41	25	12	-8152	664	14736	136	100	-146	-16464	320	-2096	48	-43	2	-16256	-976	-1664	43	-13	-13	125	124	8
-8048	-2056	13756	-19	27	-26	-15912	1952	-1960	7	-30	-42	-15936	864	-2816	91	40	28	-8512	552	14472	144	75	-137	-16472	288	-2200	26	-34	0	-15928	-872	-1840	22	-15	-7	125	124	8
-8084	-1972	13656	-13	14	-29	-15776	1992	-2056	13	-15	-32	-15720	1040	-2360	103	34	36	-8408	712	14400	118	64	-120	-16480	360	-2024	35	-33	1	-15896	-768	-1608	25	-15	-3	126	124	8
-8020	-2108	13784	-9	7	-30	-15984	1720	-1592	15	-13	-28	-16064	1088	-2232	85	24	50	-8224	760	14488	104	-64	-114	-16368	400	-1872	31	-18	3	-15984	-864	-1416	38	-10	3	125	124	8
-8020	-2104	13748	-4	2	-22	-15912	1992	-1688	33	2	-21	-16048	1288	-2280	91	21	43	-8264	816	14584	124	-45	-108	-16448	392	-1824	19	-16	0	-16232	-800	-1368	50	-5	0	125	124	8
-7908	-2064	13740	-2	0	-17	-16160	1952	-1824	41	9	-14	-16136	1480	-2456	92	25	35	-8312	656	14488	92	-54	-134	-16528	432	-1664	16	-2	7	-16408	-656	-1496	54	3	3	126	124	8
-7988	-2068	13712	-8	2	-21	-16024	1944	-1920	50	23	-12	-16152	1376	-2368	76	11	34	-8336	632	14520	96	-15	-176	-16696	232	-1928	26	9	4	-16128	-664	-1544	72	-4	3	126	124	8
-7964	-2052	13736	-8	10	-16	-16096	1832	-1872	46	29	-10	-16064	1488	-2744	55	4	40	-8392	600	14872	103	16	-194	-16488	200	-2032	36	12	4	-16344	-880	-1600	106	-4	4	126	124	8
-7944	-2112	13736	-7	18	-12	-16168	2088	-2064	51	25	-11	-16096	1576	-2816	30	9	32	-8328	512	14664	104	27	-183	-16520	432	-1832	20	6	7	-16160	-944	-1944	96	8	4	126	124	8
-7952	-2052	13716	-11	23	-15	-16144	2168	-2096	38	26	-10	-16056	1592	-3048	30	12	38	-8464	744	14608	108	45	-151	-16584	464	-2160	0	4	6	-16240	-944	-2048	75	1	13	126	124	8
-8012	-2068	13756	-9	24	-16	-16040	2128	-2056	24	20	-12	-16000	1640	-2960	30	27	30	-8320	664	14544	132	40	-138	-16672	176	-2096	14	4	5	-16152	-880	-2176	61	-9	8	126	124	8
-8060	-2060	13876	-12	28	-10	-16112	2176	-2032	3	25	-22	-15848	1608	-3120	-4	31	28	-8288	488	14696	108	120	-192	-16568	448	-2056	27	5	7	-16040	-912	-2048	81	1	2	126	124	8
-8096	-2024	13804	-13	24	-14	-15928	1936	-2168	1	20	-14	-15832	1512	-3264	16	30	30	-8312	664	14624	135	82	-162	-16576	384	-2344	19	-2	6	-16088	-856	-2360	62	7	5	126	124	8
-8024	-2092	13748	-11	18	-21	-16008	2024	-1944	6	25	-13	-15944	1176	-3160	44	26	25	-8504	568	14504	157	100	-135	-16368	264	-2320	24	-8	6	-16008	-488	-2280	33	9	3	126	124	8
