#Activity	sitting 
#ActivityID	5 
#Date 09-30-13-58
acc_rf_x	acc_rf_y	acc_rf_z	gyro_rf_x	gyro_rf_y	gyro_rf_z	acc_rs_x	acc_rs_y	acc_rs_z	gyro_rs_x	gyro_rs_y	gyro_rs_z	acc_rt_x	acc_rt_y	acc_rt_z	gyro_rt_x	gyro_rt_y	gyro_rt_z	acc_lf_x	acc_lf_y	acc_lf_z	gyro_lf_x	gyro_lf_y	gyro_lf_z	acc_ls_x	acc_ls_y	acc_ls_z	gyro_ls_x	gyro_ls_y	gyro_ls_z	acc_lt_x	acc_lt_y	acc_lt_z	gyro_lt_x	gyro_lt_y	gyro_lt_z	EMG_r	EMG_l	act
-8252	-3320	13300	-114	152	-172	-15724	1720	-5272	28	-14	139	-2760	-5084	15880	37	-129	199	-7556	4528	14384	117	-37	-161	-15808	1440	-3580	12	-64	-31	-2232	-2404	16780	194	-3	46	127	126	5
-8224	-3344	13320	-90	137	-182	-15748	1796	-5160	44	-13	129	-2736	-5104	15740	41	-126	191	-7588	4516	14292	136	-11	-121	-15852	1492	-3604	21	-85	-68	-2164	-2280	16908	245	-40	28	127	126	5
-8232	-3340	13296	-105	146	-179	-15760	1748	-5140	63	-23	162	-2680	-5052	15792	-12	-93	176	-7612	4528	14292	108	-12	-140	-15792	1576	-3488	26	-74	-45	-2208	-2280	16812	215	-15	54	127	126	5
-8308	-3396	13244	-91	156	-144	-15740	1872	-5136	82	-24	157	-2700	-5044	15756	-27	-137	193	-7608	4520	14308	110	-2	-152	-15768	1608	-3492	0	-70	-48	-2124	-2224	16864	182	-27	25	127	126	5
-8248	-3368	13308	-48	122	-175	-15692	1840	-5204	64	-11	187	-2700	-5016	15872	10	-114	175	-7640	4564	14428	137	1	-154	-15832	1584	-3496	11	-61	-11	-2200	-2248	16904	167	5	20	127	126	5
-8308	-3300	13276	-99	154	-160	-15680	1852	-5124	41	7	158	-2764	-5004	15756	35	-160	174	-7628	4520	14416	146	-23	-147	-15852	1556	-3416	10	-76	-38	-2208	-2180	16932	167	-8	20	127	126	5
-8304	-3344	13260	-112	134	-142	-15700	1848	-5148	83	-29	151	-2704	-5012	15892	47	-134	151	-7612	4532	14376	133	21	-138	-15896	1660	-3420	-21	-26	-75	-2188	-2240	16892	191	3	60	127	126	5
-8272	-3336	13400	-69	175	-145	-15664	1812	-5268	92	1	132	-2736	-4952	15912	14	-145	177	-7572	4536	14396	127	-31	-129	-15764	1564	-3372	-21	-12	-47	-2248	-2228	16808	180	-4	61	127	126	5
-8212	-3328	13308	-62	173	-135	-15700	1836	-5168	73	-15	171	-2748	-4976	15868	8	-146	155	-7608	4580	14368	106	-61	-172	-15868	1548	-3512	-22	-2	-58	-2224	-2196	16896	161	-17	39	127	126	5
-8276	-3340	13208	-115	152	-196	-15676	1860	-5236	88	-26	101	-2724	-5000	15832	9	-117	164	-7656	4552	14256	96	-36	-185	-15800	1532	-3632	-5	-45	-78	-2216	-2196	16768	164	-20	29	127	126	5
-8280	-3376	13256	-129	143	-180	-15716	1856	-5240	70	-25	132	-2724	-4988	15824	-53	-149	189	-7628	4488	14320	83	-13	-150	-15820	1560	-3472	-13	-44	-36	-2228	-2232	16888	167	-35	31	127	126	5
-8304	-3308	13288	-94	162	-186	-15700	1836	-5248	105	-65	107	-2764	-5024	15784	-29	-114	189	-7608	4544	14276	87	-30	-147	-15764	1504	-3480	44	-18	-46	-2272	-2196	16832	132	-28	30	127	126	5
-8320	-3308	13332	-116	137	-200	-15728	1816	-5220	48	-10	129	-2724	-5048	15812	-21	-163	175	-7596	4516	14360	95	-48	-150	-15856	1616	-3516	1	12	-40	-2292	-2280	16856	148	-12	43	127	126	5
-8300	-3380	13456	-142	156	-184	-15680	1848	-5176	55	-33	86	-2708	-5000	15872	6	-142	197	-7640	4552	14316	122	-14	-173	-15832	1532	-3448	-33	-21	-100	-2204	-2320	16796	175	-14	35	127	126	5
-8220	-3332	13304	-131	153	-195	-15712	1776	-5088	36	-52	100	-2692	-5072	15756	-18	-136	192	-7668	4508	14336	122	-44	-144	-15872	1516	-3416	1	-1	-71	-2204	-2352	16872	195	-9	36	127	126	5
-8272	-3404	13252	-73	120	-215	-15736	1756	-5176	94	-49	93	-2704	-5056	15816	-20	-115	206	-7560	4576	14312	116	-30	-153	-15868	1512	-3484	-17	-41	-68	-2152	-2276	16824	213	-10	53	127	126	5
-8292	-3404	13292	-123	143	-172	-15668	1768	-5172	69	-43	130	-2656	-5072	15852	1	-126	191	-7552	4512	14320	102	-24	-173	-15820	1552	-3452	-2	-42	-95	-2180	-2284	16776	196	-6	52	127	126	5
-8252	-3304	13232	-105	160	-182	-15764	1696	-5216	56	-15	169	-2680	-5096	15820	27	-141	176	-7560	4580	14220	112	-46	-153	-15796	1540	-3484	-20	-63	-47	-2180	-2304	16768	208	-20	61	127	126	5
-8208	-3336	13308	-86	135	-183	-15784	1764	-5156	85	-12	138	-2632	-5136	15796	43	-125	202	-7624	4576	14372	95	18	-142	-15812	1480	-3484	-5	-35	-12	-2224	-2280	16840	169	-29	20	127	126	5
-8232	-3328	13280	-80	159	-196	-15716	1788	-5168	75	49	184	-2704	-5068	15788	50	-123	191	-7596	4576	14368	136	-43	-147	-15772	1524	-3472	-35	7	7	-2208	-2272	16728	186	1	25	127	126	5
-8288	-3316	13272	-121	151	-149	-15724	1828	-5236	62	-9	175	-2716	-5048	15756	29	-126	189	-7520	4584	14408	109	-51	-157	-15820	1544	-3496	27	-82	-23	-2248	-2296	16812	169	-30	30	127	126	5
-8268	-3368	13228	-83	181	-177	-15772	1820	-5184	78	-24	152	-2756	-4988	15816	40	-132	148	-7592	4572	14464	113	6	-159	-15836	1544	-3464	26	-22	-18	-2224	-2264	16784	212	0	-9	127	126	5
-8240	-3344	13296	-119	146	-162	-15676	1784	-5228	91	18	150	-2684	-5048	15852	8	-138	166	-7572	4560	14360	98	-20	-172	-15788	1620	-3472	0	-57	-34	-2232	-2284	16768	216	13	29	127	126	5
-8232	-3372	13312	-90	163	-164	-15680	1900	-5300	89	-29	145	-2684	-4992	15900	1	-128	190	-7504	4528	14364	117	-7	-161	-15832	1580	-3544	-14	-25	-41	-2248	-2240	16836	214	-22	36	127	126	5
-8232	-3312	13208	-81	134	-181	-15688	1868	-5216	31	-12	159	-2708	-4984	15804	28	-94	168	-7664	4540	14284	99	-1	-161	-15860	1540	-3488	-40	-59	-54	-2196	-2252	16776	197	-1	61	127	126	5
-8264	-3352	13264	-126	129	-166	-15816	1924	-5244	58	-16	121	-2712	-5004	15856	18	-128	188	-7560	4580	14408	115	-5	-174	-15828	1564	-3528	4	-63	-75	-2200	-2192	16836	206	-24	54	127	126	5
-8208	-3376	13300	-126	151	-185	-15640	1876	-5228	26	-30	117	-2740	-5012	15796	47	-144	223	-7616	4604	14380	136	-21	-143	-15848	1616	-3400	24	-71	-26	-2184	-2232	16732	171	-10	39	127	126	5
-8244	-3292	13296	-96	128	-182	-15792	1840	-5192	23	-71	100	-2728	-5076	15848	-11	-146	214	-7684	4560	14304	101	-57	-148	-15808	1600	-3512	18	-62	-60	-2148	-2280	16712	204	9	55	127	126	5
-8304	-3396	13324	-101	144	-186	-15764	1776	-5220	61	-84	93	-2664	-5000	15896	-3	-129	151	-7608	4500	14368	119	-17	-123	-15872	1560	-3420	2	-24	-65	-2164	-2260	16740	173	-12	59	127	126	5
-8216	-3392	13264	-99	152	-197	-15728	1840	-5140	102	-33	132	-2668	-5048	15848	-33	-111	201	-7624	4584	14220	137	7	-170	-15812	1512	-3412	-6	-27	-50	-2180	-2312	16784	173	-26	63	127	126	5
-8280	-3400	13252	-92	150	-186	-15772	1812	-5232	79	-39	124	-2648	-5020	15800	-10	-123	151	-7616	4484	14372	111	-5	-138	-15860	1468	-3388	-19	-44	-35	-2160	-2300	16816	151	-27	61	127	126	5
-8240	-3364	13272	-87	167	-143	-15772	1848	-5124	42	-15	135	-2708	-5052	15852	-22	-127	185	-7564	4468	14356	111	-70	-146	-15836	1476	-3420	-14	-33	-56	-2156	-2316	16832	161	-34	30	127	126	5
-8284	-3316	13212	-112	178	-184	-15756	1728	-5144	76	-40	104	-2692	-5100	15816	13	-122	167	-7608	4556	14188	139	-33	-142	-15824	1520	-3516	9	-35	-45	-2212	-2252	16740	155	-44	39	127	126	5
-8256	-3380	13296	-106	123	-203	-15732	1792	-5128	80	7	126	-2692	-5048	15856	3	-114	166	-7580	4564	14320	104	-7	-152	-15764	1484	-3456	27	-22	-40	-2160	-2320	16760	171	-17	38	127	126	5
-8232	-3356	13308	-73	145	-151	-15692	1844	-5236	102	-29	106	-2716	-5060	15848	3	-116	172	-7652	4532	14344	135	-40	-138	-15864	1572	-3356	23	-29	-29	-2232	-2268	16860	181	8	15	127	126	5
-8236	-3392	13344	-71	145	-171	-15760	1812	-5228	59	-16	154	-2772	-5072	15908	8	-135	189	-7632	4540	14344	113	-8	-124	-15880	1604	-3336	-3	-44	-34	-2168	-2332	16744	183	-10	27	127	126	5
-8232	-3320	13220	-70	153	-180	-15712	1792	-5160	44	-42	143	-2740	-5096	15696	-9	-135	148	-7592	4620	14344	128	34	-157	-15780	1552	-3460	-30	-49	-40	-2264	-2336	16752	175	-29	23	127	126	5
-8272	-3360	13252	-112	172	-186	-15668	1780	-5212	70	-39	144	-2736	-5048	15864	15	-125	190	-7600	4560	14308	112	19	-151	-15820	1544	-3624	-27	-26	-98	-2272	-2192	16928	178	-28	49	127	126	5
-8236	-3292	13244	-117	148	-178	-15716	1868	-5252	-3	-47	134	-2756	-5076	15916	55	-143	195	-7620	4560	14416	86	12	-178	-15760	1528	-3520	-24	-33	-33	-2244	-2300	16860	198	-60	54	127	126	5
-8260	-3340	13244	-116	176	-175	-15688	1816	-5200	22	-23	145	-2684	-5004	15744	22	-119	176	-7684	4532	14320	127	-19	-125	-15784	1520	-3512	49	-64	-36	-2160	-2260	16788	179	1	53	127	126	5
-8264	-3368	13184	-102	158	-179	-15668	1768	-5272	77	-50	100	-2728	-5008	15828	-9	-118	183	-7620	4548	14364	92	1	-179	-15840	1536	-3492	21	-33	-74	-2244	-2292	16820	183	-39	53	127	126	5
-8216	-3388	13224	-102	158	-173	-15724	1788	-5248	90	-47	154	-2756	-5008	15792	1	-160	188	-7568	4536	14208	102	1	-139	-15784	1492	-3620	1	-47	-16	-2180	-2268	16816	198	-24	14	127	125	5
-8248	-3316	13352	-99	119	-201	-15708	1808	-5336	73	-30	138	-2712	-5024	15844	-19	-110	167	-7616	4564	14228	134	-10	-160	-15844	1564	-3552	1	-71	-70	-2188	-2212	16720	182	-10	48	127	126	5
-8260	-3348	13272	-112	131	-163	-15752	1832	-5216	57	-28	122	-2736	-5036	15800	-4	-146	171	-7632	4528	14332	115	-32	-142	-15824	1504	-3432	8	-32	-43	-2152	-2316	16880	196	1	57	127	126	5
-8212	-3320	13228	-132	136	-192	-15724	1840	-5164	66	-23	106	-2684	-5068	15756	36	-135	162	-7620	4508	14300	126	-44	-151	-15764	1572	-3444	4	-60	-56	-2112	-2292	16784	204	-14	31	127	126	5
-8240	-3328	13208	-130	166	-178	-15712	1760	-5176	24	-14	123	-2712	-5120	15772	17	-116	160	-7604	4520	14356	117	2	-183	-15868	1624	-3500	-25	-46	-41	-2152	-2240	16684	182	18	40	127	126	5
-8228	-3304	13248	-73	161	-188	-15736	1824	-5176	60	-47	158	-2640	-5112	15836	57	-132	184	-7628	4536	14432	90	22	-149	-15824	1564	-3472	18	-11	-65	-2216	-2268	16784	190	14	44	127	126	5
-8228	-3348	13168	-65	147	-165	-15720	1820	-5256	37	-10	137	-2732	-5096	15816	45	-140	217	-7704	4472	14284	104	21	-124	-15844	1544	-3516	-36	-23	-16	-2200	-2284	16788	204	-53	42	127	126	5
-8212	-3304	13228	-89	167	-162	-15716	1812	-5204	100	-13	131	-2720	-5036	15736	45	-114	182	-7568	4504	14252	110	25	-139	-15756	1524	-3420	0	-21	-15	-2216	-2272	16836	179	21	53	127	126	5
-8236	-3372	13300	-86	125	-166	-15748	1784	-5160	84	-30	141	-2748	-5060	15876	26	-123	145	-7616	4436	14404	115	-13	-157	-15836	1576	-3420	-20	-45	-92	-2196	-2260	16876	209	-13	54	127	126	5
-8248	-3360	13260	-102	159	-166	-15688	1836	-5120	57	-45	163	-2680	-5088	15852	43	-108	170	-7616	4544	14428	105	-72	-147	-15804	1540	-3492	-12	-50	-41	-2204	-2228	16820	194	3	35	127	126	5
-8196	-3368	13188	-76	128	-132	-15760	1804	-5212	73	4	147	-2724	-5076	15804	48	-105	149	-7580	4568	14316	109	-98	-154	-15800	1528	-3448	15	-59	-38	-2160	-2312	16860	223	26	30	127	126	5
-8304	-3352	13284	-115	164	-150	-15768	1804	-5176	99	-56	154	-2716	-5060	15792	37	-141	165	-7616	4544	14308	112	7	-165	-15836	1532	-3512	5	-63	-40	-2108	-2288	16744	205	7	31	127	126	5
-8232	-3312	13324	-114	150	-161	-15732	1824	-5244	98	-14	145	-2616	-4988	15756	40	-95	159	-7644	4584	14380	87	-65	-175	-15792	1472	-3464	-3	-19	-52	-2188	-2276	16716	206	-2	32	127	126	5
-8232	-3368	13292	-101	137	-191	-15716	1796	-5228	106	-24	151	-2624	-5036	15788	30	-106	156	-7552	4528	14360	147	-10	-141	-15820	1540	-3408	9	-42	-21	-2176	-2276	16760	201	-8	17	127	126	5
-8268	-3316	13160	-78	136	-196	-15748	1832	-5188	89	-25	145	-2640	-5052	15780	16	-83	186	-7640	4552	14352	119	-34	-174	-15852	1516	-3440	-14	-25	-22	-2140	-2224	16708	203	2	43	127	126	5
-8248	-3404	13220	-119	154	-199	-15752	1836	-5200	104	9	161	-2728	-5028	15800	-36	-98	156	-7612	4536	14392	111	-59	-143	-15856	1516	-3444	-30	-22	-31	-2172	-2296	16864	196	19	26	127	126	5
-8200	-3356	13260	-58	148	-185	-15676	1768	-5200	93	2	116	-2732	-5028	15768	19	-121	170	-7580	4532	14380	128	-44	-151	-15860	1600	-3512	0	-4	-43	-2180	-2284	16804	188	10	29	127	126	5
-8268	-3380	13232	-102	126	-203	-15684	1788	-5164	94	9	125	-2728	-5028	15764	33	-104	170	-7620	4592	14348	127	-23	-136	-15844	1548	-3452	7	-27	-87	-2212	-2228	16864	187	36	22	127	126	5
-8340	-3336	13264	-67	126	-174	-15744	1756	-5272	83	11	174	-2760	-5068	15864	8	-118	152	-7640	4556	14384	95	-25	-176	-15848	1580	-3348	-12	-2	-93	-2228	-2280	16792	224	-1	39	127	126	5
-8272	-3340	13228	-90	159	-181	-15692	1876	-5248	106	-28	116	-2744	-4976	15876	2	-103	178	-7532	4520	14312	91	24	-172	-15864	1580	-3480	-26	-20	-58	-2252	-2264	16912	195	-52	34	127	126	5
-8308	-3332	13172	-87	149	-196	-15692	1784	-5252	66	13	164	-2808	-5056	15856	20	-118	167	-7636	4560	14452	79	-18	-147	-15880	1580	-3476	35	-26	-75	-2216	-2308	16712	166	-33	37	127	126	5
-8284	-3328	13240	-136	145	-163	-15704	1900	-5236	91	-3	134	-2808	-5000	15772	29	-152	156	-7564	4544	14348	128	-39	-161	-15792	1568	-3480	4	-61	-29	-2192	-2252	16816	158	-62	36	127	126	5
-8292	-3340	13232	-111	148	-173	-15752	1828	-5268	59	-75	148	-2812	-5008	15868	26	-152	201	-7652	4468	14384	98	-36	-132	-15792	1544	-3560	-4	-85	-75	-2320	-2280	16784	153	26	40	127	126	5
-8256	-3308	13188	-103	147	-167	-15704	1852	-5228	51	-37	102	-2828	-5016	15788	-4	-126	169	-7640	4484	14280	110	-6	-135	-15868	1532	-3468	7	-106	-62	-2280	-2264	16848	183	-24	35	127	126	5
-8272	-3308	13220	-110	159	-179	-15616	1868	-5328	71	-68	103	-2832	-5024	15720	-24	-163	159	-7632	4632	14352	111	-19	-141	-15848	1592	-3512	31	-50	-94	-2248	-2212	16740	188	7	39	127	126	5
-8240	-3260	13172	-127	121	-178	-15704	1824	-5212	33	-142	109	-2784	-5056	15720	0	-179	214	-7572	4568	14324	137	-29	-155	-15760	1636	-3616	-70	-83	-109	-2148	-2240	16784	235	-5	58	127	126	5
-8252	-3360	13272	-123	146	-220	-15796	1820	-5124	-35	-77	85	-2572	-4972	15784	5	-184	231	-7616	4504	14372	136	-50	-153	-15776	1516	-3540	-113	-108	-122	-2088	-2248	16728	177	47	102	127	126	5
-8232	-3380	13288	-87	122	-191	-15808	1764	-4944	25	-80	109	-2584	-5020	15764	30	-134	182	-7612	4560	14316	120	-9	-156	-15812	1432	-3516	10	-69	-152	-2080	-2268	16724	98	-8	65	127	126	5
-8268	-3248	13288	-104	144	-168	-15676	1704	-5100	173	-40	122	-2528	-4968	15736	18	-132	154	-7616	4524	14392	97	5	-160	-15852	1468	-3368	106	-45	-70	-2076	-2228	16908	28	41	24	127	126	5
-8236	-3400	13300	-116	142	-140	-15700	1772	-5120	123	-41	139	-2624	-5040	15912	-26	-112	133	-7680	4516	14316	123	-42	-119	-15804	1516	-3392	99	-41	-53	-2100	-2172	16852	127	-25	-60	127	126	5
-8268	-3336	13248	-111	185	-166	-15732	1772	-5068	155	17	115	-2608	-5048	15792	-101	-73	129	-7576	4568	14416	85	33	-152	-15856	1620	-3344	51	-23	-66	-2156	-2232	16848	118	-33	-35	127	126	5
-8292	-3304	13264	-72	193	-180	-15756	1856	-5120	129	-18	99	-2668	-4996	15828	-109	-123	123	-7608	4536	14300	83	4	-145	-15812	1604	-3428	-21	-2	-93	-2144	-2260	16776	66	10	22	127	126	5
-8196	-3252	13228	-126	144	-140	-15712	1868	-5200	133	11	121	-2776	-5060	15856	-10	-73	135	-7608	4492	14376	61	-79	-153	-15888	1576	-3516	-86	28	-90	-2180	-2360	16784	48	15	47	127	126	5
-8220	-3300	13360	-120	171	-171	-15768	1888	-5208	101	14	100	-2780	-5144	15824	43	-105	201	-7596	4520	14184	114	-39	-151	-15884	1496	-3468	12	45	-77	-2196	-2352	16812	166	24	65	127	126	5
-8204	-3312	13172	-92	172	-183	-15652	1808	-5236	76	33	90	-2688	-5104	15760	61	-146	223	-7568	4528	14336	91	-33	-165	-15772	1452	-3496	-12	78	-104	-2208	-2400	16816	279	29	68	127	126	5
-8252	-3348	13284	-114	165	-203	-15648	1752	-5188	43	15	119	-2592	-5056	15832	39	-128	219	-7612	4532	14392	80	-10	-166	-15760	1520	-3576	-66	55	-63	-2116	-2444	16664	257	-3	80	127	126	5
-8284	-3380	13208	-84	171	-169	-15676	1748	-5264	34	4	121	-2692	-5088	15728	32	-105	209	-7576	4492	14372	60	16	-169	-15872	1472	-3576	-17	21	-56	-2260	-2440	16840	222	0	53	127	126	5
-8276	-3380	13248	-119	164	-163	-15844	1772	-5204	43	15	150	-2764	-5168	15816	17	-122	208	-7688	4500	14356	72	6	-132	-15816	1472	-3556	-20	-38	-51	-2252	-2424	16656	207	-7	60	127	126	5
-8244	-3396	13172	-64	179	-176	-15752	1740	-5220	63	5	145	-2764	-5180	15836	12	-96	169	-7640	4496	14252	80	22	-119	-15740	1488	-3648	-14	-63	0	-2340	-2396	16708	180	-21	10	127	126	5
-8232	-3388	13312	-102	149	-177	-15748	1652	-5232	106	-17	178	-2744	-5136	15812	13	-92	171	-7576	4488	14316	121	0	-152	-15772	1416	-3536	52	-61	9	-2196	-2440	16780	217	-21	4	127	126	5
-8296	-3368	13380	-45	166	-159	-15676	1720	-5308	142	-68	152	-2676	-5096	15740	34	-94	161	-7644	4476	14356	171	-18	-140	-15844	1564	-3564	42	-126	1	-2216	-2336	16796	235	3	14	127	126	5
-8224	-3324	13300	-79	137	-163	-15660	1712	-5216	82	-29	176	-2660	-5100	15764	17	-62	188	-7640	4520	14244	154	20	-170	-15776	1504	-3440	53	-106	13	-2148	-2348	16728	252	-9	33	127	126	5
-8252	-3356	13220	-83	134	-172	-15728	1800	-5212	63	-9	211	-2660	-5072	15884	81	-136	165	-7636	4468	14324	148	-4	-132	-15944	1548	-3368	75	-58	-2	-2104	-2268	16740	284	7	-5	127	126	5
-8260	-3360	13192	-92	117	-179	-15768	1784	-5072	96	23	202	-2640	-4988	15768	76	-122	174	-7628	4508	14324	140	-38	-131	-15832	1556	-3308	-35	-42	9	-2084	-2256	16768	229	-36	-27	127	126	5
-8276	-3364	13248	-88	172	-188	-15744	1812	-5176	128	8	167	-2688	-5028	15752	25	-76	186	-7604	4492	14360	119	-12	-153	-15852	1580	-3348	-48	-37	18	-2096	-2160	16832	181	-22	-3	127	126	5
-8312	-3372	13280	-68	187	-172	-15692	1800	-5152	124	16	225	-2672	-4976	15844	6	-72	164	-7636	4596	14248	111	31	-152	-15880	1620	-3528	-5	-1	-4	-2192	-2196	16896	172	2	11	127	126	5
-8304	-3320	13216	-60	166	-203	-15664	1804	-5216	108	13	194	-2816	-4976	15812	16	-82	172	-7612	4568	14276	119	-29	-113	-15860	1616	-3388	36	33	-13	-2236	-2212	16816	179	1	28	127	126	5
-8216	-3276	13148	-95	155	-182	-15772	1820	-5336	55	-18	167	-2848	-5020	15788	39	-120	213	-7668	4552	14356	93	-47	-164	-15788	1692	-3452	-7	-5	-86	-2348	-2152	16888	238	-23	67	127	126	5
-8264	-3344	13240	-102	170	-191	-15676	1816	-5324	0	-48	139	-2868	-5044	15772	62	-129	193	-7656	4564	14308	57	-18	-160	-15872	1640	-3632	-57	-13	-113	-2352	-2264	16772	229	8	81	127	126	5
-8272	-3316	13356	-132	115	-199	-15584	1812	-5308	-25	-101	132	-2720	-4912	15824	83	-169	226	-7648	4492	14336	111	-36	-143	-15756	1516	-3584	-71	-48	-86	-2204	-2248	16780	285	-15	118	127	126	5
-8320	-3300	13312	-97	107	-192	-15688	1820	-5180	3	-105	115	-2712	-4904	15876	4	-159	199	-7588	4556	14344	95	-18	-146	-15712	1460	-3528	-26	-97	-89	-2152	-2360	16760	253	1	104	127	126	5
-8176	-3336	13336	-141	142	-199	-15880	1824	-5036	52	-59	155	-2780	-4984	15956	-47	-130	191	-7572	4464	14388	133	-23	-168	-15952	1328	-3348	3	-76	-64	-2140	-2308	16644	178	-87	30	127	126	5
-8268	-3372	13296	-153	145	-189	-15772	1896	-5208	65	-59	93	-2548	-5016	15852	-39	-164	166	-7528	4532	14308	152	-53	-152	-15752	1512	-3548	47	-98	-38	-2064	-2220	16792	138	20	-12	127	126	5
-8272	-3424	13284	-110	152	-156	-15792	1760	-5120	120	-57	80	-2660	-5044	15872	-70	-114	187	-7576	4572	14344	140	-25	-163	-15776	1564	-3488	48	-37	-22	-2120	-2144	16864	194	-17	-25	127	126	5
-8228	-3352	13204	-134	180	-178	-15784	1728	-5128	109	-11	115	-2608	-5108	15800	-90	-109	189	-7552	4592	14336	136	14	-140	-15788	1648	-3384	-3	-14	-58	-2136	-2236	16812	182	-5	-8	127	126	5
-8280	-3360	13248	-124	186	-169	-15700	1704	-5116	88	37	117	-2716	-5136	15748	-26	-124	146	-7600	4508	14364	98	19	-152	-15812	1588	-3456	5	-3	-65	-2256	-2240	16908	210	33	12	127	126	5
-8240	-3320	13232	-107	115	-164	-15740	1796	-5228	107	15	131	-2744	-5108	15792	41	-107	152	-7660	4544	14336	79	-19	-163	-15880	1580	-3424	15	-22	-56	-2188	-2236	16796	181	44	57	127	126	5
-8288	-3296	13220	-104	160	-157	-15672	1784	-5324	97	-32	155	-2780	-5052	15736	34	-105	152	-7552	4516	14416	124	-23	-132	-15776	1608	-3536	3	-42	-72	-2160	-2264	16760	101	-1	65	127	126	5
-8256	-3384	13288	-48	125	-155	-15724	1732	-5236	57	-16	114	-2708	-5024	15876	14	-139	182	-7656	4512	14344	102	-1	-142	-15800	1536	-3572	-29	-30	-120	-2252	-2272	16732	118	-1	72	127	126	5
-8204	-3352	13180	-112	154	-168	-15736	1872	-5264	27	-53	159	-2708	-5044	15800	20	-145	162	-7528	4476	14280	114	-12	-132	-15848	1476	-3548	-32	-35	-115	-2264	-2404	16728	212	-32	97	127	126	5
-8324	-3304	13292	-102	158	-175	-15700	1824	-5200	16	-38	107	-2752	-4956	15808	-14	-127	210	-7608	4500	14380	126	-12	-158	-15828	1428	-3504	-53	-81	-86	-2260	-2348	16748	216	-19	86	127	126	5
-8216	-3356	13320	-126	172	-188	-15736	1872	-5280	86	-51	107	-2808	-5016	15880	-22	-165	178	-7576	4596	14376	97	-32	-147	-15816	1384	-3456	4	-49	-68	-2164	-2412	16704	176	-37	39	127	126	5
-8288	-3364	13292	-82	159	-171	-15704	1804	-5264	47	-26	110	-2736	-5056	15860	9	-111	164	-7612	4496	14388	134	26	-116	-15820	1472	-3516	-1	-51	-53	-2172	-2260	16748	213	-24	40	127	126	5
-8280	-3384	13212	-118	133	-165	-15740	1768	-5192	45	-58	107	-2652	-5080	15808	-1	-139	167	-7572	4516	14248	93	26	-140	-15876	1596	-3368	-16	-77	-62	-2152	-2324	16896	199	-7	60	127	126	5
-8224	-3332	13316	-121	147	-153	-15724	1764	-5068	76	-51	102	-2672	-5088	15844	12	-137	183	-7656	4520	14292	117	-33	-150	-15816	1516	-3568	-10	-56	-84	-2132	-2288	16820	231	9	51	127	126	5
-8240	-3336	13248	-86	119	-176	-15676	1784	-5200	87	-54	147	-2700	-5076	15756	-29	-111	157	-7624	4464	14324	130	-76	-130	-15812	1656	-3380	35	-24	-88	-2128	-2184	16792	168	-7	29	127	126	5
-8228	-3352	13268	-123	118	-182	-15732	1740	-5188	110	-45	126	-2740	-5148	15768	55	-114	171	-7572	4536	14352	116	35	-166	-15860	1520	-3480	36	-32	-49	-2204	-2180	16868	116	-5	29	127	126	5
-8232	-3368	13216	-92	136	-168	-15744	1816	-5240	79	-10	147	-2672	-5084	15880	59	-121	188	-7640	4544	14288	127	-72	-131	-15860	1584	-3496	12	-7	-61	-2184	-2256	16704	151	-45	39	127	126	5
-8292	-3348	13384	-104	140	-165	-15696	1868	-5232	52	-39	137	-2668	-5012	15868	49	-129	155	-7604	4564	14380	81	-74	-206	-15824	1600	-3556	-2	-10	-99	-2236	-2252	16856	167	4	71	127	126	5
-8212	-3356	13392	-119	145	-182	-15656	1744	-5136	84	-38	138	-2648	-5012	15796	-5	-130	176	-7608	4544	14356	139	-14	-170	-15820	1512	-3504	-84	-21	-61	-2204	-2380	16888	215	8	78	127	126	5
-8208	-3340	13232	-106	134	-157	-15660	1856	-5160	78	-35	134	-2656	-5004	15888	18	-121	221	-7624	4516	14396	91	-29	-169	-15772	1420	-3480	-63	-15	-47	-2168	-2336	16800	280	52	93	127	126	5
-8180	-3364	13304	-102	188	-165	-15748	1760	-5168	77	-61	137	-2688	-4980	15852	15	-115	150	-7600	4584	14372	116	-35	-174	-15868	1452	-3412	3	-15	-82	-2164	-2368	16704	252	18	54	127	126	5
-8248	-3380	13224	-102	180	-160	-15732	1776	-5096	53	6	114	-2656	-5080	15852	-33	-126	170	-7656	4504	14256	93	-44	-172	-15728	1444	-3444	-3	-49	-62	-2128	-2308	16808	150	-16	37	127	126	5
-8212	-3276	13196	-85	180	-173	-15732	1720	-5028	65	-14	105	-2616	-5124	15752	-49	-115	182	-7644	4504	14224	96	-24	-153	-15784	1492	-3376	-12	-46	-64	-2132	-2284	16812	117	-15	42	127	126	5
-8272	-3344	13308	-92	130	-175	-15684	1724	-5080	91	20	151	-2636	-5148	15724	-53	-90	172	-7612	4484	14272	122	-21	-131	-15904	1508	-3480	-7	1	-41	-2196	-2316	16792	157	16	8	127	126	5
-8248	-3364	13280	-89	169	-178	-15728	1748	-5184	65	6	124	-2740	-5180	15832	-13	-101	178	-7568	4524	14264	152	-30	-149	-15904	1500	-3320	-68	-18	-20	-2172	-2360	16844	229	19	92	127	126	5
-8288	-3408	13168	-87	152	-162	-15804	1724	-5104	34	54	119	-2760	-5156	15708	40	-69	180	-7600	4468	14360	118	-14	-155	-15808	1468	-3416	-84	-17	33	-2212	-2384	16776	254	16	71	127	126	5
-8204	-3364	13228	-85	148	-142	-15752	1704	-5220	74	41	140	-2732	-5132	15700	91	-95	237	-7600	4508	14396	162	-19	-143	-15832	1448	-3432	-7	1	0	-2236	-2320	16696	268	8	37	127	126	5
-8256	-3356	13324	-50	144	-155	-15748	1712	-5260	80	77	148	-2788	-5084	15812	107	-89	197	-7652	4492	14364	123	5	-130	-15832	1528	-3624	3	-2	-20	-2224	-2292	16716	225	-28	22	127	126	5
-8292	-3376	13240	-61	152	-165	-15652	1736	-5260	61	-16	207	-2704	-5116	15812	76	-140	154	-7624	4544	14428	134	4	-149	-15756	1576	-3548	10	-34	-25	-2228	-2220	16776	199	-14	15	127	126	5
-8216	-3392	13240	-80	137	-147	-15740	1832	-5264	68	1	197	-2912	-5024	15816	80	-85	158	-7636	4568	14268	130	8	-134	-15856	1532	-3528	26	-15	-5	-2308	-2228	16712	176	6	7	127	126	5
-8256	-3340	13260	-60	128	-161	-15636	1752	-5260	66	-29	192	-2712	-5012	15816	69	-91	153	-7664	4584	14424	139	-27	-140	-15780	1580	-3500	-28	-77	-29	-2228	-2220	16788	145	-41	24	127	126	5
-8208	-3356	13232	-80	126	-171	-15704	1880	-5304	49	14	209	-2836	-4960	15936	27	-123	185	-7620	4568	14312	130	-16	-157	-15800	1560	-3444	-68	-55	-10	-2264	-2236	16764	249	9	44	127	126	5
-8244	-3360	13312	-107	142	-175	-15728	1880	-5156	68	-55	165	-2688	-4912	15804	9	-116	188	-7640	4532	14348	101	-19	-115	-15828	1568	-3380	-37	-82	-9	-2156	-2260	16864	225	-11	56	127	126	5
-8280	-3288	13288	-106	177	-145	-15684	1860	-5256	73	-28	140	-2692	-5028	15824	-3	-127	210	-7604	4516	14452	122	-30	-136	-15804	1508	-3448	-5	-68	-48	-2224	-2248	16860	245	15	37	127	126	5
-8264	-3328	13268	-73	166	-185	-15676	1776	-5252	97	-37	129	-2764	-5024	15892	5	-126	189	-7564	4512	14304	133	-18	-157	-15880	1560	-3356	74	-75	7	-2160	-2220	16828	233	-44	40	127	126	5
-8232	-3332	13320	-122	134	-200	-15676	1844	-5220	65	-16	115	-2704	-5064	15796	7	-128	181	-7640	4540	14364	107	18	-138	-15808	1628	-3388	-19	-19	-21	-2096	-2188	17008	175	-23	29	127	126	5
-8292	-3412	13268	-99	152	-176	-15724	1860	-5160	39	-75	95	-2676	-5032	15744	-15	-130	200	-7600	4468	14236	95	-6	-146	-15800	1536	-3464	-26	-52	-101	-2112	-2232	16892	182	8	51	127	126	5
-8308	-3344	13232	-118	142	-179	-15748	1792	-5096	72	-17	114	-2680	-5052	15740	-27	-169	156	-7572	4600	14304	79	32	-138	-15856	1616	-3484	-41	-26	-61	-2188	-2208	16768	164	5	32	127	126	5
-8260	-3360	13180	-95	145	-154	-15736	1800	-5140	76	-19	108	-2648	-5092	15888	-43	-107	163	-7616	4548	14380	108	-18	-183	-15804	1500	-3548	-1	-9	-78	-2096	-2292	16784	193	-8	54	127	126	5
-8228	-3396	13232	-110	172	-178	-15804	1780	-5128	109	15	108	-2716	-5132	15752	51	-113	137	-7628	4484	14388	117	-72	-136	-15796	1536	-3388	10	-3	-54	-2204	-2296	16764	214	-37	65	127	126	5
-8244	-3320	13264	-104	136	-143	-15836	1748	-5184	114	-39	159	-2764	-5084	15704	17	-112	182	-7592	4552	14284	101	-44	-156	-15772	1484	-3396	3	-15	-12	-2248	-2308	16860	216	-6	20	127	126	5
-8304	-3332	13296	-108	151	-177	-15764	1768	-5172	57	-32	166	-2684	-5064	15756	-4	-146	153	-7580	4544	14392	97	5	-139	-15836	1524	-3528	-2	-9	-42	-2224	-2388	16856	169	3	7	127	126	5
-8216	-3380	13272	-92	154	-161	-15724	1800	-5228	97	-5	168	-2752	-5056	15820	-14	-107	198	-7656	4496	14352	92	13	-147	-15776	1496	-3580	-3	-34	-71	-2180	-2368	16824	173	-2	-14	127	126	5
-8316	-3360	13392	-116	139	-170	-15676	1788	-5272	127	13	141	-2740	-5072	15760	18	-117	191	-7640	4528	14200	159	-37	-141	-15788	1528	-3420	37	-5	-73	-2228	-2380	16676	173	-2	3	127	126	5
-8272	-3336	13244	-127	153	-145	-15688	1820	-5196	79	-17	168	-2684	-5092	15852	0	-116	158	-7596	4496	14320	100	42	-125	-15840	1544	-3524	20	-42	-17	-2192	-2368	16856	198	-1	13	127	126	5
-8232	-3304	13316	-101	151	-153	-15736	1768	-5228	51	-12	175	-2756	-5036	15748	38	-123	206	-7628	4512	14412	95	-28	-135	-15816	1532	-3380	-9	-42	5	-2224	-2276	16888	235	16	30	127	126	5
-8244	-3380	13228	-145	170	-158	-15756	1784	-5164	60	-24	132	-2784	-5060	15812	68	-102	186	-7628	4564	14396	117	-28	-160	-15836	1592	-3392	-42	-37	-35	-2196	-2316	16824	274	1	66	127	126	5
-8240	-3372	13336	-104	135	-119	-15708	1768	-5308	53	-25	156	-2736	-5124	15772	34	-93	197	-7588	4496	14396	107	2	-140	-15804	1532	-3464	-5	-48	-50	-2220	-2304	16716	228	-24	49	127	126	5
-8244	-3296	13248	-117	136	-182	-15744	1776	-5152	26	-5	141	-2744	-5052	15832	37	-123	174	-7624	4496	14340	125	-3	-153	-15776	1532	-3372	30	-38	-19	-2148	-2260	16692	206	26	44	127	126	5
-8220	-3360	13244	-87	164	-171	-15756	1832	-5192	65	-19	174	-2744	-5056	15800	15	-134	170	-7628	4552	14372	155	14	-138	-15828	1556	-3448	62	-43	-54	-2196	-2216	16848	142	4	43	127	126	5
-8228	-3336	13272	-110	170	-157	-15768	1844	-5064	81	-50	150	-2756	-5040	15792	19	-151	175	-7588	4544	14364	117	19	-160	-15828	1484	-3468	-19	-79	-35	-2152	-2220	16780	141	-39	29	127	126	5
-8320	-3324	13288	-100	147	-159	-15708	1912	-5144	113	-36	178	-2700	-4940	15852	58	-144	170	-7568	4588	14388	121	-6	-118	-15776	1500	-3432	-9	-59	-48	-2132	-2256	16772	165	-8	34	127	126	5
-8268	-3384	13324	-122	145	-154	-15744	1824	-5104	72	-22	193	-2728	-4972	15756	17	-115	169	-7636	4524	14340	146	-33	-183	-15828	1616	-3444	13	-45	-55	-2144	-2268	16824	175	-35	9	127	126	5
-8224	-3344	13192	-91	165	-161	-15744	1908	-5296	70	-3	116	-2700	-5012	15796	-3	-122	168	-7660	4556	14360	109	-61	-158	-15888	1636	-3412	-30	-34	-84	-2180	-2208	16840	169	-5	30	127	126	5
-8308	-3360	13268	-128	152	-200	-15704	1800	-5188	58	-7	146	-2660	-5068	15884	-1	-153	206	-7592	4560	14384	109	-35	-148	-15808	1628	-3436	-14	-41	-41	-2196	-2244	16812	189	19	60	127	126	5
-8204	-3392	13224	-125	153	-217	-15680	1760	-5280	70	-83	141	-2700	-5016	15824	-14	-127	196	-7640	4540	14336	92	4	-161	-15800	1624	-3464	-66	12	-75	-2196	-2280	16688	188	-34	49	127	126	5
-8312	-3336	13368	-145	141	-172	-15696	1752	-5160	58	10	95	-2748	-5136	15804	14	-114	196	-7592	4476	14352	81	35	-146	-15788	1556	-3508	-66	-21	-70	-2196	-2268	16812	206	-18	67	127	126	5
-8252	-3356	13256	-99	143	-160	-15700	1784	-5160	42	-68	132	-2760	-5036	15808	-2	-134	179	-7596	4556	14352	98	-43	-154	-15792	1516	-3448	-24	-28	-33	-2240	-2292	16776	199	-37	60	127	126	5
-8248	-3380	13348	-118	147	-171	-15660	1796	-5092	56	-56	115	-2744	-5108	15828	39	-139	167	-7584	4540	14252	72	-19	-148	-15780	1516	-3544	-11	-11	-67	-2212	-2288	16736	159	21	72	127	126	5
-8256	-3348	13288	-80	164	-165	-15736	1824	-5104	67	-27	130	-2692	-5084	15740	-5	-120	213	-7568	4492	14440	78	-11	-183	-15820	1504	-3528	-16	-12	-93	-2168	-2360	16664	152	8	55	127	126	5
-8256	-3332	13260	-78	142	-197	-15696	1732	-5264	76	-40	114	-2740	-5044	15784	-16	-145	195	-7536	4488	14268	121	-32	-181	-15884	1516	-3508	0	-46	-81	-2168	-2296	16800	190	-9	44	127	126	5
-8244	-3332	13328	-101	154	-151	-15728	1828	-5212	85	-50	127	-2692	-5072	15756	11	-151	153	-7644	4520	14248	130	-32	-145	-15848	1444	-3580	-17	-51	-42	-2220	-2288	16688	211	-4	34	127	126	5
-8172	-3360	13236	-107	168	-167	-15688	1772	-5244	28	-31	147	-2756	-5072	15796	-23	-151	184	-7596	4512	14320	104	7	-141	-15812	1508	-3548	-11	-93	-89	-2244	-2320	16732	210	-20	17	127	126	5
-8188	-3332	13316	-89	145	-146	-15732	1812	-5236	65	-63	170	-2704	-5100	15924	6	-114	193	-7576	4508	14348	110	-58	-147	-15820	1488	-3456	54	-74	-38	-2196	-2304	16816	198	-22	37	127	126	5
-8248	-3316	13268	-38	135	-170	-15692	1772	-5208	54	-60	147	-2672	-5076	15836	6	-129	219	-7588	4536	14308	123	-37	-151	-15772	1516	-3384	-17	-21	-41	-2192	-2332	16856	197	14	53	127	126	5
-8284	-3284	13248	-103	164	-161	-15720	1824	-5088	57	-45	165	-2652	-5092	15780	72	-106	181	-7604	4468	14252	143	-27	-161	-15844	1544	-3552	-15	-71	-39	-2116	-2248	16696	205	-8	4	127	126	5
-8204	-3368	13268	-100	137	-160	-15712	1808	-5136	68	-33	166	-2728	-5096	15780	41	-117	196	-7568	4532	14284	120	-7	-130	-15788	1592	-3484	8	-47	-54	-2180	-2264	16776	225	-23	37	127	126	5
-8192	-3392	13172	-106	151	-187	-15688	1788	-5104	94	-19	152	-2668	-5024	15860	59	-122	206	-7584	4552	14280	116	-63	-177	-15828	1540	-3436	42	-17	-12	-2108	-2308	16784	202	-38	22	127	126	5
-8280	-3380	13208	-120	164	-159	-15696	1820	-5232	90	-2	136	-2712	-4996	15792	30	-77	157	-7624	4520	14340	91	-28	-159	-15772	1572	-3476	33	-42	-48	-2140	-2260	16804	198	-27	38	127	126	5
-8196	-3392	13268	-98	163	-187	-15656	1828	-5064	81	16	141	-2692	-5052	15788	21	-109	181	-7584	4508	14372	111	-21	-136	-15832	1588	-3468	13	-39	-5	-2212	-2240	16840	176	9	29	127	126	5
-8208	-3376	13392	-78	147	-193	-15792	1808	-5344	93	-58	147	-2696	-4984	15836	12	-76	174	-7620	4596	14336	104	-73	-126	-15808	1516	-3516	-55	-33	-59	-2188	-2216	16700	205	20	47	127	126	5
-8224	-3304	13304	-69	159	-178	-15720	1788	-5300	101	-1	137	-2740	-5004	15924	37	-137	185	-7588	4504	14388	115	-45	-150	-15752	1552	-3492	-14	-18	-39	-2232	-2208	16760	211	-1	60	127	126	5
-8260	-3376	13344	-85	148	-189	-15684	1868	-5260	73	15	99	-2800	-4992	15840	6	-111	200	-7652	4516	14328	95	-58	-163	-15852	1588	-3468	-10	-38	-69	-2184	-2240	16844	190	-8	58	127	126	5
-8256	-3372	13164	-78	163	-194	-15676	1784	-5244	67	-22	120	-2776	-4960	15796	26	-131	176	-7684	4564	14372	112	-15	-148	-15724	1504	-3548	-13	-25	-56	-2212	-2312	16836	178	-9	58	127	126	5
-8252	-3344	13316	-86	162	-168	-15664	1784	-5296	86	-17	136	-2700	-5024	15900	-26	-144	206	-7600	4496	14332	114	-32	-174	-15812	1544	-3404	14	-11	-78	-2176	-2356	16820	165	-11	35	127	126	5
-8264	-3264	13260	-114	135	-212	-15740	1784	-5228	57	-35	148	-2752	-5068	15824	33	-141	205	-7572	4576	14392	113	-20	-154	-15784	1552	-3548	35	-22	-35	-2196	-2296	16880	172	3	62	127	126	5
-8272	-3320	13288	-110	126	-176	-15768	1864	-5132	57	-51	94	-2748	-5060	15808	-3	-127	172	-7664	4512	14372	110	-34	-150	-15772	1568	-3436	-72	-26	-65	-2164	-2292	16824	190	-8	7	127	126	5
-8276	-3308	13356	-88	147	-160	-15704	1784	-5228	24	-34	109	-2724	-5164	15916	14	-120	195	-7556	4488	14280	125	17	-157	-15836	1452	-3500	-28	-34	-45	-2188	-2348	16708	218	-20	23	127	126	5
-8268	-3408	13336	-145	144	-182	-15660	1708	-5084	67	-40	135	-2660	-5032	15860	5	-130	171	-7604	4616	14340	99	-27	-171	-15828	1488	-3468	5	-19	-41	-2144	-2284	16924	236	-12	28	127	126	5
-8272	-3336	13228	-123	186	-168	-15748	1756	-5084	110	-35	147	-2656	-5056	15848	-20	-92	200	-7592	4508	14336	144	-18	-175	-15868	1532	-3524	9	-9	-46	-2056	-2244	16788	182	21	31	127	126	5
-8280	-3344	13288	-89	149	-185	-15744	1744	-5148	135	-18	160	-2704	-5144	15880	16	-82	146	-7596	4476	14264	119	-7	-176	-15840	1468	-3384	30	11	-26	-2152	-2296	16800	204	-9	38	127	126	5
-8252	-3376	13124	-62	141	-157	-15732	1688	-5300	114	19	167	-2688	-5060	15812	18	-106	144	-7604	4552	14232	137	-4	-162	-15784	1572	-3512	7	-12	-51	-2156	-2244	16772	198	7	24	127	126	5
-8236	-3292	13208	-90	147	-187	-15728	1788	-5220	103	-20	158	-2664	-5052	15844	6	-92	192	-7588	4520	14276	112	-44	-163	-15816	1532	-3484	-53	1	-35	-2148	-2232	16644	214	-21	26	127	126	5
-8240	-3336	13280	-80	160	-165	-15716	1820	-5296	86	-18	138	-2704	-5076	15808	38	-111	156	-7608	4536	14268	96	7	-150	-15808	1532	-3508	7	10	-13	-2256	-2256	16816	189	6	20	127	126	5
-8240	-3324	13220	-90	142	-179	-15744	1804	-5172	65	12	170	-2780	-5052	15732	52	-83	169	-7636	4572	14240	139	-12	-162	-15832	1504	-3560	15	9	-16	-2244	-2292	16804	222	-13	65	127	126	5
-8284	-3324	13348	-62	176	-179	-15680	1880	-5340	79	-43	150	-2760	-4996	15892	54	-123	179	-7636	4536	14332	154	-29	-116	-15840	1528	-3468	-14	-25	-47	-2256	-2272	16764	239	-32	44	127	126	5
-8240	-3296	13168	-130	135	-167	-15772	1780	-5192	90	-32	181	-2728	-4972	15872	49	-124	196	-7604	4472	14392	119	9	-135	-15772	1524	-3372	-17	-42	-18	-2180	-2304	16852	199	3	55	127	126	5
-8284	-3352	13244	-106	135	-196	-15700	1872	-5276	82	-44	164	-2800	-4984	15920	29	-148	204	-7556	4496	14308	145	18	-183	-15796	1496	-3492	-7	-84	-58	-2256	-2272	16768	194	-23	45	127	126	5
-8212	-3356	13368	-76	144	-197	-15648	1820	-5196	24	-44	142	-2720	-5064	15880	20	-126	207	-7588	4464	14312	141	-57	-130	-15860	1532	-3512	-44	-38	-50	-2244	-2220	16860	201	-30	30	127	126	5
-8248	-3340	13296	-96	125	-181	-15776	1808	-5268	37	-44	116	-2676	-5028	15720	16	-130	182	-7612	4464	14288	121	-27	-174	-15880	1528	-3540	-20	-24	-13	-2232	-2260	16740	204	-17	29	127	126	5
-8296	-3380	13200	-102	141	-186	-15724	1772	-5224	102	-38	124	-2708	-5076	15788	-12	-142	176	-7588	4548	14296	131	-26	-150	-15844	1536	-3404	-21	-63	-86	-2240	-2216	16808	193	-29	20	127	126	5
-8272	-3304	13260	-119	151	-186	-15764	1800	-5132	91	-43	121	-2700	-5072	15888	-23	-107	165	-7596	4552	14336	115	-28	-101	-15848	1624	-3492	-24	-32	-3	-2148	-2240	16864	225	-12	38	127	126	5
-8284	-3348	13300	-102	147	-165	-15744	1808	-5160	75	-34	145	-2676	-5036	15804	32	-115	178	-7564	4524	14296	117	-20	-134	-15784	1528	-3444	-28	-18	-75	-2116	-2276	16756	181	-37	53	127	126	5
-8268	-3388	13284	-108	150	-163	-15748	1832	-5164	82	-4	121	-2672	-5036	15796	32	-123	153	-7616	4500	14392	114	-22	-149	-15836	1548	-3448	38	-18	-21	-2152	-2256	16840	152	4	49	127	126	5
-8244	-3380	13264	-141	162	-168	-15700	1828	-5192	52	-8	105	-2652	-4992	15700	10	-118	149	-7560	4484	14340	110	-4	-158	-15788	1496	-3528	3	-9	-64	-2164	-2300	16772	151	17	17	127	126	5
-8248	-3392	13196	-100	163	-193	-15688	1748	-5256	60	-19	153	-2664	-5052	15764	50	-106	174	-7580	4504	14416	118	31	-161	-15832	1560	-3460	40	-14	-71	-2180	-2236	16740	167	-48	28	127	126	5
-8272	-3296	13232	-149	156	-155	-15648	1740	-5096	91	-26	130	-2736	-5016	15928	45	-98	165	-7568	4536	14276	102	-6	-167	-15820	1524	-3488	7	-6	-34	-2212	-2284	16796	171	-16	25	127	126	5
-8248	-3340	13232	-113	161	-162	-15732	1856	-5152	73	8	128	-2700	-5048	15800	1	-126	154	-7572	4504	14384	119	-52	-166	-15872	1584	-3588	-3	-46	-74	-2232	-2296	16752	191	8	38	127	126	5
-8236	-3388	13180	-84	170	-165	-15692	1804	-5200	83	-23	154	-2764	-5068	15900	6	-124	145	-7648	4484	14244	111	-16	-145	-15868	1564	-3500	-9	-57	-26	-2256	-2256	16688	225	-9	4	127	126	5
-8264	-3340	13260	-73	145	-170	-15708	1748	-5276	63	-13	127	-2688	-5080	15748	24	-114	165	-7576	4496	14336	114	-35	-146	-15844	1516	-3632	0	-49	-74	-2232	-2300	16676	209	-13	16	127	126	5
-8216	-3380	13216	-102	147	-178	-15724	1780	-5160	91	-36	154	-2708	-5012	15872	-1	-117	172	-7620	4584	14396	118	-10	-142	-15796	1560	-3488	4	-49	-36	-2208	-2320	16836	178	-42	22	127	126	5
-8260	-3340	13300	-94	170	-172	-15700	1732	-5220	66	-36	148	-2784	-5080	15708	13	-99	178	-7612	4564	14396	123	19	-166	-15764	1532	-3472	8	-61	-53	-2200	-2256	16832	178	-23	16	127	126	5
-8216	-3336	13300	-90	151	-205	-15708	1784	-5272	88	-37	129	-2748	-5056	15852	24	-135	183	-7580	4528	14280	122	-31	-107	-15828	1516	-3492	21	-17	-51	-2156	-2304	16836	151	-50	23	127	126	5
-8252	-3288	13300	-102	144	-218	-15704	1772	-5180	72	-30	170	-2692	-5112	15948	33	-86	163	-7648	4492	14368	136	-78	-167	-15812	1568	-3416	-43	-66	-41	-2184	-2268	16796	196	-21	46	127	126	5
-8164	-3408	13228	-133	169	-168	-15684	1836	-5096	66	-18	156	-2644	-5080	15924	-11	-135	187	-7576	4504	14292	112	11	-131	-15872	1564	-3484	-45	2	-47	-2184	-2324	16772	217	6	74	127	126	5
-8256	-3340	13144	-116	153	-201	-15776	1840	-5208	64	-9	145	-2696	-5052	15836	3	-126	186	-7600	4596	14364	131	12	-180	-15832	1532	-3444	-27	-27	-21	-2160	-2260	16804	209	18	53	127	126	5
-8292	-3336	13404	-108	145	-179	-15748	1820	-5224	81	-3	121	-2748	-5052	15852	5	-113	184	-7592	4556	14352	123	-47	-160	-15840	1540	-3440	37	-28	-63	-2240	-2284	16816	180	-11	54	127	126	5
-8252	-3384	13336	-127	165	-154	-15784	1684	-5272	101	21	146	-2660	-5080	15908	37	-120	176	-7620	4608	14392	128	-30	-129	-15816	1536	-3432	-3	-30	-34	-2180	-2260	16832	190	-25	24	127	126	5
-8268	-3344	13388	-87	161	-162	-15708	1860	-5248	92	-31	145	-2748	-5036	15748	-1	-115	172	-7576	4520	14404	109	-16	-149	-15752	1560	-3532	-18	-29	-20	-2188	-2200	16728	153	-23	25	127	126	5
-8296	-3272	13268	-88	156	-155	-15684	1784	-5108	47	-35	169	-2672	-5020	15776	46	-113	156	-7620	4504	14424	99	-46	-127	-15812	1488	-3492	4	-13	-48	-2236	-2224	16724	189	11	28	127	126	5
-8252	-3312	13304	-118	129	-172	-15652	1832	-5292	88	-19	147	-2744	-5080	15840	50	-124	180	-7620	4532	14312	92	-17	-158	-15804	1524	-3496	-12	-10	-40	-2240	-2220	16792	229	-48	-2	127	126	5
-8264	-3372	13324	-109	147	-191	-15728	1740	-5180	67	-46	149	-2704	-5032	15852	19	-147	173	-7680	4484	14252	128	9	-159	-15764	1516	-3524	-8	-26	-55	-2252	-2220	16812	181	9	26	127	126	5
-8264	-3348	13212	-91	148	-175	-15684	1876	-5268	62	-48	134	-2748	-5068	15780	18	-129	197	-7604	4564	14312	134	-33	-133	-15800	1560	-3496	-41	-25	-34	-2252	-2208	16940	175	-20	35	127	126	5
-8208	-3396	13292	-130	139	-194	-15724	1792	-5264	53	-64	109	-2724	-5036	15800	8	-124	164	-7604	4520	14324	138	-34	-126	-15832	1488	-3420	7	-14	-76	-2168	-2304	16756	194	9	41	127	126	5
-8204	-3320	13328	-86	123	-167	-15748	1764	-5220	79	-41	138	-2688	-4984	15836	-27	-102	157	-7684	4516	14272	110	4	-165	-15792	1488	-3548	-11	-52	-56	-2184	-2300	16792	193	-5	12	127	126	5
-8256	-3308	13180	-94	148	-190	-15692	1832	-5260	84	7	142	-2688	-5040	15812	11	-100	172	-7588	4556	14332	95	-16	-174	-15812	1552	-3476	11	-33	-38	-2084	-2320	16748	175	19	43	127	126	5
-8276	-3312	13220	-131	146	-152	-15748	1828	-5252	72	-25	132	-2676	-5040	15820	11	-101	158	-7632	4520	14344	136	2	-170	-15852	1508	-3440	-11	-44	-32	-2116	-2236	16768	151	-8	16	127	126	5
-8212	-3272	13292	-106	168	-157	-15760	1864	-5176	98	-9	108	-2732	-5060	15828	11	-98	186	-7588	4528	14332	93	1	-136	-15864	1604	-3440	1	6	-34	-2168	-2316	16776	143	-25	22	127	126	5
-8248	-3324	13236	-94	158	-174	-15740	1824	-5192	71	24	132	-2680	-5028	15736	44	-116	166	-7664	4612	14432	137	-30	-150	-15848	1624	-3556	-2	6	-51	-2212	-2276	16808	238	21	24	127	126	5
-8216	-3328	13296	-118	181	-205	-15744	1768	-5288	62	34	133	-2704	-5124	15800	22	-127	180	-7584	4540	14304	127	0	-121	-15908	1564	-3536	-16	-18	-45	-2324	-2244	16784	232	-1	63	127	126	5
-8260	-3384	13268	-95	129	-162	-15720	1796	-5156	75	-19	152	-2764	-5060	15824	24	-114	167	-7648	4556	14404	124	-30	-165	-15840	1528	-3484	-63	-37	-56	-2172	-2248	16732	236	19	63	127	126	5
-8280	-3392	13192	-81	153	-172	-15692	1756	-5240	86	19	173	-2776	-5072	15736	50	-100	208	-7612	4500	14384	89	21	-172	-15756	1512	-3512	-32	-20	-31	-2220	-2220	16720	284	-23	80	127	126	5
-8304	-3292	13188	-94	127	-176	-15676	1820	-5256	71	-32	157	-2748	-5024	15876	19	-108	196	-7584	4552	14348	98	-7	-152	-15752	1444	-3568	11	-52	-46	-2228	-2228	16864	199	-22	67	127	126	5
-8220	-3280	13212	-133	123	-177	-15716	1736	-5132	54	-43	149	-2712	-5028	15852	43	-116	184	-7620	4476	14436	147	-18	-114	-15776	1524	-3612	19	-65	-102	-2252	-2308	16768	139	-5	53	127	126	5
-8224	-3312	13212	-86	162	-166	-15728	1804	-5372	67	-38	153	-2784	-4996	15804	-12	-151	153	-7652	4556	14500	151	-26	-133	-15788	1556	-3460	29	-105	-69	-2316	-2236	16744	138	-18	34	127	126	5
-8276	-3408	13256	-94	137	-147	-15712	1788	-5260	94	-74	179	-2860	-4992	15752	-20	-136	154	-7572	4520	14284	116	-30	-172	-15884	1580	-3524	35	-87	-63	-2256	-2300	16844	207	-35	27	127	126	5
-8328	-3352	13268	-118	135	-161	-15676	1832	-5252	36	-93	163	-2756	-4988	15776	13	-176	161	-7652	4544	14484	136	-17	-123	-15876	1652	-3492	-87	-120	-74	-2216	-2232	16864	263	-63	50	127	126	5
-8304	-3288	13364	-89	113	-182	-15844	1928	-5108	22	-65	94	-2696	-4924	15904	4	-143	155	-7676	4588	14368	112	-45	-159	-15824	1472	-3444	-46	-88	-92	-2132	-2248	16836	199	-23	51	127	126	5
-8160	-3336	13332	-108	135	-188	-15664	1872	-5140	63	-67	127	-2540	-4996	15784	10	-109	135	-7608	4544	14336	119	-21	-141	-15816	1476	-3232	53	-25	-80	-1936	-2164	16888	92	19	14	127	126	5
-8292	-3328	13324	-130	190	-178	-15704	1800	-5028	137	6	98	-2492	-4964	15768	-23	-89	178	-7560	4544	14340	113	18	-127	-15836	1540	-3236	53	14	-62	-1896	-2192	16848	85	13	0	127	126	5
-8276	-3352	13312	-94	167	-160	-15704	1760	-4956	164	61	81	-2476	-5012	15808	14	-68	129	-7608	4496	14316	94	19	-155	-15808	1552	-3084	38	54	-36	-1912	-2116	16700	92	34	-54	127	126	5
-8252	-3364	13216	-133	216	-165	-15732	1844	-4980	178	45	109	-2580	-5068	15792	-29	-37	131	-7592	4476	14320	100	10	-162	-15872	1596	-3364	-15	120	-35	-2136	-2244	16864	87	10	-55	127	126	5
-8212	-3356	13284	-69	153	-151	-15768	1812	-5152	212	94	121	-2576	-5140	15676	-32	-36	84	-7596	4548	14332	80	5	-180	-15764	1632	-3420	-15	163	12	-2184	-2220	16912	54	-2	0	127	126	5
-8328	-3336	13216	-102	192	-139	-15708	1752	-5284	151	136	143	-2816	-5160	15692	59	-59	128	-7608	4512	14328	79	7	-144	-15904	1584	-3560	-33	172	-30	-2384	-2340	16932	130	27	9	127	126	5
-8220	-3296	13208	-81	186	-155	-15748	1704	-5368	166	141	184	-2880	-5168	15768	160	-60	115	-7584	4516	14252	85	10	-177	-15824	1584	-3600	-33	151	-34	-2448	-2360	16844	119	30	14	127	126	5
-8268	-3320	13332	-49	164	-120	-15652	1640	-5332	120	88	193	-2900	-5140	15696	161	-61	146	-7628	4560	14320	76	17	-180	-15744	1480	-3700	-14	98	-62	-2440	-2468	16888	174	21	71	127	126	5
-8272	-3336	13180	-106	146	-140	-15604	1804	-5328	101	23	169	-2936	-5068	15872	138	-89	152	-7640	4488	14364	90	-21	-187	-15772	1516	-3648	-33	39	-54	-2512	-2496	16700	192	16	72	127	126	5
-8280	-3380	13176	-87	180	-174	-15636	1768	-5436	111	-25	154	-2952	-4968	15820	47	-127	204	-7592	4448	14332	134	-29	-135	-15776	1472	-3812	-53	-35	-53	-2440	-2472	16772	245	-20	53	127	126	5
-8224	-3300	13320	-88	142	-160	-15596	1916	-5488	41	-54	135	-2904	-5024	15804	-22	-124	218	-7624	4548	14372	119	-11	-144	-15804	1472	-3676	-49	-91	-45	-2412	-2500	16856	308	-17	63	127	126	5
-8344	-3344	13328	-113	153	-173	-15656	1896	-5332	-25	-89	126	-2872	-4976	15800	9	-168	243	-7624	4508	14208	168	-28	-121	-15772	1484	-3708	-15	-175	-21	-2352	-2420	16804	296	-46	36	127	126	5
-8300	-3300	13228	-83	116	-204	-15648	1708	-5288	-47	-72	112	-2760	-4992	15896	20	-153	235	-7584	4476	14312	148	22	-181	-15708	1556	-3636	-44	-220	-52	-2252	-2316	16728	338	3	68	127	126	5
-8240	-3364	13244	-108	120	-201	-15668	1792	-5200	14	-161	91	-2792	-5012	15716	-9	-149	244	-7608	4484	14316	145	-15	-130	-15772	1512	-3516	33	-264	-17	-2160	-2236	16740	259	-54	18	127	126	5
-8248	-3312	13280	-129	139	-210	-15724	1764	-5148	-1	-175	112	-2656	-5024	15768	-19	-177	200	-7640	4504	14276	158	-14	-145	-15808	1460	-3476	58	-219	-56	-2112	-2160	16756	181	-45	45	127	126	5
-8244	-3308	13300	-123	102	-215	-15708	1868	-5124	28	-125	124	-2588	-4980	15828	-31	-168	183	-7556	4596	14268	116	-44	-139	-15856	1600	-3344	23	-188	-43	-2028	-2100	16856	153	-42	36	127	126	5
-8268	-3324	13304	-114	144	-178	-15776	1784	-4992	-6	-86	117	-2564	-5052	15792	-31	-131	205	-7692	4592	14232	146	-58	-112	-15908	1648	-3304	-30	-138	-62	-2012	-2080	16872	162	13	55	127	126	5
-8232	-3340	13200	-109	163	-161	-15768	1848	-5080	65	-57	130	-2528	-5060	15748	-36	-149	206	-7612	4532	14288	128	-88	-156	-15824	1624	-3312	-37	-56	-26	-2000	-2124	16780	192	29	80	127	126	5
-8204	-3352	13204	-110	170	-182	-15760	1764	-5020	60	-61	156	-2652	-5044	15788	13	-191	191	-7652	4580	14340	123	5	-146	-15776	1596	-3404	-9	-13	-89	-2068	-2144	16824	214	41	70	127	126	5
-8244	-3376	13288	-117	165	-160	-15740	1832	-5164	87	0	140	-2672	-5068	15924	6	-151	187	-7608	4580	14444	81	-10	-132	-15820	1604	-3424	-16	12	-96	-2112	-2120	16876	225	4	76	127	126	5
-8300	-3348	13316	-100	171	-172	-15764	1840	-5048	47	-24	135	-2744	-5040	15940	82	-116	178	-7592	4520	14352	100	-71	-178	-15820	1576	-3440	-9	-7	-98	-2208	-2284	16840	163	28	63	127	126	5
-8220	-3352	13420	-117	153	-177	-15764	1796	-5200	108	-36	107	-2724	-4984	15864	46	-83	139	-7644	4496	14356	75	2	-173	-15852	1524	-3536	-16	-4	-67	-2220	-2260	16784	106	21	74	127	126	5
-8276	-3276	13324	-105	164	-181	-15728	1804	-5220	98	32	150	-2720	-5000	15864	-43	-106	149	-7588	4568	14324	96	-19	-152	-15832	1520	-3552	-23	-13	-145	-2264	-2372	16748	148	38	19	127	126	5
-8204	-3324	13232	-85	153	-174	-15712	1844	-5296	137	-14	111	-2772	-5020	15772	-87	-136	141	-7620	4548	14280	76	-59	-157	-15828	1460	-3528	-30	-15	-142	-2252	-2400	16688	102	-3	59	127	126	5
-8268	-3276	13340	-101	159	-181	-15632	1764	-5152	129	-30	81	-2768	-5044	15772	-54	-93	168	-7648	4504	14332	92	-52	-142	-15824	1464	-3476	5	-26	-71	-2324	-2388	16784	173	6	37	127	126	5
-8220	-3336	13276	-145	139	-182	-15700	1868	-5232	70	-33	137	-2776	-5116	15804	-77	-95	150	-7644	4492	14364	102	-39	-162	-15872	1508	-3436	8	-57	-58	-2308	-2416	16780	229	16	39	127	126	5
-8260	-3352	13256	-89	152	-192	-15672	1772	-5216	65	-69	69	-2748	-5148	15804	-2	-140	179	-7576	4544	14380	131	-30	-181	-15844	1460	-3516	-26	-51	0	-2312	-2352	16872	237	-12	34	127	126	5
-8284	-3352	13304	-104	149	-203	-15708	1732	-5168	48	-49	130	-2764	-5152	15820	38	-130	210	-7684	4604	14356	124	3	-146	-15836	1456	-3468	38	-26	-75	-2236	-2288	16800	253	-1	59	127	126	5
-8240	-3384	13296	-126	152	-174	-15672	1704	-5140	26	-39	133	-2652	-5168	15768	42	-167	222	-7564	4528	14328	124	-9	-176	-15800	1524	-3496	-27	-28	-45	-2276	-2320	16780	243	-19	69	127	126	5
-8208	-3376	13380	-68	142	-180	-15748	1708	-5128	85	-53	164	-2688	-5144	15744	87	-111	177	-7548	4548	14344	150	-13	-122	-15820	1524	-3544	-3	-39	-17	-2176	-2288	16764	226	-40	28	127	126	5
-8296	-3408	13248	-91	124	-166	-15728	1660	-5148	53	-34	160	-2728	-5216	15828	36	-88	220	-7660	4564	14328	118	23	-136	-15780	1584	-3532	23	-64	-24	-2272	-2316	16748	229	-9	32	127	126	5
-8268	-3336	13252	-51	122	-152	-15764	1760	-5224	107	-35	172	-2692	-5092	15768	56	-92	186	-7676	4516	14368	126	7	-110	-15824	1496	-3564	-10	-38	-17	-2232	-2296	16712	161	-52	45	127	126	5
-8260	-3372	13272	-61	146	-177	-15700	1836	-5184	74	-17	211	-2668	-5080	15828	72	-115	172	-7612	4524	14324	136	-28	-192	-15808	1560	-3448	-15	-55	4	-2248	-2280	16948	202	-17	46	127	126	5
-8248	-3312	13324	-93	118	-129	-15752	1840	-5216	53	-15	185	-2740	-4988	15832	70	-88	146	-7616	4528	14312	136	-13	-152	-15832	1516	-3604	50	-45	-7	-2204	-2260	16812	241	-6	27	127	126	5
-8192	-3344	13188	-128	168	-155	-15748	1844	-5120	73	15	157	-2696	-4916	15816	57	-128	140	-7524	4528	14376	118	32	-145	-15836	1544	-3384	16	-71	-39	-2204	-2228	16780	195	9	39	127	126	5
-8268	-3372	13328	-96	154	-166	-15692	1796	-5200	127	-36	165	-2696	-4912	15864	7	-143	152	-7660	4572	14260	120	-68	-126	-15780	1564	-3452	38	-86	-48	-2124	-2188	16804	186	-30	-17	127	126	5
-8280	-3360	13304	-114	156	-116	-15700	1828	-5188	100	-48	155	-2688	-4980	15920	36	-140	142	-7636	4544	14328	161	-62	-142	-15800	1556	-3404	36	-41	-71	-2160	-2204	16772	162	-2	24	127	126	5
-8228	-3400	13236	-37	166	-182	-15668	1840	-5268	88	-33	143	-2708	-4972	15840	-48	-132	168	-7564	4640	14348	120	-17	-103	-15844	1572	-3412	19	-53	-79	-2172	-2220	16748	192	-12	23	127	126	5
-8268	-3340	13212	-89	170	-196	-15764	1860	-5292	65	-49	129	-2704	-5016	15820	-55	-149	166	-7648	4548	14332	130	-27	-167	-15848	1552	-3348	23	-21	-29	-2204	-2208	16828	137	-12	30	127	126	5
-8212	-3312	13280	-123	181	-184	-15684	1832	-5124	24	-19	99	-2704	-4940	15768	-31	-155	185	-7560	4572	14372	100	-28	-144	-15788	1592	-3364	-47	-13	-78	-2200	-2148	16860	187	-9	69	127	126	5
-8252	-3348	13208	-138	166	-203	-15720	1820	-5200	20	9	61	-2652	-5060	15824	31	-130	219	-7652	4516	14340	93	-9	-145	-15792	1552	-3452	-63	-28	-92	-2248	-2224	16788	194	17	79	127	126	5
-8168	-3288	13244	-126	182	-164	-15688	1784	-5152	48	-11	96	-2664	-5068	15808	19	-157	205	-7536	4600	14456	79	-37	-157	-15796	1564	-3440	-37	7	-112	-2248	-2304	16788	222	4	92	127	126	5
-8240	-3344	13280	-117	175	-146	-15716	1716	-5184	61	-30	115	-2700	-5056	15736	13	-132	158	-7588	4556	14304	116	20	-154	-15796	1480	-3496	-18	15	-107	-2200	-2352	16776	243	5	78	127	126	5
-7856	-3276	13180	-122	268	-169	-15928	1780	-5192	-9	-51	126	-2828	-5056	15832	-7	-177	163	-7624	4584	14280	100	-51	-170	-15768	1532	-3500	-13	4	-79	-2228	-2384	16728	189	24	72	127	126	5
-8172	-3268	13172	-65	203	-164	-15508	1644	-5132	137	-16	121	-2632	-5072	15732	-9	-111	162	-7580	4528	14296	95	-41	-138	-15884	1448	-3428	-19	-38	-54	-2228	-2408	16736	156	-16	20	127	126	5
-8216	-3444	13352	-74	179	-161	-15760	1756	-5116	26	-12	113	-2788	-5040	15788	-48	-119	128	-7636	4536	14396	152	-68	-140	-15784	1500	-3560	17	-57	-93	-2176	-2296	16860	105	-6	-12	127	126	5
-8232	-3372	13296	-115	180	-145	-15860	1784	-5244	154	-67	159	-2876	-5060	15784	-42	-183	130	-7632	4448	14384	108	-13	-141	-15720	1592	-3528	22	-56	-65	-2232	-2332	16792	111	-62	-15	127	126	5
-8276	-3300	13204	-102	177	-156	-15608	1800	-5388	120	-27	133	-2744	-5036	15824	-49	-110	154	-7620	4508	14328	114	-44	-141	-15856	1524	-3448	-6	-57	-47	-2260	-2320	16800	169	-35	12	127	126	5
-8224	-3240	13264	-86	136	-211	-15656	1860	-5208	64	-31	160	-2716	-5052	15820	19	-89	190	-7648	4604	14364	128	-63	-165	-15788	1596	-3380	37	-75	-66	-2180	-2288	16768	170	15	46	127	126	5
-8220	-3260	13336	-98	143	-190	-15684	1844	-5252	49	-51	105	-2668	-5060	15728	12	-181	182	-7612	4572	14284	88	-15	-169	-15868	1584	-3392	-15	-77	-59	-2216	-2280	16856	240	-3	68	127	126	5
-8220	-3352	13224	-75	111	-163	-15652	1784	-5164	16	-28	125	-2692	-5024	15812	64	-160	186	-7568	4556	14388	112	-9	-137	-15788	1512	-3380	-74	-72	-29	-2164	-2348	16672	238	-27	88	127	126	5
-8188	-3348	13316	-94	144	-196	-15772	1804	-5132	-23	-35	96	-2664	-5080	15836	0	-139	228	-7592	4528	14404	104	11	-128	-15780	1420	-3368	-20	11	-81	-2188	-2292	16780	234	-31	55	127	126	5
-8296	-3392	13260	-94	151	-192	-15636	1712	-4996	51	-55	108	-2676	-5124	15812	24	-153	207	-7660	4536	14408	126	-22	-173	-15812	1512	-3528	18	-29	-53	-2140	-2204	16768	190	-23	49	127	126	5
-8252	-3328	13268	-96	164	-177	-15744	1696	-5112	67	-54	103	-2568	-5136	15672	52	-116	192	-7596	4536	14268	116	-4	-182	-15736	1576	-3508	14	-32	-35	-2184	-2264	16744	182	1	53	127	126	5
-8292	-3360	13276	-110	131	-163	-15788	1768	-5176	47	12	127	-2708	-5100	15824	8	-147	190	-7648	4488	14416	125	-55	-183	-15832	1488	-3484	-19	-51	-59	-2200	-2264	16712	211	-10	29	127	126	5
-8248	-3332	13184	-73	138	-154	-15740	1764	-5228	74	-19	174	-2712	-5080	15800	-17	-109	168	-7620	4476	14448	127	-55	-139	-15828	1508	-3376	0	-55	-31	-2204	-2344	16828	234	-8	24	127	126	5
-8280	-3392	13160	-78	155	-143	-15692	1684	-5172	101	1	180	-2700	-5068	15840	32	-114	151	-7596	4560	14464	117	-34	-117	-15804	1476	-3388	56	-64	-53	-2232	-2288	16780	156	-19	32	127	126	5
-8308	-3372	13296	-121	124	-165	-15720	1760	-5148	118	-6	201	-2756	-5000	15848	32	-131	167	-7596	4552	14408	89	-29	-141	-15812	1580	-3444	69	-21	-35	-2196	-2224	16900	116	-33	31	127	126	5
-8256	-3340	13352	-95	131	-194	-15728	1848	-5268	72	-13	146	-2828	-5012	15848	-1	-103	162	-7612	4504	14376	109	39	-171	-15832	1660	-3432	-2	-77	-34	-2200	-2240	16756	207	7	37	127	126	5
-8252	-3376	13244	-83	156	-151	-15736	1908	-5332	34	-35	131	-2800	-5000	15900	63	-100	198	-7612	4604	14376	94	-46	-133	-15896	1628	-3460	-116	-35	-47	-2252	-2260	16848	243	-24	66	127	126	5
-8252	-3268	13272	-88	141	-166	-15732	1848	-5292	-4	-54	136	-2700	-4956	15856	2	-124	221	-7624	4552	14440	108	-17	-145	-15784	1540	-3484	-60	-40	-20	-2236	-2316	16712	219	-33	107	127	126	5
-8228	-3320	13356	-119	155	-194	-15668	1896	-5216	51	-43	138	-2676	-4960	15832	-30	-160	227	-7560	4508	14376	126	-34	-154	-15828	1540	-3416	6	-44	-80	-2156	-2244	16656	187	-18	78	127	126	5
-8208	-3348	13392	-139	150	-171	-15752	1780	-5060	68	-50	92	-2628	-5012	15868	3	-136	169	-7596	4640	14344	101	-16	-150	-15780	1520	-3384	105	-40	-59	-2124	-2268	16784	174	-29	52	127	126	5
-8240	-3416	13288	-101	190	-190	-15744	1796	-5148	107	-26	94	-2720	-5040	15852	-16	-107	187	-7608	4552	14404	96	-3	-163	-15800	1544	-3480	9	-15	-45	-2180	-2280	16784	135	3	25	127	126	5
-8168	-3320	13240	-100	168	-193	-15804	1712	-5168	90	-2	111	-2684	-5084	15800	-32	-99	169	-7616	4556	14332	124	19	-143	-15856	1564	-3484	-59	-44	-52	-2064	-2192	16868	146	15	29	127	126	5
-8236	-3396	13236	-95	149	-134	-15752	1780	-5116	86	-11	104	-2680	-5104	15712	-63	-123	185	-7612	4480	14200	116	-35	-145	-15832	1540	-3492	-35	42	-96	-2212	-2272	16832	155	30	11	127	126	5
-8200	-3256	13204	-85	145	-173	-15708	1712	-5296	97	21	105	-2668	-5136	15772	-9	-102	146	-7564	4528	14392	123	-25	-142	-15820	1524	-3492	-63	3	-31	-2108	-2376	16772	177	20	25	127	126	5
-8196	-3388	13308	-149	127	-213	-15688	1684	-5196	121	22	122	-2596	-5172	15792	-2	-89	173	-7580	4512	14296	76	-14	-144	-15756	1512	-3448	36	26	-36	-2220	-2284	16888	162	17	35	127	126	5
-8280	-3364	13256	-109	175	-197	-15644	1800	-5180	110	34	162	-2752	-5168	15852	21	-75	158	-7616	4512	14336	152	-31	-148	-15804	1548	-3532	44	9	-37	-2288	-2344	16728	179	5	24	127	126	5
-8220	-3400	13240	-77	163	-145	-15692	1744	-5192	89	-9	176	-2764	-5112	15748	63	-95	151	-7576	4540	14428	100	-13	-184	-15828	1500	-3580	28	-7	-26	-2328	-2316	16848	167	-18	43	127	126	5
-8324	-3272	13260	-61	140	-160	-15684	1764	-5200	57	-11	163	-2828	-5056	15820	62	-130	148	-7620	4568	14396	110	-6	-161	-15868	1576	-3620	-2	-67	-70	-2328	-2396	16760	203	-7	32	127	126	5
-8260	-3340	13296	-50	145	-164	-15744	1796	-5220	43	-1	143	-2740	-5056	15820	6	-130	168	-7588	4536	14384	109	-1	-157	-15808	1540	-3708	-47	-51	-33	-2316	-2316	16748	230	-11	49	127	126	5
-8276	-3372	13256	-95	148	-206	-15716	1792	-5208	41	-59	165	-2800	-4972	15780	21	-131	180	-7564	4548	14328	135	-20	-139	-15804	1596	-3568	-10	-91	-62	-2300	-2372	16712	180	-48	35	127	126	5
-8244	-3364	13204	-112	132	-190	-15652	1864	-5176	51	-92	154	-2696	-5016	15816	-10	-162	155	-7552	4492	14296	128	-39	-140	-15864	1468	-3544	21	-147	-48	-2212	-2356	16632	199	-67	9	127	126	5
-8260	-3348	13252	-136	139	-181	-15708	1836	-5112	35	-67	135	-2728	-4964	15832	-11	-179	200	-7608	4568	14396	163	-3	-146	-15836	1492	-3512	39	-123	-15	-2140	-2304	16744	221	-57	5	127	126	5
-8320	-3304	13236	-108	132	-184	-15736	1844	-5216	30	-89	123	-2680	-5008	15836	-24	-136	181	-7668	4516	14332	147	-3	-140	-15820	1580	-3384	79	-102	-5	-2064	-2256	16840	226	-18	-13	127	126	5
-8256	-3352	13248	-131	154	-170	-15668	1788	-5116	55	-63	107	-2564	-5112	15896	-10	-156	211	-7584	4548	14340	131	-39	-131	-15828	1584	-3372	-2	-92	-16	-2044	-2200	16828	221	-15	40	127	126	5
-8244	-3348	13316	-104	135	-193	-15804	1788	-5076	53	-44	135	-2600	-5132	15968	-7	-120	192	-7612	4592	14352	111	-49	-157	-15884	1548	-3372	-20	-34	-22	-2116	-2240	16728	226	37	27	127	126	5
-8244	-3440	13344	-66	158	-166	-15752	1716	-5168	75	-10	148	-2584	-5152	15772	25	-104	185	-7580	4592	14328	104	-12	-145	-15792	1512	-3400	-25	9	-18	-2084	-2284	16796	218	-23	37	127	126	5
-8232	-3420	13264	-100	146	-122	-15728	1680	-5152	112	49	174	-2708	-5112	15672	90	-125	184	-7576	4580	14340	116	-46	-144	-15896	1512	-3360	14	41	1	-2144	-2224	16776	242	-23	19	127	126	5
-8172	-3308	13260	-68	115	-149	-15744	1752	-5152	105	60	191	-2668	-5048	15844	102	-73	176	-7584	4492	14256	122	-29	-166	-15824	1640	-3440	-27	51	-24	-2316	-2196	16836	172	-20	37	127	126	5
-8304	-3320	13240	-89	155	-141	-15748	1820	-5192	97	50	178	-2748	-5048	15860	85	-99	126	-7608	4544	14364	117	-23	-106	-15864	1556	-3552	-10	32	-37	-2288	-2236	16852	134	-11	54	127	126	5
-8252	-3300	13228	-90	163	-137	-15740	1744	-5284	158	14	169	-2860	-5036	15844	31	-104	154	-7576	4572	14428	101	4	-118	-15784	1496	-3628	12	-31	-30	-2428	-2284	16864	160	-14	32	127	126	5
-8320	-3328	13208	-51	162	-166	-15640	1792	-5412	114	-37	160	-2944	-4972	15772	-10	-114	164	-7676	4500	14340	104	-7	-136	-15784	1636	-3612	11	-60	-47	-2404	-2300	16764	199	-9	44	127	126	5
-8312	-3276	13260	-83	137	-175	-15612	1864	-5380	29	-75	144	-2964	-4908	15780	-32	-130	193	-7656	4508	14336	97	-47	-154	-15856	1556	-3568	12	-130	-78	-2472	-2232	16844	250	22	54	127	126	5
-8316	-3344	13244	-118	105	-166	-15768	1992	-5268	-36	-129	124	-3048	-4936	15884	18	-200	210	-7624	4496	14324	106	-42	-146	-15864	1532	-3640	-61	-149	-36	-2504	-2224	16588	218	-30	19	127	126	5
-8208	-3312	13180	-145	125	-193	-16692	1988	-5216	260	-132	159	-4268	-4972	15472	248	-157	-21	-7584	4508	14228	130	-42	-97	-16364	1504	-3604	44	-99	-30	-3256	-2136	16464	69	-206	-191	127	126	5
-8372	-3304	13160	-156	114	-205	-14412	1772	-5816	245	-340	127	-748	-4764	16084	60	-473	252	-7612	4620	14428	93	-92	-138	-14592	2004	-3764	109	-404	-211	-460	-1900	17464	-129	-212	272	127	126	5
-8280	-3280	13436	-160	159	-237	-14760	2000	-5020	-730	-254	-22	-1948	-4424	16244	-317	-262	332	-7664	4392	14328	148	-56	-91	-15684	1424	-3088	48	-248	-380	-2300	-2364	16540	336	476	411	127	126	5
-8184	-3168	13116	-145	96	-210	-16820	1952	-4508	196	-247	-94	-3248	-5228	15572	-569	83	222	-7556	4640	14216	109	-93	-106	-16768	1232	-2860	-163	-114	-243	-2500	-2516	16660	21	-115	4	127	126	5
-8168	-3456	13280	-162	154	-242	-17080	1960	-4824	210	31	81	-3612	-5360	15620	277	-301	-18	-7564	4572	14288	70	16	-205	-16496	1488	-3240	-149	-32	60	-2348	-2032	16944	188	-163	-251	127	126	5
-8268	-3280	13252	-148	151	-189	-14284	1416	-5440	246	-170	49	-676	-4896	16028	-145	-303	221	-7624	4500	14468	86	-46	-148	-14240	1952	-3652	49	-139	-184	-508	-2080	17148	-38	-66	146	127	126	5
-8268	-3448	13292	-125	203	-201	-15000	1588	-4888	-300	-26	0	-2100	-4980	15948	-543	-126	213	-7596	4432	14228	61	-9	-155	-16172	1152	-2976	126	85	-219	-2252	-2452	16688	139	242	254	127	126	5
-8216	-3316	13256	-117	135	-143	-16468	2000	-4716	249	-12	-23	-2716	-5508	15696	-200	106	189	-7476	4648	14464	81	-21	-173	-16636	1424	-2928	-34	184	-158	-2060	-2508	17032	-91	-67	179	127	126	5
-8216	-3464	13292	-123	186	-132	-16652	2028	-4852	-159	257	80	-2732	-5488	15680	-146	31	213	-7680	4500	14332	70	103	-221	-15892	1724	-3452	-351	273	6	-2536	-2208	16904	392	133	60	127	126	5
-8272	-3356	13244	-97	286	-143	-15632	1320	-5412	172	157	159	-2864	-5344	15488	155	62	265	-7652	4480	14424	49	-28	-170	-15584	1672	-3816	-172	245	-41	-2532	-2048	16776	257	137	122	127	126	5
-8364	-3436	13152	-45	216	-151	-15012	1176	-5624	169	76	165	-2784	-5208	15396	0	-208	245	-7628	4516	14328	36	-6	-140	-15684	1488	-3804	-65	73	-177	-2708	-2296	16576	308	109	204	127	126	5
-8260	-3216	13248	-27	131	-173	-15524	1648	-5652	216	-93	202	-3036	-5112	15780	-18	-257	209	-7652	4464	14312	108	-8	-173	-15716	1336	-3836	-45	-40	-245	-2692	-2364	16700	379	82	201	127	126	5
-8332	-3352	13276	-109	119	-190	-15964	1992	-5168	-232	-113	242	-2968	-4984	16080	159	-262	142	-7516	4452	14308	130	-80	-149	-15888	1348	-3588	153	-106	-212	-2352	-2516	16872	133	-134	152	127	126	5
-8216	-3296	13208	-93	99	-159	-15784	1784	-5132	64	-101	215	-2664	-4796	15972	215	-81	73	-7596	4528	14328	148	-36	-134	-15784	1436	-3576	-97	-168	-93	-2084	-2540	16756	-111	-65	95	127	126	5
-8300	-3288	13164	-97	113	-173	-15732	1952	-5152	254	-98	204	-2684	-4808	15644	215	-88	97	-7672	4508	14416	151	-52	-126	-15828	1268	-3460	-186	-177	-70	-2060	-2360	16736	-91	-43	37	127	126	5
-8216	-3364	13244	-121	137	-201	-15484	2024	-5308	65	-117	133	-2612	-4900	15860	-150	-279	223	-7552	4540	14312	161	6	-111	-15872	1248	-3432	-44	-152	-39	-2096	-2600	16808	226	0	-16	127	126	5
-8284	-3400	13236	-136	121	-200	-15684	2036	-5112	-145	-112	38	-2664	-4756	15864	-214	-301	340	-7592	4656	14304	147	21	-102	-16012	1440	-3432	-20	-94	-12	-2156	-2528	16788	391	-23	35	127	126	5
-8236	-3364	13248	-170	155	-185	-15872	1848	-5108	-100	-62	-41	-2676	-4928	15936	-42	-140	285	-7644	4584	14356	148	17	-141	-15868	1548	-3364	4	-71	40	-2116	-2224	16740	459	-10	89	127	126	5
-8260	-3336	13224	-140	162	-217	-15724	1660	-5184	3	-77	45	-2640	-5128	15740	129	-103	215	-7572	4516	14364	141	22	-151	-15752	1556	-3412	89	-54	23	-2196	-1884	16728	471	-30	27	127	126	5
-8288	-3292	13284	-157	118	-242	-15792	1612	-5164	42	-70	57	-2752	-5160	15620	132	-154	190	-7660	4512	14296	161	-59	-166	-15856	1556	-3440	73	-46	-40	-2220	-1872	16804	286	-27	1	127	126	5
-8248	-3388	13304	-125	119	-228	-15876	1652	-5024	25	-46	56	-2676	-5104	15760	-35	-218	184	-7648	4428	14348	154	-57	-123	-15816	1664	-3312	-2	-31	-98	-2172	-2116	16860	101	-99	-14	127	126	5
-8288	-3432	13184	-133	154	-190	-15848	1736	-4980	49	-21	84	-2432	-5080	15904	-137	-148	149	-7524	4572	14272	103	-60	-171	-15856	1540	-3304	-81	-17	-114	-1988	-2268	16932	-79	-123	-29	127	126	5
-8268	-3440	13300	-103	157	-207	-15800	1676	-5052	177	5	119	-2452	-5068	15756	-62	-60	141	-7560	4524	14304	64	-31	-173	-15876	1424	-3308	-6	39	-47	-1936	-2212	16940	-63	-55	4	127	126	5
-8232	-3456	13240	-105	162	-157	-15724	1740	-5120	291	9	84	-2536	-5068	15840	-28	-29	134	-7644	4472	14416	90	0	-176	-15736	1628	-3388	82	102	-102	-2064	-2000	16892	131	-7	22	127	126	5
-8224	-3388	13256	-101	168	-132	-15616	1856	-5304	183	18	55	-2700	-4928	15928	-92	-26	134	-7616	4576	14292	72	-33	-181	-15688	1808	-3376	11	70	-212	-2208	-1984	16968	236	139	75	127	126	5
-8344	-3336	13236	-92	173	-192	-15724	1932	-5356	74	-17	84	-2748	-4968	15880	-68	-19	126	-7616	4520	14396	34	-21	-199	-15824	1632	-3544	-79	6	-283	-2448	-1948	16788	259	141	59	127	126	5
-8268	-3388	13364	-139	175	-183	-15792	1784	-5404	76	-56	52	-3036	-4928	15836	-121	-26	25	-7668	4472	14412	40	-62	-200	-15768	1652	-3672	7	-84	-377	-2704	-2008	16748	89	-9	81	127	126	5
-8244	-3356	13292	-137	166	-254	-15660	1700	-5348	195	-118	46	-2952	-4892	15676	-268	-79	-10	-7628	4524	14384	12	-71	-147	-15736	1548	-3684	187	-135	-428	-2652	-2136	16652	-297	-124	149	127	126	5
-8240	-3336	13228	-158	144	-236	-15720	1876	-5228	183	-151	6	-2820	-5068	15708	-318	-149	17	-7592	4560	14340	-9	-91	-149	-15980	1288	-3504	155	-121	-478	-2372	-2600	16800	-570	-180	224	127	126	5
-8232	-3416	13288	-143	144	-236	-15740	1912	-5212	191	-164	-56	-2744	-5252	15796	-329	-215	170	-7556	4496	14448	74	-115	-151	-15952	1272	-3360	-30	-183	-390	-2228	-2880	16836	-543	-239	297	127	125	5
-8204	-3412	13296	-203	139	-236	-15708	1832	-5180	49	-133	-67	-2476	-5236	15784	-283	-185	293	-7628	4488	14480	66	-12	-182	-15728	1272	-3432	-198	-237	-361	-1948	-2928	16780	-183	-144	374	127	126	5
-8224	-3412	13304	-183	151	-212	-15764	1748	-4932	-71	-44	-94	-2340	-5540	15752	15	-117	365	-7552	4464	14280	104	-68	-132	-15900	960	-3300	-220	-159	-203	-1916	-3136	16700	90	-119	322	127	126	5
-8220	-3444	13260	-187	174	-221	-15852	1488	-4764	-29	25	1	-2388	-5652	15616	241	-116	390	-7504	4376	14404	158	-30	-138	-16088	700	-3196	-177	-106	-24	-1660	-3356	16884	538	75	128	127	125	5
-8236	-3468	13132	-98	194	-173	-15708	1140	-5052	135	78	100	-2476	-5624	15488	247	-120	330	-7512	4452	14452	218	101	-130	-15960	772	-3204	134	8	180	-1740	-2936	16880	730	80	-28	127	126	5
-8196	-3464	13172	-54	145	-141	-15760	1348	-4964	119	143	185	-2504	-5564	15600	199	-214	278	-7608	4444	14260	274	170	-89	-15912	1388	-3260	225	69	272	-2024	-2460	16816	931	127	-132	127	126	5
-8240	-3468	13356	-9	159	-118	-15852	1432	-5032	72	143	315	-2544	-5580	15784	372	-161	204	-7552	4712	14348	225	110	-173	-15876	1624	-3460	-109	62	388	-2292	-2304	16708	697	48	-159	127	126	5
-8244	-3380	13188	7	165	-123	-15648	1516	-5236	0	166	405	-2720	-5564	15656	532	2	220	-7628	4528	14288	202	51	-119	-15840	1472	-3548	-356	44	391	-2376	-2244	16804	592	-2	-107	127	126	5
-8232	-3380	13096	15	99	-106	-15596	1520	-5264	20	68	504	-2768	-5228	15636	577	32	240	-7688	4516	14220	190	76	-113	-15652	1516	-3712	65	-10	330	-2540	-2020	16712	536	10	3	127	126	5
-8312	-3440	13204	44	110	-126	-15744	1628	-5388	38	77	518	-2912	-4944	15724	479	-41	212	-7668	4576	14352	204	55	-129	-15636	1748	-3796	191	-100	158	-2680	-1768	16744	417	-31	61	127	126	5
-8224	-3368	13228	34	80	-143	-15816	1692	-5320	87	-14	457	-2972	-4888	15844	294	-96	217	-7684	4480	14420	209	7	-109	-15700	1868	-3924	-119	-225	34	-2820	-2036	16772	315	-22	138	127	126	5
-8184	-3292	13376	66	81	-112	-15744	1752	-5432	174	-56	469	-3028	-4768	15912	295	-63	186	-7620	4548	14412	201	-25	-112	-15780	1436	-3780	10	-356	-37	-2616	-2168	16648	303	-60	133	127	126	5
-8280	-3332	13216	16	69	-166	-15700	1912	-5388	187	-121	406	-2984	-4712	15868	-67	-58	82	-7636	4532	14356	257	-60	-88	-15860	1308	-3460	291	-385	-72	-2376	-2416	16748	155	-95	45	127	126	5
-8192	-3356	13156	-15	87	-142	-15692	2072	-5252	105	-170	386	-2868	-4596	15960	-136	-129	81	-7624	4524	14348	264	-39	-84	-15772	1412	-3428	173	-413	21	-1996	-2412	16852	104	-157	-77	127	126	5
-8268	-3316	13260	-57	116	-193	-15704	2084	-5320	84	-160	325	-2632	-4524	16008	-43	-146	100	-7584	4540	14324	240	-20	-108	-15704	1488	-3296	48	-408	58	-1840	-2092	16784	222	-75	-133	127	125	5
-8276	-3344	13304	-106	159	-194	-15736	2220	-5116	-48	-94	137	-2592	-4572	16000	17	-113	117	-7608	4532	14336	238	17	-106	-15916	1432	-3112	127	-313	67	-1760	-2036	16888	157	-13	-187	127	126	5
-8240	-3288	13312	-116	100	-168	-15668	2092	-5088	51	-84	59	-2572	-4628	16076	-54	-156	181	-7588	4660	14244	227	-69	-90	-15956	1644	-2756	200	-184	65	-1604	-1912	16940	205	58	-200	127	126	5
-8236	-3324	13248	-166	171	-218	-15756	2076	-5060	71	-86	-33	-2520	-4680	15904	-237	-185	244	-7568	4604	14244	108	4	-133	-16028	1704	-2756	-67	25	53	-1604	-1932	16848	216	25	-174	127	126	5
-8204	-3336	13356	-187	164	-202	-15812	2088	-5016	112	-89	-36	-2532	-4788	15880	-298	-231	261	-7588	4612	14288	28	7	-205	-15924	1848	-2984	-19	173	61	-1880	-1776	16964	305	50	-99	127	126	5
-8200	-3340	13288	-251	198	-180	-15756	1992	-4936	-53	28	-150	-2408	-5064	15880	-176	-180	275	-7668	4608	14284	14	-25	-242	-15860	1964	-3240	-65	282	-51	-2180	-1724	16828	165	2	99	127	126	5
-8232	-3364	13296	-208	226	-219	-15768	1644	-5004	2	59	-105	-2500	-5272	15820	-44	-143	269	-7604	4568	14284	-29	-27	-226	-15876	1668	-3332	-110	329	-186	-2216	-1984	16840	8	61	217	127	126	5
-8260	-3376	13308	-208	215	-237	-15764	1388	-5032	175	85	-28	-2660	-5464	15648	55	-116	252	-7584	4532	14308	-33	-22	-202	-15912	1520	-3496	-42	334	-226	-2212	-2164	16672	-3	61	203	127	126	5
-8268	-3372	13212	-122	218	-196	-15864	1472	-5132	173	51	43	-2768	-5468	15760	109	-145	222	-7592	4544	14340	-17	-61	-195	-15744	1432	-3512	-52	279	-204	-2340	-2372	16740	74	53	161	127	126	5
-8252	-3444	13228	-141	193	-180	-15792	1452	-5324	111	41	85	-2904	-5296	15580	103	-119	148	-7632	4436	14348	-48	-53	-189	-15792	1224	-3656	-146	189	-163	-2400	-2656	16664	114	96	13	127	126	5
-8308	-3420	13204	-110	167	-170	-15620	1516	-5320	92	-25	164	-2892	-5120	15740	-54	-91	49	-7604	4476	14384	20	19	-168	-15804	1032	-3608	146	168	-81	-2416	-2852	16784	125	25	-85	127	126	5
-8192	-3452	13268	-72	156	-188	-15636	1752	-5284	96	-112	191	-2900	-5056	15760	-43	-107	43	-7588	4508	14324	111	28	-187	-15756	1268	-3732	259	47	-17	-2472	-2908	16732	210	9	-106	127	126	5
-8236	-3332	13328	-94	152	-157	-15740	1884	-5116	26	-66	179	-2756	-4948	15820	-21	-187	111	-7612	4516	14460	108	22	-148	-15800	1496	-3728	20	-51	37	-2368	-2744	16728	349	15	-83	127	126	5
-8256	-3336	13296	-136	124	-167	-15744	1944	-5120	75	-37	89	-2696	-5016	15964	51	-158	171	-7596	4532	14308	165	-15	-135	-15740	1416	-3632	-118	-159	80	-2320	-2528	16764	341	-1	13	127	126	5
-8140	-3328	13252	-127	163	-193	-15780	1840	-4948	43	1	72	-2584	-5164	15864	16	-150	229	-7632	4484	14328	225	7	-126	-15804	1300	-3432	19	-192	47	-2248	-2380	16660	309	2	-20	127	126	5
-8156	-3448	13212	-113	168	-220	-15720	1672	-5076	127	5	121	-2608	-5288	15696	20	-106	238	-7572	4528	14396	207	-7	-86	-15800	1412	-3440	132	-200	85	-2104	-2204	16764	265	-18	-48	127	126	5
-8208	-3408	13220	-85	172	-166	-15720	1500	-5244	154	-19	180	-2668	-5284	15692	-14	-74	187	-7644	4544	14280	210	-34	-127	-15788	1580	-3316	148	-228	98	-2244	-2100	16764	279	-15	-58	127	126	5
-8264	-3424	13240	-61	130	-144	-15700	1540	-5264	76	32	220	-2720	-5340	15700	-33	-45	126	-7676	4548	14396	169	-63	-130	-15864	1640	-3384	83	-184	23	-2204	-2100	16820	275	-62	-84	127	126	5
-8232	-3416	13208	-43	146	-137	-15752	1500	-5132	104	-29	284	-2672	-5276	15716	39	-25	51	-7612	4580	14324	184	-36	-104	-15892	1588	-3336	17	-159	8	-2104	-2064	16800	203	-15	-34	127	126	5
-8228	-3388	13228	-6	117	-135	-15716	1748	-5084	209	-25	377	-2684	-5188	15796	131	-45	69	-7664	4552	14264	137	-20	-132	-15956	1628	-3132	27	-100	5	-2164	-2144	16828	177	-75	37	127	126	5
-8220	-3376	13232	-19	99	-105	-15696	1884	-5048	93	25	357	-2644	-5088	15876	170	-54	118	-7576	4624	14372	118	-19	-153	-15900	1640	-3336	-52	-54	-29	-2148	-2200	16900	214	-68	73	127	126	5
-8252	-3428	13216	-55	136	-119	-15760	1968	-5096	6	41	314	-2632	-4904	15884	214	-77	201	-7676	4504	14288	100	-14	-140	-15804	1564	-3308	-113	-46	-67	-2152	-2280	16772	367	-36	157	127	126	5
-8260	-3324	13200	-40	128	-131	-15776	1920	-5008	61	26	256	-2604	-4784	15864	169	-106	209	-7624	4592	14380	94	-33	-152	-15772	1472	-3412	-89	-38	-64	-2072	-2244	16880	295	10	172	127	126	5
-8256	-3388	13188	-14	165	-165	-15680	1768	-5200	149	76	195	-2660	-4844	15928	108	-84	181	-7532	4560	14324	137	-33	-119	-15816	1332	-3360	-1	-82	-89	-2120	-2248	16896	131	24	108	127	126	5
-8240	-3296	13236	-44	170	-152	-15724	1716	-5392	233	1	192	-2844	-4860	15888	19	-74	116	-7680	4440	14436	125	3	-206	-15880	1436	-3436	94	-41	-15	-2232	-2168	16792	160	58	-20	127	126	5
-8296	-3316	13328	-78	141	-148	-15664	1940	-5352	145	-4	195	-2908	-4756	15996	-3	-58	77	-7616	4468	14248	113	-38	-134	-15896	1416	-3512	172	-28	11	-2280	-2200	16704	92	-4	-130	127	126	5
-8280	-3332	13236	-86	146	-151	-15700	2056	-5172	13	10	124	-2900	-4820	15992	-20	-78	113	-7600	4544	14292	108	-64	-112	-15984	1672	-3392	2	-23	2	-2360	-2136	16852	98	-54	-99	127	126	5
-8200	-3348	13268	-102	165	-196	-15740	2072	-5248	-43	-38	63	-2788	-4872	15844	32	-173	163	-7592	4564	14256	111	-46	-138	-15884	1676	-3376	-140	-40	-31	-2200	-2172	16772	102	-89	-2	127	126	5
-8252	-3280	13248	-163	173	-223	-15720	2032	-5180	-13	-34	-14	-2684	-4840	15884	4	-172	199	-7612	4600	14288	36	-38	-185	-15908	1676	-3244	-169	-10	-53	-2192	-2184	16972	138	-4	88	127	126	5
-8216	-3328	13256	-163	184	-156	-15700	1736	-5148	22	-24	-13	-2768	-4932	15848	-13	-188	259	-7544	4552	14312	88	-50	-191	-15848	1536	-3448	-27	-10	-131	-2260	-2148	16812	144	51	182	127	126	5
-8252	-3388	13260	-158	186	-212	-15736	1604	-5004	116	-30	-40	-2640	-5120	15776	-90	-193	197	-7648	4560	14340	95	-14	-187	-15840	1432	-3384	82	6	-171	-2212	-2176	16792	114	70	104	127	126	5
-8260	-3436	13184	-112	172	-184	-15792	1516	-5148	221	-61	9	-2652	-5160	15752	-241	-175	183	-7624	4540	14272	122	-53	-201	-15856	1552	-3348	67	44	-160	-2068	-2192	16864	127	84	29	127	126	5
-8300	-3396	13360	-124	165	-151	-15812	1616	-5152	206	-34	-8	-2780	-5048	15772	-223	-195	167	-7624	4564	14392	95	-1	-140	-15756	1636	-3268	-85	29	-139	-2152	-2200	16784	58	26	35	127	126	5
-8236	-3380	13292	-116	122	-207	-15716	1780	-5168	-3	-33	86	-2704	-5152	15916	-4	-154	78	-7584	4544	14380	35	-44	-130	-15860	1564	-3460	-204	19	-150	-2296	-2380	16748	-1	-49	44	127	126	5
-8224	-3328	13272	-118	156	-184	-15628	1788	-5292	-24	-61	78	-2704	-5248	15676	72	-120	196	-7592	4564	14340	73	-48	-176	-15992	1416	-3428	-135	37	-125	-2308	-2532	16916	35	7	97	127	126	5
-8296	-3412	13212	-150	153	-210	-15712	1780	-5160	-74	-81	77	-2780	-5188	15672	80	-166	288	-7552	4528	14396	72	-18	-191	-15948	1372	-3444	-145	52	-130	-2212	-2644	16804	188	-13	173	127	126	5
-8248	-3308	13324	-133	176	-224	-15812	1760	-5160	-82	-22	29	-2760	-5096	15680	52	-302	374	-7540	4496	14336	108	-19	-172	-15756	1340	-3448	-71	95	-109	-2132	-2580	16836	368	-31	206	127	126	5
-8204	-3256	13308	-101	146	-168	-15984	1688	-5024	-140	-29	69	-2588	-5172	15828	55	-303	303	-7612	4512	14244	116	24	-197	-15680	1384	-3464	-48	42	-29	-2080	-2360	16860	396	6	161	127	126	5
-8260	-3400	13240	-137	146	-217	-15716	1588	-5088	54	-16	95	-2520	-5152	15772	126	-175	226	-7576	4600	14316	85	-15	-146	-15696	1340	-3524	-75	9	-7	-2232	-2360	16648	267	45	84	127	126	5
-8236	-3436	13212	-83	137	-163	-15788	1568	-5100	85	-15	116	-2604	-5208	15792	73	-97	183	-7648	4536	14316	117	41	-168	-15752	1284	-3560	-42	-53	29	-2356	-2300	16692	232	27	-17	127	126	5
-8276	-3400	13148	-63	129	-165	-15804	1752	-5140	110	-33	197	-2720	-5120	15752	12	-115	128	-7608	4552	14292	137	21	-110	-15764	1416	-3536	86	-45	50	-2336	-2328	16720	214	-12	-94	127	126	5
-8252	-3388	13136	-51	117	-126	-15812	1756	-5216	15	-38	212	-2792	-5044	15780	-29	-113	118	-7664	4544	14392	160	-57	-141	-15792	1500	-3472	85	-114	48	-2284	-2312	16832	105	-100	-84	127	126	5
-8208	-3320	13288	-64	146	-159	-15792	1816	-5160	37	-6	191	-2776	-4964	15828	-28	-110	137	-7664	4592	14432	154	-16	-160	-15772	1464	-3388	54	-134	-5	-2192	-2140	16812	-42	-40	-8	127	126	5
-8280	-3312	13252	-40	127	-159	-15736	1836	-5164	101	-54	205	-2684	-4984	15840	23	-120	109	-7644	4596	14316	127	13	-168	-15796	1612	-3324	152	-155	-42	-2196	-2100	16832	-25	20	13	127	126	5
-8188	-3396	13208	-80	153	-166	-15784	1864	-5116	185	12	147	-2620	-4960	16000	50	-107	116	-7612	4544	14248	137	-30	-139	-15856	1616	-3452	76	-118	-63	-2220	-2196	16920	179	42	28	127	126	5
-8244	-3432	13348	-72	162	-181	-15776	1772	-5184	204	0	159	-2604	-4972	15860	8	-79	148	-7584	4528	14312	114	-31	-141	-15872	1612	-3356	-9	-101	-28	-2212	-2244	16808	191	47	11	127	126	5
-8232	-3380	13156	-109	171	-157	-15708	1828	-5208	191	36	130	-2676	-4984	15724	-104	-83	124	-7680	4616	14368	98	40	-165	-15884	1444	-3272	64	-60	-64	-2112	-2216	16728	236	1	-24	127	126	5
-8256	-3348	13252	-93	153	-172	-15696	1824	-5196	119	-8	120	-2792	-4980	15796	-149	-130	124	-7568	4596	14412	84	22	-138	-15836	1496	-3360	81	-28	-30	-2104	-2224	16736	90	-15	4	127	126	5
-8224	-3308	13348	-86	138	-136	-15688	1924	-5272	26	-14	91	-2788	-5008	15932	-60	-122	142	-7584	4524	14204	118	-16	-181	-15880	1624	-3328	-36	10	-76	-2112	-2252	16784	65	-38	-32	127	126	5
-8260	-3316	13284	-133	173	-205	-15716	1840	-5204	28	-22	98	-2712	-5024	15908	48	-115	182	-7636	4600	14316	98	-25	-174	-15988	1604	-3364	-53	89	-67	-2336	-2296	16836	55	0	77	127	126	5
-8228	-3336	13320	-130	141	-194	-15676	1860	-5128	30	-52	53	-2700	-5032	15868	35	-154	233	-7636	4516	14352	65	-2	-210	-15924	1572	-3364	-144	76	-99	-2240	-2388	16712	248	16	152	127	126	5
-8224	-3356	13264	-185	141	-215	-15636	1872	-5272	-3	-77	-1	-2720	-5092	15728	14	-210	305	-7576	4576	14348	70	-5	-181	-15736	1492	-3332	-208	90	-129	-2116	-2396	16652	316	41	193	127	126	5
-8220	-3392	13232	-143	120	-237	-15796	1744	-5204	-35	-57	21	-2636	-5124	15816	53	-231	295	-7556	4572	14224	58	-44	-183	-15760	1348	-3536	-209	42	-99	-2124	-2368	16712	315	44	155	127	126	5
-8276	-3384	13284	-144	150	-214	-15876	1632	-4980	-48	-44	32	-2580	-5136	15908	62	-212	248	-7596	4428	14316	80	-32	-146	-15804	1300	-3540	49	43	-47	-2180	-2340	16868	170	80	68	127	126	5
-8200	-3352	13312	-133	144	-179	-15860	1532	-5024	95	-17	57	-2572	-5196	15764	-36	-152	181	-7592	4508	14376	158	29	-148	-15756	1432	-3488	193	-19	-54	-2248	-2288	16764	113	80	-31	127	126	5
-8316	-3376	13164	-97	172	-203	-15860	1624	-5044	134	2	112	-2588	-5092	15828	-60	-96	107	-7636	4508	14288	146	-13	-155	-15828	1464	-3632	69	-57	-24	-2328	-2328	16628	41	9	-44	127	126	5
-8244	-3488	13340	-88	159	-184	-15804	1748	-5056	187	-4	116	-2664	-5080	15808	-97	-71	55	-7672	4512	14288	151	-45	-100	-15812	1464	-3536	-26	-84	-20	-2292	-2348	16872	36	1	-98	127	126	5
-8300	-3368	13312	-75	172	-164	-15800	1724	-5148	176	-17	134	-2728	-5132	15796	-131	-59	89	-7572	4528	14340	160	-9	-115	-15816	1472	-3496	80	-73	-38	-2252	-2340	16904	-54	-65	-64	127	126	5
-8336	-3348	13244	-106	173	-182	-15816	1740	-5200	173	35	127	-2740	-5140	15872	-66	-95	100	-7644	4556	14364	161	-58	-167	-15820	1540	-3492	194	-105	-63	-2284	-2380	16720	19	-11	-28	127	126	5
-8196	-3464	13160	-108	162	-183	-15644	1688	-5164	154	21	152	-2764	-5172	15816	5	-70	111	-7572	4528	14364	144	-33	-139	-15760	1568	-3500	118	-94	-51	-2412	-2316	16840	73	-9	-30	127	126	5
-8268	-3356	13192	-95	180	-153	-15656	1752	-5256	188	-48	137	-2748	-5204	15776	-21	-104	148	-7600	4596	14404	127	-43	-183	-15876	1504	-3464	66	-114	-72	-2320	-2448	16716	157	-3	27	127	126	5
-8272	-3268	13204	-117	151	-157	-15628	1760	-5364	76	-62	172	-2840	-5128	15752	-25	-59	160	-7548	4536	14340	106	-41	-176	-15852	1464	-3596	58	-137	-51	-2328	-2412	16796	238	-17	41	127	126	5
-8256	-3424	13200	-107	129	-162	-15700	1824	-5192	-2	-69	156	-2788	-5212	15828	-63	-158	199	-7636	4520	14352	117	-29	-144	-15888	1468	-3508	-52	-124	-79	-2424	-2444	16852	253	-44	79	127	126	5
-8292	-3376	13204	-137	131	-200	-15724	1748	-5248	-59	-141	148	-2792	-5172	15800	-11	-158	271	-7596	4604	14224	129	-51	-123	-15872	1404	-3316	-90	-128	-61	-2292	-2468	16856	251	-34	91	127	126	5
-8292	-3356	13316	-132	117	-208	-15712	1856	-5108	-67	-143	132	-2672	-5144	15832	56	-195	277	-7636	4548	14296	124	-71	-143	-15924	1484	-3296	-69	-81	-37	-2028	-2400	16740	311	-17	110	127	126	5
-8228	-3360	13272	-121	104	-163	-15756	1788	-5052	-60	-131	129	-2548	-5080	15936	135	-223	285	-7604	4576	14348	125	-15	-137	-15892	1404	-3104	-111	-49	14	-2008	-2432	16940	353	-15	56	127	126	5
-8228	-3468	13320	-165	139	-188	-15756	1756	-4984	-70	-72	118	-2444	-5072	15884	155	-186	295	-7620	4540	14444	123	27	-153	-15936	1344	-3084	-98	28	75	-1984	-2348	16776	439	-26	77	127	126	5
-8212	-3396	13304	-115	178	-194	-15664	1816	-4984	-41	0	98	-2464	-5148	15796	158	-147	298	-7672	4528	14328	80	-23	-151	-15840	1472	-3244	-71	112	49	-1960	-2240	16792	472	5	59	127	126	5
-8180	-3428	13316	-143	131	-157	-15824	1792	-5056	-68	31	105	-2520	-5132	15736	128	-140	311	-7644	4592	14320	109	20	-183	-15768	1544	-3340	-112	106	87	-2152	-2172	16844	421	16	59	127	126	5
-8260	-3380	13228	-82	149	-157	-15788	1688	-5028	-23	75	128	-2552	-5152	15900	110	-123	295	-7648	4496	14376	107	40	-175	-15792	1540	-3500	-94	100	34	-2312	-2100	16800	332	77	86	127	126	5
-8220	-3440	13204	-79	171	-155	-15800	1544	-5100	89	96	172	-2752	-5188	15800	126	-73	213	-7664	4524	14344	121	27	-205	-15760	1476	-3568	-8	74	-11	-2400	-2056	16676	268	76	100	127	126	5
-8312	-3352	13216	-61	177	-175	-15848	1568	-5312	160	43	246	-2828	-5060	15672	165	-96	153	-7700	4444	14268	89	-2	-188	-15708	1500	-3720	26	3	-69	-2452	-2064	16720	253	44	76	127	126	5
-8252	-3412	13280	-23	137	-138	-15760	1684	-5160	211	27	255	-2872	-4896	15772	98	-73	95	-7668	4520	14368	107	-35	-151	-15764	1488	-3604	81	-48	-78	-2392	-2216	16740	64	-11	-20	127	126	5
-8232	-3364	13272	-74	125	-141	-15724	1784	-5432	194	-53	260	-2880	-4896	15924	-50	-108	29	-7652	4512	14276	78	-5	-138	-15792	1568	-3724	108	-145	-130	-2360	-2264	16840	-54	-85	-29	127	126	5
-8296	-3296	13332	-105	166	-169	-15628	1792	-5116	61	-37	217	-2848	-4792	15864	-112	-111	-12	-7656	4516	14228	106	-26	-144	-15732	1536	-3596	65	-183	-143	-2292	-2296	16756	-60	-21	-53	127	126	5
-8252	-3332	13392	-118	124	-166	-15664	1944	-5220	106	-75	115	-2772	-4728	15980	-181	-132	62	-7620	4508	14328	152	-35	-121	-15752	1584	-3592	81	-202	-162	-2308	-2380	16752	-48	0	26	127	126	5
-8236	-3288	13192	-113	158	-183	-15652	2056	-5220	135	-108	70	-2768	-4844	16000	-264	-192	147	-7636	4540	14292	114	-47	-122	-15916	1464	-3392	85	-188	-179	-2260	-2412	16760	44	13	52	127	126	5
-8188	-3344	13256	-178	125	-214	-15684	1928	-5188	14	-139	50	-2644	-5012	15944	-177	-212	190	-7544	4580	14372	143	-16	-116	-15976	1500	-3276	29	-156	-113	-2080	-2416	16772	134	20	86	127	126	5
-8264	-3384	13376	-169	156	-205	-15720	1740	-5072	39	-83	-54	-2564	-5116	15808	-98	-191	206	-7564	4568	14408	119	-32	-133	-15948	1436	-3160	-43	-90	-94	-2032	-2408	16892	209	-12	70	127	126	5
-8188	-3416	13160	-201	170	-182	-15740	1684	-5056	82	-79	-47	-2544	-5168	15844	-75	-236	275	-7588	4500	14404	133	-48	-132	-15884	1444	-3248	-33	-5	-54	-2056	-2392	16816	227	2	61	127	126	5
-8168	-3372	13236	-158	158	-204	-15740	1648	-5056	-15	-35	25	-2512	-5344	15720	-49	-185	257	-7596	4576	14356	102	21	-167	-15876	1420	-3256	-7	-18	-33	-2156	-2376	16712	205	-8	2	127	126	5
-8200	-3420	13200	-118	146	-182	-15716	1568	-5008	-53	-9	35	-2540	-5472	15728	-26	-160	268	-7612	4464	14324	116	-45	-136	-15808	1376	-3364	-31	60	8	-2180	-2380	16800	192	-12	33	127	126	5
-8240	-3392	13268	-114	167	-171	-15796	1516	-5012	-6	19	101	-2544	-5456	15724	60	-161	264	-7608	4636	14424	142	-20	-150	-15888	1492	-3488	-30	64	2	-2208	-2440	16844	217	-39	27	127	126	5
-8268	-3368	13216	-78	168	-143	-15832	1576	-4996	72	6	190	-2552	-5328	15780	152	-127	227	-7608	4580	14332	110	52	-162	-15772	1504	-3420	-83	18	29	-2224	-2376	16712	269	-2	27	127	126	5
-8232	-3372	13268	-86	161	-137	-15792	1544	-5152	96	33	223	-2680	-5224	15748	182	-57	171	-7640	4496	14360	93	-22	-135	-15708	1452	-3492	-84	15	5	-2240	-2336	16744	304	28	26	127	126	5
-8228	-3380	13296	-79	143	-136	-15736	1588	-5220	122	51	264	-2704	-5104	15856	180	-63	145	-7656	4524	14232	117	6	-160	-15772	1372	-3652	54	-38	34	-2340	-2404	16724	282	22	-4	127	126	5
-8280	-3380	13280	-37	134	-129	-15772	1764	-5284	106	0	268	-2808	-5028	15904	85	-69	126	-7536	4520	14236	148	18	-181	-15808	1444	-3320	115	-37	14	-2300	-2300	16724	180	-14	-38	127	126	5
-8244	-3356	13236	-53	116	-162	-15692	1848	-5276	126	-14	261	-2848	-4892	15764	35	-79	128	-7568	4580	14344	131	-10	-123	-15888	1572	-3324	133	-54	18	-2240	-2304	16800	181	-27	-56	127	126	5
-8236	-3340	13252	-94	127	-151	-15752	1928	-5300	54	-53	212	-2816	-4876	15876	13	-85	177	-7576	4556	14356	138	-52	-139	-15856	1684	-3396	-105	-90	10	-2224	-2276	16804	220	-48	-4	127	126	5
-8276	-3308	13272	-60	171	-167	-15668	1972	-5088	32	-57	174	-2736	-4840	15864	37	-113	206	-7640	4480	14384	111	-2	-141	-15800	1584	-3384	-176	-46	6	-2208	-2212	16844	274	23	61	127	126	5
-8256	-3372	13252	-123	139	-201	-15704	1928	-5204	4	-44	91	-2688	-4884	15876	109	-145	244	-7596	4532	14348	101	-30	-145	-15832	1516	-3360	3	-52	-61	-2180	-2160	16748	285	13	90	127	126	5
-8196	-3464	13296	-184	123	-197	-15816	1812	-5088	23	17	89	-2620	-4868	15904	15	-166	257	-7628	4540	14304	114	3	-151	-15812	1516	-3360	71	-14	-68	-2172	-2068	16608	242	40	60	127	126	5
-8244	-3352	13284	-159	152	-211	-15752	1692	-5096	74	-24	12	-2572	-5012	15792	-99	-184	213	-7648	4532	14284	119	-65	-139	-15828	1504	-3472	37	-28	-74	-2232	-2180	16896	142	-23	0	127	126	5
-8272	-3352	13228	-119	166	-193	-15732	1668	-5120	70	-27	42	-2632	-5068	15812	-107	-156	152	-7608	4560	14308	88	10	-161	-15788	1568	-3436	52	-45	-135	-2280	-2196	16844	82	50	-19	127	126	5
-8312	-3440	13220	-102	168	-160	-15736	1712	-5036	135	-47	67	-2712	-5132	15708	-126	-96	120	-7688	4528	14320	103	-101	-140	-15840	1596	-3412	24	-38	-132	-2244	-2320	16800	21	25	24	127	126	5
-8272	-3440	13260	-119	144	-168	-15732	1676	-5140	95	-53	67	-2680	-5184	15796	-89	-126	101	-7624	4580	14316	92	-52	-165	-15940	1496	-3416	-17	-58	-166	-2288	-2332	16752	30	11	18	127	126	5
-8240	-3392	13296	-150	162	-181	-15736	1796	-5124	64	-37	91	-2752	-5096	15784	-64	-181	140	-7568	4480	14308	73	-34	-138	-15852	1448	-3344	-29	-26	-125	-2264	-2420	16824	125	0	55	127	126	5
-8244	-3432	13336	-147	160	-189	-15784	1748	-5092	40	-43	73	-2728	-5132	15820	16	-167	196	-7540	4496	14296	99	-24	-156	-15772	1396	-3452	-73	-46	-110	-2136	-2460	16904	111	-40	45	127	126	5
-8248	-3380	13236	-85	169	-174	-15724	1720	-5236	39	-54	42	-2736	-5168	15836	45	-129	246	-7612	4484	14352	122	8	-157	-15752	1408	-3620	-62	-11	-116	-2328	-2460	16740	213	30	145	127	126	5
-8256	-3392	13272	-147	143	-197	-15676	1608	-5252	-12	-64	85	-2704	-5116	15700	-2	-140	255	-7608	4484	14292	138	-48	-131	-15876	1416	-3352	47	-73	-117	-2356	-2412	16804	304	52	137	127	126	5
-8308	-3400	13196	-105	150	-179	-15636	1684	-5156	-72	-86	148	-2712	-5136	15724	-60	-170	252	-7580	4496	14236	132	-10	-132	-15884	1500	-3328	-27	-95	-110	-2244	-2468	16684	321	35	97	127	126	5
-8292	-3420	13156	-131	115	-190	-15804	1568	-5092	43	-66	95	-2732	-5132	15848	-59	-189	218	-7616	4536	14352	131	-6	-145	-15688	1508	-3564	-157	-165	-73	-2280	-2324	16836	241	-4	94	127	126	5
-8236	-3376	13264	-108	144	-203	-15796	1628	-5100	3	-95	120	-2788	-5084	15848	-59	-168	198	-7620	4540	14288	107	19	-139	-15776	1404	-3636	-55	-144	-110	-2260	-2264	16776	118	25	123	127	126	5
-8276	-3316	13240	-85	115	-171	-15640	1708	-5184	-36	-157	115	-2768	-5208	15816	-79	-240	181	-7616	4532	14316	178	-68	-122	-16024	1348	-3224	66	-181	-86	-2204	-2312	16760	46	61	74	127	126	5
-8192	-3400	13352	-112	117	-226	-15704	1820	-5068	-26	-142	152	-2616	-5084	15780	-32	-225	162	-7480	4572	14356	126	-52	-175	-15876	1580	-3244	74	-129	-102	-2048	-2400	16824	61	-2	64	127	126	5
-8228	-3380	13300	-103	82	-185	-15740	1728	-4984	-34	-139	131	-2660	-4936	15848	-21	-281	204	-7564	4568	14248	146	-63	-128	-15816	1600	-3252	-131	-77	-60	-1980	-2272	16896	146	-6	78	127	126	5
-8264	-3344	13208	-144	117	-185	-15864	1864	-4944	-81	-103	77	-2524	-4956	15912	65	-282	238	-7636	4560	14300	102	-22	-140	-15780	1500	-3316	-181	-76	-72	-2000	-2212	16772	239	81	87	127	126	5
-8188	-3336	13312	-111	140	-180	-15980	1792	-4848	-54	1	49	-2452	-4972	16004	67	-299	230	-7560	4532	14276	80	-41	-133	-15896	1276	-3160	-36	54	-55	-1900	-2264	16740	221	136	46	127	126	5
-8176	-3400	13316	-106	160	-158	-15900	1652	-4664	170	72	84	-2284	-5060	15940	10	-97	93	-7524	4580	14272	97	-36	-132	-15884	1228	-3252	0	61	-88	-1880	-2200	16692	32	71	-107	127	126	5
-8216	-3540	13200	-92	195	-164	-15832	1664	-4920	345	151	120	-2320	-5040	15816	-43	-41	53	-7624	4536	14412	97	11	-197	-15824	1464	-3164	320	164	53	-1976	-2308	16760	28	84	-201	127	126	5
-8212	-3480	13276	-111	196	-155	-15808	1704	-4940	356	218	104	-2456	-5076	15928	-65	-4	45	-7532	4516	14368	70	5	-189	-15892	1668	-3220	155	206	83	-2160	-2224	16696	-7	44	-234	127	126	5
-8248	-3388	13292	-48	216	-114	-15872	1724	-5076	256	245	122	-2640	-5268	15852	-68	87	12	-7580	4600	14312	46	28	-200	-16000	1576	-3380	-55	218	33	-2492	-2332	16864	118	71	-165	127	126	5
-8280	-3464	13316	-89	253	-112	-15712	1632	-5192	207	198	177	-2788	-5412	15668	41	35	59	-7600	4496	14408	52	0	-183	-15980	1504	-3536	-96	268	38	-2444	-2564	16728	252	9	-92	127	126	5
-8220	-3432	13192	-59	195	-137	-15680	1552	-5260	238	185	178	-2940	-5280	15704	120	-37	117	-7640	4568	14320	49	9	-200	-15796	1516	-3588	28	214	-49	-2584	-2408	16816	247	39	40	127	126	5
-8308	-3432	13316	-91	220	-156	-15596	1548	-5416	206	134	169	-2988	-5352	15776	198	-3	195	-7640	4468	14396	79	47	-194	-15676	1584	-3788	18	95	-105	-2772	-2420	16860	195	56	182	127	126	5
-8272	-3356	13292	-31	180	-127	-15528	1556	-5472	116	21	241	-3048	-5396	15716	201	-24	237	-7612	4404	14216	116	-11	-130	-15700	1592	-3952	-89	-26	-163	-2856	-2412	16588	371	85	206	127	126	5
-8328	-3364	13260	-34	117	-152	-15576	1624	-5476	-62	-83	279	-3048	-5112	15644	110	-46	238	-7600	4572	14372	104	-41	-124	-15776	1672	-3956	-76	-37	-161	-2812	-2620	16500	523	7	174	127	126	5
-8240	-3360	13248	-68	89	-176	-15664	1576	-5460	-1	-222	310	-3024	-5012	15696	-45	-175	209	-7604	4540	14368	124	-48	-125	-15788	1308	-3664	-194	-257	-85	-2592	-2820	16680	386	-146	154	127	126	5
-8256	-3436	13164	-74	69	-166	-15640	1832	-5316	8	-277	267	-2980	-4940	15792	-57	-253	204	-7600	4492	14236	182	-48	-98	-15780	1224	-3640	-149	-360	-58	-2464	-2776	16676	347	-198	132	127	126	5
-8224	-3316	13336	-111	88	-206	-15644	2040	-5128	-198	-331	192	-2764	-4896	15868	49	-299	275	-7596	4504	14344	207	-53	-120	-15676	1272	-3492	-46	-361	-4	-2144	-2528	16752	113	-91	106	127	126	5
-8192	-3336	13296	-147	45	-194	-15748	2060	-5156	-326	-264	145	-2480	-4828	15844	107	-269	353	-7588	4548	14380	204	-14	-83	-15780	1312	-3224	27	-403	27	-1980	-2424	16676	309	-79	53	127	126	5
-8220	-3348	13240	-144	85	-250	-15836	1896	-4848	-227	-178	60	-2304	-4856	15936	137	-321	347	-7592	4624	14376	255	-49	-102	-15928	1356	-3224	59	-327	110	-1776	-2380	16920	359	-61	-113	127	126	5
-8212	-3392	13292	-192	130	-222	-15996	1728	-4720	-8	-74	85	-2232	-4864	15968	106	-240	245	-7544	4624	14240	230	-25	-128	-15936	1356	-3072	161	-242	136	-1620	-2128	16796	373	16	-185	127	126	5
-8244	-3476	13280	-135	137	-210	-16052	1676	-4720	160	-2	72	-2244	-4960	15900	-39	-122	163	-7616	4572	14308	196	12	-152	-15864	1556	-3036	194	-168	174	-1756	-2016	16868	249	13	-238	127	126	5
-8240	-3440	13308	-82	222	-154	-15992	1708	-4776	283	96	45	-2372	-5152	15840	-224	-31	72	-7556	4636	14320	173	67	-122	-15808	1592	-3124	200	13	165	-1836	-1848	16796	106	64	-243	127	126	5
-8220	-3432	13292	-55	223	-139	-15804	1584	-5184	319	131	120	-2560	-5188	15820	-237	-18	35	-7548	4516	14364	151	53	-176	-15836	1800	-3200	110	53	88	-1984	-1748	16980	-106	8	-191	127	126	5
-8220	-3428	13356	-29	236	-147	-15744	1768	-5044	280	159	147	-2732	-5200	15804	-75	-12	55	-7612	4528	14244	89	25	-186	-15916	1912	-3344	209	140	30	-2348	-1616	16940	-72	116	-181	127	126	5
-8252	-3384	13208	-54	193	-114	-15640	1776	-5356	221	118	156	-2888	-5216	15800	4	43	7	-7568	4612	14364	46	-19	-172	-16012	2124	-3316	128	172	-116	-2556	-1648	17052	19	174	-49	127	126	5
-8252	-3364	13344	-64	204	-143	-15612	1724	-5356	152	83	147	-2900	-5168	15704	-15	153	127	-7592	4708	14384	-31	-15	-191	-15964	2196	-3468	-158	193	-324	-2844	-1860	16812	299	192	230	127	126	5
-8268	-3364	13216	-60	110	-199	-15488	1624	-5580	235	-48	137	-3092	-5056	15760	-161	58	138	-7696	4584	14284	-42	-77	-202	-15748	2064	-3680	-501	142	-515	-2864	-2076	16784	430	149	493	127	126	5
-8352	-3324	13232	-100	105	-210	-15352	1760	-5780	97	-216	99	-3288	-5108	15632	-288	-71	269	-7676	4600	14268	-73	-73	-228	-15824	1608	-3804	-460	53	-627	-2860	-2292	16688	352	55	712	127	126	5
-8348	-3280	13232	-192	99	-230	-15512	1852	-5684	-259	-369	56	-3160	-5160	15692	-231	-188	362	-7640	4516	14308	-75	-151	-233	-15956	1288	-3572	-365	-22	-648	-2760	-2488	16632	-57	-81	722	127	126	5
-8272	-3336	13228	-204	37	-254	-15864	2016	-5244	-400	-372	-22	-3144	-4908	15800	-88	-414	419	-7604	4496	14372	-75	-151	-216	-15740	1052	-3640	-369	-48	-573	-2212	-2864	16608	-251	-188	616	127	126	5
-8224	-3256	13296	-219	65	-251	-15940	2016	-4976	-391	-363	-93	-2580	-4776	15896	-39	-488	426	-7604	4424	14364	-13	-117	-171	-15672	884	-3452	-168	-65	-411	-1660	-2924	16668	-223	-184	414	127	126	5
-8232	-3396	13200	-225	82	-319	-16132	1900	-4632	-318	-263	-84	-2008	-4824	16108	112	-395	319	-7544	4460	14416	69	-96	-136	-15736	812	-3164	-115	-32	-246	-1488	-2948	16712	-60	-108	195	127	126	5
-8124	-3548	13320	-230	135	-253	-15932	1696	-4472	107	-153	-139	-1808	-4948	16068	-2	-223	271	-7564	4472	14280	90	-18	-159	-15836	788	-3140	-149	-17	-14	-1520	-3096	16748	173	-69	-42	127	126	5
-8248	-3420	13276	-195	199	-234	-15800	1772	-4676	237	-11	-143	-1952	-5156	15860	-138	-76	288	-7532	4540	14348	157	5	-129	-15988	840	-3196	15	64	163	-1760	-2908	16736	385	23	-215	127	126	5
-8200	-3400	13280	-157	253	-216	-15868	1672	-4616	-5	132	-129	-2024	-5176	15824	-196	-49	255	-7544	4492	14344	176	145	-157	-15976	1248	-3216	159	156	228	-2132	-2600	16724	580	65	-265	127	126	5
-8176	-3264	13404	-184	254	-164	-16036	1500	-4948	108	149	-3	-2664	-5580	15576	-275	-154	340	-7540	4576	14400	192	122	-125	-15924	1456	-3424	86	169	284	-2360	-2452	16828	699	91	-253	127	126	5
-8296	-3416	13220	-82	245	-132	-15928	1344	-5132	54	215	7	-2820	-5808	15504	-19	-59	281	-7604	4528	14260	190	24	-137	-15852	1596	-3556	60	152	259	-2680	-2276	16616	597	40	-153	127	126	5
-8232	-3404	13316	-101	223	-145	-15728	1140	-5324	136	174	134	-2820	-5848	15472	308	-83	196	-7640	4464	14308	165	47	-166	-15720	1604	-3756	150	94	204	-2812	-2012	16620	447	9	-37	127	126	5
-8284	-3440	13188	-65	204	-133	-15660	1152	-5312	113	133	320	-2904	-5740	15496	496	-148	152	-7568	4480	14340	167	-26	-152	-15680	1636	-3884	124	-75	109	-2736	-2080	16816	224	-99	-7	127	126	5
-8332	-3488	13264	13	104	-144	-15684	1184	-5328	187	28	387	-2928	-5404	15608	465	-121	75	-7628	4532	14340	140	-11	-140	-15672	1556	-3892	70	-189	32	-2788	-2108	16780	135	-123	21	127	126	5
-8236	-3488	13276	61	77	-120	-15748	1492	-5292	164	-55	459	-3008	-5060	15768	251	-49	19	-7688	4532	14404	194	-34	-128	-15836	1456	-3616	120	-319	-60	-2520	-2188	16832	114	-56	-36	127	126	5
-8248	-3352	13184	23	72	-113	-15724	1804	-5188	109	-129	439	-2904	-4720	15824	-41	-73	-9	-7560	4532	14296	197	-74	-128	-15888	1528	-3232	66	-333	-51	-2224	-2296	16772	104	-54	-28	127	126	5
-8224	-3360	13188	-34	58	-147	-15676	2136	-5280	57	-206	364	-2712	-4620	15968	-165	-147	11	-7632	4536	14332	214	-33	-112	-15948	1484	-3224	-73	-277	-49	-1884	-2464	16884	91	-87	-5	127	126	5
-8220	-3304	13272	-81	76	-180	-15696	2360	-4984	-20	-200	203	-2600	-4592	15964	-78	-186	124	-7600	4588	14400	151	-34	-93	-15936	1412	-2980	-56	-142	-5	-1736	-2364	16808	253	-58	28	127	126	5
-8164	-3288	13360	-175	96	-212	-15764	2348	-4896	-32	-89	81	-2420	-4620	16004	110	-244	242	-7516	4560	14420	160	3	-131	-15920	1380	-3128	-5	-3	75	-1756	-2420	16852	302	16	50	127	126	5
-8196	-3320	13260	-172	168	-209	-15836	2164	-4796	-44	-1	-62	-2348	-4648	15980	98	-222	302	-7584	4576	14380	101	8	-152	-15904	1384	-3080	64	98	121	-1808	-2272	16824	324	11	19	127	126	5
-8172	-3388	13208	-207	191	-240	-15804	1848	-4876	9	72	-98	-2392	-4940	15816	164	-181	391	-7524	4512	14440	115	45	-193	-15928	1408	-3252	122	179	128	-1856	-2268	16868	441	259	-75	127	126	5
-8228	-3376	13244	-187	222	-196	-15868	1588	-4984	66	107	-114	-2460	-4952	15816	24	-197	365	-7596	4564	14324	73	2	-182	-15824	1600	-3312	121	232	144	-2136	-1956	16864	297	30	-158	127	126	5
-8228	-3500	13220	-155	229	-192	-15940	1500	-4952	99	124	-47	-2652	-5168	15828	-121	-164	203	-7600	4564	14380	98	44	-170	-15876	1744	-3524	10	245	102	-2336	-1820	16812	318	137	-164	127	126	5
-8260	-3452	13332	-126	238	-172	-15816	1448	-5100	109	128	9	-2720	-5296	15756	-154	-79	117	-7620	4484	14464	51	36	-162	-15836	1892	-3636	-110	259	-36	-2552	-1864	16844	176	91	-61	127	126	5
-8308	-3460	13212	-115	207	-142	-15864	1452	-5256	152	94	35	-2844	-5372	15648	-74	-49	86	-7616	4576	14408	66	14	-179	-15728	1764	-3700	-171	175	-161	-2728	-1940	16744	-50	38	47	127	126	5
-8260	-3388	13220	-79	196	-165	-15788	1472	-5216	178	33	46	-2888	-5304	15664	-13	-98	94	-7632	4540	14292	-4	-47	-191	-15700	1568	-3764	-87	85	-282	-2724	-2288	16796	-117	-23	182	127	126	5
-8248	-3424	13320	-113	188	-184	-15676	1564	-5336	189	-43	100	-2948	-5180	15748	-43	-108	116	-7664	4484	14392	10	-70	-206	-15632	1488	-3836	121	-48	-342	-2672	-2316	16772	-106	-23	222	127	126	5
-8256	-3356	13160	-96	133	-187	-15804	1564	-5320	103	-73	134	-2892	-5240	15836	-129	-191	94	-7668	4448	14308	50	-118	-155	-15688	1464	-3700	236	-144	-403	-2564	-2440	16732	-194	15	270	127	126	5
-8256	-3464	13304	-91	131	-191	-15696	1572	-5248	147	-128	127	-2852	-5160	15860	-241	-124	95	-7564	4528	14368	78	-85	-161	-15828	1320	-3664	36	-270	-401	-2520	-2636	16636	-306	-56	231	127	126	5
-8292	-3440	13172	-87	129	-179	-15780	1664	-5160	117	-203	144	-2712	-5152	15824	-295	-143	78	-7604	4464	14380	99	-21	-149	-15880	1192	-3552	-165	-338	-349	-2268	-2872	16612	-214	-39	161	127	126	5
-8264	-3404	13332	-156	128	-207	-15792	1748	-5036	77	-180	97	-2528	-5136	15804	-293	-141	91	-7584	4496	14392	142	-42	-98	-15800	1152	-3528	-201	-364	-221	-2128	-2836	16780	-81	-93	118	127	126	5
-8248	-3488	13360	-112	138	-201	-15836	1804	-4916	48	-126	117	-2428	-5244	15824	-178	-174	143	-7596	4504	14356	166	-91	-79	-15876	1060	-3392	-10	-352	-149	-2072	-2852	16660	-19	-6	74	127	126	5
-8236	-3400	13264	-142	170	-210	-15836	1668	-4944	69	-31	85	-2292	-5404	15884	-88	-118	161	-7556	4540	14436	191	-8	-104	-15936	1064	-3204	174	-319	-37	-2004	-2812	16708	3	8	0	127	125	5
-8236	-3432	13352	-85	157	-158	-15760	1456	-4988	123	8	153	-2408	-5452	15848	-33	-56	181	-7608	4488	14412	253	25	-117	-15968	1092	-3088	285	-247	95	-1940	-2644	16812	223	9	-53	127	125	5
-8224	-3448	13268	-90	160	-160	-15852	1420	-4884	151	31	211	-2504	-5420	15620	-9	23	203	-7520	4564	14340	208	55	-120	-15876	1436	-3212	189	-167	134	-2072	-2452	16760	450	95	-121	127	126	5
-8276	-3520	13220	-80	136	-149	-15772	1500	-5032	103	30	231	-2596	-5476	15720	11	-62	181	-7544	4536	14340	166	23	-133	-15876	1576	-3248	32	-101	166	-2284	-2408	16700	560	5	-132	127	126	5
-8236	-3496	13332	-28	159	-131	-15844	1576	-5096	97	80	320	-2644	-5480	15692	16	-26	198	-7580	4500	14368	202	75	-116	-15824	1408	-3304	-89	-53	178	-2316	-2372	16648	417	-92	-76	127	126	5
-8220	-3448	13168	-16	142	-101	-15780	1584	-5096	45	92	320	-2624	-5448	15756	209	-154	148	-7576	4524	14336	162	3	-141	-15928	1436	-3432	-23	-60	162	-2412	-2324	16720	375	-62	1	127	126	5
-8276	-3484	13284	-28	143	-120	-15796	1668	-5132	70	81	345	-2588	-5408	15728	409	-111	229	-7572	4512	14416	172	-9	-105	-15800	1420	-3472	91	-75	130	-2300	-2484	16684	259	-76	49	127	126	5
-8252	-3456	13364	-20	163	-135	-15680	1504	-5200	99	91	405	-2708	-5380	15808	410	-84	218	-7584	4472	14380	169	-32	-127	-15952	1332	-3396	153	-46	163	-2256	-2600	16644	368	-12	28	127	126	5
-8268	-3440	13236	33	104	-130	-15648	1480	-5220	91	47	460	-2704	-5192	15764	410	-59	226	-7600	4580	14400	193	38	-112	-15956	1436	-3276	-13	-90	221	-2236	-2664	16776	543	-93	0	127	126	5
-8240	-3420	13288	51	83	-132	-15768	1672	-5116	56	1	419	-2756	-5052	15836	351	-73	239	-7520	4560	14308	185	40	-140	-15776	1448	-3416	-170	-87	310	-2116	-2520	16892	721	-66	-36	127	126	5
-8276	-3360	13428	11	115	-154	-15772	1884	-5136	-25	36	431	-2724	-4980	15900	307	-71	265	-7584	4572	14240	227	36	-128	-15700	1412	-3492	-202	-137	296	-2120	-2388	16860	738	-6	-63	127	126	5
-8244	-3260	13212	17	138	-109	-15724	1796	-5048	-48	12	438	-2620	-4940	15804	348	-89	208	-7528	4536	14348	242	19	-81	-15816	1268	-3488	30	-129	362	-2112	-2292	16736	542	53	-108	127	126	5
-8276	-3408	13296	44	106	-100	-15760	1736	-5060	90	26	413	-2640	-4892	15864	333	-62	137	-7584	4528	14360	248	34	-123	-15812	1356	-3256	239	-147	319	-2140	-2184	16752	341	17	-229	127	126	5
-8188	-3416	13252	-20	77	-131	-15776	1888	-5148	209	9	365	-2768	-4712	15912	345	-40	139	-7628	4532	14316	238	80	-145	-15860	1592	-3220	344	-82	334	-2112	-2000	16768	396	-34	-316	127	126	5
-8212	-3404	13240	-34	136	-167	-15868	2064	-5040	102	51	279	-2672	-4560	15952	185	-70	115	-7640	4624	14344	211	58	-111	-15868	1728	-3172	244	-60	285	-2148	-1816	16832	366	-19	-337	127	126	5
-8220	-3324	13288	-45	142	-154	-15760	2036	-5168	94	36	215	-2780	-4512	15992	51	-68	94	-7604	4628	14368	190	15	-127	-15888	1800	-3264	59	-12	256	-2100	-1688	16976	233	-25	-301	127	126	5
-8192	-3328	13252	-108	162	-161	-15656	2000	-5300	199	38	157	-2800	-4544	16012	-93	-63	89	-7628	4656	14312	114	14	-142	-15848	1912	-3144	135	74	146	-2152	-1652	16936	165	80	-250	127	126	5
-8248	-3292	13404	-118	176	-145	-15740	2104	-5188	196	22	26	-2864	-4552	15972	-155	-110	99	-7660	4624	14264	126	-15	-164	-15844	2120	-3112	86	95	-1	-2344	-1384	16896	105	66	-146	127	126	5
-8264	-3344	13352	-182	200	-173	-15772	2188	-5212	102	-71	-79	-2864	-4612	15932	-201	-142	148	-7684	4612	14204	34	-17	-166	-15808	2232	-3228	19	144	-162	-2432	-1392	16984	48	85	31	126	126	5
-8244	-3316	13124	-186	218	-207	-15716	2020	-5232	84	-37	-130	-2896	-4796	15880	-225	-128	188	-7676	4644	14292	-44	-42	-175	-15884	2128	-3324	-133	185	-365	-2460	-1640	16876	-10	97	173	127	126	5
-8264	-3324	13232	-240	234	-203	-15688	1780	-5252	108	-73	-150	-2928	-4916	15828	-295	-139	161	-7600	4616	14308	-63	-65	-221	-15964	1744	-3260	-194	216	-471	-2328	-1956	16828	-167	38	248	127	126	5
-8240	-3476	13244	-273	210	-269	-15752	1708	-5296	121	-158	-218	-2804	-5004	15756	-336	-208	155	-7588	4608	14272	-84	-107	-203	-15904	1604	-3252	-30	231	-584	-2288	-2104	16772	-234	12	283	127	126	5
-8244	-3432	13300	-260	194	-257	-15708	1692	-5180	65	-180	-221	-2828	-5120	15784	-303	-219	179	-7628	4572	14328	-75	-113	-210	-15860	1708	-3380	-124	261	-596	-2300	-2344	16720	-184	-8	322	127	126	5
-8276	-3452	13296	-270	192	-264	-15660	1640	-5216	-11	-186	-227	-2660	-5228	15772	-335	-235	225	-7548	4568	14292	-102	-81	-281	-15820	1552	-3404	-415	246	-554	-2344	-2560	16748	-101	24	384	127	126	5
-8324	-3436	13164	-234	184	-274	-15644	1636	-5116	-64	-185	-226	-2608	-5320	15784	-291	-197	271	-7588	4568	14272	-81	-111	-234	-15888	1240	-3532	-429	219	-564	-2324	-2652	16752	34	21	450	127	126	5
-8212	-3384	13332	-214	161	-240	-15764	1556	-5100	-82	-154	-175	-2692	-5532	15520	-191	-258	334	-7556	4552	14336	-47	-71	-206	-15808	1096	-3720	-294	144	-478	-2512	-2840	16564	100	32	401	127	126	5
-8272	-3512	13248	-179	180	-218	-16120	1444	-4920	33	-133	-45	-2976	-5420	15488	-6	-218	238	-7584	4476	14372	-9	-71	-172	-15736	1000	-3644	-104	91	-354	-2508	-2844	16564	233	-87	250	127	126	5
-8232	-3548	13160	-152	133	-242	-15600	1268	-5024	84	-102	-18	-2208	-5280	15904	-85	-398	234	-7628	4504	14416	36	-57	-154	-15468	1080	-3760	-60	-81	-303	-2212	-2960	16772	111	-131	202	127	126	5
-8280	-3560	13052	-170	137	-157	-15636	1320	-4728	7	-32	-35	-1656	-5528	16044	-306	-155	284	-7560	4436	14392	94	-54	-151	-15600	956	-3624	135	-161	-207	-1884	-2832	16660	-36	-31	247	127	126	5
-8172	-3456	13328	-78	186	-155	-15872	1388	-4684	70	21	102	-2316	-5696	15792	-16	168	210	-7584	4444	14448	147	-20	-83	-15912	908	-3400	125	-143	-154	-2024	-3016	16764	-283	-2	146	127	126	5
-8280	-3336	13152	-47	169	-158	-15960	1308	-5076	239	121	244	-2848	-5672	15332	-137	190	149	-7576	4504	14324	209	-26	-88	-15984	1128	-3248	-91	-167	96	-2132	-3252	16796	97	20	-113	127	126	5
-8244	-3408	13284	13	131	-106	-16148	1364	-5116	254	135	343	-3080	-5708	15528	-9	9	64	-7608	4496	14356	238	-5	-107	-15900	1140	-3516	-56	-175	337	-2492	-2736	16900	597	33	-342	127	126	5
-8280	-3448	13332	20	142	-85	-15844	1420	-5196	228	87	419	-2788	-5476	15724	202	4	53	-7572	4532	14396	233	57	-138	-15764	1352	-3568	223	-214	273	-2452	-2340	16556	585	-8	-283	127	126	5
-8300	-3400	13232	45	129	-84	-15548	1516	-5136	212	57	456	-2584	-5304	15780	320	17	-31	-7636	4564	14288	244	30	-141	-15800	1444	-3572	307	-244	254	-2496	-2324	16624	327	-96	-171	127	126	5
-8292	-3352	13164	54	136	-98	-15408	1660	-5124	279	14	483	-2536	-5324	15816	390	19	-5	-7580	4508	14352	224	7	-38	-15848	1548	-3364	359	-255	208	-2324	-2336	16776	128	-113	-73	127	126	5
-8224	-3404	13312	18	70	-126	-15604	1944	-5140	120	54	448	-2780	-5076	15772	329	26	121	-7608	4548	14356	247	12	-123	-16056	1600	-3152	301	-212	189	-2204	-2284	16824	354	-100	-26	127	126	5
-8192	-3388	13216	-12	122	-139	-15756	1928	-5248	-17	-15	402	-2944	-4928	15764	236	-24	233	-7552	4576	14300	212	2	-110	-16072	1728	-3124	-109	-135	233	-2156	-2228	16744	470	-150	-40	127	126	5
-8176	-3380	13244	-3	124	-137	-15864	1984	-5080	-73	12	333	-2944	-4752	15792	180	-147	297	-7672	4624	14340	212	0	-111	-15900	1616	-3088	-347	-79	267	-2048	-2084	16900	497	-102	-62	127	126	5
-8192	-3316	13324	-50	130	-135	-15736	1984	-5048	-57	50	242	-2764	-4696	15864	207	-224	296	-7628	4588	14376	140	38	-178	-15812	1472	-3312	-207	8	211	-2056	-2076	16620	574	3	-109	127	126	5
-8220	-3272	13296	-75	146	-168	-15764	1960	-5068	68	35	207	-2616	-4724	15988	216	-166	194	-7632	4516	14348	158	32	-149	-15716	1484	-3512	232	-2	123	-2140	-2028	16768	366	29	-70	127	126	5
-8308	-3324	13352	-111	149	-181	-15756	1884	-5056	137	43	174	-2472	-4824	15932	187	-124	178	-7600	4592	14308	108	46	-155	-15760	1656	-3444	353	1	82	-2176	-2048	16816	263	-29	-52	127	126	5
-8260	-3372	13264	-112	152	-170	-15848	1740	-4908	122	77	137	-2584	-4924	15860	145	-77	140	-7620	4588	14272	91	8	-114	-15840	1668	-3288	196	-6	54	-2220	-1936	16776	237	-61	-82	127	126	5
-8304	-3364	13276	-66	179	-184	-15844	1696	-5044	171	102	147	-2676	-5060	15680	-36	-79	94	-7624	4536	14360	116	9	-166	-15796	1636	-3304	50	9	16	-2196	-2036	16820	106	-74	-102	127	126	5
-8232	-3388	13368	-85	204	-184	-15888	1716	-5092	158	116	131	-2816	-5124	15708	-180	-160	115	-7632	4496	14364	125	37	-152	-15860	1620	-3460	-11	3	-19	-2180	-1968	16848	27	30	-131	127	126	5
-8272	-3380	13252	-54	171	-140	-15740	1684	-5232	236	68	152	-2708	-5072	15716	-144	-146	20	-7636	4572	14380	102	7	-126	-15808	1680	-3444	31	50	-70	-2212	-2112	16792	-71	-5	-126	127	126	5
-8280	-3348	13200	-72	192	-137	-15704	1728	-5216	251	51	131	-2740	-5080	15740	-76	-147	19	-7620	4516	14340	105	-31	-170	-15860	1652	-3352	45	74	-94	-2324	-2240	16920	-68	-2	-91	127	126	5
-8276	-3384	13328	-112	191	-158	-15668	1840	-5196	244	16	127	-2776	-5064	15756	-11	-114	44	-7620	4584	14316	54	-5	-161	-15900	1544	-3264	155	76	-161	-2264	-2296	16828	31	-27	-17	127	127	5
-8260	-3344	13284	-122	192	-143	-15720	1852	-5184	136	52	94	-2740	-5132	15828	10	-110	104	-7544	4580	14340	101	-43	-196	-15860	1496	-3300	29	77	-186	-2244	-2416	16832	113	-19	31	127	126	5
-8308	-3420	13308	-115	184	-196	-15764	1844	-5288	25	34	71	-2780	-5176	15796	25	-157	169	-7604	4544	14332	58	9	-178	-15776	1540	-3516	-102	69	-169	-2328	-2460	16752	148	-20	141	127	126	5
-8216	-3408	13324	-114	196	-132	-15772	1668	-5180	31	27	63	-2748	-5132	15724	5	-188	177	-7608	4524	14348	65	11	-159	-15848	1408	-3400	-69	63	-160	-2312	-2504	16620	91	69	102	126	126	5
-8268	-3408	13212	-81	157	-163	-15820	1608	-5188	116	25	71	-2728	-5144	15688	17	-212	170	-7564	4540	14292	82	-40	-162	-15812	1364	-3484	16	53	-108	-2312	-2560	16656	50	-14	32	127	126	5
-8320	-3360	13172	-87	166	-171	-15636	1680	-5292	123	36	78	-2796	-5112	15704	-15	-183	141	-7596	4564	14340	124	-47	-158	-15824	1468	-3580	9	21	-91	-2392	-2448	16792	104	-24	-59	127	126	5
-8288	-3448	13288	-110	160	-167	-15684	1704	-5128	86	23	129	-2768	-5088	15840	-29	-189	161	-7608	4544	14304	122	-44	-164	-15764	1556	-3724	-57	-20	-75	-2332	-2348	16800	223	-1	-12	127	126	5
-8216	-3296	13236	-114	135	-180	-15708	1728	-5208	55	-24	107	-2760	-5056	15716	-10	-218	118	-7612	4508	14368	92	22	-161	-15804	1576	-3668	-42	-41	-79	-2412	-2360	16764	231	17	46	127	126	5
-8268	-3452	13180	-112	147	-180	-15688	1760	-5256	20	-83	108	-2780	-5248	15616	-70	-218	194	-7664	4540	14376	120	-39	-160	-15844	1560	-3612	-26	-128	-180	-2536	-2408	16832	165	54	116	127	126	5
-8340	-3464	13316	-114	130	-184	-15656	1708	-5240	41	-91	86	-2832	-5256	15652	-61	-235	218	-7664	4548	14296	146	-77	-105	-15892	1516	-3516	-6	-128	-174	-2380	-2536	16724	243	72	224	127	126	5
-8276	-3396	13320	-127	125	-194	-15620	1732	-5272	-22	-155	73	-2832	-5176	15668	-94	-366	313	-7536	4564	14324	82	-44	-137	-15876	1452	-3404	-76	-148	-189	-2140	-2620	16744	357	41	276	127	126	5
-8268	-3384	13216	-160	93	-166	-15656	1752	-5152	-207	-160	56	-2736	-5128	15804	-62	-390	344	-7660	4548	14260	143	-39	-141	-15780	1376	-3244	-176	-173	-112	-2112	-2468	16768	391	-10	205	127	126	5
-8216	-3396	13352	-151	84	-198	-15824	1640	-5036	-167	-161	94	-2520	-5256	15804	204	-148	297	-7580	4524	14284	113	-19	-115	-15868	1320	-3448	-187	-168	-36	-2248	-2432	16832	460	-5	113	127	126	5
-8180	-3472	13252	-125	146	-216	-15836	1580	-4948	-94	-152	129	-2456	-5204	15740	203	-135	264	-7600	4488	14276	128	-7	-149	-15868	1336	-3424	-122	-159	-38	-2264	-2464	16788	432	15	59	127	126	5
-8232	-3404	13132	-95	137	-205	-15784	1504	-5048	76	-108	169	-2436	-5072	15768	-5	-187	191	-7600	4536	14304	171	32	-110	-15848	1380	-3316	31	-166	17	-2132	-2360	16800	386	18	-12	127	126	5
-8244	-3404	13320	-88	110	-185	-15756	1624	-5052	73	-81	141	-2356	-5076	15852	-146	-160	156	-7640	4496	14240	152	4	-120	-15640	1376	-3320	147	-170	6	-1784	-2176	16772	152	-18	-60	127	126	5
-8228	-3368	13220	-71	143	-196	-15860	1720	-5040	177	-41	178	-2528	-5120	15968	-65	-80	100	-7616	4604	14336	193	-43	-148	-15684	1496	-3316	123	-164	13	-2024	-2208	16808	50	-8	-89	127	126	5
-8252	-3352	13296	-88	144	-147	-15924	1748	-4996	183	-38	208	-2476	-5220	15756	44	4	91	-7480	4592	14344	137	22	-161	-16020	1564	-3048	98	-77	101	-2056	-2252	16888	-54	-85	-92	127	126	5
-8252	-3300	13396	-71	172	-153	-15776	1776	-5000	138	70	171	-2480	-5232	15688	100	14	149	-7608	4612	14352	174	-30	-138	-15876	1616	-3388	-30	67	65	-2128	-2272	16940	216	32	-17	127	126	5
-8284	-3348	13380	-53	188	-173	-15744	1792	-4996	119	112	208	-2632	-5132	15644	126	-49	177	-7616	4564	14320	125	-39	-152	-15844	1588	-3472	-70	104	62	-2236	-2272	16676	350	-1	-28	127	126	5
-8236	-3380	13236	-33	199	-161	-15748	1628	-5128	162	93	184	-2696	-5184	15692	114	-41	148	-7556	4568	14456	95	-18	-160	-15784	1512	-3464	14	41	54	-2432	-2296	16760	348	13	-7	127	126	5
-8244	-3424	13236	-38	195	-145	-15704	1624	-5292	166	74	228	-2892	-5188	15700	179	-39	118	-7568	4604	14372	117	22	-154	-15804	1460	-3544	86	10	-10	-2504	-2252	16720	235	-35	16	127	126	5
-8288	-3412	13184	-12	170	-127	-15676	1672	-5328	156	8	252	-2888	-5232	15792	70	-82	130	-7616	4520	14412	118	2	-152	-15848	1552	-3620	95	-58	-13	-2596	-2328	16744	146	-26	25	127	126	5
-8252	-3368	13292	-13	147	-166	-15708	1696	-5344	45	-35	254	-2980	-5136	15728	61	-103	181	-7640	4492	14460	161	-29	-133	-15816	1548	-3592	-42	-140	-42	-2544	-2504	16860	127	-69	23	127	126	5
-8308	-3356	13128	-43	125	-148	-15664	1824	-5260	77	-71	235	-2856	-4988	15728	-29	-190	160	-7660	4484	14388	126	-5	-148	-15816	1340	-3540	39	-174	-34	-2308	-2588	16708	134	-105	2	127	126	5
-8260	-3380	13316	-96	105	-183	-15664	1836	-5300	17	-81	207	-2744	-4916	15880	2	-210	173	-7608	4552	14320	190	-12	-127	-15736	1520	-3456	43	-243	-14	-2088	-2388	16836	203	-73	25	127	126	5
-8300	-3332	13228	-96	113	-179	-15704	1952	-5248	-14	-158	199	-2660	-4876	15932	62	-137	176	-7632	4568	14320	171	-27	-113	-15796	1584	-3292	28	-236	11	-2064	-2256	16852	276	-20	16	127	126	5
-8228	-3352	13244	-101	117	-169	-15744	1852	-5148	0	-117	127	-2580	-4952	15868	61	-120	184	-7568	4572	14400	157	0	-102	-15940	1560	-3296	-24	-205	-42	-2132	-2192	16824	279	72	26	127	126	5
-8276	-3368	13244	-105	149	-205	-15728	1872	-5100	4	-111	83	-2616	-4980	15816	0	-128	233	-7624	4544	14280	163	5	-105	-15848	1580	-3272	-162	-200	-43	-2196	-2208	16776	398	7	69	127	126	5
-8212	-3312	13268	-128	132	-183	-15812	1796	-5008	-62	-128	62	-2668	-5044	15740	-127	-207	290	-7612	4600	14324	114	-4	-140	-15944	1508	-3360	-70	-133	-53	-2132	-2168	16788	328	26	64	127	126	5
-8160	-3440	13184	-135	146	-179	-15836	1768	-4928	-10	-103	7	-2560	-5064	15792	-81	-274	220	-7560	4588	14376	129	-15	-148	-15928	1396	-3104	153	-53	-44	-1976	-2180	16712	169	-29	47	127	126	5
-8228	-3400	13264	-130	124	-193	-15868	1656	-5016	8	-6	45	-2568	-5116	15836	14	-189	187	-7588	4588	14272	118	24	-156	-15892	1632	-2996	148	3	-87	-1888	-2112	16776	-3	-16	51	127	126	5
-8220	-3448	13260	-102	156	-217	-15700	1688	-4980	103	-15	62	-2452	-5112	15700	90	-154	181	-7644	4604	14292	77	16	-163	-15804	1696	-3224	-6	64	-52	-1984	-2036	16812	-24	11	40	127	126	5
-8240	-3436	13280	-122	164	-199	-15696	1744	-5064	79	0	99	-2500	-5108	15760	125	-109	179	-7596	4564	14332	48	-42	-144	-15908	1652	-3248	-94	86	-50	-2188	-2120	16800	91	47	58	127	126	5
-8220	-3452	13136	-129	165	-180	-15776	1712	-5156	54	11	87	-2596	-5040	15764	-11	-113	196	-7608	4572	14380	57	-24	-175	-15860	1584	-3452	-102	114	-140	-2328	-2152	16776	180	28	74	127	126	5
-8228	-3412	13288	-109	191	-160	-15856	1756	-5128	24	2	84	-2764	-5064	15864	-67	-152	153	-7636	4512	14348	76	-1	-192	-15884	1532	-3524	-1	119	-158	-2380	-2316	16724	210	90	59	127	126	5
-8240	-3308	13268	-129	173	-172	-15764	1664	-5196	110	3	54	-2792	-5116	15764	-127	-169	158	-7600	4516	14264	67	-25	-194	-15764	1448	-3380	89	86	-160	-2376	-2432	16772	89	17	80	127	126	5
-8232	-3352	13296	-142	184	-185	-15704	1692	-5188	156	-3	98	-2672	-5288	15752	-49	-158	161	-7552	4520	14296	67	-5	-198	-15896	1460	-3504	-8	14	-137	-2232	-2476	16784	100	7	85	127	126	5
-8288	-3440	13264	-131	182	-164	-15692	1636	-5100	161	-28	108	-2656	-5264	15756	81	-96	151	-7552	4608	14252	84	-42	-148	-15760	1432	-3452	-77	43	-130	-2292	-2508	16792	147	21	89	127	126	5
-8292	-3368	13248	-124	155	-189	-15668	1672	-5240	78	-5	130	-2700	-5124	15696	40	-113	182	-7620	4524	14344	73	-13	-170	-15772	1404	-3600	-62	23	-111	-2224	-2620	16716	140	30	108	127	126	5
-8276	-3416	13304	-105	175	-180	-15708	1648	-5328	82	-8	105	-2712	-5180	15756	10	-142	220	-7636	4512	14284	115	-38	-160	-15772	1328	-3552	-35	-34	-81	-2392	-2580	16672	192	18	57	127	126	5
-8256	-3324	13176	-87	136	-170	-15852	1576	-5140	-63	23	171	-2772	-5252	15776	39	-143	190	-7600	4440	14388	137	36	-128	-15860	1352	-3572	-7	-124	-17	-2424	-2552	16756	259	3	11	127	126	5
-8280	-3384	13332	-83	154	-201	-15816	1608	-5016	71	-58	183	-2624	-5188	15716	79	-101	192	-7568	4524	14376	159	9	-122	-15784	1384	-3516	121	-133	-4	-2316	-2480	16780	216	-69	-4	127	126	5
-8344	-3468	13292	-58	136	-197	-15836	1596	-5080	146	1	215	-2504	-5212	15696	66	-63	122	-7548	4588	14336	157	10	-147	-15844	1460	-3428	119	-201	46	-2140	-2412	16824	198	-43	-63	127	126	5
-8236	-3388	13316	-53	139	-180	-15792	1576	-5092	208	-8	269	-2548	-5204	15840	31	-46	114	-7576	4512	14384	190	27	-136	-15776	1428	-3368	52	-132	72	-2100	-2388	16728	232	-43	-57	127	126	5
-8240	-3356	13212	-18	167	-127	-15804	1788	-5104	237	28	252	-2576	-5164	15820	42	-76	138	-7552	4576	14364	176	-10	-106	-15832	1464	-3260	79	-100	85	-2144	-2348	16860	177	-53	-75	127	126	5
-8304	-3424	13260	-44	147	-136	-15708	1764	-5108	168	4	273	-2700	-5172	15796	47	-69	133	-7500	4596	14340	184	-23	-129	-15988	1544	-3212	168	-45	126	-2200	-2228	16840	174	-105	-86	127	126	5
-8240	-3292	13188	-58	142	-135	-15608	1852	-5232	69	-5	251	-2776	-5024	15740	79	-124	175	-7612	4640	14224	171	-61	-128	-15892	1784	-3244	35	-24	58	-2276	-2128	16808	239	-64	-64	127	126	5
-8188	-3416	13336	-56	122	-159	-15660	1984	-5264	19	-26	202	-2908	-4944	15856	122	-192	212	-7620	4652	14260	129	31	-173	-15828	1788	-3372	-110	-16	17	-2296	-2008	16816	239	-10	72	127	126	5
-8232	-3352	13280	-94	115	-196	-15628	1844	-5356	-56	-55	132	-2924	-4860	15864	114	-178	263	-7668	4616	14320	102	7	-129	-15684	1752	-3564	-229	-53	-57	-2520	-2080	16740	312	-4	145	127	126	5
-8264	-3292	13308	-125	139	-187	-15772	1856	-5216	-126	-113	83	-2936	-4844	15836	87	-164	286	-7656	4488	14304	96	-45	-163	-15756	1540	-3788	-95	-149	-179	-2572	-2208	16728	227	5	159	127	126	5
-8228	-3356	13256	-129	142	-222	-15708	1712	-5308	127	-159	88	-2920	-4912	15728	-123	-232	199	-7604	4540	14304	113	13	-147	-15884	1332	-3596	264	-219	-209	-2464	-2228	16676	79	-1	54	127	126	5
-8280	-3412	13212	-161	119	-213	-15644	1744	-5220	84	-212	17	-2732	-4900	15868	-257	-286	92	-7584	4516	14328	140	-30	-114	-15832	1556	-3336	273	-252	-177	-2228	-2308	16796	-75	-70	-23	127	126	5
-8248	-3352	13268	-117	99	-222	-15764	1852	-5196	24	-220	22	-2588	-5016	15916	-302	-239	105	-7584	4552	14496	144	-69	-78	-15816	1548	-3188	16	-259	-133	-2016	-2324	16756	-68	-72	-25	127	126	5
-8236	-3456	13332	-193	114	-220	-15872	1904	-4960	-40	-230	13	-2464	-5136	15920	-259	-182	124	-7600	4592	14376	112	-24	-143	-15992	1508	-3192	-179	-155	-74	-1972	-2384	16912	-108	-81	-4	127	125	5
-8220	-3420	13216	-149	154	-213	-15840	1796	-4892	2	-68	-23	-2272	-5140	15732	-198	-186	207	-7596	4560	14284	113	-39	-125	-16056	1376	-3008	-167	-101	-121	-1832	-2412	16872	66	40	-2	127	126	5
-8224	-3408	13252	-175	176	-229	-15748	1656	-4924	156	-68	23	-2364	-5292	15840	-89	-209	223	-7584	4596	14380	82	-12	-165	-15868	1432	-3096	-24	79	-69	-1812	-2432	16836	221	42	0	127	126	5
-8224	-3392	13228	-153	171	-219	-15840	1716	-4916	83	46	-6	-2380	-5356	15824	-21	-127	251	-7568	4656	14272	58	32	-169	-15964	1512	-3108	41	192	4	-1896	-2292	16740	386	55	9	127	126	5
-8208	-3452	13284	-159	178	-177	-15964	1608	-5004	24	58	25	-2504	-5440	15760	102	-102	259	-7628	4592	14328	51	-20	-155	-15916	1440	-3132	-12	229	5	-2224	-2364	16796	265	-10	23	127	126	5
-8228	-3444	13268	-136	201	-151	-15756	1572	-5104	10	71	75	-2576	-5372	15724	71	-94	276	-7592	4548	14328	38	6	-199	-15884	1508	-3348	4	249	-18	-2424	-2364	16728	231	-1	73	127	126	5
-8284	-3412	13312	-80	181	-152	-15616	1516	-5176	2	60	95	-2644	-5372	15732	66	-62	262	-7680	4596	14284	55	17	-201	-15680	1620	-3748	-182	196	-65	-2532	-2452	16900	197	50	182	127	126	5
-8244	-3464	13248	-68	131	-168	-15700	1468	-5168	-55	59	187	-2756	-5360	15584	154	-153	284	-7636	4516	14392	80	15	-165	-15792	1472	-3800	-250	146	-117	-2524	-2580	16600	384	123	232	127	126	5
-8288	-3372	13304	-92	115	-137	-15816	1396	-5176	61	12	216	-2792	-5276	15736	227	-146	228	-7640	4512	14356	137	-13	-138	-15712	1340	-3752	-183	-8	-82	-2564	-2596	16700	357	65	191	127	126	5
-8336	-3392	13224	-66	107	-117	-15780	1572	-5180	80	-79	275	-2820	-5228	15696	224	-136	149	-7644	4500	14456	123	6	-142	-15744	1368	-3628	-90	-60	-32	-2412	-2508	16776	359	27	113	127	126	5
-8304	-3432	13268	-48	91	-152	-15780	1536	-5144	50	-84	346	-2752	-5040	15880	133	-125	103	-7584	4524	14364	146	-30	-114	-15844	1308	-3476	15	-150	-25	-2268	-2428	16760	332	-34	-6	127	126	5
-8292	-3408	13340	-56	71	-145	-15748	1652	-5252	166	-155	295	-2604	-4876	15952	62	-119	34	-7556	4552	14348	164	27	-133	-15824	1336	-3460	98	-185	30	-2180	-2324	16800	186	-61	-112	127	126	5
-8236	-3452	13248	-70	99	-170	-15740	1956	-5064	92	-119	224	-2676	-4832	15884	-53	-142	90	-7644	4528	14396	190	9	-128	-15804	1420	-3268	187	-174	88	-2084	-2276	16824	84	-30	-156	127	126	5
-8232	-3324	13304	-106	109	-170	-15884	2096	-4904	-45	-70	157	-2496	-4816	15952	-124	-212	143	-7616	4572	14336	184	-14	-133	-15836	1636	-3320	136	-157	8	-2124	-2152	16872	52	7	-82	127	126	5
-8172	-3400	13240	-116	182	-180	-15964	2020	-4692	29	48	98	-2500	-4884	15928	-68	-185	149	-7620	4504	14304	164	12	-157	-15872	1596	-3364	61	-175	-10	-2128	-2164	16896	15	19	10	127	126	5
-8204	-3284	13180	-98	157	-176	-15856	1788	-4976	255	27	28	-2512	-4888	15908	-36	-153	162	-7592	4676	14284	139	23	-141	-15856	1616	-3300	33	-123	-51	-2116	-2108	16916	90	27	-4	127	126	5
-8200	-3400	13272	-149	226	-193	-15728	1764	-5188	287	47	38	-2664	-5024	15804	-54	-117	119	-7608	4612	14316	125	-18	-144	-15796	1704	-3180	51	0	-87	-2112	-2008	16772	191	52	-19	127	126	5
-8212	-3412	13328	-151	183	-199	-15696	1628	-5288	132	22	38	-2740	-5200	15744	-152	-114	115	-7576	4596	14280	116	-8	-153	-15828	1680	-3252	90	-23	-106	-2320	-2004	16764	144	-16	2	127	126	5
-8240	-3440	13244	-91	165	-179	-15676	1592	-5268	48	-74	66	-2836	-5276	15780	-211	-94	99	-7628	4588	14388	90	-69	-212	-15904	1688	-3424	-16	-43	-222	-2576	-2116	16792	9	-12	67	127	126	5
-8232	-3400	13272	-116	139	-191	-15708	1600	-5296	4	-99	68	-2920	-5264	15720	-231	-135	130	-7656	4576	14328	61	-52	-151	-15968	1588	-3464	-230	-66	-229	-2624	-2400	16756	-85	-80	168	127	126	5
-8212	-3388	13256	-112	124	-184	-15672	1660	-5176	1	-144	84	-2828	-5256	15648	-105	-229	159	-7608	4516	14368	66	-36	-149	-15876	1332	-3480	-139	-72	-259	-2472	-2580	16636	-14	-109	222	127	126	5
-8260	-3344	13236	-135	114	-213	-15656	1724	-5192	50	-194	90	-2700	-5276	15712	-8	-263	222	-7604	4532	14368	103	-71	-148	-15880	1320	-3420	21	-98	-280	-2236	-2628	16692	118	-127	228	127	125	5
-8220	-3416	13172	-139	112	-230	-15800	1744	-5136	-64	-184	72	-2672	-5172	15796	57	-248	257	-7652	4572	14260	118	-46	-146	-15760	1420	-3408	-2	-123	-210	-2180	-2644	16856	252	-62	196	127	126	5
-8156	-3432	13260	-153	126	-245	-15876	1696	-5056	-111	-187	64	-2608	-5108	15784	3	-206	288	-7672	4520	14352	122	-11	-132	-15864	1364	-3396	-209	-211	-157	-2192	-2568	16832	209	-32	160	127	126	5
-8216	-3436	13248	-118	146	-220	-15796	1652	-4984	-100	-215	42	-2540	-5052	15672	-115	-265	297	-7652	4468	14440	139	-5	-162	-15868	1276	-3208	-97	-213	-112	-2136	-2520	16680	312	-21	113	127	126	5
