#Activity	running 
#ActivityID	2 
#Date 09-07-16-36
acc_rf_x	acc_rf_y	acc_rf_z	gyro_rf_x	gyro_rf_y	gyro_rf_z	acc_rs_x	acc_rs_y	acc_rs_z	gyro_rs_x	gyro_rs_y	gyro_rs_z	acc_rt_x	acc_rt_y	acc_rt_z	gyro_rt_x	gyro_rt_y	gyro_rt_z	acc_lf_x	acc_lf_y	acc_lf_z	gyro_lf_x	gyro_lf_y	gyro_lf_z	acc_ls_x	acc_ls_y	acc_ls_z	gyro_ls_x	gyro_ls_y	gyro_ls_z	acc_lt_x	acc_lt_y	acc_lt_z	gyro_lt_x	gyro_lt_y	gyro_lt_z	EMG_r	EMG_l	act
-21256	-3064	26060	2220	2336	1812	-30640	-14048	20472	571	6139	1576	-12720	3648	11752	2419	-2021	-330	-32768	-31320	-23496	1745	312	-515	3752	-22088	-32768	214	2273	331	15376	-22984	11600	-2903	5822	1885	128	67	2
-23780	-8140	31792	5	2687	1940	-31088	-10112	18600	-1319	4706	1869	-9544	18624	13872	2151	-2615	-266	3080	27640	-16768	2636	3430	-585	-7696	-11640	-1360	1689	2566	22	24992	-3336	-32768	7664	6248	1567	140	24	2
-27692	-16760	32767	-864	1722	2008	-26104	-14632	12400	-3376	2633	1145	-19424	13760	13216	251	-2813	212	-32768	32767	32767	-7195	4430	-10282	15696	32767	-32768	1501	3581	-269	-23880	-8424	32767	-1198	-4855	195	129	193	2
-23076	-18584	32767	-920	-52	1656	-22776	-14152	5576	-3496	1432	678	-32768	-11976	-3168	-2029	-2190	201	32767	-32768	32767	-4531	-360	-9617	-32768	-32768	32767	-8471	14720	-4304	-32768	32767	-32768	4192	5029	-409	85	253	2
-11060	-23648	32767	-441	-962	463	-32088	-27992	6832	-2478	139	726	-32768	-17816	-11568	-304	-2420	-472	-20432	29584	4440	261	1308	189	2936	14112	-10664	2268	4223	1629	72	-32768	-25328	-198	1603	2481	125	253	2
-3224	-27416	29368	867	-2353	-935	-19328	-22664	1296	559	-391	-44	-32768	-8344	-15344	1837	-3284	-1928	5504	3496	21016	653	1252	143	-5576	8760	11544	69	3798	-813	25448	-22672	-27280	2578	3348	429	248	0	2
-4440	-16320	20440	892	-4262	-2516	-2088	-7696	-8144	3195	-1464	-1478	-32768	1480	-22728	2289	-4430	-1422	-6592	12840	16752	1014	1757	-284	-10176	3576	-21792	-264	3701	-439	-32768	29072	-32768	3642	4044	-1631	239	0	2
-5920	-9220	13764	43	-5534	-3945	-8288	-208	-6384	4101	-2892	-1652	-32768	6512	-27968	939	-4160	-1040	-13112	8264	18008	1049	2688	-476	-30496	11712	-25296	974	1971	-339	-32768	32767	-25416	222	3796	-320	165	116	2
-12864	-7032	10668	-723	-6563	-4345	-6312	-1576	-4536	3317	-4935	-1630	-21360	4280	-29624	-79	-4463	-955	-2560	10336	26336	744	4311	-1631	-32768	10920	-17216	1625	1718	-760	-32768	5744	-4384	-1873	4306	-366	145	65	2
-14564	-4832	10748	-1402	-7092	-4164	-11752	-6456	-3552	3229	-6373	-2024	-14200	-3624	-28736	-492	-3913	-468	-6360	12032	31864	959	6159	-2158	-32768	-3288	1448	269	443	-432	-32768	-472	4672	-1111	3733	-152	174	0	2
-18816	-6132	15256	-1761	-7519	-3818	-15288	-3960	-4488	2596	-7541	-2430	-8496	4672	-25968	714	-3186	-568	-5840	5560	25464	1200	7912	-2852	-32768	-376	12232	1165	158	-163	-32768	-9576	18696	-297	3968	1667	210	0	2
-26708	-2476	15096	-2728	-7959	-3650	-17928	-3800	-7424	1808	-8061	-2484	2136	6552	-28112	1064	-1801	-362	-21712	7552	24264	1479	9251	-3537	-32768	3120	14248	303	-332	696	-26872	-4928	32767	471	3179	1623	191	0	2
-32768	-4808	10464	-3124	-8234	-3724	-19136	-3600	-15176	1240	-8120	-3302	13792	16416	-25664	38	-613	-72	-32768	16272	22736	2418	9149	-3503	-14784	9688	20400	2599	373	-485	-15560	-12696	32767	1170	1753	829	178	0	2
-32768	-6224	3776	-2605	-7711	-4055	-18984	-3248	-24400	1564	-7409	-4169	20232	11576	-25688	-519	-435	-342	-32768	16592	21328	4503	7556	-3355	-11408	18264	11384	1254	1546	-1136	-7176	14176	28432	1746	259	-221	166	0	2
-32768	404	-5692	-1568	-6236	-4689	-26512	-3568	-32768	2993	-5792	-4774	13752	10512	-16336	-907	-235	-32	-17800	31512	12120	3403	4935	-3521	-20480	12944	6080	585	2879	-946	-15072	7640	23640	-1086	-235	863	160	0	2
-32768	11008	-9348	-1557	-4182	-5126	-32768	-568	-32768	3245	-4142	-4805	5768	5800	-7080	-890	63	457	-26032	32767	26328	310	3830	-2517	-17864	9992	4280	-476	3874	-1109	-7608	-4456	27616	-2035	-666	22	65	253	2
-32768	26760	-15656	-2051	-2298	-5710	-32768	9296	-32768	3527	-2238	-3765	-4608	-6304	7200	-1175	-1549	-703	-16528	23176	29768	-1288	2021	-440	-22440	6344	17696	-1080	3497	-880	-5552	-4752	19960	-996	-1225	-426	0	253	2
-32768	32767	-26996	-1230	-431	-4879	-29984	26168	-32768	833	-862	-1165	-15072	-13584	25136	-712	-2070	-1102	-11920	6512	32767	8	1449	-801	-23576	-640	26408	253	3363	-847	-8720	-4056	13704	-174	-2040	-576	53	195	2
-32768	32767	-32768	-321	112	-914	-21480	8472	-32768	-1379	279	452	-5880	304	21296	-177	119	-1274	-10896	12104	32767	1608	1111	-1970	-23904	232	21368	1473	3186	-719	-8616	-14576	17360	207	-2272	-873	118	113	2
-32768	32767	-26464	-1066	322	1535	-23080	24200	-32768	-1971	2640	1238	10040	13432	-18448	-3356	8449	424	-21464	22560	32767	2088	-400	-1939	-27496	1104	11072	1951	3081	-650	-14528	-11712	17480	1638	-1522	-1022	80	97	2
27864	32767	-22388	3434	5740	2873	-712	4632	-8864	-691	3492	1102	-10352	22392	24272	-424	1712	876	-21360	29856	32767	1009	-2463	-1395	-32768	4248	5376	1803	2558	-319	-31128	6336	12008	1659	-1615	-588	105	68	2
-32768	-32768	-8688	7136	-1235	10903	-32768	-32768	-32768	-1080	6467	-2721	-32768	-32768	-1168	-1466	3466	-1886	-23888	28688	32767	-136	-3335	-762	-32768	5624	-4552	1344	1235	312	-32768	19008	-13488	1473	145	-1051	115	139	2
-14544	-32768	-11564	-486	5037	-788	2088	21680	-32768	-3066	5167	4865	-32768	32767	-32768	5637	1422	-1263	-18744	32767	27104	-1716	-4028	787	-32768	4912	-12432	43	-1079	282	-32768	19776	-14744	-2160	-3014	481	117	41	2
-24784	-11676	2568	-658	1483	-115	19416	-2824	-32768	-1545	3003	170	32767	32767	-32768	-6028	772	1424	-18160	17664	19416	-1703	-5073	2089	-15976	9648	-15080	-1755	-2465	242	-32768	15944	-22400	-3185	-4213	-18	61	253	2
-14364	-6192	17720	-343	1118	709	-32768	-14160	-23688	-2201	1662	-491	-32768	-25752	-32768	-6423	1219	5437	-13216	11088	11296	-350	-5393	3264	-21960	-688	-19808	-2538	-4175	366	-32768	-1248	-30752	-1840	-4078	-867	57	253	2
-10532	3544	20632	-317	1193	696	-32768	-6984	-16992	-2911	1231	1073	-32768	-29280	-32768	2260	2889	798	-20592	11720	7520	201	-5810	3829	-11368	408	-18688	-1101	-5485	778	-29208	4144	-30992	595	-4828	-584	92	253	2
-13092	-20344	16932	-423	2501	1099	-27168	-32216	-8792	-1184	438	1509	-32768	5176	-11856	1046	3983	2188	-23712	10848	9504	462	-6086	4113	-9832	1408	-19328	-440	-6405	1151	-16008	19912	-29976	-21	-4685	-714	93	243	2
-11360	-15064	27920	335	4767	1829	-32768	-29976	-5184	-583	400	2062	-32768	-11320	-2296	-825	4814	1914	-30248	9896	9312	699	-6578	4372	-10608	1304	-19904	-318	-6890	1260	-7168	17416	-32112	-2881	-4618	-1027	105	195	2
-9652	-16828	29100	473	5056	2101	-32768	-32768	27120	-1253	710	2083	-32768	2696	14968	180	5216	2183	-30072	8064	3096	541	-6663	4381	-9224	-336	-21472	-170	-7079	1645	10672	-4192	-24240	-3903	-3350	-372	69	253	2
-5708	-18876	26172	-885	7296	3936	-32768	-32768	32767	-1672	1362	1187	-32768	-16088	32767	-569	4623	1836	-32768	3640	-888	561	-6042	4139	-5904	-504	-24472	-594	-6798	2223	11288	-3792	-17896	-1813	-649	-279	84	243	2
-23424	-21720	17396	-745	9436	5621	4696	-13512	24728	-2000	-433	818	-22024	-15440	32767	-289	3371	876	-32768	2096	-4448	1082	-4937	3929	-11320	-2160	-30888	-1259	-6153	2295	15800	-840	-15592	-626	676	-390	129	99	2
-31048	-22080	15536	-2078	8319	5323	14336	-20128	8072	-2194	790	916	-3384	-22168	32767	105	1074	844	-32768	-2608	-6888	1447	-3641	4057	-17552	-9560	-32768	-1654	-5276	2240	15088	-208	-14296	-413	676	-423	120	102	2
-32768	-9136	19668	-2117	6196	5030	-8744	-14056	2224	-1607	2081	2314	-9312	-24768	29376	1214	-694	-369	-32768	-10960	-14848	1651	-2557	4492	-11656	-10824	-32768	-1180	-4359	1332	-1648	5296	2600	1050	-1590	-395	97	105	2
-32768	-9712	8116	1584	5421	4158	-9216	-14176	2888	-1751	2320	2421	-7352	-9808	21816	1538	-614	-426	-32768	-15344	-25960	843	-1401	4138	-696	-4640	-32768	-688	-2816	559	-7408	5496	5696	2307	-1813	-230	149	0	2
-32768	-25092	24960	2893	1968	1243	-15368	-28128	13456	-469	4916	1996	-6288	520	12800	1398	-939	47	-32768	-11672	-31440	-909	-938	2279	1960	-592	-32768	-259	-492	347	-6952	96	9136	1190	-1408	286	159	0	2
-21560	-8408	30208	2861	1409	1542	-19424	-19824	23456	796	5448	1335	-7488	-3496	7072	1604	-1643	207	-32768	-20352	-29624	-1070	-768	460	1864	-9184	-32768	-582	1130	355	5032	-6296	9464	-1401	2260	1610	165	0	2
-13604	-5148	32767	797	1685	2205	-24984	-13216	26552	-246	4632	1715	-9544	3264	12720	2463	-2692	-260	-25144	-29848	-25184	1892	557	402	2384	-28368	-25624	-687	2106	95	13480	-6200	-23008	492	6850	2740	150	0	2
-19956	-15036	32767	-710	1073	2199	-24208	-10224	17456	-1980	2795	1471	-16952	11264	10456	1554	-2659	179	10488	-29792	-22888	3820	3578	1127	6744	-32696	-5240	803	2026	22	6824	-4632	-32768	5584	3988	817	154	46	2
-19496	-23616	32767	-536	-766	1600	-22640	-17488	14144	-3154	1414	1027	-20984	8944	15096	680	-2764	219	-32768	32767	32767	-13363	1688	-7060	32528	32767	-32768	-2528	2673	-301	-8760	-5144	32767	-2983	-5940	-340	103	253	2
-12292	-13500	32767	-228	-2033	691	-18720	-12112	6384	-2268	572	683	-32768	-23248	-5912	-1442	-2396	216	30432	-32768	32767	-3533	-748	-12948	-32768	-32768	32767	-14456	10522	-6537	-32768	19120	20208	5552	6066	1917	121	253	2
-6816	-25776	32767	202	-2483	-822	-32768	-31240	6312	-640	-717	774	-32768	-29216	-17904	1334	-2437	-602	-23376	32767	6664	314	1642	289	22616	32767	-2016	2198	3267	4181	13760	-32768	-12576	1208	2104	3172	136	215	2
-4500	-25280	26084	1789	-3979	-1595	-21456	-31608	-4112	2568	-1230	-128	-32768	-4080	-19272	3866	-4362	-1759	3736	-23048	29160	1079	1538	216	-11696	1560	-30024	-3175	4993	-808	14432	-20384	-32768	5700	2076	-660	200	0	2
-13780	-8704	18080	718	-5549	-2941	-8032	-2312	-12768	4412	-2778	-1435	-32768	-4344	-20792	1824	-5193	-992	-5608	2136	17520	821	1940	-836	-29032	-15648	-18904	868	2505	516	-32768	32767	-32768	2363	5763	-2464	196	0	2
-18944	-9104	12460	-446	-6849	-3577	-13816	-8032	-11104	3848	-4619	-972	-31272	1584	-24664	817	-4205	-865	-6984	24544	18944	1012	2989	-503	-32768	22624	-10848	2585	1182	-325	-32768	10512	-13040	-2740	3441	-549	186	0	2
-21444	-6228	9756	-1037	-7525	-3120	-11840	-7728	-6224	3184	-5278	-1197	-21296	4856	-27264	86	-4048	-754	-7536	11832	29048	928	5331	-1729	-32768	9480	-16912	1110	1883	-1409	-32768	21312	-4872	-1182	3780	-1397	157	253	2
-21672	-5600	11020	-2110	-7422	-2690	-17432	-6744	-8536	2264	-7420	-1779	-11840	3376	-28128	-79	-3474	-406	-640	1736	30112	1287	7145	-2195	-32768	-2072	13368	-269	-48	-780	-32768	-8312	16800	-2724	4539	1274	148	0	2
-27280	-7036	11636	-3383	-7572	-2575	-17472	-6488	-13712	1299	-8220	-2341	-7336	8312	-28200	288	-2772	-589	-5864	14960	19520	1556	9545	-3500	-32768	7256	20888	-153	915	643	-32768	-29496	32767	-1308	3604	2090	135	0	2
-32736	-9864	6592	-3690	-7492	-3208	-19072	-5840	-18792	1017	-7953	-3159	9616	15264	-26960	162	-1370	-326	-28168	19552	32767	2484	10047	-3961	-13016	-5296	26672	2954	651	-57	-11648	-30128	32767	-4	1509	754	132	28	2
-32768	-11032	368	-2993	-6542	-4314	-16408	-5048	-27224	1565	-6957	-4316	21112	14888	-26896	-350	-958	-303	-31472	12288	25544	4962	8612	-3327	-6808	21584	17984	3010	1638	-959	-9480	2752	32767	1953	427	-556	108	97	2
-32768	-4044	-6776	-2113	-5031	-5670	-18728	-1328	-32768	3523	-4878	-5607	16272	12568	-22608	-659	-283	21	-29168	32712	17800	3912	6132	-4089	-23416	15592	10176	1176	2808	-1030	-16952	5016	21864	1099	-242	-355	112	77	2
-32768	12696	-3848	-2486	-3072	-7005	-32768	3544	-32768	4529	-3483	-5301	8608	8088	-11048	-825	-94	308	-32768	32767	32648	974	5741	-3057	-19856	7080	-1480	-318	3779	-1034	-4200	2888	26920	-490	-1215	31	79	230	2
-32768	30060	-6892	-3262	-718	-7631	-32768	9736	-32768	4219	-2564	-3559	-4000	-10512	2448	-2365	-1278	-264	-23072	27944	32767	-1290	2387	-340	-26392	8512	14896	-1601	3896	-958	-8344	8160	12864	-1229	-1491	-452	95	132	2
-32768	32396	-18260	-2019	618	-6056	-26128	17608	-32768	959	-2423	-897	-9064	-15592	18360	-1559	-1179	-1177	-13400	4104	32767	-706	809	-888	-23504	680	27024	-436	3365	-1076	-4384	-872	8144	-15	-2053	-454	80	209	2
-32768	25740	-32768	653	-1259	-648	-19640	2536	-32768	-1709	-1124	26	-6488	-10880	19728	-1265	537	-1458	240	10512	32767	1157	296	-1932	-20032	-3496	26080	852	2783	-858	-7216	-13576	12200	-463	-2112	-351	0	253	2
-32768	32767	-32768	-2306	-601	1924	-24376	32472	-32768	-2453	1555	823	-7768	11040	20560	-1807	1495	524	-7136	20816	32767	1618	-1123	-1751	-18480	-2192	16488	1753	2212	-687	-6480	-15048	12344	-340	-2128	-379	0	253	2
-29512	8104	-27324	-3087	3090	328	-21880	16832	-17248	-3017	2757	1700	10360	27944	-32768	-4384	6291	1934	-14624	26720	32767	667	-3508	-727	-21872	5368	9160	1829	1536	-579	-18112	2040	10696	904	-1888	-519	40	212	2
-19376	23160	-6612	-2890	7131	3396	6408	-19336	-20128	-1142	2510	1696	15680	16000	7984	227	562	877	-16128	21336	28352	-1028	-5391	-250	-23992	5080	3464	1102	869	-325	-20320	6168	12008	28	-2321	-596	80	165	2
-32768	-32768	-32768	17346	-1447	10194	32767	-32768	-32768	-10998	3903	-1194	-32768	-32768	-32768	-3410	5315	-2070	-15112	15832	32767	-762	-5318	-162	-32768	-1112	-7320	950	-194	382	-32768	29040	-17760	-374	-87	-927	197	253	2
-25732	-32768	-32768	13477	-1256	10227	-32768	32767	-10888	-3847	9174	5960	-32768	30992	-28936	6537	457	-946	-27032	27480	24096	-1201	-5942	1403	-32768	10840	-21960	-372	-2932	-2	-32768	13344	-22904	-2559	-2664	-386	107	188	2
-2412	-5432	17056	-872	1582	754	8256	-7840	-32768	-466	6154	639	32767	32767	-32768	-4489	1736	-193	-19712	20624	17584	-1549	-6324	2651	-21920	2168	-14968	-1977	-4480	-113	-32768	15456	-20896	-3087	-4254	-902	135	41	2
-10336	1624	22160	-445	1481	301	-32768	-1976	-19568	-2361	1947	-474	-31416	-16472	-32768	-7257	1119	4831	-24120	12848	12512	-494	-5889	3429	-25864	-512	-21832	-1411	-5451	34	-32768	-2872	-27768	-1804	-3854	-1187	137	93	2
-14076	-11024	10700	-187	1494	1244	-25712	-14440	-17128	-4388	392	947	-32768	-26464	-32768	2529	4065	889	-27568	12904	11184	87	-6035	3452	-15344	3984	-23904	-318	-6230	735	-23208	3528	-29976	90	-5481	-414	133	126	2
-15424	-19092	16468	-287	2563	1171	-21072	-32768	-8992	-281	55	1321	-32768	6568	-11576	1614	4067	2655	-31360	10448	8016	615	-6412	3207	-11368	2712	-24064	-109	-6799	1237	-12760	21264	-32768	-982	-3948	-601	117	155	2
-9556	-10308	30052	382	4511	2253	-32768	-32768	5592	527	345	1739	-32768	-6992	-1696	-435	4895	3142	-32240	12992	3648	868	-6249	3440	-9416	760	-26296	-426	-6951	1589	2240	1256	-19496	-3476	-2476	-800	206	0	2
-5476	-14900	30964	31	6037	3450	-32768	-32768	27256	-929	1159	2114	-32768	-3736	23152	38	5368	1497	-32768	8208	64	1157	-5469	3798	-10904	-1320	-28768	-642	-6761	1922	9408	-14480	-16288	-3182	-1513	-575	163	161	2
-5904	-24556	18644	-978	7680	4653	-32768	-32768	30488	-2162	1004	716	-28944	-16384	32767	-303	4774	946	-32768	8240	-2480	1409	-4275	4221	-10824	208	-30024	-1330	-5803	2352	14872	-3384	-14352	-1148	185	-629	153	110	2
-24260	-16736	23988	-1593	8645	6067	18416	-14552	27496	-3367	-586	308	-9232	128	32767	-1213	2542	769	-32768	96	-3368	1213	-2717	4536	-15488	-8192	-32768	-2542	-5477	1981	9064	296	-12040	-937	235	-154	142	86	2
-32768	-20600	17620	-3710	8328	5386	-3256	-15896	11832	-2930	346	738	-11008	-22656	32767	-1987	382	696	-32768	-13952	-9568	1808	-1362	4897	-12728	-19960	-32768	-1275	-4587	1579	-1544	5696	-1808	835	-1314	-498	147	14	2
-23800	-15932	20776	-2469	5534	4613	-18144	-15544	5832	-3952	1406	2236	-11824	-27504	30984	-1919	51	573	-32768	-15632	-15808	2016	-563	4461	-1072	-3544	-32768	70	-3247	585	-1752	9240	1248	2778	-2020	-782	167	0	2
-32768	-28280	26244	-300	2918	3169	-21504	-22584	-1424	-4019	2301	2596	-6320	-10368	15808	390	-421	-656	-32768	-9136	-23488	-130	-1135	2440	2576	3472	-32768	-123	-1650	85	-2960	7584	7224	2296	-783	-430	153	1	2
-25376	-25688	25824	2242	1125	1491	-15080	-32768	14928	-1211	4191	2027	-5776	-5728	7472	1140	-1255	222	-32768	-13024	-28216	-2075	-1855	-606	1760	1768	-32768	-357	288	420	-4480	-528	6296	872	721	795	158	0	2
-10940	-7520	28484	2231	1914	1541	-21568	-16344	22720	439	5186	1599	-7896	-5912	11304	2292	-2108	-131	-32768	-18568	-26224	-632	-1135	-1664	1336	-16800	-32768	-870	1579	277	1744	-11472	5488	-1850	3471	1914	149	5	2
-13868	-7780	31512	371	2264	1600	-22184	-13456	19632	-426	4333	1837	-10840	7888	10168	2799	-2493	-303	-16472	-17504	-24152	1710	898	-528	-720	-28168	-15832	664	2328	-52	11336	-12480	-25888	1553	5548	2001	148	16	2
-21112	-12840	32767	-416	1244	1557	-20728	-14088	14512	-2029	2815	1221	-14768	10456	13376	1623	-2702	18	21912	-29168	-22248	2825	4943	82	1008	-20904	344	1629	1865	-245	3472	-3264	-32768	6059	3371	96	143	91	2
-17572	-14660	32216	-400	146	1478	-23032	-14328	11488	-2753	1895	884	-19776	9304	15296	388	-2690	-97	-32768	32767	12016	-21758	-6900	-5980	30496	32767	-32768	-9143	2913	-385	-19584	4424	32767	-4369	-8716	9	48	253	2
-13440	-13164	32767	-458	-326	668	-20472	-11216	2440	-2017	939	599	-32768	-32472	-9432	-1639	-2226	22	-32768	176	-9376	-1263	217	-6416	-32768	-32768	-32768	-8784	13129	-14278	-32768	3280	4376	76	6469	2536	59	253	2
-3920	-24884	32648	500	-866	-653	-32768	-30504	4344	-368	-143	644	-32768	-11736	-11400	2067	-2627	-1284	8744	24000	18768	430	1745	669	32767	32767	-9136	4644	3003	3011	32767	-32768	-21312	180	2001	3218	77	253	2
-8752	-21404	30128	1483	-2961	-2349	-18800	-21720	-4728	2635	-802	-648	-32768	-5928	-20064	2485	-4413	-1952	-3552	-6280	20736	886	1238	-301	-21688	-5280	-32768	-3038	4720	-598	24824	-8528	-32768	5405	1142	-979	108	206	2
-12848	-11504	19500	601	-5005	-4002	-8472	-4320	-10440	4411	-2391	-1387	-32768	4328	-22960	2162	-5352	-1180	-5232	-5376	20424	703	1662	-1341	-30784	-20480	-23168	773	2998	498	-32768	32767	-32768	3418	4086	-2254	120	253	2
-12160	-4912	11784	-180	-6203	-4054	-10120	-3584	-8552	4103	-4328	-1339	-32768	6152	-32208	547	-4686	-1300	-4912	19128	18288	483	2992	-824	-31016	17872	-9440	1780	1897	-71	-32768	14656	-15704	-3269	3283	-393	179	69	2
-22660	-944	9364	-1348	-7075	-3616	17088	-1160	-664	3434	625	-233	-14264	1064	-31680	-283	-4829	-696	-7136	15784	24944	521	4539	-1396	-32768	9792	-13912	467	2271	-1439	-32768	-9688	-12728	-1744	3319	-1357	187	0	2
-22240	-3568	11960	-2134	-7810	-2779	-13904	-3128	-8216	2379	-7949	-2618	-9896	2256	-31016	553	-3999	-218	120	6720	26256	504	6160	-1740	-32768	-8656	4120	-337	489	-487	-32768	-9664	5552	-957	4556	1243	178	0	2
-29844	-3584	9164	-2982	-8288	-2807	-17280	1256	-17216	725	-9944	-2379	-2288	3464	-29984	1444	-2631	-517	-4552	10072	20464	1104	8065	-2852	-32768	1984	10680	535	170	644	-32768	-13320	27176	-38	4520	2454	178	0	2
-32768	-4304	1972	-3086	-8101	-3891	-16080	2608	-21600	631	-8332	-2537	10424	15936	-26984	1312	-1508	-128	-28448	18472	27432	1661	9535	-4101	-27248	-5704	20296	1500	-186	810	-29488	-11696	32767	490	2748	1615	143	0	2
-32768	-420	520	-2092	-6446	-4879	-16808	-4328	-27608	2731	-6269	-4088	19224	9592	-20488	-55	-730	-77	-32768	11360	27848	3387	8707	-3793	-7856	13176	22720	2910	451	1	-13464	-9544	32767	427	-176	-619	159	27	2
-32768	4436	-7776	-1252	-4885	-4996	-22056	-2312	-32768	3714	-4831	-4286	17848	5032	-18960	-1401	-19	-94	-32768	13744	18168	5713	6892	-4123	-13520	13936	6576	1816	2221	-972	-11008	392	32767	-207	-428	-74	130	59	2
-32768	13704	-11428	-853	-3686	-4666	-31104	4936	-32768	3934	-3533	-3920	6192	5504	-11752	-1169	326	463	-32104	26544	-23368	2944	7223	-5802	-10864	15448	8416	1241	2893	44	-7456	-2984	28072	-115	-153	110	131	60	2
-32768	22528	-15364	-1136	-2645	-4523	-32768	9880	-32768	3292	-2708	-3050	-1224	-1800	-832	-1724	-592	-249	-24776	32767	27096	-906	3108	-1506	-27496	14328	6648	-582	4369	-712	-5720	2120	17712	274	-802	-310	141	64	2
-32768	29248	-26592	-798	-1615	-3635	-31232	16152	-32768	1622	-1591	-1523	-7464	-6240	10680	-589	-1450	-627	-16856	7328	29112	-1360	2004	-932	-26016	1176	19384	-979	3955	-863	-7112	2200	10456	-33	-1040	-211	100	191	2
-32768	27148	-31856	-383	-699	-1259	-17152	9768	-32768	-753	-550	-290	-6464	480	12624	-36	-378	-889	-8328	4944	32352	724	1845	-1916	-21984	-3000	23608	986	3614	-732	-3848	-4992	10176	352	-1947	-510	60	253	2
-32768	25060	-26808	-1387	-171	945	-21976	14192	-32768	-2127	591	444	2232	4560	12936	-1171	2738	-212	-12904	16344	32767	1923	1035	-2551	-20392	1424	15176	1930	3327	-822	-5928	-12160	13184	432	-1566	-554	84	192	2
-32196	17116	-20692	-2737	1156	754	-16208	14200	-21080	-2792	1637	1177	-88	22008	-32768	-2672	6051	1191	-16464	23552	32767	1479	-840	-2112	-22936	3544	10536	1873	2916	-664	-14976	-5424	12032	1412	-1240	-662	61	202	2
9412	-32768	26960	3201	3712	-221	8464	-19792	2312	-1491	1986	1203	-3888	15432	-20016	-2309	3277	1307	-14744	24984	32512	272	-2436	-1331	-25776	3440	8088	1256	2294	-471	-19688	1208	11696	862	-1555	-388	50	253	2
-32768	-32768	-12752	6917	-5980	8638	12552	-19136	-10632	-1709	2232	824	-32768	-32768	32767	-6834	227	293	-17760	21392	32767	-570	-3051	-586	-30776	1560	-2944	806	1351	-160	-32768	28912	-7392	1856	-57	-1032	57	253	2
-32768	19048	15152	971	2244	1572	-17432	24248	24640	48	6831	6758	-32768	32767	-16552	9155	1057	-524	-16088	31464	29376	-1438	-3068	813	-32768	5240	-11192	-130	-179	181	-32768	21248	-18232	-2568	-2236	616	140	161	2
-7236	-32768	324	-1406	2003	-876	6592	-24576	-32768	-2321	5480	909	32767	32767	-32768	-5771	2461	-8	-22144	20040	24776	-2216	-4277	2053	-18608	10864	-19680	-1948	-2489	-339	-32768	12680	-19160	-3799	-3832	-123	89	235	2
-888	1516	27708	-366	928	723	-32768	-4712	-14616	-2165	1785	-887	-32768	2192	-32768	-6625	-168	4159	-17968	10896	14440	-1128	-5262	3214	-21600	1264	-18152	-2909	-3716	-203	-32768	7008	-17656	-2509	-5040	-755	109	107	2
-8740	-9276	13428	-294	1201	1094	-32768	-9216	-17816	-4349	996	735	-32768	-32768	-32768	-2401	4937	2686	-20872	12568	6944	-347	-5866	3464	-13320	1400	-19456	-1170	-5095	219	-31992	3328	-27832	-370	-4830	-689	151	5	2
-12808	-26576	14844	-347	2674	964	-13248	-32768	-8856	-886	250	1883	-32768	-32768	-32768	2753	2923	1551	-22488	11384	7584	-125	-6081	3503	-10712	5760	-17880	-364	-6056	457	-26512	17072	-28488	448	-4124	-482	166	33	2
-11856	-7104	29832	306	4806	1832	-32768	-29088	1944	802	221	2542	-32768	-8536	-5000	625	4505	2627	-26288	13232	8560	153	-6318	3710	-12784	5288	-17656	-718	-6556	417	-8544	11864	-16728	-3775	-4402	-1364	173	43	2
-9928	-11464	32472	177	5942	3203	-32768	-32768	19768	-486	1125	2457	-32768	6664	15456	1114	5041	1785	-26504	10160	6040	292	-6429	3956	-11888	-504	-19576	-659	-7056	584	3392	-2400	-25592	-4617	-3605	-456	113	253	2
-3540	-18052	20804	-882	6876	3948	-32768	-32768	29336	-1176	1433	1614	-32768	-776	32767	-1006	4897	1660	-31120	8624	2064	598	-6228	4100	-4472	-512	-22408	-113	-7057	1359	12792	-13248	-21024	-2722	-1800	-331	74	253	2
-15256	-21596	23992	-314	8875	5435	864	-14104	29688	-2216	-19	705	-23176	-16648	32767	-682	3688	850	-32768	7304	-1840	635	-5564	4098	-3640	2512	-28992	-821	-6603	2068	19184	-6384	-17704	-499	58	-659	72	252	2
-31244	-16916	16076	-2049	8200	5414	7800	-19744	11120	-3150	-215	1040	-4184	-14920	32767	-869	1033	932	-32768	1200	-7584	1015	-4786	4098	-11024	-2160	-32768	-1516	-5916	2350	12904	-6496	-14816	780	-48	-875	69	162	2
-32768	-4128	19004	-2690	6625	5253	-5336	-18000	1096	-2275	1683	2163	-8792	-31896	27784	580	-992	-106	-32768	-8768	-15104	1694	-3672	4484	-12584	-11424	-32768	-1321	-4833	1991	1720	424	-3424	1392	-1140	-694	136	0	2
-32768	-6088	2276	-480	5409	5504	-23872	-17824	920	-3041	2660	2934	-7848	-10840	20720	1220	-916	-452	-32768	-10200	-16560	1803	-3449	4553	-6120	-13808	-32768	-259	-3659	1292	-5952	5808	5552	2049	-1669	-219	141	11	2
-32768	-32768	26036	1499	1361	2366	-15376	-32768	12808	-2102	4154	2715	-1768	3288	9944	1145	-809	125	-32768	-23032	-28336	1890	-1202	3524	2560	-6072	-32768	1216	-1535	516	-5240	752	9072	2065	-2321	18	132	9	2
-18376	-20492	27368	3163	1279	1757	-16840	-23800	21400	343	5306	1814	-8520	-7816	7400	1285	-1364	211	-32768	-21408	-29456	754	-998	659	2208	-4504	-32768	1988	613	618	-256	-7728	11568	552	221	794	135	12	2
-9996	-12468	32276	2009	2246	1516	-22496	-17960	28352	419	5164	1861	-10136	-56	16224	2649	-2411	-396	-32768	-29864	-21224	1672	-971	-1347	3768	-17208	-32768	1039	2072	247	13072	-56	-12384	2133	6314	1971	124	18	2
-10244	-12372	32767	1705	2364	1514	-24752	-14152	20400	-763	3937	1570	-15928	7880	12880	1946	-2680	-33	-32768	-27536	-32768	-2913	2627	-6001	9016	9992	-32768	1113	3361	198	-7472	-4544	8136	4038	1252	877	117	46	2
-22340	-18068	32767	-332	1392	1188	-23112	-14504	12376	-2230	2110	1000	-30968	-4048	5272	317	-2944	33	32767	-32768	32767	-4695	-5072	-2061	-32768	-32768	32767	6225	18461	2887	-32768	32767	-32768	2423	5394	-1051	107	217	2
-22128	-20380	32767	-216	-340	516	-30976	-23792	6288	-1783	565	889	-32768	-17400	3688	-435	-2936	-18	4584	-32768	32767	-332	1203	-547	144	19584	-32768	2007	5453	1571	-32768	-25480	-32768	2027	2455	1328	113	229	2
-20628	-27632	32767	576	-2677	-592	-32768	-30664	3248	-542	-231	801	-32768	-8296	-2704	1906	-3549	-1419	-19480	7696	12168	-51	522	-547	11104	-4672	-24168	-1398	4244	-1224	32767	-20952	-31920	2627	2283	713	158	85	2
-8596	-20688	28908	805	-4506	-1731	-17960	-15464	-2328	2250	-1291	-647	-32768	-224	-16728	2049	-4443	-1311	-8720	4288	16064	401	713	-506	-23096	-10280	-26216	1377	3584	228	-23440	14160	-32768	1305	4102	-568	138	197	2
-12120	-11368	17912	-307	-5860	-2880	-12608	-5640	-10520	2905	-3284	-1348	-32768	-1384	-27248	1091	-4954	-824	-6904	15464	16688	615	1633	-245	-27528	17936	-28584	1197	2750	57	-32768	32767	-28200	615	4773	-614	198	24	2
-21256	-11248	11460	-1378	-7210	-3550	-10440	-8504	-14432	2249	-5561	-1446	-32768	864	-31528	725	-5039	-965	-6336	12784	23472	706	2922	-1185	-32768	10128	-23320	1003	1712	-795	-32768	13152	-13280	296	4462	-1189	219	0	2
-27064	-9568	9640	-2203	-8215	-3700	-9800	-9632	-12136	2455	-6845	-2307	-20368	-488	-30728	253	-4770	-711	-7152	6560	29880	426	5431	-1490	-32768	-1696	-13264	1380	1005	-996	-32768	17336	-3520	127	4364	-209	176	125	2
-23668	-6920	10656	-2651	-8308	-3850	-15600	-5928	-10424	2713	-7444	-2951	-11048	2624	-31440	817	-4244	-598	-592	9976	24776	383	7388	-1821	-32768	8072	2760	773	166	-410	-32768	-3544	13368	-737	4475	1468	160	139	2
-30496	-5260	9036	-3096	-8208	-4170	-20056	-4736	-11728	2226	-7523	-3247	-368	-208	-28808	1026	-2925	-779	-3120	10344	21368	674	9083	-3600	-32768	7680	8624	150	72	-85	-32768	-6048	29464	10	4680	1295	148	109	2
-31280	-4680	4356	-3026	-7390	-4702	-16952	-2136	-16648	1872	-7236	-3732	11560	7040	-26152	1075	-1370	-441	-18840	16400	32767	925	10377	-4299	-32768	-1096	27312	1712	-667	-501	-21320	-1392	32767	1041	3373	824	143	109	2
-32768	-204	3624	-2646	-5895	-5141	-19112	-2064	-24744	2715	-6285	-4426	17984	16344	-21888	742	-943	-564	-32768	16328	20216	3052	9119	-4067	-6952	19456	18768	2221	310	-931	-6448	3984	32767	39	493	-349	130	81	2
-32768	2368	-1628	-2091	-4630	-5555	-24880	-240	-32768	3446	-4711	-4650	20160	9576	-17192	-780	-566	-418	-32768	12336	14792	4652	6805	-4231	-15888	13120	-2808	165	2288	-1109	-9624	17552	32767	-2221	-1342	-175	115	87	2
-32768	3436	-2336	-1911	-4404	-5624	-32768	8368	-32768	4087	-3348	-4774	9048	10416	-10464	-1186	64	294	-32768	32048	15040	1901	5579	-4344	-14368	8776	-6040	254	3897	-949	-7448	-4472	32767	-1741	-251	-107	124	72	2
-32768	31184	-15812	-1348	-1868	-5564	-32768	15224	-32768	3336	-2284	-3692	-2152	272	-1032	-1584	-586	-456	-32768	32767	21088	-1151	2325	-1530	-32744	12768	8000	-562	4343	-1295	-8728	-4544	16792	-651	-134	-130	47	253	2
-32768	32767	-25804	-1869	-338	-3765	-31752	22888	-32768	839	-1590	-1269	-10016	-5376	12168	-1574	-1761	-857	-22520	12176	25824	-1466	2551	-1573	-31944	784	15192	-566	4476	-1043	-8040	-6880	15904	-396	-1572	-365	10	253	2
-32768	32767	-27628	-1221	-394	-593	-22760	17464	-32768	-1924	-617	154	-304	192	11000	-1729	368	-618	-23616	4280	31296	864	2723	-2425	-30832	1024	17624	1473	4616	-1225	-13728	-9232	12576	772	-1379	-670	94	138	2
-32768	32767	-26424	-2000	-450	1016	-23600	24208	-32768	-2642	1123	1073	7824	9992	-27472	-3701	5818	977	-25328	23224	32767	2229	1542	-3611	-32464	7528	11528	2204	4511	-1229	-13160	-14888	15296	1601	-1584	-600	93	107	2
-32768	32767	-32768	-1484	5260	5171	-16768	18152	-32768	-1126	1847	494	-7296	24072	1360	-1516	3152	1642	-23672	32767	32767	1503	-306	-3399	-32768	3776	9120	1725	3872	-403	-24320	-2944	18152	2341	-1005	-811	75	90	2
-32768	-32768	32767	12489	-1493	3340	-32768	-32768	-32768	-1191	3367	-1314	-32768	-32768	5600	-3520	3676	-473	-20424	30496	32767	515	-1278	-1913	-32768	4976	-456	1702	2595	-68	-32768	18112	-10800	3194	167	-1143	129	133	2
-10080	32767	32767	-1	2275	2488	-14136	32767	10144	2766	6143	6671	-32768	19288	-29200	5003	478	-415	-6432	32767	32767	-1364	-1779	343	-32768	5800	-2288	265	396	289	-32768	31752	-18784	-1033	-3292	544	182	72	2
-17656	-32768	-12832	-141	2425	-667	27488	-32768	-31736	-3137	4846	2126	32767	32767	-32768	-6757	3203	-156	-896	28824	30976	-2625	-3029	2380	-5384	14808	-8912	-1292	-1718	495	-32768	17608	-27816	-3822	-5309	619	67	56	2
7600	-7276	22952	-351	945	109	-32768	-12160	-18904	-1786	1706	-300	-32768	-8496	-32768	-6454	126	5404	-3528	12480	16952	-1597	-5093	3958	-6936	5392	-14952	-3673	-4007	79	-32768	4928	-32768	-2826	-4510	292	109	79	2
-6668	-5272	19748	-372	1332	590	-32768	-13360	-9632	-3573	1229	740	-32768	-32768	-32768	416	4749	2211	-13984	7120	12368	24	-6671	4210	-9264	-1504	-13664	-2251	-5926	422	-32768	8480	-32768	-868	-5042	-680	84	153	2
-12840	-23680	17848	-703	2633	979	-16776	-32768	-7608	-1034	380	1395	-32768	3920	-15280	2474	4200	2232	-21496	9328	11040	792	-7320	3903	-9376	3736	-13808	-535	-6980	699	-22544	14392	-32768	-230	-5102	-705	104	169	2
-10900	-9944	30816	133	4675	2019	-32768	-32768	5472	-192	237	2229	-32768	-14560	-4984	-1189	4496	2596	-26624	11736	12552	1038	-7418	4098	-13760	520	-16632	-420	-7797	695	-9864	19832	-32768	-3486	-4565	-1753	147	100	2
-3064	-17296	31356	120	6073	3235	-32768	-32768	30248	-598	708	2477	-32768	-8120	16960	160	5509	1935	-32768	13360	12360	956	-7678	4570	-14720	-2760	-20072	-75	-8220	1056	6760	-5432	-31272	-5638	-4174	-607	125	109	2
-1108	-28072	22368	-656	7878	4525	-32768	-32768	32224	-1265	996	1731	-32768	-10888	32767	-310	4707	1474	-32768	8240	6448	969	-7584	5267	-7064	-4584	-25016	438	-8305	1705	16368	-4144	-26752	-3003	-1721	-390	165	85	2
-21372	-23468	25160	-850	8644	6037	12944	-10368	28152	-2394	-378	714	-17104	-8448	32767	79	3101	616	-32768	8624	1232	659	-6994	5792	-2408	904	-30176	-702	-7924	2336	23496	1200	-31304	-1026	-610	-511	159	65	2
-32768	-22900	16196	-3089	8446	5287	5408	-21592	11688	-2884	-338	1180	-8120	-13936	32767	-1040	1231	1054	-32768	2056	-3952	29	-5940	5769	-16552	-2120	-32768	-2229	-7258	2438	18096	-3352	-17248	595	-249	-737	141	51	2
-29420	-18160	20668	-2349	5037	5099	-5728	-14288	3640	-2749	1397	2441	-9824	-22616	26280	-74	-133	41	-32768	-8312	-12000	167	-5023	5745	-16608	-5496	-32768	-3067	-6089	1782	7272	352	-3536	597	-1364	-545	142	43	2
-30508	-32768	26804	52	1569	3505	-15008	-20360	1872	-3094	2007	2567	-8056	-5936	18376	323	-317	-244	-32768	-18000	-23896	225	-3625	5683	-12616	-13344	-32768	-3681	-4700	716	-256	6080	5936	547	-1354	42	153	27	2
-13276	-32408	24252	2504	13	1398	-3272	-29864	22496	-733	3442	1567	-10632	-1688	1008	575	-366	44	-32768	-21736	-32768	-184	-1627	4483	-2360	-12080	-32768	-614	-2436	-33	-7064	-2880	11232	2	-1866	328	143	31	2
5908	-16508	27784	2569	1100	1316	-6384	-17368	31432	702	4171	1068	-2616	-5776	13080	1293	-1654	-36	-32768	-18616	-32768	-585	-590	1169	2704	1928	-32768	1466	-444	496	-4344	-16360	18456	-206	-483	809	140	36	2
5520	-14024	32452	690	1804	785	-8296	-9152	28264	198	3146	1163	-6928	-960	13448	1797	-1825	-162	-32768	-27328	-32344	2380	-357	-1125	5264	-9688	-32768	1386	1843	247	1216	-20072	16016	-706	4231	1300	142	61	2
-9208	-16724	32767	-459	740	370	-11464	-12544	18160	-792	1774	1213	-6624	1496	13552	1209	-2324	-3	-23072	-12040	-30816	4462	1472	-1264	-2640	-16120	-17128	1825	3087	195	6344	-6392	-29640	6425	6960	1812	133	60	2
-18740	-14916	31792	-264	-1124	234	-16000	-15488	9904	-1691	571	1063	-14832	2832	13752	672	-2816	157	32767	-32768	-21648	-1044	7304	-5285	13448	-2752	-32768	2180	2889	-28	-4912	10216	-12824	4928	1310	542	134	119	2
-29688	-8948	28032	-541	-3326	-149	-22840	-10832	3248	-1947	504	873	-24248	-2416	7840	616	-3100	-207	32767	-32768	32767	-12077	-4980	-6152	-32768	32767	-32768	-11	5293	10991	-32768	32767	-32768	3114	5293	-2799	135	188	2
-16476	-16624	32767	-1008	-3306	-557	-32768	-18880	6048	-1247	-125	554	-32768	-18168	-1952	84	-2459	187	32767	-32768	32767	-27	1512	151	-32768	-13704	-14968	184	5224	215	-24424	-32768	-32768	-2348	3534	2856	166	118	2
-15296	-30800	23664	1209	-2770	-1186	-32768	-32768	-1032	651	-764	588	-32768	-3192	-14632	1895	-3872	-1502	-20064	12848	9800	252	930	-303	14184	72	6880	-1163	3602	-433	32767	-32768	-32768	1856	3079	1572	143	130	2
-19128	-16968	23804	1614	-3231	-2535	-26504	-15240	-10000	3058	-1519	-1067	-32768	-6208	-17440	2032	-4685	-2002	-3648	13448	19296	840	1199	71	-32560	32	-25976	1398	3674	188	-22640	21272	-32768	4487	3787	-1436	137	130	2
-18836	-9412	17796	211	-4581	-3580	-21552	-12736	-15496	3667	-2916	-1487	-32768	-1024	-26128	1706	-4628	-1484	-10312	13704	16032	902	2296	-11	-32768	18424	-31120	940	2158	28	-32768	32767	-32768	923	5585	-531	150	117	2
-22052	-8964	11932	-786	-5834	-3635	-15136	-10184	-13976	3611	-4168	-1739	-29184	10280	-27936	998	-4596	-1607	-2320	14992	24432	648	4076	-1189	-32768	15520	-16416	910	1728	-1158	-32768	9736	-10352	-1943	4759	-814	157	42	2
-22444	-5532	10568	-1479	-6221	-3330	-15928	-4344	-11800	3067	-5558	-2376	-10984	-1280	-24208	-317	-4443	-336	-5488	9712	32767	508	6591	-1733	-32768	-304	1536	220	300	-563	-32768	2344	4432	-1170	4371	-71	110	225	2
-24476	-3520	11308	-2729	-6408	-3147	-19784	-3864	-11408	1875	-6684	-2636	-10080	5432	-24296	775	-2921	-253	-4864	7984	32767	748	8337	-3046	-32768	-280	15680	683	91	73	-32768	-10976	21576	-823	4649	2435	96	194	2
-28576	-4624	7980	-3129	-6433	-3328	-19552	-4672	-15136	1172	-6859	-3032	-1440	5968	-25128	885	-2002	-174	-19456	16128	28040	1323	10354	-4264	-32768	5440	21760	651	-870	841	-32064	-11864	32767	487	3722	2099	84	159	2
-32768	-3488	2552	-2635	-5764	-3835	-18136	-3440	-20920	1583	-6131	-3620	9336	14808	-20856	1346	-1589	-156	-32768	15368	28112	2239	9739	-4468	-11928	16904	26048	2718	826	-231	-14872	-9048	32767	726	948	442	86	136	2
-32768	-1684	-324	-1991	-4587	-4521	-18256	-2616	-29352	2769	-4624	-4222	18912	7864	-18688	708	-1181	-283	-32768	6416	16808	5351	7759	-4152	-8320	19200	-808	901	2604	-1225	-4728	13776	32767	-107	-1061	-1076	89	139	2
-32768	11280	-7252	-1656	-3585	-5196	-28024	10192	-32768	3535	-3377	-4372	12488	10248	-18208	-339	-425	372	-32768	25312	-32768	2433	7897	-6262	-15392	12984	2912	765	3829	195	-10424	-480	28088	-883	-252	83	79	253	2
-32768	26072	-13588	-2308	-2268	-5565	-31352	14672	-32768	3166	-2780	-3593	5192	3928	-10472	-1445	-422	-244	-32768	31272	26672	-754	3733	-1947	-32768	14408	6400	-491	5669	-580	-2560	-3816	24600	-256	-332	394	58	244	2
-32768	32400	-22280	-2440	-223	-4883	-31368	18040	-32768	1804	-2096	-1876	-3056	-2424	1512	-2050	-1684	-773	-26168	9840	29440	-834	3346	-1779	-32768	1712	17536	-903	5097	-1045	-9720	6488	7552	-307	-1205	-293	63	205	2
-32768	28872	-27140	-1816	446	-2656	-23152	13816	-32768	-873	-1663	-433	-4584	520	11856	-1693	-1857	-599	-16712	8136	32767	1254	3715	-2640	-32208	-3616	23560	1097	4863	-955	-7752	-8824	10256	317	-2172	-415	91	173	2
-32768	32767	-30152	-1921	-242	128	-20136	17160	-32768	-2217	-73	191	7928	6896	9640	-2247	2368	-124	-20800	19960	32767	2459	3400	-3365	-29336	-1168	16464	2256	4461	-879	-7824	-17800	16936	706	-1288	-492	82	159	2
-32768	32767	-27576	-2787	1191	1342	-18632	25416	-24824	-2622	1394	1153	9536	7760	5488	-2567	3562	34	-27144	29520	32767	2140	1672	-2707	-30280	3840	9936	2451	3986	-516	-18920	-8152	15328	1998	-925	-919	38	149	2
-32768	32767	-32768	-1247	6586	6204	-8104	-4976	-32768	-132	1571	826	-3312	6736	21664	-1228	1338	1614	-24248	32688	32767	446	-424	-1609	-30832	4960	5944	1477	3386	-194	-29320	8168	10160	1783	-915	-745	137	120	2
-32768	-32768	32767	15199	-5531	8943	-15288	-32768	32767	-16694	8761	-1143	-32768	-32768	-32768	-4882	6730	-1997	-13840	23448	32767	-676	-1585	-532	-32768	2000	-3360	494	1699	95	-32768	27896	-19104	2484	526	-1310	210	166	2
-32768	-32768	-12076	-4127	4288	-2205	27376	-24888	-32768	-2581	6840	5741	-32768	32767	-32768	8354	1463	-748	-12968	32767	32767	-1814	-2926	789	-32768	10408	-10712	357	-1869	213	-32768	25304	-26368	-2926	-4151	863	126	95	2
-29460	-448	8556	244	2125	642	15016	19984	-4208	14	5941	-148	32767	32767	-32768	-6474	2718	789	-15032	18944	25992	-2355	-5758	1771	-6144	16464	-17536	-2777	-2542	-120	-32768	24008	-31168	-4268	-4052	194	107	91	2
-12240	-15532	15852	-620	1848	162	-22096	-32768	-19168	-4120	640	132	-32768	-7856	-32768	-7752	1326	5784	-12352	6256	12536	-915	-7443	2848	-15232	-4304	-16472	-3650	-5119	-270	-32768	-3128	-32768	-3015	-4655	-1436	146	0	2
-11304	4224	24256	-691	2031	944	-32768	-15760	-12440	-3429	-167	1309	-32768	-32768	-32768	2665	2567	1460	-17976	8104	7040	338	-7867	3489	-7400	-6680	-13616	-429	-6366	52	-28200	7808	-32768	-310	-4814	-567	175	2	2
-2628	-20848	29072	19	3882	2092	-31160	-31928	-5528	-984	804	2366	-32768	2584	-1632	1654	4175	2401	-24808	10040	10768	784	-7658	3841	-12896	4752	-15616	467	-7390	233	-17824	14896	-32768	-1315	-5013	-583	168	40	2
-9612	-14972	29020	143	5722	2712	-32768	-23808	1456	-73	723	2543	-32768	-8072	1056	-557	4196	2909	-31504	14536	10792	905	-7755	4378	-12480	2936	-16296	131	-8011	273	-5912	16000	-32768	-4046	-4497	-926	130	51	2
-2672	-12376	26932	-396	6732	3750	-32768	-32768	28312	-340	614	1782	-32768	-4392	18008	302	5265	1862	-32768	14576	7968	380	-7722	4803	-12672	2704	-16328	108	-8028	352	-3392	12000	-32768	-4772	-4320	-861	101	222	2
-27308	-21732	22640	-966	9209	5285	-32728	-32768	32767	-1756	640	1338	-25848	-14616	32767	-656	4395	1495	-32768	9040	2256	389	-7304	5053	-4512	2648	-25720	-242	-8182	1772	18136	-4240	-24000	-2772	-1209	-800	112	157	2
-32616	-24300	16448	-1134	8810	5538	15184	-20384	12192	-2201	-597	1032	-12792	-13952	32767	121	2383	629	-32768	7336	-1768	713	-6323	5070	-10104	3440	-32768	-1381	-7513	2203	20360	-2256	-23376	-583	281	-644	119	127	2
-32768	-12920	24800	-2541	6321	5305	9688	-21280	984	-1611	955	1644	-6376	-21712	32767	382	756	637	-32768	488	-7032	842	-5379	5203	-12024	1976	-32768	-1658	-7362	2247	14416	-3064	-16120	916	-209	-717	106	113	2
17236	-2244	-9180	-2198	4796	6441	-2248	-17704	6152	-1644	2671	2392	-10680	-15736	28496	1288	-411	-340	-32768	-9528	-16192	1015	-4219	5787	-15568	-12864	-32768	-2983	-5515	1314	768	1544	912	573	-2222	-612	117	99	2
-29116	-32768	20756	1833	1615	1693	-12960	-30432	11168	-1308	4020	1965	-10368	-8200	19336	866	-509	-95	-32768	-22768	-27792	787	-2387	5543	-8264	-9648	-32768	-1034	-3799	353	-5672	5232	10984	1471	-2454	-128	136	88	2
-14264	-17980	25736	3082	1209	1561	-10064	-24768	24024	201	4864	1322	-8816	-864	8184	1426	-920	107	-32768	-16936	-32768	23	-1169	3133	-608	2048	-32768	1101	-1536	240	-7176	-7512	15960	1139	-2181	102	122	89	2
-4160	-8204	31072	1452	2150	1829	-16360	-12144	28616	371	4791	1182	-1360	-4152	15200	1849	-2187	1	-32768	-18824	-30312	-216	-1259	-147	3856	-1792	-32768	840	605	569	-1288	-15224	18696	650	-285	1153	124	86	2
-12160	-10528	32767	-723	1880	1601	-17816	-9816	20352	-1316	3043	1635	-8744	1088	11008	1914	-2246	-280	-32768	-29744	-28344	2150	-1015	-1235	3608	-21960	-30520	454	2555	105	10776	-9144	-8984	327	6693	2083	114	83	2
-19932	-17500	32220	-833	400	1402	-18408	-17320	14712	-2628	1707	1563	-12336	2648	10744	968	-2631	-12	19760	-32768	-32768	2806	3356	-1695	1032	-32088	-248	1591	2490	-55	14968	-4392	-32768	8887	5881	961	123	107	2
-24968	-19080	29912	76	-1092	1327	-18760	-17200	7448	-2683	1177	1126	-18216	3952	14696	1038	-3034	-401	-32768	32767	32767	-20244	-5048	-4304	32767	32767	-32768	-683	3513	235	1952	-6272	32767	-4995	-7916	-393	144	253	2
-22700	-13572	28892	228	-2062	803	-25000	-13344	2848	-1273	1134	699	-32768	-14656	4712	-11	-2796	-642	-32768	-32768	32767	-1842	-2098	-9994	-32768	-32768	32767	-12276	14601	-5095	-32768	32767	-20168	3802	3695	-1103	143	170	2
-11876	-19496	29932	-112	-1755	-106	-32768	-29920	5704	-397	393	369	-32768	-10808	-9056	678	-2274	-938	2016	32767	14536	42	1781	2145	10728	32767	-4776	2549	5381	2312	-17248	-32768	-16256	-493	1790	2147	129	209	2
-20056	-28024	29256	1037	-2666	-1440	-25360	-24576	-8560	1297	-1188	-316	-32768	-3440	-13552	2168	-3858	-1903	-23568	3520	14696	743	1037	-192	-17272	-12920	-32768	-2976	5172	-1549	18944	-19472	-32768	3099	3774	644	158	104	2
-24144	-17128	20064	788	-4651	-3525	-20616	-13232	-16088	3735	-2588	-2062	-32768	3016	-23000	1778	-5222	-1494	-13248	-2800	17000	583	1928	-713	-23416	-9688	-27960	778	2261	-492	-32768	32767	-32768	3581	4721	-1902	171	112	2
-25356	-7112	10124	-13	-5896	-4831	-16488	-8240	-17912	4185	-3640	-2266	-32768	9968	-29336	843	-5216	-1756	-11840	18032	20800	801	3425	-930	-32768	13472	-12064	1788	1666	-179	-32768	32464	-14232	-1595	4173	-621	165	51	2
-23948	-1768	6100	-769	-6506	-4582	-12152	-3896	-14792	4301	-4436	-2731	-15112	7536	-23472	-511	-5041	-926	-3048	13224	27944	592	6172	-1450	-32768	6712	-8928	1241	2199	-1126	-32768	5488	-5456	-1175	4552	-1501	116	167	2
-27636	768	7736	-2254	-6524	-3964	-16608	-768	-12240	3279	-5768	-2873	-12536	-2856	-26224	-625	-4187	-168	-2504	7272	26032	509	8171	-2463	-32768	-4992	7264	536	70	-464	-32768	-6936	15984	-1876	4909	2092	165	61	2
-28484	892	6208	-2928	-6637	-3855	-20776	-152	-15648	1913	-6646	-2684	-3864	88	-27096	1004	-3367	-498	-13648	6040	28272	776	9884	-3943	-32768	3768	12992	450	-25	693	-32768	-10608	32767	193	4756	2153	151	74	2
-32768	5728	2008	-3092	-6521	-4122	-19504	7024	-20016	985	-6893	-2972	6880	14168	-22184	1866	-2462	-140	-24456	23736	32767	953	10532	-4578	-27512	4888	30776	2330	453	268	-14808	-7384	32767	408	2189	776	116	154	2
-32768	9848	-3404	-2904	-5820	-4452	-12120	7808	-26632	1025	-6270	-3385	8016	14272	-20568	1708	-2274	-74	-32768	19320	30440	4004	9704	-3612	-23616	9280	32767	2621	604	301	-11480	-1920	32767	-492	-798	-346	110	127	2
-32768	11012	-12300	-1526	-4933	-4426	-10200	8480	-32768	2164	-4775	-3992	20768	4816	-27720	-2063	2	350	-29072	32767	4200	3473	7123	-3838	-19544	14016	1656	271	3548	-1196	-22064	456	32767	-2263	-218	-309	111	127	2
-32768	24416	-16564	-1031	-3834	-4123	-24264	15640	-32768	2802	-3482	-3813	7632	8600	-20904	-1226	-467	-160	-32768	32767	30888	-590	5050	-2370	-28688	15592	1552	-985	4814	-1055	-3800	3304	19272	-95	-655	67	93	122	2
-32768	31828	-20192	-1883	-2920	-3694	-27560	17408	-32768	2146	-2632	-2924	-1272	592	-8560	-2754	-1532	-388	-19096	23096	32767	-2244	3649	-734	-31040	4480	17880	-2217	4337	-833	-8928	1560	14080	-267	-1594	-276	113	128	2
-32768	32767	-25472	-1505	-1960	-2379	-30000	21328	-32768	965	-1666	-1654	-2032	-3024	4584	-2383	-1261	-222	-20488	3056	32767	47	3028	-1338	-31416	-3632	22512	47	3973	-838	-7272	4496	13136	-85	-2079	-303	20	253	2
-32768	32767	-26268	-895	-895	-786	-28232	22760	-32768	-1134	-933	17	-176	-6440	11864	-1762	1076	46	-18936	13288	32767	2211	1975	-2432	-28936	2704	20520	1937	3790	-804	-12200	-13240	17896	186	-2145	-200	0	253	2
-32768	32767	-23876	-1378	-337	447	-22936	18472	-32768	-2262	267	1183	2568	3600	-28880	-1513	4898	660	-22840	25864	32767	2091	129	-2816	-30240	2472	13224	1892	3291	-729	-17448	-7096	15984	1069	-1572	-651	32	253	2
-8956	21656	-22836	-1294	1297	286	-5304	14984	-8440	-1308	1601	1731	-14112	24504	-32768	-1106	3828	1025	-21304	31112	32767	474	-1948	-1931	-32168	3696	7120	1342	2614	-399	-28464	3600	12880	554	-1931	-464	0	253	2
-32768	-32768	32767	19138	-5047	9956	32767	-32768	-32768	1190	-1821	1786	19608	2376	32767	1121	-1783	757	-19424	22736	32767	-1093	-3369	-996	-28552	1288	-2192	401	1429	-227	-32768	21960	-2176	918	-1689	-762	0	253	2
32767	32767	32767	32	-1341	4304	-32768	32767	32767	21789	16191	8582	-32768	21352	-27976	539	5081	-998	-18176	23344	32767	-1500	-4282	321	-32768	-1232	-11184	910	-741	201	-32768	27768	-22344	-1867	-2633	-132	246	0	2
-23428	-32768	-9944	-145	2422	-1015	32767	-32768	-14432	-3860	7292	3929	13248	32767	-13208	-3217	2320	177	-20176	25344	22248	-2588	-6356	1413	-20432	21728	-24576	-1239	-2586	-118	-32768	17816	-21624	-3150	-4430	-4	245	0	2
8916	12240	29012	-178	780	-128	-32768	-792	-32768	-3213	3126	790	-3192	20384	-32768	-4681	888	3484	-19400	7200	10488	-1520	-7463	2469	-16808	-1264	-20264	-3401	-4706	-240	-32768	11280	-24632	-3410	-4585	-869	192	4	2
-15104	-19260	8448	-286	1429	1031	-23288	-10824	-15504	-3956	1030	291	-32768	-32768	-32768	-7999	5592	5827	-23144	10392	3584	359	-7388	3104	-12552	-1520	-20488	-988	-6149	-113	-31232	4648	-31352	-1345	-6068	-945	173	50	2
-15412	-18300	14932	-504	2335	1138	-19152	-32768	-11664	-1626	-411	1695	-32768	-192	-26528	2334	3871	2282	-28136	10392	6176	1003	-7257	3561	-8456	5864	-22328	166	-7133	181	-25264	22936	-32768	-422	-5006	-1237	165	93	2
-10828	-6104	32767	241	4669	2130	-24184	-32768	-5352	-1563	-425	1952	-32768	-12752	-2440	-753	4834	3664	-32768	13400	5424	1318	-7435	3961	-8704	6040	-22032	191	-7529	294	-6616	20752	-32768	-4481	-4489	-1133	172	98	2
-10496	-12744	32767	177	5090	2215	-32768	-32768	27368	-477	77	3228	-32768	-10056	21408	845	5597	2172	-32768	14640	392	937	-7271	4410	-5728	3760	-23872	-108	-7706	973	12984	-7704	-27432	-4621	-3267	-251	183	45	2
-836	-26436	23004	-937	8306	4651	-32768	-32768	32767	-1550	1776	991	-32072	-8224	32767	829	5062	1365	-32768	9272	-2472	684	-6444	4897	-1080	4032	-25696	-1063	-7573	1668	14024	-5696	-23768	-1930	-244	-962	18	253	2
-20620	-28348	25376	-1083	9527	6314	17464	-16936	32767	-1796	-141	1113	-14392	-56	32767	-588	3128	980	-32768	7136	-4984	843	-5107	5090	-9200	3776	-31400	-1913	-7058	1925	17360	-640	-19752	-445	193	-939	127	97	2
-32768	-17272	13492	-3757	9121	5176	5632	-24288	8912	-1859	538	1686	-3520	-28424	32767	-833	572	1197	-32768	1200	-6472	1184	-3866	4897	-16488	-848	-32768	-2383	-6325	2178	13152	-5328	-16784	1039	414	-518	157	16	2
-24336	-32768	1892	103	6864	4662	-4368	-20088	-5416	-1854	2785	2527	-10608	-31728	26632	1086	-828	-533	-32768	-3632	-12080	1542	-2943	5060	-12920	-4072	-32768	-2431	-5488	1701	-392	2624	-1248	441	-503	-167	145	26	2
-32768	-32768	8216	3478	4778	2101	-18696	-28696	-12400	-1742	3753	2721	-10064	-18320	14720	1772	-758	-393	-32768	-14088	-18112	1225	-1651	5114	-12224	-8056	-32768	-1353	-4000	683	-7128	12416	8888	798	-2165	-24	165	0	2
-31444	-20728	21128	4221	3154	634	-14944	-32768	10480	1148	6440	1699	-8008	-304	2784	3119	-378	-110	-32768	-18224	-29560	700	-1296	3766	-64	-2568	-32768	853	-2597	199	-7640	-2912	9480	1963	-2457	-82	167	0	2
-15268	-4440	32740	1975	3371	1597	-19440	-17512	28416	1824	7109	1180	-5736	920	15096	3259	-2045	-492	-32768	-16800	-32768	153	-1810	689	3400	2024	-32768	2233	-159	707	-768	-14616	12832	1678	-997	716	171	0	2
-18152	-10792	32767	-1087	3017	2278	-28032	-4680	23240	-63	4904	1589	-9984	11168	12552	3031	-2144	-418	-32768	-26968	-28232	1678	-1843	-1168	4904	-14872	-32768	1748	1709	784	10448	-12904	10080	1021	4094	1807	169	0	2
-23188	-19912	32767	-1910	769	2118	-20520	-11512	21352	-3352	1963	1068	-13848	14720	12848	1040	-2530	215	-25584	-22056	-29944	3855	-296	-686	3480	-26384	-20104	1352	2957	171	19160	-2808	-32768	6057	6786	1716	160	13	2
-15296	-20160	32767	-1292	-1393	2007	-20280	-13456	18912	-4146	366	797	-22248	10320	13480	-547	-2742	197	-32768	-32768	-24800	1649	7847	-3211	9480	-18968	-10448	1345	2426	157	5464	9712	-32768	3316	579	58	149	40	2
-11488	-18136	32767	-716	-2743	1732	-21968	-14776	14944	-3574	12	647	-32512	-1952	12152	-762	-2840	-65	-32768	32767	-32768	-13436	-1536	1161	-32768	32767	-32768	-21318	7040	-184	-32768	-32768	-17064	-6211	4566	-2023	123	253	2
-10096	-12836	32767	-935	-3344	998	-25392	-15304	5952	-1958	-935	212	-32768	-28592	-1856	-737	-2384	156	-32768	32767	-32768	849	2154	4860	32767	-32768	-32768	10481	10674	-5789	-32768	2176	-32768	-665	1786	2961	131	253	2
-13736	-24304	30592	-179	-3917	-630	-32768	-24960	-1096	-570	-2487	223	-32768	-15680	-15584	2293	-3430	-1357	1744	-13760	23720	246	589	-1754	-1192	32767	-32768	2447	3695	-364	32767	-32768	-28544	4269	2325	2459	116	253	2
-24736	-21320	20800	901	-6103	-2462	-13008	-20976	-19592	3221	-2997	-1874	-32768	-5376	-21496	2323	-5541	-1231	-10544	10944	16296	1180	1412	186	-27600	-2536	-26704	-1679	3550	-545	-19632	4520	-32768	5146	975	-1712	128	226	2
-22792	-5252	10344	177	-7135	-4201	-17200	-2616	-18616	5520	-3683	-2332	-32768	-5456	-31152	1747	-4817	-1484	-13272	-1944	17752	1123	2095	-547	-31904	-6392	-29960	655	2919	228	-32768	32767	-32768	223	7117	-1196	164	10	2
-29260	-5892	3176	-419	-7635	-4243	-15192	-7352	-18304	4931	-4832	-1984	-28232	3728	-32768	880	-5193	-1401	-1200	13168	28512	1054	3513	-1395	-32768	11808	-19448	1564	2224	108	-32768	5152	-7024	-1029	4557	-1176	123	156	2
-32768	-2844	7228	-1177	-7523	-3652	-17848	-6600	-17960	4138	-6363	-2229	-11944	-624	-28784	324	-4621	-354	-3072	7736	28208	894	6144	-1762	-32768	1192	-6464	1826	1381	-1123	-32768	17480	-3056	1019	3957	-532	88	152	2
-32768	-5968	7340	-2847	-7938	-3410	-21696	-5328	-18832	2417	-7599	-2363	-6504	3648	-26712	1411	-3777	-228	-1760	7880	23016	1332	8444	-2080	-32768	520	7280	874	756	-817	-32768	14368	9944	-87	4649	1469	110	153	2
-32768	-3996	1280	-3202	-7659	-4119	-18512	-1016	-20168	1273	-7839	-2800	4392	9952	-24608	1601	-2266	-149	-6736	8648	19648	1559	10280	-3589	-32768	1664	11544	767	144	-209	-32768	-2896	19888	-77	5242	967	141	40	2
-32768	264	-3928	-2960	-6162	-4712	-15360	-2552	-22016	1435	-6766	-3574	10440	15288	-15104	1112	-1685	224	-28264	19168	32767	1610	10586	-4104	-29816	2008	27632	2273	284	373	-22800	7144	32767	1445	4506	648	132	99	2
-32768	3136	-3992	-2375	-4030	-4707	-16720	-4712	-28264	2616	-5103	-4090	14704	7760	-18184	-610	-454	239	-32768	26464	12936	2696	8750	-4071	-7368	27376	9144	948	288	-473	-8928	31720	32767	-2127	985	229	100	117	2
-32768	7324	-3684	-1792	-2959	-4413	-25208	2200	-32768	3648	-3511	-4410	12048	8136	-18528	-1098	351	319	-32768	27584	9232	3157	4758	-3560	-12448	7952	72	-1190	2677	-1182	-19608	-7176	32767	-4070	-461	626	107	84	2
-32768	15200	-5092	-1567	-2391	-4681	-32768	13368	-32768	3481	-2973	-3970	2528	7984	-12040	-995	406	2	-32768	32767	16648	1827	2698	-3549	-25480	4880	-5424	-203	4668	-821	-13664	-13336	32767	-1658	449	-20	114	70	2
-32768	31844	-16352	-1731	-2255	-4950	-32768	20472	-32768	1999	-2708	-2615	-5432	2808	-3816	-1421	-785	-700	-18776	32767	24848	-265	2132	-1633	-26784	6096	-2984	-182	4737	-700	-7088	-9272	18768	-555	-523	-275	112	130	2
-32768	32767	-32768	-1737	-1299	-3216	-25000	17480	-32768	-136	-1863	-974	-9576	-680	5816	-1875	-1742	-645	-13240	10544	31344	-612	3281	-1679	-30864	-6752	21872	273	3891	-463	-9792	-4904	18496	184	-1691	-775	130	89	2
-32768	31540	-32768	-1391	-121	126	-20568	16536	-32768	-2060	-760	106	-4328	3856	7616	-1575	-504	-558	-24256	8552	32767	1408	3317	-1709	-30864	3888	21960	1763	4133	-1025	-15056	-2576	17072	752	-1659	-855	120	66	2
-32768	30424	-27848	-1959	174	1450	-24816	21888	-32768	-2877	1242	1010	10664	7856	-10440	-4446	5750	914	-26176	24648	32767	1600	1915	-2730	-32768	9432	16000	1301	4101	-1057	-12944	-8088	19432	641	-1963	-562	84	90	2
-21932	30852	-25376	-2711	2343	729	-16656	24632	-11040	-2659	2271	1791	2992	18944	-32768	-4420	4933	2168	-26464	29400	32767	473	98	-2703	-32768	1536	8680	464	3698	-813	-24528	1712	17312	510	-2104	-287	0	253	2
31200	32767	-18948	-297	7429	5213	15984	-32664	-32768	155	1226	1144	-15232	9208	32767	942	464	1433	-25080	26936	32767	-398	-1709	-1540	-32768	-3048	248	382	2891	-364	-32768	12080	8168	-376	-2600	-605	140	222	2
-31276	32767	32767	10099	368	11228	-32768	-32408	32767	-10694	19063	-3108	-32768	-32768	-32768	-1236	7362	-1511	-14448	23016	32767	-775	-2754	-211	-32768	-3048	-8752	876	988	178	-32768	30832	-20784	296	-783	-689	241	106	2
4476	32767	32767	-1177	2222	-180	32767	-32768	-25112	-508	4210	4827	-13136	32767	-8384	5484	748	-1286	-14992	29256	31088	-2304	-4304	1275	-18840	21352	-13848	-801	-1458	328	-32768	28664	-24776	-2801	-4204	-183	159	49	2
-19700	-10304	3680	393	1180	1011	-2776	13960	32767	-1150	4492	-417	32767	32767	-32768	-5840	2499	2009	-19128	11992	17936	-2685	-6842	2717	-9624	2056	-22312	-3784	-4167	-209	-32768	14272	-29560	-3475	-5691	-434	176	37	2
-16708	-23140	5660	-492	2322	162	14072	-32768	-9760	-4616	-165	651	-32768	-32768	-32768	-9640	3937	6607	-18272	4328	5704	-814	-7962	3331	-10576	-4568	-17080	-1888	-5990	-695	-32768	2288	-32768	-2013	-5216	-1403	140	119	2
-16676	-1928	17456	-216	2255	896	-27376	-30096	-19648	-1443	-687	2026	-32768	-15096	-32768	4146	3103	2087	-20856	6728	3448	307	-8231	2672	-3648	5976	-16984	579	-7054	-298	-23328	22624	-32768	768	-5632	-862	134	227	2
-9536	-9592	32767	522	3687	2571	-32768	-23552	3504	-307	-251	2642	-32768	-4232	-1200	856	4998	2744	-26808	10328	4392	966	-8126	2487	-7296	4112	-19800	937	-7816	-57	-2688	30680	-32768	-4541	-5960	-1785	151	167	2
-5400	-22168	32400	420	5900	3145	-32768	-32768	26808	-427	1172	3257	-32768	-928	14784	871	4988	2600	-30336	13064	2888	1155	-8063	3149	-6872	616	-21072	942	-7988	389	12584	-3944	-31200	-6151	-3871	-650	158	137	2
-836	-18532	23048	-740	7354	4336	-32768	-32768	31432	-1127	1464	1174	-32768	2264	32767	371	5266	1386	-31536	14936	-2984	467	-7322	4381	3792	4352	-21832	116	-8015	1256	18376	-12856	-32768	-3430	-1488	-390	151	139	2
-28160	-21112	26556	-1139	9432	6311	15040	-10752	32767	-2396	-630	594	-25240	-6128	32767	-1317	3846	1239	-32768	7376	-7328	149	-5884	5189	-2640	-248	-26888	-1966	-7629	1781	22080	-3752	-24144	-544	82	-939	137	104	2
-18024	-22684	29716	-1097	9313	6107	264	-23880	3432	-3053	-798	876	-7728	-23472	32767	-1560	827	1255	-32768	-2312	-8880	847	-4560	5371	-7992	-5672	-32768	-2159	-6860	2053	22480	-7560	-18664	784	630	-832	133	114	2
-32656	-12852	9148	-1924	5701	5343	-2160	-15736	-7056	-3126	1748	2512	-14840	-32768	29200	-252	-595	34	-32768	-4664	-11768	1673	-3654	5509	-12160	-2632	-32768	-2170	-5742	2003	10680	-1016	-7696	744	1030	-78	143	99	2
-32768	-32768	14936	615	2701	4134	-17880	-20632	-4616	-3578	2895	3163	-4392	-8280	17520	835	122	-359	-32768	-10600	-16520	1189	-2432	5661	-13576	-3848	-32768	-3171	-4670	908	-3184	7896	7448	490	-412	368	130	93	2
-23684	-31060	21884	2972	1160	2086	-10480	-32768	13168	-486	4747	1990	-3056	-11720	8888	882	-397	-117	-32768	-19088	-27448	145	-1359	4690	-8208	-8784	-32768	-1039	-2652	-295	-10336	7616	14848	2305	-2637	208	132	91	2
-8368	-12716	27828	2468	1838	2117	-15656	-20352	29848	499	5566	1633	-2664	-9152	5064	1981	-1155	318	-32768	-10872	-32768	-1495	-1504	1471	-608	11912	-32768	1723	-321	208	-18424	-1368	11032	2010	-1143	211	80	253	2
1032	-14860	32767	605	2979	2208	-13984	-14504	29016	-290	4258	1693	-3472	-4280	15592	2957	-1957	-79	-32768	-15968	-32032	-1228	-1725	-2345	3832	-264	-32768	1181	1569	527	-4024	-10104	14272	1261	1269	1154	60	253	2
-9152	-17372	32767	-492	2669	1793	-16048	-11648	21016	-1337	2659	1708	-10344	6456	9120	2230	-2019	-109	-30480	-26128	-30784	2412	-1044	-2366	3408	-27680	-24832	1031	3120	-35	14408	-1744	-25024	4598	8257	1708	58	222	2
-19560	-18704	32767	-457	972	1075	-16896	-16576	12928	-2509	1174	1337	-14848	4536	13072	813	-2544	251	32767	-17928	-32768	3874	4117	-912	6424	-27560	1488	2108	2215	41	21616	-3712	-32768	5580	4078	772	76	148	2
-28704	-19204	31144	188	-1094	598	-22168	-22296	4624	-2337	891	1116	-22208	6736	19344	730	-2799	-406	-32768	32767	-32768	-15678	-9171	844	32767	32767	-32768	-12072	3447	-556	5984	7616	32767	-8517	-9319	-647	73	254	2
-27172	-6924	31992	-331	-2426	53	-28536	-13320	-1632	-866	995	380	-32768	-32768	-6600	-1196	-2209	-104	-32768	32767	-30096	1731	-966	-1216	32767	-32768	-32768	14926	10611	-8102	-32768	-18264	-32768	-577	5265	1049	121	227	2
-15140	-29384	31368	-92	-1917	-729	-32768	-32768	7288	-415	-271	759	-32768	-5928	-8736	1916	-3408	-1355	22384	-11240	25976	498	941	-744	32767	32767	-32768	3743	4182	810	32767	-32768	-31192	2532	2472	2540	118	166	2
-25980	-25120	30968	1100	-2862	-1789	-23552	-23904	-11608	2256	-1419	-1003	-32768	-7256	-16520	2238	-4743	-1749	-21048	16144	12464	1227	1559	-90	352	32767	-32768	771	3533	-470	-10648	9200	-32768	4909	2096	-532	142	196	2
-20784	-15600	22032	226	-5049	-3904	-23272	-9088	-12344	3887	-3406	-2088	-32768	6424	-27288	1597	-5592	-1772	-17520	-2928	20568	1042	2222	-605	-32768	-4264	-32768	-111	2363	-242	-32768	32767	-32768	1723	8092	-898	150	142	2
-22532	-6732	13780	-781	-6444	-4694	-15048	-6744	-14104	3796	-4785	-2265	-29632	9168	-32552	553	-5611	-1570	2376	9584	30608	992	3855	-1414	-32768	11184	-19192	601	1583	-499	-32768	4576	-8784	-2456	4217	-764	115	225	2
-23748	-3872	12052	-1929	-7036	-4538	-13800	-4224	-11352	3470	-6150	-2934	-13584	7664	-30288	-284	-5000	-742	-1984	12168	32656	954	6155	-1735	-32768	-3952	-1216	703	256	-459	-32768	4400	808	-463	3771	-1330	73	253	2
-28668	-4652	11332	-2845	-7331	-4198	-18936	-4592	-11248	2612	-7280	-3326	-7064	456	-32768	637	-3868	-362	-2064	8680	32767	807	6445	-1811	-32768	592	11272	741	213	258	-32768	-264	24640	223	5350	2795	59	253	2
-32768	-780	8548	-3349	-7450	-4391	-22784	-744	-16328	1903	-7625	-3537	768	4032	-32288	1332	-2545	-537	-22824	13976	26144	1556	10385	-4479	-32768	8688	28200	804	-875	836	-32768	-13464	32767	518	4252	2741	78	152	2
-32768	3040	836	-3361	-7068	-4994	-20368	5672	-24728	1540	-7290	-3996	4800	6704	-32264	1440	-2338	-483	-29216	15912	26424	3348	10202	-4850	-11504	5088	27560	3333	627	525	-32728	-17480	32767	336	1209	440	157	0	2
-32768	4156	-4904	-2468	-5880	-5529	-14776	4016	-32768	2209	-5968	-4521	26336	7456	-27504	-561	-721	-274	-32768	8928	16440	7999	8125	-4230	-9344	14456	-1584	3055	2366	-763	-10144	5400	32767	1399	-475	-421	162	0	2
-32768	14476	-13112	-885	-4478	-5776	-15520	3800	-32768	2503	-5729	-4611	23160	11152	-24320	-278	-482	80	-32768	23928	-32768	3447	7541	-7114	-14032	17864	4056	1954	4097	-331	-3976	14312	30968	179	484	-231	158	0	2
-32768	26912	-14296	-993	-3032	-5896	-32768	15184	-32768	3909	-3168	-4222	3880	3568	-9664	-1607	-1010	-542	-31472	32767	24800	-1772	3699	-1821	-32568	13488	11344	-1294	5240	-878	352	5432	17024	367	-357	-38	145	23	2
-32768	32767	-20696	-1452	-1625	-5507	-32768	17880	-32768	3249	-2275	-2528	-2264	-5184	2864	-2435	-1542	-715	-31184	31224	26080	-2119	3653	-1584	-30992	-4680	19512	-2444	5013	-1079	-6744	5704	4672	-1239	-1065	606	133	57	2
-32768	32767	-31420	-528	-933	-3258	-23672	17048	-32768	887	-1172	-514	-4440	-6448	12128	-1554	-858	-651	-20288	-2280	32767	977	4329	-2488	-25704	-9968	25176	242	5046	-1311	-10992	-9840	5288	-1174	-1889	-330	113	147	2
-32768	27064	-31520	235	-616	145	-24048	14464	-32768	-1227	-158	155	-4800	-6440	12504	-1318	-665	-660	-19336	18048	32767	2369	3739	-3870	-24440	-184	19104	1569	4608	-1455	-1152	-20016	14344	-440	-1720	-166	105	173	2
-32768	30724	-24652	-2022	-265	693	-22712	18136	-32768	-2322	1603	1309	-2216	15680	4392	-733	5058	973	-20888	26784	32767	1895	2112	-3448	-23944	-1136	12616	1613	4013	-1146	-11544	-8440	13232	1460	-1131	-614	67	175	2
-15444	22852	-22300	-2281	2245	759	-17080	17536	-5048	-2357	2420	1639	-1504	24856	-32768	-2777	4958	1897	-22912	31688	32767	477	176	-1998	-28912	6632	9464	1173	3383	-653	-18888	3144	12032	1607	-1352	-744	53	115	2
-32768	-15380	17932	3785	4620	8045	31552	-32768	-32768	-1525	1334	1747	-16696	-28304	32767	1462	-6300	1288	-27024	28304	32767	-1356	-1167	-1178	-32768	5080	-272	-146	2507	-501	-32768	30200	5680	1349	-1369	-525	39	253	2
32767	32767	32767	2544	5375	5757	-32768	32767	32767	11670	16572	3033	-32768	-4056	-32768	5608	3871	-1544	-22976	27336	32767	-2043	-1728	187	-32768	-440	-7976	-962	690	-452	-32768	28216	-11040	-2534	-1334	625	240	252	2
19108	32767	32767	-60	1603	-403	32767	-32768	-32768	-4957	8564	3512	21104	32767	-19728	-3925	2672	-52	-22776	23072	32360	-3089	-3891	904	-22328	15928	-17624	-2384	-1140	-259	-32768	18592	-17200	-4408	-4004	134	85	119	2
5956	-6164	23592	-9	1165	139	32767	-32768	-15896	-2037	6393	2233	-13016	15192	-32768	-6163	351	4793	-22344	9752	18888	-2567	-6632	2197	-16840	-1736	-19632	-3539	-3530	-692	-32768	11592	-13872	-3342	-5371	-1092	120	99	2
-4604	-7788	16240	-357	1515	840	-32768	-9152	-11800	-4205	1151	384	-32768	-32768	-32768	-6787	6502	4127	-14776	1264	6704	-731	-7901	2626	-9344	-8528	-14792	-1103	-5341	-569	-32768	5576	-30064	-753	-4479	-704	139	20	2
-14284	-25476	14776	-759	3007	859	-20008	-32768	-8288	-928	-88	1320	-32768	2392	-17344	2812	3257	2237	-18112	5560	6760	327	-7807	2386	-7552	312	-14480	1493	-6238	-573	-30072	13552	-31296	640	-5125	-805	147	60	2
-10772	-9780	32044	124	5054	2282	-32768	-32536	1392	-241	-206	3212	-32768	-14896	-1760	-1218	3540	3228	-25232	7504	9696	1141	-7859	2695	-10896	1152	-16888	1737	-7226	-395	-11048	26480	-32768	-3027	-4868	-2033	159	70	2
-2036	-15304	30632	-352	6398	3739	-32768	-32768	31552	-1625	-102	3108	-32768	-9480	13768	380	4627	2659	-30832	11640	8752	1540	-8299	3238	-11912	1216	-17664	2084	-7577	279	-1088	-1032	-32768	-5639	-4508	-1324	146	129	2
-2468	-21540	23788	-1324	8923	4746	-32768	-32768	32767	-1367	374	2121	-32768	-6936	26848	-989	4692	2183	-32768	12304	64	982	-8311	3826	144	3800	-21640	1574	-7787	1259	15064	-12256	-30088	-3662	-2130	-990	160	95	2
-19616	-25620	30684	-655	9667	6314	2360	-29632	27344	-2171	-428	1150	-27520	-24048	32767	-964	4063	1144	-32768	8184	-4232	582	-7607	4287	2616	7320	-24304	-313	-7452	2007	19944	-1256	-26024	-1203	-1095	-1432	162	79	2
-32768	-32768	6524	-1389	7718	5943	19784	-24480	-8168	-1949	-135	1270	3584	-23216	32767	-477	1537	1113	-32768	4680	-9792	649	-6368	4794	-5488	816	-32768	-2137	-6984	2312	18328	2528	-24880	917	362	-1284	117	118	2
-18364	-16560	12804	-1043	4053	5446	-7520	-17104	4056	-1191	2575	2661	-10480	-22176	26848	1479	90	-124	-32768	-3936	-13360	1061	-4784	5397	-10096	-5024	-32768	-2529	-6440	2099	15544	-1384	-14784	767	745	-366	102	132	2
-29704	-32768	25836	-175	327	3847	-18496	-20008	2624	-2555	2619	2555	-9768	-7648	20216	1535	-352	-365	-32768	-6184	-15872	969	-3123	5899	-10320	-568	-32768	-2723	-5514	1480	432	5416	-3592	536	-398	305	101	115	2
-13744	-32768	20616	2452	-437	1875	-5376	-30344	19032	-726	3485	1508	-10336	-11640	3704	1328	-499	-10	-32768	-12856	-22856	16	-1415	5372	-15120	-6136	-32768	-1844	-3824	520	-6608	11000	11992	1430	-2715	361	113	100	2
-460	-15828	26580	2388	938	1448	-11664	-19008	26656	458	4044	1223	-9280	-12384	3200	1427	-670	-49	-32768	-15688	-26200	-324	-1193	3174	-7800	1072	-32768	1149	-1389	183	-12064	184	16224	1964	-2052	141	110	79	2
-7404	-10940	31944	669	1356	654	-14104	-12624	23064	-58	3380	1644	-4832	-2976	10632	2933	-1996	-392	-32768	-14712	-32280	320	-2064	-287	-4848	4416	-32768	1468	-1129	291	-6120	-7624	22248	1336	1558	753	133	19	2
-10816	-18992	32767	-59	199	517	-13592	-20272	22272	-1040	2471	1741	-9912	3800	13336	2152	-2430	-449	-32768	-28184	-32768	3025	-1462	-1901	2808	-21072	-28264	1671	2293	480	6360	-6560	-17912	5149	6792	1105	81	134	2
-9948	-14128	32767	248	-632	735	-19384	-15928	15888	-1354	1672	1387	-15064	3120	14088	1101	-3088	-150	32767	-32768	-32768	507	5301	-4627	17672	-31160	-32768	1093	2750	622	12256	4112	-32768	6137	2247	958	92	149	2
-13932	-14084	30824	11	-1343	438	-23056	-13272	8608	-1441	1054	1170	-30632	-152	10616	734	-3246	-420	-32768	-32768	-32512	-9661	-3756	-4615	-32768	32767	-32768	-18674	6765	3448	-32768	32767	-32768	229	6937	-2017	129	172	2
-20920	-17016	32767	-688	-1837	-360	-32768	-19336	4152	-1130	-398	594	-32768	-9552	3248	145	-2532	233	31800	-32768	32767	-395	2550	3447	28672	-26736	-32768	3323	7576	996	-32768	32767	-32768	136	5631	-736	61	253	2
-24836	-29972	32388	850	-2913	-1993	-32768	-32768	-3320	-37	-1479	569	-32768	-88	-11576	1946	-3995	-1373	-23552	10736	4920	368	1161	-793	6680	-8864	-32768	-1304	3962	-363	32767	-32768	-27992	2314	3388	1042	173	19	2
-24996	-14620	25364	1197	-4275	-3296	-27256	-18032	-11536	3198	-1783	-1543	-32768	-4160	-19344	1862	-4916	-1565	-12600	13448	13176	942	1765	-186	-26256	3448	3656	1014	3583	163	-18496	17664	-32768	3763	3316	-1094	186	23	2
-22576	-5856	16564	-199	-5249	-4049	-25248	-8256	-14616	4334	-2996	-2062	-32768	792	-30104	1677	-5276	-1504	-8352	12760	17072	1059	2650	-359	-32768	15672	-23984	1011	2776	394	-32768	32767	-32768	680	6704	91	144	131	2
-24880	-6164	12012	-665	-6009	-3903	-13560	-5688	-16296	3783	-4407	-2094	-27376	5648	-29736	1060	-5643	-1140	-1696	8008	29112	676	3851	-1276	-32768	8896	-15744	873	1593	-633	-32768	17488	-11400	379	4714	-1158	81	253	2
-28680	-3392	12884	-594	-6847	-3299	-16072	-4248	-14960	3411	-5826	-2571	-14864	6928	-25856	343	-4668	-499	-3872	11008	32767	828	6141	-1662	-32768	528	-7592	990	1017	-720	-32768	15664	-7688	-1091	4785	-131	96	189	2
-31224	1200	9384	-2139	-7659	-2597	-20608	-1288	-13352	2152	-6941	-2590	-9168	1536	-27928	839	-3691	-377	-4928	7040	32767	661	8332	-2537	-32768	864	9384	749	325	-1	-32768	-5872	16200	-711	5532	2137	133	61	2
-30924	-1636	1904	-2921	-7663	-2689	-19152	-144	-17256	1045	-7132	-2862	344	2152	-28072	1741	-2768	-345	-20192	11608	27808	1111	10483	-4314	-32768	3224	22920	223	-295	713	-32768	-5512	32767	1094	5372	2300	116	131	2
-30276	1060	-5688	-2714	-6021	-3325	-15136	1808	-22688	1355	-6247	-3348	12136	8344	-25576	2414	-2252	-549	-15728	16208	22960	1228	10818	-4612	-24160	13200	32767	3184	-50	421	-22504	-7920	32767	1188	2055	557	72	205	2
-32768	-2244	-9356	-1670	-4216	-4167	-9320	720	-32768	3048	-4602	-3970	18208	9944	-25536	-132	-906	-514	-32768	928	16200	6337	8708	-4214	-5792	18792	-160	2692	2232	-713	-16928	-312	32767	-290	-621	196	74	204	2
-32768	9636	-13908	-1009	-3114	-4843	-21432	12712	-32768	4208	-3194	-4578	19520	10680	-26280	-551	-622	-398	-32768	32767	-30920	3207	8949	-6093	-8320	14072	648	1295	4175	-15	-15080	-13296	32767	273	188	318	105	121	2
-32768	21344	-13016	-2097	-2127	-5820	-30456	16168	-32768	3880	-2849	-3867	5264	8168	-19880	-1788	-384	-600	-32768	32767	26416	-1328	3905	-1805	-32768	12320	11128	-941	5355	-677	-5240	-5080	11552	1539	-979	-152	112	85	2
-32768	23812	-17684	-2656	-1004	-5979	-28008	16664	-32768	2494	-2704	-2554	2416	424	-4704	-2905	-1049	-343	-21392	6280	31632	-1153	4162	-1256	-32768	-6408	17856	-1373	4874	-450	-6336	9032	1008	-135	-1482	200	154	0	2
-32768	27940	-26220	-1980	-696	-4155	-24768	13216	-32768	179	-2082	-1043	-1640	-3032	4904	-2123	-546	-96	-20928	3632	32376	1799	4092	-1987	-24944	-3024	24200	1264	4746	-661	-8360	-5472	6224	-1399	-3149	-39	157	31	2
-32768	28008	-27404	-1875	-821	-3621	-23768	14672	-32768	-2102	-1262	-231	-9512	-1096	6584	-1525	378	-70	-16952	23320	32767	2689	3306	-3384	-24472	-888	23736	1630	4733	-715	-5568	-13800	20008	-218	-925	-314	57	253	2
-32768	32676	-28380	-3087	-920	1501	-24536	21240	-32768	-3219	220	968	1280	12760	5832	-1679	4354	712	-19664	32168	32767	1845	1537	-2911	-27416	1736	17472	1317	3898	-555	-13832	-7232	15096	1234	-1452	-552	0	253	2
-24340	-24344	-20124	1437	3583	2362	-12264	-2824	-8936	-3314	1389	1365	-2288	16208	-20264	-3816	5201	1522	-20192	32767	32767	527	-238	-1454	-32024	4296	13424	1037	3262	-144	-20000	-2136	16376	1255	-1667	-648	0	253	2
-32768	-32768	32767	8587	-4945	3873	-23736	-32768	-32768	-3171	1731	226	-32768	-32768	32767	-4146	2355	-37	-23552	20816	32767	-297	-1320	-398	-32768	-200	-400	723	1660	-58	-32768	31696	-6208	2383	-294	-1015	243	117	2
32767	32767	32767	1377	2687	5722	-21344	32767	32767	4429	8621	7535	-32768	19232	-23176	6473	32	-289	-23488	21432	32767	-330	-1468	-138	-32768	1056	-9000	504	-275	86	-32768	32767	-22000	-2633	-3638	797	122	165	2
-14172	-20060	4216	-62	2886	-318	32767	-32768	-14896	-743	7210	2936	32767	32767	-32768	-7606	3699	54	-19776	19664	31720	-2820	-5396	1606	-10480	12976	-18160	-2137	-1803	-27	-32768	9216	-20176	-5128	-4997	106	161	99	2
3992	-18472	17652	-246	1124	349	-32768	-19512	-32768	-3445	718	464	-29496	-32768	-32768	-7688	535	8124	-19824	-720	17096	-1650	-7520	2756	-18264	-6672	-18400	-3333	-4213	-319	-32768	5048	-25672	-2477	-4177	-760	140	58	2
-8364	2176	22424	-522	1429	718	-32768	-7584	-19144	-3760	398	961	-32768	-32768	-32768	2095	4159	1178	-17448	3304	10016	-41	-8115	3147	-11920	-8040	-14280	-305	-6103	-329	-32768	11632	-32768	-884	-3623	-994	154	0	2
-9880	-23100	19736	-587	2548	1206	-23296	-32768	-15336	-456	649	1743	-32768	2136	-18120	1103	3953	2498	-22840	6896	14680	433	-8032	3030	-10496	352	-17008	1155	-7225	-185	-31968	15352	-32768	-438	-4305	-1532	146	37	2
-10476	-17612	28396	262	4907	2095	-32768	-32768	-288	1	146	3306	-32768	-23800	-3528	-2064	3974	3059	-32768	13256	17552	821	-8595	3715	-18184	2496	-20152	904	-8135	-150	-10728	23792	-32768	-3319	-5588	-1270	170	22	2
-7408	-17228	32108	188	6240	3479	-32768	-32768	29448	-1033	298	2987	-32768	-2936	11816	780	4916	2262	-30448	14648	15272	848	-8693	3853	-16384	1120	-20944	706	-8686	467	4496	-5672	-31144	-4572	-3849	-604	42	253	2
-6340	-22476	26724	-926	8553	4925	-32768	-32768	32767	-1494	493	1870	-32768	-7408	32767	-1198	5661	2539	-32768	16464	3088	-156	-8462	4782	-8576	8264	-24440	-20	-8568	1230	17880	-2952	-25752	-3321	-1486	-565	159	65	2
-22892	-24472	32124	-714	9758	6689	8976	-18216	27960	-1994	-1018	1150	-21080	-22344	32767	-813	4073	1581	-32768	14472	-2488	-366	-6998	5028	-12728	8096	-29832	-2284	-8111	1664	19056	-1184	-23480	-2087	-401	-709	108	199	2
-32768	-32768	11924	-2524	7680	6009	20408	-23712	-7968	-2339	-453	1831	-6000	-19504	32767	-4	1105	1197	-32768	9128	-7192	-60	-5300	5262	-18112	-1184	-32768	-3914	-7294	1733	18680	-5520	-19248	-107	211	-784	98	146	2
-11160	-20744	6684	-1947	3809	5680	-8352	-14152	2320	-2264	2212	3409	-10432	-28024	26848	965	-23	28	-32768	-2200	-13680	630	-3910	5475	-20904	-7472	-32768	-3195	-6203	1413	6896	-8320	-7520	56	-606	-808	169	0	2
-27864	-32768	22032	675	654	4005	-17024	-23328	128	-2796	2651	3243	-4616	-2032	16472	1396	3	-222	-32768	-10504	-20496	357	-2315	5325	-14992	-3240	-32768	-1833	-4701	919	-5536	-448	11432	-599	-2585	-628	170	0	2
-16816	-29536	17344	3789	391	2046	-9792	-27856	14040	-120	4381	1978	-10480	-7208	5392	749	-386	151	-32768	-22928	-31880	96	-1301	3796	-1360	-264	-32768	434	-2447	225	-8488	-568	16272	1016	-3422	-183	159	9	2
-16008	-23588	18640	3910	555	1928	-13768	-22008	24872	750	5036	1657	-7432	-4832	10688	1640	-1295	46	-32768	-17520	-32768	529	-1370	541	3496	8856	-32768	1947	-33	610	-4640	-15352	12832	1726	-1939	551	98	146	2
-6548	-10516	29820	977	2540	1240	-14304	-11888	20416	-7	3874	1800	-6088	-5584	11344	1803	-1498	30	-32768	-15664	-31664	1575	-1445	-2123	7168	-3928	-32768	2249	1582	736	8080	-12672	9200	2542	2967	1496	83	235	2
-16748	-13892	31076	-730	1328	1204	-15608	-15144	16168	-1398	2554	1848	-9312	4272	7272	1487	-1939	-60	-25512	-17464	-28272	3404	-714	-1940	6280	-20712	-24008	2055	2625	534	14688	3888	-32768	7484	7448	1756	106	68	2
-15080	-15664	29188	-870	-48	1502	-17384	-20456	12952	-2740	1445	1463	-11592	1656	10560	951	-2488	180	32767	-32768	-28712	1206	6865	-5204	15616	-25320	-32768	2128	1965	962	5552	5712	-32768	5599	1422	1134	127	115	2
-17048	-16104	25420	-695	-938	1402	-18264	-13736	7128	-2621	1161	1347	-22920	-2848	7760	692	-2444	-149	-32768	-32768	-32768	-10309	-2877	-6883	-32768	32767	-32768	-21688	1446	10254	-32768	32767	-32768	2754	8174	-3137	125	229	2
-20356	-18336	32767	-578	-1013	418	-27680	-20128	4360	-1145	298	937	-32768	-17296	216	240	-2195	318	24288	-32768	32767	700	3196	3874	32767	-18776	-32768	8937	7169	-1008	-32768	-30928	-32768	-1065	2524	2643	107	253	2
-27064	-32768	26448	1366	-1462	-848	-32768	-32768	-3288	-130	-64	1104	-32768	-2152	-6608	1741	-3187	-1782	-32768	22496	6664	498	829	-387	-9096	-17680	-22496	-2506	3823	-272	32767	-32768	-32768	3386	3369	807	161	59	2
-15032	-18476	24616	2007	-2488	-2348	-21952	-17376	-9080	2695	-840	-1163	-32768	-376	-16400	2820	-4220	-2104	-6304	22360	13856	937	1660	-50	-20472	-13072	32767	-1293	4973	182	-30232	26072	-32768	5042	3620	-1667	166	81	2
-17588	-10184	16192	345	-4215	-3728	-15680	-6936	-14520	3590	-2416	-1794	-32768	-376	-26928	1590	-4601	-1880	-13384	17168	16168	1008	2557	-72	-32768	21904	-23464	1140	2650	-120	-32768	32767	-32768	-679	5710	-169	164	77	2
-17552	-7328	8820	-696	-5621	-4200	-10488	-6496	-14416	3729	-3765	-2081	-32768	5880	-30112	1272	-4890	-1431	-13776	21848	15536	1023	2728	-382	-32768	4016	-14848	673	1555	-966	-32768	4480	-11800	-178	4833	-1138	70	254	2
-21540	-8344	8524	-909	-6375	-4249	-11864	-3936	-12392	3701	-4883	-2643	-19128	4472	-27224	478	-4679	-970	-7160	6728	29352	517	5999	-1890	-32768	-2072	-3064	771	883	-560	-32768	6472	-992	-407	4585	-96	166	0	2
-22224	-3880	10688	-1421	-6766	-4387	-17672	-3200	-9080	3396	-5945	-2977	-12040	6448	-26360	767	-3868	-389	-8936	9776	32767	613	7801	-2783	-32768	1168	11048	1248	337	-166	-32768	-10472	12688	-873	4399	1019	220	0	2
-27856	-2392	11536	-2420	-7058	-4387	-20784	-4120	-9352	2458	-6779	-3078	-8232	6552	-25824	712	-3105	-594	-19224	4992	25576	1189	9712	-4140	-32768	2240	15960	1820	298	222	-32768	-280	28096	1337	4284	1114	192	0	2
-30812	-1708	6984	-2782	-7055	-4231	-19632	-3496	-13808	1557	-6941	-3418	4856	5208	-24104	976	-2046	-287	-29968	16864	30120	2364	9774	-3903	-32432	6984	27528	2603	155	352	-27472	1344	32767	1611	3485	1719	159	11	2
-32768	-2520	2400	-2460	-6501	-4181	-15984	-1864	-20824	1823	-6180	-3945	15576	11088	-24848	1409	-1571	-684	-32768	14256	24616	5324	8613	-3452	-7296	14048	-656	2384	1055	-348	-15864	-3232	32767	199	-51	-169	140	64	2
-32768	-1504	-4120	-1658	-5511	-4606	-16632	800	-28704	3079	-4698	-4649	21080	10784	-25080	243	-891	-479	32767	-8200	-18968	5785	5845	-3434	-10784	15952	-1464	1158	3438	-735	-15296	9632	32767	-906	-646	385	140	66	2
-32768	7960	-10168	-1377	-3814	-5503	-29464	10048	-32768	3964	-3485	-4840	20104	9640	-25048	40	-832	-385	-32768	32767	16704	849	2633	-2482	-29376	16976	-1736	1039	5076	-719	-4072	-912	27856	-683	-33	-138	144	57	2
-32768	19712	-11804	-2474	-1825	-6737	-32768	13744	-32768	3634	-3068	-4258	3448	7416	-11728	-904	-954	-635	-27184	18112	19120	-1565	2421	-2058	-32416	9896	12184	-295	4977	-873	-5936	3712	11152	80	265	55	143	69	2
-32768	25300	-20616	-2689	-11	-6599	-32768	16640	-32768	2252	-2524	-2790	-3544	2104	3872	-1872	-1722	-696	-22648	3200	21440	-290	3704	-2448	-31392	-1392	16000	-306	5141	-964	-8304	3192	8048	-675	-1615	-16	130	124	2
-32768	32767	-28744	-2126	379	-4724	-29600	23768	-32768	10	-1623	-1142	-6536	-1376	15016	-1824	-1917	-541	-24176	10112	27496	1728	4238	-3340	-30720	928	17240	1354	5187	-1330	-6552	-6936	12472	184	-1610	130	28	253	2
-32768	32767	-32768	-2295	252	-1298	-24536	21936	-32768	-2207	-580	323	4504	5944	21080	-1955	2221	82	-28720	23944	32767	2035	3908	-4120	-32568	3192	12816	1498	5072	-1614	-11832	-10072	17008	1007	-1021	-395	18	254	2
-32768	4256	-5540	228	783	1788	-14024	-1704	-25120	-3051	868	1557	5032	18816	-32768	-5109	6904	1370	-30160	32767	32767	822	2465	-3377	-32000	4208	9016	893	4790	-1056	-16624	-3048	14176	1585	-837	-401	0	225	2
-32768	17904	32767	13787	-4680	14978	17800	-32768	-32768	-3323	779	3262	-32768	-32768	32767	-1106	-3794	937	-29736	32767	32767	-838	1025	-1901	-32344	3008	7856	751	4704	-929	-32768	22056	-3048	2511	-220	-789	48	253	2
32767	32767	32767	3963	3821	7973	-32768	32767	32767	11740	22349	3860	-32768	-10448	-32768	5514	-71	-23	-18384	32767	32767	-2358	46	-18	-32768	-1168	-2112	-812	1844	-425	-32768	30640	-3488	-996	-1819	516	175	175	2
22520	32767	32767	-257	788	1135	32767	-32768	-32440	-2975	9016	3728	32767	32767	-18576	-3022	4249	-1873	-6952	17720	32767	-3249	-2009	1043	-15616	9056	-3544	-1699	-507	-185	-32768	22040	-20432	-5136	-4528	794	227	132	2
-15732	8632	17684	249	920	609	-27096	13320	11448	-4181	3510	130	-17992	-5792	-32768	-5752	-137	6543	-5840	7528	25640	-2359	-4525	1584	-7016	3624	-16832	-2998	-2440	-393	-32768	544	-25904	-3726	-4409	-295	144	75	2
-18104	-18876	7076	-276	1637	471	-4712	-15880	-20208	-4908	907	576	-32768	-32768	-32768	-3064	4722	4507	-15224	2448	16848	-587	-7296	2045	-5816	-7784	-15864	-1587	-4995	-96	-32768	15320	-32768	-1748	-4308	-498	181	0	2
-16788	-8656	14676	-428	2295	622	-25944	-32768	-32768	-1058	445	1174	-32768	8096	-30840	1318	3573	1884	-15616	5048	8864	341	-8902	2476	-192	-1112	-9696	334	-6135	-175	-32768	9472	-32768	-1007	-4709	-1233	168	0	2
-7784	-13404	28600	86	3183	2134	-32768	-26968	-7720	-493	-631	1421	-32768	-11896	-10128	-2134	4148	2216	-19192	9128	9704	539	-8487	3012	-14608	1224	-12656	543	-7426	-378	-24392	8832	-32768	-1780	-4899	-1759	110	183	2
-10084	-15388	29624	212	5005	3159	-32768	-32768	11216	-1549	-212	3214	-32768	-25872	5768	-1205	4596	2586	-29496	9104	12528	688	-8188	3772	-12944	-3648	-16608	508	-8238	-267	-6960	6664	-32768	-3514	-4589	-862	72	239	2
204	-11900	23984	-1013	6590	4658	-32768	-32768	21256	-1501	-512	2427	-32768	-2856	21088	-227	4706	2370	-32768	10664	12952	1078	-8210	4375	-14704	-1152	-18592	1149	-8536	364	7160	-1592	-26752	-2688	-2631	-627	39	253	2
-21048	-21556	23152	-1050	9234	6196	-32432	-32768	32728	-1855	-245	1729	-32352	-16120	32767	-1361	4016	2090	-32768	12144	6928	573	-7971	4870	-8824	3160	-20176	725	-8412	1121	14936	-56	-24376	-2293	-979	-1179	153	0	2
-32768	-15844	20436	-2497	8836	6348	10776	-25096	16528	-3189	-1137	1268	-13936	-21008	32767	-1313	3843	1607	-32768	7160	1904	-94	-7168	4856	-9088	4688	-25616	-953	-8103	1515	19480	-1160	-24888	-1415	-766	-1066	162	1	2
-32768	-14964	12392	-3269	5013	6084	7040	-24656	-11616	-2336	381	1856	-7240	-21208	30608	349	958	897	-32768	4560	-6392	-91	-6498	4720	-13136	616	-32768	-2197	-7190	1883	20704	-1088	-18432	-449	-335	-903	148	56	2
-32768	20864	-9404	-3089	3585	8114	-9144	-17840	-2576	-2450	1798	3332	-7664	-22464	21376	1094	104	-46	-32768	-2272	-10664	-23	-5410	4908	-15120	-4576	-32768	-3093	-6519	1725	11432	-8920	-10088	-208	-287	-324	75	217	2
-28404	-32768	12264	2461	235	2212	-4360	-32768	3328	-1165	3877	2715	-5040	-816	11192	1725	321	-169	-32768	-13400	-18656	485	-3941	5181	-14304	-8880	-32768	-2138	-5497	1055	1192	2008	3128	-443	-1173	-56	59	212	2
-13416	-18612	14296	5271	378	1262	-8000	-21664	14472	1546	5629	1434	-7296	-12600	800	1131	-88	7	-32768	-16056	-29288	331	-2399	4458	-7216	-784	-32768	-398	-3509	266	-2240	5864	7144	89	-1568	-199	54	158	2
3380	-8416	22212	3770	2211	401	-9200	-21456	17232	1785	5845	1376	-6720	-11496	12584	1673	-917	-291	-32768	-12792	-32768	-400	-1557	1546	-1464	11032	-32768	1066	-1513	327	-9664	-8048	16552	1025	-2133	134	80	178	2
-4808	-9512	29776	1723	2959	105	-11184	-10608	21192	1278	4690	1525	-1992	-3360	12992	2501	-1552	-532	-32768	-18184	-32768	294	-1135	-1959	-256	4064	-32768	1759	398	959	-9072	-13616	17608	1651	-214	521	80	171	2
-15572	-10100	32744	663	1418	559	-14416	-14784	15568	-626	3159	1510	-3400	-96	13088	1738	-2220	-424	-32768	-16664	-32768	2199	-19	-2775	2848	-10480	-31736	1797	2186	542	7032	-2272	-9544	2500	6783	1592	82	175	2
-16072	-9388	32336	121	-153	1378	-19312	-13048	13352	-1907	1917	1209	-10888	-1760	11608	1141	-2452	-212	5128	-18816	-26664	3164	2442	-1540	2112	-25512	2496	1930	2205	52	7960	8768	-32768	10757	5510	1021	90	191	2
-15884	-9432	31860	44	-331	1461	-20328	-13472	8640	-2252	1197	1312	-17760	4096	11952	1635	-2420	-347	-32768	32767	-32768	-15569	-17419	-5629	32767	32767	-32768	-4081	2598	1320	13264	15672	32767	-5797	-11248	1580	115	254	2
-16500	-11296	29548	-549	-1382	1215	-21008	-17040	2928	-1754	398	888	-32768	-22904	-160	-121	-2073	121	-32768	32767	22488	413	-1118	-5016	-32768	-32768	32767	-7586	10135	-7063	32767	-272	32767	-5215	-3785	409	131	253	2
-27764	-30360	32767	70	-1339	135	-32768	-32768	-664	-1061	-466	1236	-32768	-8424	-9168	2166	-2184	-1483	13784	-13968	32767	659	1731	631	32767	32767	-32768	2810	6108	1979	32767	-32768	-30672	2103	3243	2291	127	182	2
-26548	-23020	32584	1826	-3184	-1928	-26104	-19168	-7168	1969	-1325	-282	-32768	56	-10920	3261	-4443	-2146	-3560	-15496	24976	1053	1170	-900	-31784	-14768	-32768	-409	3569	1772	-416	3928	-32768	7844	1215	-222	136	197	2
-16048	-8144	22164	401	-4661	-3458	-25184	-12000	-9272	3575	-2428	-1752	-32768	-2640	-23568	2506	-5086	-1687	-13472	5912	13504	730	1718	-792	-27576	13384	-32768	1666	2489	938	-32768	32767	-32768	5835	5292	-2312	141	243	2
-20812	-5004	14752	-407	-5729	-3582	-16656	-7696	-15232	3900	-3846	-1897	-32768	6040	-30288	1806	-4964	-1405	-11128	16736	18296	716	2656	-1012	-32768	22352	-8992	1704	1620	-195	-32768	32767	-32768	3824	7343	-1133	148	247	2
-24216	-2228	13840	-1044	-6550	-3342	-16104	-2736	-13144	3907	-5173	-2231	-21808	4536	-29032	730	-5190	-782	-9960	13984	26800	304	5045	-1689	-32768	7088	-3752	1320	1018	-1388	-32768	16712	-1536	-1194	4110	-681	99	191	2
-28432	-3424	16000	-1623	-7000	-3216	-21112	-4160	-11744	3259	-6702	-2565	-15896	3904	-28624	757	-4260	-41	-7440	13688	29336	213	6675	-2171	-32768	2072	10408	1270	866	-653	-32768	-7688	8608	-1661	4694	743	127	140	2
-32768	580	13728	-2796	-7778	-2932	-24632	-2672	-14128	1845	-7789	-2734	-10528	8120	-29360	879	-3352	-338	328	8776	19992	589	8790	-3705	-32768	4680	17104	1785	495	-404	-32768	-10480	13720	-1414	4672	978	79	221	2
-32768	-1148	3336	-3154	-7956	-3315	-22680	48	-20336	832	-7659	-3148	6328	7920	-27448	1008	-2529	-260	-30400	15120	17704	1482	10408	-4829	-32768	2480	27904	2414	42	-214	-32768	-4264	32767	1435	3596	1748	21	207	2
-32768	-3520	-4724	-2036	-6582	-4212	-13104	-1784	-27280	1773	-6253	-3823	16632	8392	-23952	1115	-1996	-672	-32768	22176	19968	4868	9700	-4686	-2792	8992	22896	3316	870	-25	-12416	-4848	32767	930	-649	-268	162	0	2
-32768	-1528	-13664	-172	-4757	-5119	-13592	-1496	-32768	4430	-3675	-4682	18968	12832	-22504	-196	-786	-445	-32768	20776	13480	7285	7146	-4678	-11520	17576	2832	3120	2987	-1146	-11864	11960	28016	2431	-320	89	130	43	2
-32768	14528	-18588	2	-3006	-6146	-30160	12064	-32768	5464	-1952	-4451	14192	5952	-17128	-373	-428	232	-32768	32767	30232	1551	5920	-4208	-23144	16808	-824	363	4355	-956	-6608	4832	25016	-364	-681	-495	170	1	2
-32768	18024	-20660	-24	-1924	-6601	-30760	12008	-32768	5416	-962	-3515	2000	3072	-6120	-983	-1372	-577	-16720	32767	29584	-3212	3009	-1064	-26480	11312	16976	-1878	4096	-485	-5784	9608	8992	-658	-736	-277	157	27	2
-32768	32767	-27616	141	-585	-5240	-30096	17488	-32768	3535	-511	-1815	-1640	-5008	7768	-936	-1782	-551	-11720	472	32767	-2080	2479	-646	-22016	2008	30144	-1429	3732	-396	-12832	11624	4472	-399	-1509	8	163	34	2
-32768	27944	-27912	-647	-657	-1819	-23144	10080	-32768	-232	-815	55	-1088	-5736	8696	-824	-1646	-613	3224	9640	32767	774	2818	-1897	-18672	-1016	30440	-96	3089	-742	-6056	-1536	14368	-2136	-1991	-26	142	158	2
-32768	17804	-25964	-1207	-1750	1731	-20360	11864	-32768	-3100	-624	443	-5104	8000	10336	-1700	1872	-199	-11952	23088	32767	1542	1807	-1967	-19224	696	19352	544	2468	-675	-9096	-9960	16144	-1721	-1527	-284	87	140	2
-32768	19236	-24992	-1462	-1906	2037	-14880	12432	-30544	-4057	627	1243	-1728	22640	-32768	-2918	4793	1379	-19336	26648	32767	514	-1056	-585	-23624	5336	13248	713	1769	-549	-14848	-3264	18768	-320	-1771	-564	75	167	2
12968	15272	-30288	-1760	2031	1372	-1216	19288	856	-2276	1672	1344	832	17312	-32768	-3012	3255	1149	-28544	20352	32767	-1072	-3434	-58	-31400	4800	2784	215	1495	-564	-22440	5336	16440	-620	-2174	-339	41	188	2
-32768	32767	-7076	3217	6481	5833	13456	-32768	-32768	1240	-382	1191	4872	-32768	32767	655	-6931	1374	-32768	8520	32088	-1883	-5671	416	-31840	912	-8048	-465	1498	-807	-32768	25432	8248	-674	-2195	-249	171	98	2
32767	32767	32767	1133	4636	4578	-32768	32767	32767	-8099	17004	4834	-32768	23640	-32768	3135	5909	-1559	-24256	18064	30824	-1753	-5926	837	-32768	-3352	-13792	71	-50	-628	-32768	23824	-18936	-1687	-954	-3	212	9	2
-17028	-12868	1112	427	3371	-1542	32767	-32768	-30744	-6199	6522	4162	16360	32767	1648	-3408	1128	-352	-23904	24024	17544	-2911	-5866	1151	-31512	16880	-22152	-1459	-2338	-581	-32768	14608	-21536	-2623	-4723	-60	192	0	2
-1064	10604	23600	-250	1162	258	-32768	8632	-8096	-2176	2779	102	1976	15080	-32768	-6022	286	3199	-19816	13736	13456	-1609	-6063	2747	-24744	560	-23728	-3125	-4547	-411	-32768	8736	-32768	-2835	-6255	-367	152	43	2
-7900	-4364	16480	-429	1481	805	-30224	-6616	-6040	-3829	1774	83	-32768	-32768	-32768	-9847	5982	5189	-26664	9824	6992	250	-6299	3699	-18072	2064	-23784	-1166	-5620	-396	-32768	7624	-32768	-2823	-6061	-547	103	225	2
-15964	-25488	10908	-628	2396	1077	-17832	-31496	-8872	-2012	252	941	-32768	-5896	-24248	2821	3311	2010	-30008	4432	6936	1095	-6497	2972	-9336	3368	-25560	85	-6580	430	-23536	20720	-26336	694	-8113	-117	178	33	2
-12960	-11948	29192	286	4709	1938	-32768	-32768	296	209	-1191	1658	-32768	-3640	-14200	-1449	3417	3026	-32768	4432	3552	1709	-7030	2887	-7616	72	-28312	670	-6910	771	-15008	26280	-32768	-3889	-4059	-1534	166	88	2
-12536	-14660	32767	147	6198	3356	-32768	-32768	21640	-1166	-93	3819	-32768	-17064	5664	-820	3479	3321	-32768	4320	3160	1723	-7047	2937	-2832	-1776	-28728	441	-6949	1174	7696	-14144	-22224	-4040	-3160	-302	150	131	2
-3068	-21664	27264	-1118	6554	4678	-32768	-32768	32680	-2282	1034	2176	-32768	-14824	32767	19	4738	1457	-32768	920	-8232	665	-5789	4187	-3360	1200	-25848	-869	-6411	1470	5776	-32768	-32768	-1759	-1841	-687	179	38	2
-27720	-31200	26908	-685	9822	6180	-4192	-27008	30840	-1923	233	1317	-31520	-12360	32767	-949	4267	1119	-32768	-1904	-9216	60	-3973	4574	-4736	-792	-27624	-2804	-5637	1531	14304	1432	-15384	-858	58	-781	152	56	2
-32768	-22196	13080	-2708	8978	6178	7848	-27576	7016	-2052	-28	1408	1440	-17408	32767	-325	2149	1260	-32768	-13080	-6344	186	-2479	4251	-10032	-6496	-32512	-2980	-4976	1208	8632	1816	-12408	-375	13	-748	110	181	2
-32768	-15364	16468	-2899	6154	5672	-4216	-8080	-1568	-1733	1971	1880	-8488	-25768	28080	517	329	232	-32768	-14960	-8648	1265	-2047	3159	-10312	-9832	-32768	-1633	-4651	1134	4544	-4624	-9048	365	273	-556	74	178	2
-32768	-24664	18608	400	3779	3801	-22120	-16592	-6720	-2824	2453	2164	-9472	-8680	20264	855	-63	-289	-32768	-16032	-8872	1418	-2052	3014	-1680	-4128	-32768	-101	-3568	636	-2376	1544	88	406	-257	5	130	40	2
-28240	-32048	20716	2643	1620	551	-8264	-31936	12792	-995	3814	1715	-8160	-9064	9768	1033	-307	-219	-32768	-7616	-18664	452	-2092	2189	-248	2264	-32768	774	-2294	201	-3624	3400	-872	1355	-1421	-69	107	73	2
-12732	2352	24100	1996	1843	1217	-14704	-13840	16632	497	4656	1074	-7440	-4648	6864	961	-1708	239	-32768	-8560	-26800	-377	-2207	464	424	6832	-32768	1558	-1034	526	-2392	-4456	2400	2410	-1050	298	106	79	2
-17468	844	25908	-664	1852	1903	-20496	-11248	16992	-749	4099	1835	-5128	-11808	12440	1982	-2347	-152	-32768	-12528	-29392	969	-1687	-1544	768	1328	-32768	1796	455	911	-4176	-8392	4448	2269	-6	729	40	237	2
-21100	-11884	29244	-1255	1009	2544	-21264	-17104	13120	-2185	2484	2548	-8504	-1312	9136	2554	-2278	-266	-32768	-13400	-25248	3345	-664	-1938	360	-11080	-32768	2711	1844	794	-192	-13736	7240	972	2585	930	126	62	2
-19300	-15772	28920	-467	-167	2536	-17464	-17288	17184	-3029	1531	1946	-10640	1720	9016	2044	-2308	-82	-18024	-13664	-21616	4108	598	-1081	56	-12968	-32768	2763	2031	796	9072	4584	-32768	7734	6078	1152	116	33	2
-12388	-16976	32372	389	-627	2187	-17272	-17448	14856	-2175	1562	1873	-15872	-2400	14584	1460	-2633	-383	32767	29576	7704	1904	3427	-154	19704	-7616	5648	2243	1229	133	20976	8512	-32768	7013	2903	631	78	240	2
-11952	-19868	31324	1010	-940	1471	-20536	-17064	11944	-1096	1650	1627	-29224	-1448	15512	947	-2651	-379	-32768	-32768	-21704	-3239	-5707	-2648	-32768	32767	-32768	-23146	-1363	7296	-22560	32767	-10928	-1486	3944	-1659	28	254	2
-9064	-10324	32767	411	-1442	800	-29176	-17544	3376	-362	478	937	-32768	-28000	-2088	-108	-1946	24	-20616	32767	-28736	675	5098	5706	3664	-32768	-32768	8968	7118	-2138	-32768	-32768	-32768	-5373	1843	4156	74	253	2
-16652	-31472	32767	776	-3456	-474	-32768	-32256	-4160	27	-1644	1016	-32768	-10312	-12440	2893	-3370	-1497	-11408	-664	8848	529	584	-921	-25728	-12336	-32768	-380	5342	-114	32767	-32768	-32728	3554	4031	673	100	253	2
-16616	-22572	21220	1759	-5963	-2066	-11184	-20712	-15800	3463	-2513	-1156	-32768	-3216	-20104	2982	-4870	-1539	-4712	9408	15456	977	1459	-258	-21016	-1984	8752	81	3139	845	-30760	7328	-32768	7858	-86	-1862	107	253	2
-16204	-9720	9428	34	-6759	-3789	-16304	-1000	-15672	4905	-3497	-1811	-32768	1440	-27952	2590	-5272	-1496	-8384	9064	16928	879	2281	-238	-29728	8728	-14032	1314	2556	410	-32768	32767	-32768	1608	7157	254	112	253	2
-25648	-7880	3764	-500	-7112	-4170	-10704	-5832	-18384	4262	-4999	-1864	-27104	7832	-30336	1152	-5114	-1192	416	13408	27032	794	3286	-1475	-32768	12728	-9232	1568	1897	-157	-32768	13664	-6208	-476	3809	-1290	99	225	2
-27672	-5152	5556	-1277	-7475	-3716	-20016	-9624	-8568	3789	-6020	-2199	-14232	3288	-27248	471	-4639	-584	-1160	3936	29520	354	5930	-1827	-32768	2312	-7792	1445	1409	-1477	-32768	25496	-4192	916	4269	-1197	126	113	2
-31992	-3468	6484	-2755	-7734	-2941	-18632	-4832	-16296	2054	-7860	-2867	-8952	1944	-26416	1029	-3854	-53	-1200	14080	24864	80	7607	-1854	-32768	5104	2768	1442	1529	-821	-32768	11696	10656	-261	4479	867	234	0	2
-32768	-3608	2680	-3404	-7547	-3134	-17456	-2592	-18904	980	-7874	-3010	-208	6472	-24488	1333	-2750	-240	-9168	15136	22248	268	8857	-3460	-32768	9672	10912	854	705	-548	-31064	-9176	25064	-79	5250	1446	251	0	2
-32768	-4020	2316	-3451	-7524	-3282	-15640	-2408	-20312	1180	-6526	-3708	8224	12264	-17592	1332	-1955	80	-22928	19416	32767	277	9904	-4266	-32768	288	21352	1851	124	-169	-28904	-9056	32767	682	4290	1010	204	0	2
-31628	1844	-3672	-2940	-4735	-4025	-14448	-1528	-24952	2199	-5004	-4349	13976	4432	-19744	442	-500	-126	-31752	21664	21272	1952	9264	-4162	-9696	14168	23912	1820	317	-235	-10512	-3256	32767	-729	51	555	183	0	2
-32768	2136	-7256	-2209	-3742	-4339	-17808	4336	-31136	3145	-3415	-4650	16760	6984	-23408	-721	161	-130	-32768	25352	10528	3724	7514	-3704	-13432	11152	3664	486	2037	-1086	-11224	2048	32767	-1174	-456	231	170	1	2
-32768	11280	-9432	-1837	-2459	-5236	-27616	13496	-32768	3703	-2626	-4495	15432	7456	-22800	-703	203	-128	-32768	32767	15840	1648	8138	-2464	-12264	13856	1552	-629	3526	-761	-13424	-10688	24712	-1195	613	201	157	6	2
-32768	21160	-13528	-2262	-882	-6168	-32112	15672	-32768	3348	-2444	-3762	64	5504	-9968	-1253	-355	-543	-18400	32767	26928	-2110	4059	323	-27488	13008	17536	-2283	3737	-272	-8480	-1968	17768	-499	53	-180	112	149	2
-32768	25072	-24020	-1971	576	-5565	-29320	14120	-32768	1744	-1610	-2314	-2304	-368	4112	-1551	-978	-626	-11736	1664	32767	-2010	3507	413	-21792	-5528	21584	-2004	3222	332	-9104	280	20144	-1206	-1487	-305	55	253	2
-32768	32512	-27708	-1891	1118	-3413	-27176	17576	-32768	-266	-822	-992	-6792	-2928	11936	-1660	-712	-471	-22448	-11712	32767	1966	2517	-881	-22520	-8360	19256	1250	3237	-30	-13368	-4920	16048	-1465	-1571	-518	17	253	2
-32768	32767	-26692	-2804	590	-1112	-26120	20696	-32768	-2204	214	515	-3992	232	11712	-1799	1655	84	-27184	9320	32767	3828	367	-2570	-27288	3088	11136	2951	3512	-600	-11128	-16856	13400	-40	-2016	-655	13	223	2
-32768	25208	-19376	-2592	809	428	-22600	22776	-20160	-2743	1326	1363	3768	14408	-32768	-5195	7121	1380	-32176	25904	32767	2514	-1830	-2844	-29272	1136	5168	2589	3421	-479	-16264	-13632	11968	1335	-2147	-584	95	158	2
-32768	32767	-15724	4016	2822	11509	15560	-32768	-32768	-1234	-112	1891	-19152	-32768	32767	693	-5371	1185	-28528	28760	32767	305	-3801	-1750	-31384	-4552	-144	2063	2751	56	-32768	15472	1528	2728	-1473	-772	37	208	2
32767	32767	32767	4048	3836	9125	-32768	32767	32767	4480	21335	2638	-32768	-12520	-32768	5369	2889	131	-21176	25240	32767	-590	-3914	-265	-32768	-4720	-2016	2470	1292	211	-32768	21096	-9432	1100	-1304	-155	239	253	2
5712	32767	23028	301	1739	-618	32767	-32768	-32040	-3036	8102	5023	24192	32767	-16632	-1216	3458	-1093	-11792	19496	24352	-1987	-4285	625	-26712	14008	-7488	190	-259	493	-32768	18328	-13272	-2447	-4067	165	81	191	2
-11068	-3192	12564	487	785	742	-20448	9168	7456	-4107	3205	653	1016	13680	-32768	-6442	667	4372	-9336	7200	15608	-1070	-4435	1938	-19664	840	-16232	-3246	-2337	425	-32768	8032	-15328	-2488	-3644	-127	171	45	2
-17068	-17124	8192	57	1643	314	-7232	-15088	-25128	-4746	646	878	-32768	-32768	-32768	-7481	5387	6240	-9728	5904	11008	-148	-4541	3324	-15824	-7088	-17784	-3106	-4259	391	-32768	4632	-32384	-1260	-4754	-292	138	104	2
-16360	-9408	16028	-282	2142	664	-23512	-31232	-19904	-640	653	1331	-32768	-1424	-29504	3563	3110	1031	-18744	3688	13760	209	-5219	3763	-7384	-4192	-19960	-1425	-5559	509	-31392	13200	-31584	84	-4881	-703	167	31	2
-7508	-9380	27736	83	3326	2070	-32768	-22184	-64	407	-326	2020	-32768	5040	-25048	3074	3412	1320	-26392	2328	15312	802	-6251	4195	-11432	-1144	-19608	-336	-6450	182	-23392	15224	-32768	-1882	-5075	-1324	125	253	2
-11180	-12864	32136	249	5385	2890	-32768	-32768	17096	-898	-407	3389	-32768	-12240	6712	-647	4833	2709	-26192	5320	10680	1101	-7228	3955	-11600	304	-15344	530	-7135	487	-7536	8688	-31672	-3694	-4460	-1205	27	253	2
-3752	-19356	29068	-503	6320	3897	-32768	-32768	23120	-1082	-290	2281	-32768	-4960	21800	77	4803	2643	-27616	8688	6240	785	-7300	3482	-10000	2608	-17504	578	-7279	976	6888	-3032	-26224	-4123	-2916	-811	38	253	2
-31284	-25756	24048	-723	8859	5797	-31392	-32768	32767	-1785	614	1026	-32528	-10784	32767	-709	4469	1948	-29616	8264	432	301	-6662	3715	-5184	1520	-20336	-641	-7362	1418	13600	-3320	-24128	-2932	-1568	-1383	211	0	2
-32768	-22208	23424	-1339	8586	6661	12856	-30720	16456	-2393	-896	1769	-15504	-18664	32767	-560	3640	1415	-32768	2496	-3344	675	-5264	4096	-7824	-2320	-25648	-1433	-7044	1677	17840	-2936	-22688	-859	-811	-1257	242	0	2
-32768	-18264	12504	-2228	5770	6241	8496	-21104	-7952	-1260	1364	1485	-5376	-32136	29104	-492	636	924	-32768	-1968	-3544	1486	-4094	4328	-11536	-5784	-32768	-1447	-6472	1971	16736	-19456	-12848	1582	91	-872	192	0	2
-3828	18808	-11504	-2895	4595	8578	-1456	-19240	80	-2102	2369	3453	-11672	-20016	22832	2119	182	-306	-32768	-4952	-8680	1637	-3665	4842	-8464	-4072	-32768	-1231	-5571	1733	9200	-3744	-8120	199	-205	-308	191	0	2
-27088	-32768	17844	2450	1734	2466	-12328	-31032	5000	-1056	4320	2940	-5000	184	15040	2105	346	-119	-32768	-12032	-17344	656	-3103	5067	-7312	-6016	-32768	-1601	-4445	997	2664	3592	2392	1028	-1872	-76	175	0	2
-15904	-16696	22452	4374	1731	1328	-11560	-19440	15208	1337	5343	1504	-8400	-6096	10864	1847	-739	-43	-32768	-25200	-27584	315	-2118	3868	-7304	-10280	-32768	246	-2700	371	-4120	5856	11416	1789	-2716	-159	163	0	2
-13076	-756	26188	2180	2587	1263	-18872	-14544	23040	1057	5469	1443	-8320	-8504	11384	2290	-1855	-230	-32768	-23488	-32768	999	-1403	1162	-232	624	-32768	2020	-666	247	-4832	-6912	7288	1725	-1085	21	159	12	2
-15128	-4736	32032	-213	2723	2084	-21712	-16240	24800	-597	3965	1959	-7776	2864	16336	3151	-2236	-559	-32768	-17608	-29696	1644	-982	-1323	3528	-9296	-32768	1869	1147	300	-104	-7896	7648	1246	4637	1123	148	30	2
-22268	-12832	32767	-1254	1545	2500	-19952	-13176	15536	-2524	2283	2197	-11344	9480	10992	1425	-2328	35	-17216	-27344	-31384	2967	86	-1445	3960	-20920	-13104	1864	2091	223	9608	832	-32768	7627	6972	902	78	253	2
-22512	-18536	32228	-1074	-207	2195	-19480	-17544	11192	-3493	1136	1790	-15792	4304	9688	561	-2289	156	-32768	-32768	-32768	-4214	3255	-5776	12656	32767	-32768	894	2386	108	-3128	-12016	32767	-2148	-4767	1022	6	253	2
-19896	-18984	29380	-532	-1640	1492	-18640	-12600	4152	-2647	819	1299	-30136	-11000	2128	-316	-2358	21	32767	-32768	32767	-3147	-1718	-12465	-32768	-32768	32767	9374	16822	7427	-32768	32767	-29936	6233	4169	-622	0	253	2
-19272	-18816	31828	-544	-1881	68	-32768	-21864	4552	-1544	233	1180	-32768	-16024	288	-539	-2289	114	-14880	-32768	15032	52	1419	-1144	21296	32767	-32768	7184	5972	3067	-23920	-29448	-32768	346	1677	3977	71	246	2
-21564	-32768	26136	1174	-2745	-1481	-32768	-32768	-6568	104	-715	1295	-32768	-12000	-18672	2823	-3622	-2142	7896	-1560	19296	287	856	-413	-3928	-8224	15280	-1663	5195	-583	32767	-25624	-32768	3277	3266	885	139	143	2
-16588	-20248	18480	2925	-4649	-2696	-12064	-18816	-17832	3944	-1286	-1535	-32768	-7584	-23952	3177	-4465	-2207	-1560	20288	18520	876	1537	-138	-32768	7624	-32768	59	3491	727	-31464	16520	-32768	3452	3500	-2462	137	128	2
-14196	-2780	7796	1610	-6307	-3286	-11488	-880	-16296	4833	-2294	-1794	-32768	-7224	-31928	2510	-4585	-1814	-10000	12624	16120	835	2232	-526	-32768	17448	-25352	1553	2278	337	-32768	32767	-32768	420	5504	-361	165	86	2
-18184	-4468	4776	-196	-7284	-3034	-8208	-2632	-13320	4272	-3960	-1671	-32768	8000	-32768	2162	-4972	-1232	-4784	5616	28072	250	3625	-1621	-32768	10168	-18704	2436	1550	-504	-32768	14008	-10168	191	4043	-666	179	25	2
-21168	168	6128	-837	-7981	-3132	-32768	-32768	-1712	10511	-2470	-927	-15520	1520	-28512	988	-4475	-613	-4856	3536	29392	256	5619	-2059	-32768	7464	-1928	720	502	-966	-32768	19936	-5976	137	4917	-654	165	11	2
-24120	-9052	9708	-2045	-7749	-2804	-19768	-4440	-1088	1248	-7958	-4431	-12480	6320	-26152	913	-3810	-142	-7104	8088	25280	217	7339	-2691	-32768	2648	9152	962	426	-678	-32768	-9512	8704	-2066	4811	619	163	110	2
-32004	-5796	6852	-3481	-7598	-3249	-14416	312	-23712	-427	-9805	-2581	-5560	8456	-24080	1154	-3049	-333	-16176	11416	27976	800	8922	-4057	-32768	3984	16424	1637	206	71	-32768	-8304	31176	183	4874	1798	113	228	2
-28492	-6960	2752	-3623	-6666	-4235	-14624	-9176	-15928	826	-6635	-3047	4832	9864	-22928	1199	-1957	-312	-32768	23552	30632	1206	9763	-4043	-25792	4688	31120	2786	-225	383	-20664	8376	32767	1383	3344	1976	98	186	2
-30624	-6572	1320	-2663	-5250	-4477	-14552	-6992	-20048	2918	-4756	-4990	12448	15128	-25824	682	-1244	-672	-32768	9344	13664	4149	8698	-3675	-4672	14360	10624	2124	718	-226	-19992	-10232	32767	1909	306	138	120	53	2
-32768	-5240	-5892	-1799	-4528	-4922	-16416	2880	-32472	3796	-3496	-5465	22888	11656	-25960	-831	-732	-362	-32768	32767	1464	4399	5920	-3566	-11104	12360	-3464	1465	3114	-768	-18352	11120	32767	207	44	330	155	37	2
-32768	10532	-9108	-1704	-3347	-6184	-27728	14328	-32768	4360	-2501	-5270	17152	14768	-18200	-692	70	326	-32768	32767	16560	1188	4177	-2291	-25960	13776	-1488	538	4586	-681	-8816	-1592	30176	-859	31	-181	140	57	2
-32768	27860	-7428	-3101	-1233	-7287	-32768	19832	-32768	3889	-3057	-4468	4792	5008	-12728	-1058	-520	-387	-21312	23816	21016	-1505	3045	-419	-28648	10520	13976	-1133	4490	-446	-3312	1920	14800	-509	-135	-246	134	109	2
-32768	32767	-13544	-3637	498	-6378	-32768	18184	-32768	1629	-3096	-2165	-3672	-7320	5280	-2270	-1268	-530	-20112	64	25704	-637	3796	-1117	-27448	-2560	20520	-734	4564	-407	-12872	6808	11704	-1148	-1404	-549	97	214	2
-32768	26784	-19588	-2276	-138	-2923	-26720	12864	-32768	-1323	-2564	-626	-8104	-7776	14000	-2449	-1017	-645	-19128	2128	32767	2023	3719	-2644	-25336	-2280	21992	1487	4656	-889	-4392	-9216	9464	-383	-1854	-408	71	191	2
-32768	31624	-24740	-1337	-1808	712	-21864	16232	-32768	-2283	-641	292	-4376	712	13560	-1753	968	-375	-22512	20928	32767	2674	2666	-3662	-26152	848	15568	1369	4373	-841	-3424	-19184	17360	262	-1509	-395	48	232	2
-32768	20472	-22680	-1389	-650	1490	-21792	22712	-24440	-1919	1770	1152	6336	11576	-16808	-4091	6604	1314	-26936	28576	32767	1692	446	-2763	-30560	-280	10960	1859	4046	-572	-16544	-4624	14360	2051	-1456	-536	0	253	2
-32768	32767	-32768	-831	5432	4675	-21472	3544	-32768	-1154	2542	1329	-5776	4432	7928	-1065	2034	2064	-22936	29600	32767	113	-1418	-1646	-30184	3016	7416	1581	3308	-282	-25360	10320	8608	1580	-1801	-485	100	168	2
-32768	-32768	-32768	10542	898	4475	-32768	-32768	-32768	-3646	3514	-984	-32768	-32768	5352	-427	4180	-2666	-15768	19384	32767	-740	-2022	-807	-32768	1440	-992	934	1806	-289	-32768	24400	-13912	1616	-244	-741	218	166	2
-32768	-23472	-3476	1817	2093	-425	-32768	32767	18320	-2394	5316	5949	-32768	29272	-32768	7532	750	-682	-16216	30728	32767	-1766	-2919	464	-32768	5496	-10176	162	-628	65	-32768	21176	-18416	-2155	-3278	473	215	74	2
-22396	-32768	-4772	-1208	1955	-361	11288	-32768	-32768	-1779	5875	1816	32767	32767	-32768	-8277	1932	693	-15192	15464	21208	-2317	-4992	1834	-12592	7888	-17056	-2861	-2189	-78	-32768	13976	-22376	-3933	-5686	157	148	60	2
-2656	-2716	23300	-491	1274	422	-32768	-8792	-21584	-1914	1608	-50	-32768	-19832	-32768	-7446	559	7000	-8168	2120	10592	-1131	-6067	2829	-14088	-6632	-16896	-3009	-4413	-149	-32768	2384	-30336	-2092	-4013	-706	161	83	2
-8676	-4688	17924	-422	1435	945	-32768	-20520	-32720	-3796	417	1058	-32768	-32768	-32768	2668	3009	1053	-15312	2560	7040	178	-6711	2864	-3888	-3752	-16384	-315	-5759	4	-32768	3568	-32768	-390	-6087	-522	165	90	2
-12688	-21952	18208	-663	2756	1034	-17824	-32768	-7800	-1065	303	1950	-32768	11808	-14032	1945	4421	1744	-22584	5480	11688	948	-7006	2961	-8600	3648	-17448	594	-6755	-215	-24632	16048	-32768	-769	-4868	-1307	146	87	2
-9436	-13596	28752	-99	4954	1860	-32768	-26680	-2184	-388	-193	3007	-32768	-9408	-1040	-359	3677	3011	-31056	9728	11736	1284	-7744	3302	-11320	296	-18272	863	-7561	24	-6568	19272	-32768	-2979	-4096	-1390	109	164	2
-4336	-10900	26820	-697	6354	3130	-32768	-32768	24560	-1167	667	2622	-32768	10920	14656	226	4387	2041	-32040	11008	6976	1387	-8199	3573	-11664	3072	-17560	1356	-7714	850	-5392	11728	-32768	-3512	-3908	-1309	104	136	2
-5392	-17248	21088	-1374	8910	4095	-32768	-32768	32096	-1308	473	1585	-32768	-7776	25232	-1371	4629	2041	-32472	12376	1640	1064	-7562	4102	-6120	5936	-18152	515	-7610	1490	12688	-4776	-23416	-3213	-1236	-1122	179	1	2
-25736	-28328	28408	-940	9311	5566	4032	-24544	23768	-1447	-163	1184	-27816	-23288	32767	-1074	3732	1462	-32768	10896	-656	590	-6242	4458	-10400	6800	-21584	-1274	-7310	1960	15736	-5904	-22296	-1495	-961	-1290	189	1	2
-32768	-20600	4748	-1567	7506	5418	15712	-27584	-7088	-1482	-97	1522	3096	-29752	32767	-164	1940	1336	-32768	4280	-2744	1152	-4843	4677	-15608	-2784	-30504	-2067	-6913	2260	15840	-368	-17192	1026	-237	-946	150	5	2
-28124	-19700	1752	-194	4529	4922	-5272	-5536	232	-161	3613	2192	-7824	-31368	28648	2861	555	-74	-32768	-264	-2072	2275	-3835	5204	-20088	-3864	-32768	-1677	-6147	2219	9480	4552	-11320	1262	-217	-513	146	22	2
-32768	-32036	8976	1950	2948	3842	-18128	-8352	-5040	-1043	4092	2579	-7472	-7848	26952	2855	-411	-624	-32768	-728	-10560	2400	-2906	6304	-14424	-3144	-32768	-1549	-4887	1441	1016	-4760	952	1699	-40	-402	151	43	2
-30256	-25452	14144	3839	2267	1267	-17008	-27640	13120	471	5779	2006	-9328	-6280	14984	2082	-110	-57	-32768	-9008	-16200	1839	-2005	6725	-9000	-8088	-32768	-316	-3209	477	-6944	9024	15568	1030	-3744	-445	148	69	2
-21416	-2044	24600	3572	3295	1535	-25344	-17992	24104	1339	6655	1583	-4768	-1096	12408	2343	-1385	93	-32768	-24872	-32768	1571	-2626	5161	-280	2008	-32768	1680	-808	325	-6480	-16672	13224	98	-606	-320	137	80	2
-23252	596	32767	1265	4373	2062	-31688	-11536	25000	296	5876	2329	-8656	-1920	19624	2652	-2612	-518	-32768	-32768	-32768	2645	-1964	123	7864	-8360	-32768	1596	954	709	6192	-7928	-3800	2061	5862	1726	146	50	2
-32768	-10888	32767	-216	3374	2454	-32768	-13792	14880	-2024	4305	2549	-17608	11632	11976	1489	-2515	-115	-21040	-27080	-26088	2830	33	-1339	9408	-28512	-20832	1526	2133	490	15672	-712	-32768	7659	4727	1801	136	81	2
-32768	-19176	32767	35	895	2348	-26176	-17208	9408	-3421	2502	1657	-19776	9296	13048	597	-2516	34	-32768	-32768	-32768	2174	6349	-8169	10984	16872	-32768	1998	3026	-851	6344	6128	32767	-2476	-5052	660	138	178	2
-26720	-14764	32767	229	-769	2059	-26304	-11528	4144	-2862	1803	1386	-32768	-15560	-1528	-808	-2194	50	32767	-32768	32767	-12795	1957	-6614	-32768	-1400	32767	19315	12702	8011	-32768	32767	-32768	4163	5705	-925	84	244	2
-18688	-18800	32767	-88	-1608	960	-32768	-28000	4656	-1930	736	1580	-32768	-17624	-832	525	-2295	-72	-32768	-14744	32767	-1005	3012	2406	2768	3024	17128	6293	7650	-1006	3680	-28320	-32768	-345	1701	3654	2	253	2
-12704	-26764	28616	1565	-3359	387	-22312	-28016	-2848	169	-404	805	-32768	-18472	-3264	1064	-2376	-187	-25016	-4112	13904	263	947	-1341	-7240	-23816	-31248	169	5090	-1053	32767	-32416	-32768	3597	3278	541	63	253	2
-3964	-13208	19284	1401	-5071	-627	-8232	-7408	-10984	2816	-1844	-1047	-32768	-2384	-23624	2506	-4746	-973	-9552	20152	15256	810	1553	20	-23768	9648	-24216	25	3983	-154	-32768	13688	-32768	3389	3030	-1658	80	228	2
-5588	-7240	9848	-174	-6748	-1874	-6008	1880	-9192	2873	-3670	-994	-32768	1320	-32200	1596	-4838	-718	-12344	8160	15728	857	2178	-355	-31456	7488	-24384	670	2736	-153	-32768	32767	-32768	-337	5518	-325	83	232	2
-11020	-8736	6136	-960	-7625	-2312	-1520	-4440	-8648	2610	-5604	-1170	-26384	7120	-32720	792	-5448	-724	-5200	9184	25808	784	3348	-1106	-32768	8656	-20552	1124	2010	-802	-32768	7720	-11208	51	4272	-942	60	226	2
-14636	-7060	6724	-1464	-8067	-2551	-4784	-3088	-11168	2686	-6866	-1842	-11200	-1808	-31264	50	-4695	-148	-2680	9008	25232	669	5619	-1765	-32768	5576	-7152	1398	695	-936	-32768	16880	-3384	762	4161	-909	118	68	2
-22272	-5992	9856	-2313	-8734	-2977	-12504	-4968	-8984	2263	-7886	-2277	-6576	1376	-28968	589	-3966	127	-512	11304	24672	967	7462	-2349	-32768	9696	7088	751	1008	15	-32768	1488	6136	-707	4895	771	162	98	2
-25656	-3600	9588	-3666	-8927	-2948	-16304	-6392	-7344	1243	-8602	-2877	-4064	9880	-24344	635	-3326	40	-3112	13904	21688	1154	9264	-3814	-32768	5416	14872	1054	134	-322	-32768	-3104	18072	224	4926	1184	144	153	2
-28868	-7996	4976	-4428	-8637	-2969	-14576	-5488	-12616	358	-8448	-3706	7048	5072	-24856	391	-1527	192	-26176	14320	28168	1306	9841	-4113	-32768	4496	19048	1281	-863	-639	-27800	4680	32312	2178	4585	1335	33	253	2
-28220	-9852	5400	-3544	-7292	-3608	-12488	-7480	-16088	1034	-7239	-4516	16768	11368	-24568	-44	-695	75	-32768	27888	16896	2440	8508	-3909	-12272	24688	12536	1659	-283	-885	-9824	6496	32767	1225	2181	-77	58	198	2
-32768	-6336	5588	-3365	-5796	-4499	-22128	-3992	-23176	2329	-5825	-5303	19096	7992	-23352	-925	-553	-152	-32768	2216	8416	3286	5628	-3826	-10192	13904	-1608	88	1895	-1096	-17888	7640	32767	-3368	-1213	123	103	162	2
-32768	-952	4892	-3321	-4461	-5827	-24568	-3904	-25160	2474	-5534	-5340	11744	10264	-17808	-1369	200	216	-32768	20144	16832	2905	3283	-3877	-18168	336	-12792	186	4197	-821	-11496	-2424	32767	-3058	-594	-50	61	203	2
