#Activity	standing 
#ActivityID	8 
#Date 10-07-17-29
acc_rf_x	acc_rf_y	acc_rf_z	gyro_rf_x	gyro_rf_y	gyro_rf_z	acc_rs_x	acc_rs_y	acc_rs_z	gyro_rs_x	gyro_rs_y	gyro_rs_z	acc_rt_x	acc_rt_y	acc_rt_z	gyro_rt_x	gyro_rt_y	gyro_rt_z	acc_lf_x	acc_lf_y	acc_lf_z	gyro_lf_x	gyro_lf_y	gyro_lf_z	acc_ls_x	acc_ls_y	acc_ls_z	gyro_ls_x	gyro_ls_y	gyro_ls_z	acc_lt_x	acc_lt_y	acc_lt_z	gyro_lt_x	gyro_lt_y	gyro_lt_z	EMG_r	EMG_l	act
-10984	-2868	11244	-141	146	-135	-16512	1152	-2160	-14	8	149	-16020	780	-2944	-47	-122	133	-10336	2544	12984	97	3	-156	-15868	-1668	-3348	-115	5	-79	-16336	1984	-520	166	3	62	122	114	8
-11000	-2888	11232	-93	143	-176	-16520	1112	-2264	-3	40	205	-15992	784	-2744	-65	-158	182	-10464	2528	13020	91	-5	-197	-15796	-1564	-3348	-76	-43	-12	-16304	2060	-460	66	2	40	122	114	8
-11080	-2908	11200	-79	121	-158	-16532	1184	-2236	53	20	222	-15980	816	-2880	-73	-190	179	-10416	2512	13016	61	-26	-190	-15760	-1528	-3272	-42	-12	-13	-16324	2040	-300	47	7	60	122	114	8
-11052	-2884	11196	-99	144	-146	-16460	1164	-2340	22	9	214	-15988	792	-2976	-40	-149	209	-10376	2520	12920	94	-66	-180	-15836	-1564	-3256	-89	-21	-52	-16280	1996	-568	22	-20	69	122	114	8
-11024	-2932	11348	-118	110	-138	-16504	1180	-2264	-2	51	192	-15940	828	-2980	-13	-167	185	-10328	2520	12944	120	-34	-199	-15860	-1576	-3232	-136	-33	-53	-16300	1920	-388	35	0	71	122	114	8
-11012	-2932	11232	-74	160	-144	-16488	1172	-2112	58	-13	237	-15968	728	-2752	-59	-171	201	-10324	2524	12976	89	-27	-173	-15836	-1632	-3276	-136	-35	-101	-16280	1904	-368	22	2	82	123	114	8
-10976	-2932	11196	-115	149	-160	-16444	1124	-2060	60	25	226	-16020	704	-2888	-65	-172	189	-10396	2580	12932	124	-42	-178	-15920	-1632	-3260	-73	-78	-47	-16348	1948	-232	63	43	102	123	114	8
-11032	-2904	11288	-114	176	-144	-16504	1100	-2140	24	8	233	-15964	744	-2864	-90	-148	175	-10336	2560	13012	121	-35	-160	-15820	-1592	-3332	-101	-58	6	-16228	1940	-520	128	12	133	123	114	8
-11000	-2876	11320	-101	130	-136	-16540	1200	-2232	84	-4	229	-15960	900	-2932	-97	-184	195	-10312	2544	13064	109	-49	-155	-15844	-1552	-3208	-47	-119	-7	-16336	2040	-648	148	-76	56	124	114	8
-10968	-2904	11292	-103	176	-125	-16492	1236	-2404	117	-27	216	-15924	884	-3044	-51	-185	151	-10324	2520	13016	94	-15	-160	-15804	-1620	-3320	-59	-66	-45	-16264	2004	-392	146	-41	60	124	115	8
-10952	-2904	11188	-104	139	-162	-16516	1236	-2336	66	-2	163	-15972	800	-3248	-2	-149	194	-10360	2536	13120	128	4	-140	-15816	-1640	-3212	-21	-88	1	-16260	2004	-460	54	-5	80	124	115	8
-10980	-2880	11300	-119	153	-158	-16448	1192	-2252	20	-59	174	-15992	840	-2980	7	-142	196	-10348	2516	12912	114	-59	-167	-15848	-1512	-3312	-10	-89	-14	-16292	1924	-572	162	-54	87	124	115	8
-11072	-2872	11224	-96	132	-174	-16504	1200	-2236	7	-38	163	-15984	864	-2976	48	-153	223	-10364	2604	12960	145	-62	-155	-15788	-1596	-3220	-77	-107	-7	-16236	1964	-520	210	-34	65	124	115	8
-10980	-2888	11172	-62	114	-162	-16472	1200	-2248	14	-50	182	-16044	872	-2920	24	-158	227	-10384	2580	13080	138	-4	-146	-15776	-1540	-3288	-11	-83	-48	-16332	2052	-392	133	24	99	124	115	8
-11024	-2836	11372	-94	107	-178	-16596	1188	-2180	3	-72	173	-16024	732	-2692	15	-163	185	-10400	2600	13028	110	35	-117	-15900	-1520	-3272	17	-93	-9	-16332	2072	-316	98	4	95	124	115	8
-11028	-2860	11232	-104	162	-165	-16504	1248	-2184	41	-54	181	-16036	844	-2928	37	-173	193	-10448	2548	13076	126	-24	-164	-15812	-1476	-3148	90	-120	7	-16208	2060	-384	87	-41	94	124	115	8
-11020	-2864	11224	-111	130	-142	-16500	1196	-2216	52	-89	177	-15980	760	-2832	24	-178	185	-10340	2564	13088	179	-31	-131	-15908	-1572	-3292	-101	-64	-21	-16296	2040	-468	112	-128	85	124	115	8
-11020	-2908	11244	-71	120	-191	-16452	1184	-2116	109	-38	202	-16044	820	-2836	43	-156	213	-10364	2564	13016	146	-63	-128	-15816	-1572	-3204	-64	-43	-44	-16368	2012	-496	42	-68	88	124	115	8
-11032	-2912	11316	-95	135	-165	-16508	1236	-2188	106	-70	190	-16012	812	-2828	87	-136	211	-10368	2632	13024	128	-2	-207	-15816	-1572	-3304	-80	-39	13	-16248	1988	-360	53	-44	82	124	114	8
-11024	-2892	11236	-101	151	-144	-16476	1200	-2368	97	-43	186	-15972	864	-2832	53	-151	225	-10320	2548	13064	180	-36	-165	-15844	-1560	-3240	-68	-55	-30	-16272	2004	-496	206	-34	85	123	114	8
-11040	-2904	11232	-86	117	-159	-16496	1252	-2324	64	-60	198	-16036	840	-2868	24	-169	198	-10340	2524	13004	154	-60	-155	-15792	-1536	-3268	-39	-66	17	-16316	2012	-452	202	-30	67	123	114	8
-11052	-2900	11104	-143	134	-146	-16428	1156	-2280	79	11	197	-15996	852	-2880	29	-156	164	-10416	2652	12992	140	-53	-126	-15808	-1544	-3300	-30	-28	16	-16276	2032	-372	183	-25	108	123	114	8
-11020	-2884	11312	-123	159	-184	-16504	1240	-2296	75	-56	163	-16048	908	-2952	50	-175	173	-10324	2524	13116	94	-14	-132	-15748	-1540	-3256	-16	-36	-2	-16248	2040	-436	216	-30	86	123	114	8
-10928	-2856	11196	-121	172	-163	-16484	1256	-2312	50	-26	182	-15956	940	-3004	-15	-171	198	-10324	2548	13056	134	20	-148	-15824	-1520	-3184	0	-75	-36	-16252	2048	-440	268	-29	88	123	114	8
-10984	-2872	11256	-104	146	-160	-16484	1196	-2248	53	-30	156	-15948	868	-2940	3	-147	199	-10348	2632	12972	142	-11	-149	-15832	-1604	-3200	-6	-92	-19	-16324	2000	-464	249	-32	95	123	114	8
-11008	-2852	11256	-87	149	-184	-16520	1220	-2224	43	-67	173	-15988	796	-2920	63	-165	177	-10300	2612	13004	97	-39	-169	-15832	-1508	-3220	-33	-50	-16	-16232	2024	-552	172	-31	52	123	114	8
-10992	-2856	11232	-96	166	-147	-16528	1248	-2256	55	-49	149	-15964	848	-2900	25	-139	209	-10360	2568	13060	100	-26	-157	-15840	-1500	-3296	-82	-53	-17	-16276	2048	-288	78	1	63	124	114	8
-11024	-2900	11208	-124	122	-187	-16476	1232	-2312	70	-67	148	-16052	908	-2896	22	-143	208	-10296	2560	13056	98	-34	-125	-15832	-1536	-3256	-92	-82	-8	-16236	2024	-340	51	24	70	123	114	8
-11008	-2852	11240	-90	150	-178	-16572	1152	-2136	37	-48	177	-16060	892	-2768	12	-123	162	-10404	2552	13112	109	-8	-140	-15892	-1484	-3136	-108	-73	-53	-16232	2020	-256	119	16	50	124	114	8
-11048	-2824	11364	-110	148	-176	-16496	1272	-2220	30	-67	155	-16044	892	-2836	-51	-152	165	-10336	2568	13068	111	-5	-168	-15928	-1532	-3124	-45	-76	-27	-16256	2064	-408	120	40	65	124	115	8
-11012	-2832	11180	-114	124	-158	-16484	1292	-2124	9	-3	122	-16016	908	-2912	-62	-150	140	-10344	2572	13004	121	-1	-160	-15840	-1468	-3228	-58	-38	-39	-16260	2112	-284	65	63	74	124	114	8
-11000	-2868	11200	-118	134	-145	-16512	1212	-2200	-9	-23	162	-15980	924	-2784	-54	-124	150	-10436	2684	12976	104	-47	-152	-15840	-1420	-3188	-38	-10	-69	-16232	2180	-160	107	58	64	123	114	8
-10968	-2892	11204	-121	156	-154	-16516	1304	-2112	-19	-13	137	-15960	868	-2808	-69	-114	109	-10412	2572	13032	88	-17	-129	-15792	-1456	-3228	-85	-4	-92	-16244	2048	-400	77	84	26	124	115	8
-11008	-2928	11208	-114	152	-170	-16468	1252	-2260	-24	-45	107	-15996	820	-2888	-109	-133	124	-10416	2636	13020	64	-54	-148	-15828	-1452	-3188	-84	37	-66	-16316	2076	-308	38	95	51	124	114	8
-11040	-2884	11236	-126	147	-182	-16512	1152	-2272	-57	-16	116	-16064	820	-2800	-159	-95	127	-10304	2608	13040	79	-43	-159	-15876	-1468	-3164	-131	12	-121	-16328	2100	-460	13	68	29	124	114	8
-10968	-2912	11188	-136	149	-137	-16508	1180	-2164	-49	7	127	-15888	796	-2884	-134	-146	100	-10344	2632	13028	98	-73	-153	-15836	-1484	-3184	-189	55	-127	-16264	2040	-536	-82	125	37	124	114	8
-11092	-2932	11244	-96	165	-158	-16480	1204	-2108	-14	-8	132	-15952	832	-2800	-195	-121	87	-10344	2580	13036	93	-57	-174	-15800	-1628	-3388	-201	5	-138	-16228	2008	-460	-93	150	54	124	115	8
-11012	-2972	11268	-114	146	-154	-16460	1216	-2256	19	6	162	-15964	884	-2848	-182	-123	61	-10396	2580	13040	80	-18	-148	-15816	-1524	-3292	-142	27	-104	-16348	1992	-516	-31	108	2	124	115	8
-10960	-2976	11220	-121	150	-130	-16488	1180	-2104	106	16	134	-16052	752	-2884	-159	-135	57	-10348	2600	13088	90	-50	-181	-15844	-1560	-3364	-155	20	-87	-16260	1984	-564	-47	96	2	124	115	8
-10988	-2940	11192	-114	159	-155	-16464	1268	-2352	68	21	169	-15944	852	-2948	-84	-122	88	-10416	2532	13144	119	-4	-145	-15828	-1720	-3412	53	-112	1	-16236	1952	-604	217	21	29	124	115	8
-10972	-2896	11240	-115	118	-159	-16464	1252	-2276	105	6	124	-15888	736	-2892	33	-107	164	-10384	2536	12996	117	11	-173	-15816	-1452	-3396	3	-128	46	-16340	2048	-644	214	3	87	124	115	8
-10984	-2916	11272	-93	105	-182	-16488	1220	-2244	95	-57	144	-15936	840	-2976	158	-84	162	-10376	2596	13148	141	-11	-160	-15816	-1532	-3352	-12	-131	4	-16352	2016	-436	186	31	60	124	115	8
-11036	-2936	11280	-91	138	-190	-16532	1176	-2144	144	-78	157	-16072	704	-2960	264	-72	218	-10344	2584	13040	130	-38	-157	-15836	-1504	-3180	61	-96	25	-16252	2068	-336	260	50	116	124	115	8
-11044	-2940	11324	-66	122	-170	-16500	1220	-2100	176	-25	176	-16012	748	-2784	255	-105	262	-10384	2600	12964	99	-3	-162	-15876	-1392	-3124	43	-44	-6	-16324	2036	-300	222	86	79	124	115	8
-11048	-2916	11212	-95	100	-148	-16480	1236	-2048	137	-69	151	-16100	856	-2708	228	-53	253	-10404	2648	13092	111	-13	-123	-15900	-1516	-3108	33	-20	-11	-16288	2060	-164	168	22	86	124	115	8
-10956	-2892	11272	-72	131	-137	-16512	1196	-2140	84	7	181	-16080	908	-2636	182	-56	233	-10368	2560	12996	76	9	-141	-15832	-1404	-3164	55	-5	-43	-16244	1964	-292	256	103	115	124	115	8
-11000	-2880	11192	-77	96	-146	-16496	1188	-2184	62	77	206	-15996	944	-2748	65	-39	165	-10392	2636	13028	72	3	-132	-15880	-1440	-3164	36	42	-54	-16312	2084	-252	314	52	62	123	114	8
-11004	-2916	11244	-70	121	-130	-16544	1252	-2056	113	61	161	-15940	960	-2780	-14	-34	176	-10396	2612	13080	98	-19	-219	-15832	-1520	-3208	65	66	-74	-16248	2040	-420	275	82	46	123	114	8
-11048	-2812	11216	-92	167	-139	-16500	1268	-2284	100	90	162	-15952	908	-2816	-56	-10	203	-10376	2532	13048	118	-65	-175	-15820	-1456	-3156	74	57	-83	-16236	2100	-228	229	65	43	123	114	8
-11056	-2816	11188	-114	103	-165	-16432	1316	-2212	43	121	144	-15944	880	-2864	-41	-2	151	-10372	2568	13164	83	-1	-156	-15812	-1512	-3284	18	69	-134	-16312	2124	-276	162	103	39	123	114	8
-11000	-2904	11204	-126	142	-151	-16448	1248	-2068	79	130	124	-16016	888	-2788	-7	-9	153	-10312	2616	13028	95	-68	-160	-15884	-1476	-3172	-25	128	-138	-16328	2080	-408	129	144	47	124	114	8
-11056	-2860	11244	-70	120	-171	-16464	1252	-2096	89	122	161	-16036	820	-2740	22	36	169	-10364	2596	13040	73	-70	-172	-15884	-1456	-3076	-56	133	-134	-16284	2128	-460	78	138	6	124	114	8
-11008	-2892	11176	-88	149	-178	-16464	1224	-2188	110	122	137	-16000	948	-2836	45	5	152	-10364	2540	13120	102	-35	-183	-15888	-1480	-3300	-34	173	-159	-16284	2160	-324	110	184	0	123	114	8
-10996	-2872	11252	-100	137	-118	-16504	1340	-2312	90	152	112	-16064	932	-2844	114	30	123	-10364	2564	13020	75	-36	-205	-15824	-1484	-3340	36	136	-164	-16300	2068	-456	118	134	11	124	115	8
-11068	-2900	11172	-81	153	-137	-16524	1348	-2320	90	164	101	-15996	996	-2876	137	50	113	-10364	2572	13064	65	-50	-183	-15788	-1532	-3412	2	157	-247	-16356	2108	-536	214	152	-37	124	115	8
-11012	-2816	11296	-96	150	-128	-16516	1248	-2272	122	162	84	-15968	876	-2872	77	41	99	-10360	2504	13036	63	3	-184	-15832	-1568	-3380	20	166	-212	-16340	2060	-632	196	147	-113	124	115	8
-10996	-2904	11272	-103	164	-122	-16476	1224	-2244	167	179	80	-16008	816	-2804	134	23	111	-10404	2532	13128	70	-10	-182	-15800	-1492	-3264	70	142	-231	-16256	2036	-596	285	69	-106	124	115	8
-11064	-2848	11272	-90	182	-175	-16428	1192	-2168	165	131	119	-16040	728	-2888	169	22	99	-10348	2620	13024	65	-49	-191	-15740	-1616	-3424	33	138	-183	-16316	1836	-636	314	15	-71	124	115	8
-11028	-2936	11268	-90	170	-150	-16460	1108	-2252	209	214	110	-16008	656	-2980	183	-48	111	-10452	2432	13124	87	-76	-169	-15836	-1636	-3440	60	141	-173	-16272	1968	-776	338	56	-76	125	115	8
-10976	-2888	11248	-43	125	-162	-16396	1124	-2552	233	167	109	-16024	628	-3012	192	-55	133	-10304	2520	13016	78	-37	-180	-15836	-1716	-3516	143	73	-118	-16328	1940	-840	497	-86	-47	125	115	8
-11072	-2904	11180	-62	122	-152	-16408	1160	-2416	257	128	162	-15836	712	-3232	297	-71	184	-10312	2516	13180	76	18	-199	-15832	-1640	-3552	145	43	-101	-16228	1936	-936	512	-89	-13	125	115	8
-10976	-2800	11224	-88	163	-153	-16484	1236	-2540	227	68	140	-15848	792	-3236	267	-69	237	-10348	2440	13148	109	19	-176	-15784	-1716	-3608	149	-50	-14	-16260	1920	-988	513	-112	36	125	115	8
-10964	-2864	11276	-63	97	-176	-16536	1256	-2404	182	39	149	-15936	832	-3112	325	-129	231	-10388	2500	13088	159	-22	-141	-15828	-1644	-3476	129	-125	14	-16272	1992	-784	397	-91	64	125	115	8
-10992	-2868	11232	-97	76	-214	-16412	1236	-2564	179	2	137	-15900	840	-3100	332	-145	298	-10360	2548	13052	110	30	-143	-15812	-1636	-3512	154	-120	3	-16268	2076	-588	267	-124	83	125	115	8
-10984	-2880	11256	-71	110	-177	-16488	1212	-2264	170	-83	146	-15996	848	-2948	336	-83	225	-10312	2564	12996	139	25	-164	-15864	-1568	-3328	92	-191	43	-16332	2160	-520	138	-86	118	125	115	8
-11044	-2868	11368	-85	112	-159	-16496	1184	-2292	152	-44	140	-16036	832	-2852	294	-113	241	-10392	2572	12988	165	-29	-140	-15844	-1464	-3220	241	-230	9	-16184	2100	-216	108	-87	71	125	115	8
-10992	-2872	11292	-82	110	-216	-16464	1188	-2136	159	-36	127	-15988	876	-2916	287	-92	214	-10432	2548	13108	169	-1	-121	-15844	-1460	-3180	94	-163	-27	-16268	2044	-240	186	-106	23	125	115	8
-11000	-2888	11308	-95	131	-143	-16508	1272	-2220	189	20	121	-16064	984	-2728	230	-126	184	-10396	2640	12864	165	-5	-173	-15788	-1456	-3188	-19	-93	-84	-16256	2092	-184	213	-139	8	125	115	8
-10968	-2820	11260	-142	129	-176	-16492	1288	-2228	178	12	95	-16032	936	-2932	187	-117	138	-10344	2632	13056	153	-17	-195	-15776	-1520	-3248	-45	-71	-110	-16296	2120	-260	233	-124	-47	125	115	8
-11016	-2908	11196	-147	148	-169	-16436	1264	-2352	143	35	104	-15948	984	-3068	69	-123	114	-10348	2600	13100	138	-66	-180	-15812	-1476	-3292	117	-37	-139	-16268	2092	-428	234	-146	-97	124	115	8
-10996	-2804	11204	-131	157	-175	-16452	1300	-2428	37	-13	101	-16008	1032	-3040	-37	-179	131	-10360	2600	12976	126	-7	-171	-15824	-1556	-3344	47	67	-163	-16276	2156	-408	170	-89	-80	124	115	8
-10920	-2904	11304	-121	166	-141	-16456	1324	-2360	-19	-3	50	-15884	1056	-3068	-144	-207	45	-10392	2548	13064	120	-49	-167	-15836	-1544	-3392	-5	92	-230	-16244	2180	-332	115	-63	-74	124	115	8
-10920	-2832	11164	-132	148	-168	-16528	1304	-2356	-33	-43	36	-15928	1044	-3128	-157	-172	-28	-10276	2660	12928	121	-72	-137	-15812	-1560	-3364	-6	-16	-174	-16280	2096	-532	17	-68	-97	124	115	8
-11024	-2832	11220	-152	159	-183	-16456	1268	-2452	-35	-49	-37	-15944	956	-2972	-153	-156	-21	-10312	2532	12996	137	-60	-148	-15904	-1588	-3336	-155	12	-200	-16320	2068	-436	-148	-57	-92	124	115	8
-10988	-2888	11332	-141	163	-206	-16488	1188	-2372	-42	-126	-19	-15940	844	-3064	-97	-147	-18	-10368	2516	12996	131	-51	-167	-15796	-1624	-3340	-13	-66	-220	-16316	1988	-500	-233	-54	-89	124	115	8
-11076	-2832	11196	-152	162	-180	-16492	1220	-2312	-36	-137	-24	-15996	760	-2900	-29	-153	-18	-10324	2564	12972	124	-47	-188	-15688	-1584	-3336	-87	-56	-190	-16288	1912	-584	-265	-71	-50	124	115	8
-11012	-2900	11240	-145	151	-209	-16468	1200	-2400	-37	-139	-21	-15960	672	-2960	10	-174	-34	-10392	2544	13096	99	-60	-155	-15836	-1620	-3308	-89	-40	-198	-16312	1844	-560	-142	-50	-84	124	115	8
-11048	-2964	11152	-144	180	-195	-16532	1084	-2172	19	-100	-12	-15968	756	-2864	30	-161	52	-10344	2584	12980	115	-12	-201	-15796	-1672	-3284	5	-70	-147	-16308	1896	-512	-64	-109	-100	124	115	8
-11036	-2816	11308	-162	165	-220	-16516	1180	-2292	59	-75	-33	-15968	748	-2864	45	-167	37	-10348	2580	12988	138	-51	-156	-15852	-1564	-3368	-35	-79	-203	-16324	1896	-468	180	-84	-95	124	115	8
-10972	-2880	11256	-145	164	-174	-16440	1148	-2188	30	-90	17	-15992	744	-2880	-22	-160	66	-10316	2568	13008	132	-14	-147	-15768	-1576	-3316	8	-89	-172	-16312	1912	-408	192	-99	-108	124	115	8
-11020	-2932	11288	-138	132	-184	-16552	1048	-2200	33	-64	6	-16008	792	-2908	-41	-161	48	-10312	2596	13072	90	-47	-164	-15772	-1664	-3276	41	-70	-165	-16312	1904	-568	247	-39	-44	124	115	8
-10996	-2884	11292	-138	146	-214	-16540	1076	-2208	65	-43	51	-16012	680	-2848	-47	-174	31	-10424	2564	12960	130	-38	-144	-15780	-1620	-3360	32	-39	-179	-16388	1880	-560	329	-45	-52	124	115	8
-10976	-2932	11240	-159	127	-187	-16472	1164	-2300	52	-24	79	-15964	652	-2996	-20	-202	15	-10412	2516	13004	110	-47	-158	-15824	-1656	-3384	79	-33	-130	-16264	1872	-516	397	-42	-78	124	115	8
-11032	-2932	11116	-122	164	-168	-16512	1108	-2436	65	-33	68	-15948	760	-2932	-49	-193	75	-10352	2588	13036	96	44	-156	-15784	-1644	-3332	43	-56	-137	-16228	1948	-564	296	-108	-19	124	114	8
-11048	-2908	11240	-122	132	-185	-16492	1148	-2304	67	-90	61	-16000	692	-3064	-15	-210	55	-10336	2604	13092	106	10	-175	-15760	-1640	-3428	42	-92	-95	-16336	1788	-404	269	-61	-18	124	115	8
-11016	-2896	11216	-125	116	-176	-16556	1212	-2284	43	-94	72	-15880	768	-2880	115	-173	113	-10384	2584	13140	117	-6	-159	-15868	-1668	-3324	97	-52	-73	-16268	1972	-544	325	-60	-23	124	115	8
-11100	-2844	11256	-139	132	-193	-16460	1168	-2144	110	-125	50	-15952	740	-2832	173	-152	132	-10336	2564	13020	124	14	-161	-15780	-1552	-3352	43	-108	-51	-16340	1952	-496	134	-74	-12	124	115	8
-11004	-2888	11232	-132	118	-172	-16520	1100	-2204	56	-93	51	-16016	652	-2876	149	-116	126	-10336	2556	13124	109	41	-157	-15832	-1608	-3312	-8	-137	-81	-16316	1944	-384	120	-30	-24	124	114	8
-10972	-2908	11276	-123	144	-164	-16544	1052	-2148	72	-97	69	-16064	612	-2720	106	-146	145	-10300	2644	13068	96	-4	-129	-15756	-1548	-3288	-45	-74	-85	-16328	1836	-228	95	43	-11	124	115	8
-10948	-2992	11228	-99	133	-176	-16532	1064	-2240	64	-64	120	-16028	672	-2600	74	-81	135	-10296	2568	13084	94	-39	-133	-15784	-1620	-3144	-20	-39	-81	-16356	1828	-152	170	47	19	124	115	8
-11048	-2912	11248	-117	138	-163	-16508	1072	-2116	50	13	97	-16040	724	-2620	-18	-147	108	-10332	2504	12908	108	-83	-127	-15796	-1600	-3180	42	10	-77	-16304	1804	-248	226	40	19	124	114	8
-11072	-2928	11228	-70	141	-153	-16480	1112	-2184	67	-6	166	-16044	724	-2824	-159	-183	103	-10420	2556	12912	115	-1	-168	-15808	-1588	-3320	-40	14	-109	-16304	1956	-476	237	15	1	124	114	8
-11052	-2904	11228	-80	125	-116	-16424	976	-2208	20	45	152	-15956	680	-2900	-130	-184	85	-10312	2608	13048	91	-6	-137	-15760	-1656	-3360	-60	16	-107	-16228	1996	-564	283	10	5	124	114	8
-10960	-3004	11112	-112	103	-116	-16520	1164	-2292	71	7	175	-15944	780	-3028	-124	-155	140	-10392	2608	13052	121	-52	-181	-15824	-1660	-3440	24	19	-54	-16396	1984	-668	242	-40	10	124	115	8
-11016	-2884	11264	-97	124	-131	-16524	1248	-2372	43	-17	169	-15964	896	-3016	-125	-224	150	-10340	2600	12976	94	-21	-145	-15748	-1584	-3340	30	-46	-96	-16304	1980	-664	100	-121	20	124	115	8
-11012	-2920	11164	-101	131	-165	-16484	1128	-2348	68	-56	180	-15968	736	-2936	-10	-160	171	-10380	2516	13148	117	-29	-167	-15788	-1672	-3344	-18	-28	-54	-16312	1948	-556	81	-93	17	124	114	8
-11076	-2904	11296	-103	152	-168	-16508	1164	-2288	85	-56	157	-16004	756	-3000	70	-171	158	-10404	2556	13060	129	-43	-111	-15824	-1676	-3420	180	-33	-37	-16312	1968	-560	144	-135	58	124	115	8
-10992	-2864	11284	-129	116	-167	-16412	1068	-2172	98	-66	164	-15972	784	-2852	153	-165	195	-10348	2612	13036	120	6	-129	-15740	-1648	-3532	44	-103	-41	-16308	1940	-504	167	-131	64	124	115	8
-11024	-2920	11328	-109	127	-165	-16484	1204	-2220	179	-112	139	-15988	756	-2908	248	-105	212	-10352	2592	13176	156	-20	-171	-15900	-1692	-3412	95	-132	-54	-16264	1972	-600	186	-104	73	124	115	8
-11056	-2900	11280	-78	184	-169	-16488	1120	-2188	168	-16	158	-16020	812	-2844	302	-133	178	-10356	2560	12984	149	-58	-134	-15828	-1588	-3364	170	-168	0	-16308	1924	-416	215	-108	37	124	115	8
-11060	-2916	11296	-121	174	-179	-16452	1180	-2264	156	-11	93	-15916	912	-2820	299	-99	177	-10380	2616	13004	140	15	-107	-15808	-1540	-3388	237	-191	-15	-16332	1936	-332	321	-104	18	124	115	8
-11028	-2856	11272	-106	145	-162	-16464	1132	-2256	146	-15	128	-16048	840	-2892	253	-142	193	-10392	2532	13056	189	-26	-163	-15832	-1628	-3196	155	-96	-67	-16304	1940	-332	311	-156	-20	124	114	8
-10984	-2856	11224	-142	152	-155	-16520	1148	-2192	139	-61	132	-16060	904	-2828	167	-113	143	-10304	2540	12956	142	-54	-143	-15792	-1524	-3300	85	-61	-78	-16268	2036	-72	364	-74	-56	124	115	8
-11040	-2900	11356	-116	189	-148	-16488	1156	-2232	118	-4	101	-16040	824	-2868	106	-145	99	-10376	2620	13040	100	28	-164	-15808	-1548	-3132	90	-31	-106	-16348	2024	-304	289	-12	-18	124	115	8
-11024	-2880	11208	-141	174	-153	-16492	1100	-2164	104	19	124	-16012	872	-2904	-23	-142	72	-10372	2560	13036	91	-24	-154	-15800	-1616	-3292	73	13	-153	-16304	1916	-400	180	-49	-59	124	115	8
-11092	-2932	11256	-129	139	-144	-16504	1120	-2388	67	-15	80	-15976	772	-2908	-37	-165	72	-10404	2556	13040	130	-21	-153	-15836	-1708	-3284	-16	-18	-135	-16276	1912	-532	120	-80	-38	124	115	8
-11028	-2876	11132	-105	121	-167	-16480	1116	-2332	42	-10	109	-15972	692	-3044	-90	-163	70	-10392	2544	13000	131	-19	-148	-15784	-1776	-3344	-39	-35	-116	-16268	1880	-484	122	-87	-15	124	115	8
-11012	-2880	11288	-110	126	-172	-16464	1136	-2312	43	-58	163	-15980	708	-3084	-26	-155	89	-10336	2536	12944	121	-31	-169	-15752	-1652	-3396	2	-52	-143	-16304	1860	-392	89	-183	-17	124	115	8
-11004	-2912	11280	-83	129	-177	-16512	1104	-2284	27	-22	113	-15956	692	-3048	89	-172	112	-10364	2624	12976	120	-26	-184	-15876	-1644	-3368	-127	-42	-150	-16340	1788	-500	151	-156	14	125	115	8
-10980	-2900	11272	-108	126	-198	-16456	1080	-2300	93	-62	136	-15968	676	-2952	90	-212	112	-10324	2500	13088	111	4	-151	-15872	-1776	-3332	99	-43	-101	-16344	1956	-564	180	-186	63	125	115	8
-11008	-2940	11276	-140	143	-187	-16476	1072	-2244	58	-67	118	-15984	588	-2936	78	-224	154	-10388	2552	13012	140	-22	-132	-15808	-1704	-3352	1	-96	-75	-16304	1760	-628	135	-140	25	124	115	8
-11076	-2976	11200	-78	141	-150	-16580	1120	-2288	21	-49	131	-15996	712	-2924	29	-256	150	-10284	2564	12944	130	4	-173	-15816	-1816	-3500	-3	-100	-58	-16276	1836	-636	164	-152	38	124	115	8
-10960	-2832	11144	-99	116	-173	-16452	1100	-2280	50	-120	151	-16004	796	-2948	13	-232	162	-10376	2612	12972	141	25	-144	-15760	-1744	-3432	19	-164	49	-16240	1824	-548	205	-108	33	124	115	8
-11020	-2896	11252	-109	116	-188	-16444	1192	-2308	39	-121	117	-15940	796	-2896	-7	-230	169	-10332	2584	12956	155	2	-134	-15864	-1628	-3316	19	-190	44	-16328	1828	-308	184	-123	74	124	115	8
-10948	-2884	11196	-111	129	-164	-16476	1204	-2364	-5	-101	126	-15936	736	-2808	-11	-194	168	-10332	2580	13000	138	-24	-121	-15796	-1604	-3324	19	-180	25	-16332	1916	-248	116	-89	127	124	115	8
-11004	-2852	11240	-131	135	-193	-16484	1128	-2384	-19	-110	154	-16016	756	-2840	-25	-213	153	-10352	2560	12888	140	-1	-128	-15836	-1600	-3156	-46	-142	-4	-16232	1972	-76	59	-33	102	124	115	8
-11056	-2900	11236	-135	135	-185	-16496	1120	-2104	-5	-116	126	-16032	744	-2804	-24	-200	137	-10364	2684	12960	143	-26	-98	-15812	-1544	-3252	-105	-98	-2	-16300	1948	-60	34	11	73	124	115	8
-10996	-2900	11304	-132	144	-159	-16472	1164	-2276	-68	-100	153	-15940	776	-2864	-80	-192	139	-10324	2596	12972	127	-23	-133	-15788	-1556	-3132	-152	-48	-80	-16368	1892	-128	129	-54	16	124	114	8
-10996	-2972	11276	-90	174	-168	-16472	1060	-2224	-59	-114	170	-16000	868	-2784	-131	-185	143	-10400	2624	13084	108	-30	-141	-15800	-1616	-3232	-81	-35	-60	-16336	1936	-116	92	-56	51	124	115	8
-11004	-2924	11248	-117	147	-120	-16440	1148	-2336	-75	-117	153	-16008	808	-2792	-121	-182	146	-10328	2600	13028	77	-64	-163	-15732	-1628	-3444	-128	13	-80	-16304	1932	-376	140	5	63	125	115	8
-11032	-2916	11292	-140	135	-134	-16520	1116	-2228	-8	-99	125	-15948	772	-2768	-134	-173	144	-10344	2628	12996	86	-5	-153	-15744	-1684	-3280	-142	-18	-59	-16224	1816	-460	170	-13	42	125	115	8
-11080	-2924	11172	-91	162	-188	-16464	1160	-2124	-55	-99	132	-15984	772	-2852	-98	-123	94	-10360	2644	12992	85	-32	-164	-15840	-1720	-3344	-138	-58	-66	-16236	1856	-468	249	-23	1	125	115	8
-11016	-2940	11216	-116	100	-129	-16488	1108	-2132	-16	-49	124	-15984	640	-2812	-63	-147	174	-10320	2572	12996	107	-21	-142	-15848	-1672	-3392	-144	-32	3	-16332	1900	-448	182	33	85	125	115	8
-10916	-2928	11204	-114	139	-134	-16520	1080	-2128	2	-56	169	-16052	660	-2732	-27	-122	180	-10388	2600	13024	51	-28	-160	-15840	-1660	-3476	-227	-48	-24	-16280	1996	-412	121	38	49	125	115	8
-11056	-2920	11192	-119	128	-128	-16460	1060	-2188	37	-34	144	-16060	640	-2816	57	-131	187	-10308	2576	13056	62	16	-153	-15828	-1668	-3232	-75	-116	-36	-16336	1808	-512	111	8	95	125	115	8
-11060	-2892	11164	-79	171	-161	-16512	1052	-2252	69	-40	183	-16000	684	-2720	112	-128	183	-10340	2628	13000	122	-37	-166	-15828	-1676	-3252	29	-75	-44	-16340	1856	-332	177	-35	89	125	115	8
-10992	-2916	11212	-74	110	-173	-16540	1064	-2180	89	-14	186	-15964	680	-2832	105	-121	193	-10384	2616	12996	106	38	-174	-15856	-1668	-3376	16	-99	13	-16320	1856	-400	213	-20	86	125	115	8
-11004	-2964	11200	-101	117	-160	-16532	1156	-2136	159	9	160	-15992	732	-2720	130	-101	196	-10360	2640	13004	127	-15	-137	-15740	-1588	-3212	134	-16	-10	-16292	1944	-336	290	-25	62	125	115	8
-11024	-2940	11260	-101	133	-159	-16496	1136	-2192	132	3	195	-15960	784	-2760	146	-89	225	-10384	2612	13088	140	-35	-132	-15784	-1604	-3300	121	-30	-26	-16296	1852	-236	367	-63	97	125	115	8
-11032	-2912	11292	-64	133	-191	-16508	1160	-2332	147	-4	196	-15996	760	-2800	114	-61	254	-10356	2584	13008	119	-33	-141	-15864	-1540	-3232	73	-5	12	-16264	2024	-220	386	-26	113	125	115	8
-11056	-2896	11204	-60	106	-154	-16484	1148	-2316	144	-12	195	-15972	844	-2828	136	-93	185	-10356	2592	13056	133	-11	-168	-15768	-1644	-3180	-37	-19	-90	-16332	1944	-332	357	-15	57	125	115	8
-10988	-2868	11188	-100	134	-141	-16416	1140	-2204	152	5	157	-16032	764	-2860	164	-89	231	-10404	2616	13124	89	13	-155	-15840	-1664	-3320	37	-21	-11	-16296	2056	-340	287	-11	67	124	115	8
-10972	-2872	11164	-75	122	-132	-16456	1168	-2184	175	27	181	-16036	764	-2868	165	-68	227	-10308	2564	12992	103	-8	-144	-15860	-1604	-3304	7	-7	-38	-16348	2024	-392	229	3	52	124	115	8
-11044	-2860	11260	-88	127	-164	-16412	1192	-2252	153	-18	190	-16036	852	-2820	175	-96	243	-10336	2560	13016	82	-9	-171	-15820	-1636	-3408	-32	-32	-73	-16256	1896	-204	130	57	49	124	115	8
-11004	-2884	11184	-84	114	-144	-16504	1152	-2108	129	31	193	-15988	888	-2796	116	-50	201	-10328	2664	13048	104	23	-175	-15812	-1520	-3248	19	44	-66	-16284	2008	-216	131	92	82	124	115	8
-10972	-2848	11180	-68	164	-178	-16440	1092	-2168	108	36	170	-15972	860	-2864	59	-62	154	-10328	2608	13044	88	-33	-164	-15816	-1496	-3240	-98	26	-81	-16308	1920	-252	127	52	44	124	115	8
-10968	-2900	11128	-107	162	-156	-16544	1124	-2204	89	33	159	-15988	784	-3012	27	-62	163	-10320	2560	12964	125	7	-143	-15856	-1600	-3364	-51	39	-121	-16308	1888	-200	145	36	68	124	115	8
-10976	-2928	11188	-106	120	-147	-16480	1132	-2328	69	36	188	-15948	732	-2924	-22	-73	179	-10308	2612	12964	134	-39	-151	-15800	-1656	-3348	-14	27	-76	-16324	1920	-380	210	24	41	125	115	8
-11052	-2852	11208	-96	125	-132	-16452	1128	-2308	56	79	155	-15964	732	-3032	-30	-43	191	-10320	2544	13092	87	-55	-148	-15840	-1640	-3328	-15	50	-114	-16284	1940	-324	193	71	60	125	115	8
-11016	-2892	11236	-69	159	-149	-16496	1176	-2256	46	47	185	-16044	776	-2912	-36	-80	203	-10320	2636	13028	98	-12	-151	-15816	-1624	-3304	-45	68	-61	-16328	1932	-444	82	89	73	125	115	8
-10944	-2872	11232	-101	130	-140	-16536	1180	-2316	37	97	152	-16004	776	-2868	2	-91	191	-10332	2600	13000	114	-35	-161	-15812	-1608	-3264	-57	58	-96	-16384	1884	-300	110	104	90	124	115	8
-11004	-2872	11200	-76	121	-134	-16548	1160	-2148	55	20	176	-15984	840	-2872	-16	-82	197	-10328	2628	13016	118	-31	-155	-15852	-1612	-3372	-51	52	-60	-16280	1928	-392	194	80	51	124	115	8
-11016	-2856	11204	-104	145	-146	-16504	1084	-2272	75	24	196	-16028	852	-2808	0	-40	161	-10364	2568	13040	87	10	-165	-15800	-1616	-3320	-9	32	-15	-16316	1980	-428	208	76	85	124	115	8
-11052	-2876	11276	-109	161	-162	-16460	1192	-2396	86	33	152	-15972	748	-2748	23	-84	207	-10344	2616	13028	115	-19	-172	-15884	-1624	-3336	62	-17	-43	-16268	1988	-480	115	88	83	124	115	8
-11068	-2860	11296	-91	127	-154	-16488	1224	-2252	87	61	186	-15952	756	-2872	76	-69	180	-10384	2540	13080	97	-33	-161	-15784	-1628	-3360	-13	-15	-75	-16324	1892	-408	118	30	97	124	115	8
-11020	-2860	11140	-107	133	-138	-16516	1172	-2340	123	-19	173	-16024	780	-2880	103	-87	192	-10352	2624	13092	118	-21	-142	-15776	-1600	-3300	-43	-13	-73	-16316	1932	-280	247	38	82	124	115	8
-10976	-2900	11252	-74	148	-148	-16452	1192	-2272	128	30	189	-15976	812	-2988	139	-110	174	-10320	2644	13012	75	-9	-213	-15804	-1564	-3336	-29	-5	-65	-16316	1912	-368	329	-20	65	124	115	8
-11000	-2908	11200	-109	149	-162	-16520	1132	-2168	99	31	177	-15964	784	-2988	119	-113	191	-10360	2584	13076	115	19	-169	-15776	-1676	-3372	18	13	-53	-16276	1888	-404	379	-17	35	125	115	8
-11052	-2840	11192	-93	149	-160	-16552	1184	-2252	99	-1	189	-16008	852	-2888	87	-84	194	-10316	2580	13136	92	-21	-156	-15736	-1656	-3288	64	-61	-61	-16280	1988	-480	365	-10	68	125	115	8
-10996	-2896	11172	-82	152	-151	-16432	1188	-2392	70	16	140	-15948	788	-2924	76	-84	199	-10372	2620	12944	151	-14	-153	-15796	-1596	-3144	-10	-83	-25	-16300	1972	-524	274	-14	81	125	115	8
-10996	-2888	11168	-76	121	-143	-16512	1216	-2348	59	-34	144	-16076	696	-2924	54	-110	147	-10296	2564	13060	122	-11	-130	-15788	-1652	-3400	13	-62	-58	-16336	2020	-492	291	-93	52	125	115	8
-11032	-2896	11232	-92	130	-172	-16604	1188	-2240	97	-8	169	-16072	740	-2892	65	-130	197	-10384	2644	13044	140	14	-132	-15876	-1628	-3416	52	-66	-39	-16304	2012	-412	213	-66	38	125	115	8
-11020	-2888	11260	-121	127	-166	-16440	1188	-2268	62	-1	125	-15972	924	-2980	51	-147	192	-10296	2564	13080	150	-39	-176	-15756	-1504	-3316	7	-32	-52	-16228	2096	-440	89	-43	66	125	115	8
-11020	-2916	11184	-145	166	-176	-16456	1164	-2348	74	-36	143	-15968	936	-2960	10	-168	140	-10300	2616	12944	155	-5	-142	-15892	-1620	-3416	-93	-47	-104	-16304	2076	-384	71	-66	69	125	115	8
-10980	-2900	11212	-114	137	-149	-16496	1172	-2344	44	-88	148	-15996	868	-3056	-31	-213	129	-10412	2568	13072	152	-51	-149	-15832	-1600	-3420	6	-49	-59	-16260	1904	-480	34	-88	64	125	115	8
-10960	-2856	11228	-139	138	-163	-16484	1204	-2356	52	-92	123	-16000	804	-3080	-58	-151	118	-10368	2604	12896	139	5	-111	-15760	-1684	-3216	32	-99	-43	-16200	1904	-356	124	-91	15	125	115	8
-11040	-2888	11252	-100	140	-181	-16540	1196	-2328	44	-97	119	-16060	796	-3076	-58	-178	96	-10292	2636	13076	104	-43	-188	-15776	-1624	-3320	-15	-94	-55	-16320	1916	-372	249	-85	41	125	115	8
-10968	-2880	11204	-126	154	-194	-16468	1204	-2376	25	-91	146	-15960	820	-3008	-40	-211	151	-10336	2632	13000	109	-9	-125	-15820	-1588	-3396	-63	-135	-59	-16264	1932	-444	247	-44	40	125	115	8
-11024	-2896	11196	-144	146	-187	-16476	1164	-2348	-5	-126	132	-15960	816	-2892	-1	-263	141	-10348	2624	12984	119	-60	-150	-15848	-1676	-3368	-1	-117	2	-16312	1924	-340	178	-54	75	125	115	8
-11052	-2900	11164	-89	134	-181	-16540	1228	-2272	-35	-168	120	-16000	844	-2944	-80	-220	150	-10296	2592	12980	119	-33	-156	-15868	-1740	-3488	14	-145	-8	-16308	1844	-584	76	-27	87	125	115	8
-11028	-2896	11164	-131	143	-168	-16444	1096	-2296	-66	-150	157	-16004	740	-2848	-45	-206	169	-10368	2652	12924	117	-27	-156	-15756	-1616	-3288	-30	-114	-8	-16336	1888	-320	56	12	77	125	115	8
-11004	-2876	11164	-156	145	-173	-16540	1164	-2164	-53	-152	141	-15984	720	-2776	-108	-206	177	-10316	2572	12984	101	9	-106	-15812	-1592	-3192	-135	-150	33	-16360	1884	-228	44	6	113	125	115	8
-11076	-2884	11228	-111	125	-206	-16484	1064	-2256	-57	-135	159	-16048	708	-2720	-184	-196	166	-10412	2628	12928	106	-21	-150	-15880	-1576	-3352	-191	-94	10	-16300	1976	-204	140	1	150	125	115	8
-11072	-2936	11124	-116	129	-147	-16440	1104	-2260	-62	-133	180	-16040	752	-2932	-241	-243	200	-10292	2592	13036	105	6	-154	-15872	-1612	-3244	-49	-70	33	-16296	1952	-340	168	-38	103	125	115	8
-11020	-2860	11208	-97	126	-167	-16520	1172	-2228	-41	-119	169	-16088	732	-2800	-227	-240	147	-10360	2564	13004	127	7	-136	-15828	-1568	-3224	-24	-56	45	-16232	1940	-444	109	-34	143	124	115	8
-11036	-2916	11332	-130	135	-180	-16500	1228	-2180	-49	-107	190	-15920	740	-2760	-160	-228	198	-10312	2608	13116	77	-12	-165	-15848	-1592	-3200	-99	-82	26	-16204	1972	-312	207	-26	78	125	115	8
-10988	-2928	11140	-81	171	-165	-16504	1216	-2168	-12	-93	212	-15964	776	-2984	-93	-206	223	-10356	2608	13060	103	-44	-152	-15824	-1644	-3324	-64	-100	3	-16276	1968	-448	280	-9	97	125	115	8
-11056	-2840	11232	-123	96	-168	-16468	1152	-2148	-30	-108	205	-15964	816	-2900	-34	-217	208	-10312	2556	13060	101	-13	-159	-15868	-1592	-3348	-22	-131	23	-16328	2112	-388	271	-85	117	125	115	8
-11056	-2960	11328	-102	157	-151	-16560	1276	-2100	23	-98	250	-16064	852	-2848	-66	-220	194	-10332	2608	12984	114	-26	-180	-15836	-1516	-3200	8	-80	48	-16328	2036	-308	162	-8	128	124	115	8
-11064	-2800	11156	-103	139	-144	-16496	1228	-2200	3	-79	200	-16020	884	-2812	-73	-187	207	-10332	2628	13136	126	-17	-176	-15792	-1564	-3156	1	-106	20	-16308	2048	-348	127	-14	103	125	115	8
-11024	-2928	11320	-101	150	-161	-16468	1260	-2152	20	-104	215	-16048	904	-2776	-86	-161	173	-10356	2628	13072	143	-22	-176	-15792	-1576	-3184	-48	-138	6	-16276	2048	-288	144	-43	100	125	115	8
-10980	-2892	11152	-109	126	-165	-16488	1216	-2124	18	-75	193	-15980	908	-2832	-92	-143	130	-10356	2568	12940	113	-3	-161	-15796	-1552	-3260	14	-115	-21	-16220	1996	-344	82	-2	101	125	115	8
-11000	-2880	11232	-88	117	-161	-16536	1216	-2156	-35	-32	125	-15988	868	-2732	-102	-149	148	-10368	2572	13048	103	47	-177	-15848	-1524	-3228	25	-76	-12	-16248	2124	-164	61	9	80	125	115	8
-11044	-2924	11204	-129	162	-163	-16500	1272	-2100	25	-112	177	-16012	848	-2860	-78	-152	123	-10320	2636	12980	154	-64	-145	-15804	-1456	-3212	-24	-78	-33	-16276	2024	-288	28	-1	90	125	115	8
-11000	-2936	11232	-114	141	-192	-16504	1216	-2140	-34	-83	132	-15984	792	-2772	6	-123	141	-10340	2664	13012	128	-4	-125	-15832	-1460	-3192	-105	-64	-57	-16388	1988	-156	45	-45	49	125	115	8
-10964	-2888	11152	-114	143	-193	-16488	1136	-2244	12	-92	110	-15948	824	-2884	-18	-115	116	-10356	2588	12952	108	-54	-130	-15820	-1548	-3188	-83	-34	-90	-16248	2112	-132	100	10	16	125	115	8
-11040	-2916	11268	-99	135	-166	-16484	1252	-2088	59	-58	157	-16096	912	-2764	-17	-116	151	-10340	2600	13068	78	7	-125	-15852	-1572	-3304	-52	-5	-69	-16392	2044	-148	99	44	-4	125	115	8
-11032	-3008	11236	-125	145	-170	-16512	1208	-2144	61	-42	147	-16036	856	-2756	-70	-129	136	-10308	2624	13008	61	-9	-204	-15896	-1428	-3232	-131	15	-124	-16284	2012	-268	79	96	17	125	115	8
-11068	-2936	11288	-131	131	-189	-16500	1164	-2184	-1	-20	96	-16024	900	-2664	-99	-109	97	-10336	2660	13104	66	58	-170	-15848	-1588	-3228	-156	53	-107	-16372	2016	-276	96	130	-19	125	115	8
-11032	-2920	11152	-124	180	-152	-16456	1152	-2184	2	31	92	-15908	872	-2808	-158	-94	60	-10360	2624	13024	94	-29	-165	-15772	-1524	-3368	-78	36	-133	-16296	1976	-384	128	89	14	125	115	8
-11012	-2876	11324	-118	169	-194	-16508	1188	-2156	-15	26	119	-15968	868	-2820	-130	-98	48	-10388	2656	12944	90	-38	-160	-15796	-1472	-3312	69	10	-105	-16432	1984	-440	160	72	-3	125	115	8
-11068	-2944	11220	-102	154	-144	-16512	1204	-2248	36	-13	99	-15972	756	-2876	-129	-94	90	-10364	2568	13116	92	-36	-148	-15824	-1604	-3360	23	27	-76	-16320	1888	-484	135	70	7	125	115	8
-11048	-3016	11204	-121	152	-123	-16564	1160	-2120	113	-12	154	-16012	728	-2716	-106	-114	100	-10344	2572	13108	81	-37	-185	-15824	-1616	-3360	-8	-12	-73	-16348	1936	-540	166	73	11	125	115	8
-11040	-2908	11136	-148	141	-175	-16440	1292	-2204	10	8	115	-15952	804	-2812	-13	-58	144	-10348	2532	13048	96	-48	-165	-15876	-1604	-3252	-41	-23	-54	-16276	1920	-460	173	74	40	125	115	8
-11000	-2900	11324	-102	145	-120	-16484	1152	-2084	20	-19	90	-16032	840	-2788	21	-91	104	-10340	2572	13100	88	-58	-154	-15856	-1636	-3372	20	-38	-81	-16328	2012	-404	265	99	62	125	115	8
-11036	-2916	11232	-104	157	-153	-16500	1168	-2184	94	-29	128	-15992	832	-2980	91	-107	141	-10364	2572	12988	82	8	-160	-15860	-1580	-3352	61	-24	-81	-16304	1972	-304	305	74	67	125	115	8
-11024	-2908	11304	-117	166	-167	-16440	1204	-2140	106	-12	152	-16000	748	-2804	162	-39	158	-10388	2604	13032	114	-30	-122	-15780	-1552	-3376	46	-51	-37	-16344	1936	-288	364	68	36	125	115	8
-11116	-2864	11156	-129	172	-143	-16456	1148	-2152	103	19	127	-15940	744	-2828	130	-54	158	-10300	2628	13076	79	-50	-169	-15832	-1564	-3324	49	-35	-26	-16288	1908	-332	456	128	67	125	115	8
-11032	-2912	11160	-132	165	-166	-16516	1168	-2096	112	-47	151	-15964	788	-2800	139	-19	202	-10344	2664	13012	93	-14	-177	-15868	-1568	-3304	73	-3	-47	-16308	1980	-460	500	120	99	125	115	8
-11024	-2940	11232	-124	151	-172	-16480	1104	-2196	120	-24	144	-16028	784	-2804	135	-11	188	-10388	2640	13012	79	-5	-167	-15880	-1616	-3228	84	-7	-12	-16268	1960	-392	535	142	81	125	115	8
-10980	-2876	11232	-78	142	-172	-16524	1156	-2216	125	-20	110	-16048	824	-2888	109	-35	213	-10356	2620	12996	75	15	-163	-15820	-1656	-3200	129	-4	-11	-16252	1932	-248	436	174	87	126	115	8
-11072	-2960	11236	-117	141	-158	-16496	1128	-2156	86	36	161	-16072	824	-2740	83	-33	166	-10356	2604	13040	95	-20	-157	-15828	-1500	-3328	81	-35	-47	-16344	1912	-280	387	159	100	125	115	8
-10968	-2932	11272	-100	125	-123	-16472	1132	-2148	97	33	148	-16024	776	-2712	64	-9	200	-10344	2556	13092	63	-40	-150	-15728	-1536	-3196	102	12	-61	-16288	1980	-292	421	128	78	125	115	8
-11028	-2892	11296	-102	110	-164	-16464	1176	-2200	96	51	171	-16036	684	-2772	90	-8	189	-10396	2592	12984	22	-19	-150	-15820	-1460	-3220	100	44	-53	-16288	2032	-384	333	118	65	125	115	8
-11024	-2892	11332	-56	106	-130	-16444	1212	-2076	131	71	173	-16008	764	-2852	114	23	211	-10356	2612	13020	66	-6	-198	-15848	-1536	-3372	105	13	-69	-16308	2052	-452	365	155	77	125	115	8
-11056	-2872	11144	-56	133	-159	-16544	1188	-2148	174	63	202	-16048	772	-2872	162	-26	242	-10356	2584	13072	72	-7	-132	-15852	-1552	-3400	139	29	-27	-16200	2000	-452	362	146	116	125	115	8
-11052	-2872	11228	-30	105	-153	-16444	1260	-2296	192	33	177	-15908	836	-2920	150	19	229	-10348	2596	13072	72	-52	-185	-15856	-1564	-3408	150	5	-35	-16220	1996	-620	384	147	75	125	115	8
-11072	-2884	11280	-78	116	-147	-16520	1204	-2256	160	37	176	-16004	836	-2888	159	6	255	-10380	2600	13016	66	-38	-143	-15824	-1504	-3244	106	3	-73	-16260	2064	-460	435	112	123	125	115	8
-11048	-2860	11236	-34	138	-152	-16472	1316	-2304	156	29	160	-15996	976	-2892	112	14	244	-10384	2608	13020	54	9	-150	-15792	-1528	-3260	94	-25	-50	-16256	1992	-536	366	106	101	125	115	8
-11016	-2888	11140	-106	136	-165	-16532	1232	-2264	134	38	161	-15952	928	-2936	118	64	217	-10328	2608	13024	73	-8	-152	-15792	-1580	-3276	87	-8	-29	-16296	2016	-436	300	154	95	125	115	8
-11032	-2856	11256	-155	175	-180	-16512	1252	-2244	73	23	136	-15976	932	-2908	93	48	211	-10356	2564	13040	111	-11	-166	-15812	-1492	-3252	36	28	-53	-16316	2040	-304	249	167	78	125	115	8
-11064	-2908	11220	-97	135	-182	-16488	1208	-2212	17	20	125	-15968	836	-2824	18	55	183	-10280	2496	12996	71	16	-204	-15800	-1544	-3284	11	46	-24	-16340	2052	-412	176	205	57	125	115	8
-11036	-2844	11304	-108	174	-141	-16532	1236	-2212	8	-23	145	-15992	828	-2912	-8	74	167	-10348	2564	13100	105	-39	-167	-15804	-1552	-3284	35	49	-68	-16260	2032	-436	108	304	63	125	115	8
-10992	-2956	11188	-138	169	-124	-16456	1200	-2184	20	31	145	-15976	828	-2952	-23	77	142	-10400	2584	12960	106	-1	-184	-15788	-1500	-3204	-78	68	-66	-16248	1952	-440	45	346	44	125	115	8
-11008	-2836	11252	-108	157	-153	-16508	1124	-2120	63	29	133	-16012	800	-2856	-60	58	137	-10356	2512	12992	91	-9	-203	-15808	-1564	-3260	-90	66	-84	-16264	2000	-500	74	363	57	125	115	8
-11012	-2924	11140	-90	160	-176	-16520	1220	-2200	24	24	150	-15936	788	-2908	-107	59	183	-10240	2540	12972	50	-11	-160	-15836	-1532	-3364	-108	99	-98	-16252	1896	-628	105	367	36	125	115	8
-10952	-2844	11212	-54	126	-152	-16412	1188	-2148	27	60	132	-16008	784	-2872	-119	52	167	-10400	2536	12972	102	6	-181	-15832	-1604	-3536	22	31	-66	-16208	1984	-596	161	345	64	125	115	8
-11004	-2932	11268	-120	171	-177	-16500	1168	-2172	30	50	149	-15988	808	-2832	-69	64	176	-10396	2480	13088	131	15	-182	-15832	-1572	-3504	29	55	-33	-16272	1976	-768	161	409	87	125	115	8
-11036	-2936	11164	-99	147	-190	-16488	1124	-2364	45	46	157	-15972	728	-2856	-76	109	196	-10300	2412	13016	102	0	-202	-15832	-1552	-3284	-7	36	-41	-16320	1972	-540	10	358	88	125	115	8
-11060	-2936	11108	-134	158	-153	-16504	1200	-2220	32	28	152	-16012	680	-2964	-47	115	190	-10372	2532	13116	85	21	-166	-15844	-1612	-3324	-84	41	-18	-16244	1924	-640	-7	345	63	125	115	8
-11044	-2884	11196	-74	146	-145	-16540	1176	-2232	14	27	179	-16036	740	-2972	24	96	204	-10328	2544	13136	115	50	-181	-15820	-1532	-3424	-19	39	-29	-16272	1964	-588	127	380	114	125	115	8
-11076	-2940	11200	-123	151	-148	-16500	1200	-2288	66	89	199	-15960	780	-2876	66	107	252	-10404	2604	13112	155	44	-187	-15824	-1560	-3364	-56	108	-40	-16276	2088	-476	201	226	122	124	115	8
-11084	-2872	11232	-103	148	-120	-16488	1188	-2216	30	49	163	-15916	800	-3012	97	72	240	-10400	2500	13068	99	70	-144	-15772	-1540	-3360	54	93	33	-16216	1972	-652	134	316	137	125	115	8
-11092	-2960	11252	-112	123	-141	-16532	1148	-2216	52	30	198	-15968	868	-2936	94	110	246	-10376	2580	12996	115	23	-185	-15796	-1600	-3432	26	96	7	-16268	1892	-708	186	341	120	125	115	8
-11064	-2952	11232	-95	185	-136	-16476	1300	-2228	45	69	234	-16044	800	-2916	171	108	299	-10336	2464	13048	112	50	-167	-15836	-1564	-3312	49	94	11	-16224	1908	-644	270	371	120	125	115	8
-11052	-2844	11192	-76	126	-165	-16448	1160	-2096	144	36	222	-15984	848	-2784	117	146	314	-10352	2552	13052	128	5	-183	-15760	-1508	-3320	5	96	-46	-16192	1980	-608	294	456	121	125	115	8
-11028	-2868	11248	-113	159	-113	-16480	1188	-2324	129	62	188	-15952	912	-2956	82	133	281	-10428	2584	12892	107	46	-174	-15848	-1472	-3404	-75	96	-41	-16356	2148	-620	222	524	106	125	115	8
-10968	-2860	11280	-67	166	-177	-16476	1252	-2212	101	128	189	-15956	904	-3080	-31	140	232	-10368	2620	13024	155	76	-184	-15912	-1512	-3432	1	114	-8	-16272	2104	-696	229	514	133	125	115	8
-11020	-2896	11284	-82	147	-130	-16492	1264	-2080	93	88	175	-15936	968	-3096	-43	134	236	-10268	2588	13060	127	19	-171	-15840	-1584	-3300	81	125	-36	-16260	2004	-752	27	718	178	125	115	8
-11056	-2860	11236	-56	192	-102	-16472	1304	-2448	11	80	164	-15972	944	-3128	-9	169	256	-10392	2600	13064	105	53	-172	-15884	-1448	-3360	-33	122	-90	-16212	1964	-844	-40	844	129	125	115	8
-11000	-2836	11220	-93	150	-129	-16512	1208	-2360	83	78	163	-15972	876	-3108	-27	132	233	-10392	2568	12976	120	44	-179	-15772	-1536	-3600	-109	142	-61	-16232	1964	-724	-99	904	145	125	115	8
-11068	-2848	11284	-112	184	-166	-16404	1256	-2300	2	53	175	-15940	892	-3228	-27	96	205	-10364	2592	13012	132	42	-217	-15868	-1556	-3396	-50	130	-86	-16176	1964	-716	-279	1133	163	125	115	8
-11032	-2932	11188	-97	174	-151	-16460	1244	-2252	37	53	187	-15956	812	-3064	29	68	242	-10448	2580	12860	84	52	-177	-15768	-1516	-3368	-21	148	-129	-16200	1824	-732	-432	1253	187	125	115	8
-11032	-2776	11188	-136	168	-163	-16492	1212	-2304	-1	77	189	-15992	884	-3096	22	81	268	-10344	2564	13036	89	15	-200	-15760	-1524	-3396	-6	146	-99	-16240	1844	-632	-548	1243	181	125	115	8
-11032	-2916	11236	-98	168	-124	-16524	1164	-2228	68	61	138	-15980	784	-3116	77	132	233	-10376	2560	12944	103	-5	-160	-15736	-1508	-3336	1	195	-129	-16220	1948	-672	-530	1054	184	125	115	8
-11004	-2908	11248	-85	187	-144	-16456	1176	-2188	43	55	216	-15956	808	-3020	121	58	234	-10404	2544	12960	113	13	-206	-15788	-1552	-3476	18	180	-123	-16176	2100	-816	-399	1039	164	125	115	8
-11084	-2868	11236	-92	148	-163	-16468	1164	-2228	136	70	174	-16008	780	-3012	80	44	233	-10384	2516	13000	64	63	-196	-15856	-1588	-3532	51	190	-91	-16220	2100	-940	-334	981	175	125	115	8
-11108	-2944	11144	-135	148	-121	-16488	1260	-2388	121	127	200	-15972	892	-3164	115	14	227	-10348	2584	12956	107	14	-157	-15824	-1628	-3572	138	179	-113	-16320	2408	-1292	-379	603	251	125	115	8
-11016	-2872	11160	-119	163	-121	-16500	1248	-2252	148	127	254	-15920	864	-3180	146	36	282	-10396	2532	12992	88	-13	-163	-15736	-1564	-3660	75	119	-39	-16292	2528	-1384	-528	288	288	125	115	8
-11112	-2944	11124	-102	138	-80	-16488	1300	-2268	185	63	204	-15932	900	-3196	144	31	302	-10384	2580	12904	100	20	-175	-15764	-1608	-3556	154	74	-55	-16344	2288	-1412	-565	112	322	125	115	8
-11028	-2892	11172	-92	155	-143	-16472	1232	-2328	121	26	233	-15928	888	-3280	288	72	316	-10308	2544	12964	108	-27	-205	-15752	-1576	-3636	183	41	-21	-16004	2328	-1316	-404	22	190	125	115	8
-10996	-2960	11264	-83	141	-138	-16512	1284	-2336	172	-34	241	-15940	896	-2932	320	67	342	-10380	2652	13060	101	56	-153	-15820	-1496	-3612	48	18	27	-16224	2300	-1292	-439	-50	279	125	115	8
-11056	-2872	11248	-109	124	-170	-16428	1220	-2316	110	17	190	-15928	896	-3176	312	92	345	-10408	2584	12960	107	5	-126	-15744	-1636	-3556	79	-4	-3	-16300	2228	-1184	-347	-103	239	125	115	8
-11032	-2900	11244	-71	136	-132	-16452	1208	-2292	148	16	216	-15952	1024	-3196	270	-1	299	-10356	2552	12992	135	-4	-166	-15784	-1596	-3560	85	-28	6	-16008	2352	-1088	-277	-97	234	125	115	8
-11024	-2840	11264	-72	113	-161	-16468	1236	-2336	129	48	208	-15952	1072	-3124	190	-25	244	-10400	2588	13016	116	40	-140	-15728	-1540	-3468	108	20	19	-16228	2232	-1068	-167	-21	241	125	115	8
-10984	-2796	11160	-103	117	-112	-16524	1280	-2372	60	69	211	-15884	1040	-3188	95	-46	211	-10380	2628	12992	122	46	-163	-15852	-1428	-3400	-42	-20	-72	-16232	2260	-988	-93	-69	167	125	115	8
-11060	-2876	11164	-96	152	-145	-16500	1300	-2428	28	60	184	-15956	1088	-3156	56	-29	231	-10380	2608	13004	109	29	-158	-15744	-1496	-3508	-60	26	-106	-16620	2108	-1076	-5	-33	-26	125	115	8
-11036	-2888	11236	-51	155	-145	-16468	1280	-2336	10	31	126	-15920	1044	-3224	-69	-32	201	-10396	2564	13056	137	17	-164	-15732	-1456	-3528	-55	28	-80	-16216	2264	-996	5	-33	103	125	115	8
-11060	-2864	11212	-96	134	-156	-16552	1304	-2408	8	36	147	-15948	1020	-3228	-145	-77	174	-10484	2616	12996	96	-7	-161	-15756	-1568	-3580	-40	38	-112	-16168	2340	-1144	13	4	100	125	115	8
-11036	-2856	11300	-96	145	-141	-16480	1288	-2376	-36	20	159	-15884	980	-3188	-123	-70	128	-10372	2568	13092	73	22	-165	-15704	-1532	-3512	-90	30	-89	-16240	2324	-1096	-15	19	72	125	116	8
-11064	-2852	11184	-96	171	-153	-16452	1260	-2312	-35	9	128	-16012	964	-3180	-76	-138	127	-10400	2592	13056	131	-45	-172	-15796	-1524	-3560	-100	8	-133	-16204	2164	-1216	-53	10	89	126	116	8
-11016	-2872	11120	-103	152	-176	-16384	1312	-2316	-1	-11	153	-15936	904	-3164	-62	-106	157	-10412	2568	12900	105	14	-164	-15840	-1632	-3492	-81	-21	-90	-16192	2224	-1300	-77	72	48	125	115	8
-11008	-2856	11184	-85	123	-188	-16548	1264	-2288	5	-25	165	-15932	932	-3164	-35	-103	140	-10444	2588	12988	116	7	-144	-15792	-1636	-3636	-39	-55	-55	-16252	2160	-1208	6	14	64	126	115	8
-11060	-2888	11224	-97	163	-172	-16480	1244	-2404	2	-5	148	-15940	892	-3216	-13	-112	122	-10392	2596	12964	111	-13	-149	-15800	-1552	-3516	23	-62	-25	-16128	2172	-1148	-6	23	70	126	116	8
-11024	-2924	11200	-96	150	-156	-16412	1256	-2292	7	19	156	-15980	848	-3112	-39	-106	126	-10440	2464	13048	105	7	-160	-15788	-1564	-3544	23	-70	-32	-16672	1864	-1208	64	8	-141	126	116	8
-11036	-2844	11164	-117	160	-123	-16476	1244	-2248	22	-43	165	-15928	960	-3268	-62	-105	144	-10400	2532	12936	107	-10	-150	-15720	-1516	-3428	-16	-91	-13	-16228	2220	-1176	-61	10	43	126	116	8
-11024	-2808	11184	-81	130	-147	-16496	1224	-2360	15	-14	156	-15948	944	-3048	-49	-105	184	-10376	2540	12992	67	-21	-172	-15804	-1532	-3472	-29	-66	-51	-16100	2224	-1020	19	60	50	126	116	8
-11096	-2828	11184	-112	114	-164	-16416	1292	-2336	4	-25	152	-15912	1008	-3144	-119	-144	187	-10416	2540	12932	110	-5	-197	-15788	-1544	-3552	-34	-66	-44	-16164	2188	-996	75	-14	67	126	115	8
-11060	-2912	11140	-119	148	-172	-16540	1244	-2348	25	-83	156	-15932	1080	-3420	-154	-158	163	-10336	2536	12988	86	8	-148	-15844	-1528	-3428	-36	-71	-38	-16280	2164	-1152	80	-16	34	126	116	8
-11080	-2852	11360	-121	162	-153	-16436	1224	-2508	-62	-31	178	-15952	1004	-3264	-159	-161	118	-10484	2616	13032	110	-25	-139	-15804	-1608	-3464	-40	-43	-19	-16220	2204	-1148	18	29	60	126	116	8
-11108	-2780	11332	-137	189	-171	-16448	1288	-2340	-104	-36	173	-15920	936	-3264	-236	-191	81	-10404	2596	12988	127	-7	-161	-15760	-1500	-3512	17	-64	-31	-16192	2184	-960	-26	47	74	126	116	8
-11100	-2880	11228	-130	191	-175	-16492	1272	-2512	-161	-42	164	-15972	932	-3264	-326	-203	121	-10372	2572	13004	119	-7	-121	-15748	-1596	-3536	-132	-21	-34	-16188	2124	-1148	-2	62	88	126	116	8
-11092	-2844	11292	-135	172	-188	-16440	1216	-2356	-175	-14	146	-15848	924	-3232	-324	-197	131	-10420	2500	12988	156	-24	-164	-15732	-1592	-3616	0	-39	64	-16196	2152	-1268	-23	78	115	127	116	8
-11032	-2880	11352	-106	145	-198	-16536	1208	-2344	-180	-85	188	-15948	844	-3132	-300	-147	150	-10408	2648	12972	147	19	-138	-15748	-1640	-3568	-18	-78	48	-16132	2172	-1128	-24	135	105	127	116	8
-11008	-2920	11156	-148	155	-166	-16488	1208	-2360	-178	-63	203	-15972	804	-3136	-245	-182	154	-10428	2648	13060	134	21	-135	-15800	-1608	-3564	-56	-95	72	-16212	2196	-1208	-100	97	101	127	116	8
-11104	-2856	11292	-122	166	-192	-16460	1256	-2308	-64	-57	198	-15960	760	-3080	-224	-188	226	-10436	2568	12860	194	-10	-115	-15732	-1516	-3524	-139	-137	102	-16232	2192	-1280	-104	166	107	127	116	8
-10996	-2888	11236	-105	132	-184	-16548	1208	-2276	-25	-74	244	-15992	880	-3040	-238	-199	168	-10324	2540	13084	142	-2	-118	-15796	-1524	-3504	-1	-165	111	-16268	2308	-1172	-163	193	84	127	116	8
-11096	-2928	11224	-103	127	-135	-16484	1312	-2232	-17	-31	254	-16000	1016	-3012	-303	-181	203	-10452	2528	12996	137	33	-156	-15764	-1524	-3612	4	-135	94	-16252	2272	-1204	-178	197	50	127	116	8
-11020	-2876	11128	-62	122	-163	-16468	1264	-2332	-114	4	263	-15948	904	-3048	-276	-162	173	-10476	2616	13028	131	17	-122	-15768	-1432	-3440	46	-126	158	-16268	2200	-1088	-191	273	100	127	116	8
-11060	-2840	11124	-72	156	-151	-16476	1236	-2252	-79	42	253	-15992	972	-2996	-314	-180	127	-10408	2540	12980	161	37	-132	-15804	-1388	-3384	2	-57	69	-16200	2168	-848	-176	178	132	127	116	8
-11088	-2904	11232	-82	153	-128	-16472	1320	-2292	-76	37	251	-15948	956	-3160	-358	-165	110	-10384	2624	12896	143	-23	-103	-15800	-1480	-3304	-70	6	70	-16252	2244	-996	-39	128	114	127	116	8
-11024	-2916	11308	-98	198	-176	-16440	1308	-2216	-146	35	238	-15912	920	-3048	-314	-141	212	-10440	2652	12920	128	14	-151	-15748	-1460	-3428	3	8	-7	-16212	2212	-940	10	88	111	127	116	8
-11060	-2788	11220	-85	189	-175	-16472	1296	-2280	-102	46	252	-16020	904	-3136	-288	-171	225	-10420	2580	12992	142	56	-135	-15848	-1504	-3472	59	55	17	-16108	2388	-972	138	75	102	127	116	8
-11008	-2892	11216	-94	157	-146	-16464	1304	-2256	-77	35	282	-16028	936	-3064	-192	-186	275	-10444	2564	12912	121	16	-145	-15824	-1464	-3548	66	119	13	-16200	2156	-1120	156	111	134	127	116	8
-11028	-2864	11284	-105	151	-165	-16484	1292	-2188	-61	110	287	-15976	952	-2992	-212	-173	209	-10396	2560	12972	155	13	-162	-15824	-1492	-3536	60	108	24	-16176	2172	-1136	121	145	42	126	116	8
-11084	-2852	11308	-98	134	-148	-16444	1312	-2384	-39	101	299	-16004	1032	-3192	-199	-195	209	-10404	2668	12940	133	-20	-125	-15812	-1432	-3476	-32	71	-32	-16208	2324	-1032	121	118	119	126	116	8
-11032	-2896	11160	-105	149	-156	-16496	1344	-2356	-57	130	292	-15956	972	-2976	-184	-157	189	-10420	2568	12852	96	7	-188	-15832	-1368	-3380	-7	151	15	-16208	2388	-1100	21	171	115	127	116	8
-11084	-2832	11176	-121	141	-144	-16440	1376	-2244	-60	129	281	-15892	1040	-3164	-226	-158	179	-10416	2544	13004	115	-8	-185	-15816	-1532	-3508	-35	145	-33	-16208	2392	-1012	-32	139	127	126	116	8
-11076	-2956	11264	-100	157	-159	-16492	1352	-2432	-152	153	289	-15876	1012	-3168	-321	-140	210	-10408	2620	12928	129	-14	-141	-15780	-1476	-3476	-90	93	-28	-16180	2328	-1160	-69	182	117	126	116	8
-11132	-2836	11128	-71	141	-143	-16360	1324	-2432	-31	122	252	-15924	1020	-3248	-299	-176	222	-10436	2596	12976	128	-3	-169	-15800	-1520	-3584	-9	127	-40	-16172	2256	-1440	-24	190	71	127	116	8
-11136	-2848	11200	-103	150	-162	-16452	1368	-2428	-100	81	300	-15940	972	-3316	-270	-150	212	-10328	2588	12992	132	-29	-157	-15772	-1516	-3648	-29	72	-31	-16152	2216	-1416	47	127	99	127	116	8
-11068	-2896	11192	-109	136	-181	-16472	1376	-2292	-65	88	279	-15888	964	-3072	-266	-196	240	-10484	2608	12972	114	50	-170	-15764	-1476	-3588	-71	73	6	-16200	2256	-1372	22	94	105	127	116	8
-11068	-2884	11188	-66	156	-152	-16476	1280	-2424	17	93	261	-15900	936	-3212	-152	-182	220	-10400	2600	12916	130	-24	-138	-15788	-1452	-3628	-93	54	-6	-16248	2328	-1284	32	-4	106	127	116	8
-11072	-2916	11152	-53	141	-160	-16432	1348	-2348	75	40	309	-15944	916	-3036	-143	-208	227	-10452	2588	12884	127	10	-154	-15752	-1404	-3620	-122	40	-18	-16188	2332	-1244	-21	0	147	127	116	8
-11096	-2896	11292	-63	133	-151	-16464	1424	-2340	31	79	306	-16012	1032	-3144	-147	-190	225	-10424	2576	13000	123	-15	-133	-15788	-1444	-3680	-138	26	28	-16252	2352	-1180	-37	0	126	127	116	8
-11032	-2864	11256	-85	149	-163	-16432	1372	-2476	20	30	319	-15920	1084	-3292	-62	-201	217	-10372	2568	13056	76	-27	-142	-15804	-1472	-3648	-130	5	6	-16140	2308	-1280	-45	-37	126	126	116	8
-11108	-2920	11088	-71	122	-151	-16456	1424	-2600	123	-8	286	-15916	1088	-3204	-52	-244	246	-10476	2604	12952	144	0	-131	-15736	-1464	-3644	-141	30	6	-16216	2360	-1360	-42	-78	143	126	116	8
-11012	-2832	11196	-91	132	-161	-16420	1408	-2440	69	-24	283	-15976	1056	-3088	-53	-261	244	-10432	2596	12968	105	-79	-141	-15776	-1380	-3604	-135	-68	-10	-16180	2328	-1328	-37	-99	153	126	116	8
-11060	-2820	11148	-25	125	-145	-16444	1464	-2376	43	-37	293	-15932	1136	-3264	-84	-270	259	-10428	2584	12980	117	-41	-168	-15744	-1496	-3628	-155	-82	8	-16192	2208	-1328	33	-88	144	126	115	8
-11004	-2840	11260	-76	151	-173	-16380	1440	-2412	65	4	278	-15936	1116	-3156	-71	-277	247	-10436	2556	13008	97	3	-151	-15724	-1496	-3652	-112	-94	10	-16124	2272	-1420	63	-74	109	126	116	8
-11100	-2948	11196	-123	116	-160	-16436	1404	-2480	31	-68	256	-15952	1152	-3048	-67	-324	182	-10428	2652	13036	108	-20	-112	-15756	-1472	-3572	-126	-112	82	-16192	2280	-1220	75	-66	103	126	116	8
-11072	-2860	11248	-132	124	-166	-16540	1428	-2472	47	-64	238	-15912	1120	-3224	-90	-339	195	-10408	2584	13060	119	-51	-121	-15808	-1460	-3560	-130	-154	44	-16200	2328	-1388	35	-132	96	126	116	8
-11116	-2876	11128	-106	140	-165	-16424	1464	-2396	43	-126	235	-15904	1072	-3136	-86	-306	165	-10456	2596	13016	137	-36	-124	-15756	-1388	-3540	-154	-139	41	-16112	2404	-1236	6	-141	103	126	115	8
-11008	-2884	11188	-93	182	-180	-16496	1452	-2476	24	-105	230	-15980	1076	-3216	-44	-327	174	-10444	2644	13072	150	-23	-113	-15768	-1396	-3572	-134	-172	84	-16176	2324	-1208	-55	-138	108	126	115	8
-11084	-2876	11148	-128	135	-186	-16476	1484	-2416	37	-201	222	-15916	1048	-3160	-26	-317	179	-10472	2644	13024	137	-101	-127	-15804	-1316	-3564	-276	-228	30	-16120	2444	-1248	-99	-170	123	125	115	8
-11072	-2848	10996	-132	135	-184	-16516	1436	-2424	3	-138	233	-15880	1124	-3048	-38	-310	229	-10376	2576	12988	133	-46	-104	-15828	-1392	-3424	-241	-240	57	-16160	2380	-1340	-148	-131	133	125	116	8
-11044	-2812	11128	-97	140	-176	-16424	1508	-2388	39	-151	214	-15948	1116	-3104	5	-299	195	-10372	2628	13000	125	-36	-100	-15844	-1380	-3576	-54	-263	105	-16304	2316	-1216	-171	-160	83	125	115	8
-11032	-2868	11040	-132	132	-170	-16452	1424	-2396	-26	-127	209	-15936	1148	-3040	-4	-328	202	-10376	2536	12896	129	-88	-74	-15800	-1360	-3548	-182	-262	101	-16160	2344	-1144	14	-190	117	125	115	8
-11048	-2852	11156	-99	131	-173	-16420	1448	-2396	0	-162	182	-15944	1052	-3036	-6	-322	141	-10472	2624	12944	114	-59	-126	-15752	-1348	-3616	-79	-270	93	-16192	2388	-1092	110	-261	112	125	115	8
-11044	-2908	11188	-106	145	-149	-16468	1468	-2264	76	-166	230	-16008	1024	-2964	-22	-306	105	-10428	2640	12920	101	-44	-141	-15756	-1352	-3520	-8	-247	55	-16164	2284	-1080	214	-340	144	125	115	8
-11036	-2916	11236	-79	119	-160	-16460	1536	-2336	9	-146	202	-16008	1068	-2912	28	-304	177	-10440	2528	12960	140	-49	-96	-15800	-1400	-3484	44	-241	80	-16176	2280	-984	287	-285	140	125	115	8
-11056	-2892	11136	-130	148	-188	-16412	1512	-2308	3	-142	204	-15892	1068	-2940	-7	-294	211	-10380	2568	12992	127	-14	-93	-15812	-1336	-3444	46	-229	66	-16216	2400	-940	252	-254	107	125	115	8
-11096	-2876	11116	-65	126	-172	-16448	1476	-2344	39	-145	171	-15940	1088	-3024	50	-309	182	-10460	2640	12996	100	-70	-120	-15868	-1336	-3448	-27	-202	75	-16216	2416	-948	231	-216	76	125	115	8
-11020	-2896	11224	-91	114	-152	-16460	1516	-2372	67	-134	211	-16036	1028	-2928	21	-308	206	-10436	2612	12880	90	-10	-129	-15804	-1400	-3324	-56	-218	37	-16228	2392	-892	136	-193	105	124	115	8
-11000	-2864	11156	-78	137	-164	-16476	1496	-2272	61	-149	174	-16028	1148	-3036	29	-272	194	-10424	2604	12920	112	-64	-137	-15788	-1280	-3460	-63	-165	9	-16144	2356	-872	38	-127	101	124	115	8
-11056	-2916	11304	-99	146	-165	-16452	1464	-2252	25	-140	207	-15988	1192	-2896	46	-237	198	-10380	2596	12972	85	-7	-115	-15868	-1340	-3508	-112	-137	-4	-16192	2376	-924	87	-123	87	124	115	8
-11032	-2896	11164	-104	122	-177	-16476	1480	-2252	30	-109	180	-15980	1196	-2860	1	-232	159	-10444	2640	12988	103	-42	-144	-15896	-1352	-3464	-125	-122	13	-16164	2332	-924	59	-102	38	124	115	8
-11016	-2828	11188	-112	138	-204	-16436	1428	-2236	45	-92	138	-16008	1076	-2864	-46	-246	161	-10460	2688	12920	133	-1	-98	-15768	-1292	-3472	-131	-106	-42	-16200	2436	-1036	74	-109	53	124	114	8
-11000	-2884	11172	-109	176	-178	-16468	1436	-2312	53	-90	158	-15996	1104	-2872	-35	-237	122	-10392	2644	12884	120	-64	-153	-15792	-1280	-3436	-130	-106	-38	-16152	2428	-896	93	-148	72	124	114	8
-11088	-2920	11212	-112	174	-171	-16440	1456	-2288	88	-60	178	-16000	1100	-2948	-36	-229	168	-10380	2604	13044	108	-1	-136	-15848	-1376	-3472	-86	-109	-76	-16260	2352	-972	122	-109	58	124	114	8
-10984	-2884	11152	-118	147	-187	-16452	1464	-2240	8	-73	172	-16008	1088	-2948	-32	-220	156	-10364	2592	13004	89	-42	-156	-15792	-1368	-3492	-25	-81	-39	-16236	2408	-980	123	-66	47	124	115	8
-10996	-2872	11252	-132	127	-185	-16492	1496	-2324	60	-59	165	-15972	1072	-2884	-14	-191	136	-10436	2580	12932	118	-75	-149	-15780	-1348	-3356	3	-86	-6	-16240	2368	-908	114	-76	100	124	115	8
-11068	-2784	11172	-142	130	-175	-16540	1496	-2212	62	-60	144	-15928	1104	-2984	-12	-222	133	-10392	2656	13004	105	3	-196	-15796	-1332	-3448	-10	-93	-50	-16164	2340	-932	169	-115	35	124	114	8
-11072	-2904	11168	-107	125	-138	-16512	1504	-2228	52	-69	131	-15956	1140	-2836	25	-200	171	-10408	2672	12892	102	-47	-160	-15844	-1340	-3236	0	-125	-45	-16260	2328	-1080	230	-104	56	124	114	8
-11088	-2840	11184	-67	138	-175	-16520	1492	-2228	82	-51	138	-15952	1080	-2908	65	-179	145	-10328	2648	12912	109	-34	-171	-15888	-1316	-3372	40	-88	-66	-16288	2364	-984	217	-75	43	124	114	8
-11040	-2884	11228	-124	136	-170	-16492	1428	-2324	93	-106	132	-16008	1152	-2844	48	-197	133	-10420	2632	12956	87	-92	-154	-15792	-1252	-3448	-1	-39	-57	-16212	2448	-920	193	-82	27	123	114	8
-11044	-2872	11216	-95	164	-181	-16496	1448	-2308	75	-26	154	-16000	1096	-2880	-5	-170	119	-10380	2616	13016	124	-44	-143	-15864	-1292	-3440	-34	-61	-54	-16176	2400	-940	156	-82	-18	124	115	8
-11056	-2892	11172	-68	132	-143	-16452	1492	-2268	123	-24	142	-15976	1112	-2992	-43	-205	117	-10400	2648	13056	91	-63	-115	-15808	-1332	-3464	-60	-59	-124	-16208	2380	-932	98	-32	-27	124	114	8
-11080	-2868	11256	-83	135	-177	-16436	1564	-2292	20	-14	113	-15928	1120	-2932	-42	-198	121	-10396	2628	13040	66	-23	-123	-15796	-1292	-3492	-50	-35	-108	-16176	2388	-1020	107	-62	21	123	115	8
-11052	-2968	11140	-76	104	-156	-16492	1532	-2100	91	-19	125	-15972	1116	-2932	-46	-152	90	-10368	2652	12988	120	-97	-128	-15784	-1312	-3404	-40	-51	-82	-16236	2336	-856	121	-34	9	124	114	8
-11028	-2888	11268	-110	146	-174	-16416	1556	-2308	70	-41	125	-15972	1088	-2908	-10	-138	60	-10460	2544	12960	96	-69	-133	-15820	-1360	-3456	-87	-36	-92	-16184	2340	-956	161	-66	12	123	114	8
-11048	-2900	11212	-113	156	-165	-16456	1440	-2180	23	-20	97	-15996	1120	-2940	42	-170	121	-10476	2588	12948	56	-71	-139	-15796	-1308	-3412	-10	-69	-93	-16224	2352	-936	118	-21	-5	124	114	8
-11108	-2828	11208	-110	121	-179	-16480	1472	-2312	69	-18	109	-16008	1064	-2876	51	-144	123	-10348	2624	12972	67	-57	-150	-15808	-1396	-3308	-28	-19	-103	-16204	2328	-892	145	-38	-18	124	114	8
-11048	-2928	11112	-91	144	-166	-16468	1524	-2268	86	-9	114	-16020	1084	-2868	58	-166	127	-10400	2632	13036	83	-29	-159	-15864	-1340	-3408	-14	-30	-156	-16236	2364	-852	167	-60	-2	124	114	8
-11064	-2884	11172	-107	141	-154	-16448	1444	-2332	64	-31	132	-15928	1064	-2840	81	-146	95	-10312	2624	13012	107	-57	-146	-15776	-1336	-3420	-87	5	-148	-16196	2328	-880	165	-62	-2	124	114	8
-11068	-2868	11216	-99	148	-146	-16504	1504	-2316	106	-4	102	-16008	1160	-2968	42	-156	107	-10396	2592	13024	78	-82	-129	-15844	-1304	-3500	50	-3	-100	-16200	2384	-1036	194	-20	12	124	115	8
-10968	-2836	11180	-122	117	-152	-16456	1476	-2356	120	18	47	-16024	1052	-2964	22	-142	127	-10420	2612	12868	131	-38	-191	-15828	-1296	-3296	-12	2	-133	-16160	2364	-948	206	-30	6	124	115	8
-11084	-2820	11296	-132	138	-143	-16460	1492	-2324	94	-1	95	-15968	1108	-2932	-5	-111	108	-10436	2604	12940	96	-48	-141	-15780	-1332	-3476	-49	7	-171	-16208	2312	-1064	233	-21	8	124	114	8
-11040	-2856	11180	-143	138	-169	-16536	1448	-2392	74	26	65	-16044	1116	-2872	-10	-114	103	-10376	2692	13040	76	-51	-181	-15896	-1348	-3396	44	-7	-149	-16216	2340	-980	210	-41	9	124	115	8
-10996	-2904	11140	-129	115	-158	-16484	1456	-2256	73	8	62	-15972	1068	-2872	23	-141	92	-10444	2572	12860	88	-55	-156	-15804	-1284	-3544	0	-7	-138	-16168	2296	-972	211	-8	-19	124	115	8
-11032	-2912	11212	-118	161	-197	-16524	1492	-2224	41	15	48	-15960	1060	-2928	39	-120	81	-10424	2648	12940	89	-52	-165	-15832	-1372	-3504	7	2	-161	-16216	2472	-1064	191	-2	-7	123	115	8
-11068	-2920	11292	-103	127	-164	-16496	1504	-2292	67	20	94	-16028	1072	-2996	43	-122	88	-10392	2584	12996	93	-56	-149	-15768	-1316	-3384	-60	-5	-171	-16264	2392	-976	177	-55	-15	124	114	8
-11052	-2820	11204	-116	138	-162	-16448	1444	-2360	82	6	78	-15988	1044	-2980	73	-119	66	-10408	2660	13088	92	-6	-165	-15876	-1360	-3464	-92	55	-154	-16196	2360	-1008	158	-22	-4	124	114	8
-11064	-2888	11216	-103	148	-164	-16464	1452	-2368	77	3	60	-15956	1096	-2912	74	-80	81	-10408	2592	13052	71	-56	-164	-15780	-1408	-3516	-2	4	-230	-16184	2348	-928	178	-42	-13	124	115	8
-11044	-2884	11172	-107	143	-155	-16508	1444	-2332	60	1	32	-16000	1104	-2912	29	-113	81	-10428	2636	12996	108	-48	-178	-15840	-1384	-3504	-29	-15	-118	-16224	2308	-988	263	-1	4	124	115	8
-11052	-2864	11164	-125	174	-169	-16408	1484	-2352	52	-10	72	-16024	1036	-2908	24	-125	93	-10404	2604	12992	97	-76	-165	-15764	-1488	-3492	3	-32	-113	-16184	2276	-1028	257	-30	-2	124	115	8
-11000	-2896	11116	-139	127	-198	-16496	1476	-2404	67	-13	41	-15960	1000	-2920	95	-104	104	-10412	2624	13016	89	-23	-173	-15852	-1412	-3476	-1	-65	-126	-16136	2324	-1028	331	4	-2	124	115	8
-11052	-2920	11196	-148	177	-188	-16464	1504	-2340	99	-56	79	-15920	1024	-2940	76	-97	108	-10352	2476	13044	96	-3	-152	-15816	-1464	-3488	156	-68	-84	-16208	2248	-1012	364	-17	-18	124	115	8
-11024	-2900	11184	-105	154	-198	-16436	1420	-2364	107	5	56	-15976	992	-2892	135	-34	114	-10348	2540	13008	93	-18	-178	-15772	-1344	-3456	122	-70	-119	-16148	2452	-912	313	-31	22	124	115	8
-11080	-2848	11264	-151	116	-166	-16504	1492	-2140	115	0	37	-15972	1008	-2892	186	-78	106	-10380	2584	12992	82	-71	-180	-15788	-1360	-3440	-4	-65	-125	-16164	2384	-808	236	1	23	124	115	8
-11060	-2884	11244	-106	118	-180	-16468	1424	-2312	135	-2	48	-15992	1052	-2848	164	-47	78	-10352	2620	13020	97	-10	-158	-15812	-1424	-3364	11	-33	-105	-16204	2428	-888	146	40	-14	124	114	8
-11040	-2920	11236	-107	136	-160	-16408	1348	-2380	152	12	55	-15980	956	-2920	118	-50	87	-10364	2552	12952	93	-14	-174	-15832	-1348	-3448	-1	-51	-122	-16232	2416	-820	164	79	-40	123	115	8
-11052	-2864	11212	-64	147	-162	-16464	1432	-2280	184	17	56	-16032	1032	-3052	96	-91	110	-10416	2580	12996	118	-71	-186	-15784	-1372	-3416	53	-12	-144	-16196	2228	-936	183	111	-57	123	114	8
-11104	-2928	11184	-105	120	-213	-16508	1352	-2344	147	18	67	-16028	1036	-2892	99	-45	92	-10384	2652	13076	108	-30	-165	-15816	-1472	-3404	27	4	-144	-16212	2252	-916	209	49	-40	123	114	8
-11032	-2864	11236	-117	109	-173	-16436	1480	-2388	96	-9	57	-16004	1052	-2996	37	-44	108	-10392	2540	12956	81	40	-179	-15820	-1456	-3464	32	39	-133	-16204	2168	-1032	276	50	-31	123	114	8
-11060	-2924	11192	-117	150	-138	-16492	1392	-2364	110	33	69	-15992	988	-2956	29	-72	85	-10392	2592	12996	103	42	-168	-15780	-1416	-3556	5	13	-155	-16268	2292	-976	275	43	-19	124	114	8
-11104	-2932	11152	-75	134	-180	-16464	1356	-2176	102	28	68	-15972	980	-2896	53	-54	78	-10348	2580	13020	99	34	-197	-15796	-1328	-3520	47	18	-157	-16212	2356	-1044	305	27	-14	124	115	8
-11008	-2916	11276	-100	123	-132	-16488	1380	-2336	130	30	76	-15992	944	-2900	106	-59	124	-10388	2652	12816	90	-9	-146	-15768	-1444	-3516	100	3	-157	-16156	2308	-1076	298	72	-6	124	114	8
-11048	-2896	11180	-157	155	-150	-16448	1336	-2400	147	14	85	-16024	924	-2892	129	-55	140	-10356	2588	13032	111	4	-171	-15820	-1392	-3460	107	-29	-145	-16232	2284	-1044	240	-2	-15	124	114	8
-10984	-2876	11224	-71	124	-170	-16440	1336	-2216	142	35	117	-15916	932	-2872	190	-70	125	-10448	2572	13068	137	-33	-189	-15764	-1468	-3380	66	-25	-118	-16156	2244	-1088	211	10	-37	124	115	8
-11048	-2872	11184	-123	119	-157	-16428	1396	-2364	205	87	47	-15960	984	-2928	200	-56	109	-10404	2556	13008	87	-9	-169	-15780	-1420	-3460	102	-6	-132	-16160	2232	-1072	296	-10	-17	124	115	8
-11040	-2892	11316	-77	110	-159	-16452	1392	-2388	244	23	84	-16040	1044	-2960	256	-94	118	-10428	2592	12920	115	6	-176	-15816	-1412	-3548	138	-4	-150	-16264	2320	-1020	355	-52	-19	124	114	8
-11064	-2908	11228	-90	99	-161	-16444	1408	-2252	190	25	76	-15956	1028	-2992	203	-76	116	-10384	2520	12964	77	-4	-160	-15832	-1368	-3588	122	-40	-118	-16228	2332	-1048	404	-30	-16	124	114	8
-11036	-2844	11164	-126	126	-141	-16472	1412	-2356	129	34	28	-15948	1116	-2984	132	-104	117	-10404	2700	13048	117	-7	-171	-15812	-1396	-3424	-70	-30	-168	-16164	2324	-956	362	-52	-32	124	115	8
-11032	-2892	11172	-92	112	-148	-16468	1456	-2436	118	41	65	-15940	1008	-3140	70	-97	79	-10424	2596	12968	94	-3	-170	-15728	-1472	-3456	154	-18	-187	-16188	2260	-1052	276	-40	-81	124	114	8
-11060	-2876	11276	-107	138	-172	-16480	1392	-2280	128	-32	39	-15952	1016	-3032	68	-82	71	-10360	2692	13016	49	-7	-202	-15748	-1428	-3548	19	-27	-164	-16196	2240	-1084	272	-41	-14	124	115	8
-11056	-2892	11224	-122	127	-157	-16404	1492	-2368	88	-51	20	-15908	1012	-3012	50	-84	60	-10396	2620	12932	102	1	-155	-15784	-1504	-3468	77	-52	-173	-16208	2300	-996	228	-16	-17	124	115	8
-11060	-2912	11236	-120	163	-176	-16504	1344	-2336	68	-37	58	-15932	1060	-3100	93	-75	105	-10360	2608	12936	91	-10	-168	-15840	-1524	-3456	69	-72	-115	-16172	2308	-1160	152	-9	-35	124	115	8
-11040	-2872	11132	-99	106	-191	-16536	1396	-2256	52	-36	30	-15976	976	-2916	165	-73	77	-10416	2576	13072	77	16	-165	-15860	-1528	-3412	57	-47	-126	-16212	2268	-988	264	9	8	124	115	8
-11032	-2828	11192	-136	138	-179	-16516	1360	-2320	62	-53	0	-16012	888	-3016	226	-67	90	-10400	2576	13008	76	-20	-183	-15776	-1488	-3296	66	-55	-153	-16248	2024	-988	179	-6	-61	124	115	8
-11072	-2920	11248	-106	140	-171	-16460	1344	-2300	84	-85	32	-16004	940	-2916	196	-59	118	-10368	2564	12972	107	-6	-170	-15800	-1456	-3564	116	-22	-123	-16212	2276	-800	296	-61	-6	124	115	8
-11040	-2912	11184	-112	94	-201	-16436	1284	-2232	123	-18	33	-15992	832	-2796	229	-78	151	-10392	2640	12976	95	-42	-185	-15840	-1432	-3380	140	2	-179	-16244	2264	-932	350	-17	16	124	115	8
-11012	-2928	11176	-119	99	-148	-16448	1272	-2248	239	-12	53	-16056	852	-2812	259	-105	102	-10420	2608	13040	78	-42	-189	-15752	-1424	-3348	138	-2	-162	-16216	2192	-864	384	-71	-38	124	114	8
-10992	-2924	11344	-83	59	-164	-16524	1276	-2200	245	70	59	-16056	908	-2892	285	-80	119	-10360	2576	13012	73	-20	-153	-15744	-1384	-3544	157	-12	-206	-16196	2232	-948	485	-117	-15	124	115	8
-11048	-2928	11068	-89	109	-128	-16488	1336	-2452	277	75	57	-16012	892	-2840	266	-84	98	-10384	2564	12980	77	-23	-143	-15856	-1436	-3492	207	29	-190	-16196	2288	-884	573	-137	-13	124	115	8
-11056	-2848	11192	-92	133	-122	-16460	1364	-2584	311	33	59	-16064	992	-3036	200	-105	142	-10364	2492	13024	91	-66	-162	-15812	-1460	-3536	244	70	-206	-16284	2312	-1032	617	-143	-32	124	115	8
-11104	-2884	11160	-95	117	-159	-16452	1584	-2328	85	66	30	-15880	984	-3068	225	-48	145	-10352	2552	13020	88	-88	-182	-15760	-1464	-3488	139	47	-191	-16224	2228	-1028	626	-183	-45	124	115	8
-11056	-2852	11104	-96	112	-167	-16460	1184	-2348	138	27	14	-15912	976	-3064	256	-81	120	-10416	2500	13048	129	-79	-145	-15764	-1600	-3460	234	14	-148	-16220	2288	-1104	637	-146	-9	124	115	8
-11004	-2872	11208	-121	99	-185	-16456	1376	-2324	272	22	49	-15944	1044	-2940	334	-118	125	-10364	2516	13088	150	21	-162	-15772	-1644	-3508	246	2	-212	-16204	2136	-1192	510	-133	-56	124	115	8
-11072	-2856	11296	-79	133	-203	-16444	1348	-2416	178	-11	48	-16024	932	-3008	291	-101	119	-10436	2532	13000	108	9	-173	-15860	-1512	-3636	106	-23	-176	-16180	2240	-1064	483	-136	-37	124	115	8
-11008	-2932	11080	-84	117	-157	-16412	1380	-2388	140	-17	50	-15960	924	-3024	261	-96	122	-10388	2516	13052	99	-28	-159	-15728	-1588	-3584	117	-41	-142	-16180	2248	-1108	410	-70	-4	124	115	8
-11028	-2956	11236	-106	104	-188	-16440	1348	-2408	141	-17	31	-15900	948	-2940	230	-104	122	-10420	2544	12956	111	-9	-152	-15736	-1512	-3532	175	-106	-108	-16188	2212	-1080	361	-44	-46	124	115	8
-11052	-2868	11196	-116	131	-170	-16420	1360	-2392	78	-16	36	-15948	1036	-3124	226	-102	110	-10416	2616	12940	88	-33	-176	-15828	-1544	-3516	110	-129	-103	-16240	2196	-992	304	-42	-47	124	115	8
-11024	-2908	11180	-149	126	-187	-16520	1224	-2280	159	-54	40	-15940	892	-2996	240	-131	121	-10364	2600	12948	72	22	-163	-15840	-1576	-3500	123	-108	-123	-16232	2228	-1040	276	-95	-62	124	115	8
-11040	-2880	11292	-156	127	-169	-16480	1420	-2368	178	-66	23	-15940	904	-2960	191	-137	138	-10360	2580	12988	108	-10	-141	-15788	-1584	-3544	156	-153	-122	-16160	2212	-912	333	-102	1	124	115	8
-11064	-2884	11088	-132	104	-196	-16448	1264	-2392	143	-18	26	-15860	892	-3028	201	-95	106	-10392	2560	12996	99	28	-175	-15772	-1348	-3444	-58	-81	-153	-16320	2196	-908	273	-127	-3	124	115	8
-11000	-2908	11204	-125	138	-159	-16492	1356	-2392	217	-81	4	-15980	940	-2968	255	-123	105	-10376	2656	13044	108	17	-172	-15860	-1716	-3304	47	-143	-176	-16184	2036	-1016	403	-218	-41	125	115	8
-11024	-2952	11200	-57	96	-181	-16492	1348	-2332	212	-75	25	-15916	964	-3016	317	-66	163	-10384	2604	12928	120	-43	-182	-15756	-1616	-3564	330	-89	-122	-16208	2168	-1048	560	-151	-25	124	115	8
-11048	-2888	11236	-119	142	-222	-16448	1336	-2316	185	-98	-34	-15908	1004	-2964	426	-92	153	-10360	2560	13000	120	-24	-131	-15752	-1456	-3524	251	-113	-110	-16228	2280	-976	482	-121	-73	124	115	8
-11064	-2856	11200	-108	80	-188	-16508	1272	-2408	150	-113	-20	-15988	908	-3084	362	-95	125	-10408	2588	12876	81	-16	-153	-15772	-1456	-3468	24	-142	-128	-16212	2240	-828	398	-128	-68	124	115	8
-11048	-2888	11208	-87	103	-172	-16448	1268	-2316	192	-91	31	-15952	928	-3012	362	-108	113	-10384	2544	13056	75	-48	-158	-15820	-1584	-3460	78	-91	-92	-16284	2220	-860	298	-109	-72	124	115	8
-11004	-2928	11176	-128	103	-167	-16484	1284	-2344	221	-74	2	-15964	916	-3040	320	-96	72	-10320	2576	12988	105	-23	-165	-15780	-1492	-3528	134	-132	-158	-16240	2212	-880	284	-110	-46	124	115	8
-11060	-2956	11252	-119	143	-171	-16532	1200	-2276	184	-32	13	-15956	860	-3032	177	-113	79	-10372	2564	13052	116	12	-181	-15816	-1496	-3472	83	-70	-138	-16184	2156	-872	303	-40	-23	124	115	8
-11056	-2892	11168	-114	131	-188	-16508	1188	-2340	157	-112	22	-15996	912	-2976	97	-119	65	-10376	2600	13012	87	-21	-190	-15804	-1580	-3444	19	-86	-189	-16236	2080	-940	251	-59	-68	124	115	8
-11064	-2856	11144	-128	138	-177	-16404	1216	-2268	124	-68	28	-15960	904	-2992	51	-154	62	-10392	2580	12916	90	8	-196	-15860	-1664	-3508	51	-88	-172	-16204	2116	-928	235	-89	-57	124	115	8
-11008	-2872	11132	-78	102	-205	-16452	1240	-2344	92	-72	29	-15976	840	-2996	36	-123	118	-10412	2560	13056	77	-28	-181	-15780	-1616	-3512	99	-85	-103	-16216	2124	-984	295	-47	-64	125	115	8
-11008	-2868	11176	-146	138	-203	-16512	1284	-2300	56	-56	15	-15956	960	-3000	21	-123	83	-10360	2584	12952	114	-11	-195	-15840	-1628	-3568	123	-88	-121	-16232	2116	-868	322	-46	-51	124	115	8
-11016	-2892	11216	-141	183	-183	-16524	1216	-2372	36	-69	39	-15908	904	-3120	107	-94	87	-10364	2548	12960	122	43	-192	-15820	-1592	-3416	125	-129	-105	-16228	2148	-1040	319	-9	-30	124	115	8
-11024	-2920	11264	-136	117	-208	-16476	1188	-2428	114	-82	44	-16012	864	-3060	123	-120	66	-10372	2524	12940	118	-20	-168	-15812	-1568	-3500	131	-98	-94	-16208	2120	-916	317	-26	2	125	115	8
-11048	-2892	11232	-152	176	-173	-16460	1300	-2320	52	-60	40	-15940	880	-3048	156	-91	87	-10412	2544	13100	114	0	-169	-15784	-1584	-3548	143	-112	-117	-16264	2108	-956	320	-44	-6	125	115	8
-11016	-2896	11060	-145	145	-164	-16480	1180	-2312	79	-121	34	-15940	876	-2984	170	-105	104	-10368	2576	12988	113	-50	-149	-15784	-1580	-3424	138	-135	-96	-16244	2124	-976	317	-81	-5	125	115	8
-10996	-2980	11164	-141	112	-176	-16504	1188	-2296	94	-158	12	-15976	776	-3064	196	-102	147	-10420	2512	12916	102	3	-164	-15816	-1616	-3620	130	-158	-105	-16248	2168	-952	341	-76	-13	126	115	8
-11056	-2928	11232	-131	134	-186	-16468	1184	-2236	62	-137	65	-15964	780	-2988	190	-90	158	-10384	2636	13040	75	-42	-132	-15764	-1548	-3440	139	-129	-101	-16204	2104	-940	305	-78	-16	126	115	8
-11096	-2908	11320	-120	121	-193	-16460	1136	-2236	36	-91	49	-15912	796	-2964	126	-112	130	-10384	2580	13008	92	-21	-160	-15776	-1588	-3436	112	-128	-143	-16268	2124	-868	281	-96	-20	126	115	8
-11044	-2952	11188	-125	126	-167	-16456	1176	-2184	100	-131	43	-16000	880	-3056	126	-100	113	-10436	2500	13096	78	-19	-171	-15792	-1564	-3392	73	-90	-83	-16216	2076	-820	315	-89	-18	126	116	8
-11092	-2900	11160	-109	135	-159	-16488	1188	-2244	76	-75	71	-15992	848	-2972	177	-111	107	-10376	2564	13076	69	17	-175	-15812	-1532	-3384	121	-82	-81	-16260	2076	-844	306	-83	18	126	116	8
-11008	-2888	11292	-104	146	-181	-16448	1148	-2168	118	-61	69	-15972	824	-2920	94	-110	138	-10400	2576	13044	108	-40	-150	-15748	-1564	-3420	26	-53	-118	-16208	2088	-820	291	-93	28	126	115	8
-11048	-2968	11156	-102	160	-184	-16476	1208	-2300	130	-51	87	-15984	856	-2916	91	-131	114	-10320	2536	13004	90	-46	-178	-15832	-1600	-3360	89	-68	-122	-16192	2084	-784	304	-75	-21	126	116	8
-11068	-2884	11356	-94	116	-176	-16536	1228	-2372	88	-26	71	-15972	856	-2956	74	-141	137	-10348	2596	12936	67	-30	-164	-15840	-1596	-3464	22	-27	-86	-16288	2140	-868	277	-86	1	126	116	8
-11056	-2912	11180	-107	126	-174	-16460	1104	-2332	69	-8	56	-15980	820	-3020	60	-136	117	-10336	2588	12968	73	2	-117	-15808	-1648	-3284	120	-57	-83	-16292	2124	-844	258	-96	34	126	116	8
-10980	-2856	11220	-110	144	-163	-16516	1172	-2312	104	-53	102	-15968	756	-3004	129	-137	144	-10460	2596	13060	96	-37	-189	-15812	-1644	-3520	54	-26	-161	-16232	2028	-896	336	-92	18	126	116	8
-11024	-2896	11208	-100	110	-165	-16456	1144	-2172	88	-24	119	-16040	800	-3020	107	-141	131	-10452	2580	12956	104	-29	-170	-15804	-1640	-3400	47	-43	-64	-16236	2036	-888	365	-59	50	126	116	8
-11052	-2904	11304	-92	97	-169	-16528	1148	-2264	123	-36	93	-15888	836	-3016	85	-165	143	-10408	2576	12960	93	-55	-180	-15808	-1648	-3464	70	-10	-69	-16276	1900	-1040	299	-89	38	126	116	8
-10988	-2928	11196	-91	81	-179	-16472	1152	-2200	134	-2	114	-15972	844	-3076	110	-142	131	-10376	2536	12904	89	-22	-192	-15828	-1668	-3420	68	-53	-140	-16252	2064	-848	348	-116	19	126	116	8
-11084	-2968	11180	-50	113	-137	-16448	1100	-2188	107	-2	87	-16012	828	-3020	106	-132	143	-10392	2600	12968	96	-75	-144	-15764	-1624	-3284	68	-45	-60	-16292	2140	-888	304	-121	49	126	116	8
-11012	-2944	11224	-115	123	-188	-16512	1176	-2316	133	-13	136	-15992	772	-3124	96	-159	156	-10400	2568	12980	114	-14	-139	-15760	-1680	-3492	-4	-39	-59	-16268	2108	-744	304	-111	53	126	116	8
-10988	-2864	11276	-102	134	-128	-16520	1180	-2208	114	-19	134	-15980	828	-3028	79	-166	163	-10360	2548	13084	109	-14	-163	-15768	-1624	-3452	99	-21	-78	-16232	2132	-800	263	-109	64	126	116	8
-11112	-2884	11180	-97	101	-153	-16460	1216	-2248	112	11	135	-15988	812	-2992	102	-148	157	-10376	2556	12996	122	7	-147	-15732	-1564	-3308	15	-63	-78	-16244	2100	-868	235	-103	74	126	116	8
-11008	-2924	11212	-108	76	-172	-16488	1172	-2328	73	-32	170	-15936	848	-3032	86	-177	173	-10360	2544	12892	77	27	-154	-15800	-1620	-3348	-1	-9	-92	-16268	2104	-900	227	-76	43	126	115	8
-10972	-2932	11236	-123	100	-144	-16448	1172	-2352	92	-12	126	-15988	772	-3008	46	-191	196	-10404	2616	13052	103	-38	-149	-15732	-1600	-3320	41	-54	-20	-16236	2096	-872	244	-52	53	126	116	8
-11052	-2980	11304	-100	105	-182	-16556	1208	-2252	114	-24	160	-15948	768	-3064	76	-167	171	-10332	2572	13048	109	-51	-110	-15812	-1612	-3428	13	-41	-83	-16280	2064	-944	238	-62	38	126	116	8
-10980	-2940	11184	-64	124	-152	-16488	1192	-2216	96	-50	180	-15992	820	-3084	26	-159	181	-10428	2632	13020	107	-45	-145	-15772	-1624	-3532	-16	-44	-62	-16268	2136	-912	183	-25	48	126	116	8
-11032	-2916	11160	-120	138	-154	-16508	1276	-2208	62	6	185	-15960	856	-3152	-12	-196	178	-10348	2616	12988	101	-18	-173	-15816	-1596	-3364	-14	-77	-58	-16228	2128	-860	227	-25	49	126	115	8
-11056	-2888	11180	-106	151	-161	-16480	1168	-2292	45	-14	156	-16012	796	-3056	-4	-166	159	-10376	2552	13044	123	-33	-142	-15808	-1664	-3452	60	-68	-59	-16252	2116	-996	248	-42	52	126	115	8
-10984	-2916	11228	-98	144	-164	-16504	1180	-2300	46	-36	164	-15952	860	-2920	33	-117	143	-10380	2560	12972	132	-31	-136	-15764	-1644	-3420	57	-59	-44	-16184	2100	-792	148	-37	103	126	115	8
-11020	-2840	11224	-114	138	-145	-16480	1260	-2236	80	-95	155	-15940	904	-2964	40	-147	158	-10376	2536	12996	133	-6	-158	-15768	-1576	-3428	-13	-97	-58	-16192	2116	-772	99	-11	99	125	116	8
-11032	-2888	11244	-112	107	-169	-16500	1188	-2372	-6	-47	142	-16044	824	-3076	21	-157	175	-10440	2644	13000	106	-4	-192	-15808	-1616	-3336	-57	-69	-28	-16220	2064	-832	81	-1	34	125	115	8
-11032	-2956	11212	-123	120	-180	-16488	1148	-2184	26	-55	155	-16012	820	-2980	12	-184	166	-10424	2612	13048	124	-51	-170	-15708	-1644	-3352	-14	-48	-40	-16276	2136	-732	112	-7	65	125	116	8
-11012	-2892	11112	-75	130	-145	-16476	1152	-2264	40	-51	151	-16020	828	-2956	25	-168	184	-10360	2588	13012	119	33	-136	-15792	-1572	-3416	26	-5	-11	-16264	2020	-968	127	-21	67	126	116	8
-11076	-2924	11300	-109	106	-155	-16528	1148	-2180	57	-39	155	-16000	836	-3032	7	-140	189	-10360	2544	12984	97	-24	-137	-15788	-1580	-3300	14	-2	-49	-16240	1996	-1004	169	-19	73	125	115	8
-11032	-2940	11256	-98	125	-165	-16452	1172	-2176	30	-1	155	-15980	820	-2992	-20	-153	193	-10360	2568	12956	112	18	-104	-15844	-1652	-3440	12	-18	-53	-16276	2104	-1068	251	-3	78	125	115	8
-11068	-2912	11244	-86	123	-159	-16500	1136	-2360	42	-5	172	-16020	872	-2852	-7	-178	177	-10368	2572	12968	85	37	-172	-15776	-1648	-3380	15	-35	-66	-16276	2068	-876	267	-37	58	125	115	8
-10980	-2856	11160	-84	130	-115	-16472	1192	-2232	32	-38	178	-15956	808	-3016	-44	-180	233	-10400	2556	12960	117	-24	-160	-15760	-1576	-3572	29	-41	-16	-16228	2148	-876	239	-16	86	125	115	8
-11016	-2888	11224	-116	145	-166	-16468	1152	-2416	38	-29	175	-15960	820	-2984	-11	-132	204	-10336	2556	13092	149	0	-147	-15832	-1668	-3384	17	-85	1	-16272	2104	-872	195	-25	70	125	115	8
-11024	-2908	11184	-95	148	-142	-16508	1196	-2204	55	-15	168	-15984	780	-2932	2	-147	204	-10416	2604	13084	112	10	-190	-15840	-1628	-3384	-5	-68	-15	-16260	2128	-908	142	-57	59	125	115	8
-11072	-2940	11076	-119	137	-152	-16472	1192	-2384	44	-37	205	-15908	792	-3100	23	-145	198	-10420	2616	12996	100	1	-148	-15752	-1572	-3348	-65	-13	-36	-16264	2092	-820	106	-39	82	125	115	8
-11016	-2956	11220	-105	92	-111	-16476	1188	-2344	49	-49	204	-15992	852	-2964	19	-173	188	-10384	2548	13044	149	-53	-152	-15780	-1612	-3384	-18	-26	-9	-16208	2024	-860	123	-23	103	125	115	8
-10996	-2888	11292	-95	114	-155	-16500	1172	-2324	39	-64	216	-15988	868	-3028	24	-164	217	-10396	2600	13024	144	-67	-153	-15764	-1520	-3416	19	-87	-8	-16248	2036	-908	131	-69	103	125	115	8
-10964	-2916	11212	-91	122	-178	-16492	1228	-2228	54	-5	229	-15964	868	-2940	29	-162	200	-10400	2520	12928	105	-27	-156	-15744	-1552	-3360	-3	-67	-15	-16292	2120	-912	131	-50	138	125	115	8
-11076	-2888	11216	-78	112	-133	-16472	1108	-2244	36	6	227	-15992	868	-3112	19	-165	207	-10384	2544	13008	137	-18	-121	-15800	-1564	-3428	-16	-47	-9	-16212	2164	-788	155	-55	104	125	115	8
-11016	-2916	11268	-88	142	-136	-16512	1224	-2336	68	-68	214	-15984	820	-2940	-17	-200	251	-10384	2576	12980	153	-28	-130	-15768	-1644	-3436	-38	-60	5	-16312	2128	-920	147	-50	99	125	115	8
-11040	-2976	11248	-110	161	-124	-16420	1168	-2284	21	-58	197	-16028	872	-2912	-19	-212	239	-10432	2552	13080	108	-13	-152	-15748	-1576	-3380	-1	-27	11	-16256	2140	-980	166	-43	79	125	115	8
-10976	-2952	11200	-62	111	-130	-16448	1156	-2324	31	5	230	-15972	896	-2932	-36	-203	197	-10344	2588	13168	125	-3	-148	-15796	-1588	-3372	-24	-84	14	-16252	2180	-960	186	-68	87	125	115	8
-11028	-2880	11216	-80	108	-162	-16476	1192	-2232	10	-20	245	-15980	872	-2988	-1	-180	213	-10324	2576	12996	131	-23	-131	-15764	-1568	-3400	-7	-36	40	-16244	2120	-848	110	-48	128	125	115	8
-11016	-2928	11240	-74	113	-125	-16476	1204	-2308	76	14	250	-15952	868	-2952	-32	-198	207	-10388	2540	12988	134	-32	-155	-15744	-1652	-3440	-60	-93	16	-16276	2180	-880	92	-71	123	125	115	8
-10936	-2948	11220	-61	112	-123	-16540	1272	-2292	66	-37	221	-15976	924	-2924	-62	-215	237	-10376	2596	12892	136	13	-146	-15808	-1580	-3280	-53	-78	14	-16268	2132	-892	102	-92	130	125	115	8
-11020	-2904	11204	-88	151	-138	-16512	1256	-2320	54	-30	214	-15936	940	-3008	-15	-199	211	-10420	2548	12992	124	-18	-130	-15840	-1544	-3300	-98	-87	31	-16216	2220	-908	40	-105	116	125	115	8
-10988	-2868	11192	-103	120	-129	-16516	1216	-2392	57	-5	238	-15976	880	-2940	-29	-200	196	-10428	2540	13020	113	-60	-129	-15796	-1524	-3284	-163	-89	-25	-16240	2300	-812	77	-115	81	125	115	8
-11016	-2900	11096	-47	149	-145	-16456	1232	-2312	79	-57	242	-15968	908	-2960	22	-187	219	-10392	2540	12980	87	-72	-156	-15820	-1528	-3428	-104	-88	3	-16252	2164	-936	82	-145	131	125	115	8
-11032	-2900	11216	-120	140	-158	-16500	1272	-2296	44	-22	186	-15948	872	-3020	17	-214	209	-10448	2572	12952	104	-56	-178	-15784	-1460	-3392	-180	-60	-22	-16276	2144	-740	92	-120	126	125	115	8
-11028	-2912	11240	-82	150	-158	-16516	1272	-2304	31	-51	235	-15940	936	-2984	24	-184	163	-10480	2536	12976	69	-45	-135	-15820	-1544	-3408	-81	-49	-44	-16220	2168	-704	118	-122	133	124	115	8
-10992	-2868	11260	-73	153	-131	-16500	1284	-2256	28	-52	237	-15912	896	-2972	-8	-208	184	-10348	2632	13032	101	-50	-151	-15788	-1556	-3464	-157	-19	-10	-16248	2048	-740	124	-87	90	124	115	8
-11044	-2892	11232	-129	157	-175	-16444	1176	-2272	-37	-20	206	-16012	876	-2836	21	-194	207	-10380	2580	13024	74	-108	-181	-15784	-1576	-3328	-41	-53	-9	-16284	2220	-828	120	-60	99	124	115	8
-11036	-2856	11168	-63	137	-118	-16476	1244	-2296	93	-80	239	-15960	968	-2912	-35	-196	182	-10336	2544	12992	100	-66	-121	-15812	-1580	-3488	-62	-43	-8	-16212	2136	-872	137	-73	131	124	115	8
-11028	-2920	11256	-63	157	-169	-16480	1228	-2296	22	-57	228	-15964	976	-2932	-41	-195	196	-10408	2516	12932	93	5	-157	-15788	-1500	-3540	-30	-51	-34	-16316	2192	-964	133	-40	128	124	115	8
-11048	-2880	11260	-61	140	-142	-16420	1228	-2292	39	-23	206	-15988	928	-2900	-56	-226	193	-10408	2552	13052	75	1	-122	-15756	-1580	-3504	-20	-73	-9	-16196	2152	-824	110	-42	117	124	115	8
-11008	-2924	11232	-124	142	-178	-16456	1248	-2304	29	-23	210	-15944	872	-2900	-67	-196	200	-10420	2596	12968	125	-56	-129	-15804	-1452	-3416	-20	-71	9	-16240	2256	-728	96	-115	104	124	115	8
-11024	-2904	11208	-75	115	-134	-16412	1284	-2328	16	-13	215	-16004	956	-2896	-95	-197	140	-10368	2552	13064	95	-58	-143	-15808	-1484	-3440	-59	-55	-42	-16268	2268	-768	121	-109	90	124	115	8
-11124	-2844	11232	-133	158	-158	-16500	1336	-2252	-45	-30	175	-15928	896	-2964	-64	-216	177	-10384	2592	12948	121	-24	-127	-15832	-1524	-3408	-115	-13	-5	-16212	2124	-724	75	-104	100	125	115	8
-11008	-2840	11220	-107	167	-140	-16472	1332	-2344	16	-49	171	-16012	952	-2904	-92	-203	178	-10364	2576	12956	105	-32	-176	-15884	-1516	-3452	-119	-41	-85	-16236	2172	-696	125	-123	76	125	115	8
-11004	-2892	11208	-101	143	-167	-16460	1272	-2360	-17	-36	214	-15908	884	-2972	-80	-223	178	-10376	2532	12952	141	-29	-152	-15788	-1544	-3444	-127	-78	-46	-16148	2228	-788	139	-119	107	125	115	8
-11012	-2924	11292	-117	170	-167	-16500	1300	-2216	14	-47	193	-15924	992	-2864	-36	-206	205	-10432	2568	13124	98	-13	-153	-15756	-1512	-3420	-136	-19	-72	-16256	2112	-864	251	-139	142	125	115	8
-10976	-2828	11240	-100	162	-139	-16476	1296	-2264	24	-66	195	-16012	956	-2876	-1	-174	173	-10420	2604	12976	87	-32	-146	-15776	-1612	-3436	-61	-72	-63	-16324	2144	-824	206	-186	129	125	115	8
-10988	-2936	11144	-102	168	-167	-16420	1328	-2324	43	-34	163	-16000	944	-2888	54	-172	180	-10396	2548	12968	104	-52	-131	-15820	-1476	-3388	-44	-63	0	-16268	2252	-692	219	-98	114	125	115	8
-11012	-2844	11284	-107	125	-184	-16444	1240	-2236	78	-63	204	-15984	972	-2856	-33	-169	155	-10364	2628	13088	83	-7	-124	-15800	-1408	-3324	-60	-51	-63	-16288	2300	-740	224	-64	66	125	115	8
-10988	-2856	11168	-71	135	-185	-16488	1276	-2276	73	-46	205	-16000	928	-2880	-10	-167	160	-10312	2588	12996	116	-77	-165	-15756	-1552	-3372	-19	-30	-25	-16188	2180	-748	84	-46	70	125	115	8
-10988	-2860	11252	-97	154	-154	-16432	1332	-2308	52	-44	163	-16012	900	-2852	1	-155	195	-10416	2560	13008	96	-55	-169	-15792	-1544	-3416	-149	-15	-55	-16252	2132	-640	25	22	75	125	115	8
-10976	-2888	11344	-101	113	-165	-16472	1264	-2212	18	-68	197	-15932	884	-2912	-22	-151	194	-10388	2576	12980	86	-59	-173	-15836	-1528	-3408	-124	5	-72	-16240	2180	-712	-28	-21	105	125	115	8
-11000	-2884	11128	-105	158	-179	-16500	1228	-2208	-10	-26	153	-16028	896	-2896	-78	-184	172	-10312	2548	13028	111	9	-144	-15808	-1508	-3412	-120	-8	-55	-16288	2160	-712	-28	37	109	125	115	8
-11036	-2904	11292	-97	144	-184	-16492	1208	-2268	-20	-45	207	-15976	948	-2912	-83	-138	162	-10412	2560	13004	97	-53	-132	-15840	-1536	-3352	-65	-9	-44	-16172	2144	-776	49	73	101	125	115	8
-11016	-2924	11232	-119	146	-153	-16464	1292	-2300	-24	5	170	-15996	956	-2812	-119	-173	192	-10348	2528	12964	99	-49	-164	-15780	-1480	-3432	-80	-10	-58	-16144	2232	-832	48	63	57	125	115	8
-11000	-2900	11252	-123	144	-176	-16508	1288	-2212	6	-23	204	-16044	916	-2856	-98	-147	173	-10336	2520	12992	140	-42	-155	-15856	-1540	-3480	-6	-37	-43	-16244	2252	-764	-19	56	104	124	115	8
-11048	-2932	11136	-117	180	-135	-16524	1332	-2256	0	2	187	-16036	912	-2924	-96	-171	137	-10372	2560	12916	101	-68	-131	-15804	-1544	-3256	-64	-17	-8	-16260	2212	-744	-34	43	81	124	115	8
-10928	-2932	11240	-91	138	-169	-16484	1324	-2208	-25	4	191	-16020	912	-2916	-71	-193	171	-10344	2564	12908	106	-48	-168	-15768	-1488	-3432	-94	-24	-74	-16276	2196	-700	8	23	72	124	115	8
-11032	-2924	11140	-131	142	-158	-16480	1256	-2204	-11	-37	206	-15980	952	-2860	-80	-175	162	-10436	2624	13028	95	-26	-170	-15816	-1508	-3448	-72	-26	-23	-16248	2232	-764	28	2	67	124	115	8
-11016	-2856	11176	-66	142	-162	-16488	1312	-2276	1	1	242	-15952	1000	-2808	-35	-154	161	-10376	2592	12960	107	-58	-174	-15824	-1480	-3496	-3	-43	-63	-16316	2304	-744	17	11	84	124	115	8
-11052	-2892	11388	-72	156	-138	-16500	1268	-2212	-9	-16	199	-15964	1020	-2908	-31	-197	161	-10368	2556	12992	97	-22	-135	-15836	-1520	-3468	-22	-51	7	-16252	2292	-720	11	-3	67	124	115	8
-11000	-2932	11228	-106	130	-151	-16488	1340	-2120	18	47	197	-15980	1000	-2772	-107	-180	139	-10424	2640	13036	103	-6	-126	-15796	-1488	-3500	-44	-91	-46	-16200	2232	-708	56	6	66	124	115	8
-11016	-2868	11384	-73	132	-168	-16440	1436	-2316	35	15	178	-15952	1064	-2892	-138	-191	130	-10368	2532	13056	120	-57	-186	-15844	-1516	-3384	-21	-54	-34	-16220	2224	-724	92	-35	58	124	115	8
-11000	-2968	11184	-93	161	-138	-16456	1308	-2252	20	30	145	-16000	940	-2996	-50	-129	91	-10392	2644	13044	72	-28	-144	-15828	-1484	-3376	-6	-16	-57	-16228	2188	-708	119	-11	41	125	115	8
-11004	-2868	11240	-129	141	-156	-16480	1384	-2244	63	12	174	-15968	1036	-3024	-43	-138	163	-10356	2600	13020	95	-58	-185	-15768	-1496	-3332	43	-71	-65	-16264	2284	-720	119	-15	64	125	115	8
-11084	-2908	11300	-107	130	-144	-16508	1280	-2308	44	10	172	-16008	936	-2768	-1	-149	158	-10352	2620	12988	103	-53	-166	-15772	-1468	-3484	-40	-42	-50	-16188	2236	-800	89	18	39	124	115	8
-11044	-2904	11224	-76	166	-185	-16432	1352	-2308	68	-21	149	-15980	972	-2844	-10	-174	153	-10360	2588	13028	116	-51	-170	-15804	-1548	-3440	-24	-27	-66	-16272	2240	-692	140	-12	51	125	115	8
-11048	-2792	11300	-118	147	-164	-16476	1344	-2384	66	-52	142	-15992	904	-2864	37	-136	152	-10356	2540	13084	95	4	-229	-15800	-1492	-3468	-35	-8	-20	-16216	2172	-888	186	4	47	125	115	8
-11048	-2904	11200	-107	153	-187	-16456	1348	-2368	35	-31	119	-15948	964	-2904	63	-141	145	-10304	2552	13028	70	-21	-172	-15836	-1520	-3424	10	-14	-77	-16156	2296	-748	158	-6	18	124	115	8
-11008	-2856	11240	-113	169	-179	-16476	1328	-2368	61	-21	174	-15984	952	-2872	29	-110	145	-10412	2564	13012	111	-31	-141	-15856	-1504	-3424	5	-73	-15	-16256	2224	-844	175	-9	30	125	115	8
-10992	-2900	11252	-129	144	-164	-16464	1376	-2348	52	-18	135	-16032	936	-2916	40	-98	175	-10332	2480	12968	138	-36	-154	-15828	-1584	-3492	15	-52	-47	-16208	2168	-856	145	8	37	124	115	8
-11036	-2832	11272	-93	123	-175	-16424	1308	-2308	111	-19	152	-15984	964	-2888	45	-107	177	-10364	2616	12996	125	-9	-155	-15768	-1436	-3456	-2	-94	-82	-16256	2176	-720	187	-6	67	124	115	8
-11036	-2904	11156	-105	114	-173	-16452	1280	-2256	73	-52	120	-16052	940	-2896	62	-108	171	-10380	2596	13048	106	-4	-149	-15780	-1476	-3448	45	-76	-53	-16252	2224	-700	212	-31	68	124	115	8
-11044	-2904	11152	-84	164	-168	-16416	1348	-2368	72	-70	160	-16048	912	-2828	52	-73	155	-10344	2624	12996	118	-50	-153	-15792	-1460	-3372	68	-71	-53	-16228	2228	-776	214	3	46	124	115	8
-10972	-2836	11236	-126	122	-147	-16456	1324	-2208	76	-43	133	-15944	920	-2800	98	-112	156	-10360	2604	12976	108	-29	-173	-15812	-1452	-3328	63	-55	-14	-16260	2300	-772	256	12	72	125	115	8
-10976	-2812	11216	-63	134	-151	-16456	1348	-2244	99	13	134	-16000	984	-2848	55	-111	150	-10372	2504	13052	115	-41	-139	-15788	-1492	-3372	54	-50	-95	-16192	2232	-720	288	5	48	125	115	8
-11060	-2884	11188	-116	111	-151	-16404	1324	-2308	87	10	109	-15992	936	-2872	83	-117	153	-10388	2612	12984	101	-22	-159	-15776	-1560	-3412	43	-58	-68	-16244	2264	-752	213	-9	27	124	115	8
-11056	-2976	11300	-124	144	-137	-16444	1264	-2288	104	-16	126	-15988	920	-2836	109	-97	164	-10376	2620	13052	114	-24	-144	-15808	-1500	-3356	43	-41	-42	-16260	2160	-672	190	-3	9	125	115	8
-11044	-2892	11204	-108	120	-164	-16480	1376	-2340	100	-37	144	-16008	972	-2920	58	-108	126	-10372	2564	13056	117	9	-179	-15772	-1484	-3388	26	-18	-72	-16212	2256	-700	177	27	63	125	115	8
-11044	-2916	11240	-83	127	-166	-16460	1316	-2276	61	-8	125	-16000	932	-2876	8	-103	174	-10380	2644	13036	114	-15	-170	-15828	-1484	-3384	-9	-15	-92	-16212	2248	-892	175	21	56	125	115	8
-10988	-2788	11288	-83	115	-209	-16480	1300	-2296	59	-38	132	-15968	956	-2740	26	-102	152	-10460	2608	12840	90	-19	-164	-15780	-1544	-3392	-44	9	-82	-16204	2236	-752	195	-24	53	125	115	8
-10988	-2872	11196	-98	129	-164	-16512	1352	-2300	41	-33	134	-16024	944	-2912	0	-114	147	-10376	2548	13000	85	30	-161	-15804	-1540	-3472	-36	-48	-65	-16280	2268	-844	151	-1	30	124	115	8
-10992	-2868	11216	-106	153	-177	-16508	1316	-2284	48	26	112	-16052	888	-2940	-21	-110	120	-10368	2564	12928	89	9	-147	-15888	-1420	-3424	-40	-51	-22	-16276	2184	-776	155	14	31	124	115	8
-11048	-2848	11180	-110	160	-154	-16472	1380	-2256	65	-3	113	-15944	912	-2936	40	-85	167	-10384	2624	13076	129	-5	-149	-15776	-1524	-3412	10	-54	-51	-16128	2224	-804	231	9	66	124	115	8
-11052	-2860	11264	-93	154	-178	-16524	1316	-2368	52	-31	114	-16008	908	-2924	65	-85	147	-10372	2568	12988	130	-14	-133	-15820	-1512	-3580	85	-56	-60	-16204	2248	-876	235	31	52	124	115	8
-11052	-2864	11388	-115	137	-192	-16492	1340	-2256	100	-33	154	-16036	880	-2676	108	-52	177	-10308	2564	13152	130	-49	-175	-15768	-1500	-3408	30	-52	-68	-16296	2148	-748	210	2	58	124	115	8
-11056	-2904	11208	-144	145	-188	-16436	1252	-2280	95	-78	142	-16008	944	-2828	149	-56	176	-10376	2596	12936	98	-11	-141	-15768	-1448	-3352	-4	-71	-60	-16200	2296	-728	155	-9	42	125	115	8
-10976	-2924	11292	-69	112	-162	-16500	1280	-2236	64	-26	124	-15996	864	-2848	108	-43	168	-10436	2592	12992	90	-14	-173	-15796	-1520	-3364	10	-56	-72	-16232	2312	-692	140	31	27	124	115	8
-10988	-2952	11196	-94	140	-171	-16472	1328	-2360	120	-12	166	-16016	904	-2788	74	-101	163	-10328	2592	12920	130	-43	-130	-15812	-1428	-3524	8	-44	-73	-16324	2272	-744	165	42	32	125	115	8
-11016	-2888	11252	-115	139	-165	-16464	1304	-2312	87	-29	160	-15984	984	-2800	49	-70	167	-10344	2544	12988	87	15	-143	-15804	-1492	-3296	-2	1	-46	-16284	2188	-672	132	55	57	125	115	8
-11020	-2916	11272	-109	161	-186	-16484	1316	-2264	48	2	132	-15988	952	-2848	15	-65	136	-10412	2512	12936	128	-31	-156	-15836	-1484	-3536	-30	29	-52	-16284	2120	-784	109	50	38	125	115	8
-11040	-2864	11316	-117	153	-152	-16464	1280	-2324	26	25	113	-16000	956	-2964	-38	-84	135	-10332	2524	12936	116	-44	-167	-15836	-1492	-3432	-26	-2	-87	-16296	2180	-856	140	80	59	125	115	8
-10988	-2924	11212	-82	141	-134	-16516	1320	-2340	-5	21	164	-16056	904	-2964	-67	-83	127	-10336	2548	12932	120	11	-183	-15828	-1564	-3396	4	14	-100	-16244	2208	-676	194	56	74	125	115	8
-11044	-2876	11260	-102	193	-146	-16464	1284	-2376	6	-11	146	-15956	860	-2860	-57	-61	164	-10420	2572	13040	127	14	-146	-15800	-1544	-3448	37	33	-41	-16208	2212	-916	226	77	34	125	115	8
-11060	-2860	11192	-93	121	-154	-16464	1288	-2264	69	9	132	-15996	924	-2780	16	-43	167	-10436	2592	12956	111	3	-191	-15752	-1544	-3440	-8	-5	-94	-16252	2216	-740	157	57	54	125	115	8
-11024	-2840	11176	-131	138	-145	-16472	1304	-2212	94	-3	159	-15952	920	-2912	-1	-75	178	-10376	2596	13068	119	-40	-154	-15776	-1556	-3412	6	-25	-45	-16296	2196	-824	115	64	76	125	115	8
-11024	-2896	11232	-110	164	-165	-16452	1320	-2280	33	21	161	-15980	932	-2836	1	-70	174	-10404	2612	13056	104	-73	-155	-15804	-1496	-3448	-22	-8	-44	-16228	2140	-808	155	70	60	125	115	8
-11004	-2868	11176	-82	162	-142	-16504	1260	-2360	22	3	147	-16000	924	-2976	3	-68	150	-10380	2572	12916	96	37	-129	-15804	-1492	-3428	44	-7	-81	-16184	2276	-796	147	60	70	125	115	8
-11008	-2888	11176	-96	124	-139	-16484	1288	-2352	61	12	128	-15992	916	-2828	28	-54	197	-10424	2640	13092	127	-22	-141	-15808	-1484	-3544	48	-23	-32	-16164	2212	-896	172	61	77	125	115	8
-10976	-2924	11164	-96	154	-106	-16468	1272	-2356	44	-31	150	-15976	920	-2872	22	-61	156	-10332	2572	13032	131	9	-182	-15756	-1484	-3448	55	-10	-50	-16260	2236	-804	158	113	73	124	115	8
-11056	-2852	11248	-93	135	-130	-16532	1324	-2160	8	-9	160	-16004	868	-2948	7	-56	171	-10380	2584	12980	121	5	-159	-15820	-1544	-3428	19	-17	-37	-16280	2248	-708	167	66	75	125	115	8
-11032	-2900	11220	-116	169	-137	-16480	1356	-2200	29	8	153	-15976	932	-2956	12	-40	184	-10392	2600	12972	127	-31	-151	-15772	-1540	-3324	1	5	-49	-16208	2188	-824	177	65	83	125	115	8
-11008	-2840	11196	-94	132	-145	-16472	1296	-2340	37	-6	159	-15972	984	-2872	-6	-65	208	-10360	2564	13072	105	20	-195	-15808	-1472	-3376	35	37	-56	-16224	2196	-772	140	72	62	125	115	8
-11064	-2844	11236	-107	149	-131	-16472	1324	-2252	50	26	138	-15964	912	-2828	-17	-81	160	-10424	2560	13016	102	-8	-160	-15808	-1520	-3532	-51	44	-60	-16224	2240	-740	146	54	59	125	115	8
-11000	-2928	11288	-105	131	-193	-16504	1364	-2248	59	-5	158	-16028	956	-2876	9	-64	144	-10384	2620	12996	129	3	-189	-15844	-1416	-3496	-44	23	-70	-16264	2228	-940	133	47	59	125	115	8
-11032	-2932	11184	-107	142	-149	-16440	1336	-2240	42	33	181	-16004	996	-2840	2	-56	192	-10420	2596	13052	80	-29	-165	-15756	-1540	-3548	-26	23	-110	-16164	2240	-780	143	39	86	125	115	8
-11064	-2788	11224	-95	153	-145	-16480	1292	-2192	31	22	162	-15988	912	-2876	-24	-100	182	-10360	2628	13044	95	7	-148	-15828	-1448	-3504	4	49	-55	-16180	2220	-872	157	86	74	125	115	8
-10984	-2964	11112	-73	156	-162	-16408	1328	-2300	38	28	177	-16020	884	-2756	-19	-94	175	-10340	2568	13016	116	-3	-154	-15796	-1580	-3628	-16	37	-68	-16228	2232	-952	186	38	82	125	115	8
-11072	-2864	11248	-100	146	-136	-16516	1312	-2336	33	0	200	-16024	944	-3012	29	-66	161	-10344	2580	13028	86	-8	-170	-15824	-1484	-3496	5	28	-53	-16276	2236	-968	174	19	91	125	115	8
-10956	-2848	11176	-110	128	-144	-16480	1316	-2328	77	0	171	-15988	996	-2992	23	-100	163	-10396	2572	13060	104	-17	-153	-15780	-1464	-3468	18	-5	-62	-16260	2184	-884	161	40	60	125	115	8
-10988	-2896	11280	-118	138	-157	-16452	1388	-2292	63	19	167	-15968	1008	-2976	-17	-64	179	-10424	2636	13136	92	-19	-153	-15800	-1544	-3356	5	-4	-53	-16220	2272	-864	173	33	104	125	115	8
-11036	-2900	11284	-119	168	-132	-16472	1364	-2348	69	3	181	-15980	956	-2912	23	-80	191	-10344	2520	13000	140	5	-178	-15844	-1456	-3440	12	20	-98	-16168	2232	-900	182	15	65	125	115	8
-11068	-2892	11220	-96	158	-158	-16520	1324	-2248	63	33	181	-15996	948	-2872	39	-84	176	-10372	2608	13016	120	-16	-165	-15808	-1484	-3404	24	-26	-64	-16260	2208	-844	162	54	73	125	115	8
-11096	-2876	11256	-81	138	-163	-16476	1300	-2372	58	25	133	-15936	1008	-2912	32	-45	146	-10416	2532	13080	127	12	-164	-15724	-1468	-3504	-5	-10	-41	-16200	2212	-852	153	53	86	125	115	8
-11024	-2868	11196	-104	119	-176	-16448	1328	-2316	99	-37	147	-16032	996	-2988	30	-73	172	-10452	2540	13032	102	1	-153	-15720	-1504	-3588	-1	-1	-70	-16280	2268	-872	165	58	65	125	115	8
-11024	-2904	11132	-113	148	-158	-16492	1340	-2268	57	1	107	-16012	932	-2928	65	-85	160	-10392	2584	13036	115	-7	-170	-15804	-1448	-3624	-3	21	-85	-16240	2292	-928	170	53	88	125	115	8
-11040	-2888	11288	-119	139	-164	-16456	1276	-2240	69	0	183	-15992	916	-2972	30	-87	174	-10372	2544	12984	91	25	-156	-15776	-1452	-3496	38	-28	-52	-16256	2280	-940	122	60	85	125	115	8
-11036	-2940	11244	-120	123	-138	-16448	1332	-2320	61	8	164	-15960	976	-2992	-2	-86	184	-10432	2588	13068	117	11	-167	-15840	-1444	-3464	-12	-26	-55	-16196	2236	-808	187	32	45	125	115	8
-11016	-2828	11216	-143	158	-141	-16424	1316	-2388	32	3	127	-15952	932	-3016	2	-65	161	-10396	2508	13068	126	-4	-150	-15796	-1472	-3548	-19	-2	-52	-16216	2292	-712	206	50	64	125	115	8
-11008	-2920	11220	-88	151	-134	-16480	1368	-2352	75	-31	144	-16020	952	-2876	21	-68	171	-10408	2584	13060	99	-1	-156	-15776	-1528	-3508	5	-23	-92	-16248	2236	-800	156	54	63	125	115	8
-10968	-2916	11164	-108	118	-166	-16484	1344	-2244	47	-14	152	-16024	944	-2880	18	-59	160	-10312	2584	12988	129	-36	-158	-15760	-1528	-3556	-4	0	-91	-16204	2224	-848	141	63	65	125	115	8
-11020	-2812	11220	-72	149	-148	-16484	1324	-2344	70	-34	154	-15944	952	-2960	9	-114	192	-10388	2568	12980	91	-17	-131	-15760	-1444	-3412	6	-3	-97	-16224	2260	-772	157	47	80	125	115	8
-11000	-2880	11220	-104	162	-161	-16480	1344	-2312	30	8	148	-15952	952	-2980	18	-101	199	-10364	2584	12952	115	-42	-155	-15736	-1536	-3536	-14	-11	-69	-16196	2216	-820	225	23	73	125	115	8
-11072	-2900	11156	-109	134	-170	-16496	1272	-2284	81	-21	156	-15964	1016	-3008	-9	-117	147	-10356	2536	13016	72	-17	-166	-15864	-1564	-3412	36	-9	-52	-16272	2188	-816	148	46	59	125	115	8
-11040	-2840	11260	-76	123	-138	-16484	1272	-2396	22	-6	133	-16020	984	-2964	15	-82	194	-10356	2528	13012	118	-24	-131	-15784	-1640	-3480	84	-22	-33	-16172	2240	-852	181	54	60	125	115	8
-11068	-2840	11104	-124	195	-172	-16472	1376	-2256	44	-17	176	-15880	964	-3036	-12	-84	142	-10404	2556	13028	109	5	-186	-15756	-1464	-3428	65	-21	-70	-16228	2304	-924	188	42	67	125	115	8
-11016	-2856	11244	-111	137	-167	-16456	1364	-2280	13	-3	130	-15980	988	-2908	-39	-72	191	-10392	2536	12996	123	-4	-184	-15760	-1548	-3468	-64	-42	-53	-16208	2180	-904	214	25	67	124	115	8
-11024	-2812	11224	-106	151	-155	-16424	1288	-2420	77	-42	100	-15932	912	-2968	24	-38	186	-10396	2576	12956	122	10	-182	-15748	-1536	-3448	93	-67	-35	-16220	2224	-824	280	38	78	125	115	8
-11060	-2956	11276	-141	166	-171	-16488	1308	-2344	50	-63	171	-15976	996	-2976	82	-68	188	-10432	2508	13008	92	-21	-193	-15808	-1472	-3480	100	-24	-12	-16232	2260	-828	239	37	80	125	115	8
-11032	-2888	11344	-120	137	-165	-16412	1336	-2280	63	-22	160	-15988	992	-2956	123	-72	178	-10368	2612	13060	107	-2	-203	-15788	-1448	-3312	-7	-52	-38	-16204	2340	-748	156	20	52	125	115	8
-11064	-2920	11280	-110	137	-167	-16468	1284	-2216	70	-10	136	-15996	920	-2848	80	-81	147	-10380	2632	13052	106	-15	-153	-15744	-1492	-3456	-58	-41	-32	-16212	2332	-852	130	95	46	125	115	8
-11004	-2868	11184	-100	126	-167	-16528	1372	-2352	91	20	145	-15996	1004	-2840	53	-64	145	-10344	2636	12864	131	-34	-150	-15840	-1360	-3412	42	-28	-30	-16248	2308	-840	85	90	46	125	115	8
-11048	-2920	11132	-102	136	-138	-16472	1384	-2284	62	26	148	-15984	988	-2932	22	-101	172	-10392	2524	13004	131	-34	-152	-15844	-1420	-3416	-98	3	-107	-16248	2344	-720	65	60	48	125	115	8
-11012	-2884	11112	-130	150	-137	-16500	1280	-2236	69	19	135	-15956	972	-2928	0	-90	144	-10380	2592	13036	91	2	-183	-15776	-1532	-3380	3	47	-75	-16248	2236	-812	140	38	71	124	115	8
-11036	-2876	11240	-114	126	-151	-16436	1404	-2332	82	48	164	-15984	972	-2920	-48	-102	139	-10364	2536	12956	77	-38	-188	-15832	-1484	-3444	62	4	-90	-16212	2244	-848	218	14	51	125	115	8
-11000	-2960	11204	-125	153	-151	-16460	1336	-2408	43	-4	168	-15932	1044	-3044	-61	-84	177	-10396	2664	13012	126	-44	-141	-15776	-1492	-3468	32	31	-87	-16176	2260	-980	232	4	50	125	115	8
-11028	-2908	11248	-127	124	-169	-16472	1324	-2396	46	-4	148	-15940	1064	-3016	-22	-110	170	-10400	2564	13080	133	-57	-166	-15768	-1500	-3560	-15	-15	-70	-16164	2288	-996	245	9	42	125	115	8
-10980	-2856	11140	-82	161	-162	-16468	1432	-2324	60	10	157	-15996	952	-3052	-8	-107	164	-10376	2596	12992	120	-45	-156	-15816	-1596	-3508	-26	2	-69	-16216	2296	-932	173	20	68	125	115	8
-11060	-2868	11196	-93	129	-134	-16496	1356	-2368	46	10	159	-15976	968	-2988	23	-114	171	-10432	2576	12984	115	-4	-136	-15716	-1448	-3476	-24	-16	-44	-16184	2272	-852	109	41	64	125	115	8
-11060	-2924	11240	-130	163	-141	-16456	1384	-2344	17	-22	145	-15948	928	-2988	44	-84	149	-10336	2536	12996	85	8	-123	-15808	-1512	-3584	2	-17	-75	-16236	2252	-912	111	32	55	125	115	8
-11080	-2896	11160	-82	165	-178	-16480	1364	-2344	27	25	125	-15964	976	-2944	61	-78	159	-10380	2544	12948	116	-4	-166	-15824	-1548	-3560	-42	-22	-70	-16212	2224	-812	100	39	82	125	115	8
-11036	-2908	11164	-125	141	-178	-16400	1312	-2304	37	0	143	-15988	980	-2912	21	-101	172	-10380	2532	13012	108	-31	-179	-15832	-1432	-3608	0	-77	-46	-16216	2260	-844	99	28	63	125	115	8
-11068	-2856	11172	-111	135	-166	-16444	1348	-2304	13	-6	181	-16020	992	-3040	11	-89	165	-10400	2576	13020	129	-20	-161	-15768	-1416	-3524	-33	-49	-65	-16240	2280	-864	115	-4	58	125	115	8
-11036	-2900	11248	-144	149	-143	-16424	1312	-2308	23	-20	160	-16000	956	-3036	-44	-106	175	-10412	2560	12936	78	9	-142	-15764	-1548	-3500	-45	-38	-84	-16240	2248	-960	121	31	20	125	115	8
-11072	-2856	11284	-74	115	-150	-16460	1356	-2264	65	29	149	-15988	924	-2912	-28	-86	154	-10324	2564	12904	138	-70	-159	-15824	-1496	-3436	9	-22	-45	-16196	2236	-804	159	31	24	125	115	8
-11084	-2860	11280	-87	138	-173	-16452	1316	-2356	37	-9	125	-15964	956	-3024	-19	-97	159	-10380	2584	12996	132	-30	-175	-15796	-1460	-3416	-12	-6	-80	-16220	2260	-844	189	9	79	125	115	8
-10996	-2812	11216	-87	149	-187	-16492	1332	-2320	64	28	150	-16012	952	-3012	-15	-116	175	-10352	2624	13056	99	-23	-153	-15792	-1488	-3392	13	-23	-74	-16200	2216	-872	196	-13	53	125	115	8
-11004	-2852	11208	-115	168	-137	-16444	1348	-2296	54	-50	170	-15940	940	-2952	67	-100	208	-10400	2616	12984	121	-63	-135	-15812	-1516	-3412	-8	-10	-81	-16296	2176	-804	222	13	93	125	115	8
-11056	-2888	11272	-111	129	-165	-16480	1364	-2388	85	-20	132	-15960	1032	-2928	114	-85	216	-10420	2588	12992	111	0	-152	-15728	-1448	-3484	18	-24	-4	-16176	2328	-976	208	18	70	125	115	8
-11080	-2880	11120	-73	162	-138	-16456	1360	-2304	85	8	157	-16012	984	-2976	84	-61	164	-10412	2576	13060	101	-5	-170	-15760	-1512	-3456	39	-23	-31	-16288	2272	-936	243	21	76	125	115	8
-11048	-2980	11244	-118	137	-142	-16480	1340	-2396	128	1	146	-16096	996	-2896	47	-70	188	-10400	2548	12984	112	4	-139	-15776	-1576	-3484	30	-41	-58	-16236	2228	-936	205	54	75	125	115	8
-10992	-2924	11288	-100	131	-172	-16472	1384	-2352	76	-27	137	-15944	988	-2972	56	-70	198	-10360	2576	13036	114	18	-156	-15780	-1472	-3628	48	-34	-42	-16204	2276	-828	197	29	73	125	115	8
-11076	-2876	11228	-124	144	-150	-16460	1356	-2360	71	19	125	-15924	1032	-2936	63	-86	192	-10376	2556	12992	103	40	-173	-15756	-1512	-3576	74	-6	-38	-16216	2300	-912	174	72	57	125	115	8
-11032	-2832	11236	-100	164	-172	-16516	1392	-2260	74	3	158	-16000	1076	-2972	20	-22	206	-10324	2532	12972	94	14	-167	-15844	-1508	-3520	29	9	-53	-16192	2284	-952	239	77	69	125	115	8
-11028	-2968	11216	-100	156	-159	-16476	1500	-2488	119	-65	118	-15920	1040	-3076	-70	-30	186	-10400	2492	12864	106	-31	-170	-15768	-1692	-3796	-23	-55	8	-16204	2204	-1012	243	142	38	125	115	8
-11032	-2936	11076	-144	173	-185	-16400	1292	-2340	-31	-14	151	-15996	1028	-3144	28	-17	217	-10336	2660	12996	170	-30	-147	-15804	-1348	-3468	-46	-62	35	-16260	2356	-1004	123	108	76	125	115	8
-11036	-2816	11244	-144	153	-139	-16460	1328	-2284	-1	-25	108	-15940	1036	-3076	-68	-19	222	-10476	2760	12864	125	-6	-149	-15708	-1392	-3128	66	-64	-39	-16148	2220	-824	92	143	42	125	115	8
-11000	-2948	11344	-126	141	-155	-16412	1400	-2268	-86	-45	132	-16020	952	-3044	-11	-63	152	-10300	2592	13040	137	-39	-131	-15776	-1532	-3588	92	-56	-35	-16248	2348	-836	-49	133	68	125	115	8
-11080	-2864	11168	-146	152	-193	-16452	1356	-2264	-126	-55	140	-15992	880	-2996	-48	-12	149	-10484	2632	12904	129	-7	-129	-15716	-1440	-3496	-57	-46	-33	-16268	2376	-892	-18	165	67	125	115	8
-10976	-2868	11156	-159	199	-168	-16420	1268	-2348	-83	-67	155	-16024	980	-3064	-76	-75	181	-10336	2472	13068	134	12	-181	-15768	-1536	-3528	-117	-31	-33	-16308	2084	-884	-22	180	23	125	115	8
-11036	-2892	11284	-123	195	-165	-16496	1424	-2276	-49	-26	164	-16080	992	-2992	-138	-101	147	-10344	2540	13088	93	-4	-145	-15828	-1468	-3256	301	9	-23	-16164	2388	-944	46	133	53	125	115	8
-11056	-2900	11124	-103	188	-154	-16472	1332	-2392	-68	43	130	-15916	1032	-2912	-255	-130	129	-10380	2512	13052	117	-8	-130	-15752	-1380	-3368	17	-65	-81	-16228	2280	-1040	5	177	26	125	115	8
-11056	-2860	11232	-125	186	-166	-16472	1324	-2272	-93	10	135	-15924	1048	-2980	-301	-76	115	-10388	2456	12956	151	-2	-136	-15796	-1548	-3552	-225	-41	-77	-16136	2164	-864	-92	172	-4	125	115	8
-11112	-2900	11148	-111	148	-152	-16496	1376	-2244	-93	22	126	-15900	1020	-3012	-264	-89	100	-10384	2712	12932	102	-5	-160	-15724	-1508	-3492	-44	-46	35	-16144	2348	-888	20	173	4	125	115	8
-11096	-2868	11256	-116	143	-148	-16484	1288	-2348	65	-1	131	-16012	924	-2972	-191	-110	95	-10388	2652	12976	138	11	-166	-15852	-1472	-3508	-85	24	-62	-16332	2300	-1004	-36	194	38	125	115	8
-11024	-2892	11208	-89	151	-177	-16532	1396	-2308	65	19	131	-15988	1056	-3020	-204	-153	136	-10368	2652	13056	110	-31	-175	-15780	-1540	-3428	-103	-23	-71	-16232	2404	-876	-132	237	-10	125	115	8
-11088	-2876	11256	-113	168	-142	-16464	1400	-2356	-88	-3	148	-15852	1028	-3020	-161	-110	130	-10300	2672	12956	120	15	-192	-15784	-1512	-3456	-158	-7	-56	-16240	2332	-896	-231	217	39	125	115	8
-11016	-2892	11240	-89	156	-143	-16452	1384	-2344	-89	34	128	-15968	976	-2988	-182	-104	130	-10444	2660	12972	110	7	-144	-15736	-1464	-3572	-150	2	-70	-16196	2256	-1020	-238	223	-6	125	115	8
-11044	-2852	11148	-112	180	-194	-16504	1300	-2248	-19	-32	135	-15916	1000	-3100	-131	-100	122	-10392	2612	12980	109	-39	-162	-15788	-1556	-3492	-133	-75	-55	-16296	2184	-1040	-146	191	23	125	115	8
-11032	-2924	11188	-131	164	-179	-16464	1308	-2288	37	-42	126	-15980	960	-2920	-114	-81	122	-10464	2572	13048	91	-64	-158	-15780	-1484	-3636	-107	-11	-24	-16252	2244	-1012	-99	178	56	125	115	8
-11036	-2864	11160	-139	156	-130	-16468	1412	-2380	-61	-46	157	-15920	972	-3000	-113	-65	125	-10412	2632	13008	141	-49	-155	-15756	-1468	-3632	-117	-24	-12	-16228	2292	-1072	8	200	40	125	115	8
-11044	-2920	11248	-133	159	-179	-16432	1328	-2260	-72	40	148	-15964	916	-2944	-161	-103	120	-10396	2552	12868	123	50	-158	-15788	-1484	-3512	-50	-8	-40	-16212	2244	-992	66	144	68	125	115	8
-11040	-2836	11240	-92	124	-169	-16464	1364	-2340	-14	-26	113	-16016	960	-2876	-124	-84	122	-10408	2500	12976	128	-28	-126	-15784	-1536	-3556	26	-24	-30	-16196	2300	-1044	58	137	74	125	115	8
-11028	-2860	11220	-129	145	-162	-16500	1352	-2228	25	-23	152	-16016	1044	-2936	-35	-53	144	-10380	2572	12980	153	-60	-169	-15736	-1468	-3600	-50	-15	-31	-16216	2252	-1120	113	163	81	125	115	8
-11100	-2900	11236	-124	150	-176	-16448	1396	-2428	43	40	157	-16048	928	-3032	-69	-46	154	-10436	2660	12952	159	-14	-143	-15796	-1460	-3444	-99	16	-14	-16168	2328	-1040	72	217	24	125	115	8
-11088	-2888	11172	-66	141	-149	-16436	1356	-2236	47	10	205	-16008	972	-2964	-78	-65	147	-10468	2620	12940	94	-20	-134	-15808	-1468	-3380	-2	14	-39	-16228	2300	-912	-41	196	42	125	115	8
-11120	-2892	11192	-61	151	-132	-16520	1356	-2360	60	55	172	-16012	952	-2840	-14	-61	185	-10432	2592	12836	165	-26	-162	-15816	-1436	-3252	19	11	-48	-16216	2292	-960	-35	158	81	125	115	8
-11100	-2868	11228	-85	153	-129	-16460	1420	-2300	18	98	163	-16068	940	-2980	-17	-74	184	-10372	2540	12968	136	-36	-135	-15828	-1520	-3544	-52	19	-86	-16128	2164	-1020	61	185	38	125	115	8
-11072	-2856	11208	-71	128	-166	-16492	1300	-2408	26	88	161	-16056	980	-2944	-41	-65	173	-10420	2640	13032	128	-29	-167	-15760	-1420	-3500	77	61	-19	-16244	2228	-1044	103	198	106	125	115	8
-11068	-2884	11220	-83	137	-139	-16468	1344	-2288	40	87	205	-15980	1032	-2920	-62	-99	179	-10368	2608	13068	113	1	-160	-15748	-1460	-3516	18	67	-60	-16252	2236	-1224	239	150	99	125	115	8
-11064	-2876	11252	-139	168	-153	-16496	1336	-2344	24	108	198	-15956	1020	-3092	-112	-20	173	-10412	2588	13024	147	-21	-147	-15828	-1320	-3592	12	83	-46	-16208	2424	-1088	190	161	61	125	115	8
-11032	-2980	11192	-135	140	-116	-16448	1424	-2316	102	83	189	-15984	984	-2936	-97	-63	150	-10392	2672	12952	146	-29	-149	-15796	-1480	-3580	3	61	-46	-16152	2376	-1068	165	202	51	125	115	8
-11004	-2820	11296	-98	151	-177	-16376	1372	-2288	6	147	215	-15960	996	-3104	-112	-43	187	-10384	2564	13120	100	15	-147	-15792	-1460	-3448	41	102	-62	-16240	2320	-1016	117	162	49	125	115	8
-11032	-2796	11248	-98	146	-121	-16472	1396	-2340	-5	125	192	-15896	1000	-3044	-90	-75	169	-10436	2616	12964	117	-47	-165	-15808	-1316	-3476	-75	88	-76	-16176	2312	-952	88	212	37	125	115	8
-11076	-2892	11164	-86	161	-133	-16460	1456	-2388	37	113	164	-15932	1052	-3160	-84	-61	183	-10452	2652	12996	101	16	-192	-15784	-1436	-3452	-5	110	-83	-16268	2400	-1080	-30	129	38	125	115	8
-11032	-2908	11108	-122	160	-135	-16440	1424	-2416	126	65	195	-15976	1012	-3096	24	-40	175	-10436	2568	13128	88	6	-136	-15808	-1460	-3540	-71	72	-96	-16080	2268	-1160	50	185	78	125	115	8
-11012	-2872	11200	-87	171	-104	-16460	1408	-2316	146	73	164	-15960	1016	-3196	34	-51	182	-10376	2592	12948	102	-1	-161	-15808	-1504	-3480	51	85	-57	-16220	2260	-1236	117	159	66	125	115	8
-11040	-2868	11216	-69	145	-135	-16456	1412	-2492	59	49	164	-15920	944	-3156	28	-80	155	-10376	2596	12976	92	2	-187	-15764	-1488	-3652	43	106	-67	-16140	2256	-1236	136	164	53	125	115	8
-11004	-2844	11312	-76	168	-144	-16484	1408	-2344	6	113	152	-15912	1036	-3152	16	-52	205	-10480	2584	13048	134	-27	-160	-15808	-1416	-3624	-14	72	-91	-16184	2316	-1252	150	158	39	125	115	8
-11004	-2880	11220	-96	168	-160	-16476	1400	-2324	15	79	161	-15964	1084	-3000	-30	-55	153	-10436	2564	12900	102	-21	-186	-15764	-1436	-3624	-10	73	-63	-16196	2364	-1180	107	143	37	125	115	8
-11036	-2940	11252	-89	146	-188	-16444	1412	-2340	64	71	174	-15932	1064	-3068	-42	-73	125	-10388	2552	12948	151	-33	-163	-15788	-1484	-3580	-58	57	-81	-16224	2384	-1180	143	93	26	125	115	8
-11036	-2880	11148	-85	131	-158	-16436	1352	-2392	43	80	182	-15948	1000	-3088	-75	-75	124	-10360	2596	13104	88	-26	-143	-15788	-1424	-3624	-33	94	-89	-16232	2284	-1192	117	125	50	125	115	8
-11076	-2820	11216	-94	153	-163	-16428	1420	-2296	-14	53	153	-15944	948	-3076	-95	-122	96	-10372	2636	12960	104	-5	-124	-15736	-1464	-3516	4	76	-88	-16208	2336	-1156	73	164	9	125	115	8
-11016	-2892	11212	-120	128	-166	-16400	1408	-2396	-16	92	186	-15944	1000	-3024	-96	-93	126	-10384	2564	12988	98	-42	-161	-15736	-1444	-3580	-5	73	-100	-16256	2320	-1172	73	113	10	125	115	8
-11048	-2780	11200	-78	193	-156	-16452	1416	-2352	4	94	160	-15944	1044	-3124	-109	-137	146	-10396	2604	13000	109	-15	-139	-15800	-1484	-3564	24	51	-65	-16184	2260	-1220	95	101	8	125	115	8
-11032	-2888	11272	-114	182	-185	-16456	1448	-2316	42	68	152	-15936	988	-3072	-81	-117	142	-10456	2596	12996	119	-13	-160	-15784	-1496	-3636	19	52	-106	-16172	2280	-1116	146	99	58	125	115	8
-11076	-2872	11072	-119	148	-160	-16548	1452	-2460	-6	84	167	-15956	1048	-3076	-95	-110	121	-10396	2588	13052	106	-34	-172	-15792	-1484	-3700	33	42	-62	-16192	2220	-1224	134	163	0	125	115	8
-11064	-2868	11184	-137	165	-190	-16388	1444	-2292	17	114	144	-15920	1064	-3124	-114	-99	129	-10460	2620	13012	99	5	-194	-15744	-1484	-3576	77	43	-103	-16168	2356	-1092	168	93	12	125	115	8
-11064	-2912	11232	-84	151	-144	-16464	1388	-2468	27	88	137	-15976	1064	-3164	-144	-86	96	-10428	2600	13016	106	-13	-151	-15692	-1464	-3696	74	14	-72	-16232	2296	-1208	200	98	18	125	115	8
-11104	-2896	11204	-116	170	-131	-16416	1552	-2512	17	45	111	-15980	1020	-3156	-157	-122	115	-10404	2536	12984	104	-12	-178	-15752	-1452	-3672	65	27	-74	-16152	2340	-1104	205	98	6	125	115	8
-11036	-2904	11236	-139	174	-163	-16468	1464	-2560	-42	35	127	-16008	1024	-3096	-183	-121	87	-10420	2608	12956	128	-56	-147	-15668	-1508	-3660	137	28	-35	-16128	2284	-1236	175	142	-31	125	115	8
-11036	-2804	11272	-120	170	-180	-16492	1388	-2348	-30	23	136	-15936	1128	-3124	-170	-132	123	-10360	2544	13008	134	-58	-130	-15764	-1448	-3752	117	21	-82	-16244	2316	-1264	190	101	-3	125	115	8
-11044	-2856	11320	-113	161	-146	-16456	1416	-2436	-3	-2	117	-15952	1000	-3140	-176	-185	101	-10412	2508	12968	108	2	-155	-15724	-1756	-3984	-123	-10	-67	-16064	2280	-1380	202	241	-59	125	115	8
-11052	-2848	11296	-111	177	-156	-16500	1452	-2416	-40	37	114	-15964	1164	-3032	-234	-172	109	-10424	2688	13060	187	29	-119	-15760	-1508	-3616	162	-80	28	-16260	2436	-1188	139	205	-32	125	115	8
-11032	-2908	11268	-120	183	-173	-16404	1432	-2512	-72	-9	116	-15900	1140	-3108	-269	-168	43	-10388	2824	12896	164	2	-114	-15776	-1448	-3596	136	-76	-57	-16184	2360	-1168	116	232	-120	125	115	8
-11076	-2976	11208	-111	175	-169	-16396	1428	-2432	-103	-3	93	-15924	1080	-3056	-308	-173	-1	-10440	2636	12968	130	8	-154	-15824	-1504	-3672	55	-89	-41	-16176	2376	-1156	-18	176	-70	125	115	8
-11048	-2824	11164	-139	173	-184	-16440	1416	-2368	-137	-49	100	-15924	1064	-3156	-318	-186	-20	-10448	2580	13048	102	-1	-152	-15744	-1404	-3548	5	-25	-89	-16184	2380	-1136	63	174	-94	125	115	8
-11036	-2928	11188	-159	166	-178	-16428	1404	-2448	-114	-36	67	-15888	1040	-3068	-356	-193	34	-10376	2728	12852	135	15	-176	-15748	-1452	-3576	-6	-25	-107	-16188	2312	-1188	16	150	-113	125	115	8
-11036	-2884	11120	-135	159	-158	-16432	1524	-2608	-141	-8	90	-15940	956	-3148	-313	-215	7	-10364	2672	12984	104	-1	-179	-15772	-1404	-3588	29	-9	-111	-16336	2320	-1084	23	130	-84	125	115	8
-11028	-2864	11204	-100	164	-179	-16500	1440	-2496	-100	-10	37	-15960	1000	-3072	-259	-179	11	-10404	2596	12952	96	4	-154	-15764	-1464	-3524	1	41	-162	-16132	2252	-1028	46	93	-103	126	116	8
-11036	-2828	11152	-91	178	-197	-16452	1352	-2532	-90	-50	81	-15976	1008	-3060	-287	-194	14	-10432	2576	12908	64	-1	-143	-15796	-1408	-3716	29	35	-191	-16204	2328	-1200	54	112	-97	125	115	8
-11028	-2792	11236	-129	165	-179	-16372	1468	-2536	-96	-43	75	-15848	1064	-2968	-282	-267	-28	-10412	2648	12984	102	-64	-164	-15724	-1472	-3760	5	17	-163	-16152	2248	-1272	50	99	-93	126	116	8
-11064	-2868	11128	-128	167	-189	-16444	1420	-2480	-111	-56	35	-15952	1076	-2900	-324	-254	-52	-10364	2660	13084	70	-10	-169	-15804	-1504	-3652	-29	17	-156	-16188	2216	-1288	-1	105	-94	126	116	8
-11068	-2884	11208	-141	114	-190	-16388	1396	-2424	-115	-84	48	-15944	1032	-3124	-351	-236	-23	-10452	2612	12968	90	-29	-167	-15776	-1468	-3612	-22	22	-187	-16200	2348	-1384	-46	87	-101	126	116	8
-11052	-2960	11180	-160	169	-182	-16496	1292	-2456	-144	-93	79	-15932	904	-3032	-310	-269	-21	-10432	2588	12872	84	-54	-172	-15700	-1448	-3672	-75	-3	-155	-16196	2272	-1296	-12	53	-71	126	115	8
-11128	-2896	11204	-171	189	-199	-16472	1404	-2428	-91	-94	57	-15980	976	-3108	-292	-227	-9	-10356	2632	12912	96	-24	-158	-15772	-1484	-3640	-47	-43	-149	-16188	2088	-1344	-52	36	-82	126	116	8
-11048	-2908	11196	-128	179	-185	-16500	1420	-2412	-85	-93	70	-15928	1012	-2924	-216	-250	25	-10416	2576	13004	87	-26	-156	-15792	-1532	-3744	0	-35	-136	-16104	2164	-1244	-39	46	-65	125	116	8
-11100	-2892	11124	-139	178	-184	-16428	1384	-2508	-19	-138	51	-15908	1052	-3004	-192	-241	-1	-10440	2648	12960	103	-42	-130	-15720	-1496	-3656	9	-29	-142	-16164	2224	-1368	-7	5	-92	125	115	8
-11052	-2924	11148	-126	166	-213	-16448	1380	-2480	-25	-122	23	-15956	896	-3036	-150	-250	-6	-10424	2532	13008	61	-39	-171	-15752	-1444	-3704	-141	-57	-167	-16212	2328	-1272	-3	0	-99	125	115	8
-11048	-2928	11228	-162	176	-199	-16492	1324	-2384	0	-66	21	-15988	904	-3052	-103	-258	10	-10404	2604	12892	114	-47	-120	-15784	-1532	-3684	-41	-73	-112	-16196	2240	-1308	-41	43	-106	125	115	8
-11068	-2980	11192	-101	116	-187	-16456	1340	-2428	18	-126	70	-16016	920	-2988	-92	-230	0	-10452	2608	12904	90	-33	-147	-15760	-1440	-3760	15	-59	-131	-16180	2216	-1400	26	25	-94	126	116	8
-11092	-2964	11208	-124	142	-188	-16460	1356	-2348	2	-103	81	-15996	940	-2912	-93	-260	1	-10364	2612	12988	97	-42	-171	-15768	-1472	-3504	-95	-87	-169	-16244	2208	-1244	12	-9	-108	126	115	8
-11132	-2904	11172	-139	178	-205	-16436	1300	-2372	17	-82	49	-15992	920	-3000	-176	-306	-41	-10428	2556	13008	76	-21	-158	-15732	-1504	-3584	-88	-71	-176	-16176	2180	-1368	-32	-12	-117	126	115	8
-11092	-2896	11144	-136	139	-187	-16508	1396	-2472	-16	-82	61	-15984	836	-3016	-143	-303	-29	-10432	2604	13036	90	-21	-179	-15724	-1492	-3644	-80	-48	-165	-16148	2224	-1348	-47	-44	-55	126	115	8
-11068	-2928	11152	-139	141	-155	-16464	1372	-2352	21	-77	66	-16024	976	-2900	-181	-303	7	-10436	2544	12924	124	-43	-159	-15744	-1576	-3720	-103	-48	-168	-16140	2136	-1360	1	-39	-79	126	116	8
-11100	-2908	11228	-128	144	-184	-16452	1412	-2344	-21	-61	75	-15920	976	-2948	-193	-305	-19	-10428	2572	12936	72	-65	-138	-15756	-1596	-3700	-16	-99	-137	-16132	2092	-1344	49	-52	-67	126	115	8
-11124	-2860	11176	-121	134	-189	-16512	1384	-2536	-7	-69	70	-15940	992	-2944	-185	-280	2	-10436	2584	13064	101	-42	-170	-15760	-1444	-3592	-96	-123	-111	-16224	2160	-1380	47	-51	-41	126	115	8
-11084	-2840	11188	-140	144	-153	-16464	1332	-2500	-38	-106	86	-15960	880	-2968	-129	-300	-4	-10404	2564	12988	146	-71	-149	-15776	-1576	-3800	-69	-99	-125	-16132	2080	-1344	45	-79	-33	125	115	8
-11108	-2880	11164	-125	143	-157	-16460	1360	-2380	65	-83	78	-15964	776	-2912	-22	-254	16	-10376	2524	13096	84	-29	-157	-15780	-1576	-3728	-46	-142	-104	-16176	2124	-1308	146	-122	-7	125	115	8
-11072	-2912	11116	-125	105	-166	-16396	1424	-2292	82	-102	78	-15924	900	-2820	61	-253	50	-10344	2556	12972	97	-56	-141	-15740	-1540	-3636	5	-138	-111	-16252	2180	-1200	161	-132	3	125	115	8
-11048	-2860	11216	-114	170	-201	-16436	1336	-2348	84	-128	60	-16020	892	-2816	90	-257	77	-10412	2576	12952	101	-48	-176	-15744	-1476	-3604	51	-157	-104	-16188	2200	-1280	205	-135	-27	125	115	8
-11080	-2928	11196	-89	132	-157	-16424	1320	-2392	45	-124	109	-16000	900	-2872	80	-256	41	-10352	2616	12976	93	-21	-169	-15796	-1512	-3616	-8	-178	-97	-16196	2156	-1188	182	-152	-31	125	115	8
-11072	-2936	11196	-112	143	-174	-16444	1356	-2424	80	-90	90	-16024	908	-2764	69	-262	76	-10372	2632	13004	103	-8	-150	-15756	-1512	-3652	31	-142	-115	-16276	2192	-1168	217	-167	-30	125	115	8
-11068	-2848	11088	-128	117	-181	-16448	1328	-2352	102	-121	61	-15984	908	-2880	42	-239	64	-10404	2652	12980	89	-27	-164	-15732	-1584	-3500	41	-120	-97	-16232	2188	-1212	274	-176	-21	125	115	8
-11032	-2884	11228	-119	146	-179	-16460	1364	-2384	102	-128	73	-15952	864	-2944	29	-205	105	-10440	2660	12968	73	-68	-177	-15748	-1536	-3656	42	-128	-135	-16228	2128	-1096	275	-169	8	125	115	8
