#Activity	sitting 
#ActivityID	5 
#Date 08-22-17-17
acc_rf_x	acc_rf_y	acc_rf_z	gyro_rf_x	gyro_rf_y	gyro_rf_z	acc_rs_x	acc_rs_y	acc_rs_z	gyro_rs_x	gyro_rs_y	gyro_rs_z	acc_rt_x	acc_rt_y	acc_rt_z	gyro_rt_x	gyro_rt_y	gyro_rt_z	acc_lf_x	acc_lf_y	acc_lf_z	gyro_lf_x	gyro_lf_y	gyro_lf_z	acc_ls_x	acc_ls_y	acc_ls_z	gyro_ls_x	gyro_ls_y	gyro_ls_z	acc_lt_x	acc_lt_y	acc_lt_z	gyro_lt_x	gyro_lt_y	gyro_lt_z	EMG_r	EMG_l	act
-6304	-4456	13928	66	66	-14	-14992	1056	-6112	16	36	47	-3944	-4264	16016	40	21	17	-8336	5352	13512	50	17	-13	-15624	-1528	-5800	1	46	63	-2768	4904	16496	129	-4	-18	119	133	5
-6384	-4644	13980	63	72	-38	-15112	976	-6008	21	38	46	-4192	-3896	16200	56	18	9	-8440	5600	13568	50	12	-9	-15448	-1368	-5576	6	48	62	-2936	5120	16456	115	7	-37	118	134	5
-6644	-4708	14164	55	84	-59	-14944	1008	-6160	30	44	42	-4240	-3896	16280	41	16	-2	-8192	5448	13576	49	8	-9	-15400	-1352	-5864	-33	50	62	-3080	4968	16040	94	18	-52	117	134	5
-6536	-4656	14156	45	77	-89	-15144	1040	-6168	45	41	43	-4576	-3880	15928	21	2	-24	-8336	5304	13456	51	22	-16	-15440	-1648	-5552	-45	35	55	-3264	5160	15976	86	9	-58	117	134	5
-6500	-4392	14220	37	74	-101	-15048	1280	-6240	67	45	40	-4768	-3680	16200	-13	-6	-41	-8440	5320	13264	53	12	-21	-15504	-1472	-5960	-27	24	52	-3376	5344	15936	78	5	-60	115	134	5
-6628	-4252	14316	28	68	-109	-15072	1408	-6456	89	28	40	-4640	-3856	16040	-16	-6	-50	-8424	5472	13448	54	4	-19	-15432	-1280	-6088	14	10	45	-3392	5400	15672	61	4	-64	117	134	5
-6616	-4128	14156	33	53	-108	-15064	1384	-6696	82	19	28	-4792	-3808	16032	-27	-9	-60	-8496	5512	13504	49	-2	-21	-15416	-1120	-5840	46	-1	42	-3128	5464	16104	18	3	-63	118	134	5
-6636	-4020	14252	29	47	-85	-15096	1568	-6568	105	9	21	-4480	-3632	16232	-19	-9	-66	-8648	5760	13520	36	-17	-10	-15424	-1096	-5584	50	-15	30	-3064	5568	15808	-22	5	-53	116	133	5
-6492	-4036	14088	18	30	-62	-15040	1512	-6424	58	0	8	-4448	-3744	16120	-13	-9	-53	-8464	5632	13464	24	-21	-4	-15408	-1104	-5912	43	-17	16	-2936	5672	16192	-62	9	-44	116	134	5
-6592	-4324	14184	0	19	-61	-15088	1568	-6176	16	3	-6	-4320	-3696	16280	-16	-14	-39	-8384	5528	13528	6	-24	-13	-15608	-992	-5792	63	-20	-5	-2760	5376	16216	-86	29	-29	115	133	5
-6472	-4376	14088	-18	24	-60	-15080	1336	-6152	17	-4	-25	-4128	-3576	16040	-30	-30	-26	-8288	5968	13488	-17	-22	-22	-15672	-1016	-5584	49	-28	-24	-2728	5328	16048	-96	28	-25	114	133	5
-6456	-4340	14032	-29	32	-61	-15040	1288	-6344	36	-7	-35	-4008	-3616	16248	-51	-41	0	-8384	5504	13576	-33	-13	-16	-15536	-1104	-5696	18	-32	-39	-2880	5192	16152	-82	30	18	116	132	5
-6460	-4284	14252	-49	38	-69	-14976	1272	-6064	33	-7	-47	-4144	-3880	16152	-62	-51	15	-8400	5504	13440	-44	-4	-29	-15480	-1152	-5640	-1	-30	-62	-2984	4672	16032	-68	36	56	117	132	5
-6508	-4152	14168	-66	19	-60	-15048	1336	-6120	43	-7	-52	-4176	-3928	16248	-72	-65	36	-8224	5368	13872	-57	-9	-25	-15400	-1432	-5512	-15	-30	-62	-3000	4600	16104	-67	40	78	118	133	5
-6592	-4160	14312	-82	18	-53	-14960	1384	-6248	26	-4	-63	-4168	-4176	16264	-70	-57	57	-8392	5368	13752	-61	-21	-20	-15360	-1576	-5800	9	-25	-65	-2920	4640	16200	-69	37	79	117	134	5
-6472	-4228	13936	-99	7	-53	-14864	1408	-6336	-24	-7	-57	-3936	-4144	16160	-53	-61	70	-8488	5384	13328	-68	-24	-23	-15328	-1664	-5672	25	-27	-60	-3072	4472	16120	-65	21	76	117	133	5
-6460	-4436	13924	-114	11	-56	-15096	1096	-6224	-57	-14	-63	-3880	-4224	16032	-20	-63	77	-8208	5336	13568	-74	-28	-24	-15528	-1768	-5672	14	-30	-61	-3032	4392	16224	-65	25	75	117	133	5
-6436	-4632	13932	-126	30	-67	-14944	1104	-6168	-76	-16	-65	-3824	-4240	16232	-24	-58	87	-8200	5304	13568	-69	-24	-27	-15264	-1768	-5632	-3	-30	-52	-3072	4232	16160	-71	24	85	116	132	5
-6384	-4788	13936	-132	59	-76	-15072	1000	-5816	-76	-20	-66	-3760	-4336	16080	-18	-58	81	-8312	5120	13456	-59	-10	-34	-15512	-2000	-5624	-7	-25	-50	-3080	4008	16656	-53	27	74	115	130	5
-6360	-4896	13976	-127	70	-87	-15024	800	-6064	-50	-5	-55	-3896	-4384	16208	-20	-63	78	-8544	5136	13776	-38	5	-26	-15376	-1912	-5432	12	-20	-34	-3272	3832	16272	-42	23	44	117	130	5
-6648	-4928	14204	-119	71	-100	-15048	808	-6480	-14	-8	-51	-3968	-4416	15888	-30	-58	65	-8376	4816	13632	-21	2	-15	-15192	-1848	-5576	25	-17	-23	-3312	3744	16392	-21	13	25	118	130	5
-6676	-4712	13996	-111	51	-105	-15112	816	-6224	-8	-6	-44	-3928	-4536	15984	-30	-49	62	-8232	5280	13488	-11	-17	4	-15424	-1960	-5552	1	-22	-7	-3392	3784	16384	-10	2	16	116	130	5
-6676	-4584	14004	-82	55	-80	-14960	552	-6200	6	1	-37	-3640	-4704	15808	-35	-45	55	-8240	5120	13680	-2	-21	-3	-15456	-2120	-5632	-9	-20	-1	-3320	3896	16432	8	2	14	117	131	5
-6488	-4600	13964	-54	43	-53	-14984	640	-6344	17	2	-28	-3864	-4592	15816	-21	-40	43	-8352	5088	13592	8	-5	-8	-15496	-1952	-5848	-17	-22	12	-3280	3968	16312	6	4	8	116	131	5
-6524	-4816	13984	-54	31	-41	-15112	696	-6176	7	-7	-20	-3848	-4624	15800	-9	-38	25	-8280	5192	13520	20	-2	-14	-15480	-1864	-5720	-8	-25	23	-3072	4064	16352	16	-4	-15	115	131	5
-6528	-4944	13908	-45	29	-46	-15016	824	-6104	-26	-8	-14	-3736	-4496	16080	6	-20	21	-8336	5056	13640	25	7	-15	-15320	-1864	-5528	6	-26	33	-3024	4168	16392	16	-16	-29	116	130	5
-6716	-5016	13816	-38	29	-53	-14968	792	-6320	-52	-11	-1	-3408	-4496	16032	12	-13	19	-8448	5032	13464	31	-1	-7	-15360	-1720	-5296	23	-20	42	-2952	4080	16368	25	-13	-25	117	130	5
-6644	-4888	13812	-23	43	-62	-15056	592	-5912	-50	7	-4	-3320	-4656	15776	3	-12	18	-8448	5424	13648	35	-4	1	-15520	-1624	-5512	24	-8	40	-2688	4192	16448	37	-1	-14	117	129	5
-6596	-4876	13932	-11	39	-70	-15016	680	-6256	2	16	7	-3488	-4544	16032	3	-1	16	-8224	5200	13544	38	-4	-3	-15600	-1552	-5664	4	-2	42	-2600	4216	16352	48	3	-10	115	130	5
-6388	-4968	13812	-10	37	-84	-15128	872	-5808	52	24	22	-3848	-4528	16176	14	2	14	-8272	5112	13560	41	-5	-12	-15568	-1712	-5256	-12	4	39	-2688	4224	16224	60	12	-8	114	130	5
-6612	-4988	14008	-21	45	-100	-15008	1120	-6224	62	25	27	-3744	-4520	16168	14	5	12	-8144	5240	13576	40	10	-20	-15496	-1736	-5560	-8	6	42	-2856	4472	16136	69	15	-15	114	130	5
-6416	-4804	13876	-24	59	-112	-15088	1216	-5984	27	26	32	-3896	-4176	15872	36	9	24	-8360	5376	13472	41	18	-24	-15440	-1504	-5720	5	13	41	-2752	4520	16192	70	3	-25	115	129	5
-6544	-4660	13868	-26	66	-106	-15000	1232	-6072	-3	26	20	-3856	-4032	16240	34	10	35	-8424	5472	13432	39	15	-28	-15552	-1360	-5640	1	10	39	-3008	4696	16080	61	-6	-21	115	129	5
-6604	-4760	13924	-19	73	-92	-14984	1016	-6240	-12	24	23	-4016	-4040	16160	21	0	24	-8200	5320	13568	28	14	-28	-15480	-1496	-5728	-12	7	34	-3064	4632	15952	50	0	-6	114	128	5
-6512	-4804	13908	-20	59	-73	-15136	1184	-6248	9	23	20	-4232	-3920	16224	12	-3	14	-8440	5376	13736	30	13	-31	-15496	-1480	-5544	-7	13	29	-3080	4464	15960	43	4	-5	113	128	5
-6672	-4832	14120	-21	50	-70	-15120	1248	-6536	1	14	8	-4296	-3936	16352	13	-4	7	-8464	5512	13576	21	11	-25	-15200	-1392	-5760	0	4	22	-3280	4752	16008	49	-1	0	112	129	5
-6568	-4780	13932	-29	37	-71	-15128	1280	-6296	-1	12	1	-4304	-3920	15912	-3	-5	7	-8272	5424	13544	13	-3	-24	-15480	-1440	-5672	5	8	29	-3192	4672	16120	50	-5	-4	110	129	5
-6712	-4732	13956	-33	42	-75	-15112	1168	-6176	-2	9	-5	-4200	-3944	16056	-16	-16	13	-8368	5336	13544	13	-21	-22	-15536	-1712	-5528	15	1	24	-3072	4728	16160	33	-4	-2	112	129	5
-6740	-4708	13960	-45	33	-73	-15008	1272	-6312	2	8	-13	-4008	-3832	16088	-14	-21	16	-8216	5424	13648	19	-19	-21	-15600	-1416	-5640	34	-8	19	-3064	4808	16336	19	-6	2	114	129	5
-6664	-4812	13968	-59	36	-74	-15024	1216	-6320	-2	9	-15	-4152	-4064	16448	-14	-17	27	-8152	5264	13528	13	-8	-32	-15528	-1384	-5704	24	-13	15	-3080	4744	16544	4	-1	1	114	129	5
-6540	-4864	13968	-64	23	-73	-15144	1272	-6264	-6	-4	-24	-4248	-3864	16096	-6	-24	36	-8264	5240	13608	7	2	-27	-15416	-1320	-5456	9	-13	9	-2984	4832	16280	-11	1	3	115	129	5
-6600	-4936	13712	-71	20	-75	-15064	1048	-6352	-1	-1	-32	-4104	-3880	15992	-22	-31	46	-8328	5384	13656	-3	-3	-26	-15400	-1400	-5472	-4	-8	8	-2928	4672	16072	-15	0	2	115	130	5
-6540	-4928	13692	-64	34	-68	-14968	928	-6200	-3	-3	-41	-4048	-4008	16368	-22	-27	46	-8408	5384	13544	-13	-13	-23	-15336	-1576	-5560	-8	-5	3	-2848	4536	16200	-1	0	13	113	131	5
-6576	-4940	13780	-67	32	-71	-14984	1008	-6288	-16	-1	-41	-3768	-4056	16320	-33	-25	55	-8368	5408	13568	-12	-21	-28	-15512	-1568	-5768	-5	-1	-6	-2968	4600	16320	13	6	28	116	131	5
-6628	-5016	13868	-70	38	-77	-15024	1064	-6272	-12	9	-43	-3672	-4216	16208	-34	-19	55	-8312	5248	13424	-9	-16	-29	-15584	-1752	-5632	10	-10	-7	-3168	4552	16016	11	6	27	117	132	5
-6360	-5016	13752	-78	47	-81	-15056	888	-6112	4	6	-40	-3848	-4272	16160	-29	-19	52	-8304	5032	13432	-2	-14	-31	-15416	-1752	-5480	32	-15	5	-3248	4224	16064	-2	0	14	117	133	5
-6520	-5104	13692	-79	53	-91	-15000	880	-6152	34	6	-33	-3872	-4328	16128	-25	-11	56	-8304	5232	13736	2	-13	-31	-15240	-1704	-5608	60	-9	14	-3072	4136	16120	-6	-16	-4	118	132	5
-6680	-5088	13900	-87	55	-84	-14936	1016	-5984	12	8	-36	-3648	-4344	16088	-29	5	56	-8248	5264	13640	4	-25	-29	-15456	-1688	-5680	59	-6	18	-2952	4144	16192	5	-18	-6	118	132	5
-6588	-4960	13520	-74	61	-72	-14984	824	-5864	-5	12	-37	-3752	-4448	16128	-19	1	56	-8392	5216	13464	11	-24	-34	-15408	-1680	-5448	45	-3	13	-2920	4248	16328	17	-15	0	117	131	5
-6508	-4936	13692	-59	77	-45	-14928	1056	-6088	-19	17	-30	-3696	-4328	15784	-36	1	55	-8208	5320	13544	14	-14	-32	-15352	-1584	-5600	23	3	18	-2816	4296	16512	14	-13	4	118	130	5
-6440	-5168	13780	-37	76	-16	-15048	920	-6168	-10	10	-27	-3984	-4496	16080	-28	-15	55	-8360	5200	13704	14	2	-25	-15448	-1720	-5672	-1	5	13	-2920	4200	15992	22	-10	11	120	130	5
-6640	-5452	13996	-41	80	-18	-15120	872	-6456	1	6	-28	-4176	-4408	15880	-34	-23	58	-8448	5424	13768	13	13	-23	-15456	-1696	-5536	-22	10	15	-2920	4208	16504	37	-18	26	119	130	5
-6868	-5328	13816	-48	65	-34	-15088	864	-6696	-47	3	-24	-4224	-4456	16112	-16	-43	61	-8232	5264	13640	8	11	-20	-15288	-1736	-5656	-29	17	9	-3176	4152	16168	54	-17	41	118	130	5
-7020	-5172	13772	-53	43	-50	-14864	840	-6480	-28	-2	-28	-4128	-4640	15832	-13	-45	70	-8224	5232	13416	14	22	-23	-15336	-1768	-5952	-42	12	17	-3272	4000	16432	80	-16	47	119	129	5
-6864	-4960	13704	-35	29	-33	-14872	976	-6536	-24	1	-24	-4016	-4592	15928	6	-39	76	-8328	4984	13344	15	17	-22	-15384	-1840	-5608	-24	13	23	-3208	4240	16384	99	-9	42	119	130	5
-6656	-4996	13624	-20	33	-14	-14920	960	-6288	-10	-3	-16	-3824	-4520	15976	24	-33	74	-8336	5072	13616	25	8	-18	-15472	-1896	-5800	-2	7	35	-3192	4512	16400	91	-16	24	117	130	5
-6512	-5228	13704	-12	48	0	-15008	848	-6200	-28	-4	-10	-3840	-4384	16000	42	-35	64	-8128	4960	13384	37	8	-17	-15384	-1904	-5504	16	-4	46	-3184	4552	16352	70	-7	1	119	131	5
-6772	-5548	13804	-16	41	-19	-15088	688	-6248	-50	-7	-1	-4064	-4328	16192	38	-34	56	-8400	5344	13720	53	13	-10	-15528	-1688	-5872	21	-12	50	-3200	4792	16384	43	-10	-19	120	132	5
-6800	-5528	13724	-12	35	-40	-14848	616	-6376	-33	-11	1	-4136	-4360	16048	28	-30	44	-8424	5144	13648	55	18	-1	-15576	-1512	-5776	6	-10	42	-3024	4664	16400	29	-7	-34	119	131	5
-6840	-5328	13676	-8	37	-53	-14856	696	-6536	0	-6	2	-4136	-4240	15944	16	-20	33	-8384	5296	13416	48	13	5	-15264	-1328	-5680	-40	-8	40	-3112	4536	16304	26	3	-47	118	132	5
-6772	-5172	13484	8	34	-59	-14968	704	-6304	23	-4	17	-3816	-4208	15864	12	-14	10	-8240	5280	13328	53	14	5	-15352	-1552	-5776	-55	-13	42	-2936	4576	16016	38	23	-53	118	132	5
-6704	-5104	13532	20	47	-58	-14816	784	-6256	52	1	22	-3808	-4256	16000	21	-9	-18	-8400	5216	13440	51	-1	-8	-15536	-1480	-5664	-35	-19	46	-2896	4800	16048	33	28	-64	118	132	5
-6712	-5240	13680	33	56	-52	-15056	904	-6096	58	3	34	-3592	-4256	16152	30	3	-46	-8400	5288	13584	54	-7	-14	-15480	-1464	-5624	15	-16	54	-2800	4592	16144	31	31	-67	118	132	5
-6700	-5364	13768	27	45	-64	-15080	952	-5968	48	8	36	-3536	-4088	15904	30	11	-58	-8320	5408	13456	45	-21	-25	-15432	-1472	-5920	53	-17	56	-2832	4928	15872	9	39	-88	118	132	5
-6604	-5268	13588	32	47	-60	-15088	992	-5848	36	17	35	-3712	-3928	16112	16	6	-69	-8272	5176	13552	44	-26	-33	-15176	-1520	-5560	78	-28	53	-2664	5192	16184	7	30	-87	117	132	5
-6628	-5112	13584	32	68	-62	-14912	1064	-5944	27	24	32	-3504	-3896	16336	-17	10	-74	-8352	5272	13664	30	-29	-29	-15432	-1376	-5616	110	-27	39	-2688	5200	15984	-13	36	-62	117	132	5
-6712	-4960	13572	35	82	-50	-15000	1104	-6056	31	30	34	-3648	-3888	16208	-55	4	-74	-8256	5440	13576	21	-10	-26	-15480	-1096	-5472	80	-31	11	-2784	5128	16208	-46	40	-39	116	132	5
-6664	-4988	13556	39	82	-40	-15072	1008	-5984	51	36	26	-3656	-3768	15984	-64	6	-71	-8384	5640	13480	-1	-7	-25	-15608	-1016	-5392	-11	-26	-3	-2944	4760	15952	-54	50	-21	115	132	5
-6716	-4984	13956	33	104	-29	-15080	1120	-6336	51	26	21	-4120	-4136	16248	-52	2	-50	-8280	5400	13424	-20	2	-34	-15592	-1136	-5480	-21	-28	-10	-2928	4592	15848	-38	42	6	116	132	5
-6632	-4828	13860	17	69	-25	-15128	1488	-6448	46	23	7	-4088	-4032	16384	-40	6	-26	-8288	5448	13560	-32	-5	-40	-15504	-1440	-5488	-48	-18	-26	-3024	4656	16120	-31	33	25	118	131	5
-7004	-4784	13732	1	62	-10	-14936	1456	-6672	2	28	4	-4176	-3992	16048	-18	-2	1	-8320	5216	13456	-39	-11	-45	-15624	-1600	-5640	-25	-22	-41	-3168	4712	16256	-31	35	27	118	131	5
-6868	-4852	13596	-7	53	5	-14960	1320	-6520	-18	28	-5	-4008	-4080	16224	-18	-17	15	-8376	5136	13472	-30	-18	-41	-15568	-1736	-5280	39	-28	-37	-3136	4568	16200	-38	49	58	119	131	5
-6880	-5052	13680	-15	61	7	-15024	1200	-6192	-32	22	-21	-4232	-4208	16120	-10	-31	23	-8544	5344	13792	-45	-9	-35	-15504	-1472	-5760	72	-22	-36	-3024	4368	16376	-53	47	61	117	132	5
-6764	-5192	13716	-18	67	-3	-14976	1008	-6096	-5	9	-18	-4200	-4296	16096	-15	-34	25	-8440	5272	13392	-48	-11	-28	-15240	-1504	-5488	53	-11	-40	-3120	4024	16144	-44	37	59	117	132	5
-6852	-5236	13704	-22	63	-4	-15056	912	-6448	1	4	-24	-4280	-4048	16120	-6	-38	20	-8176	5072	13544	-52	-21	-28	-15464	-1600	-5608	3	-6	-39	-3312	3984	16416	-25	22	57	117	131	5
-7012	-5244	13716	-34	74	-19	-14864	1064	-6592	-5	1	-26	-4136	-4088	16016	-12	-40	19	-8152	5104	13608	-41	-20	-37	-15432	-1832	-5656	-29	-4	-31	-3328	3904	16416	3	17	58	118	131	5
-7172	-5260	13628	-33	56	-43	-14920	912	-6152	-4	5	-23	-3952	-4288	16264	-23	-44	22	-8304	5256	13800	-35	-5	-40	-15632	-1824	-5560	-40	-2	-27	-3312	4016	16528	16	12	55	122	131	5
-7000	-5072	13504	-27	54	-55	-14952	1016	-6288	15	18	-24	-3768	-4144	16088	-37	-45	13	-8352	5168	13744	-18	2	-34	-15496	-1928	-5720	-37	-3	-19	-3160	4128	16304	7	9	38	119	132	5
-6856	-5148	13652	-27	67	-61	-15232	960	-6328	58	12	-26	-3920	-4208	16440	-51	-55	3	-8336	5032	13576	-12	4	-31	-15424	-1872	-5760	-17	-4	-10	-3304	4072	16536	-4	0	27	119	132	5
-6760	-5148	13616	-22	64	-59	-15144	1144	-6448	82	0	-27	-4168	-4432	16112	-62	-42	4	-8104	5232	13888	2	0	-32	-15496	-1992	-5704	-2	-8	1	-3464	4000	16544	-1	-8	18	120	132	5
-6920	-5088	13712	-25	78	-43	-14936	1120	-6320	62	-7	-35	-3880	-4544	15888	-48	-25	25	-8376	5144	13704	4	-3	-32	-15456	-1928	-5568	20	-11	18	-3440	3984	16456	20	-10	11	119	133	5
-6904	-4940	13508	-28	79	-36	-15088	1136	-6368	53	-9	-32	-3856	-4624	15904	-29	-18	50	-8352	4944	13544	21	-9	-24	-15408	-2000	-5672	25	-11	22	-3472	3960	16536	44	-8	8	120	133	5
-7224	-4976	13716	-26	66	-23	-15056	1032	-6384	34	-8	-28	-3648	-4704	15816	1	-23	59	-8392	4992	13712	34	-7	-14	-15392	-1992	-5472	17	-14	24	-3192	4056	16360	54	1	2	122	133	5
-6944	-5108	13556	-19	73	-21	-14808	816	-6384	39	-13	-24	-3896	-4584	16024	41	-17	54	-8328	5120	13712	49	-1	-18	-15656	-1784	-5920	18	-15	31	-3264	4416	16504	33	4	-18	122	133	5
-6896	-5120	13500	-11	73	-8	-14976	808	-6032	37	-24	-14	-3752	-4456	16080	42	-4	49	-8136	5184	13656	55	11	-21	-15392	-1768	-5384	7	-24	37	-3288	4320	16296	20	-1	-38	121	132	5
-7060	-5384	13624	-12	78	-18	-15064	808	-6320	22	-24	-13	-3760	-4344	16264	18	2	35	-8408	5096	13656	55	5	-18	-15384	-1584	-5552	0	-23	35	-3192	4248	16264	7	-10	-42	121	133	5
-7152	-5380	13456	-3	83	-18	-15072	696	-6336	19	-21	-6	-3752	-4328	16032	-1	6	19	-8472	5064	13784	55	-9	-17	-15408	-1592	-5720	-4	-16	38	-3064	4248	16280	12	-12	-31	120	133	5
-6832	-5020	13276	15	96	-10	-14912	664	-6112	43	-23	-5	-3624	-4464	16200	-15	-2	21	-8232	5112	13864	50	-7	-28	-15544	-1560	-5256	0	-26	38	-3080	4168	16592	33	-2	-11	119	133	5
-6856	-5072	13336	37	117	3	-15000	888	-6080	60	-23	0	-3608	-4520	15912	-4	-3	23	-8152	5104	13624	51	-8	-27	-15496	-1592	-5368	4	-24	34	-3096	4312	16352	43	3	0	122	133	5
-6868	-5032	13328	48	137	23	-15112	712	-6096	54	-27	7	-3760	-4584	15816	17	-1	15	-8320	5168	13352	74	2	-25	-15408	-1672	-5520	35	-11	34	-3112	4392	16120	47	0	-5	120	134	5
-6908	-5040	13388	47	136	27	-14984	928	-6312	29	-22	3	-3752	-4560	15912	18	0	13	-8336	5064	13728	87	0	-19	-15472	-1680	-5480	62	-13	38	-3208	4296	16104	40	-21	-4	120	134	5
-7420	-5120	13724	19	69	1	-15072	944	-6296	13	-15	9	-3928	-4488	15936	38	3	29	-8144	5088	13608	89	4	-26	-15536	-1632	-5384	57	-14	40	-3064	4272	16184	43	-35	-3	120	134	5
-7484	-4868	13536	13	36	-10	-14992	792	-6184	-7	-4	7	-3808	-4536	15792	39	7	35	-8248	5216	13416	97	4	-26	-15552	-1576	-5304	55	-15	42	-2920	4224	16448	51	-31	3	118	133	5
-7120	-4716	13436	9	41	1	-14864	888	-6184	-15	-10	4	-3912	-4328	15912	64	5	39	-8352	5344	13696	94	8	-29	-15552	-1664	-5376	22	-10	39	-2936	4296	16248	63	-26	12	120	132	5
-7004	-4892	13388	19	44	21	-14936	840	-6168	-17	-6	11	-3832	-4144	16496	61	2	41	-8288	5016	13424	102	21	-23	-15512	-1720	-5576	11	-6	41	-2920	4304	16160	67	-25	6	121	133	5
-6976	-5120	13196	33	57	44	-15184	840	-6400	1	-12	9	-4080	-4088	16024	51	-5	29	-8312	5176	13704	106	24	-31	-15568	-1632	-5280	7	-11	41	-3320	4352	16528	65	-34	3	119	132	5
-6940	-5140	13460	42	89	59	-14816	976	-5984	-16	-10	7	-3936	-4016	16128	27	-8	25	-8176	5096	13608	110	29	-38	-15440	-1600	-5544	1	-15	38	-3296	4416	16392	57	-36	4	118	133	5
-7512	-5356	13812	22	81	22	-15064	968	-6448	0	-9	3	-3952	-4200	16096	10	-9	25	-8144	5032	13544	108	29	-37	-15472	-1584	-5280	-4	-16	46	-3024	4368	16488	54	-37	5	118	134	5
-7372	-4900	13356	25	83	12	-14976	1160	-6224	14	-11	10	-4008	-4216	16248	-3	-11	21	-8248	5520	13616	105	27	-44	-15464	-1544	-5544	-20	-13	42	-2920	4336	16320	72	-33	4	117	133	5
-7340	-4732	13480	24	76	12	-15016	1120	-6440	16	-15	9	-3904	-4208	15944	15	-2	28	-8272	5472	13632	90	26	-57	-15648	-1528	-5704	-46	-16	53	-3056	4336	16568	91	-24	-12	118	134	5
-7308	-4872	13524	24	80	18	-15080	1056	-6392	53	-21	-1	-4048	-4280	16232	24	-2	33	-8376	5408	13472	88	23	-55	-15464	-1656	-5384	-27	-22	52	-3136	4696	16208	89	-10	-30	120	134	5
-6928	-4876	13344	31	97	41	-15232	1024	-5960	69	-30	-5	-4192	-4080	16216	25	-4	34	-8440	5456	13456	79	31	-57	-15424	-1592	-5944	1	-20	49	-3320	4736	16072	68	-20	-48	118	133	5
-7236	-5076	13652	36	120	55	-14968	904	-5856	21	-40	-6	-4184	-4008	15976	28	11	33	-8752	5440	13280	87	18	-40	-15264	-1536	-5904	33	-11	56	-3184	4768	16128	44	-13	-50	118	133	5
-7400	-5012	13396	37	112	44	-15224	896	-6488	31	-46	-11	-4152	-4088	16032	22	6	33	-8584	5480	13384	69	5	-30	-15384	-1456	-5832	24	-16	43	-3080	4760	15984	35	-14	-40	117	134	5
-7096	-4428	13132	47	158	69	-15048	1160	-6256	48	-56	-18	-3968	-3944	15864	14	11	32	-8368	5640	13456	46	-8	-22	-15392	-1400	-5680	2	-24	35	-3064	4848	16160	48	-7	-12	116	132	5
-6984	-4672	13120	62	208	97	-15184	1024	-5752	77	-77	-24	-4064	-4008	16208	20	0	38	-8376	5592	13344	35	-11	-32	-15552	-1248	-5552	-15	-33	24	-3264	4792	16528	33	5	9	118	132	5
-7048	-4744	13240	74	209	104	-15344	832	-5856	145	-102	-22	-4032	-4016	16240	-11	-4	37	-8440	5464	13192	26	8	-41	-15552	-1336	-5752	-29	-32	18	-3136	4888	15992	29	15	12	120	130	5
-6788	-4772	12808	196	301	235	-15448	592	-5688	292	-132	-23	-4048	-4224	16104	-18	-20	29	-8376	5384	13392	6	-2	-42	-15560	-1512	-5568	-15	-31	12	-3024	4880	16168	9	-5	10	118	129	5
-7904	-5320	14208	250	344	309	-15304	416	-5704	412	-143	-24	-3920	-4344	16240	-32	-36	25	-8472	5472	13336	9	0	-40	-15544	-1384	-5600	22	-25	11	-2912	4536	16136	0	-1	14	119	128	5
-8172	-4504	14040	214	237	312	-15624	544	-6232	445	-144	-15	-4048	-4320	16144	-29	-52	13	-8400	5424	13424	9	-11	-31	-15360	-1520	-5480	39	-15	0	-2632	4776	15960	-2	-6	26	119	130	5
-8476	-4308	13500	146	203	283	-15120	736	-6296	391	-142	-9	-3904	-4480	16016	-14	-46	15	-8400	5472	13416	-4	-13	-32	-15544	-1392	-5480	18	-17	-6	-2736	4656	16320	19	-8	44	117	131	5
-8332	-4088	13416	72	141	230	-14936	936	-6112	283	-122	-10	-3832	-4152	15800	-6	-48	34	-8264	5264	13192	-11	-8	-38	-15640	-1256	-5560	-24	-20	-18	-3072	4504	16208	25	-4	58	116	131	5
-8440	-3776	13344	-1	83	183	-14912	840	-6008	269	-125	-4	-3824	-4256	15776	-13	-54	31	-8384	5384	13368	-18	-5	-43	-15544	-1568	-5448	-45	-21	-15	-3248	4504	16088	22	-14	51	118	132	5
-8068	-3840	13396	-64	45	165	-15040	920	-5856	122	-113	-4	-3952	-4376	16008	-11	-51	11	-8392	5296	13264	-26	-12	-45	-15424	-1536	-5664	-39	-22	-16	-3072	4560	16336	17	-23	43	119	133	5
-8056	-3896	13572	-123	36	147	-15160	1064	-5928	74	-105	5	-3768	-4304	16024	8	-37	-4	-8392	5424	13360	-38	-21	-58	-15456	-1488	-5544	-34	-27	-12	-3040	4512	16080	5	-30	40	120	133	5
-8320	-4332	13412	-141	41	120	-15064	1144	-6272	7	-81	14	-3688	-4368	16048	24	-32	-2	-8416	5288	13464	-55	-20	-63	-15792	-1496	-5552	-42	-37	-6	-3152	4480	16592	1	-21	50	117	133	5
-8440	-4428	13232	-140	33	79	-15256	1016	-6312	-84	-67	12	-3880	-4216	16088	53	-23	10	-8360	5216	13656	-69	-11	-79	-15592	-1448	-5712	-83	-50	-8	-3288	4280	16472	2	-3	46	118	133	5
-8320	-4304	13216	-136	45	46	-15112	832	-5928	-116	-56	11	-3544	-4032	16168	57	-14	40	-8320	5336	13504	-78	-7	-83	-15512	-1528	-5576	-90	-62	3	-3328	4368	16272	12	-6	30	117	134	5
-8344	-4484	13172	-130	34	21	-14992	760	-5632	-114	-44	0	-3568	-3864	16120	46	-11	60	-8576	5288	13824	-66	-16	-80	-15240	-1808	-5472	-33	-54	16	-3200	4360	15968	18	-8	5	117	134	5
-8308	-4556	13068	-111	19	11	-14912	656	-5688	-80	-33	-6	-3528	-3760	15808	14	-3	56	-8616	5272	13488	-69	-14	-74	-15144	-1672	-5440	13	-32	28	-3144	4168	16200	7	1	0	118	133	5
-8372	-4548	13072	-96	-6	6	-14928	320	-5760	-31	-19	-15	-3480	-3696	16136	-20	9	44	-8640	5024	13584	-38	-61	-10	-15112	-1680	-5552	42	-2	35	-2760	4048	16200	12	7	2	119	133	5
-8360	-4548	13112	-73	-18	-6	-14968	456	-5584	34	6	-12	-3288	-4040	15944	-41	15	29	-8440	5312	13568	-50	-90	-4	-15632	-1496	-5544	1	-5	25	-2816	4472	16440	41	18	20	119	135	5
-8132	-4560	13264	-59	-29	-3	-15184	624	-5792	54	20	-9	-3336	-4096	15968	-47	13	23	-8264	5112	13632	-72	-76	-6	-15672	-1456	-5528	-38	-14	31	-3296	3928	16360	47	24	31	118	135	5
-8112	-4468	13368	-45	-19	-3	-15416	768	-5656	59	16	-6	-3824	-4224	16136	-71	14	8	-8256	5008	13456	-36	-56	-15	-15576	-1832	-5344	-73	-4	48	-3192	4104	16264	44	35	-5	118	135	5
-8160	-4464	13212	-37	-13	-5	-15224	848	-5664	22	15	-14	-3784	-4368	16136	-74	17	20	-8328	5184	13696	-10	-53	-13	-15480	-2120	-5288	-5	10	62	-3128	4064	16568	53	18	-46	118	135	5
-8216	-4432	13184	-33	-11	2	-15096	712	-5800	-28	19	-9	-3728	-4424	16056	-72	9	28	-8336	4896	13568	14	-49	0	-15680	-1944	-5472	65	22	77	-3120	4224	16472	54	-8	-72	118	135	5
-8124	-4476	13228	-31	-18	-10	-15200	688	-5768	-48	24	-4	-3776	-4504	15952	-77	2	20	-8472	5064	13648	40	-32	16	-15600	-1760	-5816	95	23	95	-3008	4480	16536	55	-12	-71	119	136	5
-8212	-4408	13144	-25	-19	-8	-15168	560	-5776	-31	29	-3	-3920	-4456	16056	-56	-2	7	-8360	5096	13528	45	-29	14	-15712	-1632	-5664	66	34	126	-3112	4632	16360	20	-5	-51	120	136	5
-8196	-4464	13272	-13	-23	-13	-15080	544	-5832	5	33	6	-3864	-4440	15776	-63	-7	3	-8328	5168	13816	60	-5	16	-15824	-1416	-5752	69	47	149	-3136	4792	16128	6	-2	-19	120	136	5
-8084	-4476	13240	-10	-24	-10	-15096	576	-5504	46	35	13	-4048	-4408	15928	-48	-26	-36	-8440	5176	13872	61	26	23	-15936	-1152	-5904	40	35	144	-3456	5088	15952	8	-12	-12	122	136	5
-8148	-4396	13180	3	-22	-13	-15232	632	-5808	55	30	17	-4192	-4432	15968	-59	-25	-48	-8496	5128	13792	83	39	34	-15888	-1008	-6056	-14	22	114	-3608	5368	16424	-14	-11	21	117	136	5
-8160	-4364	13204	8	-25	-9	-15000	904	-5856	47	29	20	-4136	-4560	15952	-57	-38	-47	-8672	5312	13904	85	50	57	-15768	-1312	-6208	-2	-2	75	-3592	5408	16296	-109	-13	77	117	136	5
-8088	-4236	13224	6	-22	-23	-15208	912	-6008	22	24	17	-4184	-4520	15896	-37	-46	-45	-8648	5520	13752	76	57	65	-15696	-1448	-6048	63	-20	46	-3664	4928	16080	-234	-37	103	119	136	5
-8140	-4484	13260	5	-11	-23	-15216	672	-5992	10	11	22	-4320	-4720	15984	-14	-49	-36	-8784	5712	13696	63	29	78	-15576	-1296	-5488	103	-34	54	-3320	4240	16456	-234	-82	99	119	136	5
-8012	-4448	13228	17	-9	-22	-15216	648	-5848	14	8	23	-4008	-4592	15896	-5	-56	-23	-8536	5600	13416	54	32	87	-15664	-1152	-5456	127	-21	47	-2672	4176	16648	-115	-107	80	119	136	5
-8104	-4412	13224	18	-3	-26	-15248	672	-5912	25	1	25	-4104	-4872	15920	9	-49	-16	-8256	5424	13384	27	38	78	-15664	-976	-5144	146	-20	31	-2320	4472	16832	0	-112	89	120	135	5
-8032	-4296	13376	25	-3	-24	-15360	752	-6144	33	-11	35	-4096	-4968	16104	45	-35	-11	-8184	5680	13624	14	37	62	-15920	-792	-5488	81	-23	25	-2296	4872	16792	42	-82	99	117	135	5
-8076	-4380	13316	24	0	-23	-15320	752	-6072	38	-21	42	-3984	-5016	16040	93	-20	-6	-8448	5848	13968	27	67	73	-16176	-912	-5488	26	-14	11	-2736	5064	17056	-14	-76	92	116	135	5
-8040	-4332	13384	35	5	-27	-15296	712	-6120	32	-23	46	-3936	-4744	16336	135	-2	3	-8560	5960	13616	9	69	78	-15976	-1136	-5512	-36	-16	1	-3024	4360	16704	-58	-99	85	119	135	5
-8008	-4320	13232	37	9	-20	-15304	768	-5928	28	-33	52	-3872	-4416	16136	155	7	4	-8472	5624	13480	20	82	80	-15608	-1352	-5392	-86	-26	5	-2880	3848	16736	-28	-104	68	117	135	5
-8100	-4352	13360	34	10	-23	-15280	928	-6032	24	-39	50	-3992	-4112	16152	139	16	-14	-8616	5352	13288	9	76	96	-15656	-1496	-5360	-63	-20	8	-2640	3984	16592	28	-100	77	118	135	5
-8064	-4268	13384	34	8	-18	-15152	928	-5904	4	-39	57	-3872	-3848	16088	88	28	-37	-8768	5168	13400	14	100	107	-15216	-1496	-5264	-40	3	19	-2328	3976	16304	33	-96	69	118	135	5
-8036	-4312	13292	36	3	-20	-15232	992	-5776	-13	-33	52	-3800	-3824	16080	55	25	-52	-8632	5144	13400	48	61	94	-15280	-1312	-5304	-28	23	28	-2280	4224	16352	0	-82	38	117	135	5
-7952	-4268	13236	31	2	-19	-15152	1000	-5480	-19	-37	45	-3624	-4016	16176	44	26	-51	-8672	4592	13576	76	50	45	-15240	-1480	-5464	-32	27	33	-2160	4264	16296	-29	-77	12	115	134	5
-8016	-4208	13304	26	2	-19	-15184	1128	-5648	-23	-36	45	-3632	-3936	16320	41	27	-41	-8816	4688	13560	94	22	-33	-15360	-1688	-5664	35	46	48	-2624	3736	16368	-36	-68	6	117	134	5
-8032	-4172	13280	14	3	-19	-15216	1256	-5472	-13	-22	31	-3672	-3800	16352	42	25	-29	-8480	4792	12808	82	-9	-86	-15096	-1816	-5488	103	58	57	-2472	3392	16456	13	-54	2	118	135	5
-7912	-4172	13236	11	2	-26	-15192	1136	-5384	-4	-11	23	-3592	-3776	16096	28	25	-11	-8040	5056	12400	84	28	-119	-14776	-1704	-5080	156	82	52	-2424	3416	16008	26	-55	-2	118	135	5
-8028	-4224	13340	4	10	-23	-15368	1016	-5312	13	-7	18	-3568	-3720	16304	6	23	-2	-8312	5280	12512	46	67	-120	-14792	-1480	-5288	121	81	54	-2032	4040	15792	101	-46	-15	118	135	5
-7980	-4264	13276	-2	9	-26	-15128	1064	-5776	40	9	8	-3736	-3872	16224	-5	16	11	-8088	4872	12576	47	102	-106	-14952	-1392	-4992	61	99	44	-2152	4200	15968	75	-29	-7	116	134	5
-8004	-4220	13276	-5	19	-23	-15256	1088	-5840	47	12	-1	-3848	-4000	16160	-3	11	25	-8192	5304	12888	24	143	-84	-14880	-1544	-5456	23	119	32	-2336	4136	15808	47	-14	-11	117	134	5
