#Activity	sitting 
#ActivityID	5 
#Date 09-27-16-19
acc_rf_x	acc_rf_y	acc_rf_z	gyro_rf_x	gyro_rf_y	gyro_rf_z	acc_rs_x	acc_rs_y	acc_rs_z	gyro_rs_x	gyro_rs_y	gyro_rs_z	acc_rt_x	acc_rt_y	acc_rt_z	gyro_rt_x	gyro_rt_y	gyro_rt_z	acc_lf_x	acc_lf_y	acc_lf_z	gyro_lf_x	gyro_lf_y	gyro_lf_z	acc_ls_x	acc_ls_y	acc_ls_z	gyro_ls_x	gyro_ls_y	gyro_ls_z	acc_lt_x	acc_lt_y	acc_lt_z	gyro_lt_x	gyro_lt_y	gyro_lt_z	EMG_r	EMG_l	act
-8648	-4844	13552	97	-61	-145	-15480	-1724	-4872	-23	-77	-33	-2500	-4636	15772	42	-164	216	-7548	5932	13036	-88	127	-225	-16212	-436	-4044	101	-54	143	-2388	4528	16324	233	-18	39	126	127	5
-8724	-4832	13528	114	-18	-121	-15476	-1664	-4796	8	-89	-46	-2520	-4536	15704	37	-197	209	-7436	5964	12916	-101	114	-187	-16164	-320	-3900	116	-64	160	-2336	4568	16348	198	-16	37	127	127	5
-8736	-4772	13500	117	-35	-122	-15496	-1648	-4768	-16	-88	-25	-2532	-4556	15864	66	-162	195	-7516	5972	13048	-44	140	-223	-16212	-344	-3964	110	-90	159	-2348	4476	16420	238	-17	24	127	127	5
-8744	-4916	13512	132	-11	-176	-15400	-1644	-4724	-5	-118	-46	-2472	-4544	15760	76	-163	194	-7568	6028	12988	-77	155	-193	-16128	-364	-3916	92	-45	135	-2372	4600	16344	212	-5	29	127	127	5
-8724	-4848	13384	129	-59	-115	-15332	-1612	-4816	-26	-105	-9	-2380	-4568	15760	84	-169	228	-7544	5976	13056	-108	102	-202	-16208	-332	-4008	69	-69	160	-2372	4568	16328	239	-54	48	126	127	5
-8716	-4800	13476	140	-55	-138	-15460	-1660	-4708	-50	-108	-30	-2400	-4576	15780	50	-170	220	-7544	5956	12936	-66	131	-196	-16204	-372	-3980	100	-76	199	-2424	4548	16332	234	-41	49	127	127	5
-8644	-4808	13424	105	-57	-114	-15460	-1684	-4680	-37	-94	-19	-2448	-4548	15820	101	-156	195	-7524	5972	13020	-75	145	-202	-16204	-340	-4008	135	-51	174	-2344	4628	16344	249	-44	43	126	127	5
-8692	-4848	13464	101	14	-110	-15524	-1664	-4832	-26	-39	-43	-2456	-4496	15824	67	-154	204	-7484	5968	12948	-75	133	-235	-16224	-300	-3920	116	21	179	-2260	4636	16340	220	7	16	126	127	5
-8692	-4856	13344	169	-61	-126	-15476	-1644	-4724	27	-84	-26	-2444	-4540	15768	45	-128	202	-7540	5928	13092	-79	157	-191	-16268	-248	-3892	89	0	145	-2368	4560	16280	183	9	24	127	127	5
-8648	-4972	13524	119	-14	-124	-15388	-1624	-4848	13	-64	-47	-2420	-4536	15764	84	-152	221	-7452	5984	13076	-94	164	-249	-16232	-256	-3944	65	17	141	-2272	4628	16344	206	25	49	127	127	5
-8656	-4840	13564	125	-28	-128	-15464	-1616	-4736	-22	-14	-38	-2436	-4496	15928	76	-115	224	-7472	5952	13036	-85	155	-200	-16172	-324	-3936	23	14	154	-2312	4564	16276	270	16	62	126	127	5
-8660	-4848	13444	91	-20	-158	-15460	-1620	-4636	-38	-47	-32	-2496	-4556	15848	75	-126	215	-7584	5908	13024	-95	158	-184	-16188	-348	-3984	81	29	169	-2392	4620	16328	211	-7	39	126	127	5
-8720	-4876	13532	111	-3	-136	-15480	-1652	-4796	-32	-25	-37	-2496	-4608	15928	90	-122	177	-7532	5936	13060	-84	190	-191	-16120	-312	-3976	88	19	143	-2344	4540	16308	206	35	18	126	127	5
-8728	-4936	13528	103	-38	-141	-15484	-1620	-4648	21	-48	-8	-2476	-4484	15796	92	-134	152	-7480	5940	12988	-94	167	-201	-16252	-336	-4144	69	-2	144	-2316	4664	16344	203	4	0	127	127	5
-8692	-4888	13456	117	-28	-116	-15432	-1616	-4780	4	-29	-19	-2524	-4456	15744	40	-129	159	-7532	5976	13088	-72	162	-215	-16268	-272	-3976	69	3	138	-2412	4672	16296	135	-15	7	126	127	5
-8692	-4916	13424	91	5	-132	-15424	-1640	-4800	-5	-48	-45	-2568	-4380	15900	-2	-170	151	-7460	5928	13032	-93	136	-223	-16188	-320	-3848	90	-38	117	-2360	4652	16296	135	-25	2	127	127	5
-8728	-4840	13488	105	-49	-141	-15436	-1552	-4708	-8	-24	-36	-2560	-4408	15864	62	-150	143	-7540	5968	13000	-105	164	-207	-16244	-280	-3976	74	-30	114	-2356	4588	16388	179	-16	-3	127	127	5
-8756	-4840	13400	98	-15	-147	-15424	-1544	-4732	-31	-9	-33	-2520	-4512	15840	-31	-160	167	-7440	5976	12932	-98	130	-210	-16212	-272	-3928	60	-29	116	-2392	4660	16388	192	-4	30	127	127	5
-8636	-4856	13436	101	-25	-125	-15420	-1628	-4880	-15	-64	-91	-2516	-4488	15920	14	-170	205	-7512	5860	13080	-83	138	-229	-16192	-324	-3956	78	-41	99	-2400	4548	16312	202	-15	60	127	127	5
-8716	-4904	13480	114	-24	-185	-15512	-1656	-4804	-44	-46	-121	-2508	-4596	15792	-9	-174	219	-7480	5924	12980	-111	130	-230	-16244	-440	-3984	101	-49	107	-2340	4560	16292	190	-38	46	126	127	5
-8656	-4892	13484	120	-7	-131	-15496	-1652	-4836	-28	-26	-97	-2500	-4664	15676	38	-182	248	-7460	5920	13024	-87	135	-204	-16208	-384	-4068	106	-38	114	-2364	4440	16452	187	-33	22	126	127	5
-8728	-4856	13492	110	-54	-125	-15500	-1768	-4704	-46	-59	-23	-2424	-4664	15820	54	-158	212	-7508	5932	13092	-101	104	-225	-16200	-400	-3920	100	-35	139	-2320	4416	16476	217	3	8	127	127	5
-8696	-4936	13420	170	-55	-147	-15460	-1788	-4748	-21	-60	2	-2484	-4644	15740	73	-164	175	-7512	5892	13068	-80	147	-219	-16232	-356	-3864	93	0	134	-2360	4560	16372	214	10	10	127	127	5
-8680	-4944	13404	123	-23	-130	-15488	-1684	-4760	47	-31	17	-2448	-4648	15844	64	-142	203	-7560	5904	12896	-36	136	-204	-16232	-392	-3864	121	8	180	-2292	4548	16424	239	0	-5	127	127	5
-8704	-4764	13540	155	-73	-104	-15440	-1736	-4808	39	-44	18	-2484	-4628	15812	97	-127	142	-7568	5948	13064	-70	145	-222	-16228	-292	-4020	95	-35	155	-2376	4600	16472	218	-9	-8	126	127	5
-8676	-4876	13420	201	-37	-126	-15408	-1656	-4792	20	-62	54	-2536	-4588	15784	118	-113	146	-7540	6008	13028	-67	142	-216	-16204	-296	-3924	102	-32	202	-2384	4620	16316	199	-35	13	127	127	5
-8664	-4808	13432	117	-20	-105	-15456	-1576	-4744	0	-63	35	-2580	-4532	15916	100	-116	179	-7536	5948	13012	-106	159	-232	-16216	-304	-3936	122	-11	148	-2324	4616	16244	221	-25	4	126	127	5
-8684	-4884	13392	126	-43	-131	-15420	-1508	-4796	-28	-40	-16	-2564	-4476	15920	44	-110	201	-7472	5964	12936	-77	164	-199	-16220	-296	-3924	103	0	181	-2312	4612	16320	195	-16	51	127	127	5
-8732	-4848	13528	142	-25	-129	-15464	-1604	-4812	-65	-60	-16	-2548	-4392	15840	88	-115	192	-7456	5972	13016	-76	153	-216	-16292	-264	-3964	80	-16	130	-2360	4664	16268	232	-14	55	126	127	5
-8720	-4852	13560	133	-12	-124	-15364	-1600	-4764	-5	-49	-20	-2560	-4424	15856	44	-140	212	-7436	6004	13048	-99	153	-204	-16208	-316	-3932	74	-9	117	-2416	4668	16380	213	-17	71	126	127	5
-8728	-4828	13508	116	18	-140	-15412	-1624	-4732	-25	-81	-61	-2516	-4364	15788	68	-139	245	-7456	5964	13052	-76	136	-204	-16220	-276	-3988	74	-11	124	-2372	4580	16368	174	-41	33	127	127	5
-8716	-4844	13456	94	0	-159	-15540	-1660	-4672	-69	-45	-62	-2484	-4524	15868	51	-132	220	-7496	5956	13008	-93	129	-223	-16252	-308	-3924	91	-17	143	-2356	4652	16340	216	13	9	126	128	5
-8744	-4860	13464	69	-4	-128	-15468	-1592	-4624	-50	-70	-65	-2484	-4564	15796	1	-141	221	-7504	5948	12944	-101	166	-221	-16288	-264	-3960	57	-24	78	-2284	4636	16284	187	13	21	126	128	5
-8696	-4852	13400	149	-19	-138	-15496	-1616	-4788	-50	-74	-75	-2484	-4524	15808	20	-170	225	-7516	6012	13036	-114	128	-227	-16248	-308	-4028	44	-26	98	-2400	4572	16304	151	2	42	126	127	5
-8704	-4872	13408	104	-55	-127	-15464	-1708	-4744	10	-54	-58	-2524	-4540	15808	46	-159	210	-7540	5936	13028	-78	121	-224	-16280	-288	-3896	71	-55	85	-2400	4532	16320	169	-10	38	126	127	5
-8704	-4916	13352	133	-18	-121	-15380	-1688	-4748	-35	-70	-44	-2476	-4628	15852	3	-151	194	-7484	5880	13016	-128	118	-213	-16232	-352	-3864	64	3	131	-2356	4504	16408	187	27	36	127	127	5
-8712	-4928	13484	130	-5	-144	-15504	-1632	-4780	-17	-29	-26	-2476	-4652	15840	49	-154	195	-7524	5972	12980	-76	131	-203	-16200	-332	-4112	92	-23	91	-2440	4464	16408	219	-49	50	126	127	5
-8752	-4892	13576	138	2	-130	-15420	-1632	-4716	-27	-18	-23	-2496	-4548	15708	79	-175	173	-7508	5924	13004	-79	148	-264	-16176	-364	-4000	103	-40	126	-2420	4508	16428	195	-47	26	126	127	5
-8772	-4916	13468	114	-85	-120	-15492	-1676	-4832	-1	-75	-11	-2568	-4580	15764	101	-156	189	-7500	5916	13008	-64	119	-204	-16268	-440	-3864	111	-50	164	-2440	4492	16260	244	-49	17	126	127	5
-8668	-4964	13524	146	-88	-135	-15524	-1644	-4700	36	-31	-11	-2472	-4564	15684	59	-152	179	-7520	5956	13028	-73	158	-195	-16196	-388	-3844	103	-14	193	-2356	4480	16380	216	-39	12	126	127	5
-8696	-4880	13464	128	-31	-149	-15488	-1596	-4712	14	-55	23	-2516	-4464	15864	75	-130	173	-7472	5872	12960	-90	148	-179	-16176	-344	-3940	143	-34	201	-2328	4632	16304	212	-59	-6	126	127	5
-8744	-4864	13508	125	-70	-123	-15456	-1576	-4796	-29	-78	-10	-2532	-4420	15708	65	-163	156	-7472	5952	13040	-72	144	-188	-16264	-276	-3936	133	-46	170	-2304	4644	16280	189	-71	-3	126	127	5
-8700	-4864	13600	131	-26	-130	-15496	-1648	-4720	-21	-53	-30	-2468	-4456	15776	44	-173	149	-7576	5996	12992	-72	166	-201	-16204	-260	-3988	87	-23	155	-2276	4644	16300	227	7	-12	126	127	5
-8728	-4864	13448	119	-24	-109	-15396	-1656	-4748	-10	-36	-49	-2488	-4488	15840	42	-193	216	-7500	5936	12988	-86	138	-205	-16276	-332	-3840	74	-21	139	-2336	4708	16412	205	-40	20	126	127	5
-8688	-4828	13480	90	-36	-114	-15376	-1600	-4668	-35	-67	-50	-2456	-4420	15820	42	-174	190	-7512	6008	12896	-86	184	-231	-16188	-276	-3956	52	-19	109	-2292	4724	16356	185	19	12	126	127	5
-8720	-4848	13504	107	-10	-143	-15440	-1560	-4716	-41	-45	-41	-2528	-4436	15828	9	-143	212	-7484	5932	13020	-89	129	-201	-16220	-232	-3860	37	9	104	-2400	4700	16388	168	6	51	126	127	5
-8624	-4876	13472	116	-50	-115	-15464	-1636	-4700	28	-37	-30	-2432	-4436	15888	3	-173	201	-7496	5904	13048	-86	157	-204	-16188	-308	-3900	75	-28	99	-2340	4660	16392	161	46	32	126	127	5
-8720	-4876	13464	66	-7	-113	-15492	-1652	-4740	-24	-40	-82	-2484	-4488	15880	3	-141	191	-7532	5968	13100	-105	159	-231	-16220	-320	-4028	10	-5	65	-2332	4604	16320	152	18	46	126	127	5
-8680	-4844	13488	68	-21	-118	-15440	-1640	-4700	-25	-23	-54	-2496	-4540	15756	8	-150	188	-7472	5952	13032	-105	188	-228	-16180	-320	-3888	48	-13	62	-2368	4516	16344	174	34	37	126	127	5
-8652	-4844	13500	113	15	-151	-15456	-1672	-4864	-3	-12	-46	-2540	-4596	15756	2	-158	208	-7488	5932	13076	-79	159	-223	-16284	-400	-4020	41	-50	62	-2404	4452	16296	158	-19	29	126	128	5
-8628	-4880	13480	89	-30	-142	-15424	-1816	-4804	-48	-30	-22	-2544	-4608	15832	36	-163	177	-7480	5936	13080	-119	166	-249	-16300	-408	-3888	70	-3	89	-2352	4472	16364	180	4	31	126	128	5
-8732	-4880	13508	94	-35	-129	-15404	-1744	-4848	22	-39	-23	-2496	-4620	15884	4	-155	216	-7504	5956	13004	-95	153	-264	-16212	-376	-3996	109	-32	135	-2384	4508	16276	223	21	4	126	128	5
-8732	-4860	13580	100	-39	-108	-15428	-1700	-4832	-6	-62	-17	-2448	-4660	15804	44	-151	178	-7556	5916	13028	-79	118	-221	-16240	-344	-3884	69	-6	182	-2428	4464	16424	218	-18	12	126	127	5
-8680	-4872	13484	137	-5	-152	-15504	-1680	-4720	-16	-67	-21	-2480	-4592	15696	120	-142	164	-7484	6000	12996	-54	115	-205	-16156	-376	-3916	139	-26	151	-2400	4508	16388	214	11	-2	126	127	5
-8724	-4816	13424	136	-12	-108	-15452	-1720	-4664	-39	-107	11	-2444	-4548	15844	88	-145	195	-7492	5968	13052	-62	130	-194	-16212	-308	-3964	145	-25	160	-2344	4564	16364	219	-10	-2	126	127	5
-8704	-4860	13528	125	7	-156	-15488	-1700	-4752	2	-41	22	-2540	-4552	15912	74	-177	177	-7480	5944	13104	-78	132	-182	-16220	-400	-3900	141	-16	173	-2372	4544	16332	254	-30	12	126	127	5
-8716	-4912	13488	157	-13	-155	-15520	-1708	-4700	12	-56	21	-2532	-4504	15788	74	-145	169	-7424	5972	13020	-85	123	-210	-16240	-308	-3828	112	-18	162	-2308	4592	16332	210	-42	2	126	127	5
-8716	-4888	13312	135	-67	-111	-15496	-1604	-4692	12	-68	32	-2544	-4496	15920	70	-153	169	-7536	5968	13012	-79	119	-206	-16212	-292	-3984	120	10	167	-2384	4656	16292	228	-6	-9	126	127	5
-8676	-4840	13388	154	-34	-129	-15436	-1584	-4628	-29	-79	-18	-2500	-4508	15780	70	-149	191	-7496	5956	13112	-59	171	-182	-16232	-324	-3900	90	-28	168	-2352	4620	16276	213	23	30	126	127	5
-8660	-4788	13484	147	-1	-130	-15476	-1628	-4856	-13	-31	-40	-2460	-4500	15768	49	-136	197	-7484	5964	13048	-87	147	-236	-16292	-300	-3832	66	-37	140	-2388	4612	16380	196	-18	40	126	127	5
-8752	-4860	13432	154	-41	-183	-15452	-1652	-4764	2	-56	-35	-2516	-4448	15836	81	-162	170	-7488	5988	13036	-76	160	-230	-16136	-248	-3916	75	-16	146	-2320	4588	16364	185	-8	23	126	127	5
-8684	-4884	13428	133	-58	-140	-15444	-1588	-4672	-20	-48	-34	-2488	-4532	15712	73	-142	204	-7460	6044	12968	-79	155	-233	-16228	-368	-3928	64	-2	111	-2340	4604	16344	185	2	8	126	127	5
-8668	-4852	13492	132	-44	-121	-15480	-1668	-4780	-11	-46	-16	-2532	-4508	15820	41	-145	196	-7476	5980	13008	-115	172	-220	-16200	-340	-4040	56	3	137	-2420	4568	16272	191	8	59	126	127	5
-8744	-4868	13516	90	-41	-120	-15440	-1612	-4724	-26	-25	-57	-2488	-4524	15736	51	-167	183	-7452	6004	13076	-113	144	-208	-16164	-320	-3956	85	-1	118	-2428	4476	16272	192	-7	20	126	127	5
-8752	-4864	13556	103	3	-137	-15492	-1624	-4744	-13	-43	-47	-2560	-4528	15876	46	-152	175	-7548	5968	13032	-114	160	-215	-16204	-292	-4024	47	-6	114	-2360	4588	16228	192	-2	34	126	127	5
-8728	-4812	13416	112	1	-163	-15428	-1708	-4600	-51	-35	-50	-2488	-4516	15844	42	-155	172	-7508	5956	13080	-93	124	-218	-16236	-368	-3896	80	-28	118	-2384	4512	16380	182	-23	6	126	127	5
-8712	-4832	13560	117	-27	-151	-15432	-1628	-4828	-1	-60	-44	-2528	-4540	15808	30	-151	199	-7488	5932	13056	-67	155	-214	-16188	-388	-3948	70	-14	140	-2368	4592	16360	174	1	30	126	127	5
-8696	-4908	13472	126	-28	-137	-15508	-1656	-4784	-11	-52	-46	-2552	-4596	15892	3	-159	195	-7532	5912	13040	-116	167	-227	-16236	-336	-3984	107	-49	145	-2416	4548	16388	185	16	47	126	128	5
-8688	-4880	13568	156	-63	-128	-15444	-1704	-4820	11	-75	-12	-2608	-4540	15776	47	-162	193	-7496	5968	13076	-95	125	-225	-16128	-300	-4084	82	-52	110	-2392	4572	16236	194	-15	36	126	128	5
-8676	-4864	13484	132	-36	-130	-15396	-1588	-4756	-6	-60	-20	-2556	-4660	15892	68	-163	163	-7472	5936	13016	-98	123	-194	-16260	-392	-3948	59	-96	155	-2368	4508	16404	192	14	32	126	128	5
-8712	-4884	13540	130	-36	-124	-15428	-1608	-4792	-54	-85	-39	-2536	-4568	15896	67	-161	213	-7540	5960	13060	-119	141	-202	-16244	-392	-4084	67	-58	128	-2388	4532	16328	203	-13	48	126	128	5
-8756	-4872	13496	123	-38	-145	-15492	-1640	-4780	-11	-58	-25	-2528	-4512	15780	89	-154	226	-7524	5896	13056	-78	119	-185	-16124	-416	-3968	111	-48	136	-2344	4532	16448	253	-26	36	125	128	5
-8704	-4820	13424	112	-3	-137	-15444	-1676	-4764	-12	-89	-19	-2488	-4548	15856	35	-162	248	-7532	5936	13004	-80	135	-223	-16244	-368	-3980	91	-68	167	-2372	4584	16372	212	10	15	125	128	5
-8720	-4840	13476	112	-96	-109	-15516	-1692	-4604	-14	-100	-45	-2412	-4588	15876	76	-140	220	-7572	5956	13000	-81	157	-202	-16204	-320	-3836	98	-32	176	-2416	4600	16336	232	-57	31	125	128	5
-8716	-4808	13496	120	-40	-162	-15492	-1660	-4660	-41	-124	-48	-2440	-4568	15892	104	-137	212	-7520	5960	12976	-53	148	-197	-16232	-320	-3956	84	-30	133	-2344	4596	16288	237	-67	40	125	128	5
-8632	-4860	13564	116	-82	-124	-15512	-1724	-4688	-22	-91	-1	-2528	-4540	15848	74	-155	189	-7492	5976	13116	-122	130	-224	-16160	-296	-3896	110	-7	147	-2352	4540	16360	233	-25	27	125	128	5
-8720	-4868	13588	142	-21	-112	-15484	-1600	-4648	24	-41	-34	-2504	-4476	15768	45	-178	198	-7472	6044	13168	-80	100	-205	-16200	-276	-3928	127	-40	161	-2388	4636	16412	203	-39	14	125	128	5
-8660	-4864	13548	125	-44	-145	-15500	-1624	-4848	3	-59	16	-2508	-4488	15740	65	-171	162	-7480	5956	13028	-91	148	-181	-16208	-308	-4028	105	-32	148	-2364	4620	16372	230	-35	51	125	128	5
-8720	-4852	13392	142	-43	-114	-15468	-1580	-4736	4	-74	-33	-2488	-4472	15832	90	-160	192	-7524	5936	12928	-101	129	-211	-16204	-316	-3952	92	-21	126	-2304	4716	16304	181	-30	38	125	128	5
-8672	-4852	13464	153	-91	-141	-15472	-1600	-4712	-32	-43	-33	-2476	-4476	15884	48	-138	176	-7496	5944	13068	-109	107	-238	-16200	-276	-3972	77	-67	159	-2304	4604	16384	204	-19	28	125	128	5
-8752	-4872	13512	120	-31	-142	-15496	-1612	-4736	-13	-57	-28	-2468	-4476	15912	70	-149	174	-7508	6000	13032	-79	166	-183	-16272	-332	-3984	90	-73	125	-2276	4588	16344	197	-24	57	125	128	5
-8692	-4864	13512	127	-21	-136	-15484	-1648	-4764	2	-24	-19	-2452	-4444	15900	9	-147	186	-7484	5956	13040	-104	154	-205	-16228	-284	-3952	59	-26	124	-2292	4604	16344	209	65	51	125	128	5
-8672	-4908	13400	109	11	-132	-15512	-1624	-4796	-23	-42	-69	-2488	-4456	15796	18	-129	225	-7524	5948	13024	-91	173	-244	-16228	-296	-3948	72	-32	119	-2336	4596	16316	169	-25	38	125	128	5
-8704	-4840	13524	87	-21	-178	-15436	-1632	-4732	3	-5	-49	-2512	-4580	15836	19	-166	197	-7520	6000	12916	-93	152	-224	-16312	-284	-3864	62	-25	154	-2380	4628	16212	167	17	50	124	127	5
-8760	-4900	13564	95	-59	-162	-15556	-1656	-4796	19	-15	-71	-2568	-4608	15892	40	-149	202	-7432	5920	13028	-72	124	-205	-16252	-308	-4008	43	-41	186	-2376	4560	16288	195	21	56	124	127	5
-8652	-4880	13504	103	-21	-138	-15468	-1672	-4824	-21	-46	-19	-2520	-4560	15920	71	-131	184	-7476	5964	13024	-89	161	-231	-16208	-360	-4048	56	-33	104	-2364	4568	16344	183	7	62	124	127	5
-8736	-4936	13536	128	3	-179	-15480	-1664	-4640	-14	-50	-34	-2508	-4560	15660	68	-164	165	-7512	5920	13040	-75	133	-207	-16160	-312	-3940	101	16	133	-2332	4540	16248	188	13	43	124	127	5
-8692	-4840	13440	114	-19	-144	-15504	-1692	-4732	-26	-22	-17	-2540	-4552	15788	73	-157	169	-7480	5956	13020	-99	120	-173	-16248	-420	-3824	108	-75	119	-2336	4496	16300	180	-13	49	124	127	5
-8652	-4836	13432	94	-21	-128	-15508	-1672	-4652	-25	-47	-43	-2472	-4520	15856	44	-146	175	-7476	5900	12988	-102	133	-205	-16172	-352	-3936	73	5	118	-2372	4460	16320	159	4	42	125	127	5
-8672	-4884	13580	116	-55	-112	-15476	-1592	-4740	17	-51	-15	-2508	-4532	15828	43	-127	170	-7540	5960	12944	-95	137	-218	-16196	-320	-4056	119	1	152	-2392	4472	16316	221	14	17	124	127	5
-8680	-4832	13536	130	-25	-129	-15400	-1600	-4712	0	-64	-9	-2508	-4512	15836	85	-160	193	-7512	5976	13036	-99	142	-170	-16180	-268	-3952	115	-23	169	-2356	4536	16292	199	-18	11	124	127	5
-8684	-4956	13480	139	-25	-147	-15472	-1704	-4756	-12	-38	1	-2524	-4492	15840	56	-173	201	-7540	5900	13088	-58	136	-230	-16200	-320	-3828	124	-73	158	-2360	4528	16340	242	-16	14	124	127	5
-8676	-4884	13424	77	-25	-119	-15504	-1660	-4760	-27	-35	-26	-2480	-4576	15752	73	-169	170	-7492	5960	12996	-77	123	-186	-16280	-236	-3968	89	-34	146	-2380	4648	16316	250	-6	3	124	127	5
-8636	-4884	13552	133	-27	-126	-15496	-1608	-4740	-1	-55	-28	-2512	-4468	15848	59	-148	179	-7472	5952	13000	-79	122	-220	-16252	-200	-3948	95	-19	157	-2320	4616	16308	199	-31	13	124	127	5
-8672	-4880	13524	100	16	-182	-15480	-1688	-4808	-31	-29	-26	-2448	-4516	15812	54	-137	133	-7528	5920	13076	-102	108	-225	-16260	-272	-3896	80	-35	165	-2320	4612	16340	186	-7	36	124	127	5
-8760	-4868	13452	98	-23	-104	-15468	-1664	-4844	1	-43	-29	-2464	-4580	15964	64	-150	165	-7492	6016	12944	-88	132	-209	-16180	-228	-3924	56	-5	123	-2376	4624	16336	189	26	53	124	127	5
-8712	-4888	13596	114	-24	-109	-15396	-1664	-4708	10	-44	-11	-2504	-4476	15828	64	-152	160	-7452	5940	13012	-109	152	-184	-16264	-300	-3968	78	-8	126	-2404	4616	16360	228	-30	72	124	127	5
-8704	-4844	13556	132	-28	-153	-15492	-1620	-4812	-21	-41	-58	-2588	-4444	15776	63	-147	180	-7520	5896	12964	-72	178	-214	-16256	-308	-4064	99	-15	124	-2404	4552	16356	179	0	44	124	127	5
-8724	-4900	13636	124	8	-128	-15412	-1664	-4800	-25	-20	-62	-2568	-4480	15944	24	-172	169	-7532	5956	12944	-106	130	-195	-16228	-324	-4032	103	-49	117	-2388	4616	16340	170	27	4	124	127	5
-8656	-4828	13524	106	-3	-148	-15444	-1588	-4784	-14	-43	-25	-2456	-4476	15772	55	-119	194	-7508	5972	13024	-94	178	-201	-16160	-296	-3984	64	-27	88	-2392	4572	16432	216	-18	21	124	127	5
-8712	-4860	13580	95	-50	-120	-15444	-1652	-4784	-26	-52	-25	-2448	-4528	15804	50	-171	203	-7500	5972	13004	-94	139	-222	-16216	-352	-3892	77	-61	125	-2328	4620	16420	187	-17	17	125	127	5
-8760	-4856	13484	102	-19	-153	-15464	-1608	-4700	5	-77	-50	-2512	-4532	15796	16	-141	204	-7528	5924	13028	-86	135	-189	-16204	-356	-3888	97	-21	124	-2340	4548	16268	205	7	17	124	127	5
-8728	-4872	13532	95	-48	-149	-15464	-1672	-4696	-36	-75	-66	-2564	-4568	15812	48	-169	220	-7488	5936	12960	-98	132	-233	-16268	-312	-3876	92	-22	107	-2364	4612	16348	177	19	37	125	127	5
-8688	-4848	13448	120	-63	-147	-15460	-1660	-4704	-7	-29	-85	-2452	-4552	15848	33	-127	200	-7500	5972	13008	-60	182	-196	-16260	-304	-3940	77	0	135	-2280	4556	16308	178	-19	53	125	127	5
-8760	-4884	13448	114	-21	-142	-15464	-1724	-4732	-16	-32	-14	-2468	-4620	15824	52	-140	182	-7484	5940	13032	-57	119	-198	-16200	-284	-3896	69	-25	140	-2308	4600	16364	185	-1	45	124	127	5
-8708	-4852	13512	122	-12	-118	-15472	-1776	-4788	1	-31	-11	-2492	-4608	15776	64	-136	162	-7504	5916	12920	-123	168	-204	-16200	-336	-3916	93	-37	112	-2388	4612	16364	179	-23	56	125	126	5
-8624	-4844	13476	134	-38	-98	-15448	-1668	-4660	10	-6	30	-2440	-4568	15856	69	-155	206	-7480	5944	13092	-100	150	-176	-16228	-348	-3936	88	-9	128	-2396	4508	16352	187	23	39	125	127	5
-8684	-4828	13524	123	-65	-103	-15424	-1660	-4600	-8	2	-1	-2504	-4544	15892	69	-135	144	-7476	5952	13016	-92	124	-194	-16188	-352	-4040	87	30	111	-2408	4608	16376	174	-3	23	125	126	5
-8712	-4816	13440	102	-14	-110	-15432	-1616	-4712	-7	-21	6	-2580	-4456	15868	71	-140	161	-7496	5924	13048	-83	132	-185	-16212	-356	-3936	118	-1	123	-2364	4572	16284	157	-9	28	125	127	5
-8692	-4796	13524	140	-23	-122	-15468	-1628	-4688	-26	-66	-5	-2552	-4516	15820	38	-147	177	-7420	5888	13024	-73	130	-200	-16128	-376	-4008	84	-39	146	-2460	4572	16288	200	-37	31	125	127	5
-8656	-4952	13396	129	-55	-127	-15468	-1636	-4748	19	-85	-65	-2648	-4520	15812	77	-158	176	-7524	5900	12980	-105	129	-224	-16244	-344	-3916	72	-12	129	-2440	4564	16324	203	-24	42	125	127	5
-8648	-4856	13488	142	-71	-111	-15488	-1656	-4804	18	-54	-53	-2520	-4452	15784	64	-151	203	-7524	5976	12960	-89	142	-197	-16228	-312	-3944	80	1	113	-2412	4560	16184	175	-39	15	125	127	5
-8680	-4848	13424	121	-10	-119	-15476	-1636	-4868	-28	-60	-95	-2516	-4440	15788	23	-167	228	-7508	5936	13040	-98	132	-198	-16184	-300	-3912	79	-2	160	-2388	4620	16320	210	-34	38	125	127	5
-8700	-4840	13484	88	-15	-160	-15480	-1588	-4792	-24	-58	-86	-2508	-4520	15844	21	-197	226	-7504	5956	12992	-95	117	-216	-16228	-304	-3964	91	-64	145	-2360	4644	16372	207	-63	23	125	127	5
-8668	-4844	13472	88	-19	-144	-15496	-1656	-4752	-17	-95	-45	-2512	-4536	15828	24	-175	203	-7536	5944	12988	-83	119	-217	-16196	-336	-3872	99	-59	117	-2280	4564	16336	208	-23	33	125	127	5
-8732	-4844	13484	105	-56	-149	-15468	-1704	-4696	-30	-75	-28	-2416	-4540	15876	74	-178	193	-7460	5964	12964	-87	144	-201	-16240	-364	-3856	59	-38	139	-2296	4564	16416	190	-2	52	125	126	5
-8740	-4876	13460	95	-18	-139	-15500	-1700	-4744	-38	-59	-37	-2480	-4528	15724	68	-183	192	-7460	5952	13116	-104	151	-191	-16280	-300	-3864	120	-44	147	-2320	4580	16408	196	-11	37	125	126	5
-8732	-4904	13532	118	26	-123	-15468	-1684	-4748	-27	-54	-50	-2456	-4532	15836	30	-150	170	-7456	6012	13108	-96	128	-201	-16212	-228	-3924	65	1	166	-2332	4536	16444	200	25	33	125	126	5
-8784	-4876	13496	92	-47	-115	-15484	-1688	-4688	2	7	-2	-2472	-4520	15776	45	-127	160	-7464	5988	12948	-78	137	-211	-16232	-316	-3928	71	34	129	-2364	4576	16356	189	12	35	125	126	5
-8752	-4848	13472	140	-39	-152	-15464	-1684	-4584	-10	-8	-7	-2476	-4528	15736	18	-95	168	-7448	5940	13024	-112	130	-220	-16172	-340	-3860	82	17	103	-2384	4596	16300	157	17	31	125	126	5
-8668	-4840	13584	108	15	-153	-15512	-1640	-4792	17	-32	-8	-2500	-4548	15836	73	-138	197	-7492	5972	13084	-98	175	-227	-16132	-368	-3796	61	-37	94	-2416	4588	16300	212	-23	31	125	126	5
-8704	-4836	13536	99	0	-115	-15468	-1680	-4760	-12	-38	-53	-2492	-4548	15880	70	-157	188	-7496	5940	13052	-99	178	-226	-16280	-300	-4012	75	32	125	-2376	4600	16344	175	3	37	126	126	5
-8740	-4816	13468	95	-40	-150	-15444	-1648	-4684	-18	-48	-26	-2548	-4452	15788	81	-188	198	-7476	5976	13028	-70	132	-198	-16204	-292	-4012	107	-6	105	-2384	4596	16356	161	-28	39	126	126	5
-8704	-4836	13544	118	-43	-161	-15452	-1628	-4836	-17	-57	-24	-2588	-4500	15760	33	-150	177	-7520	5916	13064	-78	159	-241	-16108	-368	-4040	82	-37	146	-2396	4596	16424	184	-22	32	126	126	5
-8740	-4884	13520	120	-11	-99	-15504	-1596	-4868	-1	-74	-55	-2576	-4500	15748	15	-183	196	-7528	5996	12916	-103	125	-202	-16168	-356	-3972	105	-31	137	-2336	4568	16264	187	-31	7	126	126	5
-8672	-4856	13468	115	-19	-135	-15468	-1616	-4704	-55	-33	-48	-2552	-4520	15832	42	-192	181	-7508	5968	12996	-103	130	-212	-16256	-300	-3984	102	-73	150	-2352	4552	16320	190	-25	8	126	126	5
-8672	-4892	13496	95	-18	-126	-15488	-1632	-4760	-33	-63	-64	-2504	-4476	15764	49	-214	172	-7536	5876	13032	-74	109	-211	-16188	-356	-3888	100	-71	134	-2380	4580	16332	198	15	28	126	126	5
-8688	-4868	13464	102	-45	-122	-15472	-1680	-4672	-23	-66	-59	-2448	-4572	15668	35	-184	168	-7548	5940	12960	-88	133	-218	-16280	-340	-3952	108	-4	147	-2336	4556	16388	228	-29	10	126	126	5
-8716	-4908	13456	94	24	-143	-15468	-1748	-4840	-30	-63	-79	-2440	-4588	15892	43	-158	223	-7448	5980	13028	-120	136	-230	-16304	-288	-3968	104	-43	143	-2340	4556	16288	188	7	16	126	126	5
-8680	-4872	13536	108	-34	-161	-15496	-1704	-4720	-26	-64	-15	-2432	-4564	15804	64	-128	193	-7484	5992	12912	-81	150	-218	-16208	-300	-3960	63	-15	144	-2340	4536	16440	210	0	34	126	126	5
-8760	-4864	13556	145	-41	-149	-15504	-1684	-4688	5	-20	26	-2376	-4600	15772	73	-127	214	-7516	5940	13084	-90	140	-199	-16204	-316	-3880	80	-33	151	-2348	4592	16424	212	13	37	126	126	5
-8716	-4836	13280	134	-44	-116	-15468	-1688	-4736	-9	-21	-7	-2488	-4600	15840	57	-129	168	-7544	5956	13056	-98	149	-207	-16252	-344	-3912	84	15	116	-2312	4572	16468	196	-5	25	126	126	5
-8700	-4904	13476	104	14	-140	-15476	-1720	-4684	3	-26	-30	-2536	-4500	15864	81	-115	179	-7528	5912	13040	-96	161	-180	-16184	-336	-3964	100	29	148	-2348	4572	16504	192	-14	41	126	126	5
-8720	-4884	13556	112	8	-155	-15476	-1572	-4812	16	-9	36	-2580	-4492	15828	89	-117	192	-7552	5984	13056	-80	126	-203	-16224	-324	-3872	72	17	127	-2392	4560	16348	165	-9	37	126	126	5
-8660	-4860	13544	126	-30	-114	-15456	-1576	-4880	26	-47	32	-2580	-4544	15744	53	-103	159	-7464	5980	13036	-84	113	-207	-16220	-360	-3956	43	41	142	-2420	4548	16424	216	2	31	126	126	5
-8692	-4876	13460	96	11	-136	-15452	-1580	-4772	-12	-43	-13	-2560	-4460	15788	77	-148	169	-7488	5936	13004	-95	150	-234	-16152	-352	-3976	91	-16	128	-2472	4580	16344	236	2	49	126	126	5
-8732	-4876	13476	115	-48	-114	-15440	-1560	-4808	18	-61	1	-2500	-4488	15848	99	-127	222	-7488	5932	13048	-123	160	-238	-16168	-320	-4020	88	-25	125	-2360	4588	16468	223	-26	27	126	126	5
-8712	-4872	13440	76	-56	-167	-15508	-1568	-4748	-31	-68	-29	-2560	-4488	15744	55	-186	194	-7536	5988	13096	-93	154	-217	-16252	-296	-4000	130	-72	145	-2380	4676	16380	230	-47	41	126	126	5
-8692	-4892	13484	81	-21	-161	-15476	-1628	-4772	-19	-45	-62	-2528	-4456	15772	21	-196	175	-7552	6016	12964	-72	125	-217	-16216	-256	-3924	126	-25	186	-2372	4584	16344	192	-61	46	126	127	5
-8700	-4928	13480	97	-39	-127	-15412	-1668	-4728	-11	-65	-67	-2556	-4552	15808	22	-191	191	-7504	5976	12980	-104	149	-200	-16176	-328	-4000	121	-34	127	-2336	4640	16240	174	-31	6	126	127	5
-8692	-4868	13344	102	-57	-121	-15480	-1648	-4772	-17	-38	-54	-2508	-4516	15844	59	-155	170	-7488	5968	13016	-104	134	-207	-16240	-328	-4068	124	-77	116	-2320	4648	16456	189	-48	-6	126	127	5
-8660	-4892	13480	89	-45	-168	-15492	-1700	-4732	-10	-41	-27	-2452	-4496	15768	37	-171	208	-7528	5928	12964	-74	134	-207	-16244	-284	-4032	128	-68	143	-2324	4552	16392	202	-39	20	126	127	5
-8736	-4816	13496	96	4	-173	-15516	-1648	-4772	-1	-79	-38	-2392	-4596	15812	46	-181	195	-7516	5988	12988	-67	149	-232	-16184	-308	-3868	102	-14	97	-2352	4624	16444	224	-9	38	126	127	5
-8696	-4816	13488	96	-51	-156	-15432	-1660	-4672	-38	-54	-35	-2452	-4600	15752	40	-170	166	-7460	6036	12972	-76	128	-221	-16224	-328	-3784	98	-49	137	-2268	4528	16428	220	-9	21	127	127	5
-8720	-4884	13476	107	-48	-127	-15452	-1664	-4704	-16	-31	16	-2412	-4536	15768	36	-133	177	-7504	5936	12976	-92	127	-216	-16192	-264	-3860	100	-12	124	-2312	4528	16284	204	13	26	127	126	5
-8720	-4860	13528	132	30	-142	-15572	-1632	-4648	2	-27	-31	-2444	-4512	15824	72	-109	189	-7528	5916	13072	-78	148	-241	-16248	-352	-3880	80	-19	123	-2296	4604	16464	145	-7	6	126	126	5
-8668	-4924	13488	110	-57	-138	-15444	-1692	-4776	49	-11	-5	-2460	-4532	15776	49	-119	167	-7568	5996	12988	-82	144	-195	-16228	-308	-3900	90	26	124	-2320	4524	16368	204	31	13	127	126	5
-8712	-4860	13456	132	-35	-138	-15436	-1664	-4672	25	15	8	-2488	-4524	15840	59	-97	148	-7540	5972	12968	-85	138	-236	-16152	-328	-3924	69	11	135	-2372	4624	16356	188	33	26	127	127	5
-8672	-4840	13564	151	32	-134	-15456	-1660	-4780	12	-47	1	-2564	-4544	15792	57	-141	162	-7568	5940	13056	-59	147	-226	-16212	-260	-3936	96	2	126	-2404	4656	16316	190	19	-3	126	127	5
-8696	-4836	13500	103	-35	-143	-15480	-1616	-4740	-4	15	40	-2484	-4444	15908	48	-121	180	-7524	5924	13048	-77	132	-247	-16104	-288	-4052	89	48	135	-2404	4632	16344	155	33	20	127	126	5
-8720	-4904	13388	159	-30	-109	-15456	-1620	-4792	46	18	9	-2572	-4484	15868	57	-108	164	-7488	5984	12948	-114	143	-202	-16292	-408	-4048	110	4	89	-2432	4624	16224	129	20	9	127	126	5
-8764	-4832	13440	124	-29	-110	-15440	-1552	-4864	19	-1	-86	-2632	-4492	15828	22	-97	161	-7484	6024	12932	-84	123	-184	-16224	-304	-3872	86	-37	128	-2440	4572	16308	160	36	44	127	127	5
-8708	-4816	13532	97	-14	-123	-15508	-1608	-4796	-26	-25	-64	-2640	-4448	15896	8	-147	159	-7536	5912	13068	-118	158	-228	-16200	-276	-3944	82	-19	82	-2396	4620	16332	188	17	48	127	127	5
-8680	-4880	13484	140	-13	-108	-15400	-1588	-4732	-27	-43	-54	-2612	-4420	15808	28	-138	171	-7476	6016	12984	-128	182	-193	-16208	-308	-3976	51	-6	56	-2372	4544	16300	177	-12	40	127	127	5
-8760	-4860	13404	88	-25	-142	-15428	-1628	-4860	-20	-25	-66	-2600	-4516	15852	35	-193	210	-7556	5968	13080	-93	142	-183	-16220	-312	-3932	73	-29	86	-2472	4616	16284	206	26	44	127	126	5
-8624	-4832	13464	47	-11	-144	-15452	-1608	-4772	-40	-39	-75	-2632	-4576	15788	27	-182	185	-7524	5928	13044	-87	207	-217	-16160	-320	-3948	58	-58	138	-2428	4568	16368	207	-10	68	127	127	5
-8772	-4852	13488	86	-7	-171	-15404	-1684	-4828	-38	-64	-119	-2564	-4588	15796	21	-178	225	-7512	5984	13040	-65	121	-234	-16200	-372	-4000	66	-53	121	-2424	4548	16428	163	-8	62	126	127	5
-8752	-4888	13456	118	-21	-140	-15456	-1668	-4852	-54	-74	-78	-2564	-4616	15728	24	-219	225	-7512	5980	13004	-94	166	-206	-16184	-368	-3980	50	-65	117	-2364	4468	16496	195	-30	44	127	127	5
-8684	-4836	13476	87	-16	-166	-15484	-1724	-4800	-41	-115	-51	-2476	-4640	15764	80	-213	207	-7524	5924	13024	-75	94	-165	-16188	-392	-3884	103	-72	154	-2412	4460	16348	213	-36	33	127	127	5
-8740	-4916	13460	116	-72	-128	-15476	-1740	-4844	-23	-147	-12	-2456	-4684	15856	62	-229	215	-7464	6012	13076	-61	123	-157	-16240	-404	-3880	105	-44	185	-2360	4492	16324	256	-80	48	127	127	5
-8680	-4856	13428	106	-32	-110	-15416	-1708	-4716	-16	-103	-35	-2432	-4604	15896	104	-186	185	-7532	5972	12988	-83	130	-215	-16252	-384	-3888	98	-62	195	-2336	4472	16264	262	-80	39	127	127	5
-8676	-4876	13564	161	-26	-171	-15460	-1688	-4692	-29	-95	-31	-2464	-4592	15872	86	-177	184	-7532	5864	13044	-80	138	-209	-16196	-360	-3884	106	-82	181	-2316	4492	16284	258	-22	44	127	127	5
-8696	-4912	13500	140	-67	-130	-15428	-1656	-4732	-21	-78	-15	-2432	-4504	15912	83	-164	199	-7540	5932	13064	-88	114	-235	-16180	-368	-3828	141	-45	200	-2280	4584	16288	253	-36	6	127	127	5
-8616	-4848	13440	146	-46	-93	-15428	-1712	-4744	-31	-108	14	-2428	-4464	15692	100	-147	185	-7504	5952	12944	-97	114	-211	-16308	-276	-3828	92	-46	160	-2276	4608	16384	222	-61	7	127	127	5
-8704	-4884	13404	143	-44	-140	-15476	-1636	-4668	-23	-68	-20	-2392	-4452	15812	99	-140	169	-7488	5996	13052	-68	137	-240	-16256	-284	-3840	94	-18	182	-2340	4688	16408	228	-18	10	127	127	5
-8652	-4896	13480	160	-10	-123	-15412	-1680	-4692	-6	-26	-11	-2440	-4436	15840	93	-149	193	-7456	6024	12968	-104	154	-232	-16228	-204	-3948	99	-15	141	-2276	4764	16348	225	-15	18	127	127	5
-8728	-4808	13524	151	-45	-115	-15532	-1580	-4608	10	-27	-5	-2404	-4384	15880	104	-123	144	-7460	5988	13032	-73	132	-218	-16256	-264	-3932	80	52	130	-2300	4704	16284	210	9	32	127	127	5
-8696	-4844	13616	110	-16	-106	-15468	-1644	-4752	36	-25	38	-2496	-4456	15784	72	-120	184	-7524	6008	12972	-55	158	-233	-16204	-260	-4000	101	2	119	-2284	4696	16352	188	22	37	127	127	5
-8700	-4836	13644	133	-30	-119	-15460	-1584	-4712	22	-6	-4	-2536	-4480	15856	48	-138	179	-7524	5960	13028	-93	170	-223	-16244	-252	-3932	86	16	101	-2396	4640	16212	147	5	78	127	127	5
-8720	-4848	13484	74	-4	-149	-15464	-1568	-4680	-55	15	2	-2564	-4428	15872	27	-147	209	-7464	5924	12984	-70	153	-235	-16212	-348	-4008	48	7	94	-2400	4652	16244	119	5	53	127	127	5
-8716	-4828	13512	89	-6	-145	-15428	-1588	-4748	-6	-25	-43	-2588	-4380	15864	5	-141	191	-7448	5976	13012	-85	154	-207	-16180	-308	-3960	65	-5	92	-2364	4600	16288	139	19	48	127	127	5
-8740	-4888	13584	113	-27	-129	-15432	-1576	-4748	-12	-28	-86	-2548	-4432	15860	0	-160	209	-7556	6000	13052	-98	163	-216	-16144	-360	-4020	56	-16	77	-2436	4580	16220	168	8	25	127	127	5
-8716	-4832	13412	80	-24	-127	-15484	-1624	-4840	-38	-61	-74	-2540	-4476	15844	9	-167	208	-7512	5968	13068	-76	157	-221	-16256	-312	-3872	83	-54	90	-2344	4536	16388	176	-28	38	127	127	5
-8716	-4840	13412	102	-34	-149	-15436	-1604	-4780	-47	-53	-60	-2540	-4552	15884	-1	-165	232	-7544	5900	13088	-123	145	-233	-16172	-380	-3912	86	-45	102	-2404	4476	16356	187	-21	65	127	127	5
-8676	-4856	13492	74	16	-149	-15496	-1716	-4740	-15	-62	-59	-2544	-4584	15884	10	-166	226	-7532	5952	13052	-86	128	-191	-16220	-324	-4088	97	-39	115	-2396	4504	16372	216	-31	42	127	127	5
-8692	-4936	13464	94	-15	-132	-15440	-1712	-4708	-31	-56	-45	-2448	-4604	15848	43	-176	213	-7476	5964	13112	-96	139	-218	-16224	-380	-3844	115	-43	157	-2372	4536	16388	205	-21	-29	127	127	5
-8712	-4884	13472	124	-18	-135	-15524	-1752	-4804	-22	-54	-30	-2456	-4712	15736	44	-173	180	-7520	6024	13052	-79	125	-230	-16204	-312	-4012	114	-45	138	-2356	4520	16240	216	-55	10	127	127	5
-8672	-4832	13432	150	-2	-129	-15484	-1716	-4688	-19	-18	-8	-2444	-4656	15776	85	-162	188	-7524	5992	12976	-96	110	-200	-16248	-292	-3928	113	-5	182	-2388	4584	16332	255	-32	16	127	127	5
-8684	-4816	13496	172	-48	-128	-15392	-1708	-4648	12	-53	-1	-2432	-4580	15864	78	-151	164	-7536	5936	13036	-76	152	-194	-16244	-312	-3960	108	17	150	-2292	4596	16248	266	-11	1	127	127	5
-8620	-4884	13420	111	-25	-123	-15440	-1680	-4700	-12	-74	31	-2496	-4536	15848	90	-92	154	-7456	5996	12988	-74	157	-199	-16188	-324	-3952	101	-9	135	-2212	4620	16372	254	3	21	127	127	5
-8672	-4864	13452	122	-2	-74	-15456	-1668	-4780	-22	-61	6	-2436	-4520	15764	58	-159	182	-7484	5960	13012	-65	140	-209	-16268	-332	-3852	123	15	169	-2364	4612	16388	228	6	15	127	127	5
-8688	-4904	13444	121	-26	-136	-15452	-1672	-4692	29	-37	7	-2480	-4460	15892	109	-117	213	-7484	5948	12968	-56	133	-213	-16224	-352	-3896	98	26	169	-2320	4640	16332	215	19	33	127	127	5
-8664	-4844	13464	141	-21	-134	-15496	-1592	-4804	16	5	45	-2468	-4476	15888	40	-110	142	-7528	6032	13024	-43	157	-206	-16228	-312	-3992	109	0	129	-2356	4588	16292	204	-3	22	127	127	5
-8736	-4800	13552	136	-26	-106	-15452	-1592	-4756	15	-25	22	-2556	-4396	15892	79	-128	166	-7460	5976	13088	-66	145	-193	-16216	-268	-4024	68	1	131	-2352	4688	16392	197	13	31	127	127	5
-8680	-4848	13420	124	-31	-136	-15456	-1580	-4684	-16	-7	20	-2588	-4400	15932	70	-128	151	-7496	5976	13052	-80	156	-180	-16232	-276	-4008	63	11	121	-2368	4684	16328	209	19	28	127	127	5
-8708	-4844	13568	85	-3	-141	-15424	-1576	-4716	-4	11	-24	-2596	-4372	15828	57	-140	171	-7504	5992	13040	-75	116	-224	-16172	-260	-3928	93	-26	114	-2404	4688	16272	162	27	-1	127	127	5
-8744	-4808	13560	75	-60	-143	-15420	-1592	-4680	-16	-31	-42	-2532	-4420	15836	26	-129	207	-7512	6032	13016	-102	125	-235	-16220	-236	-3852	88	2	86	-2388	4652	16304	142	24	26	127	127	5
-8588	-4888	13468	110	-22	-113	-15484	-1508	-4708	-19	-19	-60	-2592	-4456	15848	26	-121	180	-7508	5936	12940	-53	133	-207	-16204	-332	-3992	64	-6	117	-2364	4600	16320	190	0	38	127	127	5
-8712	-4888	13436	95	-11	-157	-15456	-1596	-4776	-5	-42	-95	-2620	-4568	15836	-25	-106	175	-7404	5956	13016	-143	148	-197	-16216	-392	-3904	34	-58	101	-2380	4552	16312	179	18	67	126	127	5
-8720	-4872	13496	96	-12	-148	-15452	-1588	-4772	-25	-7	-83	-2572	-4536	15764	-6	-142	204	-7492	5996	13088	-105	120	-209	-16272	-328	-4012	35	-38	69	-2404	4560	16380	208	-11	68	126	127	5
-8688	-4876	13516	90	5	-150	-15444	-1636	-4760	-32	-55	-82	-2508	-4584	15756	-2	-189	208	-7484	5936	12912	-100	143	-222	-16184	-352	-3944	87	-44	81	-2488	4552	16376	171	-29	48	127	127	5
-8752	-4868	13496	114	-40	-163	-15424	-1752	-4748	-47	-74	-76	-2548	-4676	15852	20	-181	185	-7444	5996	13012	-92	148	-224	-16180	-372	-3912	71	-47	80	-2424	4520	16300	163	-43	79	127	127	5
-8672	-4956	13524	100	-17	-138	-15500	-1708	-4688	-5	-74	-66	-2552	-4620	15712	27	-192	183	-7484	5956	12944	-66	135	-195	-16160	-404	-3956	101	-69	137	-2372	4444	16432	201	-63	41	126	127	5
-8732	-4884	13524	95	-20	-162	-15480	-1716	-4780	0	-75	-75	-2464	-4660	15852	52	-168	152	-7484	6008	13068	-64	123	-200	-16224	-392	-3956	115	-55	146	-2332	4468	16372	208	-36	43	127	127	5
-8696	-4888	13596	98	-58	-136	-15452	-1688	-4876	-53	-112	-59	-2440	-4588	15808	47	-190	209	-7520	5924	13020	-66	140	-197	-16240	-348	-3976	72	-63	156	-2368	4444	16352	250	-64	21	127	127	5
-8640	-4816	13576	104	-33	-138	-15444	-1700	-4824	-50	-87	-32	-2428	-4644	15752	82	-193	180	-7548	5976	13104	-84	118	-190	-16208	-352	-3864	92	-91	197	-2376	4404	16292	249	-63	26	127	127	5
-8696	-4892	13504	136	-39	-127	-15368	-1648	-4736	-48	-105	-20	-2424	-4624	15796	143	-169	216	-7476	5980	13140	-85	127	-203	-16208	-368	-3896	126	-45	220	-2300	4460	16316	297	-50	30	126	127	5
-8700	-4912	13580	138	-53	-137	-15464	-1772	-4732	-39	-106	-17	-2364	-4592	15800	134	-176	216	-7564	5960	13096	-68	124	-217	-16220	-336	-3868	124	-32	203	-2244	4536	16356	298	-31	31	127	127	5
-8692	-4908	13484	138	-64	-136	-15444	-1736	-4616	30	-72	54	-2432	-4500	15728	137	-124	192	-7492	6016	13052	-55	111	-212	-16244	-296	-3844	130	-45	200	-2284	4680	16360	293	-7	45	126	127	5
-8664	-4844	13472	135	-41	-143	-15516	-1732	-4700	-6	-83	10	-2412	-4528	15880	99	-137	182	-7504	5968	12940	-74	134	-200	-16264	-308	-3940	141	-32	189	-2312	4680	16344	246	4	-15	126	127	5
-8704	-4860	13360	162	0	-121	-15484	-1704	-4684	26	-37	61	-2440	-4456	15896	122	-128	171	-7428	5932	12988	-86	137	-223	-16264	-240	-3928	121	-13	178	-2280	4672	16348	243	-12	2	126	127	5
-8684	-4872	13440	147	-2	-129	-15440	-1628	-4688	-4	-19	40	-2388	-4428	15844	66	-113	145	-7452	5952	13016	-88	134	-197	-16268	-256	-3976	81	20	143	-2268	4764	16316	212	15	18	126	127	5
-8656	-4832	13568	112	43	-143	-15488	-1648	-4648	9	-8	50	-2544	-4376	15828	54	-122	129	-7504	5944	12964	-64	153	-227	-16168	-196	-4008	93	20	134	-2292	4764	16408	214	29	29	126	127	5
-8684	-4844	13480	121	-16	-102	-15492	-1612	-4760	10	-8	46	-2472	-4388	15940	69	-138	124	-7472	5972	12972	-86	146	-238	-16260	-248	-4068	68	49	106	-2272	4700	16296	171	52	48	126	127	5
-8700	-4844	13556	148	-35	-115	-15460	-1592	-4704	-13	32	37	-2572	-4348	15864	85	-84	175	-7524	5936	12996	-112	182	-231	-16244	-304	-3876	66	32	105	-2308	4680	16332	148	43	47	126	127	5
-8696	-4764	13480	154	24	-87	-15404	-1552	-4808	-4	2	2	-2512	-4388	15844	46	-107	164	-7500	5936	12952	-104	148	-227	-16192	-288	-3948	71	-7	92	-2384	4636	16388	115	16	35	126	127	5
-8760	-4780	13412	121	3	-106	-15428	-1572	-4808	-12	-19	-87	-2636	-4356	15692	-4	-124	185	-7496	6044	13008	-107	147	-211	-16180	-308	-3944	45	-9	54	-2400	4540	16380	164	14	22	127	127	5
-8720	-4872	13452	86	-46	-126	-15468	-1484	-4780	-5	-11	-81	-2616	-4412	15820	-31	-115	188	-7520	6032	12904	-123	142	-194	-16216	-340	-3904	45	-5	63	-2388	4568	16428	148	61	34	126	127	5
-8692	-4884	13432	92	-39	-164	-15452	-1536	-4716	-16	-44	-80	-2564	-4516	15948	-9	-129	225	-7568	5932	13028	-67	139	-232	-16276	-340	-4140	61	-18	88	-2388	4540	16312	137	17	27	126	127	5
-8668	-4852	13420	73	-32	-162	-15480	-1604	-4784	-39	-34	-83	-2540	-4504	15824	2	-168	193	-7504	5924	13164	-78	152	-220	-16192	-340	-4004	54	-7	90	-2444	4492	16260	161	1	40	127	128	5
-8736	-4888	13616	103	-11	-135	-15392	-1684	-4724	-53	-65	-84	-2520	-4576	15800	21	-139	207	-7520	5908	13084	-130	136	-211	-16132	-352	-4012	75	-33	109	-2432	4468	16140	170	-15	9	127	128	5
-8700	-4828	13504	93	-30	-153	-15492	-1664	-4724	-41	-36	-9	-2568	-4656	15680	40	-192	223	-7516	6020	13048	-104	129	-221	-16144	-328	-3952	91	-34	115	-2396	4524	16364	196	-21	27	126	128	5
-8696	-4888	13380	94	-87	-134	-15480	-1760	-4812	-49	-41	-40	-2528	-4652	15788	40	-152	181	-7492	5920	12948	-70	157	-205	-16268	-320	-4008	105	-65	134	-2388	4492	16340	176	-28	17	126	127	5
-8732	-4864	13488	106	-1	-132	-15412	-1676	-4848	-1	-61	-31	-2520	-4660	15804	47	-142	184	-7520	5964	13064	-65	129	-234	-16236	-380	-3992	134	-27	137	-2380	4468	16412	200	-75	26	126	127	5
-8764	-4868	13556	120	-16	-131	-15472	-1628	-4828	-8	-67	-34	-2512	-4584	15872	81	-179	164	-7488	5928	12972	-52	115	-226	-16180	-316	-3908	115	-82	163	-2408	4536	16324	237	-73	16	126	127	5
-8680	-4828	13504	154	-38	-137	-15396	-1664	-4704	0	-89	-26	-2492	-4528	15864	84	-188	160	-7520	5964	13120	-58	125	-222	-16220	-316	-3956	116	-56	156	-2320	4572	16288	285	-34	48	126	127	5
-8700	-4864	13504	135	-26	-137	-15456	-1632	-4668	-38	-104	8	-2504	-4496	15932	102	-181	206	-7492	5972	13004	-57	135	-217	-16232	-312	-4000	166	-52	173	-2308	4628	16320	265	-19	16	126	128	5
-8752	-4836	13524	129	-25	-129	-15508	-1640	-4708	-25	-96	-12	-2432	-4452	15876	91	-154	195	-7496	5944	12960	-80	116	-163	-16288	-320	-3952	115	-43	159	-2336	4616	16296	217	-61	-1	126	128	5
-8724	-4852	13432	140	-28	-142	-15488	-1600	-4688	3	-60	-14	-2464	-4464	15848	55	-155	186	-7488	5940	13016	-28	144	-195	-16228	-272	-3828	100	-14	131	-2244	4704	16336	212	-33	35	126	128	5
-8764	-4824	13480	135	-15	-151	-15516	-1616	-4772	17	-40	-17	-2480	-4464	15852	23	-154	199	-7488	5972	13008	-71	161	-219	-16212	-264	-3952	76	-21	108	-2264	4660	16280	216	-26	26	126	127	5
-8720	-4796	13472	113	-3	-179	-15400	-1636	-4864	-2	-45	-54	-2512	-4488	15900	10	-185	188	-7460	5964	12960	-85	128	-200	-16208	-268	-4016	84	-6	117	-2348	4640	16360	184	-21	45	126	127	5
-8728	-4856	13500	105	1	-135	-15456	-1644	-4812	-16	-56	-39	-2444	-4536	15788	15	-158	190	-7460	5956	12928	-110	121	-211	-16184	-240	-3856	68	-10	104	-2276	4620	16248	173	17	49	126	128	5
-8652	-4864	13496	108	-40	-122	-15372	-1696	-4744	-1	-18	-45	-2388	-4540	15808	59	-138	180	-7492	5968	12872	-99	141	-258	-16208	-268	-3964	77	-36	107	-2316	4508	16436	184	13	50	126	127	5
-8732	-4836	13456	73	-6	-119	-15472	-1696	-4720	-17	-38	-38	-2408	-4512	15872	26	-130	183	-7520	5920	13044	-106	139	-233	-16212	-376	-3868	95	18	83	-2296	4604	16320	143	-13	29	126	127	5
-8668	-4832	13404	110	-8	-135	-15496	-1720	-4664	30	-3	-56	-2500	-4496	15824	27	-124	165	-7464	5940	13044	-86	157	-221	-16244	-344	-3940	71	-5	120	-2324	4532	16332	170	20	50	126	128	5
-8700	-4904	13576	113	-12	-129	-15508	-1640	-4712	17	-8	-32	-2468	-4488	15812	21	-130	160	-7524	5948	13016	-85	150	-241	-16136	-384	-3980	61	28	91	-2340	4604	16308	162	35	43	126	127	5
-8772	-4840	13524	127	-25	-99	-15468	-1620	-4864	-4	-12	-23	-2504	-4524	15824	-39	-147	169	-7488	5904	12940	-135	167	-216	-16168	-400	-3948	41	3	109	-2496	4548	16400	127	33	47	126	128	5
-8724	-4892	13412	61	-29	-121	-15420	-1600	-4800	-21	-10	-87	-2480	-4580	15940	33	-127	159	-7488	5924	12972	-77	173	-217	-16156	-392	-4020	64	0	112	-2416	4516	16392	181	8	27	126	127	5
-8788	-4892	13456	75	-4	-156	-15416	-1652	-4796	-4	-8	2	-2564	-4640	15700	56	-167	188	-7520	5888	13056	-78	171	-236	-16232	-356	-3980	85	-23	122	-2372	4524	16288	178	19	69	126	127	5
-8720	-4848	13472	103	-51	-154	-15424	-1668	-4772	-33	-58	-32	-2560	-4508	15684	48	-106	161	-7492	5888	12980	-82	153	-225	-16196	-384	-3952	97	-31	146	-2412	4500	16460	212	-24	12	126	128	5
-8724	-4808	13504	145	-13	-137	-15476	-1628	-4792	-12	-86	-37	-2516	-4532	15828	50	-164	175	-7512	5988	13008	-97	161	-206	-16248	-364	-3956	120	-2	117	-2340	4524	16356	204	-1	5	126	128	5
-8684	-4848	13576	139	-40	-144	-15464	-1636	-4708	-24	-76	-34	-2556	-4496	15940	67	-146	164	-7500	5924	12976	-76	158	-214	-16256	-304	-3900	129	-43	163	-2348	4532	16336	227	-35	5	126	128	5
-8712	-4840	13520	111	-25	-127	-15484	-1620	-4788	-16	-65	-24	-2532	-4480	15796	75	-169	170	-7512	5972	13056	-98	157	-213	-16216	-328	-3872	104	-33	171	-2420	4512	16372	198	-36	18	126	127	5
-8668	-4848	13440	111	21	-148	-15460	-1612	-4748	-27	-70	-18	-2520	-4524	15848	46	-190	190	-7476	5996	13048	-65	125	-230	-16184	-300	-3964	107	-36	159	-2452	4624	16448	241	-47	21	126	128	5
-8696	-4880	13488	115	-38	-122	-15428	-1636	-4816	14	-42	-60	-2528	-4500	15828	35	-149	203	-7516	5956	12948	-105	114	-223	-16244	-324	-3972	126	-80	168	-2404	4620	16336	214	-2	19	126	128	5
-8700	-4892	13532	112	-50	-134	-15448	-1692	-4676	-20	-75	-37	-2504	-4588	15808	59	-145	183	-7544	5940	13028	-107	149	-222	-16240	-300	-4020	114	-80	150	-2320	4604	16300	210	-19	47	126	128	5
-8756	-4788	13504	147	25	-147	-15496	-1560	-4632	-37	-57	-38	-2532	-4564	15772	76	-169	187	-7492	5948	12964	-58	124	-222	-16264	-324	-3972	80	1	112	-2368	4600	16392	187	-4	47	126	127	5
-8680	-4868	13480	127	-52	-136	-15456	-1696	-4740	-51	-66	-18	-2448	-4524	15820	84	-160	199	-7532	5928	12996	-50	105	-230	-16152	-300	-3864	69	-62	122	-2344	4576	16336	237	-24	71	126	127	5
-8696	-4784	13412	137	-52	-106	-15504	-1668	-4744	-51	-60	-51	-2448	-4560	15776	46	-176	214	-7488	5960	13080	-87	99	-241	-16268	-372	-3916	71	-31	143	-2268	4592	16388	206	-24	73	126	128	5
-8652	-4864	13612	137	1	-154	-15480	-1664	-4764	15	-58	-9	-2444	-4572	15732	65	-152	172	-7524	5900	13080	-93	111	-246	-16176	-360	-3980	99	-12	145	-2352	4576	16460	207	-26	37	126	128	5
-8712	-4836	13476	111	8	-132	-15472	-1656	-4660	11	-77	6	-2444	-4524	15828	86	-143	215	-7468	5956	13004	-48	148	-212	-16192	-308	-3880	93	-13	165	-2360	4536	16388	230	-13	64	126	127	5
-8736	-4840	13480	120	45	-136	-15436	-1680	-4752	-9	-90	-17	-2500	-4548	15720	74	-153	175	-7524	5896	13032	-82	131	-188	-16284	-372	-3888	88	-20	144	-2364	4576	16288	214	-33	16	126	127	5
-8680	-4816	13432	127	8	-114	-15456	-1616	-4620	-3	-40	0	-2460	-4484	15764	61	-161	167	-7484	5952	13036	-73	157	-207	-16180	-372	-3932	111	-47	150	-2360	4648	16316	192	-32	29	126	127	5
-8696	-4860	13480	113	-35	-149	-15476	-1592	-4832	8	-39	-34	-2500	-4520	15860	54	-106	180	-7480	5984	12972	-113	105	-220	-16224	-292	-3948	84	2	133	-2352	4668	16224	188	-15	19	126	128	5
-8644	-4820	13500	125	-10	-120	-15468	-1592	-4724	28	-29	-35	-2504	-4540	15940	81	-162	171	-7476	5964	13004	-94	119	-187	-16204	-292	-3980	84	-50	157	-2344	4620	16336	195	-24	29	126	128	5
-8700	-4908	13500	141	1	-145	-15464	-1612	-4828	21	-39	-29	-2476	-4528	15812	67	-135	204	-7492	5976	13032	-87	130	-221	-16264	-284	-4004	115	-12	143	-2376	4656	16236	243	-25	43	126	128	5
-8736	-4916	13532	100	-45	-135	-15436	-1612	-4820	-2	-40	-1	-2540	-4536	15796	36	-148	195	-7524	5928	13080	-91	130	-205	-16216	-316	-3888	93	-49	159	-2332	4592	16304	215	-33	51	126	128	5
-8692	-4852	13392	108	-8	-119	-15440	-1600	-4724	11	-58	-14	-2568	-4508	15940	92	-150	194	-7456	5924	13040	-86	179	-186	-16192	-384	-3980	87	-32	162	-2304	4560	16264	183	-23	41	126	128	5
-8736	-4848	13464	127	-32	-108	-15476	-1656	-4784	-26	-67	-13	-2528	-4512	15784	50	-151	203	-7516	5952	13084	-67	142	-207	-16164	-284	-3888	95	-52	141	-2384	4552	16300	192	-12	50	126	128	5
-8680	-4916	13584	89	-16	-127	-15500	-1588	-4740	-1	-31	-16	-2576	-4524	15924	80	-156	185	-7580	5980	13096	-116	116	-222	-16216	-336	-3988	76	-30	147	-2380	4572	16388	179	-12	46	126	128	5
-8716	-4848	13552	107	-36	-136	-15432	-1632	-4724	7	-57	-54	-2464	-4560	15820	66	-141	187	-7520	5936	13064	-74	125	-212	-16192	-328	-3884	114	-3	132	-2304	4596	16396	219	-5	14	126	128	5
-8704	-4796	13504	140	-23	-151	-15520	-1664	-4760	33	-70	-5	-2492	-4512	15788	49	-140	206	-7488	5972	12976	-80	153	-227	-16184	-320	-3908	104	-43	138	-2368	4540	16288	229	-22	21	126	128	5
-8728	-4944	13460	91	-4	-141	-15476	-1608	-4748	-4	-44	-24	-2464	-4524	15824	72	-154	176	-7480	6076	12956	-41	154	-196	-16192	-304	-4092	56	-17	142	-2348	4600	16376	213	-41	46	126	128	5
-8704	-4856	13520	110	-43	-131	-15452	-1652	-4692	9	-36	-37	-2500	-4580	15832	86	-128	189	-7472	5988	13024	-75	155	-196	-16292	-332	-4020	110	-22	148	-2340	4648	16300	197	3	2	126	128	5
-8676	-4900	13488	118	-6	-125	-15432	-1600	-4848	-16	-36	1	-2452	-4500	15864	85	-126	173	-7540	5960	13024	-93	146	-201	-16280	-308	-3988	119	-46	133	-2308	4628	16192	183	-31	30	126	128	5
-8700	-4836	13456	139	-24	-137	-15428	-1684	-4660	-12	-8	-11	-2460	-4540	15836	69	-150	170	-7464	5924	12968	-60	137	-196	-16192	-284	-4012	103	-28	164	-2380	4596	16260	176	33	48	126	128	5
-8708	-4836	13524	114	5	-167	-15460	-1680	-4752	20	-59	-42	-2508	-4488	15840	43	-123	171	-7440	5932	12988	-81	171	-218	-16252	-264	-3916	98	-25	125	-2312	4624	16368	207	-6	46	126	127	5
-8700	-4876	13536	142	-11	-134	-15488	-1616	-4708	24	-42	19	-2512	-4448	15804	57	-149	154	-7536	6000	13068	-56	139	-227	-16184	-248	-3996	93	-28	130	-2372	4620	16312	206	6	22	126	128	5
-8688	-4804	13492	144	-51	-140	-15404	-1588	-4808	-27	-50	-3	-2472	-4500	15832	20	-155	192	-7496	5952	13036	-91	141	-229	-16212	-292	-4160	89	-10	92	-2332	4596	16360	184	-10	63	126	127	5
-8728	-4852	13552	118	-39	-110	-15448	-1632	-4820	15	-44	-36	-2548	-4552	15872	35	-118	184	-7472	5964	12992	-78	144	-225	-16240	-288	-4032	101	-19	121	-2328	4552	16424	202	3	36	126	127	5
-8708	-4920	13520	133	-45	-154	-15456	-1660	-4588	18	-1	-41	-2540	-4500	15828	60	-118	169	-7544	5940	12980	-99	143	-209	-16220	-292	-3976	66	-27	147	-2380	4580	16312	169	-33	26	126	128	5
-8696	-4824	13544	103	-42	-156	-15444	-1672	-4816	-37	-40	-74	-2556	-4516	15912	104	-127	157	-7460	5940	12952	-110	144	-231	-16232	-312	-3992	99	-1	110	-2332	4572	16376	173	39	42	126	127	5
-8708	-4884	13532	126	6	-154	-15416	-1636	-4652	4	-49	-48	-2532	-4516	15828	58	-131	205	-7524	5924	13116	-101	172	-195	-16220	-284	-3848	61	-45	154	-2388	4588	16272	200	16	39	126	128	5
-8652	-4888	13496	132	-20	-136	-15412	-1616	-4660	4	-42	-47	-2548	-4484	15804	5	-148	193	-7580	5948	12956	-69	198	-247	-16228	-344	-3976	74	-14	115	-2352	4564	16316	189	-7	51	126	128	5
-8708	-4872	13456	104	-29	-137	-15484	-1672	-4784	-63	-6	-29	-2544	-4604	15844	68	-152	189	-7416	6004	13000	-64	188	-211	-16204	-328	-3960	72	-7	135	-2428	4524	16428	173	-14	65	126	127	5
-8652	-4896	13580	99	-48	-104	-15420	-1672	-4776	18	-45	-16	-2500	-4612	15816	84	-110	197	-7512	6044	13116	-88	184	-210	-16192	-324	-4052	59	-14	145	-2396	4580	16400	216	-9	26	126	128	5
-8732	-4812	13516	109	-27	-121	-15500	-1648	-4708	-37	-78	7	-2480	-4516	15792	78	-161	174	-7460	5952	13048	-96	139	-222	-16220	-344	-4060	82	-26	112	-2388	4596	16376	200	-35	63	126	127	5
-8720	-4896	13460	116	-57	-142	-15444	-1648	-4708	-48	-54	-51	-2432	-4520	15808	32	-152	188	-7472	5948	13076	-86	147	-229	-16264	-356	-3944	73	-36	170	-2360	4524	16332	201	-20	26	126	127	5
-8696	-4792	13488	136	-36	-137	-15488	-1680	-4764	-13	-65	-3	-2432	-4520	15860	32	-141	172	-7520	5980	12984	-67	134	-210	-16216	-336	-3856	111	-95	145	-2372	4592	16344	217	-26	27	126	128	5
-8708	-4908	13492	63	-20	-111	-15428	-1648	-4728	14	-45	-36	-2496	-4548	15788	74	-163	192	-7548	6048	13052	-88	133	-209	-16216	-316	-3972	63	-24	154	-2356	4600	16360	198	24	24	126	128	5
-8720	-4872	13596	77	-60	-143	-15492	-1596	-4824	-13	-71	-24	-2544	-4484	15872	69	-153	217	-7520	5936	12988	-64	117	-188	-16192	-312	-3952	92	-18	148	-2328	4596	16284	206	6	17	126	128	5
-8680	-4844	13420	54	-17	-107	-15472	-1660	-4724	33	-20	-38	-2452	-4472	15828	41	-162	182	-7464	5900	12964	-72	136	-222	-16192	-312	-4004	128	-47	128	-2304	4600	16348	175	-50	3	126	128	5
-8708	-4884	13520	56	-24	-90	-15404	-1640	-4748	-18	-38	-47	-2512	-4484	15908	55	-133	195	-7464	5992	13080	-96	144	-219	-16196	-292	-4012	65	-38	137	-2344	4644	16292	197	-17	48	126	128	5
-8740	-4900	13560	102	-50	-150	-15476	-1644	-4812	-31	-50	2	-2540	-4484	15788	6	-175	229	-7484	5884	12996	-96	129	-222	-16216	-308	-3980	81	19	135	-2324	4580	16320	167	-23	46	126	127	5
-8744	-4872	13532	106	-11	-143	-15500	-1656	-4728	-28	-28	-35	-2468	-4512	15680	49	-171	219	-7512	5908	12960	-98	140	-217	-16224	-260	-3912	59	-26	130	-2352	4616	16396	225	-3	65	126	127	5
-8712	-4868	13444	127	-6	-101	-15480	-1696	-4792	-25	-59	-39	-2508	-4564	15884	53	-162	174	-7476	5956	12956	-107	141	-218	-16228	-348	-3880	60	-38	126	-2376	4572	16376	188	23	54	126	127	5
-8736	-4792	13496	107	-12	-111	-15440	-1660	-4736	-11	-29	-26	-2444	-4520	15844	32	-155	190	-7460	5904	12968	-87	156	-188	-16260	-340	-3968	111	-26	115	-2320	4512	16560	171	51	50	126	128	5
-8728	-4804	13500	128	-36	-97	-15456	-1652	-4720	-70	-45	-18	-2492	-4532	15856	38	-159	174	-7516	5932	13040	-120	150	-223	-16236	-316	-3900	73	-18	116	-2276	4560	16308	186	40	29	126	128	5
-8716	-4840	13608	139	-19	-128	-15424	-1580	-4668	0	-20	-51	-2484	-4440	15928	53	-151	192	-7436	5956	13028	-69	147	-223	-16188	-368	-3916	52	-28	90	-2400	4608	16240	172	5	52	127	128	5
-8700	-4864	13424	131	-28	-127	-15496	-1676	-4776	-11	-11	-57	-2540	-4464	15836	39	-118	203	-7488	6024	13004	-122	130	-229	-16232	-292	-3920	37	26	110	-2304	4608	16312	204	47	52	126	128	5
-8720	-4900	13492	87	16	-144	-15496	-1632	-4744	-4	-12	-54	-2496	-4408	15804	49	-120	224	-7440	6016	13044	-84	161	-205	-16204	-284	-4144	104	68	91	-2392	4596	16376	185	13	42	126	127	5
-8716	-4852	13480	106	4	-151	-15492	-1664	-4628	-42	-5	-60	-2552	-4508	15804	49	-102	201	-7504	5944	13036	-103	189	-205	-16232	-352	-4080	75	14	133	-2404	4568	16372	166	28	38	126	128	5
-8620	-4912	13436	102	2	-139	-15420	-1624	-4724	-13	-6	-67	-2576	-4448	15772	19	-129	176	-7520	5932	12960	-101	124	-218	-16228	-348	-4004	88	-13	69	-2460	4644	16292	159	12	15	126	128	5
-8748	-4820	13576	86	-3	-128	-15496	-1620	-4592	-16	-14	-88	-2584	-4464	15824	47	-146	179	-7492	5976	13000	-105	119	-228	-16200	-400	-4052	52	-33	104	-2480	4624	16216	135	-8	19	126	128	5
-8728	-4912	13460	94	-52	-156	-15344	-1604	-4812	-8	-38	-85	-2576	-4528	15796	21	-117	165	-7508	6016	12896	-47	143	-247	-16184	-368	-4108	108	-52	85	-2416	4504	16372	143	-30	-11	126	128	5
-8684	-4948	13520	58	-5	-145	-15464	-1660	-4676	-18	-23	-103	-2536	-4492	15836	-22	-195	162	-7472	5964	12976	-111	105	-224	-16184	-360	-3940	114	-62	100	-2360	4480	16340	140	-71	8	126	128	5
-8704	-4820	13624	110	-77	-164	-15460	-1636	-4816	-19	-42	-95	-2492	-4584	15740	-71	-215	164	-7504	6004	13064	-85	119	-264	-16276	-336	-3924	92	-74	117	-2376	4440	16252	187	-52	-21	126	128	5
-8660	-4904	13504	113	-50	-145	-15508	-1636	-4808	3	-71	-85	-2516	-4568	15768	17	-201	163	-7444	5964	13032	-93	119	-233	-16280	-324	-3832	87	-69	111	-2400	4452	16456	213	-50	13	126	127	5
-8720	-4900	13440	127	-10	-167	-15432	-1628	-4656	8	-73	-86	-2452	-4560	15772	38	-172	158	-7444	5920	12992	-96	129	-232	-16164	-372	-3912	76	-65	112	-2296	4428	16412	198	-44	33	126	127	5
-8696	-4864	13456	112	-35	-129	-15412	-1760	-4700	16	-39	-73	-2504	-4740	15720	75	-143	204	-7508	5972	12976	-59	134	-211	-16224	-420	-3956	113	-18	143	-2336	4432	16504	194	-59	53	126	127	5
-8732	-4860	13520	129	-35	-163	-15436	-1692	-4716	-8	-106	-41	-2488	-4672	15828	83	-170	193	-7480	5900	13064	-75	130	-218	-16248	-360	-3952	108	-29	192	-2304	4420	16440	243	-57	22	126	128	5
-8668	-4860	13488	132	-48	-131	-15528	-1752	-4712	7	-103	11	-2460	-4668	15764	117	-162	198	-7528	5960	13080	-75	144	-204	-16256	-340	-3884	107	-26	214	-2368	4456	16368	264	-57	28	126	127	5
-8672	-4848	13408	123	-14	-146	-15400	-1668	-4760	-11	-65	7	-2424	-4712	15732	155	-133	202	-7488	5944	13008	-92	138	-196	-16248	-316	-3880	121	-4	214	-2292	4540	16348	273	-28	14	126	127	5
-8672	-4892	13520	149	2	-122	-15444	-1680	-4740	-18	-58	32	-2376	-4600	15848	121	-133	189	-7476	5944	12996	-65	159	-213	-16208	-300	-3940	121	-74	219	-2224	4540	16300	269	-38	31	126	127	5
-8776	-4832	13568	144	-63	-141	-15452	-1684	-4704	-19	-71	62	-2376	-4576	15944	129	-97	184	-7492	5972	12984	-91	134	-198	-16220	-284	-3884	133	-27	212	-2212	4520	16364	262	-46	12	126	128	5
-8648	-4844	13460	143	-24	-127	-15460	-1716	-4700	-27	-48	52	-2388	-4592	15796	82	-99	187	-7480	5960	13044	-45	138	-205	-16184	-308	-4008	125	-5	190	-2316	4528	16296	236	24	17	126	127	5
-8740	-4844	13496	136	-8	-139	-15444	-1648	-4740	6	-22	45	-2428	-4512	15840	130	-125	175	-7476	5964	12996	-47	161	-209	-16188	-224	-3856	122	24	183	-2288	4660	16328	261	11	10	126	127	5
-8648	-4900	13508	145	-12	-124	-15432	-1656	-4728	27	-13	70	-2480	-4496	15760	132	-80	176	-7452	5956	13020	-71	185	-191	-16264	-264	-3880	78	25	167	-2356	4652	16336	270	31	45	126	127	5
-8712	-4940	13576	154	-11	-123	-15440	-1644	-4740	13	-5	59	-2536	-4432	15824	124	-73	185	-7488	5972	13020	-70	185	-174	-16188	-276	-3992	44	18	177	-2292	4712	16232	250	-15	48	126	128	5
-8720	-4868	13576	109	-1	-108	-15496	-1548	-4668	4	0	64	-2588	-4324	15900	143	-63	149	-7460	5960	13068	-74	197	-233	-16220	-272	-3920	81	17	130	-2332	4748	16164	242	19	18	126	127	5
-8676	-4832	13472	132	31	-127	-15472	-1568	-4816	-3	-11	4	-2592	-4332	15736	97	-90	144	-7520	5980	13036	-72	170	-209	-16260	-332	-4020	74	45	129	-2360	4744	16316	182	5	49	126	127	5
-8780	-4848	13488	93	46	-123	-15452	-1524	-4812	-28	7	8	-2620	-4284	15804	39	-103	196	-7460	5984	13004	-96	161	-206	-16184	-272	-3952	102	19	125	-2424	4720	16324	125	29	61	126	127	5
-8636	-4832	13524	97	-17	-144	-15440	-1528	-4788	-7	-43	-44	-2604	-4348	15816	58	-143	201	-7528	5940	13008	-98	155	-241	-16180	-284	-3984	64	0	96	-2408	4656	16324	152	25	46	126	127	5
-8664	-4900	13460	115	-54	-146	-15452	-1564	-4848	-21	-44	-54	-2628	-4480	15776	52	-166	214	-7464	5904	12964	-58	114	-230	-16128	-320	-3992	52	-19	76	-2500	4596	16292	161	-13	48	126	128	5
-8696	-4884	13420	93	-35	-175	-15464	-1596	-4720	-23	-32	-115	-2608	-4504	15824	24	-174	234	-7552	5940	13032	-107	126	-217	-16208	-372	-3900	73	-26	107	-2468	4548	16316	167	-23	33	126	127	5
-8716	-4904	13400	99	-9	-127	-15448	-1676	-4892	-24	-69	-58	-2588	-4556	15784	16	-185	202	-7512	5996	13012	-79	95	-208	-16176	-352	-3980	138	-43	139	-2428	4416	16436	195	-53	37	126	127	5
-8708	-4828	13512	102	-5	-115	-15504	-1680	-4908	-55	-75	-55	-2584	-4624	15744	51	-191	192	-7540	5928	13016	-78	98	-180	-16200	-416	-4044	125	-96	169	-2372	4524	16392	228	-57	31	126	128	5
-8652	-4828	13508	104	-30	-154	-15496	-1692	-4708	-58	-119	-80	-2560	-4644	15764	50	-193	200	-7500	5952	12932	-103	126	-203	-16180	-428	-3880	130	-97	143	-2384	4396	16324	219	-108	31	126	127	5
-8656	-4824	13432	124	-53	-142	-15492	-1728	-4736	10	-111	-40	-2484	-4648	15816	89	-194	187	-7540	5968	12952	-97	110	-221	-16248	-384	-3964	130	-85	154	-2332	4400	16388	252	-64	40	126	127	5
-8668	-4876	13532	135	-67	-140	-15496	-1648	-4780	9	-100	-7	-2516	-4584	15832	132	-180	203	-7472	5932	13088	-79	115	-159	-16252	-376	-3848	152	-89	217	-2368	4448	16336	236	-101	25	126	127	5
-8656	-4848	13480	101	-69	-120	-15464	-1708	-4816	-50	-109	11	-2460	-4584	15840	118	-203	204	-7492	5964	13080	-61	130	-210	-16196	-416	-3920	163	-68	235	-2340	4432	16420	259	-72	8	126	127	5
-8732	-4852	13484	116	-27	-156	-15464	-1684	-4668	-2	-70	11	-2484	-4552	15788	121	-174	179	-7512	5976	13044	-61	153	-187	-16248	-264	-3916	166	-99	254	-2300	4596	16388	288	-63	-25	126	127	5
-8692	-4792	13400	123	-6	-105	-15428	-1688	-4664	8	-81	-3	-2452	-4500	15920	144	-166	172	-7520	5940	13204	-80	119	-211	-16152	-260	-3868	128	-40	251	-2268	4692	16440	271	-55	-22	126	127	5
-8692	-4904	13428	90	-9	-140	-15440	-1616	-4620	-34	-100	-8	-2424	-4432	15852	119	-147	149	-7520	5944	12944	-86	170	-191	-16200	-196	-3872	128	-34	239	-2292	4716	16320	284	-44	-32	126	127	5
-8628	-4928	13484	125	-34	-116	-15520	-1624	-4632	-5	-67	36	-2436	-4376	15820	58	-104	167	-7484	5952	12984	-70	107	-184	-16248	-236	-4000	86	-23	171	-2204	4748	16252	228	-46	-26	126	127	5
-8696	-4872	13496	124	24	-133	-15468	-1560	-4612	17	-16	-16	-2488	-4396	15828	34	-148	150	-7476	5984	12952	-58	114	-227	-16216	-248	-3848	134	-4	208	-2236	4804	16364	204	-39	-24	126	127	5
-8660	-4816	13552	132	-2	-140	-15432	-1568	-4572	-8	-18	-25	-2524	-4400	15928	43	-128	160	-7548	6036	12924	-69	154	-229	-16256	-244	-3884	129	-49	151	-2260	4780	16304	136	-26	-35	126	127	5
-8740	-4892	13360	103	-32	-153	-15496	-1600	-4752	-49	-12	-33	-2492	-4352	15824	30	-119	175	-7484	5984	13004	-79	153	-218	-16212	-208	-3892	107	-13	101	-2332	4788	16308	140	18	2	126	128	5
-8696	-4880	13504	119	-32	-130	-15488	-1604	-4740	47	17	-42	-2508	-4300	15832	-26	-149	168	-7488	6036	12980	-113	149	-220	-16232	-196	-3940	49	-32	82	-2312	4736	16372	147	13	21	126	127	5
-8708	-4856	13492	108	25	-153	-15420	-1632	-4780	0	-12	-56	-2520	-4496	15960	-68	-155	171	-7508	6000	13016	-119	123	-241	-16220	-256	-3976	62	-19	75	-2432	4636	16360	94	25	74	126	127	5
-8676	-4824	13476	111	-3	-132	-15404	-1628	-4720	-26	-22	-55	-2508	-4512	15804	-49	-156	194	-7440	5984	13104	-76	142	-237	-16200	-320	-4016	57	-22	44	-2416	4480	16336	144	27	64	126	127	5
-8736	-4864	13464	104	-11	-135	-15496	-1656	-4704	-8	5	-98	-2544	-4572	15788	-45	-163	210	-7500	5980	13036	-106	126	-232	-16188	-352	-3968	92	-29	52	-2404	4432	16328	153	-5	79	126	127	5
-8744	-4912	13564	133	-58	-134	-15424	-1724	-4800	-14	-60	-50	-2552	-4708	15824	22	-164	195	-7524	6004	12996	-122	126	-210	-16196	-436	-3948	112	-3	112	-2396	4376	16384	183	-15	56	126	127	5
-8732	-4832	13480	117	-6	-124	-15424	-1648	-4824	-10	-78	-21	-2524	-4728	15864	86	-181	182	-7560	5944	13044	-84	158	-204	-16232	-380	-3900	80	-30	138	-2376	4356	16336	249	-18	48	126	127	5
-8660	-4868	13552	128	-32	-108	-15488	-1688	-4732	-10	-82	-15	-2532	-4628	15764	139	-148	171	-7480	5928	13052	-60	160	-189	-16220	-328	-3944	86	-9	204	-2360	4420	16312	306	-19	11	126	127	5
-8660	-4876	13456	157	-8	-123	-15540	-1652	-4684	-22	-95	-2	-2512	-4552	15680	150	-153	179	-7564	5956	13064	-75	118	-182	-16220	-336	-3916	92	-16	234	-2380	4552	16372	301	-67	1	126	127	5
-8668	-4832	13528	127	-43	-95	-15512	-1668	-4636	-45	-96	14	-2464	-4476	15800	140	-141	213	-7396	5932	12964	-61	153	-178	-16276	-332	-4008	122	-48	229	-2288	4676	16336	278	-66	14	126	127	5
-8676	-4924	13508	131	1	-106	-15476	-1644	-4772	-43	-49	28	-2536	-4384	16004	145	-128	190	-7488	5944	12872	-38	144	-207	-16188	-164	-3936	121	-22	206	-2300	4728	16320	274	-39	11	126	127	5
-8728	-4776	13452	163	-36	-111	-15508	-1544	-4808	-26	-41	17	-2484	-4272	15864	98	-139	170	-7444	5984	12920	-90	141	-184	-16280	-176	-4104	98	-47	186	-2344	4820	16260	237	-21	7	126	127	5
-8680	-4844	13528	129	-35	-110	-15496	-1532	-4660	-12	-33	-4	-2516	-4284	15760	45	-131	212	-7432	5984	13024	-58	168	-209	-16264	-144	-3860	71	-21	146	-2268	4888	16216	160	34	2	126	127	5
-8692	-4916	13408	104	-32	-102	-15464	-1588	-4728	-31	-34	-62	-2496	-4228	15764	37	-143	192	-7496	6052	12984	-100	143	-210	-16276	-72	-3988	45	48	103	-2280	4896	16300	182	51	8	126	127	5
-8700	-4856	13500	90	30	-146	-15360	-1496	-4716	14	29	-98	-2476	-4236	15832	8	-154	208	-7504	5944	13128	-111	130	-261	-16268	-120	-3944	48	-14	35	-2276	4832	16172	162	33	21	126	127	5
-8664	-4752	13484	57	-10	-125	-15424	-1564	-4812	-40	-11	-121	-2576	-4272	15892	-53	-180	224	-7440	5980	13044	-127	192	-217	-16236	-208	-3984	33	-13	6	-2252	4860	16228	176	58	101	126	127	5
-8732	-4832	13396	79	-18	-136	-15420	-1560	-4724	-79	-10	-171	-2484	-4352	15840	-59	-157	250	-7472	5916	13036	-139	148	-231	-16228	-184	-3984	-36	-6	-35	-2332	4692	16312	97	28	168	126	126	5
-8716	-4792	13456	32	-22	-159	-15524	-1608	-4688	-75	-17	-161	-2456	-4492	15808	-58	-188	275	-7448	5992	12952	-163	156	-222	-16236	-280	-4068	-37	2	-36	-2376	4528	16332	89	24	227	126	126	5
-8724	-4864	13464	64	2	-167	-15496	-1684	-4752	-22	-4	-187	-2448	-4496	15804	-82	-204	248	-7528	5924	13044	-135	148	-251	-16220	-428	-3888	32	10	-43	-2348	4360	16408	102	60	117	126	126	5
-8656	-4900	13408	79	-11	-146	-15536	-1736	-4800	-7	35	-173	-2472	-4664	15868	-79	-163	203	-7444	5932	13072	-115	165	-212	-16200	-468	-3860	89	-2	-2	-2332	4392	16408	131	-6	46	126	127	5
-8668	-4888	13528	105	-3	-151	-15492	-1796	-4776	-12	3	-106	-2476	-4804	15732	-72	-184	144	-7492	5944	13060	-124	103	-208	-16144	-508	-3908	108	-6	49	-2380	4408	16484	96	-2	-31	126	127	5
-8684	-4936	13448	85	16	-154	-15404	-1808	-4752	8	-5	-80	-2392	-4676	15840	-47	-188	147	-7488	5912	13072	-111	182	-242	-16132	-448	-3916	105	-11	119	-2416	4404	16340	120	16	-63	126	127	5
-8656	-4928	13492	90	-51	-78	-15448	-1728	-4740	-10	-17	-22	-2480	-4732	15824	-21	-159	98	-7452	5984	13048	-100	140	-208	-16184	-380	-3976	98	-29	122	-2368	4508	16340	192	-49	-83	126	127	5
-8648	-4884	13448	139	-28	-94	-15444	-1704	-4856	19	-15	6	-2492	-4696	15828	14	-139	117	-7432	5952	13024	-86	127	-185	-16176	-408	-3988	182	18	167	-2352	4496	16344	205	-5	-55	126	127	5
-8752	-4816	13452	124	5	-123	-15456	-1668	-4824	45	-36	6	-2564	-4652	15760	35	-148	119	-7464	6016	12972	-87	116	-212	-16212	-348	-3900	150	-65	192	-2296	4520	16468	256	-42	28	126	127	5
-8624	-4852	13516	165	-28	-104	-15516	-1680	-4756	19	-56	45	-2512	-4664	15808	107	-144	157	-7472	5972	12900	-70	148	-212	-16188	-340	-3956	85	-15	139	-2248	4520	16368	271	-46	69	126	127	5
-8688	-4836	13500	141	-15	-110	-15392	-1632	-4752	7	-69	15	-2496	-4524	15920	121	-160	177	-7456	5924	13044	-96	137	-197	-16264	-300	-3936	65	-31	145	-2344	4612	16368	337	-17	66	126	126	5
-8708	-4820	13520	149	-42	-103	-15532	-1636	-4712	-31	-40	-16	-2528	-4472	15772	114	-153	201	-7516	5952	12980	-70	177	-222	-16212	-304	-3860	61	9	166	-2320	4516	16384	332	-62	122	126	126	5
-8668	-4868	13480	137	-43	-84	-15452	-1580	-4668	-29	-65	21	-2528	-4408	15932	117	-111	207	-7512	5976	13024	-75	139	-216	-16208	-284	-3916	55	6	189	-2380	4544	16392	309	-14	152	126	126	5
-8688	-4844	13424	144	-60	-150	-15456	-1552	-4744	29	-66	24	-2508	-4392	15784	89	-130	213	-7512	5948	13020	-74	126	-178	-16272	-336	-4064	72	21	179	-2344	4604	16376	306	-66	126	126	127	5
-8712	-4876	13372	112	-26	-111	-15476	-1608	-4808	-14	3	-23	-2496	-4448	15836	76	-144	224	-7460	5988	13004	-84	150	-195	-16260	-268	-3884	98	-19	148	-2380	4800	16404	286	-37	61	126	127	5
-8740	-4880	13564	125	-1	-127	-15412	-1600	-4784	-10	-2	-14	-2536	-4488	15772	84	-142	220	-7480	5996	13068	-94	180	-209	-16260	-264	-4012	74	16	158	-2416	4752	16264	191	2	-56	126	127	5
-8676	-4832	13472	133	-26	-138	-15436	-1640	-4820	-23	-33	-36	-2528	-4592	15888	49	-117	181	-7480	5912	13052	-97	182	-232	-16248	-304	-3960	106	-15	153	-2364	4628	16356	158	18	39	126	127	5
-8704	-4852	13500	118	-9	-150	-15384	-1680	-4908	-13	-24	-30	-2456	-4572	15744	44	-123	212	-7456	5996	13096	-79	129	-214	-16116	-276	-3984	98	-3	140	-2372	4524	16400	183	-9	51	126	127	5
-8648	-4804	13508	117	-27	-150	-15412	-1648	-4772	4	-64	-7	-2492	-4576	15748	65	-165	186	-7500	5984	13052	-85	143	-198	-16164	-348	-3952	135	-39	169	-2408	4568	16360	291	-65	31	126	127	5
-8676	-4892	13452	121	-29	-136	-15496	-1660	-4664	14	-76	-23	-2536	-4448	15852	70	-168	166	-7544	5992	13052	-89	140	-198	-16144	-352	-3948	141	-5	162	-2352	4608	16476	223	-26	-4	126	127	5
-8684	-4848	13404	123	16	-136	-15540	-1680	-4776	23	-44	-41	-2556	-4448	15832	4	-170	152	-7552	5968	13000	-42	150	-200	-16296	-368	-3948	123	-18	155	-2384	4564	16356	189	-53	6	126	127	5
-8712	-4916	13460	117	37	-109	-15436	-1616	-4856	10	-21	-50	-2580	-4464	15828	8	-198	189	-7548	5964	12980	-68	125	-209	-16256	-300	-4072	89	0	148	-2308	4624	16284	182	-55	-4	126	127	5
-8756	-4848	13604	133	-10	-131	-15520	-1620	-4696	-1	-55	-7	-2580	-4512	15780	42	-201	155	-7532	5996	12856	-62	142	-220	-16128	-240	-4028	91	-20	151	-2344	4644	16324	240	-57	62	126	128	5
-8684	-4904	13408	101	-40	-118	-15396	-1660	-4772	-20	-61	-29	-2532	-4504	15804	26	-197	188	-7512	5980	13032	-103	132	-206	-16200	-272	-4000	60	-55	163	-2360	4692	16396	242	-38	103	126	127	5
-8664	-4884	13476	108	3	-111	-15464	-1576	-4752	-38	-54	-55	-2552	-4472	15780	63	-173	187	-7540	5928	13076	-59	124	-227	-16204	-328	-3924	122	-52	157	-2296	4664	16324	273	-22	61	126	127	5
-8672	-4844	13476	112	-40	-135	-15468	-1612	-4744	-37	-69	-33	-2544	-4512	15820	49	-184	187	-7480	5944	13020	-103	137	-193	-16208	-284	-3780	133	-43	116	-2340	4696	16348	209	-23	40	126	127	5
-8808	-4916	13524	116	-63	-147	-15452	-1616	-4672	-24	-43	-52	-2464	-4464	15852	3	-187	193	-7528	5964	12952	-124	138	-187	-16188	-264	-3948	44	-41	98	-2308	4704	16292	193	-6	40	126	128	5
-8680	-4872	13488	100	-28	-159	-15424	-1592	-4728	-16	-34	-96	-2480	-4436	15880	20	-162	224	-7436	5984	13040	-77	123	-204	-16264	-288	-3940	56	-55	75	-2328	4660	16372	220	-46	97	126	127	5
-8668	-4840	13496	98	-50	-133	-15372	-1628	-4796	-32	-65	-56	-2504	-4500	15900	-4	-134	211	-7548	5964	12960	-95	149	-238	-16204	-344	-3928	64	-33	76	-2268	4628	16336	192	-31	90	126	127	5
-8700	-4860	13456	73	-38	-145	-15480	-1624	-4768	-41	-27	-86	-2480	-4540	15784	-3	-161	229	-7512	5904	12988	-85	106	-241	-16208	-232	-3996	45	-13	71	-2300	4688	16388	207	14	108	126	127	5
-8688	-4880	13496	95	-10	-145	-15448	-1676	-4784	-35	-63	-76	-2476	-4552	15892	-12	-133	227	-7548	5980	12936	-111	146	-246	-16244	-368	-3992	48	31	74	-2292	4668	16372	211	18	101	126	127	5
-8684	-4832	13460	101	-27	-135	-15496	-1700	-4660	-23	-45	-71	-2452	-4656	15852	32	-124	190	-7492	5984	13056	-89	155	-247	-16192	-372	-3984	24	-10	87	-2332	4560	16356	165	11	86	126	127	5
-8652	-4852	13524	106	-11	-139	-15496	-1640	-4620	-25	-23	-60	-2444	-4660	15776	50	-161	186	-7500	5936	12976	-92	138	-234	-16168	-380	-3928	-2	-15	58	-2356	4592	16440	229	17	102	126	127	5
-8688	-4872	13616	85	3	-141	-15460	-1736	-4732	-5	-52	-28	-2508	-4652	15724	52	-150	169	-7468	5936	13036	-77	157	-233	-16156	-392	-4000	34	19	111	-2376	4604	16340	214	2	78	126	127	5
-8752	-4876	13504	122	-19	-112	-15468	-1668	-4828	30	-51	-26	-2544	-4604	15896	82	-137	181	-7584	5916	13028	-80	148	-214	-16236	-408	-3976	87	-31	127	-2364	4516	16276	220	-13	78	126	127	5
-8680	-4876	13528	115	-48	-121	-15504	-1632	-4792	26	-107	-14	-2484	-4576	15796	83	-117	176	-7512	5944	13108	-114	198	-213	-16184	-360	-4052	98	-25	181	-2348	4476	16424	258	-25	46	126	127	5
-8724	-4876	13592	103	-11	-135	-15440	-1624	-4768	7	-44	15	-2524	-4576	15724	130	-152	173	-7480	5920	13052	-79	174	-215	-16204	-384	-3860	110	14	178	-2384	4520	16396	223	-71	-12	126	127	5
-8708	-4888	13448	122	-22	-153	-15456	-1620	-4804	22	-45	2	-2552	-4572	15812	61	-141	171	-7528	5920	12932	-83	137	-203	-16180	-332	-3984	120	-31	196	-2292	4536	16308	208	-2	-9	126	127	5
-8696	-4860	13408	120	-73	-93	-15420	-1560	-4792	-4	-63	28	-2548	-4528	15748	94	-154	159	-7516	5964	12932	-51	124	-200	-16196	-264	-4064	149	-14	187	-2372	4620	16368	256	-31	-26	126	127	5
-8712	-4852	13588	115	-4	-135	-15460	-1620	-4808	3	-72	6	-2588	-4472	15880	86	-150	182	-7512	5936	12916	-64	160	-219	-16180	-316	-3952	97	-2	183	-2320	4660	16312	248	-22	25	126	127	5
-8724	-4756	13592	148	-25	-120	-15420	-1588	-4912	6	-58	22	-2536	-4460	15884	96	-171	205	-7500	5968	12900	-92	143	-213	-16240	-268	-3948	100	-18	159	-2388	4696	16340	251	-43	55	126	127	5
-8660	-4868	13496	133	-60	-132	-15448	-1648	-4704	-1	-53	-3	-2544	-4456	15876	53	-165	200	-7536	5960	12972	-54	114	-186	-16200	-300	-4024	143	-76	153	-2252	4716	16436	210	-29	30	126	127	5
-8712	-4808	13524	102	-55	-123	-15468	-1628	-4736	3	-97	-25	-2512	-4404	15848	62	-156	205	-7532	5984	12988	-99	131	-214	-16200	-264	-3916	100	-39	167	-2284	4656	16264	178	-5	68	126	127	5
-8704	-4928	13436	112	-2	-159	-15484	-1572	-4804	-28	-58	-41	-2532	-4520	15768	55	-165	176	-7472	5960	13064	-154	137	-219	-16272	-308	-3900	85	-64	143	-2312	4592	16488	211	-24	77	126	127	5
-8680	-4844	13628	163	-25	-126	-15416	-1680	-4852	-45	-73	-38	-2380	-4496	15956	69	-150	216	-7516	5992	12936	-87	154	-215	-16208	-320	-3908	63	1	156	-2288	4660	16344	228	-8	42	126	127	5
-8692	-4888	13468	110	9	-151	-15468	-1640	-4780	-3	-38	-52	-2460	-4540	15836	60	-131	201	-7500	6000	12996	-123	129	-223	-16256	-340	-3848	89	-51	119	-2304	4632	16344	244	-22	74	126	127	5
-8684	-4844	13500	92	6	-153	-15508	-1616	-4768	-16	-58	-61	-2420	-4496	15916	63	-154	205	-7468	5960	12984	-100	144	-189	-16244	-296	-3920	76	3	140	-2292	4628	16436	209	-31	36	126	127	5
-8732	-4824	13472	130	-40	-120	-15456	-1684	-4760	-12	-32	-3	-2504	-4484	15832	25	-160	209	-7512	5896	13112	-87	140	-208	-16176	-252	-3876	85	-32	116	-2276	4596	16300	201	-11	41	126	127	5
-8652	-4852	13544	121	-31	-125	-15520	-1620	-4848	7	-45	-9	-2468	-4464	15696	71	-162	167	-7580	5952	13068	-69	113	-210	-16184	-320	-3908	84	-8	154	-2280	4620	16312	201	-4	51	126	127	5
-8716	-4884	13528	118	7	-150	-15404	-1636	-4756	-10	-50	3	-2488	-4528	15880	55	-155	167	-7528	5980	13020	-93	138	-226	-16224	-264	-3988	78	-16	108	-2268	4684	16364	202	6	31	126	127	5
-8684	-4912	13516	111	-26	-126	-15460	-1636	-4716	9	-27	-26	-2540	-4544	15784	89	-147	181	-7520	5920	13052	-66	173	-213	-16236	-240	-3940	111	-16	138	-2348	4640	16356	214	-19	68	126	127	5
-8688	-4856	13636	108	13	-132	-15444	-1624	-4708	1	-23	-15	-2452	-4552	15816	66	-131	196	-7464	5976	12972	-87	146	-218	-16140	-244	-3952	64	-20	121	-2304	4676	16304	207	-42	61	126	127	5
-8656	-4848	13584	106	-7	-116	-15444	-1696	-4844	-13	-30	6	-2508	-4576	15788	84	-128	162	-7528	6024	12964	-99	163	-248	-16176	-320	-4028	69	-2	118	-2376	4596	16312	238	-24	37	126	127	5
-8712	-4864	13656	134	-36	-141	-15432	-1620	-4760	1	3	-21	-2456	-4476	15824	67	-134	206	-7476	6008	12964	-115	114	-220	-16240	-336	-3892	78	39	131	-2272	4644	16268	171	-3	20	126	127	5
-8652	-4912	13528	109	-55	-124	-15460	-1680	-4736	-14	-35	-7	-2528	-4516	15752	33	-103	151	-7516	5988	13036	-100	139	-225	-16276	-352	-3928	104	-20	126	-2320	4668	16532	196	16	42	126	127	5
-8660	-4840	13540	93	8	-156	-15456	-1600	-4708	-3	-18	-21	-2528	-4500	15844	33	-161	138	-7500	5928	13092	-100	124	-197	-16236	-304	-4004	73	5	133	-2336	4664	16328	201	19	-7	126	127	5
-8704	-4880	13472	101	-42	-109	-15452	-1616	-4680	-18	-3	-18	-2560	-4432	15840	39	-138	188	-7492	5976	12996	-57	153	-211	-16228	-276	-3948	86	-28	118	-2384	4692	16312	173	6	30	126	127	5
-8708	-4872	13528	102	-59	-132	-15480	-1616	-4816	-23	-6	-58	-2576	-4520	15776	5	-168	176	-7472	5956	13024	-58	145	-194	-16208	-292	-3988	99	-6	130	-2316	4660	16464	214	41	19	126	127	5
-8744	-4848	13504	113	4	-125	-15452	-1596	-4824	-23	-49	-19	-2488	-4520	15848	46	-140	171	-7544	5956	13016	-140	155	-216	-16240	-312	-3968	59	-27	110	-2332	4668	16424	197	-5	29	126	127	5
-8748	-4892	13504	128	-3	-134	-15464	-1640	-4716	-18	-21	-7	-2448	-4536	15836	68	-176	175	-7508	5920	13084	-116	146	-208	-16256	-276	-3948	64	-28	125	-2356	4596	16336	194	-29	78	126	127	5
-8712	-4856	13476	122	15	-124	-15468	-1616	-4748	-15	-54	-31	-2556	-4508	15740	21	-153	202	-7516	5908	12972	-102	127	-202	-16224	-320	-3972	63	-44	142	-2276	4652	16272	220	-36	34	126	127	5
-8708	-4840	13476	103	-58	-152	-15500	-1628	-4740	8	-55	-42	-2496	-4436	15944	62	-152	157	-7504	5992	12980	-101	141	-246	-16208	-308	-3956	92	18	108	-2328	4608	16356	217	30	44	126	127	5
-8676	-4864	13552	115	36	-134	-15464	-1596	-4716	-39	-74	-70	-2488	-4544	15888	30	-154	200	-7520	5984	12968	-115	133	-231	-16216	-284	-4036	50	-77	99	-2280	4624	16424	227	23	55	126	127	5
-8644	-4780	13484	128	-27	-116	-15420	-1684	-4684	-16	-27	-77	-2468	-4496	15832	56	-129	165	-7492	5924	13060	-93	142	-229	-16236	-328	-3968	92	-35	139	-2272	4572	16380	227	-3	9	126	127	5
-8644	-4932	13464	78	-22	-148	-15512	-1648	-4772	30	-46	-11	-2520	-4520	15796	62	-127	190	-7508	5992	12992	-79	156	-252	-16284	-252	-4040	93	30	97	-2332	4612	16364	172	-4	31	126	127	5
-8736	-4908	13508	95	-19	-157	-15460	-1600	-4788	-21	-24	-10	-2508	-4524	15788	47	-120	167	-7532	5916	13104	-52	171	-192	-16196	-292	-3880	77	-18	115	-2272	4676	16372	182	33	18	126	127	5
-8688	-4788	13472	118	-4	-153	-15464	-1668	-4684	-66	-18	-29	-2560	-4468	15908	-9	-138	140	-7496	5956	13048	-96	160	-261	-16192	-332	-3792	60	-19	129	-2400	4616	16292	179	8	54	126	127	5
-8680	-4868	13428	107	-16	-161	-15468	-1584	-4816	-47	8	-46	-2492	-4552	16016	7	-148	171	-7520	5944	13124	-62	173	-200	-16244	-272	-3944	42	-29	143	-2340	4656	16236	164	10	31	126	127	5
-8716	-4840	13584	115	-35	-98	-15444	-1628	-4564	-10	-30	-20	-2588	-4512	15868	19	-156	187	-7500	6012	13048	-111	168	-208	-16180	-372	-3968	89	-2	89	-2412	4632	16448	178	7	25	126	127	5
-8696	-4852	13492	91	11	-142	-15436	-1636	-4796	30	-78	-17	-2608	-4528	15816	30	-131	169	-7484	5956	13116	-82	161	-231	-16164	-284	-4112	83	-29	117	-2392	4600	16264	203	-15	56	126	127	5
-8684	-4852	13460	95	-53	-140	-15516	-1568	-4772	-13	-65	-12	-2584	-4532	15756	52	-143	210	-7520	5956	13004	-123	182	-201	-16212	-300	-4084	51	-35	123	-2372	4616	16424	207	-11	69	126	127	5
-8708	-4852	13464	93	-30	-141	-15484	-1640	-4884	-28	-58	-57	-2604	-4612	15864	37	-164	216	-7540	5908	13076	-62	139	-218	-16256	-324	-3964	99	-58	145	-2376	4636	16432	213	-1	38	126	127	5
-8700	-4864	13520	73	-12	-152	-15440	-1616	-4796	-28	-75	-65	-2488	-4508	15744	47	-174	206	-7564	5972	13080	-88	143	-217	-16164	-328	-3980	67	-72	190	-2344	4584	16368	254	-5	34	126	127	5
-8680	-4888	13372	86	-72	-160	-15408	-1640	-4788	-56	-85	-39	-2460	-4536	15868	59	-154	173	-7556	5912	13056	-67	129	-231	-16260	-292	-3972	77	-53	157	-2332	4600	16264	233	-25	34	126	127	5
-8724	-4840	13500	124	-39	-157	-15412	-1580	-4660	-45	-91	-66	-2476	-4600	15840	82	-195	199	-7484	5912	13064	-78	137	-236	-16216	-372	-4000	97	-20	176	-2348	4564	16296	254	-1	25	126	127	5
-8744	-4896	13540	158	-58	-169	-15488	-1676	-4680	-74	-72	-87	-2428	-4560	15760	85	-147	219	-7552	6008	13008	-80	129	-203	-16240	-332	-3952	131	-40	158	-2364	4588	16320	226	-43	43	126	127	5
-8720	-4860	13580	144	-66	-125	-15484	-1692	-4672	24	-62	-54	-2436	-4616	15788	69	-155	208	-7460	6028	13128	-50	134	-210	-16252	-284	-4008	107	-11	175	-2300	4644	16288	207	-34	11	126	128	5
-8668	-4864	13424	156	-79	-122	-15536	-1700	-4824	-26	-48	-27	-2496	-4588	15780	73	-173	203	-7504	5980	13012	-118	143	-217	-16188	-280	-3824	97	-27	139	-2272	4664	16376	205	-41	4	126	128	5
-8724	-4844	13412	115	-32	-115	-15436	-1644	-4756	5	-49	-16	-2456	-4600	15880	47	-167	191	-7572	5956	12984	-120	137	-198	-16244	-280	-3944	99	-52	163	-2260	4632	16460	192	-14	47	126	127	5
-8648	-4796	13488	144	-59	-110	-15484	-1628	-4752	-19	-50	-17	-2456	-4584	15848	60	-136	172	-7492	5976	12944	-89	151	-192	-16244	-288	-4028	66	1	130	-2260	4632	16384	227	-40	32	126	128	5
-8660	-4868	13524	150	-36	-151	-15484	-1676	-4688	-2	-47	-10	-2472	-4536	15820	69	-182	169	-7492	5992	12984	-49	142	-210	-16204	-276	-3940	82	-11	135	-2304	4676	16236	243	6	47	126	127	5
-8708	-4832	13540	127	0	-112	-15516	-1576	-4744	-23	-64	0	-2444	-4460	15868	63	-147	197	-7516	5912	12924	-112	152	-186	-16228	-248	-4000	94	34	107	-2312	4600	16292	224	-14	49	126	128	5
-8688	-4824	13528	116	10	-126	-15400	-1616	-4672	2	-63	29	-2420	-4564	15844	66	-146	190	-7448	5972	12972	-71	162	-211	-16196	-336	-3936	69	-14	124	-2272	4656	16296	221	-22	70	126	127	5
-8732	-4916	13580	116	-18	-121	-15404	-1604	-4760	-4	-68	1	-2484	-4520	15888	80	-137	175	-7436	6024	12932	-74	138	-242	-16272	-316	-3952	74	-6	110	-2356	4588	16312	216	-20	61	126	128	5
-8736	-4892	13432	127	1	-150	-15468	-1656	-4684	-13	-77	-19	-2424	-4508	15812	74	-144	207	-7524	5972	12960	-89	164	-218	-16236	-276	-3952	99	9	133	-2312	4640	16296	234	-5	30	126	127	5
-8700	-4856	13492	117	-21	-95	-15440	-1656	-4724	-47	-43	-9	-2528	-4460	15828	79	-157	212	-7472	5992	13020	-71	138	-226	-16204	-332	-3876	93	-2	175	-2268	4640	16324	190	2	35	126	127	5
-8736	-4804	13540	95	20	-110	-15408	-1672	-4812	3	-52	-32	-2468	-4444	15876	73	-137	172	-7516	5972	12996	-102	159	-245	-16260	-264	-3892	102	-30	153	-2280	4636	16356	198	-23	32	126	128	5
-8712	-4916	13544	115	-54	-134	-15516	-1668	-4760	-1	-12	-18	-2472	-4640	15764	63	-162	156	-7532	5972	13056	-63	142	-231	-16208	-236	-4052	80	-1	159	-2312	4712	16392	207	-19	30	126	128	5
-8712	-4872	13408	114	-10	-162	-15464	-1624	-4756	-2	-27	-28	-2544	-4540	15800	83	-157	209	-7544	6004	12976	-99	120	-187	-16216	-276	-3916	71	-43	135	-2356	4648	16308	222	-42	39	126	127	5
-8700	-4840	13448	89	-33	-98	-15448	-1544	-4776	-26	-39	-46	-2488	-4512	15784	60	-119	209	-7540	5996	13052	-60	131	-211	-16208	-292	-3980	85	-19	147	-2304	4656	16368	223	18	37	126	127	5
-8672	-4824	13516	100	-24	-171	-15436	-1604	-4704	-8	-61	2	-2528	-4480	15852	38	-140	190	-7516	5968	13008	-73	143	-214	-16152	-316	-3904	96	-24	111	-2368	4680	16328	209	3	48	126	127	5
-8712	-4868	13524	107	12	-119	-15480	-1660	-4708	-7	-24	-11	-2508	-4504	15716	65	-163	202	-7528	5940	12996	-93	129	-217	-16156	-344	-3988	79	-32	114	-2320	4580	16416	202	3	20	126	127	5
-8712	-4840	13500	82	-6	-136	-15492	-1668	-4684	-18	-72	-13	-2516	-4544	15764	85	-153	198	-7476	5928	13064	-97	141	-183	-16204	-320	-3852	102	-35	146	-2348	4640	16368	202	-27	30	126	127	5
-8604	-4756	13604	138	-51	-130	-15452	-1612	-4748	-32	-56	11	-2428	-4488	15800	56	-154	171	-7460	5980	13004	-68	104	-206	-16208	-308	-3908	82	-60	160	-2388	4600	16276	250	-24	1	126	127	5
-8720	-4888	13488	143	-56	-131	-15436	-1632	-4724	1	-37	-19	-2488	-4436	15772	53	-161	190	-7516	5984	13012	-64	120	-230	-16208	-300	-3896	99	-19	164	-2324	4552	16200	233	-39	29	126	127	5
-8660	-4768	13532	130	-12	-132	-15440	-1616	-4700	38	-38	-14	-2544	-4552	15792	12	-154	162	-7484	5984	12980	-110	140	-227	-16208	-248	-3964	94	-14	129	-2288	4644	16364	231	-48	43	126	127	5
-8712	-4848	13424	123	37	-162	-15436	-1616	-4716	24	-48	-21	-2480	-4536	15916	33	-131	193	-7496	5980	12972	-94	156	-182	-16224	-212	-3880	98	19	149	-2300	4688	16332	208	-20	38	126	127	5
-8664	-4860	13540	149	-27	-128	-15444	-1644	-4780	-30	-38	-13	-2500	-4552	15708	45	-156	177	-7456	5964	13032	-89	150	-193	-16184	-320	-3888	112	-35	127	-2280	4652	16252	202	8	21	126	127	5
-8716	-4844	13528	142	9	-133	-15512	-1668	-4784	32	-31	-33	-2524	-4516	15828	62	-138	162	-7512	6024	12956	-96	141	-211	-16236	-300	-3900	94	-3	112	-2292	4680	16216	178	-33	17	126	127	5
-8728	-4864	13388	108	-3	-136	-15472	-1624	-4736	-6	-47	-13	-2512	-4456	15856	66	-136	182	-7444	5964	13008	-74	130	-192	-16180	-292	-3872	116	-59	146	-2316	4628	16472	215	1	15	126	128	5
-8712	-4876	13440	162	-52	-141	-15408	-1576	-4828	-23	-24	11	-2504	-4496	15828	47	-124	155	-7468	5924	13020	-85	159	-200	-16252	-244	-3924	109	-6	99	-2260	4684	16320	220	31	65	126	127	5
-8724	-4832	13480	139	-30	-99	-15516	-1624	-4812	6	-39	-17	-2472	-4484	15752	36	-139	173	-7468	5988	13024	-119	143	-229	-16176	-312	-3816	50	6	156	-2364	4688	16412	205	4	73	126	127	5
-8696	-4804	13520	112	-31	-124	-15488	-1600	-4684	-25	-28	-68	-2488	-4500	15900	45	-122	178	-7492	5960	13056	-123	165	-238	-16224	-240	-3956	78	-45	128	-2368	4664	16368	210	1	50	126	128	5
-8716	-4840	13512	94	2	-150	-15500	-1656	-4744	-13	-30	-24	-2536	-4576	15960	38	-124	171	-7556	5960	13000	-127	169	-219	-16244	-352	-3892	68	-26	126	-2320	4676	16480	200	14	42	126	127	5
-8684	-4816	13392	62	28	-125	-15464	-1632	-4748	-3	-6	-35	-2524	-4524	15820	22	-128	185	-7528	5960	13020	-85	177	-214	-16144	-300	-4000	76	-23	94	-2336	4596	16288	170	-18	38	126	127	5
-8732	-4856	13476	122	-6	-121	-15480	-1628	-4756	-23	-72	-71	-2560	-4600	15772	25	-146	190	-7524	5920	13112	-100	168	-210	-16244	-320	-3836	82	-26	143	-2256	4632	16308	180	-42	53	126	127	5
-8688	-4832	13448	92	-45	-166	-15452	-1624	-4836	-42	-33	-22	-2512	-4536	15844	97	-173	203	-7508	5948	13020	-95	152	-210	-16180	-332	-4024	85	-26	133	-2328	4612	16280	191	-35	32	126	127	5
-8732	-4868	13448	97	-20	-137	-15432	-1632	-4812	-7	-41	-74	-2484	-4536	15856	71	-161	207	-7440	5976	13020	-94	159	-254	-16216	-376	-3908	80	-40	154	-2368	4624	16412	185	-48	23	126	127	5
-8716	-4872	13432	101	-23	-133	-15488	-1640	-4676	-11	-80	-66	-2548	-4508	15892	75	-139	165	-7428	5988	13032	-89	129	-238	-16248	-268	-3920	98	-46	154	-2316	4624	16340	207	-37	13	126	128	5
-8708	-4856	13476	118	-54	-143	-15448	-1688	-4760	-11	-55	-58	-2508	-4520	15852	68	-169	206	-7476	5912	13024	-81	149	-219	-16240	-368	-3892	114	-41	161	-2276	4560	16368	230	-52	7	126	127	5
-8712	-4880	13552	111	-32	-177	-15464	-1692	-4864	-32	-76	-49	-2500	-4520	15792	56	-184	188	-7488	5968	13052	-91	121	-205	-16236	-260	-3940	122	-38	143	-2264	4564	16432	230	-10	14	126	127	5
-8636	-4868	13460	153	-33	-143	-15464	-1684	-4672	-9	-83	-53	-2464	-4556	15736	29	-175	189	-7376	5984	13040	-37	148	-204	-16252	-332	-3896	93	-4	175	-2276	4652	16312	227	-22	23	126	127	5
-8708	-4824	13444	126	20	-117	-15428	-1624	-4704	-40	-50	-35	-2488	-4560	15764	68	-144	177	-7492	5948	13056	-87	106	-228	-16196	-312	-3928	118	-56	164	-2300	4668	16408	218	-10	28	126	127	5
-8728	-4864	13456	146	-26	-149	-15400	-1636	-4768	-6	-79	-64	-2428	-4464	15844	89	-149	196	-7464	5936	12984	-98	131	-233	-16264	-260	-4096	109	-22	132	-2284	4724	16320	215	-16	13	126	127	5
-8644	-4820	13412	129	-7	-157	-15380	-1660	-4724	13	-54	2	-2476	-4520	15768	51	-175	179	-7504	5996	13040	-89	162	-217	-16192	-272	-3932	106	-4	127	-2272	4664	16400	199	-8	27	126	127	5
-8724	-4888	13436	133	-27	-152	-15400	-1636	-4772	-29	-60	-17	-2516	-4508	15888	92	-117	176	-7492	6016	12992	-34	131	-204	-16200	-288	-3948	50	19	136	-2280	4724	16264	197	3	44	126	127	5
-8660	-4916	13528	120	35	-91	-15456	-1608	-4756	-6	-19	-29	-2508	-4460	15864	47	-149	189	-7540	5956	12960	-74	163	-234	-16180	-264	-3968	80	-26	152	-2280	4748	16276	202	3	46	126	127	5
-8672	-4828	13424	150	-47	-113	-15424	-1528	-4612	-18	-32	-20	-2540	-4424	15856	49	-150	206	-7476	5988	12996	-86	135	-251	-16220	-316	-3936	92	-59	144	-2360	4712	16240	231	17	38	126	127	5
-8708	-4860	13492	126	-68	-152	-15480	-1588	-4740	-32	-22	5	-2528	-4428	15732	67	-115	176	-7528	5940	13016	-104	148	-198	-16220	-312	-4004	67	-1	102	-2340	4608	16320	228	-3	46	126	127	5
-8712	-4884	13584	102	-7	-156	-15456	-1584	-4744	-34	-8	-61	-2536	-4496	15740	58	-165	181	-7476	5944	13048	-49	141	-221	-16208	-300	-3880	89	-27	111	-2300	4724	16408	209	-6	26	126	128	5
-8668	-4832	13512	115	-18	-149	-15428	-1620	-4716	-16	-40	-37	-2504	-4480	15796	55	-126	160	-7556	5944	12968	-103	138	-220	-16168	-312	-3888	91	-20	116	-2332	4640	16416	202	13	-3	126	127	5
-8700	-4888	13512	116	-24	-147	-15504	-1656	-4792	17	-14	-65	-2512	-4496	15880	21	-125	217	-7476	5972	13096	-95	173	-217	-16256	-340	-4060	88	-73	126	-2332	4728	16464	165	14	18	126	127	5
-8696	-4956	13388	115	-23	-136	-15452	-1692	-4836	0	-32	-10	-2516	-4520	15808	15	-166	196	-7516	5900	13044	-65	109	-249	-16140	-252	-4060	83	-49	134	-2308	4676	16288	188	14	29	126	128	5
-8628	-4896	13564	125	-21	-125	-15452	-1652	-4648	-13	-42	-61	-2512	-4596	15800	45	-141	178	-7580	5940	13028	-91	104	-210	-16228	-348	-3996	92	-41	130	-2296	4600	16452	184	-10	45	126	127	5
-8724	-4832	13488	123	-5	-124	-15472	-1632	-4904	-43	-75	-60	-2484	-4588	15868	47	-163	177	-7544	5968	13032	-80	142	-201	-16128	-300	-3864	66	-13	104	-2324	4612	16304	206	-25	27	126	127	5
-8688	-4840	13472	119	9	-157	-15392	-1632	-4736	-8	-60	-31	-2524	-4576	15776	32	-167	187	-7488	6012	13032	-76	143	-177	-16244	-356	-4020	89	-68	149	-2364	4596	16356	219	-12	33	126	128	5
-8712	-4912	13384	96	-14	-150	-15472	-1616	-4748	-31	-65	-36	-2460	-4544	15812	79	-169	192	-7528	5940	13004	-99	123	-243	-16216	-332	-3944	63	-59	113	-2376	4572	16320	243	-10	42	126	127	5
-8712	-4824	13476	136	-36	-129	-15396	-1704	-4808	-13	-61	-37	-2496	-4596	15788	100	-119	170	-7480	5992	12976	-57	134	-197	-16196	-344	-3976	139	-46	135	-2388	4564	16496	226	-28	24	126	127	5
-8732	-4860	13520	107	-67	-108	-15388	-1672	-4804	-17	-67	-55	-2504	-4548	15820	71	-136	190	-7556	5940	13004	-78	136	-220	-16216	-312	-4020	112	-36	155	-2368	4596	16360	218	5	14	126	127	5
-8672	-4860	13412	139	-36	-136	-15536	-1740	-4716	-11	-86	-26	-2464	-4564	15772	79	-148	225	-7548	6000	12944	-101	136	-205	-16220	-348	-3944	110	-25	152	-2308	4596	16444	216	-2	3	126	127	5
-8724	-4888	13536	120	-17	-131	-15436	-1624	-4788	1	-93	-21	-2460	-4540	15760	41	-149	185	-7476	5960	13040	-41	141	-242	-16268	-300	-3968	123	-51	177	-2280	4608	16240	213	-32	4	126	127	5
-8724	-4860	13424	148	11	-135	-15488	-1612	-4792	3	-71	13	-2452	-4504	15804	53	-191	154	-7500	5960	12976	-61	123	-255	-16192	-300	-3992	99	-54	142	-2312	4644	16368	225	-40	47	126	127	5
-8692	-4924	13552	130	13	-145	-15452	-1636	-4740	-35	-77	42	-2476	-4460	15892	62	-128	171	-7468	5996	13016	-36	150	-207	-16216	-268	-3972	114	-43	129	-2240	4700	16284	238	-26	29	126	127	5
-8684	-4800	13476	135	16	-126	-15476	-1644	-4808	-13	-6	-36	-2408	-4484	15816	87	-167	197	-7480	5960	12980	-108	145	-228	-16204	-312	-3928	129	-52	150	-2340	4680	16288	219	-13	39	126	127	5
-8652	-4888	13392	107	-6	-140	-15504	-1636	-4772	45	-46	-44	-2456	-4504	15892	45	-114	199	-7500	5944	12968	-85	135	-237	-16236	-280	-3984	97	-11	167	-2264	4716	16352	211	18	37	126	127	5
-8676	-4888	13464	139	-79	-145	-15544	-1652	-4776	-12	-59	-29	-2432	-4484	15840	57	-155	198	-7540	5940	13056	-76	179	-246	-16196	-236	-3916	82	-3	121	-2216	4684	16368	185	-1	19	126	127	5
-8672	-4832	13540	98	-14	-107	-15456	-1640	-4768	-4	-28	-28	-2524	-4484	15912	47	-143	213	-7512	5908	13004	-92	187	-242	-16240	-324	-4044	85	-2	97	-2284	4680	16380	153	-13	47	126	127	5
-8688	-4868	13484	116	5	-121	-15496	-1564	-4776	-12	-21	-40	-2508	-4552	15812	53	-135	211	-7496	6028	13056	-95	176	-210	-16208	-356	-3956	55	9	97	-2272	4700	16428	212	0	53	126	127	5
-8688	-4836	13492	112	-37	-119	-15452	-1608	-4820	-22	-43	1	-2556	-4488	15836	49	-155	198	-7480	5864	12988	-102	170	-203	-16164	-288	-4020	68	-22	113	-2288	4632	16192	158	-5	60	126	127	5
-8684	-4796	13544	83	-19	-120	-15492	-1608	-4728	40	-12	-68	-2532	-4572	15828	58	-140	195	-7512	5912	12972	-86	192	-229	-16192	-344	-3988	43	-10	105	-2292	4656	16320	191	-30	34	126	127	5
-8676	-4820	13436	98	-37	-122	-15472	-1640	-4824	-3	-9	-38	-2528	-4488	15760	59	-135	217	-7452	6012	12964	-134	130	-223	-16164	-320	-4076	87	-8	99	-2380	4612	16260	212	1	31	126	127	5
-8692	-4860	13540	117	-29	-142	-15460	-1676	-4760	-16	-60	-45	-2524	-4468	15836	82	-172	193	-7532	5944	12968	-85	148	-232	-16240	-396	-3920	88	4	125	-2288	4692	16296	183	-33	50	126	127	5
-8716	-4824	13500	116	0	-115	-15484	-1628	-4744	-26	-34	-36	-2524	-4556	15848	38	-171	188	-7500	5972	13016	-54	131	-232	-16216	-348	-4076	109	-36	121	-2280	4568	16464	175	-25	10	126	127	5
-8700	-4880	13556	129	-18	-124	-15416	-1628	-4748	-4	-34	-27	-2508	-4532	15772	44	-172	188	-7524	5920	13104	-59	121	-180	-16240	-328	-4028	116	7	161	-2272	4592	16296	196	-4	9	126	127	5
-8736	-4832	13512	94	16	-94	-15460	-1612	-4736	-28	-39	-50	-2452	-4568	15912	59	-183	186	-7548	5924	12968	-99	126	-223	-16200	-276	-3980	128	-14	139	-2328	4616	16384	191	-40	2	126	127	5
-8692	-4964	13408	133	-37	-103	-15436	-1672	-4776	6	-57	-16	-2520	-4460	15828	80	-187	176	-7500	5920	12972	-64	131	-206	-16192	-336	-3912	102	-60	149	-2296	4716	16376	207	-12	4	126	127	5
-8692	-4836	13476	114	-25	-118	-15476	-1700	-4820	16	-42	-57	-2468	-4572	15820	65	-176	198	-7508	5972	13072	-98	126	-215	-16244	-268	-3980	97	-37	160	-2332	4696	16448	211	-11	29	126	127	5
-8704	-4912	13496	130	-61	-122	-15468	-1676	-4724	-22	-66	-8	-2480	-4556	15876	65	-155	149	-7464	5928	12928	-108	141	-249	-16192	-252	-3864	120	-25	136	-2352	4652	16340	191	16	14	126	127	5
-8696	-4864	13528	151	-30	-113	-15532	-1652	-4816	-2	-60	-5	-2452	-4472	15780	53	-144	153	-7460	5908	13008	-112	140	-213	-16232	-288	-3924	70	-1	140	-2324	4684	16420	212	-11	43	126	127	5
-8712	-4880	13424	107	-20	-121	-15400	-1656	-4804	-8	-49	17	-2492	-4540	15772	78	-130	165	-7516	5916	13052	-67	113	-218	-16232	-308	-3984	99	-60	124	-2284	4660	16312	185	16	37	126	127	5
-8708	-4924	13564	126	-41	-159	-15444	-1656	-4760	28	-49	15	-2504	-4512	15828	61	-129	177	-7492	5960	12960	-79	134	-225	-16180	-312	-3964	83	-30	174	-2344	4628	16380	217	-24	21	126	127	5
-8716	-4888	13524	122	-17	-130	-15420	-1580	-4752	12	-77	-3	-2484	-4504	15848	88	-130	191	-7500	5904	12992	-131	150	-216	-16216	-300	-3984	58	-26	114	-2312	4660	16260	219	16	13	126	127	5
-8724	-4864	13508	114	-34	-143	-15460	-1600	-4812	-46	-29	-17	-2556	-4504	15820	57	-152	190	-7504	5988	13020	-104	145	-238	-16240	-316	-4000	80	-45	136	-2332	4652	16320	211	3	45	126	127	5
-8684	-4884	13424	100	13	-132	-15504	-1664	-4620	24	-43	-24	-2496	-4516	15764	52	-167	178	-7464	5924	12932	-79	145	-213	-16256	-332	-3880	74	-44	126	-2300	4616	16352	191	-8	53	126	127	5
-8672	-4904	13516	126	-28	-118	-15492	-1616	-4856	-15	-32	-35	-2484	-4496	15812	33	-159	165	-7524	5928	13016	-109	142	-211	-16244	-280	-3996	94	-56	102	-2296	4672	16332	185	14	54	126	127	5
-8756	-4856	13520	126	-49	-148	-15436	-1608	-4816	2	-74	-8	-2468	-4500	15764	24	-134	157	-7476	5916	13016	-96	157	-201	-16240	-308	-3952	97	-37	138	-2328	4708	16348	161	-8	27	126	127	5
-8756	-4900	13428	103	-19	-153	-15436	-1592	-4744	-17	-59	-62	-2492	-4520	15820	30	-168	170	-7540	5996	13012	-87	140	-215	-16212	-288	-3976	77	-17	105	-2328	4680	16376	181	4	45	126	127	5
-8736	-4816	13464	122	-57	-151	-15484	-1616	-4816	-42	-89	-64	-2544	-4516	15748	22	-154	190	-7552	5980	13016	-90	144	-236	-16224	-236	-4040	82	-3	126	-2356	4684	16412	203	-21	28	126	127	5
-8692	-4872	13516	118	-26	-146	-15468	-1648	-4640	-38	-68	-70	-2524	-4536	15796	59	-174	187	-7472	5928	13048	-112	116	-171	-16204	-336	-3992	104	-43	103	-2364	4576	16440	192	-10	27	126	128	5
-8728	-4884	13424	116	-58	-132	-15472	-1608	-4796	2	-54	-48	-2496	-4540	15840	10	-183	213	-7520	6004	12984	-61	123	-214	-16172	-336	-3968	78	-24	99	-2252	4624	16348	223	4	3	126	127	5
-8772	-4860	13548	142	-57	-148	-15444	-1708	-4804	-13	-29	-36	-2500	-4600	15660	42	-146	211	-7500	6016	12864	-126	122	-193	-16228	-372	-3924	63	-40	140	-2404	4568	16400	221	9	47	126	127	5
-8712	-4796	13452	134	-48	-111	-15416	-1648	-4808	-46	-64	-53	-2460	-4588	15848	61	-155	207	-7500	5952	13128	-69	136	-205	-16232	-304	-4028	68	-40	156	-2352	4632	16312	190	-16	20	126	127	5
-8688	-4900	13632	163	-36	-134	-15448	-1684	-4848	4	-63	-59	-2464	-4584	15764	71	-181	223	-7552	5884	13100	-78	140	-228	-16228	-304	-3948	86	-44	122	-2256	4584	16284	218	-16	30	126	127	5
-8636	-4840	13556	100	-37	-154	-15448	-1636	-4740	-8	-55	25	-2508	-4496	15800	108	-151	179	-7488	5936	13060	-78	161	-208	-16252	-300	-4008	122	-7	159	-2328	4644	16428	231	34	34	126	128	5
-8724	-4816	13432	139	-33	-107	-15532	-1592	-4716	0	-43	9	-2424	-4596	15872	105	-151	191	-7492	5960	12960	-67	154	-199	-16160	-296	-3828	100	-34	179	-2220	4632	16324	264	-29	17	126	127	5
-8684	-4892	13552	121	-17	-113	-15440	-1692	-4692	-43	-65	19	-2456	-4524	15848	88	-158	199	-7476	5992	12984	-78	166	-199	-16220	-284	-3984	74	-22	159	-2260	4644	16320	226	2	22	126	127	5
-8684	-4848	13496	111	-25	-108	-15484	-1676	-4732	-14	-46	22	-2432	-4500	15796	78	-140	225	-7552	5920	13024	-52	122	-235	-16208	-260	-3996	118	15	160	-2256	4736	16324	215	-23	25	126	128	5
-8692	-4908	13524	123	25	-130	-15452	-1664	-4692	39	-34	3	-2428	-4492	15816	53	-124	145	-7552	5916	13028	-48	108	-177	-16196	-248	-4012	101	-18	175	-2344	4784	16340	235	-22	23	126	127	5
-8752	-4872	13460	130	-34	-114	-15556	-1548	-4776	-1	-44	2	-2536	-4432	15836	75	-127	181	-7576	5992	12980	-127	151	-230	-16124	-320	-3988	95	-45	126	-2308	4748	16280	205	-16	28	126	127	5
-8660	-4888	13464	136	-26	-122	-15396	-1596	-4688	-17	-7	-48	-2468	-4444	15864	33	-134	168	-7484	5960	12928	-95	168	-226	-16208	-316	-3892	87	10	122	-2244	4752	16396	184	6	27	126	127	5
-8696	-4908	13484	144	-33	-135	-15420	-1592	-4740	-24	-27	-12	-2500	-4388	15756	28	-128	191	-7476	6012	12944	-99	146	-222	-16228	-196	-3964	111	1	135	-2264	4748	16352	151	-11	0	126	127	5
-8688	-4912	13440	130	-37	-173	-15500	-1588	-4740	-12	-29	-56	-2532	-4440	15812	8	-115	199	-7544	5924	13008	-104	173	-226	-16200	-240	-3916	54	-28	144	-2320	4636	16460	145	10	35	126	127	5
-8732	-4836	13604	83	-24	-138	-15516	-1580	-4684	-32	-24	-51	-2496	-4408	15908	10	-127	205	-7476	5988	13040	-131	160	-200	-16224	-272	-3940	94	-12	104	-2336	4716	16324	175	8	39	126	127	5
-8736	-4804	13436	83	-32	-137	-15448	-1644	-4764	-21	41	-82	-2532	-4544	15800	-6	-161	187	-7512	5928	12996	-105	125	-249	-16220	-284	-3996	56	7	56	-2384	4704	16276	205	38	52	126	127	5
-8708	-4852	13484	74	-3	-162	-15488	-1616	-4772	13	-31	-50	-2492	-4532	15744	7	-153	220	-7540	5956	13168	-80	148	-206	-16232	-340	-4000	51	-7	69	-2276	4656	16356	172	14	37	126	127	5
-8692	-4864	13528	82	6	-116	-15448	-1720	-4712	-16	-8	-59	-2540	-4604	15808	36	-145	184	-7528	5932	12976	-81	167	-191	-16188	-280	-4032	93	-10	104	-2380	4620	16296	178	-18	61	126	127	5
-8756	-4824	13436	83	14	-130	-15480	-1616	-4780	26	-47	-35	-2540	-4560	15828	29	-138	185	-7484	5948	13076	-63	159	-242	-16168	-316	-4044	23	-39	60	-2400	4544	16300	160	-3	53	126	127	5
-8672	-4896	13468	107	10	-163	-15416	-1636	-4712	-22	-27	-29	-2460	-4616	15768	14	-124	177	-7492	5928	13036	-50	115	-221	-16232	-348	-3932	106	-40	110	-2400	4532	16276	177	-17	51	126	127	5
-8628	-4868	13496	85	-23	-119	-15396	-1648	-4772	8	-71	-45	-2548	-4632	15840	68	-141	156	-7464	5908	13080	-77	166	-224	-16268	-376	-4044	86	-26	144	-2376	4628	16376	173	-26	16	126	127	5
-8752	-4944	13432	81	-17	-115	-15448	-1620	-4812	-15	-63	-18	-2516	-4536	15824	95	-153	155	-7528	5928	13032	-89	138	-201	-16200	-340	-4108	93	-16	149	-2376	4560	16336	187	21	26	126	127	5
-8644	-4924	13596	143	-15	-138	-15444	-1640	-4840	-13	-25	34	-2520	-4512	15740	98	-136	170	-7484	5944	12940	-91	115	-216	-16300	-448	-3940	88	-31	141	-2212	4592	16524	115	18	-109	126	127	5
-8672	-4828	13520	124	-90	-112	-15448	-1684	-4764	13	-81	-39	-2512	-4540	15808	84	-154	173	-7500	5912	13124	-55	152	-200	-16280	-276	-3920	129	-53	156	-2412	4452	16268	240	-6	130	126	127	5
-8628	-4880	13492	116	-61	-133	-15412	-1564	-4708	-15	-87	-39	-2520	-4568	15752	84	-151	194	-7464	5912	13008	-96	137	-222	-16112	-264	-3964	105	-5	160	-2320	4652	16404	396	-50	8	126	127	5
-8692	-4876	13548	137	2	-150	-15452	-1704	-4744	-9	-69	-50	-2500	-4544	15840	93	-161	188	-7520	5928	13036	-66	122	-214	-16276	-328	-4000	154	-35	180	-2276	4812	16368	213	-51	26	126	127	5
-8676	-4912	13420	137	-54	-112	-15480	-1676	-4896	-9	-64	-2	-2460	-4540	15928	99	-174	195	-7536	5964	13156	-60	137	-175	-16204	-324	-3984	97	-37	153	-2264	4736	16264	182	-16	69	126	127	5
-8724	-4868	13404	123	-62	-129	-15408	-1712	-4756	1	-72	-23	-2520	-4476	15908	38	-172	184	-7528	5896	13008	-68	164	-241	-16248	-220	-3768	70	-27	183	-2296	4708	16264	207	-6	-6	126	127	5
-8704	-4864	13580	152	-9	-119	-15448	-1588	-4820	-51	-28	-27	-2524	-4524	15892	84	-122	178	-7472	6004	13076	-59	130	-232	-16276	-316	-3944	119	-58	130	-2272	4672	16332	180	9	5	126	127	5
-8708	-4840	13348	113	-54	-128	-15468	-1612	-4768	-12	-74	-37	-2536	-4436	15692	78	-138	188	-7496	5992	13044	-94	155	-236	-16156	-296	-3992	48	-35	137	-2268	4616	16396	200	-16	33	126	127	5
-8696	-4908	13492	109	-35	-138	-15408	-1588	-4684	6	-53	-8	-2492	-4400	15892	74	-152	183	-7488	5948	13124	-61	140	-205	-16160	-312	-3912	21	-24	106	-2368	4628	16292	232	5	46	126	127	5
-8640	-4860	13508	72	-25	-155	-15452	-1688	-4752	-6	-60	-50	-2476	-4520	15812	72	-125	207	-7504	5940	13016	-98	153	-219	-16128	-292	-3856	86	-30	157	-2356	4652	16216	176	-6	55	126	127	5
-8752	-4888	13456	101	5	-140	-15528	-1636	-4696	11	-84	-28	-2536	-4488	15796	72	-135	198	-7460	5956	12968	-73	131	-220	-16200	-304	-3812	94	-34	152	-2284	4648	16372	203	-25	49	126	127	5
-8648	-4884	13500	103	-53	-131	-15472	-1616	-4688	-12	-33	-15	-2428	-4532	15828	52	-127	200	-7520	5988	13060	-102	153	-165	-16216	-320	-3980	116	-34	123	-2268	4668	16376	223	3	22	126	127	5
-8720	-4852	13496	107	14	-147	-15468	-1616	-4768	8	-48	-38	-2500	-4580	15820	84	-130	198	-7452	5940	12952	-84	122	-221	-16216	-264	-3972	160	21	138	-2284	4696	16276	230	3	21	126	127	5
-8684	-4816	13552	89	-21	-117	-15368	-1672	-4708	5	-30	-12	-2456	-4576	15820	89	-141	185	-7432	5976	13068	-65	165	-225	-16204	-324	-4068	71	-13	154	-2324	4644	16344	195	1	3	126	127	5
-8676	-4856	13512	130	-15	-115	-15460	-1620	-4784	-30	-57	-36	-2496	-4508	15764	55	-151	166	-7492	5980	12944	-87	164	-226	-16180	-280	-4004	54	-26	144	-2248	4696	16340	184	-12	51	126	127	5
-8716	-4896	13532	80	-17	-123	-15432	-1684	-4740	-6	-18	-8	-2436	-4440	15872	46	-175	188	-7492	5932	13016	-98	132	-215	-16212	-280	-4040	96	-17	149	-2296	4640	16388	197	-23	17	126	127	5
-8616	-4924	13492	117	-43	-142	-15420	-1640	-4780	-22	-42	-27	-2580	-4512	15884	43	-150	210	-7520	5956	13104	-81	162	-215	-16244	-248	-3936	87	-17	135	-2244	4680	16428	216	-8	42	126	128	5
-8696	-4916	13456	133	-51	-133	-15396	-1620	-4764	-18	-28	-12	-2564	-4520	15804	59	-144	135	-7488	5948	13080	-57	193	-217	-16212	-308	-4004	79	-54	127	-2300	4764	16328	207	0	48	126	127	5
-8728	-4828	13472	125	0	-109	-15388	-1592	-4676	-26	-55	-47	-2544	-4492	15908	30	-153	223	-7456	5960	13008	-106	132	-216	-16200	-248	-3892	57	-30	116	-2324	4632	16416	199	22	-6	126	127	5
-8744	-4820	13548	97	-13	-140	-15444	-1640	-4868	-10	-41	-22	-2572	-4524	15868	45	-144	180	-7504	5932	13036	-75	161	-204	-16188	-352	-4100	72	-18	134	-2332	4616	16328	190	19	28	126	127	5
-8672	-4844	13548	122	-44	-123	-15400	-1612	-4744	-16	-55	-24	-2580	-4564	15836	60	-124	161	-7448	5948	13052	-85	109	-202	-16220	-296	-3900	76	-31	127	-2360	4620	16368	200	19	32	126	127	5
-8716	-4936	13528	138	-22	-144	-15496	-1572	-4772	-29	-50	-42	-2488	-4492	15840	64	-131	184	-7428	5944	13096	-94	150	-215	-16252	-332	-3876	98	-34	102	-2292	4604	16376	233	9	37	126	127	5
-8612	-4860	13540	134	-90	-160	-15424	-1716	-4712	-34	-58	-39	-2464	-4528	15700	89	-161	183	-7488	5920	12948	-87	138	-240	-16192	-352	-3984	109	-16	109	-2276	4624	16340	187	-25	30	126	127	5
-8724	-4872	13552	142	-16	-155	-15472	-1644	-4728	-20	-47	5	-2440	-4572	15816	48	-192	188	-7512	5912	12904	-75	127	-185	-16176	-296	-3952	92	17	151	-2260	4636	16320	211	-37	28	126	127	5
-8724	-4848	13448	127	-3	-158	-15456	-1620	-4680	-28	-42	-1	-2456	-4480	15780	53	-147	203	-7512	5968	12992	-67	171	-215	-16248	-384	-3904	89	-58	124	-2260	4616	16336	236	-13	30	126	127	5
-8672	-4892	13520	144	-5	-154	-15452	-1616	-4660	-18	-27	-30	-2536	-4472	15784	60	-161	167	-7536	5940	13048	-103	150	-201	-16192	-300	-3944	75	-28	154	-2284	4640	16292	231	-2	3	126	127	5
-8672	-4928	13532	122	-36	-129	-15412	-1656	-4756	22	-4	13	-2500	-4540	15872	37	-137	143	-7524	5920	13136	-74	157	-181	-16208	-268	-3956	139	10	109	-2256	4708	16292	213	21	41	125	127	5
-8680	-4828	13536	106	-2	-121	-15444	-1656	-4772	3	-34	-37	-2488	-4548	15788	45	-110	148	-7448	5980	13056	-115	137	-216	-16268	-260	-4016	70	-1	153	-2380	4724	16380	207	17	34	126	127	5
-8760	-4892	13552	115	-7	-77	-15440	-1568	-4736	42	-25	33	-2492	-4484	15836	53	-92	155	-7544	5956	13116	-109	149	-212	-16212	-272	-3944	56	-4	122	-2260	4736	16352	214	9	31	126	127	5
-8672	-4852	13496	106	-50	-131	-15436	-1608	-4732	19	-27	-3	-2480	-4436	15816	71	-136	160	-7484	5948	13128	-114	171	-219	-16224	-280	-3960	78	6	130	-2304	4676	16264	188	77	47	126	127	5
-8660	-4896	13584	121	-23	-116	-15504	-1572	-4808	11	17	-2	-2500	-4544	15796	60	-139	151	-7504	5944	13124	-82	192	-184	-16192	-280	-3936	42	-21	55	-2408	4676	16436	200	6	14	126	127	5
-8692	-4896	13600	99	3	-141	-15480	-1520	-4840	24	-28	-12	-2500	-4480	15840	41	-122	181	-7516	5944	13016	-110	173	-223	-16200	-316	-4064	75	5	104	-2344	4668	16336	173	19	15	126	127	5
-8652	-4868	13464	105	-64	-144	-15536	-1588	-4772	-31	9	-53	-2612	-4476	15836	32	-126	194	-7528	5912	13060	-75	177	-224	-16144	-252	-3840	71	6	83	-2272	4608	16312	170	8	13	126	127	5
-8716	-4928	13452	65	-20	-126	-15428	-1652	-4652	-35	17	-5	-2516	-4556	15764	6	-126	146	-7500	5964	13036	-77	166	-215	-16212	-328	-4088	84	4	128	-2320	4632	16388	162	3	46	126	127	5
-8680	-4880	13532	103	27	-155	-15472	-1644	-4716	-27	-35	-49	-2484	-4552	15760	58	-133	190	-7468	5900	13016	-70	159	-227	-16268	-312	-3880	81	25	130	-2292	4540	16264	159	7	51	126	127	5
-8708	-4808	13580	122	-10	-154	-15544	-1624	-4780	14	23	-39	-2536	-4556	15864	44	-153	153	-7540	5956	12960	-60	145	-203	-16296	-376	-3952	90	3	149	-2344	4608	16432	171	-30	49	126	127	5
-8596	-4836	13460	91	-30	-114	-15468	-1636	-4764	6	-35	-16	-2524	-4564	15864	12	-161	129	-7548	5924	13028	-72	144	-222	-16208	-300	-4044	106	20	126	-2280	4632	16304	176	-19	28	126	127	5
-8696	-4900	13436	131	-27	-119	-15424	-1644	-4808	0	-20	-18	-2592	-4544	15816	78	-175	210	-7548	6000	13088	-79	133	-199	-16224	-280	-4092	116	-24	125	-2368	4648	16332	170	-22	-7	126	127	5
-8660	-4836	13420	123	11	-125	-15420	-1632	-4788	15	-29	-31	-2624	-4572	15848	23	-177	205	-7576	5984	13008	-56	106	-223	-16200	-292	-3996	85	-36	127	-2408	4652	16380	189	-5	6	126	127	5
-8796	-4852	13452	147	-30	-136	-15460	-1604	-4876	-3	-58	-60	-2600	-4516	15848	36	-164	166	-7580	5984	13048	-117	94	-193	-16228	-260	-4012	83	-117	114	-2416	4668	16332	160	-37	46	126	127	5
-8684	-4932	13416	115	-77	-140	-15396	-1576	-4888	-7	-104	-1	-2636	-4560	15876	71	-171	224	-7424	5960	12972	-99	106	-230	-16212	-260	-4004	38	-80	120	-2328	4672	16332	206	12	80	126	127	5
-8748	-4844	13480	142	-67	-150	-15468	-1540	-4800	-41	-124	-47	-2528	-4496	15660	89	-190	249	-7460	5996	12960	-118	157	-235	-16272	-348	-3936	76	-64	116	-2372	4588	16284	213	-24	47	126	127	5
-8720	-4872	13420	134	-1	-194	-15492	-1568	-4860	-92	-127	-51	-2524	-4508	15792	52	-166	250	-7532	5956	13064	-106	130	-198	-16212	-396	-4068	85	-68	129	-2356	4624	16468	217	6	74	126	127	5
-8728	-4820	13452	92	-35	-136	-15496	-1612	-4768	-48	-85	-73	-2488	-4568	15812	59	-179	237	-7488	5932	13000	-100	129	-205	-16180	-392	-3880	87	-51	166	-2364	4528	16332	255	-17	49	126	127	5
-8728	-4876	13588	92	-53	-132	-15484	-1672	-4776	-44	-115	-55	-2504	-4564	15760	88	-203	221	-7516	6012	13132	-74	132	-173	-16224	-372	-3964	84	-110	209	-2316	4580	16396	237	-17	29	126	127	5
-8744	-4904	13424	132	-25	-162	-15548	-1668	-4708	29	-80	-56	-2452	-4536	15756	69	-160	233	-7444	5976	12996	-70	146	-187	-16156	-332	-3952	148	-39	168	-2284	4596	16376	245	-56	11	126	127	5
-8664	-4876	13476	110	-55	-161	-15536	-1672	-4760	-31	-83	-34	-2496	-4588	15772	55	-182	195	-7544	5992	13036	-11	163	-193	-16196	-280	-3976	133	-68	170	-2200	4672	16296	226	-66	30	126	127	5
-8736	-4880	13500	108	-75	-125	-15444	-1620	-4772	6	-106	-21	-2452	-4588	15780	114	-160	174	-7536	5940	13016	-71	153	-194	-16168	-280	-3976	95	-65	211	-2340	4700	16412	267	-27	3	126	127	5
-8712	-4888	13492	117	-17	-147	-15448	-1592	-4776	-52	-69	-14	-2440	-4560	15856	123	-187	205	-7540	6020	13116	-88	155	-204	-16236	-260	-3864	113	-14	164	-2280	4660	16196	244	-54	75	126	127	5
-8652	-4912	13508	150	-46	-128	-15516	-1684	-4760	-34	-79	-10	-2460	-4464	15820	141	-179	203	-7496	5948	13108	-88	139	-216	-16228	-272	-3972	110	-50	157	-2296	4636	16384	242	-38	65	126	127	5
-8680	-4920	13420	143	-60	-107	-15460	-1680	-4756	-12	-47	-5	-2372	-4488	15908	73	-150	186	-7512	5976	12964	-71	183	-241	-16236	-320	-3904	120	-11	176	-2260	4752	16400	220	3	15	126	127	5
-8640	-4948	13540	115	-30	-107	-15528	-1644	-4716	18	-69	-29	-2440	-4428	15920	67	-147	172	-7508	5992	12984	-79	165	-216	-16252	-308	-3968	112	12	177	-2316	4672	16400	201	-16	16	126	127	5
-8716	-4848	13500	129	17	-108	-15408	-1612	-4752	-2	6	1	-2480	-4460	15944	23	-142	180	-7564	5972	13024	-67	151	-221	-16184	-220	-3996	81	35	167	-2268	4736	16368	156	-19	-11	126	127	5
-8712	-4800	13492	100	10	-139	-15456	-1616	-4660	-10	-9	-20	-2476	-4428	15784	28	-117	168	-7572	5984	13020	-88	136	-235	-16204	-280	-3984	93	-51	152	-2272	4760	16348	200	1	0	126	127	5
-8700	-4820	13476	112	-16	-139	-15396	-1560	-4732	16	-34	-17	-2504	-4488	15844	38	-126	149	-7480	5972	13004	-115	124	-237	-16228	-268	-3976	89	24	146	-2284	4780	16288	212	-6	31	126	127	5
-8700	-4904	13520	82	-24	-163	-15424	-1552	-4776	3	-2	-62	-2496	-4448	15952	36	-118	198	-7520	5944	12968	-86	157	-240	-16204	-296	-3956	71	37	99	-2336	4724	16272	182	33	38	126	127	5
-8700	-4824	13512	69	13	-159	-15440	-1536	-4712	1	-12	-62	-2556	-4480	15844	73	-153	172	-7472	5916	13040	-74	152	-236	-16328	-324	-3980	89	-12	76	-2332	4740	16296	179	-9	26	126	127	5
-8780	-4868	13448	109	12	-122	-15484	-1640	-4808	-15	-16	-50	-2508	-4480	15800	42	-137	179	-7480	5984	12988	-116	153	-235	-16224	-272	-3956	83	16	81	-2304	4644	16312	157	0	14	126	127	5
-8676	-4832	13524	110	-28	-92	-15468	-1632	-4928	-11	-2	-52	-2492	-4476	15828	1	-158	209	-7516	5928	12968	-99	150	-229	-16224	-224	-3956	46	-25	85	-2316	4668	16376	142	8	24	126	127	5
-8688	-4836	13492	95	-21	-156	-15412	-1628	-4660	-12	-1	-61	-2568	-4548	15764	20	-146	199	-7484	5988	13048	-104	150	-216	-16212	-272	-3980	75	-36	118	-2336	4600	16420	204	4	14	126	127	5
-8668	-4916	13396	111	5	-132	-15468	-1724	-4816	-53	-53	-13	-2480	-4592	15796	26	-165	221	-7540	5948	13084	-102	149	-262	-16216	-352	-4024	52	-41	120	-2384	4620	16344	204	20	39	126	127	5
-8756	-4860	13540	61	-1	-163	-15428	-1632	-4764	26	-34	-20	-2516	-4600	15676	77	-131	168	-7484	5960	12964	-118	129	-222	-16224	-332	-3936	92	-38	99	-2360	4628	16268	225	-29	43	126	127	5
-8712	-4892	13520	126	-38	-108	-15448	-1680	-4688	17	-66	-21	-2568	-4572	15748	43	-154	183	-7496	5920	13092	-125	165	-180	-16152	-284	-3976	117	-34	166	-2328	4596	16284	223	-36	29	126	127	5
-8684	-4840	13456	94	-37	-134	-15508	-1668	-4788	-11	-23	-34	-2540	-4540	15828	92	-154	173	-7532	5980	12940	-81	132	-213	-16248	-308	-3912	105	-17	167	-2376	4548	16276	193	0	21	126	127	5
-8740	-4848	13480	128	-51	-148	-15436	-1596	-4736	-19	-33	-9	-2552	-4508	15872	60	-150	163	-7512	5996	12996	-80	120	-231	-16224	-340	-4000	90	-33	161	-2340	4612	16344	244	-25	11	126	127	5
-8704	-4892	13496	98	-15	-164	-15440	-1660	-4692	42	-26	-12	-2516	-4488	15872	38	-153	164	-7524	5972	13004	-56	150	-217	-16244	-240	-3940	77	-6	169	-2276	4612	16292	224	-33	-12	126	127	5
-8664	-4860	13584	100	-36	-131	-15504	-1632	-4748	12	-69	-30	-2536	-4476	15892	46	-148	173	-7572	5960	12936	-76	152	-196	-16256	-244	-3916	111	-25	159	-2380	4648	16344	238	-26	35	126	127	5
-8768	-4820	13500	101	-13	-120	-15472	-1648	-4728	-28	-48	-25	-2544	-4556	15832	82	-167	204	-7500	6004	12944	-59	187	-207	-16244	-276	-3960	89	-57	172	-2328	4740	16352	239	-15	36	126	127	5
-8744	-4864	13456	117	-32	-128	-15468	-1596	-4712	-42	-36	-22	-2556	-4476	15812	39	-168	185	-7500	6016	13124	-100	156	-186	-16192	-276	-3968	94	-50	123	-2292	4668	16284	216	-54	23	126	127	5
-8724	-4844	13472	115	-47	-119	-15472	-1632	-4724	-21	-90	-25	-2500	-4500	15804	65	-158	187	-7552	5988	12972	-40	153	-238	-16256	-316	-3992	87	-21	124	-2256	4736	16284	205	-45	35	126	127	5
-8716	-4840	13508	109	9	-130	-15428	-1648	-4672	-36	-83	-62	-2476	-4528	15932	103	-135	208	-7476	5984	13036	-97	181	-244	-16224	-244	-4032	80	-60	167	-2256	4656	16404	187	-31	11	126	127	5
-8736	-4840	13412	125	-21	-135	-15472	-1632	-4772	-1	-59	-19	-2492	-4500	15880	44	-168	177	-7480	5976	13032	-89	141	-199	-16240	-328	-3944	106	5	155	-2312	4688	16360	208	-18	9	126	127	5
-8656	-4880	13536	107	-45	-105	-15448	-1608	-4676	-17	-73	-51	-2524	-4468	15896	72	-180	218	-7576	5900	13088	-89	155	-224	-16180	-336	-4004	82	-41	165	-2288	4732	16284	209	-6	17	126	127	5
-8668	-4860	13480	106	-13	-133	-15456	-1592	-4704	-40	-40	-53	-2440	-4512	15824	87	-151	204	-7512	5936	13040	-43	133	-219	-16216	-264	-4060	89	-15	148	-2236	4672	16364	227	5	48	126	127	5
-8704	-4932	13500	124	-37	-139	-15448	-1680	-4732	-18	-41	-12	-2520	-4500	15848	47	-152	174	-7524	5948	13000	-109	155	-225	-16224	-272	-3848	113	-29	149	-2240	4696	16300	176	-1	22	126	127	5
-8692	-4816	13440	84	-40	-126	-15544	-1632	-4784	-23	-46	11	-2540	-4472	15824	35	-124	196	-7508	5956	13032	-112	117	-225	-16172	-224	-4012	105	-24	128	-2248	4644	16344	213	-37	22	126	127	5
-8716	-4840	13444	142	-29	-135	-15392	-1628	-4652	-10	-29	-11	-2408	-4536	15896	56	-105	193	-7476	5924	13040	-111	119	-203	-16232	-256	-3976	67	11	131	-2268	4660	16272	163	-40	3	126	127	5
-8708	-4856	13436	102	-57	-129	-15460	-1640	-4772	-47	-14	-28	-2432	-4536	15792	25	-91	198	-7460	5920	13052	-82	157	-193	-16232	-248	-3900	104	-9	110	-2312	4700	16252	169	-29	32	126	127	5
-8780	-4808	13488	102	-50	-133	-15492	-1592	-4880	-11	-30	-18	-2504	-4504	15788	64	-154	168	-7552	5988	13016	-62	142	-230	-16220	-296	-3928	121	29	96	-2324	4668	16352	206	11	41	126	127	5
-8656	-4868	13452	125	-22	-105	-15412	-1640	-4636	10	-16	12	-2520	-4520	15816	64	-134	184	-7536	5964	12960	-107	121	-211	-16188	-356	-3852	73	15	116	-2304	4708	16248	223	-7	20	126	127	5
-8724	-4864	13536	95	-5	-144	-15464	-1656	-4776	5	-13	-36	-2552	-4496	15872	47	-138	180	-7508	5952	12932	-139	134	-223	-16200	-316	-3992	91	-22	123	-2352	4624	16272	189	32	24	126	127	5
-8720	-4844	13524	126	5	-137	-15436	-1672	-4704	-7	-22	-22	-2508	-4504	15804	48	-131	180	-7532	5940	13016	-65	156	-210	-16152	-284	-4008	97	-7	133	-2412	4680	16280	163	8	40	126	127	5
-8716	-4884	13516	105	-45	-146	-15460	-1596	-4764	-46	-41	-45	-2588	-4500	15872	31	-141	168	-7480	5928	13040	-117	143	-220	-16244	-276	-3948	91	-51	133	-2384	4636	16404	190	-30	24	126	127	5
-8732	-4860	13512	76	12	-129	-15444	-1604	-4736	0	-27	-39	-2564	-4520	15884	61	-161	171	-7496	5968	13056	-77	145	-202	-16224	-360	-3928	97	-40	147	-2360	4628	16312	164	-26	12	126	127	5
-8740	-4844	13548	132	-43	-143	-15484	-1596	-4644	-45	-52	-21	-2512	-4532	15720	42	-147	228	-7504	5948	12924	-91	140	-218	-16248	-352	-4052	100	-61	113	-2296	4612	16388	212	-39	16	126	127	5
-8632	-4876	13524	111	-40	-131	-15396	-1628	-4832	-5	-57	-48	-2528	-4544	15780	52	-138	197	-7488	5984	12980	-94	151	-201	-16220	-300	-3944	106	-57	130	-2332	4628	16332	206	-38	13	126	127	5
-8724	-4876	13500	98	-58	-158	-15508	-1592	-4768	7	-53	-72	-2500	-4560	15892	50	-173	188	-7500	5900	13140	-86	114	-200	-16212	-292	-4020	86	-31	124	-2320	4624	16308	237	-18	5	126	127	5
-8704	-4808	13436	112	-114	-150	-15496	-1692	-4640	-17	-43	-54	-2520	-4520	15812	19	-162	210	-7492	5952	13028	-71	146	-220	-16252	-272	-3964	113	-36	127	-2292	4684	16360	192	-15	12	126	127	5
-8684	-4884	13584	116	9	-139	-15520	-1632	-4752	7	-78	-2	-2484	-4544	15940	29	-175	192	-7440	6016	13020	-90	164	-227	-16188	-312	-3968	122	-17	157	-2340	4696	16396	168	-33	9	126	127	5
-8696	-4816	13540	111	-21	-171	-15492	-1668	-4768	-13	-76	-24	-2460	-4472	15772	71	-180	184	-7480	5956	13148	-82	106	-208	-16216	-276	-3896	112	-54	162	-2372	4624	16332	166	-17	20	126	127	5
-8676	-4864	13580	114	-33	-143	-15456	-1608	-4744	-13	-33	-32	-2452	-4572	15724	27	-172	198	-7540	5960	13048	-114	144	-243	-16224	-296	-3972	103	-44	157	-2320	4676	16364	187	-26	17	126	127	5
-8684	-4856	13552	137	-27	-159	-15468	-1608	-4768	-26	-49	-38	-2480	-4532	15776	76	-133	174	-7472	5948	13092	-81	162	-200	-16248	-276	-3964	89	-30	121	-2272	4648	16288	170	9	20	126	127	5
-8724	-4876	13464	116	-15	-161	-15432	-1624	-4840	-17	-42	-23	-2440	-4516	15860	84	-172	191	-7492	5960	13088	-103	150	-196	-16196	-268	-3968	96	-15	113	-2260	4692	16396	213	-1	42	126	127	5
-8672	-4860	13508	104	-3	-120	-15440	-1596	-4724	-22	-60	-24	-2444	-4520	15848	49	-163	193	-7496	5932	13104	-98	139	-176	-16176	-316	-3908	104	-57	168	-2316	4640	16364	193	12	25	127	127	5
-8688	-4784	13488	95	-47	-136	-15484	-1624	-4764	-28	-52	-52	-2440	-4484	15872	63	-147	194	-7420	5964	13076	-65	143	-197	-16196	-260	-3944	97	-12	159	-2312	4600	16360	222	18	52	127	127	5
-8660	-4836	13468	115	-66	-142	-15472	-1708	-4756	-28	-58	-14	-2464	-4456	15852	85	-118	212	-7532	5912	13008	-102	174	-204	-16192	-268	-3920	99	-43	133	-2312	4720	16244	228	11	8	127	127	5
-8768	-4892	13464	97	-18	-124	-15468	-1696	-4716	-51	-54	-40	-2532	-4516	15712	44	-122	184	-7508	5996	12932	-98	125	-230	-16220	-280	-3928	97	-45	143	-2232	4624	16452	184	-22	14	127	127	5
-8684	-4896	13484	111	-9	-141	-15572	-1624	-4712	-13	-34	-6	-2480	-4476	15824	52	-113	178	-7496	5988	12976	-117	157	-209	-16232	-304	-3928	82	24	158	-2228	4704	16452	170	35	26	126	127	5
-8724	-4844	13488	130	-77	-79	-15436	-1636	-4796	-28	-42	-13	-2440	-4484	15776	73	-135	194	-7564	6004	13072	-90	143	-211	-16228	-316	-3852	83	-20	131	-2280	4744	16332	268	10	9	126	127	5
-8680	-4872	13492	131	-8	-112	-15508	-1604	-4712	2	-6	-50	-2456	-4480	15776	60	-128	194	-7496	5988	13016	-103	157	-214	-16192	-276	-3936	56	-32	133	-2252	4692	16380	171	22	51	126	127	5
-8648	-4884	13504	116	-48	-138	-15464	-1596	-4816	18	-24	-12	-2456	-4448	15876	10	-95	191	-7564	5964	13044	-93	141	-254	-16244	-308	-3960	53	2	123	-2316	4752	16304	185	27	52	126	127	5
-8724	-4872	13476	109	6	-140	-15488	-1608	-4780	-1	1	-39	-2460	-4416	15732	41	-138	170	-7512	6000	13008	-78	174	-194	-16268	-224	-4028	65	-23	69	-2380	4684	16212	203	15	40	126	127	5
-8660	-4900	13488	110	3	-125	-15492	-1672	-4756	10	-13	-19	-2524	-4512	15836	48	-145	158	-7496	5948	13088	-89	172	-222	-16240	-236	-3988	59	27	90	-2340	4700	16264	155	9	37	126	127	5
-8740	-4796	13536	81	0	-101	-15508	-1672	-4732	-14	-37	-1	-2536	-4488	15868	58	-106	166	-7512	5908	13056	-115	149	-210	-16208	-364	-4024	98	18	69	-2344	4716	16316	140	10	27	126	128	5
-8760	-4908	13492	126	0	-143	-15440	-1604	-4776	-16	-25	-22	-2560	-4496	15840	14	-148	173	-7540	5964	13016	-67	164	-227	-16184	-308	-3952	101	-21	113	-2348	4564	16332	150	17	33	126	128	5
-8708	-4904	13516	149	-6	-128	-15448	-1628	-4772	13	-8	-56	-2600	-4488	15804	15	-149	120	-7532	5936	12928	-113	138	-207	-16244	-356	-3964	70	-9	113	-2416	4568	16256	152	-5	7	126	128	5
-8688	-4900	13492	125	20	-155	-15440	-1548	-4720	17	-26	-90	-2612	-4472	15864	19	-152	142	-7512	5940	13040	-89	158	-234	-16220	-276	-3948	91	-18	86	-2364	4584	16284	200	-22	18	126	128	5
-8740	-4864	13408	98	-41	-119	-15460	-1588	-4660	-48	-39	-58	-2620	-4456	15828	25	-169	165	-7480	5968	13024	-100	117	-250	-16216	-320	-4056	82	-64	109	-2336	4600	16256	201	-27	0	126	128	5
-8640	-4876	13520	124	-48	-156	-15488	-1564	-4740	-6	-59	-72	-2612	-4524	15880	47	-169	197	-7524	5964	13008	-56	107	-197	-16240	-328	-3960	83	-63	138	-2424	4664	16312	182	-34	21	126	128	5
-8704	-4860	13468	107	-30	-120	-15476	-1676	-4884	-22	-49	-86	-2540	-4576	15804	41	-198	173	-7444	5988	13020	-87	133	-198	-16236	-320	-4080	90	-39	116	-2364	4604	16364	186	-26	1	126	127	5
-8736	-4856	13452	107	-30	-150	-15500	-1636	-4784	-41	-71	-71	-2516	-4544	15832	58	-160	202	-7516	5908	13020	-96	124	-244	-16204	-364	-3900	105	-69	177	-2332	4552	16384	212	-53	11	125	127	5
-8736	-4884	13504	114	-11	-121	-15404	-1640	-4732	-38	-94	-61	-2548	-4596	15856	77	-187	218	-7464	5920	12960	-101	125	-229	-16204	-244	-3932	120	-100	189	-2284	4588	16272	211	-45	-6	126	127	5
-8712	-4908	13552	128	-46	-146	-15472	-1744	-4788	-43	-94	-43	-2496	-4544	15752	67	-198	183	-7460	5904	13148	-73	140	-199	-16228	-316	-3968	134	-42	176	-2224	4540	16396	245	-53	10	125	128	5
-8660	-4924	13536	124	-57	-139	-15516	-1720	-4684	-37	-60	6	-2416	-4584	15868	51	-180	195	-7504	5920	12900	-76	141	-213	-16220	-324	-3864	120	-57	195	-2172	4648	16344	236	-86	20	125	128	5
-8696	-4828	13484	145	-19	-140	-15492	-1680	-4696	10	-58	3	-2412	-4540	15872	70	-169	169	-7452	5960	13072	-53	109	-190	-16244	-288	-4000	111	-28	184	-2232	4648	16380	257	-28	17	125	127	5
-8692	-4836	13576	161	7	-133	-15416	-1708	-4736	8	-45	12	-2468	-4536	15800	86	-138	213	-7504	5964	12952	-78	155	-204	-16236	-284	-4028	100	-21	120	-2284	4640	16328	240	-26	6	125	128	5
-8720	-4880	13372	137	-60	-125	-15504	-1648	-4816	9	-53	34	-2484	-4528	15852	52	-96	209	-7528	6000	12988	-47	154	-223	-16204	-192	-3900	77	-10	159	-2220	4612	16276	256	20	25	125	128	5
-8664	-4832	13408	129	19	-102	-15492	-1692	-4684	-25	-42	28	-2428	-4440	15816	98	-128	197	-7448	5968	13020	-73	153	-192	-16232	-280	-3916	101	4	128	-2264	4696	16372	220	38	50	125	128	5
-8736	-4852	13492	120	2	-93	-15420	-1572	-4620	-25	-37	10	-2468	-4400	15772	81	-122	178	-7508	6020	13084	-40	146	-201	-16196	-244	-3956	112	24	126	-2284	4756	16292	221	42	47	125	128	5
-8688	-4848	13440	134	0	-105	-15408	-1616	-4744	-7	-3	15	-2472	-4424	15852	74	-115	177	-7484	6016	13028	-73	172	-232	-16248	-236	-3936	69	4	138	-2300	4776	16300	186	16	52	125	127	5
-8644	-4860	13464	154	-2	-131	-15440	-1540	-4708	-15	32	-6	-2556	-4396	15892	30	-74	160	-7520	5936	13100	-63	154	-218	-16192	-232	-4056	66	-1	84	-2336	4784	16304	126	40	49	125	128	5
-8668	-4828	13392	115	-44	-106	-15428	-1616	-4728	-14	-16	-35	-2560	-4420	15820	44	-105	161	-7472	5924	12944	-100	188	-232	-16188	-264	-3904	80	19	66	-2320	4812	16296	172	53	50	125	128	5
-8684	-4844	13420	112	38	-148	-15484	-1556	-4752	-51	0	-54	-2564	-4412	15928	-42	-137	150	-7556	5984	12992	-111	140	-247	-16256	-352	-3952	55	10	55	-2384	4664	16240	124	33	48	125	127	5
-8736	-4884	13516	107	-42	-139	-15492	-1588	-4768	2	14	-55	-2656	-4456	15848	30	-127	184	-7536	5992	12992	-68	141	-232	-16200	-252	-3948	75	14	73	-2320	4664	16228	128	6	72	125	127	5
-8720	-4860	13500	72	-54	-151	-15460	-1592	-4752	-22	-3	-73	-2584	-4460	15916	-35	-176	184	-7540	5932	13016	-96	127	-226	-16244	-336	-4112	98	-35	73	-2352	4600	16488	152	8	32	125	127	5
-8748	-4880	13520	88	-20	-115	-15436	-1616	-4888	-46	13	-90	-2564	-4508	15900	0	-149	178	-7492	5964	12868	-141	110	-220	-16272	-300	-4028	67	-59	121	-2376	4524	16376	119	-35	60	125	128	5
-8680	-4824	13532	108	21	-149	-15484	-1692	-4908	-42	-53	-85	-2604	-4600	15952	43	-179	175	-7524	5960	13044	-109	103	-195	-16164	-340	-4112	88	-64	128	-2392	4508	16300	186	-40	17	125	127	5
