#Activity	sitting in car 
#ActivityID	12 
#Date 09-19-16-012
acc_rf_x	acc_rf_y	acc_rf_z	gyro_rf_x	gyro_rf_y	gyro_rf_z	acc_rs_x	acc_rs_y	acc_rs_z	gyro_rs_x	gyro_rs_y	gyro_rs_z	acc_rt_x	acc_rt_y	acc_rt_z	gyro_rt_x	gyro_rt_y	gyro_rt_z	acc_lf_x	acc_lf_y	acc_lf_z	gyro_lf_x	gyro_lf_y	gyro_lf_z	acc_ls_x	acc_ls_y	acc_ls_z	gyro_ls_x	gyro_ls_y	gyro_ls_z	acc_lt_x	acc_lt_y	acc_lt_z	gyro_lt_x	gyro_lt_y	gyro_lt_z	EMG_r	EMG_l	act
-9436	-4748	13252	9	-13	-13	-15928	-3976	-1280	-1	-6	-11	800	-3888	16776	27	-2	13	-7024	5608	13224	-18	26	-23	-14160	9128	-3032	-21	4	19	-2208	3152	16512	3	-7	27	121	136	12
-9228	-4068	13144	4	-9	-14	-15680	-3680	-1584	-7	-7	-9	1040	-3800	16336	22	1	7	-7280	5504	13248	-8	26	-23	-13792	8776	-3168	-2	5	11	-1840	3160	16552	8	-19	32	121	137	12
-9356	-4016	13296	2	-13	-15	-15696	-3736	-1224	-15	-9	-5	1240	-3840	16656	26	0	18	-7144	5776	13200	-27	15	-22	-14056	9168	-2848	-2	0	19	-1968	3072	16736	6	-13	24	120	136	12
-9552	-4772	13080	7	-18	-16	-15968	-3760	-1304	3	-3	-10	960	-3672	16488	25	-8	18	-7056	5352	13120	-9	27	-25	-14088	8760	-2888	5	-2	12	-2064	3112	16576	4	-21	19	121	136	12
-9204	-4232	13320	4	-9	-15	-15408	-3800	-1232	-24	-1	-9	1224	-3816	16472	24	-2	17	-7144	5720	13264	-6	11	-16	-13960	9216	-2632	25	-10	21	-1888	3016	16664	1	-18	14	121	136	12
-9364	-4332	13172	5	-14	-10	-15880	-3824	-1184	12	-9	-3	1240	-3936	16472	28	0	13	-7384	5384	13384	-12	15	-16	-13960	9016	-3048	-2	-8	26	-2056	3072	16400	5	-16	13	121	137	12
-9432	-4516	13352	18	-19	-9	-16224	-3856	-1384	2	-11	-5	1176	-3936	16864	28	-7	7	-7064	6008	13200	-1	18	-16	-13992	9048	-2792	3	-10	29	-1808	3184	16720	11	-24	11	121	136	12
-9456	-3988	13248	-1	-16	-16	-15608	-3760	-1376	2	-5	9	1304	-3616	16584	29	-12	6	-7176	5224	13128	-13	23	-24	-14008	8752	-2808	-9	-5	28	-1808	3344	16400	12	-30	14	121	136	12
-9292	-5012	12796	-3	-10	-22	-15296	-3744	-1144	-36	-8	1	1192	-3408	16472	21	-5	13	-7072	5216	13056	-10	16	-21	-14016	8864	-3032	17	-5	17	-1912	3408	16568	3	-22	16	121	138	12
-9464	-4444	12956	23	-16	-8	-15472	-4144	-1408	2	3	-19	1104	-3784	16680	13	-5	9	-7352	6088	13064	-4	12	-16	-13960	9480	-2984	24	-7	18	-1944	3160	16848	-1	-25	15	122	134	12
-9580	-3960	13728	26	-22	-11	-16288	-3648	-1504	55	6	-6	920	-3920	16896	27	-7	4	-6888	5848	13208	-11	11	-18	-13960	9672	-2936	6	-2	33	-2080	3368	16512	6	-22	15	122	135	12
-9496	-4096	13488	16	-11	-13	-16480	-3320	-1528	3	-8	7	928	-3840	16800	35	-8	1	-7168	5920	13240	-10	23	-21	-13832	9344	-3096	-34	-3	32	-2184	3288	16336	21	-16	19	122	135	12
-9456	-3944	13036	7	-7	-18	-15376	-3288	-1424	-42	-23	19	1312	-3384	16616	41	-1	9	-7472	5720	12896	3	26	-12	-13656	8944	-2912	3	2	27	-1928	3312	16288	32	-18	27	121	134	12
-9304	-4028	12832	7	-11	-19	-15360	-3536	-1008	-24	-5	10	1176	-3288	16424	43	10	21	-7088	5704	13088	-5	13	-14	-13576	9128	-2720	40	-14	37	-2032	3336	16176	28	-9	22	122	135	12
-9488	-4292	13288	13	-14	-10	-15944	-3752	-1152	11	-1	-4	976	-3456	16976	25	6	11	-7392	5336	12944	-17	20	-22	-14024	9312	-3088	-16	-11	34	-2216	3584	16608	9	-13	10	121	135	12
-9732	-4252	13064	14	-13	-16	-15944	-3544	-1592	30	8	0	848	-3280	16992	18	-4	-2	-7384	5712	13056	-6	7	-19	-13960	9256	-3048	6	4	22	-2280	3736	16584	3	-32	7	120	136	12
-9292	-4116	13236	15	-18	-11	-15976	-3208	-1376	1	2	1	1016	-3240	16952	18	-4	-4	-7136	6104	13304	-6	9	-17	-14096	9584	-2640	34	-22	20	-2104	3616	16872	-13	-30	0	120	137	12
-9588	-4048	13136	4	-18	-15	-16064	-3304	-1272	8	-14	-8	568	-3280	16528	18	-3	0	-7544	5336	13184	-11	27	-25	-13728	9112	-3160	-12	-11	25	-2152	3536	16176	-9	-25	4	120	138	12
-9444	-4060	13084	1	-23	-20	-15680	-3440	-1424	-22	0	-12	1040	-3368	16736	14	-4	13	-7184	6216	12688	-5	13	-10	-13640	9384	-2944	30	0	1	-2024	3344	16336	1	-25	17	120	133	12
-9596	-3892	13452	-6	-15	-22	-15792	-3344	-1480	0	-8	-16	712	-3560	16792	14	0	15	-7248	5672	12656	-26	10	-24	-13712	9152	-2808	-23	2	14	-2168	3592	16368	7	-11	33	121	136	12
-9512	-4024	13024	1	-17	-15	-15744	-3392	-1336	-15	-13	-16	816	-3440	16424	15	-6	14	-7568	5776	13384	-33	12	-24	-13960	9224	-3088	-13	8	4	-2168	3416	16448	10	-22	39	120	137	12
-9584	-4284	13008	-10	-17	-24	-15672	-3504	-1776	-7	-6	-23	792	-3416	16880	12	-7	11	-7360	5608	13536	-35	10	-26	-14088	9080	-3016	2	6	-8	-2152	3304	16776	-9	-29	37	120	139	12
-9748	-4252	13308	-3	-14	-22	-16000	-3680	-1464	-2	-4	-29	792	-3520	16960	12	-11	13	-7368	5488	13272	-35	13	-25	-14200	9096	-3416	-1	-5	-2	-2192	3200	16824	-17	-34	28	120	137	12
-9524	-4016	13224	-10	-2	-26	-15768	-3496	-1648	-3	-7	-27	960	-3760	16888	11	-13	16	-7504	5552	13488	-26	17	-28	-13856	8920	-3080	37	-9	-9	-1976	3096	16720	-18	-27	25	120	138	12
-9828	-4512	13200	-12	-15	-31	-15776	-3904	-1432	-21	-9	-26	1000	-3752	16880	10	-10	17	-7272	5768	13336	-26	13	-27	-14168	9376	-3032	-14	3	-7	-2056	3000	16688	-11	-15	24	119	136	12
-9348	-4172	13024	-4	-15	-23	-15728	-3728	-1448	-7	-9	-33	1072	-3880	16480	-2	-2	13	-7392	5472	13200	-16	25	-27	-13880	8976	-3280	5	-1	-5	-2088	2832	16176	4	-21	23	120	135	12
-9700	-4128	13068	-10	-19	-25	-15840	-3632	-1416	-8	-8	-22	1080	-4088	16680	9	-4	19	-7440	5752	13192	-19	19	-18	-13960	8976	-3224	-6	3	8	-2000	2808	16480	2	-14	26	120	136	12
-9452	-4612	12932	-12	-10	-24	-15856	-3784	-1312	-9	-5	-15	824	-3920	16432	13	-4	12	-7352	5616	13176	-9	19	-27	-13936	8720	-3088	10	0	11	-2208	2848	16576	3	-23	22	121	135	12
-9528	-4060	13348	5	-24	-17	-15648	-3888	-1416	-5	-6	-14	1168	-3976	16664	27	1	10	-6992	5984	13256	-18	10	-20	-13976	8936	-2656	23	-9	18	-2136	3064	16648	8	-15	18	121	136	12
-9464	-4484	13324	-4	-26	-23	-15840	-3928	-1568	12	-8	-2	1216	-3896	16592	32	4	2	-7016	5472	13200	-10	13	-22	-14024	8928	-2992	6	-17	25	-2080	3040	16368	11	-15	14	121	137	12
-9308	-4320	12948	8	-16	-17	-15448	-3784	-1120	-4	-17	-3	1240	-3688	16152	26	7	-3	-7184	5560	13176	-2	6	-18	-13672	8880	-3008	15	-12	19	-1832	3040	16512	16	-17	12	122	135	12
-9288	-4332	13348	12	-23	-20	-15504	-3880	-1104	4	-8	3	1288	-3752	16712	24	6	-8	-6936	5760	13360	-3	8	-17	-13880	8904	-2616	19	-16	31	-1808	3096	16600	9	-16	11	121	135	12
-9124	-4400	13316	17	-18	-16	-15832	-3688	-976	5	-12	0	1344	-3696	16688	23	4	-9	-6960	5616	13312	-1	8	-16	-13928	8936	-2664	5	-19	31	-1736	3152	16552	10	-20	11	121	136	12
-9356	-4300	13268	23	-20	-11	-15672	-3744	-1056	-1	-15	-1	1488	-3584	16616	24	6	-6	-7096	5736	13216	3	9	-15	-13872	9104	-2688	5	-11	25	-1648	3400	16456	10	-30	14	121	137	12
-9136	-4180	13088	15	-17	-16	-15928	-3600	-888	4	-11	12	1328	-3592	16160	32	-5	-1	-6888	5832	13312	-6	12	-17	-13984	8976	-2432	21	-15	29	-1600	3408	16400	11	-25	15	121	135	12
-9116	-4120	13064	22	-18	-9	-15624	-3560	-1000	-9	-8	3	1352	-3600	16568	31	-2	4	-6864	5896	13192	2	18	-17	-13752	8976	-2600	13	-8	23	-1536	3336	16456	11	-21	17	121	135	12
-9340	-4108	13216	12	-22	-13	-15800	-3736	-1312	5	-4	5	1232	-3456	16656	37	-11	7	-7000	5768	13440	-7	11	-18	-13832	9192	-2808	-9	1	29	-1696	3448	16208	14	-18	29	122	132	12
-9016	-4072	12936	18	-13	-10	-15864	-3680	-1024	6	2	4	1144	-3520	16336	35	-5	16	-7032	5736	13360	-7	18	-16	-13752	9032	-2480	10	4	25	-1864	3312	16208	17	-19	24	122	136	12
-9268	-4264	13312	10	-11	-13	-15480	-3616	-1224	-13	-7	3	1304	-3584	16632	42	-6	19	-6984	5824	13168	-18	21	-17	-13848	9152	-2984	-19	2	26	-1888	3544	16720	15	-11	28	121	136	12
-9144	-4344	13052	9	-12	-18	-15672	-3680	-1312	-15	-6	-1	1224	-3608	16456	31	-5	20	-6864	5448	13024	-2	24	-20	-13880	8720	-2968	14	0	23	-2000	3176	16264	12	-12	25	121	137	12
-9072	-4444	13376	13	-18	-16	-15416	-3816	-1136	-27	-6	4	1352	-3704	16792	34	4	13	-6768	5880	13632	-9	8	-16	-14176	9288	-2408	23	-3	23	-1664	3248	16720	6	-10	19	121	141	12
-8864	-4728	13924	13	-32	-17	-16040	-4104	-904	6	-16	0	1336	-3800	16856	34	5	6	-6424	5560	14048	-7	7	-20	-14480	9200	-2296	7	-20	28	-1912	3392	16920	7	-11	15	120	137	12
-8632	-4624	13824	16	-28	-19	-16056	-3888	-440	-12	-33	-4	1856	-3848	16616	34	11	-1	-6224	6032	13792	17	6	-12	-14400	9152	-1928	15	-31	18	-1104	3136	16832	19	-18	18	120	136	12
-8540	-4400	13872	7	-30	-23	-15696	-3888	-312	-10	-40	2	2192	-3704	16504	42	17	4	-6168	5928	13672	11	10	-11	-14056	9144	-1848	8	-38	28	-872	3248	16464	30	-15	15	120	137	12
-8344	-4692	13824	6	-27	-24	-15784	-4144	-120	-14	-46	7	2504	-3584	16328	37	10	0	-5832	5824	13704	7	-1	-9	-14152	8992	-1440	31	-41	27	-480	3304	16368	38	-15	15	121	136	12
-8152	-4564	13752	8	-21	-18	-15792	-4224	216	-13	-33	-7	2600	-3584	16184	39	8	2	-6152	6080	13808	0	2	-13	-14440	9312	-1616	-4	-39	36	-616	3568	16888	32	-21	13	120	136	12
-8320	-4828	13832	4	-28	-23	-15896	-4256	168	19	-25	1	2720	-3720	16504	30	4	-12	-5832	5848	13768	7	1	-10	-14336	9056	-1416	3	-28	32	-296	3688	16704	27	-29	9	120	136	12
-7844	-4728	13968	13	-28	-21	-15824	-4056	400	1	-18	6	2920	-3520	16304	28	3	-11	-5576	6056	14160	6	2	-18	-14176	9016	-864	40	-37	27	48	3664	16472	18	-34	-1	120	137	12
-8128	-4800	14164	14	-29	-19	-15792	-4272	632	8	-19	-1	2912	-3624	16440	34	-5	-10	-5480	6208	13768	1	3	-17	-14160	9400	-1128	1	-33	40	32	3720	16312	11	-31	-4	120	138	12
-7964	-4616	13852	11	-22	-19	-15824	-3952	624	14	-20	0	2808	-3504	16024	26	-2	-12	-5632	5552	13688	-3	15	-16	-13968	9032	-768	4	-19	35	32	3840	16272	20	-28	4	121	137	12
-7752	-4504	13716	15	-19	-16	-15128	-3880	496	-4	-9	8	3024	-3728	16184	25	-2	-7	-5656	6424	13704	-1	8	-12	-13904	9288	-952	27	-11	19	-8	3744	16496	18	-26	14	121	133	12
-8088	-4848	13720	10	-24	-18	-15688	-3992	320	17	-8	5	2712	-3592	16704	25	-7	-1	-5552	5696	13760	-17	12	-24	-14088	9320	-1352	-24	1	27	-416	3840	16544	19	-19	26	121	136	12
-7712	-4452	13856	21	-23	-14	-15864	-3984	216	24	-3	1	2640	-3728	16200	24	0	2	-5336	6040	13840	-9	9	-21	-14112	9016	-1048	23	3	12	-256	3760	16488	21	-28	29	121	136	12
-7896	-4540	14056	10	-19	-18	-15528	-3952	360	1	-5	4	2728	-3512	16184	28	-2	2	-5472	6176	14208	-21	11	-20	-14192	9232	-1136	-9	-3	22	-312	3592	16344	7	-20	34	121	136	12
-7756	-4760	13884	14	-25	-21	-15888	-4032	360	-6	-19	-9	2656	-3360	16448	30	-3	6	-5368	5832	13688	-13	14	-17	-14048	8928	-1344	4	-10	19	-328	3768	16264	10	-19	30	120	136	12
-7620	-4588	13812	0	-17	-25	-15416	-3704	464	-12	-20	-5	2992	-3344	16136	37	-2	16	-5384	6056	13904	-11	12	-19	-13800	9192	-976	26	-11	14	-40	3640	16456	4	-15	27	121	135	12
-7752	-4660	13928	3	-23	-25	-15616	-3928	896	-13	-19	-14	2912	-3432	16304	32	0	15	-5224	5984	13840	-9	8	-18	-13944	9008	-1144	-8	-9	23	-112	3560	16368	13	-12	24	121	136	12
-7620	-4420	13700	4	-18	-20	-15488	-3960	792	0	-17	-11	2936	-3272	16080	25	4	14	-5432	6040	13720	3	18	-17	-13856	8840	-856	11	-10	18	72	3616	16064	12	-12	19	121	139	12
-7688	-4464	13884	0	-14	-22	-15288	-3960	712	-11	0	-4	3240	-3504	16144	23	1	14	-5432	6288	13704	-15	10	-21	-14064	9208	-752	12	-4	24	0	3816	16488	8	-15	14	121	137	12
-7916	-4968	14008	5	-14	-13	-15760	-4224	488	5	-8	-15	2864	-3488	16424	24	-4	12	-5424	5832	13736	-19	17	-24	-14272	9040	-992	-11	-5	26	-416	3760	16368	4	-20	9	120	137	12
-7596	-4548	13976	3	-7	-16	-15480	-4040	392	-6	5	-9	3128	-3512	16080	19	-3	8	-5256	6056	13800	-12	19	-20	-13992	9104	-992	31	-5	17	48	3920	16448	-2	-29	10	120	136	12
-7744	-4808	14040	1	-16	-18	-15536	-4192	648	-10	-1	-5	3024	-3664	16240	21	-5	7	-5360	5928	13664	-18	22	-26	-14264	9240	-1152	-7	-8	17	-48	3912	16608	-8	-19	13	120	138	12
-7672	-4840	13916	11	-6	-16	-15480	-4232	776	3	3	-11	2816	-3592	16192	12	-4	2	-5336	5976	13512	-10	26	-24	-13848	9080	-968	10	3	8	-48	3712	16200	5	-16	25	120	138	12
-7716	-4492	14032	6	-8	-19	-15512	-3824	328	0	6	-1	3216	-3728	16184	18	0	5	-5560	6216	14088	-30	9	-24	-14144	9304	-888	8	7	4	-120	3800	16800	1	-15	28	121	137	12
-7852	-5084	14028	6	-15	-13	-16064	-4168	488	-2	-1	-17	2616	-3688	16632	16	-3	12	-5536	6016	13976	-28	27	-28	-14400	9160	-1296	-23	12	7	-240	3712	16488	-2	-13	32	121	136	12
-7732	-4416	13924	7	-7	-18	-15696	-3816	80	-9	-1	-14	2912	-3704	16008	16	-5	10	-5328	5816	13672	-8	23	-24	-13880	8816	-848	36	5	-2	-112	3568	16376	4	-26	27	121	135	12
-7768	-4644	14092	-5	-5	-18	-15360	-4048	480	-21	-5	-2	2976	-3680	16040	27	3	13	-5376	6024	13760	-29	22	-25	-14216	9280	-1032	6	-9	13	-216	3384	16672	0	-7	28	121	137	12
-7884	-5016	13860	3	-12	-20	-15888	-4240	664	-7	-10	-21	2592	-3760	16272	21	0	14	-5432	5992	13784	-23	14	-28	-14248	8944	-1288	-6	0	15	-312	3456	16416	6	-15	22	121	137	12
-7692	-4564	14172	3	-14	-22	-15504	-4144	264	0	-3	-8	2984	-3776	16368	23	-3	13	-5376	6296	14392	-17	7	-20	-14320	9168	-1032	17	-6	8	-200	3416	17080	2	-20	17	121	134	12
-7960	-5184	14228	4	-15	-24	-16024	-4432	512	2	-15	-10	2664	-3736	16776	24	-4	7	-5344	5640	13944	-10	17	-23	-14512	8952	-1080	-20	-5	20	-288	3504	16384	2	-23	16	120	136	12
-7868	-5236	14092	4	-21	-21	-15680	-4136	536	-8	-9	-14	3088	-3864	16304	25	-4	8	-5408	5696	13912	-1	21	-18	-14112	8872	-1096	21	-11	16	224	3360	16768	8	-25	12	121	137	12
-7880	-4800	14076	4	-14	-23	-15416	-4232	544	-7	-3	0	3064	-3704	15984	21	0	6	-5352	6256	14064	-10	12	-17	-14248	9168	-944	27	-14	22	80	3432	16600	9	-10	11	120	134	12
-7900	-5104	13952	12	-13	-15	-15896	-4392	784	4	-7	-10	2888	-3888	16416	19	-3	6	-5456	5840	13920	-6	23	-23	-14280	8872	-1160	-7	-4	22	-352	3512	16312	16	-17	9	121	139	12
-7624	-4592	14004	11	-7	-11	-15464	-4096	544	7	-3	3	2984	-3736	16384	18	-2	0	-5440	6312	13984	1	24	-19	-14320	9136	-912	33	-3	21	-88	3576	16736	15	-22	21	121	135	12
-7900	-4940	14248	1	-28	-17	-15832	-4184	776	9	0	6	2808	-3784	16672	26	-3	3	-5512	5952	14032	-11	22	-22	-14400	9224	-1080	-14	-7	31	-432	3592	16528	17	-19	23	121	136	12
-7780	-4728	13900	14	-18	-14	-15816	-4112	488	8	-8	0	2832	-3736	16256	26	-6	-3	-5424	5920	13808	-4	18	-16	-14160	8960	-1144	5	-6	23	-104	3640	16488	20	-24	20	121	137	12
-7684	-4568	14212	12	-15	-15	-15400	-4040	792	-8	-7	11	3304	-3552	16320	32	-1	7	-5448	6504	14088	-7	10	-17	-14104	9224	-984	22	-7	28	-64	3600	16616	17	-14	24	121	136	12
-7904	-4932	13928	7	-16	-18	-15720	-4144	728	6	-8	3	2824	-3512	16432	33	1	3	-5432	5536	13552	-2	21	-18	-14168	8904	-1144	-17	-9	32	-200	3600	16224	21	-17	18	121	136	12
-7516	-4452	13832	15	-16	-10	-15368	-4000	440	-3	-6	9	3048	-3616	16096	27	2	3	-5416	6224	13896	2	13	-17	-13936	9168	-888	40	-13	22	-16	3768	16608	17	-22	18	122	136	12
-7848	-4888	14216	13	-32	-19	-15568	-4176	872	3	-6	4	2904	-3408	16504	32	1	4	-5320	6080	13864	-9	14	-18	-14224	9352	-832	-8	-11	34	-208	3744	16496	10	-18	15	121	136	12
-7884	-4764	13988	18	-20	-13	-15808	-3920	544	12	-7	-2	2672	-3512	16432	29	-5	0	-5368	5976	13640	-3	11	-21	-14216	9112	-832	1	-9	30	-192	3840	16512	7	-27	11	121	137	12
-7684	-4648	14204	15	-13	-21	-15496	-4016	576	-4	-4	7	3032	-3608	16368	34	-6	2	-5080	6320	14136	-4	4	-18	-14272	9328	-664	29	-9	25	96	3904	16800	6	-25	13	122	136	12
-7628	-4812	14164	8	-16	-16	-15912	-4120	912	-12	-16	-1	2928	-3520	16296	32	0	4	-5232	5816	13752	-9	16	-25	-14208	9160	-968	-6	-16	23	-128	3888	16496	7	-21	14	121	137	12
-7616	-4432	13964	12	-12	-15	-15400	-3936	624	-10	-14	-3	2984	-3504	16272	34	1	8	-5232	6328	13872	-5	16	-13	-13768	9160	-672	43	-10	16	224	3880	16400	14	-20	18	122	136	12
-7752	-4732	14180	9	-22	-18	-15552	-4072	928	-4	-9	-2	3040	-3504	16264	28	3	8	-5184	6120	13736	-14	13	-22	-13960	9440	-832	-7	-11	20	80	4000	16392	10	-8	24	121	136	12
-7724	-4712	14048	16	-19	-10	-15776	-4144	592	4	-5	-12	2888	-3592	16224	19	2	-3	-5384	5728	13864	-14	18	-24	-13944	9104	-784	-10	2	19	-152	3872	16360	10	-20	24	121	136	12
-7732	-4732	13968	9	-16	-15	-15440	-3968	592	-10	-3	-2	3352	-3456	16496	18	3	0	-5424	6504	14056	-25	17	-19	-14248	9280	-1032	11	1	12	24	3816	16736	0	-25	24	120	137	12
-7860	-5024	14112	3	-17	-22	-16040	-4064	696	4	-12	-7	2864	-3488	16624	18	-9	5	-5192	5464	13816	-22	20	-27	-14424	8968	-1056	-11	-1	16	0	3880	16464	-3	-25	18	120	137	12
-7436	-4544	14004	12	-8	-12	-15424	-3920	696	-11	-4	-10	3120	-3512	16448	21	-3	7	-5232	6272	13752	-9	17	-17	-14008	9128	-392	41	-3	5	96	3792	16504	-1	-26	20	121	137	12
-7668	-4608	14144	4	-14	-19	-15304	-4168	768	-13	-6	-10	3088	-3616	16208	19	-2	16	-5208	6128	13808	-19	15	-20	-14064	9352	-920	4	-1	17	40	3616	16320	0	-13	22	121	137	12
-7556	-4712	13820	4	-11	-17	-15616	-4120	632	-4	-8	-12	2800	-3616	16272	17	0	16	-5336	5744	13552	-18	26	-25	-14024	8832	-776	-7	2	12	-32	3696	16280	13	-16	29	121	136	12
-7600	-4724	14040	10	-19	-9	-15272	-4320	416	-13	-3	-6	3144	-3752	16320	23	-3	15	-5160	6312	13768	-27	19	-19	-14200	9136	-776	4	3	9	-88	3640	16472	11	-13	29	121	138	12
-7792	-4940	14040	-2	-11	-20	-15704	-4144	752	-1	-4	-12	2904	-3712	16360	19	0	12	-5520	5840	13904	-19	20	-24	-14408	8944	-1160	-18	5	13	-232	3560	16416	3	-23	25	121	137	12
-7440	-4644	14012	5	-12	-16	-15560	-4120	480	-11	-7	-14	3016	-3728	16384	21	0	10	-5048	5768	13640	-16	24	-19	-14064	8680	-816	33	-7	13	152	3616	16536	-2	-28	19	121	137	12
-7828	-4732	14112	1	-6	-17	-15328	-4288	528	1	-1	-1	3144	-3696	16432	23	2	8	-5312	6240	13952	-19	20	-20	-13904	9288	-576	25	-9	16	32	3512	16464	-5	-16	14	121	137	12
-7688	-5112	13816	5	-1	-17	-15616	-4224	464	6	-1	-10	2944	-3488	16480	17	3	5	-5184	5688	13952	-7	19	-18	-14192	8928	-1160	8	3	16	-104	3448	16304	7	-13	12	121	136	12
-7356	-4496	13996	7	-8	-11	-15408	-4192	808	-18	-3	-7	3120	-3776	16192	19	9	3	-5400	6048	14112	-14	21	-21	-14104	9304	-576	13	-3	17	16	3656	16704	11	-15	22	122	136	12
-7376	-4580	14036	4	-5	-9	-15664	-4296	672	7	-3	-1	2952	-3832	16368	22	-1	3	-5240	5840	14000	-13	22	-26	-14168	9112	-1128	-26	3	16	-128	3704	16512	10	-11	26	121	136	12
-7444	-4916	13956	9	-12	-15	-15368	-4232	848	-16	1	-6	3064	-3704	16016	22	7	5	-5056	6016	13776	-4	20	-20	-13992	8752	-768	37	-6	13	296	3456	16584	10	-13	23	121	137	12
-7736	-4672	14044	6	-16	-11	-15432	-4376	640	1	-3	-3	3096	-3728	16528	28	4	8	-5464	6016	14008	-24	13	-23	-14272	9088	-984	1	-5	24	-152	3624	16656	-1	-8	18	121	139	12
-7664	-5000	14048	13	-18	-17	-15832	-4264	480	16	-1	-5	2896	-3904	16384	17	-1	5	-5536	5816	13896	-12	17	-23	-14504	8976	-824	13	8	14	-144	3448	16336	6	-14	13	121	136	12
-7604	-4816	14332	9	-11	-19	-15632	-4200	480	-6	-1	1	3128	-3672	16416	21	-2	3	-5128	6112	13984	-10	20	-20	-14256	9224	-592	11	-7	17	24	3680	16808	5	-29	16	121	137	12
-7912	-4616	14020	13	-11	-15	-15568	-4048	704	15	-7	0	2936	-3744	16368	27	-4	1	-5560	5832	13512	-3	23	-20	-13984	9104	-984	-9	-3	22	-56	3424	16248	10	-23	13	121	139	12
-7484	-4460	13868	15	-9	-12	-15496	-3872	456	-5	-1	6	3096	-3680	15992	23	4	4	-5256	6056	13744	8	21	-18	-13792	8824	-720	39	0	22	160	3480	16248	22	-15	19	122	136	12
-7716	-4740	14152	6	-14	-18	-15368	-4168	696	-14	-1	8	2888	-3768	16632	36	5	14	-5280	6000	14104	-23	17	-28	-14088	9224	-752	-22	-2	38	-320	3720	16608	16	-3	17	122	135	12
-7712	-5024	14248	14	-17	-17	-15792	-4448	576	0	-5	-4	2872	-3608	16328	29	6	4	-5064	5824	14240	-18	3	-26	-14528	9112	-952	-6	-2	23	-440	3888	16744	13	-19	16	122	136	12
-7528	-4784	13896	11	-9	-19	-15488	-4176	800	5	-6	-1	3040	-3480	16320	22	7	-1	-5392	6024	14040	-6	17	-19	-14232	8976	-640	31	-13	12	8	3728	16552	-2	-29	15	121	135	12
-7800	-4688	14088	14	-19	-16	-15672	-4072	848	15	-3	-6	2952	-3568	16568	21	5	-2	-5392	6136	14032	-1	15	-16	-13960	9224	-872	25	-21	22	56	3720	16248	0	-19	10	121	138	12
-7452	-4432	13996	15	-15	-14	-15680	-3856	904	5	-5	2	3128	-3560	16184	18	6	-3	-5288	6104	13632	11	26	-22	-13760	9016	-616	28	-15	19	336	3808	16056	14	-7	8	121	137	12
-7624	-4560	14308	8	-15	-26	-15368	-3904	936	-13	-4	7	3384	-3632	16312	29	6	7	-5144	6336	13608	-13	10	-20	-13960	9392	-640	-3	6	25	88	3832	16416	18	-1	18	121	136	12
-7644	-4872	13988	11	-14	-17	-15728	-4200	1144	-12	-15	3	2976	-3544	16104	25	6	9	-5344	6008	13752	-20	20	-21	-14168	9264	-736	-29	7	25	-128	3936	16448	20	-18	29	121	135	12
-7568	-4696	13832	11	-1	-20	-15536	-3976	960	2	-1	-3	3296	-3512	16248	27	-1	10	-5072	6152	14000	-16	16	-23	-13984	9128	-824	22	0	15	32	3864	16592	10	-24	25	121	136	12
-7672	-4700	14216	6	-17	-13	-15784	-3976	856	-3	-3	-4	2928	-3464	16680	24	-1	7	-5264	6176	14200	-21	17	-27	-14184	9128	-712	11	-8	21	40	3824	16696	-10	-30	17	120	137	12
-7712	-4788	14124	8	-12	-13	-15768	-4040	552	10	2	-4	2760	-3384	16376	17	-10	3	-5240	6032	13752	-13	27	-24	-14000	8968	-848	22	-1	15	-24	3896	16528	-8	-25	9	120	138	12
-7652	-4384	14272	-1	-6	-16	-15264	-3864	664	-3	6	-8	2944	-3320	16248	22	-7	9	-5392	6160	13816	-14	20	-22	-14040	9376	-824	5	0	9	-8	3896	16816	-9	-22	14	121	136	12
-7784	-4900	14056	4	-8	-20	-15800	-4008	400	2	0	-14	2752	-3384	16528	18	-3	15	-5328	5976	13744	-14	20	-23	-13976	9320	-1224	-5	10	11	-192	3768	16352	5	-12	24	121	136	12
-7420	-4540	14168	7	-8	-13	-15624	-3832	632	-23	-6	-15	2928	-3768	16248	21	-2	20	-5312	6480	13832	-12	25	-19	-13952	9232	-672	4	5	7	-24	3680	16464	9	-13	35	122	137	12
-7944	-4800	14228	-5	-14	-24	-15696	-4128	624	-8	-9	-15	2768	-3696	16352	25	-2	18	-5448	5776	13840	-31	18	-27	-14336	9112	-1080	-35	11	15	-328	3704	16648	9	-11	39	121	136	12
-7676	-4964	13916	0	-6	-17	-15616	-4176	472	-23	-9	-10	2984	-3728	16192	22	1	15	-5384	5936	13808	-30	10	-24	-14272	8720	-960	26	4	1	-56	3584	16656	3	-21	33	121	137	12
-7716	-4840	14276	1	-17	-20	-15544	-4296	880	-12	-15	-20	3240	-3680	16472	28	5	10	-5360	5904	14304	-27	14	-25	-14584	8960	-992	17	-8	12	56	3656	16608	-7	-16	24	121	138	12
-7744	-4880	13980	0	-12	-19	-16000	-4248	808	8	-8	-20	3088	-3720	16128	15	1	11	-5648	5704	13792	-14	25	-25	-14344	8784	-944	11	-5	11	-40	3496	16448	0	-21	17	121	137	12
-7448	-4656	13868	5	-10	-18	-15368	-4128	640	-8	1	-6	3288	-3696	16168	13	3	10	-5312	6288	14024	-10	16	-20	-13872	9248	-728	44	-5	6	272	3536	16664	3	-15	17	121	136	12
-7776	-5164	14160	-4	-16	-21	-15920	-4472	664	-1	2	-14	2952	-3856	16656	17	-1	13	-5376	5712	13944	-24	20	-27	-14280	9080	-904	-45	3	18	-208	3464	16328	1	-9	18	121	136	12
-7592	-4696	14012	8	-8	-12	-15792	-4600	800	3	-4	-14	3056	-3792	16296	11	1	9	-5320	5656	13896	-23	25	-33	-14184	8856	-1088	19	4	9	-24	3544	16800	6	-24	19	121	136	12
-7744	-4820	14240	-2	-3	-21	-15632	-4424	896	-17	3	-7	3312	-3912	16392	15	-3	6	-5328	6040	14144	-18	19	-27	-14472	9208	-752	9	-6	18	0	3512	16696	-5	-19	11	121	136	12
-7708	-4940	13964	1	-3	-18	-16024	-4352	568	16	-3	-11	2880	-3784	16336	18	2	2	-5464	5960	13936	-6	29	-22	-14144	8920	-960	21	2	18	-72	3560	16136	-2	-28	9	121	137	12
-7416	-4608	14000	3	-7	-14	-15416	-4112	768	-9	0	2	3192	-3616	15936	19	0	3	-5256	6312	13976	-6	19	-23	-13752	9208	-704	48	-14	17	176	3584	16368	2	-13	14	121	137	12
-7752	-4804	13980	4	-12	-18	-15616	-4240	744	2	-5	-1	2992	-3672	16400	22	3	6	-5128	6072	13880	-10	14	-22	-14128	9256	-856	-11	-4	26	16	3456	16560	7	-12	13	122	135	12
-7372	-4776	14116	8	-18	-16	-15696	-3928	712	0	-2	-1	2984	-3800	16040	20	7	2	-4976	5792	13848	1	18	-20	-14080	8896	-808	9	-2	19	104	3688	16376	25	-8	22	121	135	12
-7596	-4592	14224	9	-11	-15	-15272	-4112	792	-9	-4	4	3240	-3680	16224	27	10	6	-5056	6480	13760	-10	14	-19	-14064	9160	-1160	-1	-12	23	-56	3592	16344	15	-15	23	121	135	12
-7404	-5016	14348	18	-24	-21	-15856	-4144	952	-1	-8	-1	3040	-3600	16072	25	-2	4	-4704	5736	13712	-3	10	-20	-14296	8968	-688	17	-20	26	264	3704	16144	16	-12	16	121	136	12
-7276	-4752	14156	16	-8	-18	-15368	-3952	1056	-9	-19	1	3328	-3528	16080	29	3	1	-5120	6128	13832	-2	2	-13	-13944	9328	-504	34	-24	24	336	3728	16288	14	-24	11	121	136	12
-7348	-5008	14276	12	-25	-19	-15368	-3960	616	-10	-16	1	3352	-3720	16104	34	1	-2	-4696	6008	14360	-12	-8	-17	-14352	8968	-480	14	-24	30	304	3832	16576	16	-20	11	121	138	12
-6860	-4828	14220	17	-18	-14	-15576	-4168	1408	-4	-26	-4	3480	-3488	16136	32	3	-6	-4712	6160	14240	-8	9	-11	-14128	8936	-368	9	-25	24	592	3808	16472	24	-31	10	121	138	12
-7212	-4992	14560	7	-33	-27	-15424	-4320	1160	9	-24	-2	3680	-3640	16320	38	2	-4	-4272	5992	14040	-4	-8	-7	-14440	9304	-56	0	-22	18	784	3864	16592	25	-32	17	120	137	12
-6624	-4880	14376	14	-29	-21	-15680	-4432	1464	6	-18	-4	3744	-3592	16024	28	-3	-1	-4272	6112	14088	-1	4	-9	-14144	8952	184	29	-38	18	928	3832	16400	23	-24	22	121	137	12
-6912	-5040	14476	4	-27	-23	-15392	-4200	1656	-14	-32	-6	3912	-3448	16216	35	-8	1	-4424	6200	14248	-6	-3	-3	-14208	9224	256	-4	-29	19	1072	3856	16560	20	-32	17	120	138	12
-6556	-4900	14384	6	-31	-20	-15720	-4392	1704	-13	-41	-15	3952	-3648	16096	28	-11	8	-4088	5936	14224	-11	-3	-8	-14216	9016	272	4	-33	18	1040	4040	16440	17	-33	26	121	137	12
-6668	-5336	14456	-1	-33	-23	-15504	-4464	1816	-15	-36	-13	4360	-3664	16168	31	-17	5	-4016	5960	14240	-8	-1	-6	-14408	9064	352	-10	-25	14	1272	4104	16656	15	-37	19	120	138	12
-6528	-5160	14480	3	-26	-28	-15256	-4392	1912	0	-30	-9	4368	-3528	15856	26	-15	8	-4016	6128	14528	-8	-1	-10	-14296	8992	392	15	-29	11	1400	4016	16656	11	-38	24	120	137	12
-6312	-5072	14492	6	-34	-25	-15264	-4592	1856	-4	-30	-9	4552	-3968	15792	26	-15	2	-3968	6016	14432	-8	-2	-14	-14160	8936	576	18	-24	12	1464	3920	16440	14	-33	20	121	137	12
-6564	-5132	14576	4	-33	-26	-15400	-4512	2168	7	-32	-10	4392	-3568	16168	24	-8	-5	-3952	6160	13752	-13	8	-13	-14088	9080	256	-24	-14	11	1472	3984	16352	9	-30	27	121	136	12
-6368	-5112	14696	12	-37	-24	-15296	-4512	2016	1	-19	-5	4344	-3720	15656	21	-11	-5	-3880	6064	14032	-13	3	-18	-14112	8952	616	2	-16	15	1440	3928	16136	10	-29	31	121	135	12
-6424	-4948	14404	11	-21	-14	-15320	-4368	2208	7	-23	-1	4464	-3576	16072	27	-14	-5	-4016	6456	14056	-17	5	-17	-13928	9128	648	0	-11	18	1304	3816	16544	14	-31	28	121	136	12
-6188	-5224	14516	4	-25	-24	-15520	-4480	1848	-6	-21	1	4392	-3672	15920	32	-15	-1	-3648	6232	14352	-19	-1	-17	-14280	8816	544	3	-11	18	1424	3880	16272	21	-29	33	121	137	12
-6220	-5220	14564	9	-26	-30	-15256	-4568	2024	-5	-20	-8	4432	-3568	16128	29	-7	0	-4080	6080	14496	-17	2	-20	-14584	8800	416	-10	-18	17	1304	3848	16560	15	-28	26	121	137	12
-6200	-5156	14848	13	-35	-26	-15632	-4632	2272	9	-25	-7	4576	-3768	16136	29	-16	1	-3360	5720	14296	-7	0	-12	-14432	8960	728	18	-27	19	1416	3880	16416	15	-34	27	120	136	12
-5984	-5488	14712	11	-34	-24	-15344	-4560	2144	2	-24	-6	4584	-3608	15624	30	-13	-5	-3400	6224	14528	12	-2	-6	-14440	8968	952	34	-41	15	1600	3832	16592	14	-35	17	121	139	12
-5856	-5252	15004	13	-42	-30	-15424	-4744	2448	6	-39	-8	4672	-3808	16008	34	-6	-7	-3192	6200	14776	6	-13	-7	-14272	8952	1104	10	-49	32	1768	3920	16424	20	-35	12	120	135	12
-5716	-5420	15212	9	-44	-29	-15568	-4784	2672	-3	-52	-11	4968	-3688	16024	32	-10	-10	-3152	6264	14552	4	-17	-9	-14480	9128	1096	-6	-57	27	1856	3992	16512	29	-46	15	121	137	12
-5680	-5320	15004	12	-47	-30	-15616	-4784	2928	0	-55	-10	5144	-3736	15984	38	-13	-9	-3256	6328	14888	7	-15	-3	-14712	8984	1584	3	-61	25	2168	3968	16824	35	-62	16	121	135	12
-5392	-5540	15240	6	-47	-35	-15424	-4944	2976	-7	-53	-2	5472	-3688	15936	42	-15	-9	-2832	6208	15064	10	-29	3	-14568	9072	1568	24	-65	18	2376	3928	16592	40	-63	14	120	136	12
-5380	-5600	15076	5	-44	-29	-15392	-4896	3496	-4	-60	-10	5656	-3744	16248	41	-17	-12	-2848	6480	14896	14	-16	4	-14392	8968	1896	20	-75	37	2848	4168	16536	45	-62	1	120	137	12
-5428	-5424	15212	11	-51	-30	-15400	-4880	3440	11	-52	-1	5696	-3736	15904	41	-14	-16	-2688	6352	14520	20	-19	3	-14336	9016	1840	29	-69	35	2928	4392	16376	43	-50	-1	120	136	12
-5316	-5192	15044	14	-41	-22	-15344	-4872	3568	14	-46	3	6088	-3696	15816	38	-10	-19	-2840	6472	14608	9	-9	-1	-14160	9384	2200	9	-60	36	2992	4384	16728	42	-45	3	120	134	12
-5416	-5748	15240	19	-40	-24	-15568	-4928	3312	14	-32	11	5952	-3648	15904	35	-10	-21	-2648	6592	14544	5	-15	4	-14344	9320	2152	-6	-38	36	3032	4568	16288	34	-40	7	121	136	12
-5240	-5156	14832	29	-29	-10	-15368	-4632	3656	14	-30	11	6000	-3640	15784	35	-11	-18	-2904	6720	14704	6	8	-3	-14080	9144	2032	-4	-24	40	3016	4800	16208	36	-38	13	122	136	12
-5352	-5188	14940	19	-34	-20	-15336	-4512	3208	11	-15	23	5776	-3440	15728	32	-15	-8	-2992	6696	14584	3	11	-10	-14152	9216	1872	-3	-5	33	2904	4712	16376	27	-28	25	121	136	12
-5580	-5332	15076	15	-30	-17	-15512	-4784	3512	-2	-12	23	5504	-3272	15864	37	-17	-1	-2944	6664	14640	-1	7	-4	-14208	9208	1576	-23	-4	37	2424	4704	16432	25	-31	32	122	136	12
-5568	-5408	15464	25	-27	-11	-15536	-4632	3040	11	-1	12	5288	-3272	16312	40	-22	2	-2544	6392	14520	-17	5	-14	-14520	9400	1704	-11	1	29	2304	4672	16112	18	-28	34	122	136	12
-5288	-4984	15104	17	-22	-11	-15240	-4328	3016	-2	-11	4	5288	-3104	15816	38	-16	7	-3088	6232	14656	-20	15	-16	-14232	9200	1696	7	-6	21	2336	4608	16128	12	-32	41	123	137	12
-5344	-5404	15040	9	-15	-20	-15104	-4568	2968	-5	-18	3	5344	-3080	15664	34	-10	12	-2840	6584	14568	-12	4	-12	-14184	9400	1944	6	0	7	2304	4536	16400	13	-24	37	123	138	12
-5060	-5160	15036	7	-25	-17	-15272	-4480	3096	-10	-22	-9	5272	-2992	15832	26	-7	13	-2888	6832	15056	-18	7	-15	-14248	9216	1808	3	-9	8	2200	4608	16352	10	-20	31	121	137	12
-5404	-5444	15068	-6	-27	-27	-15544	-4592	3184	-4	-29	-21	5272	-3008	15928	25	-6	9	-2920	6376	14680	-18	4	-20	-14320	9120	1616	-22	-11	5	2136	4632	16360	5	-25	25	120	137	12
-5444	-5336	15308	-13	-29	-29	-15328	-4496	3344	-24	-22	-19	5608	-3072	16016	11	-6	8	-2648	6168	14784	-27	-4	-22	-14504	8984	1688	2	-18	-5	2536	4496	16536	-8	-35	22	119	137	12
-5524	-5524	15132	-10	-21	-28	-15368	-4704	3488	-14	-24	-36	5736	-3304	15800	1	-7	10	-2560	6240	14600	-21	4	-21	-14440	9016	1752	7	-27	-5	2712	4432	16152	-15	-31	15	118	139	12
-5268	-5188	15032	-10	-9	-31	-15200	-4488	3392	-9	-22	-38	5688	-3360	15688	-7	-8	11	-3032	5960	14480	-28	11	-29	-14112	9064	1960	25	-15	-8	2952	4336	16088	-17	-32	12	119	138	12
-5392	-5572	14880	-11	-12	-27	-15112	-4832	3288	-14	-14	-35	5560	-3712	15560	-6	-12	17	-2912	6704	14504	-31	9	-20	-14288	9040	1928	7	7	-6	2688	4304	16360	-17	-20	23	120	136	12
-5392	-5272	14868	-6	-8	-19	-15616	-4840	3160	-4	-4	-31	5360	-3760	16008	3	-14	22	-3016	6416	14512	-44	19	-28	-14264	9304	1736	-16	18	-6	2496	4224	16528	-13	-20	35	120	134	12
-5496	-5360	14884	-11	-6	-20	-15344	-4760	3296	-4	3	-25	5464	-3816	15800	11	-17	23	-3000	6272	14712	-31	20	-28	-14336	9064	1328	-20	25	-6	2440	4032	16576	-13	-21	40	121	136	12
-5592	-5248	14912	-4	-11	-19	-15336	-4800	3152	-34	1	-24	5312	-3912	15688	17	-10	27	-2968	6632	14400	-28	30	-24	-14376	9056	1296	-8	14	-6	2336	3768	16352	-14	-14	40	122	138	12
-5700	-5264	14872	-9	-12	-17	-15376	-4752	2824	2	3	-14	5272	-4104	16128	20	-13	26	-3096	5864	14584	-30	23	-32	-14368	8792	1216	-6	14	-1	2168	4040	16368	-7	-12	37	122	136	12
-5768	-5412	15056	8	-13	-16	-15392	-4896	2672	-12	4	-12	5000	-3792	15792	20	-10	16	-2968	6360	14592	-25	11	-24	-14472	8928	1424	11	16	7	2024	3744	16512	2	-12	34	123	135	12
-5624	-5504	15108	16	-9	-9	-15504	-4720	2848	-2	0	-8	5144	-3760	15840	19	-5	9	-3288	6528	15032	-21	24	-28	-14496	9032	1312	0	5	16	1760	3752	16504	13	-13	28	122	134	12
-5500	-5444	14872	3	-7	-16	-15520	-4816	3056	2	-4	-3	5296	-3600	15752	20	2	8	-3072	6384	14896	-12	26	-17	-14512	8720	1128	9	-6	24	1976	3872	16488	22	-23	21	122	135	12
-5664	-5652	15084	-1	-19	-20	-15576	-4960	2968	-11	-12	3	5112	-3592	15888	27	2	6	-2872	6080	14976	0	23	-15	-14496	8936	1536	6	-19	22	2176	3920	16488	23	-16	11	122	135	12
-5680	-5328	15256	0	-31	-22	-15472	-4736	3280	-5	-18	2	5312	-3616	16040	26	3	3	-2904	6024	14536	14	20	-12	-14432	8952	1376	1	-23	33	2304	4040	16304	22	-21	5	121	133	12
-5776	-5184	15096	12	-28	-12	-15144	-4696	2968	-1	-16	2	5416	-3600	15952	30	1	-5	-3096	6384	14632	3	10	-15	-14296	9256	1808	26	-28	35	2496	4216	16432	21	-23	-1	121	134	12
-5568	-5700	15112	13	-26	-9	-15600	-5008	3096	-5	-13	7	5392	-3512	15816	20	0	1	-2608	6400	14400	11	8	-11	-14392	9176	1880	26	-21	33	2592	4376	16448	24	-20	3	121	134	12
-5552	-5080	14860	9	-14	-12	-15352	-4464	3072	8	-11	6	5344	-3376	16080	27	-1	-4	-3608	6616	14632	-9	19	-14	-14136	9384	1376	-15	-6	36	2232	4432	16288	14	-26	6	121	135	12
-5748	-5408	14792	16	-29	-6	-15528	-4656	2920	5	-3	3	5256	-3504	15952	24	-8	7	-2952	5984	14072	-7	19	-15	-14216	9136	1400	3	2	28	2376	4640	16168	7	-27	16	121	135	12
-5840	-5252	14816	13	-12	-8	-15232	-4520	2832	-7	9	10	5136	-3440	15720	23	-10	5	-3256	6288	14440	-9	14	-17	-13864	9200	1288	13	7	20	2192	4600	16336	0	-20	28	120	135	12
-5908	-4924	14788	15	-14	-5	-15288	-4376	2600	2	7	7	4912	-3488	15912	27	-12	10	-3456	6496	14328	-27	22	-20	-14064	9232	1128	-14	24	17	1952	4320	16032	3	-13	31	121	136	12
-5992	-5212	14792	12	-2	-11	-15376	-4344	2648	-6	8	5	4760	-3536	15960	25	-13	17	-3712	6304	14304	-37	28	-27	-14184	9320	1120	-16	26	14	1736	4360	16656	0	-11	40	121	135	12
-6176	-5360	14832	12	-15	-8	-15504	-4496	2432	-8	4	-5	4624	-3312	15968	25	-11	19	-3584	5976	14392	-31	28	-26	-14504	9136	912	-29	30	10	1544	4248	16392	2	-14	44	121	134	12
-5924	-4992	14804	9	-10	-12	-15488	-4368	2384	-17	-3	-7	4680	-3384	15608	25	-11	25	-3576	6536	14440	-20	24	-22	-14280	8864	544	13	20	4	1648	3984	16304	-2	-9	44	121	136	12
-6016	-5064	14632	-2	-2	-16	-15216	-4560	2432	-35	-9	-12	4536	-3416	15872	26	-4	31	-3664	6304	14608	-28	31	-26	-14040	8928	744	-8	7	6	1544	3984	16320	-7	-5	36	121	133	12
-6008	-5164	14704	-3	-19	-17	-15384	-4648	2360	-18	-5	-18	4832	-3544	15856	21	-2	28	-3520	6040	14560	-25	17	-24	-14248	8912	728	4	6	5	1744	3856	16288	0	-1	31	121	136	12
-6192	-5244	15000	1	-11	-15	-15368	-4720	2272	-13	-8	-21	4616	-3728	15896	20	1	22	-3528	5904	14640	-15	18	-24	-14512	8992	832	2	2	7	1608	3920	16176	1	-8	20	121	136	12
-5912	-5412	14988	0	-24	-21	-15368	-4776	2560	-11	-8	-17	4792	-3872	16008	22	3	14	-3392	6544	14448	-9	11	-13	-14320	9096	1104	19	-8	12	1792	3808	16224	-2	-16	13	121	136	12
-5920	-5368	14768	-2	-16	-23	-15464	-4696	2520	-11	-20	-13	4992	-3800	15840	25	0	12	-3744	6000	14608	-7	13	-17	-14408	8992	880	6	-13	23	1880	3968	16464	4	-20	16	120	138	12
-6072	-5244	14800	11	-17	-17	-15600	-4816	2536	-13	-17	-11	4872	-4048	15912	26	0	6	-3368	5928	14184	-9	18	-16	-14248	8912	976	14	-12	22	2008	3984	16160	9	-18	13	121	136	12
-5940	-5436	14696	8	-15	-14	-15280	-4704	2696	2	-2	4	4976	-3720	16072	23	-1	-3	-3664	6320	14480	-4	14	-17	-14152	8848	720	10	-8	22	2048	3912	16448	14	-20	11	121	137	12
-6032	-5372	14692	13	-16	-10	-15328	-4680	2624	1	-5	5	4936	-3648	15696	26	-4	-2	-3376	6656	14448	-9	15	-13	-14280	9016	1208	19	-2	33	1848	4016	16208	11	-17	12	121	133	12
-5980	-5152	14536	19	-20	-6	-15320	-4624	2680	10	0	6	4632	-3584	16008	26	-4	-3	-3832	6344	14304	-9	26	-19	-14200	8960	912	6	-2	29	1680	4040	16312	14	-23	15	121	135	12
-6204	-5124	14644	17	-16	-9	-15280	-4400	2424	18	6	9	4576	-3472	15832	26	-4	0	-3600	6128	14296	4	26	-19	-14104	9016	944	2	6	28	1736	4048	16272	16	-23	20	122	135	12
-6004	-5080	14740	10	-15	-13	-15408	-4184	2128	-10	-4	12	4608	-3408	15952	32	-8	9	-3736	6288	14376	-7	23	-22	-14184	9176	608	-6	8	30	1608	4056	16432	15	-22	21	122	136	12
-6428	-5452	14852	24	-21	-7	-15472	-4496	2304	-1	3	5	4448	-3464	16120	37	-11	10	-3704	6200	14632	-20	14	-17	-14280	9240	512	-7	8	30	1288	3984	16344	19	-21	18	122	136	12
-6244	-5256	14800	13	-8	-10	-15536	-4552	2320	6	-6	2	4384	-3536	16280	37	-13	12	-3632	6208	14592	-17	17	-21	-14416	9096	544	-10	8	28	1256	4088	16224	17	-25	21	121	137	12
-6196	-5400	14836	6	-12	-16	-15688	-4480	2136	-6	-8	-3	4360	-3456	16480	35	-10	14	-3752	6192	14592	-9	14	-14	-14648	9152	544	5	-7	22	1344	4064	16616	8	-27	23	120	131	12
-6244	-4932	14936	8	-16	-17	-15688	-4424	1976	-11	-15	-4	4472	-3392	16192	29	-8	18	-3760	6128	14496	-7	13	-19	-14352	9144	944	12	-18	24	1536	4456	16576	9	-25	13	120	136	12
-6204	-4996	14988	3	-24	-17	-15704	-4440	2344	-8	-15	-8	4552	-3504	16192	26	-9	17	-3864	6424	14656	-9	14	-18	-14400	9312	752	11	-22	22	1528	4304	16656	11	-23	11	121	136	12
-6260	-5376	14992	2	-15	-21	-15640	-4648	2272	-15	-16	-13	4672	-3472	16360	24	-10	14	-3688	6440	14784	-10	11	-14	-14456	9416	472	3	-15	17	1536	4408	16688	8	-22	16	120	136	12
-6200	-5520	14976	7	-21	-14	-15792	-4656	2520	-3	-12	-13	4816	-3504	16384	21	-7	6	-3752	6640	14640	-13	9	-17	-14576	9480	1032	-5	-12	18	1672	4312	16952	10	-22	15	120	136	12
-6200	-5304	15048	5	-20	-27	-15840	-4600	2376	7	-15	-14	4800	-3704	16104	15	-5	7	-3504	6024	14576	-19	11	-22	-14576	9288	1024	9	-14	11	1752	4432	16448	7	-25	16	120	137	12
-6232	-5156	14948	4	-15	-19	-15488	-4440	2592	-10	-9	-15	4856	-3640	16360	15	-4	2	-3432	6448	14456	-17	5	-17	-14192	9288	888	21	-14	4	1904	4360	16464	-1	-28	19	120	135	12
-6132	-4904	14732	-3	-15	-22	-15520	-4592	2616	-7	-16	-11	4776	-3416	15864	8	-3	5	-3680	6080	14600	-22	15	-23	-14232	9072	816	9	-8	1	1976	4288	16480	-3	-22	27	121	138	12
-6036	-5092	14696	4	-21	-13	-15440	-4440	2472	-4	-8	-21	4624	-3552	16160	5	-9	3	-3720	6424	14568	-23	6	-17	-14192	9152	1000	2	0	0	1616	4144	16328	-5	-19	24	122	137	12
-5972	-5456	14580	1	-16	-25	-15384	-4360	2280	1	-9	-20	4696	-3480	15760	9	-10	8	-3640	6328	14256	-32	12	-25	-14232	9096	704	-7	3	-5	1592	3984	16392	-3	-23	33	122	136	12
-6132	-5248	14560	-7	-21	-21	-15560	-4424	2432	-9	-7	-21	4648	-3536	15808	14	-14	13	-3600	6384	14192	-29	14	-20	-14360	8992	760	-20	1	-5	1528	3888	16416	-3	-23	36	121	136	12
-6096	-5304	14560	-6	-17	-25	-15288	-4552	2280	-13	-11	-22	4536	-3528	15800	17	-10	19	-3664	6056	14216	-30	11	-22	-14240	8840	512	-4	0	-3	1712	3848	16144	-6	-27	37	121	139	12
-6200	-5264	14588	-18	-15	-27	-15200	-4616	2064	-13	-9	-18	4640	-3512	15728	16	-10	17	-3648	6008	14088	-22	13	-22	-14296	8760	536	4	-4	-6	1600	3760	15864	-3	-22	28	122	138	12
-6048	-5180	14344	-4	-8	-20	-15216	-4456	2344	-8	-5	-23	4728	-3680	15520	16	-5	20	-3688	6008	14312	-25	17	-25	-14032	8672	760	28	-4	5	1904	3664	15944	-7	-21	28	122	136	12
-6008	-5388	14292	-8	-10	-22	-14848	-4592	1936	-12	-5	-24	4744	-3712	15608	11	-3	19	-3712	6384	14552	-23	17	-19	-14064	8664	928	20	4	3	1680	3552	16344	-2	-14	26	122	137	12
-6100	-5376	14220	-3	-16	-20	-15184	-4752	2464	0	-9	-21	4512	-3784	15656	13	0	13	-3880	5888	14296	-27	20	-31	-14168	8736	504	-13	4	11	1448	3824	16256	-2	-19	19	122	135	12
-6276	-5360	14500	-2	-11	-19	-15272	-4712	2024	-2	-2	-21	4528	-3928	15864	18	-4	13	-3872	6224	14424	-25	22	-23	-14352	8656	344	-11	5	9	1456	3912	16304	-3	-26	23	121	135	12
-6452	-4952	14648	7	-16	-16	-15392	-4576	2152	4	3	-9	4648	-3800	16032	20	-10	11	-3696	6016	14304	-23	13	-31	-14296	8816	672	7	-1	14	1624	3752	16384	-4	-28	19	121	136	12
-6364	-5288	14620	11	-10	-15	-15240	-4736	2352	-16	3	-6	4472	-3840	16008	26	-6	6	-3736	6016	14360	-24	19	-25	-14504	8776	584	24	-12	15	1456	3760	16344	-1	-17	4	122	136	12
-6496	-5204	14600	7	-14	-24	-15280	-4848	2120	16	-1	-9	4432	-3696	15792	17	-4	2	-3944	6128	14352	-11	18	-29	-14320	8976	432	19	-8	15	1528	3760	16312	0	-19	12	121	135	12
-6340	-5644	14504	15	-7	-21	-15568	-4576	2208	16	1	-5	4408	-3768	16104	15	-2	-6	-3824	5888	14208	-2	17	-21	-14232	8928	792	14	-7	22	1288	3896	16336	6	-22	4	121	135	12
-6336	-5148	14576	12	-12	-20	-15440	-4520	1976	20	5	0	4448	-3520	16120	11	3	-7	-4152	5920	14176	-6	24	-25	-14136	8824	680	16	-4	17	1272	4000	16448	12	-25	11	122	136	12
-6420	-5348	14672	11	-12	-17	-15344	-4480	1896	2	3	3	4144	-3536	16216	14	4	-8	-3640	6080	14296	-7	18	-24	-14240	8880	488	8	-5	15	1328	3880	16416	6	-21	6	121	137	12
-6588	-5408	14708	7	-12	-17	-15472	-4448	1968	2	-5	-10	4192	-3704	16264	11	-6	-2	-3984	5744	14624	-22	15	-30	-14336	8840	472	-3	-2	25	1280	3920	16664	5	-24	5	120	137	12
-6360	-5452	14532	-5	-6	-24	-15624	-4656	1672	6	-3	-13	4120	-3720	16256	16	-6	5	-3960	6376	14544	-17	21	-22	-14768	9008	440	19	-7	10	1248	4088	16512	-5	-23	8	120	137	12
-6524	-5192	14568	-3	-15	-29	-15536	-4576	1968	-6	-5	-21	4232	-3664	16272	17	-10	9	-4240	5832	14752	-16	23	-36	-14568	8960	392	5	-9	13	1384	4024	16648	-8	-30	14	120	138	12
-6588	-5536	14664	-11	-14	-33	-15496	-4584	2208	-3	-2	-24	4312	-3888	16304	15	-8	17	-3920	5952	14432	-12	11	-30	-14616	8896	616	12	-3	6	1624	3848	16504	-6	-22	16	121	137	12
-6700	-5216	14716	0	-10	-22	-15472	-4824	1856	-12	-1	-22	4384	-3928	16272	18	-2	12	-4016	6240	14240	-21	18	-36	-14480	8904	664	3	6	10	1456	3760	16448	-7	-17	15	121	137	12
-6672	-5300	14368	2	-5	-30	-15480	-4688	1808	4	-3	-22	4312	-3984	15920	13	2	14	-4344	5928	14456	-21	15	-33	-14368	8792	200	17	8	4	1464	3696	16416	-8	-8	23	121	136	12
-6560	-5528	14472	9	-6	-26	-15376	-4784	1832	-5	12	-17	4312	-3968	15992	17	5	15	-4112	5920	14144	-22	17	-35	-14432	8928	560	16	8	3	1208	3656	16416	-6	-2	28	121	135	12
-6452	-5304	14320	13	1	-21	-15520	-4840	1640	-1	0	-15	4256	-4248	16128	15	11	6	-4136	5848	14216	-20	16	-35	-14432	8704	160	8	12	9	952	3560	16456	6	-4	26	122	135	12
-6668	-4852	14408	14	-5	-20	-15336	-4768	1624	1	1	-1	4248	-4136	16008	27	9	5	-4304	5808	14360	-16	22	-42	-14304	8792	192	10	4	12	1056	3432	16328	2	-6	27	122	136	12
-6752	-5320	14424	23	-7	-24	-15184	-4736	1912	-2	2	1	4128	-3968	16096	30	13	-1	-4192	5952	14304	-11	18	-34	-14320	8600	8	7	2	19	1000	3272	16304	7	-8	21	122	135	12
-6572	-5104	14220	21	-5	-20	-15056	-4624	1696	3	5	9	4048	-3840	15704	31	11	-8	-4232	5984	14232	7	23	-34	-14128	8528	192	26	-3	21	992	3392	16160	14	-13	9	122	135	12
-6632	-4944	14044	29	-3	-14	-15080	-4656	1544	15	3	3	3984	-3784	15848	30	16	-14	-4232	5888	14360	-1	22	-33	-14056	8768	88	32	-5	38	896	3368	16224	23	-10	3	122	135	12
-6668	-5224	14252	27	-11	-23	-15216	-4696	1472	24	12	11	3840	-3840	16216	27	9	-16	-4568	6056	14456	-1	14	-33	-14552	8744	-56	13	-8	38	688	3424	16568	20	-15	-5	121	136	12
-6832	-5244	14532	26	-7	-21	-15712	-4672	1696	28	10	6	3624	-3864	16456	29	-1	-19	-4224	5568	14424	0	16	-35	-14792	8840	-352	-1	-15	39	832	3528	16664	12	-33	-14	121	136	12
-6808	-5456	14332	27	-4	-26	-15280	-4464	1544	8	7	9	4112	-3832	16048	30	-2	-15	-4416	5872	14200	12	18	-33	-14392	8696	88	46	-23	27	1176	3696	16360	2	-34	-17	121	139	12
-6864	-5220	14100	30	5	-21	-15096	-4448	1560	18	9	7	4016	-3600	16104	26	4	-12	-4544	6168	14280	13	21	-26	-13824	8920	-88	61	-17	32	1408	3632	16600	5	-21	-16	121	140	12
-6804	-4956	14100	21	2	-20	-15424	-4344	1688	19	14	10	4008	-3704	16120	21	6	-8	-4336	5952	14312	2	27	-37	-14248	9208	-96	27	-10	35	920	3816	16352	7	-4	-10	121	136	12
-6904	-4864	14544	21	-6	-17	-15568	-4560	1520	19	12	6	3880	-3768	16216	20	12	-4	-4632	5928	14136	-5	25	-41	-14368	9216	-160	11	0	33	696	3920	16616	17	-10	-3	121	136	12
-7080	-5272	14556	24	-9	-20	-15792	-4544	1512	18	15	7	3832	-3704	16424	22	13	-7	-4504	6152	14416	-4	20	-34	-14392	9192	-240	2	12	23	696	3992	16744	10	-13	6	120	135	12
-6956	-4988	14680	23	2	-19	-15792	-4384	1568	15	12	5	3656	-3848	16488	30	10	-8	-4464	6264	13984	1	26	-37	-14184	9128	-304	12	5	22	800	4008	16424	17	-14	10	120	136	12
-7080	-4828	14224	19	2	-19	-15552	-4080	1488	16	20	10	3720	-3504	16160	29	11	-10	-4536	5776	14000	-5	25	-37	-13832	9024	-304	37	-1	21	776	3960	16216	9	-8	3	121	136	12
-6992	-4700	14188	17	-1	-23	-15528	-4056	1440	1	13	10	3680	-3376	15928	20	17	-7	-4496	6016	13944	-2	23	-43	-13944	9016	-64	40	5	21	592	3928	16112	12	3	4	121	136	12
-6996	-5156	14120	17	1	-20	-15576	-4376	1480	11	14	7	3424	-3448	16064	23	17	-11	-4832	6016	13904	-16	22	-37	-14064	9328	-336	24	-1	19	416	3800	16336	4	-7	8	121	136	12
-7184	-4980	14452	19	-5	-20	-15464	-4256	1216	30	11	2	3400	-3528	16328	15	12	-19	-4408	5832	13944	-17	13	-38	-14368	8992	-336	-2	4	21	312	3920	16320	5	-16	9	120	136	12
-7224	-5164	14300	15	2	-31	-15560	-3992	1304	17	4	-5	3400	-3400	16248	14	1	-11	-4752	5920	14208	-4	17	-41	-14168	9128	-400	3	0	9	424	3704	16512	1	-30	11	120	137	12
-7152	-4952	14324	20	-9	-25	-15768	-3936	1160	6	0	-10	3480	-3568	16512	17	3	-3	-4736	6064	14272	-18	7	-36	-14368	8992	-472	29	-2	19	592	3816	16880	-5	-20	7	119	137	12
-7132	-5064	14168	11	3	-27	-15640	-4096	1280	-4	-4	-13	3400	-3552	16312	22	-2	6	-5176	6168	14048	-19	16	-34	-14408	8928	-288	38	-13	14	504	3640	16528	-4	-21	1	120	138	12
-7356	-4664	14300	-6	-3	-37	-15696	-4424	1144	3	4	-17	3448	-3536	16560	16	-5	13	-4704	5536	14376	-12	9	-35	-14456	9048	-344	17	-6	16	576	3824	16744	-5	-23	5	120	136	12
-7052	-5148	14184	1	2	-31	-15536	-4552	1456	-9	-3	-22	3400	-3640	16144	14	-4	8	-4896	5952	14400	-16	17	-40	-14408	9032	-520	13	-11	8	496	3744	16744	-3	-24	3	120	136	12
-7548	-5328	14072	-4	-5	-41	-15512	-4488	1360	-5	-5	-26	3552	-3760	16256	9	-1	7	-4656	5800	14568	-11	15	-40	-14568	8968	-400	9	0	2	624	3680	16712	-7	-27	10	120	137	12
-7192	-5320	14296	5	0	-37	-15584	-4360	1200	-2	7	-26	3520	-3880	16200	-1	7	3	-4768	5704	14224	-18	22	-43	-14296	9056	-256	30	-7	-2	640	3624	16464	-7	-16	5	120	138	12
-7256	-5252	14048	5	-1	-28	-15424	-4456	992	14	7	-20	3672	-4024	16216	2	10	0	-4768	5968	13944	-21	30	-43	-14040	8848	-568	27	-2	-2	672	3512	16288	-16	-9	9	121	137	12
-7072	-5136	14148	7	2	-33	-15408	-4440	1168	5	11	-14	3472	-4056	16016	5	14	-6	-4712	5872	13760	-19	21	-33	-14216	8800	-376	33	3	9	480	3544	15952	-10	1	13	122	137	12
-7152	-4872	14128	21	3	-21	-15264	-4456	1144	2	5	-13	3592	-4120	15888	11	18	-8	-4856	6216	13928	-27	19	-41	-13936	8976	-408	30	8	9	336	3416	16696	-1	-4	18	122	136	12
-7288	-5048	14240	19	-12	-28	-15664	-4400	1128	14	8	-5	3256	-3968	16136	20	15	-13	-4840	5912	13864	-18	25	-46	-14184	9008	-440	15	1	11	304	3376	16320	4	-7	14	121	137	12
-7300	-4564	14224	19	-1	-24	-15440	-4312	1088	14	9	1	3448	-3696	16192	28	11	-11	-4752	6240	13896	-10	17	-39	-14016	8784	-464	20	2	17	440	3368	16320	10	-15	10	121	138	12
-7208	-5108	14244	14	-3	-28	-15448	-4464	1232	6	5	8	3544	-3704	16424	30	12	-5	-4880	5824	13792	-9	23	-38	-14472	8584	-576	27	-1	20	440	3544	16304	9	-16	2	121	135	12
-7328	-5172	14016	12	5	-29	-15432	-4368	1256	2	4	5	3544	-3504	16352	26	6	-3	-4896	6240	14192	4	16	-35	-14480	8896	-392	35	-6	25	496	3592	16512	6	-23	-9	121	136	12
-7220	-4964	14368	18	-2	-17	-15776	-4368	1368	7	6	-12	3456	-3736	16280	26	5	1	-4824	6024	14128	0	21	-32	-14344	9120	-448	36	-11	27	544	3680	16656	-1	-20	-12	121	136	12
-7304	-4696	14260	14	-6	-20	-15600	-4392	1144	29	8	2	3648	-3712	16040	22	-1	-4	-5040	6192	14096	10	22	-31	-14200	9128	-576	26	-9	29	528	3712	16544	8	-19	-10	121	139	12
-7180	-5156	14132	16	-5	-24	-15576	-4272	1208	2	5	3	3512	-3592	16400	24	5	-6	-4664	5976	14016	9	20	-30	-14264	9136	-304	22	-15	34	592	3904	16512	12	-10	-7	121	138	12
-7160	-4732	14100	18	-3	-22	-15656	-4176	1224	2	-1	3	3528	-3688	15912	28	6	-5	-4968	5960	14008	-11	23	-35	-13936	9176	-464	-1	-7	32	440	3936	16480	16	-12	2	121	137	12
-7404	-5028	14128	24	-5	-25	-15568	-4512	1112	16	12	8	3304	-3624	16280	24	7	-10	-4608	6024	13912	-8	19	-38	-14128	9040	-560	27	-3	21	384	3984	16176	13	-14	1	121	135	12
-7260	-4684	14264	15	6	-24	-15408	-4224	1176	19	8	4	3336	-3672	16032	17	8	-14	-4856	5864	14000	-20	11	-34	-14240	9160	-408	24	-7	23	248	3864	16728	4	-21	8	121	133	12
-7196	-4948	13908	23	6	-23	-15608	-4296	1088	29	8	0	3128	-3568	16216	11	0	-19	-5064	6008	14232	-21	16	-37	-14256	9112	-624	29	-2	13	128	4072	16648	6	-23	3	120	138	12
-7244	-5016	13908	13	-3	-27	-15464	-4080	920	17	11	-6	3224	-3528	16208	5	-1	-15	-5264	5760	13952	0	27	-37	-14160	9040	-952	31	-8	8	352	3744	16688	-6	-27	2	120	138	12
-7328	-4524	14224	9	-11	-27	-15464	-3920	952	20	10	-8	3240	-3512	15912	14	6	-8	-5000	5920	13784	-11	31	-41	-13832	9048	-608	29	-1	13	488	3648	16040	0	-21	4	121	141	12
-7520	-4888	14096	7	-10	-31	-15664	-4072	720	8	4	-9	3120	-3488	16320	15	4	4	-4776	6200	13560	-2	23	-33	-13784	8864	-672	10	7	9	456	3480	16480	4	-17	5	121	137	12
-7400	-4828	14040	-7	2	-31	-15344	-4168	928	-6	4	-7	3312	-3568	16136	23	4	14	-5264	5824	13864	-24	13	-35	-14352	8968	-624	-7	12	17	96	3704	16488	14	-14	17	121	135	12
-7520	-5232	13896	-1	-2	-30	-15432	-4248	648	-8	9	-10	3048	-3544	16224	22	4	13	-5080	5424	13960	-24	19	-42	-14304	9056	-800	-18	10	17	304	3688	16736	8	-19	18	121	135	12
-7460	-5220	13848	0	0	-26	-15384	-4400	896	5	7	-13	3256	-3736	16104	20	3	11	-5216	5832	13936	-17	16	-35	-14232	8856	-712	34	-1	6	104	3696	16656	-4	-20	10	120	137	12
-7632	-4944	13816	11	5	-22	-15368	-4344	776	19	12	-16	3144	-3896	15856	16	6	4	-5224	6200	14128	-17	14	-34	-14264	9016	-848	44	2	11	224	3520	16672	-14	-12	3	121	137	12
-7416	-4784	13908	13	2	-23	-15648	-4328	1016	9	17	-13	3112	-3864	16264	13	7	-1	-5448	6192	13960	-16	24	-41	-14216	9128	-848	23	1	13	-24	3712	16504	-9	-7	-1	121	136	12
-7748	-4796	14252	18	4	-16	-16160	-4304	744	22	17	-4	3080	-3856	16488	12	10	-11	-5232	6032	14336	-16	22	-36	-14472	8952	-728	17	6	19	-88	3600	16680	0	-11	0	121	135	12
-7452	-4836	14424	23	-3	-22	-15880	-4304	904	-5	15	3	3136	-3816	16312	14	14	-14	-5048	6200	14088	-7	30	-38	-14232	9176	-728	17	2	15	-48	3616	16280	8	-7	9	122	136	12
-7708	-4740	14140	17	-1	-26	-15600	-4080	760	11	14	4	3024	-3672	16304	24	14	-7	-5032	5752	13720	-2	25	-34	-13952	8968	-984	4	1	21	88	3552	16152	17	-5	9	122	134	12
-7452	-4720	13916	17	4	-25	-15336	-4080	752	-12	8	6	3224	-3632	16040	20	22	1	-5344	6048	13744	-1	18	-33	-13920	8936	-1040	34	-3	23	96	3640	16248	17	-1	11	122	137	12
-7532	-4928	13924	16	-3	-23	-15584	-4312	992	12	7	-1	2880	-3624	16256	20	17	-4	-5408	5744	13792	-12	19	-39	-14248	8872	-1168	21	1	28	-168	3696	16248	12	-4	5	121	136	12
-7720	-5352	14180	25	-8	-18	-15760	-4328	488	22	16	0	2600	-3536	16048	19	9	-12	-5040	5856	13808	-10	19	-34	-14320	9080	-1040	10	-4	21	-152	3568	16528	1	-19	0	121	135	12
-7984	-4964	14332	21	-10	-22	-15928	-4112	512	30	8	-6	2784	-3568	16544	23	-1	-12	-5424	6008	13960	-15	8	-31	-14680	9160	-880	0	-2	22	-224	3784	16840	-11	-37	0	120	136	12
-7636	-4644	14452	22	-8	-22	-16056	-4088	648	9	-2	-15	2736	-3680	16600	21	-7	-6	-5448	5768	14048	-9	14	-33	-14600	8984	-784	26	-16	18	8	3528	16792	-7	-37	-3	120	138	12
-7748	-4996	14088	10	-6	-30	-15840	-4192	616	-2	-12	-10	2984	-3688	16528	23	-8	6	-5624	5696	14072	-1	15	-28	-14256	9064	-976	26	-12	20	40	3680	16688	-4	-27	2	121	138	12
-7700	-4904	14024	6	-13	-26	-15536	-4312	456	-19	-12	-15	2984	-3960	16320	25	-4	15	-5152	6544	14104	0	12	-19	-14160	9096	-808	21	-3	10	72	3584	16584	11	-21	17	122	137	12
-7872	-4584	14108	6	-10	-23	-15600	-4368	680	-4	-11	-15	2928	-3960	16528	26	-10	13	-5584	6432	14136	-17	12	-29	-14248	9056	-952	31	-12	14	8	3584	16584	16	-21	24	121	135	12
-7612	-5016	14048	6	-16	-31	-15896	-4400	488	11	-8	-13	2920	-3920	16392	20	-11	6	-5312	5696	14104	-16	12	-31	-14376	8880	-792	1	-1	14	-32	3536	16544	11	-20	31	121	136	12
-7780	-4776	13996	17	-18	-23	-15544	-4392	704	3	-10	-6	2800	-3856	16352	24	-8	2	-5352	5768	13976	-18	20	-32	-14168	8912	-960	0	-10	15	-16	3352	16544	7	-21	24	121	137	12
-7888	-5184	13976	12	-24	-30	-15584	-4456	560	21	-4	-6	3000	-3696	16120	25	-4	-1	-5088	5760	13896	-7	9	-27	-14344	8664	-1288	7	-9	17	-40	3320	16328	10	-19	17	121	134	12
-7784	-4728	13920	2	-20	-31	-15280	-4304	624	0	-6	-2	3040	-3792	16072	21	-3	-10	-5432	5680	13712	4	8	-30	-14128	8752	-928	26	-18	21	-48	3240	16384	4	-21	9	122	133	12
-7636	-4572	13892	15	-15	-24	-15352	-4208	616	7	-9	-1	3064	-3816	16064	19	5	-14	-5368	5832	13792	2	12	-29	-13784	8840	-984	24	-13	25	56	3304	16048	9	-21	5	122	136	12
-7568	-4844	13844	19	-14	-21	-15560	-4160	624	12	-9	4	3032	-3672	15952	27	6	-13	-5248	6056	13512	-3	13	-24	-13848	8912	-1040	22	-13	27	-136	3424	16176	21	-17	4	121	139	12
-7828	-5036	13836	22	-12	-23	-15360	-4120	416	16	-7	7	2976	-3696	15992	29	5	-10	-5264	6048	13848	1	5	-20	-14152	9040	-904	12	-12	31	-56	3496	16368	21	-21	4	121	135	12
-7720	-4428	14000	21	-12	-24	-15560	-3968	832	11	-7	8	2992	-3632	16320	35	3	-8	-5520	5744	13784	-10	8	-32	-14240	8928	-1080	6	-17	41	-40	3624	16304	18	-25	-1	121	135	12
-7724	-4648	13760	23	-16	-21	-15480	-4160	640	18	-2	6	3144	-3560	16240	33	-1	-11	-5360	5360	13960	4	13	-27	-14136	8984	-904	37	-20	28	120	3680	16216	15	-25	-2	121	136	12
-7548	-4740	13800	18	-7	-20	-15208	-4120	768	9	9	10	3208	-3480	15888	31	3	-8	-5088	6080	13784	17	13	-25	-13992	8912	-672	48	-18	31	184	3640	16432	7	-20	-6	121	137	12
-7392	-4820	13940	21	-10	-21	-15336	-4160	728	21	4	5	3040	-3512	16216	26	12	-7	-5072	6224	13720	8	15	-29	-14016	9216	-832	22	-18	34	96	3848	16024	14	-4	-5	121	136	12
-7364	-4928	13728	16	-2	-24	-15352	-3960	600	12	2	5	3088	-3440	16184	20	17	-7	-5016	5936	14016	1	18	-27	-13936	9008	-432	18	-11	25	272	3808	16248	17	-8	4	121	135	12
-7424	-4748	13944	22	-12	-16	-15472	-4168	1024	-8	-5	-2	3184	-3688	16208	17	12	-8	-4944	6296	13760	-2	18	-34	-13912	9352	-672	14	-8	22	296	3776	16248	15	-12	10	120	137	12
-7368	-4732	14012	8	-14	-25	-15464	-4112	904	11	6	2	3072	-3568	16168	23	11	-8	-5088	6136	13696	-9	23	-32	-14040	8952	-800	7	-3	19	144	3928	16208	11	-14	11	120	140	12
-7588	-4504	13904	15	-2	-19	-15408	-4064	664	13	1	-3	3168	-3576	16032	25	6	-4	-5264	5920	13784	-23	10	-31	-13968	9080	-568	33	-4	17	288	3920	16584	5	-17	13	121	133	12
-7416	-5244	14024	9	-4	-24	-15584	-4088	752	7	6	-7	3048	-3552	16280	19	-1	-1	-5048	5912	14080	-16	7	-31	-14320	8936	-416	27	-2	11	176	3784	16608	-3	-19	11	120	137	12
-7316	-5076	14108	10	-8	-23	-15800	-4104	1056	3	-7	-8	3168	-3616	16272	23	-2	0	-4944	5520	13792	-16	24	-41	-14208	8944	-848	-10	-1	15	56	3752	16448	2	-21	14	120	137	12
-7632	-5040	14256	15	-15	-25	-15384	-4080	824	6	1	-12	3224	-3504	16200	23	-1	6	-4968	6136	13976	-17	11	-34	-14224	9048	-520	21	-6	7	248	3528	16352	6	-19	15	120	132	12
-7460	-4832	14404	3	-15	-34	-15624	-4464	1136	-12	-9	-15	3264	-3688	16368	20	-7	10	-5256	5904	14256	-15	11	-28	-14440	9056	-824	-4	-3	9	128	3616	16920	5	-16	20	120	136	12
-7612	-5128	14072	3	-15	-30	-15984	-4528	928	8	-14	-27	2984	-3816	16600	17	-10	2	-5352	5520	14520	-28	12	-38	-14728	8992	-912	-31	-3	10	-24	3640	16856	2	-32	18	120	139	12
-7580	-4736	14344	-3	-18	-32	-15664	-4456	936	-7	-11	-14	3240	-4024	16496	17	-19	2	-5344	5848	14376	-13	15	-35	-14720	8896	-816	15	-11	8	288	3624	16824	-5	-41	16	120	137	12
-7780	-5072	14592	0	-14	-35	-15712	-4576	896	8	-6	-13	3416	-3832	16440	19	-14	2	-5208	5832	14032	-14	9	-33	-14560	9072	-816	20	-19	12	304	3736	16824	-11	-30	11	121	138	12
-7596	-5200	14208	8	-10	-26	-15744	-4400	928	11	2	-15	3440	-3864	16792	17	-6	0	-5048	5976	14040	-7	5	-28	-14392	9072	-760	35	-17	22	448	3616	16688	0	-20	2	121	140	12
-7364	-4840	14344	8	-4	-36	-15808	-4184	952	8	-8	-7	3488	-4008	16248	19	6	-2	-4944	5800	14160	-4	13	-31	-14240	9088	-440	31	-20	20	320	3672	16616	14	-10	4	121	136	12
-7484	-4884	14448	10	-12	-26	-15680	-4488	1064	-8	-6	-3	3504	-3784	16384	21	13	-8	-5024	5872	13976	-4	13	-27	-14264	9200	-656	-1	-15	19	304	3808	16480	21	-4	7	121	135	12
-7364	-4860	14084	19	-8	-29	-15360	-4224	864	13	1	7	3424	-3680	16032	12	20	-14	-5016	5880	13976	-7	10	-33	-13920	8928	-560	38	-16	21	408	3744	16208	20	-9	7	122	138	12
-7176	-4976	13916	16	-8	-25	-15288	-4328	1136	10	-5	2	3416	-3344	16192	9	22	-21	-4856	5992	13832	-10	15	-30	-14040	9080	-504	40	-18	17	496	3816	16120	9	-14	2	121	137	12
-7188	-4744	14060	17	-20	-25	-15600	-4160	1384	25	10	-5	3152	-3336	16096	4	16	-23	-4528	5952	13896	-5	17	-29	-14040	8968	-416	23	-19	17	368	3712	16336	9	-15	-3	121	138	12
-7308	-4696	14292	13	-18	-27	-15704	-4344	1200	25	4	-4	3336	-3456	16360	7	6	-24	-4672	6072	14040	-15	13	-29	-14152	9112	-416	14	-23	20	408	3840	16360	1	-22	1	120	137	12
-7160	-4748	14504	4	-19	-28	-15608	-3952	1144	16	-6	-10	3304	-3552	15976	17	-2	-18	-4608	5696	14040	-1	12	-31	-14176	8896	-136	13	-21	12	448	3872	16584	4	-26	3	120	135	12
-7228	-5012	14360	-2	-17	-35	-15496	-4032	1208	-9	-12	-11	3512	-3392	16048	19	-7	1	-4624	5768	14032	-5	8	-30	-14128	9056	-288	3	-25	12	936	3648	16088	4	-28	10	120	136	12
-7064	-5120	14264	-5	-19	-31	-15448	-4176	1504	-7	-15	-22	3728	-3416	15864	20	-5	13	-4720	5888	14224	-16	1	-29	-14176	9072	-248	10	-8	6	840	3768	16528	6	-26	15	119	136	12
-6960	-5272	14240	-9	-13	-40	-15528	-4464	1176	-6	-13	-30	3488	-3384	16416	12	-13	16	-4680	6184	14392	-35	-10	-26	-14624	9128	-32	7	-5	6	536	3912	16840	-2	-32	14	119	138	12
-6992	-5220	14424	1	-21	-37	-15856	-4744	1504	3	-17	-45	3592	-3880	16272	12	-19	12	-4664	5592	14504	-35	6	-30	-14704	9088	-288	-3	-7	1	640	3928	16680	-13	-40	18	120	136	12
-7004	-5432	14356	-6	-19	-43	-15624	-4688	1408	6	-14	-32	3848	-3768	16320	10	-16	6	-4616	6176	14232	-17	8	-30	-14352	8880	-472	12	-17	-7	808	3816	16376	-19	-42	16	120	134	12
-6868	-4836	14512	-9	-17	-41	-15392	-4360	1432	-8	-6	-26	4016	-3944	16048	9	-8	9	-4304	6032	13968	-11	6	-29	-13984	8840	-144	33	-19	-10	1160	3568	16352	-9	-24	21	122	137	12
-6872	-5248	14108	7	-18	-32	-15016	-4600	1488	-7	-18	-27	4000	-3920	16032	11	4	-2	-4384	6392	13984	-25	4	-25	-13872	8976	-184	12	-11	-1	752	3560	16336	2	-7	20	123	137	12
-6860	-4756	14396	11	-23	-32	-15408	-4680	1544	6	-7	-18	3944	-4136	15808	8	9	-10	-4512	5912	14080	-30	-1	-30	-14256	9104	200	11	-3	4	792	3496	16592	14	-10	25	123	133	12
-7112	-5372	14288	20	-19	-26	-15664	-4712	1432	26	-11	-19	3552	-4016	16216	13	7	-15	-4624	5968	14400	-26	2	-34	-14648	8760	-112	-36	0	13	512	3632	16608	13	-30	25	122	135	12
-7052	-5284	14456	20	-21	-27	-15624	-4312	1360	27	-7	-8	3752	-3928	16336	22	-3	-17	-4424	6104	14528	-11	-1	-24	-14648	8720	-200	28	-18	18	712	3504	16720	3	-43	15	121	135	12
-6840	-4920	14492	17	-22	-25	-15624	-4416	1408	2	-16	-1	4016	-3776	16336	27	-9	-16	-4472	6312	14376	-3	5	-21	-14320	8848	-248	45	-37	26	872	3536	16688	-3	-38	-3	121	137	12
-6900	-4700	14408	18	-17	-24	-15680	-4448	1824	8	-15	-1	3960	-3640	16008	27	-9	-10	-4160	5808	14432	3	4	-25	-14320	8784	104	40	-36	27	1056	3424	16360	3	-28	-15	121	136	12
-6808	-5440	14564	11	-21	-30	-15440	-4488	1528	1	-6	3	4072	-3664	16264	28	-3	-2	-4088	6328	14304	16	9	-26	-14408	9072	64	19	-29	30	1112	3776	16576	17	-18	-12	122	135	12
-6860	-5056	14548	18	-13	-20	-15400	-4376	1568	28	-2	-7	4048	-3880	16336	22	4	-1	-4224	5712	14256	3	12	-25	-14320	9104	64	5	-16	34	1048	4016	16456	26	-14	3	121	135	12
-6780	-5216	14392	14	-11	-25	-15480	-4472	1760	23	-1	-7	4088	-3920	15936	28	7	-4	-4384	6240	14384	-6	18	-25	-14328	8976	296	10	-9	21	1016	4112	16464	22	-18	5	120	136	12
-6888	-5120	14340	14	-11	-24	-15384	-4784	1552	-3	-6	-6	4168	-3840	16048	21	9	-4	-4448	5872	14104	-6	19	-30	-14256	8864	-40	25	-8	13	1168	4056	16392	8	-18	16	121	137	12
-6832	-5280	14460	14	-15	-23	-15408	-4616	1680	-2	1	4	4080	-3880	16152	20	7	-3	-4256	5776	14360	-14	10	-27	-14408	9072	0	26	-7	17	992	3936	16240	3	-12	13	122	137	12
-6768	-5016	14300	11	-6	-17	-15648	-4704	1664	20	1	-6	3816	-3872	16184	20	10	-6	-4296	5960	14272	-15	18	-31	-14296	8912	128	17	-1	15	960	3744	16560	6	-12	16	122	137	12
-6772	-5012	14456	14	-10	-15	-15368	-4616	1680	4	2	4	3960	-3752	16208	24	11	-4	-4288	5744	14176	-15	18	-41	-14248	8944	312	9	2	10	1024	3568	16480	10	-14	24	122	137	12
-6764	-5356	14288	17	-10	-24	-15296	-4376	1968	4	-5	-2	3888	-3672	15816	27	6	-1	-4352	5952	13752	-9	25	-37	-14280	8792	96	-4	3	16	1016	3280	16304	17	-11	31	121	135	12
-6688	-5000	14164	8	-6	-26	-15208	-4520	1512	-3	0	-2	3976	-3864	16016	28	0	10	-4384	6000	14176	-15	16	-35	-14352	8776	136	5	10	21	864	3512	16376	17	-13	28	122	139	12
-6948	-5612	14448	17	-18	-26	-15616	-4880	1544	-4	-2	-10	3672	-3904	16256	27	-11	7	-4128	5464	14240	-18	11	-33	-14616	8720	280	-10	2	19	616	3440	16400	15	-17	17	122	135	12
-7008	-5460	14420	7	-6	-27	-15536	-4704	1632	19	2	2	3792	-4008	16128	24	-10	3	-4728	5552	14400	-8	15	-34	-14472	8712	-344	5	-8	27	696	3416	16576	6	-28	5	122	136	12
-7028	-5100	14484	19	-11	-23	-15472	-4656	1616	13	0	2	3976	-3976	16272	26	-13	-3	-4400	6040	14296	2	14	-26	-14520	8856	-144	26	-17	29	728	3520	16496	10	-31	-7	122	136	12
-6748	-5280	14432	11	-9	-29	-15472	-4512	1296	12	1	2	3952	-3968	15952	22	-9	-5	-4328	6136	14184	15	6	-24	-14456	8952	0	39	-26	34	824	3744	16400	6	-27	-8	122	137	12
-7036	-5000	14324	28	-10	-21	-15400	-4456	1528	22	-2	9	3888	-3840	16096	25	4	-13	-4480	6056	14144	16	16	-26	-14032	9208	240	30	-27	44	864	3832	16352	19	-20	-10	122	136	12
-6800	-5248	14660	26	-18	-28	-15536	-4448	1664	15	1	19	3968	-3664	15840	29	14	-20	-4216	6080	14088	8	9	-18	-13992	9064	240	16	-23	38	856	3840	16080	30	-10	-4	122	136	12
-6704	-4792	14296	33	-11	-19	-15208	-4360	1608	16	-8	15	3824	-3576	16032	30	24	-24	-4464	6312	14024	10	4	-20	-13760	9088	128	18	-25	36	840	4176	16128	37	-17	2	121	135	12
-6564	-4740	14144	27	-17	-18	-15416	-4264	1896	14	-8	15	3952	-3400	16104	27	16	-20	-4152	6128	14080	3	-2	-16	-13848	9144	72	31	-23	39	936	4160	16392	36	-17	7	121	136	12
-6592	-4772	13976	23	-19	-23	-15488	-4232	1832	10	-11	15	3752	-3168	16040	28	7	-26	-4352	5776	13784	2	17	-25	-13920	8816	200	25	-28	28	1160	4232	16144	25	-23	2	120	137	12
-6972	-5044	14124	15	-14	-20	-15288	-4168	1792	17	-4	5	3776	-3232	16160	27	1	-25	-4512	6176	13912	-1	6	-27	-14136	9120	368	11	-21	24	1160	4080	16376	4	-31	1	120	136	12
-6804	-4760	14780	19	-27	-19	-15472	-4080	1600	26	2	-2	3784	-3304	16088	18	0	-18	-4128	6168	14480	-16	1	-35	-14416	9136	376	26	-22	25	960	4120	16728	-2	-23	-1	120	137	12
-7040	-5344	14832	14	-16	-26	-16040	-4168	1592	29	-6	-17	3800	-3384	16600	19	-13	-5	-4152	5880	14584	-20	6	-36	-14880	9288	288	-20	-9	13	912	4016	16848	-8	-34	4	119	137	12
-6688	-5336	14652	-6	-2	-35	-15616	-4184	1640	-4	-10	-26	4200	-3408	16264	21	-17	10	-4264	5608	14536	-9	8	-29	-14528	9016	408	6	-3	2	1312	4200	16696	-9	-40	14	119	137	12
-6540	-5356	14484	-4	-7	-30	-15544	-4552	1816	-42	-18	-30	4320	-3808	16168	19	-18	24	-4088	6016	14544	-25	8	-28	-14160	9032	320	27	-12	-2	1464	3904	16536	-4	-25	17	119	138	12
-6724	-5316	14096	-9	-3	-32	-15280	-4888	1912	-10	-14	-41	4336	-3896	16024	8	-15	26	-4296	6456	14784	-21	16	-31	-14128	9080	408	29	2	-7	1424	3888	16376	-4	-13	25	120	137	12
-6740	-5256	14560	-14	-12	-41	-15464	-4912	1872	-5	-2	-36	4112	-4088	16224	8	-3	21	-3864	6016	14640	-26	10	-37	-14392	9080	528	1	3	2	1040	3776	16664	0	-13	32	121	137	12
-6780	-5224	14828	-2	-19	-33	-15664	-4880	1856	14	-5	-27	4104	-4128	16256	12	3	6	-4088	5992	14120	-23	15	-37	-14344	8984	-160	-31	-5	-3	880	3672	16416	-3	-13	32	122	137	12
-6788	-5256	14544	6	-14	-28	-15192	-4728	1488	25	-4	-16	4136	-4040	15888	21	1	-1	-4304	6256	14280	-28	21	-35	-14112	8800	280	30	-4	3	1048	3504	16048	7	-22	32	122	137	12
-6588	-5172	14256	17	-13	-24	-15320	-4552	1688	-9	-14	-1	4064	-3896	15968	20	4	-13	-4200	6016	14168	0	9	-28	-13952	8896	536	24	-10	12	1000	3232	16232	11	-10	23	122	137	12
-6656	-5136	14592	20	-27	-22	-15752	-4640	1696	16	-8	3	3704	-4040	16040	29	-2	-19	-4352	6232	14216	-14	8	-28	-14360	8824	-72	-23	-5	35	584	3248	16240	25	-19	13	122	133	12
-6976	-4908	14556	22	-25	-21	-15448	-4520	1792	24	-7	14	3864	-3792	16120	30	-8	-23	-4608	5720	14256	-7	7	-31	-14632	8832	-248	-4	-14	36	880	3480	16664	26	-43	6	121	135	12
-7096	-5136	14560	23	-18	-20	-15448	-4528	1408	10	-12	14	3912	-3680	16320	35	-18	-18	-4664	5704	14512	3	10	-30	-14712	8920	-224	9	-22	46	792	3576	16424	20	-48	-9	121	136	12
-6792	-4932	14048	9	-9	-25	-15640	-4328	1512	30	-6	7	3920	-3416	16016	28	-18	-11	-5120	5544	14352	15	33	-29	-14256	8632	-256	46	-22	40	1040	3688	16592	7	-48	-20	120	138	12
-7400	-5308	14184	10	-11	-25	-15280	-4520	992	19	6	5	3816	-3488	16312	21	-19	-1	-4768	5816	14024	9	16	-22	-14064	9264	-176	41	-8	38	872	3968	16632	3	-34	-18	120	137	12
-7192	-5144	14204	15	-7	-15	-15680	-4376	1480	24	14	4	3648	-3816	16208	20	-15	4	-5304	5816	14080	-2	24	-35	-14392	9312	-472	6	4	43	616	3864	16888	6	-30	-7	121	135	12
-7944	-5296	13968	21	5	-16	-15824	-4480	608	36	22	-6	3360	-3880	16416	19	-17	6	-5184	5736	13832	-15	29	-41	-14352	9352	-920	-36	24	28	464	4168	16656	7	-26	7	121	135	12
-7560	-4872	13876	6	9	-19	-15568	-4224	608	10	31	4	3328	-3680	15904	19	-6	11	-5312	6312	13872	-8	32	-37	-14024	8960	-896	17	29	12	208	3840	16616	0	-19	22	122	136	12
-7556	-4320	13776	18	10	-11	-15344	-4312	712	-15	22	4	3160	-3744	15936	18	8	18	-5464	6056	13472	-15	43	-45	-13624	8960	-912	33	33	9	8	3624	16392	-4	6	23	122	139	12
-7836	-4628	13708	21	15	-13	-15304	-4264	488	1	34	5	2720	-3800	15912	22	23	9	-5648	6256	13568	-23	38	-44	-13680	9056	-1464	41	34	10	-40	3624	16168	-2	7	25	122	135	12
-8160	-4808	13756	24	13	-10	-15288	-4248	184	-2	36	6	2400	-3672	16472	24	28	2	-5752	5672	13792	-38	31	-49	-14248	9176	-1384	-4	41	17	-856	3632	16736	-4	21	29	122	138	12
-7936	-4736	13972	28	11	-14	-15840	-4192	-40	29	34	7	2152	-3624	16432	21	24	-9	-5680	5240	13944	-26	27	-51	-14584	8936	-1496	4	33	7	-1168	3400	16656	-4	3	29	122	138	12
-7812	-5152	14132	22	7	-21	-15776	-4064	232	-4	17	2	2384	-3664	16352	27	22	-3	-5456	5624	14040	-14	30	-46	-14432	8688	-1592	29	9	9	-912	3208	16464	-6	-7	19	120	136	12
-7776	-4424	13980	21	10	-24	-15480	-3992	424	-5	7	-5	2656	-3512	16376	30	20	3	-5544	6040	13848	-8	28	-39	-14056	8744	-1368	53	-15	15	-480	3168	16488	1	-4	3	120	139	12
-7804	-4848	14112	6	4	-29	-15768	-4208	424	-1	1	-6	2584	-3664	16504	24	20	2	-5608	5600	13544	3	17	-35	-14200	8736	-1144	40	-12	24	-448	3128	16768	-1	-3	0	120	137	12
-8008	-4596	14008	18	7	-21	-15656	-4336	288	12	0	-12	2736	-3800	16368	18	25	-6	-5800	5960	14280	13	12	-30	-14264	9064	-1160	37	-16	30	-480	3248	16384	2	0	-16	120	136	12
-7800	-4652	14208	19	-1	-26	-16032	-4168	488	11	8	-5	2904	-3800	16376	20	20	-10	-5168	5968	14112	6	19	-29	-14288	9120	-760	34	-20	37	-296	3488	16776	9	-10	-14	120	136	12
-7920	-5080	14216	14	-5	-35	-15904	-4384	760	3	3	0	3016	-3728	16568	30	11	-6	-5472	6192	13888	16	26	-30	-14328	9064	-1128	7	-16	33	8	3800	16600	11	-20	-11	120	136	12
-7980	-5128	13944	13	2	-28	-15568	-4120	776	1	1	-2	3064	-3864	16352	26	11	-5	-5344	5736	13832	5	20	-31	-14008	9056	-1160	32	-15	28	152	3912	16576	12	-20	-7	120	137	12
-7676	-5060	13688	17	-1	-23	-15416	-4296	608	12	6	2	2976	-3800	16080	17	8	-10	-5344	5976	14000	-4	18	-35	-14120	8920	-528	58	-14	22	264	3920	16656	7	-13	0	121	137	12
-7640	-4752	13792	14	3	-26	-15440	-4352	568	6	7	-1	2712	-3768	16224	17	3	-7	-5624	5928	14056	-18	19	-43	-14216	9200	-768	11	3	14	-88	3560	16576	-2	-18	11	121	137	12
-8104	-4996	14068	14	-8	-23	-15896	-4272	368	31	12	-12	2496	-3696	16416	11	-4	-12	-5536	5536	14336	-29	17	-44	-14584	9120	-1320	-25	18	12	-272	3664	16832	-5	-32	22	121	136	12
-8036	-4864	14184	22	-11	-21	-15984	-4168	192	10	10	-12	2672	-3864	16712	14	-11	-9	-5720	6104	14192	-28	22	-43	-14616	8936	-1264	-10	5	2	-368	3264	17024	-11	-36	23	121	136	12
-8216	-4928	14268	11	-14	-27	-15944	-4136	-8	2	4	-13	2672	-3952	16488	21	-11	11	-5352	5608	14272	-27	22	-40	-14392	8848	-1288	12	-3	4	-456	3096	16592	-6	-31	21	122	137	12
-7992	-5072	14392	-6	-17	-40	-15568	-4296	120	-18	-3	-13	2760	-3736	16656	34	-11	22	-5176	5832	13864	-4	7	-31	-14448	8936	-1224	27	-15	11	-496	2952	16680	3	-21	16	122	136	12
-7732	-4472	14012	1	1	-35	-15544	-4344	392	-3	-19	-24	2888	-3976	16432	30	8	21	-5656	5912	14016	0	5	-30	-13936	8856	-1368	9	-19	22	-352	3200	16240	20	-15	10	122	135	12
-7544	-4572	13716	11	-15	-33	-15296	-4224	600	5	-11	-5	2688	-3856	15792	27	8	16	-5552	6072	13600	9	13	-30	-13640	8736	-984	44	-25	21	-192	3320	16144	32	-10	6	122	135	12
-7960	-5224	13512	10	-16	-37	-15232	-4440	840	15	-3	2	3024	-3584	16096	16	19	-12	-5336	5960	13256	7	2	-28	-13928	8920	-1440	2	-24	32	-304	3344	16128	24	-17	0	122	135	12
-8048	-4548	13668	28	-13	-26	-15280	-4080	232	40	4	-1	2768	-3688	16272	15	12	-31	-5368	5640	13720	-5	-9	-29	-13952	8960	-960	26	-24	30	-344	3792	16368	19	-26	-11	122	136	12
-7488	-4724	13960	37	-18	-28	-15752	-4048	496	30	4	9	2864	-3672	16336	10	8	-40	-5312	6104	13696	-10	-3	-31	-13968	9152	-864	46	-40	33	-96	3816	16384	-1	-39	-17	121	138	12
-7824	-4976	13916	28	-16	-30	-15744	-4048	672	41	-4	6	2728	-3392	16256	20	-6	-41	-4816	5704	13672	3	1	-31	-13904	9048	-984	16	-37	32	-16	3712	16040	-1	-40	-21	120	138	12
-7300	-4384	13824	11	-6	-34	-15368	-3800	560	15	-8	11	2880	-3216	16032	19	1	-34	-5496	5648	13688	-3	1	-32	-13920	8888	-1112	48	-37	22	80	3768	16368	-1	-40	-12	121	138	12
-7556	-4796	13404	19	-15	-25	-15280	-3912	672	19	-5	-8	2944	-3016	16144	9	-2	-17	-5464	6104	13888	-10	11	-31	-13808	9152	-984	32	-23	13	304	3880	16504	1	-25	-11	120	138	12
-7764	-4908	13700	5	-18	-39	-15376	-4016	296	17	11	-24	2768	-3224	16312	2	-10	-4	-5056	6080	13704	-14	14	-37	-14128	9136	-872	-4	-8	10	64	3928	16360	-10	-26	-1	120	140	12
-7884	-4544	14024	2	-13	-34	-15544	-3792	392	15	6	-34	2816	-3312	16392	3	-14	0	-5304	5704	13832	-17	11	-43	-14136	9064	-816	1	-5	2	56	3920	16592	-12	-24	13	120	137	12
-7720	-5032	14016	-7	-2	-41	-15648	-3912	480	-8	0	-36	2928	-3760	16240	7	-8	23	-4960	5952	13856	-22	14	-37	-14104	9088	-640	9	2	-10	192	3872	16272	-14	-15	21	120	136	12
-7532	-4584	13808	-14	10	-36	-15304	-4192	424	-21	-3	-36	3152	-3808	16200	12	7	27	-5360	6272	13736	-23	16	-35	-13952	8912	-920	41	1	-11	224	3560	16336	-13	-12	24	120	135	12
-7420	-4672	13836	-8	-5	-39	-15304	-4560	648	-12	-1	-35	3216	-3864	15976	10	10	18	-5104	5912	13528	-28	22	-49	-13864	8840	-824	21	7	-6	40	3416	16136	-6	-4	28	120	137	12
-7896	-5396	13908	-6	-2	-34	-15536	-4640	848	13	8	-31	2992	-3848	16312	10	13	2	-5232	5688	13664	-34	10	-46	-14240	8936	-1192	-27	16	-7	-8	3144	16360	-6	-10	30	121	137	12
-7960	-5116	13788	-5	-9	-36	-15608	-4616	632	16	8	-23	2880	-3952	16272	4	9	-8	-5376	6152	13936	-29	11	-39	-14424	8728	-976	27	9	-5	-224	3064	16816	-4	-18	22	121	137	12
-7628	-4876	13996	11	8	-25	-15752	-4336	624	20	8	-14	3000	-4144	16352	14	6	-13	-5200	5368	14176	-21	16	-39	-14328	8664	-952	33	-6	6	-80	3032	16488	-7	-20	5	121	138	12
-7568	-4960	13944	11	-6	-29	-15368	-4336	696	-7	-3	-11	3016	-4136	15896	19	4	-11	-5400	5776	13944	-7	16	-34	-14360	8712	-992	36	-18	15	-32	2888	16624	-2	-20	-3	121	139	12
-7580	-4972	14160	15	-12	-34	-15424	-4744	408	1	-3	-4	2984	-4072	16384	23	2	-8	-5576	5744	14168	-7	14	-34	-14328	8896	-880	31	-17	26	64	2968	16816	5	-19	-4	120	136	12
-7600	-5532	14060	18	-18	-33	-15816	-4400	976	18	-10	-5	3056	-4176	16416	23	0	-7	-5328	5824	14256	2	8	-29	-14688	8744	-568	7	-21	31	48	3048	16832	17	-31	-2	121	135	12
-7844	-5516	14192	21	-10	-26	-15912	-4520	664	31	-5	-5	3144	-4088	16720	29	-12	-8	-5264	5864	14440	4	11	-27	-14728	8928	-1096	-1	-5	42	56	3160	17328	23	-38	-5	121	135	12
-7940	-5040	14168	19	-9	-20	-16056	-4472	704	27	-5	4	3136	-4040	16848	37	-20	-7	-5736	5648	14400	8	24	-37	-14680	8952	-1272	0	-15	43	56	3296	16936	16	-39	-6	121	134	12
-8300	-4952	14092	11	-14	-23	-15888	-4688	648	16	4	6	3224	-4080	16712	29	-13	-1	-5528	6048	14216	10	27	-29	-14584	8976	-1168	21	-4	40	240	3480	16992	12	-35	-10	121	135	12
-8112	-4572	14000	11	-5	-26	-15712	-4352	520	9	17	24	3136	-3800	16456	27	-6	1	-5616	5552	13776	15	29	-29	-14264	8944	-1072	52	-9	43	64	3552	16760	17	-26	-7	122	137	12
-7944	-5056	14020	22	2	-20	-15328	-4376	304	0	15	13	2936	-3984	16208	25	6	2	-6072	5624	13976	10	24	-41	-14080	9304	-1344	37	3	46	-216	3720	16688	24	-16	-8	123	137	12
-8140	-5492	13724	29	4	-21	-15752	-4552	0	39	22	14	2456	-3960	16896	27	9	-6	-5424	5624	14248	-5	13	-35	-14224	9128	-1264	6	12	39	-536	3928	16448	25	-6	5	124	138	12
-7580	-4908	14000	44	-6	-17	-15712	-4240	88	25	17	10	2416	-3976	16248	33	25	-12	-5528	6008	13968	2	18	-41	-14144	9080	-1280	21	-2	23	-776	3680	16560	19	-1	14	124	139	12
-8192	-4668	13948	27	-4	-21	-15448	-3960	-80	28	3	11	2256	-3632	16320	42	25	-17	-5728	5736	13720	-2	13	-35	-14184	8952	-1520	9	-7	26	-648	3448	16456	22	-2	13	123	138	12
-7728	-4932	13800	31	-8	-27	-15608	-3784	240	-4	-11	20	2568	-3320	15936	39	24	-18	-5024	6288	13688	14	5	-26	-13896	8824	-1072	65	-19	25	-464	3376	16120	28	-9	9	122	135	12
-8020	-4024	13748	32	-9	-28	-15496	-3808	512	3	-13	14	2536	-3344	16432	37	13	-21	-5840	6000	13552	-6	11	-32	-13824	9136	-1232	12	-29	40	-352	3568	16336	23	-15	0	122	133	12
-8052	-4500	13980	28	-19	-29	-15776	-3936	304	32	-3	8	2448	-3256	16240	27	11	-25	-5568	6016	13640	-6	5	-28	-14056	9056	-960	34	-22	31	-408	3688	16400	23	-28	-10	120	133	12
-8120	-4288	14024	20	-4	-30	-15648	-3728	784	13	-3	3	2712	-3224	16736	26	-2	-14	-5472	5152	13688	-2	0	-33	-14368	9336	-1256	-5	-19	36	-232	3752	16768	10	-34	-13	119	134	12
-8104	-4900	14056	18	-12	-33	-16000	-4048	320	24	0	-9	2712	-3200	16568	18	-6	-10	-5328	5712	13816	-1	8	-33	-14472	8984	-1472	4	-16	29	-424	4104	16528	-3	-40	-13	118	134	12
-7904	-4272	13896	3	2	-33	-15528	-3800	464	-4	1	-15	3000	-3408	16136	12	-15	1	-5840	5760	13544	2	22	-37	-13952	9144	-1144	50	-23	16	144	4008	16488	-16	-36	-13	118	137	12
-8204	-4872	13912	5	-4	-32	-15488	-4104	160	5	8	-24	3008	-3552	16200	9	-14	5	-5544	5888	13640	-6	9	-37	-13880	9344	-1016	48	-5	9	80	3968	16256	-13	-17	-6	119	136	12
-7676	-4596	13764	6	0	-26	-15688	-4184	456	13	7	-19	2456	-3752	16144	7	-3	7	-5680	6152	13584	-16	22	-38	-13736	9200	-856	32	-4	6	-456	3904	16144	-4	-11	11	120	138	12
-7920	-4556	13804	5	2	-29	-15392	-4176	72	7	12	-18	2520	-3768	16240	15	7	6	-5656	6064	13800	-35	17	-40	-14024	9432	-1288	-26	15	1	-512	3864	16568	1	-12	31	121	138	12
-8116	-5060	13920	11	-11	-32	-15672	-4176	136	0	3	-13	2368	-3888	16136	16	4	3	-5424	6288	13912	-31	7	-42	-14208	8952	-1552	-6	13	-2	-584	3552	16512	2	-17	38	121	138	12
-7824	-4428	13680	-1	-4	-28	-15856	-4072	120	6	-4	-14	2408	-3832	16256	24	5	-4	-5984	5472	14064	-38	7	-46	-14264	8840	-1512	14	-5	-4	-600	3336	16896	-4	-26	39	120	135	12
-8240	-4780	13908	4	-19	-31	-15784	-4200	312	1	-6	-16	2544	-3552	16632	17	1	-7	-5600	5600	13888	-33	10	-40	-14480	8920	-1592	15	-7	0	-496	3032	16880	-9	-23	21	119	136	12
-7980	-4772	13980	7	-14	-32	-15672	-4056	336	9	1	-16	2624	-3696	16120	12	1	-4	-5744	5976	13920	-5	18	-36	-14280	8752	-1368	40	-16	5	-376	3200	16536	-8	-25	6	120	136	12
-8056	-4524	13944	2	-2	-31	-15584	-3928	144	21	-2	-16	2736	-3736	16552	12	-2	1	-5928	5976	13704	-13	8	-29	-14256	9056	-1232	15	-12	17	-392	3168	16672	2	-20	-8	120	135	12
-8248	-4572	13924	7	0	-30	-16008	-4088	16	19	-1	-13	2720	-3688	16496	12	-9	3	-5968	5888	13848	-2	14	-30	-14216	9040	-1632	21	-5	20	-488	3272	16560	12	-24	-10	120	135	12
-7744	-4812	13856	3	-4	-31	-15632	-4136	344	-11	4	-14	2912	-3864	16240	16	-2	8	-5504	5816	13952	11	12	-32	-14120	8920	-1288	48	-19	21	-400	3280	16712	10	-23	-5	120	136	12
-8076	-4568	13804	0	-13	-32	-15544	-4336	472	0	-13	-14	2520	-4024	16128	29	-2	8	-5944	5536	13752	-11	11	-31	-14016	9008	-1184	5	-24	33	-552	3504	16424	4	-20	-4	120	137	12
-7848	-5184	13292	12	-2	-33	-15408	-4432	88	14	-6	-6	2504	-3936	15976	16	1	-7	-5688	5472	13336	6	17	-36	-13712	8552	-1560	41	-18	17	-440	3560	16216	10	-23	-2	121	138	12
-8080	-5120	13672	19	-18	-33	-15088	-4248	-8	21	7	1	2560	-3816	16192	24	9	-16	-5560	6168	13728	-13	2	-36	-13976	9208	-1344	26	-18	18	-408	3696	16728	1	-15	1	121	137	12
-7980	-5072	13872	25	-25	-33	-15688	-4304	264	33	-6	-6	2328	-3704	16616	19	9	-28	-5456	5536	13664	-21	7	-37	-14512	8928	-1328	-8	-17	17	-664	3416	16792	3	-20	9	122	136	12
-8108	-4700	13988	22	-9	-30	-15608	-4032	8	13	-4	-8	2744	-3712	16560	19	0	-26	-5928	5904	13904	-14	5	-33	-14464	9080	-1264	18	-5	4	-296	3456	16872	-4	-32	17	121	136	12
-8056	-5072	13992	10	-9	-33	-15896	-4048	224	19	-10	-8	2592	-3672	16624	13	-3	-15	-5728	5608	14112	-16	2	-32	-14600	8816	-1160	23	-14	8	-288	3264	16872	0	-34	10	121	135	12
-7564	-5036	13888	9	0	-31	-15928	-3952	296	-1	-8	-20	2936	-3856	16424	14	-7	-1	-5608	5712	14096	-12	2	-29	-14408	8872	-1088	48	-27	10	-160	3384	16832	-2	-30	1	122	134	12
-7832	-5176	13900	6	-1	-34	-15576	-4136	88	10	-10	-23	2752	-3752	16448	11	-7	8	-5896	5776	14176	-8	7	-29	-14384	9088	-1264	36	-13	15	-264	3400	16432	0	-27	-3	121	135	12
-7516	-4580	13904	8	-13	-34	-15720	-4160	456	1	-4	-18	2784	-3832	16192	13	-4	12	-5632	6280	13624	12	25	-29	-14056	8816	-1192	42	-17	15	-344	3440	16032	12	-28	-2	121	135	12
-7908	-4544	13924	9	-4	-31	-15480	-4048	528	18	2	-14	2680	-3792	16504	21	4	7	-5512	5888	13664	-7	15	-31	-13584	9144	-1424	-6	-14	26	-352	3640	16104	17	-18	5	122	135	12
-7744	-4964	13712	11	-17	-33	-15600	-4200	344	8	1	-5	2496	-3744	16048	24	4	-2	-5264	5736	13568	-7	8	-29	-13736	8912	-1248	12	-8	17	-448	3672	16080	22	-16	14	121	136	12
-7580	-4796	13712	22	-15	-30	-15272	-4360	384	-9	-7	-1	2656	-3712	16040	24	8	-10	-5392	6328	13760	-14	-4	-30	-13944	8984	-992	9	-21	18	-440	3584	16168	15	-14	18	122	137	12
-7668	-4836	13912	23	-22	-32	-15712	-4328	240	32	-13	-4	2600	-3776	16280	30	12	-23	-5680	5400	14112	-19	-10	-31	-14256	8992	-1144	4	-29	23	-440	3584	16560	11	-23	15	122	137	12
-7672	-4948	13732	23	-24	-23	-15688	-3984	616	20	-21	-3	2752	-3528	16328	19	2	-35	-5616	5752	14040	-12	1	-26	-14232	8832	-1280	26	-30	8	-16	3440	16672	1	-39	6	121	137	12
-8100	-4744	13724	14	-20	-31	-15528	-4088	624	19	-10	1	2904	-3512	16208	17	-6	-28	-5536	5648	13976	-5	6	-32	-14320	8856	-1144	15	-21	14	0	3432	16536	1	-43	2	120	137	12
-7800	-4788	13940	11	-20	-32	-15624	-3992	472	9	-10	-1	2984	-3440	16384	11	-16	-13	-5512	5608	13760	0	20	-31	-14112	8856	-1008	21	-25	21	304	3472	16472	3	-36	-6	121	137	12
-8096	-4628	13900	8	-5	-28	-15632	-3952	512	13	-2	-14	2912	-3664	16472	13	-16	4	-5696	5704	13816	-6	26	-30	-14000	9096	-1096	-4	-6	24	272	3440	16736	8	-39	-2	120	136	12
-7976	-4904	13964	-10	-9	-35	-15640	-4064	120	6	4	-10	2928	-3864	16544	9	-21	26	-5624	5792	13928	-8	27	-34	-14296	9032	-1256	0	12	17	-72	3592	16696	11	-30	11	120	132	12
-8004	-4940	13880	-1	-7	-29	-15576	-4088	240	-9	9	-22	2824	-3896	16280	23	-16	33	-5896	6032	13904	-9	26	-34	-14088	9128	-1168	5	7	13	-296	3536	16688	4	-22	17	121	135	12
-8028	-4948	13848	-10	3	-33	-15520	-4216	0	-6	5	-21	2696	-4040	15992	31	-14	35	-5600	5536	13944	-14	15	-32	-14112	8784	-1320	41	5	15	-432	3440	16456	9	-13	22	122	136	12
-7752	-5032	13616	-5	2	-30	-15416	-4432	408	-12	-10	-13	2560	-4064	16096	35	6	22	-5848	5776	13936	-12	20	-37	-14224	8904	-1480	23	-1	10	-608	3192	16352	14	-2	27	122	136	12
-8060	-5064	13792	17	-15	-27	-15360	-4512	80	14	0	-8	2584	-3976	16360	31	10	6	-5544	5800	13928	-16	10	-36	-14048	9016	-1568	3	-5	20	-512	3376	16440	23	-3	29	123	135	12
-7760	-4520	13908	24	-11	-21	-15496	-4272	368	19	-7	6	2608	-4096	15960	28	16	-16	-5592	6128	13664	-3	7	-30	-14000	8888	-1160	22	-8	18	-520	3192	16464	30	-9	28	122	135	12
-8008	-4516	13900	34	-18	-21	-15672	-4272	440	16	-7	14	2816	-3752	16368	33	18	-35	-5608	5832	13840	-4	9	-29	-14120	8728	-1392	0	-18	29	-368	3264	16264	31	-7	18	121	135	12
-7784	-4792	13912	33	-19	-23	-15600	-4032	728	12	-8	24	2944	-3624	16384	26	15	-38	-5408	5528	13728	2	9	-29	-14184	8704	-1080	28	-28	38	-208	3352	16384	27	-17	-3	121	135	12
-7856	-4612	13764	31	-8	-19	-15416	-3864	544	22	1	22	2920	-3424	16296	25	15	-36	-5864	5928	13704	13	3	-23	-14192	9016	-1184	47	-29	40	-176	3536	16552	16	-28	-15	121	136	12
-7908	-4636	13964	37	-6	-16	-15920	-3816	776	24	-4	15	2768	-3376	16504	27	0	-25	-5472	5896	13752	5	6	-22	-14336	9136	-1104	28	-23	51	-80	3704	16784	13	-28	-25	120	136	12
-7796	-4512	13912	32	-8	-20	-15632	-3888	312	34	10	7	2608	-3432	16544	25	-6	-9	-5760	5952	14048	13	20	-22	-14200	9240	-1160	26	-23	39	-128	3848	16680	10	-33	-24	120	136	12
-7936	-5196	13984	18	-7	-30	-15784	-3864	336	13	7	-1	2808	-3432	16424	27	-7	-11	-5216	5832	14048	6	3	-23	-14408	9288	-1152	19	-12	31	-72	4000	16776	6	-28	-15	119	137	12
-7912	-4656	14024	13	-4	-25	-15896	-4056	776	-7	-7	-11	2680	-3624	16600	26	-8	9	-5536	5920	14064	-2	21	-34	-14352	9448	-912	13	-16	27	-88	4176	17016	-3	-18	-6	119	137	12
-8068	-4892	13964	1	1	-34	-15760	-4360	536	17	9	-18	2648	-3536	16472	17	-7	14	-5528	5640	14064	-16	11	-32	-14184	9352	-896	14	5	8	-160	4152	16808	-6	-18	10	120	135	12
-7600	-4988	14032	1	-9	-37	-15776	-4368	336	-12	-1	-22	2792	-3936	16280	14	2	12	-5328	6008	13648	-16	10	-36	-14104	9136	-952	26	-5	-5	-160	3960	16416	-5	-11	25	121	138	12
-7920	-4716	13776	8	-5	-25	-15448	-4232	512	-3	-9	-25	3048	-3592	15984	12	15	3	-5760	6008	13944	-27	13	-43	-13848	9360	-1048	6	2	-10	-200	3776	16288	-2	-9	37	120	137	12
-7840	-4960	14032	11	-10	-30	-15568	-4304	560	-5	-3	-15	2872	-3800	16320	7	17	-1	-5304	6128	13568	-27	19	-41	-13960	8960	-960	16	9	-15	-272	3448	16272	4	-1	39	121	136	12
-8092	-4616	14112	9	-9	-26	-15728	-4096	328	14	8	-18	2792	-3736	16560	8	16	-3	-5720	6224	13744	-41	16	-39	-14192	9056	-1568	-25	9	-1	-344	3272	16680	3	-8	37	121	136	12
-8096	-4704	14172	8	-14	-23	-15864	-4112	392	12	5	-16	2712	-3552	16544	12	4	-2	-5352	5504	14072	-39	2	-42	-14600	8776	-1400	8	13	-1	-576	3256	16672	0	-22	25	121	136	12
-7752	-4784	13920	10	-4	-26	-15864	-4088	464	-2	-4	-18	2560	-3784	16488	21	-1	4	-5776	5832	14336	-26	10	-33	-14560	8752	-1368	21	-3	3	-352	3232	16792	-7	-35	8	120	137	12
-7708	-4940	13960	-2	-5	-37	-15744	-4304	304	2	-3	-25	2640	-3592	16304	23	-10	11	-5536	5808	13872	-1	12	-28	-14616	8728	-1208	35	-21	10	-320	3264	16328	-15	-32	-5	119	137	12
-7660	-4776	13680	-2	-2	-29	-15480	-4008	752	-4	-8	-24	3032	-3752	16472	17	-7	12	-5648	5928	13736	3	16	-28	-14000	8856	-1016	36	-27	16	-120	3368	16544	-7	-23	-10	121	138	12
-7944	-4700	14080	1	-9	-30	-15520	-4472	456	9	-1	-19	2984	-4056	16616	18	-7	8	-5608	6608	14192	-4	2	-20	-14200	9408	-1008	20	-12	19	-272	3536	16760	3	-17	-2	121	137	12
-8156	-5052	14092	1	-20	-31	-16112	-4528	416	13	-8	-13	2832	-4104	16680	12	0	-3	-5440	5768	14032	-7	15	-28	-14368	9112	-1072	-4	-5	19	-320	3624	16784	12	-18	8	121	137	12
-7996	-5048	14000	12	-8	-22	-15560	-4248	40	12	-1	-5	2976	-4024	16384	18	11	-9	-5416	6064	13976	-13	8	-27	-14272	9160	-1136	19	-12	12	120	3760	16648	12	-22	18	121	136	12
-7516	-4936	14020	9	-12	-30	-15400	-4416	880	-8	-10	3	3288	-3792	15984	20	23	-12	-5024	5952	13720	-10	18	-31	-14016	8736	-880	32	-17	7	112	3744	16592	13	-23	16	121	136	12
-7792	-4444	13624	14	-4	-16	-15248	-4272	1008	-7	-5	-2	3152	-3504	16168	9	30	-11	-5376	5336	13704	-23	16	-36	-13800	8880	-1008	23	-10	10	48	3728	16096	10	5	19	122	136	12
-7512	-5088	13712	17	-15	-22	-15296	-4264	520	-2	6	-9	2792	-3480	15992	3	27	-17	-4992	6320	13576	-18	18	-31	-14056	8752	-632	22	-1	0	112	3576	16080	4	15	23	122	135	12
-7776	-4448	13752	9	-10	-21	-15464	-4016	496	21	12	-13	2784	-3616	16080	5	20	-10	-5400	5776	13896	-29	11	-35	-14152	8960	-1080	-7	8	7	-104	3520	16416	-4	3	17	121	135	12
-7540	-5116	13980	15	-12	-22	-15752	-4224	800	6	6	-23	2824	-3680	16072	9	9	-4	-5024	5872	13856	-19	16	-36	-14320	8888	-712	16	1	-3	-192	3520	16464	-11	-18	14	121	136	12
-7648	-4780	13972	9	-9	-29	-15448	-3912	952	4	1	-19	2768	-3664	16200	24	-6	3	-5288	5936	13776	-21	20	-39	-13960	8816	-800	8	-5	7	104	3400	16216	-14	-30	14	120	137	12
-7528	-4748	14136	5	-15	-30	-15552	-4096	480	-8	2	-14	2872	-3584	16032	28	-14	12	-5136	5864	13576	-11	13	-34	-14128	8640	-792	16	-3	12	120	3320	16400	-4	-25	13	121	136	12
-7608	-4800	13956	-1	-7	-28	-15504	-4264	616	-9	-5	-11	3008	-3832	16384	32	-16	19	-5168	6216	13664	-24	13	-32	-14264	9032	-912	1	4	18	80	3352	16264	3	-25	21	121	137	12
-7652	-5252	14164	1	-12	-31	-15632	-4576	552	0	-7	-18	3040	-3784	16120	23	-12	20	-4824	5800	13776	-10	9	-28	-14640	8824	-864	-8	4	12	-224	3504	16568	7	-29	22	122	137	12
-7832	-4824	13940	-3	-2	-30	-15680	-4328	560	9	-10	-18	2928	-3968	16264	26	-13	9	-5688	5728	13880	-14	16	-30	-14400	8896	-904	8	-11	14	-208	3576	16832	8	-37	19	122	137	12
-7504	-4936	13820	5	-3	-30	-15480	-4368	520	-4	-7	-10	3200	-3880	15936	17	-1	3	-5216	5712	14088	-2	13	-27	-14288	8680	-760	50	-12	6	216	3480	16536	10	-19	12	122	136	12
-7572	-5096	14016	12	-13	-26	-15632	-4616	864	-8	-8	-8	3160	-3928	16328	14	3	-5	-5264	5992	13976	-6	19	-30	-14304	8824	-728	11	-21	19	-16	3320	16456	4	-9	2	122	135	12
-7316	-4780	13984	14	-17	-27	-15344	-4560	784	19	-8	4	3096	-3984	16104	13	16	-12	-5080	5696	13800	6	18	-24	-14096	8648	-592	19	-14	21	280	3408	16256	17	-4	3	122	136	12
-7588	-4552	14040	11	-16	-23	-15240	-4328	1000	4	-1	4	3328	-3920	15960	18	17	-10	-5208	5776	13832	-8	10	-28	-14016	9120	-592	14	-14	30	192	3416	16176	21	-14	10	122	136	12
-7272	-5292	13948	25	-16	-22	-15408	-4320	1064	14	-6	2	3224	-3760	15904	21	11	-10	-4816	5664	13696	1	21	-30	-14232	8504	-496	17	-17	27	344	3536	16168	25	-8	10	122	136	12
-7460	-4872	13856	8	-11	-21	-15216	-4224	904	8	-2	12	3296	-3632	15840	34	12	-9	-5272	5688	13784	-10	8	-28	-14048	8896	-528	23	-14	28	272	3584	16456	21	-24	7	120	136	12
-7188	-5056	13904	20	-10	-20	-15552	-4416	936	4	-4	-3	3160	-3600	16096	27	2	-8	-4840	5616	13784	-8	12	-22	-14400	8752	-496	29	-11	27	248	3688	16200	11	-20	6	120	138	12
-7464	-4620	13944	16	-9	-19	-15424	-4256	1128	21	0	0	3144	-3600	16272	33	-7	0	-5456	5760	13896	-6	19	-28	-14160	9064	-856	12	-12	27	400	3664	16344	8	-30	4	121	137	12
-7376	-4436	14016	14	-15	-21	-15408	-4000	992	15	0	0	3424	-3528	15904	27	-5	5	-4968	5816	13736	1	19	-28	-13952	8776	-400	32	-8	24	608	3768	16384	9	-21	4	121	136	12
-7656	-5128	13960	11	-6	-22	-15376	-4200	880	-17	2	4	3272	-3520	16208	28	-5	6	-4896	6304	13952	-9	14	-28	-14040	9240	-600	11	-7	29	272	3696	16664	8	-19	9	120	136	12
-7256	-4792	14000	13	-1	-26	-15520	-4248	808	12	2	1	3304	-3632	16072	24	-5	9	-5120	6184	14000	-6	17	-34	-14008	9152	-792	12	2	27	264	3872	16584	16	-21	9	121	136	12
-7384	-5128	13996	13	-9	-24	-15488	-4344	1000	-8	2	0	3480	-3664	16472	31	-2	8	-4960	6024	14072	-17	17	-24	-14208	9248	-672	18	-3	28	312	3824	16608	10	-19	12	120	136	12
-7392	-4824	14196	16	-8	-17	-15368	-4288	800	5	-1	-4	3208	-3632	16560	28	5	3	-4776	5472	14176	-11	13	-28	-14176	9192	-672	9	-4	19	120	3728	16608	4	-15	8	120	138	12
-7504	-4904	14404	16	-13	-25	-15768	-4360	808	8	4	-8	3248	-3648	16280	28	6	3	-4768	5872	14080	-4	18	-21	-14344	9080	-416	27	-6	18	184	3808	16696	4	-7	9	120	137	12
-7340	-4572	14492	16	-7	-19	-15472	-4120	1080	3	-2	1	3392	-3880	16328	28	9	-2	-5152	5976	13768	-8	10	-29	-14216	9312	-696	20	-12	17	176	3760	16560	5	-15	9	121	137	12
-7460	-5136	14108	24	-12	-15	-15712	-4384	856	10	-6	-8	3504	-3728	16192	18	7	-3	-4680	5968	14240	-3	4	-20	-14192	9160	-592	35	-4	19	296	3712	16496	13	-11	13	120	135	12
-7176	-4784	14128	11	-6	-25	-15768	-4248	1168	2	-8	2	3096	-3640	16216	21	9	-10	-5024	6008	14336	-15	14	-30	-14408	9136	-704	-7	-7	18	200	3576	16904	12	-17	14	120	136	12
-7428	-5068	14300	14	-21	-27	-15728	-4488	896	6	-6	-6	3320	-3712	16440	23	4	-7	-4912	6232	14448	-11	10	-28	-14584	9040	-520	7	-11	16	392	3720	16712	10	-24	17	120	136	12
-7348	-4912	14412	10	-18	-30	-15864	-4544	944	3	-7	-11	3304	-3760	16504	20	-9	-2	-4840	5760	14016	-16	5	-27	-14728	8920	-392	11	-20	20	360	3568	16760	6	-30	13	120	139	12
-7556	-4960	14448	11	-11	-24	-15584	-4472	1056	3	-10	-14	3424	-3768	16440	24	-12	3	-4856	5976	14112	-10	7	-27	-14616	9128	-528	16	-16	21	448	3680	17024	-1	-36	11	120	139	12
-7372	-5284	14488	10	-13	-30	-15832	-4360	864	2	-11	-4	3584	-3760	16432	21	-18	7	-4992	5696	14584	-10	10	-28	-14736	9072	-432	14	-9	14	392	3720	16928	-1	-33	6	121	136	12
-7620	-5260	14324	4	-15	-23	-15744	-4520	1168	10	-9	-20	3440	-3792	16544	24	-18	8	-4784	5912	14000	-7	16	-25	-14520	9120	-608	-15	-9	13	392	3560	16568	5	-31	14	121	137	12
-7384	-4612	14472	1	-2	-27	-15512	-4352	792	3	-6	-9	3576	-3896	16224	23	-7	14	-5136	6088	14256	-5	18	-28	-14384	9048	-728	25	-12	13	520	3712	16792	11	-27	11	122	137	12
-7376	-5072	14100	1	-2	-25	-15648	-4448	984	-6	-10	-11	3512	-3872	16128	19	1	10	-5048	6184	14048	-4	14	-26	-14096	8952	-352	20	-8	18	384	3688	16568	15	-13	14	122	136	12
-7092	-4844	14256	6	-15	-24	-15400	-4520	1368	-18	-6	-2	3544	-3880	16184	21	6	3	-4704	5880	13680	-4	14	-19	-13904	9056	-584	17	-10	16	400	3808	16272	14	-10	19	122	137	12
-7280	-4896	13880	15	-8	-20	-15392	-4336	1448	18	-3	-2	3360	-3648	15960	19	12	-2	-5088	6048	13704	-10	15	-28	-13904	8952	-464	16	-2	18	400	3728	16400	14	-14	22	122	136	12
-7308	-4980	13984	15	-19	-19	-15464	-4440	992	14	3	7	3176	-3696	16168	19	6	-11	-4824	6432	14032	-22	9	-25	-14168	9024	-520	7	-2	20	256	3712	16448	17	-14	23	121	137	12
-7340	-4272	14332	18	-15	-16	-15472	-4056	1016	25	-2	4	3304	-3432	16008	25	0	-12	-5032	6168	13880	-24	14	-31	-14288	8920	-760	1	-8	22	80	3696	16368	6	-24	13	121	137	12
-7612	-4776	13996	14	-11	-21	-15688	-4008	1072	8	2	1	3264	-3408	16376	22	0	-7	-5016	5456	14136	-11	17	-29	-14280	8904	-704	7	-5	15	528	3640	16416	-1	-30	6	120	136	12
-7480	-4936	14020	6	-8	-28	-15464	-4008	904	-3	6	-2	3192	-3192	16384	24	-1	-1	-5096	5472	13952	-11	20	-26	-14288	8944	-728	27	-8	18	320	3808	16336	-6	-26	3	120	136	12
-7444	-5068	14020	12	-3	-22	-15352	-4128	848	4	9	-13	3160	-3560	16032	16	-1	9	-4720	6216	13672	-2	25	-29	-13920	8872	-568	36	-8	16	352	3784	16256	-8	-19	0	121	136	12
-7360	-4996	13868	-2	-2	-25	-15296	-4080	696	4	10	-16	3240	-3528	16104	10	-1	16	-4752	5800	13840	-4	28	-33	-13768	8992	-608	14	8	12	152	3832	16064	-6	-10	2	121	137	12
-7448	-4868	13844	-9	3	-31	-15152	-4144	664	-22	8	-17	3168	-3632	15936	8	8	18	-5184	5816	13848	-24	24	-39	-13792	9120	-672	2	10	3	112	3872	16160	1	-3	20	121	137	12
-7576	-4896	13764	2	-3	-30	-15304	-4400	552	3	6	-24	3016	-3688	16064	5	12	13	-5136	5872	13504	-23	20	-33	-13944	8912	-688	8	12	-7	24	3816	16224	-6	-12	28	121	137	12
-7508	-4636	13632	3	-4	-25	-15352	-4160	480	5	9	-18	2904	-3808	15720	12	8	10	-5192	5912	13920	-32	16	-43	-13824	8824	-800	21	10	0	40	3712	16264	-10	-13	31	121	137	12
-7476	-5100	13736	8	-8	-26	-15504	-4544	576	0	10	-16	2896	-3832	16016	19	12	1	-5088	6064	13936	-34	21	-40	-14248	8792	-888	11	8	-5	-8	3680	16248	-11	-15	32	121	136	12
-7748	-4640	14048	6	-5	-22	-15680	-4320	600	13	3	-15	2920	-3744	16432	21	5	-1	-5360	5584	14024	-41	18	-37	-14392	8968	-896	-1	10	6	-192	3304	16632	-12	-18	24	120	137	12
-7552	-5100	14040	3	-7	-28	-15696	-4208	624	2	-1	-10	3016	-3696	16400	25	-1	5	-5224	5448	14216	-19	12	-35	-14600	8760	-1000	14	5	7	-72	3256	16688	-7	-19	17	121	137	12
-7500	-4960	13880	7	2	-21	-15552	-4192	872	-10	2	-21	3144	-3848	16224	14	-5	13	-5520	5680	14128	-15	25	-28	-14424	8848	-848	25	-9	13	24	3192	16792	-2	-24	5	121	135	12
-7600	-5068	13988	7	-1	-22	-15656	-4344	752	1	7	-18	3200	-3800	16280	13	0	16	-5280	6184	14024	5	27	-24	-14232	8928	-768	44	-10	15	80	3376	16504	0	-14	-1	121	137	12
-7828	-4676	13868	-2	-1	-18	-15480	-4288	824	4	7	-12	3040	-3952	16328	14	-1	19	-5616	5816	14072	-6	27	-27	-13984	8960	-1192	13	-5	29	24	3392	16568	8	-11	-2	121	137	12
-7892	-5016	14024	11	-12	-23	-15712	-4608	864	-4	11	-10	3072	-3944	16384	14	3	15	-5504	5696	14008	-7	17	-29	-14224	9056	-856	20	2	27	48	3520	16720	8	-13	0	121	136	12
-7832	-4716	14048	1	1	-20	-15808	-4440	576	20	10	-13	2808	-4032	16512	17	7	6	-5744	5640	14136	-23	21	-33	-14600	9152	-1208	2	-3	33	-192	3704	16656	-1	-23	6	121	136	12
-7828	-4980	14112	-3	-6	-28	-15856	-4608	840	6	4	-9	2672	-3952	16376	24	7	4	-5208	5256	13752	-1	30	-36	-14400	8928	-1240	19	-6	19	-16	3600	16584	2	-20	11	121	137	12
-8068	-5028	13888	7	-2	-21	-15272	-4416	688	-4	8	-2	2984	-3840	16144	25	5	0	-5328	5568	13600	1	30	-33	-13920	8960	-856	33	4	16	80	3544	16472	7	-19	9	121	137	12
-7796	-5340	14004	3	-8	-31	-15352	-4440	536	3	13	8	2872	-3848	16096	20	12	0	-5376	5624	13672	-8	13	-27	-14104	8968	-872	27	4	21	-224	3504	16576	10	0	22	121	135	12
-7728	-4560	14120	24	-14	-13	-15688	-4312	744	6	-2	-4	2712	-3888	16504	24	14	-5	-5528	5744	14072	-27	18	-37	-14320	9240	-904	-12	2	27	-264	3360	16656	15	-6	26	122	135	12
-8048	-5320	14204	15	-16	-23	-15920	-4272	176	28	2	5	2680	-3784	16776	24	5	-5	-5432	5488	14000	-12	7	-26	-14640	8848	-1192	-8	17	11	-336	3552	16872	14	-23	30	122	133	12
-7616	-4776	14028	22	-2	-17	-15600	-4112	528	-12	-9	-4	2976	-3776	16200	31	-1	2	-5432	5872	14056	-18	13	-26	-14368	8880	-1128	28	-7	16	-304	3328	16776	6	-28	23	121	136	12
-7652	-5044	13968	15	-10	-24	-15496	-4232	536	-6	-12	-5	2992	-3696	16088	28	-4	7	-5376	6120	14064	-9	12	-27	-14296	8864	-1176	34	-10	17	-112	3280	16560	3	-22	10	121	137	12
-7932	-4564	13776	11	-6	-20	-15416	-4368	712	0	-5	-11	2728	-3608	16128	22	-5	5	-5832	5472	14032	-14	18	-27	-14248	8856	-1320	19	-11	20	-304	3472	16440	5	-22	2	121	135	12
-8032	-4932	14048	14	-19	-28	-15744	-4432	224	12	3	-11	2728	-3808	16456	17	-7	1	-5472	5960	14144	-4	4	-20	-14248	9232	-1088	16	-10	23	-336	3472	16584	6	-22	2	121	134	12
-7940	-4928	14128	16	-10	-26	-15864	-4184	512	22	-2	-3	2672	-3832	16296	16	-7	-1	-5832	5560	13880	-4	14	-27	-14360	9064	-1304	-18	-15	28	-392	3448	16576	9	-28	5	121	136	12
-8016	-4956	13944	17	-16	-25	-15688	-4288	120	11	-5	-6	2784	-3872	16328	19	-11	-6	-5288	6120	13648	-8	8	-22	-14088	8984	-968	16	-15	11	-272	3680	16152	9	-27	12	120	136	12
-7936	-4516	14032	13	-16	-23	-15304	-4224	368	-13	-13	0	2816	-3896	16360	20	-4	-6	-5368	6288	13760	0	12	-23	-13856	8912	-1016	41	-23	16	48	3488	16376	3	-19	5	120	139	12
-7704	-4308	13792	9	-8	-31	-15240	-4168	296	16	-4	-2	2728	-3664	16144	23	5	-12	-5624	5680	13624	-11	7	-27	-13768	8976	-1064	41	-23	23	-56	3520	16360	7	-16	7	121	138	12
-7700	-5024	13736	24	-26	-22	-15656	-4312	328	12	-12	-6	2656	-3680	16296	20	3	-9	-5352	6200	13800	-12	9	-20	-14184	9088	-912	10	-9	16	-152	3472	16232	11	-18	11	121	137	12
-7832	-4656	13796	21	-19	-19	-15416	-3992	400	25	-3	-1	2856	-3456	16024	26	4	-7	-5520	5808	13752	-10	17	-27	-14128	8832	-1344	-3	-2	20	-48	3448	16272	10	-16	13	121	137	12
-7908	-4844	13788	15	-9	-24	-15624	-3824	312	4	-5	-10	2760	-3664	16248	34	-5	6	-5584	5848	13808	-8	14	-26	-14336	8832	-952	4	-4	21	-160	3520	16208	8	-25	10	120	137	12
-7696	-4760	13696	5	-2	-21	-15496	-4144	368	-20	-6	-6	2944	-3792	16152	33	2	17	-5688	5792	13648	-10	20	-25	-14192	8768	-992	18	-1	22	72	3224	16560	6	-24	12	120	137	12
-7996	-4808	13828	3	-5	-25	-15400	-4336	368	-4	-7	-10	2872	-4016	16376	31	-8	22	-5600	5304	13816	-12	20	-28	-14160	8816	-1096	22	-3	19	8	3480	16064	6	-16	12	120	135	12
-7620	-5000	13896	9	-7	-22	-15568	-4424	344	2	4	-5	2848	-3912	16248	26	-6	16	-5448	5792	13624	-3	28	-27	-14128	8720	-1224	15	4	22	-288	3480	16392	14	-13	11	121	137	12
-8068	-4960	13720	9	-1	-18	-15368	-4424	256	24	8	-2	2856	-4016	16352	30	-4	11	-5728	5768	14176	-15	13	-27	-14280	9128	-1256	4	7	27	-360	3400	16760	12	-18	17	120	136	12
-7760	-5028	13668	16	-9	-19	-15648	-4504	480	-1	-1	0	2816	-3888	16296	26	-6	4	-5664	5736	14048	-3	27	-24	-14448	8784	-1320	14	-2	15	-392	3560	16280	15	-18	17	121	136	12
-7956	-4576	13644	12	-5	-14	-15480	-4400	384	12	4	-2	2752	-4080	16264	30	5	-5	-5704	5568	14160	-3	27	-34	-14056	8776	-1432	2	-2	23	-224	3480	16448	5	-14	17	121	137	12
-7916	-4836	14032	11	-21	-20	-15616	-4264	592	2	0	8	2680	-3888	16256	29	5	-3	-5424	6144	13984	8	18	-22	-14304	8920	-1400	24	-12	22	-248	3208	16400	18	-10	9	122	138	12
-7796	-4420	13868	20	-7	-12	-15672	-3992	664	-1	-2	6	2768	-3688	16160	33	10	-6	-5792	6264	13728	-5	27	-31	-14088	8880	-1016	-5	-13	40	-336	3336	16688	13	-11	7	122	137	12
-8148	-4924	14012	21	-18	-23	-15808	-4344	152	22	3	11	2960	-3672	16512	31	5	-2	-5376	5712	13936	-1	14	-23	-14408	8968	-1248	9	-3	30	-368	3504	16736	22	-10	11	122	136	12
-7796	-4644	13876	18	1	-17	-15608	-4000	616	-5	-7	5	2640	-3592	16216	33	7	-3	-5704	6064	13840	2	26	-26	-14184	9096	-1096	5	-15	36	-192	3560	16624	18	-19	4	122	136	12
-8088	-4812	14004	18	-9	-19	-15632	-3992	512	19	5	0	2832	-3520	16336	29	8	3	-5712	5768	14112	2	16	-28	-14216	9136	-1352	15	-7	32	-296	3736	16680	15	-23	-1	121	136	12
-7760	-4904	13792	23	-4	-18	-15648	-4104	528	5	-1	5	2768	-3472	16104	31	6	2	-5568	6224	13608	15	26	-23	-13832	9168	-1112	27	-14	34	-264	3872	16392	10	-10	0	121	140	12
-7844	-4708	13936	15	-3	-21	-15504	-3912	512	12	5	5	2880	-3488	16280	32	11	-5	-5512	5968	13512	3	24	-28	-14040	9264	-1016	6	-8	34	-208	3848	16304	11	-10	2	121	136	12
-7988	-4684	14032	19	-10	-18	-15632	-3960	416	5	3	7	2664	-3512	16224	30	9	-2	-5248	5960	14032	-5	16	-29	-14120	9344	-912	1	-4	32	-344	3952	16416	11	-6	7	121	136	12
-7912	-4852	13876	14	1	-17	-15600	-4072	360	7	-4	2	2608	-3488	16352	26	4	-4	-5888	5888	13920	-14	22	-34	-13976	9160	-1280	-5	-2	23	-216	4032	16544	5	-18	17	121	137	12
-8012	-4488	13828	13	-5	-22	-15632	-4216	360	6	5	-5	2600	-3304	16512	19	1	-5	-5416	5992	14168	-24	10	-33	-14152	9144	-1272	5	-1	4	-256	3928	16416	1	-23	20	120	137	12
-7768	-4508	13728	17	-9	-15	-15656	-3928	776	2	3	-13	2544	-3440	16368	10	2	0	-5544	6440	13864	-17	30	-36	-14032	9080	-1032	3	-10	8	-160	3768	16432	-11	-21	15	120	138	12
-8000	-4404	14084	2	-18	-27	-15632	-3872	272	7	11	-20	2632	-3368	16352	13	6	-1	-5640	5664	14032	-25	20	-36	-14224	8992	-1168	-5	-1	4	-408	3832	16664	-14	-20	15	120	140	12
-8032	-5128	14008	-2	-6	-31	-15680	-4072	480	10	2	-19	2632	-3640	16416	5	-6	8	-5232	5968	14080	-19	15	-33	-14344	9096	-1176	-10	2	-2	-368	3720	16528	-12	-22	18	120	137	12
-8124	-5032	13932	-8	-8	-31	-15816	-4144	208	-2	-2	-28	2584	-3784	16656	11	-19	11	-5608	6128	14104	-29	13	-41	-14448	9176	-1192	-26	5	-5	-448	3552	16872	-13	-40	22	120	137	12
-7792	-4696	14016	-12	-13	-39	-15928	-4232	72	-1	-8	-34	2712	-3800	16512	5	-16	12	-5592	5672	13904	-21	22	-38	-14520	8792	-1336	-5	-5	-7	-432	3384	16608	-7	-36	24	120	138	12
-8064	-5068	13992	-11	-9	-30	-15640	-4184	144	-9	-9	-34	2936	-4008	16560	3	-16	16	-5728	5928	14120	-32	19	-38	-14456	8880	-1288	9	-5	-5	-288	3352	16776	-13	-34	16	120	137	12
-7992	-5008	13776	-10	-7	-30	-15800	-4688	488	0	-6	-35	2888	-4240	16600	4	-10	15	-5664	6168	14120	-14	22	-26	-14552	8928	-1464	21	-6	2	-200	3408	16704	-12	-27	13	121	137	12
-8220	-4712	13896	-9	-10	-28	-15616	-4448	312	10	-1	-20	2928	-4248	16544	7	-4	9	-5904	5984	14032	-29	17	-32	-14304	9040	-1432	4	-2	6	-304	3072	16952	-1	-16	21	122	135	12
-8412	-4792	13844	2	-15	-26	-15944	-4544	208	17	3	-21	2816	-4168	16504	12	-6	9	-6000	5600	13936	-21	20	-39	-14328	9008	-1616	-10	3	8	-464	3256	16632	2	-19	23	122	135	12
-8388	-4796	13536	6	-5	-26	-15648	-4392	-56	12	9	-4	2592	-4152	16328	6	-8	-2	-6096	5880	13720	-16	22	-36	-14224	8776	-1672	7	6	14	-504	3120	16832	9	-25	21	122	135	12
-8188	-4636	13780	16	-15	-23	-15576	-4144	264	6	15	3	2376	-3976	16568	20	0	-2	-6184	5696	13584	-9	23	-38	-14040	8824	-1584	4	4	22	-768	3216	16312	7	-17	11	122	137	12
-8360	-4752	13352	18	-1	-19	-15400	-3992	-48	16	8	10	2184	-3720	16032	16	8	-10	-6000	6064	13440	-3	17	-26	-13896	8840	-1912	18	6	26	-824	3376	16328	12	-8	11	121	136	12
-8436	-4552	13456	21	-11	-19	-15568	-3960	-432	8	17	13	1968	-3640	16192	24	9	-7	-6224	6104	13416	-9	20	-32	-13896	8824	-1728	14	3	31	-1072	3224	16040	8	-7	6	122	135	12
-8564	-4604	13240	25	1	-18	-15480	-3904	-432	20	14	14	1760	-3680	16416	22	5	-10	-6336	5456	13488	-15	24	-35	-13888	8920	-1928	21	0	31	-1184	3400	16232	13	-13	6	122	135	12
-8516	-4408	13240	23	-4	-14	-15320	-3824	-592	5	14	10	1720	-3536	16440	22	7	-8	-6584	5160	13264	-20	29	-41	-13880	8920	-2312	-7	3	30	-1272	3448	16448	11	-18	5	121	135	12
-9204	-4752	13068	19	-3	-16	-15464	-3744	-952	21	18	-3	1448	-3432	16336	14	-5	-6	-6728	5504	13232	-21	29	-36	-14024	8944	-2608	-7	17	23	-1288	3424	16552	2	-21	6	120	135	12
-9140	-4384	13028	19	3	-14	-15616	-3624	-1104	15	28	0	1344	-3488	16392	6	-7	-2	-7000	5376	12976	-13	35	-39	-13776	9016	-2688	19	23	19	-1272	3360	16504	-2	-28	5	120	136	12
-9520	-4412	12980	11	13	-13	-15512	-3440	-1160	20	36	-10	1312	-3456	16568	3	-9	8	-7424	5080	13128	-29	35	-47	-13832	8944	-2872	-5	33	15	-1640	3504	16392	-27	-12	4	120	137	12
-9484	-4268	12776	16	16	-6	-15528	-3552	-1568	-5	36	-9	1000	-3664	16400	0	1	19	-7384	5608	12736	-20	52	-38	-13608	9072	-3064	16	48	7	-1824	3488	16392	-27	5	16	120	137	12
-9800	-4084	12648	7	26	-10	-15448	-3576	-1752	2	50	-6	864	-3664	16384	0	11	26	-7696	5624	12840	-30	60	-47	-13632	9024	-3088	21	48	8	-2256	3296	16376	-30	18	21	122	141	12
-9940	-4304	12696	9	19	-8	-15632	-3552	-2216	-1	56	-11	344	-3648	16584	5	12	35	-7968	5504	12656	-42	58	-50	-13648	9056	-3536	-10	70	-1	-2856	3120	16368	-31	29	40	121	137	12
-10252	-4136	12504	11	27	-4	-15624	-3400	-2536	-2	56	-12	32	-3744	16608	7	14	34	-8240	5088	12776	-45	60	-56	-13672	9016	-4136	-9	80	-3	-3192	2896	16368	-33	24	42	123	134	12
-10432	-4060	12608	13	18	-2	-15776	-3464	-2552	-2	55	-6	-376	-3832	16720	9	15	35	-8240	5280	12552	-43	61	-49	-13712	8976	-4344	3	80	-6	-3384	2776	16352	-32	19	49	123	137	12
-10384	-3888	12396	8	26	-5	-15544	-3424	-2752	-9	48	-6	-440	-3776	16376	16	20	33	-8600	5296	12368	-36	58	-48	-13456	8672	-4416	26	63	-6	-3608	2584	16256	-40	16	43	123	136	12
-10556	-3956	12636	13	15	-6	-15632	-3248	-2752	-8	40	-2	-544	-3840	16496	20	19	19	-8728	5232	12560	-37	44	-50	-13448	8800	-4616	11	50	6	-3872	2376	16360	-22	12	36	122	136	12
-10484	-4104	12452	13	2	-8	-15904	-3416	-3096	4	27	-6	-736	-3816	16688	16	20	11	-8424	5048	12768	-28	40	-48	-14000	8760	-4792	1	39	6	-4000	2264	16464	-10	4	28	121	137	12
-10556	-4328	12764	15	2	-14	-15808	-3520	-3112	-4	22	-4	-760	-3912	16904	19	21	9	-8560	5600	13072	-28	32	-44	-14136	8984	-4664	-1	14	13	-4056	2304	16472	-11	3	29	120	136	12
-10968	-4096	13008	13	-5	-17	-16128	-3528	-2832	12	8	-7	-704	-3920	17056	22	10	7	-8432	5008	12984	-7	30	-40	-14416	8800	-4776	-2	6	21	-3728	2280	16800	2	-10	13	120	136	12
-10692	-4224	12724	15	2	-18	-16000	-3584	-2960	-15	-8	0	-344	-4096	16952	25	13	5	-8512	5416	13112	5	23	-26	-14016	8840	-4448	43	-8	21	-3464	2336	16704	6	-12	2	120	138	12
-10948	-4280	12564	-1	1	-24	-15896	-3816	-2992	-1	-14	1	-344	-3960	17176	33	7	4	-8976	5240	13064	5	24	-24	-14040	8856	-4568	15	-10	30	-3344	2584	16704	6	-12	-3	119	137	12
-10736	-3916	12424	14	1	-21	-15920	-3656	-2912	-2	-6	-1	-248	-4144	16960	27	9	-1	-8792	5408	13064	6	20	-30	-13944	8872	-4520	29	-10	37	-3328	2720	16888	13	-15	-2	121	135	12
-10880	-4404	12676	23	-5	-16	-16168	-3840	-2504	8	4	1	-240	-4128	17456	33	5	-4	-8792	5720	13016	-4	19	-24	-14144	9360	-4320	12	-9	35	-3240	2776	17336	5	-17	3	121	135	12
-11092	-4336	12800	32	-10	-16	-16480	-3808	-2864	24	4	1	-440	-4056	17264	30	-1	-7	-8608	5200	13136	-5	12	-25	-14400	9200	-4352	6	-1	30	-3536	2880	16712	14	-22	9	122	134	12
-10776	-4180	12752	28	-6	-12	-15880	-3600	-2864	3	0	11	-312	-4168	17008	30	2	-6	-9176	5272	13360	7	17	-28	-14328	9264	-4392	25	-7	29	-3480	2712	16992	13	-23	8	122	137	12
-10980	-4328	12704	29	-10	-12	-16144	-3592	-3160	19	0	14	-424	-3784	17088	34	3	-6	-8696	5136	12808	6	20	-19	-13968	9136	-4392	22	-6	34	-3424	2864	16984	14	-18	12	123	136	12
-10660	-3752	12384	22	0	-16	-16176	-3120	-2792	9	-5	21	-304	-3616	16888	31	2	-7	-8936	5888	12952	16	22	-22	-13664	9112	-4808	35	-7	27	-3384	2728	16472	26	-20	13	123	134	12
-10888	-3704	12784	27	-21	-15	-15920	-3224	-2768	7	-5	18	-536	-3712	17408	37	2	-2	-8984	5592	12824	0	15	-32	-13944	9328	-4688	-10	-9	45	-3832	2768	16872	29	-14	14	123	136	12
-10948	-3964	12700	26	-21	-20	-16464	-3272	-2960	17	-2	16	-680	-3520	17296	38	-3	-4	-8624	5568	12752	2	6	-24	-13936	9080	-4464	8	-8	37	-3800	2824	16592	30	-25	12	122	135	12
-10852	-4292	12696	11	-15	-25	-15904	-3224	-2984	5	-8	11	-472	-3440	17064	43	0	1	-8912	5768	13136	0	1	-20	-14168	9384	-4648	11	-19	34	-3768	3120	17240	11	-30	11	121	135	12
-10920	-3956	12740	12	-20	-24	-16264	-3432	-2736	7	-13	-3	-528	-3352	17112	34	-3	0	-8664	5232	12760	5	10	-24	-13912	9272	-4568	16	-30	31	-3448	3240	16672	9	-27	2	120	134	12
-10424	-3780	12608	16	-13	-24	-15696	-2944	-2752	12	-5	-1	-120	-3280	16560	20	0	-4	-8816	5728	12888	11	6	-14	-13536	9256	-4024	66	-29	23	-3232	3000	16656	7	-28	0	121	136	12
-10932	-3868	12604	10	-19	-27	-15800	-3304	-2832	5	-9	-5	-368	-3536	16904	15	-2	-3	-8800	5792	12720	-7	9	-22	-13664	9656	-4064	0	-19	29	-3448	3456	16584	9	-15	3	121	138	12
-10916	-3844	12704	9	-15	-22	-16248	-3144	-2888	18	-4	-13	-416	-3424	17064	9	-7	-10	-8688	5400	12648	-7	11	-33	-13696	9424	-4576	-5	-8	13	-3488	3376	16424	6	-31	11	121	137	12
-10748	-3860	12572	8	-9	-23	-15880	-3200	-2976	9	5	-9	-272	-3440	17128	12	-3	-7	-8752	5504	13040	-18	9	-28	-13720	9328	-4208	21	-5	2	-3368	3384	16712	-1	-33	16	121	140	12
-11044	-3792	12468	2	-8	-23	-16208	-3184	-2984	7	1	-17	-552	-3360	17088	10	-10	-5	-9144	5416	12544	-24	22	-33	-13640	9312	-4592	-14	0	8	-3536	3344	16328	-13	-34	16	121	138	12
-10896	-3576	12264	-12	1	-25	-15744	-2960	-3296	13	20	-20	-472	-3208	16768	-3	-8	1	-8984	5360	12600	-29	14	-33	-13376	8952	-4672	60	7	-6	-3328	2936	16648	-16	-32	17	120	138	12
-10988	-3924	12508	-17	-8	-23	-15920	-3144	-3048	-5	14	-21	-888	-3520	17248	1	-8	13	-8864	5376	12528	-38	22	-42	-13904	9240	-4664	-3	10	-4	-3816	2920	16728	-24	-9	22	120	137	12
-11276	-3648	12160	-10	2	-19	-16144	-3072	-3288	14	18	-43	-1032	-3680	17008	-7	-10	15	-9000	5352	12472	-27	26	-39	-13664	8952	-5048	3	26	-15	-3872	2720	16176	-20	-26	24	120	138	12
-11128	-3796	12292	-24	-2	-32	-15672	-3152	-3432	-7	19	-23	-736	-3696	16904	-2	-7	26	-9144	5320	12632	-42	10	-34	-13816	8904	-4808	20	22	-11	-3872	2688	16712	-23	-15	32	120	137	12
-11516	-4184	12112	-7	4	-23	-15880	-3344	-3584	-11	3	-46	-776	-3896	16952	2	-5	25	-9240	5056	12432	-40	26	-39	-13624	8872	-5208	-13	14	-6	-3992	2528	16320	-29	-13	27	120	138	12
-11088	-3688	12088	-11	3	-27	-15640	-3448	-3656	-14	14	-37	-976	-4056	16912	-5	0	28	-9320	5400	12576	-35	15	-34	-13688	8712	-5064	44	21	-11	-4096	2384	16768	-28	-12	31	120	135	12
-11652	-4256	12300	-11	-5	-33	-16064	-3800	-3552	-10	5	-33	-1176	-4152	17224	3	4	20	-9504	5064	12888	-48	16	-38	-14184	9120	-5320	-9	15	-5	-4464	2248	17168	-29	-13	31	121	136	12
-11552	-4004	11996	7	3	-14	-16240	-3504	-3736	9	6	-38	-1192	-4192	17368	-4	-1	8	-9688	5040	12848	-29	20	-33	-14096	8608	-5704	15	16	-8	-4240	2248	16824	-24	-21	29	122	136	12
-11564	-3676	12328	-2	1	-27	-15976	-3592	-3744	-5	12	-19	-968	-4384	17240	8	0	13	-9560	5144	13064	-29	20	-32	-13976	8976	-5128	27	8	-5	-4144	2288	16912	-21	-18	25	122	136	12
-11796	-4080	11972	3	-2	-23	-16168	-3776	-3752	-7	11	-18	-1312	-4256	17000	10	-6	18	-9656	5240	12128	-10	36	-31	-13576	8744	-5704	-3	13	3	-4264	2104	16392	-14	-11	24	122	136	12
-11604	-3292	11960	3	8	-23	-15576	-3200	-3984	-6	16	-5	-1264	-4096	16600	7	5	17	-9728	5272	12488	-8	25	-32	-13568	8680	-5712	29	19	13	-4304	2280	16568	-3	-6	17	123	135	12
-11808	-3940	12100	13	-16	-18	-16112	-3576	-3528	-3	11	-4	-1544	-4128	17152	21	4	8	-9728	5288	12432	-23	23	-32	-13808	9080	-5712	-7	8	24	-4928	2280	16648	0	0	18	123	135	12
-11952	-3624	11848	26	-10	-12	-16040	-3320	-4400	20	12	-4	-1744	-4024	17248	19	5	-2	-9640	5120	12480	-9	24	-31	-13672	8832	-5944	13	14	22	-4712	2200	16456	5	-16	18	123	135	12
-11592	-3560	12120	20	-15	-15	-16080	-3200	-4208	18	13	-6	-1600	-3936	16912	27	13	-1	-9624	5232	12304	0	24	-24	-13584	8920	-5648	26	-5	24	-4592	2328	16040	11	-17	10	122	135	12
-11868	-3672	11764	26	-9	-17	-15792	-3232	-4024	9	4	14	-1776	-3736	16960	36	14	-5	-9856	5040	11968	-3	20	-27	-13544	8872	-5904	8	-4	36	-4696	2448	16368	16	-11	7	122	136	12
-11604	-3728	11804	33	-5	-19	-15560	-3096	-4208	7	9	13	-1528	-3696	17016	30	13	-7	-9520	5336	12352	5	9	-22	-13520	9080	-5648	53	-12	41	-4648	2328	16528	22	-8	6	122	135	12
-11624	-3712	12196	26	-19	-17	-16088	-3072	-4120	22	0	13	-1616	-3816	17232	30	11	-13	-9824	5104	12256	-5	17	-26	-13752	9112	-5616	6	-21	41	-4640	2504	16488	19	-11	3	121	134	12
-11628	-3148	11864	34	-14	-6	-15976	-2928	-4016	18	-3	7	-1664	-3704	16768	26	5	-11	-9752	5024	12128	5	23	-21	-13232	8960	-5768	31	-16	34	-4592	2632	16320	21	-22	3	122	137	12
-11852	-3588	12028	11	-14	-22	-15632	-3056	-4000	1	8	22	-1456	-3376	17264	33	2	-8	-9536	5448	12376	-6	10	-15	-13744	9312	-5616	22	-10	37	-4400	2680	16720	9	-17	2	122	136	12
-11732	-3596	11972	18	-17	-18	-16304	-2944	-4160	9	-2	1	-1720	-3408	17048	27	1	-1	-9744	4752	12120	-8	14	-26	-13872	8992	-5336	0	-8	31	-4576	2864	16480	8	-25	3	121	138	12
-11620	-3376	12064	17	-3	-15	-15616	-2896	-4256	1	6	-3	-1280	-3600	16952	23	3	1	-9456	5288	12608	-10	15	-23	-13568	9224	-5288	51	-10	20	-4160	2896	16880	5	-20	9	121	137	12
-11868	-4200	12248	10	-21	-21	-16104	-3240	-3728	2	-6	-7	-1720	-3664	17400	28	-4	11	-9504	5216	12536	-17	16	-32	-13824	9400	-5464	-2	1	21	-4504	2904	16816	-5	-13	14	120	137	12
-11564	-3552	12208	10	-11	-20	-16168	-3008	-4080	0	2	-25	-1296	-3632	17024	19	2	6	-9552	5120	12624	-6	14	-28	-13584	9128	-5184	30	-3	4	-4344	2760	16784	4	-20	19	120	137	12
-11436	-3556	12416	-2	-11	-26	-16000	-3152	-3656	-17	-7	-10	-1224	-3816	16968	19	7	18	-9192	4976	12848	-17	16	-31	-13848	9032	-5384	16	-7	9	-4232	2680	16736	-2	-5	27	120	137	12
-11276	-4088	12332	0	-21	-29	-16048	-3544	-3296	-25	-23	-24	-1216	-4040	17280	14	4	13	-8992	5256	12688	-18	6	-25	-13968	9008	-5008	11	-17	2	-4112	2584	16760	-1	-12	25	120	137	12
-10840	-3792	12736	8	-21	-32	-15784	-3480	-3208	-4	-18	-18	-624	-3984	17032	17	13	9	-8472	5864	13456	-5	-6	-14	-13936	9072	-4632	47	-21	1	-3632	2488	16704	11	-12	29	120	137	12
-10308	-4336	13212	-1	-29	-41	-16264	-3608	-2608	-15	-40	-19	-400	-4024	17072	33	17	1	-7640	5288	13360	-5	-22	-14	-13920	9088	-4600	48	-32	-1	-3528	2624	16880	20	-5	22	120	136	12
-9552	-4336	13292	2	-38	-42	-15976	-3664	-1984	-27	-68	-23	304	-4008	16608	33	27	-6	-7168	5664	13736	6	-29	-7	-14160	8888	-3560	34	-76	10	-2832	2688	16904	38	-9	20	121	135	12
-9228	-4768	13684	-13	-55	-62	-15816	-4200	-1184	-23	-93	-24	920	-3976	16824	48	15	-4	-6408	5744	13808	14	-50	1	-14480	9024	-2536	22	-108	14	-2288	2688	16848	48	-29	14	120	136	12
-8600	-4632	13892	-3	-63	-54	-16128	-4040	-632	-17	-112	-34	1432	-3968	16624	45	8	-22	-6008	5904	13960	31	-60	11	-14512	8824	-1992	29	-149	23	-1608	2792	16656	64	-56	0	119	138	12
-8316	-4756	14220	-8	-67	-59	-16096	-4224	96	0	-134	-24	2232	-3864	16584	47	-11	-35	-6048	5768	14440	24	-67	11	-14584	8976	-1456	13	-154	33	-552	3104	17008	76	-93	-11	119	136	12
-8184	-5240	14024	-12	-69	-63	-16072	-4576	488	-1	-132	-20	3008	-3840	16488	43	-36	-45	-5248	5496	14088	30	-64	21	-14672	8792	-1056	11	-152	31	288	3504	16464	81	-111	-16	118	137	12
-7764	-4792	13904	-5	-62	-58	-15584	-4272	904	-3	-118	-14	3928	-3776	16392	34	-36	-50	-5472	6032	14080	41	-50	17	-14248	8976	-480	32	-157	32	1128	3656	16768	66	-119	-31	119	136	12
-7896	-5064	14020	-4	-60	-56	-15632	-4592	1320	38	-89	-11	4168	-3760	16424	28	-39	-49	-5064	5824	13832	34	-49	20	-14056	9016	-448	31	-125	39	1568	4136	16336	61	-99	-37	120	139	12
-7260	-4936	13964	-3	-53	-45	-15416	-4368	1104	17	-60	-7	4408	-3760	15832	16	-34	-41	-5032	5920	13736	21	-31	5	-14048	8928	200	44	-92	37	1848	4216	16552	41	-79	-28	121	138	12
-7268	-4932	13760	-2	-49	-45	-15432	-4712	1504	23	-39	-12	4224	-3840	16264	10	-32	-30	-5104	6160	13872	1	-19	-3	-14048	9304	-208	-23	-44	40	1552	4472	16504	22	-54	-11	122	139	12
-7512	-4820	13772	16	-44	-24	-15552	-4304	984	23	-11	-2	3848	-3840	16016	1	-36	-17	-5064	5608	13504	-9	2	-16	-13936	8976	-152	-6	-11	23	1192	4216	16248	1	-41	10	122	137	12
-7628	-4708	13696	16	-25	-15	-15136	-4144	1080	8	8	-1	3608	-3776	16048	15	-37	0	-5432	6208	13384	-31	8	-25	-13832	9248	-448	-21	18	12	904	4184	16320	-9	-37	35	121	135	12
-7816	-4828	13648	15	-29	-17	-15536	-4224	400	16	11	-5	3128	-3768	16136	21	-43	17	-5304	5584	13912	-39	14	-35	-13752	8968	-928	-18	46	9	184	3944	16200	-9	-11	57	121	133	12
-7548	-4716	13836	11	-17	-18	-15200	-4008	288	-8	25	3	2832	-3880	15840	27	-26	28	-5328	5952	13872	-41	15	-35	-13976	9032	-984	1	45	-6	-216	3712	16416	-14	-4	70	121	132	12
-7984	-4968	13860	9	-17	-20	-15480	-4272	304	1	10	-13	2336	-3664	16256	32	-28	37	-5392	5656	13576	-47	18	-37	-14280	8872	-1480	-45	43	-2	-936	3384	16432	-11	-8	78	122	131	12
-7640	-4672	13640	3	-12	-20	-15424	-3928	64	-6	-3	-13	2192	-3464	16080	25	-15	34	-5208	5536	13552	-24	31	-35	-13936	8456	-1480	5	27	-14	-736	3144	16112	-7	-18	72	122	134	12
-7660	-4612	13748	-7	-14	-24	-14944	-3992	256	-15	-13	-7	2472	-3584	15896	35	-10	32	-5512	5800	13512	-30	19	-32	-13936	8856	-1256	-11	10	-6	-736	2832	16328	0	-12	58	122	135	12
-7768	-4936	13436	-9	-17	-28	-15472	-4216	176	-9	-17	-17	2608	-3504	16032	24	-2	20	-5464	5352	13632	-24	14	-30	-13904	8760	-1328	-20	3	-8	-616	3024	15912	11	-6	37	122	135	12
-7376	-4560	13480	-3	-6	-29	-14976	-4096	552	-21	-14	-16	3208	-3600	16096	18	17	10	-5440	5928	13528	-7	6	-20	-13992	8464	-928	43	-19	9	-376	3120	16248	5	-3	12	121	136	12
-7860	-4852	13828	-7	-21	-30	-15576	-4392	512	8	-16	-17	2848	-3728	16432	15	17	2	-5368	5680	13712	-14	2	-21	-14248	8872	-1032	6	-35	26	-264	3040	16592	6	2	-9	120	136	12
-7488	-4976	13676	8	-14	-25	-15728	-4352	688	2	-15	-18	3056	-3784	16336	15	17	-2	-5152	5576	13912	3	9	-26	-14336	8512	-784	41	-38	25	128	3472	16680	8	-18	-20	119	139	12
-7652	-5120	14076	0	-13	-27	-15392	-4560	648	-6	-11	-7	3408	-3808	16296	15	11	-12	-5232	5704	14032	-8	-2	-19	-14632	9064	-696	24	-38	25	216	3560	16896	0	-28	-26	118	134	12
-7660	-5380	13756	13	-6	-21	-15704	-4440	960	15	-8	-24	3032	-3840	15960	5	1	-15	-4992	5528	13840	2	15	-24	-14280	8768	-760	12	-29	24	648	3736	16768	0	-31	-23	118	138	12
-7372	-4708	13868	5	-5	-22	-15208	-3976	600	-1	12	-18	3616	-3744	16080	7	-1	-4	-5072	6152	14088	0	12	-20	-14120	8888	-384	63	-17	7	792	3808	16680	-5	-26	-12	121	142	12
-7860	-5040	14240	0	-7	-23	-15720	-4472	1080	4	3	-13	3176	-3960	16496	15	-5	7	-5312	6024	14168	-24	18	-31	-14272	9304	-640	-9	-8	16	328	3808	16616	-10	-10	9	122	136	12
-7696	-5124	14044	9	-7	-18	-15768	-4480	728	-2	8	-20	2920	-3984	16296	13	-4	11	-5392	5648	14160	-15	21	-36	-14504	8920	-816	7	21	0	216	3632	16672	0	-19	26	122	138	12
-7792	-4820	14424	4	-8	-23	-15672	-4432	336	-15	8	-13	3176	-4264	16416	28	-11	23	-5128	6088	14408	-34	17	-36	-14584	9344	-784	-6	17	2	-8	3496	16816	-2	-21	41	122	136	12
-7724	-5272	14144	0	-12	-27	-16088	-4472	712	-4	-9	-20	2864	-3960	16184	33	-13	27	-5208	5552	14080	-25	25	-32	-14264	8760	-896	-18	20	2	8	3464	16832	-4	-15	49	122	136	12
-7708	-4900	13956	1	-3	-21	-15376	-4312	288	-26	-3	-15	3128	-3896	16224	31	-10	32	-5392	5816	14136	-19	20	-33	-14256	8760	-976	33	15	2	-24	3224	16576	6	-14	43	123	136	12
-7804	-5060	14300	4	-20	-27	-15760	-4568	320	-17	-5	-15	2920	-4024	16656	33	-6	30	-5448	5744	14200	-25	18	-32	-14616	9040	-1128	-9	1	16	-320	3192	16824	8	-4	34	123	135	12
-7680	-4984	13968	11	-12	-19	-15704	-4504	576	8	-8	-16	2824	-4056	16128	27	-1	17	-5456	5576	13840	-4	22	-24	-14144	8616	-1064	11	-1	15	-160	3144	16384	14	-18	25	123	136	12
-7880	-4860	14312	8	-18	-17	-15296	-4456	616	-3	-8	5	3216	-3968	16608	37	-1	11	-5416	6256	13920	-10	1	-27	-14504	9232	-896	14	-15	32	-248	3336	16776	12	-25	10	123	133	12
-7780	-5248	13992	10	-15	-23	-15936	-4672	616	16	-14	1	2808	-3984	16296	36	-3	-1	-5472	5408	14168	-7	11	-25	-14416	8784	-1384	3	-13	33	-128	3280	16712	16	-29	3	122	136	12
-7564	-5032	14012	12	-8	-17	-15584	-4224	640	-3	-9	1	3168	-3784	16544	35	-2	-5	-5360	6072	14120	6	1	-15	-14424	9096	-752	33	-26	33	64	3464	16880	11	-30	-4	122	136	12
-7752	-5024	14308	9	-22	-24	-15896	-4616	856	7	-14	1	3032	-3848	16440	30	-5	0	-5200	5840	14104	-1	10	-15	-14472	8912	-880	14	-34	41	-136	3536	16248	12	-21	-5	122	137	12
-7568	-5100	13928	7	-7	-21	-15656	-4288	768	11	-12	-4	3088	-3648	16040	20	-3	-9	-5328	5800	14016	11	17	-15	-14120	8776	-736	39	-28	26	344	3680	16496	18	-21	-8	121	137	12
-7692	-4816	13904	7	-5	-22	-15296	-4272	648	-3	-9	2	3328	-3688	16096	20	2	-4	-5312	6208	14080	-2	4	-16	-14128	9248	-632	33	-23	27	264	3904	16536	10	-12	3	122	136	12
-7596	-5256	13908	9	-18	-23	-15888	-4328	960	9	-9	-9	2848	-3672	16552	13	4	-1	-5232	5600	14096	-5	11	-22	-14200	9008	-880	-11	-15	22	24	3856	16536	17	-8	12	122	136	12
-7404	-4848	13968	10	-8	-23	-15496	-4176	528	3	-3	-10	3136	-3688	16224	16	5	-3	-5216	6144	14016	-8	10	-21	-14088	9144	-672	13	-8	5	184	3824	16528	10	-16	28	121	136	12
-7824	-4876	14116	1	-23	-24	-15528	-4232	712	6	-13	-8	3088	-3616	16568	24	-1	6	-5096	5792	14032	-28	14	-27	-14024	9040	-880	-12	0	4	152	3752	16424	0	-17	34	121	136	12
-7424	-4952	13672	2	-8	-26	-15384	-3968	632	-7	-7	-15	2984	-3640	15976	18	-7	7	-5104	5616	13728	-22	14	-29	-13984	8728	-712	24	-2	-5	232	3632	16264	-3	-13	32	121	140	12
-7632	-4944	13968	0	-13	-27	-15192	-4208	728	-15	-4	-17	3128	-3544	16120	21	-2	11	-5208	6224	13592	-25	7	-26	-14224	9152	-520	14	-2	3	184	3408	16432	-6	-13	27	121	137	12
-7640	-5052	13880	-5	-11	-28	-15640	-4472	696	2	-8	-27	2864	-3856	16192	14	-4	12	-5232	5536	13944	-24	14	-33	-14336	8856	-1032	-8	5	-1	16	3384	16368	-3	-20	29	121	136	12
-7376	-4852	13960	6	-9	-25	-15264	-4216	552	-2	-1	-18	3088	-3792	15976	13	-1	11	-5144	5528	13776	-23	19	-32	-14048	8768	-752	29	2	-5	248	3296	16632	1	-22	29	120	137	12
-7396	-4620	13908	1	-6	-21	-15496	-4528	792	-6	-7	-15	2960	-3952	16440	18	-7	13	-5368	5736	13920	-29	19	-32	-14120	8912	-1008	-16	4	8	80	3304	16176	-3	-17	29	119	137	12
-7712	-4980	13900	-2	-16	-27	-15360	-4376	608	-7	-3	-17	3088	-3904	15864	15	-3	17	-5096	5472	13904	-21	15	-31	-13936	8392	-1136	24	5	6	96	3312	16544	4	-20	26	121	136	12
-7676	-5000	14000	3	-8	-25	-15120	-4464	544	-20	-5	-17	3224	-4184	16336	24	1	17	-5208	5976	14232	-27	11	-31	-14408	8992	-760	4	-3	10	-24	3272	16856	-2	-15	26	121	136	12
-7764	-5208	13836	8	-13	-23	-15744	-4752	536	13	-9	-20	2816	-4200	16048	21	-4	12	-5200	5272	13736	-11	19	-29	-14216	8528	-864	3	-1	16	-192	3072	16336	8	-20	21	121	136	12
-7624	-4880	13848	10	-8	-21	-15112	-4248	392	-3	-4	-7	3272	-4192	15952	27	2	5	-5336	6224	14376	-9	9	-24	-14456	8832	-696	37	-9	14	112	3112	16592	2	-17	15	121	136	12
-7792	-5424	14044	4	-19	-29	-15792	-4728	800	8	-5	-8	3352	-4016	15984	27	2	9	-5328	5672	14056	-13	15	-26	-14800	8752	-992	-17	-9	31	-264	3200	16656	5	-16	9	121	132	12
-7484	-4916	13988	16	-12	-14	-15584	-4648	768	1	-12	-16	3048	-4152	16136	25	-3	3	-5256	5600	13968	-1	19	-23	-14288	8672	-984	21	-13	20	240	3336	16872	10	-27	4	121	136	12
-7784	-5068	14324	12	-22	-25	-15376	-4512	640	-1	-6	2	3416	-4056	16616	33	0	8	-5184	5984	14032	1	11	-21	-14552	9048	-864	20	-13	24	128	3328	16496	9	-27	3	122	136	12
-7748	-5184	13740	15	-11	-18	-15664	-4440	800	8	-8	-4	2912	-4000	16184	24	0	1	-5280	5640	13920	2	15	-25	-14352	9040	-656	9	-15	28	112	3528	16312	15	-17	4	122	136	12
-7524	-4952	14064	16	-14	-21	-15352	-4320	576	4	-1	1	3256	-3952	16272	28	6	-2	-4976	6344	14096	-4	9	-24	-14336	9080	-440	32	-10	31	-48	3568	16912	19	-14	8	121	136	12
-7968	-5256	14212	14	-25	-21	-15848	-4560	944	9	-7	-4	3264	-4144	16192	25	7	0	-5344	5736	13864	-13	12	-22	-14384	9224	-1128	-33	-14	33	-320	3592	16592	16	-17	15	121	136	12
-7596	-4824	13856	23	-14	-18	-15744	-4312	512	14	-10	5	3048	-3760	16048	23	0	-6	-5168	5648	13800	9	14	-22	-14248	8864	-952	31	-9	20	264	3552	16240	26	-25	17	121	136	12
-7652	-4720	14264	15	-17	-22	-15240	-4312	912	-4	-8	13	3280	-3808	16688	32	-3	-4	-5472	6232	14072	-4	7	-24	-14200	9232	-888	19	-20	27	24	3648	16776	14	-17	15	121	135	12
-7644	-5152	13844	17	-15	-22	-15936	-4352	752	14	-14	-4	2952	-3632	16208	25	-10	-6	-5264	5584	14032	-4	17	-24	-14184	8960	-864	7	-12	27	-56	3552	16464	19	-21	12	120	134	12
-7388	-4852	13968	12	-11	-23	-15216	-4216	944	-6	-6	6	3320	-3624	16432	19	1	-3	-5104	6144	13736	-1	13	-21	-14168	9008	-704	29	-10	26	272	3488	16760	13	-26	11	121	136	12
-7816	-5056	14204	2	-24	-26	-15608	-4448	984	18	-9	-9	3128	-3616	16592	25	-6	6	-5336	5584	13888	-16	15	-28	-14344	9024	-968	-22	-13	29	-112	3768	16440	6	-23	8	120	135	12
-7524	-4972	13748	4	-5	-21	-15552	-4208	680	3	-11	-9	3088	-3616	16040	14	-5	4	-5408	5800	14112	6	23	-23	-14040	8864	-832	29	-9	9	328	3584	16464	6	-32	6	119	138	12
-7640	-4848	13928	-3	-13	-19	-15304	-4296	744	-4	-3	-8	3256	-3736	16256	20	-8	10	-5144	6224	13904	-14	8	-25	-14176	9128	-792	23	-12	15	288	3656	16504	-1	-18	11	120	137	12
-7648	-5060	13792	1	-18	-25	-15800	-4352	448	6	-8	-13	2928	-3640	16320	14	-5	7	-5280	5592	13800	-15	15	-27	-14336	8784	-1080	-1	-5	18	32	3504	16512	3	-15	14	120	136	12
-7452	-4916	13796	4	-6	-23	-15424	-4304	496	-1	1	-13	3280	-3840	16248	14	-1	10	-5336	6000	14200	-12	7	-24	-14128	9072	-672	32	1	0	144	3640	16616	6	-18	21	121	136	12
-7676	-4920	13988	2	-19	-24	-15744	-4600	856	-9	-6	-11	3048	-4000	16400	20	-1	9	-5336	5864	13880	-24	14	-28	-14272	9056	-944	-19	2	11	-160	3400	16576	6	-6	25	120	132	12
-7564	-5068	13948	14	-14	-20	-15608	-4448	688	3	-5	-10	3184	-3904	16024	20	0	6	-5192	5832	13880	-7	12	-28	-14048	8576	-1040	14	2	7	144	3360	16280	13	-10	28	121	137	12
-7536	-4760	14160	15	-7	-17	-15288	-4520	568	-13	-6	1	3288	-3888	16192	30	3	3	-5272	6168	14272	-19	2	-24	-14200	8968	-760	26	-10	14	8	3232	16592	9	-6	25	121	136	12
-7604	-5128	13904	16	-16	-16	-15696	-4592	744	3	-14	-4	2872	-4056	16096	20	3	-3	-5224	5552	14008	-14	18	-24	-14328	8768	-968	-5	-6	22	-152	3280	16392	13	-16	20	122	136	12
-7588	-4964	13928	19	-12	-15	-15440	-4448	640	8	0	1	3160	-3896	16120	22	7	-12	-5328	6136	13944	-7	13	-26	-14248	8936	-1032	22	-12	20	184	3288	16792	13	-20	17	122	136	12
-7760	-5032	14164	23	-17	-21	-15568	-4368	1016	16	-1	2	3088	-3712	16368	23	5	-10	-4976	5712	14120	-5	14	-20	-14392	8848	-864	-1	-7	30	40	3448	16544	11	-13	6	121	136	12
-7388	-4876	13976	26	-9	-10	-15632	-4160	880	-1	-8	5	3016	-3808	16320	28	4	-10	-5432	6040	13944	-1	13	-17	-14352	8832	-1200	24	-13	28	112	3424	16288	8	-12	7	121	137	12
-7792	-4880	14052	25	-15	-10	-15768	-4424	1008	8	-4	2	3248	-3784	16224	30	-10	2	-5392	5968	14416	-1	14	-18	-14560	9056	-568	9	-11	38	80	3456	16432	14	-14	2	121	136	12
-7584	-4944	14124	16	-16	-15	-15904	-4400	944	0	-7	2	3072	-3848	16368	34	-9	7	-5200	5880	13936	4	23	-17	-14384	8984	-1080	12	-22	36	72	3544	16760	18	-18	3	121	133	12
-7796	-4844	13972	18	-6	-11	-15856	-4344	800	-3	-4	5	3256	-3816	16168	33	-5	8	-5400	5992	14240	7	19	-18	-14248	9008	-688	20	-8	29	96	3688	16648	17	-26	3	121	136	12
-7760	-5032	14036	16	-6	-16	-15568	-4464	728	-5	0	11	3144	-3584	16584	28	-5	7	-5336	5864	14168	-5	20	-20	-14264	9080	-968	9	-6	31	112	3776	16560	16	-22	8	120	134	12
-7628	-4812	13960	16	-11	-13	-15472	-4168	800	16	6	-3	3024	-3632	16152	24	7	1	-5240	6032	13800	2	24	-24	-14136	9104	-832	19	1	28	112	3584	16560	12	-12	11	121	133	12
-7836	-4816	14096	13	-18	-14	-15552	-4144	536	3	8	2	3128	-3600	16088	21	2	4	-5240	5952	14064	-13	18	-28	-14360	9224	-816	-1	1	27	-80	3936	16648	13	-13	15	121	135	12
-7788	-4956	14100	17	-17	-15	-15744	-4312	984	7	-4	4	2800	-3784	16328	23	7	-1	-5232	5776	14128	-17	17	-30	-14408	9104	-1048	3	1	11	-344	3816	16496	10	-12	25	122	133	12
-7652	-4880	14092	13	-4	-14	-15616	-4048	304	-3	-6	-3	3056	-3632	16392	30	4	2	-5400	6064	14336	-15	19	-26	-14384	9248	-912	15	0	14	-48	3704	16576	10	-21	33	121	135	12
-7780	-4920	14168	2	-18	-21	-15800	-4216	472	-4	-8	-8	2880	-3472	16312	24	-1	7	-5336	5792	13680	-12	19	-29	-14160	8952	-1008	1	-2	12	-120	3592	16456	8	-15	28	121	136	12
-7436	-4696	13760	7	-12	-19	-15328	-3968	776	-16	-6	-18	3152	-3632	15984	22	2	10	-5248	5896	13792	-6	21	-20	-13856	8768	-976	44	-7	8	272	3488	15984	10	-10	29	120	137	12
-7568	-4520	13984	6	-9	-16	-15056	-4112	784	-13	-4	-4	3112	-3504	16184	17	9	14	-5264	6280	13960	-20	13	-21	-14008	9120	-880	6	2	16	144	3584	16416	9	-3	19	121	140	12
