#Activity	standing 
#ActivityID	8 
#Date 08-22-17-29
acc_rf_x	acc_rf_y	acc_rf_z	gyro_rf_x	gyro_rf_y	gyro_rf_z	acc_rs_x	acc_rs_y	acc_rs_z	gyro_rs_x	gyro_rs_y	gyro_rs_z	acc_rt_x	acc_rt_y	acc_rt_z	gyro_rt_x	gyro_rt_y	gyro_rt_z	acc_lf_x	acc_lf_y	acc_lf_z	gyro_lf_x	gyro_lf_y	gyro_lf_z	acc_ls_x	acc_ls_y	acc_ls_z	gyro_ls_x	gyro_ls_y	gyro_ls_z	acc_lt_x	acc_lt_y	acc_lt_z	gyro_lt_x	gyro_lt_y	gyro_lt_z	EMG_r	EMG_l	act
-7712	-7448	11992	-13	14	-26	-15808	-1920	-2920	7	-9	-13	-16064	-368	-3320	59	-23	48	-7176	8536	12432	15	-6	-15	-16296	712	-2792	-21	-2	10	-16160	2512	-2424	-9	-15	-7	117	137	8
-7644	-7520	11944	-16	17	-21	-15792	-1928	-2952	56	10	-10	-15880	-272	-3648	75	-16	40	-7008	8480	12664	16	-7	-25	-16376	728	-2952	-11	13	9	-16048	2248	-2656	47	7	-5	117	136	8
-7684	-7452	11972	-10	15	-21	-15792	-1904	-3128	51	22	-12	-15712	-48	-3288	57	-1	34	-7080	8360	12472	12	-2	-21	-16408	560	-3288	17	12	7	-15872	2232	-2888	91	22	-4	116	136	8
-7652	-7504	12004	-8	15	-21	-15768	-1864	-3368	16	19	-13	-15672	-24	-3904	19	8	25	-7152	8352	12896	13	-7	-25	-16384	664	-3280	39	11	11	-15928	2384	-3000	95	14	3	116	136	8
-7712	-7504	11952	-10	13	-20	-15832	-1928	-3464	-20	14	-11	-15704	112	-3848	-39	3	17	-7192	8496	12504	16	-1	-22	-16400	768	-3360	33	5	8	-15640	2208	-2704	77	9	-2	114	136	8
-7712	-7532	11896	-7	15	-22	-15984	-1952	-3504	-21	13	-6	-15648	104	-4288	-71	-1	11	-7096	8400	12496	16	-4	-23	-16272	600	-3496	21	-8	4	-15776	2336	-3152	65	-6	-4	117	136	8
-7708	-7392	11980	-12	15	-19	-15664	-1744	-3528	-33	5	-7	-15448	-160	-4040	-73	-10	9	-7240	8408	12568	17	-7	-21	-16136	520	-3400	22	-6	10	-15720	2272	-3072	46	-4	-2	119	135	8
-7732	-7436	11984	-15	15	-24	-15848	-1864	-3480	-11	-5	-11	-15424	-160	-4344	-63	-20	8	-7184	8456	12624	12	-4	-18	-16320	568	-3168	33	-12	10	-15880	2232	-3336	12	-3	3	118	136	8
-7652	-7492	11988	-13	13	-22	-15840	-1848	-3544	-12	-10	-12	-15576	-232	-3872	-28	-22	12	-7008	8392	12744	19	-3	-20	-16360	608	-3208	26	-22	13	-16088	2232	-3200	-10	-2	0	119	135	8
-7652	-7460	11952	-16	11	-25	-15808	-1824	-3336	-1	-10	-12	-15616	-280	-3888	12	-23	10	-7256	8464	12576	20	-2	-22	-16344	672	-2992	-1	-26	14	-15984	2104	-2960	-35	1	3	120	135	8
-7784	-7536	12044	-15	15	-22	-15848	-1992	-3208	12	-9	-8	-15752	-320	-3840	53	-14	13	-7144	8384	12696	20	2	-19	-16264	600	-3272	-15	-22	20	-15936	2160	-2504	-25	5	2	119	135	8
-7744	-7484	12012	-13	14	-26	-15608	-1928	-3040	15	-5	-7	-15672	-440	-3856	59	-8	18	-7128	8360	12528	17	1	-19	-16280	608	-3048	-15	-17	22	-15896	2360	-2888	-10	0	-3	118	135	8
-7648	-7484	11992	-10	11	-26	-15712	-1912	-3088	10	-7	-6	-15696	-208	-3800	44	-17	23	-7088	8480	12424	25	1	-22	-16480	608	-2936	-1	-17	23	-16024	2232	-2808	15	5	2	118	135	8
-7692	-7536	11980	-10	9	-22	-15760	-1992	-3056	9	-6	-4	-15776	-80	-3792	17	-18	26	-7040	8480	12592	20	1	-24	-16320	792	-3288	12	-13	21	-15992	2232	-2760	36	15	-2	117	135	8
-7656	-7544	11880	-10	13	-21	-15808	-2056	-3328	9	0	-10	-15784	-48	-3664	-10	-25	24	-7048	8376	12408	28	2	-23	-16256	584	-3240	14	-18	21	-15856	2280	-2912	56	21	-3	117	135	8
-7684	-7464	11968	-11	15	-22	-15808	-1944	-3096	7	-5	-10	-15696	-24	-3752	-38	-14	16	-7048	8504	12512	20	-1	-18	-16248	776	-3192	24	-9	19	-15832	2320	-2712	66	13	0	117	135	8
-7716	-7464	11844	-12	11	-22	-15560	-1704	-3336	-21	-5	-5	-15624	-64	-3712	-54	-7	10	-7224	8456	12552	20	2	-21	-16160	640	-2904	31	-14	18	-15752	2448	-3056	47	0	9	118	135	8
-7720	-7460	12036	-10	12	-24	-15624	-1704	-3312	-29	2	-7	-15624	-72	-3896	-49	-5	6	-7200	8528	12712	14	-5	-19	-16256	576	-3264	19	-4	20	-15888	2408	-2864	18	-6	13	119	135	8
-7736	-7472	11932	-10	13	-25	-15712	-1880	-2936	-18	8	-11	-15856	-264	-3864	-23	-2	10	-7144	8464	12840	17	-9	-23	-16440	656	-2984	-9	-1	15	-15872	2448	-3096	1	-1	2	119	135	8
-7720	-7420	12012	-11	14	-21	-15656	-2016	-3320	15	11	-11	-15792	-304	-4088	0	-4	20	-7080	8576	12640	19	-1	-21	-16304	720	-3248	-30	2	12	-16008	2472	-2712	-16	17	-11	119	135	8
-7728	-7536	11996	-16	18	-24	-15784	-1904	-3352	32	16	-15	-15760	-384	-3792	23	0	25	-7120	8512	12504	16	-3	-20	-16120	448	-3280	-22	6	9	-15968	2320	-2864	-31	21	-13	119	134	8
-7704	-7504	12040	-13	19	-22	-15688	-1920	-3360	26	11	-10	-15704	-336	-3984	52	-1	25	-7040	8408	12488	16	-4	-21	-16248	632	-3144	2	16	15	-16024	2232	-2680	-32	22	-9	118	135	8
-7676	-7484	11972	-5	15	-21	-15792	-1944	-3504	7	8	-10	-15592	0	-4096	52	1	25	-7096	8336	12584	16	-4	-15	-16280	696	-3016	8	14	10	-15888	2272	-2696	-8	9	-10	118	135	8
-7692	-7432	11964	-11	11	-25	-15680	-1816	-3416	7	8	-10	-15712	16	-4000	44	0	30	-7152	8576	12688	16	-6	-15	-16272	672	-2944	-3	22	13	-15888	2112	-2808	-7	4	-8	118	136	8
-7700	-7472	11924	-9	13	-24	-15760	-2048	-3360	18	6	-11	-15872	72	-4064	36	-10	24	-7216	8368	12528	14	-6	-15	-16440	664	-3040	-22	11	15	-15864	2128	-3032	36	7	-3	118	136	8
-7680	-7480	12104	-14	10	-21	-15752	-1928	-3448	19	5	-13	-15744	-40	-3960	21	-21	19	-7136	8496	12696	15	-4	-23	-16504	520	-3304	-21	16	16	-15904	2248	-3504	34	7	3	119	135	8
-7692	-7468	12068	-9	11	-25	-15584	-1976	-3312	15	-5	-6	-15592	-184	-3880	-1	-22	10	-7048	8392	12448	18	0	-21	-16288	448	-3256	-6	8	19	-15992	2312	-3192	14	12	-1	119	135	8
-7748	-7504	11952	-11	11	-19	-15776	-1928	-3520	-4	-4	-9	-15736	0	-4040	-21	-21	10	-7056	8496	12776	16	-3	-17	-16232	792	-3168	-2	0	22	-15720	2248	-2840	-5	7	-3	119	135	8
-7656	-7468	11868	-14	14	-24	-15808	-1944	-3408	-14	-9	-15	-15624	-184	-3720	-32	-18	9	-7128	8464	12648	19	-1	-19	-16352	736	-3096	-10	-3	17	-15760	2312	-3120	-21	-7	-1	119	136	8
-7716	-7464	12060	-13	10	-23	-15824	-1856	-3336	-4	-8	-12	-15664	-280	-4368	-25	-17	11	-7112	8456	12656	21	-8	-17	-16232	664	-3488	-12	-6	20	-15944	2448	-3264	-33	-15	5	120	135	8
-7740	-7528	11988	-12	9	-21	-15672	-1976	-3056	9	-7	-12	-15736	-248	-3856	0	-24	5	-7120	8448	12640	16	-4	-16	-16144	584	-3096	-4	-5	13	-15960	2384	-2728	-36	-19	0	120	136	8
-7672	-7428	11968	-10	11	-29	-15760	-2008	-3224	23	-6	-12	-15672	-248	-3904	25	-30	3	-7024	8520	12752	16	-5	-21	-16336	704	-2872	-8	-12	17	-15912	2256	-2968	-23	-15	0	120	136	8
-7664	-7488	11968	-6	14	-24	-15752	-1984	-3216	30	-7	-13	-15776	-208	-3928	35	-29	8	-7112	8448	12568	19	-1	-21	-16392	704	-3016	-9	-12	17	-15952	2352	-2904	-13	-5	-4	119	136	8
-7692	-7520	11912	-13	14	-28	-15752	-1944	-3184	31	-4	-16	-15736	-272	-4056	29	-26	12	-7048	8360	12696	18	1	-18	-16344	736	-3200	-1	-10	15	-16000	2288	-2920	-6	-7	-2	119	135	8
-7664	-7592	11972	-21	18	-27	-15680	-1808	-3312	9	-13	-12	-15760	-48	-3888	20	-23	12	-7152	8408	12632	19	-5	-17	-16352	640	-3200	6	-12	15	-15856	2400	-2904	16	-15	2	120	135	8
-7672	-7504	12056	-12	16	-25	-15672	-1920	-3408	-1	-15	-14	-15744	-112	-3912	9	-30	15	-7152	8456	12568	19	-9	-13	-16200	608	-3128	10	-4	15	-15912	2384	-3000	29	-22	8	120	135	8
-7720	-7504	11988	-12	10	-27	-15728	-2064	-3280	2	-8	-15	-15832	-48	-4040	5	-33	15	-7112	8504	12568	13	2	-22	-16288	664	-3160	20	-2	8	-15808	2352	-2736	37	-30	7	119	135	8
-7752	-7460	11932	-15	10	-23	-15768	-1944	-3192	6	-8	-18	-15744	-224	-3880	-5	-36	4	-7128	8392	12368	13	-9	-17	-16384	656	-3104	22	-7	12	-15960	2384	-2800	37	-25	7	119	135	8
-7700	-7504	12028	-12	13	-27	-15632	-1864	-3472	8	-13	-13	-15712	-200	-3624	-12	-34	2	-7120	8400	12704	13	1	-19	-16480	616	-3432	10	-13	13	-16064	2312	-3024	39	-20	8	119	135	8
-7672	-7540	11944	-11	14	-28	-15744	-1848	-2960	1	-9	-10	-15584	-392	-3688	-15	-30	0	-7192	8424	12760	10	-7	-27	-16296	672	-3096	9	-12	16	-15832	2168	-2840	28	-12	5	119	135	8
-7700	-7436	11944	-14	13	-26	-15840	-2056	-3312	-8	-7	-14	-15760	-304	-3688	-16	-24	6	-6968	8616	12672	14	-5	-15	-16224	648	-3280	14	-18	12	-15752	2416	-3056	14	-17	4	119	135	8
-7668	-7532	12016	-14	14	-24	-15840	-2088	-3176	3	-9	-10	-15840	-352	-3752	-5	-27	18	-7056	8360	12560	15	-5	-25	-16240	648	-3072	10	-19	15	-15952	2424	-2888	2	-30	5	120	135	8
-7712	-7480	11964	-13	14	-26	-15752	-2032	-3064	16	-3	-12	-15704	-256	-3920	15	-30	13	-7136	8368	12760	16	-10	-16	-16184	688	-2944	4	-13	15	-15984	2352	-2616	0	-30	8	120	135	8
-7660	-7512	11956	-10	14	-27	-15760	-1944	-3336	17	-2	-11	-15680	-216	-4088	21	-31	13	-7152	8416	12712	16	-10	-20	-16288	576	-3320	7	-8	14	-16000	2272	-2848	10	-28	2	119	135	8
-7676	-7540	12060	-14	8	-20	-15792	-1936	-3320	15	-7	-9	-15616	-200	-4040	13	-35	10	-7104	8496	12600	14	-5	-20	-16304	760	-3176	9	-10	14	-15912	2328	-2904	26	-29	6	119	135	8
-7740	-7524	11948	-15	11	-26	-15832	-1872	-3528	9	-10	-10	-15680	-112	-3736	-1	-35	11	-7152	8400	12760	14	-6	-22	-16496	720	-2720	-1	-11	16	-15816	2304	-2920	39	-26	6	119	135	8
-7656	-7468	12040	-11	15	-23	-15752	-1952	-3416	-2	-13	-10	-15664	32	-3888	-11	-30	7	-7128	8432	12784	14	-9	-23	-16400	584	-3376	13	-19	10	-15984	2248	-2904	44	-19	14	119	135	8
-7660	-7444	11928	-12	13	-24	-15648	-1864	-3352	2	-21	-7	-15720	-120	-3848	-17	-32	3	-7168	8608	12816	16	-3	-17	-16296	592	-3384	31	-20	16	-15904	2216	-2984	46	-29	14	119	135	8
-7684	-7492	11872	-12	13	-29	-15768	-2008	-3392	-3	-23	-10	-15768	-264	-3912	-10	-41	8	-7120	8384	12656	15	-7	-19	-16360	688	-2992	37	-18	16	-15960	2328	-3080	42	-27	8	119	135	8
-7664	-7436	11936	-14	16	-25	-15792	-2016	-3240	-3	-18	-10	-15704	-392	-3656	4	-41	11	-7120	8384	12640	15	-10	-19	-16296	800	-3152	25	-20	18	-15888	2448	-2744	31	-30	11	119	135	8
-7728	-7500	12084	-11	10	-25	-15760	-1936	-3216	2	-17	-5	-15688	-304	-4056	23	-35	15	-7176	8376	12704	10	-5	-18	-16312	504	-3200	11	-17	16	-16016	2552	-2816	22	-24	11	119	135	8
-7716	-7544	11968	-14	13	-26	-15744	-2072	-3128	6	-13	-9	-15752	-432	-3408	29	-32	8	-6976	8296	12648	14	0	-19	-16352	664	-3168	3	-17	17	-16048	2416	-2656	12	-13	6	119	135	8
-7672	-7516	12016	-12	11	-26	-15720	-1976	-3176	5	-13	-6	-15736	-256	-3728	20	-27	12	-6992	8344	12584	20	-4	-22	-16336	552	-2904	0	-16	15	-15968	2368	-2736	7	-10	-4	119	135	8
-7640	-7508	11988	-15	13	-24	-15800	-1952	-3104	9	-6	-9	-15792	-296	-3512	5	-21	19	-7272	8360	12552	14	-2	-18	-16304	592	-3000	4	-15	14	-15984	2272	-2736	6	-7	0	119	136	8
-7680	-7576	12020	-10	11	-20	-15824	-2024	-3424	8	-12	-10	-15688	-224	-3768	-2	-17	18	-7152	8448	12632	16	-5	-21	-16288	680	-2936	1	-14	14	-16016	2288	-2536	7	-13	3	119	136	8
-7708	-7492	11996	-13	16	-24	-15808	-1896	-3376	2	-10	-3	-15736	-296	-3984	1	-20	20	-7120	8440	12656	14	-3	-16	-16160	568	-2968	3	-10	15	-15936	2168	-2648	8	-11	6	119	136	8
-7696	-7468	11892	-16	12	-23	-15712	-2024	-3064	-7	-11	-8	-15792	-200	-3784	-3	-27	12	-7216	8344	12448	19	-7	-19	-16392	616	-3128	7	-7	17	-16088	2272	-2944	25	-13	3	119	135	8
-7768	-7556	12060	-12	8	-25	-15904	-2120	-3168	-3	-12	-9	-15704	-224	-3856	-11	-33	8	-7128	8432	12560	17	-6	-18	-16280	616	-3160	14	-12	15	-16032	2400	-2696	27	-9	6	119	135	8
-7696	-7508	12016	-8	13	-29	-15712	-2024	-3208	4	-12	-3	-15648	-176	-3600	-17	-33	11	-7128	8336	12568	20	-7	-18	-16168	648	-3240	15	-14	18	-15944	2280	-2640	32	-7	5	119	135	8
-7672	-7540	11872	-10	10	-28	-15864	-1920	-2808	7	-10	-4	-15680	-272	-3744	-25	-30	8	-7200	8552	12472	19	-9	-16	-16264	744	-3224	10	-16	16	-16048	2376	-2824	20	-11	4	119	135	8
-7688	-7508	12064	-7	9	-24	-15656	-1912	-3240	-2	-12	-10	-15640	-200	-3888	-21	-27	9	-7144	8536	12776	19	-5	-17	-16312	680	-3064	0	-10	15	-15984	2432	-2888	18	-12	7	119	135	8
-7688	-7524	11968	-12	9	-26	-15776	-2120	-2968	-6	-11	-6	-15848	-352	-3800	-17	-23	12	-7240	8528	12632	18	-2	-18	-16408	664	-3000	7	-13	22	-15816	2208	-2792	12	-12	6	119	135	8
-7652	-7484	11892	-8	12	-30	-15760	-2024	-3328	4	-10	-8	-15640	-280	-3880	-1	-23	16	-7184	8440	12488	20	-2	-20	-16296	592	-3384	7	-10	21	-15952	2304	-2744	14	-7	7	119	135	8
-7636	-7552	11968	-11	8	-25	-15680	-1936	-3040	20	-7	-4	-15848	-312	-3648	13	-24	16	-7136	8624	12336	19	-3	-18	-16352	720	-3176	12	-9	23	-15968	2256	-2864	19	-7	3	120	135	8
-7716	-7496	12132	-14	10	-23	-15712	-1992	-3328	8	-7	-10	-15720	-272	-3672	13	-27	18	-7176	8432	12608	19	2	-22	-16408	608	-3080	7	-18	17	-15904	2304	-2856	28	-6	7	120	134	8
-7660	-7516	12048	-9	12	-25	-15744	-1952	-3144	1	-8	-7	-15720	-176	-3712	10	-25	19	-7096	8512	12656	22	-6	-19	-16264	648	-3176	8	-15	19	-15928	2272	-2784	31	-5	4	120	135	8
-7676	-7552	12036	-12	12	-25	-15680	-1792	-3120	1	-2	-7	-15736	-144	-3784	2	-23	18	-7056	8416	12776	15	-2	-15	-16216	704	-3320	9	-14	15	-15800	2304	-2736	28	-13	6	120	135	8
-7628	-7488	12048	-9	14	-25	-15768	-1984	-3048	-2	-4	-8	-15936	-328	-3448	-20	-18	16	-7152	8608	12680	16	-6	-18	-16408	568	-3008	8	-15	17	-16000	2416	-2672	32	-7	3	120	135	8
-7688	-7512	11960	-8	14	-21	-15824	-1952	-3104	-6	-11	-4	-15784	-240	-3584	-28	-15	13	-7104	8464	12632	18	6	-20	-16328	480	-3248	18	-14	18	-15848	2368	-2704	37	-9	8	120	135	8
-7668	-7532	12000	-12	15	-22	-15760	-1864	-3256	-8	-6	-6	-15696	-296	-3840	-29	-12	14	-7192	8344	12672	16	-5	-21	-16320	608	-3000	14	-12	18	-15936	2384	-2576	46	-7	10	120	135	8
-7668	-7468	12016	-11	8	-22	-15720	-1984	-3088	0	-6	-7	-15640	-328	-3792	-31	-21	14	-7000	8512	12664	17	-5	-21	-16280	616	-3232	11	-18	20	-16120	2304	-2640	47	-1	1	120	135	8
-7752	-7504	11980	-9	9	-21	-15944	-2008	-3160	-2	-6	-6	-15600	-280	-3528	-29	-14	15	-7144	8424	12880	19	-1	-23	-16440	616	-3248	9	-17	13	-15976	2328	-2680	48	4	0	120	134	8
-7604	-7508	11876	-9	13	-25	-15760	-2032	-3184	-5	-8	-4	-15672	-288	-3720	-23	-15	14	-7160	8400	12504	20	4	-18	-16360	688	-3032	11	-17	17	-15992	2440	-2736	39	10	-2	120	135	8
-7680	-7552	12040	-11	12	-19	-15680	-2064	-3184	-1	-7	-8	-15664	-296	-3952	-20	-16	15	-7064	8408	12888	23	-5	-21	-16344	768	-3176	4	-18	12	-15832	2456	-2848	40	13	-3	120	135	8
-7680	-7504	12048	-14	14	-22	-15744	-1912	-3040	-5	-10	-6	-15744	-360	-3712	-11	-12	25	-7120	8448	12552	19	-4	-21	-16312	760	-3104	14	-25	14	-15848	2336	-2744	38	10	-2	121	135	8
-7608	-7524	11928	-15	14	-21	-15648	-2064	-3024	-3	-4	-9	-15648	-168	-3720	-13	-8	22	-7280	8416	12848	16	3	-22	-16352	728	-3288	28	-19	16	-15912	2472	-2528	33	12	1	121	134	8
-7724	-7476	11996	-13	18	-26	-15584	-1952	-3280	-3	-1	-8	-15616	-368	-3584	-9	-8	23	-7064	8536	12808	17	-3	-18	-16136	720	-2960	28	-20	17	-15968	2288	-2632	27	11	1	121	135	8
-7696	-7588	12076	-11	11	-18	-15680	-1952	-3128	-5	1	-6	-15888	-224	-3616	-12	-12	13	-7048	8360	12744	15	-3	-19	-16296	792	-2848	5	-10	16	-16104	2384	-2592	27	6	-4	121	135	8
-7640	-7476	12000	-7	14	-23	-15808	-2136	-3072	-3	3	-8	-15992	-264	-3728	-20	-11	11	-7152	8400	12728	20	-2	-22	-16304	736	-3104	0	-8	13	-15960	2440	-2520	24	13	-4	120	134	8
-7688	-7580	12064	-7	12	-20	-15792	-1936	-2888	-1	8	-8	-15816	-280	-3584	-29	-3	11	-6976	8376	12592	20	1	-24	-16288	592	-2936	7	-3	13	-15952	2416	-2728	19	23	-8	120	134	8
-7700	-7512	11884	-9	17	-21	-15840	-1808	-3208	-14	2	-10	-15808	-416	-3744	-23	4	22	-7200	8464	12624	20	1	-21	-16328	584	-3040	10	-4	15	-15896	2416	-2856	7	29	-5	120	133	8
-7612	-7500	12008	-9	11	-20	-15728	-2040	-3144	-2	8	-11	-15784	-280	-3616	-9	12	26	-7152	8368	12760	19	-6	-20	-16528	736	-3184	7	-1	13	-15936	2280	-2800	8	31	-5	121	133	8
-7656	-7524	12116	-11	12	-21	-15688	-2016	-2936	4	8	-6	-15736	-280	-3760	5	12	27	-7040	8464	12592	19	-4	-21	-16240	656	-2976	2	1	19	-15856	2312	-2704	26	27	-3	121	134	8
-7688	-7552	12016	-14	14	-20	-15696	-1984	-3280	3	8	-5	-15816	-176	-3864	14	6	27	-7112	8360	12576	15	1	-19	-16392	640	-3240	5	4	17	-15872	2448	-2584	42	20	6	121	134	8
-7736	-7528	12068	-5	6	-19	-15712	-1976	-3184	2	13	-9	-15656	-240	-3840	15	1	28	-7224	8440	12672	15	0	-25	-16384	696	-3056	13	4	15	-16080	2376	-2864	38	20	4	121	135	8
-7688	-7540	11888	-7	15	-25	-15800	-1952	-3088	9	16	-2	-15744	-184	-3680	12	1	26	-7032	8496	12656	16	-2	-17	-16400	680	-2920	6	8	19	-15872	2336	-2872	33	21	2	121	134	8
-7648	-7476	12012	-7	15	-22	-15808	-1952	-3216	6	12	-4	-15784	-112	-4040	3	0	25	-6968	8424	12680	17	-2	-21	-16408	664	-3184	7	8	17	-15984	2416	-2872	22	34	-2	121	135	8
-7676	-7508	11996	-10	13	-22	-15776	-1904	-3368	3	13	-4	-15640	-256	-3760	2	10	29	-7256	8360	12688	18	1	-20	-16360	720	-3272	2	2	17	-15960	2376	-2880	11	37	-4	121	135	8
-7708	-7480	12096	-9	13	-20	-15816	-1816	-3448	3	13	-2	-15840	-160	-4008	-3	6	31	-7184	8416	12648	17	-3	-22	-16240	736	-3160	3	2	17	-15880	2320	-2768	-3	31	-7	122	135	8
-7704	-7500	11948	-8	13	-19	-15680	-1816	-3176	-2	8	0	-15776	-120	-3800	4	8	31	-7176	8400	12728	17	-2	-19	-16232	784	-3040	-4	2	24	-16008	2280	-2880	4	21	-1	121	135	8
-7684	-7476	12052	-8	9	-22	-15728	-1928	-3072	-1	11	-8	-15808	-328	-3792	4	3	21	-7144	8376	12728	19	-2	-19	-16344	640	-2992	2	9	20	-16040	2288	-2568	16	20	4	122	134	8
-7716	-7568	11928	-7	10	-22	-15936	-2000	-3192	3	13	-5	-15784	-248	-3752	-3	3	25	-7224	8416	12672	20	-4	-21	-16368	720	-2712	4	7	26	-15968	2288	-2760	24	26	5	122	134	8
-7680	-7476	11960	-11	13	-23	-15800	-1920	-3176	4	17	-6	-15640	-184	-3568	-3	2	22	-7056	8344	12632	18	-5	-23	-16240	648	-3048	3	12	21	-16024	2520	-2760	24	30	-1	121	134	8
-7680	-7484	11968	-10	13	-21	-15896	-1888	-3376	3	15	-8	-15776	-200	-3664	0	9	25	-7112	8568	12592	18	-3	-23	-16400	760	-3112	-17	11	23	-16080	2568	-2848	23	36	3	121	134	8
-7712	-7488	11980	-9	14	-23	-15672	-2080	-3352	5	16	-9	-15736	-208	-3904	5	15	28	-7168	8416	12752	19	0	-25	-16504	640	-3240	-11	7	22	-15888	2400	-2944	13	40	0	121	134	8
-7680	-7516	11952	-10	14	-24	-15696	-1936	-3088	6	12	-5	-15720	-304	-3736	14	10	29	-7168	8480	12688	21	7	-21	-16184	704	-3288	-2	9	19	-15840	2432	-3096	4	36	-3	122	134	8
-7712	-7484	11984	-11	13	-22	-15680	-1992	-3368	7	13	-3	-15584	-112	-3808	21	11	31	-7200	8408	12632	13	-3	-21	-16304	720	-3192	11	12	25	-15856	2096	-2976	6	22	3	121	134	8
-7660	-7488	11976	-6	14	-21	-15720	-1920	-3360	1	15	-3	-15808	-128	-3744	23	5	31	-7224	8576	12616	19	-2	-22	-16248	616	-3152	10	11	22	-15856	2208	-3096	19	21	5	121	134	8
-7696	-7504	11948	-10	10	-22	-15832	-1944	-3296	0	18	-4	-15776	-64	-3808	17	2	35	-7248	8440	12280	18	-3	-19	-16488	560	-3064	5	8	19	-15992	2384	-2808	37	24	7	121	134	8
-7684	-7472	12052	-13	13	-20	-15728	-1976	-3464	18	24	0	-15744	-184	-3752	11	8	35	-7168	8496	12608	16	1	-20	-16320	584	-2952	7	4	21	-15784	2336	-3056	36	27	5	121	134	8
-7716	-7544	11936	-8	15	-19	-15720	-1912	-3584	14	20	3	-15704	-216	-3696	6	13	30	-7104	8424	12672	15	-2	-21	-16208	552	-3416	15	3	18	-15856	2232	-3040	41	26	-1	121	134	8
-7732	-7488	12024	-4	12	-20	-15712	-1768	-3296	4	18	-2	-15768	-8	-3976	8	8	30	-7216	8464	12776	21	1	-26	-16208	616	-3280	28	0	22	-15952	2248	-2928	39	28	-2	121	134	8
-7692	-7528	11952	-13	15	-24	-15632	-1880	-3056	-9	12	1	-15736	-256	-3944	14	10	31	-7216	8352	12576	21	1	-17	-16328	656	-3432	26	-2	24	-15888	2456	-2944	37	16	5	121	134	8
-7704	-7472	11860	-10	15	-24	-15672	-1936	-3448	-6	12	0	-15576	-192	-3816	18	2	31	-7064	8424	12664	23	-3	-22	-16328	704	-2912	15	3	21	-15904	2320	-2976	30	7	10	120	134	8
-7724	-7508	11968	-10	15	-26	-15664	-2016	-3160	19	16	-3	-15704	-160	-3672	21	-2	35	-7160	8496	12488	17	-2	-17	-16312	696	-2992	4	5	21	-15824	2536	-2984	33	3	15	121	134	8
-7700	-7504	12052	-7	12	-21	-15952	-1760	-3216	22	12	-3	-15664	-152	-3880	25	1	36	-7120	8448	12624	20	-4	-23	-16336	672	-3184	4	4	23	-15904	2424	-3048	42	9	18	120	133	8
-7728	-7440	11988	-9	10	-24	-15744	-1944	-3432	21	16	0	-15632	-16	-3920	25	8	36	-7216	8528	12576	20	-4	-18	-16200	728	-3496	12	1	19	-15936	2368	-2688	42	15	17	120	134	8
-7684	-7436	11964	-9	14	-24	-15696	-1784	-3112	-4	14	-6	-15664	-72	-3832	30	9	35	-7056	8496	12608	19	-3	-18	-16168	712	-3496	22	-2	19	-15816	2336	-3200	37	12	9	121	134	8
-7708	-7496	11956	-7	14	-23	-15768	-2040	-3176	-1	15	-7	-15752	-120	-3800	29	3	39	-7040	8560	12496	16	0	-16	-16288	656	-3224	12	-3	17	-15848	2488	-2920	26	6	9	120	134	8
-7652	-7520	11968	-12	11	-24	-15712	-1888	-3240	10	13	-3	-15904	-144	-3672	29	3	29	-7088	8544	12568	16	-2	-18	-16328	800	-3072	-8	-5	18	-15840	2544	-2792	3	4	5	120	134	8
-7688	-7500	11936	-10	15	-23	-15768	-1928	-3344	20	14	-5	-15736	-168	-3904	26	-2	31	-7152	8304	12536	14	-2	-15	-16280	648	-2968	-4	-1	15	-16008	2408	-2888	-11	1	4	120	134	8
-7664	-7516	11996	-12	14	-24	-15840	-1784	-3296	12	9	-4	-15768	-104	-3928	25	-2	22	-7144	8400	12600	19	-1	-22	-16376	600	-3248	2	1	16	-15904	2304	-2976	-13	10	5	119	134	8
-7688	-7480	11976	-15	18	-21	-15656	-1856	-3408	-4	4	-11	-15648	16	-3984	8	-2	24	-7136	8384	12616	17	-3	-21	-16216	632	-2880	12	5	18	-15840	2344	-3040	-1	8	2	120	134	8
-7688	-7472	11984	-11	14	-26	-15640	-1792	-3296	0	8	-5	-15656	-40	-4080	-1	-7	21	-7120	8384	12472	22	-5	-18	-16280	640	-3200	11	-2	15	-15944	2056	-2728	13	9	3	120	134	8
-7664	-7520	12012	-10	15	-21	-15760	-1912	-3416	5	6	-9	-15648	-88	-3832	-4	-8	25	-6976	8520	12608	19	-2	-17	-16336	784	-3248	0	0	16	-15968	2248	-2880	23	7	8	120	133	8
-7696	-7476	11924	-12	16	-23	-15848	-1896	-3336	1	1	-7	-15736	-128	-4128	-3	-12	21	-7096	8552	12456	17	-5	-24	-16208	656	-3296	-6	8	19	-15856	2352	-3088	28	9	9	120	134	8
-7780	-7428	12084	-8	11	-24	-15744	-1792	-3736	1	-1	-8	-15680	-56	-3960	1	-11	15	-7104	8344	12392	17	-3	-18	-16344	736	-3432	-3	-1	17	-15760	2456	-3120	16	14	3	120	134	8
-7700	-7532	12084	-7	15	-24	-15656	-2016	-3504	-2	-2	-5	-15648	-152	-3944	-3	-13	19	-6992	8448	12640	17	-3	-24	-16320	632	-3040	6	-7	17	-15872	2424	-2992	5	9	-1	120	134	8
-7644	-7432	12024	-8	12	-20	-15784	-1920	-3440	-10	-7	-6	-15752	-40	-3832	1	-17	19	-7096	8360	12600	19	-8	-17	-16272	672	-3224	12	-2	19	-15744	2528	-3040	-12	2	-1	120	133	8
-7668	-7512	12036	-9	9	-28	-15648	-1960	-3328	-1	-6	-3	-15744	-144	-3992	-10	-17	19	-7080	8280	12616	20	-5	-14	-16312	728	-3072	7	-10	19	-15872	2392	-3024	-14	-2	-2	120	134	8
-7704	-7512	12044	-11	16	-25	-15808	-2000	-3192	-3	0	-7	-15768	-56	-4192	-14	-19	18	-7152	8424	12440	21	-8	-19	-16232	728	-3144	-2	-3	15	-15808	2152	-3032	-4	-3	2	120	133	8
-7712	-7548	11980	-11	12	-25	-15784	-1776	-3128	-5	-2	-4	-15648	-216	-3952	-20	-23	15	-7136	8352	12944	16	1	-16	-16216	584	-3008	-13	-7	18	-15904	2344	-2976	14	-2	6	120	133	8
-7676	-7496	11960	-13	14	-25	-15720	-1848	-3072	-3	-5	-5	-15704	-240	-3856	-14	-23	12	-7104	8480	12512	16	-2	-22	-16224	560	-3096	1	-4	16	-15880	2280	-3160	17	2	6	121	133	8
-7744	-7468	12048	-14	14	-25	-15672	-1888	-3280	4	-1	-6	-15744	-224	-3968	-2	-20	17	-7080	8440	12712	19	-7	-21	-16264	720	-2984	13	-6	19	-15952	2272	-2632	17	-4	4	120	133	8
-7732	-7472	12036	-9	10	-26	-15728	-2000	-3480	4	-2	-5	-15736	-136	-4072	2	-20	19	-7184	8576	12760	19	-4	-15	-16272	712	-3040	15	-1	18	-15936	2376	-3032	16	-7	7	121	133	8
-7716	-7480	12056	-16	12	-20	-15800	-1912	-3208	2	4	-5	-15544	-304	-4040	8	-20	19	-7168	8504	12504	15	-4	-17	-16416	680	-3008	3	-1	19	-16064	2320	-3056	19	-4	7	120	132	8
-7648	-7468	12004	-11	9	-23	-15728	-1984	-3064	1	-5	-8	-15688	-168	-4104	4	-20	25	-7088	8352	12832	14	-2	-17	-16200	736	-3200	-1	-6	21	-15992	2440	-3000	20	-1	0	120	133	8
-7680	-7480	11996	-7	13	-21	-15768	-1792	-3288	5	-3	-8	-15704	24	-3904	6	-30	21	-7024	8336	12608	18	-5	-17	-16312	792	-3008	7	-10	19	-15856	2272	-3040	21	3	9	120	134	8
-7692	-7496	12028	-8	10	-28	-15760	-1864	-3104	-2	-4	-5	-15784	8	-3808	0	-27	20	-7152	8264	12600	16	-11	-18	-16288	728	-3304	15	-11	20	-15848	2376	-2880	21	-5	11	119	134	8
-7648	-7524	12044	-10	10	-26	-15712	-1944	-3368	1	-9	-9	-15688	-176	-3840	-3	-25	15	-7056	8448	12752	14	-3	-20	-16336	704	-3176	19	-13	19	-15912	2304	-2968	22	-6	8	119	133	8
-7704	-7436	11980	-13	12	-23	-15888	-2024	-3184	-1	-7	-7	-15768	-96	-4080	-7	-20	21	-7128	8464	12712	17	-3	-18	-16304	752	-3160	14	-14	22	-16080	2344	-2888	16	-6	6	119	133	8
-7716	-7460	11888	-9	14	-20	-15864	-1960	-3280	3	-10	0	-15808	-176	-3864	-7	-15	13	-7088	8448	12664	16	-4	-22	-16320	608	-3160	9	-7	16	-15872	2328	-2656	8	-6	4	120	133	8
-7648	-7472	11988	-12	12	-26	-15712	-1824	-3296	2	-6	-6	-15648	-232	-3856	-6	-21	16	-7056	8416	12728	18	-4	-22	-16224	616	-2992	1	-13	24	-15880	2424	-3072	14	-1	2	119	133	8
-7672	-7520	12072	-10	14	-22	-15864	-1888	-3376	-1	-7	-3	-15632	-320	-3632	-9	-21	14	-7096	8432	12600	21	-5	-19	-16256	680	-3200	8	-11	20	-15888	2320	-3120	13	0	2	119	134	8
-7712	-7576	11972	-12	15	-26	-15680	-1896	-3216	-2	-5	-4	-15736	-128	-3848	-6	-22	20	-7040	8520	12672	23	-4	-17	-16464	880	-3152	9	-10	21	-15968	2328	-2872	18	0	7	120	133	8
-7676	-7500	12008	-12	12	-24	-15744	-1928	-3408	0	-1	-4	-15664	-128	-3832	-7	-21	23	-7080	8400	12512	21	1	-20	-16328	752	-3272	8	-16	20	-15904	2368	-3160	29	-4	11	120	133	8
-7676	-7504	11968	-12	13	-23	-15760	-1816	-3368	-2	-4	-1	-15848	72	-4056	-4	-21	23	-7088	8504	12360	18	-4	-23	-16312	696	-3344	14	-11	19	-15808	2360	-3096	34	-10	8	119	133	8
-7720	-7500	11928	-10	17	-27	-15728	-1832	-3288	-2	-9	-4	-15760	0	-3856	2	-18	21	-7096	8560	12696	18	-5	-22	-16312	712	-3208	17	-10	20	-15840	2304	-2872	31	-7	13	120	133	8
-7732	-7496	12008	-10	15	-23	-15744	-1832	-3344	-6	-5	-1	-15568	-72	-4032	6	-17	21	-7096	8504	12552	20	-4	-22	-16384	680	-3200	29	-11	19	-15960	2272	-2768	42	-4	14	119	133	8
-7668	-7480	11968	-11	14	-22	-15744	-2048	-3240	-2	-13	-4	-15712	-104	-3880	-1	-22	20	-7080	8488	12632	16	-3	-17	-16376	800	-3208	19	-15	21	-15912	2440	-2840	37	-9	7	119	133	8
-7684	-7484	11948	-14	11	-22	-15656	-1976	-3072	3	-2	-4	-15688	-144	-3880	-5	-27	17	-7048	8456	12672	22	6	-20	-16336	712	-3384	10	-11	23	-15760	2336	-2848	29	-8	9	119	133	8
-7764	-7472	12012	-10	13	-26	-15856	-1920	-3248	-3	-7	-6	-15720	-176	-3776	-4	-24	17	-7352	8440	12592	19	-4	-23	-16136	632	-3264	2	-14	25	-15872	2336	-2680	15	-7	7	119	133	8
-7652	-7492	11984	-13	17	-26	-15680	-1976	-3288	-7	-4	-3	-15624	-168	-3744	-4	-24	21	-7064	8456	12264	21	-3	-17	-16344	560	-3000	22	-12	18	-15856	2328	-2984	16	-7	0	119	133	8
-7656	-7548	11876	-12	15	-24	-15728	-1896	-3136	-16	-7	-2	-15760	-80	-3696	-4	-19	20	-7176	8424	12688	22	-3	-21	-16272	856	-3352	25	-13	17	-15992	2352	-2768	28	-7	5	119	133	8
-7740	-7456	12008	-11	13	-19	-15696	-1800	-3296	-5	-8	-5	-15616	-128	-3544	-3	-22	15	-7096	8440	12456	21	-7	-21	-16160	784	-3032	14	-10	16	-15720	2272	-2856	29	-4	7	119	133	8
-7696	-7500	11944	-8	15	-29	-15672	-1896	-3240	4	-8	-7	-15752	-56	-3768	-6	-25	17	-7008	8392	12696	22	0	-18	-16288	768	-3288	4	-10	20	-15904	2616	-2656	31	-1	4	119	133	8
-7704	-7552	12024	-13	12	-23	-15768	-1752	-3256	3	-6	-3	-15768	-8	-3792	1	-19	14	-7176	8400	12640	19	-6	-19	-16336	720	-3072	10	-5	18	-15968	2336	-3016	29	-3	5	120	133	8
-7660	-7480	12008	-12	14	-24	-15792	-1808	-3272	-9	-6	-9	-15624	-240	-3968	-8	-22	11	-7128	8544	12712	21	-4	-17	-16288	704	-3352	15	-7	20	-15840	2408	-3032	24	0	2	120	133	8
-7700	-7536	12040	-15	14	-28	-15816	-2040	-3240	-11	-9	-9	-15760	-128	-3512	-15	-23	15	-7024	8432	12840	20	-3	-19	-16288	840	-3256	15	-10	19	-15872	2400	-3136	18	-5	-3	120	132	8
-7724	-7556	11952	-13	15	-23	-15704	-1952	-3344	-6	-7	-9	-15752	-160	-3776	-18	-23	12	-7264	8464	12624	23	-9	-21	-16400	696	-3272	9	-12	16	-15912	2392	-2936	12	-2	-6	120	132	8
-7716	-7448	12056	-15	14	-24	-15760	-1944	-3104	1	-9	-6	-15800	-120	-3960	-16	-23	14	-7144	8432	12776	14	-6	-21	-16240	760	-3384	5	-13	16	-15984	2232	-2904	11	-1	-2	120	133	8
-7736	-7488	11936	-14	11	-27	-15696	-1872	-3240	2	-6	-8	-15696	48	-4016	-10	-20	13	-7120	8328	12488	18	-3	-14	-16184	776	-3200	8	-19	18	-15840	2384	-3032	13	-2	6	120	133	8
-7712	-7484	12068	-12	15	-22	-15896	-1864	-2952	-1	-5	-7	-15696	-80	-3656	-9	-24	11	-7120	8416	12712	15	-5	-21	-16104	704	-3048	7	-14	16	-15936	2512	-2816	18	-6	5	121	133	8
-7668	-7544	12048	-13	10	-28	-15792	-2032	-3184	4	-7	-8	-15712	-152	-3608	-8	-22	9	-7200	8448	12680	19	1	-19	-16264	776	-2936	11	-9	21	-15848	2440	-2744	22	-2	0	120	132	8
-7704	-7472	11932	-14	14	-21	-15680	-1888	-3240	4	-9	-4	-15704	-136	-3688	-3	-21	9	-7176	8488	12640	19	1	-19	-16280	792	-3184	8	-10	20	-15968	2320	-2984	26	-2	2	120	132	8
-7636	-7428	12024	-15	14	-20	-15776	-1880	-3432	5	-6	-7	-15720	-16	-3680	-2	-20	13	-7248	8544	12616	20	-6	-21	-16424	696	-3320	-1	-11	17	-15776	2360	-2768	26	1	3	120	132	8
-7744	-7512	11956	-11	13	-22	-15824	-1912	-3112	5	-7	-4	-15664	-152	-3784	-5	-22	17	-7048	8400	12696	18	-2	-22	-16264	712	-3176	0	-16	18	-15744	2352	-3048	31	4	0	119	132	8
-7720	-7492	12084	-17	17	-23	-15744	-1856	-2968	-5	-3	-9	-15848	-256	-3736	-3	-16	16	-7096	8376	12632	18	1	-21	-16360	592	-3480	13	-19	17	-15904	2360	-2816	28	11	0	119	132	8
-7708	-7528	12004	-15	14	-25	-15648	-1784	-3376	-8	-7	-8	-15776	-144	-3576	-6	-14	19	-7008	8360	12744	21	-7	-22	-16256	696	-2992	31	-20	14	-15944	2392	-2976	29	3	-3	119	132	8
-7664	-7468	12040	-15	15	-22	-15840	-1808	-3216	-1	-3	-13	-15760	-176	-3736	-9	-18	12	-7112	8464	12768	17	-2	-21	-16280	792	-3144	21	-20	17	-15888	2536	-2760	23	-1	0	120	132	8
-7712	-7460	11944	-8	11	-25	-15584	-1800	-3296	8	-4	-12	-15624	-224	-3624	-5	-14	12	-7056	8440	12600	15	-5	-21	-16440	832	-3008	7	-15	15	-15896	2440	-2800	22	-4	3	120	132	8
-7664	-7512	11960	-12	10	-20	-15800	-1888	-3136	7	2	-17	-15704	-104	-3840	-8	-11	13	-7096	8344	12760	19	-4	-22	-16336	824	-3192	1	-5	7	-15968	2496	-2792	23	-8	3	119	132	8
-7648	-7496	12064	-9	13	-27	-15840	-1792	-3144	7	2	-14	-15776	-232	-3752	-8	-10	12	-7104	8296	12360	14	-10	-18	-16400	800	-2976	2	-6	12	-16144	2448	-2880	15	6	1	119	132	8
-7740	-7508	11896	-10	14	-21	-15688	-1776	-3392	8	5	-13	-15736	-104	-3624	-2	-10	13	-7104	8352	12768	17	-5	-19	-16312	872	-2936	5	-9	11	-15992	2384	-2808	21	12	-6	119	133	8
-7704	-7544	11988	-9	12	-25	-15728	-1920	-3224	4	1	-6	-15712	-104	-3848	-5	-9	11	-7128	8520	12920	14	-4	-22	-16328	800	-3232	7	-10	15	-15864	2400	-2680	23	13	-7	120	133	8
-7644	-7460	11968	-6	10	-21	-15776	-1864	-3472	5	0	-12	-15776	-128	-3808	-1	-6	21	-7176	8384	12608	14	1	-23	-16264	712	-3344	2	-9	14	-15960	2392	-3056	36	13	-4	120	133	8
-7756	-7528	12016	-12	12	-24	-15776	-1872	-3224	0	3	-12	-15776	-216	-3840	8	-9	21	-7312	8432	12656	18	-1	-18	-16456	664	-2880	10	-7	12	-15904	2400	-2936	40	11	1	119	133	8
-7664	-7548	11972	-9	11	-23	-15856	-1936	-3184	4	0	-15	-15656	-128	-3968	8	-6	18	-6984	8480	12792	20	-5	-22	-16328	792	-3224	19	-9	12	-15976	2456	-3072	45	10	-1	119	133	8
-7668	-7540	12028	-12	14	-21	-15864	-2008	-3272	10	1	-8	-15872	-200	-3624	10	-5	16	-7104	8424	12384	21	-2	-22	-16360	840	-3136	19	-8	12	-16024	2248	-2928	49	11	1	119	133	8
-7696	-7468	11864	-11	14	-25	-15856	-1776	-3064	6	3	-6	-15616	-152	-3784	4	-9	15	-7136	8440	12528	15	-1	-21	-16440	672	-3008	16	-11	16	-15824	2408	-2728	48	5	1	119	133	8
-7692	-7536	12040	-11	10	-29	-15688	-1832	-3328	12	8	-8	-15648	-40	-3640	6	-5	20	-7080	8408	12528	22	0	-25	-16296	536	-3072	23	-13	12	-15896	2216	-3304	52	12	-4	119	132	8
-7676	-7520	12072	-14	12	-26	-15712	-1752	-3448	2	9	-10	-15848	-144	-3608	0	3	17	-6944	8424	12704	23	-7	-21	-16248	784	-3256	31	-16	14	-15952	2336	-2984	41	11	-4	120	132	8
-7716	-7472	12068	-13	17	-21	-15912	-1864	-3280	-2	8	-10	-15760	0	-3728	-4	0	20	-7120	8384	12744	19	-1	-16	-16344	840	-3272	21	-14	15	-15816	2384	-2864	26	8	-3	119	132	8
-7744	-7444	11928	-13	17	-26	-15840	-1952	-3128	5	9	-12	-15880	-152	-3776	1	6	24	-7192	8584	12712	22	-3	-25	-16352	704	-3016	2	-11	13	-15976	2560	-2968	19	8	-2	119	132	8
-7756	-7524	11980	-11	15	-23	-15752	-1848	-3256	10	6	-13	-15672	-216	-3808	14	7	24	-7112	8336	12536	20	0	-23	-16344	608	-3288	1	-6	12	-15888	2568	-2888	14	13	-4	119	132	8
-7724	-7500	12008	-15	14	-16	-15688	-1904	-3424	5	5	-9	-15800	-80	-3888	18	3	19	-7056	8360	12624	19	-6	-24	-16392	648	-3064	14	-4	11	-15968	2392	-2760	14	14	-8	119	132	8
-7728	-7428	12016	-11	15	-23	-15664	-2040	-3248	3	6	-10	-15760	-168	-3736	17	-3	13	-6944	8552	12632	17	3	-21	-16208	760	-3000	13	2	12	-15848	2344	-2928	15	20	-10	119	132	8
-7672	-7508	12064	-13	14	-19	-15752	-1888	-3112	-1	7	-15	-15816	-16	-3840	-1	-7	15	-7168	8408	12672	19	-8	-22	-16184	768	-3344	6	0	15	-15848	2232	-3368	26	17	-9	120	131	8
-7764	-7524	11936	-11	15	-21	-15704	-1976	-3208	3	9	-11	-15792	-96	-3856	-8	-5	15	-7088	8264	12536	20	1	-20	-16376	696	-3200	2	3	7	-15952	2408	-3104	28	18	-5	120	132	8
-7704	-7524	11944	-14	13	-22	-15776	-1736	-3248	0	8	-13	-15640	-216	-3904	-6	1	20	-7040	8440	12584	17	-3	-23	-16288	720	-3064	8	2	8	-15936	2512	-3104	26	18	-5	120	132	8
-7792	-7496	12020	-14	14	-21	-15728	-1992	-3408	-2	2	-11	-15760	-184	-3912	0	-2	18	-7200	8240	12728	16	1	-23	-16224	704	-3096	10	3	6	-15960	2320	-3136	20	18	-9	119	132	8
-7636	-7476	12012	-13	13	-25	-15608	-1920	-3216	3	1	-14	-15840	-216	-3752	3	-3	12	-7120	8464	12480	13	2	-22	-16232	776	-3080	18	-2	13	-15896	2440	-2976	17	11	-10	120	132	8
-7712	-7504	12008	-14	15	-17	-15768	-1792	-3288	9	5	-12	-15688	-152	-3680	-1	-6	12	-7176	8384	12744	15	-8	-23	-16376	648	-3360	23	1	15	-15888	2320	-2872	6	11	-8	120	132	8
-7660	-7504	12104	-14	15	-28	-15664	-1920	-3344	0	3	-9	-15696	-80	-3744	-16	-5	9	-7176	8448	12776	13	-4	-19	-16296	704	-3240	8	0	10	-15976	2288	-2960	-5	13	-12	120	132	8
-7668	-7524	12116	-15	14	-24	-15656	-1792	-3432	-5	1	-14	-15744	-216	-3808	-21	-4	5	-7032	8520	12592	16	-5	-20	-16336	720	-3112	-17	7	10	-15904	2392	-2936	-17	16	-10	120	132	8
-7692	-7520	12088	-13	12	-25	-15672	-2008	-3184	-7	0	-17	-15680	-112	-3840	-21	-8	7	-7048	8304	12576	17	-2	-24	-16336	696	-3192	-24	6	12	-15960	2336	-2840	-16	17	-10	120	131	8
-7712	-7448	12088	-11	11	-20	-15704	-1848	-3448	7	5	-15	-15672	-184	-3992	-13	-3	13	-7184	8464	12672	21	-5	-19	-16280	576	-3224	-11	13	11	-15896	2376	-2992	-11	15	-8	120	132	8
-7712	-7500	11952	-6	12	-21	-15824	-1816	-3200	10	11	-9	-15680	-240	-4008	2	-1	16	-7096	8368	12528	18	-3	-21	-16288	688	-3200	9	7	16	-15856	2264	-2968	-2	16	-6	120	132	8
-7696	-7588	12072	-12	14	-23	-15776	-1896	-3104	13	7	-11	-15672	-336	-3920	12	-2	19	-7168	8448	12560	17	-4	-21	-16328	664	-3384	5	7	16	-15952	2120	-3104	14	12	-1	120	132	8
-7704	-7476	11868	-12	14	-19	-15760	-2056	-3144	9	9	-6	-15752	-288	-3872	19	-6	20	-7064	8448	12744	19	0	-21	-16280	736	-3160	2	4	15	-15872	2224	-3288	28	9	1	120	132	8
-7740	-7508	11936	-2	9	-22	-15768	-1912	-3256	13	9	-4	-15560	-336	-3856	18	-8	26	-7136	8464	12656	15	-3	-23	-16264	656	-3288	8	-1	15	-15960	2168	-3032	38	6	4	121	132	8
-7696	-7480	11840	-3	10	-28	-15712	-1864	-3352	7	8	-10	-15608	-72	-3872	20	-10	29	-7128	8400	12536	13	-5	-16	-16280	688	-3048	11	-4	19	-15952	2160	-3096	34	3	8	120	132	8
-7784	-7520	11940	-7	6	-22	-15808	-1936	-3200	9	6	-7	-15744	-192	-3992	17	-10	31	-7160	8456	12728	21	-8	-21	-16312	736	-3056	14	-11	19	-15912	2376	-3456	35	1	11	120	131	8
-7732	-7472	12032	-10	10	-24	-15832	-2032	-3216	18	6	-10	-15824	-152	-4144	22	-7	32	-7160	8496	12704	25	3	-24	-16344	784	-3376	14	-16	16	-15928	2384	-3136	39	-1	10	119	131	8
-7740	-7448	12028	-13	12	-26	-15824	-1888	-3728	10	4	-6	-15808	96	-3928	16	-8	29	-7144	8400	12496	22	-1	-23	-16448	880	-3088	8	-12	16	-15904	2480	-3072	41	-7	11	120	132	8
-7760	-7532	12036	-10	13	-25	-15720	-1880	-3256	5	0	-7	-15600	-72	-3736	11	-12	24	-7192	8528	12800	20	-4	-23	-16264	840	-3472	12	-17	18	-15728	2432	-3192	27	-6	11	120	132	8
-7700	-7444	11984	-11	16	-26	-15680	-1896	-3336	-4	-6	-11	-15672	32	-3792	0	-22	16	-7264	8384	12440	19	-3	-20	-16152	640	-3128	15	-13	18	-15904	2392	-2968	17	-8	5	119	132	8
-7652	-7500	11944	-12	13	-21	-15848	-1816	-3280	5	-5	-7	-15672	0	-3904	-8	-20	13	-7128	8408	12456	16	1	-17	-16312	744	-3232	11	-11	18	-15992	2288	-3024	5	-9	1	119	132	8
-7680	-7504	11920	-14	13	-21	-15840	-1912	-3376	8	-6	-9	-15800	-48	-3960	-17	-28	5	-7120	8408	12632	15	2	-17	-16208	744	-3016	1	-8	18	-15824	2376	-2736	-1	-4	1	119	132	8
-7628	-7456	11944	-12	16	-21	-15688	-1888	-3480	9	-6	-10	-15512	-256	-3816	-18	-20	11	-7136	8464	12704	16	-3	-23	-16312	832	-3232	4	-5	14	-15944	2360	-2912	9	0	-4	119	133	8
-7684	-7520	11956	-13	14	-24	-15744	-1896	-3336	-4	-10	-10	-15624	-40	-3888	-23	-18	6	-7144	8456	12472	18	-5	-20	-16296	592	-3304	1	-5	17	-15848	2312	-3136	22	3	0	119	132	8
-7712	-7488	12032	-15	13	-22	-15712	-1872	-3144	-9	-7	-5	-15952	-216	-3800	-17	-24	10	-7104	8304	12792	18	-9	-18	-16440	640	-3008	9	-9	16	-15912	2272	-2928	19	4	1	119	132	8
-7764	-7492	12012	-14	13	-25	-15760	-1768	-3320	-9	-8	-4	-15664	-208	-3768	-8	-22	11	-7136	8424	12664	20	-5	-19	-16464	792	-3288	10	-5	19	-16072	2240	-3096	25	0	-2	119	132	8
-7764	-7528	12052	-12	9	-23	-15728	-2000	-3336	5	-4	-6	-15568	-80	-3800	-5	-29	12	-7224	8464	12408	23	1	-20	-16352	688	-3032	13	-4	15	-15832	2288	-3192	32	1	8	119	132	8
-7696	-7544	11976	-10	12	-23	-15768	-1920	-3112	5	-6	-6	-15616	-80	-3744	-2	-31	17	-7064	8512	12496	21	-2	-18	-16296	920	-3392	10	-6	18	-15744	2384	-3000	39	-6	11	119	133	8
-7688	-7448	11964	-13	11	-22	-15704	-1896	-3208	3	-4	-10	-15736	-40	-3944	-8	-22	20	-7104	8528	12800	18	-4	-21	-16136	568	-3200	16	-11	20	-15824	2368	-2992	34	-9	14	119	132	8
-7704	-7508	11960	-13	14	-30	-15856	-1880	-3296	5	-3	-7	-15648	-88	-3976	-9	-16	19	-7016	8424	12592	18	0	-20	-16232	664	-3152	21	-14	20	-15800	2272	-3336	32	-6	8	119	132	8
-7724	-7480	12056	-6	12	-25	-15832	-2008	-3480	5	-6	-2	-15720	-200	-4120	-4	-14	17	-7144	8416	12736	20	-5	-18	-16400	784	-3032	20	-11	21	-15912	2360	-3016	30	-7	3	119	132	8
-7696	-7500	11988	-9	16	-25	-15800	-1888	-3264	9	-4	-8	-15656	-192	-3728	-4	-14	17	-7136	8384	12632	21	0	-25	-16312	752	-3016	16	-17	15	-15736	2432	-3056	21	-13	5	119	132	8
-7684	-7504	12052	-13	10	-23	-15672	-1992	-3184	6	-4	-9	-15696	-288	-3856	9	-20	22	-7048	8368	12392	18	-1	-18	-16248	800	-3272	10	-14	18	-15928	2416	-2872	14	-8	8	119	132	8
-7624	-7508	11916	-7	15	-23	-15624	-1784	-3296	4	-6	-8	-15560	-184	-3784	16	-15	22	-7192	8520	12768	19	-6	-22	-16424	648	-3056	7	-14	21	-16032	2456	-2768	17	-6	6	119	132	8
-7724	-7556	11940	-15	11	-28	-15808	-1880	-3136	5	-7	-5	-15648	-232	-3856	20	-19	25	-7120	8480	12736	17	0	-17	-16304	640	-3096	16	-9	15	-15992	2344	-2768	25	-3	1	119	132	8
-7700	-7516	12012	-14	11	-28	-15880	-1888	-3520	4	-2	-9	-15720	-136	-3672	19	-21	21	-7144	8400	12528	16	-4	-18	-16184	672	-2960	19	-1	16	-15776	2264	-3088	44	0	2	120	132	8
-7700	-7544	11980	-14	10	-25	-15912	-1856	-3168	6	-4	-7	-15712	-112	-3752	14	-15	23	-7080	8344	12640	24	0	-18	-16360	608	-3192	21	-7	18	-15952	2184	-3160	57	4	2	120	132	8
-7660	-7532	12004	-13	12	-24	-15640	-1904	-3312	9	0	-12	-15704	-56	-3984	6	-10	28	-7120	8432	12448	22	5	-20	-16360	776	-3368	22	-8	14	-15944	2384	-2888	61	1	4	120	133	8
-7644	-7400	12028	-16	18	-23	-15760	-1880	-3040	15	-3	-14	-15632	-144	-3840	8	-7	31	-7136	8288	12664	24	-2	-20	-16312	792	-3192	23	-5	17	-15888	2240	-2976	63	2	1	120	133	8
-7772	-7668	11888	-11	15	-27	-15640	-1920	-3256	-1	-1	-10	-15608	-56	-3696	8	-11	23	-7112	8448	12528	22	4	-21	-16360	704	-3208	31	-12	18	-15784	2304	-3072	44	-10	1	119	133	8
-7748	-7412	11984	-10	13	-28	-15768	-1848	-3024	26	-7	-12	-15656	-72	-3736	15	-12	17	-7192	8416	12416	21	1	-20	-16184	752	-3000	44	-10	16	-15936	2008	-2864	33	-17	0	119	133	8
-7712	-7500	11968	-15	13	-34	-15680	-1872	-3144	47	-7	-15	-15760	-8	-3992	18	-15	22	-7120	8416	12432	22	5	-21	-16232	608	-2864	61	-5	16	-15784	2192	-2784	64	-25	-11	119	133	8
-7720	-7580	11964	-19	19	-25	-15896	-2032	-3240	62	-10	-20	-15752	8	-3880	28	-20	26	-7104	8384	12704	23	0	-17	-16408	672	-2944	78	-1	20	-15832	2408	-2944	121	-19	0	119	133	8
-7728	-7620	11936	-16	18	-25	-15840	-1792	-3312	42	-10	-11	-15896	-96	-3720	19	-17	20	-7120	8480	12576	23	2	-24	-16328	744	-3088	59	-2	25	-16024	2328	-3072	113	-10	4	119	133	8
-7732	-7460	11880	-17	15	-22	-15832	-1800	-3392	5	-17	-14	-15776	-136	-4088	20	-24	5	-7104	8432	12536	32	11	-16	-16240	664	-3168	46	2	20	-15688	2376	-2992	93	-3	-33	119	133	8
-7652	-7484	12012	-19	20	-28	-15848	-1992	-3248	5	-21	-16	-15640	136	-3680	11	-32	10	-7088	8416	12312	32	3	-16	-16296	648	-3200	34	0	23	-15744	2656	-2800	56	44	-27	119	133	8
-7724	-7484	12044	-16	20	-28	-15784	-1984	-3336	35	-20	-17	-15736	96	-3904	-8	-36	3	-7104	8440	12584	29	-1	-22	-16256	888	-2896	9	9	24	-15760	2560	-2648	-14	22	-30	119	133	8
-7668	-7676	11836	-18	19	-25	-15792	-2040	-3224	56	-26	-15	-15848	56	-4312	-12	-40	-12	-7088	8256	12792	25	1	-20	-16288	776	-2984	8	16	16	-15680	2520	-2696	-34	15	-49	119	133	8
-7696	-7604	11956	-15	18	-29	-15792	-1808	-3312	25	-30	-22	-15672	24	-4240	-38	-42	-23	-7248	8584	12504	18	0	-20	-16376	904	-3112	4	21	14	-15800	2808	-2880	-28	21	-42	119	133	8
-7692	-7500	11956	-21	17	-27	-15632	-1616	-3312	-40	-37	-17	-15544	-56	-3776	-74	-43	-38	-7224	8496	12600	13	4	-20	-16368	936	-3328	-16	25	4	-15816	2840	-2880	-37	27	-37	119	133	8
-7784	-7556	11968	-18	15	-19	-15632	-1992	-3344	-59	-44	-24	-15784	144	-3832	-104	-54	-48	-7200	8424	12632	14	3	-25	-16424	920	-3520	-42	27	1	-15936	2696	-2928	-70	49	-58	119	134	8
-7724	-7564	11868	-16	15	-24	-15784	-2048	-3248	-23	-39	-28	-15632	144	-3984	-106	-52	-49	-7200	8304	12408	15	-1	-20	-16328	608	-3448	-48	28	1	-15832	2488	-3040	-129	58	-67	119	133	8
-7668	-7652	11996	-20	15	-25	-15720	-1920	-3136	-2	-41	-21	-15872	-264	-3848	-131	-65	-64	-7152	8480	12640	12	-4	-22	-16440	632	-3432	-49	24	-3	-16048	2408	-3080	-169	62	-71	119	132	8
-7680	-7536	11952	-13	14	-21	-15792	-1648	-3328	-22	-46	-19	-15848	-136	-3904	-143	-68	-72	-7088	8496	12592	14	-5	-18	-16312	768	-2992	-57	29	-9	-15856	2456	-2768	-191	61	-69	119	133	8
-7732	-7516	11872	-23	14	-22	-15744	-1936	-3104	-46	-52	-36	-15776	-48	-3960	-140	-58	-67	-7064	8568	12480	10	0	-20	-16288	880	-2848	-90	39	-9	-15808	2496	-3088	-187	62	-64	119	134	8
-7632	-7552	11928	-17	14	-24	-15680	-2008	-3264	-53	-51	-27	-15616	-168	-3744	-146	-53	-68	-7120	8528	12904	6	-5	-20	-16368	824	-3232	-103	35	-14	-15712	2416	-2960	-174	75	-71	119	134	8
-7692	-7540	11976	-15	12	-27	-15744	-1888	-3168	-50	-47	-28	-15744	-328	-3576	-150	-54	-73	-7224	8592	12616	5	-9	-23	-16408	568	-3344	-97	32	-14	-15808	2432	-3048	-176	83	-77	120	134	8
-7736	-7540	12020	-17	17	-25	-15880	-1824	-2840	-42	-46	-29	-15776	-296	-3600	-145	-63	-79	-7144	8424	12432	6	-7	-18	-16272	552	-3248	-77	33	-15	-15768	2416	-3016	-204	87	-81	119	133	8
-7712	-7580	12040	-18	16	-26	-15848	-2000	-3072	-37	-45	-32	-15872	-200	-3568	-135	-64	-76	-7168	8328	12480	3	-10	-23	-16240	792	-3264	-80	32	-19	-15776	2352	-3032	-224	77	-87	120	133	8
-7732	-7556	12044	-12	17	-25	-15848	-1984	-3160	-32	-45	-27	-15832	-400	-3464	-132	-56	-73	-7312	8560	12696	3	-7	-21	-16392	784	-3296	-100	45	-24	-15888	2192	-2944	-232	79	-88	119	133	8
-7680	-7528	11940	-19	17	-24	-15832	-1912	-3056	-38	-32	-27	-15856	-464	-3408	-133	-42	-71	-7096	8344	12512	-1	-14	-20	-16136	696	-3328	-111	48	-30	-15848	2216	-3016	-235	78	-88	119	133	8
-7724	-7504	11928	-21	17	-26	-15680	-1848	-3144	-68	-34	-34	-15912	-248	-3416	-136	-30	-59	-6968	8352	12584	1	-9	-24	-16296	616	-2920	-97	56	-27	-16112	2344	-2840	-220	76	-95	119	133	8
-7640	-7472	12060	-20	24	-21	-15800	-1848	-2768	-93	-29	-35	-15960	-376	-3104	-143	-30	-50	-7256	8360	12680	5	-8	-23	-16328	632	-3304	-84	64	-29	-16136	1984	-3016	-204	85	-93	119	133	8
-7720	-7624	12000	-24	27	-19	-15768	-1936	-2816	-99	-19	-28	-15936	-608	-3184	-162	-26	-60	-7200	8496	12752	3	-6	-29	-16120	648	-3336	-67	70	-27	-15928	1904	-2864	-184	92	-97	119	133	8
-7704	-7516	11904	-25	18	-19	-15552	-2264	-2832	-65	-4	-32	-15712	-600	-3312	-162	-18	-70	-7112	8336	12568	6	-10	-20	-16048	576	-3528	-70	76	-23	-15928	2144	-3072	-165	99	-97	119	133	8
-7692	-7512	11992	-14	19	-20	-15728	-2136	-3200	-50	8	-22	-15768	-824	-3384	-180	-2	-45	-7136	8416	12704	-1	0	-31	-16168	496	-3552	-73	75	-10	-15872	1688	-3368	-157	98	-91	120	133	8
-7684	-7640	11828	-19	15	-20	-15880	-2144	-2992	-46	7	-19	-15744	-904	-3576	-171	2	-40	-7176	8448	12672	3	-4	-26	-16320	408	-3648	-62	72	-13	-15888	1848	-3352	-156	98	-90	120	133	8
-7696	-7508	12008	-10	12	-23	-15856	-1984	-3048	-61	9	-19	-15688	-704	-3624	-113	8	-36	-7216	8264	12528	6	-7	-24	-16264	464	-3472	-63	65	-8	-15952	1488	-3488	-137	109	-74	120	133	8
-7772	-7564	12048	-5	14	-22	-15784	-1936	-3040	-84	11	-14	-15552	-768	-3616	-81	11	-14	-7104	8456	12624	10	-9	-24	-16168	552	-3736	-59	66	-7	-15856	1552	-3624	-81	85	-44	120	133	8
-7708	-7592	11924	-9	13	-20	-15816	-2272	-3216	-47	14	-9	-15640	-848	-3400	-60	1	7	-7040	8480	12680	6	-7	-22	-16472	384	-3936	-40	47	6	-15776	1760	-3952	-40	75	-38	120	133	8
-7744	-7556	11992	-13	16	-26	-15944	-2016	-3184	3	25	-9	-15672	-872	-4248	-16	1	8	-7056	8384	12624	10	-9	-21	-16304	432	-3680	-26	52	-1	-15800	2040	-3720	-32	45	-28	120	133	8
-7740	-7492	11852	-9	14	-21	-15960	-2088	-3208	-1	22	-2	-15688	-776	-3880	5	-5	8	-7104	8456	12456	13	-11	-24	-16184	432	-3528	-10	43	14	-15784	1856	-4056	-59	27	-21	120	134	8
-7708	-7568	11960	-9	13	-21	-15800	-2040	-3224	-8	8	2	-15496	-384	-4400	13	-9	7	-7152	8344	12696	12	-6	-23	-16096	680	-3576	-27	39	16	-15784	1680	-3888	-59	18	-14	121	134	8
-7776	-7544	12092	-8	11	-19	-15808	-1928	-3464	-8	12	6	-15648	-296	-4064	10	-17	10	-7128	8296	12608	14	-11	-22	-16152	400	-3896	-29	26	18	-15640	1368	-3920	-45	14	-15	120	134	8
-7716	-7520	12004	-11	11	-22	-15896	-1984	-3400	-3	-1	7	-15776	-312	-4040	4	-27	15	-7256	8464	12672	12	-6	-18	-16304	536	-4208	-10	10	24	-15600	1400	-4248	-10	-4	-4	119	135	8
-7768	-7508	12020	-8	10	-24	-15800	-1928	-3048	6	-6	7	-15624	-464	-4016	6	-37	21	-7136	8400	12864	13	-8	-20	-16168	528	-3752	12	-10	32	-15640	1632	-4120	28	-25	14	120	134	8
-7740	-7572	11964	-11	12	-24	-15768	-1944	-3328	11	-5	9	-15616	-568	-3984	25	-44	25	-7144	8504	12608	11	-1	-15	-16184	672	-3968	25	-16	35	-15840	1768	-3856	53	-45	31	119	135	8
-7688	-7516	11896	-8	11	-28	-15728	-1896	-3112	3	-12	8	-15680	-624	-3616	45	-40	26	-7128	8304	12584	14	-10	-16	-16128	592	-3536	41	-29	37	-15952	1688	-3696	69	-54	50	120	135	8
-7740	-7520	11908	-7	8	-22	-15824	-2088	-3040	7	-7	12	-15648	-736	-3632	60	-43	37	-7096	8496	12688	10	-8	-14	-16016	424	-3856	59	-30	38	-15824	1648	-3720	77	-67	55	119	135	8
-7756	-7556	11916	-3	12	-23	-15896	-1928	-2688	30	-5	13	-15936	-632	-3392	69	-35	45	-6984	8392	12712	11	-9	-14	-16224	552	-3840	67	-42	49	-15944	1872	-3504	95	-73	53	119	136	8
-7684	-7504	11932	-6	11	-22	-15888	-2072	-2952	29	2	21	-15832	-592	-3392	77	-27	62	-7096	8384	12752	15	-16	-13	-16376	704	-3496	57	-42	51	-16000	2080	-3568	105	-93	64	120	136	8
-7688	-7508	11936	-8	10	-27	-15648	-1904	-2896	14	7	21	-15704	-704	-3320	94	-24	68	-7104	8416	12728	18	-2	-15	-16272	800	-3448	21	-43	44	-16192	1984	-3192	91	-121	90	119	136	8
-7816	-7556	11980	-2	8	-29	-15832	-2136	-3192	21	10	20	-15744	-768	-3264	108	-22	78	-7048	8368	12744	17	4	-15	-16280	664	-3856	15	-39	50	-16120	2304	-3352	81	-140	113	119	137	8
-7640	-7512	11992	-4	10	-24	-15824	-2024	-2920	44	24	23	-15832	-768	-3472	123	-23	85	-7264	8336	12648	23	-3	-19	-16456	496	-3456	55	-46	53	-15872	1776	-3480	104	-124	132	119	136	8
-7700	-7568	11996	-8	13	-23	-15744	-2128	-3184	60	28	26	-16008	-592	-3240	139	-20	92	-7128	8496	12592	22	-6	-14	-16088	448	-3552	88	-52	59	-15864	1736	-3224	119	-130	127	119	136	8
-7672	-7476	11936	-4	14	-23	-15752	-1872	-3112	43	32	30	-15776	-456	-3568	147	-8	111	-7136	8448	12664	25	-4	-12	-16120	688	-3368	71	-49	67	-15864	1784	-3096	137	-142	134	119	136	8
-7764	-7532	11992	-10	15	-26	-15880	-1920	-3072	18	32	29	-15672	-360	-3528	146	-2	117	-7120	8328	12712	22	-8	-10	-16360	960	-3728	13	-52	67	-15936	1896	-3104	151	-150	135	119	136	8
-7680	-7528	11880	0	8	-23	-15864	-1936	-3016	24	26	28	-15640	-344	-3640	150	6	127	-7216	8512	12608	29	-6	-15	-16368	752	-3576	20	-60	56	-16048	2320	-3280	171	-158	146	119	136	8
-7720	-7484	11936	-6	10	-26	-15824	-1896	-2872	44	31	29	-15616	-384	-3776	154	0	122	-7144	8384	12552	27	4	-16	-16152	512	-3704	79	-63	63	-15848	2240	-3096	178	-139	155	120	136	8
-7696	-7532	11948	-3	8	-23	-15880	-1896	-3248	50	35	29	-15912	-200	-3728	159	-7	114	-7176	8480	12744	24	-3	-13	-16232	752	-3440	137	-71	65	-15848	2288	-2848	193	-139	143	119	137	8
-7688	-7576	12052	-2	11	-22	-15816	-1872	-3088	45	28	28	-15712	-248	-3976	146	-8	118	-7048	8416	12776	27	-4	-12	-16256	880	-3576	108	-72	69	-15560	2032	-2744	201	-122	124	119	137	8
-7684	-7484	12040	-4	14	-22	-15912	-1792	-3176	38	23	24	-15816	-160	-3944	131	-10	114	-7176	8416	12552	31	-5	-13	-16208	760	-3632	104	-70	62	-15840	2384	-2912	229	-108	97	119	137	8
-7728	-7512	12004	-10	10	-21	-15904	-1784	-3344	23	15	28	-15800	104	-3848	116	-12	104	-7168	8512	12680	30	-8	-11	-16400	968	-3576	80	-80	67	-15616	2648	-3120	242	-84	86	119	137	8
-7660	-7484	11956	-9	11	-23	-15840	-1696	-3352	13	10	26	-15712	24	-3912	96	-20	95	-7032	8608	12696	27	-2	-14	-16312	920	-3328	59	-74	55	-15688	2776	-2696	208	-81	79	119	138	8
-7748	-7472	11976	-8	13	-29	-15672	-1816	-3208	12	6	20	-15576	48	-3816	79	-22	81	-7104	8464	12464	24	-2	-17	-16296	1064	-3496	60	-69	46	-15712	2696	-2808	161	-73	70	119	139	8
-7724	-7540	12020	-7	11	-25	-15808	-1800	-3032	16	4	17	-15752	0	-3408	61	-33	73	-7080	8536	12400	23	5	-15	-16224	800	-3096	65	-66	50	-15944	2744	-2736	127	-58	58	119	137	8
-7700	-7508	11924	-9	9	-25	-15832	-1808	-3216	17	-2	15	-15784	-168	-3752	46	-32	61	-7160	8408	12480	24	-3	-17	-16208	720	-3480	70	-61	49	-15904	2520	-2576	122	-46	46	118	136	8
-7672	-7484	11924	-9	14	-21	-15784	-1624	-3336	12	-1	14	-15904	-24	-3560	40	-29	58	-7112	8384	12640	25	-7	-18	-16224	704	-3352	59	-62	52	-15968	2608	-2712	130	-45	38	118	136	8
-7716	-7568	11952	-13	14	-24	-15848	-1776	-3056	2	-5	16	-15768	-176	-3448	36	-20	65	-7112	8464	12480	25	-6	-14	-16280	1056	-3184	30	-60	45	-15848	2584	-2888	127	-54	38	118	137	8
-7724	-7524	11980	-9	14	-24	-15704	-1760	-3240	-5	2	13	-15712	-48	-3584	40	-15	66	-7064	8456	12808	25	-9	-13	-16312	1000	-3176	12	-54	39	-15800	2648	-2504	113	-52	45	118	136	8
-7736	-7476	12008	-5	13	-19	-15728	-1776	-3176	10	1	10	-15768	-168	-3584	70	-18	70	-7192	8512	12536	23	-4	-12	-16336	936	-3192	21	-53	40	-15888	2568	-2608	105	-52	51	118	136	8
-7684	-7532	11984	-11	13	-23	-15688	-1736	-2944	21	9	7	-15648	-264	-3576	80	-19	66	-7104	8480	12688	22	-3	-13	-16392	864	-3168	47	-54	36	-15808	2592	-2888	106	-56	56	118	137	8
-7668	-7544	11848	-7	18	-26	-15880	-1904	-2952	26	12	9	-16000	-128	-3304	83	-18	61	-7064	8208	12488	21	-11	-13	-16160	768	-3264	53	-53	42	-15912	2624	-2920	116	-70	59	117	136	8
-7668	-7456	11980	-8	13	-21	-15768	-1808	-2920	25	12	7	-15632	24	-3376	71	-13	71	-7256	8368	12592	22	-11	-11	-16216	1096	-3392	25	-49	41	-15688	2672	-2800	106	-76	54	117	135	8
-7744	-7536	11932	-6	10	-25	-15688	-1800	-3144	20	13	4	-15792	32	-3624	69	-5	68	-7088	8440	12760	14	-3	-7	-16352	936	-3168	-24	-50	35	-15928	2704	-2704	85	-74	55	117	136	8
-7676	-7472	11864	-6	16	-23	-15608	-1736	-3272	20	14	3	-15720	120	-3560	70	-4	71	-7120	8432	12480	16	-5	-11	-16360	1048	-3264	-41	-47	22	-16048	2760	-2864	55	-70	63	117	136	8
-7640	-7556	12024	-8	12	-25	-15656	-1816	-3224	28	16	2	-15936	-160	-3736	80	-12	66	-7096	8424	12600	15	-10	-10	-16328	784	-3432	-10	-50	25	-15672	2912	-2728	35	-55	58	116	135	8
-7620	-7536	11968	-11	8	-24	-15880	-1808	-3184	35	21	5	-15776	-216	-3472	90	-14	63	-7120	8384	12664	15	-9	-16	-16240	632	-3080	24	-60	22	-15944	2584	-2712	35	-44	49	116	135	8
-7680	-7564	11868	-9	10	-27	-15776	-1664	-3064	29	18	-2	-15784	-160	-3520	100	-9	65	-7024	8448	12640	16	-7	-21	-16216	784	-3208	45	-54	20	-15896	2344	-2528	32	-46	42	116	134	8
-7756	-7492	11984	-3	4	-25	-15800	-1600	-3296	25	12	-3	-15856	0	-3536	112	-5	68	-7096	8304	12704	15	-12	-15	-16344	880	-3072	16	-48	20	-15904	2432	-2512	39	-55	34	115	135	8
-7676	-7544	11984	-5	8	-26	-15768	-1720	-3104	30	15	1	-15904	-80	-3680	105	-1	75	-7160	8360	12776	23	-7	-20	-16336	1016	-2848	-10	-43	18	-15960	2408	-2448	59	-47	33	116	135	8
-7684	-7548	12032	-5	11	-23	-15824	-1824	-3352	38	21	2	-16008	-80	-3800	92	0	76	-7080	8344	12592	18	-5	-19	-16392	816	-3168	7	-38	17	-16080	2616	-2400	86	-36	38	115	134	8
-7716	-7560	11992	-5	11	-28	-15656	-1728	-3192	33	9	-1	-15752	104	-3672	92	3	73	-7160	8360	12736	15	-9	-19	-16272	824	-2920	43	-31	18	-15840	2608	-2400	107	-27	46	116	134	8
-7696	-7560	12024	-2	6	-29	-15784	-1768	-3512	27	11	-1	-15632	152	-3816	80	-8	64	-7184	8456	12808	18	-5	-21	-16408	784	-3192	56	-29	18	-16000	2672	-2616	115	-20	33	115	134	8
-7628	-7512	12016	-3	8	-28	-15816	-1808	-3368	21	4	2	-15832	168	-3656	59	-19	50	-6968	8504	12592	15	-1	-20	-16424	880	-3136	53	-25	16	-15936	2584	-2576	95	-16	27	115	134	8
-7700	-7468	11900	-5	8	-26	-15784	-1616	-3272	16	4	0	-15776	24	-3736	37	-24	39	-7096	8552	12560	24	-5	-21	-16456	800	-3040	48	-21	21	-15984	2416	-2360	87	-18	12	115	133	8
-7688	-7604	11960	0	9	-25	-15784	-1536	-3248	18	-2	-2	-15704	104	-3992	3	-16	30	-7104	8528	12664	19	5	-20	-16368	872	-3328	40	-23	24	-16040	2280	-2440	101	-11	11	115	133	8
-7748	-7564	12080	-9	5	-30	-15840	-1744	-3184	7	-10	0	-15632	216	-3896	-17	-11	30	-7016	8280	12672	29	0	-19	-16344	680	-2896	51	-14	17	-16000	2312	-2792	123	-19	15	115	133	8
-7668	-7408	12084	-5	5	-30	-15888	-1424	-3272	-8	-17	-11	-15624	120	-3896	-12	-2	30	-7160	8368	12856	30	9	-21	-16360	848	-3152	88	-20	25	-15896	2392	-2592	167	-31	14	115	134	8
-7732	-7480	12008	-10	10	-32	-15840	-1904	-3176	12	-20	-9	-15752	-16	-3352	28	-13	42	-7112	8392	12624	34	7	-23	-16328	960	-3088	96	-20	22	-15808	2376	-2760	195	-36	23	115	133	8
-7708	-7520	12096	-10	9	-30	-15856	-1992	-3264	72	-9	-9	-15880	-240	-3304	69	-14	49	-7272	8512	12480	45	5	-18	-16328	880	-3240	107	-21	20	-15944	2528	-2848	232	-49	22	116	133	8
-7708	-7500	11884	-10	6	-28	-15672	-1728	-2888	70	0	2	-15824	-336	-3648	98	-6	46	-7096	8512	12464	41	-1	-19	-16320	648	-3256	135	-28	19	-15928	2880	-2768	253	-42	38	115	134	8
-7664	-7448	12016	-1	7	-32	-15720	-1312	-2936	19	7	-10	-15656	-256	-3320	100	-2	45	-7152	8440	12792	36	9	-23	-16240	696	-2920	137	-32	18	-15768	2816	-2744	227	-53	46	115	134	8
-7660	-7552	11932	4	4	-29	-15800	-1848	-2832	11	10	-17	-15808	-120	-3312	96	-6	62	-7160	8448	12504	36	5	-20	-16272	1024	-3144	111	-29	22	-15776	2704	-2584	175	-49	36	115	133	8
-7704	-7504	11956	1	5	-30	-15864	-1912	-2960	74	23	-12	-15744	104	-3424	116	2	73	-7048	8352	12752	36	4	-17	-16504	960	-2880	70	-20	12	-16200	2656	-2296	143	-52	17	115	133	8
-7664	-7512	11976	0	4	-28	-15856	-1592	-3040	102	29	-21	-15672	-8	-3712	124	13	64	-7120	8280	12608	39	6	-19	-16512	888	-3232	61	-15	16	-16000	2576	-2224	143	-48	8	115	133	8
-7648	-7524	12116	-6	8	-35	-15656	-1792	-3240	123	31	-23	-15904	152	-3728	144	-1	64	-7192	8432	12600	39	-1	-18	-16368	712	-3096	86	-8	10	-15856	2816	-2152	161	-38	9	115	133	8
-7672	-7600	11980	-9	11	-35	-15888	-1656	-3584	145	32	-23	-15792	384	-3720	146	5	63	-6944	8304	12440	28	11	-21	-16264	760	-2888	92	-3	9	-15936	2624	-2448	176	-40	4	115	133	8
-7624	-7480	12040	-5	9	-34	-15776	-1512	-3256	96	20	-26	-15840	304	-3848	136	3	35	-7160	8448	12704	29	9	-22	-16240	848	-3144	108	3	7	-15952	2576	-2456	180	-41	-1	114	134	8
-7584	-7512	12100	-11	9	-32	-15800	-1800	-3560	47	10	-28	-15808	464	-3880	99	-11	12	-7240	8320	12512	38	3	-24	-16352	832	-3000	103	4	14	-16080	2576	-2096	178	-39	-8	114	133	8
-7696	-7484	11932	-10	11	-28	-15960	-1616	-3240	44	-1	-34	-15720	656	-3808	44	-29	1	-7112	8528	12728	36	6	-20	-16344	1040	-2872	94	6	-2	-15976	2904	-2576	199	-45	-24	115	133	8
-7624	-7472	12140	-12	12	-29	-15744	-1576	-3296	30	-7	-40	-15512	600	-3944	-8	-32	-18	-7008	8424	12704	35	10	-26	-16328	912	-3184	58	1	2	-15648	3256	-2984	175	-27	-17	115	134	8
-7608	-7520	11952	-12	11	-32	-15792	-1976	-3344	56	-12	-47	-15704	408	-3760	-44	-43	-34	-7136	8368	12592	30	3	-24	-16368	1056	-3288	44	-1	-9	-15720	3192	-3080	113	-19	-28	115	134	8
-7696	-7452	11988	-17	14	-31	-15808	-1952	-3416	76	-12	-49	-15848	208	-3800	-64	-50	-52	-7192	8560	12624	29	4	-17	-16336	976	-3248	16	-11	-13	-15616	3112	-3288	26	-16	-44	115	135	8
-7672	-7584	12092	-23	23	-26	-15888	-1736	-3112	25	-28	-47	-15760	288	-3648	-66	-42	-54	-7160	8512	12472	22	3	-18	-16280	1032	-3144	-20	-25	-19	-15744	3016	-3032	4	-19	-43	115	134	8
-7644	-7552	11968	-23	18	-24	-15816	-1752	-3160	-38	-43	-51	-16008	40	-3728	-104	-32	-89	-7128	8544	12688	10	-4	-24	-16216	800	-3336	-53	-34	-20	-15736	2936	-2848	-100	-9	-37	115	134	8
-7672	-7564	11908	-22	20	-25	-15752	-2008	-3344	-62	-37	-50	-15632	88	-3464	-133	-33	-85	-6976	8488	12680	8	-6	-23	-16368	776	-3328	-43	-38	-22	-15816	2752	-2616	-145	4	-58	115	134	8
-7668	-7520	11968	-15	18	-22	-15784	-2168	-3216	-27	-35	-52	-15760	32	-3440	-145	-41	-79	-7120	8504	12608	9	-4	-21	-16320	504	-3096	-46	-39	-23	-15864	2656	-2760	-190	16	-72	116	133	8
-7656	-7540	12016	-18	19	-18	-15728	-1976	-3248	-2	-34	-55	-15792	24	-3680	-132	-32	-73	-7184	8448	12416	13	-5	-24	-16408	848	-3264	-60	-45	-20	-16160	2400	-2328	-233	43	-80	116	134	8
-7648	-7528	11944	-23	21	-16	-15808	-1704	-3120	-35	-37	-52	-15888	64	-3672	-127	-33	-66	-7088	8592	12560	10	3	-23	-16312	744	-2888	-104	-45	-28	-15880	2552	-2104	-259	61	-85	116	134	8
-7660	-7632	11980	-19	22	-16	-15936	-1784	-3104	-84	-43	-50	-15880	-40	-3432	-148	-26	-70	-6968	8488	12608	14	-4	-19	-16264	720	-2936	-130	-38	-27	-15912	2496	-2032	-275	92	-79	117	134	8
-7632	-7440	11984	-18	18	-23	-15648	-1776	-2944	-105	-36	-67	-15800	112	-3248	-169	-8	-83	-7088	8528	12536	10	-2	-25	-16400	752	-2752	-130	-26	-30	-16160	2416	-1784	-291	103	-73	116	135	8
-7660	-7512	11996	-23	23	-16	-15824	-1784	-2992	-127	-30	-66	-15832	248	-3216	-212	-20	-69	-7144	8416	12368	4	-7	-22	-16256	752	-2656	-114	-10	-28	-16208	2568	-1528	-286	99	-78	116	134	8
-7604	-7580	12020	-21	22	-18	-15856	-2088	-3016	-134	-23	-61	-15976	-224	-3120	-280	-12	-78	-7008	8512	12680	4	-6	-23	-16136	584	-2680	-114	23	-29	-16240	2560	-1456	-278	96	-80	116	134	8
-7688	-7640	11984	-21	28	-18	-16088	-2072	-2840	-130	-10	-60	-15904	-832	-3136	-307	-9	-104	-7096	8592	12600	1	-4	-26	-16272	856	-2328	-131	54	-29	-16216	2504	-1576	-276	100	-100	117	134	8
-7688	-7544	11928	-27	26	-10	-15728	-1992	-2688	-106	0	-55	-15904	-560	-3152	-296	15	-106	-6968	8536	12664	5	-6	-23	-16528	784	-2424	-173	69	-34	-16240	2288	-1960	-255	110	-113	117	134	8
-7664	-7464	11964	-32	34	-12	-15688	-1720	-2992	-133	7	-59	-15832	-200	-3160	-288	9	-62	-7096	8488	12616	6	4	-25	-16248	608	-2784	-157	88	-40	-16224	2096	-2504	-225	114	-91	117	134	8
-7716	-7652	11908	-33	40	-12	-15840	-2112	-2904	-170	8	-55	-15928	-584	-3552	-332	16	-43	-7184	8376	12560	-1	-3	-28	-16200	632	-3032	-104	89	-26	-15888	1904	-2552	-175	126	-81	117	134	8
-7648	-7612	11976	-35	34	-15	-15792	-2456	-2720	-119	13	-45	-16008	-1280	-3384	-287	24	-62	-7080	8512	12472	-4	-13	-29	-16120	520	-3232	-64	83	-20	-15904	1792	-2656	-117	123	-80	117	133	8
-7736	-7644	11956	-36	36	-10	-15800	-2320	-2992	-50	34	-28	-15824	-1304	-3608	-201	8	-56	-7016	8376	12800	-6	-6	-24	-16160	392	-3096	-24	84	-20	-16176	1864	-2680	-92	105	-64	117	134	8
-7736	-7612	11952	-27	28	-9	-15600	-1816	-3360	-29	40	-23	-15568	-1080	-3904	-119	20	-31	-7064	8352	12432	-8	-13	-26	-16384	592	-2904	-24	88	-7	-16208	2032	-2624	-69	69	-39	118	134	8
-7780	-7484	11972	-22	17	-18	-15752	-1896	-3144	-45	33	-23	-15368	-776	-4032	-70	-8	7	-7120	8424	12576	-6	-11	-27	-16080	608	-3352	-62	93	-1	-15744	1784	-3024	-51	62	-24	118	134	8
-7740	-7600	11948	-21	24	-21	-15904	-2584	-3424	-7	21	-17	-15360	-640	-4504	-37	-14	32	-7192	8264	12672	-2	-12	-28	-16384	448	-3632	-77	91	1	-15840	1656	-3080	-58	77	-26	117	134	8
-7772	-7556	11820	-21	23	-19	-15888	-2272	-3504	37	10	3	-15808	-592	-4432	5	-20	14	-7120	8256	12408	-1	-2	-24	-16464	360	-3352	-79	83	5	-15896	1568	-3504	-75	81	-24	117	134	8
-7780	-7556	12000	-21	19	-22	-15672	-2072	-3512	29	-4	5	-15656	-544	-4304	28	-21	-11	-7104	8368	12664	12	-1	-20	-16392	416	-3528	-43	53	25	-15896	1608	-3424	-69	79	-31	118	135	8
-7768	-7636	11920	-19	14	-27	-15704	-2168	-3248	0	-18	11	-15520	-496	-4096	17	-33	-22	-7128	8224	12800	13	-6	-23	-16216	392	-3760	-26	34	37	-15928	1576	-3488	-62	71	-33	118	135	8
-7768	-7564	11836	-18	18	-25	-15832	-2128	-3288	43	-23	17	-15776	-760	-3816	27	-34	-19	-7168	8376	12640	21	0	-18	-16176	696	-3432	7	20	48	-15832	1480	-3464	-44	58	-27	118	135	8
-7716	-7588	11872	-14	17	-25	-15800	-2104	-3272	56	-24	31	-15888	-672	-3416	75	-25	-10	-7160	8408	12712	22	-4	-17	-16296	296	-3336	23	12	56	-15864	1528	-3152	-4	47	-23	118	136	8
-7748	-7560	11884	-13	16	-21	-15648	-1976	-2960	61	-17	34	-15808	-616	-3240	101	-16	16	-7088	8344	12696	18	1	-16	-16336	672	-3384	45	-2	56	-16072	1952	-3112	41	40	19	118	136	8
-7708	-7556	11808	-4	7	-24	-15632	-1936	-2792	40	-1	38	-15616	-744	-2960	107	-9	38	-7184	8368	12696	13	-4	-14	-16096	592	-3256	43	-3	64	-15984	2128	-3208	54	33	43	118	136	8
-7700	-7620	11960	2	6	-23	-15704	-2056	-2640	40	9	32	-15632	-872	-2832	108	-4	57	-7088	8384	12640	14	0	-15	-16216	512	-3248	24	3	70	-16128	1712	-2784	65	18	34	118	136	8
-7716	-7664	11884	1	8	-21	-15848	-2248	-2784	60	28	40	-16072	-648	-2784	113	1	93	-7096	8448	12760	21	4	-16	-16352	512	-3320	59	-2	76	-16072	2176	-2984	118	19	24	117	135	8
-7680	-7568	11864	2	12	-21	-15888	-2104	-2992	70	46	46	-16056	-592	-3072	119	27	115	-7160	8464	12608	27	2	-17	-16376	960	-3272	54	-9	73	-16104	2376	-3032	145	24	56	117	135	8
-7736	-7668	11940	7	10	-20	-15584	-1808	-2968	59	59	49	-15800	-568	-3416	128	40	122	-7168	8400	12848	27	2	-17	-16056	664	-3592	24	-6	69	-15912	2256	-3232	149	6	61	118	135	8
-7748	-7596	11960	-3	10	-14	-15848	-1784	-3328	40	65	44	-15912	-480	-3352	141	40	127	-7112	8344	12560	29	-1	-17	-16304	816	-3384	39	-6	65	-15992	2552	-2920	157	-4	61	118	135	8
-7700	-7544	12088	1	14	-17	-15880	-1696	-3408	42	63	42	-15736	-192	-3432	148	51	133	-7200	8376	12600	30	3	-16	-16384	872	-3584	42	-20	66	-15896	2344	-3000	139	-5	81	118	135	8
-7780	-7436	11984	0	11	-17	-15680	-1816	-3256	45	66	43	-15624	64	-4032	144	52	131	-7160	8416	12736	34	7	-20	-16232	752	-3336	60	-13	58	-15816	1984	-3216	150	-6	79	118	135	8
-7700	-7552	11988	-6	14	-15	-15696	-1656	-3584	44	61	36	-15704	232	-3992	136	44	129	-7032	8256	12704	23	6	-22	-16176	520	-3400	69	-16	63	-15840	2192	-3104	150	0	77	118	134	8
-7744	-7480	12012	-6	17	-18	-15944	-1752	-3512	32	50	35	-15888	200	-4184	124	29	122	-7232	8424	12648	28	4	-16	-16144	792	-3416	112	-20	67	-15688	2360	-2928	213	-15	44	118	134	8
-7700	-7464	11920	-8	17	-12	-15688	-1600	-3368	4	41	29	-15656	280	-4264	110	25	114	-7248	8488	12624	26	5	-14	-16336	1312	-3368	84	-30	68	-15872	2904	-2880	207	-1	45	117	134	8
-7724	-7528	11832	-6	10	-24	-15472	-1640	-3496	3	29	23	-15464	240	-4304	85	20	99	-7064	8504	12600	23	-1	-21	-16272	1112	-3208	32	-24	49	-15776	3232	-3104	135	11	44	117	134	8
-7756	-7500	11964	0	9	-20	-15624	-1816	-3552	0	18	26	-15496	336	-4288	55	12	73	-7144	8504	12392	20	0	-17	-16320	968	-3152	0	-24	48	-15848	3024	-2920	31	28	35	117	134	8
-7716	-7560	12028	1	7	-24	-15848	-1864	-3448	4	10	26	-15760	344	-4216	26	-8	50	-7248	8496	12640	21	-2	-19	-16400	680	-3472	-1	-22	52	-15936	2672	-2872	-40	27	17	118	134	8
-7736	-7528	12004	-4	11	-24	-16032	-1720	-3488	-6	-3	19	-15888	496	-4208	-10	-20	35	-7144	8584	12744	24	2	-18	-16392	928	-3056	10	-14	44	-16080	2480	-2824	-44	34	6	118	134	8
-7732	-7488	11912	-9	14	-18	-15832	-1632	-3464	-30	-18	16	-15784	424	-4168	-54	-18	25	-7064	8520	12688	26	-2	-20	-16264	1136	-3360	-20	-9	36	-15672	2456	-2984	-21	33	10	118	135	8
-7760	-7560	11844	-10	15	-19	-15656	-1640	-3528	-50	-21	15	-15504	224	-3712	-108	-26	15	-7312	8456	12704	25	1	-18	-16136	904	-3704	-40	-19	32	-15800	2536	-3120	-15	33	11	118	134	8
-7752	-7516	12024	-10	12	-22	-15696	-1664	-3568	-62	-32	12	-15608	-48	-3832	-126	-40	7	-7056	8376	12736	26	-1	-18	-16184	656	-3336	-13	-22	43	-15640	2080	-3192	19	25	7	118	134	8
-7724	-7556	12024	-11	14	-21	-15808	-1800	-3400	-70	-33	11	-15824	-24	-3560	-108	-42	4	-7048	8432	12584	23	-3	-22	-16176	872	-3624	25	-31	44	-15816	2184	-3144	14	22	17	118	134	8
-7760	-7572	11976	-11	17	-20	-15856	-1664	-3376	-64	-25	8	-15664	16	-3632	-120	-35	-1	-7184	8424	12408	23	3	-19	-16368	984	-3200	11	-37	39	-15896	2216	-3320	12	15	26	118	134	8
-7720	-7568	11956	-16	15	-24	-15776	-1760	-3120	-56	-24	9	-15752	-176	-3664	-107	-36	11	-7016	8536	12752	19	-2	-21	-16384	1096	-3384	-6	-42	33	-15840	2472	-2920	13	12	28	119	134	8
-7740	-7552	11924	-16	16	-21	-15760	-1896	-3072	-36	-23	10	-15720	-304	-3472	-93	-25	11	-7040	8464	12624	22	4	-21	-16176	904	-3096	-10	-36	34	-15856	2680	-2984	9	16	18	119	134	8
-7752	-7556	11832	-15	16	-23	-15752	-1640	-3048	-43	-15	13	-15752	-264	-3648	-74	-15	20	-7216	8432	12736	18	-3	-22	-16368	824	-3064	5	-35	38	-15824	2728	-2784	-6	20	18	118	134	8
-7732	-7620	11904	-10	15	-19	-15912	-1648	-3128	-54	-11	3	-15736	-40	-3448	-39	-7	30	-7040	8520	12656	22	-5	-16	-16256	1104	-3088	0	-27	27	-15960	2688	-2680	-21	32	9	119	134	8
-7712	-7580	11972	-8	15	-22	-15920	-1600	-3064	-45	-9	5	-15840	64	-3440	-3	-7	31	-7016	8480	12736	22	1	-23	-16208	1120	-3080	-29	-18	21	-16048	2520	-2688	-29	43	1	119	134	8
-7732	-7580	12024	-14	16	-18	-15904	-1760	-3048	-12	3	-5	-15928	24	-3520	2	-3	39	-7176	8344	12664	22	-2	-16	-16280	1160	-2944	-25	-7	18	-15936	2768	-2824	-21	45	-7	119	134	8
-7700	-7560	11964	-15	20	-21	-15640	-1704	-2912	3	15	-4	-15848	40	-3384	5	-3	34	-7192	8432	12616	23	-2	-20	-16304	1224	-3056	-24	0	13	-16088	2968	-2640	-17	46	-7	119	134	8
-7724	-7536	11880	-13	14	-20	-15696	-1696	-3368	9	14	-6	-15744	-48	-3672	4	18	22	-7184	8488	12472	13	-1	-25	-16152	1040	-3056	-14	11	9	-15936	2792	-2800	-36	51	-13	119	134	8
-7752	-7508	11944	-11	11	-14	-15704	-1568	-3440	2	21	-9	-15656	80	-3608	-1	24	20	-7096	8480	12632	15	-5	-24	-16288	1112	-3040	-17	13	3	-15800	2616	-3032	-25	69	-30	119	134	8
-7728	-7608	11980	-11	11	-24	-15808	-1552	-3240	-8	21	-14	-15848	344	-3904	-18	28	21	-7304	8360	12728	13	0	-23	-16376	872	-3496	-6	12	-1	-15896	2528	-3104	-27	70	-35	119	134	8
-7748	-7416	11828	-9	13	-25	-15816	-1568	-3368	-22	16	-15	-15472	216	-3600	-29	32	17	-7192	8392	12728	13	-7	-20	-16248	776	-3272	-10	14	-2	-15904	2336	-3200	-66	74	-30	120	134	8
-7776	-7528	11904	-16	13	-19	-15848	-1616	-3208	-20	18	-21	-15880	168	-3544	-25	22	9	-7216	8288	12736	13	-1	-19	-16064	840	-3280	0	26	0	-15800	2376	-2864	-72	50	-48	120	134	8
-7724	-7536	11956	-17	21	-23	-15792	-1824	-2976	-1	22	-22	-15696	104	-3432	-18	20	3	-7152	8576	12752	14	0	-21	-16312	1152	-3208	-17	26	6	-15872	2584	-2936	-49	50	-40	119	134	8
-7744	-7580	11956	-16	16	-22	-15728	-1664	-3112	4	23	-28	-15840	-160	-3664	-6	22	1	-7104	8376	12688	13	-1	-23	-16336	1160	-2944	-43	25	-10	-16080	2856	-2808	-40	44	-20	120	134	8
-7776	-7512	11936	-9	17	-20	-15776	-1864	-3072	20	31	-24	-15648	-72	-3536	25	25	-2	-7272	8408	12808	9	-4	-28	-16312	928	-3112	-25	36	-13	-15880	2792	-3120	-32	49	-23	120	134	8
-7748	-7456	11952	-11	13	-24	-15856	-1720	-3248	25	38	-28	-15528	-240	-3720	40	27	-1	-7192	8408	12488	12	-8	-26	-16280	840	-3336	5	40	-14	-15784	2424	-3056	-23	49	-35	120	133	8
-7832	-7568	11928	-12	15	-27	-15880	-1808	-3544	31	43	-26	-15608	-200	-3624	46	28	-2	-7128	8336	12704	12	-2	-26	-16376	864	-3416	17	46	-15	-15704	2088	-3320	-23	34	-24	120	134	8
-7716	-7572	12036	-10	14	-22	-15760	-1720	-3552	28	38	-27	-15632	48	-4088	61	26	14	-7048	8424	12752	14	-9	-20	-16104	800	-3608	-3	42	-17	-15840	2176	-3616	-9	18	-27	120	134	8
-7748	-7488	11876	-13	13	-18	-15824	-1760	-3192	31	38	-29	-15600	24	-3792	56	31	23	-7128	8408	12840	12	-3	-23	-16144	848	-3240	-22	37	-9	-15608	2184	-3560	17	12	-40	120	134	8
-7728	-7480	11784	-12	16	-21	-15696	-1616	-3496	28	29	-35	-15472	120	-4008	39	30	22	-7216	8480	12560	9	3	-22	-16328	824	-3544	-2	26	-7	-15688	2024	-3496	24	20	-43	120	134	8
-7752	-7484	11880	-12	19	-21	-15800	-1576	-3416	14	23	-34	-15536	184	-4224	37	28	10	-7144	8352	12528	13	1	-24	-16400	984	-3576	11	21	-11	-15880	2272	-3560	-4	12	-27	120	134	8
-7772	-7576	11888	-13	13	-19	-15744	-1648	-3480	15	23	-32	-15632	248	-3872	23	17	-7	-7168	8520	12664	13	-2	-18	-16176	920	-3512	3	17	-14	-15640	2408	-3144	-15	11	-21	121	134	8
-7780	-7548	11956	-10	15	-24	-15712	-1768	-3368	26	19	-38	-15704	40	-3968	7	7	-24	-7088	8344	12584	11	-3	-21	-16176	952	-3280	10	13	-10	-15888	2448	-3424	-8	9	-24	120	134	8
-7784	-7544	11940	-19	17	-25	-15760	-1696	-3376	30	20	-33	-15768	-128	-3848	-16	3	-27	-7232	8544	12576	11	-9	-21	-16136	880	-3424	13	19	-13	-15888	2320	-3392	-13	-2	-10	119	133	8
-7764	-7528	11868	-10	8	-27	-15688	-1664	-3264	16	19	-28	-15672	-232	-3848	-12	11	-17	-7096	8432	12752	7	-8	-19	-16104	856	-3352	15	31	-9	-15808	2264	-3232	-8	-15	-13	120	133	8
-7824	-7600	11860	-5	7	-24	-15760	-1896	-3552	23	26	-34	-15600	-456	-3880	-11	14	-18	-7176	8400	12528	14	-9	-24	-16144	840	-3280	7	31	-6	-15992	2248	-3040	6	-11	-12	120	133	8
-7844	-7504	11952	-6	6	-29	-15704	-1776	-3240	33	37	-28	-15824	-408	-3864	27	17	15	-7176	8416	12768	14	1	-19	-16336	968	-3328	-15	31	-5	-15832	2144	-3352	21	-4	-1	120	133	8
-7704	-7476	11976	-5	11	-26	-15656	-2184	-3352	56	34	-23	-15472	-416	-3808	65	28	30	-7144	8440	12608	14	-3	-23	-16224	840	-3616	-16	31	-5	-15856	2224	-3368	31	7	1	120	134	8
-7708	-7476	12000	-6	9	-22	-15664	-1944	-3520	66	39	-20	-15712	-512	-3840	88	27	32	-7056	8584	12616	13	-5	-22	-16288	736	-3416	-15	36	-6	-15936	1912	-3200	56	3	-1	119	134	8
-7752	-7444	11960	-5	8	-28	-15824	-2040	-3312	42	38	-14	-15848	-288	-3640	107	30	45	-7048	8552	12608	20	6	-21	-16120	648	-3576	49	20	7	-15744	1904	-3280	68	7	12	119	134	8
-7700	-7516	11996	-3	8	-23	-15632	-1800	-3240	26	44	-15	-15776	-344	-3856	108	33	46	-7216	8432	12488	21	4	-21	-16112	784	-3712	73	23	7	-15744	2000	-3312	100	-3	8	120	134	8
-7752	-7540	11968	-5	6	-19	-15664	-1880	-3400	36	51	-18	-15720	-48	-3928	86	34	58	-7080	8272	12496	20	-1	-17	-16088	1040	-3424	53	22	7	-15784	2472	-2880	128	-5	8	120	134	8
-7748	-7480	12004	-3	11	-20	-15728	-1904	-3528	44	53	-18	-15592	80	-4328	62	28	50	-7224	8448	12664	20	-3	-19	-16296	976	-3224	20	21	3	-15992	2720	-3072	117	-22	24	119	134	8
-7772	-7484	11800	-5	10	-20	-15848	-1960	-3440	40	50	-16	-15504	80	-4304	47	30	39	-7120	8408	12672	14	0	-25	-16168	832	-3528	7	21	8	-15832	2672	-3144	61	-18	31	119	134	8
-7780	-7568	11964	-2	9	-20	-15672	-1832	-3496	35	41	-17	-15568	-16	-4288	27	26	34	-7184	8376	12624	20	0	-22	-16360	848	-3552	25	26	2	-16104	2424	-3152	22	-21	19	119	134	8
-7684	-7512	11928	-12	14	-25	-15808	-1752	-3624	22	35	-19	-15824	64	-4552	31	16	24	-7264	8512	12728	22	7	-25	-16416	728	-3640	34	32	0	-15888	2552	-3456	-7	-34	19	120	134	8
-7692	-7508	11936	-13	17	-21	-15864	-1768	-3576	11	24	-14	-15864	72	-4056	35	3	11	-7120	8400	12728	22	-1	-20	-15992	712	-3464	29	30	-3	-15928	2488	-2984	-18	-38	29	119	134	8
-7780	-7496	11928	-11	18	-22	-15512	-1768	-3624	9	20	-14	-15648	104	-4256	13	-7	6	-7032	8384	12624	17	-3	-21	-16160	832	-3512	0	37	-1	-15712	2304	-3272	-4	-40	17	119	134	8
-7776	-7508	11908	-15	13	-22	-15496	-1896	-3680	10	19	-17	-15592	-40	-4288	-6	-16	5	-7192	8512	12656	14	-5	-16	-16152	760	-3936	-21	31	0	-15688	2360	-3440	14	-36	10	119	134	8
-7736	-7564	11876	-12	13	-23	-15824	-2016	-3896	24	12	-16	-15696	-152	-4408	-11	-19	1	-7168	8440	12664	15	-5	-21	-16328	648	-3768	-11	25	-3	-16232	2232	-3600	-10	-42	22	119	134	8
-7744	-7560	11964	-14	15	-19	-15704	-1760	-3832	12	2	-11	-15792	-128	-4296	1	-24	3	-7200	8416	12376	17	0	-18	-16248	672	-3624	20	12	3	-16208	2320	-3568	-43	-85	49	120	135	8
-7772	-7492	11972	-16	14	-23	-15616	-1872	-3784	-12	-12	-10	-15424	-88	-4544	-13	-30	4	-7216	8496	12616	16	-10	-16	-16184	816	-3768	32	0	9	-15800	2320	-3456	-59	-119	84	119	134	8
-7820	-7484	11924	-9	12	-32	-15576	-1912	-3792	-18	-25	-13	-15248	-8	-4704	-22	-44	6	-7096	8464	12808	17	-12	-18	-16072	840	-3760	17	-9	4	-15672	2104	-3600	-52	-123	91	120	134	8
-7780	-7492	12012	-1	6	-36	-15616	-1832	-3744	-6	-33	-15	-15544	-88	-4456	-13	-64	4	-7352	8520	12616	14	-9	-12	-16128	968	-3904	-8	-14	4	-15648	2104	-3576	-26	-135	77	120	134	8
-7720	-7484	11924	-10	3	-32	-15672	-1896	-3552	23	-36	-20	-15624	-80	-4304	21	-89	-3	-7088	8416	12704	8	-10	-17	-16256	584	-3952	-1	-23	4	-15808	2184	-3352	-22	-147	87	119	135	8
-7720	-7500	11980	-12	6	-42	-15744	-1992	-3336	44	-41	-15	-15656	-24	-4472	36	-88	-10	-7152	8376	12688	18	-13	-9	-16136	592	-3848	40	-44	6	-15816	2288	-3320	21	-152	86	120	135	8
-7744	-7496	11932	-7	2	-37	-15584	-1872	-3544	39	-50	-17	-15512	-184	-4104	27	-91	-18	-7192	8376	12640	9	-15	-11	-16408	832	-3752	55	-52	13	-15648	2416	-3344	58	-135	86	120	135	8
-7648	-7516	12036	-8	3	-38	-15752	-1904	-3664	22	-57	-26	-15656	-104	-4336	4	-93	-14	-7104	8432	12712	13	-9	-15	-16464	832	-3608	32	-66	9	-15776	2496	-3304	50	-123	75	119	136	8
-7744	-7588	11980	-12	4	-35	-15904	-2000	-3736	7	-65	-19	-15920	-24	-3984	4	-97	-18	-7200	8416	12480	17	-10	-18	-16200	704	-3624	28	-74	2	-16176	2864	-3192	37	-127	67	119	136	8
-7704	-7524	11816	-8	8	-29	-15832	-1928	-3448	-1	-73	-30	-15792	40	-3912	0	-95	-22	-7264	8456	12592	25	-5	-17	-16360	752	-3568	24	-78	4	-15584	2600	-2608	22	-114	58	120	136	8
-7728	-7556	11880	-17	6	-31	-15784	-1832	-3336	-1	-70	-25	-15600	-160	-3640	-7	-93	-24	-7120	8568	12696	18	-11	-13	-16136	832	-3472	37	-77	-1	-15608	2672	-2656	22	-101	35	120	136	8
-7780	-7484	11944	-14	11	-35	-15584	-1808	-3240	5	-70	-22	-15576	-112	-3728	-17	-94	-27	-7192	8368	12768	10	-6	-19	-16200	856	-3616	39	-72	-2	-15704	2768	-2424	31	-91	15	120	136	8
-7760	-7636	11980	-8	4	-32	-15712	-1872	-3288	17	-66	-34	-15552	-112	-3560	-26	-90	-37	-7096	8376	12872	12	-5	-19	-16232	744	-3616	24	-70	-1	-16664	3064	-2440	43	-100	28	119	135	8
-7740	-7648	11896	-4	2	-36	-16056	-1952	-3224	17	-59	-29	-16072	-176	-3512	-20	-95	-41	-7104	8504	12728	10	-6	-22	-16456	680	-3112	30	-63	-5	-16296	3144	-2528	16	-91	76	119	135	8
-7732	-7596	11916	-14	14	-28	-15808	-1976	-3192	-1	-52	-31	-15976	-136	-3616	-14	-86	-51	-7136	8424	12632	12	-3	-20	-16328	816	-3232	34	-50	-12	-15496	2600	-2208	-42	-75	71	120	136	8
-7700	-7540	11928	-18	13	-27	-15624	-1752	-3016	-2	-43	-38	-15584	-456	-2960	-37	-71	-50	-7152	8480	12736	10	-3	-19	-16136	672	-3160	22	-39	-11	-16000	2808	-2040	-64	-61	50	120	136	8
-7732	-7544	12008	-18	15	-31	-15768	-2168	-3184	15	-30	-38	-15736	-584	-3200	-20	-51	-38	-7120	8464	12768	14	-4	-19	-16168	640	-3272	16	-24	-9	-16024	3048	-1592	-60	-36	49	121	136	8
-7700	-7580	11916	-21	16	-33	-15728	-2264	-3096	53	-13	-35	-15928	-856	-2888	28	-33	-17	-7040	8392	12488	14	-10	-20	-16280	688	-2792	7	0	-11	-16856	3160	-1568	-46	-44	66	119	135	8
-7744	-7560	11984	1	1	-27	-15424	-2112	-2840	71	10	-29	-15848	-928	-3024	98	6	14	-7104	8392	12448	6	-6	-17	-16272	776	-2984	-13	18	-11	-16392	2792	-1632	-78	-20	87	117	136	8
-7772	-7476	11956	20	-9	-32	-15384	-1904	-2976	55	19	-33	-15416	-1232	-3328	125	32	49	-7080	8656	12688	-2	-6	-22	-16256	1016	-2912	-8	33	-18	-16136	3216	-2280	-94	-37	151	120	135	8
-7720	-7532	12016	5	1	-30	-16000	-1936	-3016	44	30	-28	-16184	-784	-3472	156	17	82	-7128	8432	12464	3	-6	-24	-16600	568	-3168	-7	36	-22	-15584	2232	-2528	-80	-44	157	120	135	8
-7696	-7560	12076	-2	13	-24	-16416	-2160	-3264	69	40	-21	-16464	-144	-3672	187	23	87	-7152	8376	12760	17	-8	-23	-16312	456	-3536	39	47	-21	-15984	2120	-2160	-42	-68	146	121	135	8
-7720	-7532	11940	-17	21	-20	-15672	-2048	-3208	94	52	-17	-15760	136	-3520	168	21	63	-7248	8352	12736	18	-2	-24	-16096	520	-3384	56	41	-15	-16640	2608	-2640	-16	-83	156	120	135	8
-7764	-7512	11980	-14	16	-19	-15560	-1800	-3344	66	53	-16	-15216	72	-3896	92	17	38	-7136	8448	12672	20	-3	-21	-16216	472	-3568	47	35	-5	-14920	2480	-2880	-44	-149	158	123	135	8
-7728	-7424	11868	-13	17	-22	-15512	-1784	-3616	26	42	-21	-15272	-184	-4096	22	2	19	-7152	8504	12736	23	7	-19	-16240	568	-3792	30	22	-7	-15232	2488	-3024	-45	-188	131	125	135	8
-7764	-7512	11968	-10	13	-27	-15512	-2080	-3568	6	28	-23	-15648	-200	-4224	20	2	19	-7096	8360	12352	21	-7	-23	-16064	464	-3848	35	10	-5	-15632	2848	-2936	-27	-148	135	125	135	8
-7760	-7520	11908	-6	6	-33	-15696	-2200	-3752	56	18	-22	-15496	-160	-4656	32	2	27	-7200	8416	12680	16	-4	-15	-16120	328	-4056	41	-10	8	-15760	2872	-2936	-20	-149	135	124	135	8
-7732	-7468	11972	-8	4	-23	-15856	-1960	-3984	64	3	-18	-15384	8	-4520	31	-12	23	-7024	8224	12704	16	-6	-11	-16144	496	-3680	55	-14	10	-15288	2952	-2456	-20	-123	97	127	135	8
-7728	-7532	11936	-8	8	-29	-15752	-1888	-3792	0	-16	-21	-15520	-24	-4064	10	-26	15	-7112	8264	12568	14	-8	-9	-16128	632	-3424	53	-23	10	-15928	3384	-1856	-17	-98	81	125	135	8
-7716	-7468	11932	-9	4	-30	-15672	-1896	-3600	-49	-36	-25	-15640	-152	-4024	-16	-32	7	-7136	8448	12688	9	-10	-7	-16240	816	-3272	12	-13	17	-15608	3432	-1872	-56	-71	73	121	135	8
-7716	-7392	12112	-3	3	-29	-15816	-2288	-3248	-36	-39	-29	-15880	-360	-3632	-10	-47	-5	-7064	8408	12552	15	-9	-18	-16272	600	-3264	-23	4	6	-15840	3488	-1728	-83	-59	47	121	135	8
-7632	-7548	12004	-8	6	-37	-15816	-2192	-3056	1	-27	-23	-15944	-464	-3736	-14	-42	-8	-7048	8328	12688	20	-6	-17	-16312	592	-3416	-42	10	6	-15928	3448	-1592	-104	-15	21	121	135	8
-7692	-7496	12020	-9	8	-27	-15768	-2176	-3248	21	-21	-15	-15864	-512	-3432	-19	-36	-11	-7096	8344	12536	16	-2	-17	-16160	584	-3512	-28	19	-1	-15864	3208	-1712	-94	-17	-4	120	135	8
-7672	-7520	11960	-9	13	-24	-15832	-2040	-3280	-23	-20	-14	-15816	-704	-3664	-28	-18	-3	-7040	8320	12808	18	-10	-21	-16032	536	-2984	11	28	8	-16128	3024	-1928	-67	-16	5	120	135	8
-7652	-7548	11968	-14	17	-20	-15856	-2200	-3408	-51	-20	-8	-15880	-504	-3160	-44	-9	6	-7112	8240	12640	14	-6	-25	-16312	600	-3184	22	32	4	-15976	2872	-1752	-30	-34	10	119	134	8
-7664	-7560	11960	-15	18	-21	-15720	-2160	-3136	-40	-13	-6	-15968	-576	-3512	-49	3	25	-7056	8488	12440	15	-12	-21	-16168	752	-3392	5	44	5	-15848	2984	-1872	41	-33	0	122	134	8
-7684	-7544	12000	-7	15	-24	-15664	-2088	-3256	-12	-4	-5	-15704	-456	-3488	-34	13	27	-7144	8424	12504	13	-4	-24	-16304	552	-3656	-6	39	5	-16112	3264	-2392	99	-15	5	117	134	8
-7656	-7468	12004	-12	16	-24	-15664	-2056	-3264	-13	0	-8	-15688	-296	-3672	-32	-2	29	-7040	8304	12744	16	-2	-26	-16208	424	-3744	2	26	4	-16096	3360	-2184	99	-7	10	120	135	8
-7664	-7500	11896	-9	15	-20	-15624	-2144	-3432	-24	2	-8	-15584	-256	-3744	-45	4	24	-7232	8320	12864	11	-7	-21	-16288	232	-3544	38	15	12	-15824	3096	-2960	29	1	5	121	134	8
-7676	-7548	11900	-9	18	-21	-15840	-2240	-3568	-22	4	-12	-15808	-384	-3952	-42	7	10	-7096	8376	12824	14	-2	-21	-16224	344	-3888	49	4	21	-15928	3136	-2616	-20	8	12	119	134	8
-7648	-7584	11944	-10	12	-22	-15800	-1928	-3376	-33	-1	-2	-15720	-384	-3728	-35	15	6	-7040	8360	12592	13	-6	-21	-16216	376	-3672	48	6	23	-15592	3168	-2472	-48	13	6	121	135	8
-7736	-7460	11972	-7	13	-21	-15440	-1912	-3224	-36	4	-7	-15600	-208	-3664	-31	19	6	-7040	8456	12656	12	-7	-16	-16104	752	-3752	-10	-4	20	-15800	3336	-2240	-44	16	5	120	134	8
-7664	-7536	11956	0	2	-26	-15600	-2064	-3400	-21	-1	-7	-15496	-520	-3536	-31	16	19	-6992	8408	12704	7	-11	-18	-16104	456	-3576	-23	-6	23	-16176	3248	-2040	-46	18	25	119	135	8
-7756	-7576	11980	-7	8	-27	-15984	-2320	-3008	11	9	-5	-15952	-640	-3720	-8	4	27	-7088	8296	12792	7	-4	-18	-16584	408	-3712	-2	-13	27	-16336	3184	-1776	-47	17	31	117	135	8
-7608	-7616	12012	-7	16	-19	-15920	-2216	-3344	19	11	3	-15856	-616	-3944	39	10	30	-7096	8376	12712	23	-3	-17	-16392	392	-3448	34	-8	22	-16016	2952	-2040	-62	9	25	119	134	8
-7704	-7556	11892	-13	19	-17	-15704	-2000	-2984	9	14	4	-15792	-448	-3760	58	16	41	-7048	8328	12480	27	-3	-20	-16096	520	-3568	45	-3	24	-15760	3064	-1992	-34	-1	16	120	135	8
-7656	-7544	11972	-10	19	-18	-15648	-1944	-3392	-22	12	-1	-15480	-456	-3776	51	23	43	-7000	8264	12528	24	-3	-20	-16112	664	-3208	24	-2	30	-15664	3264	-1824	26	-3	28	119	135	8
-7684	-7520	12000	-14	20	-16	-15688	-1920	-3376	-19	15	1	-15512	-256	-3656	26	20	43	-7096	8352	12736	26	0	-22	-16256	520	-3560	2	-3	24	-15704	3272	-2120	61	-3	31	120	135	8
-7664	-7476	11976	-11	18	-19	-15768	-2080	-3256	16	21	6	-15568	-184	-3664	21	23	39	-7128	8488	12880	24	-6	-19	-16216	664	-3392	9	8	18	-15928	3176	-2032	56	-2	17	119	134	8
-7704	-7500	12064	-13	14	-20	-15648	-2128	-3224	27	20	5	-15544	-184	-3784	10	12	31	-7128	8328	12936	23	-1	-25	-16168	408	-3264	23	5	24	-16048	3312	-2392	46	-3	20	117	134	8
-7676	-7540	11952	-8	13	-19	-15728	-2000	-3336	14	18	3	-15664	-176	-4016	5	-4	30	-7032	8424	12808	23	1	-18	-16304	488	-3752	43	6	24	-15872	3176	-2536	42	-4	16	117	134	8
-7720	-7496	12064	-10	13	-23	-15856	-1904	-3624	9	14	4	-15864	-104	-3888	9	-2	35	-7128	8424	12768	24	1	-25	-16184	600	-3640	29	-6	25	-15848	3208	-2512	45	-14	14	117	133	8
-7704	-7540	11948	-2	13	-21	-15656	-1992	-3488	-4	8	2	-15624	-152	-4112	1	1	46	-7120	8496	12576	19	-4	-19	-16096	696	-3760	6	-7	25	-15776	3408	-2536	42	-9	15	122	134	8
-7692	-7468	11928	-4	7	-23	-15640	-2160	-3488	-1	0	-3	-15480	-184	-4128	-2	-2	46	-7016	8544	12704	15	0	-16	-16184	552	-3552	2	-15	26	-15936	3432	-2560	24	-2	21	117	134	8
-7628	-7552	11960	-9	11	-24	-15864	-2008	-3448	18	-5	-4	-15544	-120	-4144	20	-21	34	-7064	8456	12640	17	1	-19	-16360	432	-3704	5	-20	25	-15968	3464	-2408	-2	-10	20	116	134	8
-7672	-7480	12140	-9	12	-27	-15824	-1952	-3416	19	-10	1	-15824	32	-4232	41	-34	21	-7112	8488	12616	18	-7	-19	-16264	664	-3536	27	-25	20	-15728	3320	-2128	-22	-22	15	116	134	8
-7668	-7572	11960	-18	13	-22	-15712	-2024	-3400	3	-17	-5	-15672	16	-4120	29	-39	16	-7040	8336	12848	16	-6	-18	-15992	704	-3432	12	-30	16	-15648	3224	-2336	-3	-9	16	117	134	8
-7680	-7428	12000	-15	15	-23	-15688	-2016	-3472	1	-17	-9	-15600	-256	-4064	4	-40	11	-7104	8488	12552	17	-5	-17	-16344	736	-3528	9	-27	20	-15640	3336	-2152	24	-10	1	117	134	8
-7644	-7488	11988	-15	19	-21	-15808	-2016	-3224	4	-20	-7	-15712	-256	-3856	6	-36	7	-7040	8344	12856	20	-5	-19	-16232	648	-3392	-3	-24	18	-15784	3472	-1984	22	3	-15	118	134	8
-7616	-7492	11976	-17	16	-23	-15808	-1912	-3432	4	-20	-2	-15760	-384	-3848	15	-33	9	-7128	8408	12784	17	0	-22	-16144	704	-3480	-13	-22	17	-16152	3432	-2152	23	-3	-21	117	134	8
-7696	-7492	11964	-20	16	-24	-15752	-1896	-3320	-6	-25	-6	-15688	-192	-3816	23	-36	15	-7176	8440	12624	13	0	-22	-16256	672	-3592	-2	-21	13	-15896	3160	-2016	37	6	-23	116	134	8
-7728	-7540	11944	-10	14	-26	-15536	-1920	-3328	-12	-27	-8	-15592	-168	-3648	15	-38	15	-7064	8384	12536	4	-9	-18	-16208	656	-3344	16	-12	12	-15784	2984	-1920	49	6	-20	116	135	8
-7676	-7520	11976	-9	9	-24	-15712	-1984	-3392	-18	-22	-6	-15576	-440	-3600	-9	-39	16	-7104	8392	12584	8	1	-21	-16200	616	-3456	16	-7	17	-15816	3080	-1920	76	2	-21	117	135	8
-7708	-7576	11876	-12	7	-27	-15704	-2192	-3136	4	-14	-5	-15704	-512	-3280	8	-27	15	-7032	8504	12632	11	1	-19	-16248	592	-3376	15	-13	14	-15928	2912	-1592	129	19	-27	119	134	8
-7708	-7508	11924	1	8	-29	-15520	-1984	-3192	12	-4	-2	-15792	-600	-3448	41	-10	16	-7016	8456	12752	4	-6	-21	-16344	616	-3280	7	-8	16	-16416	3160	-1944	103	48	-5	115	134	8
-7664	-7544	11880	-2	2	-28	-15704	-1992	-3120	14	6	-6	-15648	-560	-3576	48	5	25	-6984	8416	12512	11	-5	-23	-16480	456	-3544	-1	-2	22	-15912	3376	-2088	46	21	-19	117	134	8
-7656	-7600	12092	-2	10	-22	-15976	-2000	-3280	2	11	-2	-15896	-456	-3712	37	2	43	-6976	8328	12768	18	-6	-22	-16416	712	-3552	2	5	12	-15848	3440	-2400	4	-9	-9	116	134	8
-7688	-7560	12084	-18	20	-19	-16032	-2072	-3392	2	15	-7	-16000	-96	-4136	14	11	42	-7144	8512	12600	22	-3	-19	-16248	568	-3840	-1	2	11	-15704	3208	-2320	21	-19	-19	115	134	8
-7680	-7588	11960	-18	23	-19	-15888	-1992	-3520	20	12	-2	-15880	192	-3896	-24	-10	25	-7136	8296	12656	20	3	-22	-16120	648	-3768	2	1	10	-15744	3280	-2248	46	3	-28	113	134	8
-7784	-7840	11712	-18	18	-13	-15672	-1848	-3408	36	8	1	-15440	0	-3832	-61	-14	0	-6952	8352	12808	22	-3	-17	-16144	576	-3536	2	-7	12	-15856	2984	-2416	52	27	-32	113	134	8
-7656	-7400	12088	-17	19	-18	-15744	-1536	-3664	-24	5	-8	-15352	120	-4000	-111	-25	-9	-7112	8288	12592	19	0	-19	-16208	552	-3528	10	-7	14	-15672	2832	-2216	34	17	-34	116	134	8
-7708	-7564	11948	-13	15	-19	-15744	-2032	-3432	-51	-10	-12	-15296	-304	-4480	-104	-38	-14	-7112	8224	12784	18	-2	-19	-16128	536	-3400	7	-13	13	-15488	3000	-2344	52	23	-33	117	135	8
-7692	-7500	12024	-12	14	-26	-15624	-2112	-3472	-17	-15	-16	-15640	-296	-4376	-33	-35	-9	-6912	8456	12768	17	-1	-20	-16160	712	-3464	-14	-16	20	-16088	3360	-1896	82	39	-35	114	135	8
-7688	-7540	11984	-10	7	-28	-15720	-2120	-3424	26	-20	-7	-15600	-544	-4312	27	-40	4	-7096	8416	12664	13	-5	-21	-16272	336	-3544	-12	-16	17	-15832	3096	-2344	48	46	-19	115	135	8
-7696	-7552	11960	-14	8	-26	-15744	-1864	-3328	26	-23	-6	-15576	-640	-3760	52	-28	14	-6984	8368	12608	17	3	-20	-16456	632	-3480	10	-23	16	-15768	2976	-2152	41	50	-46	116	135	8
-7680	-7536	11932	-12	14	-27	-15744	-1920	-3264	-13	-24	-11	-15792	-544	-3336	61	-7	32	-7048	8384	12880	18	1	-18	-16160	520	-3432	27	-21	18	-15864	3112	-1840	59	66	-59	116	135	8
-7604	-7464	12012	-10	16	-22	-15784	-2032	-3008	-30	-19	-11	-15992	-464	-3328	54	-2	38	-7008	8280	12584	21	-5	-18	-16088	512	-3232	15	-15	16	-16176	3248	-2064	81	86	-55	114	135	8
-7652	-7528	11928	-8	12	-24	-15904	-2128	-2744	-3	1	-8	-16040	-448	-2936	35	3	25	-7048	8368	12800	15	1	-19	-16128	680	-3104	12	-13	17	-16040	3112	-2032	57	90	-41	117	135	8
-7712	-7536	12028	-9	19	-18	-15720	-2136	-2992	7	20	-6	-16024	-512	-3392	7	12	20	-7200	8480	12512	17	4	-27	-16200	704	-3544	-11	1	18	-16576	3288	-1800	16	70	-27	116	135	8
-7628	-7580	11944	-12	21	-20	-15696	-2088	-2992	9	32	-6	-15920	-424	-3112	-14	28	28	-7104	8304	12888	16	-6	-23	-16184	552	-3256	-7	16	17	-16008	3200	-2016	-15	47	-12	118	135	8
-7672	-7536	12000	-12	14	-19	-15720	-1936	-3288	-7	38	-4	-15680	-400	-3744	-23	40	25	-7184	8416	12656	20	-3	-25	-16120	712	-3456	-5	20	11	-15808	3400	-2240	-35	38	11	117	134	8
-7680	-7468	11924	-11	17	-20	-15728	-2072	-3480	-13	40	-7	-15592	-160	-3896	-30	47	32	-7096	8360	12728	16	6	-22	-16320	536	-3584	9	28	14	-15592	3000	-2400	-30	24	7	117	134	8
-7712	-7492	12016	-12	14	-19	-15712	-2120	-3864	1	39	-11	-15552	-256	-3992	-23	45	39	-6840	8344	12632	9	0	-26	-16256	520	-3488	3	22	19	-16000	2928	-2344	-6	28	0	116	134	8
-7676	-7536	11952	-9	15	-18	-15696	-2104	-3360	10	41	-7	-15632	-272	-4088	-9	36	42	-7064	8352	12576	21	-4	-21	-16232	368	-3752	-1	20	17	-15984	2792	-2648	12	46	6	117	134	8
-7664	-7544	11900	-10	15	-18	-15640	-1792	-3320	2	34	-4	-15432	-248	-3992	-3	28	38	-7184	8384	12760	20	-3	-23	-16248	536	-3888	10	12	15	-15744	2848	-2304	29	53	0	117	134	8
-7696	-7568	12020	-12	15	-19	-15680	-1984	-3320	-7	36	-7	-15568	-280	-4328	11	22	29	-7104	8208	12736	19	3	-22	-16048	616	-3656	21	13	18	-15880	3104	-2448	44	57	4	116	134	8
-7672	-7536	11908	-7	12	-16	-15880	-2080	-3352	-12	27	-4	-15584	-264	-3976	27	20	30	-7016	8184	12576	15	-4	-25	-16056	640	-3520	25	12	18	-15976	3136	-2304	32	46	11	118	134	8
-7728	-7500	11924	-9	20	-19	-15816	-2240	-3256	-3	29	-11	-15568	-264	-4096	35	33	33	-7040	8344	12808	13	-8	-21	-16144	584	-3232	13	17	19	-15928	3344	-2592	21	44	11	118	134	8
-7700	-7528	12032	-9	17	-20	-15816	-1816	-3472	6	26	-3	-15744	-296	-3984	47	40	39	-7096	8320	12776	13	-5	-23	-16256	480	-3384	6	23	15	-15832	3136	-2040	-14	44	9	118	134	8
-7692	-7540	12052	-14	18	-22	-15688	-2168	-3600	11	24	-4	-15688	-232	-4024	53	37	47	-6928	8376	12824	17	-4	-21	-16344	528	-3472	-11	25	24	-15848	3152	-2392	-42	54	10	118	134	8
-7768	-7484	11948	-18	20	-21	-15680	-2024	-3184	1	28	-1	-15744	-448	-3968	46	33	45	-7184	8392	12904	17	1	-19	-16320	632	-3352	-18	36	22	-15856	3024	-2064	-45	48	-5	118	133	8
-7696	-7564	11992	-18	19	-21	-15496	-1912	-3160	-10	35	-3	-15744	-288	-3760	30	35	37	-7120	8384	12552	16	3	-22	-16088	696	-3384	-27	33	16	-15840	3120	-2336	-43	39	3	117	133	8
-7720	-7600	11860	-12	19	-22	-15768	-2056	-3448	-15	37	-5	-15656	-200	-3800	7	37	34	-7120	8488	12504	16	-5	-20	-16056	664	-3456	-18	41	16	-15840	3064	-2464	-32	49	6	118	133	8
-7736	-7456	11992	-12	16	-20	-15664	-2112	-3208	-10	41	0	-15752	-424	-3904	-5	36	30	-7144	8296	12736	13	4	-23	-16168	672	-3656	-3	37	20	-15936	3000	-2192	-7	45	0	119	133	8
-7684	-7520	11936	-15	22	-19	-15808	-1960	-3520	2	44	0	-15720	-144	-4168	-10	43	28	-7160	8392	12792	17	5	-21	-16176	504	-3720	12	38	19	-16016	3008	-2416	3	46	-10	117	133	8
-7700	-7528	11920	-18	16	-18	-15648	-1960	-3392	-31	41	-3	-15496	-272	-4104	-23	46	32	-7056	8272	12584	18	1	-22	-16112	576	-3648	16	42	22	-15760	3120	-2672	11	47	-17	120	133	8
-7756	-7576	11928	-12	15	-18	-15584	-2048	-3480	-41	36	-8	-15520	-176	-4352	-28	37	33	-6952	8664	12744	15	-4	-16	-16072	688	-3592	1	43	22	-15808	3192	-2616	3	45	-18	119	133	8
-7740	-7460	12056	-11	17	-21	-15896	-2072	-3360	-23	38	-1	-15640	-192	-4040	-24	29	29	-7144	8368	12864	17	-2	-22	-16304	488	-3752	-23	37	21	-15872	3040	-2480	-12	50	-26	118	134	8
-7696	-7352	12040	-6	14	-18	-15744	-1872	-3408	-9	35	-4	-15688	-216	-4136	-16	30	27	-6976	8408	12600	13	2	-20	-16176	744	-3960	-38	32	20	-15824	3096	-2680	0	76	-28	120	134	8
-7688	-7396	12036	-6	13	-21	-15448	-1672	-3704	-17	33	-8	-15336	-120	-4264	-15	31	30	-7120	8560	12488	21	-6	-19	-16328	552	-3768	-53	24	20	-16192	3320	-2744	-19	80	-25	118	134	8
-7744	-7488	12004	-14	13	-23	-15616	-1936	-3616	-17	29	-12	-15776	72	-4176	-23	26	28	-7056	8480	12664	22	-2	-23	-16152	648	-3608	-24	24	19	-15784	2928	-2760	-73	56	-19	118	134	8
-7700	-7512	11960	-15	19	-23	-15768	-1920	-3600	-1	29	-8	-15696	88	-4080	-14	29	26	-7088	8456	12736	22	1	-19	-15920	760	-3656	-10	26	22	-15968	3112	-2744	-74	34	-19	117	135	8
-7720	-7520	12040	-19	18	-23	-15616	-1800	-3728	0	22	-8	-15600	-320	-4392	-24	23	16	-7104	8344	12648	23	0	-21	-16200	680	-3584	-18	25	20	-15880	2936	-2472	-45	30	-12	117	135	8
-7776	-7488	11928	-21	22	-24	-15696	-1904	-3584	-13	16	-11	-15472	-376	-4304	-42	21	12	-7040	8424	12736	21	2	-19	-16336	568	-3800	-25	24	19	-16256	2752	-2864	-33	9	1	117	135	8
-7712	-7492	11904	-13	19	-26	-15648	-2200	-3720	-29	8	-7	-15488	-352	-4072	-50	4	17	-7160	8160	12696	21	4	-16	-16168	600	-4032	-16	17	20	-15728	2592	-3304	6	-17	15	118	135	8
-7724	-7524	11904	-16	19	-27	-15616	-2104	-3560	-5	8	-1	-15448	-504	-4352	-38	-7	31	-6920	8344	12640	18	1	-21	-16048	424	-4088	22	7	23	-15568	2720	-3032	58	-18	24	119	135	8
-7704	-7536	11840	-11	13	-24	-15704	-1960	-3792	18	14	0	-15720	-392	-4440	3	-11	26	-7152	8256	12944	21	-5	-20	-15928	512	-4424	44	-5	31	-15672	2912	-3232	83	-14	22	118	135	8
-7720	-7508	11960	-10	13	-24	-15648	-2008	-3632	13	7	8	-15512	-496	-4592	24	-20	39	-7160	8376	12608	21	0	-17	-16176	720	-3992	44	-15	28	-15976	3176	-3176	72	-26	26	118	135	8
-7728	-7556	11940	-7	9	-26	-15584	-1880	-3936	13	0	0	-15560	-336	-4424	41	-25	47	-7272	8440	12784	24	-3	-12	-16296	800	-3648	17	-19	33	-15984	3008	-2792	26	-38	34	117	135	8
-7784	-7476	11948	-10	11	-24	-15744	-2072	-3904	17	-4	4	-15544	-264	-4440	52	-28	47	-6976	8296	12744	21	-5	-13	-16056	528	-3808	6	-25	28	-15720	3064	-2760	10	-49	40	117	135	8
-7772	-7544	11844	-9	9	-24	-15784	-2000	-3656	21	-6	8	-15568	-240	-4336	70	-33	52	-7112	8408	12744	18	-3	-16	-16160	536	-3936	25	-22	28	-15944	3096	-2248	13	-44	48	118	135	8
-7636	-7548	12020	-7	14	-29	-15744	-1768	-3632	21	-14	7	-15640	-128	-4248	75	-34	52	-7112	8336	12864	17	-7	-13	-16064	592	-3432	45	-27	33	-15808	2904	-2384	5	-54	51	116	135	8
-7700	-7568	12000	-8	13	-26	-15720	-2040	-3264	12	-12	8	-15608	-88	-4008	68	-37	50	-7136	8408	12728	15	-19	-11	-16056	712	-3520	33	-16	34	-15880	2952	-2392	6	-77	48	119	135	8
-7664	-7508	12060	-10	12	-29	-15568	-1952	-3416	11	-13	10	-15544	-112	-4024	42	-41	43	-7168	8360	12736	19	-12	-15	-16104	896	-3664	-1	-9	37	-16072	3288	-2208	22	-82	53	121	135	8
-7708	-7580	11932	-15	14	-29	-15568	-2280	-3376	24	-14	11	-15648	-216	-4376	36	-55	34	-7144	8416	12608	16	-9	-15	-16256	672	-3760	0	-12	29	-16136	3136	-2144	13	-71	68	118	135	8
-7736	-7492	11936	-8	10	-26	-15704	-2008	-3584	30	-13	7	-15760	-272	-4152	39	-55	28	-7152	8384	12576	17	-10	-9	-16080	536	-3584	24	-6	34	-16000	3096	-2240	3	-88	60	126	135	8
-7712	-7512	12024	-9	10	-31	-15760	-2016	-3376	8	-12	14	-15696	-232	-4248	35	-55	32	-6952	8376	12624	12	-11	-10	-16104	632	-3576	40	-4	33	-15904	3160	-2512	-15	-90	74	120	134	8
-7724	-7492	11968	-11	13	-22	-15776	-1936	-3832	-4	-13	14	-15632	-72	-4104	8	-55	38	-7160	8400	12608	11	-7	-16	-16048	784	-3664	26	-1	34	-16008	3200	-2360	-4	-93	72	118	135	8
-7596	-7544	12060	-13	12	-23	-15672	-2056	-3728	0	-21	13	-15584	-184	-4280	0	-60	47	-7000	8528	12696	14	-9	-14	-16232	704	-4016	18	0	32	-15856	2888	-2672	0	-101	76	121	135	8
-7692	-7456	11972	-13	18	-24	-15760	-1896	-3296	12	-19	19	-15600	-104	-4192	-8	-60	31	-7064	8400	12480	12	-11	-12	-16144	472	-4008	22	-8	36	-15624	3016	-2376	15	-109	72	124	135	8
-7744	-7536	11920	-14	10	-26	-15696	-1896	-3696	-3	-25	17	-15696	-40	-4144	-6	-68	33	-6912	8376	12736	17	-16	-11	-16232	600	-3816	27	-2	40	-15704	3264	-2808	41	-77	65	118	135	8
-7696	-7476	11900	-15	14	-28	-15648	-1832	-3776	-22	-30	21	-15528	-184	-4120	-26	-70	33	-7104	8448	12648	19	-7	-18	-16304	760	-4208	16	-36	59	-15760	3120	-2816	36	-47	58	117	134	8
-7764	-7496	11936	-15	14	-27	-15760	-2128	-3440	-22	-39	22	-15736	-184	-4016	-35	-78	21	-7176	8328	12872	24	-6	-11	-16336	824	-4024	12	-41	41	-15896	3528	-2784	10	-31	43	118	135	8
-7708	-7624	11888	-13	12	-23	-15760	-1864	-3592	-24	-38	22	-15592	-200	-4144	-38	-74	13	-7272	8320	12480	24	-7	-14	-15984	784	-3872	-2	-57	43	-15760	3288	-2472	-33	-17	34	122	134	8
-7780	-7564	11912	-14	15	-22	-15584	-2000	-3680	-12	-37	18	-15600	-312	-3920	-35	-72	19	-7080	8368	12608	21	-7	-10	-16128	688	-3664	23	-56	45	-15808	3368	-2008	-47	-14	41	119	134	8
-7760	-7544	11936	-18	14	-25	-15824	-1808	-3528	-28	-38	23	-15712	-128	-3792	-24	-66	26	-7040	8408	12976	13	-6	-13	-16144	912	-3616	17	-52	54	-15984	3216	-1944	-58	-37	51	119	134	8
-7780	-7480	11876	-9	14	-25	-15728	-1944	-3488	-30	-36	15	-15648	-104	-3896	-25	-66	30	-6896	8464	12512	17	-9	-12	-16216	976	-3520	2	-41	41	-16032	3528	-1936	-36	-42	54	117	134	8
-7732	-7484	12060	-7	15	-22	-15784	-1920	-3064	-25	-31	23	-15640	-208	-3744	-26	-67	25	-7112	8320	12632	9	-7	-13	-16200	776	-3632	-20	-29	41	-15832	3408	-2152	-30	-52	55	119	134	8
-7640	-7432	11984	-15	10	-21	-15640	-1736	-3480	-12	-28	23	-15664	32	-3624	-36	-71	18	-7096	8424	12768	8	-12	-15	-16000	712	-3640	1	-30	45	-15840	3496	-2216	-13	-56	48	122	134	8
-7648	-7572	12052	-13	14	-21	-15632	-1960	-3640	-31	-24	23	-15808	-8	-3840	-44	-75	21	-7160	8408	12600	7	-11	-18	-16200	816	-3448	13	-29	45	-15960	3416	-2344	-4	-42	48	117	134	8
-7708	-7644	11968	-18	14	-20	-15768	-1920	-3576	-15	-21	23	-15784	40	-3672	-52	-72	15	-6984	8456	12688	9	-6	-12	-16264	960	-3848	0	-30	44	-15784	3440	-2344	-5	-36	42	118	134	8
-7696	-7540	11876	-14	17	-18	-15728	-1784	-3408	-13	-20	20	-15784	-240	-3640	-45	-69	14	-7128	8504	12632	13	-14	-7	-16184	728	-3840	-16	-40	44	-15776	3344	-2384	-12	-38	47	120	134	8
-7716	-7500	11980	-13	13	-20	-15728	-1576	-3464	-14	-20	22	-15672	-56	-3776	-33	-59	23	-7056	8224	12856	9	-6	-15	-16088	664	-3376	12	-43	41	-15752	3360	-2072	-2	-42	50	119	134	8
-7768	-7516	11960	-19	17	-20	-15760	-1736	-3368	-21	-21	22	-15704	-240	-3816	-16	-57	35	-7088	8616	12816	11	-10	-14	-16216	1000	-3856	19	-43	46	-15976	3192	-1984	15	-47	50	118	134	8
-7736	-7500	11900	-14	16	-24	-15840	-1664	-3248	-23	-24	22	-15512	-72	-3992	0	-55	39	-7080	8552	12928	18	-6	-16	-16256	888	-3584	5	-43	43	-15880	3376	-2008	32	-44	41	116	134	8
-7700	-7520	11980	-17	19	-21	-15776	-1624	-3648	-7	-22	17	-15832	0	-3456	10	-60	40	-7088	8336	12656	16	-1	-12	-16288	784	-3632	30	-44	45	-15952	3496	-2096	37	-40	42	117	134	8
-7720	-7532	11928	-14	15	-21	-15680	-1704	-3048	4	-20	18	-15752	-72	-3672	10	-54	38	-7000	8264	12984	18	-3	-13	-16344	952	-3400	9	-37	45	-15784	3600	-2144	37	-38	35	117	134	8
-7712	-7620	11920	-15	15	-19	-15808	-1608	-3480	1	-15	17	-15624	104	-3864	-4	-55	36	-7104	8280	12624	13	3	-15	-16256	976	-3768	-12	-40	36	-15816	3464	-2072	18	-37	37	117	135	8
-7700	-7436	11916	-9	13	-21	-15760	-1912	-3240	4	-22	18	-15768	0	-3552	-16	-47	33	-6920	8200	12888	14	-2	-18	-16224	840	-3448	-7	-46	40	-15904	3384	-2104	7	-30	36	116	135	8
-7692	-7528	11956	-14	16	-16	-15728	-1504	-3480	-2	-18	13	-15800	192	-3880	-3	-50	27	-6968	8328	12672	21	-4	-18	-16248	648	-3640	52	-43	42	-15744	3288	-2160	32	-26	30	118	134	8
-7692	-7504	12132	-12	14	-19	-15864	-1600	-3472	-14	-25	14	-15784	248	-3944	-15	-47	28	-7240	8376	12448	19	-4	-15	-16184	1080	-3472	66	-47	45	-15840	3528	-2096	69	-24	25	117	135	8
-7708	-7588	11960	-15	17	-14	-15792	-1568	-3264	-26	-26	9	-15792	120	-3712	-27	-48	25	-7128	8296	12864	18	2	-15	-16232	1192	-3264	24	-49	42	-15984	3776	-2000	85	-20	21	115	135	8
-7652	-7476	11916	-17	20	-22	-15720	-1560	-3272	-30	-28	10	-15600	-40	-3752	-34	-47	22	-7024	8376	12680	20	-5	-13	-16240	1056	-3792	-7	-49	29	-15992	3960	-2040	48	-5	27	118	135	8
-7740	-7476	11976	-15	15	-21	-15688	-1616	-3176	-22	-25	4	-15680	128	-3664	-35	-50	16	-7096	8432	12688	18	-4	-18	-16200	944	-3464	-4	-39	23	-16072	3960	-1888	-14	5	27	117	135	8
-7732	-7480	11984	-14	14	-19	-15792	-1704	-3168	-13	-25	0	-15640	96	-3712	-37	-49	10	-7080	8432	12544	14	-2	-26	-16296	936	-3344	3	-39	32	-15776	3768	-1944	-49	0	26	118	135	8
-7716	-7580	11864	-13	12	-19	-15896	-1576	-3200	-23	-20	3	-15752	56	-3696	-35	-42	7	-7120	8480	12592	15	-3	-22	-16248	888	-3576	-18	-40	27	-15856	3320	-1872	-43	1	11	117	135	8
-7688	-7488	11964	-15	13	-20	-15944	-1624	-3288	-15	-25	-3	-15720	64	-3712	-36	-30	13	-7008	8384	12848	16	-2	-20	-16288	880	-3632	-7	-37	25	-15872	3536	-1800	-9	8	5	119	135	8
-7776	-7536	11876	-18	14	-20	-15816	-1568	-3448	-6	-24	-8	-15816	72	-3696	-30	-28	17	-7096	8376	12696	19	-3	-16	-16184	768	-3544	-1	-38	25	-15712	3728	-2008	15	10	5	118	135	8
-7700	-7544	11960	-18	18	-22	-15720	-1592	-3208	-10	-22	-5	-15616	8	-3536	-31	-30	11	-6968	8448	12544	22	-3	-21	-16248	1128	-3544	-2	-36	23	-15776	4040	-1776	7	4	11	116	135	8
-7684	-7540	11832	-16	16	-25	-15744	-1632	-3200	-8	-21	-6	-15640	120	-3584	-25	-33	3	-7016	8376	12608	16	-3	-21	-16280	1064	-3328	-22	-32	16	-15840	3752	-1760	-17	11	13	118	135	8
-7800	-7504	11964	-11	13	-26	-15704	-1672	-3144	-8	-15	-9	-15832	96	-3832	-25	-35	-2	-7120	8496	12616	10	-1	-24	-16360	840	-3608	-4	-25	9	-15848	3648	-1912	-22	16	8	120	135	8
-7696	-7548	11900	-10	15	-23	-15832	-1720	-3568	-6	-13	-8	-15792	-56	-3624	-26	-34	-1	-7056	8408	12592	12	-6	-18	-16224	936	-3352	10	-22	11	-16072	3600	-1936	-26	6	2	118	135	8
-7684	-7504	11932	-12	10	-20	-15776	-1600	-3464	-3	-14	-13	-15776	-40	-3728	-28	-30	6	-7056	8584	12528	9	-5	-20	-16152	832	-3464	4	-13	10	-15688	3496	-1640	-22	4	6	120	135	8
-7696	-7472	11892	-17	16	-23	-15912	-1536	-3392	-13	-14	-15	-15744	184	-3680	-29	-26	10	-6944	8296	12840	14	-9	-18	-16176	952	-3352	-7	-15	12	-15808	3600	-2008	27	4	-4	120	134	8
-7744	-7488	11968	-16	12	-24	-15776	-1576	-3248	-3	-15	-17	-15624	40	-3504	-21	-20	8	-6992	8456	12728	14	-2	-22	-16448	1192	-3560	-17	-16	11	-15784	3600	-2224	40	11	-4	118	134	8
-7700	-7532	12004	-17	14	-23	-15728	-1640	-3352	5	-15	-18	-15712	0	-3728	-15	-20	7	-6976	8408	13048	14	-3	-24	-16240	912	-3616	-10	-19	4	-15864	3528	-2288	26	18	-9	119	134	8
-7736	-7452	11840	-15	13	-22	-15840	-1736	-3336	5	-13	-22	-15808	96	-3616	-2	-18	1	-7040	8344	12728	17	-1	-20	-16248	632	-3568	41	-20	8	-15904	3392	-2216	25	18	-14	119	134	8
-7732	-7516	11880	-13	11	-24	-15680	-1624	-3240	0	-11	-24	-15528	80	-3664	-4	-14	0	-7112	8296	12704	12	-1	-22	-16088	904	-3400	70	-22	12	-15856	3512	-2104	55	9	-18	118	134	8
-7704	-7536	12016	-18	12	-25	-15720	-1728	-3328	15	-11	-24	-15704	0	-3712	-10	-12	1	-6928	8352	12416	19	0	-21	-16248	1048	-3328	41	-18	8	-15976	3720	-2328	64	10	-10	121	134	8
-7712	-7512	11976	-17	12	-27	-15832	-1520	-3016	19	-4	-31	-15808	-80	-3408	-11	-12	-8	-7024	8304	12808	20	-1	-24	-16376	1072	-3480	22	-12	-4	-16304	3896	-1840	75	8	-20	117	135	8
-7772	-7536	11980	-14	13	-30	-15912	-1688	-3312	12	-5	-28	-15720	-24	-3560	-3	-4	-17	-7032	8552	12776	18	0	-20	-16144	1056	-3480	15	-11	-3	-15880	3720	-1888	60	10	-17	119	135	8
-7712	-7560	11980	-12	13	-27	-15656	-1760	-3432	1	-6	-31	-15856	104	-3512	-5	-9	-16	-7160	8328	12848	20	-1	-24	-16184	872	-3360	36	1	-15	-15752	3832	-1856	49	-13	-14	119	135	8
-7724	-7456	12028	-15	13	-26	-15784	-1576	-3200	15	-3	-36	-15776	-40	-3456	-12	-7	-14	-6984	8368	12592	18	-2	-22	-16216	768	-3632	52	4	-11	-16040	3512	-1984	44	-27	-15	117	134	8
-7756	-7632	12000	-23	22	-27	-15896	-1720	-3256	31	6	-30	-15896	-104	-3656	9	-5	-9	-7048	8384	12728	19	-2	-22	-16264	960	-3544	52	4	-12	-16016	3264	-2016	75	-43	-29	118	133	8
-7824	-7720	11800	-20	17	-27	-15664	-1776	-3184	38	6	-36	-15648	-328	-3680	29	7	0	-7240	8336	12592	21	-1	-23	-16280	1016	-3848	33	3	-15	-15800	3208	-2672	107	-71	-23	119	133	8
-7724	-7440	11972	-17	15	-26	-15552	-1816	-3272	37	10	-33	-15752	-360	-3800	63	-4	20	-7056	8360	12576	14	-4	-18	-16048	728	-3776	27	-5	-12	-15696	3312	-2232	169	-69	-10	116	132	8
-7752	-7540	11872	-14	13	-30	-15712	-1912	-3312	41	15	-36	-15800	-544	-3560	112	3	34	-7128	8376	12656	18	0	-21	-16232	744	-3648	69	-21	-15	-15896	3432	-2472	185	-55	6	119	133	8
-7780	-7560	11988	-14	17	-29	-15752	-1960	-3184	62	17	-29	-15784	-504	-3552	164	13	51	-7104	8360	12872	18	-1	-22	-16224	592	-3584	105	-33	-8	-15960	3240	-2232	177	-66	6	118	134	8
-7692	-7560	11956	-13	13	-25	-15728	-1912	-3224	81	22	-29	-15840	-408	-3952	177	12	52	-6912	8416	12536	15	-7	-18	-16056	632	-3112	111	-39	-2	-16016	3728	-2344	157	-68	-2	119	134	8
-7660	-7640	11876	-8	12	-29	-15784	-1880	-3320	89	24	-29	-15648	-208	-3888	187	15	52	-6944	8456	12896	15	-13	-15	-16368	912	-3560	58	-41	-1	-16040	3520	-1768	122	-65	-2	120	134	8
-7708	-7644	11896	-7	8	-24	-15848	-1768	-3224	66	23	-24	-15632	-96	-3784	164	8	47	-7016	8296	12880	18	-4	-17	-16480	712	-2936	23	-36	-4	-15896	3448	-1976	92	-69	11	118	134	8
-7740	-7524	11956	-1	7	-32	-15864	-1816	-3336	46	18	-21	-15568	-8	-3832	123	-2	40	-7048	8272	12752	12	-7	-18	-16128	664	-3432	10	-31	-4	-15904	3248	-1808	87	-75	22	122	133	8
-7700	-7480	12020	-7	7	-30	-15856	-1872	-3432	44	10	-18	-15904	72	-3712	78	-8	38	-6944	8480	12600	15	-7	-19	-16200	768	-3432	20	-29	3	-16096	3184	-1856	86	-49	28	116	133	8
-7636	-7488	12084	-4	3	-24	-15896	-1944	-3624	29	9	-18	-15640	-248	-3808	26	-6	38	-7032	8416	12584	19	-8	-18	-16336	480	-3512	23	-32	9	-15936	3432	-1856	80	-56	15	117	134	8
-7692	-7608	11956	-5	4	-27	-15880	-2016	-3376	19	3	-13	-15552	-360	-3840	12	-10	32	-7168	8392	12848	20	-6	-17	-16376	600	-3288	28	-34	14	-15776	3376	-1872	67	-59	13	117	134	8
-7708	-7616	11936	-6	12	-25	-15752	-1808	-3480	0	-3	-8	-15816	-352	-3776	11	-19	32	-6960	8384	12416	17	-6	-19	-16184	584	-3448	16	-36	14	-15968	3424	-2016	40	-46	23	118	134	8
-7684	-7560	12040	-6	11	-24	-15784	-1792	-3392	-15	-9	-3	-15864	-352	-3600	34	-15	41	-7048	8440	12776	20	-7	-23	-16312	568	-3400	15	-35	18	-15816	3312	-2096	22	-31	20	118	134	8
-7724	-7580	11956	-7	8	-26	-15640	-1912	-3400	-14	-4	2	-15672	-256	-3584	34	-13	48	-7088	8336	13024	21	-3	-21	-16320	744	-3384	0	-41	20	-15672	3352	-1576	34	-20	16	119	134	8
-7772	-7560	11944	-4	5	-29	-15672	-1896	-3128	-3	1	-2	-15624	-456	-3576	24	-4	47	-7016	8440	12656	25	-2	-19	-16352	744	-3144	-11	-29	22	-16008	3376	-1376	51	-7	15	119	134	8
-7708	-7504	11876	-2	4	-25	-15640	-1896	-3120	7	10	7	-15720	-176	-3752	16	-9	51	-7120	8256	12744	19	0	-22	-16216	728	-3104	-17	-24	26	-15992	3336	-1568	55	25	16	119	134	8
-7664	-7516	11956	8	2	-20	-15720	-1744	-3424	10	7	8	-15600	-24	-3536	22	-4	55	-7128	8336	12776	28	5	-18	-16336	736	-3032	8	-17	29	-15992	3336	-1496	58	23	16	116	134	8
-7740	-7576	12068	3	5	-23	-15712	-1776	-3256	-15	8	6	-15688	128	-3472	19	-4	63	-6968	8408	12552	27	0	-26	-16368	760	-3080	4	-9	29	-15728	3528	-1624	27	8	19	117	134	8
-7700	-7588	12044	3	5	-27	-15952	-1768	-3432	-8	1	0	-15808	-120	-3760	26	2	54	-6968	8480	12656	26	1	-21	-16264	1056	-3152	2	-1	27	-15904	3800	-1520	30	5	15	115	134	8
-7688	-7540	12008	-2	8	-25	-15808	-1864	-3520	-5	0	-1	-15856	208	-3544	32	6	47	-7032	8512	12728	30	-1	-22	-16304	904	-3488	-27	1	24	-15568	3680	-1752	15	28	6	116	134	8
-7688	-7448	11956	-2	7	-23	-15728	-1568	-3104	-4	6	-3	-15824	264	-3328	17	9	40	-7080	8432	12688	27	2	-21	-16288	840	-3304	-15	7	18	-15936	3752	-1872	1	49	-6	117	134	8
-7672	-7560	11968	-3	7	-22	-15712	-1680	-3192	-2	7	-8	-15672	152	-3336	-12	14	23	-7128	8336	12856	24	6	-22	-16224	1000	-3248	-10	7	14	-15944	3688	-1688	-7	46	-5	119	134	8
-7668	-7472	11912	3	5	-23	-15784	-1728	-3272	-6	10	-11	-15744	440	-3752	-50	13	9	-7128	8400	12648	27	1	-27	-16264	912	-3256	-13	14	12	-15728	3744	-1800	-39	48	-14	120	134	8
-7712	-7492	12104	6	6	-16	-15888	-1600	-3296	-8	15	-19	-15752	536	-3728	-85	19	2	-7032	8296	12872	18	7	-27	-16376	944	-3448	-25	7	9	-15840	3824	-1976	-41	63	-16	122	133	8
-7760	-7560	12020	-7	11	-25	-15904	-1504	-3168	-31	10	-21	-15848	504	-3832	-106	25	-4	-7216	8416	12584	33	3	-24	-16376	792	-3400	-40	-1	4	-15776	3736	-1800	-41	79	-31	119	133	8
-7756	-7548	12000	-9	11	-21	-15880	-1776	-3312	-18	10	-30	-15712	328	-3768	-98	29	-11	-7080	8440	12752	28	-5	-20	-16288	792	-3360	-18	10	-6	-15872	3512	-2120	-51	87	-32	117	133	8
-7712	-7428	11880	-11	17	-23	-15784	-1648	-3040	-14	3	-33	-15680	160	-3832	-83	22	-17	-7256	8296	12672	24	3	-28	-16280	944	-3440	-5	7	-9	-15784	3672	-1920	-48	83	-38	118	133	8
-7696	-7532	11988	-14	17	-26	-15720	-1848	-3464	-14	0	-40	-15600	88	-3960	-65	26	-25	-7088	8384	12648	19	-7	-24	-16256	952	-3288	-2	10	-14	-15688	3416	-1928	-27	74	-37	117	133	8
-7752	-7568	11952	-16	19	-24	-15848	-1664	-3408	-6	3	-41	-15800	-48	-3520	-46	24	-30	-7024	8392	12584	18	2	-24	-16376	968	-3352	-6	15	-16	-15832	3520	-1888	12	78	-43	118	134	8
-7700	-7500	12000	-15	20	-20	-15800	-1608	-3264	12	8	-38	-15944	0	-3448	-13	19	-29	-7064	8552	12920	21	2	-28	-16240	864	-3368	5	19	-18	-16000	3424	-2016	25	87	-51	120	134	8
-7692	-7500	11904	-20	17	-23	-15600	-1864	-3432	-9	8	-48	-16008	16	-3784	-32	22	-4	-7088	8304	12592	18	1	-27	-16296	680	-2952	21	23	-21	-16000	3464	-1784	36	86	-62	119	134	8
-7672	-7564	11976	-22	25	-25	-15888	-2064	-3368	-13	12	-52	-15592	-424	-3616	-64	37	-5	-7024	8384	12672	16	3	-30	-16304	696	-3104	11	22	-12	-16104	3392	-2104	31	80	-56	121	134	8
-7660	-7572	11900	-17	24	-21	-15704	-2064	-3504	3	13	-43	-15816	-576	-3816	-38	45	-17	-7192	8304	12688	21	8	-33	-16352	760	-3544	0	22	-18	-16048	3136	-2296	10	79	-44	119	133	8
-7656	-7608	11944	-19	19	-20	-15664	-1952	-3520	18	21	-35	-15672	-432	-4088	-11	41	-13	-7032	8416	12536	21	9	-36	-16488	424	-3648	7	16	-15	-15824	3032	-2376	9	70	-43	120	133	8
-7684	-7608	11832	-10	20	-22	-15664	-1664	-3400	-12	14	-38	-15688	-192	-4072	-15	42	-11	-7312	8456	12936	21	-2	-29	-16040	592	-3576	36	9	-14	-15752	3072	-2384	36	61	-36	120	134	8
-7736	-7468	12012	-12	14	-24	-15568	-1896	-3416	-21	14	-31	-15720	-136	-3816	-12	36	4	-7016	8416	12616	20	4	-29	-16248	528	-3400	44	0	-10	-15744	3288	-2384	74	65	-36	120	134	8
-7696	-7536	11948	-14	14	-18	-15840	-2136	-3352	14	21	-34	-15624	-168	-3992	-6	29	3	-7064	8456	12736	22	4	-32	-16408	608	-3360	36	-10	-7	-15912	3304	-2384	92	75	-38	120	134	8
-7752	-7476	11988	-12	13	-21	-15800	-1920	-3656	43	26	-30	-15640	-296	-4032	2	32	7	-7048	8360	12760	19	5	-30	-16368	584	-3656	17	-12	-7	-15688	3160	-2376	87	76	-55	120	133	8
-7712	-7484	11992	-8	13	-22	-15752	-1920	-3240	36	21	-20	-15600	-312	-4144	15	22	-1	-7232	8296	12632	23	5	-27	-16224	600	-3712	28	-17	-5	-16360	3432	-2344	72	88	-47	119	134	8
-7724	-7592	12016	-8	11	-21	-15768	-1856	-3552	19	22	-24	-15528	-200	-3976	28	22	-3	-7080	8424	12712	22	6	-21	-15992	536	-3080	48	-10	1	-15904	2944	-2272	22	61	-29	121	134	8
-7724	-7516	11976	-8	12	-22	-15640	-2040	-3464	16	17	-25	-15672	-168	-4064	37	18	-2	-7176	8416	12800	20	2	-21	-16088	672	-3232	37	0	7	-15952	3320	-1912	12	27	-16	120	134	8
-7688	-7644	11924	-9	14	-23	-15808	-1824	-3712	43	19	-23	-15752	-96	-4240	38	12	5	-7032	8392	12744	13	-7	-22	-16208	864	-3304	-3	19	1	-15824	3152	-1768	10	14	-9	120	134	8
-7744	-7508	11940	-12	12	-25	-15728	-1880	-3208	31	12	-17	-15592	-64	-3880	40	13	8	-7184	8432	12688	13	-6	-22	-16288	680	-3480	-39	21	0	-15904	3136	-2400	29	26	-25	120	135	8
-7756	-7536	11916	-9	14	-18	-15760	-1952	-3256	35	11	-20	-15592	-224	-3960	28	8	8	-7136	8352	12552	17	-4	-23	-16408	536	-3696	-37	13	-2	-15904	3088	-2808	44	52	-43	120	134	8
-7672	-7452	12024	-13	16	-25	-15816	-1984	-3424	7	5	-22	-15632	-200	-4104	1	5	12	-7184	8464	12656	18	-1	-24	-16336	488	-3712	7	5	2	-15672	3016	-2656	47	60	-53	120	134	8
-7700	-7452	12064	-14	14	-24	-15896	-2000	-3512	-14	-3	-24	-15640	-272	-4016	-10	4	10	-7056	8384	12768	21	3	-23	-16232	512	-3496	34	-2	7	-15976	3176	-2336	61	66	-50	119	134	8
-7732	-7552	11988	-17	11	-22	-15712	-2136	-3400	-11	0	-16	-15768	-416	-4136	-12	4	2	-6976	8424	12744	20	-4	-21	-16232	592	-3544	24	0	11	-15976	3032	-2568	68	55	-33	121	134	8
-7696	-7464	12080	-10	11	-24	-15608	-2064	-3488	0	7	-18	-15760	-232	-4128	-6	1	9	-7168	8272	12672	15	-5	-16	-16360	736	-3248	15	4	8	-16112	3032	-2296	48	28	-12	119	135	8
-7660	-7592	11980	-10	14	-23	-15728	-2080	-3256	11	6	-14	-15584	-168	-3992	0	6	14	-7104	8464	12768	16	-2	-23	-16336	720	-3552	-9	7	9	-15704	3040	-2512	41	15	-9	119	135	8
-7680	-7512	11936	-11	15	-20	-15672	-1960	-3528	22	5	-15	-15544	-184	-4056	-3	10	8	-7096	8352	12640	23	1	-27	-16208	696	-3376	3	2	10	-15856	2928	-2624	57	34	-28	120	135	8
-7696	-7508	12004	-8	19	-20	-15672	-2016	-3416	12	6	-9	-15592	-160	-4128	-6	10	16	-7008	8424	12664	27	1	-23	-16176	656	-3392	16	-2	8	-15896	3112	-2888	62	53	-38	118	135	8
-7712	-7516	11988	-9	12	-18	-15776	-1904	-3360	3	6	-15	-15704	-184	-4008	-9	11	17	-7224	8376	12672	26	-2	-26	-16120	720	-3472	19	-8	15	-15608	2968	-2344	51	63	-42	118	135	8
-7708	-7520	11948	-8	15	-23	-15672	-1856	-3472	6	11	-12	-15544	-176	-4000	-13	13	19	-7000	8264	12608	30	3	-23	-16208	728	-3152	0	-9	11	-15624	2896	-2336	51	67	-65	118	135	8
-7652	-7612	11976	-12	15	-19	-15752	-1960	-3472	15	-1	-14	-15512	-168	-4104	-6	3	15	-7128	8432	12648	23	-5	-27	-16168	736	-3648	-25	-13	14	-15304	2704	-2536	97	89	-92	118	135	8
-7632	-7516	11884	-11	14	-23	-15576	-1960	-3328	12	1	-11	-15688	-320	-4208	16	-1	17	-7104	8360	12464	21	7	-26	-16392	400	-3472	-11	-15	14	-15616	2640	-2248	168	121	-129	117	135	8
-7688	-7580	11944	-12	18	-23	-15744	-2072	-3288	24	-2	-8	-15584	-360	-4016	20	5	18	-7104	8344	12760	24	3	-26	-16456	328	-3448	13	-30	22	-15880	2768	-2744	225	160	-146	117	135	8
-7804	-7676	11904	-9	13	-20	-15824	-2016	-3560	32	-1	-8	-15768	-256	-3912	24	4	20	-7160	8376	12664	29	0	-27	-16240	608	-3448	41	-34	24	-15672	2640	-2792	222	154	-155	117	135	8
-7728	-7544	11992	-7	15	-16	-15928	-1880	-3328	18	-7	-7	-15664	-312	-4184	24	12	28	-7104	8328	12584	29	7	-24	-16168	616	-3320	33	-35	32	-15504	2504	-2848	217	146	-175	117	135	8
-7740	-7440	12044	-10	16	-20	-15624	-1920	-3576	6	-4	-10	-15680	-192	-3904	18	20	34	-7200	8456	12704	30	5	-26	-16088	696	-3192	4	-35	29	-15280	2520	-2808	239	136	-194	116	135	8
-7724	-7648	11924	-14	19	-15	-15720	-1904	-3728	2	-8	-10	-15712	-296	-4176	11	22	37	-7088	8352	12712	33	6	-27	-16280	648	-3296	-5	-31	33	-15464	2152	-2936	243	102	-212	117	134	8
-7740	-7440	12028	-13	20	-17	-15792	-2024	-3216	0	-7	-2	-15672	-144	-3928	11	23	29	-7064	8320	12616	30	16	-33	-16328	488	-3256	26	-29	36	-15824	2456	-2704	265	69	-228	117	135	8
-7748	-7504	11932	-13	17	-14	-15696	-2104	-3264	1	5	-7	-15560	-272	-3872	2	18	24	-7200	8512	12504	31	8	-28	-16136	680	-3240	45	-13	31	-17288	3232	-1712	280	44	-216	117	135	8
-7736	-7524	12008	-15	19	-14	-15664	-1976	-3416	-9	11	-6	-15616	-88	-3920	-2	12	20	-7136	8360	12608	20	3	-25	-16096	552	-3344	33	-7	30	-19736	4512	-2800	185	-3	-16	116	135	8
-7684	-7520	11960	-15	16	-14	-15824	-1984	-3488	-6	13	-13	-15672	-40	-3840	-11	10	24	-7184	8552	12704	30	6	-31	-16760	760	-3256	42	5	36	-15112	3360	-3328	9	-4	114	118	135	8
-7728	-7544	11980	-10	13	-17	-15800	-1928	-3464	0	17	-4	-15544	-288	-4080	-16	20	21	-7064	8432	12664	27	8	-30	-16112	832	-3360	43	22	21	-15296	2936	-2184	-78	-2	62	117	135	8
-7736	-7500	11932	-9	16	-21	-15728	-1936	-3584	27	25	-3	-15712	-320	-4088	-5	8	21	-7184	8280	12656	21	1	-27	-15800	984	-3384	5	33	16	-15776	3056	-2696	-103	34	51	117	135	8
-7796	-7492	11856	-12	15	-21	-15792	-1776	-3440	10	19	-2	-15656	-232	-4216	15	5	31	-7192	8376	12488	16	-3	-26	-16328	616	-3232	-43	24	15	-16128	2648	-3016	-50	37	38	118	134	8
-7740	-7524	11920	-9	15	-20	-15728	-1952	-3616	-1	18	-6	-15568	-352	-4336	29	13	36	-7248	8488	12536	18	-3	-26	-16560	600	-3488	-39	14	11	-16048	2528	-2976	-51	37	24	119	135	8
-7684	-7544	12008	-9	13	-24	-15808	-2000	-3112	11	13	-9	-15464	-112	-4072	37	12	42	-7200	8360	12696	25	1	-25	-16336	376	-3528	7	10	15	-15816	2256	-3320	-58	16	1	118	135	8
-7728	-7476	12016	-7	9	-21	-15664	-1896	-3528	25	16	-7	-15688	-16	-4168	43	5	40	-7176	8296	12664	24	0	-24	-15856	672	-3616	19	4	9	-15304	2216	-3192	-50	5	4	119	135	8
-7756	-7508	11952	-10	13	-20	-15664	-1912	-3544	28	12	-8	-15472	-16	-4352	34	4	31	-7184	8272	12576	20	-6	-19	-16104	656	-3592	1	2	14	-15728	2520	-2816	12	0	20	118	135	8
-7760	-7584	11968	-8	16	-23	-15680	-1896	-3856	27	14	-11	-15528	8	-4472	20	1	20	-7288	8280	12600	13	-3	-19	-16280	672	-3496	-6	-1	6	-15688	2504	-2992	40	2	42	119	135	8
-7720	-7476	11988	-4	13	-23	-15664	-1800	-3576	5	8	-11	-15704	208	-4072	7	-1	14	-7080	8416	12448	14	-4	-21	-16360	520	-3520	-3	-13	13	-16656	2848	-2800	54	-26	40	117	135	8
-7748	-7528	11968	-11	11	-26	-15768	-1872	-3704	-6	0	-13	-15672	-48	-4344	-5	-13	13	-7216	8480	12656	13	-2	-16	-16368	512	-3376	29	-10	10	-15880	2864	-2992	22	-13	50	118	135	8
-7796	-7520	11900	-11	8	-28	-15720	-2112	-3600	6	4	-14	-15560	-184	-4176	3	-25	8	-7272	8336	12608	16	-5	-16	-16336	600	-3496	42	-13	12	-15592	2856	-2688	7	-6	31	118	135	8
-7732	-7520	12052	-10	15	-28	-15632	-1984	-3344	21	2	-12	-15504	-224	-4144	15	-25	9	-7096	8448	12600	19	-10	-20	-15984	720	-3448	21	-10	12	-15872	2952	-2824	-31	-3	23	118	135	8
-7764	-7580	11976	-11	13	-25	-15720	-1992	-3544	19	4	-11	-15576	-184	-4128	28	-18	16	-7040	8400	12480	14	-12	-15	-16120	768	-3376	-13	-6	9	-15488	2584	-2904	-61	-8	23	119	135	8
-7704	-7532	12024	-9	11	-26	-15768	-1960	-3768	13	-2	-16	-15528	-152	-4288	30	-15	21	-7216	8376	12568	9	-10	-18	-16200	728	-3328	-36	-3	2	-16280	2816	-2584	-54	-28	21	118	135	8
-7676	-7480	12080	-11	12	-27	-15584	-2064	-3680	11	1	-16	-15744	-240	-4088	30	-19	20	-7168	8416	12544	9	-7	-19	-16480	400	-3720	-18	-9	10	-16440	2928	-3256	-59	-8	61	118	134	8
-7692	-7516	11952	-9	11	-26	-15776	-1936	-3464	3	-5	-11	-15744	-280	-4224	22	-21	19	-7128	8432	12536	13	-8	-16	-16408	528	-3224	16	-2	7	-15376	2512	-2888	-65	-21	61	118	134	8
-7708	-7556	11996	-12	12	-28	-15824	-2128	-3416	3	-6	-12	-15592	-168	-4088	5	-25	10	-7256	8400	12512	12	-4	-16	-16232	600	-3336	22	-2	7	-15376	2496	-2768	-54	-17	32	120	135	8
-7680	-7408	11916	-14	13	-24	-15744	-1904	-3128	-5	-1	-9	-15616	-192	-4000	-4	-30	3	-7176	8336	12864	11	-8	-19	-16048	616	-3544	6	2	12	-16088	2728	-2752	3	-15	23	119	134	8
-7776	-7460	11960	-9	9	-27	-15560	-1960	-3296	3	-7	-8	-15608	-144	-4016	-16	-27	2	-6912	8288	12304	13	-11	-17	-16176	576	-3584	-3	2	12	-16392	2968	-2856	-2	-32	55	119	134	8
-7700	-7516	11976	-11	8	-28	-15856	-1904	-3528	10	-1	-7	-15616	-200	-4248	-21	-23	9	-7080	8448	12752	17	-7	-11	-16448	704	-3368	16	3	14	-15520	2584	-3024	-52	-57	75	118	134	8
-7700	-7540	11952	-8	12	-28	-15664	-2104	-3400	12	-1	-2	-15560	-408	-4112	-1	-17	20	-7040	8368	12920	15	-5	-17	-16272	720	-3616	11	0	20	-16304	3136	-2512	-16	-67	60	118	134	8
-7720	-7492	12016	-5	9	-26	-15864	-2040	-3312	11	2	-5	-15760	-400	-4128	29	-17	31	-7008	8384	12808	20	-1	-20	-16104	648	-3872	12	-1	18	-16472	3224	-3480	-39	-54	130	119	133	8
-7784	-7508	11992	-2	2	-27	-15560	-1888	-3288	8	9	-7	-15600	-360	-4096	47	-18	38	-7144	8384	12656	18	-9	-14	-16176	712	-3640	38	-3	15	-15192	2656	-2944	-87	-110	128	120	134	8
-7720	-7500	11896	-3	6	-26	-15648	-1952	-3432	12	5	-3	-15672	-320	-4024	52	-18	45	-7176	8400	12600	9	-9	-13	-16168	800	-3392	25	6	17	-15800	3224	-2456	-83	-94	104	120	134	8
-7676	-7540	12016	-9	9	-22	-15832	-2048	-3392	25	10	-10	-15784	48	-4056	53	-20	40	-7088	8512	12568	7	-6	-15	-16184	656	-3712	10	3	15	-16024	3080	-2928	-81	-76	117	119	134	8
-7732	-7456	11996	-7	16	-26	-15832	-1960	-3424	29	9	0	-15664	-8	-4432	47	-19	33	-7136	8352	12760	9	-12	-16	-16416	520	-3624	9	-11	15	-15312	2640	-2752	-107	-104	105	119	134	8
-7740	-7476	12016	-7	13	-23	-15840	-1856	-3712	18	2	-5	-15544	128	-4376	32	-25	25	-7104	8320	12600	12	-9	-16	-16112	800	-3704	0	-11	11	-15384	2728	-2504	-71	-83	63	120	133	8
-7772	-7532	11988	-14	14	-28	-15552	-1912	-3568	-5	-6	-10	-15504	80	-4464	6	-26	13	-7216	8416	12776	7	-4	-14	-16088	680	-3472	10	-14	12	-15904	3144	-2632	-12	-63	46	120	134	8
-7692	-7468	12076	-15	10	-21	-15560	-1816	-3488	-19	-14	-9	-15464	24	-4088	-19	-37	9	-7240	8552	12752	10	-14	-13	-16160	504	-3536	19	-17	19	-16392	3304	-2456	-12	-57	73	117	133	8
-7708	-7504	11960	-17	16	-29	-15832	-2056	-3272	-12	-19	-9	-15624	-136	-4392	-34	-51	3	-7032	8400	12936	7	-10	-18	-16296	656	-3488	29	-16	14	-15536	3088	-2384	-54	-68	71	120	134	8
-7736	-7520	11940	-15	14	-24	-15696	-2072	-3344	8	-16	-12	-15808	-184	-4168	-33	-55	-2	-7176	8440	12552	12	-5	-13	-16080	696	-3160	26	-6	15	-15840	3176	-2320	-61	-78	67	119	134	8
-7740	-7536	11956	-15	15	-26	-15640	-1952	-3568	7	-17	-6	-15616	-232	-4264	-21	-56	-12	-7048	8368	12744	9	-13	-11	-16040	816	-3552	-2	-3	14	-15832	3176	-2144	-49	-81	53	118	134	8
-7804	-7448	11964	-10	9	-31	-15648	-1872	-3408	-16	-22	-10	-15544	-232	-4120	-21	-54	-7	-7080	8232	12424	6	-12	-9	-16256	776	-3368	-31	-6	17	-15488	3088	-2568	-37	-51	34	121	134	8
-7736	-7516	12008	-13	14	-26	-15832	-2032	-3352	-15	-21	-16	-15520	-288	-4216	-21	-51	-7	-7200	8392	12800	6	-8	-9	-16384	640	-3840	-24	-8	10	-16176	3360	-2408	-32	-44	20	119	134	8
-7736	-7540	11964	-17	17	-21	-15776	-1992	-3424	-6	-22	-10	-15776	-208	-3880	-34	-50	-2	-7064	8360	12736	13	-9	-16	-16400	464	-3344	-3	-9	17	-16080	3256	-2480	-62	-38	30	121	134	8
-7712	-7524	12024	-15	16	-24	-15720	-1928	-3224	-9	-20	-9	-15640	-312	-3888	-34	-54	-6	-7184	8384	12800	18	-9	-14	-16304	656	-3344	14	-6	15	-15912	3200	-2504	-83	-42	30	122	134	8
-7708	-7508	11940	-17	15	-22	-15640	-2032	-3392	-7	-21	-12	-15520	-272	-3728	-36	-59	-5	-7080	8304	12736	14	-15	-14	-16072	728	-3256	-8	-1	9	-16040	3072	-2168	-71	-64	42	119	134	8
-7680	-7420	12084	-19	15	-27	-15568	-2216	-3280	-13	-17	-7	-15544	-216	-3888	-42	-58	-1	-7000	8432	12712	16	-15	-17	-16280	672	-3464	-19	-5	14	-15744	2968	-2440	-21	-74	50	122	134	8
-7700	-7476	11952	-14	12	-27	-15792	-1920	-3664	10	-16	-13	-15656	-248	-4016	-34	-50	-3	-7176	8392	12696	12	-13	-15	-16304	496	-3736	3	-2	13	-15856	3000	-2504	11	-60	48	124	134	8
-7740	-7552	11980	-12	14	-25	-15680	-1888	-3672	-4	-14	-3	-15672	-200	-4016	-27	-47	-6	-7048	8384	12648	7	-10	-14	-16272	424	-3608	8	-8	18	-15888	3112	-2304	36	-45	27	118	134	8
-7672	-7512	12000	-9	13	-27	-15800	-2000	-3208	-12	-21	-8	-15624	-224	-3984	-33	-44	5	-7160	8384	12480	6	-7	-13	-16168	880	-3456	36	-5	24	-15632	3544	-2280	18	-39	14	118	133	8
-7704	-7504	12016	-13	14	-26	-15688	-2048	-3240	-10	-15	-13	-15688	-432	-3800	-30	-39	15	-7160	8352	12680	11	-6	-14	-16320	936	-3576	-25	-9	23	-16120	3576	-2216	-2	-23	3	117	133	8
-7752	-7516	11836	-14	16	-26	-15640	-2120	-3400	3	-12	-9	-15768	-392	-3664	-3	-33	13	-7248	8208	12640	12	-3	-18	-16376	576	-3536	-38	-16	13	-15872	3328	-2216	-26	-3	4	119	133	8
-7740	-7496	11896	-15	17	-24	-15656	-1952	-3096	5	-11	-6	-15744	-496	-3920	23	-32	12	-7104	8280	12872	14	-3	-17	-16312	448	-3264	-1	-10	12	-15824	3144	-2096	-23	5	9	118	134	8
-7660	-7528	11988	-13	14	-26	-15760	-1904	-2968	-6	-9	-6	-15744	-272	-3816	32	-27	21	-7064	8392	12664	17	-14	-17	-16224	528	-3232	40	-7	23	-15816	3184	-1992	20	-2	1	118	134	8
-7680	-7552	12024	-8	15	-22	-15896	-2184	-3176	-5	-3	-3	-15760	-400	-3736	22	-22	24	-6968	8416	12648	15	-8	-18	-16112	728	-3000	33	-5	20	-15896	3168	-1936	62	8	-5	120	134	8
-7672	-7564	11892	-13	15	-25	-15896	-2032	-3280	-1	2	-3	-15880	-312	-3832	6	-16	26	-7144	8328	12688	14	-3	-20	-16184	856	-3424	6	1	18	-16240	3304	-2272	77	7	-6	120	134	8
-7652	-7496	11972	-13	12	-23	-15688	-1976	-3368	19	6	-1	-15736	-296	-3712	-9	-13	24	-6992	8464	12808	17	-3	-20	-16256	728	-3840	-17	4	21	-15816	3328	-2088	25	9	7	118	134	8
-7748	-7624	11924	-9	12	-22	-15712	-2016	-3376	13	3	5	-15720	-256	-3960	-23	-12	22	-7080	8336	12664	16	-3	-17	-16264	704	-3728	-2	6	18	-15632	3256	-2504	-15	-3	7	118	134	8
