#Activity	sitting 
#ActivityID	5 
#Date 09-09-17-29
acc_rf_x	acc_rf_y	acc_rf_z	gyro_rf_x	gyro_rf_y	gyro_rf_z	acc_rs_x	acc_rs_y	acc_rs_z	gyro_rs_x	gyro_rs_y	gyro_rs_z	acc_rt_x	acc_rt_y	acc_rt_z	gyro_rt_x	gyro_rt_y	gyro_rt_z	acc_lf_x	acc_lf_y	acc_lf_z	gyro_lf_x	gyro_lf_y	gyro_lf_z	acc_ls_x	acc_ls_y	acc_ls_z	gyro_ls_x	gyro_ls_y	gyro_ls_z	acc_lt_x	acc_lt_y	acc_lt_z	gyro_lt_x	gyro_lt_y	gyro_lt_z	EMG_r	EMG_l	act
-12092	84	10596	-117	178	-280	-15732	-484	-4176	15	136	-521	-1384	-1224	16804	-495	-410	324	-12844	3304	10176	55	-112	-218	-16112	-1444	-4036	-65	-21	-291	-1280	2652	16972	-332	223	375	127	126	5
-12016	144	10696	-44	172	-278	-15740	-556	-4152	182	36	-495	-1276	-1380	16828	-482	-377	317	-12828	3312	10208	40	-48	-209	-16100	-1516	-3932	14	-78	-260	-1256	2480	17076	-555	324	251	125	126	5
-11972	68	10728	-11	135	-262	-15696	-552	-4192	99	16	-451	-1296	-1468	16732	-505	-370	210	-12836	3256	10136	13	-58	-199	-16168	-1556	-4040	149	-206	-192	-1284	2156	16852	-559	275	251	125	127	5
-12020	196	10560	-76	96	-202	-15528	-568	-4340	73	-80	-382	-1296	-1320	16992	-403	-310	37	-12840	3248	10156	24	-111	-171	-15944	-1704	-3728	364	-225	-112	-992	1936	17248	-546	340	41	124	126	5
-12040	148	10776	12	45	-238	-15716	-540	-4408	215	-176	-307	-1384	-1400	16940	-354	-302	-159	-12768	3244	10268	48	-76	-195	-16120	-1720	-3844	423	-267	-21	-1084	1880	17100	-418	378	15	127	128	5
-11948	192	10668	-55	87	-210	-15688	-420	-4308	171	-297	-266	-1520	-1384	16920	-319	-77	-67	-12832	3196	10104	86	-70	-144	-15988	-1656	-3860	445	-301	38	-1160	1960	17140	-272	506	-54	125	125	5
-12012	160	10664	-43	91	-181	-15620	-292	-4348	-37	-340	-317	-1320	-1360	16820	-441	-13	78	-12880	3264	10072	78	-42	-151	-16096	-1448	-3772	358	-328	172	-936	2080	17048	115	523	-214	127	126	5
-11980	144	10788	-19	62	-196	-15624	-344	-4172	-121	-410	-386	-1208	-1256	16956	-283	100	216	-12852	3252	10108	93	-56	-161	-15964	-1492	-3556	233	-352	162	-928	1984	17136	181	781	-270	127	128	5
-11968	160	10664	-5	34	-170	-15552	-420	-4128	-96	-445	-388	-1132	-1208	16836	-72	261	316	-12828	3256	10144	70	-78	-174	-15920	-1344	-3468	249	-383	190	-800	1920	17160	444	1089	-190	125	126	5
-12008	136	10644	39	-2	-152	-15728	-472	-3908	-93	-447	-467	-904	-1328	17032	60	331	515	-12764	3364	10076	54	-120	-224	-16188	-1288	-3564	-16	-398	217	-984	1684	17356	1229	1398	-71	126	127	5
-11932	120	10728	102	6	-202	-15816	-580	-3904	368	-501	-445	-1068	-1336	17128	-398	471	706	-12664	3212	10112	47	-87	-264	-15920	-1592	-3548	-104	-389	212	-1004	1684	16900	1648	1337	-1	131	129	5
-12028	200	10648	166	-90	-145	-15524	-556	-4124	633	-508	-431	-1360	-1220	17008	-467	860	834	-12640	3196	10204	-6	-103	-309	-16032	-1640	-3480	305	-362	284	-1140	1852	16912	2092	1260	65	123	120	5
-11848	208	10720	209	-115	-134	-15616	-684	-4064	557	-628	-418	-1704	-1420	17028	-720	1137	770	-12764	3276	10104	-80	-109	-411	-16088	-1488	-3592	337	-468	452	-1456	1892	17296	2504	1527	-23	118	124	5
-11884	108	10744	185	-84	-79	-15724	-688	-4164	733	-887	-391	-1448	-956	17136	-1783	1365	506	-12776	3116	10088	-32	-115	-448	-16124	-1568	-3960	104	-523	553	-1776	2368	16452	2362	1573	57	131	133	5
-11964	292	10812	115	107	-61	-15744	-628	-4252	-46	-839	-342	-1408	-1504	16628	-2146	1352	142	-12792	3188	10172	-83	-26	-412	-16228	-1356	-3980	230	-642	550	-2012	2532	16720	2850	892	162	130	122	5
-11948	248	10700	-58	240	-28	-15736	-612	-4324	-335	-935	-354	-1740	-2108	16632	-1894	1150	118	-12836	3276	10296	-208	-73	-463	-16248	-1172	-3864	-145	-766	590	-2104	2824	16900	2333	946	263	127	122	5
-11936	252	10660	-80	235	-44	-15736	-720	-4444	-370	-1065	-348	-2416	-2392	17004	-1823	916	233	-12920	3232	10056	-211	-95	-563	-16096	-1264	-4068	-616	-852	635	-2116	3036	16580	1876	721	280	131	122	5
-12028	208	10716	-56	154	-28	-15844	-832	-4400	-67	-1321	-292	-2744	-2316	16648	-1342	833	113	-12924	2988	10288	-107	-78	-529	-16192	-1584	-4060	-497	-996	651	-2068	3196	16688	1775	580	213	132	123	5
-12060	148	10652	42	106	-14	-15848	-716	-4360	-54	-1578	-271	-2560	-2184	16960	-880	1059	148	-13012	3096	10292	22	-97	-441	-16180	-1540	-4120	-465	-1019	646	-2108	3336	16916	1788	527	210	117	134	5
-11956	228	10748	5	73	-8	-15876	-712	-4132	-41	-1798	-235	-2376	-2256	16944	-744	1377	219	-12848	3208	10172	90	-63	-434	-16228	-1204	-3940	404	-1479	585	-2336	3496	16744	1342	600	153	134	130	5
-12080	284	10624	22	143	3	-16000	-784	-4100	53	-1893	-180	-2472	-2484	16744	-276	1550	145	-12884	3072	10120	191	-148	-436	-16264	-1160	-3908	395	-1695	662	-2348	3992	16872	895	648	145	123	125	5
-12004	236	10732	-63	171	-39	-15820	-932	-4256	209	-2124	-29	-2500	-2500	16552	186	1643	-129	-12944	3088	10176	203	-126	-384	-16424	-1060	-4012	12	-1769	455	-2548	4068	16736	622	704	205	126	130	5
-12096	420	10688	-114	73	-67	-15800	-948	-4136	94	-2253	101	-2644	-2564	16516	181	1503	-406	-12900	3116	10196	179	-97	-360	-16284	-1004	-3524	-29	-2036	295	-2288	4084	16700	253	725	338	131	127	5
-12020	180	10752	-110	-34	-66	-15884	-1024	-3732	-23	-2450	299	-2504	-2572	16460	429	1575	-682	-12784	3044	10324	192	-202	-287	-16412	-948	-3288	76	-2190	122	-1920	3964	16528	215	838	365	131	133	5
-11872	116	10696	-40	-22	-13	-15876	-1076	-3332	233	-2594	434	-2592	-2184	16560	411	1497	-714	-12976	3140	10168	260	-198	-328	-16132	-648	-2996	990	-2079	-78	-1588	4088	16544	-230	1041	562	121	145	5
-11892	280	10792	-30	-45	11	-15856	-768	-3184	332	-2566	520	-2304	-2104	16560	799	1468	-659	-12960	2916	10176	283	-288	-248	-16200	-764	-3492	697	-1728	-316	-1156	4324	16508	-319	1238	858	129	121	5
-12096	312	10784	-56	-111	-32	-15808	-604	-3232	376	-2519	545	-2060	-2040	16728	1240	1496	-677	-12992	3200	10004	223	-331	-239	-16416	-596	-3296	591	-2053	-710	-1196	4428	16864	-876	1411	1373	128	126	5
-12068	320	10788	-147	-112	-104	-16020	12	-2832	-689	-2660	542	-1996	-1652	16784	1476	1369	-480	-12908	3268	10220	155	-327	-320	-16408	-592	-2740	17	-2216	-1051	-1112	4084	16660	-1133	1778	1535	143	119	5
-12000	404	10800	-167	-57	-127	-15972	-84	-2872	-947	-2718	458	-2596	-1224	16572	1742	1209	-201	-12768	3096	10252	-9	-258	-352	-16376	-908	-2744	-792	-2119	-1338	-1712	3736	16756	-1904	1808	1893	128	129	5
-11956	352	10776	-192	-102	-157	-16020	152	-2880	-764	-2752	204	-2992	-476	16864	1954	1109	285	-12760	3120	10240	-4	-225	-356	-16400	-1128	-2904	-908	-2242	-1565	-2028	3256	16584	-2043	2025	2122	117	134	5
-11920	432	10816	-176	-89	-247	-16032	360	-2656	-1053	-2726	-50	-3008	-264	16756	1392	703	686	-12708	3024	10124	-144	-324	-435	-16340	-1252	-2684	-777	-2298	-1719	-2772	3136	16572	-2136	2041	2409	124	125	5
-12032	436	10760	-291	-88	-325	-16200	428	-2304	-1462	-2664	-318	-2612	208	16740	1418	720	1075	-12892	2952	10296	-94	-420	-393	-16408	-1552	-3044	-1402	-2475	-1778	-3888	2640	16492	-2059	1788	2725	123	125	5
-11928	420	10844	-375	-37	-399	-16000	400	-2268	-1630	-2502	-648	-2136	160	16756	967	252	1086	-12968	2996	10288	-51	-518	-323	-16320	-2196	-3172	-1171	-2749	-1709	-4316	2148	16412	-2027	1576	2685	127	146	5
-11840	388	10796	-382	-38	-469	-15928	16	-2180	-1612	-2370	-868	-1860	-184	16568	812	149	1060	-12628	3104	10272	-42	-477	-322	-16244	-2528	-2572	36	-3049	-1431	-3944	1468	16928	-1857	1440	2370	122	128	5
-11832	160	10856	-275	-2	-451	-15876	-508	-1784	-1532	-2319	-1026	-1940	-584	16760	583	46	960	-12740	2780	10404	10	-433	-289	-16300	-2608	-2484	99	-3087	-1365	-3372	1268	17156	-1386	1535	1883	123	126	5
-11916	340	10804	-276	5	-385	-15876	-944	-1968	-420	-2104	-1015	-1904	-1360	16700	90	56	764	-12836	2844	10404	106	-369	-133	-16292	-3092	-2076	731	-3226	-652	-2396	892	16984	-1094	1322	1442	126	127	5
-11964	220	10836	-330	-43	-444	-15976	-1304	-2200	192	-2072	-742	-2000	-2228	16604	502	-4	331	-12752	2756	10464	163	-281	16	-16296	-3212	-1416	1161	-3084	-195	-1868	596	17000	-528	775	773	123	127	5
-11820	104	10748	-302	-31	-425	-16272	-1348	-1728	584	-1996	-438	-1992	-1984	16612	869	-132	51	-12740	2964	10396	157	-97	48	-16236	-2928	-1304	1083	-2814	167	-1624	544	17112	-260	442	289	120	126	5
-11860	164	10908	-246	-8	-352	-16088	-944	-1556	802	-1871	-312	-1608	-1444	16504	1240	-256	-137	-12740	2816	10412	200	-56	131	-16272	-2848	-1276	1078	-2878	250	-1448	776	16440	265	409	-326	131	126	5
-11884	236	10820	-280	-12	-335	-15956	-468	-1132	7	-1776	-183	-1248	-840	16728	1308	-428	-260	-12652	2960	10460	331	-38	172	-16336	-2648	-736	1150	-2614	963	-1244	988	16872	83	-554	-624	128	130	5
-11824	72	10860	-258	-1	-319	-16020	-456	-1080	-965	-1609	-160	-972	-548	16888	917	-626	-162	-12664	3012	10512	372	66	208	-16200	-2428	-584	1339	-2196	1202	-844	1052	16888	-29	-1071	-982	129	122	5
-11896	148	10864	-211	57	-233	-15988	-596	-884	-1462	-1335	-148	-644	-440	16960	35	-845	-86	-12668	3008	10412	356	155	125	-16260	-2308	-116	1317	-1738	1496	-324	736	17152	96	-1415	-1317	128	128	5
-11772	32	10968	-146	66	-215	-15920	-1112	-680	-1454	-1032	-112	-540	-984	16696	-476	-1109	-187	-12656	3064	10440	366	228	170	-16368	-2220	-192	1224	-1367	1723	36	644	17116	834	-1664	-1616	127	127	5
-11948	160	10820	-88	79	-157	-15960	-1268	-600	-473	-633	55	-536	-712	17240	-1199	-1337	-206	-12660	3156	10368	306	325	158	-16376	-1816	180	1399	-934	1865	96	1008	17088	1498	-1878	-1633	128	123	5
-11836	112	10880	-88	119	-175	-16136	-1080	-564	641	-175	233	-828	-288	16764	-1292	-1349	-400	-12712	3108	10360	272	324	110	-16372	-1580	-112	857	-420	1858	-164	1688	17244	2056	-2031	-1480	125	130	5
-11840	168	10824	-3	167	-121	-16228	-452	-576	1232	326	266	-992	-512	16952	-1030	-1790	-348	-12828	3068	10272	304	314	135	-16472	-1116	-412	320	27	1702	-756	2376	16944	2340	-2043	-1244	127	128	5
-11916	328	10772	-38	200	-156	-16140	72	-936	1239	629	111	-1128	-700	16908	-835	-2133	16	-12772	3212	10200	313	271	177	-16528	-980	-964	-34	293	1500	-1140	3000	16936	2398	-2050	-977	128	130	5
-11872	292	10848	-59	195	-229	-16100	116	-1308	319	796	-13	-1252	-772	17028	-722	-2180	483	-12720	3212	10220	275	254	105	-16640	-980	-1156	-280	309	1308	-1064	3392	17148	2052	-1749	-785	126	128	5
-11856	184	10876	-130	203	-239	-16168	-188	-1468	-325	864	-113	-1736	-848	17332	-878	-2030	936	-12816	3192	10120	256	199	110	-16584	-944	-1016	-338	309	1093	-1196	3504	17020	1379	-1699	-709	128	128	5
-11896	228	10696	-113	242	-278	-16128	-288	-1660	-72	883	-268	-2008	-460	17272	-1392	-1727	1155	-12776	3256	10224	148	172	82	-16556	-908	-1052	-233	274	883	-1120	3476	17056	1338	-1492	-557	127	131	5
-11944	276	10848	-145	232	-297	-16172	-132	-2032	113	884	-381	-2188	-864	16940	-1393	-1639	1095	-12780	3228	10152	128	160	39	-16604	-924	-1060	-266	353	709	-1004	3396	17004	1074	-1253	-329	126	132	5
-12028	260	10736	-206	215	-413	-16116	-60	-2328	-88	834	-492	-2408	-1244	16912	-1238	-1599	1141	-12780	3300	10164	75	105	-39	-16524	-828	-1188	-399	251	543	-1132	3464	16872	947	-1024	-150	126	129	5
-11920	344	10856	-275	161	-492	-16120	-76	-2520	-585	589	-643	-2560	-1500	17068	-983	-1482	1184	-12808	3100	10076	-16	73	-43	-16532	-956	-1404	-672	147	409	-1364	3524	16880	903	-795	59	127	127	5
-11948	256	10880	-299	162	-538	-16132	-312	-2604	-927	313	-680	-2416	-1744	16868	-736	-1395	1125	-12792	3228	10068	-54	29	-65	-16596	-908	-1296	-425	122	250	-1520	3512	16720	720	-807	204	128	128	5
-11792	4	10880	-328	153	-526	-16132	-600	-2272	-1118	86	-760	-2112	-1812	16668	-255	-1497	1088	-12808	3096	10244	-60	13	-76	-16560	-920	-1316	-405	349	91	-1508	3672	16608	643	-907	338	129	128	5
-11808	124	10756	-307	144	-558	-16028	-864	-2112	-828	-94	-710	-1728	-1556	16608	261	-1450	930	-12828	3172	10172	-32	-76	-58	-16600	-976	-1452	-344	312	-21	-1460	3828	16348	249	-1079	408	129	131	5
-11892	-16	10868	-300	154	-554	-16008	-968	-2012	-505	-157	-635	-1520	-1496	16468	631	-1606	681	-12780	3088	10268	-45	-72	-56	-16496	-1060	-1592	-280	228	-119	-1428	3776	16248	-472	-1334	346	129	129	5
-11952	8	10780	-282	106	-503	-16044	-972	-1756	-384	-160	-576	-1276	-1568	16592	895	-1722	528	-12744	3040	10320	13	-85	-45	-16560	-1156	-1516	-142	185	-210	-1360	3580	16288	-1288	-1887	286	126	129	5
-11836	64	10800	-266	123	-471	-16156	-828	-1640	-299	-142	-542	-1048	-1472	16760	1140	-1704	484	-12688	3200	10184	11	-5	-87	-16512	-1232	-1372	87	169	-257	-1092	3392	16568	-1857	-2167	270	127	128	5
-11788	-96	10808	-238	129	-421	-16044	-872	-1552	-492	-85	-501	-776	-1432	16912	1231	-1538	409	-12796	3212	10148	-37	0	-75	-16476	-1224	-1240	407	88	-292	-996	2980	16956	-2328	-2287	266	126	127	5
-11804	-40	10796	-158	153	-392	-15984	-896	-1668	-450	11	-442	-804	-1392	16988	1282	-1437	344	-12744	3136	10244	42	-106	-72	-16496	-1212	-1312	456	190	-314	-992	2612	17016	-2525	-2152	263	123	127	5
-11868	-8	10796	-126	168	-329	-16020	-1000	-1676	-405	48	-382	-860	-1384	16920	1254	-1320	319	-12724	3128	10260	6	-86	-148	-16524	-1396	-1252	409	199	-353	-904	2208	17116	-2311	-1888	291	122	127	5
-11864	-48	10788	-105	137	-319	-16016	-1012	-1808	-220	75	-366	-920	-1420	17036	1181	-1179	220	-12740	3132	10256	54	-80	-125	-16476	-1328	-1220	287	284	-366	-752	2024	17112	-1771	-1565	398	125	127	5
-11904	-76	10788	-124	156	-276	-16116	-1036	-1880	-84	119	-275	-800	-1396	17044	1003	-1072	144	-12716	3204	10228	84	-99	-145	-16452	-1392	-1404	84	383	-294	-832	1984	17124	-1341	-1211	432	127	125	5
-11892	-40	10760	-80	204	-251	-16128	-1048	-1840	45	105	-142	-736	-1420	16920	782	-888	-19	-12752	3208	10224	64	-112	-175	-16440	-1540	-1328	-46	313	-281	-888	2056	17220	-1146	-879	407	124	125	5
-11844	-92	10788	-153	155	-231	-15980	-1072	-1860	223	141	-89	-796	-1336	16952	656	-712	-107	-12744	3136	10280	112	-69	-149	-16520	-1644	-1404	-108	310	-240	-1028	2024	17208	-978	-642	255	125	125	5
-11884	12	10780	-90	159	-205	-15964	-1048	-1832	162	165	14	-916	-1424	16976	618	-536	-158	-12744	3168	10280	105	-53	-173	-16500	-1632	-1588	-23	248	-142	-1084	1916	17068	-884	-453	206	126	125	5
-11932	-56	10828	-93	167	-181	-16108	-956	-1908	173	178	84	-836	-1368	17008	507	-394	-117	-12728	3164	10260	126	-41	-115	-16556	-1764	-1444	74	222	-4	-1028	1816	17128	-732	-511	70	126	125	5
-11888	32	10672	-62	135	-228	-16096	-884	-1860	69	150	98	-928	-1184	16940	449	-401	-51	-12756	3164	10324	155	-68	-117	-16512	-1708	-1456	169	211	64	-972	1652	17340	-592	-418	-25	126	125	5
-11896	76	10908	-119	100	-191	-16128	-780	-1804	-60	180	101	-952	-1184	16996	404	-369	39	-12816	3144	10188	158	-28	-135	-16460	-1672	-1628	208	157	144	-908	1532	17132	-387	-247	-93	126	125	5
-11912	-56	10708	-135	97	-171	-16096	-892	-1964	-206	183	186	-964	-1192	16956	508	-334	39	-12708	3100	10284	150	-1	-94	-16460	-1664	-1556	224	38	257	-988	1492	17040	92	-200	-71	127	125	5
-11900	-48	10776	-140	58	-156	-16000	-1104	-2000	71	209	290	-1092	-1300	16908	450	-330	22	-12732	3080	10388	173	24	-104	-16436	-1780	-1584	199	49	297	-1208	1664	17152	422	-189	-55	129	125	5
-12092	-44	10848	-273	1	-164	-15972	-1196	-1508	24	226	302	-1196	-1192	16948	333	-308	10	-12772	3132	10240	188	-19	-55	-16476	-1724	-1524	167	-108	449	-1164	1740	17116	562	-75	-93	129	126	5
-12112	60	10888	-651	-126	-200	-16012	-1156	-1752	459	221	435	-1112	-1172	17076	156	-230	-94	-12792	3132	10288	247	71	-48	-16516	-1708	-1672	318	-232	533	-1000	1888	17008	463	-126	-235	128	125	5
-11944	-68	11040	-1010	55	-305	-16108	-932	-2204	878	285	621	-1036	-1212	17000	236	-111	-267	-12744	3180	10268	277	53	-18	-16468	-1604	-1428	414	-246	601	-748	2012	16976	326	-121	-300	125	125	5
-12028	-56	11000	-1239	74	-341	-16092	-680	-2160	889	353	654	-1036	-1116	17136	373	-102	-317	-12732	3120	10308	240	53	-38	-16524	-1396	-1424	471	-285	670	-640	2184	17076	221	-115	-334	125	125	5
-12020	112	10792	-1201	-98	-431	-16280	-452	-2548	973	396	633	-1096	-848	16980	412	-92	-372	-12800	3204	10272	248	24	7	-16480	-1200	-1204	398	-231	653	-392	2200	17048	221	-116	-338	124	125	5
-11772	-240	10772	-994	-177	-439	-16004	-356	-1972	626	347	618	-1024	-472	17004	364	10	-340	-12784	3252	10184	249	-16	-45	-16480	-1160	-1056	136	-191	562	-128	2328	17000	229	-51	-148	123	122	5
-11560	-192	10840	-668	-76	-449	-16060	-104	-1992	1129	185	503	-852	-356	17020	306	-51	-205	-12812	3240	10236	224	91	-51	-16468	-1036	-1328	-66	-122	521	-348	2196	16928	416	-130	-114	124	126	5
-11740	-72	10812	-388	14	-459	-16092	260	-2104	764	92	284	-932	-48	17072	211	-120	20	-12732	3312	10284	175	26	-113	-16620	-1056	-1216	-115	-64	404	-736	2052	16968	805	-154	35	123	126	5
-11900	-132	11008	-305	-47	-466	-16140	160	-1928	-63	41	8	-1012	140	17084	-88	-218	229	-12756	3184	10140	139	-21	-140	-16568	-1228	-1216	-103	84	337	-424	2248	17080	347	-97	96	126	126	5
-11812	116	10924	-375	-81	-700	-16148	252	-2192	188	102	-101	-1116	-36	17092	-331	-218	348	-12724	3220	10128	127	-74	-146	-16552	-1276	-1332	50	79	281	-352	2388	16972	309	-226	11	125	126	5
-11748	-272	10912	-366	21	-789	-16200	100	-2120	-223	50	-225	-1072	-104	16816	-324	-173	459	-12832	3212	10184	216	-33	-127	-16572	-1288	-1304	234	87	233	-488	2452	17112	548	25	71	126	126	5
-11664	-712	10660	-19	149	-877	-16016	-348	-1984	-284	-21	-511	-1128	-200	16772	-373	-253	598	-12784	3208	10260	170	-55	-158	-16532	-1232	-1352	205	165	176	-624	2480	16892	267	97	15	125	127	5
-11616	-156	10672	181	154	-743	-15840	-640	-1964	359	-80	-740	-1032	-232	16940	-508	-323	723	-12780	3200	10252	204	-28	-173	-16600	-1204	-1376	35	86	166	-892	2328	16968	-130	-72	-119	126	126	5
-11652	40	10896	93	165	-424	-16004	-480	-1876	936	-114	-863	-1024	-412	16984	-666	-274	748	-12776	3204	10220	143	-47	-179	-16576	-1264	-1464	-78	89	153	-972	2172	16956	219	-137	-39	126	126	5
-11676	-428	10772	147	263	-355	-16148	-296	-2040	943	-231	-952	-908	-712	16940	-721	-255	835	-12808	3220	10232	137	-75	-148	-16524	-1268	-1532	-136	-12	128	-728	2388	16916	327	-59	81	126	126	5
-11672	-360	10732	219	296	-203	-16076	-428	-2076	496	-269	-1080	-908	-908	16828	-681	-311	934	-12836	3168	10260	128	-40	-118	-16440	-1292	-1620	-73	-158	81	-720	2240	16944	447	-178	191	126	126	5
-11624	-536	10776	502	399	10	-16084	-664	-2048	280	-389	-1196	-852	-1044	16696	-589	-424	1003	-12792	3272	10220	116	-27	-132	-16508	-1376	-1652	36	-169	116	-664	2184	17140	353	-56	189	126	127	5
-11700	-480	10772	765	506	312	-15972	-680	-2108	297	-623	-1365	-752	-1076	16968	-572	-472	1145	-12760	3172	10220	121	-78	-114	-16500	-1476	-1412	158	-217	172	-704	2064	17112	184	12	149	128	126	5
-11916	144	10916	917	468	309	-16024	-544	-2388	-8	-785	-1443	-612	-1436	17004	-178	-452	1176	-12768	3188	10216	126	-103	-139	-16540	-1464	-1356	270	-205	256	-612	2004	16988	25	27	35	129	126	5
-12128	408	11028	743	454	97	-16272	-576	-2048	-1278	-941	-1463	-624	-1552	17028	222	-518	1188	-12744	3176	10284	179	-77	-116	-16524	-1540	-1280	385	-137	264	-564	1976	16992	67	-10	-80	128	125	5
-11888	200	10716	880	538	-196	-16344	-972	-1684	-2586	-883	-1172	-692	-1540	16988	225	-406	1114	-12764	3196	10232	138	-46	-139	-16448	-1412	-1292	388	-130	326	-608	1828	17036	210	-53	-169	127	125	5
-11964	-464	10952	593	524	-293	-16064	-1544	-1608	-2880	-813	-922	-568	-1384	16956	168	-299	972	-12828	3196	10264	174	-35	-111	-16532	-1348	-1184	289	-71	373	-504	1896	17096	286	-6	-227	126	125	5
-12024	-108	10784	325	345	-250	-15920	-2016	-1456	-2067	-571	-716	-520	-1364	16756	46	-250	717	-12764	3212	10164	169	7	-106	-16504	-1376	-1240	200	-20	366	-388	1888	16920	287	-66	-275	125	125	5
-11900	-244	10764	238	280	-195	-15856	-2104	-1536	-646	-304	-472	-488	-1532	16724	-181	-206	456	-12764	3192	10260	162	22	-136	-16488	-1432	-1232	138	65	437	-388	1920	17048	285	2	-271	124	125	5
-11988	-112	10836	157	216	-139	-15916	-1940	-1592	598	-104	-241	-544	-1652	16840	-294	-179	200	-12724	3248	10180	179	39	-108	-16464	-1356	-1224	131	88	470	-392	2008	17076	337	-48	-265	124	126	5
-11924	-124	10720	99	191	-125	-16000	-1756	-1640	1156	52	-81	-584	-1744	16832	-277	-135	37	-12804	3196	10212	193	-18	-87	-16504	-1392	-1164	139	132	529	-428	2140	16864	354	-131	-263	125	126	5
-11964	4	10808	78	133	-118	-16020	-1452	-1648	1310	145	64	-740	-1856	16880	-149	-92	-25	-12748	3200	10240	186	33	-58	-16556	-1148	-1324	221	181	506	-536	2216	17024	478	-75	-240	125	126	5
-11900	-84	10844	50	122	-113	-16084	-1312	-1748	1041	182	199	-704	-1704	16932	187	-116	-113	-12808	3256	10224	171	-1	-69	-16524	-968	-1380	133	202	417	-772	2408	17092	668	-69	-156	125	126	5
-11892	-64	10764	46	147	-82	-16104	-1228	-1820	667	145	273	-736	-1536	16872	302	-98	-115	-12772	3324	10208	151	21	-122	-16548	-944	-1468	-97	192	374	-712	2524	17168	421	131	-139	126	126	5
-11932	-108	10756	73	146	-68	-16040	-1104	-1764	340	132	335	-660	-1332	16964	327	-27	-134	-12792	3252	10264	155	-9	-110	-16580	-1080	-1568	-150	89	286	-820	2672	16888	485	-95	-89	126	126	5
-11860	0	10800	44	135	-112	-16096	-1032	-1820	90	70	385	-888	-1292	16924	454	-11	-182	-12808	3240	10184	152	41	-132	-16528	-1064	-1608	-57	12	229	-796	2620	17076	364	34	68	126	127	5
-11880	12	10784	49	128	-70	-16128	-940	-1988	-108	-4	417	-960	-1156	16968	483	14	-178	-12776	3288	10220	132	-46	-119	-16532	-1092	-1608	83	-31	172	-776	2600	16952	182	-5	58	126	126	5
-11932	12	10828	45	107	-40	-16056	-900	-1940	-248	-35	416	-980	-1132	16852	469	13	-216	-12764	3224	10200	130	-37	-128	-16596	-1160	-1512	206	-102	143	-712	2512	16908	-19	-27	42	126	127	5
-11940	-100	10788	35	125	-88	-16072	-932	-1932	-228	-128	433	-904	-980	16836	446	-1	-239	-12780	3288	10276	113	-48	-128	-16556	-1156	-1444	245	-151	83	-672	2284	16900	-40	75	68	125	126	5
-11868	96	10824	25	111	-73	-16040	-924	-1856	-110	-72	422	-1068	-720	16928	513	9	-279	-12756	3248	10252	107	-70	-118	-16532	-1128	-1372	220	-207	74	-680	2188	16964	60	2	120	125	126	5
-11936	60	10792	-24	89	-107	-16124	-836	-1912	190	-122	384	-1080	-764	17072	424	-29	-225	-12784	3256	10268	117	-42	-146	-16528	-1252	-1348	137	-176	88	-580	2080	16948	134	-34	152	125	126	5
-11888	-20	10828	-12	106	-120	-16108	-620	-1696	299	-137	283	-1040	-628	16940	408	-62	-142	-12772	3216	10176	124	-70	-165	-16492	-1284	-1224	130	-174	71	-528	1948	17064	217	-66	112	125	126	5
-11808	28	10840	-87	94	-89	-16132	-568	-1744	271	-163	178	-976	-444	17032	343	-121	-19	-12792	3232	10268	108	-71	-136	-16536	-1392	-1360	94	-102	119	-384	2068	16996	-49	-69	17	126	126	5
-11872	76	10772	-88	97	-159	-16152	-432	-1616	133	-120	91	-864	-288	17084	333	-111	69	-12760	3168	10260	115	-62	-148	-16592	-1416	-1208	103	-68	177	-512	1920	17000	182	-107	-9	126	126	5
-11964	28	10868	-76	82	-161	-16120	-380	-1604	-24	-142	-4	-792	-228	17004	216	-135	149	-12732	3212	10360	144	-41	-131	-16496	-1328	-1316	108	-23	220	-472	1896	17128	210	-67	-1	126	126	5
-11980	80	10812	-60	135	-179	-16132	-396	-1644	-225	-93	-145	-732	-192	16904	59	-118	238	-12744	3264	10240	146	0	-142	-16520	-1312	-1184	72	-2	254	-576	1904	17060	288	12	-51	126	126	5
-11812	68	10740	-140	166	-245	-16096	-584	-1724	-250	-36	-265	-740	-352	16988	-123	-173	273	-12744	3164	10188	158	-16	-148	-16528	-1284	-1348	51	24	329	-480	1956	17096	319	-68	-103	126	126	5
-11864	108	10880	-88	170	-237	-16116	-768	-1676	-219	11	-341	-736	-392	16992	-162	-166	318	-12736	3304	10252	133	6	-121	-16512	-1284	-1376	82	15	371	-544	2056	17052	340	2	-129	125	126	5
-11860	0	10852	-136	160	-218	-16060	-820	-1712	-121	72	-403	-776	-732	16968	-250	-236	393	-12740	3204	10172	176	9	-87	-16544	-1312	-1360	128	56	350	-576	2116	16932	443	-1	-100	125	126	5
-11904	16	10872	-109	140	-274	-16156	-864	-1572	-127	76	-404	-728	-816	17012	-274	-165	361	-12780	3220	10172	149	-49	-117	-16528	-1212	-1304	153	69	369	-596	2300	16948	469	-59	-143	125	126	5
-11892	68	10816	-103	165	-246	-16128	-996	-1800	58	120	-387	-784	-992	16824	-265	-194	327	-12816	3232	10172	144	17	-123	-16624	-1140	-1428	154	83	356	-616	2456	16924	440	-46	-149	124	126	5
-11848	8	10848	-141	163	-253	-16048	-1084	-1752	126	102	-390	-872	-1088	16948	-308	-179	312	-12732	3300	10280	141	-1	-124	-16464	-1104	-1376	158	64	315	-628	2480	16880	308	-12	-146	124	126	5
-11968	-28	10876	-116	149	-270	-16104	-1060	-1860	218	107	-280	-868	-1156	16788	-288	-149	278	-12748	3216	10132	134	-23	-118	-16584	-1044	-1492	74	102	276	-504	2468	17080	243	-3	-151	125	126	5
-11856	-44	10764	-77	150	-233	-16056	-1040	-1776	168	61	-252	-780	-1304	16904	-158	-126	186	-12776	3252	10356	126	-12	-156	-16552	-1060	-1312	55	76	213	-500	2500	16924	152	75	-43	126	126	5
-11892	60	10828	-98	156	-188	-16088	-1040	-1948	-35	51	-191	-792	-1288	16936	-60	-105	189	-12792	3304	10200	89	-28	-134	-16516	-1040	-1552	37	11	158	-592	2428	16964	197	14	20	126	126	5
-11848	-8	10864	-75	148	-213	-16136	-1088	-1748	-188	9	-135	-824	-1272	16952	26	-121	153	-12756	3252	10164	124	-25	-151	-16536	-1036	-1408	33	-10	113	-636	2412	16916	238	-21	83	126	126	5
-11932	-28	10756	-110	145	-235	-16048	-1152	-1824	-182	18	-65	-768	-1200	16852	53	-117	173	-12796	3216	10152	112	-25	-132	-16520	-1088	-1404	70	3	77	-612	2376	16980	227	-40	137	126	126	5
-11848	12	10780	-16	165	-189	-16084	-1128	-1772	-16	20	-38	-776	-1228	16924	39	-106	81	-12740	3268	10236	123	-89	-186	-16572	-1144	-1384	57	-21	72	-588	2332	17000	231	-34	154	126	126	5
-11792	24	10824	-34	146	-177	-16024	-1128	-1848	124	37	53	-696	-1228	16908	31	-92	33	-12800	3228	10208	119	-59	-171	-16588	-1096	-1324	70	-13	29	-604	2312	16956	170	6	158	127	126	5
-11928	68	10808	-25	160	-159	-16068	-1044	-1784	207	36	71	-732	-1144	16912	80	-57	42	-12752	3232	10224	123	-22	-162	-16616	-1152	-1412	84	-14	23	-596	2252	17168	40	5	131	126	126	5
-11904	84	10692	-25	151	-131	-16112	-956	-1832	183	27	68	-852	-1020	16868	182	-64	-9	-12784	3264	10200	170	-110	-137	-16520	-1168	-1384	34	-12	44	-568	2196	16952	39	13	132	127	126	5
-11876	24	10752	-11	127	-118	-16112	-936	-1768	152	-1	72	-844	-924	16844	199	-78	26	-12752	3164	10236	161	-70	-160	-16572	-1248	-1396	55	35	46	-616	2084	17076	145	6	44	127	126	5
-11884	-12	10784	-25	144	-143	-16120	-832	-1916	44	-21	91	-876	-872	16964	189	-50	59	-12764	3232	10276	108	-31	-159	-16576	-1292	-1460	28	22	88	-656	2028	16996	163	-13	32	127	126	5
-11856	0	10812	-89	113	-176	-16108	-780	-1828	-26	-11	43	-892	-808	16976	147	-92	80	-12752	3220	10240	97	-34	-130	-16500	-1316	-1296	26	19	122	-672	2052	17056	199	-16	37	127	126	5
-11880	56	10784	-84	147	-187	-16080	-756	-1648	-52	-48	13	-896	-744	16972	75	-98	108	-12772	3248	10268	110	-9	-133	-16500	-1324	-1476	61	10	160	-712	2012	17160	226	-2	87	127	126	5
-11880	36	10812	-96	132	-186	-16052	-804	-1836	-81	-51	7	-916	-792	16972	93	-132	146	-12748	3236	10164	104	-19	-121	-16492	-1264	-1452	40	-18	204	-656	2020	16972	311	-28	43	127	127	5
-11988	40	10720	-108	124	-202	-16052	-764	-1784	-44	-41	-97	-892	-700	16996	91	-116	200	-12784	3296	10204	121	-19	-91	-16484	-1264	-1352	76	9	199	-732	2152	17072	393	-36	46	127	127	5
-11896	16	10820	-108	124	-181	-16036	-768	-1756	-15	-58	-106	-848	-780	16892	45	-138	226	-12792	3216	10196	121	28	-94	-16584	-1260	-1452	55	-46	241	-648	2240	16880	360	-18	16	126	126	5
-11944	36	10860	-114	116	-224	-16136	-788	-1688	-1	-47	-163	-944	-804	16924	18	-162	254	-12776	3248	10208	104	-13	-108	-16560	-1208	-1488	66	-17	244	-660	2292	16920	291	-22	-9	126	126	5
-11916	-24	10768	-135	145	-211	-16084	-844	-1836	7	-41	-199	-836	-812	16960	10	-187	248	-12776	3256	10160	108	-27	-103	-16508	-1112	-1432	86	-34	247	-576	2308	17032	221	1	-8	126	126	5
-11940	8	10844	-132	152	-229	-16048	-788	-1800	38	-71	-208	-756	-856	17032	-34	-160	253	-12812	3244	10380	92	1	-123	-16516	-1144	-1380	93	-66	244	-640	2356	17028	180	14	-16	126	126	5
-11904	12	10772	-117	132	-230	-16084	-892	-1776	-43	-36	-204	-860	-940	16984	-52	-129	271	-12808	3272	10228	105	-34	-126	-16520	-1136	-1384	99	-53	213	-628	2352	16928	170	-11	-37	126	126	5
-11856	28	10760	-82	150	-206	-16088	-904	-1872	-38	-69	-200	-824	-952	16920	-95	-148	222	-12736	3244	10260	125	-43	-146	-16504	-1092	-1400	129	-102	198	-604	2364	16872	213	-30	-13	126	126	5
-11944	36	10840	-130	131	-207	-16080	-956	-1760	-49	-70	-200	-848	-992	16924	-83	-148	233	-12748	3268	10140	126	-92	-110	-16576	-1136	-1468	100	-57	199	-556	2392	16960	245	-2	8	126	126	5
-11924	36	10812	-107	155	-226	-16132	-872	-1800	-66	-72	-152	-844	-1028	16880	-69	-160	222	-12848	3316	10260	117	-5	-131	-16576	-1120	-1396	81	-80	159	-600	2440	16944	198	8	7	126	126	5
-11916	48	10640	-98	150	-240	-16060	-964	-1820	-78	-51	-190	-828	-1016	17024	-58	-138	227	-12800	3240	10244	102	-55	-132	-16492	-1184	-1388	60	-90	111	-540	2384	17064	118	13	30	126	126	5
-11940	0	10768	-86	141	-235	-16068	-924	-1936	-6	-63	-168	-800	-1060	16916	-27	-143	209	-12752	3280	10260	94	-63	-140	-16480	-1184	-1512	66	-67	106	-520	2248	17008	104	29	65	126	126	5
-11920	0	10780	-93	122	-235	-16020	-988	-1768	2	-55	-135	-792	-1036	16992	16	-117	202	-12724	3236	10192	107	-50	-155	-16600	-1072	-1404	63	-40	98	-596	2196	17060	124	-12	76	126	126	5
-11876	-16	10724	-64	140	-200	-16004	-1020	-1836	31	-52	-155	-796	-1052	16996	18	-152	199	-12716	3208	10164	117	-25	-148	-16584	-1140	-1340	45	-69	33	-592	2208	16972	125	-2	70	126	126	5
-11940	60	10752	-115	163	-213	-16076	-972	-1756	28	-54	-115	-760	-956	16768	7	-147	183	-12768	3308	10340	142	-71	-143	-16572	-1188	-1348	30	-75	93	-612	2232	17044	139	-1	71	126	126	5
-11956	48	10764	-124	143	-192	-16052	-936	-1660	3	-30	-115	-712	-912	16896	-22	-130	190	-12748	3284	10192	102	-12	-177	-16520	-1228	-1384	10	-32	77	-640	2204	17020	158	19	59	126	126	5
-11856	4	10744	-73	134	-188	-16124	-1000	-1744	3	19	-105	-692	-980	16888	-26	-112	177	-12740	3216	10280	106	-47	-150	-16624	-1184	-1516	21	-63	59	-668	2216	16984	134	26	85	126	126	5
-11912	-16	10812	-111	121	-215	-16080	-1028	-1752	-28	5	-88	-748	-1032	16892	-26	-139	91	-12760	3272	10240	103	-29	-161	-16484	-1128	-1376	28	-62	44	-612	2268	17028	113	27	91	126	126	5
-11824	28	10816	-69	118	-214	-16040	-1008	-1692	61	27	-56	-732	-1080	16908	-4	-123	113	-12748	3276	10256	86	-75	-144	-16528	-1160	-1412	2	-95	87	-656	2244	17112	142	19	91	126	126	5
-11884	-24	10840	-70	137	-168	-16104	-1008	-1800	106	38	-47	-820	-1048	16988	-5	-141	118	-12720	3236	10316	139	-20	-138	-16480	-1192	-1364	37	-92	82	-732	2240	16952	70	56	72	126	126	5
-11904	28	10808	-63	145	-183	-16088	-980	-1788	101	3	-26	-864	-1068	16888	91	-95	105	-12748	3264	10268	116	8	-159	-16572	-1260	-1396	26	-73	107	-564	2196	16988	73	-4	33	127	127	5
-11904	40	10780	-60	173	-181	-16044	-952	-1888	127	-22	16	-816	-1036	16860	116	-111	94	-12852	3184	10268	111	-9	-150	-16584	-1272	-1456	61	-51	96	-576	2196	16952	95	8	12	127	126	5
-11924	16	10800	-64	149	-180	-16204	-932	-1752	31	12	-33	-804	-988	17032	86	-91	80	-12792	3232	10336	99	-14	-177	-16600	-1232	-1328	132	-65	109	-616	2108	17120	105	14	42	127	126	5
-11860	-16	10848	-46	144	-180	-16040	-944	-1900	23	-36	17	-844	-948	16944	85	-64	97	-12784	3248	10140	104	-47	-156	-16564	-1252	-1224	89	-34	99	-704	2168	16964	115	41	56	126	126	5
-11912	12	10804	-95	125	-156	-16092	-880	-1848	60	-92	12	-852	-888	16924	75	-97	92	-12784	3192	10192	128	14	-183	-16556	-1180	-1344	50	-38	98	-724	2180	17088	176	7	56	126	127	5
-11884	40	10836	-138	146	-186	-16100	-856	-1916	69	-51	-22	-792	-876	16932	75	-86	106	-12772	3280	10248	122	-18	-140	-16540	-1260	-1396	9	-28	113	-652	2196	16960	176	9	71	126	126	5
-11924	16	10716	-53	137	-201	-16104	-852	-1820	28	-61	-33	-872	-900	16832	0	-98	123	-12772	3224	10224	112	-35	-137	-16560	-1216	-1432	-6	-65	122	-596	2192	16992	209	47	34	126	127	5
-11848	72	10680	-114	133	-207	-16056	-904	-1776	19	-65	-31	-856	-928	16896	53	-134	146	-12696	3220	10220	135	15	-149	-16500	-1228	-1320	60	5	163	-604	2216	17068	199	-14	32	126	126	5
-11912	12	10788	-79	122	-185	-16084	-908	-1764	23	-28	-37	-804	-944	16876	80	-122	170	-12724	3292	10376	139	-87	-112	-16528	-1204	-1440	116	-10	177	-612	2236	16956	226	-24	34	126	127	5
-11876	32	10844	-112	138	-249	-16116	-832	-1824	-10	-5	-50	-836	-824	16932	81	-109	169	-12744	3280	10288	137	5	-131	-16544	-1208	-1332	70	-80	205	-580	2232	17032	260	-20	31	126	126	5
-11912	72	10768	-101	124	-197	-16120	-880	-1808	40	-9	-39	-864	-876	16948	106	-114	166	-12744	3160	10316	134	-10	-99	-16560	-1204	-1316	32	-55	206	-592	2248	17088	235	4	58	126	127	5
-11892	-36	10784	-85	121	-205	-16032	-868	-1704	26	-37	-85	-764	-820	17000	41	-156	174	-12708	3232	10208	113	-19	-113	-16516	-1064	-1392	25	-50	167	-604	2252	17012	247	0	53	126	126	5
-11856	-28	10856	-66	117	-159	-16100	-868	-1788	43	-38	-66	-828	-928	16820	-11	-125	223	-12732	3208	10256	94	-65	-121	-16544	-1192	-1388	56	-39	192	-576	2292	17012	254	-37	13	126	126	5
-11900	16	10852	-114	118	-208	-16064	-848	-1808	2	-15	-91	-888	-904	16880	12	-98	143	-12756	3252	10240	142	-27	-113	-16536	-1180	-1396	93	-49	173	-476	2284	16924	242	-14	43	126	126	5
-11812	0	10792	-120	111	-216	-16064	-936	-1844	-32	-21	-115	-844	-884	16984	27	-104	146	-12712	3248	10212	150	5	-142	-16536	-1128	-1316	72	-30	171	-548	2308	16964	172	3	54	126	126	5
-11864	4	10840	-89	145	-212	-16116	-900	-1724	-13	-17	-81	-820	-964	16904	-17	-111	162	-12696	3276	10180	121	-45	-164	-16524	-1156	-1396	61	6	148	-640	2288	17012	159	-13	63	126	126	5
-11956	44	10728	-90	140	-220	-16056	-952	-1836	25	-1	-113	-856	-916	16876	-67	-109	149	-12696	3168	10196	114	-29	-147	-16540	-1220	-1332	65	9	111	-592	2292	17036	169	25	89	126	126	5
-11868	40	10744	-73	149	-219	-16096	-920	-1876	69	-10	-89	-740	-996	16868	1	-128	160	-12780	3232	10140	103	-50	-123	-16548	-1184	-1464	14	-9	113	-580	2196	16924	190	-1	51	126	126	5
-11908	-40	10804	-97	135	-185	-16092	-952	-1800	-2	-24	-82	-880	-996	16912	33	-135	167	-12792	3244	10256	105	-71	-127	-16528	-1244	-1388	62	-16	75	-648	2228	16960	165	12	73	126	127	5
-11908	48	10712	-110	128	-186	-16016	-880	-1716	7	-2	-97	-824	-968	17004	-17	-101	181	-12744	3228	10164	92	-10	-137	-16540	-1220	-1248	96	-10	122	-600	2180	16992	166	-3	67	127	127	5
-11856	-24	10824	-50	126	-217	-16112	-956	-1796	-12	-15	-77	-796	-1040	16992	37	-103	160	-12736	3276	10184	101	-31	-176	-16464	-1240	-1312	110	-40	110	-612	2212	16968	149	-3	55	127	126	5
-11876	-16	10844	-72	151	-185	-16060	-904	-1724	31	-24	-61	-796	-928	16876	47	-128	165	-12772	3164	10216	143	-66	-146	-16456	-1220	-1272	70	0	153	-648	2144	17100	188	6	52	127	127	5
-11876	-12	10820	-60	166	-181	-16036	-936	-1708	2	-25	-86	-764	-932	16908	47	-110	133	-12724	3224	10144	182	-8	-116	-16508	-1244	-1452	64	-14	143	-620	2184	17064	164	26	25	126	127	5
-11848	12	10888	-46	167	-197	-16032	-892	-1740	50	-19	-80	-816	-956	16964	-1	-82	153	-12768	3244	10308	165	24	-122	-16520	-1244	-1320	22	4	149	-684	2120	16956	186	23	49	126	126	5
-11856	76	10724	-35	186	-173	-16064	-912	-1768	62	30	-82	-872	-904	16888	-31	-111	138	-12812	3280	10300	191	-43	-134	-16508	-1284	-1376	13	10	177	-644	2184	16980	229	13	6	126	126	5
-11932	20	10780	-36	123	-181	-16096	-908	-1884	71	28	-63	-912	-1004	16984	-4	-125	172	-12764	3276	10276	191	-44	-130	-16520	-1272	-1432	45	12	192	-624	2108	17020	207	0	18	126	126	5
-11940	4	10752	-93	161	-201	-16020	-852	-1824	-5	8	-81	-908	-932	17016	-4	-117	160	-12752	3256	10236	133	11	-127	-16480	-1256	-1328	100	-47	215	-576	2180	17016	205	-16	2	126	127	5
-11864	16	10820	-117	167	-199	-16060	-832	-1860	11	-54	-85	-852	-948	16884	22	-106	175	-12852	3268	10204	153	-24	-153	-16516	-1172	-1312	127	-38	234	-632	2156	16896	246	1	11	126	126	5
-11892	32	10788	-117	99	-191	-16112	-840	-1820	13	-33	-85	-876	-904	16988	41	-110	167	-12740	3184	10312	133	-19	-152	-16508	-1208	-1452	138	-25	206	-688	2300	17036	235	-7	32	126	126	5
-11864	-12	10808	-91	145	-224	-16060	-876	-1756	-73	-28	-95	-876	-928	16912	11	-119	160	-12740	3228	10240	123	-4	-113	-16504	-1092	-1320	99	-51	205	-628	2324	16896	233	17	27	126	126	5
-11860	44	10792	-104	136	-207	-16092	-928	-1748	-23	-25	-79	-780	-964	16996	20	-113	146	-12728	3240	10272	109	-50	-127	-16512	-1156	-1316	54	-7	176	-564	2364	17044	204	10	13	125	127	5
-11800	52	10852	-123	134	-169	-16156	-992	-1772	29	-32	-98	-816	-916	16928	11	-94	178	-12696	3176	10196	95	4	-128	-16616	-1144	-1396	40	-31	183	-624	2416	16924	122	13	15	126	126	5
-11844	48	10812	-118	158	-183	-16020	-848	-1780	41	-40	-109	-844	-924	17004	9	-110	159	-12748	3208	10172	115	-31	-153	-16588	-1108	-1280	-13	-15	177	-612	2308	17088	155	-9	57	126	127	5
-11920	44	10808	-106	126	-203	-16076	-952	-1716	33	-30	-79	-796	-944	16884	6	-95	173	-12796	3292	10308	120	2	-162	-16564	-1180	-1304	35	-26	115	-644	2260	17048	163	1	71	126	127	5
-11872	24	10756	-123	137	-184	-16076	-968	-1772	27	-45	-88	-848	-1016	16956	26	-105	125	-12748	3272	10228	109	-21	-164	-16480	-1176	-1392	54	6	98	-636	2292	16876	185	-19	64	126	127	5
-11884	40	10756	-83	77	-225	-16048	-972	-1864	23	-37	-109	-852	-936	16952	8	-104	190	-12808	3248	10244	93	-59	-125	-16560	-1200	-1400	100	-41	119	-620	2248	17016	186	-8	51	126	127	5
-11920	36	10680	-110	142	-184	-16028	-976	-1816	27	-45	-69	-860	-1004	16900	89	-111	155	-12744	3232	10176	122	-29	-143	-16516	-1176	-1396	77	-14	113	-616	2260	16996	131	-4	54	126	127	5
-11896	-8	10800	-65	153	-168	-15996	-924	-1684	44	-49	-43	-872	-972	16896	31	-97	145	-12780	3220	10212	75	-64	-158	-16580	-1196	-1392	76	-51	126	-628	2216	17056	148	4	44	126	127	5
-11844	12	10804	-62	149	-214	-16084	-872	-1764	34	-53	-67	-828	-892	17000	26	-82	121	-12764	3252	10224	126	-67	-141	-16548	-1268	-1268	78	-51	128	-592	2140	17024	156	34	61	126	127	5
-11860	72	10772	-69	135	-173	-16124	-880	-1704	39	-63	-57	-808	-952	16964	11	-90	130	-12716	3228	10148	98	-33	-131	-16488	-1180	-1364	33	-55	129	-628	2252	16940	164	-7	42	126	126	5
-11916	-44	10824	-98	133	-228	-16024	-896	-1708	-6	-19	-82	-800	-952	16864	55	-64	109	-12792	3268	10320	96	14	-162	-16516	-1196	-1336	-4	-53	149	-624	2232	16964	135	-8	42	126	126	5
-11848	-4	10704	-47	129	-195	-16096	-928	-1640	-38	-95	-83	-864	-896	16896	73	-96	126	-12804	3284	10088	119	-58	-117	-16524	-1224	-1364	-12	2	129	-616	2172	17064	192	-25	53	126	126	5
-11880	-20	10872	-57	131	-190	-16040	-848	-1864	-29	-32	-78	-728	-892	16912	44	-94	162	-12748	3252	10276	157	-58	-134	-16536	-1144	-1404	43	0	150	-620	2196	17072	184	-20	37	126	126	5
-11884	-8	10788	-70	177	-178	-16136	-860	-1708	40	-12	-74	-800	-916	17032	41	-124	134	-12764	3204	10272	153	-48	-140	-16544	-1204	-1388	109	22	143	-600	2184	17080	197	15	22	126	126	5
-11976	84	10820	-88	177	-196	-16076	-888	-1744	60	22	-82	-796	-916	17036	10	-108	138	-12752	3244	10264	145	-34	-136	-16552	-1180	-1412	94	51	150	-664	2200	16964	181	8	56	125	126	5
-11896	52	10692	-72	148	-185	-16116	-928	-1772	39	27	-64	-884	-924	16904	0	-118	181	-12788	3216	10260	134	13	-153	-16532	-1232	-1384	143	-21	140	-688	2224	16976	195	-5	-10	125	126	5
-11960	-28	10800	-95	154	-220	-16120	-916	-1720	40	-19	-91	-876	-924	16976	2	-117	143	-12772	3208	10332	151	-3	-131	-16516	-1156	-1236	85	21	213	-608	2212	16904	202	1	49	126	126	5
-11888	4	10804	-97	146	-197	-16036	-852	-1712	5	20	-78	-820	-912	16880	20	-121	139	-12816	3284	10184	147	-36	-136	-16528	-1124	-1396	40	16	153	-632	2276	16968	262	-18	53	126	127	5
-11876	56	10704	-89	173	-198	-16080	-920	-1736	-14	5	-123	-924	-972	16956	-24	-88	167	-12784	3232	10268	157	-11	-118	-16492	-1176	-1400	-15	-29	137	-648	2276	16932	218	-28	36	126	127	5
-11908	0	10780	-91	123	-174	-16088	-888	-1732	2	-22	-118	-860	-932	16816	29	-101	176	-12800	3212	10216	116	-2	-123	-16504	-1192	-1348	31	-31	129	-608	2336	17064	151	0	45	126	126	5
-11956	4	10784	-124	150	-223	-16040	-980	-1808	11	-33	-115	-780	-1024	16964	13	-113	162	-12792	3252	10176	102	-58	-122	-16508	-1176	-1372	67	-17	172	-608	2304	16884	180	10	45	126	127	5
-11888	8	10736	-92	117	-197	-16008	-984	-1756	-9	-13	-67	-828	-1048	16852	19	-123	153	-12780	3268	10156	120	-46	-151	-16536	-1244	-1456	41	-33	150	-652	2276	16924	166	20	23	126	127	5
-11932	60	10792	-64	144	-191	-16104	-888	-1788	9	-28	-78	-864	-928	16916	24	-157	156	-12732	3232	10200	113	-12	-129	-16492	-1172	-1404	84	-62	128	-592	2236	17016	173	-43	36	126	126	5
-11904	56	10840	-112	126	-215	-16068	-908	-1856	14	-49	-65	-784	-1008	16896	10	-101	152	-12808	3228	10268	113	-21	-139	-16608	-1168	-1308	113	-27	167	-616	2204	16992	191	10	41	126	127	5
-11956	76	10896	-83	175	-197	-16092	-848	-1812	59	-55	-44	-812	-972	16956	62	-91	160	-12816	3184	10248	123	0	-152	-16492	-1228	-1344	78	-47	140	-556	2268	17044	160	-7	58	127	127	5
-11884	72	10744	-108	156	-179	-16116	-856	-1804	14	-36	-79	-856	-924	16968	50	-133	163	-12800	3224	10300	107	-9	-108	-16520	-1204	-1264	95	-23	143	-644	2220	16996	201	0	73	127	126	5
-11908	80	10780	-55	135	-203	-16088	-920	-1808	-34	-48	-87	-796	-944	16864	26	-105	152	-12696	3232	10232	100	-8	-121	-16528	-1192	-1348	60	-34	170	-616	2264	16940	201	-2	34	126	127	5
-11908	4	10900	-56	119	-222	-16112	-900	-1804	-7	-41	-36	-864	-856	16940	18	-118	157	-12720	3216	10224	114	-28	-139	-16520	-1156	-1372	51	-16	118	-560	2232	17040	182	17	0	126	127	5
-11864	-36	10832	-78	132	-198	-16124	-872	-1752	-4	-22	-72	-836	-928	16916	14	-105	102	-12744	3220	10300	116	-27	-142	-16524	-1180	-1324	24	-20	112	-608	2300	16980	151	25	2	126	127	5
-11900	44	10816	-79	154	-195	-16072	-896	-1820	49	-41	-80	-852	-916	16928	-27	-111	149	-12876	3200	10220	161	14	-147	-16564	-1316	-1272	-2	-9	148	-640	2252	16892	134	50	24	127	127	5
-11912	68	10724	-113	172	-224	-16048	-828	-1748	54	-48	-85	-800	-908	16812	24	-106	177	-12736	3236	10304	146	-34	-151	-16500	-1168	-1440	50	-23	147	-656	2244	17148	124	27	10	126	127	5
-11932	0	10720	-80	158	-204	-16080	-856	-1728	48	-52	-93	-836	-912	16932	-5	-145	157	-12784	3228	10268	97	-5	-161	-16540	-1188	-1344	103	-40	137	-628	2240	16936	169	-8	36	126	127	5
-11920	28	10880	-96	137	-198	-16028	-888	-1780	41	-48	-91	-904	-880	16992	-1	-137	184	-12748	3196	10208	106	6	-133	-16516	-1128	-1284	114	-41	124	-592	2248	17056	143	6	60	126	127	5
-11972	24	10696	-101	137	-196	-16004	-884	-1876	6	-87	-103	-892	-936	16936	5	-109	189	-12828	3256	10192	129	-50	-133	-16540	-1196	-1400	78	32	132	-584	2224	16924	186	26	14	126	126	5
-11888	12	10824	-105	139	-166	-16064	-876	-1808	-56	-37	-103	-812	-856	16912	14	-128	182	-12788	3236	10248	139	-22	-128	-16556	-1136	-1464	45	-68	118	-628	2160	17124	198	31	55	126	127	5
-11940	-20	10808	-105	123	-182	-16112	-964	-1792	-19	-36	-86	-776	-936	16988	-4	-142	174	-12732	3268	10304	131	-76	-103	-16532	-1184	-1344	32	-63	121	-572	2176	16896	203	3	98	126	127	5
-11856	40	10740	-96	140	-181	-16060	-928	-1680	-5	-54	-89	-844	-1004	16980	20	-126	189	-12768	3260	10316	145	-34	-108	-16516	-1224	-1392	40	-26	123	-552	2280	17000	131	14	44	126	126	5
-11896	28	10764	-49	161	-192	-16064	-892	-1744	-5	-16	-95	-792	-948	17064	65	-156	151	-12760	3248	10220	126	-31	-149	-16512	-1200	-1376	51	-66	156	-584	2212	16996	123	0	25	126	126	5
-11856	80	10784	-97	177	-189	-16052	-952	-1696	74	-5	-105	-736	-908	16916	33	-140	179	-12768	3232	10216	157	-40	-151	-16548	-1192	-1300	60	-45	148	-696	2232	17060	123	-15	38	126	126	5
-11900	120	10684	-81	190	-194	-16116	-892	-1744	85	2	-60	-852	-908	16988	18	-116	132	-12788	3196	10136	146	-45	-117	-16536	-1216	-1308	48	7	140	-596	2220	17020	140	-29	45	126	126	5
-11936	40	10704	-19	156	-202	-16096	-924	-1692	84	17	-95	-900	-1008	16952	9	-130	152	-12796	3228	10212	150	-30	-156	-16568	-1188	-1380	50	24	130	-604	2152	16964	150	-16	48	126	126	5
-11936	28	10744	-64	162	-189	-16056	-896	-1764	-13	-2	-57	-872	-928	16920	-24	-138	163	-12728	3252	10184	137	-75	-106	-16544	-1232	-1396	54	-15	107	-600	2220	17132	220	-38	32	126	126	5
-11848	44	10776	-79	152	-184	-16076	-852	-1736	-34	-31	-91	-852	-996	16916	-4	-132	196	-12760	3248	10288	139	-29	-127	-16528	-1288	-1384	79	-9	171	-640	2260	17004	202	2	49	126	126	5
-11912	44	10780	-101	147	-196	-16088	-908	-1688	-17	-32	-107	-832	-952	16988	88	-144	183	-12740	3248	10152	105	-50	-113	-16568	-1280	-1260	70	9	132	-708	2216	17040	173	19	36	126	126	5
-11884	28	10816	-144	150	-203	-16096	-884	-1896	0	-66	-113	-880	-976	16984	24	-110	186	-12748	3256	10292	124	5	-139	-16504	-1256	-1432	55	-29	163	-648	2236	16920	148	-7	35	126	126	5
-11892	28	10736	-106	135	-210	-16056	-916	-1768	8	-31	-87	-896	-948	16924	51	-145	219	-12816	3252	10220	101	-29	-118	-16528	-1264	-1344	71	-62	179	-604	2348	16956	140	17	33	126	126	5
-11904	8	10800	-93	160	-190	-16084	-820	-1840	33	-22	-108	-816	-952	16956	10	-126	213	-12704	3288	10316	116	-6	-158	-16568	-1192	-1416	66	-44	162	-696	2224	16932	148	-7	33	126	127	5
-11876	-12	10792	-101	148	-223	-16048	-928	-1764	-9	-47	-119	-848	-976	16860	31	-129	206	-12772	3204	10124	105	-51	-124	-16552	-1216	-1404	92	-29	159	-640	2176	17028	204	6	8	126	127	5
-11920	100	10720	-121	137	-204	-16064	-892	-1828	-16	-8	-102	-872	-940	16940	-24	-137	194	-12744	3268	10204	120	-55	-151	-16492	-1196	-1360	102	-23	144	-620	2216	16856	223	-10	11	126	126	5
-11852	4	10844	-77	156	-173	-16088	-924	-1768	-46	-50	-129	-816	-868	17020	-17	-107	192	-12732	3268	10220	99	-30	-147	-16552	-1140	-1384	112	-53	171	-572	2252	17036	177	13	34	126	126	5
-11888	-8	10656	-93	141	-199	-16092	-896	-1792	-20	-52	-135	-816	-1036	16904	-20	-115	179	-12748	3316	10260	103	-28	-142	-16540	-1180	-1348	68	-28	159	-624	2192	16944	176	-13	25	126	127	5
-11868	-40	10784	-92	135	-219	-16100	-972	-1776	6	-28	-152	-864	-992	16900	-32	-123	173	-12808	3316	10260	107	2	-130	-16552	-1196	-1400	72	-16	158	-624	2200	17020	179	9	27	126	126	5
-11932	-16	10868	-60	125	-190	-16084	-900	-1708	64	-16	-120	-808	-976	16960	-26	-125	178	-12812	3256	10184	112	-22	-128	-16484	-1172	-1472	37	-15	130	-608	2200	17004	173	-6	38	126	126	5
-11888	36	10880	-97	129	-201	-16096	-912	-2012	37	13	-119	-784	-1020	16916	21	-134	163	-12804	3244	10296	92	26	-151	-16508	-1144	-1396	27	-47	144	-624	2224	16980	163	-23	50	126	126	5
-11896	20	10752	-77	158	-198	-16088	-1000	-1812	-7	-41	-116	-788	-992	16968	32	-139	176	-12752	3272	10188	118	-27	-152	-16568	-1268	-1268	45	-49	123	-564	2176	17120	180	0	68	126	127	5
-11864	68	10776	-95	134	-212	-16076	-904	-1760	4	-15	-110	-852	-1000	16948	62	-106	224	-12736	3292	10316	100	-66	-146	-16508	-1236	-1308	74	6	114	-620	2200	17080	208	4	77	126	127	5
-11900	24	10736	-94	138	-196	-16076	-956	-1748	-20	-24	-66	-816	-1000	16968	71	-112	176	-12704	3216	10212	90	-22	-118	-16544	-1176	-1424	52	-31	143	-604	2220	17060	177	7	64	126	126	5
-11856	76	10824	-144	131	-185	-16096	-932	-1712	-12	-17	-76	-816	-1036	16956	61	-106	164	-12712	3276	10240	118	-47	-126	-16560	-1236	-1392	73	-15	150	-616	2240	16976	203	-19	40	126	126	5
-11852	32	10868	-87	147	-200	-16116	-984	-1832	34	-31	-77	-828	-968	16984	22	-93	153	-12768	3208	10340	114	-48	-150	-16500	-1224	-1388	21	26	126	-672	2268	17036	181	28	27	126	126	5
-11904	36	10772	-56	145	-214	-16096	-920	-1756	41	-20	-46	-856	-932	17016	38	-96	136	-12752	3224	10176	134	-18	-156	-16604	-1164	-1476	55	-30	153	-660	2248	17032	130	2	20	126	126	5
-11852	32	10780	-64	141	-206	-16104	-916	-1772	-7	-21	-48	-876	-972	16904	31	-127	140	-12776	3284	10140	125	-20	-130	-16548	-1208	-1384	54	-11	141	-648	2156	17044	174	-2	25	126	126	5
-11884	12	10712	-110	129	-166	-16044	-828	-1816	54	-9	-67	-852	-944	16920	78	-124	142	-12744	3208	10128	135	-8	-111	-16452	-1208	-1472	88	-19	146	-656	2216	17120	188	35	6	126	126	5
-11896	0	10736	-75	136	-226	-16064	-844	-1812	1	-32	-67	-824	-940	16876	60	-122	193	-12812	3260	10172	147	-33	-120	-16520	-1228	-1388	102	-34	145	-616	2120	17024	171	-51	12	126	126	5
-11916	44	10736	-110	157	-199	-16104	-856	-1780	6	-17	-82	-816	-960	16948	83	-130	151	-12788	3292	10300	102	-29	-110	-16544	-1204	-1392	97	-9	138	-620	2224	16960	187	-8	24	126	126	5
-11944	-36	10824	-98	144	-224	-16060	-928	-1780	-6	-49	-57	-788	-944	16984	24	-112	173	-12824	3224	10296	125	-48	-127	-16540	-1236	-1368	71	-20	181	-664	2260	16996	193	-15	24	126	126	5
-11904	80	10740	-82	149	-176	-16092	-868	-1724	5	-16	-100	-780	-860	17024	10	-108	174	-12808	3268	10236	156	-9	-148	-16548	-1172	-1264	56	-45	157	-592	2244	16980	199	3	39	126	126	5
-11888	20	10788	-59	142	-195	-16108	-932	-1796	32	-17	-90	-812	-900	16936	20	-100	172	-12796	3292	10212	121	-16	-174	-16472	-1120	-1264	58	-14	132	-628	2192	17092	144	43	58	126	126	5
-11880	68	10840	-96	146	-222	-16080	-968	-1840	31	-18	-91	-860	-948	16980	-11	-97	163	-12764	3228	10292	124	-52	-165	-16568	-1184	-1360	73	-11	122	-624	2284	17100	160	-12	40	126	126	5
-11884	8	10768	-90	165	-232	-16048	-912	-1740	39	-3	-92	-788	-944	16944	26	-114	140	-12736	3244	10256	111	-43	-166	-16504	-1236	-1380	44	-3	150	-584	2244	17024	210	-2	58	126	126	5
-11916	-40	10756	-116	129	-199	-16108	-1012	-1840	33	-16	-89	-840	-988	16952	-2	-119	187	-12760	3244	10208	104	-11	-173	-16524	-1156	-1356	78	4	153	-712	2284	16956	173	21	32	126	127	5
-11888	48	10784	-89	135	-191	-16096	-960	-1904	22	-11	-110	-844	-1008	16880	22	-115	197	-12792	3208	10240	116	-43	-166	-16532	-1200	-1368	68	-53	126	-612	2276	17076	157	24	50	126	126	5
-11872	36	10812	-103	143	-203	-16092	-856	-1760	7	-19	-98	-852	-1008	16916	30	-94	165	-12776	3224	10176	107	-56	-137	-16488	-1208	-1176	59	-40	154	-644	2224	16928	173	-8	42	126	126	5
-11908	44	10868	-58	119	-189	-16028	-952	-1776	-2	-27	-84	-860	-932	16952	20	-121	185	-12768	3244	10256	122	-7	-147	-16504	-1192	-1308	89	-76	122	-648	2216	16892	185	-37	68	126	126	5
-11956	36	10752	-66	127	-204	-16068	-1016	-1772	2	-22	-59	-776	-944	16932	8	-104	166	-12716	3240	10316	109	-36	-143	-16520	-1232	-1328	91	-61	169	-596	2224	17088	204	7	69	126	127	5
-11924	32	10744	-63	145	-206	-16096	-924	-1768	-6	-41	-91	-796	-976	17000	9	-111	157	-12840	3204	10256	125	-62	-127	-16580	-1248	-1392	75	-25	163	-680	2200	17020	222	-18	43	126	127	5
-11888	44	10804	-89	140	-200	-16036	-924	-1844	65	-39	-99	-840	-972	16996	37	-103	138	-12752	3196	10112	129	13	-124	-16584	-1220	-1364	44	-30	196	-596	2260	17120	172	37	18	126	127	5
-11884	52	10756	-64	152	-207	-16056	-956	-1784	-7	-31	-84	-808	-944	16976	39	-111	160	-12712	3212	10220	99	-7	-129	-16488	-1248	-1324	33	-18	163	-644	2240	17020	147	10	20	126	126	5
-11916	-4	10820	-89	145	-183	-16076	-940	-1720	2	-14	-96	-848	-936	17016	-10	-106	163	-12760	3244	10232	129	-3	-121	-16532	-1196	-1420	37	-55	167	-604	2208	17100	201	-22	30	126	126	5
-11872	16	10800	-110	143	-198	-16132	-916	-1836	18	-19	-100	-792	-904	16996	12	-111	169	-12748	3288	10280	142	-17	-130	-16552	-1260	-1276	71	-3	173	-640	2212	17092	210	-3	31	126	126	5
-11892	108	10844	-95	151	-210	-16084	-888	-1692	4	-39	-79	-836	-964	17004	26	-105	151	-12792	3212	10296	150	-20	-144	-16504	-1172	-1356	97	-19	120	-636	2304	16992	284	-34	68	126	126	5
-11868	32	10836	-65	163	-168	-16112	-856	-1752	-18	-30	-53	-816	-992	16900	25	-132	160	-12768	3276	10216	121	-23	-163	-16452	-1084	-1256	78	-4	138	-648	2264	16972	201	-10	50	126	126	5
-11904	60	10808	-110	135	-198	-16020	-1000	-1736	4	7	-88	-856	-1012	16872	19	-105	203	-12784	3300	10164	114	-41	-153	-16612	-1232	-1328	11	-13	167	-548	2264	16996	223	13	45	126	126	5
-11916	60	10884	-80	170	-223	-16072	-884	-1808	28	-2	-102	-744	-940	16952	38	-138	188	-12724	3304	10196	116	-15	-149	-16532	-1176	-1404	41	-10	151	-600	2284	16992	180	-19	49	126	126	5
-11868	4	10736	-107	166	-206	-16096	-956	-1844	10	32	-77	-764	-920	16956	33	-126	149	-12764	3196	10232	152	-59	-82	-16568	-1224	-1348	46	-24	159	-568	2228	16976	153	21	57	126	127	5
-11928	44	10860	-59	169	-193	-16056	-904	-1716	39	-2	-75	-824	-960	16868	44	-113	167	-12776	3224	10268	176	-42	-148	-16564	-1164	-1428	85	-22	163	-648	2248	17052	175	7	45	126	127	5
-11884	24	10728	-67	176	-198	-16088	-960	-1684	54	3	-57	-848	-960	16956	41	-114	155	-12700	3244	10256	198	-69	-117	-16552	-1168	-1340	58	1	114	-660	2208	17084	191	30	30	126	126	5
-11884	0	10856	-18	152	-199	-16092	-908	-1684	32	3	-71	-832	-924	16956	-16	-113	177	-12732	3180	10260	192	-61	-160	-16536	-1176	-1360	51	7	163	-668	2256	17052	187	-32	71	127	126	5
-11860	68	10784	-53	164	-213	-16040	-904	-1832	17	36	-80	-872	-956	16972	-4	-113	156	-12860	3224	10184	161	-29	-143	-16552	-1232	-1412	36	12	136	-680	2260	16868	220	14	16	126	127	5
-11964	48	10752	-95	124	-197	-16112	-924	-1876	-10	-12	-104	-972	-976	16860	-33	-127	178	-12748	3292	10244	132	10	-152	-16544	-1172	-1444	55	18	128	-648	2260	16916	195	-7	47	127	127	5
-11908	76	10720	-103	135	-196	-16084	-916	-1932	-14	-19	-119	-904	-980	16944	13	-123	178	-12820	3236	10324	151	-49	-160	-16544	-1180	-1528	68	-29	119	-696	2208	17008	177	-3	49	127	127	5
-11892	-16	10836	-87	119	-219	-16104	-928	-1872	30	-38	-142	-900	-956	16836	-8	-129	192	-12744	3236	10264	129	-60	-148	-16500	-1232	-1468	83	-35	118	-640	2164	17068	179	-18	45	126	127	5
-11868	52	10808	-126	135	-255	-16056	-948	-1772	10	-39	-94	-888	-1028	16964	23	-135	201	-12808	3228	10368	109	-29	-134	-16556	-1200	-1456	93	-78	129	-720	2312	16876	237	-15	42	126	127	5
-11872	-4	10812	-134	136	-184	-16060	-936	-1736	-26	-21	-110	-840	-1004	16976	43	-94	192	-12740	3256	10156	124	-18	-132	-16524	-1244	-1328	92	-62	165	-648	2236	17040	189	-25	49	126	127	5
-11884	24	10812	-103	110	-186	-16080	-968	-1744	-2	-34	-90	-808	-972	16936	57	-125	160	-12752	3240	10192	72	4	-170	-16540	-1188	-1332	61	-38	127	-628	2276	17068	213	-15	23	126	127	5
-11876	52	10784	-104	105	-195	-16128	-940	-1824	11	-37	-127	-812	-968	16840	17	-117	158	-12796	3244	10324	81	-38	-183	-16548	-1140	-1392	74	-71	155	-656	2228	17028	142	27	34	126	127	5
-11864	-16	10792	-78	155	-195	-16108	-976	-1756	14	-44	-74	-856	-928	16904	39	-123	149	-12716	3272	10276	110	-34	-117	-16548	-1252	-1372	67	-77	138	-580	2156	16956	141	22	34	126	127	5
-11896	32	10824	-103	155	-218	-16072	-904	-1752	17	-51	-68	-836	-952	16848	39	-100	185	-12748	3256	10240	131	-36	-116	-16500	-1160	-1268	79	2	147	-624	2208	17140	177	11	31	126	126	5
-11892	80	10816	-97	120	-185	-16108	-916	-1672	11	-41	-46	-812	-860	17016	16	-127	152	-12716	3252	10276	108	3	-151	-16456	-1224	-1288	106	11	128	-588	2184	16980	188	-21	30	126	127	5
-11868	4	10876	-98	138	-194	-16076	-932	-1708	-24	-21	-66	-796	-972	16948	16	-104	155	-12776	3248	10132	90	-11	-152	-16540	-1152	-1312	60	-6	149	-588	2252	17048	217	11	43	126	127	5
-11844	40	10848	-53	132	-206	-16080	-896	-1668	35	-36	-107	-808	-880	16956	2	-115	132	-12756	3304	10232	116	-98	-124	-16512	-1136	-1300	78	-14	138	-644	2236	16992	205	1	45	126	127	5
-11844	-20	10740	-57	160	-190	-16108	-876	-1820	60	-16	-88	-812	-900	16988	8	-115	147	-12776	3172	10144	98	-38	-129	-16516	-1184	-1408	37	0	137	-620	2208	17008	200	-8	32	126	127	5
-11832	28	10852	-88	149	-246	-16064	-888	-1688	23	12	-88	-832	-936	16896	23	-116	164	-12820	3220	10228	93	-36	-151	-16524	-1164	-1468	42	-9	161	-696	2308	17024	180	7	48	125	126	5
-11876	48	10860	-90	161	-206	-16120	-928	-1836	31	17	-81	-892	-948	16932	-4	-132	173	-12792	3228	10236	133	-2	-129	-16512	-1208	-1352	59	-53	128	-704	2196	16988	180	39	51	126	126	5
-11888	0	10784	-96	120	-225	-16092	-888	-1800	-6	-36	-132	-864	-916	16944	-17	-112	194	-12776	3228	10228	105	-13	-153	-16512	-1168	-1236	58	-4	101	-672	2176	17012	170	0	27	126	127	5
-11948	92	10768	-63	151	-188	-16060	-904	-1732	6	-18	-123	-832	-1016	16856	34	-146	174	-12760	3216	10140	113	-32	-135	-16560	-1148	-1340	55	21	117	-636	2192	16952	186	-21	35	126	127	5
-11924	44	10664	-96	166	-205	-16136	-948	-1700	-4	-19	-79	-860	-936	16960	17	-113	206	-12752	3248	10204	143	-53	-165	-16548	-1240	-1428	76	-44	171	-664	2236	17060	185	-15	31	126	126	5
-11924	8	10836	-51	129	-224	-16084	-920	-1888	-3	-32	-96	-888	-940	16956	29	-117	222	-12744	3192	10224	130	-15	-160	-16600	-1188	-1388	78	-63	156	-668	2208	16936	199	-24	51	126	127	5
-11844	52	10748	-63	148	-223	-16068	-924	-1828	-35	-47	-69	-876	-964	16884	20	-155	162	-12720	3248	10300	97	-4	-137	-16560	-1180	-1308	67	-40	148	-688	2268	17028	206	-32	31	126	127	5
-11920	24	10732	-83	172	-204	-16048	-976	-1788	-12	-24	-91	-876	-1012	16924	22	-100	157	-12748	3244	10272	151	-16	-125	-16536	-1208	-1336	62	-18	152	-676	2236	16952	191	15	50	126	127	5
-11872	68	10752	-89	136	-203	-16064	-972	-1824	9	-17	-89	-784	-900	16964	-6	-121	167	-12768	3204	10144	101	-33	-135	-16528	-1208	-1380	48	-12	179	-612	2208	17052	184	-19	11	126	127	5
-11896	84	10804	-55	144	-180	-16056	-948	-1760	-1	-10	-58	-828	-968	16976	0	-92	163	-12820	3244	10264	128	-58	-132	-16576	-1196	-1404	53	-44	160	-632	2180	16856	213	14	19	126	127	5
-11888	24	10756	-74	145	-169	-16076	-928	-1688	22	-67	-44	-856	-960	16932	48	-111	177	-12760	3232	10220	134	-16	-145	-16512	-1152	-1408	36	-18	147	-620	2228	16992	186	16	48	126	127	5
-11860	80	10808	-127	171	-194	-16024	-956	-1720	40	-34	-73	-840	-972	16868	62	-110	145	-12776	3256	10232	98	8	-178	-16548	-1200	-1388	38	-36	153	-608	2220	16948	211	1	32	125	126	5
-11948	4	10740	-66	110	-177	-16060	-908	-1856	29	-30	-50	-812	-976	16988	34	-113	177	-12756	3180	10264	162	-27	-142	-16572	-1164	-1456	88	14	127	-624	2244	16960	200	-3	52	126	127	5
-11888	-8	10704	-98	135	-174	-16080	-944	-1796	56	-31	-72	-904	-988	17000	30	-148	141	-12740	3236	10280	129	-4	-141	-16524	-1136	-1320	70	-26	158	-624	2208	16980	191	16	58	126	127	5
-11972	-4	10908	-72	143	-202	-16080	-908	-1816	5	-7	-65	-868	-952	16900	-7	-123	177	-12704	3224	10264	95	-52	-140	-16492	-1164	-1304	98	-24	128	-592	2212	16972	175	-27	58	126	127	5
-11912	56	10720	-75	145	-193	-16136	-904	-1776	10	-14	-68	-844	-932	16984	-4	-110	200	-12776	3148	10200	143	-25	-136	-16516	-1204	-1444	86	-26	142	-676	2232	17100	185	-21	62	126	126	5
-11904	44	10692	-93	138	-203	-16008	-892	-1812	10	0	-106	-828	-964	16936	50	-116	163	-12824	3296	10292	128	-22	-127	-16548	-1228	-1308	57	-37	152	-632	2200	17020	192	9	33	126	126	5
-11876	24	10868	-117	105	-181	-16084	-948	-1740	41	-19	-125	-840	-900	16980	11	-109	171	-12816	3228	10180	118	-39	-157	-16508	-1196	-1368	56	7	118	-552	2216	16944	218	-26	48	126	126	5
-11820	68	10804	-81	139	-188	-16076	-880	-1720	59	-21	-70	-840	-876	16900	30	-84	159	-12760	3256	10316	116	-43	-133	-16532	-1140	-1368	50	-19	160	-692	2244	16972	204	-39	36	126	127	5
-11864	24	10832	-75	112	-226	-16100	-936	-1744	32	-24	-65	-832	-936	17020	25	-84	159	-12716	3256	10268	147	-22	-120	-16584	-1204	-1328	46	-1	148	-644	2260	16972	196	12	42	126	126	5
-11896	20	10760	-83	136	-199	-16104	-884	-1648	22	-40	-57	-868	-896	16804	-29	-139	160	-12768	3232	10296	152	-77	-148	-16500	-1156	-1332	102	-38	145	-668	2264	16980	185	5	18	126	127	5
-11864	76	10740	-125	141	-203	-16064	-968	-1696	41	-9	-12	-876	-944	16908	9	-109	176	-12788	3244	10200	125	-62	-142	-16504	-1180	-1372	83	-5	162	-628	2220	16896	169	8	49	126	127	5
-11916	-12	10712	-68	115	-216	-16032	-944	-1696	54	-14	-91	-792	-928	16868	-23	-112	160	-12744	3228	10232	122	-54	-121	-16544	-1252	-1292	96	-35	170	-648	2248	17032	158	17	42	126	126	5
-11936	40	10796	-86	149	-182	-16108	-952	-1744	26	8	-57	-796	-992	16912	36	-166	155	-12724	3220	10140	128	-10	-150	-16524	-1172	-1392	74	-21	163	-644	2096	17000	211	-8	43	126	127	5
-11852	20	10732	-83	134	-200	-16076	-864	-1708	-9	-37	-43	-892	-992	16988	12	-139	157	-12724	3248	10272	146	-52	-159	-16516	-1192	-1376	62	-38	91	-712	2276	17048	218	-27	33	126	127	5
-11924	0	10856	-109	125	-214	-16104	-1004	-1800	20	-35	-113	-856	-988	16904	33	-113	141	-12740	3208	10208	81	-25	-114	-16496	-1184	-1428	102	-39	132	-612	2140	16976	181	-19	21	127	127	5
-11940	-8	10780	-125	164	-197	-16052	-908	-1840	58	-35	-83	-804	-992	16892	-1	-102	180	-12732	3240	10252	97	-25	-132	-16548	-1176	-1332	58	10	169	-632	2240	17020	170	16	45	127	127	5
-11880	20	10804	-101	145	-189	-16076	-884	-1812	40	-43	-44	-884	-920	16788	15	-110	166	-12760	3232	10160	115	-42	-145	-16508	-1216	-1368	44	-33	144	-628	2332	16992	176	-6	41	126	127	5
-11884	36	10796	-146	164	-194	-16160	-992	-1796	2	-20	-83	-800	-980	16844	10	-97	170	-12764	3280	10172	96	-59	-131	-16548	-1232	-1444	42	-15	157	-656	2232	17148	187	32	44	126	127	5
-11916	56	10664	-75	144	-184	-16068	-972	-1672	-22	-27	-99	-816	-952	16920	32	-126	174	-12784	3260	10204	129	-29	-165	-16580	-1208	-1308	82	-46	162	-684	2232	17032	197	18	55	126	126	5
-11916	-32	10748	-29	123	-170	-16076	-932	-1708	-4	-18	-91	-772	-980	16840	17	-123	214	-12784	3236	10268	121	-42	-138	-16552	-1244	-1328	73	-5	157	-692	2212	17100	194	5	63	126	126	5
-11936	48	10728	-123	177	-206	-16060	-920	-1844	40	-15	-76	-804	-956	16888	44	-145	165	-12844	3284	10328	137	-57	-130	-16544	-1184	-1316	95	-41	122	-588	2196	17036	206	-18	27	126	126	5
-11840	32	10792	-92	180	-193	-16068	-920	-1732	30	3	-92	-772	-912	16944	58	-88	146	-12788	3288	10172	200	-58	-153	-16512	-1128	-1416	87	-1	125	-604	2236	17020	179	-20	54	126	127	5
-11904	32	10880	-39	162	-179	-16080	-968	-1816	17	2	-109	-860	-932	17096	28	-96	157	-12788	3232	10268	166	-55	-186	-16556	-1208	-1424	58	-1	163	-560	2176	16972	213	-1	16	126	126	5
-11916	56	10784	-76	156	-215	-16112	-808	-1780	25	-14	-107	-812	-908	16864	-5	-131	158	-12788	3272	10132	181	7	-177	-16488	-1120	-1356	46	10	135	-692	2244	17068	173	7	44	126	126	5
-11888	68	10856	-36	165	-222	-16072	-964	-1680	22	-10	-88	-848	-960	16892	-3	-119	174	-12792	3272	10248	148	-41	-140	-16568	-1148	-1292	16	-41	128	-612	2300	17056	180	-21	13	126	126	5
-11900	12	10848	-71	138	-212	-16056	-936	-1896	-31	-42	-89	-892	-996	16960	-7	-146	181	-12716	3248	10320	119	-21	-140	-16540	-1204	-1416	35	9	128	-664	2252	17056	219	7	46	126	126	5
-11940	-44	10800	-90	143	-230	-16088	-956	-1740	4	-43	-90	-888	-1008	16944	-7	-142	172	-12840	3252	10160	150	-1	-114	-16592	-1212	-1436	66	-59	111	-652	2268	17008	180	2	55	126	126	5
-11884	44	10816	-89	118	-196	-16068	-872	-1828	13	-34	-95	-880	-960	16928	-4	-109	206	-12792	3236	10276	91	-21	-146	-16544	-1268	-1380	36	-43	169	-700	2268	17084	175	-19	46	126	126	5
-11908	20	10744	-83	127	-195	-16128	-952	-1800	1	-44	-89	-824	-1068	16872	12	-122	202	-12740	3212	10140	116	-7	-162	-16540	-1256	-1420	81	-76	144	-660	2248	17024	201	14	30	126	126	5
-11852	8	10740	-125	112	-220	-16072	-952	-1736	-37	-43	-86	-780	-1000	16860	45	-129	180	-12796	3272	10260	98	10	-155	-16552	-1240	-1468	121	-64	150	-628	2284	17056	219	-37	50	126	126	5
-11920	16	10828	-139	100	-203	-16088	-912	-1740	-6	-80	-57	-776	-1000	16880	25	-112	204	-12744	3192	10216	107	-12	-115	-16568	-1248	-1344	92	-20	153	-596	2248	17036	188	33	14	126	127	5
-11908	-56	10780	-154	126	-165	-16032	-896	-1784	-4	-59	-82	-800	-968	16928	19	-89	136	-12824	3172	10160	114	-11	-120	-16528	-1192	-1356	58	-12	134	-628	2244	17088	127	17	19	126	126	5
-11920	60	10860	-120	112	-182	-16068	-960	-1772	-11	-27	-94	-848	-948	16948	-14	-117	164	-12748	3292	10164	97	-10	-165	-16552	-1236	-1352	50	-53	160	-584	2168	16984	191	-10	30	126	126	5
-11932	96	10776	-100	120	-190	-16072	-980	-1840	48	-23	-55	-848	-984	16916	-14	-114	167	-12804	3308	10160	114	-12	-148	-16560	-1200	-1336	31	-59	171	-620	2188	17096	179	-4	36	126	127	5
-11888	44	10804	-101	135	-186	-16092	-936	-1820	28	3	-99	-884	-952	16912	12	-108	122	-12716	3244	10172	84	-27	-175	-16544	-1256	-1368	88	8	162	-564	2176	17064	185	6	55	126	127	5
-11876	-12	10772	-113	153	-217	-16136	-948	-1756	30	-33	-86	-816	-964	16908	0	-112	154	-12704	3236	10124	107	21	-153	-16532	-1236	-1348	87	-41	167	-584	2252	17048	198	9	52	126	127	5
-11912	72	10772	-84	138	-186	-16024	-884	-1660	33	-25	-55	-824	-904	16892	4	-107	176	-12788	3304	10240	115	-23	-115	-16560	-1136	-1448	108	-17	194	-692	2276	17036	228	-30	33	126	126	5
-11888	56	10732	-71	155	-210	-16060	-888	-1880	13	1	-58	-864	-1012	16868	1	-122	171	-12704	3236	10364	104	-35	-147	-16556	-1184	-1352	76	9	155	-636	2216	17032	194	-5	48	126	126	5
-11880	52	10876	-76	133	-191	-16072	-912	-1728	29	5	-125	-832	-924	16980	46	-114	168	-12772	3276	10164	113	-26	-121	-16532	-1184	-1360	48	16	138	-632	2300	17108	164	9	16	126	127	5
-11948	28	10796	-92	158	-179	-16076	-900	-1820	-2	-10	-118	-888	-944	16812	19	-134	153	-12724	3168	10220	140	-34	-142	-16556	-1148	-1392	16	13	92	-656	2280	17060	186	9	62	126	126	5
-11876	96	10744	-86	147	-202	-16020	-864	-1764	10	-2	-100	-896	-976	16884	3	-130	155	-12728	3212	10172	121	-37	-157	-16520	-1224	-1344	0	6	121	-632	2300	17112	163	-3	93	126	127	5
-11916	116	10832	-76	143	-209	-16156	-912	-1728	-8	-29	-109	-840	-972	16888	-17	-166	165	-12820	3256	10252	101	-8	-124	-16516	-1176	-1348	43	-43	138	-600	2244	16964	197	-12	70	126	127	5
-11908	24	10844	-98	137	-205	-16088	-904	-1844	-47	12	-153	-832	-1004	16916	14	-111	174	-12768	3280	10264	116	-17	-139	-16532	-1232	-1392	86	-18	122	-676	2220	16980	217	-2	62	126	127	5
-11976	12	10864	-66	129	-209	-16056	-932	-1836	3	-44	-110	-832	-948	16804	14	-128	152	-12744	3280	10276	112	-24	-170	-16576	-1184	-1388	138	-37	152	-676	2236	16964	186	-23	30	126	126	5
-11916	16	10748	-112	152	-230	-16076	-964	-1796	4	-42	-92	-828	-904	17032	8	-115	154	-12780	3268	10208	94	-21	-152	-16492	-1164	-1344	113	-32	112	-588	2176	16996	164	4	13	126	127	5
-11848	68	10852	-53	130	-197	-16120	-956	-1692	50	-34	-104	-852	-1060	16940	-4	-132	155	-12816	3180	10228	121	-83	-151	-16544	-1188	-1348	65	-42	131	-640	2244	17152	162	-13	42	126	127	5
-11912	-8	10860	-75	153	-202	-16056	-968	-1792	-4	-49	-80	-852	-1036	16940	33	-95	143	-12780	3276	10312	104	-32	-123	-16528	-1224	-1296	58	-11	126	-640	2220	16960	164	12	48	126	127	5
-11880	-8	10768	-81	130	-159	-16112	-956	-1792	-7	-37	-80	-844	-984	16940	12	-118	159	-12740	3304	10268	132	-12	-145	-16608	-1168	-1252	37	-20	149	-644	2200	16940	174	9	43	126	127	5
-11872	28	10848	-82	117	-197	-16064	-920	-1848	-30	-14	-120	-812	-960	16980	36	-122	174	-12756	3240	10200	118	-13	-145	-16540	-1164	-1368	25	-48	152	-700	2148	17068	181	-6	43	126	127	5
-11920	-8	10816	-108	134	-157	-16108	-908	-1736	18	-2	-96	-816	-996	16936	17	-130	153	-12768	3204	10204	112	-36	-128	-16552	-1244	-1368	21	11	159	-664	2164	17132	174	4	45	126	127	5
-11844	36	10752	-62	144	-221	-16080	-956	-1708	28	-13	-101	-824	-976	16980	29	-121	159	-12760	3292	10304	134	-6	-139	-16516	-1256	-1396	82	-20	146	-644	2228	17096	194	-35	50	126	127	5
-11888	8	10808	-100	149	-214	-16060	-908	-1900	55	-46	-87	-852	-1012	16892	26	-99	171	-12724	3220	10092	119	-56	-144	-16540	-1216	-1388	128	-17	164	-640	2220	16992	211	-8	55	126	126	5
-11856	24	10856	-76	161	-192	-16104	-940	-1780	26	-36	-53	-852	-1032	16980	23	-121	159	-12696	3248	10260	123	-56	-129	-16560	-1216	-1336	133	-20	165	-640	2176	16956	196	-29	69	126	127	5
-11864	8	10908	-81	136	-220	-16092	-912	-1824	58	-20	-72	-896	-996	16912	19	-115	141	-12756	3224	10272	102	-38	-146	-16532	-1144	-1480	98	-12	161	-612	2216	16916	228	-3	49	126	127	5
-11932	-24	10788	-67	155	-204	-16052	-912	-1688	-10	-21	-56	-872	-964	17000	63	-116	182	-12700	3224	10260	109	-36	-132	-16512	-1168	-1344	30	-33	169	-592	2240	17040	238	0	63	126	127	5
-11864	16	10676	-60	129	-194	-16064	-944	-1848	-32	-38	-89	-848	-900	16900	24	-131	192	-12804	3284	10232	108	-18	-127	-16536	-1188	-1272	-15	-85	166	-628	2184	17092	200	9	81	126	127	5
-11808	4	10812	-110	142	-199	-16108	-940	-1660	-25	-35	-86	-848	-916	16920	42	-120	174	-12860	3180	10280	106	-8	-138	-16564	-1200	-1328	34	-55	164	-696	2216	17152	209	0	31	126	127	5
-11912	80	10784	-90	131	-148	-16052	-916	-1740	-1	-28	-99	-800	-1000	17044	30	-127	119	-12760	3244	10248	110	-12	-174	-16552	-1200	-1400	96	1	164	-580	2212	17052	204	5	-8	126	127	5
-11816	56	10728	-54	129	-208	-16100	-1036	-1712	27	-13	-83	-768	-924	16932	4	-96	152	-12748	3228	10212	157	-62	-137	-16512	-1272	-1380	99	-77	179	-588	2212	16928	221	-23	25	126	127	5
-11872	48	10820	-79	151	-200	-16120	-884	-1756	33	-12	-40	-780	-1008	16880	9	-128	146	-12732	3192	10160	106	4	-153	-16504	-1144	-1284	117	-6	155	-612	2276	16988	227	9	49	126	127	5
-11888	-56	10772	-109	151	-203	-16072	-888	-1804	31	42	-69	-812	-984	16952	-2	-124	158	-12680	3216	10320	101	13	-132	-16540	-1188	-1308	86	14	116	-668	2252	17100	220	3	66	126	126	5
-11884	12	10864	-116	137	-216	-16108	-968	-1884	42	41	-53	-836	-1060	16896	43	-108	157	-12724	3212	10180	105	-46	-136	-16512	-1144	-1360	31	14	158	-588	2300	16968	218	-16	63	126	127	5
-11964	44	10808	-70	126	-159	-16068	-976	-1716	27	-12	-73	-856	-956	16956	46	-115	166	-12756	3236	10252	109	-73	-143	-16552	-1192	-1496	31	-12	166	-660	2280	17068	199	3	27	126	127	5
-11864	12	10812	-56	168	-177	-16060	-928	-1824	50	52	-71	-828	-916	16900	38	-148	135	-12768	3228	10244	113	21	-117	-16528	-1176	-1424	28	-22	121	-676	2272	16940	189	19	25	126	127	5
-11848	60	10792	-87	132	-214	-16044	-876	-1832	59	-36	-76	-880	-964	16928	-9	-99	164	-12808	3240	10256	126	-42	-175	-16540	-1216	-1380	46	36	182	-604	2256	16992	140	-14	22	126	127	5
-11884	40	10804	-66	162	-213	-16084	-872	-1776	0	-15	-89	-856	-900	16948	-25	-106	141	-12708	3228	10224	118	-66	-144	-16548	-1212	-1332	97	-27	200	-660	2196	16932	172	36	49	126	127	5
-11920	40	10804	-88	135	-185	-16060	-872	-1844	3	-25	-89	-900	-964	16896	-4	-111	181	-12804	3256	10312	109	-23	-166	-16580	-1192	-1444	80	10	157	-668	2288	17000	203	-10	41	126	127	5
-11884	24	10884	-109	124	-186	-16096	-928	-1704	-22	-22	-96	-896	-968	16928	7	-122	185	-12752	3188	10272	133	-53	-168	-16540	-1216	-1360	99	-36	145	-740	2264	16972	232	1	27	126	127	5
-11864	52	10884	-92	133	-198	-16036	-876	-1764	17	-11	-100	-868	-960	16876	21	-140	156	-12788	3244	10112	127	-28	-147	-16560	-1168	-1344	89	-11	110	-660	2268	16988	152	6	16	126	127	5
-11916	12	10768	-77	179	-180	-16096	-960	-1732	47	-20	-103	-856	-904	16976	-5	-114	151	-12752	3240	10280	146	-62	-137	-16480	-1172	-1396	81	-36	142	-688	2328	17028	142	-12	27	126	127	5
-11860	64	10772	-84	142	-179	-16160	-944	-1732	67	-1	-86	-792	-1012	16864	23	-138	137	-12832	3200	10252	164	-54	-141	-16488	-1180	-1392	75	-38	149	-632	2228	17052	127	-15	39	125	127	5
-11940	4	10808	-54	162	-178	-16084	-840	-1780	46	-9	-75	-888	-960	16928	-31	-139	159	-12768	3248	10200	153	-48	-167	-16468	-1180	-1344	44	-20	131	-632	2176	17024	157	4	67	126	127	5
-11884	52	10816	-66	183	-210	-16108	-852	-1800	-2	-40	-112	-852	-1080	16948	-26	-141	162	-12768	3272	10252	177	-70	-130	-16528	-1220	-1296	32	-17	95	-688	2196	16980	159	36	66	126	127	5
-11916	28	10792	-70	165	-206	-16052	-904	-1836	-58	-32	-104	-880	-1016	16948	15	-124	186	-12804	3288	10216	116	-43	-156	-16536	-1252	-1436	50	-67	141	-692	2172	17088	190	2	41	126	127	5
-11944	-12	10780	-82	131	-214	-16092	-912	-1704	-29	-37	-87	-852	-976	16936	21	-149	195	-12792	3244	10256	122	-43	-145	-16572	-1220	-1360	81	-18	126	-684	2188	17016	230	4	65	126	127	5
-11856	-4	10808	-64	135	-216	-16068	-912	-1796	9	-23	-89	-844	-928	16988	-16	-125	174	-12756	3308	10264	116	-27	-152	-16516	-1152	-1312	70	-67	164	-624	2152	17000	206	-3	38	126	127	5
-11872	60	10932	-109	139	-176	-16060	-936	-1704	4	-50	-122	-856	-1056	16908	12	-129	176	-12736	3232	10268	76	-22	-121	-16536	-1236	-1296	53	-48	154	-708	2280	17016	192	-12	56	126	127	5
-11944	-12	10648	-113	88	-213	-16096	-924	-1728	41	-36	-115	-836	-996	16948	34	-131	160	-12792	3208	10224	138	-3	-152	-16572	-1232	-1392	112	-46	126	-580	2212	17032	170	-4	23	126	127	5
-11872	24	10844	-101	148	-195	-16128	-968	-1780	4	-52	-70	-844	-940	16984	28	-131	160	-12764	3232	10256	114	-7	-146	-16636	-1236	-1416	75	-26	149	-604	2244	17036	162	-28	15	126	127	5
-11864	56	10868	-96	122	-192	-16052	-888	-1760	15	-55	-94	-820	-956	16856	31	-125	149	-12784	3184	10252	84	-43	-172	-16548	-1252	-1224	72	-40	194	-624	2212	17004	184	-8	29	126	127	5
-11852	48	10740	-120	120	-162	-16104	-944	-1716	-21	-15	-94	-800	-908	16964	27	-124	154	-12704	3244	10292	133	-28	-171	-16508	-1232	-1304	47	-23	147	-648	2176	17124	203	-28	42	126	127	5
-11908	52	10712	-105	131	-214	-16140	-980	-1816	-11	-15	-69	-804	-984	17012	3	-110	125	-12696	3236	10224	104	-20	-170	-16540	-1220	-1352	62	-26	204	-588	2224	16968	227	12	25	126	127	5
-11888	20	10612	-90	134	-199	-16116	-960	-1660	15	-27	-83	-840	-948	16868	3	-107	153	-12816	3228	10248	117	-36	-152	-16568	-1160	-1396	76	-56	166	-668	2208	16940	217	-12	0	126	127	5
-11848	4	10732	-95	104	-226	-16036	-1024	-1736	13	-15	-45	-800	-956	16804	40	-120	166	-12724	3260	10276	119	-72	-139	-16560	-1188	-1412	58	-38	168	-548	2216	17116	146	22	7	126	127	5
-11872	68	10708	-115	122	-207	-16084	-972	-1784	46	-27	-38	-812	-1024	16964	28	-137	159	-12728	3260	10236	96	27	-171	-16496	-1224	-1416	88	6	112	-624	2212	17000	173	-28	41	126	127	5
-11876	-4	10892	-79	132	-199	-16064	-908	-1736	55	15	-60	-884	-940	16952	25	-109	156	-12736	3228	10172	83	-66	-142	-16588	-1188	-1340	79	-29	176	-608	2232	16940	200	-19	43	126	127	5
-11948	116	10772	-82	124	-170	-16108	-920	-1748	69	8	-90	-848	-1016	17040	1	-92	155	-12772	3216	10284	109	4	-146	-16604	-1140	-1364	79	5	140	-616	2276	17004	187	-1	45	126	127	5
-11828	-12	10744	-101	139	-217	-16072	-920	-1752	-19	15	-100	-848	-968	16916	23	-120	169	-12688	3260	10268	89	-43	-145	-16520	-1180	-1376	54	29	143	-660	2200	16948	195	-25	65	126	126	5
-11788	-44	10784	-84	183	-214	-16068	-912	-1760	-31	-2	-52	-852	-940	16948	24	-119	173	-12716	3168	10220	145	-21	-164	-16504	-1184	-1304	37	-20	133	-608	2352	16900	218	-9	71	126	127	5
-11952	44	10804	-88	172	-210	-16092	-1012	-1752	30	-28	-55	-848	-952	17000	25	-125	188	-12748	3296	10264	114	-44	-137	-16480	-1204	-1452	-3	11	135	-640	2204	16956	156	9	53	125	126	5
-11892	-60	10720	-76	157	-212	-16032	-864	-1868	41	13	-82	-952	-1032	16864	12	-98	182	-12812	3288	10164	144	-39	-133	-16452	-1236	-1388	52	5	142	-700	2252	16996	170	-13	53	126	126	5
-11892	0	10704	-63	171	-192	-16072	-916	-1728	-5	-11	-103	-840	-1036	16860	62	-107	150	-12708	3204	10216	149	-86	-134	-16472	-1240	-1380	61	25	125	-680	2244	17032	211	-2	57	126	126	5
-11884	-40	10756	-83	124	-195	-16156	-912	-1800	7	-4	-61	-936	-996	16964	37	-126	167	-12728	3244	10200	106	-39	-120	-16556	-1200	-1376	68	4	178	-660	2244	16868	185	10	82	126	126	5
-11872	24	10788	-86	178	-204	-16084	-936	-1716	23	6	-63	-900	-968	16908	10	-127	169	-12768	3260	10284	97	-45	-144	-16580	-1224	-1552	69	-4	141	-644	2236	17052	164	-21	27	126	126	5
-11900	12	10808	-128	144	-222	-16040	-944	-1804	51	-23	-57	-856	-936	16848	16	-138	174	-12788	3168	10196	101	-38	-125	-16560	-1236	-1400	74	-49	154	-768	2232	17004	182	-14	30	125	126	5
-11932	16	10784	-85	165	-201	-16108	-964	-1764	11	-35	-57	-892	-992	16904	33	-129	155	-12776	3308	10192	108	-33	-136	-16552	-1220	-1420	64	-51	162	-680	2216	16912	150	11	25	126	126	5
-11876	44	10820	-114	125	-226	-16136	-976	-1700	25	-12	-74	-900	-960	16872	5	-134	158	-12820	3312	10136	130	-66	-129	-16564	-1172	-1320	67	0	129	-652	2192	16988	170	-25	35	126	126	5
-11868	88	10772	-97	127	-185	-16112	-912	-1784	5	-33	-79	-856	-968	16992	25	-114	176	-12716	3220	10308	115	-6	-131	-16472	-1224	-1372	70	-25	160	-656	2268	17024	213	-7	56	126	127	5
-11904	12	10840	-98	157	-221	-16028	-940	-1760	-7	-46	-103	-828	-972	16952	33	-126	150	-12768	3188	10228	125	-31	-121	-16496	-1204	-1336	67	-94	178	-692	2260	16940	201	-13	48	126	126	5
-11864	-8	10728	-109	166	-167	-16088	-956	-1692	5	-47	-88	-816	-968	16936	45	-111	172	-12820	3204	10240	131	-42	-144	-16496	-1104	-1304	77	-54	149	-572	2272	16940	204	-20	41	126	126	5
-11932	28	10824	-75	111	-183	-16084	-924	-1684	-3	-18	-116	-848	-964	16860	50	-100	165	-12800	3224	10252	128	-38	-159	-16564	-1124	-1332	60	-46	171	-640	2256	17020	181	-17	38	126	127	5
-11904	36	10708	-88	163	-194	-16040	-928	-1748	21	-8	-86	-836	-948	16872	23	-110	190	-12684	3232	10204	86	-43	-124	-16536	-1184	-1372	52	-59	129	-652	2248	16988	167	-8	46	126	126	5
-11916	-24	10864	-90	136	-189	-16128	-912	-1784	63	-30	-74	-816	-892	16812	7	-128	167	-12768	3240	10188	99	-12	-155	-16572	-1164	-1304	89	-30	149	-580	2224	17044	171	-17	31	126	127	5
-11864	20	10732	-92	135	-213	-16076	-908	-1772	12	-25	-98	-856	-944	16908	16	-135	158	-12724	3260	10320	140	7	-178	-16428	-1164	-1352	70	-10	129	-552	2200	16964	177	-3	37	126	127	5
-11856	-32	10816	-104	142	-222	-16040	-940	-1876	-16	-7	-77	-820	-984	17056	12	-131	190	-12764	3256	10192	80	-36	-124	-16560	-1220	-1372	58	-20	133	-660	2252	17096	217	-33	35	125	127	5
-11816	8	10772	-107	134	-173	-16056	-912	-1716	8	-30	-127	-860	-980	16936	11	-110	160	-12748	3236	10308	121	-70	-151	-16476	-1164	-1296	69	0	116	-668	2272	17040	169	-9	49	125	126	5
-11924	-48	10696	-101	124	-212	-16044	-924	-1612	-6	4	-104	-892	-1012	16932	37	-114	177	-12784	3228	10312	84	-16	-128	-16512	-1200	-1396	9	-10	135	-692	2284	17048	155	-41	38	125	127	5
-11844	-16	10872	-75	151	-196	-16100	-980	-1732	19	-11	-128	-884	-1020	17028	45	-99	170	-12780	3324	10168	107	-16	-157	-16580	-1260	-1360	62	-21	161	-664	2192	16928	158	-27	13	125	127	5
-11936	20	10812	-86	162	-231	-16076	-920	-1812	20	-54	-125	-852	-952	16940	-12	-131	166	-12764	3228	10320	94	-15	-166	-16536	-1244	-1420	60	7	160	-700	2232	17024	185	-8	54	126	127	5
-11872	0	10800	-90	162	-206	-16084	-960	-1744	14	-16	-106	-848	-972	16840	20	-152	187	-12804	3256	10256	125	-35	-90	-16508	-1268	-1336	79	-36	128	-636	2216	17056	203	2	41	125	127	5
-11800	-28	10668	-88	113	-205	-16084	-924	-1720	11	-21	-99	-848	-988	16932	31	-106	151	-12792	3200	10304	140	-14	-143	-16536	-1276	-1380	80	-83	162	-660	2176	16900	253	-7	43	126	126	5
-11900	32	10784	-87	157	-216	-16048	-988	-1696	-1	-33	-106	-788	-936	16872	35	-103	184	-12724	3248	10172	119	-64	-129	-16568	-1192	-1224	76	-39	140	-620	2252	16980	219	0	24	126	127	5
-11900	20	10832	-72	145	-189	-16064	-1004	-1744	20	-16	-61	-824	-1008	16968	42	-117	171	-12780	3248	10252	117	-5	-120	-16488	-1212	-1320	63	-31	180	-616	2224	16996	203	-8	27	126	127	5
-11896	68	10812	-100	141	-221	-16064	-1020	-1720	42	8	-33	-844	-980	16976	64	-112	133	-12720	3240	10176	148	-33	-152	-16556	-1224	-1408	72	-59	179	-592	2252	16976	145	-24	56	126	127	5
-11960	0	10776	-56	180	-181	-16060	-928	-1744	40	6	-56	-836	-952	16852	33	-114	95	-12820	3248	10276	150	-28	-132	-16528	-1148	-1412	59	-53	157	-632	2248	16908	161	-8	24	125	127	5
-11888	0	10800	-78	162	-169	-16120	-908	-1756	33	54	-95	-796	-876	16848	29	-88	117	-12768	3260	10200	164	-28	-149	-16532	-1148	-1352	83	-21	158	-656	2176	16988	176	-11	2	126	127	5
-11860	28	10856	-79	168	-176	-16072	-904	-1764	48	10	-66	-864	-936	16892	-21	-111	152	-12740	3280	10336	166	-30	-100	-16544	-1248	-1400	92	-11	159	-696	2208	17036	187	-43	18	126	127	5
-11964	52	10824	-50	171	-198	-16116	-884	-1820	0	38	-64	-884	-940	16964	-13	-130	136	-12760	3268	10236	139	-31	-139	-16572	-1160	-1392	58	-4	151	-656	2260	17008	200	0	24	126	127	5
-11912	100	10788	-68	192	-207	-16016	-848	-1768	25	13	-112	-952	-940	16900	-5	-118	167	-12708	3228	10248	150	-3	-122	-16544	-1244	-1468	46	-5	130	-676	2244	16976	191	2	31	126	127	5
-11908	44	10824	-37	169	-191	-16024	-876	-1728	36	18	-102	-900	-952	16996	3	-113	190	-12784	3284	10228	123	-22	-155	-16524	-1268	-1436	71	-5	164	-668	2292	17024	170	1	37	126	126	5
-11940	20	10792	-74	125	-186	-16044	-872	-1800	-1	-28	-117	-876	-956	16932	-3	-111	166	-12752	3256	10152	118	-6	-149	-16560	-1184	-1332	64	-10	127	-696	2288	16992	133	-3	37	126	127	5
-11816	64	10760	-113	130	-189	-16160	-860	-1880	-2	-44	-116	-904	-984	16916	10	-136	209	-12768	3248	10296	79	-20	-141	-16500	-1236	-1416	88	-13	124	-688	2240	16972	134	39	39	126	127	5
-11956	40	10876	-98	135	-193	-16048	-908	-1784	16	-74	-118	-868	-956	16960	7	-123	198	-12780	3308	10264	116	-1	-168	-16528	-1204	-1472	33	-50	151	-680	2268	17108	112	-9	11	126	127	5
-11912	88	10784	-127	132	-202	-16060	-920	-1736	-22	-38	-67	-868	-944	16916	-15	-140	195	-12740	3264	10332	85	-66	-137	-16532	-1136	-1384	49	-46	121	-660	2244	16980	178	36	32	126	127	5
-11928	12	10712	-152	141	-210	-16100	-912	-1816	-34	-44	-97	-840	-1004	16920	-25	-157	189	-12788	3192	10272	100	-32	-157	-16508	-1232	-1392	42	-74	121	-680	2212	17000	182	15	51	126	126	5
-11900	-8	10772	-96	132	-193	-16060	-976	-1720	-28	-55	-113	-880	-988	16868	-7	-120	184	-12708	3232	10332	104	-1	-155	-16536	-1236	-1340	104	-66	131	-604	2156	17112	166	-6	88	126	127	5
-11876	-44	10804	-105	113	-219	-16008	-964	-1720	-18	-43	-132	-800	-1048	16968	18	-139	188	-12764	3292	10216	96	-34	-113	-16528	-1248	-1260	105	-59	155	-612	2176	17072	168	-35	54	126	126	5
-11852	-24	10712	-83	130	-200	-16072	-932	-1744	6	-76	-96	-800	-972	16940	13	-136	164	-12800	3232	10188	117	-27	-144	-16564	-1192	-1340	99	-37	128	-604	2244	16992	223	15	54	126	126	5
-11904	20	10776	-103	116	-176	-16020	-924	-1668	13	-68	-86	-796	-1008	16940	17	-120	160	-12804	3260	10368	138	-37	-81	-16540	-1216	-1400	87	-19	99	-716	2244	17052	205	5	27	126	127	5
-11868	16	10704	-99	138	-189	-16072	-960	-1812	30	-19	-94	-772	-952	16908	12	-128	171	-12724	3220	10232	108	23	-121	-16596	-1196	-1360	79	-28	162	-528	2180	17108	180	4	22	126	126	5
-11844	60	10752	-90	187	-224	-16108	-868	-1772	4	-30	-96	-764	-988	16940	29	-132	194	-12756	3248	10248	127	-24	-116	-16556	-1228	-1408	20	-23	141	-580	2208	17016	143	36	54	126	127	5
-11864	24	10692	-83	134	-188	-16024	-900	-1680	-19	-21	-93	-728	-1016	16868	37	-89	183	-12800	3244	10232	118	-46	-127	-16524	-1204	-1300	41	31	160	-564	2124	17064	191	0	63	126	126	5
-11900	24	10840	-93	155	-181	-16096	-940	-1804	-32	-20	-53	-748	-960	16908	13	-152	179	-12804	3264	10268	130	16	-163	-16544	-1232	-1388	42	-1	129	-628	2200	17012	232	-28	59	126	126	5
-11880	104	10852	-95	154	-194	-16056	-952	-1732	30	-14	-69	-932	-976	16920	53	-137	185	-12676	3240	10044	126	3	-95	-16536	-1268	-1420	53	-10	149	-704	2256	16976	251	-18	27	126	126	5
-11868	-44	10752	-75	149	-213	-16088	-884	-1852	46	11	-83	-876	-912	16920	36	-132	158	-12760	3248	10300	142	3	-137	-16528	-1144	-1300	66	-18	155	-648	2276	17048	215	6	36	126	126	5
-11916	40	10844	-80	152	-216	-16124	-896	-1824	42	-2	-83	-864	-964	16880	42	-100	135	-12720	3220	10216	99	-9	-159	-16572	-1204	-1376	42	6	127	-608	2244	17004	167	-19	15	126	127	5
-11900	-8	10796	-95	119	-199	-16096	-916	-1788	15	-29	-73	-872	-996	16924	56	-114	138	-12808	3232	10216	103	4	-140	-16560	-1244	-1376	55	-32	133	-644	2200	16944	185	-15	38	126	127	5
-11880	28	10728	-101	149	-210	-16068	-824	-1844	48	2	-91	-876	-972	16856	42	-145	150	-12784	3196	10172	112	-27	-129	-16576	-1220	-1380	72	-32	167	-676	2248	16956	188	-10	17	126	127	5
-11872	8	10784	-46	164	-207	-16080	-896	-1700	-1	16	-48	-908	-888	16940	46	-117	156	-12768	3292	10256	97	-18	-116	-16540	-1196	-1480	54	23	138	-648	2268	16932	195	0	20	126	126	5
-11868	4	10772	-92	133	-185	-16096	-872	-1796	45	-14	-60	-884	-972	16824	5	-119	139	-12708	3272	10160	121	-21	-130	-16500	-1240	-1348	50	-27	142	-644	2196	17052	170	16	28	126	127	5
-11872	0	10796	-117	152	-203	-16052	-928	-1756	50	-24	-108	-836	-956	16976	16	-121	155	-12788	3200	10224	125	-9	-136	-16536	-1112	-1356	62	-25	137	-532	2264	17032	128	-1	39	126	126	5
-11916	-40	10644	-77	144	-196	-16100	-908	-1908	-11	-17	-106	-876	-924	16920	-18	-115	153	-12768	3260	10172	117	-33	-129	-16540	-1224	-1316	60	-28	153	-632	2232	17032	134	-22	54	126	127	5
-11844	36	10860	-73	149	-202	-16104	-900	-1752	6	-36	-70	-852	-940	16968	37	-132	176	-12748	3220	10252	122	-43	-132	-16476	-1220	-1452	97	-74	133	-664	2200	17044	150	4	61	126	127	5
-11964	-4	10828	-91	141	-217	-16076	-912	-1860	14	-17	-50	-840	-1036	16936	8	-136	129	-12736	3280	10344	94	8	-144	-16524	-1216	-1344	91	-31	122	-652	2176	17000	189	8	46	126	127	5
-11884	80	10748	-102	118	-169	-16036	-964	-1852	37	-21	-104	-908	-984	16884	6	-126	158	-12720	3228	10232	96	-21	-123	-16528	-1236	-1320	93	-62	152	-704	2192	17028	194	1	23	126	127	5
-11884	20	10784	-67	109	-198	-16028	-944	-1680	33	-4	-123	-844	-1060	16896	7	-121	189	-12772	3240	10272	95	-22	-127	-16596	-1236	-1220	80	-36	151	-648	2176	16948	182	-36	45	126	127	5
-11948	-20	10832	-95	128	-212	-16060	-932	-1660	31	-47	-63	-800	-1064	16988	0	-106	164	-12772	3256	10168	143	-20	-118	-16548	-1208	-1320	37	-32	140	-680	2212	16944	194	-39	30	126	127	5
-11900	84	10752	-83	138	-198	-16048	-952	-1832	33	-52	-72	-868	-1044	16960	13	-85	152	-12792	3208	10396	135	-24	-158	-16540	-1192	-1444	35	-14	125	-656	2204	16892	170	27	43	125	126	5
-11828	16	10748	-70	161	-185	-16076	-924	-1696	-6	-20	-88	-848	-972	16932	-3	-104	188	-12756	3284	10272	107	-12	-132	-16500	-1212	-1340	51	-17	124	-716	2220	17036	159	-32	41	126	127	5
-11836	64	10784	-97	129	-229	-16052	-920	-1760	19	-37	-91	-800	-1032	16924	16	-144	156	-12756	3208	10232	119	-23	-157	-16540	-1216	-1232	56	-84	167	-596	2164	17012	177	45	64	126	127	5
-11908	4	10828	-69	139	-192	-16044	-928	-1716	37	-19	-67	-832	-988	16924	65	-141	184	-12768	3200	10272	135	-40	-152	-16508	-1256	-1232	107	-37	196	-616	2128	16968	231	-14	46	126	126	5
-11876	-8	10752	-111	129	-197	-16080	-944	-1764	6	-43	-54	-836	-992	17060	56	-111	187	-12736	3256	10320	133	-47	-129	-16524	-1184	-1324	98	-29	151	-664	2176	17068	260	-34	40	126	127	5
-11920	-8	10904	-87	122	-205	-16068	-912	-1784	-27	-18	-46	-800	-988	17072	55	-138	173	-12752	3232	10240	136	-8	-112	-16524	-1184	-1312	67	-38	176	-672	2192	17000	211	11	39	126	127	5
-11908	28	10804	-54	101	-215	-16092	-928	-1720	5	-15	-79	-844	-864	16944	31	-109	137	-12736	3196	10256	119	15	-109	-16508	-1256	-1396	25	-6	147	-672	2208	17060	198	3	30	126	127	5
-11916	20	10744	-60	167	-186	-16068	-900	-1800	53	20	-68	-864	-928	16972	51	-101	146	-12812	3216	10296	116	-52	-127	-16528	-1160	-1348	59	11	143	-576	2228	17072	202	16	1	126	127	5
-11912	104	10832	-102	131	-198	-16008	-936	-1732	36	6	-64	-828	-920	16944	6	-119	155	-12800	3268	10168	121	-31	-149	-16584	-1216	-1392	63	2	127	-548	2216	16964	183	-17	17	126	127	5
-11880	56	10772	-80	163	-232	-16088	-884	-1776	23	-30	-121	-852	-920	16860	-10	-106	189	-12808	3240	10332	121	-50	-132	-16584	-1172	-1324	66	-2	137	-612	2292	16956	200	-8	50	126	126	5
-11924	0	10876	-110	143	-190	-16144	-888	-1768	37	10	-109	-900	-968	16964	12	-138	192	-12776	3252	10160	121	-25	-134	-16624	-1132	-1252	51	-15	156	-656	2232	17016	222	34	52	126	126	5
-11916	-4	10768	-62	158	-174	-16172	-948	-1708	-29	-17	-106	-860	-936	16904	1	-132	179	-12800	3244	10328	110	1	-184	-16536	-1208	-1248	81	-45	149	-648	2296	16992	197	-18	33	126	126	5
-11928	8	10872	-90	154	-207	-16116	-972	-1672	26	-21	-84	-812	-1032	16824	4	-120	159	-12784	3272	10168	130	-46	-138	-16528	-1268	-1352	75	-14	150	-652	2328	17068	123	3	37	126	126	5
-11880	24	10872	-60	147	-201	-16044	-1032	-1728	38	5	-89	-852	-1024	16932	1	-115	161	-12768	3268	10308	177	-27	-158	-16544	-1248	-1280	78	-22	124	-656	2228	17148	138	4	57	126	126	5
-11884	-12	10768	-44	140	-199	-16100	-944	-1712	88	-8	-116	-872	-948	16880	8	-130	141	-12848	3264	10316	147	-37	-122	-16536	-1172	-1320	68	-39	138	-672	2196	16936	129	-32	71	126	127	5
-11852	44	10824	-88	175	-214	-16096	-912	-1804	51	13	-71	-828	-980	16908	-33	-110	163	-12768	3300	10188	145	-67	-134	-16516	-1136	-1444	52	-55	142	-604	2236	16960	186	-21	63	126	126	5
-11868	-4	10804	-62	162	-194	-16084	-916	-1812	5	-29	-65	-880	-1036	16940	23	-120	139	-12760	3248	10220	153	-92	-127	-16472	-1196	-1356	27	-25	116	-740	2260	17104	169	-18	33	126	126	5
-11916	64	10840	-94	145	-158	-16092	-896	-1748	-18	35	-48	-928	-996	16940	26	-103	143	-12792	3272	10280	141	-37	-117	-16564	-1176	-1440	52	-48	152	-632	2204	17124	205	-27	39	126	126	5
-11944	24	10852	-93	119	-188	-16036	-936	-1796	-44	-42	-81	-888	-1020	16936	41	-135	139	-12748	3272	10328	165	-91	-133	-16500	-1244	-1432	46	-40	140	-652	2168	17096	201	1	52	126	126	5
-11888	-24	10684	-95	121	-189	-16064	-924	-1820	25	-33	-59	-828	-1008	16964	36	-93	161	-12740	3248	10116	102	-22	-145	-16492	-1196	-1456	68	-29	191	-676	2204	17116	190	-32	25	126	126	5
-11876	40	10680	-110	134	-191	-16124	-952	-1656	24	-33	-69	-852	-976	16908	35	-94	188	-12760	3220	10272	90	-31	-127	-16512	-1216	-1352	109	-33	168	-684	2216	16976	189	-2	39	127	126	5
-11904	40	10752	-124	124	-190	-16076	-904	-1688	48	-28	-99	-832	-964	16964	74	-137	139	-12780	3192	10220	104	-59	-112	-16560	-1204	-1324	115	-42	185	-712	2208	17036	196	-20	31	126	126	5
-11888	20	10864	-103	95	-174	-16068	-936	-1792	44	-62	-62	-844	-920	16908	34	-131	169	-12784	3248	10156	99	-33	-134	-16556	-1216	-1276	67	-38	194	-568	2152	16972	214	6	16	126	126	5
-11892	-20	10860	-92	122	-216	-16048	-924	-1752	22	-14	-55	-800	-900	17000	44	-122	131	-12700	3276	10196	105	-15	-136	-16584	-1232	-1300	61	-38	160	-588	2212	17008	192	-19	6	126	127	5
-11876	-24	10772	-104	126	-168	-16088	-896	-1760	24	-17	-67	-788	-924	16944	12	-111	153	-12796	3236	10204	100	-73	-135	-16488	-1272	-1392	52	-38	155	-616	2240	17040	211	-2	32	126	126	5
-11884	0	10764	-85	146	-198	-16040	-944	-1776	12	10	-83	-824	-1008	16920	22	-133	151	-12732	3212	10320	93	14	-140	-16612	-1204	-1288	50	-24	157	-648	2284	16984	198	-6	26	126	126	5
-11868	52	10736	-65	104	-199	-16068	-928	-1680	-7	-22	-41	-792	-952	16856	16	-110	169	-12768	3296	10264	78	-10	-157	-16528	-1140	-1268	92	-13	129	-588	2268	16956	160	-24	23	125	126	5
-11896	60	10720	-73	151	-197	-16048	-904	-1780	31	-48	-56	-820	-952	16940	44	-102	154	-12780	3240	10268	130	-26	-152	-16564	-1196	-1264	58	-9	126	-596	2264	17076	135	-33	69	126	126	5
-11932	36	10804	-117	106	-195	-16084	-948	-1760	34	-28	-70	-848	-984	16824	-9	-96	144	-12796	3212	10324	111	-7	-116	-16520	-1180	-1264	105	7	115	-564	2228	17040	177	-6	70	126	126	5
-11888	-16	10860	-109	139	-170	-16068	-868	-1756	12	8	-56	-848	-1016	16924	31	-133	150	-12748	3252	10172	118	-18	-155	-16524	-1164	-1304	52	6	123	-556	2164	16916	175	-29	51	126	126	5
-11876	20	10724	-66	150	-242	-16108	-928	-1720	44	9	-75	-848	-964	16880	18	-127	182	-12776	3220	10244	135	0	-162	-16540	-1244	-1356	58	-26	122	-636	2196	17072	190	-4	54	126	126	5
-11884	-8	10804	-116	160	-191	-16096	-848	-1772	43	-11	-52	-820	-924	16980	25	-120	168	-12776	3216	10184	112	11	-155	-16536	-1228	-1364	28	-15	143	-648	2176	16988	193	3	44	126	126	5
-11908	44	10784	-83	152	-209	-16176	-952	-1712	-3	-26	-96	-848	-944	17008	22	-83	181	-12768	3256	10204	106	-11	-141	-16548	-1208	-1332	63	-4	86	-688	2212	16976	117	25	25	126	126	5
-11876	68	10780	-77	162	-179	-16132	-948	-1820	-4	-30	-107	-896	-964	16816	35	-137	192	-12784	3248	10212	115	-34	-161	-16540	-1232	-1400	68	-9	118	-652	2164	16884	144	-13	49	126	126	5
-11892	40	10776	-113	138	-192	-16056	-956	-1772	-24	-7	-65	-876	-988	16900	-19	-123	169	-12748	3264	10192	122	-10	-164	-16584	-1200	-1328	76	-34	131	-596	2208	17032	176	-15	37	126	126	5
-11916	-12	10700	-74	126	-198	-16048	-956	-1740	4	-42	-125	-844	-976	16952	0	-129	143	-12796	3216	10224	94	1	-161	-16520	-1240	-1460	63	-17	150	-640	2176	16952	178	21	47	126	126	5
-11896	-32	10760	-57	178	-183	-16168	-1020	-1700	24	-10	-69	-860	-1008	16956	44	-96	184	-12720	3248	10172	143	-30	-119	-16524	-1212	-1500	108	-12	133	-624	2168	16976	232	-17	32	126	126	5
-11832	28	10868	-75	126	-168	-16108	-968	-1676	61	-24	-74	-824	-988	16920	27	-107	152	-12752	3192	10252	114	-34	-127	-16548	-1200	-1308	62	-46	150	-660	2232	17036	187	-6	40	126	126	5
