#Activity	standing 
#ActivityID	8 
#Date 09-27-15-52
acc_rf_x	acc_rf_y	acc_rf_z	gyro_rf_x	gyro_rf_y	gyro_rf_z	acc_rs_x	acc_rs_y	acc_rs_z	gyro_rs_x	gyro_rs_y	gyro_rs_z	acc_rt_x	acc_rt_y	acc_rt_z	gyro_rt_x	gyro_rt_y	gyro_rt_z	acc_lf_x	acc_lf_y	acc_lf_z	gyro_lf_x	gyro_lf_y	gyro_lf_z	acc_ls_x	acc_ls_y	acc_ls_z	gyro_ls_x	gyro_ls_y	gyro_ls_z	acc_lt_x	acc_lt_y	acc_lt_z	gyro_lt_x	gyro_lt_y	gyro_lt_z	EMG_r	EMG_l	act
-8664	-2932	14008	106	-39	-126	-15692	2172	-3828	-103	-70	-46	-16320	-892	760	-6	-178	202	-7732	4060	13396	-91	145	-216	-16208	-260	-3932	66	45	145	-16064	376	936	-47	-250	-205	127	128	8
-8636	-2928	14080	142	-21	-129	-15620	2176	-4188	-31	-43	-48	-16260	-864	580	-45	-307	192	-7720	4068	13384	-78	153	-202	-16208	-196	-4056	-37	-14	164	-16492	372	1024	-157	-60	-200	128	127	8
-8688	-2972	13948	125	-19	-115	-15668	2280	-4256	-139	-97	-77	-16292	-812	492	-49	-201	229	-7776	4068	13424	-72	175	-232	-16276	-352	-4196	9	-59	153	-16460	216	844	-22	-10	-247	124	128	8
-8732	-2976	14076	121	-72	-146	-15752	2268	-4220	-119	-129	-35	-16352	-808	504	-8	-214	228	-7788	4056	13432	-60	138	-213	-16076	-200	-4140	178	-92	158	-16448	128	640	-64	-147	-238	128	127	8
-8724	-2924	13936	112	-59	-155	-15640	2352	-4032	-65	-147	-48	-16300	-728	660	20	-199	200	-7768	4080	13320	-78	167	-206	-16216	-220	-4132	137	-88	190	-16348	348	984	-43	-134	-163	128	127	8
-8736	-2936	13992	133	-53	-169	-15652	2208	-4076	-156	-125	-41	-16292	-840	796	-14	-215	245	-7784	4132	13420	-84	127	-153	-16104	-240	-3944	123	-99	142	-16228	396	1060	104	-193	-73	121	127	8
-8664	-2984	14016	87	-14	-167	-15680	2188	-3924	-98	-96	-14	-16260	-880	848	35	-199	239	-7804	4124	13416	-70	149	-189	-16068	-208	-3956	123	-76	141	-16236	356	1108	215	-182	16	126	127	8
-8672	-2928	14012	139	-53	-160	-15668	2204	-3920	-109	-78	8	-16352	-944	760	-12	-232	222	-7760	4108	13364	-67	118	-195	-16188	-224	-3916	-2	-24	137	-16228	288	1044	301	-114	108	125	127	8
-8596	-2968	14072	153	-79	-116	-15628	2224	-4040	34	-41	-20	-16260	-792	672	39	-175	208	-7792	4076	13328	-40	152	-216	-16156	-212	-4104	-111	-41	126	-16328	300	928	486	-26	103	128	127	8
-8672	-2864	14016	172	-81	-158	-15620	2352	-4080	-41	-45	-17	-16328	-636	544	-11	-179	239	-7768	4072	13392	-60	163	-191	-16208	-224	-3972	-62	-64	124	-16348	268	852	573	90	66	127	127	8
-8688	-2884	13944	119	-76	-153	-15688	2256	-4116	-146	-100	-23	-16344	-744	576	-116	-214	243	-7800	4044	13344	-81	154	-194	-16188	-104	-4096	-70	-86	124	-16496	292	1016	534	180	132	128	127	8
-8680	-2904	14084	119	-65	-138	-15708	2216	-3996	-93	-139	-9	-16296	-840	796	-121	-226	245	-7736	4140	13388	-76	170	-196	-16132	-168	-3952	-52	-72	93	-16524	312	1072	281	90	141	131	127	8
-8720	-2996	14024	76	-52	-164	-15708	2228	-3940	-166	-129	-25	-16328	-868	688	-55	-184	239	-7812	4048	13316	-118	140	-212	-16116	-264	-3832	96	-64	146	-16472	260	1296	350	-86	65	126	127	8
-8696	-2952	13980	104	16	-140	-15680	2180	-4024	-166	-141	-90	-16272	-928	720	-45	-160	221	-7796	4120	13316	-101	116	-230	-16108	-184	-3860	55	-21	169	-16380	316	1060	123	-143	5	126	127	8
-8640	-2992	13940	98	17	-119	-15632	2212	-4016	-109	-87	-27	-16332	-852	872	4	-113	219	-7800	4064	13372	-87	133	-246	-16200	-248	-4008	10	21	177	-16400	360	1096	146	-116	22	128	127	8
-8640	-3036	14008	130	-19	-166	-15680	2344	-4008	-68	-143	-26	-16312	-796	892	-11	-203	223	-7768	4016	13480	-73	132	-217	-16204	-164	-4008	-41	-6	161	-16284	312	1020	223	-109	70	126	127	8
-8696	-2952	13916	103	-68	-148	-15748	2200	-3980	-51	-118	-64	-16272	-868	912	74	-235	227	-7768	4140	13364	-60	167	-221	-16192	-196	-4140	-51	-24	126	-16448	320	900	316	36	48	125	128	8
-8596	-2876	13952	121	-25	-156	-15672	2272	-3888	-84	-159	-34	-16224	-832	736	30	-155	226	-7824	4060	13456	-94	135	-244	-16164	-216	-4084	2	-75	128	-16468	124	940	193	184	7	127	127	8
-8684	-2908	14048	104	-32	-163	-15684	2212	-4048	-88	-107	-43	-16236	-824	764	35	-180	228	-7784	4148	13372	-80	165	-204	-16244	-168	-4092	93	-117	161	-16384	248	1020	192	43	-7	126	126	8
-8648	-2984	14044	74	12	-133	-15688	2180	-3972	-132	-128	-47	-16312	-880	816	-69	-111	259	-7808	4116	13304	-84	145	-189	-16112	-248	-3988	169	-112	154	-16380	308	1100	138	-34	-2	121	127	8
-8668	-2968	14056	75	61	-132	-15660	2192	-4064	-34	-112	-33	-16360	-840	616	48	-87	256	-7848	4112	13444	-124	121	-196	-16192	-164	-3928	82	-83	155	-16284	516	1188	187	-119	46	127	127	8
-8708	-2936	14076	23	-14	-143	-15644	2232	-4048	-66	-76	1	-16320	-868	892	133	-102	253	-7800	4116	13388	-120	143	-204	-16092	-156	-3976	-8	20	168	-16352	396	1136	208	-108	91	126	127	8
-8656	-2968	13952	80	-63	-172	-15708	2204	-3756	40	-49	-21	-16332	-848	784	180	-75	272	-7784	4088	13468	-112	153	-223	-16192	-240	-4040	52	13	96	-16452	264	916	121	2	60	126	128	8
-8652	-2940	14052	207	4	-155	-15656	2232	-3980	-61	-27	-27	-16268	-684	828	157	-101	225	-7768	4016	13404	-98	134	-208	-16236	-300	-4232	52	-8	140	-16420	168	836	282	110	-22	125	127	8
-8704	-2996	13880	191	-11	-205	-15616	2128	-4096	457	-46	66	-16196	-960	920	97	-204	187	-7816	4112	13280	-40	196	-193	-16140	-168	-4124	57	-77	136	-16388	296	824	342	93	-11	125	127	8
-8648	-2920	13900	87	-34	-301	-15640	2192	-3912	648	-2	65	-16332	-812	768	162	-170	177	-7796	4052	13364	-34	142	-235	-16156	-304	-4008	131	-105	151	-16316	352	1108	358	68	0	124	127	8
-8716	-2944	13904	122	1	-265	-15648	2304	-4032	356	24	24	-16332	-744	716	10	-160	265	-7768	4068	13356	-26	107	-192	-16084	-148	-3824	104	-66	159	-16320	412	1260	281	24	81	125	128	8
-8708	-3008	13928	169	-81	-201	-15688	2232	-3940	173	11	14	-16288	-776	664	-27	-141	218	-7784	4156	13432	-62	129	-215	-16112	-148	-3780	31	-1	149	-16424	360	1240	259	-29	106	126	127	8
-8712	-2952	13920	162	-52	-194	-15648	2248	-4056	146	-34	-32	-16228	-840	836	42	-184	212	-7780	4052	13468	-91	125	-258	-16176	-264	-3928	192	17	157	-16308	360	1100	410	-52	114	123	128	8
-8696	-3008	13996	152	-103	-161	-15684	2316	-3968	41	40	-23	-16336	-764	708	48	-166	217	-7776	4136	13424	-69	136	-221	-16188	-208	-4036	54	38	104	-16432	332	988	415	-45	73	123	127	8
-8680	-2952	13920	152	-89	-89	-15704	2220	-3984	-17	5	-42	-16308	-708	732	65	-128	199	-7832	4088	13372	-82	172	-204	-16300	-304	-4104	22	10	121	-16440	272	760	371	36	50	125	127	8
-8668	-3000	14128	161	-113	-79	-15704	2288	-4000	-143	6	-57	-16316	-748	472	12	-95	225	-7844	4132	13372	-83	147	-228	-16192	-160	-4056	106	-45	137	-16372	284	868	376	132	15	132	127	8
-8744	-2944	14024	179	-141	-120	-15640	2224	-4108	-162	-44	-55	-16332	-768	452	-31	-72	231	-7808	4128	13360	-77	179	-224	-16192	-124	-4096	81	-39	136	-16408	424	1036	276	132	72	128	127	8
-8696	-2840	14040	203	-151	-94	-15664	2240	-4148	-156	-50	-44	-16340	-788	620	-57	-69	256	-7800	4160	13396	-99	136	-230	-16176	-256	-3944	129	-41	80	-16524	440	1148	232	16	89	126	127	8
-8748	-2936	14032	149	-103	-141	-15648	2236	-3976	-216	-52	0	-16284	-876	760	28	-118	219	-7748	4096	13332	-100	156	-258	-16068	-264	-3956	106	72	98	-16324	336	1176	256	-80	109	126	127	8
-8700	-2904	14012	132	-122	-132	-15620	2204	-3940	-138	-31	-70	-16276	-832	1016	-101	-165	241	-7728	4072	13388	-124	152	-266	-16176	-188	-3980	-53	77	112	-16296	364	992	386	-76	120	125	127	8
-8632	-3012	13936	138	-114	-137	-15640	2256	-3888	-98	36	-45	-16260	-804	1004	-62	-170	174	-7812	4088	13356	-80	168	-239	-16188	-208	-4236	-77	60	112	-16272	312	760	513	42	168	126	127	8
-8644	-2896	14044	144	-75	-120	-15692	2220	-4136	-57	37	-46	-16292	-816	720	-106	-198	195	-7828	4052	13428	-75	182	-233	-16116	-276	-4272	-11	-40	109	-16364	312	764	415	219	171	131	127	8
-8756	-2952	13984	132	-38	-161	-15660	2244	-4104	-121	40	-37	-16304	-876	384	-41	-52	223	-7856	4072	13292	-84	119	-214	-16168	-132	-4116	131	-112	113	-16588	304	964	124	357	109	122	127	8
-8696	-2940	14000	161	-114	-148	-15724	2228	-4156	16	-36	-27	-16320	-884	652	94	-22	177	-7800	4140	13300	-118	114	-206	-16196	-208	-4016	155	-71	95	-16580	376	1080	279	75	14	126	127	8
-8644	-2952	13976	140	-91	-166	-15648	2196	-3948	-99	-41	-28	-16376	-852	736	29	-43	265	-7772	4116	13336	-76	116	-237	-16108	-260	-3860	173	-55	131	-16396	392	1196	373	-40	27	128	127	8
-8652	-2876	13996	116	-64	-141	-15716	2116	-3956	58	-44	-8	-16280	-812	1052	128	-121	218	-7708	4140	13372	-79	136	-229	-16112	-192	-3852	141	12	142	-16292	344	1164	406	-88	61	125	127	8
-8728	-2940	13964	108	-93	-147	-15604	2224	-3836	82	-1	-37	-16300	-800	1100	35	-117	222	-7716	4112	13328	-94	141	-248	-16224	-284	-3928	94	55	141	-16336	344	1048	320	23	89	128	127	8
-8648	-2932	13960	144	-32	-151	-15684	2276	-3960	98	47	-16	-16376	-832	636	-15	-91	232	-7808	4044	13436	-48	185	-222	-16164	-188	-4132	16	23	115	-16276	312	892	412	100	85	124	127	8
-8704	-3052	13928	141	-85	-117	-15672	2212	-4248	82	8	-13	-16288	-812	568	80	-80	185	-7808	4080	13436	-88	175	-230	-16228	-144	-4136	11	8	133	-16384	420	736	406	184	114	128	127	8
-8664	-2940	14000	121	-24	-115	-15676	2216	-4152	-13	-21	-6	-16352	-864	420	156	-56	204	-7816	4136	13412	-31	163	-179	-16156	-152	-4144	33	-33	102	-16396	460	880	365	266	139	124	127	8
-8648	-2884	14024	148	-45	-169	-15712	2252	-4072	39	-85	-16	-16428	-776	716	46	-65	238	-7832	4032	13480	-74	125	-214	-16096	-184	-4044	96	-81	105	-16484	468	876	371	258	141	125	127	8
-8688	-2876	13904	147	-99	-151	-15704	2240	-4084	3	-67	-2	-16372	-732	908	-108	-165	258	-7796	4100	13412	-126	163	-256	-16100	-244	-3912	94	36	92	-16380	384	1116	353	79	116	127	127	8
-8500	-3060	13956	155	-53	-161	-15704	2280	-3960	-62	-20	-62	-16244	-788	844	-162	-200	250	-7720	4124	13324	-120	136	-245	-16224	-344	-3892	67	25	161	-16420	360	1056	415	-30	92	129	127	8
-8612	-2972	13996	96	-10	-142	-15732	2188	-4024	-78	15	-36	-16296	-832	588	-127	-136	252	-7816	4108	13452	-73	182	-213	-16152	-236	-4040	3	40	150	-16364	396	1004	501	-17	88	127	127	8
-8688	-2984	13968	152	-20	-120	-15664	2232	-4284	11	-73	-45	-16320	-792	380	57	-98	216	-7744	4100	13376	-54	131	-234	-16184	-192	-4096	7	23	139	-16364	388	820	395	143	143	125	127	8
-8712	-2928	14008	116	-52	-146	-15572	2340	-4352	-98	-104	-2	-16308	-832	500	1	-84	275	-7748	4108	13432	-88	135	-221	-16160	-128	-4208	-13	-8	130	-16480	304	756	162	246	207	128	127	8
-8660	-3008	14024	113	-46	-162	-15700	2220	-4056	-47	-129	-7	-16316	-800	716	82	-78	236	-7784	4080	13424	-80	166	-181	-16132	-276	-4196	59	-40	158	-16468	332	624	154	251	180	123	127	8
-8748	-2900	13952	110	-74	-106	-15672	2308	-3900	47	-89	-13	-16272	-840	1048	26	-118	247	-7744	4120	13392	-66	168	-192	-16128	-276	-4004	182	-51	141	-16328	348	980	395	147	139	131	127	8
-8692	-2924	13976	133	-21	-166	-15652	2224	-3904	-16	-6	-34	-16256	-812	1176	-5	-120	285	-7768	4140	13376	-97	125	-173	-16132	-196	-3876	127	-67	176	-16432	516	1180	255	47	139	125	127	8
-8652	-3056	14032	149	-28	-142	-15644	2208	-4000	139	35	19	-16232	-888	576	24	-157	193	-7700	4140	13436	-75	125	-191	-16156	-200	-3972	82	-14	130	-16460	476	1156	177	-70	103	125	127	8
-8620	-2960	13940	153	-85	-124	-15688	2268	-4156	20	-70	-4	-16320	-848	492	53	-80	224	-7764	4220	13340	-108	174	-250	-16200	-144	-3992	6	32	146	-16368	440	976	267	-6	104	127	127	8
-8696	-2912	13996	144	-68	-182	-15568	2284	-4192	-95	-67	19	-16312	-848	648	64	-122	263	-7788	4076	13296	-80	180	-193	-16212	-188	-4188	29	-10	99	-16344	380	700	238	92	143	128	127	8
-8740	-2880	13912	135	-59	-126	-15748	2256	-3920	-41	-67	-10	-16380	-756	780	72	-159	236	-7836	4112	13468	-97	164	-199	-16216	-248	-4184	46	-72	163	-16404	448	772	176	241	81	128	127	8
-8696	-2932	13984	94	-38	-130	-15660	2320	-3912	11	-21	-17	-16304	-756	1020	-3	-156	214	-7864	4092	13320	-91	173	-236	-16120	-224	-3996	83	-76	120	-16452	368	872	197	142	58	125	127	8
-8624	-2972	13968	138	-69	-160	-15660	2196	-3916	-22	3	3	-16272	-832	976	-90	-169	240	-7776	4092	13428	-76	133	-213	-16128	-260	-3936	136	-81	169	-16264	576	1092	245	132	60	126	127	8
-8668	-2864	14040	137	-19	-108	-15720	2140	-4068	-18	46	-26	-16252	-808	752	-79	-171	233	-7816	4144	13280	-57	110	-220	-16092	-200	-3904	136	-69	140	-16336	524	1128	305	79	74	129	127	8
-8732	-2880	13996	115	-106	-132	-15688	2232	-4132	15	69	21	-16316	-808	436	-14	-89	245	-7780	4096	13296	-88	99	-196	-16148	-124	-3712	-1	45	140	-16332	488	1112	290	-25	157	122	127	8
-8648	-2884	13960	157	-18	-123	-15652	2328	-4236	34	17	16	-16296	-760	560	-94	-96	246	-7772	4084	13464	-59	154	-233	-16220	-260	-3940	3	52	174	-16404	392	932	383	13	161	126	127	8
-8644	-2888	13908	111	-45	-123	-15660	2304	-4104	82	6	-39	-16396	-764	616	32	-116	232	-7796	4144	13328	-85	170	-248	-16248	-156	-4276	39	57	173	-16388	464	704	400	100	182	123	127	8
-8728	-2936	13932	83	-21	-161	-15640	2368	-4108	58	-4	-30	-16320	-760	832	60	-118	247	-7792	4120	13320	-41	185	-228	-16200	-272	-4248	27	-9	111	-16324	444	600	439	273	192	126	127	8
-8680	-2992	13952	112	-20	-163	-15696	2228	-3988	34	-19	-60	-16244	-788	992	-58	-126	238	-7732	4172	13392	-71	198	-219	-16152	-128	-4080	61	-48	127	-16320	488	752	526	327	208	125	127	8
-8776	-2912	13928	91	-24	-163	-15636	2224	-3968	77	29	-5	-16324	-808	740	-50	-146	223	-7800	4064	13404	-52	147	-228	-16096	-220	-4008	88	-28	151	-16332	500	916	411	270	306	124	127	8
-8704	-2976	13892	134	-10	-122	-15640	2308	-4140	29	34	-25	-16216	-768	548	-110	-83	242	-7788	4092	13404	-107	122	-213	-16148	-248	-3884	66	11	106	-16400	464	988	470	124	273	125	127	8
-8784	-2856	13936	115	-80	-172	-15708	2304	-4236	52	-9	6	-16348	-712	516	10	-103	225	-7812	4112	13388	-78	153	-213	-16160	-236	-3912	75	29	139	-16408	608	984	468	21	290	127	127	8
-8680	-2952	14096	93	-12	-170	-15684	2332	-4064	45	-35	-29	-16332	-736	672	62	-78	237	-7812	4132	13360	-95	153	-226	-16116	-88	-4108	26	46	140	-16352	588	940	466	60	397	127	127	8
-8700	-2988	13992	80	18	-153	-15668	2292	-4084	91	-40	-35	-16376	-812	664	68	-64	265	-7816	4112	13328	-122	141	-212	-16148	-128	-4060	2	52	122	-16340	504	916	275	240	379	126	127	8
-8668	-2904	13952	124	-68	-181	-15620	2288	-4032	60	-51	-13	-16252	-704	752	140	-89	244	-7792	4116	13344	-85	160	-246	-16216	-224	-4116	-39	-11	96	-16508	464	736	257	214	278	127	127	8
-8652	-2956	14052	111	-5	-121	-15724	2276	-4004	70	-41	-8	-16324	-776	856	-79	-97	238	-7724	4156	13392	-90	155	-228	-16152	-316	-4160	100	-51	133	-16444	396	844	367	113	251	129	127	8
-8680	-2908	14008	127	-54	-146	-15668	2300	-4056	55	-34	-33	-16300	-676	772	-103	-79	231	-7792	4104	13432	-80	190	-179	-16208	-200	-4064	146	19	121	-16348	488	896	300	150	249	125	127	8
-8656	-2924	13908	91	22	-157	-15680	2284	-4104	166	-14	-2	-16304	-704	408	-116	-45	235	-7796	4096	13336	-129	164	-198	-16192	-196	-3976	92	20	132	-16484	640	876	221	80	256	122	127	8
-8736	-2956	13948	98	18	-104	-15596	2228	-4276	161	-63	-34	-16240	-748	444	-11	-61	284	-7792	4124	13408	-107	148	-245	-16196	-88	-4028	94	64	138	-16396	652	988	245	4	254	129	127	8
-8736	-2964	14116	104	-32	-133	-15676	2260	-4076	37	-164	-84	-16280	-716	448	51	38	267	-7764	4100	13352	-76	154	-245	-16232	-192	-4064	92	87	119	-16392	552	808	227	2	247	128	127	8
-8740	-2876	14032	96	-11	-109	-15688	2204	-4268	-10	-164	-48	-16400	-816	720	69	-31	267	-7812	4108	13404	-95	182	-227	-16148	-168	-4164	-38	63	122	-16360	548	708	161	111	173	126	127	8
-8668	-2928	13972	93	-37	-162	-15580	2268	-3836	-2	-112	-26	-16384	-740	880	15	-32	284	-7772	4032	13416	-68	151	-226	-16144	-216	-4208	47	-5	141	-16368	476	592	127	311	136	128	127	8
-8704	-2900	14020	138	-56	-146	-15716	2276	-3936	100	-50	-50	-16236	-748	1044	37	-129	192	-7768	4064	13324	-95	161	-218	-16160	-276	-4172	84	-25	147	-16460	552	712	125	249	78	126	127	8
-8624	-2976	13980	106	-6	-120	-15712	2276	-4020	169	-34	-46	-16296	-716	900	-62	-135	205	-7784	4104	13500	-87	139	-231	-16112	-180	-4032	81	-87	151	-16348	552	848	82	193	72	128	127	8
-8756	-2932	14092	112	-4	-97	-15644	2276	-4064	94	-26	-18	-16216	-784	448	-181	-106	247	-7780	4116	13368	-105	139	-210	-16096	-188	-3860	134	-56	143	-16364	612	884	160	39	119	123	127	8
-8800	-2952	13896	103	-36	-140	-15656	2296	-4180	-33	-22	-50	-16316	-780	460	-153	-48	283	-7768	4152	13420	-93	120	-206	-16192	-216	-3928	81	15	115	-16444	580	980	193	-74	137	125	127	8
-8708	-2952	13924	102	-13	-182	-15628	2184	-4044	60	-50	-72	-16316	-832	504	-39	-107	221	-7832	4096	13316	-97	153	-242	-16216	-260	-4080	89	-7	149	-16388	568	856	213	-29	71	125	127	8
-8700	-3008	14072	114	-41	-130	-15664	2264	-4060	180	-51	-27	-16300	-812	724	65	-56	250	-7792	4100	13460	-91	147	-227	-16160	-236	-4156	35	21	166	-16360	588	808	222	48	90	127	127	8
-8732	-2948	13944	111	-35	-130	-15664	2292	-3976	-27	-42	-35	-16332	-720	740	-1	-89	266	-7764	4112	13488	-67	154	-206	-16208	-240	-4008	26	11	111	-16376	488	732	200	122	77	127	127	8
-8720	-2948	13984	101	19	-128	-15572	2184	-4104	-19	-88	0	-16276	-856	632	66	-61	242	-7764	4060	13404	-83	152	-209	-16112	-196	-4096	97	-10	140	-16304	564	772	160	176	75	125	127	8
-8712	-2976	13916	134	-40	-117	-15656	2224	-4104	69	-53	-19	-16344	-760	620	40	-146	260	-7760	4092	13416	-78	141	-224	-16172	-300	-4080	123	29	159	-16376	616	792	186	190	31	127	127	8
-8696	-2876	13972	123	-16	-108	-15712	2332	-4128	75	-75	9	-16312	-656	516	74	-135	237	-7792	4116	13444	-69	162	-209	-16176	-180	-3992	101	6	170	-16432	648	724	202	50	80	124	127	8
-8724	-2908	13848	99	-50	-138	-15612	2360	-4212	-78	-86	-69	-16228	-764	584	-22	-97	214	-7740	4132	13336	-71	176	-255	-16144	-208	-4120	54	28	132	-16368	772	716	170	56	88	128	127	8
-8716	-2928	13980	122	-57	-108	-15588	2180	-3972	5	-41	-24	-16280	-844	780	34	-130	275	-7744	4192	13440	-98	163	-190	-16120	-176	-4200	14	-3	100	-16336	616	596	133	70	87	125	127	8
-8772	-2968	14008	137	-75	-135	-15668	2164	-3872	2	-19	-15	-16288	-756	884	-35	-154	272	-7768	4112	13296	-103	136	-202	-16124	-220	-4160	117	-55	150	-16424	552	712	160	89	49	125	127	8
-8672	-2972	14088	139	-39	-134	-15664	2220	-3936	-19	-1	-37	-16256	-748	960	-93	-92	250	-7748	4044	13352	-82	166	-218	-16152	-264	-3988	126	-76	158	-16328	664	704	134	133	52	125	127	8
-8696	-2960	13952	167	-28	-91	-15644	2260	-3944	-35	14	6	-16260	-768	584	-58	-136	227	-7804	4192	13352	-55	147	-227	-16212	-148	-4132	-102	-13	184	-16328	616	764	129	100	45	129	127	8
-8624	-2976	13988	134	-1	-116	-15628	2348	-4112	15	33	22	-16276	-788	644	45	-137	216	-7828	4124	13356	-67	181	-194	-16172	-144	-4068	154	-29	135	-16404	764	920	191	137	32	126	127	8
-8652	-2956	14044	144	-40	-169	-15676	2240	-4256	4	34	-20	-16360	-700	384	-10	-76	269	-7800	4144	13408	-73	189	-209	-16168	-124	-3940	20	2	129	-16480	660	948	158	109	38	125	127	8
-8876	-2916	14012	103	-52	-158	-15680	2212	-4208	-23	33	-19	-16252	-812	772	22	-107	254	-7772	3968	13368	-109	160	-265	-16188	-184	-3996	65	37	173	-16408	628	860	226	41	48	126	127	8
-8664	-3004	13980	121	-5	-126	-15676	2288	-3924	32	9	-13	-16344	-700	636	5	-123	287	-7796	4148	13412	-40	170	-224	-16220	-136	-4020	57	8	189	-16388	572	876	198	90	36	126	127	8
-8684	-2904	13936	133	-18	-140	-15628	2264	-3920	19	1	-1	-16392	-684	716	3	-84	250	-7796	4124	13456	-87	167	-206	-16144	-200	-3956	75	72	176	-16384	624	768	183	84	33	126	127	8
-8692	-2908	13948	143	-27	-126	-15644	2252	-4096	55	43	-8	-16216	-748	652	-51	-71	272	-7828	4160	13388	-38	184	-191	-16172	-160	-3972	112	84	129	-16340	644	860	183	30	22	125	127	8
-8716	-2820	14092	153	-4	-124	-15616	2376	-4364	170	37	-12	-16268	-608	384	-93	-37	223	-7732	4116	13372	-55	157	-253	-16204	-152	-3908	63	82	174	-16340	668	748	208	82	20	123	127	8
-8560	-2816	14000	130	-31	-81	-15736	2264	-3924	-131	73	15	-16304	-792	604	-179	-75	279	-7756	4092	13260	-72	180	-274	-16228	-100	-4084	21	115	169	-16368	692	768	189	115	16	124	127	8
-8684	-2952	13872	172	-25	-95	-15672	2184	-4156	5	24	-28	-16260	-736	540	79	-70	228	-7780	4152	13456	-78	195	-265	-16140	-224	-4040	69	99	160	-16448	700	760	184	52	7	127	127	8
-8772	-2968	13988	128	17	-139	-15560	2364	-4208	1	60	-20	-16328	-608	496	-48	-88	273	-7784	4116	13348	-51	178	-254	-16164	-132	-4116	90	66	168	-16408	656	652	190	65	-16	126	127	8
-8704	-2972	13920	105	-41	-127	-15632	2228	-4108	-53	-10	-56	-16356	-692	472	-57	-61	271	-7808	4120	13348	-91	168	-251	-16112	-128	-4048	59	114	160	-16428	600	760	178	93	47	126	127	8
-8700	-2960	13900	115	17	-163	-15580	2256	-4064	-58	-21	10	-16288	-828	576	43	-62	196	-7728	4156	13348	-74	160	-204	-16144	-104	-4060	46	88	143	-16420	692	772	198	54	20	126	127	8
-8736	-2884	14036	116	-22	-136	-15640	2240	-4092	1	17	26	-16324	-872	680	91	-76	211	-7736	4108	13352	-104	156	-215	-16068	-144	-4016	42	98	130	-16368	628	520	205	54	55	118	127	8
-8716	-2996	13888	123	-20	-142	-15580	2272	-4008	63	-9	5	-16280	-672	796	98	-22	252	-7780	4120	13288	-108	151	-241	-16128	-260	-4096	66	95	147	-16400	568	768	207	68	36	124	127	8
-8680	-2896	14076	111	-42	-148	-15628	2320	-4148	96	38	-36	-16256	-700	604	73	-8	250	-7828	4040	13420	-124	143	-234	-16092	-116	-4252	49	56	158	-16348	604	620	182	43	-1	125	127	8
-8716	-2900	13916	113	-10	-159	-15664	2332	-4064	118	26	-33	-16312	-624	512	30	-43	246	-7840	4064	13348	-131	179	-221	-16156	-64	-4220	70	49	118	-16516	748	548	201	121	-26	125	127	8
-8772	-2892	13948	115	-43	-122	-15668	2304	-4268	10	16	-40	-16416	-616	380	39	-53	210	-7836	4148	13380	-83	177	-219	-16168	-112	-4140	71	35	114	-16368	688	664	158	87	-1	124	127	8
-8748	-2940	13928	119	-42	-124	-15620	2324	-4196	-84	-12	-23	-16344	-724	528	-67	5	228	-7800	4100	13336	-81	145	-246	-16152	-112	-4020	123	28	120	-16372	696	884	162	67	27	127	127	8
-8676	-3000	13916	114	-54	-140	-15632	2296	-4256	-122	-13	-20	-16304	-688	680	-19	-51	254	-7784	4056	13372	-95	137	-214	-16168	-140	-4060	57	34	97	-16360	664	716	181	29	17	124	127	8
-8668	-2980	13888	162	-54	-153	-15584	2312	-3956	-55	-10	-7	-16368	-744	620	137	-13	185	-7788	4104	13440	-124	141	-239	-16096	-228	-4128	65	91	115	-16388	652	688	136	30	-33	126	127	8
-8712	-2868	14052	158	-93	-138	-15548	2240	-4020	38	-10	-41	-16228	-680	740	147	30	207	-7788	4100	13284	-82	140	-235	-16204	-60	-4172	96	45	96	-16456	688	604	173	173	-65	126	127	8
-8708	-2920	13968	163	-53	-146	-15724	2372	-4024	17	-4	-60	-16272	-776	848	121	37	240	-7800	4092	13400	-104	136	-225	-16120	-152	-4104	67	11	130	-16556	756	760	30	68	-26	129	127	8
-8684	-2968	13980	103	-46	-111	-15740	2204	-3820	110	68	-23	-16412	-860	788	152	125	227	-7796	4084	13440	-149	118	-259	-16128	-308	-3980	117	103	115	-16444	500	868	163	-44	-38	127	127	8
-8664	-3000	13960	135	2	-124	-15728	2300	-4128	238	100	-28	-16232	-676	456	176	82	205	-7776	4084	13384	-82	177	-240	-16228	-304	-4120	189	105	148	-16416	404	904	395	-52	-100	124	127	8
-8732	-2956	13880	127	35	-147	-15588	2396	-4420	167	14	-15	-16272	-428	124	83	-11	218	-7800	4092	13396	-74	172	-238	-16068	-236	-4184	126	138	145	-16308	384	652	470	-104	-53	129	127	8
-8760	-2864	13920	126	-29	-136	-15604	2376	-4444	-5	-42	-22	-16260	-520	132	-109	-186	271	-7760	4156	13384	-44	206	-219	-16172	-188	-4380	59	39	202	-16356	480	408	476	22	-14	126	127	8
-8756	-2960	13880	140	-48	-156	-15520	2204	-4268	-129	-87	-56	-16252	-652	328	-100	-259	284	-7776	4120	13348	-30	154	-236	-16184	-148	-4556	121	34	164	-16380	588	-24	322	169	48	124	127	8
-8808	-2932	14068	129	-103	-141	-15600	2308	-4120	-200	-117	-94	-16396	-696	412	-98	-400	206	-7832	4076	13396	-53	155	-225	-16144	-44	-4464	105	-74	142	-16548	804	184	54	113	153	126	127	8
-8712	-2968	14060	155	-138	-154	-15712	2320	-4068	-342	-143	-79	-16428	-636	684	-151	-378	178	-7812	4052	13352	-119	116	-192	-16104	-92	-4220	-49	-192	111	-16444	740	348	-108	-14	185	125	127	8
-8708	-2956	14080	114	-84	-133	-15660	2296	-4044	-264	-118	-101	-16292	-672	608	-256	-393	139	-7800	4144	13372	-35	141	-198	-16240	-204	-4184	-37	-176	105	-16376	792	532	-68	-212	60	127	127	8
-8676	-2860	13976	95	-43	-138	-15728	2340	-4196	-117	-160	-101	-16376	-580	468	-314	-354	115	-7760	4100	13372	-62	143	-176	-16084	-172	-4204	-82	-201	145	-16312	624	800	-22	-168	-39	124	127	8
-8756	-2876	13928	73	-113	-182	-15528	2424	-4180	-251	-173	-127	-16284	-680	512	-291	-282	148	-7804	4200	13304	-76	97	-161	-16140	-168	-4060	-102	-195	141	-16264	784	896	-153	-81	3	124	127	8
-8704	-2936	13924	69	-166	-206	-15672	2188	-3872	-189	-133	-144	-16192	-1112	1120	-112	-144	175	-7796	4248	13404	-105	167	-235	-16328	-208	-3968	-85	-147	107	-16532	736	1152	-126	-35	30	124	127	8
-8664	-2960	14052	81	-19	-121	-15844	2072	-3852	190	-60	-58	-16408	-1080	960	173	-51	201	-7820	4260	13372	-115	161	-250	-16196	-160	-3832	55	-58	110	-16532	548	1120	51	35	13	127	127	8
-8688	-2892	13896	96	27	-123	-15560	2384	-4036	36	-40	-45	-16204	-624	688	108	-42	171	-7800	4100	13452	-102	196	-225	-16104	-240	-4020	31	15	125	-16220	340	1024	233	92	-27	126	127	8
-8700	-2884	13916	115	14	-128	-15540	2324	-4220	-15	-25	-58	-16188	-540	400	-99	-199	225	-7800	4012	13356	-56	176	-218	-16040	-324	-3972	63	86	128	-16300	368	968	392	65	-102	126	127	8
-8652	-2936	14064	124	21	-151	-15752	2428	-4188	-110	-60	-70	-16384	-544	176	-233	-279	255	-7824	4096	13388	-90	160	-236	-16132	-188	-4020	229	86	171	-16372	576	668	465	70	-91	127	127	8
-8820	-2856	13884	87	-73	-154	-15536	2364	-4300	-216	-98	-71	-16272	-688	380	-285	-322	282	-7736	4148	13416	-98	146	-224	-16092	-56	-4132	109	136	175	-16408	708	608	403	-27	-23	127	127	8
-8708	-2972	14056	116	-105	-171	-15628	2204	-4164	-213	-133	-62	-16312	-840	492	-161	-240	215	-7792	4148	13440	-57	198	-230	-16224	-176	-4360	101	64	130	-16548	628	248	265	-109	98	128	127	8
-8684	-2960	13896	91	-43	-159	-15648	2212	-4036	-78	-155	-73	-16380	-768	652	26	-298	176	-7892	4044	13400	-92	197	-233	-16140	-188	-4400	110	-54	130	-16380	668	248	129	3	96	128	127	8
-8744	-2920	13936	105	-78	-149	-15548	2428	-4060	-162	-94	-49	-16360	-712	744	20	-163	158	-7888	4184	13304	-64	97	-201	-16032	112	-4264	61	-144	95	-16272	884	320	-166	60	100	126	127	8
-8740	-3016	13984	113	-114	-169	-15752	2120	-3980	-105	-60	-84	-16264	-1020	1052	144	-94	131	-7752	4160	13388	-98	131	-214	-16212	-144	-4180	-35	-145	43	-16496	800	820	-151	-107	26	121	127	8
-8700	-3024	13948	148	-42	-154	-15768	2176	-3928	262	-13	-30	-16464	-884	840	361	88	116	-7744	4152	13340	-126	128	-210	-16212	-168	-3992	97	-110	68	-16484	636	1084	32	-182	-21	123	127	8
-8780	-2852	13876	141	-5	-122	-15544	2332	-4080	174	-8	-24	-16168	-584	596	280	21	160	-7804	4156	13304	-142	145	-249	-16076	-316	-3836	78	26	83	-16268	448	1196	237	-164	-52	126	127	8
-8760	-2888	13908	110	-2	-137	-15576	2352	-4032	78	14	-67	-16180	-464	700	217	5	193	-7780	4160	13360	-96	125	-250	-16204	-260	-3956	103	81	121	-16344	356	1036	400	-53	-127	126	127	8
-8772	-2924	14020	120	-24	-151	-15672	2280	-4176	7	19	-83	-16316	-648	492	-192	-190	234	-7800	4088	13424	-99	166	-267	-16232	-296	-4132	175	26	114	-16476	472	684	498	142	-108	127	127	8
-8796	-2956	13920	112	-65	-154	-15608	2312	-4220	-134	-52	-65	-16288	-776	428	-192	-221	221	-7828	4084	13356	-58	141	-203	-16128	-116	-4280	216	24	125	-16284	672	516	433	249	-50	128	127	8
-8716	-2936	13960	123	-69	-139	-15596	2196	-4084	-95	-13	-69	-16224	-700	568	-71	-244	154	-7816	4060	13380	-70	137	-216	-16164	-88	-4328	116	8	104	-16440	764	388	281	218	16	126	127	8
-8748	-2928	13944	126	-33	-129	-15692	2296	-4164	-62	-13	-108	-16396	-748	556	44	-182	158	-7856	4108	13396	-92	129	-216	-16104	-144	-4304	128	-55	111	-16472	732	436	157	22	99	124	127	8
-8760	-2960	14000	101	-47	-169	-15636	2288	-4096	-7	-6	-41	-16360	-796	716	119	-26	168	-7816	4116	13336	-145	133	-237	-16092	-116	-4052	103	-23	76	-16480	800	556	116	-134	44	126	127	8
-8744	-2920	13988	104	-15	-185	-15720	2232	-4064	120	-14	-62	-16304	-736	640	218	39	201	-7796	4092	13348	-99	165	-268	-16076	-96	-3984	47	-43	92	-16400	736	784	105	-185	23	125	127	8
-8668	-2924	13960	82	5	-165	-15576	2304	-4080	123	-15	-67	-16224	-728	884	221	-41	175	-7756	4112	13324	-75	116	-233	-16124	-140	-4124	-21	23	66	-16292	744	796	98	-68	-17	128	127	8
-8776	-2964	13916	127	-29	-159	-15576	2200	-3868	151	39	-64	-16268	-820	820	173	-21	196	-7848	4088	13336	-111	141	-229	-16136	-224	-4076	25	7	78	-16296	636	752	103	69	-37	125	127	8
-8680	-3008	14040	144	12	-173	-15612	2228	-4084	217	49	-31	-16280	-708	692	44	-104	187	-7848	4000	13316	-112	147	-256	-16140	-292	-4096	-9	52	67	-16328	560	776	107	112	-57	120	127	8
-8688	-2956	13964	121	-17	-135	-15624	2320	-4076	0	89	-57	-16220	-624	368	-63	-139	162	-7856	4060	13368	-94	120	-230	-16092	-368	-4036	159	40	109	-16432	428	860	269	111	-124	125	127	8
-8708	-2932	13972	142	-10	-141	-15652	2312	-4244	-164	57	-31	-16412	-568	92	-198	-204	149	-7764	4100	13376	-103	123	-210	-16176	-156	-3988	114	93	120	-16524	560	844	236	2	-80	122	127	8
-8728	-2884	13952	152	-21	-114	-15660	2392	-4476	-130	-87	-72	-16404	-640	56	-241	-192	221	-7800	4096	13376	-80	157	-214	-16136	-236	-4100	27	131	115	-16444	488	628	269	-67	-5	125	127	8
-8772	-2956	14044	131	-82	-162	-15672	2428	-4468	-119	-150	-96	-16456	-668	120	-161	-170	241	-7752	4112	13412	-65	190	-266	-16260	-160	-4260	62	67	136	-16384	492	424	251	-94	61	123	127	8
-8740	-2972	14100	124	-133	-174	-15632	2276	-4140	-246	-214	-108	-16332	-728	572	-104	-181	229	-7796	4064	13384	-60	228	-218	-16216	-108	-4436	25	-35	134	-16440	612	84	222	-15	37	127	127	8
-8672	-2948	13920	80	-48	-175	-15636	2216	-4016	-70	-235	-98	-16368	-944	708	39	-203	188	-7848	4136	13360	-75	197	-205	-16092	-88	-4440	58	-173	73	-16340	672	48	158	66	41	123	127	8
-8676	-2968	13900	115	-78	-172	-15584	2196	-3948	93	-191	-61	-16184	-868	1048	213	-156	190	-7808	4104	13280	-64	145	-211	-16076	-68	-4404	148	-228	78	-16348	684	116	111	67	63	122	127	8
-8684	-2924	14064	176	-54	-161	-15636	2184	-3952	185	-137	-39	-16172	-872	888	292	-66	109	-7788	4148	13428	-103	148	-201	-16112	-84	-4152	178	-223	18	-16296	680	700	140	-31	48	127	127	8
-8724	-2976	13980	86	-35	-143	-15652	2260	-4012	183	-56	-21	-16208	-856	920	384	-17	121	-7808	4088	13448	-96	94	-221	-16084	-184	-3876	180	-187	84	-16412	668	1092	277	-147	9	127	127	8
-8732	-2940	14004	115	-30	-204	-15620	2204	-4028	159	-21	-82	-16184	-708	772	319	-22	190	-7744	4092	13360	-94	128	-249	-16180	-264	-3884	253	-181	73	-16436	528	1164	440	-196	-2	123	127	8
-8732	-2964	13936	118	-42	-147	-15616	2168	-3944	182	41	-27	-16324	-812	888	248	1	171	-7748	4100	13412	-100	104	-250	-16176	-292	-3680	309	2	95	-16344	548	1256	471	-101	25	127	127	8
-8704	-2948	13940	110	-38	-148	-15576	2204	-4040	180	40	-27	-16260	-824	804	198	21	204	-7808	4216	13304	-110	122	-255	-16184	-208	-3864	244	25	79	-16352	608	1108	450	55	-9	123	127	8
-8692	-2964	13868	148	-15	-106	-15636	2208	-4064	167	98	3	-16264	-880	732	157	-43	242	-7728	4120	13472	-104	170	-236	-16180	-264	-4072	275	91	141	-16260	560	916	511	188	-27	121	127	8
-8824	-2908	13992	142	-45	-100	-15608	2264	-4104	196	97	-28	-16276	-696	504	201	0	186	-7768	4084	13524	-78	178	-270	-16184	-176	-4076	214	69	144	-16332	540	988	510	233	-52	124	127	8
-8736	-2968	13868	177	-45	-86	-15620	2232	-4172	144	100	-30	-16308	-724	556	184	1	165	-7832	4132	13336	-92	170	-249	-16044	-232	-4196	102	93	74	-16380	776	608	249	233	-62	125	127	8
-8696	-2924	13808	110	-59	-108	-15680	2356	-4136	60	60	-36	-16300	-536	396	21	-58	205	-7808	4132	13464	-109	156	-236	-16028	-168	-4104	97	120	111	-16428	780	604	88	145	-35	126	127	8
-8712	-2932	13944	118	-45	-166	-15680	2364	-4184	128	37	-64	-16408	-556	508	-44	-137	179	-7760	4104	13372	-140	147	-216	-16092	-192	-4152	-26	106	93	-16396	640	596	22	-63	-31	131	127	8
-8700	-2920	13984	88	-64	-135	-15720	2288	-4144	30	24	-58	-16500	-628	404	-214	-144	212	-7808	4084	13452	-114	182	-269	-16180	-228	-4296	-25	151	105	-16480	608	536	0	-158	-66	130	127	8
-8780	-2920	13964	80	-22	-161	-15644	2256	-4232	24	14	-60	-16424	-576	248	-123	-178	161	-7812	4040	13332	-114	214	-222	-16152	-148	-4376	-139	68	99	-16428	516	292	17	-100	-64	128	127	8
-8764	-2928	13908	101	-1	-148	-15640	2356	-4256	-126	-119	-118	-16332	-656	288	-185	-150	161	-7820	4076	13376	-54	171	-204	-16192	-224	-4412	-42	4	87	-16408	456	260	64	-18	-49	129	127	8
-8700	-2992	13960	94	-50	-172	-15716	2236	-4300	-156	-149	-110	-16300	-660	216	-147	-175	171	-7792	4092	13424	-71	166	-214	-16156	-172	-4292	103	-118	104	-16336	556	324	173	-19	-15	126	127	8
-8732	-2892	13876	38	-107	-183	-15584	2276	-4376	-84	-166	-131	-16276	-824	336	28	-184	147	-7888	4088	13440	-90	148	-187	-16016	-188	-4296	137	-171	87	-16376	480	544	224	-23	-2	128	127	8
-8688	-2928	14012	120	-62	-164	-15648	2200	-4088	-92	-209	-108	-16256	-960	632	126	-166	212	-7804	4124	13228	-73	174	-184	-16068	-240	-4124	206	-155	81	-16376	584	696	319	-120	52	125	127	8
-8728	-3040	13956	102	-105	-171	-15660	2140	-4028	91	-179	-27	-16260	-1064	944	145	-122	201	-7800	4068	13400	-84	97	-190	-16156	-192	-3988	294	-131	58	-16436	684	920	379	-171	43	124	127	8
-8732	-2936	13960	142	-62	-143	-15664	2112	-3904	76	-84	-28	-16236	-964	1016	269	-88	213	-7752	4124	13428	-105	165	-212	-16224	-188	-3944	195	-127	101	-16448	504	884	339	-172	41	130	127	8
-8760	-2924	13960	113	-29	-128	-15704	2220	-3876	138	6	-11	-16216	-848	984	290	-78	197	-7788	3996	13400	-64	149	-188	-16140	-276	-4024	197	-50	108	-16368	548	884	347	-71	21	121	127	8
-8756	-2944	14028	99	44	-104	-15672	2248	-4020	200	79	-40	-16296	-716	772	210	-95	180	-7820	4136	13324	-109	151	-231	-16176	-184	-4044	176	-53	127	-16328	664	992	255	65	41	127	127	8
-8728	-3008	13808	124	-8	-152	-15624	2212	-3988	213	71	1	-16280	-756	644	142	-73	174	-7796	4132	13364	-96	158	-231	-16048	-224	-3960	70	16	117	-16344	680	948	221	80	21	125	127	8
-8804	-2932	14012	170	-64	-109	-15624	2244	-4344	75	102	-35	-16236	-556	364	12	-54	226	-7796	4120	13340	-115	106	-247	-16080	-228	-3940	124	99	101	-16324	720	1088	209	71	15	123	127	8
-8800	-2904	13980	131	-73	-112	-15552	2348	-4268	-120	32	-45	-16316	-640	312	-149	-105	242	-7816	4204	13376	-104	149	-249	-16132	-240	-3908	11	143	124	-16368	696	884	160	55	-16	127	127	8
-8664	-2860	13904	152	-99	-156	-15664	2224	-4192	-191	2	-90	-16332	-664	428	-124	-179	236	-7796	4128	13316	-110	172	-234	-16152	-272	-4076	26	206	143	-16404	560	792	112	-41	-33	126	127	8
-8672	-2896	14000	180	-90	-116	-15704	2292	-4148	-139	-38	-61	-16328	-764	456	-105	-141	220	-7776	4088	13352	-100	139	-234	-16112	-204	-4248	-78	205	146	-16460	536	536	-5	-34	-8	127	127	8
-8736	-2968	13860	126	-78	-111	-15664	2232	-4248	-212	-63	-66	-16392	-692	468	-119	-122	186	-7820	4084	13364	-72	174	-272	-16180	-240	-4288	-183	186	112	-16420	560	336	20	16	4	126	127	8
-8724	-2920	13968	109	-28	-146	-15584	2288	-4124	-135	-81	-40	-16304	-752	460	-96	-197	182	-7752	4096	13432	-87	148	-210	-16128	-204	-4464	-106	96	136	-16388	528	144	6	53	-22	129	127	8
-8700	-2952	13956	128	-84	-147	-15672	2256	-4112	-77	-91	-50	-16284	-776	260	-8	-196	175	-7824	4116	13228	-90	135	-250	-16104	-216	-4508	-12	27	122	-16416	508	224	67	93	7	130	127	8
-8732	-2940	13976	121	-109	-134	-15668	2272	-4204	-140	-81	-61	-16292	-740	608	-28	-188	180	-7832	4096	13408	-120	128	-207	-16040	-240	-4372	60	-58	106	-16364	484	320	138	5	27	127	127	8
-8680	-2920	14012	147	-70	-197	-15656	2172	-4036	-113	-99	-113	-16288	-696	512	-30	-208	243	-7768	4068	13300	-67	102	-181	-16136	-160	-4180	127	-127	119	-16444	576	476	202	-182	62	128	127	8
-8728	-3016	14028	151	-46	-150	-15672	2184	-4176	-47	-120	-45	-16376	-872	544	86	-152	197	-7848	4124	13392	-90	81	-211	-16136	-208	-4084	111	-90	142	-16456	568	700	236	-222	119	126	127	8
-8712	-3020	13968	129	-37	-156	-15596	2216	-4296	-92	-162	-45	-16308	-904	352	93	-162	218	-7800	4128	13444	-58	130	-226	-16184	-224	-4204	111	-140	119	-16388	496	636	282	-143	105	126	127	8
-8784	-2916	13956	150	-144	-122	-15592	2208	-4068	-67	-166	11	-16324	-864	592	154	-176	203	-7832	4044	13428	-74	167	-224	-16116	-244	-4412	125	-151	147	-16372	492	592	291	-78	66	133	127	8
-8696	-2936	14020	153	-153	-144	-15624	2220	-4064	-60	-159	5	-16260	-736	816	258	-231	165	-7804	4100	13408	-56	154	-194	-16056	-280	-4224	130	-151	110	-16364	556	696	285	-12	107	125	127	8
-8700	-2964	13988	117	-101	-145	-15600	2284	-4108	-50	-148	-16	-16416	-692	680	205	-268	206	-7832	4120	13312	-93	123	-213	-16096	-192	-3992	162	-148	173	-16324	520	840	292	-8	75	126	127	8
-8708	-2924	13960	157	-116	-124	-15668	2236	-4116	-72	-100	-17	-16256	-716	648	42	-201	232	-7740	4108	13292	-75	108	-225	-16092	-236	-3916	113	-80	177	-16416	644	1064	210	-74	109	129	127	8
-8712	-2944	14000	173	-83	-151	-15612	2280	-3920	-37	-93	-6	-16308	-656	664	23	-163	234	-7776	4092	13356	-82	158	-194	-16168	-176	-4004	83	-14	157	-16428	740	1068	208	-169	68	128	127	8
-8684	-2924	13880	171	-138	-150	-15652	2236	-4064	-159	-45	-6	-16316	-740	668	-100	-172	252	-7756	4092	13340	-74	144	-269	-16212	-204	-3988	67	-10	121	-16364	676	816	186	-74	55	124	127	8
-8672	-2916	13908	163	-115	-145	-15740	2156	-4004	9	-62	-49	-16312	-796	508	-1	-217	204	-7792	4092	13328	-95	187	-233	-16128	-196	-4120	-1	48	141	-16360	548	452	149	3	16	126	127	8
-8744	-2928	14004	160	-72	-170	-15624	2364	-4132	-52	-86	-44	-16340	-724	608	96	-157	201	-7796	4096	13340	-86	157	-262	-16080	-224	-4340	9	-16	136	-16260	528	292	168	78	31	126	127	8
-8760	-2936	13896	125	-62	-152	-15532	2312	-4104	-156	-101	-48	-16216	-648	696	26	-195	233	-7824	4104	13412	-68	146	-180	-16208	-88	-4160	41	-39	126	-16352	648	492	166	112	30	130	127	8
-8736	-2964	13952	112	-56	-156	-15620	2172	-3912	-47	-59	-41	-16236	-764	604	-82	-232	232	-7756	4060	13364	-138	114	-238	-16096	-192	-4120	48	-45	145	-16368	564	744	128	42	11	126	127	8
-8728	-2972	13948	130	-39	-152	-15636	2212	-4088	60	2	-55	-16272	-836	632	-133	-239	230	-7832	4112	13432	-135	149	-233	-16084	-180	-3984	54	1	154	-16388	656	956	151	-70	6	127	127	8
-8756	-2980	13968	160	-23	-128	-15632	2220	-4184	-35	-27	-26	-16288	-792	452	-73	-144	205	-7804	4092	13392	-119	165	-221	-16168	-288	-3924	35	41	166	-16408	600	964	121	-138	55	124	127	8
-8680	-2960	14020	107	17	-134	-15632	2292	-4108	-35	-6	-39	-16320	-776	492	-15	-189	207	-7756	4144	13372	-84	170	-259	-16232	-304	-4092	-25	11	152	-16456	524	724	123	-97	68	125	127	8
-8708	-2940	13968	112	-56	-115	-15664	2348	-4132	17	-71	-35	-16240	-768	596	78	-173	229	-7836	4088	13284	-63	140	-234	-16208	-152	-4380	20	-6	193	-16344	544	464	199	16	56	125	127	8
-8680	-2972	14004	127	-49	-169	-15676	2304	-4228	52	-102	-13	-16356	-668	416	82	-180	260	-7764	4036	13340	-70	154	-202	-16124	-172	-4192	38	-54	135	-16456	592	428	197	118	66	128	127	8
-8788	-2968	13916	127	-43	-156	-15632	2264	-4256	-28	-160	-45	-16276	-632	512	72	-165	239	-7780	4140	13296	-66	144	-236	-16112	-152	-4188	137	-108	132	-16352	600	456	206	109	60	126	127	8
-8704	-2940	13952	127	-106	-143	-15648	2268	-4104	-113	-169	-3	-16300	-840	532	-14	-181	209	-7792	4120	13224	-89	131	-196	-16056	-224	-4144	100	-71	174	-16368	668	732	249	-86	57	126	127	8
-8708	-2912	13928	139	-82	-140	-15684	2264	-4128	-110	-153	-11	-16284	-796	688	5	-108	281	-7768	4140	13444	-105	131	-206	-16176	-160	-4044	143	-95	166	-16392	696	768	265	-148	55	128	127	8
-8804	-2936	13988	134	-72	-114	-15652	2212	-4056	-55	-121	-25	-16316	-840	624	42	-103	223	-7764	4116	13348	-72	121	-204	-16184	-56	-4164	54	-80	142	-16480	692	624	225	-153	85	125	127	8
-8752	-2944	13924	143	-74	-159	-15656	2280	-4108	-84	-154	5	-15848	-816	-164	210	37	252	-7912	4160	13264	-109	113	-221	-16136	-204	-4204	46	-69	145	-16376	612	752	161	-70	74	129	127	8
-8788	-2916	13976	108	-92	-120	-15684	2336	-3948	-118	-141	-26	-16276	-676	908	178	-106	238	-7800	4084	13408	-89	118	-225	-16128	-144	-4092	108	-83	162	-16356	636	692	165	58	109	125	127	8
-8728	-3224	13864	134	-83	-141	-15648	2360	-4060	-114	-129	-73	-16044	-552	188	72	41	248	-7804	4144	13356	-86	128	-192	-16124	-196	-4140	11	-112	171	-16372	644	808	159	102	91	127	127	8
-8748	-3032	13852	118	-114	-138	-15720	2132	-4060	-149	-63	-2	-16224	-712	636	24	-89	230	-7824	4124	13352	-108	122	-168	-16092	-132	-3968	84	-61	160	-16380	688	880	209	32	29	127	127	8
-8700	-2912	14000	159	-56	-135	-15576	2376	-4040	-90	-101	-10	-16236	-656	32	21	-8	237	-7800	4196	13364	-107	174	-237	-16156	-196	-4000	70	32	157	-16480	648	980	203	-54	35	126	127	8
-8764	-2860	14048	183	-93	-139	-15692	2252	-4104	-346	-102	-22	-16332	-780	664	-69	-121	242	-7768	4084	13360	-112	156	-211	-16124	-232	-3984	114	78	168	-16404	560	872	221	-108	68	123	127	8
-8756	-2940	13908	176	-116	-130	-15612	2204	-4004	-168	-94	2	-16176	-752	672	30	-198	224	-7828	4092	13448	-130	190	-240	-16204	-128	-4236	-7	70	169	-16468	608	672	207	-61	9	128	127	8
-8648	-2968	14064	161	-110	-164	-15688	2328	-3940	-175	-15	-13	-16240	-676	684	98	-161	203	-7776	4148	13428	-110	184	-226	-16184	-212	-4348	73	34	158	-16396	576	376	161	72	42	127	127	8
-8772	-2952	14048	186	-127	-139	-15684	2272	-4168	-220	-45	21	-16280	-720	460	39	-172	160	-7808	4072	13344	-70	144	-208	-16028	-172	-4196	38	-25	145	-16396	588	452	116	126	55	126	127	8
-8724	-2948	13964	161	-54	-125	-15644	2340	-4156	-354	-45	-17	-16204	-624	504	-66	-200	221	-7812	4088	13400	-78	124	-201	-16156	-120	-4124	111	-77	143	-16376	644	676	185	44	67	125	127	8
-8664	-2872	14028	129	-84	-147	-15672	2348	-3988	-278	-73	-41	-16280	-756	496	-6	-210	232	-7740	4136	13292	-134	147	-203	-16092	-184	-4092	26	-54	184	-16436	660	720	168	-88	91	130	127	8
-8692	-2876	13952	134	-82	-136	-15736	2260	-3960	-65	-75	-25	-16400	-672	476	38	-178	253	-7792	4076	13276	-69	147	-214	-16144	-176	-4060	173	-28	170	-16428	708	776	221	-148	64	125	127	8
-8736	-2948	13960	144	-62	-108	-15660	2324	-4132	-117	-107	-22	-16300	-636	488	118	-135	202	-7820	4112	13340	-109	144	-243	-16112	-248	-4064	38	-24	129	-16344	628	524	185	-168	73	126	127	8
-8728	-2924	13952	106	-89	-149	-15624	2296	-3976	-41	-118	-27	-16248	-820	672	81	-159	231	-7756	4068	13400	-96	161	-220	-16212	-108	-4204	41	-24	129	-16336	588	664	211	-61	46	127	127	8
-8744	-2980	13900	117	-54	-195	-15620	2228	-4064	56	-55	-31	-16216	-796	824	88	-167	210	-7724	4180	13284	-89	139	-203	-16116	-148	-4264	35	-45	136	-16428	552	612	250	42	23	122	127	8
-8660	-2976	13924	117	-86	-132	-15716	2340	-3908	163	-62	-8	-16344	-704	816	40	-113	232	-7888	4120	13420	-82	153	-221	-16136	-268	-4200	152	-72	145	-16428	552	700	314	85	-3	123	127	8
-8652	-2920	13980	123	-34	-98	-15632	2332	-4084	220	-34	-22	-16316	-612	492	38	-153	213	-7812	4140	13376	-67	149	-222	-16096	-132	-3892	165	-132	126	-16400	688	800	279	21	23	126	127	8
-8780	-2824	14004	142	-61	-134	-15608	2344	-4128	42	-43	-40	-16240	-592	504	25	-120	251	-7804	4132	13368	-89	139	-236	-16084	-164	-3972	77	-20	148	-16376	708	1020	223	-39	62	124	127	8
-8716	-2884	13960	119	-80	-137	-15608	2376	-4144	61	-51	-13	-16296	-748	624	22	-166	248	-7800	4080	13408	-68	124	-243	-16120	-172	-3996	74	-12	158	-16380	660	964	218	-93	44	122	127	8
-8600	-2968	13916	110	-39	-152	-15648	2324	-4036	145	-26	-53	-16352	-756	708	88	-184	240	-7748	4084	13340	-58	143	-248	-16212	-140	-4000	40	39	146	-16312	748	808	175	-7	48	124	127	8
-8712	-2920	14012	72	-14	-119	-15652	2276	-4012	1	21	-32	-16280	-724	648	43	-117	231	-7736	4148	13312	-84	123	-213	-16180	-152	-4128	31	74	93	-16352	752	632	127	65	19	123	127	8
-8720	-2956	13992	163	-62	-120	-15616	2272	-4032	-41	-7	3	-16304	-812	568	46	-103	205	-7780	4144	13400	-83	178	-240	-16124	-176	-4260	-25	62	131	-16388	660	516	123	103	18	129	127	8
-8764	-2936	13824	132	-63	-139	-15676	2264	-3988	51	-4	-24	-16308	-688	804	-7	-171	233	-7816	4124	13388	-70	137	-192	-16108	-144	-4144	116	23	122	-16336	672	588	202	96	-46	126	127	8
-8756	-2888	14060	118	-8	-167	-15704	2352	-4092	68	34	-26	-16368	-612	660	36	-136	177	-7772	4080	13324	-107	160	-247	-16144	-112	-4080	63	15	87	-16376	744	820	148	76	-23	125	127	8
-8764	-2980	13964	117	-20	-158	-15696	2376	-4084	134	36	-47	-16344	-560	520	-18	-105	208	-7852	4116	13320	-107	156	-253	-16136	-172	-4048	33	45	95	-16416	648	952	103	-15	4	124	127	8
-8728	-2960	13940	110	-76	-149	-15648	2356	-4160	-17	19	-63	-16364	-660	520	-92	-145	234	-7748	4184	13312	-72	154	-245	-16232	-208	-4036	95	98	119	-16392	588	688	173	-74	-28	125	127	8
-8716	-2968	14040	76	-23	-162	-15596	2240	-4112	66	-18	-62	-16316	-696	600	-80	-142	241	-7736	4100	13404	-82	200	-239	-16220	8	-4320	-73	53	78	-16436	604	636	183	-87	1	130	127	8
-8720	-2924	13952	108	-30	-162	-15656	2220	-4076	133	-22	-50	-16368	-776	464	4	-161	198	-7724	4104	13348	-121	183	-247	-16176	-148	-4228	48	18	50	-16396	612	492	156	16	40	125	127	8
-8728	-2980	14072	142	-36	-157	-15620	2308	-4148	25	-19	-30	-16376	-684	388	93	-117	196	-7780	4120	13308	-80	156	-231	-16088	-260	-4232	79	-12	136	-16408	484	504	205	67	-8	126	127	8
-8684	-2960	14016	107	-55	-150	-15636	2300	-4132	-20	-65	-33	-16328	-720	312	37	-107	179	-7744	4044	13340	-53	160	-210	-16192	-92	-4156	173	-32	105	-16400	620	552	275	49	-25	121	127	8
-8724	-2976	14040	130	-99	-147	-15588	2344	-4140	-18	-88	-69	-16296	-692	588	94	-149	221	-7840	4152	13240	-65	158	-230	-16132	-168	-4156	62	6	132	-16432	552	708	160	-50	16	127	127	8
-8756	-2920	13908	130	-91	-150	-15644	2292	-4036	13	-64	-27	-16304	-600	608	-4	-160	220	-7772	4144	13424	-90	137	-210	-16100	-208	-4112	149	-32	151	-16436	632	848	237	-151	37	127	127	8
-8752	-2900	14024	120	-42	-133	-15616	2296	-3992	-7	-57	-60	-16344	-680	592	2	-172	193	-7804	4136	13464	-115	135	-252	-16152	-124	-4096	85	-35	117	-16376	664	732	197	-153	19	123	127	8
-8724	-2920	13988	124	-26	-162	-15700	2268	-4196	-20	-84	-75	-16284	-776	488	-15	-160	203	-7832	4096	13360	-90	168	-263	-16172	-188	-4244	-7	-36	123	-16384	516	452	125	-85	45	125	127	8
-8760	-2916	13928	137	-63	-156	-15608	2236	-4120	24	-77	-32	-16352	-808	616	4	-185	195	-7832	4040	13320	-78	135	-236	-16172	-236	-4272	109	-80	107	-16412	560	556	204	-14	26	127	127	8
-8716	-2972	14016	114	-27	-182	-15664	2304	-4024	29	-110	-65	-16368	-712	720	89	-228	206	-7824	4096	13328	-80	94	-195	-16148	-208	-4172	122	-134	120	-16352	604	576	232	-29	-6	126	127	8
-8768	-2996	14008	127	-22	-119	-15648	2340	-3980	-22	-62	-35	-16256	-748	620	105	-178	184	-7832	4092	13468	-106	153	-209	-16164	-224	-4084	110	-112	106	-16440	568	764	236	-100	51	127	127	8
-8732	-2944	13928	149	-75	-137	-15564	2296	-4140	76	-89	-25	-16320	-716	548	48	-205	227	-7792	4096	13512	-67	139	-214	-16108	-140	-4040	90	-109	147	-16436	596	900	273	-75	19	124	127	8
-8696	-2940	14068	111	-60	-167	-15636	2384	-4048	-71	-77	-58	-16232	-684	584	11	-210	220	-7804	4064	13344	-72	157	-259	-16148	-80	-4060	59	-60	161	-16400	656	728	229	-122	48	129	127	8
-8672	-2900	13960	121	-69	-152	-15664	2236	-3952	-49	-123	-52	-16344	-720	600	-44	-180	244	-7808	4112	13472	-86	197	-178	-16224	-176	-4112	99	-74	147	-16380	684	660	251	-30	66	125	127	8
-8756	-2936	13884	144	-35	-174	-15628	2272	-4060	-88	-110	-46	-16320	-664	684	83	-127	168	-7812	4096	13288	-75	167	-211	-16088	-192	-4288	52	-107	128	-16340	648	592	185	15	79	124	127	8
-8736	-2948	13900	151	-75	-151	-15604	2316	-4104	-104	-76	-51	-16260	-784	668	95	-79	204	-7840	4140	13388	-88	143	-215	-16112	-84	-4096	111	-119	117	-16356	636	696	252	33	38	123	127	8
-8732	-2960	14016	155	-79	-146	-15628	2264	-3936	21	-53	-42	-16256	-668	836	241	-122	189	-7820	4092	13404	-92	133	-181	-16084	-108	-4052	167	-73	116	-16392	740	852	224	-7	41	125	127	8
-8700	-2928	13956	167	-98	-109	-15588	2344	-3996	112	-61	-18	-16316	-688	800	230	-92	183	-7772	4140	13260	-120	148	-226	-16112	-136	-4040	131	19	105	-16376	752	956	211	-121	35	127	127	8
-8612	-2900	14068	141	-95	-143	-15672	2272	-3944	22	0	-31	-16280	-592	528	120	-82	243	-7740	4136	13268	-135	78	-230	-16120	-204	-3888	141	82	133	-16356	680	996	243	-206	-13	124	127	8
-8708	-2960	14004	130	-69	-176	-15628	2312	-4016	23	-54	-63	-16348	-608	600	44	-174	218	-7736	4128	13404	-111	143	-297	-16156	-220	-4084	120	66	90	-16372	564	784	282	-135	-44	127	127	8
-8712	-2932	14040	113	-101	-162	-15776	2436	-4136	-150	-36	-63	-16412	-604	268	-3	-254	192	-7816	4116	13416	-92	171	-204	-16172	-224	-4460	-41	12	142	-16436	516	344	269	-46	-62	123	127	8
-8672	-2948	13888	117	-47	-153	-15692	2308	-4264	-210	-101	-104	-16404	-572	224	-129	-220	208	-7828	4180	13348	-132	191	-220	-16176	-96	-4280	84	-67	110	-16448	584	304	187	32	28	125	127	8
-8748	-2924	13936	126	-74	-161	-15584	2372	-4156	-283	-189	-64	-16356	-660	248	-148	-274	185	-7780	4056	13404	-93	169	-233	-16148	-248	-4392	75	-143	124	-16400	540	328	198	-79	22	125	127	8
-8784	-2912	13940	115	-114	-206	-15620	2204	-4132	-286	-229	-80	-16228	-856	616	-24	-238	203	-7820	4116	13364	-82	111	-206	-16088	-176	-4184	182	-181	106	-16408	648	544	228	-162	81	131	127	8
-8688	-2936	13980	70	-59	-174	-15732	2236	-3896	-144	-190	-58	-16260	-840	1008	194	-192	168	-7840	4012	13400	-133	146	-173	-16072	-144	-4128	40	-149	116	-16456	684	744	212	-242	72	123	127	8
-8656	-2960	13916	129	-65	-188	-15656	2236	-3956	-43	-146	-75	-16232	-880	1256	263	-192	178	-7768	4120	13360	-76	133	-156	-16104	-184	-4020	223	-153	101	-16404	688	768	245	-223	137	124	127	8
-8740	-3000	13948	112	-76	-177	-15664	2184	-3816	-9	-103	-35	-16256	-964	1012	235	-94	204	-7748	4108	13412	-109	140	-213	-16180	16	-4144	144	-140	75	-16316	780	860	242	-116	128	126	127	8
-8632	-3008	14056	135	-84	-153	-15536	2236	-3876	107	-48	-42	-16272	-776	1104	307	-46	227	-7816	4100	13344	-95	135	-213	-16072	-204	-3964	113	-132	49	-16352	624	1012	206	8	82	122	127	8
-8712	-2860	14052	117	-26	-160	-15648	2228	-3820	109	27	-5	-16268	-844	1104	276	-37	182	-7744	4128	13340	-98	126	-227	-16132	-216	-3952	310	-64	113	-16364	560	1164	363	63	-4	124	127	8
-8696	-2932	13912	165	-31	-101	-15692	2044	-3800	243	128	-17	-16156	-692	924	275	-46	146	-7768	4116	13296	-96	119	-219	-16124	-232	-3804	219	42	98	-16352	664	1368	408	76	-62	122	127	8
-8680	-2884	13828	140	-58	-137	-15596	2400	-4096	45	174	5	-16244	-548	592	106	-35	156	-7752	4104	13316	-119	121	-244	-16072	-240	-3744	237	126	126	-16420	724	1168	472	24	-59	124	127	8
-8780	-2876	13932	190	-93	-136	-15552	2260	-4020	-30	183	38	-16288	-704	432	67	-96	211	-7720	4128	13440	-100	156	-227	-16196	-184	-3908	121	239	159	-16332	740	920	335	79	-94	126	127	8
-8628	-3016	13964	164	-27	-109	-15620	2260	-4080	-25	198	-11	-16392	-612	252	-60	-81	210	-7800	4212	13408	-92	173	-252	-16144	-168	-4144	7	225	136	-16448	792	720	233	114	-18	130	127	8
-8784	-2868	14032	103	-18	-104	-15700	2440	-4184	229	93	-25	-16480	-488	224	-132	-118	264	-7740	4048	13428	-91	192	-228	-16208	-172	-4292	-7	183	67	-16420	692	300	114	96	-15	125	127	8
-8796	-2976	14004	92	17	-142	-15572	2404	-4248	-96	-33	-52	-16348	-484	304	-211	-100	215	-7748	4188	13416	-128	215	-233	-16240	-116	-4444	-117	143	130	-16420	608	324	21	151	-44	126	127	8
-8804	-2872	13916	85	-7	-150	-15676	2304	-4272	-29	-54	-103	-16392	-572	304	-265	-102	210	-7772	4096	13376	-86	163	-226	-16144	-256	-4404	56	27	139	-16384	636	252	54	127	-44	132	127	8
-8724	-2928	14000	109	10	-178	-15636	2308	-4184	-90	-99	-118	-16308	-764	496	-146	-116	172	-7824	4096	13344	-75	201	-229	-16080	-72	-4324	-22	-73	94	-16376	700	408	37	64	-50	127	127	8
-8712	-2984	14068	77	-26	-162	-15584	2256	-4072	-81	-113	-99	-16276	-796	780	-60	-77	186	-7756	4184	13360	-96	158	-248	-16164	-164	-4304	-51	-65	61	-16388	632	440	67	-28	-20	124	127	8
-8628	-2976	14024	98	7	-181	-15608	2216	-3928	43	-91	-68	-16288	-900	808	53	-90	171	-7752	4108	13420	-69	129	-229	-16196	-200	-4268	96	-108	112	-16344	548	600	65	-24	-6	130	127	8
-8720	-2940	14024	140	-2	-151	-15656	2180	-3976	167	-52	-99	-16296	-812	760	123	-95	155	-7796	4076	13360	-96	121	-220	-16152	-204	-4236	26	-113	57	-16416	508	612	115	-19	19	123	127	8
-8704	-2976	13992	85	2	-146	-15640	2232	-3936	156	-17	-58	-16272	-808	480	73	-60	245	-7744	4172	13388	-75	101	-221	-16168	-264	-4000	185	-132	96	-16512	508	936	211	-17	26	127	127	8
-8736	-2924	13948	94	20	-144	-15588	2268	-4004	99	-42	-78	-16248	-676	732	-16	-74	246	-7784	4156	13216	-96	114	-204	-16192	-192	-4000	198	-83	115	-16372	536	1060	276	-17	25	122	127	8
-8724	-2924	13988	120	-35	-160	-15684	2212	-4040	181	-13	-53	-16264	-792	584	86	-76	258	-7748	4128	13404	-110	138	-266	-16112	-240	-3936	113	-32	117	-16432	632	1132	312	-11	10	123	127	8
-8728	-2920	13896	125	5	-129	-15668	2284	-4080	111	-9	3	-16352	-752	508	111	-107	200	-7748	4136	13412	-106	165	-215	-16108	-172	-3956	113	36	159	-16356	608	1152	361	43	-11	132	127	8
-8708	-2892	13948	103	-23	-136	-15648	2328	-4072	6	-17	-69	-16328	-660	440	-64	-162	236	-7756	4128	13340	-71	203	-228	-16140	-76	-4024	-7	93	120	-16352	676	732	276	133	-53	126	127	8
-8748	-2924	14056	107	-54	-115	-15656	2240	-4152	-1	-45	-35	-16448	-580	612	-71	-184	192	-7808	4068	13356	-76	187	-250	-16156	-284	-4372	24	74	112	-16400	624	520	191	165	-49	120	127	8
-8692	-2868	13944	124	-25	-143	-15704	2372	-4128	23	-17	-49	-16372	-596	416	-64	-168	204	-7800	4040	13364	-91	175	-259	-16160	-168	-4196	65	35	126	-16432	724	456	79	99	-11	119	127	8
-8676	-2952	13952	73	5	-139	-15704	2304	-4184	61	-55	-52	-16312	-508	452	-67	-153	210	-7860	4168	13328	-93	175	-225	-16088	-56	-4140	-27	21	108	-16464	760	432	54	93	-3	127	127	8
-8744	-2940	13944	73	-26	-166	-15640	2328	-4208	-55	-104	-73	-16340	-588	292	-235	-132	266	-7780	4156	13352	-97	156	-227	-16036	-184	-4120	-39	43	96	-16404	736	724	-12	-62	3	124	127	8
-8764	-2872	13904	96	-98	-162	-15680	2372	-4120	-155	-152	-74	-16384	-780	548	-161	-109	231	-7704	4096	13236	-79	148	-197	-16164	-216	-4048	-6	1	106	-16436	648	652	-40	-37	-11	126	127	8
-8696	-2964	13960	90	-150	-161	-15628	2196	-3784	-106	-128	-78	-16276	-780	984	-119	-148	198	-7820	4008	13280	-106	164	-217	-16168	-188	-4164	-57	-11	62	-16412	500	492	-7	12	-23	127	127	8
-8704	-2940	13984	58	-31	-169	-15616	2212	-3856	-121	-41	-87	-16288	-920	916	-59	-197	130	-7800	4136	13416	-59	144	-240	-16100	-228	-4200	-25	-45	91	-16448	480	492	67	16	-15	125	127	8
-8788	-2972	13920	111	-47	-152	-15596	2148	-4020	47	-27	-71	-16164	-1000	672	-79	-203	174	-7852	4112	13388	-107	150	-209	-16092	-188	-4200	97	-42	141	-16428	448	664	137	18	-2	126	127	8
-8680	-2908	13976	97	-30	-163	-15708	2360	-3976	47	-1	-17	-16248	-788	460	34	-179	199	-7792	4076	13272	-69	149	-236	-16084	-248	-4116	108	-47	119	-16404	516	872	255	-17	32	125	127	8
-8732	-2896	13960	103	-22	-158	-15684	2328	-4016	8	6	13	-16292	-704	580	133	-130	219	-7812	4116	13332	-84	146	-239	-16124	-188	-4060	167	-36	165	-16500	528	920	320	-99	67	124	127	8
-8784	-3036	13960	133	-56	-148	-15652	2284	-4232	134	-62	-13	-16336	-788	428	97	-124	252	-7840	4212	13384	-87	171	-262	-16176	-148	-4088	181	-2	153	-16448	588	952	369	-66	82	129	127	8
-8708	-2884	13956	92	-28	-150	-15608	2288	-4120	-5	-81	-1	-16272	-776	524	120	-96	290	-7780	4128	13356	-69	159	-260	-16124	-228	-4112	132	25	123	-16396	680	676	325	6	65	127	127	8
-8748	-2976	13948	134	-92	-131	-15556	2216	-3984	-81	-80	-39	-16280	-856	884	129	-158	230	-7868	4112	13404	-73	176	-232	-16144	-228	-4220	87	15	137	-16340	652	540	311	69	56	126	127	8
-8592	-3012	13820	119	-66	-158	-15652	2220	-3956	66	3	-8	-16328	-748	740	163	-156	217	-7832	4048	13388	-80	192	-178	-16152	-140	-4220	135	-3	155	-16412	692	524	207	89	71	127	127	8
-8768	-2952	13880	136	-47	-102	-15616	2280	-3964	88	-1	21	-16304	-604	632	81	-155	237	-7744	4108	13436	-87	139	-207	-16076	-152	-4140	47	-83	154	-16396	684	632	95	91	27	124	127	8
-8784	-2896	13960	151	-41	-155	-15676	2288	-4284	-54	10	-19	-16336	-556	388	-83	-137	168	-7792	4144	13316	-62	149	-176	-16096	-164	-3996	40	-71	108	-16408	664	836	124	-70	21	124	127	8
-8772	-3000	13896	139	-59	-170	-15648	2348	-4260	-133	-41	-37	-16364	-620	304	-94	-132	189	-7744	4096	13348	-81	110	-221	-16108	-220	-3964	-16	-10	134	-16412	632	812	110	-120	7	125	127	8
-8772	-2916	13900	174	-50	-172	-15652	2348	-4136	-158	-65	-48	-16332	-700	548	-115	-140	241	-7792	4104	13452	-96	138	-216	-16168	-232	-4164	-31	44	143	-16384	628	772	154	-58	27	127	127	8
-8712	-2904	14020	137	-39	-176	-15616	2280	-3976	-74	-88	-30	-16360	-720	596	-107	-182	267	-7812	4124	13376	-64	152	-227	-16200	-260	-4296	-29	16	126	-16380	600	632	135	79	20	122	127	8
-8704	-2956	13928	103	-33	-153	-15720	2320	-3876	-112	-62	-69	-16336	-800	824	-42	-170	229	-7820	4056	13472	-92	156	-220	-16228	-192	-4196	50	-29	126	-16404	536	616	157	179	20	127	127	8
-8660	-2996	14012	104	1	-119	-15620	2144	-3920	-31	1	-74	-16328	-820	648	-87	-206	240	-7848	4084	13328	-75	169	-241	-16064	-204	-4164	95	-83	142	-16396	568	852	189	94	10	122	127	8
-8656	-3004	13964	96	28	-114	-15604	2264	-3976	27	-15	-22	-16252	-820	648	65	-148	198	-7824	4092	13416	-85	125	-210	-16092	-204	-4060	154	-13	132	-16380	616	828	221	6	23	128	127	8
-8756	-2956	14044	152	-34	-147	-15604	2280	-3996	13	-27	17	-16272	-792	488	70	-60	219	-7800	4116	13448	-88	125	-226	-16032	-88	-3992	56	28	159	-16484	632	812	295	-81	12	126	127	8
-8716	-2940	13952	144	-78	-134	-15624	2240	-4080	59	-30	14	-16300	-680	480	69	-122	226	-7772	4120	13352	-80	153	-195	-16112	-144	-4136	81	22	135	-16448	624	720	278	-78	27	127	127	8
-8712	-2924	13996	133	-78	-135	-15644	2288	-4096	12	-18	-1	-16328	-672	552	58	-103	249	-7820	4128	13396	-92	174	-282	-16208	-152	-4300	44	15	136	-16404	596	584	285	46	56	125	127	8
-8764	-2932	14004	134	-84	-136	-15712	2252	-4144	31	-24	-24	-16360	-768	492	55	-96	236	-7800	4104	13444	-52	153	-223	-16196	-208	-4264	85	-35	128	-16352	644	480	255	125	42	126	127	8
-8764	-2920	14020	133	-41	-132	-15640	2340	-4016	-17	-43	-2	-16252	-684	592	70	-80	238	-7816	4084	13420	-66	155	-211	-16172	-176	-4320	196	-57	157	-16328	708	660	255	165	31	125	127	8
-8748	-2964	13976	116	-25	-121	-15588	2284	-4028	24	-47	-34	-16276	-652	608	98	-126	187	-7788	4176	13404	-112	130	-189	-16160	-204	-4116	85	-79	93	-16332	672	640	170	74	59	127	127	8
-8748	-2924	14064	102	-34	-135	-15628	2320	-4112	47	1	-4	-16276	-720	668	74	-185	208	-7740	4124	13360	-53	139	-190	-16100	-228	-3992	114	-27	143	-16404	620	936	225	-50	35	124	127	8
-8700	-2900	13948	151	6	-112	-15596	2268	-4112	101	-26	-41	-16368	-660	492	72	-72	226	-7820	4116	13364	-86	151	-225	-16168	-176	-4120	155	23	131	-16424	696	876	260	-141	16	122	127	8
-8708	-2892	13972	110	-45	-124	-15632	2300	-4036	17	-20	-19	-16304	-712	556	88	-62	216	-7724	4124	13380	-50	179	-209	-16136	-116	-4260	7	46	121	-16380	668	712	257	-50	-5	123	127	8
-8764	-2888	13988	122	-40	-99	-15600	2284	-4188	75	-17	-10	-16400	-692	524	122	-122	233	-7816	4132	13344	-55	142	-231	-16132	-188	-4244	124	14	120	-16312	660	476	276	86	-8	128	127	8
-8636	-2936	14016	136	-41	-134	-15732	2332	-4008	77	-25	-11	-16304	-664	560	110	-137	208	-7820	4052	13260	-96	150	-218	-16136	-148	-4304	130	-30	118	-16408	636	628	205	142	18	125	127	8
-8808	-2932	13976	134	-4	-168	-15580	2304	-4032	17	0	-37	-16280	-628	536	-34	-31	239	-7844	4124	13376	-50	142	-225	-16104	-156	-4108	75	-31	105	-16396	732	696	190	101	-4	125	127	8
-8716	-2880	13900	103	-6	-121	-15648	2332	-4136	-32	-42	-43	-16292	-700	464	-33	-84	238	-7788	4152	13432	-114	119	-236	-16120	-148	-4044	78	9	134	-16420	684	932	187	-14	4	127	127	8
-8704	-2960	13984	102	-54	-161	-15676	2172	-3976	-40	-62	-33	-16260	-828	732	44	-117	203	-7788	4088	13396	-83	144	-246	-16164	-152	-4012	65	83	111	-16408	668	932	200	-98	16	126	127	8
-8720	-3000	14000	127	-57	-131	-15628	2236	-3944	-3	16	-19	-16284	-780	768	163	-96	139	-7816	4100	13396	-91	143	-223	-16108	-176	-4012	-23	92	75	-16364	652	720	123	-31	-8	123	127	8
-8672	-2976	13964	91	-16	-150	-15648	2244	-3940	36	37	-31	-16176	-684	788	17	-115	182	-7832	4116	13444	-110	107	-249	-16168	-308	-4216	9	77	137	-16304	588	516	99	98	-7	119	127	8
-8776	-3004	13968	130	-41	-156	-15664	2304	-3968	8	59	-19	-16300	-724	648	-73	-142	192	-7804	4100	13408	-111	140	-231	-16092	-216	-4244	78	73	146	-16336	524	468	160	146	-13	125	127	8
-8724	-3004	13992	156	-17	-143	-15668	2324	-4224	15	57	-49	-16356	-620	336	-151	-152	228	-7824	4072	13384	-98	176	-205	-16112	-192	-4148	33	29	131	-16456	620	752	124	85	-8	126	127	8
-8716	-2944	14016	119	1	-127	-15624	2328	-4336	-45	33	-36	-16572	-652	676	-145	-293	170	-7756	4172	13236	-101	158	-202	-16184	-232	-4016	27	45	106	-16484	548	776	142	-53	12	124	127	8
-8816	-2788	13968	145	-25	-176	-15664	2320	-4196	-77	-12	-29	-16412	-696	44	-210	-209	193	-7784	4100	13468	-99	126	-220	-16148	-132	-4112	-16	86	150	-16464	532	684	155	-167	-20	127	127	8
-8728	-2868	13916	127	-41	-150	-15616	2308	-4312	-179	-83	-63	-16380	-620	572	-112	-358	247	-7768	4096	13300	-81	134	-233	-16132	-204	-4416	-20	65	186	-16464	552	544	112	-141	33	129	127	8
-8788	-2928	13996	127	-68	-152	-15672	2320	-4188	-224	-149	-48	-16328	-696	152	-199	-246	211	-7752	4124	13416	-53	198	-220	-16240	-120	-4348	-86	33	162	-16468	576	284	92	-33	24	126	127	8
-8712	-2996	13940	116	-104	-155	-15628	2400	-4216	-200	-200	-66	-16304	-736	420	-79	-203	193	-7824	4144	13448	-68	187	-221	-16192	-76	-4560	-32	-121	129	-16388	668	168	100	85	89	119	127	8
-8832	-2876	13916	86	-112	-167	-15652	2212	-4044	-184	-196	-21	-16280	-840	768	-16	-213	238	-7880	4116	13348	-31	176	-208	-16084	-204	-4264	38	-204	91	-16340	692	336	95	93	93	128	127	8
-8720	-2948	13912	77	-28	-165	-15580	2172	-4012	-15	-195	-38	-16240	-780	832	107	-228	194	-7824	4140	13304	-73	153	-192	-16076	-144	-4260	127	-224	65	-16352	692	740	132	-2	79	130	127	8
-8708	-2944	13952	123	-42	-135	-15636	2316	-3836	59	-92	-55	-16300	-704	904	81	-166	180	-7796	4104	13440	-95	138	-198	-16108	-72	-3816	249	-207	110	-16372	636	784	207	-44	47	123	127	8
-8728	-2952	14148	114	-7	-145	-15676	2260	-3852	87	-10	-32	-16256	-692	976	65	-113	202	-7888	3928	13164	-107	131	-202	-15976	-312	-4136	297	-139	160	-16356	708	1056	321	-158	-17	125	127	8
-8724	-2912	13864	123	-4	-173	-15552	2304	-4004	125	-5	-42	-16228	-776	688	149	-89	227	-7780	4224	13352	-87	128	-221	-16224	160	-3920	32	-109	120	-16328	736	1104	189	-15	66	126	127	8
-8648	-2948	13960	138	0	-129	-15704	2244	-4004	133	-3	-19	-16360	-796	604	132	-36	223	-7792	4124	13356	-113	120	-256	-16224	-256	-3940	36	53	114	-16480	608	1056	328	46	22	131	127	8
-8716	-3040	14028	128	-25	-137	-15664	2204	-4012	126	36	-13	-16308	-720	620	130	-34	223	-7760	4120	13372	-81	159	-243	-16092	-224	-4008	346	-28	139	-16364	576	936	376	139	-13	124	127	8
-8720	-2912	14044	125	-36	-114	-15632	2308	-4040	54	50	-8	-16272	-648	680	139	-66	188	-7752	4084	13352	-95	148	-220	-16124	-284	-4076	159	90	104	-16380	624	848	354	177	-65	123	127	8
-8748	-2956	13964	172	-91	-139	-15672	2328	-4068	2	51	-14	-16356	-592	596	122	-3	223	-7728	4088	13348	-66	142	-232	-16164	-216	-4036	229	94	128	-16412	764	868	318	101	-60	122	127	8
-8764	-2932	13948	128	-57	-124	-15616	2372	-4172	75	77	-51	-16244	-592	640	92	-18	198	-7740	4192	13404	-78	156	-227	-16048	-64	-3964	85	168	135	-16328	660	840	302	112	-46	129	127	8
-8668	-2960	14048	119	-32	-157	-15692	2376	-4016	43	77	-57	-16392	-512	480	-55	-110	220	-7720	4132	13424	-97	121	-273	-16204	-220	-4120	47	184	114	-16452	712	700	116	-16	-26	125	127	8
-8800	-2984	13980	127	-20	-130	-15664	2312	-4176	-19	24	-41	-16320	-636	436	-124	-63	179	-7740	4144	13352	-98	167	-251	-16160	-148	-4356	-50	195	85	-16468	660	392	31	49	-67	127	127	8
-8792	-2920	14016	107	-41	-128	-15648	2284	-4240	1	1	-68	-16328	-648	304	-206	-117	230	-7788	4092	13444	-45	168	-270	-16096	-188	-4516	-88	70	66	-16344	556	212	30	159	-83	127	127	8
-8748	-2916	13912	107	-70	-149	-15584	2392	-4144	-150	-18	-70	-16352	-644	436	-178	-222	186	-7820	4080	13372	-85	191	-189	-16096	-108	-4444	14	-20	125	-16388	564	184	41	172	-59	129	127	8
-8736	-2940	13920	107	-95	-201	-15640	2280	-4028	-143	-6	-107	-16304	-680	540	-196	-199	185	-7848	4096	13444	-95	144	-214	-16076	-160	-4324	-37	-28	65	-16412	552	424	24	54	-14	124	127	8
-8688	-2972	14020	104	-13	-157	-15668	2296	-4152	-53	-54	-97	-16344	-720	452	-37	-186	166	-7816	4160	13352	-53	140	-197	-16116	-188	-4200	38	-95	76	-16392	644	556	44	-69	23	125	127	8
-8764	-2876	13992	94	-18	-153	-15652	2332	-4348	-58	-58	-71	-16320	-748	500	-92	-173	169	-7768	4112	13420	-88	112	-218	-16108	-124	-4108	35	-64	95	-16404	544	804	80	-112	19	124	127	8
-8800	-2912	14008	92	-78	-159	-15600	2220	-4244	-102	-84	-61	-16304	-840	484	9	-196	166	-7748	4080	13288	-61	165	-218	-16168	-200	-4220	56	-72	122	-16344	512	708	133	-113	48	123	127	8
-8708	-3004	13940	113	-33	-115	-15688	2216	-3992	17	-66	-36	-16368	-832	692	139	-202	182	-7836	4096	13432	-32	178	-205	-16088	-260	-4344	105	-47	92	-16424	568	632	196	4	40	124	127	8
-8764	-2968	14040	91	-106	-109	-15692	2336	-4096	20	-76	-47	-16276	-728	752	69	-174	206	-7808	4216	13340	-78	157	-198	-16120	-156	-4284	142	-126	140	-16368	612	640	242	51	14	126	127	8
-8676	-2924	13932	101	-45	-145	-15660	2288	-4044	50	-30	-74	-16304	-772	804	-19	-174	247	-7784	4164	13296	-70	139	-218	-16040	-140	-4084	141	-77	125	-16300	568	752	253	54	8	127	127	8
-8708	-2908	13888	110	-46	-127	-15600	2272	-3940	51	4	-33	-16264	-832	720	-15	-175	191	-7800	4108	13332	-88	127	-222	-16196	-176	-4032	166	-82	148	-16372	640	856	311	4	-23	125	127	8
-8696	-2984	14032	92	2	-153	-15668	2216	-4020	80	32	-46	-16276	-780	616	17	-147	204	-7796	4036	13364	-90	139	-225	-16116	-224	-4040	153	-4	147	-16364	736	744	279	-44	9	126	127	8
-8732	-2992	13992	128	-63	-140	-15692	2312	-4088	5	7	2	-16308	-704	424	32	-59	212	-7740	4152	13336	-109	128	-234	-16132	-164	-4036	84	67	117	-16408	684	784	227	-102	23	125	127	8
-8764	-2968	14004	135	-80	-145	-15576	2236	-4228	-132	-17	-50	-16244	-708	396	40	-112	219	-7792	4152	13352	-117	186	-237	-16156	-196	-4192	-42	86	112	-16364	608	748	121	-8	0	124	127	8
-8744	-2932	13980	113	-68	-113	-15652	2256	-4156	-65	-77	-10	-16376	-744	456	29	-181	235	-7812	4148	13456	-47	165	-263	-16196	-136	-4344	29	17	150	-16376	576	456	133	106	7	128	127	8
-8720	-2992	13912	131	-76	-173	-15712	2328	-3984	-126	-60	-30	-16300	-652	636	5	-187	211	-7772	4060	13416	-91	154	-224	-16088	-200	-4312	-15	-1	104	-16320	528	408	91	158	-24	129	127	8
-8772	-3000	14000	114	-61	-154	-15676	2300	-4032	-135	-21	-60	-16308	-612	652	-168	-171	255	-7872	4120	13352	-91	200	-195	-16144	-136	-4216	-34	-77	128	-16344	704	628	41	138	-7	126	127	8
-8764	-2868	14016	178	-89	-128	-15564	2232	-4124	-152	-62	-92	-16372	-664	492	-162	-177	216	-7812	4068	13324	-97	166	-235	-16140	-148	-4056	-18	14	128	-16416	636	604	26	24	24	123	127	8
-8732	-3092	13936	132	-42	-148	-15612	2096	-3976	-257	-38	-33	-16236	-756	580	-192	-163	204	-7788	4108	13360	-119	128	-204	-16076	-160	-4108	63	50	145	-16416	624	820	97	-74	1	126	127	8
-8788	-2848	13996	96	-20	-147	-15556	2340	-4152	-8	-19	-48	-16340	-768	504	-50	-150	201	-7784	4072	13384	-134	161	-235	-16140	-76	-4140	79	54	97	-16396	596	776	127	-71	23	126	127	8
-8760	-2940	13988	103	-63	-160	-15640	2216	-4148	-84	-13	7	-16220	-816	624	37	-96	223	-7780	3972	13464	-50	172	-256	-16064	-220	-4188	79	12	123	-16348	628	680	181	25	23	122	127	8
-8744	-2988	14044	118	14	-141	-15632	2192	-4084	88	-20	8	-16172	-836	576	27	-100	205	-7776	4092	13252	-116	161	-240	-16044	-140	-4272	54	-7	155	-16368	520	560	182	85	26	126	127	8
-8744	-2892	14004	129	-6	-149	-15632	2276	-4084	41	13	11	-16332	-756	848	85	-62	239	-7804	4084	13332	-94	187	-218	-16116	-168	-4120	143	41	113	-16364	584	716	261	119	1	126	127	8
-8708	-2984	13912	144	20	-135	-15624	2296	-3896	41	107	-12	-16032	-708	128	51	132	202	-7796	4064	13480	-141	140	-229	-16068	-160	-4028	176	32	177	-16404	620	1032	277	72	16	123	127	8
-8616	-2988	14004	153	-34	-129	-15676	2264	-3976	165	96	30	-16384	-848	884	51	-137	235	-7816	4088	13304	-80	151	-217	-16076	-192	-4136	125	95	140	-16396	572	904	297	30	17	126	127	8
-8696	-2980	13880	133	-35	-136	-15600	2240	-4000	140	155	44	-16308	-816	840	79	-97	253	-7812	4064	13428	-92	162	-250	-16088	-212	-4224	99	123	172	-16404	544	680	275	68	13	127	127	8
-8768	-2864	13960	153	-63	-123	-15580	2340	-4236	102	131	32	-16412	-648	420	96	-96	223	-7748	4112	13388	-53	149	-230	-16124	-196	-4276	49	145	185	-16384	612	460	273	51	57	125	127	8
-8700	-2872	14008	149	-65	-136	-15660	2252	-4240	48	135	-8	-16296	-616	232	31	-107	265	-7796	4108	13356	-68	188	-217	-16156	-152	-4396	71	107	156	-16444	636	396	230	85	18	123	127	8
-8760	-2820	13960	163	-50	-105	-15604	2492	-4428	18	61	28	-16372	-588	156	33	-168	272	-7860	4064	13352	-88	189	-238	-16100	-152	-4336	77	41	158	-16368	632	260	204	128	-3	128	127	8
-8836	-2880	13928	141	-90	-145	-15664	2348	-4248	-99	-4	17	-16364	-484	188	-26	-134	283	-7768	4064	13308	-58	159	-207	-16144	-236	-4364	90	-24	126	-16424	652	360	190	49	-13	126	127	8
-8728	-2968	13976	107	-40	-148	-15596	2340	-4196	-57	-74	9	-16340	-564	444	-69	-230	232	-7760	4100	13468	-62	181	-180	-16140	-152	-4180	63	-21	145	-16428	688	484	189	-24	32	126	127	8
-8788	-2852	13972	111	-36	-168	-15564	2316	-4148	-93	-124	-46	-16336	-668	584	-62	-210	199	-7796	4092	13312	-68	138	-208	-16060	-132	-4296	33	-33	125	-16348	748	532	118	-78	48	123	127	8
-8692	-2920	13972	96	-82	-171	-15612	2368	-4164	-25	-102	-32	-16344	-664	580	-32	-103	204	-7752	4100	13364	-80	184	-190	-16060	-208	-4244	36	-10	129	-16376	620	632	108	-95	65	126	127	8
-8760	-2872	13940	116	-76	-134	-15584	2300	-4184	-73	-72	-29	-16272	-692	628	-35	-177	245	-7864	4112	13408	-90	145	-195	-16136	-92	-4240	-9	-59	123	-16424	636	424	110	-52	48	124	127	8
-8744	-2900	14004	97	-75	-153	-15664	2208	-4040	-2	-84	-45	-16264	-868	568	83	-155	176	-7808	4104	13352	-66	163	-215	-16132	-164	-4360	80	-21	87	-16380	620	488	203	7	15	126	127	8
-8788	-2924	13968	127	-22	-144	-15584	2264	-4164	-2	-70	-32	-16260	-808	560	66	-92	234	-7780	4184	13304	-104	147	-217	-16116	-152	-4156	128	-100	105	-16412	632	608	210	28	0	123	127	8
-8772	-3016	13932	130	-67	-158	-15652	2296	-4056	-29	-53	-35	-16280	-808	728	35	-93	254	-7816	4176	13288	-92	123	-262	-16052	-164	-4108	106	-63	96	-16424	632	944	242	2	6	127	127	8
-8748	-2968	13884	138	-28	-139	-15596	2260	-4088	19	-7	-26	-16268	-796	772	157	-64	207	-7804	4092	13436	-84	156	-200	-16132	-288	-4148	190	3	105	-16424	588	1024	305	-58	5	125	127	8
-8720	-2980	13996	93	-40	-157	-15600	2312	-3916	85	55	-12	-16292	-712	924	149	-126	238	-7800	4072	13352	-48	115	-253	-16132	-132	-4084	134	56	130	-16448	668	860	285	1	31	124	127	8
-8764	-2936	13960	137	-51	-122	-15636	2292	-4092	150	72	-22	-16196	-696	768	-5	-108	231	-7784	4144	13432	-72	214	-268	-16080	-108	-4308	1	106	107	-16408	692	600	206	71	10	124	127	8
-8768	-2972	14048	136	-25	-131	-15544	2260	-4088	48	97	-34	-16276	-632	692	-83	-61	168	-7844	4080	13516	-91	124	-262	-16144	-116	-4208	85	122	133	-16320	672	476	188	114	-22	131	127	8
-8708	-2936	13976	127	-30	-121	-15600	2340	-4208	33	92	-20	-16356	-556	216	-42	-113	164	-7796	4112	13408	-77	158	-247	-16132	-136	-4396	27	88	82	-16420	640	432	128	129	-50	128	127	8
-8744	-2936	14008	161	-13	-138	-15656	2428	-4284	-51	70	-62	-16372	-616	360	-76	-106	170	-7816	4188	13432	-93	150	-262	-16040	-288	-4248	4	64	128	-16356	628	616	95	77	-79	125	127	8
-8808	-2920	13908	140	-20	-152	-15652	2312	-4328	-61	-8	-59	-16388	-664	156	-110	-84	207	-7824	4020	13340	-51	182	-205	-16108	-84	-4176	29	47	144	-16460	592	604	150	-51	-41	127	127	8
-8688	-2960	13888	125	-34	-128	-15604	2364	-4312	-106	-30	-62	-16304	-676	240	-110	-97	228	-7860	4072	13372	-96	153	-208	-16208	-140	-4216	-34	46	105	-16464	556	532	106	-83	-49	127	127	8
-8756	-2932	14016	139	-60	-133	-15612	2304	-4276	-131	-96	-91	-16284	-620	408	-17	-163	214	-7820	4108	13344	-64	162	-223	-16240	-132	-4392	-36	29	92	-16400	464	460	134	-59	41	127	127	8
-8816	-2952	14048	160	-85	-126	-15532	2288	-4192	-123	-108	-73	-16236	-776	408	32	-128	205	-7776	4132	13420	-84	168	-239	-16136	-216	-4572	46	9	99	-16372	460	212	178	-6	60	123	127	8
-8744	-2948	13960	93	-108	-142	-15604	2272	-4172	-8	-115	-92	-16256	-720	556	69	-130	252	-7828	4096	13332	-52	193	-221	-16076	-220	-4508	102	-57	112	-16372	572	220	217	60	16	130	127	8
-8732	-2892	13860	128	-75	-153	-15588	2248	-4060	23	-117	-68	-16340	-580	616	122	-127	211	-7816	4068	13416	-49	148	-201	-16064	-144	-4384	147	-162	100	-16348	648	328	247	96	16	125	127	8
-8780	-2984	13924	128	-65	-176	-15656	2324	-4080	-16	-87	-77	-16392	-712	596	88	-56	205	-7852	4156	13424	-107	144	-194	-16056	-52	-4188	182	-182	70	-16408	736	648	280	-38	39	125	127	8
-8768	-2988	13972	110	-6	-173	-15608	2256	-4212	15	-118	-138	-16260	-836	564	126	-55	227	-7736	4108	13444	-87	122	-235	-16028	-116	-4016	139	-108	108	-16392	724	792	216	-163	65	125	127	8
-8720	-2976	14056	128	-84	-162	-15640	2280	-3996	12	-58	-56	-16240	-788	704	168	-84	172	-7760	4192	13240	-107	121	-220	-16212	-228	-4048	127	-60	97	-16424	548	1040	296	-221	14	128	127	8
-8692	-2932	13924	131	-25	-138	-15692	2356	-3964	149	-43	-60	-16312	-752	668	183	-130	177	-7836	4068	13440	-120	142	-235	-16148	-240	-4036	117	-17	74	-16376	528	748	300	-136	-25	126	127	8
-8760	-2924	13984	145	-11	-138	-15576	2288	-4040	62	10	-72	-16208	-688	556	191	-189	160	-7804	4068	13328	-118	162	-246	-16160	-176	-4256	92	-11	124	-16352	600	512	290	48	-29	127	127	8
-8668	-2944	13896	137	-54	-118	-15664	2312	-4200	24	-10	-85	-16368	-636	288	8	-76	194	-7776	4120	13452	-105	147	-223	-16100	-132	-4264	89	-12	133	-16460	556	556	266	144	40	126	127	8
-8840	-2992	13960	126	-7	-141	-15608	2344	-4248	-5	-23	-31	-16400	-608	240	-11	-120	196	-7876	4088	13344	-84	157	-217	-16120	-104	-4192	138	-45	117	-16392	672	612	242	96	18	130	127	8
-8748	-2952	13836	106	-11	-153	-15644	2352	-4224	-124	-77	-73	-16336	-652	372	-38	-180	210	-7788	4096	13344	-87	174	-251	-16152	-140	-4260	48	-18	98	-16372	668	680	156	-2	28	127	127	8
-8764	-2912	13860	117	-70	-182	-15616	2312	-4048	-61	-99	-54	-16356	-780	620	66	-184	198	-7788	4112	13320	-154	180	-234	-16116	-184	-4144	107	-11	134	-16476	648	524	169	-105	-25	124	127	8
-8764	-2936	13956	121	-84	-148	-15628	2280	-4096	63	-27	-59	-16324	-628	680	61	-174	192	-7828	4156	13464	-125	135	-216	-16148	-156	-4212	0	21	72	-16404	560	452	124	-149	2	128	127	8
-8792	-2948	13972	118	-31	-165	-15648	2372	-3976	28	-75	-49	-16328	-572	580	-71	-253	176	-7808	4096	13340	-91	149	-239	-16100	-144	-4340	7	-45	124	-16344	524	296	136	-143	-17	125	127	8
-8760	-2952	13932	110	-28	-180	-15652	2252	-4128	-90	-64	-79	-16336	-660	320	-150	-288	175	-7792	4052	13296	-82	139	-268	-16076	-136	-4488	63	-75	128	-16340	528	208	273	-115	-16	125	127	8
-8720	-2900	13960	102	-60	-162	-15612	2316	-4240	57	-101	-78	-16372	-560	212	-103	-369	181	-7832	4100	13388	-80	146	-225	-16180	-120	-4536	58	-121	99	-16448	448	308	304	-142	8	125	127	8
-8744	-2868	13956	104	-36	-133	-15696	2392	-4376	21	-134	-99	-16452	-488	100	-96	-369	139	-7784	4116	13312	-60	144	-213	-16172	-196	-4256	180	-228	110	-16484	484	344	428	-156	39	126	127	8
-8760	-2924	13948	66	-59	-186	-15608	2400	-4380	-78	-227	-109	-16360	-528	60	-155	-305	187	-7804	4116	13384	-48	111	-197	-16092	-168	-4176	270	-284	87	-16432	624	544	492	-264	93	126	127	8
-8700	-2904	14016	75	-65	-149	-15644	2248	-4228	-8	-332	-145	-16376	-812	348	14	-274	164	-7768	4096	13432	-79	148	-195	-16200	-116	-4208	261	-227	90	-16432	684	664	485	-308	164	127	127	8
-8680	-3004	13904	71	-65	-165	-15720	2228	-4144	16	-363	-108	-16316	-1004	708	139	-159	183	-7824	4132	13396	-68	148	-214	-16112	-212	-4128	287	-241	144	-16396	548	808	506	-389	143	127	127	8
-8780	-3108	13732	74	-35	-152	-15612	2140	-4156	426	-408	-134	-16176	-1016	836	398	-34	192	-7812	4108	13428	-75	156	-237	-16172	-104	-4124	270	-217	112	-16348	592	796	458	-315	181	128	127	8
-8780	-3040	13776	70	-5	-163	-15684	2248	-3860	126	-326	-66	-16204	-928	588	492	114	225	-7780	4112	13516	-32	128	-245	-16156	-236	-4240	138	-173	156	-16272	472	636	416	-24	87	128	127	8
-8840	-3000	13992	91	-15	-161	-15572	2024	-3792	359	-240	4	-16120	-1020	1388	573	29	250	-7916	3756	13416	-81	139	-198	-16100	-312	-4028	314	-225	164	-16272	740	772	449	108	70	126	127	8
-8792	-2924	13816	130	-58	-152	-15544	2236	-3776	262	-73	-13	-16148	-752	1328	554	149	243	-7716	4344	13320	-67	106	-244	-16192	-172	-3884	36	-152	156	-16296	708	1092	205	223	48	127	127	8
-8720	-3032	13912	148	-60	-130	-15584	2128	-3784	203	46	-7	-16196	-864	1316	374	51	221	-7788	4308	13276	-78	141	-197	-16076	-172	-3828	206	-32	126	-16440	736	1572	285	131	46	124	127	8
-8652	-3008	13876	142	-11	-138	-15632	2112	-3800	142	181	56	-16168	-820	912	110	68	228	-7736	4192	13456	-94	143	-190	-16168	-192	-3780	57	96	116	-16492	644	1496	211	149	17	128	127	8
-8656	-2936	13920	166	-22	-101	-15664	2248	-4056	53	218	105	-16348	-696	628	-79	65	264	-7788	4116	13372	-114	191	-224	-16224	-248	-3884	-33	253	165	-16336	656	1412	108	154	20	124	127	8
-8772	-2880	13992	176	-20	-54	-15588	2312	-4364	-202	172	82	-16380	-664	700	-187	-102	340	-7732	4008	13528	-74	202	-264	-16256	-264	-3976	2	338	192	-16372	580	1040	85	275	-10	127	127	8
-8844	-2964	13976	184	-56	-81	-15608	2240	-4216	-277	158	87	-16388	-612	260	-244	-12	406	-7824	4124	13332	-77	200	-273	-16208	-40	-4236	8	357	138	-16428	668	688	-45	324	64	127	127	8
-8792	-2928	14004	188	-44	-104	-15648	2380	-4232	-281	167	33	-16524	-688	424	-165	-20	335	-7832	4116	13480	-80	210	-266	-16020	-172	-4184	-135	405	123	-16316	600	508	-92	355	119	123	127	8
-8708	-3000	14052	175	-40	-101	-15636	2292	-4156	-147	131	71	-16376	-620	488	-42	-22	255	-7872	4096	13348	-98	182	-243	-16084	-244	-4268	-5	364	183	-16352	656	380	-113	346	84	126	127	8
-8708	-2912	13872	141	-20	-105	-15564	2344	-4200	-195	147	39	-16200	-548	424	-112	-113	219	-7864	3912	13344	-110	186	-197	-15988	-108	-4212	-31	364	147	-16272	760	268	-120	302	37	129	127	8
-8756	-2936	13884	154	-69	-141	-15552	2328	-4364	-160	136	-5	-16248	-572	372	-189	-100	240	-7796	4056	13372	-84	191	-272	-16132	-216	-4364	-232	271	150	-16420	740	200	-27	228	-8	128	127	8
-8800	-2848	13928	156	-65	-117	-15648	2424	-4320	-118	70	-11	-16248	-716	124	-82	-55	279	-7780	4080	13432	-60	172	-217	-16144	44	-4392	-172	149	133	-16472	644	-56	80	210	-15	125	127	8
-8760	-2884	13980	126	-75	-128	-15632	2368	-4388	-18	4	27	-16404	-712	340	42	4	273	-7876	4124	13380	-85	145	-224	-16124	-52	-4520	-183	129	109	-16436	608	-224	100	60	8	130	127	8
-8752	-2972	14004	151	-65	-149	-15668	2376	-4280	6	-15	-10	-16468	-764	284	91	28	272	-7808	4072	13452	-92	127	-199	-16084	-112	-4520	138	-53	118	-16432	556	224	113	16	89	122	127	8
-8792	-3024	13836	159	-108	-121	-15688	2264	-4288	-86	-75	11	-16328	-580	416	156	-66	228	-7820	4076	13328	-90	132	-226	-16064	-256	-4368	86	-102	131	-16396	544	340	179	0	98	122	127	8
-8704	-2772	14020	163	-63	-147	-15612	2388	-4132	-38	-42	21	-16188	-548	196	23	8	205	-7764	4108	13416	-89	129	-239	-16140	-216	-4228	119	-117	147	-16344	524	644	242	-31	87	127	127	8
-8768	-2936	14012	191	-83	-101	-15588	2428	-4212	-210	-84	7	-16500	-656	1148	71	-314	285	-7828	4060	13392	-105	136	-199	-16136	-172	-4224	93	-148	164	-16492	608	564	278	53	57	126	127	8
-8724	-2940	14036	135	-75	-142	-15644	2272	-4060	-79	-77	-10	-16400	-672	468	61	-210	257	-7836	4068	13448	-70	150	-187	-16056	-276	-4268	72	-118	154	-16440	528	664	322	46	47	119	127	8
-8768	-2900	14016	132	-35	-169	-15700	2388	-4248	-34	-81	-24	-16440	-608	292	115	-189	270	-7796	4088	13312	-38	132	-171	-16096	-104	-4336	59	-89	178	-16524	624	680	212	77	60	132	127	8
-8796	-2884	13876	151	8	-152	-15628	2372	-4392	51	-154	-13	-16368	-440	228	27	-131	224	-7828	4080	13376	-66	147	-215	-16076	-164	-4180	30	-62	177	-16360	836	492	148	-26	85	125	127	8
-8772	-2960	13996	146	-72	-140	-15652	2480	-4268	-139	-171	-39	-16228	-624	304	-12	-178	263	-7796	4092	13276	-77	161	-203	-16184	-64	-4200	51	-51	159	-16328	880	600	158	-22	88	128	127	8
-8696	-2948	13916	110	-84	-189	-15580	2332	-4208	-108	-160	-77	-16344	-728	792	-113	-313	270	-7816	4164	13328	-60	129	-218	-16092	-160	-4264	-42	-65	132	-16328	828	492	99	-48	42	123	127	8
-8676	-2968	13936	154	-114	-161	-15688	2364	-4044	-129	-160	-47	-16356	-624	712	-29	-172	198	-7808	4164	13376	-91	154	-209	-16064	-88	-4180	-52	-46	133	-16316	748	472	69	-51	-15	125	127	8
-8720	-2880	14028	108	-112	-174	-15668	2364	-4060	-230	-92	-28	-16416	-728	1064	-197	-377	244	-7856	4128	13368	-92	128	-201	-16100	-136	-4332	-89	-62	136	-16384	692	576	23	-72	-31	127	127	8
-8780	-2936	13928	133	-66	-165	-15660	2384	-4104	-161	-86	-56	-16264	-716	536	-135	-285	158	-7820	4088	13404	-112	141	-234	-16076	-172	-4148	-44	-46	126	-16376	704	536	24	-22	-23	125	127	8
-8720	-2888	13900	101	-73	-167	-15644	2416	-4268	-248	-180	-84	-16244	-760	4	-63	-131	226	-7880	4132	13448	-111	143	-219	-16200	-104	-4216	-57	-85	103	-16400	616	580	83	-4	-19	126	127	8
-8760	-2820	13980	96	-93	-187	-15524	2340	-4324	-251	-163	-117	-16368	-660	524	-194	-176	232	-7804	4136	13376	-141	176	-224	-16164	-180	-4324	3	-63	99	-16444	596	492	93	-8	-22	127	127	8
-8720	-2892	14024	114	-71	-180	-15720	2292	-4028	-46	-140	-65	-16220	-748	828	-48	-183	229	-7724	4016	13352	-95	168	-232	-16104	-148	-4244	43	-69	191	-16420	544	500	121	65	0	127	127	8
-8748	-2940	13900	93	-118	-168	-15628	2368	-3984	-114	-163	-84	-16276	-712	916	9	-243	191	-7836	4068	13376	-64	130	-229	-16080	-168	-4224	38	-65	113	-16376	628	564	129	60	19	125	127	8
-8684	-3004	14056	110	-6	-186	-15648	2316	-4076	41	-52	-48	-16320	-772	636	-41	-183	196	-7844	4128	13404	-105	142	-253	-16088	-168	-4172	35	-66	144	-16400	648	608	126	-26	24	126	127	8
-8788	-2924	13920	113	-59	-137	-15612	2284	-4196	-115	-13	-52	-16296	-728	236	-68	-204	197	-7788	4112	13316	-95	128	-246	-16088	-160	-4312	71	-11	147	-16416	652	712	188	-112	25	127	127	8
-8748	-2964	13984	151	-25	-102	-15648	2352	-4136	-1	-75	-6	-16332	-644	432	85	-171	181	-7828	4128	13316	-89	121	-196	-16112	-120	-4192	107	-19	165	-16400	680	664	296	-129	3	129	127	8
-8716	-2844	14028	125	-42	-155	-15700	2400	-4184	88	-128	-24	-16392	-592	368	194	-145	155	-7792	4140	13432	-97	135	-207	-16192	-76	-4212	80	-18	135	-16424	636	516	282	-86	21	127	127	8
-8756	-2916	13964	124	-28	-130	-15668	2388	-4180	5	-106	-34	-16400	-668	436	136	-144	240	-7852	4152	13360	-101	122	-244	-16156	-208	-4356	120	-45	122	-16404	604	428	304	-27	13	127	127	8
-8752	-2976	13868	137	-78	-168	-15632	2328	-4076	7	-92	-73	-16304	-576	684	56	-162	234	-7792	4164	13388	-83	137	-235	-16088	-128	-4340	144	-92	148	-16348	632	500	321	-33	-35	128	127	8
-8720	-2968	13956	89	-94	-152	-15620	2284	-3948	-59	-80	-70	-16340	-632	624	-86	-244	216	-7788	4112	13448	-104	118	-239	-16096	-164	-4252	85	-122	126	-16408	652	348	219	-9	-1	126	127	8
-8812	-2952	13996	140	-67	-128	-15664	2288	-4160	-41	-69	-71	-16300	-696	592	-44	-214	174	-7752	4144	13348	-86	165	-212	-16024	-112	-4176	47	-125	115	-16404	692	572	133	-73	36	126	127	8
-8708	-2976	14028	138	-47	-138	-15540	2300	-3968	-69	-49	-64	-16312	-712	608	47	-220	110	-7828	4096	13292	-101	140	-229	-16036	-88	-4132	45	-110	125	-16392	652	580	108	-79	19	124	127	8
-8784	-2968	13860	109	-69	-150	-15580	2344	-4048	-74	-69	-61	-16344	-668	552	34	-242	143	-7820	4188	13320	-100	101	-226	-16144	-96	-4044	-6	-86	112	-16400	644	556	107	-137	21	124	127	8
-8672	-2956	13972	135	-27	-136	-15584	2340	-3812	-23	-8	-19	-16284	-680	848	41	-441	124	-7820	4032	13420	-95	138	-217	-16128	-188	-4324	-58	-97	124	-16428	516	416	133	-120	10	125	127	8
-8760	-2964	13880	129	-44	-172	-15560	2288	-3872	88	106	-50	-16236	-876	872	67	-524	58	-7792	4136	13316	-89	148	-229	-16096	-324	-4304	-19	-134	148	-16408	532	440	219	-17	34	124	127	8
-8760	-3048	13988	161	-27	-145	-15568	2140	-4192	265	192	-14	-16188	-796	488	191	-493	95	-7816	4144	13348	-93	164	-194	-16128	-28	-4456	-24	-212	137	-16408	592	452	169	-43	89	121	127	8
-8824	-2868	14044	151	-118	-163	-15592	2416	-4304	121	166	10	-16248	-608	200	180	-444	62	-7820	4016	13348	-100	118	-174	-16068	-220	-4320	-2	-185	172	-16412	540	488	156	-120	81	127	127	8
-8660	-2880	13944	170	-94	-143	-15744	2332	-4480	-224	64	-10	-16384	-680	-140	-44	-349	119	-7840	4064	13384	-57	165	-204	-16120	-76	-4208	97	-220	190	-16480	664	584	207	-186	95	126	127	8
-8784	-2888	13892	143	-67	-147	-15664	2348	-4492	-107	-54	2	-16532	-684	248	126	-331	149	-7800	4116	13360	-66	134	-207	-16052	-184	-4124	-1	-140	171	-16460	604	768	193	-219	158	127	127	8
-8724	-2896	13920	143	-57	-158	-15676	2416	-4308	-48	-163	11	-16424	-576	480	319	-336	203	-7772	4164	13440	-71	102	-180	-16148	-192	-4228	122	-167	200	-16356	632	676	329	-291	146	126	127	8
-8684	-2880	14020	153	-120	-131	-15636	2352	-4076	-10	-197	-18	-16300	-584	696	348	-328	221	-7752	4144	13324	-75	155	-201	-16188	-92	-4164	87	-142	193	-16460	688	696	318	-155	146	126	127	8
-8704	-2852	13920	122	-155	-182	-15716	2296	-4056	65	-133	-8	-16344	-700	784	224	-313	162	-7800	4124	13388	-59	158	-205	-16152	-176	-4240	63	-172	210	-16348	648	576	311	-80	88	122	127	8
-8724	-2900	14008	126	-78	-177	-15672	2392	-4048	17	-105	-34	-16224	-676	688	98	-371	192	-7792	4084	13404	-55	129	-208	-16144	-132	-4248	125	-198	203	-16412	720	456	322	-16	93	123	127	8
-8740	-2940	13892	147	-92	-138	-15648	2336	-4192	-48	-141	-34	-16328	-736	464	-29	-287	228	-7792	4152	13268	-19	159	-209	-16084	-36	-4160	153	-186	171	-16408	820	556	305	-74	51	124	127	8
-8780	-2864	14028	116	-26	-133	-15660	2364	-4280	89	-196	-59	-16388	-656	372	58	-220	200	-7792	4164	13504	-63	117	-242	-16140	-8	-4096	105	-161	192	-16348	804	844	187	-217	87	130	127	8
-8724	-2932	13924	99	-93	-142	-15644	2488	-4300	-36	-220	7	-16364	-508	508	75	-215	243	-7792	4148	13440	-74	107	-199	-16152	-92	-3900	178	-110	166	-16384	816	860	166	-303	122	123	127	8
-8744	-2916	13912	103	-109	-180	-15624	2376	-4024	-140	-256	-53	-16340	-648	680	-52	-306	232	-7776	4136	13412	-116	109	-218	-16156	-12	-4028	-21	-45	159	-16308	700	780	81	-294	103	126	127	8
-8760	-2924	13876	126	-107	-157	-15636	2244	-3864	-209	-199	-48	-16304	-748	812	-76	-252	243	-7836	4044	13384	-111	122	-223	-16096	-240	-4100	-59	-53	138	-16368	568	832	120	-130	75	131	127	8
-8752	-2948	13976	141	-45	-173	-15608	2252	-3984	-135	-178	-57	-16236	-704	900	-54	-244	181	-7764	4104	13456	-104	162	-192	-16200	-128	-4228	-30	-77	181	-16408	608	672	155	-27	2	125	127	8
-8788	-2932	13980	114	-60	-156	-15676	2308	-4020	-132	-118	-30	-16152	-708	672	-116	-240	227	-7808	4104	13368	-105	153	-195	-16112	-128	-4224	-27	-47	189	-16392	708	480	91	52	53	125	127	8
-8796	-2916	13976	101	-57	-156	-15624	2332	-4140	-115	-169	-57	-16256	-700	512	-61	-190	229	-7836	4140	13452	-76	144	-193	-16140	-84	-4104	77	-93	181	-16436	780	776	156	-17	68	122	127	8
-8736	-2904	13940	130	-118	-174	-15596	2436	-4124	-73	-232	-38	-16320	-672	464	59	-215	209	-7856	4156	13424	-84	188	-215	-16112	-152	-4048	118	-68	191	-16428	800	892	168	-161	110	128	127	8
-8740	-2912	13948	94	-59	-171	-15636	2392	-3916	-107	-238	-37	-16260	-696	824	32	-234	259	-7820	4160	13244	-50	135	-212	-16128	-84	-4084	108	-25	155	-16372	804	804	208	-280	88	126	127	8
-8664	-2924	14056	136	-95	-154	-15652	2304	-3964	-36	-180	-47	-16232	-744	1044	50	-199	238	-7792	4044	13388	-89	148	-219	-16192	-100	-4060	91	-7	165	-16340	684	716	227	-234	49	124	127	8
-8752	-3016	13960	101	-51	-177	-15644	2300	-3964	-41	-88	-46	-16244	-744	976	-10	-180	250	-7856	4092	13356	-103	166	-220	-16188	-56	-4208	42	-37	141	-16356	688	548	232	-56	10	124	127	8
-8656	-2948	13920	131	-38	-142	-15696	2296	-3956	29	-99	-30	-16288	-644	644	49	-135	187	-7744	4188	13440	-69	151	-252	-16232	-24	-4248	40	-24	163	-16336	752	500	252	37	26	133	127	8
-8748	-2952	14004	123	-36	-101	-15668	2332	-4256	142	-115	-50	-16400	-660	324	88	-113	180	-7816	4156	13416	-63	168	-221	-16120	-32	-4224	138	-127	122	-16432	812	632	171	51	12	126	127	8
-8724	-2896	13880	107	-3	-136	-15620	2480	-4348	-38	-160	-66	-16284	-612	312	72	-10	218	-7788	4100	13292	-68	128	-218	-16068	-72	-4116	174	-70	130	-16424	784	700	221	-61	35	124	127	8
-8716	-2980	14000	98	-24	-165	-15672	2340	-4164	-33	-199	-84	-16336	-748	292	96	74	275	-7760	4096	13360	-131	123	-227	-16116	-156	-3948	163	-48	107	-16348	712	1000	198	-134	9	126	127	8
-8728	-2976	13892	107	-86	-188	-15696	2268	-3972	72	-213	-63	-16288	-632	480	141	126	274	-7724	4128	13420	-117	118	-229	-16168	-60	-3876	133	39	107	-16428	724	904	197	-102	35	123	127	8
-8612	-2892	14004	97	-90	-161	-15700	2356	-3796	43	-213	-70	-16172	-568	648	115	97	231	-7720	4060	13448	-141	146	-242	-16244	-192	-4120	52	60	114	-16404	608	756	193	-37	-5	127	127	8
-8672	-2952	14076	100	-23	-150	-15728	2268	-3740	-53	-74	-39	-16188	-776	1052	35	-60	198	-7848	4080	13344	-115	167	-245	-16164	-252	-4204	45	43	130	-16352	624	560	150	70	-17	126	127	8
-8784	-2968	13928	166	-41	-118	-15596	2368	-4060	15	-13	-49	-16348	-664	748	22	-127	199	-7800	4112	13380	-59	195	-240	-16196	-12	-4260	27	-29	141	-16420	692	536	159	123	-52	126	127	8
-8716	-2856	14056	133	-45	-169	-15684	2396	-4020	-148	-11	-16	-16336	-640	648	-78	-147	220	-7780	4076	13360	-47	175	-220	-16156	-52	-4204	103	-19	92	-16372	732	548	176	126	-30	125	127	8
-8744	-2940	13996	120	-66	-149	-15624	2440	-4088	-99	-1	-50	-16304	-616	644	33	-128	176	-7824	4168	13304	-66	152	-223	-16160	-36	-4152	70	-21	90	-16344	792	748	114	55	-4	125	127	8
-8716	-2940	13988	174	-75	-135	-15656	2388	-4072	-138	5	-63	-16336	-624	608	60	-70	171	-7828	4128	13384	-97	94	-175	-16036	4	-4040	107	1	107	-16372	804	964	115	-63	-8	126	127	8
-8720	-2884	13896	118	-90	-172	-15636	2240	-4040	-123	-9	-20	-16340	-740	580	21	-88	154	-7764	4156	13348	-124	90	-258	-16156	-60	-4156	61	37	80	-16352	728	848	138	-116	7	126	127	8
-8712	-2900	13968	123	-107	-173	-15664	2320	-3952	-137	23	-28	-16236	-740	708	38	-113	210	-7764	4112	13452	-122	156	-249	-16264	-72	-4256	-8	71	89	-16468	744	664	197	-39	3	125	127	8
-8740	-2912	13996	155	-102	-143	-15556	2332	-4064	-147	56	-27	-16328	-784	700	42	-131	167	-7808	4100	13276	-113	169	-255	-16140	-124	-4324	65	-18	121	-16340	584	556	150	69	-30	123	127	8
-8744	-2948	14036	179	-114	-142	-15612	2328	-3960	-87	77	-26	-16232	-776	712	94	-149	148	-7800	4116	13444	-43	157	-219	-16204	-152	-4340	53	-41	101	-16420	564	448	145	87	-6	123	127	8
-8736	-2928	13932	158	-85	-143	-15664	2332	-4016	-42	70	-37	-16248	-640	532	289	-75	88	-7772	4124	13348	-107	144	-222	-16076	-112	-4232	125	-44	98	-16380	708	664	150	91	3	125	127	8
-8708	-2960	13980	180	-135	-148	-15600	2404	-4116	-34	69	-27	-16324	-716	744	165	-169	125	-7860	4084	13416	-137	108	-228	-16112	-4	-3996	123	-44	114	-16312	752	872	135	-33	47	128	127	8
-8720	-2964	13920	176	-131	-148	-15620	2248	-3848	-308	86	3	-16280	-672	648	104	-130	122	-7772	4156	13384	-126	138	-249	-16120	-72	-4076	50	4	72	-16392	712	984	177	-136	40	127	127	8
-8736	-3004	14096	167	-121	-104	-15628	2316	-4140	-141	95	-33	-16288	-584	568	128	-149	110	-7812	4100	13316	-97	128	-275	-16108	-156	-4120	65	31	123	-16424	572	740	232	-161	31	130	127	8
-8732	-2948	13972	178	-152	-165	-15644	2496	-4112	-184	123	-25	-16344	-552	520	14	-160	116	-7776	4144	13364	-70	142	-265	-16220	-252	-4348	35	65	100	-16368	580	552	201	-87	-27	127	127	8
-8816	-3096	13876	188	-107	-115	-15624	2352	-4272	-69	45	0	-16296	-848	460	-28	-98	156	-7800	4064	13424	-123	148	-224	-16124	-224	-4228	56	-4	116	-16344	532	536	203	13	-37	126	127	8
-8784	-2964	14000	166	-80	-115	-15720	2492	-4176	-89	-18	-11	-16380	-784	348	115	-40	187	-7792	4096	13408	-71	155	-216	-16028	-156	-4216	121	-49	148	-16424	600	476	228	79	-33	130	127	8
-8656	-2924	14088	172	-112	-191	-15676	2304	-4008	-49	-74	-35	-16268	-708	488	180	-70	175	-7768	4092	13440	-114	153	-212	-16164	-52	-4128	180	-39	106	-16424	684	792	241	-4	44	126	127	8
-8648	-2872	13984	127	-106	-158	-15632	2404	-3916	-16	-61	-39	-16284	-712	652	209	-101	186	-7828	4152	13444	-118	147	-219	-16128	-140	-4076	114	24	109	-16404	704	716	226	-12	31	124	127	8
-8652	-2928	13980	128	-120	-165	-15684	2360	-3988	10	-23	-43	-16312	-704	876	102	-150	239	-7812	4064	13316	-112	139	-227	-16080	-128	-4092	143	34	135	-16420	720	880	288	-115	40	122	127	8
-8640	-2888	14020	124	-25	-142	-15684	2384	-4056	82	5	-68	-16224	-836	772	99	-64	231	-7744	4212	13392	-72	133	-228	-16216	-160	-4120	151	44	159	-16512	716	828	340	-210	30	120	127	8
-8696	-2928	13956	126	-107	-142	-15656	2276	-4020	203	-24	-37	-16288	-752	432	132	-30	221	-7712	4320	13308	-72	167	-244	-16252	4	-4244	-75	84	126	-16360	632	464	281	-6	30	128	127	8
-8704	-2896	13952	85	-32	-126	-15648	2476	-4204	270	-11	-48	-16324	-604	516	201	-56	207	-7828	4100	13368	-55	206	-211	-16092	-332	-4480	224	17	124	-16440	656	356	440	13	-1	126	127	8
-8732	-2944	13948	91	69	-142	-15688	2296	-4196	421	-123	-26	-16400	-584	512	154	-40	254	-7792	4100	13352	-40	172	-221	-16096	12	-4292	165	-139	149	-16372	656	484	384	78	-2	127	127	8
-8684	-2860	14024	82	42	-177	-15612	2600	-4132	145	-111	-9	-16304	-496	412	175	-68	249	-7848	4100	13372	-84	128	-220	-16084	-168	-4264	258	-60	117	-16396	704	676	426	-19	-6	123	127	8
-8740	-2996	13976	102	-15	-137	-15624	2352	-4196	24	-142	-43	-16260	-588	564	-36	-103	275	-7832	4172	13396	-83	95	-196	-16076	-8	-4060	238	-128	138	-16432	736	760	371	-165	43	126	127	8
-8704	-2856	13948	116	7	-197	-15700	2240	-3968	34	-134	-75	-16288	-824	692	-60	-89	263	-7772	4096	13380	-55	138	-209	-16200	-92	-4012	246	-17	101	-16400	764	880	345	-178	30	124	127	8
-8592	-2932	14080	84	-48	-150	-15556	2220	-4024	158	-107	-96	-16260	-772	724	119	-153	254	-7736	4060	13372	-77	183	-239	-16144	-68	-4052	217	-23	99	-16472	708	724	314	-89	61	127	127	8
-8712	-2908	13932	104	25	-147	-15696	2404	-4052	249	-74	-61	-16360	-764	412	167	-102	221	-7816	4100	13388	-90	161	-235	-16200	-92	-4128	82	-23	116	-16404	644	524	240	-25	30	129	127	8
-8768	-2892	13936	123	-26	-144	-15560	2380	-4212	103	-86	-89	-16248	-752	596	99	-54	221	-7772	4064	13404	-89	147	-219	-16096	-184	-4204	124	-40	157	-16368	664	580	280	52	10	127	127	8
-8716	-2968	14076	113	-69	-165	-15692	2264	-3868	162	-106	-28	-16300	-752	724	167	-143	230	-7740	4060	13332	-66	141	-212	-16144	-140	-4204	170	-76	141	-16432	632	640	237	-13	11	124	127	8
-8616	-2968	14040	109	-1	-113	-15732	2392	-3984	182	-59	-53	-16288	-656	792	118	-148	203	-7808	4088	13376	-80	125	-202	-16156	-140	-4108	142	-46	156	-16392	732	848	241	-26	18	127	127	8
-8680	-2904	13944	121	7	-147	-15596	2400	-4184	147	-77	-8	-16332	-556	712	62	-115	225	-7716	4120	13276	-77	155	-199	-16136	-60	-4096	150	-19	110	-16388	796	852	269	-108	26	124	127	8
-8804	-2900	13952	130	-40	-153	-15620	2372	-4132	-52	-108	-102	-16324	-656	412	-194	-156	273	-7772	4128	13396	-119	152	-258	-16148	-148	-4080	57	-5	142	-16380	704	772	294	-83	32	127	127	8
-8740	-2920	13916	116	-57	-176	-15700	2312	-4140	-46	-130	-68	-16304	-732	496	-91	-219	237	-7792	4156	13328	-88	151	-226	-16216	-92	-4408	82	-15	139	-16472	712	572	316	-59	5	128	127	8
-8632	-2916	14000	115	-38	-191	-15660	2248	-3944	42	-115	-51	-16368	-728	628	-5	-196	231	-7748	4176	13424	-40	169	-233	-16240	-124	-4440	31	-56	150	-16496	632	360	241	68	4	126	127	8
-8740	-3012	13904	84	-44	-123	-15628	2448	-4072	-25	-153	-70	-16352	-708	560	189	-140	225	-7808	4072	13332	-77	212	-257	-16080	-224	-4328	90	-120	130	-16400	572	456	190	86	75	126	127	8
-8656	-3044	13924	74	18	-157	-15648	2196	-4004	112	-122	-40	-16220	-740	636	79	-94	240	-7792	4136	13388	-67	170	-185	-16048	-92	-4264	156	-180	131	-16376	604	688	226	-19	53	126	127	8
-8716	-2888	13940	116	-42	-117	-15612	2356	-4008	125	-143	-16	-16252	-640	740	169	-93	222	-7800	4104	13328	-62	162	-195	-16084	-88	-4012	137	-116	134	-16344	780	1004	211	-123	52	125	127	8
-8680	-2888	13988	125	-67	-163	-15612	2340	-4044	27	-100	-28	-16244	-652	556	15	-180	209	-7776	4168	13424	-86	147	-146	-16132	-88	-3960	116	-19	124	-16328	772	964	226	-182	53	128	127	8
-8708	-2872	14020	112	-55	-158	-15600	2348	-4064	57	-112	-59	-16272	-720	708	44	-228	235	-7844	4160	13280	-93	143	-231	-16076	-96	-4000	67	-16	150	-16376	756	984	241	-127	94	127	127	8
-8708	-2916	13988	114	-39	-158	-15624	2320	-3968	-25	-61	-68	-16300	-692	696	133	-168	179	-7784	4084	13368	-73	187	-238	-16168	-40	-4152	55	11	121	-16364	748	788	180	-2	56	128	127	8
-8644	-2980	14024	124	-72	-184	-15700	2292	-3988	-103	-76	-40	-16260	-784	636	67	-114	220	-7780	4164	13408	-67	148	-213	-16104	-160	-4140	53	-6	144	-16400	716	648	146	58	20	128	127	8
-8712	-2936	13976	148	-75	-132	-15664	2256	-3980	-54	-51	22	-16340	-660	628	87	-125	195	-7832	4116	13440	-97	147	-208	-16120	-136	-4136	109	-32	118	-16380	740	732	177	75	1	125	127	8
-8736	-2944	13872	151	-60	-123	-15572	2340	-3996	-118	-49	-13	-16264	-660	584	-59	-195	206	-7848	4084	13376	-99	129	-263	-16132	-128	-3980	31	17	124	-16352	780	860	120	19	-2	129	127	8
-8664	-2952	13948	126	-78	-158	-15644	2336	-3880	-175	-45	-16	-16312	-596	732	-242	-228	218	-7800	4120	13392	-44	128	-185	-16180	-144	-3976	-17	42	140	-16332	692	900	100	-72	10	131	127	8
-8680	-2868	13952	155	-67	-131	-15584	2392	-4016	-105	-4	-37	-16336	-612	604	-217	-217	209	-7844	4132	13364	-88	115	-208	-16172	-112	-4088	-50	98	158	-16420	764	732	75	-57	-4	125	127	8
-8788	-2988	13968	124	-6	-153	-15756	2356	-4040	-98	-67	-39	-16300	-728	544	-198	-181	208	-7784	4084	13384	-105	175	-267	-16192	-84	-4188	-53	116	132	-16420	692	580	39	-13	3	120	127	8
-8728	-2952	13948	142	-48	-122	-15656	2320	-4148	-64	-50	-55	-16264	-740	384	-153	-106	217	-7772	4148	13344	-81	181	-221	-16100	-68	-4220	-110	75	110	-16416	636	404	6	107	24	127	127	8
-8756	-2904	13936	135	-46	-158	-15664	2312	-4200	-30	-97	-35	-16348	-688	560	-62	-187	250	-7868	4104	13392	-77	170	-248	-16140	-152	-4312	-13	-9	111	-16368	708	508	74	172	24	126	127	8
-8688	-2940	13992	126	-35	-176	-15544	2348	-3900	-168	-85	-52	-16272	-644	720	-136	-200	203	-7804	4064	13368	-83	124	-208	-16088	-112	-4216	31	-74	90	-16404	636	496	65	111	19	125	127	8
-8724	-2940	13916	93	-4	-139	-15668	2240	-3952	-99	-53	-37	-16252	-808	764	-107	-187	211	-7824	4140	13404	-96	139	-226	-16040	-148	-4100	41	-29	139	-16412	660	664	105	-50	50	126	127	8
-8724	-2952	13872	123	-68	-109	-15632	2352	-4156	-67	-23	-16	-16248	-744	608	-67	-118	198	-7800	4104	13400	-92	167	-237	-16124	-144	-4088	54	-48	136	-16344	600	856	169	-143	51	124	127	8
-8684	-2920	14056	112	-53	-174	-15676	2292	-4080	-91	-62	-9	-16284	-764	608	-34	-52	269	-7800	4068	13388	-108	115	-226	-16160	-76	-4140	83	9	129	-16440	692	756	186	-116	61	127	127	8
-8776	-2904	13932	148	-66	-108	-15656	2272	-3972	-74	-41	-7	-16332	-748	648	93	-114	250	-7772	4156	13364	-113	142	-240	-16056	-140	-4172	87	27	162	-16360	636	548	212	-11	71	126	127	8
-8696	-2944	13824	155	-77	-137	-15612	2292	-3940	-17	-32	-15	-16320	-720	640	133	-167	252	-7776	4084	13384	-82	121	-219	-16204	-116	-4408	77	-6	134	-16432	656	632	230	100	95	128	127	8
-8668	-2952	13928	140	-39	-126	-15640	2460	-4024	-4	-22	-15	-16192	-680	772	96	-145	261	-7740	4068	13376	-74	127	-224	-16152	-132	-4280	73	-30	166	-16376	680	668	278	128	62	123	127	8
-8708	-2916	13952	152	-98	-147	-15664	2332	-3996	-54	-14	-7	-16360	-688	668	45	-89	250	-7840	4116	13448	-97	143	-211	-16084	-168	-4096	132	-71	207	-16312	776	824	252	67	39	129	127	8
-8772	-2940	14008	117	-62	-147	-15656	2372	-3964	-109	-37	15	-16324	-552	620	60	-132	204	-7812	4140	13448	-78	126	-235	-16172	-12	-4068	107	-16	158	-16384	848	908	222	-50	28	126	127	8
-8716	-2920	14020	99	-36	-202	-15636	2380	-3964	-129	0	-37	-16336	-604	660	-41	-130	227	-7772	4148	13448	-116	127	-220	-16104	-72	-4080	70	35	137	-16408	756	848	159	-84	49	126	127	8
-8684	-2992	13996	113	-53	-167	-15660	2436	-3872	-154	-2	-32	-16324	-612	632	-10	-136	221	-7796	4112	13384	-111	161	-238	-16120	-36	-4240	-22	75	122	-16364	768	640	122	-82	19	125	127	8
-8728	-2948	13996	111	-117	-139	-15656	2372	-4048	-56	-6	-14	-16368	-600	428	-93	-162	200	-7808	4032	13372	-115	155	-200	-16232	-116	-4324	-3	29	131	-16356	800	580	126	-9	21	128	127	8
-8736	-2896	14040	87	-30	-157	-15684	2368	-4156	-180	-23	-33	-16368	-592	388	-121	-177	179	-7832	4080	13432	-90	147	-243	-16184	-100	-4312	4	11	140	-16368	688	540	96	40	-12	123	127	8
-8712	-2916	13984	119	-63	-134	-15692	2416	-4136	-128	-117	-38	-16396	-644	392	-9	-171	200	-7704	4132	13392	-121	141	-181	-16204	-88	-4292	9	-33	89	-16400	776	540	95	62	-27	126	127	8
-8744	-2896	13976	121	-112	-165	-15612	2408	-4232	-209	-103	-49	-16308	-616	464	-70	-121	182	-7744	4112	13376	-82	157	-224	-16132	-72	-4132	-59	-27	105	-16468	792	528	114	-24	25	128	127	8
-8760	-2972	13980	112	-86	-151	-15664	2372	-3928	-194	-148	-80	-16360	-672	712	3	-209	205	-7772	4144	13420	-117	152	-230	-16176	-180	-4224	14	-109	90	-16384	680	628	138	-58	-12	127	127	8
-8728	-2872	13956	111	-117	-144	-15696	2384	-3952	-136	-87	-41	-16332	-564	668	21	-188	207	-7844	4096	13368	-93	135	-227	-16120	-72	-4236	45	-84	118	-16420	628	528	110	-106	35	124	127	8
-8668	-2912	13980	134	-82	-188	-15676	2320	-3936	-80	-119	-72	-16440	-712	1332	27	-389	195	-7768	4148	13376	-99	146	-191	-16152	-84	-4184	27	-97	78	-16392	688	668	187	-68	38	130	127	8
-8844	-2936	13988	150	-101	-150	-15524	2356	-4052	-164	-86	-40	-16256	-700	600	-19	-183	217	-7788	4104	13308	-116	121	-209	-16144	-92	-4188	71	-66	123	-16308	728	648	213	-67	54	124	127	8
-8720	-2964	13908	145	-142	-145	-15620	2300	-3964	-85	-97	-87	-16320	-736	644	41	-254	193	-7772	4120	13344	-78	109	-216	-16120	-176	-4176	147	-101	114	-16344	756	668	254	-116	18	120	127	8
-8660	-2960	14060	153	-113	-184	-15752	2336	-3968	-45	-103	-71	-16308	-660	736	185	-122	142	-7820	4184	13324	-82	89	-225	-16088	-56	-4052	103	-77	104	-16336	748	844	220	-93	12	125	127	8
-8788	-2916	14004	171	-127	-154	-15656	2324	-4064	-75	-65	-43	-16232	-620	540	80	-174	174	-7748	4124	13324	-68	142	-186	-16164	-120	-4052	94	-1	99	-16432	804	784	225	-101	42	126	127	8
-8684	-2952	13872	128	-106	-159	-15624	2328	-3984	-145	-81	-21	-16320	-628	688	-27	-197	162	-7764	4164	13408	-116	106	-204	-16212	-40	-4132	62	-14	87	-16328	764	828	284	-111	-1	131	127	8
-8680	-2964	13916	197	-84	-165	-15656	2316	-3880	-49	-20	-72	-16296	-676	860	-117	-209	159	-7836	4164	13368	-112	107	-234	-16152	-64	-4180	130	-78	142	-16332	732	628	294	-27	2	127	127	8
-8640	-2924	13904	130	-34	-137	-15672	2436	-3852	113	-7	-48	-16312	-480	684	-142	-208	174	-7816	4124	13408	-80	120	-218	-16112	-120	-4112	142	-41	98	-16372	764	552	264	-45	8	128	127	8
-8728	-2884	13988	105	6	-146	-15664	2472	-4104	181	-28	-86	-16324	-420	432	-98	-158	173	-7772	4104	13404	-93	142	-229	-16172	0	-4128	135	-90	92	-16392	788	760	245	-82	-10	126	127	8
-8852	-2912	14008	120	-49	-111	-15548	2480	-4268	-93	-84	-121	-16312	-640	388	-112	-142	170	-7760	4172	13376	-88	117	-252	-16144	-104	-4160	146	-52	32	-16396	756	772	208	-89	16	129	127	8
-8672	-2928	13940	90	-8	-202	-15640	2368	-3976	-22	-137	-128	-16304	-728	384	55	-143	168	-7796	4132	13392	-147	127	-226	-16204	-48	-4128	74	-25	44	-16384	780	700	167	-108	-12	126	127	8
-8652	-2948	13940	81	-37	-159	-15672	2364	-3972	-49	-189	-79	-16348	-728	764	228	-136	140	-7740	4104	13424	-118	148	-258	-16152	-100	-4052	81	-74	50	-16396	676	604	180	-96	-29	130	127	8
-8724	-2996	13968	72	-4	-148	-15568	2268	-3848	-269	-145	-134	-16336	-824	792	25	-189	135	-7796	4140	13440	-108	176	-250	-16100	-76	-4176	41	-85	76	-16364	604	760	110	-54	-29	129	127	8
-8728	-2912	14036	108	-53	-167	-15664	2272	-3872	-80	-100	-91	-16268	-724	852	-11	-218	156	-7732	4072	13376	-94	147	-223	-16124	-136	-4184	78	-106	58	-16400	636	772	152	-54	-44	123	127	8
-8700	-2944	13988	109	-37	-124	-15704	2408	-4048	16	-38	-79	-16328	-628	728	5	-202	134	-7852	4096	13424	-71	168	-211	-16148	-180	-4120	60	-70	30	-16360	664	852	182	-51	-23	128	127	8
-8748	-2856	13960	91	2	-181	-15652	2300	-4076	46	-2	-140	-16292	-752	540	19	-155	185	-7728	4168	13436	-73	106	-172	-16132	-132	-4088	149	-85	102	-16376	656	916	248	-60	8	130	127	8
-8756	-2896	14040	70	-55	-152	-15700	2288	-4100	120	-59	-62	-16356	-804	576	76	-112	235	-7780	4064	13372	-95	146	-206	-16096	-100	-4084	159	-39	101	-16432	652	848	303	-74	10	130	127	8
-8680	-2960	13928	88	-48	-196	-15632	2308	-3952	271	-74	-77	-16296	-784	708	152	-119	235	-7760	4084	13420	-67	152	-210	-16192	-236	-4116	186	-49	102	-16336	640	808	318	-17	-26	124	127	8
-8668	-2988	13932	71	-34	-147	-15660	2332	-3984	265	-30	-63	-16292	-732	780	165	-91	197	-7804	4188	13420	-91	149	-231	-16180	-276	-4144	237	-81	100	-16360	620	716	353	-32	-37	127	127	8
-8692	-2968	13964	109	-78	-128	-15700	2396	-3932	229	32	-63	-16268	-708	652	59	-129	211	-7836	4144	13424	-65	137	-203	-16108	-136	-4140	194	-25	135	-16316	660	772	364	30	-18	123	127	8
-8780	-2876	13948	103	-32	-124	-15620	2340	-4088	209	36	-56	-16276	-584	776	62	-158	192	-7792	4096	13376	-90	142	-235	-16080	-208	-4044	165	-26	148	-16332	640	820	285	-16	-24	129	127	8
-8692	-2916	13944	141	-37	-154	-15656	2352	-3900	183	-5	-74	-16308	-744	412	38	-147	196	-7792	4112	13448	-63	166	-205	-16160	-40	-4124	163	-41	120	-16452	712	820	291	-3	-18	125	127	8
-8736	-2944	13924	126	-21	-172	-15696	2280	-4220	260	-22	-47	-16280	-788	416	95	-152	202	-7712	4080	13400	-60	144	-245	-16156	-84	-3972	208	-26	140	-16436	724	792	217	-16	50	126	127	8
-8744	-2924	13944	115	-27	-143	-15680	2320	-4116	199	-50	-25	-16368	-692	484	132	-127	177	-7808	4068	13368	-105	134	-239	-16152	-188	-4172	77	-2	135	-16476	636	708	205	19	12	127	127	8
-8708	-2976	14016	117	-15	-181	-15688	2276	-3888	173	-45	-34	-16304	-752	632	63	-89	226	-7760	4080	13328	-62	198	-214	-16180	-120	-4212	134	-15	153	-16296	688	604	225	40	4	127	127	8
-8716	-2860	13956	105	-39	-126	-15596	2232	-3972	140	-58	-33	-16324	-668	728	59	-66	225	-7812	4104	13368	-88	163	-214	-16192	-84	-4196	49	-36	135	-16392	792	684	154	85	-11	123	127	8
-8728	-2968	13948	128	2	-162	-15616	2308	-4060	165	-75	-32	-16292	-628	640	70	-112	175	-7772	4092	13348	-85	151	-229	-16032	-144	-4124	63	-6	167	-16332	624	860	183	15	25	127	127	8
-8756	-2924	13976	145	-73	-121	-15564	2288	-4000	16	-61	-16	-16212	-752	676	-73	-138	230	-7756	4080	13408	-90	173	-180	-16060	-136	-4080	84	-11	168	-16392	708	824	199	-48	15	120	127	8
-8772	-3008	14028	167	-77	-150	-15624	2304	-3948	37	-16	-61	-16276	-724	692	-86	-106	245	-7820	4112	13444	-84	146	-215	-16156	-156	-4064	78	7	167	-16344	704	872	222	-56	45	128	127	8
-8728	-2996	13928	158	-69	-192	-15692	2316	-4112	-5	-22	2	-16256	-720	524	27	-128	222	-7840	4076	13240	-103	127	-197	-16196	-184	-4148	90	14	158	-16388	644	796	226	-45	24	128	127	8
-8704	-2968	13952	136	-77	-138	-15652	2432	-3996	-14	-78	-8	-16356	-648	696	47	-113	262	-7816	4104	13344	-77	168	-236	-16168	-168	-4176	120	65	159	-16380	636	544	255	43	11	128	127	8
-8800	-2928	13948	110	-100	-154	-15632	2316	-4008	-120	-82	-16	-16316	-724	696	75	-47	235	-7836	4120	13444	-70	146	-210	-16140	-80	-4300	41	13	156	-16444	624	440	231	120	15	127	127	8
-8780	-2908	13860	134	-53	-129	-15628	2288	-4060	-39	-67	-5	-16284	-712	744	134	-85	196	-7832	4016	13316	-103	143	-210	-16148	-160	-4236	105	-68	127	-16340	700	556	204	83	40	125	127	8
-8704	-2992	13956	152	-63	-144	-15704	2304	-3968	-34	-30	13	-16276	-636	712	121	-94	210	-7836	4092	13452	-85	141	-233	-16088	-120	-4156	98	-70	157	-16328	760	728	188	16	32	131	127	8
-8724	-2900	14008	161	-62	-124	-15648	2428	-4024	-77	-24	-9	-16248	-532	552	82	-89	226	-7788	4088	13392	-117	131	-207	-16068	-180	-4076	38	-32	147	-16404	740	1004	160	-99	80	125	127	8
-8700	-2948	13956	156	-39	-121	-15640	2380	-4076	-103	-48	-62	-16292	-588	580	-13	-133	243	-7728	4080	13336	-102	121	-222	-16120	-24	-3980	105	14	166	-16408	696	880	219	-146	30	125	127	8
-8672	-2912	14056	153	-111	-156	-15668	2356	-4044	-64	-119	-41	-16316	-604	520	-10	-143	246	-7780	4156	13416	-84	154	-224	-16212	-140	-4216	38	42	135	-16336	784	860	223	-81	44	127	127	8
-8708	-2932	14004	94	-45	-140	-15612	2344	-4032	-93	-75	-51	-16308	-760	668	40	-131	226	-7796	4116	13380	-79	139	-213	-16176	-144	-4208	68	18	120	-16328	712	512	221	45	14	127	127	8
-8756	-2960	13964	129	-72	-124	-15708	2328	-4004	-27	-47	-57	-16324	-612	616	64	-134	194	-7796	4132	13372	-74	174	-263	-16112	-112	-4328	58	10	101	-16424	700	480	175	90	-3	127	127	8
-8704	-2920	13984	153	-77	-163	-15652	2444	-3968	-154	-16	-15	-16360	-656	720	-58	-162	199	-7828	4100	13336	-75	154	-236	-16112	-88	-4216	30	-53	129	-16404	660	636	143	99	-13	124	127	8
-8680	-2900	13904	149	-108	-144	-15744	2340	-3860	-171	-43	-70	-16308	-692	712	-56	-148	207	-7728	4088	13328	-63	114	-239	-16104	-148	-3964	109	-45	114	-16436	692	840	155	-2	-25	129	127	8
-8712	-2996	14012	123	-60	-171	-15564	2288	-3936	-148	-21	-44	-16188	-632	812	-99	-182	182	-7812	4112	13308	-75	94	-215	-16100	-36	-4000	14	2	99	-16360	800	972	111	-90	39	123	127	8
-8684	-2952	13992	134	-55	-149	-15700	2364	-4040	5	-8	-69	-16304	-660	680	-25	-173	178	-7708	4184	13336	-119	158	-243	-16136	-104	-3968	21	35	120	-16424	792	988	97	-117	37	123	127	8
-8708	-2932	13944	125	-39	-147	-15684	2344	-4084	-38	-38	-93	-16268	-660	640	-86	-168	190	-7768	4136	13308	-104	148	-219	-16204	-80	-4132	27	69	107	-16376	672	712	85	-63	23	128	127	8
-8704	-2976	13956	122	5	-125	-15636	2336	-4024	-51	8	-65	-16304	-644	492	-98	-174	196	-7756	4096	13444	-100	161	-237	-16216	-132	-4316	-66	38	113	-16412	604	540	168	91	-9	128	127	8
-8700	-2924	13996	128	-55	-137	-15648	2276	-4040	15	-38	-33	-16356	-732	580	-122	-167	244	-7836	4012	13416	-59	197	-216	-16176	-156	-4320	41	-35	99	-16344	544	448	210	163	-20	128	127	8
-8732	-2932	14072	115	5	-135	-15644	2336	-3932	-8	14	-73	-16328	-656	736	-21	-125	168	-7800	4060	13384	-53	183	-220	-16096	-48	-4200	118	-59	112	-16352	756	648	222	138	-28	126	127	8
-8724	-2964	13960	150	-63	-134	-15684	2268	-4064	2	14	-16	-16256	-696	752	-37	-167	181	-7764	4140	13392	-65	147	-222	-16116	-140	-3932	133	-5	95	-16392	724	896	223	9	40	123	127	8
-8672	-2996	13952	78	-22	-153	-15692	2368	-3952	17	-25	-58	-16244	-684	600	3	-145	233	-7744	4160	13348	-124	141	-202	-16156	-128	-3940	103	-15	118	-16436	772	892	229	-97	34	127	127	8
-8724	-2976	13952	100	-28	-162	-15652	2320	-4000	55	-34	-93	-16340	-636	588	47	-104	181	-7764	4136	13496	-70	171	-238	-16176	-116	-3996	104	53	128	-16408	776	844	245	-146	48	131	127	8
-8700	-2920	13944	108	-14	-124	-15676	2308	-4036	146	-54	-61	-16440	-640	504	35	-6	242	-7788	4056	13504	-110	175	-238	-16148	-108	-4168	115	48	90	-16332	740	824	196	-42	4	128	127	8
-8724	-2964	13980	108	-30	-123	-15664	2376	-3960	51	-53	-14	-16344	-628	696	78	-74	224	-7780	4076	13372	-90	223	-233	-16184	-100	-4300	39	61	102	-16376	732	472	135	76	6	124	127	8
-8744	-2980	13912	104	-58	-164	-15616	2300	-3964	35	-37	-51	-16316	-720	792	14	-103	191	-7804	4132	13384	-86	168	-211	-16172	-176	-4292	83	5	82	-16340	684	548	103	111	-20	131	127	8
-8752	-2996	13940	104	19	-130	-15680	2332	-3948	30	17	-57	-16336	-676	656	-12	-130	183	-7804	4144	13444	-63	174	-235	-16076	-144	-4092	70	53	82	-16340	700	796	99	69	5	126	127	8
-8688	-2872	13952	94	7	-131	-15640	2320	-3948	-67	7	-44	-16284	-580	612	-67	-187	171	-7800	4116	13304	-114	154	-240	-16004	-128	-4000	101	81	104	-16380	736	1040	116	-8	-19	128	127	8
-8740	-2900	13852	102	-20	-135	-15616	2352	-4060	-105	7	-104	-16220	-552	548	-240	-200	203	-7760	4120	13312	-149	105	-240	-16128	-112	-3996	15	143	99	-16348	732	1020	41	-110	-14	127	127	8
-8708	-2908	13932	126	9	-141	-15668	2336	-4200	-81	-36	-71	-16336	-692	332	-275	-225	237	-7776	4080	13400	-86	143	-264	-16232	-216	-4116	-67	183	108	-16400	568	804	11	-123	5	127	127	8
-8660	-2976	13920	98	-56	-169	-15704	2380	-4004	-150	-94	-30	-16400	-740	508	-200	-223	199	-7768	4120	13296	-94	173	-239	-16236	-160	-4228	-92	123	113	-16496	612	504	110	-34	-52	127	127	8
-8724	-2984	13916	87	-34	-152	-15692	2428	-4148	-153	-86	-82	-16276	-780	628	-210	-197	235	-7824	4096	13420	-50	165	-255	-16196	-120	-4484	-33	17	118	-16328	632	216	133	170	-6	126	127	8
-8764	-3016	13840	109	-48	-153	-15644	2320	-4008	-157	-108	-59	-16320	-712	700	-140	-175	209	-7844	4064	13376	-51	161	-229	-16136	-100	-4328	-20	-59	93	-16408	644	264	98	165	3	126	127	8
-8684	-2960	14004	89	-31	-146	-15584	2416	-3876	-165	-50	-70	-16280	-704	840	-155	-256	207	-7808	4140	13400	-38	167	-232	-16088	-180	-4264	11	-63	122	-16384	628	608	146	120	-29	125	127	8
-8676	-2924	13928	96	-27	-162	-15644	2372	-3984	81	-76	-43	-16256	-840	776	-107	-221	212	-7760	4108	13476	-90	133	-168	-16088	-164	-4100	100	-112	170	-16384	636	780	207	-73	42	125	127	8
-8740	-3120	13916	112	15	-136	-15628	2280	-4012	205	-26	-51	-16132	-708	156	101	-9	118	-7780	4100	13392	-87	125	-233	-16108	-188	-4104	103	-31	146	-16396	568	832	224	-187	56	124	127	8
-8660	-2968	13972	99	-31	-165	-15600	2428	-3972	184	24	-25	-16324	-796	500	155	-164	200	-7820	4076	13304	-105	138	-225	-16108	-172	-4120	160	-60	150	-16372	576	800	308	-197	84	127	127	8
-8740	-2952	13912	128	-95	-153	-15728	2304	-4048	142	-3	16	-16252	-736	564	209	-164	223	-7796	4108	13260	-71	146	-243	-16196	-112	-4216	117	-54	132	-16372	724	584	344	-75	98	126	127	8
-8672	-2948	13992	153	-71	-135	-15632	2308	-3968	154	7	31	-16308	-744	732	216	-160	209	-7804	4060	13372	-67	113	-244	-16156	-88	-4268	198	-71	164	-16344	668	524	384	81	55	129	127	8
-8752	-3104	13956	146	-53	-136	-15680	2012	-3860	-33	13	31	-16288	-748	1048	297	-311	238	-7780	4104	13440	-81	136	-207	-16192	-136	-4304	200	-118	174	-16312	612	728	407	121	58	129	127	8
-8760	-2972	13900	150	-2	-125	-15628	2288	-4072	221	61	-18	-16380	-512	656	138	-181	166	-7832	4116	13456	-82	142	-209	-16068	-168	-4028	176	-52	211	-16360	696	1020	419	43	8	127	127	8
-8796	-2696	13984	130	-10	-141	-15648	2372	-4160	25	87	11	-16152	-600	68	-5	-62	217	-7780	4116	13512	-4	19	-190	-16200	36	-3856	-94	49	185	-16384	740	976	444	5	0	124	127	8
-8736	-2816	14080	133	-29	-109	-15620	2264	-4016	77	52	-5	-16316	-620	672	-3	-170	209	-7740	4140	13476	1	70	-202	-16140	-276	-4016	-107	103	191	-16336	768	1020	279	-152	52	122	127	8
-8736	-2972	13924	100	-52	-117	-15736	2424	-4224	122	7	-28	-16368	-692	732	-83	-195	253	-7748	4116	13348	-21	186	-212	-16232	-132	-4260	-72	99	194	-16380	652	636	274	-30	46	128	127	8
-8636	-2876	13984	116	-17	-126	-15728	2360	-4076	-134	-9	-37	-16400	-676	388	-208	-169	266	-7772	4068	13376	-10	197	-217	-16108	-100	-4408	-71	32	163	-16388	716	364	126	116	47	124	127	8
-8760	-2844	14012	129	20	-133	-15712	2400	-4052	-129	-8	-31	-16316	-772	500	81	-69	181	-7904	4084	13292	-28	180	-232	-16108	-124	-4296	63	-32	174	-16400	760	476	60	158	34	127	127	8
-8772	-2900	13972	154	14	-111	-15656	2420	-4248	73	-67	-55	-16244	-660	504	116	-80	234	-7776	4072	13372	-50	167	-225	-16080	-4	-4168	80	-72	140	-16428	696	744	85	106	40	131	127	8
-8720	-2932	14008	133	-26	-152	-15652	2288	-4092	-5	-54	-24	-16320	-660	532	48	-112	227	-7768	4148	13292	-106	149	-209	-16128	-156	-4168	137	-49	146	-16372	672	988	169	-56	-8	124	127	8
-8680	-3000	13960	152	5	-149	-15596	2348	-3992	108	-82	-26	-16288	-752	564	95	-93	250	-7752	4188	13280	-125	143	-216	-16120	-104	-3980	212	55	140	-16392	716	1000	249	-105	29	127	127	8
-8736	-2884	13868	90	-62	-150	-15712	2404	-4160	8	-51	-30	-16304	-656	688	67	-114	283	-7804	4144	13288	-108	140	-282	-16188	-120	-4092	140	95	162	-16384	640	712	281	-74	52	126	127	8
-8720	-2872	13908	92	-17	-150	-15656	2292	-4076	43	-57	-8	-16268	-696	624	145	-87	249	-7808	4088	13308	-69	166	-239	-16148	-64	-4360	146	33	154	-16424	732	440	315	50	52	127	127	8
-8756	-2896	13964	132	-9	-95	-15704	2328	-4036	83	-57	-2	-16296	-652	532	114	-59	270	-7840	4044	13328	-78	172	-234	-16032	-20	-4316	224	-26	152	-16412	696	316	292	151	54	127	127	8
-8788	-2944	14056	138	-48	-142	-15600	2408	-4104	-41	-23	-10	-16320	-592	504	103	-42	258	-7756	4108	13344	-66	155	-202	-16092	-188	-4288	266	-62	138	-16420	748	576	330	134	26	127	127	8
-8712	-2916	13924	124	-43	-132	-15540	2308	-4100	-37	-76	5	-16304	-560	556	-2	-106	225	-7768	4076	13384	-87	120	-219	-16108	-56	-4060	147	-95	150	-16400	792	876	274	56	29	128	127	8
-8808	-2856	13956	139	-87	-110	-15604	2384	-4056	-94	-100	-38	-16272	-636	588	32	-139	213	-7688	4112	13384	-97	112	-224	-16096	-88	-4032	154	-54	140	-16332	824	976	219	-107	48	123	127	8
-8780	-2928	13956	150	-67	-137	-15620	2364	-3960	-111	-91	-29	-16344	-612	620	74	-126	224	-7780	4116	13332	-122	141	-246	-16108	-44	-4056	64	31	133	-16412	788	776	175	-127	49	125	127	8
-8784	-3016	13912	150	-54	-142	-15664	2368	-4116	-32	-114	-29	-16328	-616	576	4	-141	211	-7740	4048	13456	-87	196	-229	-16220	-108	-4252	-12	48	133	-16376	724	540	138	-51	45	121	127	8
-8736	-2928	14016	113	-69	-135	-15604	2416	-4144	-88	-102	-1	-16332	-640	492	-64	-193	233	-7804	4100	13424	-64	200	-234	-16220	-196	-4480	1	-64	149	-16404	580	180	135	63	19	124	127	8
-8768	-2880	13964	117	-72	-173	-15700	2328	-4096	-106	-149	-18	-16444	-712	680	6	-232	255	-7864	4024	13392	-53	156	-195	-16156	-64	-4472	31	-140	101	-16452	676	304	156	134	22	128	127	8
-8772	-2952	13896	111	-140	-149	-15688	2428	-4028	-96	-142	-62	-16352	-560	596	42	-157	216	-7800	4104	13300	-95	149	-181	-16048	-132	-4268	71	-193	112	-16380	720	556	170	156	63	126	127	8
-8752	-2860	13900	112	-39	-148	-15720	2376	-3956	-127	-161	-90	-16244	-572	644	-24	-174	205	-7744	4120	13468	-38	143	-175	-16080	-100	-3960	85	-156	140	-16396	740	828	166	-12	80	130	127	8
-8796	-2872	13988	97	-37	-166	-15656	2360	-3948	-82	-129	-55	-16292	-628	452	-54	-80	212	-7764	4160	13392	-112	164	-215	-16144	-112	-4004	38	-102	157	-16420	736	960	160	-151	52	125	127	8
-8808	-2908	13876	129	-50	-184	-15592	2272	-3984	24	-137	-82	-16304	-700	760	18	-202	226	-7744	4172	13304	-38	151	-225	-16196	-100	-4040	42	-48	124	-16440	796	860	165	-123	68	128	127	8
-8736	-2928	13872	126	-16	-188	-15644	2344	-3916	-87	-101	-61	-16328	-744	784	-57	-221	202	-7788	4124	13312	-103	165	-204	-16164	-96	-4296	-29	-56	118	-16340	640	840	133	-47	42	123	127	8
-8772	-2976	14076	136	-60	-154	-15656	2268	-3864	-52	-8	-69	-16320	-752	792	-26	-262	204	-7756	4124	13356	-105	187	-190	-16236	-84	-4392	80	-98	99	-16292	652	748	153	42	-3	125	127	8
-8728	-2960	14064	169	-57	-161	-15672	2260	-4036	50	-4	-45	-16316	-684	676	9	-221	194	-7788	4188	13360	-42	143	-240	-16132	-116	-4224	-3	-101	156	-16408	620	660	151	122	-32	128	127	8
-8728	-2928	13968	112	-2	-110	-15612	2412	-4148	-89	-49	-43	-16336	-568	448	-3	-192	202	-7800	4028	13496	-70	139	-188	-16144	-44	-3980	167	-109	165	-16372	816	776	143	129	-6	126	127	8
-8720	-2928	14076	129	-75	-164	-15604	2344	-4004	-112	-84	-37	-16348	-560	532	-80	-214	241	-7836	4132	13372	-113	131	-242	-16100	-128	-3840	15	-18	168	-16492	808	1280	133	-78	9	127	127	8
-8736	-2952	14044	85	-42	-149	-15652	2392	-3932	-42	-94	-64	-16296	-648	668	-73	-210	218	-7724	4172	13408	-76	148	-248	-16228	16	-4012	33	15	146	-16388	776	960	84	-98	9	125	127	8
-8760	-2908	13944	127	-37	-163	-15736	2360	-4060	-21	-54	-58	-16276	-692	660	-130	-184	225	-7748	4124	13384	-74	169	-254	-16204	-100	-4124	-84	70	153	-16384	708	728	127	-20	12	127	127	8
-8768	-2900	13924	103	-73	-121	-15612	2312	-3944	-127	-60	-60	-16296	-776	788	-123	-197	215	-7848	3992	13428	-34	218	-261	-16108	-188	-4172	-50	33	115	-16368	600	452	66	36	-30	125	127	8
-8760	-2892	13948	109	-79	-130	-15660	2328	-3824	-89	-6	-30	-16304	-764	772	-50	-216	205	-7804	4112	13304	-31	174	-222	-16180	-76	-4292	46	-21	136	-16400	744	460	175	90	-38	129	127	8
-8712	-2856	13832	120	-48	-130	-15684	2280	-3968	38	1	-28	-16340	-680	684	70	-160	172	-7740	4112	13352	-66	174	-210	-16144	-72	-4296	-16	-44	150	-16396	752	596	104	-12	9	130	127	8
-8808	-2900	13952	129	-27	-115	-15620	2412	-4044	-29	-23	-35	-16244	-568	600	4	-189	201	-7788	4168	13340	-47	158	-216	-16096	144	-3972	96	-59	104	-16360	884	876	101	-47	86	130	127	8
-8680	-2936	13996	142	-91	-132	-15636	2284	-4076	-75	-15	-1	-16228	-576	472	26	-195	156	-7808	4048	13536	-94	166	-228	-16124	-140	-4132	-28	31	128	-16448	732	828	34	-109	72	124	127	8
-8756	-2892	14048	130	-77	-124	-15596	2240	-4208	-57	-56	-10	-16316	-776	596	-39	-211	236	-7740	4120	13360	-85	132	-242	-16192	-136	-4052	101	17	143	-16432	684	776	64	-65	48	124	127	8
-8744	-2960	13964	137	-67	-158	-15680	2332	-4008	-50	-89	-15	-16332	-664	724	74	-115	210	-7796	4088	13420	-104	166	-228	-16052	-92	-4244	25	89	147	-16356	672	640	61	-8	70	124	127	8
-8740	-2964	14052	139	-11	-132	-15728	2380	-4044	-39	-74	-23	-16276	-708	760	118	-154	179	-7736	4148	13372	-79	169	-217	-16144	-12	-4168	34	34	137	-16344	692	576	99	61	26	128	127	8
-8756	-2924	13936	124	-64	-135	-15628	2292	-3908	-33	-59	-39	-16300	-612	752	39	-194	217	-7744	4100	13408	-43	159	-203	-16116	-136	-4160	94	40	126	-16412	736	724	135	24	52	125	127	8
-8760	-2948	13960	148	-37	-108	-15712	2316	-3996	-13	-56	-33	-16312	-664	556	-70	-146	244	-7808	4116	13424	-80	172	-255	-16092	-24	-4088	75	26	132	-16392	756	688	193	-22	13	129	127	8
-8776	-2984	13924	139	-54	-121	-15708	2320	-4108	9	-78	-46	-16364	-592	480	-21	-111	217	-7752	4120	13320	-84	151	-246	-16212	-36	-4092	105	40	148	-16360	636	704	246	-53	3	126	127	8
-8752	-2920	13956	151	-33	-127	-15684	2344	-3996	-41	-74	16	-16332	-716	688	39	-148	210	-7836	4088	13288	-96	148	-200	-16124	-56	-4164	69	0	154	-16364	628	640	272	-62	30	127	127	8
-8732	-2916	13968	150	-70	-128	-15636	2324	-3964	-38	-90	-10	-16292	-776	556	12	-160	206	-7844	4088	13368	-104	143	-220	-16128	-56	-4276	163	-2	129	-16408	684	568	254	-37	63	125	127	8
-8708	-2960	13920	130	-97	-127	-15624	2416	-3788	32	-65	-7	-16252	-736	940	208	-134	181	-7828	4032	13440	-124	120	-259	-16132	-72	-4320	128	-20	160	-16416	644	520	287	-44	65	127	127	8
-8672	-2984	13844	153	-109	-143	-15676	2364	-3804	77	-10	-26	-16288	-676	804	115	-111	240	-7828	4152	13380	-79	121	-212	-16136	-104	-4296	152	-29	126	-16312	652	612	313	-38	38	131	127	8
-8728	-2932	14016	140	-59	-145	-15660	2368	-4016	103	10	13	-16336	-656	524	143	-195	210	-7804	4132	13364	-93	134	-218	-16084	-48	-4200	170	-76	141	-16344	744	596	323	-92	38	125	127	8
-8748	-2948	13928	131	-46	-129	-15572	2392	-4060	23	-22	-25	-16276	-524	436	143	-154	234	-7804	4140	13364	-80	117	-198	-16192	-72	-4200	153	-78	164	-16372	772	628	359	-33	18	126	127	8
