#Activity	standing 
#ActivityID	8 
#Date 08-20-11-46
acc_rf_x	acc_rf_y	acc_rf_z	gyro_rf_x	gyro_rf_y	gyro_rf_z	acc_rs_x	acc_rs_y	acc_rs_z	gyro_rs_x	gyro_rs_y	gyro_rs_z	acc_rt_x	acc_rt_y	acc_rt_z	gyro_rt_x	gyro_rt_y	gyro_rt_z	acc_lf_x	acc_lf_y	acc_lf_z	gyro_lf_x	gyro_lf_y	gyro_lf_z	acc_ls_x	acc_ls_y	acc_ls_z	gyro_ls_x	gyro_ls_y	gyro_ls_z	acc_lt_x	acc_lt_y	acc_lt_z	gyro_lt_x	gyro_lt_y	gyro_lt_z	EMG_r	EMG_l	act
-7840	-4624	13320	-78	84	-182	-16288	-2688	-1612	54	-67	149	-15968	-2220	-1988	149	-17	67	-8956	5404	13200	127	6	-153	-15076	3240	-5272	-99	4	-44	-16288	-556	1248	-138	-105	162	126	125	8
-7808	-4656	13300	-117	103	-189	-16260	-2648	-1624	48	-34	145	-15972	-2220	-1860	154	-8	45	-8896	5432	13112	102	-20	-174	-15160	3124	-5372	-69	8	-45	-16392	-680	1308	-139	-128	173	126	125	8
-7840	-4632	13328	-68	70	-157	-16332	-2676	-1548	-9	-61	126	-15936	-2172	-1912	135	-36	9	-8928	5348	13032	111	-13	-175	-15176	3128	-5356	15	-49	-36	-16252	-752	1212	-91	-111	156	126	125	8
-7828	-4612	13384	-94	134	-181	-16304	-2616	-1528	-63	-69	146	-16024	-2248	-1920	82	26	19	-8964	5364	13108	136	-27	-120	-15112	3164	-5408	17	-23	-36	-16284	-796	1288	-202	-125	178	126	125	8
-7876	-4660	13268	-116	91	-183	-16256	-2700	-1452	-34	-46	166	-16016	-2152	-1872	118	-41	20	-9004	5412	13152	147	-10	-199	-15104	3112	-5436	-110	18	-35	-16300	-776	1160	-170	-120	187	126	125	8
-7912	-4660	13236	-121	90	-158	-16312	-2660	-1580	34	-40	138	-15964	-2132	-1876	107	-31	17	-8916	5352	13280	166	-31	-140	-15196	3072	-5508	-54	-53	10	-16328	-760	1200	61	-79	153	127	125	8
-7828	-4656	13320	-80	110	-206	-16280	-2752	-1580	77	-59	142	-15936	-2220	-1900	155	4	1	-8864	5332	13096	166	72	-163	-15132	3148	-5244	56	-26	6	-16324	-780	1288	185	-81	191	126	125	8
-7856	-4652	13260	-82	113	-174	-16312	-2728	-1672	119	-46	100	-15916	-2300	-1976	170	13	-12	-8968	5384	13160	137	-2	-151	-15052	3132	-5288	82	-25	-48	-16292	-752	1160	203	-68	179	127	125	8
-7868	-4612	13208	-75	116	-162	-16304	-2712	-1564	73	-61	146	-15948	-2332	-1876	145	-2	20	-8916	5308	13144	156	-26	-156	-15092	3108	-5376	42	-40	19	-16236	-628	1260	138	-80	222	126	125	8
-7876	-4700	13188	-73	136	-198	-16212	-2644	-1500	60	-98	201	-15952	-2340	-1800	288	12	64	-8948	5392	13112	181	-11	-193	-15084	3168	-5376	37	-63	-5	-16224	-572	1256	63	-79	236	127	125	8
-7812	-4580	13264	-98	132	-200	-16292	-2664	-1604	127	2	154	-15948	-2312	-1756	319	58	51	-8940	5404	13192	176	-82	-153	-15088	3212	-5324	87	-78	5	-16244	-540	1316	36	-129	201	127	125	8
-7820	-4600	13220	-73	133	-183	-16220	-2600	-1572	130	-17	140	-16020	-2192	-1732	333	24	37	-8960	5352	13168	142	-109	-168	-15048	3204	-5372	46	-70	-2	-16220	-608	1324	44	-113	186	126	125	8
-7808	-4656	13240	-84	138	-194	-16264	-2724	-1476	139	1	170	-15988	-2168	-1736	321	13	49	-8904	5368	13180	121	-114	-202	-15088	3176	-5360	26	-18	-20	-16180	-676	1352	-73	-185	158	126	125	8
-7872	-4680	13240	-116	169	-202	-16288	-2596	-1684	199	35	143	-16028	-2092	-1968	282	-4	17	-8952	5360	13144	107	-116	-209	-15124	3164	-5288	21	12	25	-16240	-712	1488	-65	-102	142	126	125	8
-7836	-4672	13188	-96	158	-166	-16292	-2572	-1484	156	-2	142	-16000	-2040	-1768	189	-22	-10	-8880	5300	13108	104	-71	-240	-15228	3176	-5244	10	6	-18	-16336	-748	1388	-35	-83	171	126	125	8
-7828	-4624	13200	-124	150	-168	-16284	-2716	-1580	53	1	130	-15960	-2172	-1884	125	-16	23	-8904	5368	13136	116	-13	-232	-15212	3108	-5312	42	34	-12	-16344	-824	1332	25	-124	167	126	125	8
-7836	-4632	13308	-100	121	-164	-16344	-2768	-1644	94	11	117	-15988	-2312	-2040	156	-24	-11	-8892	5372	13208	101	33	-238	-15132	3100	-5260	42	55	30	-16384	-776	1228	37	-69	202	126	125	8
-7848	-4692	13348	-68	122	-168	-16244	-2640	-1616	77	21	138	-15936	-2344	-1796	167	-6	51	-8880	5252	13172	139	120	-213	-15076	3116	-5284	50	39	-21	-16276	-736	1292	24	-34	207	126	125	8
-7832	-4676	13256	-84	90	-188	-16316	-2676	-1680	57	-12	149	-15936	-2284	-1884	172	2	26	-8932	5320	13144	157	92	-163	-15120	3136	-5488	0	45	-31	-16280	-664	1220	-17	-7	193	126	125	8
-7820	-4632	13304	-68	75	-171	-16236	-2672	-1644	71	-3	103	-15916	-2168	-1972	219	-14	17	-8916	5336	13224	139	107	-153	-15092	3144	-5316	-56	63	-51	-16220	-636	1128	-4	-13	199	127	125	8
-7868	-4532	13236	-77	57	-160	-16244	-2700	-1568	4	-44	108	-15928	-2136	-2120	154	-29	50	-8864	5308	13180	120	129	-130	-15088	3184	-5300	-45	73	-26	-16264	-660	1172	18	-8	164	126	125	8
-7788	-4560	13272	-109	69	-166	-16228	-2668	-1552	12	-20	108	-16024	-2204	-2088	129	6	22	-8984	5356	13100	146	101	-147	-15128	3204	-5412	-34	6	-32	-16180	-656	1092	24	-80	227	126	125	8
-7808	-4608	13268	-126	112	-193	-16216	-2716	-1572	51	-60	156	-15956	-2208	-1804	144	-44	25	-8928	5408	13152	152	35	-151	-14968	3208	-5316	15	21	-54	-16192	-628	1116	-88	-122	162	126	125	8
-7808	-4632	13200	-78	110	-174	-16280	-2644	-1504	58	-90	140	-15964	-2204	-1872	138	-22	27	-8976	5416	13032	82	6	-137	-15012	3176	-5320	-69	23	-77	-16244	-508	1028	-206	-173	148	126	125	8
-7836	-4624	13308	-131	132	-128	-16272	-2628	-1512	9	-48	125	-15928	-2156	-1752	122	-7	20	-9008	5380	13044	108	-12	-173	-15072	3124	-5304	-71	-50	-40	-16216	-560	1172	-174	-161	179	127	125	8
-7836	-4588	13352	-102	109	-220	-16280	-2728	-1544	67	-46	134	-16016	-2312	-1752	201	-6	46	-8920	5376	13164	106	-90	-154	-15116	3132	-5312	-32	1	-44	-16280	-640	1124	-149	-163	140	126	125	8
-7820	-4632	13308	-111	150	-219	-16304	-2592	-1528	102	-22	100	-15928	-2228	-1960	221	-65	54	-8980	5348	13152	71	-67	-188	-15052	3168	-5388	2	-53	-40	-16316	-752	1144	-101	-125	131	126	125	8
-7816	-4564	13328	-89	190	-223	-16312	-2736	-1540	160	-60	160	-15956	-2224	-1896	231	-39	26	-8880	5396	13228	140	-106	-186	-15148	3112	-5184	31	-57	1	-16280	-864	1332	15	-117	169	126	125	8
-7852	-4600	13248	-81	185	-204	-16280	-2632	-1544	157	-79	166	-16032	-2256	-2056	275	-42	-3	-8920	5300	13072	140	-120	-177	-15108	3136	-5356	80	-84	24	-16328	-812	1312	130	-116	221	126	125	8
-7800	-4592	13152	-132	172	-200	-16296	-2700	-1560	101	-42	133	-16000	-2220	-1928	264	-22	24	-8884	5392	13076	140	-80	-153	-15164	3152	-5392	24	-98	-14	-16356	-780	1312	236	-94	223	126	125	8
-7876	-4652	13196	-85	147	-207	-16336	-2648	-1724	112	-98	132	-15936	-2176	-1976	262	-4	30	-8888	5336	13092	118	-61	-169	-15172	3120	-5364	22	-81	-8	-16332	-736	1212	232	-90	220	126	125	8
-7880	-4652	13244	-105	182	-236	-16252	-2696	-1460	76	-49	162	-16008	-2312	-1892	234	-22	37	-8936	5368	13144	142	-16	-181	-15156	3080	-5288	79	-86	-24	-16260	-724	1160	125	-92	227	126	125	8
-7808	-4684	13296	-105	109	-202	-16248	-2688	-1584	127	-69	142	-15984	-2236	-1780	236	-47	42	-8860	5316	13172	196	-29	-136	-15160	3112	-5480	94	-66	13	-16244	-752	1312	86	-107	232	127	125	8
-7844	-4652	13248	-78	124	-206	-16316	-2640	-1628	52	-63	164	-16008	-2184	-1928	260	-39	77	-8908	5300	13084	186	5	-183	-15104	3116	-5268	31	-57	-19	-16276	-600	1428	57	-127	205	127	125	8
-7860	-4660	13348	-70	116	-181	-16284	-2700	-1572	18	-66	137	-16024	-2160	-1844	226	-43	39	-8948	5412	13172	134	-37	-145	-15148	3176	-5380	42	-66	-11	-16260	-552	1316	36	-157	159	127	125	8
-7776	-4632	13352	-66	124	-172	-16284	-2624	-1468	64	-87	138	-15992	-2108	-1908	171	-99	28	-8980	5364	13084	174	-2	-160	-15112	3208	-5420	4	-25	-29	-16320	-668	1348	13	-144	170	126	125	8
-7892	-4636	13244	-67	110	-189	-16300	-2628	-1504	83	-83	135	-16008	-2260	-1772	196	-59	44	-8996	5416	13232	166	-21	-174	-15116	3184	-5308	-25	-78	-56	-16340	-628	1464	-7	-133	138	127	125	8
-7788	-4604	13356	-102	113	-161	-16320	-2744	-1564	73	-83	171	-15960	-2204	-1896	191	-84	29	-8876	5400	13092	139	25	-175	-15152	3188	-5328	-2	-47	-32	-16328	-628	1132	-7	-149	155	127	125	8
-7852	-4620	13316	-91	131	-204	-16292	-2736	-1488	47	-52	151	-16000	-2332	-1876	151	-79	33	-8936	5316	13184	118	4	-147	-15104	3180	-5240	28	-94	-68	-16288	-708	1272	-40	-125	174	126	125	8
-7796	-4616	13384	-98	125	-189	-16284	-2700	-1644	26	-34	159	-16040	-2264	-1968	92	-100	7	-8860	5372	13132	153	-38	-182	-15224	3156	-5196	4	-73	-21	-16308	-936	1476	-72	-150	162	126	125	8
-8272	-4532	13080	-45	185	-141	-16380	-2804	-1672	129	-144	216	-15884	-2296	-2044	123	-46	-22	-8900	5304	13108	155	-33	-163	-15100	3112	-5180	-40	-65	-30	-16200	-884	1392	32	-112	230	126	125	8
-7760	-4636	13204	-71	83	-210	-16336	-2540	-1604	-118	-117	187	-15940	-2232	-1984	93	-94	48	-8888	5340	13196	148	-22	-131	-15124	3232	-5296	-72	-66	-31	-16236	-868	1332	101	-87	294	126	125	8
-7848	-4732	13316	-104	98	-149	-16264	-2740	-1552	28	-133	168	-15964	-2108	-1772	68	-57	68	-8884	5332	13148	160	-53	-113	-15140	3148	-5264	-82	-83	-31	-16308	-656	1224	138	-37	294	126	125	8
-7792	-4684	13100	-118	89	-204	-16320	-2652	-1548	-8	-106	173	-15996	-2400	-1628	211	-53	34	-8940	5408	13212	160	-33	-118	-15044	3176	-5268	-12	-62	-45	-16292	-544	1264	25	-43	299	126	125	8
-7944	-4560	13356	-91	113	-141	-16268	-2636	-1500	54	-120	195	-16044	-2292	-1716	184	32	6	-8908	5352	13224	176	-68	-117	-15132	3296	-5236	13	-65	-30	-16268	-536	1392	-14	-73	268	127	125	8
-7776	-4668	13284	-109	96	-183	-16308	-2640	-1528	-8	-142	191	-16012	-2128	-1736	203	-61	86	-8924	5408	13176	150	-51	-169	-15112	3292	-5216	-1	-79	-24	-16228	-516	1284	-70	-128	230	126	125	8
-7808	-4700	13312	-90	156	-165	-16256	-2656	-1432	46	-81	193	-15956	-2012	-1804	147	-48	77	-8920	5396	13040	142	-69	-150	-15148	3316	-5132	-82	-77	0	-16236	-692	1420	-85	-127	197	126	125	8
-7836	-4652	13236	-92	136	-165	-16324	-2640	-1540	7	-106	202	-15952	-2104	-1876	82	-59	19	-8864	5388	13136	94	-68	-152	-15088	3204	-5292	-22	-54	-14	-16188	-684	1356	-136	-187	167	126	125	8
-7816	-4600	13236	-86	161	-174	-16256	-2632	-1504	-47	-86	182	-15916	-2232	-1720	7	-19	2	-8816	5468	13148	124	-78	-160	-15096	3188	-5220	7	-56	-22	-16144	-668	1364	-137	-166	168	126	125	8
-7880	-4676	13320	-76	117	-187	-16260	-2584	-1536	-9	-93	205	-15980	-2224	-1804	22	3	47	-8904	5300	13184	125	-64	-118	-15080	3204	-5224	-112	-24	-35	-16236	-616	1368	-198	-144	217	127	125	8
-7844	-4672	13260	-65	76	-193	-16324	-2544	-1492	-25	-95	174	-16052	-2176	-1760	107	43	43	-8852	5368	13232	100	-87	-127	-15208	3240	-5272	-121	-5	-47	-16344	-680	1496	-199	-38	237	126	125	8
-7836	-4636	13348	-76	79	-134	-16260	-2540	-1436	-36	-63	164	-16028	-2180	-1516	150	12	51	-8944	5440	13176	107	-17	-133	-15208	3144	-5112	-95	49	-65	-16292	-664	1556	-137	-20	203	126	125	8
-7784	-4588	13236	-69	118	-172	-16272	-2616	-1480	14	0	156	-16072	-2080	-1564	177	34	44	-8952	5416	13200	115	44	-189	-15200	3152	-5152	0	60	-32	-16336	-732	1512	-67	-19	200	127	125	8
-7816	-4640	13188	-64	106	-186	-16348	-2608	-1428	99	-21	190	-16012	-2056	-1620	225	55	18	-8872	5404	13164	142	97	-196	-15200	3256	-5224	15	53	-43	-16332	-680	1640	0	-33	178	126	125	8
-7808	-4580	13308	-64	109	-175	-16296	-2620	-1336	58	26	131	-16064	-2072	-1712	229	2	26	-8876	5380	13204	116	134	-165	-15200	3180	-5168	-20	106	-48	-16300	-640	1480	36	-60	208	126	125	8
-7896	-4632	13208	-84	93	-141	-16280	-2596	-1468	84	49	112	-15972	-2092	-1672	185	-57	3	-8896	5376	13136	185	133	-148	-15172	3176	-5172	-19	129	-60	-16280	-652	1364	-20	-33	157	126	125	8
-7856	-4608	13240	-72	108	-133	-16276	-2620	-1504	113	79	80	-16004	-2052	-1608	92	-116	-26	-8964	5328	13240	149	86	-216	-15124	3220	-5336	13	158	-71	-16236	-632	1360	-25	-9	151	126	125	8
-7832	-4684	13180	-45	54	-125	-16332	-2624	-1024	196	76	82	-16052	-2216	-1324	244	-187	9	-8852	5368	13116	135	165	-195	-15180	3216	-5176	41	136	4	-16284	-504	1308	-11	18	153	126	125	8
-7676	-4640	13228	15	79	-24	-16184	-2452	-1172	-144	269	-185	-16152	-2248	-1068	453	-441	59	-8924	5408	13080	168	176	-149	-15064	3260	-5324	-15	130	-54	-16264	-392	1236	-15	0	226	126	125	8
-7704	-4724	13452	-31	-68	-68	-16112	-2716	-756	874	330	10	-16276	-2160	-816	660	-557	67	-8940	5400	13172	98	151	-161	-15112	3312	-5244	-176	176	-125	-16368	-428	1228	-175	82	246	126	125	8
-8168	-4196	13412	117	-87	9	-16148	-2672	-1216	934	338	-13	-16292	-1864	-888	749	-759	165	-8948	5376	13228	82	162	-116	-15148	3176	-5232	-209	112	-159	-16328	-524	1276	-306	127	166	126	125	8
-7780	-4560	13404	82	-88	44	-16400	-2580	-1252	777	627	24	-16192	-1800	-1008	511	-892	7	-8972	5404	13172	103	209	-133	-15188	3180	-5224	-173	113	-147	-16416	-668	1312	-299	154	92	126	125	8
-7788	-4456	13256	-2	-139	103	-16040	-2820	-1540	619	657	-15	-16068	-1908	-1460	67	-943	-11	-9004	5400	13196	122	221	-152	-15180	3148	-5248	-126	100	-132	-16328	-856	1192	-305	109	93	126	125	8
-7824	-4504	13404	20	-75	3	-16312	-2680	-1540	556	736	5	-16056	-2052	-1724	-169	-955	-30	-8904	5376	13180	157	232	-144	-15152	3116	-5364	-54	80	-103	-16372	-940	1252	-265	91	133	126	125	8
-7772	-4400	13392	17	-52	26	-16200	-2544	-1820	267	743	-51	-15988	-2032	-1928	-397	-923	-20	-8928	5432	13108	197	256	-141	-15156	3064	-5416	-71	40	-40	-16332	-972	1140	-227	83	168	126	125	8
-7792	-4580	13468	-34	-51	-47	-16288	-2856	-1804	289	699	-42	-15860	-2168	-1892	-562	-909	7	-8868	5352	13172	224	235	-167	-15140	3088	-5416	75	28	-23	-16276	-852	1160	-175	108	102	126	125	8
-7868	-4416	13380	-53	-17	-57	-16256	-2784	-2012	295	581	-15	-15892	-2464	-1968	-520	-707	16	-8928	5352	13124	233	205	-137	-15020	3140	-5508	31	16	22	-16216	-864	1028	-90	144	197	126	125	8
-7820	-4560	13300	6	-9	-82	-16248	-2828	-1888	166	526	15	-15908	-2668	-1984	-381	-561	-17	-8852	5624	12948	171	188	-163	-15172	3248	-5244	-15	17	-10	-16288	-696	1328	3	174	244	127	125	8
-7804	-4600	13356	46	-5	-60	-16240	-2856	-1952	199	461	81	-15960	-2668	-1936	-145	-415	66	-8888	5496	13064	208	149	-137	-15036	3084	-5292	20	9	58	-16312	-752	1196	67	223	251	127	125	8
-7792	-4516	13340	-26	1	-121	-16276	-2792	-1972	219	349	137	-15956	-2572	-2072	137	-252	120	-8940	5452	13008	192	176	-144	-15104	3140	-5248	25	18	31	-16216	-848	1160	51	141	298	126	125	8
-7804	-4616	13380	-39	33	-100	-16300	-2772	-2012	213	254	124	-15936	-2324	-2164	276	-133	142	-8892	5468	13044	232	132	-153	-15036	3216	-5372	180	-32	108	-16216	-816	1068	100	-16	220	127	125	8
-7808	-4568	13292	-28	64	-149	-16280	-2816	-2300	55	102	183	-15848	-2160	-2036	153	4	127	-8952	5416	13008	256	66	-172	-15068	3216	-5228	138	33	119	-16116	-708	1096	171	-127	165	127	125	8
-7680	-4516	13380	-61	81	-177	-16364	-2692	-2080	-57	54	165	-15852	-2160	-2108	221	56	97	-8928	5412	13072	276	27	-168	-15072	3248	-5316	156	-11	130	-16168	-588	1172	264	-163	213	127	125	8
-7840	-4444	13284	-40	93	-167	-16312	-2808	-2192	195	-40	253	-15976	-2164	-2052	410	146	50	-8948	5412	13108	203	43	-134	-15032	3324	-5316	169	1	46	-16140	-412	1132	251	-157	298	127	125	8
-7740	-4484	13348	-48	134	-176	-16304	-2756	-1864	177	-111	203	-15960	-2152	-1632	415	221	122	-9008	5428	12960	195	5	-139	-14972	3324	-5368	109	-50	51	-16244	-280	1032	231	-90	316	126	125	8
-7796	-4524	13244	-119	153	-200	-16208	-2672	-1736	108	-163	241	-16072	-2056	-1480	327	222	88	-8988	5492	12980	155	-171	-147	-15012	3376	-5400	10	-65	26	-16316	-252	1200	111	-69	282	127	125	8
-7720	-4572	13316	-104	122	-239	-16264	-2648	-1860	-11	-188	238	-16056	-1924	-1780	103	206	23	-8960	5440	13068	115	-139	-171	-15060	3340	-5344	-36	-70	-10	-16256	-288	1224	20	-50	181	127	125	8
-7724	-4548	13324	-111	176	-221	-16336	-2616	-1684	-138	-194	227	-16048	-1964	-1480	-8	113	-13	-8996	5456	13132	120	-104	-149	-15084	3296	-5272	20	-75	-20	-16340	-416	1304	-74	-51	143	127	125	8
-7672	-4496	13340	-106	171	-197	-16260	-2536	-1844	-43	-172	225	-16136	-2132	-1472	161	67	-11	-9000	5408	13080	91	-96	-153	-15152	3252	-5144	-29	-6	-46	-16320	-508	1268	-201	-62	152	127	125	8
-7708	-4528	13300	-152	137	-234	-16184	-2732	-1644	131	-149	181	-16072	-2212	-1468	202	2	15	-8960	5412	13088	117	-60	-173	-15220	3232	-5284	-59	-59	-76	-16280	-684	1500	-344	-119	139	126	125	8
-7852	-4556	13316	-88	156	-205	-16232	-2704	-1824	159	-146	207	-16048	-2156	-1552	174	27	52	-8912	5364	13152	88	12	-176	-15128	3176	-5252	-141	45	-94	-16236	-784	1376	-392	-167	92	126	125	8
-7848	-4460	13388	-63	132	-198	-16308	-2764	-1580	210	-161	212	-16028	-2256	-1584	197	50	-19	-8964	5376	13108	69	35	-155	-15120	3212	-5200	-187	106	-65	-16248	-880	1440	-340	-157	158	126	125	8
-7936	-4264	13428	-77	113	-217	-16232	-2804	-1872	-8	-168	201	-16048	-2244	-1672	217	123	-15	-8940	5396	13064	75	118	-136	-15132	3244	-5200	-226	97	-90	-16244	-676	1276	-273	-183	126	127	125	8
-7848	-4632	13252	-78	138	-171	-16276	-2576	-1772	23	-229	228	-16036	-2112	-1696	215	124	-13	-8968	5444	13084	60	72	-150	-15116	3180	-5332	-199	117	-106	-16252	-768	1260	-216	-110	163	126	125	8
-7760	-4472	13372	-103	138	-182	-16276	-2608	-1744	-26	-217	166	-16084	-1992	-1480	121	112	19	-9056	5468	13144	97	51	-149	-15120	3136	-5440	-125	83	-87	-16356	-704	1288	-188	-130	166	126	125	8
-7916	-4408	13412	-153	137	-229	-16228	-2692	-1740	-39	-243	208	-16108	-1980	-1568	108	-2	21	-8928	5396	13116	104	41	-128	-15156	3200	-5428	-118	77	-44	-16324	-708	980	-139	-147	153	126	125	8
-7820	-4504	13364	-173	191	-195	-16228	-2700	-1692	-104	-256	210	-16004	-2216	-1700	35	33	-22	-8932	5436	13104	132	59	-189	-15152	3216	-5324	-35	63	-57	-16404	-688	1092	-122	-173	174	126	125	8
-7776	-4660	13412	-146	166	-216	-16404	-2732	-1760	1	-249	227	-15896	-2372	-1640	155	48	-11	-9000	5372	13092	141	92	-168	-15044	3144	-5404	-11	36	-5	-16244	-676	1048	-43	-178	204	126	125	8
-7760	-4628	13312	-127	105	-250	-16236	-2660	-1620	61	-309	255	-16008	-2276	-1776	128	108	22	-8972	5396	13152	139	23	-101	-15140	3228	-5388	-35	-15	-42	-16244	-668	1088	-75	-186	182	126	125	8
-7772	-4508	13412	-132	74	-245	-16192	-2704	-1584	-13	-287	258	-15992	-2172	-1492	173	123	51	-9052	5464	13140	129	49	-159	-15076	3272	-5292	-70	-10	-61	-16252	-604	1036	-60	-214	162	126	125	8
-7780	-4332	13404	-76	133	-243	-16236	-2736	-1632	-23	-292	286	-16012	-2112	-1756	262	134	11	-8992	5424	13128	106	-46	-111	-15052	3260	-5364	-106	-42	-31	-16388	-516	988	-55	-217	146	126	125	8
-7864	-4440	13428	-114	249	-245	-16316	-2676	-1728	-58	-317	226	-16056	-2048	-1688	227	135	27	-9012	5500	13092	130	-39	-130	-15108	3236	-5412	-39	-66	-18	-16328	-596	1012	-39	-218	131	126	125	8
-7808	-4584	13328	-139	219	-218	-16248	-2608	-1716	-195	-329	221	-16000	-2008	-1488	82	156	70	-9024	5412	13080	138	-123	-166	-15092	3212	-5448	20	-128	-36	-16292	-664	1096	-52	-220	156	127	125	8
-7704	-4868	13132	-153	211	-189	-16332	-2560	-1468	-223	-270	213	-16024	-2208	-1396	248	13	11	-8992	5372	13112	121	-147	-141	-15100	3196	-5364	26	-153	-22	-16208	-664	1152	-63	-164	154	127	125	8
-7584	-4792	13224	-140	152	-211	-16248	-2724	-1476	96	-243	191	-16124	-2180	-1300	350	-23	25	-9004	5380	13096	118	-113	-126	-15092	3176	-5328	-26	-163	-14	-16248	-676	1188	-21	-166	156	126	125	8
-7700	-4572	13156	-121	140	-215	-16264	-2452	-1528	197	-235	157	-16024	-2028	-1172	363	-78	64	-8948	5336	13112	137	-69	-156	-15096	3152	-5312	-13	-200	-10	-16276	-784	1152	69	-187	161	126	125	8
-7840	-4552	13372	-66	148	-220	-16244	-2708	-1552	199	-174	167	-16020	-2176	-1584	375	3	58	-9004	5368	13120	122	-86	-95	-15140	3196	-5392	54	-203	-68	-16276	-724	1208	114	-180	202	126	125	8
-7896	-4488	13392	-40	158	-172	-16300	-2696	-1724	245	-166	225	-16108	-2240	-1632	353	-1	50	-8972	5400	13088	167	-130	-108	-15072	3276	-5380	82	-191	29	-16292	-628	1328	119	-145	141	126	125	8
-7984	-4272	13244	-10	163	-165	-16272	-2736	-1712	186	-166	207	-16040	-2196	-1716	462	-4	22	-8972	5516	13100	142	-140	-112	-15100	3320	-5216	57	-193	-33	-16244	-552	1360	114	-109	142	126	125	8
-7708	-4600	13320	-112	135	-190	-16324	-2548	-1680	142	-181	178	-16076	-1920	-1696	416	23	15	-8940	5628	12980	130	-127	-163	-15116	3304	-5184	100	-219	12	-16268	-612	1444	139	-100	211	126	125	8
-7592	-4544	13276	-163	159	-219	-16232	-2572	-1652	47	-219	213	-16000	-2104	-1652	267	9	51	-8932	5476	13120	162	-177	-196	-15180	3216	-5124	102	-171	-29	-16308	-700	1364	94	-88	176	127	125	8
-7708	-4540	13320	-128	200	-162	-16204	-2608	-1540	21	-211	163	-16016	-2176	-1552	219	26	32	-8908	5452	13220	125	-137	-210	-15124	3224	-5152	71	-143	5	-16252	-696	1384	74	-107	196	126	125	8
-7736	-4604	13356	-137	227	-207	-16268	-2540	-1516	101	-188	210	-16080	-2204	-1504	306	-32	59	-8920	5436	13200	149	-57	-218	-15212	3216	-5244	35	-118	-14	-16356	-808	1356	167	-150	210	126	125	8
-7864	-4512	13232	-73	184	-208	-16172	-2664	-1492	4	-164	154	-16100	-2072	-1588	322	-75	38	-8936	5348	13168	175	-20	-198	-15196	3116	-5248	48	-141	-23	-16340	-712	1284	222	-138	196	127	125	8
-7848	-4568	13296	-71	153	-181	-16272	-2660	-1324	167	-180	166	-16048	-2156	-1372	341	-96	10	-8912	5336	13268	138	-10	-131	-15124	3164	-5164	25	-133	-69	-16304	-524	1176	110	-117	254	127	125	8
-7864	-4592	13296	-79	90	-178	-16200	-2676	-1464	54	-143	126	-16044	-2064	-1528	235	-117	54	-8936	5436	13140	150	31	-115	-15156	3228	-5360	-52	-94	-61	-16248	-496	1308	-6	-165	136	126	125	8
-7756	-4520	13332	-66	81	-177	-16264	-2596	-1492	23	-121	119	-16052	-2072	-1460	216	-127	8	-8996	5448	13112	125	42	-131	-15048	3272	-5268	-85	-153	-72	-16176	-500	1284	-80	-189	157	126	125	8
-7832	-4584	13328	-81	88	-197	-16280	-2652	-1572	18	-122	73	-16028	-2060	-1612	181	-83	38	-8924	5444	13064	108	14	-117	-15092	3244	-5248	-94	-123	-65	-16272	-592	1204	-100	-163	126	126	125	8
-7748	-4536	13240	-66	150	-174	-16324	-2636	-1536	102	-140	145	-16112	-2136	-1484	216	-110	7	-8936	5488	13060	131	7	-153	-15112	3236	-5148	-39	-134	-26	-16240	-664	1284	-47	-205	81	126	125	8
-7792	-4568	13236	-114	147	-214	-16260	-2616	-1600	125	-89	135	-16032	-2128	-1584	189	-135	-36	-8932	5492	13064	145	-26	-148	-15100	3240	-5176	51	-125	-31	-16188	-776	1224	-39	-193	128	126	125	8
-7784	-4544	13316	-108	140	-206	-16288	-2656	-1628	94	-120	148	-15980	-2148	-1392	164	-160	-9	-8944	5432	13112	142	-63	-193	-15092	3264	-5144	79	-134	-6	-16244	-756	1180	53	-232	149	126	125	8
-7796	-4512	13276	-92	192	-218	-16364	-2644	-1592	163	-119	144	-16060	-2344	-1552	320	-83	-7	-8956	5384	13212	103	-136	-177	-15052	3264	-5276	34	-158	-36	-16224	-676	1312	57	-233	163	126	125	8
-7796	-4592	13300	-70	226	-240	-16300	-2644	-1492	261	-105	147	-16052	-2356	-1592	473	-86	-2	-8984	5424	13104	98	-104	-192	-15112	3212	-5212	25	-149	-31	-16196	-680	1108	202	-191	186	126	125	8
-7636	-4572	13348	-117	166	-245	-16236	-2628	-1580	338	-156	158	-16000	-2020	-1656	585	-36	60	-8920	5444	13024	111	-122	-172	-15088	3256	-5244	97	-197	-15	-16332	-760	1284	246	-153	173	126	125	8
-7740	-4500	13416	-94	192	-241	-16248	-2556	-1920	190	-173	132	-15952	-2076	-1364	331	-83	36	-8896	5444	13136	101	-169	-167	-15128	3192	-5240	168	-212	24	-16264	-668	1240	323	-184	181	126	125	8
-7756	-4732	13248	-151	191	-192	-16392	-2796	-1564	174	-181	108	-16024	-2164	-1412	288	-85	31	-8900	5356	13040	122	-189	-212	-15120	3256	-5204	134	-205	30	-16324	-632	1180	347	-186	144	126	125	8
-7744	-4796	13152	-110	179	-226	-16236	-2416	-1752	182	-141	102	-16092	-2180	-1472	533	-106	-64	-8944	5412	13064	95	-236	-190	-15112	3212	-5192	142	-198	-20	-16308	-548	1200	374	-186	218	126	125	8
-7756	-5036	13072	-65	263	-201	-16196	-2696	-1300	437	-144	82	-16152	-2004	-1112	583	-169	84	-8832	5352	13232	124	-189	-159	-15204	3200	-5108	108	-208	-2	-16320	-580	1272	295	-177	196	126	125	8
-7560	-4780	13380	-108	81	-146	-16176	-2832	-1212	258	-82	81	-16052	-2228	-1216	630	-312	54	-8860	5388	13216	82	-118	-122	-15184	3212	-5192	-4	-228	-71	-16328	-524	1212	213	-144	208	126	125	8
-7636	-4764	13328	-49	112	-117	-16260	-2596	-1460	496	-32	77	-16060	-1912	-1220	514	-428	2	-8884	5416	13164	131	-154	-99	-15248	3156	-5108	1	-208	-70	-16384	-592	1292	124	-121	201	126	125	8
-7744	-4604	13392	-62	135	-175	-16284	-2504	-1408	203	10	29	-15988	-1940	-1496	207	-443	-16	-8860	5436	12956	84	-98	-122	-15208	3204	-5148	53	-254	-50	-16340	-648	1260	122	-76	131	126	125	8
-7952	-4872	13224	-20	95	-231	-16260	-2740	-1620	224	-16	94	-16080	-2020	-1688	152	-394	-16	-8796	5348	13092	73	-100	-112	-15180	3180	-5200	19	-270	-79	-16288	-672	1308	57	-58	154	126	125	8
-7800	-4520	13256	-7	68	-125	-16284	-2824	-1676	287	-53	93	-15960	-2168	-1884	107	-311	-55	-8852	5440	13072	114	-72	-50	-15104	3064	-5088	-97	-279	-58	-16292	-616	1336	114	35	114	126	125	8
-7852	-4560	13312	-53	108	-91	-16284	-2644	-1612	64	-162	140	-15960	-2380	-1780	44	-162	-9	-8996	5404	13076	123	-102	-102	-15148	3208	-5044	-26	-238	-86	-16216	-716	1508	-119	-128	135	126	125	8
-7840	-4488	13376	-61	115	-192	-16340	-2652	-1664	-19	-196	187	-16004	-2448	-1860	98	-42	10	-8780	5316	13204	127	-125	-70	-15112	3284	-4900	87	-229	-64	-16208	-708	1516	-80	-59	151	126	125	8
-7760	-4572	13380	-56	103	-183	-16324	-2780	-1624	29	-241	224	-16000	-2280	-1648	161	31	-21	-8792	5452	13204	142	-202	-92	-15180	3128	-5168	-202	-213	-45	-16212	-692	1432	-49	15	179	126	125	8
-7724	-4584	13364	-92	107	-168	-16348	-2576	-1500	21	-259	184	-16084	-2164	-1340	213	61	28	-8940	5664	13040	130	-120	-114	-15280	3216	-4984	83	-157	-76	-16236	-776	1624	-30	-119	229	127	125	8
-7788	-4548	13384	-68	147	-208	-16276	-2604	-1484	-19	-271	187	-16084	-2024	-1512	290	0	23	-8756	5456	13252	141	-36	-99	-15184	3300	-4932	-53	-143	-78	-16224	-744	1516	15	-25	200	127	125	8
-7852	-4404	13260	-97	168	-207	-16284	-2580	-1552	-18	-284	156	-16040	-2168	-1356	220	11	57	-8800	5476	13164	80	-44	-130	-15144	3200	-4920	-29	-119	-101	-16268	-716	1420	76	-46	208	126	125	8
-7788	-4560	13304	-138	136	-206	-16260	-2684	-1460	3	-283	188	-16116	-2144	-1312	203	30	21	-8868	5428	13228	132	-79	-171	-15196	3212	-4984	-57	-112	-32	-16272	-664	1392	-2	-223	175	126	125	8
-7812	-4612	13280	-135	144	-212	-16304	-2612	-1412	-170	-271	168	-15984	-2128	-1312	66	18	4	-8836	5428	13204	142	-43	-183	-15188	3252	-5008	-9	-68	-42	-16240	-628	1344	-73	-247	161	126	125	8
-7868	-4524	13428	-132	152	-208	-16304	-2612	-1396	-190	-230	184	-16044	-2088	-1428	-46	102	-18	-8880	5376	13148	114	-38	-172	-15232	3192	-5136	10	-83	-36	-16268	-648	1412	-21	-236	103	127	125	8
-7792	-4440	13276	-135	149	-240	-16280	-2736	-1364	-58	-226	183	-16104	-2272	-1308	51	49	-50	-8828	5448	13144	153	-61	-186	-15076	3188	-5080	73	-79	-39	-16268	-580	1356	35	-202	88	126	125	8
-7820	-4640	13280	-75	165	-204	-16324	-2600	-1204	-145	-211	121	-15940	-2260	-1304	199	172	-76	-8876	5412	13112	132	-67	-118	-15160	3240	-5008	35	-89	-45	-16220	-604	1388	-26	-85	158	127	125	8
-7676	-4444	13364	-113	148	-214	-16356	-2592	-1348	-86	-157	174	-16020	-2256	-1208	73	164	76	-8844	5464	13188	119	-88	-163	-15172	3308	-5004	-41	-72	-66	-16264	-692	1432	-57	-44	170	126	125	8
-7888	-4240	13280	-83	194	-180	-16252	-2768	-1396	-35	-159	122	-16020	-2172	-1436	216	200	31	-8880	5400	13128	100	-112	-191	-15160	3212	-5140	-1	-11	-51	-16252	-780	1480	-34	-36	142	127	125	8
-7856	-4580	13368	-146	191	-241	-16396	-2516	-1328	-53	-148	132	-16016	-2160	-1312	278	265	-27	-8844	5400	13152	110	-109	-149	-15204	3180	-4984	93	-7	-50	-16272	-792	1456	33	-53	147	126	125	8
-7904	-4360	13384	-154	169	-235	-16176	-2660	-1320	67	-76	158	-16056	-2060	-1448	196	335	11	-8820	5428	13176	137	-105	-184	-15212	3116	-4916	155	-35	-23	-16364	-788	1400	100	-83	171	127	125	8
-7920	-4476	13292	-68	269	-196	-16320	-2560	-1308	-22	-106	126	-16008	-2192	-1428	328	283	-22	-8872	5424	13132	108	-26	-262	-15192	3288	-4884	169	42	-46	-16244	-736	1356	183	-131	166	126	125	8
-7780	-4444	13216	-144	272	-170	-16344	-2696	-1372	73	-72	146	-16064	-2124	-1384	356	349	-21	-8888	5440	13096	131	-11	-189	-15212	3088	-5100	-5	19	-32	-16296	-656	1456	305	-71	177	127	125	8
-7752	-4708	13144	-171	171	-211	-16388	-2560	-1308	65	-49	114	-16036	-2104	-1348	364	203	-50	-8908	5508	13080	189	0	-193	-15280	3140	-5112	187	-17	-40	-16304	-664	1468	344	-111	147	127	125	8
-7828	-4640	13236	-98	175	-213	-16268	-2708	-1536	177	-27	106	-16044	-2156	-1408	244	232	11	-8800	5336	13188	157	-49	-175	-15152	3312	-5044	167	-14	-22	-16264	-616	1480	324	24	150	127	125	8
-7792	-4556	13280	-110	150	-200	-16264	-2632	-1384	166	-67	108	-16036	-2232	-1376	311	219	-39	-8880	5452	13184	121	1	-210	-15168	3292	-5056	153	-12	-33	-16244	-544	1280	247	53	197	127	125	8
-7768	-4604	13404	-102	136	-215	-16352	-2604	-1452	115	-11	148	-16020	-2276	-1388	284	239	-41	-8832	5456	13172	111	-17	-204	-15148	3284	-5016	109	6	-74	-16328	-540	1432	203	66	194	127	125	8
-7876	-4516	13332	-103	132	-191	-16244	-2648	-1320	109	26	90	-16116	-2224	-1392	305	174	-39	-8868	5404	13116	114	64	-204	-15092	3208	-5048	133	30	-70	-16244	-596	1460	125	61	201	127	125	8
-7812	-4596	13212	-71	129	-189	-16312	-2556	-1276	169	38	75	-16116	-2144	-1316	312	189	-2	-8812	5512	13124	111	30	-215	-15120	3208	-4944	134	47	-31	-16208	-636	1348	15	-31	155	126	125	8
-7788	-4604	13248	-127	175	-145	-16288	-2548	-1276	177	90	84	-16104	-2252	-1484	356	111	-4	-8848	5440	13152	114	-37	-252	-15228	3228	-5044	36	131	-48	-16200	-624	1472	-2	-50	147	126	125	8
-7824	-4532	13384	-96	166	-144	-16360	-2648	-1436	173	101	101	-16056	-2156	-1520	342	61	-15	-8872	5468	13264	140	-42	-226	-15144	3196	-5004	-11	128	-42	-16220	-700	1452	-76	-125	139	126	125	8
-7764	-4584	13356	-115	157	-177	-16308	-2548	-1484	175	98	72	-15992	-2108	-1584	253	101	5	-8788	5444	13292	83	47	-250	-15316	3160	-5136	-54	138	-43	-16392	-720	1284	64	-93	139	127	125	8
-7876	-4544	13360	-128	157	-204	-16316	-2760	-1436	107	143	105	-16104	-2180	-1736	157	-8	3	-8856	5336	13224	99	96	-217	-15288	3132	-5224	19	109	-69	-16392	-836	1196	42	-66	180	126	125	8
-7884	-4652	13256	-122	183	-150	-16316	-2672	-1496	-82	111	113	-15964	-2216	-1768	-94	72	30	-8836	5352	13276	117	78	-197	-15072	3060	-5172	80	110	-27	-16244	-764	1260	-79	-98	216	127	125	8
-7656	-4828	13252	-121	76	-193	-16168	-2712	-1448	-318	30	71	-16056	-2388	-1664	-194	54	-6	-8824	5344	13048	126	56	-158	-15056	3184	-5060	-27	159	-54	-16164	-612	1256	-173	-111	219	127	125	8
-7848	-4504	13212	-96	101	-141	-16288	-2776	-1568	-155	-8	126	-16028	-2340	-1776	-83	38	-33	-8912	5432	13060	73	43	-153	-15168	3220	-5088	-180	154	-36	-16208	-612	1288	-176	-88	245	127	125	8
-7868	-4492	13260	-43	100	-138	-16304	-2572	-1464	-112	-52	149	-16052	-2316	-1804	-68	45	-5	-8884	5500	13140	84	39	-157	-15224	3164	-5088	-186	134	-42	-16288	-796	1144	-82	-64	205	126	125	8
-7844	-4560	13344	-98	114	-171	-16288	-2716	-1440	84	-59	144	-15972	-2396	-1656	72	-46	52	-8884	5404	13180	132	15	-172	-15292	3124	-5232	-126	104	42	-16360	-912	1048	92	-109	126	126	125	8
-7832	-4644	13184	-121	140	-166	-16280	-2716	-1460	103	-67	173	-15952	-2468	-1768	146	-43	75	-8860	5404	13276	178	44	-210	-15276	2992	-5308	70	6	58	-16400	-1008	1072	232	-153	203	127	125	8
-7832	-4580	13340	-98	123	-189	-16280	-2756	-1508	95	-86	226	-15968	-2496	-1800	197	13	30	-8824	5344	13208	198	22	-145	-15228	3096	-5300	122	-38	56	-16364	-768	904	214	-201	251	127	125	8
-7748	-4468	13384	-67	83	-176	-16328	-2612	-1420	-108	-118	218	-16056	-2096	-1836	322	128	97	-8852	5308	13240	242	37	-115	-15164	3152	-5328	104	-124	-2	-16344	-576	972	125	-164	280	126	125	8
-7988	-4172	13500	-137	73	-146	-16304	-2360	-1500	-572	-104	110	-16016	-1668	-1420	-264	219	174	-8852	5400	13180	235	-29	-63	-15128	3188	-5184	106	-185	61	-16244	-464	1028	30	-176	299	127	125	8
-7552	-4000	13508	-161	-55	-96	-16252	-2932	-1440	-507	-118	133	-16008	-2072	-1424	-80	185	176	-8896	5448	13104	230	-46	-49	-15072	3284	-5116	129	-203	14	-16176	-400	1240	-6	-105	256	127	125	8
-7764	-4444	13284	-73	-7	-125	-16368	-2544	-1516	-207	-76	171	-16132	-2368	-1340	76	34	41	-8876	5448	13120	171	-112	-52	-15064	3444	-5016	54	-154	25	-16176	-356	1444	4	-64	236	127	125	8
-7664	-4596	13308	-28	32	-162	-16320	-2436	-1312	-23	-29	153	-16172	-2124	-1380	61	-102	48	-8868	5548	13056	135	-101	-102	-15176	3364	-4896	-17	-178	-14	-16204	-512	1516	33	-51	214	127	125	8
-7852	-4700	13200	-109	148	-216	-16344	-2736	-1496	46	-14	99	-16004	-1904	-1488	190	-176	19	-8896	5560	13040	152	-146	-203	-15212	3260	-4912	-8	-155	-6	-16260	-592	1536	83	-1	170	127	125	8
-7936	-4620	13244	-98	182	-155	-16348	-2680	-1388	42	-8	178	-16048	-2020	-1632	4	-88	54	-8780	5456	13232	134	-155	-183	-15192	3216	-4880	78	-129	-5	-16220	-692	1584	103	-11	179	126	125	8
-7784	-4576	13260	-97	156	-155	-16292	-2684	-1512	-88	-12	124	-16024	-2256	-1776	-34	-96	-9	-8780	5436	13196	128	-48	-191	-15320	3192	-4860	105	-114	6	-16300	-724	1464	120	-70	173	127	125	8
-7864	-4788	13216	-90	160	-146	-16248	-2700	-1588	-80	-70	144	-16012	-2328	-1568	-5	-54	13	-8832	5428	13276	151	8	-181	-15256	3272	-4908	3	-23	-85	-16376	-588	1464	6	-126	248	127	125	8
-7864	-4656	13316	-89	160	-190	-16316	-2632	-1484	-4	-65	120	-16056	-2300	-1588	45	-47	21	-8848	5380	13288	103	14	-176	-15212	3220	-5028	-95	3	-103	-16336	-544	1540	-119	-138	241	127	125	8
-7804	-4556	13236	-105	96	-174	-16328	-2688	-1472	5	-61	133	-15972	-2176	-1676	152	23	4	-8876	5356	13188	140	83	-113	-15152	3164	-5008	-47	-10	-84	-16356	-552	1540	-63	-68	154	127	125	8
-7836	-4592	13276	-134	102	-174	-16376	-2564	-1460	41	-86	139	-15960	-2020	-1688	165	55	-8	-8808	5404	13232	86	78	-166	-15180	3196	-4988	-4	-34	-92	-16208	-692	1364	-190	-27	111	127	125	8
-7816	-4532	13216	-112	112	-243	-16264	-2640	-1428	57	-97	91	-15944	-1956	-1552	215	-24	-50	-8816	5440	13204	127	7	-141	-15052	3204	-5012	18	8	-68	-16100	-672	1384	-157	-13	70	126	125	8
-7804	-4628	13332	-85	124	-219	-16220	-2608	-1308	105	-72	70	-16032	-2112	-1492	117	33	-20	-8948	5468	13116	106	-7	-156	-15104	3316	-5000	21	56	-106	-16052	-648	1444	-61	-63	87	126	125	8
-7752	-4596	13184	-121	136	-208	-16316	-2628	-1204	64	-71	106	-16088	-2280	-1296	180	29	-13	-8840	5540	13148	81	-60	-195	-15092	3304	-5004	-69	89	-67	-16124	-628	1384	-20	-140	136	127	125	8
-7844	-4616	13364	-114	108	-181	-16240	-2644	-1304	98	-64	83	-16076	-2208	-1348	269	23	-9	-8900	5500	13184	27	-69	-178	-15168	3288	-4904	-88	83	-104	-16284	-584	1364	16	-118	202	126	125	8
-7796	-4520	13196	-124	149	-165	-16256	-2600	-1224	82	-23	97	-16128	-2100	-1296	231	-21	15	-8832	5484	13048	61	-35	-268	-15204	3308	-5136	-26	39	-19	-16412	-648	1264	-20	-143	197	126	125	8
-7752	-4616	13240	-119	188	-192	-16320	-2716	-1500	205	6	120	-15988	-2092	-1540	66	-34	35	-8880	5456	13072	120	-45	-248	-15228	3168	-5080	72	34	-23	-16388	-764	1284	-28	-101	176	126	125	8
-7796	-4544	13340	-126	211	-183	-16268	-2636	-1532	129	35	147	-15984	-2320	-1656	155	-65	-23	-8844	5308	13208	131	-48	-245	-15292	3044	-5052	182	19	8	-16340	-800	1392	9	-105	163	126	125	8
-7808	-4560	13376	-100	202	-181	-16300	-2716	-1360	66	57	107	-16064	-2248	-1652	149	-78	-27	-8824	5320	13280	140	-35	-197	-15256	3148	-5020	97	-13	20	-16272	-796	1232	117	-75	151	126	125	8
-7812	-4668	13252	-74	140	-172	-16356	-2736	-1400	128	28	99	-15992	-2576	-1656	347	80	29	-8836	5336	13168	158	48	-141	-15260	3100	-5112	10	54	-25	-16268	-684	1456	130	-42	206	127	125	8
-7880	-4584	13292	-49	88	-177	-16260	-2744	-1456	189	42	136	-16028	-2212	-1648	419	89	43	-8844	5392	13224	144	63	-153	-15248	3172	-5080	-8	52	-63	-16248	-716	1348	119	-19	203	126	125	8
-7832	-4608	13296	-47	93	-172	-16244	-2608	-1364	170	26	105	-16056	-2032	-1580	301	100	30	-8852	5404	13164	173	126	-139	-15228	3152	-5116	7	37	12	-16260	-756	1232	138	12	232	126	125	8
-7772	-4584	13280	-118	118	-192	-16308	-2644	-1404	157	73	137	-16044	-2056	-1640	251	-6	15	-8868	5480	13184	210	77	-169	-15208	3232	-4992	107	45	4	-16312	-660	1436	87	-10	199	126	125	8
-7816	-4644	13204	-100	103	-183	-16220	-2676	-1464	95	55	90	-15952	-2216	-1520	181	6	5	-8832	5380	13232	179	21	-179	-15132	3260	-5016	78	29	6	-16164	-576	1256	91	-80	184	127	125	8
-7852	-4648	13268	-81	127	-211	-16312	-2648	-1632	60	3	145	-16108	-2196	-1756	196	26	17	-8824	5392	13224	170	1	-222	-15136	3228	-4956	-7	31	15	-16168	-436	1264	53	-108	209	126	125	8
-7780	-4584	13336	-157	140	-193	-16296	-2684	-1472	17	17	133	-16012	-2180	-1616	195	48	54	-8828	5444	13252	99	41	-231	-15156	3220	-5140	-46	2	-42	-16228	-536	1240	-24	-125	237	126	125	8
-7784	-4576	13248	-100	149	-154	-16344	-2752	-1484	13	-32	141	-15996	-2224	-1688	111	17	55	-8828	5412	13220	135	3	-145	-15168	3208	-5148	-17	0	-5	-16320	-560	1184	-120	-175	174	126	125	8
-7812	-4544	13304	-60	129	-182	-16308	-2668	-1372	-14	-4	155	-16000	-2244	-1744	66	24	60	-8896	5416	13172	119	6	-177	-15200	3148	-5188	-47	-16	-26	-16316	-576	1304	-162	-171	155	127	125	8
-7812	-4608	13332	-127	119	-131	-16328	-2668	-1536	-67	-36	150	-16048	-2228	-1680	59	17	65	-8900	5432	13248	142	-30	-149	-15228	3312	-5212	4	-5	-54	-16380	-536	1420	-78	-86	133	126	125	8
-7848	-4632	13308	-110	133	-157	-16352	-2580	-1392	-56	-27	170	-16036	-2200	-1632	77	36	42	-8844	5400	13132	133	37	-161	-15208	3224	-5064	0	10	-55	-16252	-628	1364	-95	-37	185	127	125	8
-7796	-4508	13308	-135	124	-182	-16328	-2664	-1412	29	-30	176	-16048	-2188	-1600	169	2	49	-8820	5440	13196	109	40	-171	-15188	3160	-4976	-62	24	-52	-16232	-736	1368	-106	-30	206	126	125	8
-7816	-4596	13224	-116	103	-178	-16304	-2636	-1368	12	-29	166	-16040	-2036	-1628	74	-37	79	-8788	5360	13232	123	33	-150	-15172	3124	-5056	-63	-27	-3	-16280	-840	1352	-102	-49	232	126	125	8
-7800	-4588	13272	-85	115	-198	-16336	-2700	-1452	-92	-66	145	-15964	-2188	-1624	23	-34	40	-8868	5408	13180	123	29	-179	-15196	3132	-5136	-20	-20	-4	-16236	-820	1264	-26	-89	233	126	125	8
-7848	-4616	13236	-102	95	-153	-16256	-2660	-1516	-60	-53	141	-16008	-2244	-1564	84	-42	28	-8872	5432	13152	157	107	-176	-15184	3164	-5120	-19	3	-17	-16276	-676	1356	-16	-120	196	127	125	8
-7816	-4564	13276	-79	83	-164	-16292	-2620	-1444	64	-93	153	-16024	-2300	-1624	190	-12	41	-8928	5420	13148	124	67	-111	-15192	3212	-5092	-25	24	-25	-16284	-532	1348	-72	-125	193	127	125	8
-7804	-4520	13204	-90	67	-176	-16312	-2628	-1460	53	-61	145	-16012	-2124	-1484	234	-4	75	-8924	5416	13176	138	46	-90	-15180	3324	-5040	-92	38	-29	-16328	-484	1320	-90	-106	203	126	125	8
-7808	-4632	13280	-67	114	-167	-16296	-2640	-1368	26	-69	144	-16040	-2080	-1468	209	20	55	-8832	5416	13208	145	72	-176	-15152	3236	-5156	-67	27	-46	-16276	-576	1380	-214	-118	165	126	125	8
-7828	-4616	13248	-85	114	-176	-16228	-2620	-1348	53	-38	151	-16024	-2052	-1636	105	1	15	-8836	5424	13196	132	31	-181	-15184	3300	-5132	-25	-14	-6	-16240	-700	1300	-153	-175	139	126	125	8
-7796	-4516	13300	-86	158	-186	-16312	-2688	-1548	45	-53	183	-16012	-2060	-1608	49	-65	-2	-8840	5420	13124	146	-43	-154	-15228	3208	-5092	74	-26	34	-16264	-664	1360	53	-124	161	127	125	8
-7788	-4612	13332	-79	133	-177	-16372	-2632	-1408	-4	-6	158	-16048	-2112	-1592	93	-67	-16	-8932	5416	13136	137	28	-121	-15136	3232	-5076	23	-32	-19	-16252	-660	1472	66	-45	209	126	125	8
-7828	-4580	13224	-136	142	-178	-16304	-2696	-1468	35	-86	142	-15996	-2212	-1420	107	4	9	-8856	5488	13196	100	-14	-167	-15176	3200	-4984	-5	-10	-56	-16272	-648	1240	52	-35	236	126	125	8
-7796	-4580	13220	-62	127	-172	-16332	-2640	-1504	21	-30	147	-16044	-2252	-1644	144	54	56	-8792	5432	13232	148	-6	-137	-15088	3224	-5124	-26	20	8	-16300	-652	1320	-57	-100	178	127	125	8
-7848	-4648	13236	-104	112	-176	-16308	-2668	-1392	22	-41	161	-16072	-2196	-1424	183	27	19	-8828	5364	13168	140	15	-144	-15204	3192	-5132	13	-58	-35	-16324	-680	1324	-24	-73	162	126	125	8
-7820	-4596	13332	-79	136	-175	-16304	-2624	-1424	70	-42	128	-16016	-2156	-1528	250	-2	9	-8820	5452	13224	162	9	-146	-15208	3208	-5180	16	-48	-30	-16256	-696	1320	27	-122	161	127	125	8
-7824	-4580	13232	-95	115	-206	-16328	-2604	-1504	112	-28	111	-15968	-2024	-1544	218	0	10	-8844	5380	13076	184	-20	-198	-15180	3244	-5056	24	3	-19	-16240	-532	1360	33	-144	146	126	125	8
-7752	-4660	13336	-77	114	-193	-16276	-2596	-1536	69	-90	123	-15992	-2168	-1504	192	-20	-2	-8880	5552	13132	140	-9	-165	-15116	3216	-5108	39	-23	-4	-16244	-640	1416	54	-74	142	126	125	8
-7792	-4580	13288	-107	175	-205	-16248	-2736	-1444	106	-50	139	-16016	-2176	-1600	242	47	4	-8848	5404	13212	127	-33	-168	-15160	3268	-5168	72	-25	1	-16232	-636	1384	33	-71	165	126	125	8
-7760	-4572	13212	-81	150	-161	-16312	-2624	-1488	123	-47	146	-15972	-2220	-1524	253	60	13	-8864	5432	13100	110	-44	-170	-15196	3260	-5044	39	7	-42	-16196	-648	1276	-27	-109	208	127	125	8
-7744	-4628	13236	-107	141	-192	-16264	-2648	-1368	64	-42	129	-16084	-2096	-1500	179	43	38	-8812	5452	13192	146	-119	-184	-15136	3300	-5148	49	-19	-66	-16216	-604	1284	-8	-129	187	126	125	8
-7824	-4556	13232	-75	177	-184	-16264	-2624	-1428	50	18	117	-16052	-2104	-1368	212	-7	53	-8876	5412	13200	143	-68	-193	-15204	3236	-5048	61	0	-40	-16272	-620	1428	43	-108	207	126	125	8
-7776	-4524	13244	-95	134	-196	-16324	-2672	-1508	162	40	143	-16100	-2088	-1512	233	-55	-46	-8904	5468	13268	78	-62	-207	-15224	3216	-5012	31	-26	-30	-16268	-636	1456	75	-78	137	126	125	8
-7804	-4592	13272	-83	151	-194	-16404	-2564	-1444	163	1	112	-16032	-2096	-1560	297	-54	9	-8812	5448	13056	128	-18	-203	-15292	3288	-5004	75	3	-37	-16344	-644	1468	23	-44	138	126	125	8
-7764	-4540	13364	-95	160	-180	-16268	-2656	-1532	131	56	118	-15996	-2168	-1600	267	9	10	-8832	5424	13188	158	-92	-182	-15228	3228	-5080	24	21	-50	-16244	-704	1484	-40	-31	181	126	125	8
-7868	-4628	13228	-107	135	-179	-16280	-2664	-1452	47	42	115	-16108	-2232	-1628	188	22	32	-8828	5400	13280	134	21	-199	-15260	3212	-5116	12	49	-26	-16320	-628	1356	29	-61	172	126	125	8
-7804	-4556	13312	-116	150	-160	-16304	-2748	-1488	7	1	130	-15984	-2200	-1788	117	34	5	-8888	5348	13180	164	75	-200	-15260	3132	-5148	-11	31	-19	-16312	-716	1268	105	-55	189	126	125	8
-7836	-4544	13348	-91	75	-190	-16320	-2736	-1384	-85	-13	124	-15928	-2152	-1696	48	-22	4	-8860	5432	13152	136	107	-156	-15120	3136	-5128	45	58	-50	-16256	-672	1320	118	-48	140	126	125	8
-7796	-4568	13296	-83	107	-155	-16332	-2704	-1508	-30	-30	118	-16016	-2192	-1672	80	-6	-20	-8824	5392	13172	130	94	-165	-15120	3264	-5028	49	42	-82	-16244	-520	1196	-17	-34	137	126	125	8
-7844	-4576	13156	-55	111	-121	-16296	-2644	-1504	35	-59	85	-16064	-2268	-1652	188	2	-2	-8820	5408	13196	131	35	-163	-15104	3244	-5120	-43	40	-89	-16196	-540	1336	-62	-30	156	126	125	8
-7804	-4588	13192	-124	110	-185	-16288	-2632	-1548	67	-92	112	-16040	-2192	-1588	216	30	-4	-8852	5456	13144	76	74	-153	-15100	3292	-5080	-92	24	-83	-16244	-576	1280	-129	-44	169	127	125	8
-7768	-4552	13276	-83	127	-192	-16368	-2640	-1416	84	-54	85	-15996	-2180	-1600	166	-3	32	-8872	5452	13224	111	41	-178	-15104	3248	-5060	-48	-15	-78	-16260	-620	1256	-117	-91	155	127	125	8
-7816	-4632	13192	-110	114	-153	-16296	-2636	-1440	43	-30	96	-16020	-2160	-1396	189	26	44	-8912	5440	13172	104	-3	-158	-15148	3204	-5020	-16	-2	-50	-16288	-604	1384	-128	-150	145	126	125	8
-7836	-4660	13388	-92	108	-173	-16292	-2552	-1396	-48	-42	102	-16032	-2124	-1340	141	23	30	-8844	5528	13328	95	-5	-196	-15248	3180	-5040	-3	-38	-42	-16320	-692	1336	-131	-165	138	126	125	8
-7768	-4576	13360	-104	165	-180	-16324	-2740	-1540	2	-77	101	-16032	-2208	-1680	137	10	-23	-8844	5432	13276	161	-3	-183	-15180	3160	-5084	45	-53	-24	-16304	-748	1260	-61	-128	141	126	125	8
-7804	-4588	13304	-103	162	-203	-16240	-2684	-1404	144	-35	134	-15952	-2192	-1644	202	-4	-19	-8864	5312	13180	136	-65	-194	-15216	3092	-5092	113	-31	-15	-16256	-768	1400	57	-134	140	126	125	8
-7816	-4636	13300	-77	154	-167	-16280	-2600	-1524	98	-35	143	-16036	-2232	-1564	209	5	2	-8828	5364	13108	159	-52	-184	-15120	3120	-5160	123	-39	-17	-16184	-784	1320	120	-76	185	126	125	8
-7828	-4632	13344	-98	140	-189	-16288	-2724	-1508	100	-43	99	-15996	-2284	-1508	261	48	35	-8824	5412	13104	180	-52	-164	-15124	3192	-5100	85	-67	-2	-16228	-696	1420	146	-86	217	126	125	8
-7812	-4552	13268	-102	122	-205	-16340	-2672	-1452	139	-10	114	-16008	-2196	-1440	365	74	23	-8892	5456	13164	110	-55	-161	-15148	3260	-4968	45	-75	-21	-16240	-600	1288	190	-67	220	126	125	8
-7736	-4572	13288	-78	102	-178	-16356	-2616	-1372	81	6	73	-16064	-2140	-1484	242	32	30	-8840	5452	13188	152	-129	-141	-15288	3288	-5076	106	-70	-20	-16352	-640	1424	171	-56	192	127	125	8
-7700	-4240	13424	-144	159	-147	-16292	-2588	-1320	85	-59	120	-15924	-1852	-1696	203	70	53	-8860	5444	13168	173	-27	-201	-15352	3232	-5004	144	-85	23	-16368	-676	1344	214	-60	158	126	125	8
-7916	-4572	13260	-149	187	-179	-16316	-2692	-1580	-211	-29	118	-15960	-1872	-1568	123	36	54	-8832	5396	13168	199	-25	-246	-15268	3144	-5084	232	-43	22	-16264	-708	1352	116	-102	114	127	125	8
-7896	-4612	13320	-98	226	-186	-16368	-2648	-1532	55	9	105	-16008	-2340	-1712	74	97	-47	-8852	5288	13184	192	-30	-187	-15216	3168	-5012	136	-78	4	-16316	-636	1340	196	-55	140	127	125	8
-7972	-4744	13208	-65	230	-232	-16316	-2440	-1644	-150	-36	72	-16016	-2220	-1568	16	139	-27	-8880	5308	13200	184	94	-170	-15160	3144	-5064	115	-68	-26	-16264	-648	1324	232	-24	205	126	125	8
-7788	-4628	13248	-154	228	-247	-16420	-2644	-1668	-139	16	87	-16104	-2188	-1396	20	45	94	-8824	5440	13268	172	5	-122	-15112	3184	-5112	53	-17	-108	-16224	-512	1264	266	-14	227	127	125	8
-7492	-5056	13124	-148	135	-306	-16380	-2752	-1344	40	-22	116	-15972	-2200	-1572	138	3	31	-8788	5488	13212	149	-29	-126	-15116	3304	-5096	78	-36	-24	-16256	-448	1200	88	-23	249	127	125	8
-7696	-4712	13176	-144	181	-259	-16276	-2408	-1436	-4	10	3	-16036	-1956	-1524	38	-44	83	-8856	5536	13076	135	-49	-132	-15116	3308	-5064	34	-36	-45	-16196	-528	1436	14	-5	226	127	125	8
-7888	-4600	13196	-111	183	-184	-16300	-2832	-1384	-360	22	100	-15856	-2176	-1660	-125	-26	31	-8864	5512	13148	100	-8	-157	-15100	3240	-4964	16	-11	-50	-16176	-592	1500	-55	26	225	127	125	8
-7892	-4668	13180	-119	152	-189	-16296	-2884	-1564	-62	35	128	-16028	-2556	-1708	70	5	-53	-8828	5476	13192	87	-39	-190	-15140	3264	-5044	-31	25	-63	-16196	-644	1464	-118	16	227	127	125	8
-7852	-4576	13240	-103	152	-193	-16288	-2640	-1596	127	2	175	-16020	-2444	-1872	276	-28	-37	-8792	5392	13104	88	-45	-196	-15264	3188	-5024	-31	69	-54	-16180	-660	1412	-137	-36	223	126	125	8
-7836	-4592	13260	-120	116	-221	-16320	-2600	-1640	27	-22	172	-16020	-2128	-1604	207	77	88	-8832	5436	13376	73	-38	-152	-15244	3156	-5040	-124	100	-66	-16304	-704	1404	-166	-55	186	127	125	8
-7776	-4636	13308	-102	147	-193	-16332	-2744	-1424	-41	11	174	-16056	-2064	-1520	121	126	91	-8864	5316	13192	89	64	-162	-15256	3196	-4980	-112	90	-70	-16344	-708	1400	-219	-76	160	127	125	8
-7840	-4644	13340	-69	84	-160	-16264	-2664	-1320	-35	-41	170	-16048	-2268	-1548	94	89	22	-8744	5432	13100	110	33	-179	-15260	3152	-4976	-136	150	-55	-16344	-756	1380	-294	-90	191	127	125	8
-7836	-4656	13244	-64	74	-125	-16364	-2660	-1348	-29	37	183	-16068	-2272	-1608	98	5	28	-8876	5396	13144	87	123	-134	-15180	3124	-5028	-133	136	-46	-16296	-728	1356	-303	-37	195	126	125	8
-7808	-4604	13328	-59	71	-184	-16312	-2592	-1452	3	21	183	-16084	-2200	-1536	182	104	76	-8864	5408	13200	103	99	-180	-15184	3172	-5056	-153	178	18	-16268	-876	1360	-318	-40	230	126	125	8
-7764	-4556	13232	-55	39	-143	-16240	-2636	-1384	64	23	209	-15956	-2024	-1612	90	75	57	-8816	5388	13112	130	162	-168	-15228	3092	-4968	-55	160	21	-16292	-916	1380	-241	-46	206	126	125	8
-7844	-4580	13316	-83	34	-180	-16248	-2664	-1452	6	79	156	-16036	-2144	-1480	26	10	56	-8828	5396	13144	159	186	-160	-15196	3228	-5076	-42	212	30	-16308	-804	1408	-117	-71	211	126	125	8
-7792	-4716	13288	-75	48	-169	-16344	-2660	-1456	-34	110	236	-16020	-2324	-1476	46	88	27	-8860	5400	13092	179	202	-173	-15176	3228	-5004	-67	222	44	-16324	-656	1344	-50	-33	233	126	125	8
-7780	-4616	13356	-31	76	-137	-16316	-2640	-1592	32	87	248	-16060	-2252	-1576	146	93	77	-8868	5436	13084	145	111	-150	-15160	3200	-5088	-79	226	60	-16316	-536	1164	-12	-64	256	126	125	8
-7736	-4584	13392	-19	54	-135	-16276	-2688	-1496	124	94	215	-16032	-2212	-1620	189	79	73	-8900	5436	13196	142	138	-168	-15144	3236	-5136	-138	233	4	-16296	-536	1212	-98	-30	291	126	125	8
-7780	-4552	13280	-81	57	-129	-16292	-2592	-1520	27	119	214	-16040	-2088	-1736	117	131	83	-8892	5468	13168	146	143	-200	-15168	3192	-5324	-120	212	54	-16272	-664	1296	-173	-46	268	126	125	8
-7844	-4592	13292	-75	79	-134	-16304	-2628	-1720	-6	112	206	-16072	-2020	-1684	99	-26	98	-8896	5452	13148	176	96	-186	-15168	3228	-5192	-31	216	73	-16252	-684	1220	-139	-94	243	127	125	8
-7852	-5000	13264	-90	114	-224	-16316	-2424	-1844	44	155	287	-16044	-2156	-1584	101	-12	98	-8876	5328	13196	185	141	-214	-15100	3220	-5144	-37	143	68	-16228	-608	1236	-71	-88	169	127	125	8
-7892	-4652	13148	-73	81	-150	-16268	-2700	-1700	25	134	176	-16128	-2168	-1608	58	-34	128	-8916	5396	13216	161	134	-153	-15124	3208	-5192	-77	188	-8	-16308	-476	1216	-174	-90	262	127	125	8
-7888	-4560	13256	-48	116	-107	-16280	-2700	-1624	65	96	181	-15972	-2224	-1644	216	-60	45	-8892	5424	13172	126	151	-152	-15168	3256	-5140	-185	179	-8	-16288	-428	1200	-283	-62	224	126	125	8
-7776	-4744	13256	-65	89	-128	-16336	-2516	-1564	46	97	148	-16036	-2020	-1640	57	-2	102	-8984	5444	13156	115	139	-128	-15164	3236	-5176	-177	175	-1	-16288	-564	1196	-364	-86	150	126	125	8
-7720	-4512	13436	-78	52	-140	-16240	-2740	-1688	25	53	207	-15956	-2084	-1748	-106	-98	38	-8868	5420	13124	178	121	-139	-15100	3228	-5188	-66	137	-30	-16256	-552	1096	-275	-52	167	126	125	8
-7764	-4572	13340	-40	35	-161	-16320	-2576	-1588	12	63	215	-15996	-2052	-1756	-147	-17	2	-8916	5424	13140	138	136	-145	-15100	3288	-5176	-9	99	4	-16284	-612	1144	-141	-91	145	126	125	8
-7760	-4568	13372	-70	55	-173	-16336	-2624	-1668	-31	5	227	-15964	-2228	-1900	-70	-14	26	-8972	5476	13160	122	71	-148	-15128	3332	-5268	-18	134	7	-16248	-604	1068	-150	-49	196	126	125	8
-7772	-4584	13312	-70	98	-187	-16304	-2612	-1704	-83	51	208	-16020	-2384	-1784	79	101	69	-8912	5504	13068	137	74	-155	-15064	3272	-5204	-132	74	-2	-16264	-552	1256	-202	-40	272	126	125	8
-7824	-4608	13200	-82	110	-178	-16268	-2744	-1620	103	-51	208	-16024	-2248	-1724	170	72	84	-8948	5440	13056	120	50	-176	-15124	3224	-5212	-118	99	21	-16284	-680	1236	-223	-61	263	127	125	8
-7748	-4544	13240	-76	118	-168	-16320	-2580	-1628	75	-30	185	-15964	-1980	-1728	233	89	76	-8932	5468	13052	116	9	-155	-15144	3256	-5196	-73	92	-7	-16244	-712	1180	-112	-95	189	126	125	8
-7764	-4568	13280	-87	111	-184	-16292	-2608	-1520	24	-45	169	-15984	-1948	-1576	233	71	86	-9048	5492	13080	145	-39	-158	-15124	3224	-5312	-17	52	19	-16312	-712	1208	-75	-121	204	127	125	8
-7832	-4560	13432	-91	103	-168	-16284	-2512	-1516	-33	-6	190	-16072	-1996	-1552	114	13	27	-8912	5452	13124	162	-14	-156	-15148	3232	-5160	26	44	21	-16300	-612	1196	3	-133	199	126	125	8
-7804	-4596	13352	-101	95	-181	-16208	-2616	-1528	13	-61	211	-16052	-2200	-1456	185	30	46	-8916	5456	13024	120	-3	-156	-15144	3292	-5144	-6	57	21	-16324	-552	1224	-11	-121	234	127	125	8
-7792	-4544	13260	-105	105	-203	-16280	-2588	-1592	82	-28	180	-16092	-2168	-1588	196	30	84	-8964	5472	13208	129	12	-194	-15192	3264	-5220	-16	52	-25	-16260	-572	1192	-54	-127	249	126	125	8
-7792	-4584	13336	-84	108	-164	-16276	-2596	-1424	107	-16	194	-16008	-1988	-1500	172	11	90	-8852	5376	13116	148	-26	-148	-15140	3220	-5244	-21	19	-10	-16264	-620	1096	-81	-140	208	126	125	8
-7744	-4612	13220	-54	105	-172	-16324	-2624	-1536	14	36	201	-16096	-1992	-1592	94	-15	50	-8920	5392	13152	114	-32	-176	-15176	3196	-5176	-1	0	13	-16192	-652	1216	-5	-134	196	127	125	8
-7820	-4564	13332	-87	116	-163	-16264	-2596	-1580	112	-19	190	-16064	-2136	-1696	95	-44	22	-8912	5408	13000	139	-41	-183	-15160	3216	-5176	75	-33	2	-16324	-612	1292	52	-141	206	127	125	8
-7792	-4584	13292	-88	128	-181	-16288	-2596	-1724	65	-36	174	-16004	-2148	-1752	180	-21	45	-8888	5480	13108	157	0	-142	-15176	3292	-5180	3	17	35	-16288	-616	1332	57	-115	230	126	125	8
-7804	-4572	13312	-90	100	-217	-16340	-2564	-1656	63	-23	186	-15968	-2196	-1780	214	-10	40	-8892	5476	13088	172	24	-174	-15108	3320	-5264	-4	-34	19	-16304	-580	1312	44	-117	231	127	125	8
-7736	-4520	13400	-82	117	-180	-16264	-2588	-1652	99	-37	180	-15996	-2136	-1768	250	12	93	-8912	5460	13228	147	-63	-164	-15212	3328	-5204	-4	-21	2	-16304	-612	1292	14	-122	227	127	125	8
-7772	-4576	13464	-83	112	-222	-16244	-2560	-1424	114	-71	176	-15980	-2068	-1808	266	1	84	-8920	5384	13148	178	-21	-152	-15168	3244	-5172	29	-10	5	-16256	-564	1328	53	-188	217	127	125	8
-7828	-4536	13328	-99	94	-214	-16256	-2456	-1508	33	-100	175	-15952	-1964	-1772	229	-13	71	-8904	5472	13032	161	-39	-161	-15128	3332	-5180	81	-39	7	-16268	-492	1260	68	-161	203	126	125	8
-7788	-4572	13244	-113	100	-196	-16308	-2532	-1420	-20	-88	125	-16040	-1984	-1652	140	-34	53	-8936	5420	13032	164	-7	-151	-15104	3292	-5216	4	-65	6	-16228	-428	1312	80	-140	227	126	125	8
-7832	-4572	13248	-129	173	-177	-16324	-2564	-1560	20	-102	149	-16032	-2024	-1628	206	-18	20	-8896	5396	13068	166	-48	-187	-15160	3364	-5196	-23	-44	-37	-16300	-436	1340	27	-95	179	127	125	8
-7824	-4576	13408	-103	148	-217	-16304	-2540	-1552	64	-94	175	-16040	-2184	-1664	211	-7	42	-8980	5448	13152	155	3	-171	-15152	3408	-5156	-1	-94	-3	-16240	-556	1324	-45	-89	192	127	125	8
-7768	-4576	13232	-123	161	-219	-16356	-2544	-1568	68	-83	153	-16096	-2084	-1592	183	-39	26	-8892	5504	13028	111	-36	-168	-15088	3240	-5116	1	-81	-1	-16260	-532	1296	4	-125	213	126	125	8
-7796	-4616	13320	-72	163	-211	-16296	-2576	-1420	4	-27	135	-16048	-1988	-1684	150	3	35	-8916	5432	13136	130	-51	-159	-15060	3304	-5020	-10	-70	1	-16284	-632	1268	-14	-135	155	126	125	8
-7808	-4536	13324	-104	159	-194	-16236	-2524	-1564	4	-90	198	-15968	-1924	-1704	78	-67	7	-8904	5412	13172	154	-77	-185	-15160	3240	-5224	26	-112	3	-16260	-692	1372	27	-145	139	126	125	8
-7768	-4540	13368	-126	169	-186	-16280	-2600	-1528	30	-86	172	-16008	-2080	-1784	158	-44	4	-8904	5428	13148	142	-88	-179	-15204	3248	-5228	117	-82	33	-16252	-716	1440	82	-121	147	126	125	8
-7772	-4600	13280	-91	135	-189	-16324	-2580	-1456	40	-66	157	-16064	-2120	-1540	230	-19	16	-8928	5400	13172	130	-91	-168	-15120	3268	-5148	68	-52	9	-16260	-676	1424	69	-128	178	127	125	8
-7760	-4604	13268	-81	115	-191	-16284	-2600	-1616	47	-89	116	-16036	-2180	-1508	294	33	47	-8904	5468	13112	131	-60	-149	-15128	3360	-5136	53	-24	-30	-16260	-560	1276	36	-121	221	126	125	8
-7792	-4560	13200	-61	143	-180	-16244	-2556	-1432	179	-41	152	-16112	-2216	-1448	294	56	80	-8912	5452	13080	172	-97	-128	-15156	3352	-5188	-9	-40	-36	-16292	-564	1440	36	-106	211	127	125	8
-7812	-4580	13264	-89	142	-182	-16292	-2636	-1436	157	-2	143	-16060	-2024	-1576	316	7	9	-8956	5520	13144	99	-77	-143	-15236	3288	-5212	-18	-20	-49	-16288	-540	1364	0	-114	179	127	125	8
-7784	-4608	13312	-91	187	-191	-16288	-2488	-1560	107	16	155	-16096	-1860	-1636	276	-30	5	-8900	5428	13152	131	-30	-197	-15200	3264	-5152	99	-48	-32	-16268	-552	1340	70	-108	122	126	125	8
-7768	-4488	13340	-88	157	-177	-16196	-2592	-1596	135	2	146	-16008	-1976	-1700	243	-33	-2	-8924	5448	13068	122	-56	-205	-15108	3244	-5204	109	2	-4	-16324	-612	1444	45	-102	190	127	125	8
-7784	-4616	13328	-132	171	-192	-16252	-2548	-1340	81	-16	175	-16032	-2136	-1636	170	-7	26	-8968	5464	13200	159	-45	-210	-15192	3288	-5304	26	27	-21	-16260	-588	1300	38	-80	171	126	125	8
-7788	-4596	13268	-126	155	-147	-16288	-2568	-1600	22	1	151	-16084	-2188	-1632	161	8	54	-8824	5424	13132	115	-16	-219	-15196	3268	-5128	-25	31	-32	-16276	-608	1240	29	-68	172	126	125	8
-7820	-4560	13368	-111	140	-171	-16240	-2556	-1580	19	-34	134	-16032	-2140	-1716	145	21	7	-8844	5444	13108	150	26	-189	-15204	3216	-5104	-24	21	-34	-16308	-612	1328	15	-62	210	126	125	8
-7768	-4624	13348	-70	153	-180	-16272	-2584	-1540	80	-17	131	-16016	-2040	-1704	93	-43	17	-8932	5428	13096	84	68	-183	-15144	3300	-5240	4	30	33	-16300	-568	1300	28	-52	197	126	125	8
-7796	-4592	13388	-84	147	-173	-16240	-2576	-1636	77	-24	141	-16024	-2064	-1680	102	-43	13	-8896	5452	13172	160	6	-135	-15128	3308	-5188	10	27	-14	-16288	-532	1264	8	-48	150	126	125	8
-7740	-4592	13348	-85	98	-195	-16324	-2492	-1640	58	-20	148	-16056	-2072	-1764	193	-19	8	-8924	5436	13076	159	58	-174	-15120	3316	-5108	-9	19	-18	-16288	-592	1180	-30	-78	195	126	125	8
-7772	-4544	13284	-100	106	-184	-16280	-2592	-1560	46	-41	138	-16012	-2148	-1592	168	37	28	-8944	5428	13116	143	36	-164	-15124	3288	-5144	-58	-12	-56	-16216	-588	1360	-59	-81	203	126	125	8
-7804	-4604	13304	-81	104	-216	-16312	-2568	-1436	5	-33	144	-16044	-2152	-1632	147	-2	42	-8948	5452	13156	151	52	-184	-15156	3288	-5232	-58	33	-36	-16272	-532	1244	-83	-75	198	126	125	8
-7796	-4616	13312	-94	103	-168	-16284	-2576	-1528	2	-45	140	-16056	-2028	-1604	164	17	47	-8940	5420	13228	130	-9	-139	-15060	3308	-5168	-23	20	-28	-16276	-592	1316	-69	-140	177	127	125	8
-7776	-4544	13428	-61	110	-180	-16280	-2568	-1532	-16	-69	145	-16100	-2036	-1500	143	31	62	-8896	5484	13056	132	-42	-121	-15192	3336	-5140	-36	12	-66	-16340	-544	1220	-106	-122	189	126	125	8
-7780	-4560	13400	-120	119	-162	-16272	-2556	-1488	10	-51	150	-16072	-2036	-1648	118	-9	19	-8856	5452	13072	115	-50	-168	-15132	3324	-5260	-33	6	-38	-16316	-524	1332	-127	-132	179	126	125	8
-7816	-4548	13372	-118	150	-159	-16320	-2600	-1576	62	-70	155	-15972	-2000	-1612	130	-71	14	-8968	5452	13220	126	-6	-169	-15188	3284	-5164	-14	-2	-69	-16244	-644	1288	-99	-91	212	126	125	8
-7836	-4516	13344	-114	98	-182	-16340	-2592	-1568	48	-73	162	-16052	-2104	-1648	120	-33	44	-8960	5432	13148	120	46	-153	-15128	3316	-5128	-40	-12	-39	-16288	-632	1212	-91	-103	167	126	125	8
-7804	-4612	13264	-110	81	-164	-16284	-2520	-1576	2	-50	149	-16016	-2212	-1564	77	-24	54	-8904	5400	13004	113	11	-158	-15140	3284	-5212	-40	-16	-57	-16304	-708	1260	-76	-91	207	127	125	8
-7752	-4652	13316	-84	77	-115	-16300	-2560	-1508	-25	-33	156	-16032	-2132	-1660	114	6	50	-8888	5436	13160	155	28	-148	-15208	3244	-5188	-33	-22	-9	-16332	-640	1328	-2	-119	204	126	125	8
-7780	-4556	13456	-95	112	-152	-16316	-2532	-1488	17	-68	152	-15972	-2104	-1672	179	-20	56	-8880	5456	13140	122	32	-152	-15160	3304	-5244	6	-47	37	-16328	-708	1228	63	-103	207	126	125	8
-7804	-4528	13312	-120	97	-208	-16276	-2496	-1500	89	-59	149	-16008	-2020	-1600	225	-45	51	-8876	5452	13192	158	6	-175	-15200	3260	-5256	23	-47	-13	-16284	-592	1336	79	-86	169	127	125	8
-7796	-4604	13352	-78	139	-135	-16316	-2512	-1516	50	-70	193	-16068	-2044	-1728	165	-14	36	-8896	5440	13136	174	-38	-166	-15148	3312	-5212	-9	-17	2	-16256	-592	1304	54	-106	212	126	125	8
-7816	-4612	13284	-116	121	-189	-16312	-2576	-1532	28	-63	183	-16056	-2088	-1708	178	3	41	-8892	5472	13072	142	35	-144	-15136	3356	-5160	-42	-54	-2	-16304	-532	1424	15	-114	263	126	125	8
-7836	-4628	13332	-94	102	-188	-16268	-2536	-1620	71	-88	210	-16020	-2084	-1672	207	38	67	-8924	5416	13084	132	-36	-115	-15128	3292	-5164	3	-81	11	-16284	-488	1296	4	-144	213	126	125	8
-7792	-4536	13360	-105	86	-176	-16328	-2600	-1532	41	-92	153	-16092	-1968	-1632	224	21	70	-8908	5468	13092	147	-58	-126	-15064	3280	-5192	-4	-64	8	-16244	-480	1256	13	-139	215	126	125	8
-7808	-4552	13320	-73	129	-197	-16332	-2520	-1540	38	-53	210	-16012	-1948	-1632	142	-16	48	-8920	5484	13056	154	-67	-169	-15156	3324	-5292	66	-70	19	-16236	-552	1352	37	-158	144	126	125	8
-7780	-4604	13224	-92	112	-161	-16304	-2528	-1568	57	-62	159	-16000	-2016	-1668	178	-34	41	-8904	5456	13120	168	-18	-156	-15160	3408	-5244	44	-40	-10	-16284	-460	1368	36	-148	178	126	125	8
-7704	-4632	13348	-67	127	-194	-16316	-2552	-1512	51	-67	144	-15984	-2096	-1600	175	-21	8	-8964	5484	13192	118	-54	-157	-15092	3376	-5192	-40	-90	-47	-16316	-476	1484	-74	-146	201	126	125	8
-7816	-4620	13256	-96	136	-197	-16348	-2588	-1476	6	-106	132	-16032	-2168	-1596	178	-11	47	-8900	5476	13068	133	-37	-151	-15132	3360	-5160	-37	-35	-48	-16288	-592	1344	-20	-67	183	127	125	8
-7696	-4576	13344	-107	122	-193	-16324	-2448	-1520	130	-66	177	-16076	-2116	-1652	257	31	35	-8944	5464	13060	121	5	-172	-15208	3264	-5192	-21	-23	-44	-16252	-596	1408	-17	-73	199	126	125	8
-7724	-4568	13232	-130	126	-175	-16300	-2484	-1520	34	-57	150	-15976	-2012	-1636	156	-22	37	-8884	5504	13100	102	10	-174	-15176	3292	-5132	26	-32	-34	-16344	-540	1316	14	-76	168	126	125	8
-7808	-4568	13292	-108	131	-205	-16280	-2556	-1528	20	-36	159	-16024	-1976	-1548	125	-21	1	-8892	5400	13084	119	43	-151	-15120	3344	-5128	17	-6	-19	-16252	-544	1336	21	-148	184	126	125	8
-7800	-4572	13224	-83	129	-189	-16324	-2472	-1556	23	-67	180	-16084	-2016	-1692	156	-20	16	-8868	5424	13112	121	-24	-152	-15112	3320	-5072	-27	-1	-26	-16248	-596	1376	-69	-90	172	126	125	8
-7804	-4536	13240	-89	98	-186	-16292	-2532	-1444	17	-80	141	-16024	-2044	-1696	155	27	21	-8816	5472	13076	145	-15	-158	-15132	3336	-5164	-43	9	-39	-16232	-612	1392	-39	-63	172	126	125	8
-7800	-4540	13344	-96	130	-187	-16360	-2560	-1532	86	-58	167	-16004	-2040	-1544	159	74	24	-8932	5488	13140	125	-12	-154	-15172	3300	-5044	-51	18	-63	-16224	-628	1380	-21	-92	173	127	125	8
-7824	-4524	13288	-116	112	-167	-16248	-2456	-1436	35	-24	152	-15976	-1976	-1588	132	18	47	-8968	5412	13052	86	-24	-215	-15116	3396	-5096	-39	11	-8	-16252	-684	1408	-3	-111	195	126	125	8
-7732	-4512	13308	-103	141	-187	-16272	-2464	-1408	-11	-60	131	-16056	-2080	-1440	134	20	15	-8940	5456	13080	107	-36	-174	-15160	3344	-5144	28	-14	-5	-16276	-580	1396	-15	-82	215	126	125	8
-7772	-4620	13308	-120	136	-166	-16300	-2504	-1436	-8	-31	138	-16020	-2088	-1476	162	10	3	-8888	5468	13144	137	-36	-157	-15168	3240	-5140	8	65	-45	-16284	-524	1456	-24	-118	165	126	125	8
-7796	-4580	13356	-75	150	-165	-16340	-2444	-1624	86	29	124	-16060	-1908	-1704	179	-4	15	-8888	5408	13140	143	-45	-172	-15208	3260	-5192	-15	38	-56	-16304	-484	1364	-52	-59	195	126	125	8
-7768	-4588	13360	-100	147	-172	-16304	-2464	-1528	49	-7	112	-16064	-2012	-1708	189	0	20	-8908	5492	13204	109	1	-185	-15204	3328	-5188	-3	31	-14	-16260	-664	1400	-56	-64	166	126	125	8
-7768	-4528	13316	-86	135	-179	-16268	-2544	-1452	68	14	97	-16016	-2144	-1628	183	43	38	-8916	5416	13132	143	35	-169	-15216	3328	-5188	16	47	-24	-16288	-688	1392	-38	-46	191	126	125	8
-7764	-4604	13360	-74	136	-154	-16332	-2532	-1500	78	5	114	-16016	-2092	-1684	188	17	32	-8948	5476	13152	140	43	-169	-15196	3200	-5140	47	55	-66	-16300	-656	1300	6	-67	156	126	125	8
-7860	-4576	13292	-78	112	-200	-16328	-2508	-1612	44	26	137	-15964	-2008	-1668	143	16	10	-8892	5404	13080	137	39	-185	-15196	3280	-5196	35	52	-46	-16280	-580	1272	86	-103	180	126	125	8
-7808	-4544	13324	-84	100	-162	-16276	-2540	-1628	50	4	109	-15992	-1968	-1644	93	-11	-2	-8880	5440	13184	157	68	-167	-15144	3312	-5264	30	65	-39	-16340	-556	1360	58	-29	165	126	125	8
-7780	-4516	13304	-108	133	-193	-16316	-2548	-1732	17	0	129	-15940	-1980	-1792	130	-35	6	-8920	5460	13028	136	18	-176	-15120	3360	-5088	-39	18	-3	-16236	-540	1300	11	-20	188	127	125	8
-7756	-4528	13440	-79	152	-177	-16316	-2516	-1524	-14	-67	78	-15944	-2124	-1724	76	39	5	-8868	5520	13028	141	55	-158	-15100	3272	-5256	-22	52	-33	-16252	-520	1252	-18	2	190	127	125	8
-7812	-4604	13388	-83	105	-154	-16352	-2528	-1540	-54	-40	100	-16076	-2216	-1568	135	-4	52	-8932	5436	13116	94	41	-156	-15112	3348	-5280	-29	44	-70	-16236	-484	1300	-48	-50	209	127	125	8
-7768	-4544	13372	-87	133	-145	-16284	-2744	-1496	9	-47	92	-16072	-2220	-1512	236	-13	45	-8940	5500	13132	108	-5	-167	-15136	3324	-5304	-53	36	-75	-16268	-496	1192	-26	-70	174	127	125	8
-7744	-4548	13356	-48	105	-140	-16320	-2484	-1448	130	22	105	-16072	-2024	-1576	301	-90	28	-8928	5468	13120	133	79	-137	-15200	3288	-5136	-19	9	-25	-16348	-520	1248	-53	-121	166	127	125	8
-7776	-4552	13248	-100	136	-145	-16296	-2572	-1476	200	12	126	-16032	-1876	-1760	256	-99	12	-8924	5444	13200	154	13	-141	-15148	3252	-5220	27	7	-20	-16304	-664	1168	-39	-89	107	127	125	8
-7624	-4420	13316	-136	93	-83	-16344	-2440	-1544	57	-23	61	-16032	-1836	-1896	285	-96	40	-8904	5540	12996	156	38	-193	-15204	3284	-5180	22	-59	-34	-16396	-688	1076	-69	-95	119	127	125	8
-7768	-4516	13288	-122	105	-71	-16396	-2584	-1324	-156	-13	148	-16096	-2068	-1664	-23	-149	123	-8908	5412	13132	211	38	-192	-15196	3280	-5212	151	-125	28	-16356	-808	1228	23	-133	185	127	125	8
-7884	-4536	13436	-83	63	-96	-16316	-2956	-1424	99	-12	82	-16132	-2532	-1440	393	-295	81	-8928	5412	13124	223	76	-160	-15192	3268	-5220	45	-109	15	-16364	-760	1144	102	-102	215	126	125	8
-7820	-4532	13436	-43	12	31	-16288	-2564	-1412	541	-34	178	-16088	-2364	-1684	580	-284	36	-8904	5340	13152	215	100	-123	-15180	3152	-5256	27	-132	5	-16340	-688	1128	272	-75	309	126	125	8
-8120	-4140	13244	112	-3	-93	-16120	-2692	-1364	716	71	166	-16068	-2300	-1672	602	-326	32	-8912	5400	13100	210	154	-87	-15272	3272	-5356	17	-211	-14	-16420	-552	1044	419	-46	312	127	125	8
-7712	-4264	13440	42	-46	40	-16392	-2308	-1440	282	26	121	-16188	-1544	-1296	453	-500	188	-8928	5452	13160	232	175	39	-15256	3336	-5320	-48	-241	-71	-16540	-404	1112	325	77	287	126	125	8
-7812	-4504	13328	2	-53	-73	-16320	-2364	-1832	-325	254	-78	-16104	-1728	-1184	-15	-773	209	-8836	5488	13032	273	230	17	-15208	3256	-5208	-27	-343	-28	-16452	-372	1132	-67	171	204	127	125	8
-7760	-4600	13404	117	35	-36	-16308	-2800	-1488	130	212	58	-16216	-2076	-1416	226	-755	179	-8972	5564	13088	284	208	-34	-15164	3200	-5216	220	-376	20	-16480	-460	1064	-134	180	149	127	125	8
-7884	-4732	13404	62	-24	-103	-16292	-2536	-1444	198	264	4	-16036	-2316	-1304	63	-557	126	-8908	5628	12924	297	164	-53	-15048	3408	-4996	270	-391	37	-16156	-440	1356	-449	82	-2	127	125	8
-7736	-4496	13436	54	-46	-139	-16324	-2700	-1436	176	251	136	-16176	-2276	-1132	106	-527	142	-8884	5644	13104	286	111	-69	-15016	3392	-5124	97	-334	25	-16064	-556	1440	-476	-3	56	127	125	8
-7736	-4560	13320	81	-43	-101	-16336	-2700	-1292	384	279	111	-16068	-2116	-1344	177	-413	116	-9128	5236	13148	234	40	-91	-15072	3400	-4920	179	-342	4	-16064	-588	1500	-352	-44	81	127	125	8
-7960	-4532	13296	95	-52	-4	-16260	-2704	-1360	402	229	93	-15972	-2284	-1768	473	-359	64	-8908	5632	13004	211	-53	-132	-14944	3336	-5048	44	-189	54	-16088	-756	1440	-212	-146	89	126	125	8
-7828	-4816	13316	141	-78	-52	-16316	-2520	-1700	1085	42	259	-15872	-2284	-1996	602	-256	33	-8924	5560	12992	215	-95	-170	-15124	3364	-4996	145	-162	113	-16104	-980	1604	41	-209	189	127	125	8
-7876	-4228	13616	204	-6	-30	-16408	-2856	-1948	1365	-110	370	-15784	-2256	-2112	1023	-41	37	-8956	5528	13096	202	-152	-224	-15176	3340	-4896	127	-168	122	-16356	-1016	1472	335	-156	247	127	125	8
-7836	-4480	13416	111	26	-90	-16340	-2364	-1824	1187	-109	307	-16000	-2372	-2128	1409	105	119	-8940	5464	13152	272	-126	-254	-15140	3384	-4912	174	-117	130	-16384	-876	1308	585	-296	253	127	125	8
-7700	-4364	13492	33	59	-251	-16440	-2808	-1796	1491	-243	330	-16176	-2148	-1984	1635	217	35	-8884	5548	13028	290	-164	-278	-15280	3400	-4992	483	-145	185	-16400	-708	1280	714	-327	270	127	125	8
-7836	-4464	13348	47	172	-307	-16324	-2236	-1760	1606	-264	293	-16008	-1900	-1704	1700	219	80	-8988	5460	13160	312	-67	-280	-15176	3316	-5148	462	-188	174	-16336	-428	1064	1163	-351	261	127	125	8
-7804	-4596	13376	-45	240	-321	-16380	-2592	-1744	1386	-382	336	-16036	-1468	-1872	1507	222	-84	-8884	5520	13184	314	-81	-246	-15152	3348	-5224	485	-245	195	-16316	-280	976	1248	-423	267	126	125	8
-7688	-4456	13436	-50	251	-350	-16344	-2428	-1800	1052	-455	195	-16064	-1384	-1972	1289	152	-97	-8848	5472	12948	212	-69	-250	-15104	3364	-5340	346	-263	135	-16280	-76	1016	1071	-447	144	126	125	8
-7680	-4380	13396	-7	274	-344	-16324	-2424	-1408	967	-431	262	-16128	-1728	-1772	909	76	-92	-9028	5036	13124	287	-47	-107	-15100	3492	-5116	612	-386	38	-16256	76	844	998	-454	38	126	125	8
-7720	-4480	13448	133	260	-361	-16332	-2404	-1468	704	-470	145	-16268	-1728	-1448	627	-63	-21	-8960	5568	13060	209	-239	-243	-14868	3580	-5136	370	-414	-25	-16196	96	880	740	-580	13	126	125	8
-7664	-4152	13380	126	268	-305	-16180	-2660	-1484	679	-500	165	-16096	-1836	-1544	568	-181	-90	-8952	5580	13076	131	-379	-193	-14912	3476	-5112	144	-442	-40	-16156	140	944	421	-645	-2	126	125	8
-7900	-4212	13328	69	337	-315	-16260	-2376	-1456	367	-486	43	-15952	-1780	-1696	350	-328	-109	-8912	5596	13060	8	-505	-187	-14892	3524	-5184	7	-541	-93	-16120	8	924	225	-624	54	126	125	8
-7852	-4620	13244	-54	382	-367	-16364	-2640	-1572	353	-486	75	-16080	-1972	-1560	214	-355	-87	-8976	5616	13028	-45	-590	-210	-15004	3432	-5188	28	-603	-146	-16268	-220	1004	44	-628	30	126	125	8
-7832	-4568	13444	-62	433	-340	-16360	-2628	-1240	276	-576	109	-16048	-2480	-1420	533	-248	-61	-8948	5608	13060	-72	-683	-200	-15124	3360	-5072	129	-670	-133	-16260	-468	1224	33	-641	13	126	125	8
-7752	-4624	13280	-173	401	-338	-16368	-2652	-1632	431	-531	100	-16168	-2588	-1208	487	-203	-27	-8884	5608	13040	-75	-721	-249	-15360	3324	-4764	226	-774	-157	-16496	-816	1396	119	-699	-11	126	125	8
-7736	-4608	13440	-272	345	-388	-16236	-2568	-1132	453	-561	176	-16124	-2200	-1320	528	-290	-1	-8736	5560	13148	-21	-689	-364	-15584	3284	-4872	375	-801	-1	-16576	-1092	1680	361	-933	-88	126	125	8
-7716	-4432	13336	-288	428	-295	-16348	-2708	-1296	283	-600	206	-15956	-1924	-1300	378	-359	-64	-8780	5612	13348	64	-440	-478	-15720	2992	-4816	90	-735	105	-16704	-1144	1868	315	-973	-86	126	125	8
-7800	-4468	13412	-270	394	-342	-16376	-2636	-1404	218	-532	243	-15952	-1944	-1408	221	-411	-51	-8664	5132	13560	184	-238	-319	-15436	2652	-4776	190	-660	36	-16316	-1312	1980	318	-857	31	126	125	8
-7716	-4396	13428	-235	250	-299	-16260	-2432	-1324	189	-558	114	-16048	-1928	-1568	163	-515	-136	-8844	5224	13256	227	-33	-178	-15392	2940	-4772	518	-626	19	-16212	-1508	1824	441	-900	-60	126	125	8
-7860	-4332	13472	-229	180	-315	-16296	-2656	-1400	153	-604	92	-16016	-2152	-1400	304	-359	14	-8760	5348	13100	308	22	-114	-15188	3128	-4672	464	-580	162	-16100	-1544	1976	955	-874	-125	126	125	8
-7840	-4680	13108	-221	177	-315	-16400	-2732	-1180	151	-634	135	-15992	-2628	-1332	399	-54	53	-8784	5548	13192	437	-58	-54	-15220	3272	-4640	351	-475	190	-15992	-1088	1936	1130	-877	-112	126	125	8
-7968	-4496	13276	-219	143	-282	-16308	-2668	-1148	67	-663	135	-16044	-2440	-1356	277	38	-20	-8776	5672	13104	420	-47	-32	-15208	3364	-4572	432	-439	170	-16068	-520	2012	1189	-726	44	126	125	8
-7756	-4452	13424	-147	155	-255	-16296	-2640	-984	46	-681	157	-16156	-2156	-1104	509	15	-55	-8884	5608	13348	340	-130	-189	-15136	3596	-4564	449	-412	188	-16180	-28	1924	852	-644	86	126	125	8
-7764	-4492	13384	-174	221	-288	-16340	-2276	-880	-119	-593	160	-16220	-1700	-820	411	-32	32	-8784	5736	13140	327	-241	-183	-15088	3680	-4620	438	-404	125	-16160	132	2020	501	-568	109	126	125	8
-7808	-4536	13280	-177	283	-305	-16236	-2380	-704	-57	-547	166	-16204	-1680	-500	291	-222	33	-8820	5656	13212	231	-214	-268	-15088	3616	-4724	259	-298	61	-16072	152	1972	257	-515	49	126	124	8
-7760	-4556	13424	-179	257	-255	-16360	-2420	-840	47	-354	77	-16280	-1448	-508	129	-383	-48	-8804	5580	13188	190	-231	-219	-15128	3520	-4756	166	-254	-24	-16120	60	2004	203	-400	-14	126	125	8
-7808	-4560	13240	-191	252	-227	-16320	-2620	-840	80	-256	-14	-16232	-1776	-672	-10	-491	-74	-8804	5580	13164	45	-210	-206	-15156	3460	-4592	-23	-212	-166	-16128	92	2036	-64	-372	3	126	125	8
-7756	-4616	13352	-173	240	-180	-16408	-2500	-884	-93	-221	-61	-16072	-2188	-980	-122	-416	-143	-8772	5612	13276	-34	-260	-207	-15116	3528	-4644	-204	-146	-243	-16160	-116	1968	-367	-260	-27	126	125	8
-7896	-4572	13240	-117	172	-159	-16296	-2580	-1096	-22	-139	-26	-16124	-2096	-980	-189	-378	-171	-8708	5548	13160	-129	-247	-198	-15176	3476	-4668	-399	-72	-293	-16092	-400	1872	-541	-158	-47	126	125	8
-7816	-4536	13264	-143	195	-196	-16352	-2608	-1028	-100	-148	-28	-16136	-1980	-1164	-282	-478	-167	-8788	5544	13212	-168	-270	-206	-15248	3416	-4632	-324	-77	-350	-16136	-548	2032	-605	-193	52	126	125	8
-7872	-4212	13456	-92	147	-144	-16272	-2440	-988	28	-170	-79	-16016	-1828	-1060	-96	-445	-156	-8820	5556	13140	-201	-312	-210	-15092	3332	-4644	-287	-30	-348	-16044	-780	2088	-666	-226	-2	126	125	8
-7732	-4548	13288	-127	18	-198	-16256	-2624	-1072	-235	-138	-215	-15976	-1808	-1400	-359	-419	-155	-8916	5124	13268	-124	-382	-169	-15052	3352	-4724	-251	83	-359	-15968	-900	2040	-497	-215	86	126	125	8
-7536	-4712	13300	-182	113	-237	-16292	-2584	-820	-48	-165	-212	-16036	-1948	-1352	-394	-389	-137	-8744	5464	13308	-206	-502	-191	-15236	3344	-4460	-137	115	-353	-16008	-1084	2048	-150	-75	212	126	125	8
-7692	-4844	13160	-181	185	-221	-16168	-2684	-696	-66	-204	-167	-15952	-2460	-1140	-222	-206	-149	-8660	5288	13044	-287	-556	-224	-15176	3132	-4640	-191	196	-300	-16116	-1000	1988	13	-151	281	126	125	8
-7800	-4724	13216	-123	251	-168	-16308	-2816	-916	-52	-210	-120	-16184	-2604	-1136	-167	-242	-181	-8688	5572	12992	-300	-581	-227	-15300	3400	-4808	-58	100	-198	-16284	-988	1744	-44	-272	282	126	125	8
-7792	-4552	13248	-155	194	-239	-16404	-2864	-1140	-34	-215	-138	-16032	-2408	-980	119	-231	-160	-8580	5472	13292	-293	-703	-325	-15428	3124	-4744	267	97	-175	-16480	-1204	1424	225	-408	296	126	125	8
-7804	-4648	13324	-168	278	-257	-16336	-2764	-932	227	-182	-7	-16012	-2456	-1164	150	-245	-144	-8504	5116	13288	48	-606	-368	-15376	2876	-5136	561	-29	-74	-16568	-1272	1712	109	-737	244	126	125	8
-7844	-4588	13396	-179	346	-293	-16376	-2712	-752	595	-192	42	-16160	-2832	-944	818	-130	21	-8724	5620	13032	179	-661	-226	-15548	2860	-5016	1371	-119	43	-16648	-1092	1420	499	-744	227	126	125	8
-7856	-4636	13336	-164	305	-342	-16316	-2820	-956	612	-137	66	-16004	-2724	-812	1114	-34	60	-8380	5276	13552	191	-736	-331	-15524	3264	-4896	1153	-325	94	-16500	-1376	1348	1265	-405	320	125	125	8
-7800	-4572	13416	-171	415	-334	-16416	-2760	-1140	738	-146	109	-15972	-2260	-1168	1136	-65	53	-8492	5276	13320	277	-628	-319	-15552	3184	-5156	1052	-428	167	-16488	-1304	1276	1545	-415	429	125	125	8
-7876	-4676	13304	-139	412	-334	-16392	-2928	-1084	807	-144	185	-15812	-2304	-1300	1177	37	14	-8584	5460	13364	333	-609	-297	-15480	2856	-5224	1146	-582	249	-16536	-988	1248	1921	23	318	126	125	8
-7948	-4776	13180	-168	408	-374	-16296	-2772	-1072	854	-140	238	-16096	-2780	-1056	1303	337	-28	-8396	5424	13492	489	-683	-276	-15220	2744	-4968	1279	-751	257	-16168	-988	1444	1779	71	324	126	125	8
-7924	-4620	13236	-125	410	-361	-16372	-2816	-820	660	-162	176	-16084	-2616	-928	1441	508	8	-8504	5492	13372	573	-757	-129	-15076	3156	-4804	1338	-830	295	-15880	-680	1688	1699	62	350	126	125	8
-7816	-4524	13328	-90	250	-289	-16288	-2700	-724	714	-127	161	-16080	-1976	-972	1422	436	66	-8508	5476	13464	489	-767	-49	-15064	3368	-4540	883	-746	175	-15940	-116	2024	1499	243	357	126	125	8
-7928	-4720	13248	6	230	-268	-16188	-2656	-900	655	-94	100	-16164	-1824	-844	1310	398	148	-8464	5468	13416	407	-814	-38	-15060	3440	-4436	422	-672	145	-15888	72	2392	1234	380	316	126	125	8
-7912	-4512	13328	-25	196	-220	-16248	-2552	-804	453	-22	94	-16340	-1708	-604	1059	272	15	-8392	5636	13520	293	-790	-13	-15212	3488	-4264	200	-537	14	-16024	160	2720	812	392	253	126	125	8
-7824	-4580	13156	-66	107	-242	-16388	-2524	-1108	262	39	58	-16224	-1452	-872	610	47	-6	-8392	5648	13428	192	-679	-35	-15260	3528	-4072	23	-410	-75	-16128	256	2900	518	403	243	126	125	8
-7780	-4452	13384	-81	176	-203	-16340	-2608	-908	159	121	44	-16172	-1552	-1168	194	-162	35	-8428	5688	13348	48	-629	-95	-15308	3560	-4064	-264	-212	-128	-16120	88	2924	20	307	287	126	125	8
-8032	-4688	13056	-130	251	-202	-16280	-2536	-960	40	69	20	-16108	-1884	-1248	-208	-283	-66	-8288	5600	13424	-36	-505	-234	-15572	3556	-4124	-496	-2	-219	-16192	-180	2832	-374	90	254	126	125	8
-8028	-4628	13160	-157	334	-182	-16308	-2664	-1068	-416	23	-2	-16020	-1904	-1464	-599	-322	-141	-8256	5536	13600	-156	-288	-292	-15564	3292	-4192	-581	157	-204	-16336	-536	2520	-530	-119	120	126	125	8
-8084	-4756	13152	-179	331	-252	-16352	-2788	-1164	-714	26	-35	-16144	-2236	-1548	-837	-390	-104	-8344	5428	13524	-125	-107	-273	-15464	3128	-4316	-577	243	-220	-16280	-804	2348	-643	-219	92	126	125	8
-8108	-4792	13316	-149	271	-271	-16304	-2816	-1060	-614	-94	10	-16040	-2612	-1560	-714	-378	-76	-8340	5380	13588	-175	0	-214	-15300	3096	-4448	-770	404	-245	-16052	-764	2220	-941	-209	120	126	125	8
-8108	-4792	13192	-163	159	-279	-16340	-2732	-1172	-658	-139	16	-16076	-2460	-1408	-742	-289	-20	-8356	5312	13524	-119	87	-185	-15496	3104	-4460	-992	476	-276	-16104	-796	2004	-1073	-119	129	125	125	8
-8068	-4848	13156	-149	106	-261	-16352	-2856	-1212	-821	-189	-16	-16004	-2400	-1376	-720	-179	7	-8272	5480	13476	-144	90	-137	-15520	3176	-4632	-971	461	-255	-16248	-764	1932	-1025	-86	135	126	125	8
-8104	-4868	13104	-165	76	-179	-16300	-2924	-1136	-747	-282	88	-15980	-2540	-1232	-700	-39	-63	-8488	5240	13592	-66	230	-61	-15408	3032	-4744	-870	486	-292	-16268	-804	1828	-1068	-109	96	126	125	8
-8052	-4908	13080	-106	115	-241	-16260	-2768	-856	-640	-284	112	-16116	-2516	-1024	-526	8	-29	-8416	5476	13516	-20	236	-56	-15464	3196	-4552	-786	462	-183	-16416	-832	1768	-1126	-145	84	125	125	8
-7780	-4524	13200	-222	60	-195	-16244	-2524	-852	-837	-220	70	-16160	-1836	-656	-754	-71	26	-8416	5504	13436	12	307	-120	-15436	3172	-4704	-728	394	-161	-16428	-820	1796	-1101	-99	17	126	125	8
-7856	-4700	13136	-207	66	-170	-16312	-2728	-724	-1286	-147	51	-16036	-1936	-644	-1034	-151	113	-8328	5372	13516	67	387	-105	-15500	3136	-4736	-678	347	-169	-16440	-676	1780	-1064	-24	26	125	125	8
-7888	-4708	13232	-209	34	-131	-16292	-2924	-628	-1095	-59	70	-16088	-2472	-584	-890	-164	4	-8452	5344	13404	60	407	-107	-15464	3148	-4820	-591	272	-139	-16484	-724	1700	-887	126	-10	126	125	8
-7944	-4644	13144	-156	49	-144	-16340	-2764	-720	-907	36	68	-16148	-2604	-624	-808	-109	-22	-8512	5344	13536	117	436	-28	-15368	3224	-4732	-427	238	-193	-16340	-636	1888	-812	221	12	126	125	8
-7852	-4700	13204	-177	4	-145	-16316	-2772	-688	-684	116	110	-16152	-2440	-676	-594	-138	42	-8440	5428	13376	134	407	-36	-15232	3200	-4540	-358	263	-159	-16168	-704	1912	-900	282	49	126	125	8
-7864	-4668	13212	-128	31	-90	-16308	-2740	-952	-467	83	121	-16100	-2156	-780	-482	-149	9	-8404	5504	13396	92	317	-51	-15152	3176	-4556	-366	229	-136	-16012	-648	2084	-855	257	93	126	125	8
-7932	-4676	13220	-74	10	-97	-16324	-2624	-876	-338	122	136	-16044	-1964	-744	-384	-128	-47	-8500	5508	13384	23	265	-94	-15044	3384	-4348	-392	311	-121	-15952	-472	2252	-857	165	157	126	125	8
-7764	-4548	13336	-86	6	-111	-16288	-2488	-856	-293	189	82	-16008	-1924	-936	-336	-106	-39	-8444	5652	13340	-61	251	-154	-15144	3496	-4372	-550	503	-178	-15936	-576	2164	-762	22	262	126	125	8
-7776	-4536	13208	-105	13	-129	-16324	-2756	-984	-124	121	127	-15908	-1952	-1144	-315	-96	-15	-8284	5752	13480	-134	205	-294	-15420	3412	-4528	-825	481	-182	-16384	-800	1916	-535	-55	260	126	125	8
-7912	-4592	13252	-107	115	-90	-16400	-2928	-1140	479	110	283	-15968	-2432	-1392	-190	-42	-52	-8336	5844	13208	50	219	-227	-15496	3092	-4928	-644	526	-63	-16492	-1048	1644	-326	-155	206	126	125	8
-7900	-4624	13240	-87	156	-175	-16252	-2568	-1224	180	-10	203	-15904	-2656	-1544	1	14	-47	-8596	5188	13740	66	284	-262	-15336	3064	-4992	32	411	-46	-16432	-1180	1484	-227	-250	206	126	125	8
-7852	-4644	13276	-58	137	-148	-16400	-2824	-992	157	20	239	-15976	-2552	-1392	354	136	44	-8472	5112	13452	75	224	-319	-15276	3124	-4944	-76	348	-50	-16332	-864	1404	-173	-213	270	126	125	8
-7732	-4492	13252	-13	109	-108	-16208	-2964	-936	1032	-109	278	-16156	-2552	-860	837	133	87	-8500	5416	13524	165	208	-219	-15364	3168	-5044	26	267	-30	-16464	-672	1356	141	-132	214	126	125	8
-7864	-4324	13268	-39	36	-90	-16464	-2336	-1156	646	-26	219	-16184	-2080	-852	844	79	33	-8496	5296	13444	151	313	-157	-15256	3168	-5068	23	132	-45	-16376	-408	1312	85	-52	186	126	125	8
-7960	-4760	13180	4	30	-187	-16368	-2564	-1288	309	19	156	-16072	-1644	-1036	644	157	37	-8516	5360	13304	177	217	-86	-15148	3252	-5104	84	52	-46	-16260	-452	1360	187	121	176	126	125	8
-7876	-4668	13348	-24	37	-196	-16236	-2768	-996	267	50	65	-16044	-1720	-1188	356	108	-21	-8580	5480	13220	166	116	-87	-15068	3420	-5000	108	-81	-69	-16108	-420	1348	183	129	150	126	125	8
-7712	-4432	13364	-59	111	-169	-16356	-2820	-1192	271	-21	120	-16104	-1912	-1068	259	4	-132	-8560	5456	13340	112	-51	-106	-15100	3380	-4816	43	-112	-82	-16056	-468	1484	167	75	180	126	125	8
-7860	-4584	13288	-50	138	-219	-16316	-2476	-1092	73	51	104	-16112	-2052	-1044	242	42	-138	-8504	5536	13424	84	-147	-168	-15156	3388	-4792	41	-74	-62	-16164	-452	1628	71	27	124	126	125	8
-7820	-4684	13216	-67	186	-223	-16368	-2888	-796	164	-4	119	-16092	-2328	-1268	223	104	-61	-8444	5452	13376	66	-198	-249	-15216	3320	-4752	33	-84	-84	-16236	-620	1844	-36	-86	117	126	125	8
-7836	-4948	13132	-30	221	-218	-16280	-3084	-940	810	-40	220	-16036	-2672	-1100	628	154	24	-8496	5416	13368	63	-230	-251	-15328	3208	-4720	98	-103	-77	-16316	-696	1732	-94	-213	101	126	125	8
-7828	-4584	13236	-9	227	-241	-16316	-2416	-952	718	22	219	-16136	-2488	-1028	807	48	26	-8492	5408	13480	74	-164	-257	-15436	3252	-4732	48	-98	-90	-16532	-772	1812	-102	-223	148	126	125	8
-7852	-4584	13340	-23	212	-181	-16300	-2768	-992	376	-16	161	-16056	-2232	-972	800	193	31	-8484	5452	13580	122	-91	-229	-15460	3148	-4696	56	-90	-58	-16416	-820	1720	-88	-198	212	126	125	8
-7840	-4664	13208	-22	177	-221	-16340	-2612	-1048	341	57	169	-15992	-2116	-1168	801	297	75	-8464	5308	13368	102	-4	-156	-15412	3064	-4748	35	-104	-61	-16364	-944	1732	119	-93	266	126	125	8
-7812	-4640	13260	-58	119	-221	-16340	-2776	-1144	563	20	193	-16064	-2132	-1092	797	293	-37	-8440	5340	13404	183	38	-154	-15440	3104	-4924	127	-130	-27	-16240	-1084	1660	405	-29	316	127	125	8
-7716	-4616	13276	-64	107	-202	-16340	-2568	-1004	556	35	132	-15952	-2164	-1120	907	304	-41	-8444	5392	13488	202	-34	-109	-15220	3144	-4768	208	-165	-24	-16172	-1096	1728	763	37	228	126	125	8
-7768	-4656	13280	-4	63	-235	-16364	-2732	-1060	668	0	181	-16064	-2296	-1036	854	427	-2	-8504	5392	13476	254	-47	-137	-15220	3144	-4756	298	-193	43	-16180	-1092	1508	1024	184	285	126	125	8
-7700	-4748	13196	-88	97	-234	-16376	-2692	-1148	657	-10	198	-16020	-2424	-1228	1008	509	-27	-8500	5160	13484	283	-101	-234	-15192	3140	-4724	400	-256	110	-16160	-872	1824	965	7	310	127	125	8
-7756	-4608	13208	-32	115	-205	-16304	-2796	-1096	654	-73	173	-15924	-2380	-1388	1074	617	-61	-8564	5732	13272	272	-245	-153	-15064	3192	-4852	598	-228	141	-16104	-580	1752	1035	115	300	127	125	8
-7856	-4568	13260	19	181	-208	-16364	-2684	-1268	654	-64	159	-16008	-2492	-1368	1263	679	-32	-8404	5500	13340	218	-242	-233	-15128	3248	-4816	126	-166	96	-16064	-440	1792	900	24	298	127	125	8
-7888	-4580	13180	0	219	-271	-16300	-2660	-1196	705	-137	203	-15908	-2252	-1464	1502	771	14	-8532	5432	13360	234	-297	-237	-15296	3304	-4700	406	-181	124	-16132	-328	2080	642	-180	279	127	125	8
-7916	-4492	13416	-85	213	-290	-16480	-2768	-860	659	-199	201	-15992	-2128	-1432	1356	811	21	-8432	5660	13368	169	-199	-160	-15376	3292	-4676	274	-104	69	-16316	-312	1812	606	-33	267	126	125	8
-7900	-4580	13248	-101	235	-292	-16312	-2652	-1176	569	-197	150	-15984	-2164	-1404	1194	795	-28	-8448	5400	13572	156	-237	-213	-15280	3304	-4716	100	-111	18	-16288	-396	1812	450	-137	296	127	125	8
-7932	-4596	13244	-66	277	-276	-16364	-2828	-968	457	-245	221	-16044	-2368	-1624	1080	910	-28	-8528	5492	13332	123	-250	-241	-15252	3364	-4540	445	-79	27	-16232	-384	2044	423	-143	257	127	125	8
-7776	-4552	13260	-66	269	-297	-16332	-2688	-1092	495	-270	242	-16060	-2480	-1360	1140	928	19	-8316	5348	13480	111	-258	-305	-15184	3444	-4624	445	-119	5	-16196	-392	2128	305	68	259	127	125	8
-7892	-4584	13200	-41	317	-298	-16316	-2572	-980	378	-250	213	-16120	-2248	-1136	1158	986	7	-8516	5676	13320	103	-206	-277	-15328	3272	-4516	535	2	-54	-16240	-456	1984	286	106	251	127	125	8
-7888	-4608	13196	-102	285	-313	-16336	-2680	-948	315	-221	182	-16188	-2068	-1012	1000	913	-1	-8384	5292	13588	120	-124	-214	-15360	3284	-4624	-15	-30	-48	-16272	-536	2076	85	145	256	127	125	8
-7872	-4524	13212	-52	240	-303	-16296	-2572	-760	261	-186	200	-16176	-1980	-1044	861	822	14	-8528	5428	13488	78	-71	-195	-15300	3224	-4576	298	88	-92	-16272	-632	2132	4	226	243	127	125	8
-7880	-4580	13284	-61	214	-267	-16260	-2664	-712	210	-17	209	-16272	-2072	-928	804	724	1	-8280	5212	13500	102	-51	-237	-15412	3228	-4580	-170	105	-147	-16240	-580	2112	-67	272	267	126	125	8
-7912	-4644	13208	-48	188	-229	-16312	-2580	-644	252	36	154	-16092	-2232	-816	760	605	-1	-8428	5500	13328	50	76	-158	-15468	3188	-4548	75	229	-144	-16280	-616	2156	-92	232	237	126	125	8
-7936	-4780	13136	-47	142	-176	-16212	-2832	-584	368	122	117	-16196	-2232	-932	686	560	-28	-8328	5312	13560	101	130	-192	-15496	3272	-4648	-311	222	-208	-16464	-608	1984	-66	352	246	127	125	8
-7848	-4652	13308	-49	31	-143	-16380	-2640	-700	366	231	136	-16144	-2216	-1188	562	484	-36	-8500	5420	13444	130	345	-198	-15688	3168	-4592	-136	330	-161	-16612	-820	1820	-143	332	197	127	125	8
-7852	-4672	13284	-60	26	-116	-16468	-2740	-828	165	284	176	-16148	-2332	-1372	382	421	-38	-8400	5388	13536	206	537	-166	-15624	2952	-4788	-45	258	-124	-16656	-824	1696	-57	450	147	127	125	8
-7896	-4464	13208	2	28	-84	-16276	-2876	-884	359	271	123	-16012	-2532	-1708	451	425	-54	-8468	5288	13524	216	583	-156	-15308	3048	-4740	179	307	-122	-16260	-780	1664	-151	518	145	127	125	8
-7856	-4588	13228	6	-62	-38	-16400	-2524	-996	172	289	113	-16108	-2120	-1468	326	394	57	-8528	5300	13432	221	545	-141	-15208	3276	-4688	-18	341	-119	-16044	-620	1880	-343	578	143	127	125	8
-7800	-4616	13304	-53	-81	-56	-16340	-2636	-1016	-339	335	63	-16216	-2144	-1488	159	389	51	-8548	5524	13484	237	657	-116	-15336	3140	-4788	-156	403	-165	-16152	-472	1900	-338	633	88	127	125	8
-7852	-4580	13192	-58	-151	-44	-16336	-2628	-936	-163	351	26	-16084	-2060	-1392	62	405	-1	-8480	5528	13492	274	697	-89	-15356	3088	-4760	-2	440	-196	-16184	-608	1648	-402	634	14	127	125	8
-7848	-4664	13332	-20	-104	-29	-16296	-2660	-916	21	309	56	-16084	-2040	-1488	49	397	-34	-8436	5692	13316	200	687	-68	-15216	3300	-4608	-118	429	-106	-16196	-680	1708	-493	531	-2	127	125	8
-7892	-4580	13372	-39	-111	-2	-16340	-2584	-956	0	299	80	-16184	-1904	-1828	-134	71	-94	-8544	5532	13400	180	581	-146	-15212	3332	-4568	-101	496	-203	-16176	-584	1708	-623	349	-20	127	125	8
-7800	-4604	13184	-95	-59	-70	-16384	-2560	-1060	-279	289	10	-16076	-1840	-1916	-491	-35	-144	-8696	5436	13248	110	756	-155	-15212	3312	-4748	-386	594	-103	-16144	-372	1668	-615	168	-1	127	125	8
-7936	-4648	13252	-123	43	-6	-16272	-2640	-1260	-361	233	-14	-15904	-1908	-1972	-719	-185	-141	-8436	5672	13284	-13	663	-283	-15356	3248	-4920	-338	585	-187	-16108	-284	1384	-578	14	-1	127	125	8
-7920	-4544	13292	-63	-19	-7	-16324	-2684	-1332	-371	185	-29	-16000	-1972	-2196	-768	-304	-175	-8596	5632	13176	41	660	-185	-15208	3248	-4964	-364	625	-259	-16284	-316	1036	-580	-130	8	127	125	8
-7780	-4556	13244	-147	6	-93	-16368	-2672	-1292	-487	96	-44	-15948	-2388	-2328	-851	-346	-116	-8748	5248	13260	36	735	-141	-15108	3256	-5216	-450	514	-249	-16364	-312	1112	-612	-119	-32	127	125	8
-7760	-4608	13296	-189	69	-157	-16384	-2824	-1316	-447	-2	-38	-15952	-2884	-2296	-652	-315	-90	-8792	5552	13272	37	554	-223	-15160	3200	-5196	-297	438	-313	-16336	-340	912	-770	-55	-56	127	125	8
-7756	-4648	13244	-188	75	-155	-16400	-3032	-1372	-217	-142	98	-16008	-2888	-2248	-624	-331	-111	-8600	5316	13200	-72	470	-160	-15116	3156	-5296	-557	257	-340	-16244	-292	968	-1084	72	5	127	125	8
-7780	-4564	13260	-165	112	-193	-16280	-2860	-1296	-377	-304	149	-15872	-2784	-2320	-482	-221	-83	-8792	5580	13080	-15	446	-70	-15008	3228	-5236	-450	176	-366	-16276	-320	956	-1207	284	-77	127	125	8
-7880	-4600	13200	-124	175	-218	-16420	-2856	-1132	-467	-366	201	-15940	-2740	-1916	-436	-23	-42	-8704	5148	13284	14	312	-108	-15304	3176	-5032	-325	40	-375	-16280	-400	944	-1498	306	-69	126	125	8
-7860	-4476	13368	-115	81	-177	-16320	-2884	-1084	-380	-399	198	-15928	-2448	-1628	-360	-100	-18	-8744	5180	13340	-125	242	-57	-14988	3192	-5112	-578	13	-369	-16168	-668	948	-1425	442	13	127	125	8
-7824	-4468	13260	-63	47	-183	-16288	-2668	-1140	-164	-387	262	-15968	-2268	-1472	-245	-226	-18	-8716	5488	13192	-34	181	17	-15248	2940	-5064	-462	-64	-369	-16148	-952	1236	-1350	423	96	127	125	8
-7868	-4680	13220	-89	84	-161	-16228	-2484	-1284	-293	-350	239	-15972	-1788	-1384	-526	-169	-52	-8720	5388	13312	-33	73	23	-15108	3136	-4840	-477	-54	-341	-16104	-1116	1272	-1205	536	161	127	125	8
-7768	-4600	13228	-94	75	-135	-16288	-2656	-984	-870	-293	160	-16036	-2076	-1168	-967	-40	-11	-8756	5356	13260	-65	61	51	-15132	3092	-4872	-410	-57	-347	-16116	-1212	1496	-1188	478	209	127	125	8
-7784	-4684	13192	-113	51	-130	-16208	-2812	-568	-906	-200	185	-15992	-2488	-1240	-897	23	-62	-8800	5440	13184	-71	-90	29	-15196	3084	-4764	-385	31	-267	-16088	-1132	1560	-1094	365	204	127	125	8
-7916	-4704	13184	-92	115	-159	-16208	-2588	-800	-492	-162	201	-16288	-2504	-976	-718	-77	-36	-8760	5452	13332	-97	-74	-2	-15248	3164	-4724	-304	120	-201	-16224	-1060	1752	-1010	204	181	127	125	8
-7720	-4404	13364	-94	56	-116	-16272	-2576	-752	-420	-68	188	-16196	-2080	-848	-410	-192	-35	-8760	5444	13324	-44	-16	-67	-15304	3148	-4676	-350	217	-184	-16320	-1036	1752	-872	65	180	127	125	8
-7776	-4552	13416	-102	102	-118	-16284	-2504	-892	-325	7	161	-16096	-1940	-1116	-416	-179	-5	-8716	5504	13372	-10	56	-144	-15324	3132	-4652	-343	307	-125	-16444	-980	1900	-752	-1	143	127	125	8
-7812	-4608	13248	-147	126	-127	-16264	-2516	-728	-499	74	155	-16052	-2104	-1304	-670	-149	43	-8652	5400	13348	-7	186	-166	-15376	3088	-4572	-368	437	-74	-16320	-1024	1896	-609	-9	158	127	125	8
-7984	-4572	13216	-145	111	-106	-16272	-2584	-960	-750	186	101	-16068	-2292	-1212	-715	-114	20	-8696	5384	13256	19	247	-232	-15440	3016	-4768	-400	511	-78	-16456	-1048	1632	-480	7	215	126	125	8
-7836	-4508	13228	-221	120	-189	-16364	-2716	-968	-657	266	102	-16196	-2308	-1064	-681	-182	41	-8620	5532	13352	-57	407	-289	-15584	3008	-4864	-502	544	-51	-16484	-1104	1440	-341	-70	252	127	125	8
-7740	-4568	13248	-151	138	-170	-16284	-2616	-856	-476	337	130	-16152	-2196	-1036	-562	-307	43	-8748	5456	13352	123	545	-239	-15472	2984	-5104	-311	547	-33	-16464	-1196	1272	-202	-161	278	127	125	8
-7876	-4640	13176	-177	99	-181	-16300	-2748	-984	-340	442	118	-16016	-2324	-1124	-478	-292	65	-8876	5056	13336	171	721	-213	-15428	3016	-5076	-79	590	51	-16372	-1052	1144	-156	-243	298	127	125	8
-7848	-4660	13164	-161	49	-148	-16372	-2748	-856	-165	440	149	-16044	-2488	-1264	-257	-249	49	-8980	5128	13180	184	692	-221	-15252	2996	-5244	-102	542	16	-16328	-992	1048	-287	-340	302	127	125	8
-7832	-4576	13348	-115	44	-110	-16316	-2640	-976	-262	454	116	-15996	-2384	-1576	-252	-307	76	-8888	5348	13160	202	669	-246	-15188	3104	-5044	-108	486	67	-16276	-752	932	-260	-296	218	127	125	8
-7768	-4576	13116	-79	51	-143	-16376	-2768	-1164	-285	424	128	-15896	-2252	-1868	-265	-289	107	-8676	5416	13040	180	635	-179	-15156	3036	-5572	-405	398	75	-16244	-652	876	-250	-287	137	127	125	8
-7840	-4648	13164	-64	-1	-123	-16360	-2632	-1472	-225	423	61	-15956	-2276	-1772	-215	-226	72	-8892	5524	13088	219	574	-106	-15108	3028	-5328	-12	400	40	-16352	-604	904	-69	-181	124	127	125	8
-7768	-4484	13280	-76	51	-113	-16348	-2612	-1300	-296	381	59	-15940	-2240	-1684	-182	-210	21	-8908	5072	13204	304	551	-129	-15120	3244	-5160	-114	217	39	-16200	-532	792	-48	-228	164	127	125	8
-8124	-4640	13344	50	-274	-44	-16320	-2728	-1472	-242	289	-49	-15944	-2228	-1696	-138	-103	74	-8876	5412	13020	161	388	-95	-14976	3168	-5316	90	115	59	-16264	-528	636	-10	-119	132	127	125	8
-7768	-4652	13300	-82	75	-201	-16348	-2696	-1964	-202	228	-3	-15944	-2248	-1908	-46	-106	58	-8952	5456	13168	242	268	-42	-14988	3192	-5372	3	37	68	-16240	-596	824	-23	-96	184	127	125	8
-7628	-4664	13260	-78	125	-173	-16344	-2736	-1608	-97	174	66	-15888	-2228	-1904	-46	-138	32	-8948	5340	13024	241	144	-118	-14904	3232	-5392	108	-81	72	-16132	-584	848	97	-84	196	127	125	8
-7656	-4676	13232	-100	64	-217	-16416	-2612	-1452	-148	154	74	-15944	-2368	-1764	72	-14	32	-8916	5384	13124	261	-9	-102	-15092	3320	-5280	234	-157	30	-16152	-640	1008	276	-59	141	127	125	8
-7924	-4580	13060	-113	153	-205	-16328	-2740	-1512	-72	14	107	-15968	-2320	-1808	231	163	18	-8976	5452	13096	201	-130	-130	-15068	3408	-5216	217	-183	14	-16192	-448	1008	426	-20	177	127	125	8
-7808	-4556	13228	-122	199	-187	-16320	-2780	-1680	69	-115	181	-15840	-2220	-1944	403	163	3	-8996	5420	13004	192	-257	-179	-15012	3328	-5200	220	-219	54	-16064	-416	1028	548	14	252	127	125	8
-7700	-4288	13320	-104	257	-242	-16356	-2476	-1544	144	-134	143	-16024	-1892	-1892	314	178	-15	-8948	5456	13148	123	-303	-186	-15028	3316	-5176	297	-349	-23	-16096	-516	1120	577	86	231	127	125	8
-7996	-4844	13244	-143	375	-292	-16388	-2660	-1584	61	-218	125	-15856	-1708	-2036	156	34	-135	-8916	5356	13164	124	-415	-180	-15048	3240	-5084	415	-395	-17	-16104	-484	1188	581	14	184	127	125	8
-7820	-4584	13384	-172	362	-284	-16356	-2580	-1588	-78	-312	103	-15944	-2016	-1936	-75	150	-142	-8916	5428	13044	16	-548	-203	-14980	3276	-5028	360	-317	-35	-15948	-388	1356	452	3	229	127	125	8
-7892	-4352	13388	-168	381	-317	-16308	-2692	-1332	-330	-349	99	-15900	-2320	-2144	-38	247	-148	-8856	5456	13028	-51	-639	-197	-14988	3312	-5052	27	-256	-107	-15960	-284	1724	135	-13	228	127	125	8
-7932	-4640	13208	-186	340	-298	-16384	-2676	-1440	-325	-460	95	-15924	-2508	-1916	33	422	-103	-8904	5540	13048	-107	-671	-164	-14964	3324	-4644	150	-142	-139	-15920	-284	1740	-182	-112	209	127	125	8
-7700	-4536	13356	-203	367	-349	-16376	-2744	-1168	-248	-528	116	-15904	-2360	-1788	56	456	-87	-8896	5196	13288	-173	-768	-220	-15064	3432	-4840	-261	-11	-156	-15996	-488	1780	-418	-221	259	126	125	8
-7908	-4524	13240	-201	405	-369	-16204	-2772	-1216	-297	-593	128	-15924	-2316	-1808	97	456	-86	-8936	5804	13128	-285	-775	-218	-15080	3356	-4688	-304	108	-138	-16248	-572	1792	-480	-229	185	127	125	8
-7920	-4648	13276	-223	411	-388	-16332	-2676	-1092	-382	-582	216	-16128	-2728	-1428	167	621	26	-8720	5500	13296	-217	-732	-319	-15324	3148	-4828	-418	240	-234	-16408	-708	1996	-690	-382	236	127	125	8
-7908	-4684	13180	-208	402	-320	-16256	-2752	-1152	-300	-552	208	-16144	-2800	-1212	338	608	37	-8896	5100	13384	-241	-662	-225	-15260	3220	-4780	-347	328	-160	-16512	-876	1900	-836	-302	211	127	125	8
-7800	-4592	13256	-189	364	-320	-16348	-2712	-856	-76	-518	265	-16128	-2300	-1072	483	460	-3	-8608	5428	13344	-234	-406	-334	-15616	2988	-4844	-428	391	-176	-16640	-1096	1820	-795	-217	332	126	125	8
-7904	-4596	13276	-225	378	-311	-16308	-2572	-808	-55	-398	281	-16140	-2036	-1152	351	366	-17	-8720	5348	13308	-129	-184	-310	-15640	2988	-4972	-465	496	-140	-16652	-1256	1680	-738	-88	337	126	125	8
-7864	-4692	13288	-194	236	-276	-16280	-2584	-612	-96	-266	228	-16280	-1932	-824	203	226	28	-8656	5220	13488	-33	83	-266	-15692	2856	-5076	-455	532	-103	-16676	-1292	1472	-703	-81	301	126	125	8
-7820	-4588	13324	-290	68	-203	-16268	-2568	-504	-235	-14	184	-16260	-1992	-564	-163	53	74	-8592	5192	13452	59	365	-195	-15700	2724	-5172	-349	526	-82	-16664	-1364	1168	-485	-124	242	126	125	8
-7916	-4504	13272	-156	-46	-81	-16288	-2720	-688	-415	206	83	-16268	-1976	-700	-257	36	45	-8720	5144	13448	180	585	-140	-15548	2736	-5212	-219	468	-47	-16632	-1300	1220	-244	-178	158	126	125	8
-7988	-4656	13208	-125	-166	-56	-16316	-2724	-944	-225	282	92	-16108	-2460	-1256	-279	-229	-30	-8704	5232	13316	247	715	-79	-15312	3008	-5316	-105	451	-32	-16492	-1136	1152	-117	-126	90	126	125	8
-7840	-4512	13196	-46	-153	-97	-16288	-2528	-1036	-129	378	76	-16212	-2444	-1268	-199	-201	13	-8968	5356	13192	297	818	-50	-15188	3056	-5328	-104	402	16	-16400	-856	1084	-80	-89	134	126	125	8
-7848	-4684	13212	-46	-125	-79	-16300	-2676	-1016	67	453	46	-16000	-2312	-1368	97	-200	63	-8848	5244	13268	277	743	-104	-15136	3160	-5632	-400	319	50	-16228	-752	1044	-100	-194	171	126	125	8
-7772	-4660	13332	-19	-80	-100	-16184	-2544	-976	250	455	66	-16080	-2292	-1480	154	-305	88	-8796	5476	13124	309	622	-65	-15000	3076	-5328	54	318	70	-16168	-760	936	-39	-184	104	126	125	8
-7832	-4576	13248	-51	-85	-123	-16316	-2592	-1208	255	553	51	-16032	-2200	-1580	196	-351	103	-8804	5148	13160	366	588	-164	-14960	3268	-5184	97	240	47	-16108	-668	928	33	-319	102	126	125	8
-7836	-4660	13160	-42	-15	-123	-16300	-2604	-1296	182	495	76	-15932	-2112	-1680	108	-373	86	-8956	5356	13052	277	368	-166	-14752	3328	-5268	282	150	155	-15968	-568	984	252	-230	120	126	125	8
-7740	-4420	13372	-70	51	-112	-16352	-2700	-1172	152	468	96	-15800	-2108	-1968	164	-324	66	-8964	5488	12896	231	122	-167	-14756	3232	-5300	136	83	106	-15876	-472	996	274	-186	269	127	125	8
-7796	-4436	13200	-98	82	-143	-16304	-2680	-1428	163	431	84	-15728	-2248	-2172	52	-241	75	-8956	5320	13036	113	-61	-203	-14620	3360	-5500	-37	68	174	-15744	-488	872	231	-158	364	126	125	8
-7836	-4540	13308	-52	164	-199	-16344	-2852	-1616	329	303	177	-15764	-2664	-2292	224	-59	81	-8948	5320	13088	102	-396	-240	-14848	3264	-5400	80	-53	138	-15952	-772	884	392	-210	369	126	125	8
-7888	-4416	13316	-82	248	-233	-16444	-2864	-1612	434	97	282	-15796	-2824	-2448	319	142	33	-8968	5328	13184	106	-517	-265	-15004	3172	-5356	177	-94	151	-16212	-780	1144	599	-232	357	127	125	8
-7908	-4596	13216	-59	269	-272	-16364	-2696	-1716	348	-22	381	-15884	-2792	-2284	491	303	122	-8868	5272	13232	83	-587	-232	-15108	3140	-5440	377	-181	160	-16264	-556	1344	578	-148	450	127	125	8
-7776	-4436	13324	-25	268	-296	-16368	-2768	-1384	163	-120	352	-16024	-2316	-2008	597	437	186	-8820	5332	13260	83	-620	-187	-15296	3284	-5288	216	-184	109	-16512	-336	1620	395	86	478	126	125	8
-7912	-4560	13228	-42	196	-217	-16400	-2744	-1412	-133	-149	364	-15972	-1824	-1692	293	461	161	-8852	5320	13332	84	-458	-181	-15280	3216	-5084	126	-123	53	-16412	-252	1780	-21	294	496	127	125	8
-7884	-4464	13272	-44	151	-164	-16356	-2544	-1092	-606	-134	316	-16088	-1792	-1440	-154	457	202	-8744	5368	13376	114	-319	-118	-15412	3224	-5140	-64	-46	-11	-16408	-328	1868	-126	361	437	127	125	8
-7860	-4560	13204	-87	96	-151	-16284	-2528	-1020	-800	-51	244	-16084	-1712	-1296	-409	437	169	-8812	5364	13280	93	-120	-77	-15448	3172	-4924	-110	71	-34	-16448	-572	2092	-514	366	232	127	125	8
-7892	-4688	13240	-64	14	-131	-16308	-2604	-912	-494	36	204	-16232	-2084	-840	-265	264	79	-8708	5304	13308	133	147	-124	-15476	3200	-4860	-213	214	-24	-16496	-788	1972	-481	247	156	127	125	8
-7600	-4592	13340	-41	-86	-93	-16292	-2504	-1080	-105	158	158	-16292	-1996	-996	-79	69	10	-8796	5336	13404	175	413	-100	-15376	3176	-4944	-211	309	-70	-16420	-888	1940	-552	41	120	127	125	8
-7776	-4544	13304	-103	-90	-97	-16276	-2412	-1096	72	231	147	-16164	-1936	-1228	42	22	37	-8788	5312	13256	234	508	-123	-15272	3184	-4976	-142	470	-45	-16316	-884	1892	-536	-49	92	127	125	8
-7852	-4652	13240	-57	-99	-93	-16272	-2352	-1164	86	236	119	-16040	-1964	-1520	-46	-18	1	-8860	5444	13148	238	616	-155	-15200	3336	-5032	-197	559	-61	-16220	-768	1764	-541	-56	59	127	125	8
-7832	-4616	13212	-67	-50	-114	-16256	-2576	-1064	50	375	59	-16172	-2108	-1536	0	-91	49	-8896	5396	13164	199	626	-167	-15188	3288	-5160	-232	613	-55	-16264	-728	1456	-419	-109	74	127	125	8
-7872	-4784	13124	-101	-14	-124	-16256	-2532	-1204	189	454	23	-16132	-2100	-1456	53	-163	27	-8836	5380	13248	187	628	-256	-15168	3332	-5296	-151	580	-48	-16292	-624	1272	-315	-115	99	126	125	8
-7796	-4560	13260	-56	34	-37	-16256	-2440	-1308	197	496	-24	-16172	-1908	-1548	37	-282	-8	-8980	5372	13224	199	652	-271	-15180	3372	-5308	-15	560	-68	-16380	-528	1260	-201	-139	116	126	125	8
-7852	-4588	13256	-53	-29	-110	-16368	-2668	-1324	140	490	-163	-15936	-1796	-1780	-190	-323	-40	-8964	5524	13080	149	733	-289	-15108	3268	-5528	16	502	-57	-16388	-488	996	-104	-92	103	126	125	8
-7864	-4580	13276	-66	-23	-88	-16372	-2572	-1472	182	451	-79	-16064	-2080	-1848	-235	-371	-103	-8912	5452	13044	120	602	-332	-15032	3316	-5540	49	421	-89	-16356	-380	932	-37	26	90	126	125	8
-7876	-4752	13304	32	62	-145	-16264	-2540	-1516	64	413	-141	-16044	-2236	-1816	-152	-399	-114	-8908	5088	13144	146	567	-329	-15012	3292	-5292	179	368	-103	-16300	-360	840	-242	-46	-25	126	125	8
-7688	-4612	13352	-63	68	-138	-16256	-2700	-1288	90	415	-174	-16028	-2256	-1904	-163	-444	-83	-8992	5160	13204	199	555	-237	-14944	3256	-5652	78	282	-113	-16264	-264	756	-226	97	-42	126	125	8
-7732	-4448	13488	-38	69	-92	-16224	-2780	-1600	116	404	-191	-16020	-1964	-1904	-143	-461	-97	-9152	5348	12968	198	596	-172	-15048	3164	-5488	118	208	-237	-16248	-216	832	-266	66	-58	126	125	8
-7820	-4492	13248	-43	46	-128	-16444	-2628	-1840	-50	323	-214	-15840	-1796	-2260	-464	-523	-162	-8876	5248	13180	58	417	-187	-14788	3428	-5564	-244	165	-222	-16020	-276	640	-430	-57	30	126	125	8
-7844	-4648	13280	58	45	-83	-16092	-2820	-1944	-183	159	-374	-15796	-2204	-2512	-543	-469	-249	-9172	5460	12832	38	327	-91	-14668	3240	-5624	-150	91	-338	-15988	-440	732	-558	-154	49	126	125	8
-7768	-4648	13348	101	-1	-154	-16460	-2956	-1904	-24	40	-220	-15764	-2672	-2416	-301	-234	-181	-9024	5260	13096	-26	47	-69	-14716	3360	-5404	-384	0	-304	-15988	-544	852	-499	-102	16	126	125	8
-7864	-4448	13268	-128	236	-183	-16304	-2780	-1876	108	-193	44	-15916	-3036	-2336	69	15	-119	-9116	5376	12980	-100	-187	-86	-14680	3276	-5600	-215	-27	-274	-15860	-736	836	-508	-124	93	126	125	8
-7844	-4600	13256	-196	299	-279	-16260	-2824	-1772	-18	-343	58	-15856	-2532	-2200	289	89	-70	-9000	5468	13124	-85	-447	-157	-14900	3236	-5412	-175	-102	-267	-16084	-836	980	-293	-80	93	126	125	8
-7912	-4408	13380	-170	320	-283	-16348	-2744	-1536	-128	-349	153	-15900	-2172	-1840	231	184	-15	-9028	5432	13036	-83	-518	-250	-15052	3160	-5484	-40	-175	-153	-16340	-1016	1076	-105	-89	128	126	125	8
-7836	-4596	13212	-171	312	-264	-16272	-2884	-1428	-261	-458	160	-15932	-2464	-1756	224	282	4	-9036	5256	13136	-52	-606	-270	-15172	3104	-5464	178	-264	-118	-16476	-1000	1200	11	-26	113	126	125	8
-7892	-4608	13224	-137	332	-264	-16336	-2884	-1476	-112	-396	228	-16072	-2592	-1412	396	305	-18	-8968	5276	13204	-16	-551	-245	-15368	3092	-5332	183	-301	-94	-16552	-928	1252	33	26	267	126	125	8
-7880	-4692	13156	-192	314	-255	-16244	-2744	-1336	86	-340	201	-16164	-2472	-1188	569	262	13	-8916	5244	13260	19	-354	-216	-15376	2976	-5248	95	-255	-69	-16496	-1028	1340	133	58	305	126	125	8
-7672	-4492	13372	-100	250	-236	-16224	-2696	-1152	235	-309	176	-16140	-1964	-1120	573	172	7	-8884	5184	13232	62	-173	-204	-15436	2916	-5304	87	-201	-101	-16492	-1244	1412	235	28	203	126	125	8
-7824	-4620	13252	-95	185	-229	-16284	-2700	-1140	216	-224	178	-16036	-1844	-1176	415	7	-32	-8920	5232	13232	146	-36	-140	-15348	2900	-5360	208	-168	15	-16420	-1208	1260	391	-44	124	126	125	8
-7792	-4732	13144	-112	169	-189	-16284	-2576	-1280	218	-116	95	-16124	-2008	-1320	293	-83	-43	-8880	5220	13268	152	48	-141	-15200	2964	-5324	212	-150	38	-16248	-1080	1192	320	-179	133	126	125	8
-7848	-4640	13240	-109	148	-189	-16260	-2700	-1268	137	-19	69	-15968	-2244	-1316	326	-118	-47	-8992	5252	13128	220	51	-114	-15056	3188	-5252	143	-132	12	-16180	-864	1256	312	-257	164	126	125	8
-7828	-4616	13236	-82	127	-228	-16204	-2720	-1364	286	-32	30	-15972	-2600	-1592	519	-33	-16	-8968	5344	13216	174	52	-151	-15028	3212	-5244	11	-90	51	-16100	-652	1324	332	-316	204	126	125	8
-7832	-4544	13252	-89	139	-227	-16320	-2776	-1376	509	-46	106	-16052	-2580	-1596	737	40	74	-8976	5524	13032	196	-7	-155	-15044	3264	-5388	40	-96	40	-16160	-780	1184	377	-317	202	127	125	8
-7880	-4772	13172	-78	157	-226	-16272	-2680	-1428	505	-61	175	-16000	-2452	-1696	826	33	58	-8964	5360	13032	180	-72	-216	-15004	3236	-5280	169	-102	95	-16164	-688	1212	390	-369	251	127	125	8
-7840	-4604	13224	-77	214	-264	-16256	-2868	-1388	534	-26	140	-16032	-2200	-1792	971	31	71	-8904	5372	13156	122	-195	-269	-14924	3292	-5340	236	-90	109	-16232	-588	1212	391	-341	285	126	125	8
-7968	-4676	13132	-107	231	-224	-16260	-2692	-1400	658	-69	208	-15984	-2340	-1784	999	6	22	-9012	5376	13164	104	-284	-201	-15052	3180	-5296	172	-94	84	-16180	-556	1216	384	-342	317	126	125	8
-7612	-4348	13300	-68	178	-202	-16248	-2808	-1464	732	-167	226	-16012	-2308	-1912	1030	-17	66	-8940	5304	13168	131	-288	-267	-15136	3188	-5472	48	-109	72	-16284	-632	1192	433	-304	319	126	125	8
-7708	-4428	13320	-75	219	-263	-16304	-2584	-1520	550	-152	237	-16004	-2096	-1824	731	83	150	-8888	5216	13108	108	-273	-251	-15120	3016	-5404	101	-176	93	-16408	-716	1168	364	-303	253	126	125	8
-7824	-4728	13072	-124	189	-224	-16308	-2764	-1648	154	-186	200	-15936	-2348	-1788	431	101	116	-8868	5212	13284	134	-224	-182	-15300	3032	-5448	185	-251	74	-16384	-768	1172	341	-240	240	126	125	8
-7756	-4692	13244	-80	175	-211	-16436	-2824	-1584	-13	-171	224	-15944	-2284	-1884	301	111	-4	-8836	5264	13208	131	-120	-136	-15252	3128	-5360	130	-296	-5	-16440	-656	1296	258	-193	242	127	125	8
-7736	-4500	13356	-97	57	-188	-16236	-2692	-1360	93	-211	217	-16100	-2184	-1752	301	42	34	-8880	5260	13280	190	-79	-93	-15248	3108	-5312	107	-251	24	-16384	-536	1328	179	-82	258	127	125	8
-7792	-4624	13452	-74	57	-189	-16332	-2676	-1204	-95	-167	122	-16100	-2104	-1660	166	4	81	-8840	5308	13144	202	8	-47	-15060	3172	-5136	56	-220	0	-16252	-544	1480	25	66	245	127	125	8
-7848	-4580	13388	-68	67	-136	-16296	-2728	-1288	-103	-162	174	-15956	-2096	-1548	-36	-8	97	-8832	5268	13224	144	4	5	-15060	3072	-5360	-297	-195	-80	-16176	-540	1528	-15	106	186	127	125	8
-7824	-4572	13276	-50	58	-137	-16220	-2696	-1164	-149	-137	112	-16020	-2320	-1368	31	-96	55	-8932	5408	13140	173	19	51	-15096	3152	-5232	-102	-147	-25	-16164	-636	1512	-153	-9	164	127	125	8
-7816	-4624	13296	-46	39	-154	-16348	-2660	-1312	-83	-147	133	-16092	-2456	-1376	76	-127	23	-8880	5292	13152	135	-90	21	-15116	3284	-5236	-184	-75	-63	-16200	-732	1408	-104	-82	205	127	125	8
-7832	-4600	13256	-78	90	-188	-16252	-2680	-1240	-15	-124	172	-16092	-2280	-1372	232	-42	58	-8936	5384	13184	134	-5	-116	-15076	3268	-5172	-135	-72	-17	-16180	-800	1532	-120	-197	219	127	125	8
-7824	-4652	13328	-89	72	-147	-16300	-2652	-1336	107	-117	185	-15936	-2156	-1776	162	-65	80	-8900	5428	13080	154	-71	-143	-15156	3244	-5088	-11	-71	36	-16212	-800	1576	-128	-265	207	127	125	8
-7896	-4580	13268	-112	138	-205	-16268	-2732	-1304	153	-140	219	-16016	-2252	-1676	105	-59	77	-8944	5340	13120	185	-74	-188	-15108	3260	-5300	18	-37	25	-16284	-680	1512	-115	-229	199	126	125	8
-7772	-4620	13248	-117	142	-179	-16324	-2660	-1236	-4	-127	242	-16068	-2244	-1552	105	-2	71	-8880	5312	13104	108	-52	-195	-15124	3116	-5180	35	-43	72	-16280	-580	1424	-66	-169	210	127	125	8
-7752	-4572	13136	-92	133	-197	-16264	-2640	-1376	-122	-80	213	-16056	-2376	-1456	84	29	36	-8852	5308	13104	137	-38	-188	-15196	3116	-5092	-33	-31	-1	-16276	-548	1376	61	-127	253	127	125	8
-7828	-4612	13292	-78	99	-135	-16264	-2704	-1188	8	-120	218	-16140	-2292	-1416	142	1	99	-8856	5312	13212	114	-13	-203	-15256	3104	-5328	-103	23	-14	-16404	-676	1412	43	-71	241	127	125	8
-7796	-4600	13208	-87	133	-168	-16296	-2692	-1300	100	-37	188	-16104	-2104	-1512	265	-36	91	-8876	5344	13288	193	59	-153	-15192	3136	-5240	-102	17	-10	-16300	-792	1448	19	1	206	127	125	8
-7816	-4560	13344	-116	93	-144	-16336	-2692	-1296	143	-37	195	-16012	-2040	-1512	161	-121	45	-8884	5344	13168	182	82	-151	-15228	3124	-5240	-36	-10	-41	-16372	-836	1464	74	-2	171	127	125	8
-7848	-4596	13248	-116	79	-148	-16328	-2568	-1348	-38	-14	138	-16020	-2104	-1748	-2	-145	27	-8852	5304	13232	195	178	-124	-15124	3200	-5328	-49	30	-10	-16292	-732	1376	12	-46	167	127	125	8
-7908	-4588	13316	-82	91	-115	-16312	-2688	-1460	-158	2	163	-16028	-2184	-1796	-55	-156	31	-8908	5272	13112	161	195	-129	-15092	3240	-5164	-100	61	-51	-16216	-620	1184	-54	-79	161	127	125	8
-7772	-4532	13244	-85	71	-138	-16316	-2672	-1424	-107	-34	127	-16052	-2192	-1716	-61	-163	39	-8940	5308	13208	148	144	-130	-15012	3168	-5272	-111	84	-58	-16212	-560	1272	-144	-130	223	126	125	8
-7824	-4552	13352	-140	87	-181	-16328	-2676	-1524	-59	-95	161	-16012	-2164	-1724	-106	-173	23	-8888	5356	13192	141	120	-138	-15036	3192	-5360	-118	37	-26	-16220	-580	1184	-289	-203	154	127	125	8
-7896	-4588	13292	-146	123	-200	-16280	-2700	-1344	-69	-120	163	-15984	-2144	-1768	-142	-184	63	-8892	5384	13128	161	34	-153	-15040	3284	-5268	-59	-8	-8	-16216	-684	1204	-276	-253	153	127	125	8
-7844	-4572	13172	-92	130	-199	-16292	-2620	-1284	-173	-157	196	-15996	-2252	-1556	-144	-118	101	-8984	5412	13196	144	-20	-215	-15020	3244	-5272	-16	-24	17	-16140	-776	1296	-300	-231	119	127	125	8
-7848	-4596	13220	-101	129	-192	-16396	-2648	-1300	-364	-118	171	-16020	-2216	-1380	-197	-81	84	-8956	5328	13208	98	-110	-189	-14996	3180	-5332	-5	-19	37	-16100	-780	1352	-286	-194	156	127	125	8
-7820	-4636	13348	-122	189	-180	-16304	-2632	-1276	-370	0	153	-16116	-2280	-1156	-159	-9	142	-8976	5292	13092	78	-219	-201	-15004	3184	-5208	-26	-14	4	-16212	-764	1424	-252	-153	131	127	125	8
-7776	-4628	13284	-112	144	-183	-16256	-2656	-1088	-275	59	184	-16252	-2348	-940	10	-36	146	-8884	5348	13280	100	-230	-203	-15188	3100	-5112	31	-21	89	-16276	-780	1588	-232	-59	102	127	125	8
-7872	-4544	13336	-67	132	-163	-16224	-2640	-956	-340	151	180	-16128	-2112	-972	-147	-86	139	-8864	5340	13208	154	-208	-188	-15276	3196	-5116	151	10	58	-16344	-760	1704	-187	-27	135	127	125	8
-7972	-4468	13308	-50	71	-132	-16228	-2724	-1076	-362	190	149	-15980	-2000	-976	-262	-51	71	-8884	5308	13300	152	-125	-226	-15324	3252	-5092	115	45	30	-16352	-728	1852	-153	96	200	127	125	8
-7876	-4516	13476	-60	-60	-131	-16288	-2644	-1184	-174	300	182	-16064	-1976	-976	-260	-156	35	-8892	5428	13164	168	84	-200	-15368	3224	-5072	-11	129	11	-16392	-716	1920	-125	178	195	127	125	8
-7652	-4700	13296	-7	-14	-99	-16220	-2588	-1072	-116	397	108	-16148	-2056	-904	-182	-134	-24	-8864	5324	13188	128	200	-153	-15392	3168	-5080	-150	238	-49	-16408	-636	1840	-155	214	238	127	125	8
-7820	-4580	13308	-53	-40	-56	-16288	-2612	-1352	65	438	115	-16092	-2088	-1100	-368	-191	9	-8872	5380	13232	190	368	-150	-15328	3192	-5076	-100	285	-34	-16384	-756	1756	-240	284	153	126	125	8
-7856	-4524	13228	-62	-67	-75	-16288	-2636	-1348	40	483	76	-15888	-2104	-1608	-550	-169	-84	-8916	5336	13200	213	509	-187	-15308	3104	-5136	-108	292	-55	-16272	-808	1536	-228	259	142	126	125	8
-7764	-4580	13332	-21	-78	-51	-16316	-2624	-1616	-118	448	51	-15884	-2332	-1844	-326	0	-120	-8968	5348	13080	257	453	-186	-15044	3276	-5124	54	365	4	-16064	-900	1524	-99	189	156	127	125	8
-7708	-4704	13356	-41	-42	-125	-16316	-2616	-1692	-27	341	120	-15860	-2596	-2056	-70	177	-74	-8936	5404	13004	258	473	-243	-15072	3272	-5200	32	408	25	-16028	-900	1508	43	27	220	127	125	8
-7816	-4512	13360	-36	-5	-162	-16228	-2712	-1816	264	285	24	-15896	-2564	-1916	367	254	-1	-8948	5372	13080	213	441	-255	-14996	3276	-5308	19	477	21	-16108	-828	1240	167	-55	236	127	125	8
-7752	-4500	13312	-25	47	-155	-16364	-2596	-1740	446	214	139	-16000	-2224	-1784	682	335	72	-9028	5296	13100	157	345	-290	-14992	3244	-5500	-45	482	37	-16240	-736	1152	171	-173	265	126	125	8
-7860	-4480	13292	-17	123	-202	-16340	-2624	-1664	437	139	104	-15948	-1924	-1904	579	362	29	-8984	5512	13028	164	244	-285	-15028	3172	-5396	197	463	32	-16256	-620	916	228	-129	225	126	125	8
-7952	-4696	13168	-84	135	-238	-16260	-2688	-1596	214	82	119	-15936	-2124	-2092	436	450	-51	-8968	5228	13104	196	148	-319	-15044	3184	-5372	187	433	67	-16236	-520	1032	220	-291	208	126	125	8
-7720	-4532	13332	-84	136	-172	-16304	-2716	-1656	120	80	118	-16008	-2328	-1840	418	481	-57	-8976	5328	13064	152	105	-290	-14936	3260	-5524	305	296	64	-16252	-380	796	362	-167	166	127	125	8
-7820	-4744	13288	-98	237	-220	-16280	-2608	-1636	-25	13	91	-15976	-2304	-1828	583	465	-56	-8980	5296	13180	180	40	-282	-15008	3264	-5672	181	240	-26	-16308	-204	836	219	-115	147	126	125	8
-7776	-4564	13204	-114	224	-226	-16304	-2804	-1484	281	-48	112	-16088	-2112	-1528	716	524	14	-9020	5368	13032	94	-4	-248	-14944	3320	-5680	146	154	-25	-16336	-284	840	55	-68	122	126	125	8
-7976	-4568	13212	-102	251	-272	-16224	-2552	-1300	372	33	75	-16040	-1968	-1500	665	411	-23	-8988	5300	13132	109	-83	-230	-14932	3212	-5564	126	91	-54	-16300	-304	992	-135	-58	35	126	125	8
-8016	-4420	13336	-46	200	-227	-16208	-2836	-1272	305	66	45	-16096	-1984	-1424	437	273	-6	-8988	5360	13048	73	-183	-189	-14948	3200	-5548	71	36	-144	-16172	-424	1064	-223	-65	64	126	125	8
-7908	-4548	13232	-62	171	-145	-16288	-2700	-1384	141	111	113	-16036	-2108	-1376	429	158	-56	-8988	5352	13088	34	-232	-188	-14988	3348	-5520	27	21	-140	-16192	-580	1280	-163	26	130	126	125	8
-7856	-4572	13292	-75	190	-178	-16272	-2636	-1532	19	142	78	-16004	-2132	-1656	247	70	-80	-8944	5336	13208	11	-226	-201	-15076	3280	-5372	-63	47	-152	-16224	-748	1376	22	195	126	126	125	8
-7828	-4620	13380	-82	162	-245	-16220	-2684	-1552	85	121	11	-15916	-2088	-1768	244	35	-88	-8944	5252	13064	45	-205	-193	-15092	3160	-5428	-12	18	-158	-16268	-792	1488	174	266	186	126	125	8
-7796	-4540	13288	-20	161	-221	-16260	-2616	-1436	244	143	21	-16016	-2152	-1756	267	-53	-122	-9000	5304	13192	28	-181	-166	-15248	3204	-5344	54	69	-189	-16296	-728	1368	186	259	211	126	125	8
-7848	-4484	13384	-54	128	-235	-16320	-2660	-1640	363	104	-79	-16144	-2080	-1576	365	-102	-153	-8968	5252	13140	22	-81	-105	-15180	3164	-5260	53	120	-232	-16352	-500	1520	-71	216	171	126	125	8
-7756	-4472	13356	-103	111	-221	-16272	-2712	-1484	240	148	-68	-15976	-2284	-1452	378	-23	-120	-8876	5328	13148	43	-31	-128	-15172	3336	-5252	-55	210	-230	-16364	-432	1748	-480	203	89	126	125	8
-7752	-4584	13324	-72	89	-190	-16304	-2744	-1548	89	163	-75	-16032	-2148	-1596	140	124	-116	-9004	5352	13156	6	140	-154	-15116	3292	-5188	-169	274	-254	-16276	-404	1852	-786	149	-31	126	125	8
-7760	-4600	13328	-89	165	-154	-16308	-2712	-1452	-26	146	-29	-15900	-2044	-1564	-196	85	-138	-8904	5392	12988	29	204	-206	-15144	3232	-5212	-177	392	-243	-16232	-668	1780	-791	160	-74	126	125	8
-7848	-4508	13264	-120	124	-218	-16264	-2596	-1528	-119	189	-16	-16028	-2172	-1656	-165	106	-154	-9028	5364	13252	46	205	-243	-15072	3256	-5248	-171	488	-235	-16124	-972	1676	-617	40	-27	126	125	8
-7844	-4408	13360	-157	138	-165	-16360	-2680	-1536	-115	161	5	-16000	-2376	-1444	-70	117	-154	-9000	5276	13084	-2	241	-280	-14996	3200	-5388	-163	605	-229	-16224	-1064	1520	-476	-31	59	126	125	8
-7756	-4616	13204	-167	96	-225	-16228	-2772	-1512	102	157	-2	-15980	-2468	-1556	74	161	-126	-9040	5212	13052	25	204	-314	-15000	3164	-5468	-76	664	-180	-16272	-968	1352	-349	-98	186	126	125	8
-7884	-4580	13384	-101	203	-141	-16308	-2752	-1516	240	196	11	-15996	-2432	-1672	202	188	-77	-9060	5268	13120	34	189	-284	-15096	3064	-5472	-109	594	-130	-16288	-1044	1056	-269	-36	238	126	125	8
-7728	-4592	13324	-142	153	-182	-16304	-2724	-1508	206	173	-21	-16012	-2404	-1616	333	209	-59	-9048	5276	13144	33	177	-331	-15092	3044	-5836	20	569	-125	-16448	-1136	888	-129	4	258	126	125	8
-7864	-4544	13232	-139	179	-150	-16244	-2796	-1528	198	207	55	-16008	-2376	-1748	410	160	-75	-9380	4680	13080	88	229	-322	-15136	3060	-6032	-40	447	-46	-16516	-976	788	-22	8	206	126	125	8
-7780	-4608	13220	-117	131	-159	-16328	-2856	-1688	288	234	36	-15980	-2392	-1740	400	183	-52	-9064	5380	13172	147	77	-222	-14980	2672	-5892	501	338	-58	-16420	-936	152	281	439	100	126	125	8
-7916	-4524	13360	-66	127	-147	-16260	-2748	-1412	351	238	3	-16000	-2420	-1596	461	225	-37	-8984	5144	13208	195	20	-156	-14820	3020	-6012	329	77	3	-16248	-824	60	587	511	58	126	125	8
-7772	-4668	13416	-64	69	-162	-16220	-2860	-1524	343	262	-26	-15976	-2420	-1768	447	193	-10	-9072	5260	13096	181	-74	-117	-14904	3268	-5716	248	-10	-12	-16228	-556	428	714	247	165	126	125	8
-7812	-4556	13300	-3	75	-169	-16196	-2848	-1644	332	264	25	-15920	-2304	-1764	422	46	-66	-8996	5332	13164	125	-115	-144	-14924	3180	-5744	-89	-12	-12	-16336	-624	736	745	53	272	126	125	8
-7884	-4556	13188	-67	73	-159	-16296	-2812	-1812	352	232	54	-15972	-2372	-1756	480	120	-37	-9000	5352	13068	173	-163	-163	-14976	3180	-5472	258	-101	11	-16280	-732	888	576	-240	228	126	125	8
-7936	-4476	13368	-27	162	-180	-16200	-2876	-1696	370	163	53	-15936	-2392	-2128	524	211	-2	-9080	5380	13064	169	-158	-197	-15028	3316	-5556	362	-168	56	-16372	-720	1364	344	-399	243	126	125	8
-7792	-4528	13304	-113	225	-219	-16320	-2788	-1836	300	119	187	-15996	-2492	-1984	570	147	48	-9036	5328	13044	160	-183	-285	-15080	3276	-5504	278	-115	63	-16388	-532	1500	155	-235	267	126	125	8
-7736	-4488	13376	-120	218	-232	-16288	-2892	-1580	422	117	181	-16044	-2488	-1928	746	128	92	-9044	5200	13000	162	-130	-295	-15116	3116	-5600	249	-75	41	-16404	-484	1384	95	-207	258	126	125	8
-7836	-4556	13316	-101	209	-198	-16236	-2796	-1656	436	84	119	-16080	-2356	-1924	778	142	94	-8980	5116	13176	160	-104	-237	-15000	3004	-5508	112	-67	-6	-16304	-580	1224	-120	-60	149	126	125	8
-7724	-4544	13252	-69	153	-160	-16244	-2792	-1712	285	70	135	-16048	-2188	-1844	631	14	93	-8988	5156	13260	158	-69	-207	-15048	3012	-5580	-34	7	-75	-16320	-728	1268	-188	-106	122	127	125	8
-7804	-4564	13340	-72	21	-167	-16256	-2836	-1780	164	60	104	-16012	-1844	-2040	246	-40	37	-9008	5244	13232	116	71	-93	-15096	3072	-5564	-176	20	-84	-16248	-912	1312	-167	-127	155	126	125	8
-7896	-4676	13160	-64	19	-159	-16204	-2808	-1844	13	12	103	-16028	-1948	-2076	-90	-85	13	-9024	5244	13148	113	147	-113	-15036	3132	-5616	-210	31	-123	-16268	-880	1268	-12	-79	186	126	125	8
-7832	-4552	13280	-53	12	-147	-16252	-2792	-1840	-128	-85	85	-16056	-2264	-2256	-375	-92	-27	-9088	5296	13112	134	164	-34	-15008	3132	-5560	-129	30	-101	-16248	-804	1232	82	96	249	127	125	8
-7740	-4576	13332	-27	-9	-137	-16276	-2708	-1688	-275	-66	105	-16040	-2296	-1992	-402	-184	-77	-9068	5328	13188	156	141	-74	-15036	3232	-5640	-103	22	-67	-16324	-584	1204	100	176	260	127	125	8
-7784	-4480	13332	-93	44	-168	-16200	-2800	-1832	-194	-139	112	-16080	-2408	-1824	-215	-113	-9	-9076	5396	13124	106	138	-93	-14944	3256	-5600	-202	38	-107	-16324	-364	1044	-52	111	304	126	125	8
-7720	-4544	13344	-82	9	-168	-16208	-2744	-1752	-104	-109	163	-16016	-2436	-1888	-91	-203	68	-9060	5324	13060	59	173	-119	-14988	3152	-5688	-266	72	-79	-16272	-504	1020	-360	-84	222	127	125	8
-7792	-4532	13240	-149	90	-218	-16228	-2836	-1640	-133	-124	154	-16008	-2400	-1892	-126	-232	73	-9040	5288	13128	91	29	-98	-14916	3128	-5620	-213	82	-43	-16164	-588	988	-632	-283	137	126	125	8
-7776	-4664	13268	-132	103	-193	-16348	-2800	-1720	-119	-153	187	-16064	-2444	-1756	-13	-181	101	-9096	5276	13096	36	-61	-138	-14876	3112	-5608	-181	62	-68	-15944	-708	1000	-852	-432	143	126	125	8
-7740	-4460	13352	-147	196	-205	-16288	-2880	-1744	-166	-163	164	-16024	-2456	-1992	32	-197	82	-9032	5244	12908	-91	-316	-133	-14472	3272	-5556	-356	120	-14	-15688	-780	896	-1014	-557	217	127	125	8
-7868	-4492	13364	-165	286	-242	-16244	-2972	-1616	17	-221	301	-15848	-2492	-1856	36	-178	151	-9040	5312	13032	-114	-494	-215	-14824	3232	-5516	-732	182	62	-15768	-880	992	-1024	-585	256	126	125	8
-7836	-4648	13292	-173	256	-269	-16236	-2988	-1632	36	-232	418	-15872	-2972	-1640	-9	-75	350	-8972	5232	13152	-29	-607	-249	-15168	3028	-5740	-525	102	140	-16196	-1276	924	-786	-627	305	126	125	8
-7920	-4656	13288	-87	229	-215	-16272	-3156	-1412	27	-289	586	-16012	-3384	-1500	197	-10	409	-9076	5104	13288	93	-457	-271	-15528	2896	-5816	-24	-10	214	-16944	-1836	824	-4	-668	564	126	125	8
-7868	-4628	13164	-34	145	-192	-16180	-2960	-1476	15	-260	682	-15748	-3052	-1760	511	24	422	-8440	4984	12156	70	-66	-262	-15816	3184	-5828	-376	-164	380	-17076	-1668	884	612	-590	878	127	125	8
-7932	-4468	13308	-28	70	-97	-16376	-2844	-1796	-55	-225	695	-16004	-2144	-2084	431	22	434	-9152	4964	13328	343	176	-209	-15760	2540	-6000	223	-242	345	-17152	-1568	924	707	-504	942	127	125	8
-7808	-4540	13304	15	-84	-95	-16332	-2556	-1752	7	-307	666	-15876	-1708	-1976	389	10	437	-8976	4480	13484	584	314	-41	-15588	2476	-5928	780	-441	472	-16752	-1100	828	676	-177	746	127	125	8
-7752	-4556	13304	-11	-195	-65	-16312	-2548	-1716	-399	-231	510	-16084	-1820	-1644	-32	-47	422	-9000	4864	13308	634	631	92	-15144	2892	-5780	453	-525	521	-16332	-856	832	665	51	328	127	125	8
-7788	-4636	13276	82	-180	-37	-16148	-2768	-1612	-347	-192	247	-16088	-2096	-1556	53	5	302	-9028	5288	13072	719	554	135	-14964	3036	-5644	376	-566	459	-16084	-524	1032	723	36	84	127	125	8
-7788	-4588	13244	198	-27	-42	-16272	-2620	-1600	-98	-159	233	-16124	-2252	-1456	180	21	255	-9008	5044	13088	756	650	289	-14756	3160	-5540	303	-502	445	-15892	-304	1268	617	-58	-55	127	125	8
-7732	-4688	13396	267	33	-75	-16124	-2356	-1516	-34	-142	142	-16080	-2164	-1136	286	1	312	-9032	5340	13024	709	413	366	-14588	3360	-5320	322	-482	397	-15840	-120	1440	348	-259	17	127	125	8
-7760	-4500	13320	133	58	-79	-16252	-2492	-1236	21	-62	125	-16068	-1672	-1240	335	-43	315	-9076	5684	12924	594	188	280	-14460	3792	-5076	263	-350	305	-15724	16	1740	144	-406	120	127	125	8
-7732	-4468	13368	77	46	-89	-16156	-2492	-1388	131	-20	247	-16156	-1644	-1324	414	-127	316	-9172	5880	12924	448	85	140	-14492	4128	-5056	70	-231	293	-15796	128	1856	50	-486	224	127	125	8
-7724	-4512	13216	7	76	-87	-16304	-2392	-1576	69	4	234	-16124	-1476	-1328	161	-184	305	-9164	5868	12872	277	-232	-94	-14548	4096	-5032	-49	-164	297	-16012	268	1916	137	-463	361	127	125	8
-7764	-4508	13376	-58	118	-100	-16336	-2540	-1764	-169	7	296	-16104	-1672	-1816	-198	-196	253	-9096	5684	12876	125	-388	-295	-14836	3952	-5252	-47	-153	224	-16272	196	1644	330	-366	469	127	125	8
-7800	-4440	13376	-86	117	-97	-16324	-2716	-1640	-85	-26	317	-16036	-1968	-1964	-174	-208	125	-9012	5672	12936	79	-437	-456	-14952	3672	-5388	249	-115	161	-16396	76	1672	445	-241	480	127	125	8
-7788	-4420	13428	-170	219	-168	-16416	-2616	-1696	43	-140	409	-16036	-2144	-1936	-124	-177	54	-9028	5440	13040	25	-381	-429	-15116	3508	-5444	235	-95	109	-16428	-48	1504	235	-100	449	127	125	8
