#Activity	standing 
#ActivityID	8 
#Date 09-24-16-00
acc_rf_x	acc_rf_y	acc_rf_z	gyro_rf_x	gyro_rf_y	gyro_rf_z	acc_rs_x	acc_rs_y	acc_rs_z	gyro_rs_x	gyro_rs_y	gyro_rs_z	acc_rt_x	acc_rt_y	acc_rt_z	gyro_rt_x	gyro_rt_y	gyro_rt_z	acc_lf_x	acc_lf_y	acc_lf_z	gyro_lf_x	gyro_lf_y	gyro_lf_z	acc_ls_x	acc_ls_y	acc_ls_z	gyro_ls_x	gyro_ls_y	gyro_ls_z	acc_lt_x	acc_lt_y	acc_lt_z	gyro_lt_x	gyro_lt_y	gyro_lt_z	EMG_r	EMG_l	act
-7416	-3184	13784	-52	214	-188	-16640	1552	-936	43	-252	473	-16152	2960	-284	282	-381	360	-8540	2980	14180	175	-70	-78	-16076	1508	-2256	-89	-293	261	-16208	696	-1332	179	-113	606	125	127	8
-7368	-3100	13932	-61	165	-187	-16640	1668	-900	69	-270	531	-16116	2916	-380	301	-350	426	-8616	2964	14140	190	9	-48	-16108	1408	-2208	-102	-352	238	-16088	732	-1408	125	-163	563	125	127	8
-7484	-3168	13796	-46	159	-181	-16664	1684	-796	-7	-255	498	-16096	3060	-304	249	-433	450	-8528	2972	14136	184	16	8	-16032	1364	-2280	-78	-367	327	-16204	652	-1308	-16	-226	565	126	127	8
-7172	-3184	13912	-104	144	-148	-16600	1680	-788	-19	-254	484	-16136	3080	-84	265	-475	450	-8476	2908	14232	173	24	27	-16052	1488	-2152	-115	-398	278	-16204	808	-1252	-100	-211	580	126	127	8
-7248	-3104	13900	-60	155	-156	-16524	1740	-836	15	-247	489	-16156	3184	-84	199	-482	418	-8388	3336	14168	236	59	-4	-16016	1492	-2108	-189	-415	299	-16244	820	-1124	-199	-105	588	126	127	8
-7428	-2984	13852	-32	154	-149	-16616	1828	-832	-66	-201	485	-16208	3240	-48	169	-407	418	-8556	3252	14156	231	128	17	-15992	1528	-2108	-273	-367	256	-16228	892	-1064	-207	-70	554	127	127	8
-7464	-3200	13868	-147	190	-166	-16616	1752	-752	-171	-186	478	-16216	3204	-72	153	-422	376	-8532	3024	14096	231	75	48	-16020	1464	-1876	-250	-330	312	-16236	936	-1008	-287	4	561	126	128	8
-7324	-3108	13872	-127	197	-147	-16576	1772	-768	-203	-206	486	-16136	3220	-44	107	-422	354	-8512	2780	14232	220	7	-10	-16092	1532	-2044	-248	-334	303	-16260	968	-1028	-305	10	530	127	128	8
-7460	-3056	13948	-94	211	-126	-16612	1724	-796	-177	-101	518	-16232	3140	-8	101	-451	340	-8576	2880	14108	242	36	-43	-16068	1484	-2072	-256	-344	352	-16252	892	-1036	-349	20	485	127	128	8
-7352	-3132	13884	-112	190	-148	-16564	1916	-720	-156	-106	488	-16272	3200	80	156	-408	324	-8452	3176	14160	234	15	33	-16028	1656	-1996	-193	-290	348	-16180	984	-1080	-275	8	495	127	128	8
-7420	-3148	13884	-125	201	-138	-16636	1852	-784	-232	-71	482	-16252	3256	-120	200	-473	303	-8544	3096	14156	157	-17	-71	-16032	1832	-1808	-255	-244	354	-16152	1024	-1072	-241	9	557	127	128	8
-7388	-3204	13860	-66	232	-97	-16552	1796	-868	-180	-41	484	-16196	3144	-56	328	-603	241	-8496	3036	14188	161	-90	-109	-16004	1640	-1904	-169	-239	345	-16184	1072	-1064	-220	-2	537	127	128	8
-7432	-3136	13788	-61	211	-91	-16608	1772	-840	-56	-73	485	-16168	3044	-24	543	-705	213	-8592	2868	14216	157	-121	-118	-16020	1620	-1744	-224	-233	372	-16272	1124	-996	-180	-111	500	127	128	8
-7364	-3024	13808	-13	197	-57	-16632	1800	-776	-33	-57	491	-16184	2988	-12	575	-702	192	-8412	3112	14184	140	-164	-111	-16108	1804	-1720	-275	-98	316	-16240	1240	-1008	-242	-72	533	128	129	8
-7324	-3220	13868	-44	151	-34	-16576	1852	-844	33	-58	489	-16128	3184	64	801	-703	149	-8392	3212	14180	104	-95	-167	-16020	1812	-1756	-296	-50	305	-16200	1352	-1024	-377	-34	500	128	129	8
-7552	-3160	13816	119	222	-31	-16596	1864	-1012	104	-34	466	-16180	3212	20	1008	-625	169	-8508	3168	14204	53	-146	-255	-16060	1824	-1800	-463	12	312	-16208	1316	-1104	-427	-50	491	128	129	8
-7316	-3104	13844	67	141	9	-16660	1800	-868	229	-38	430	-16112	3232	168	1035	-639	166	-8492	2960	14180	30	-135	-275	-16104	1776	-2032	-489	28	293	-16196	1184	-1188	-451	21	395	128	129	8
-7536	-3124	13752	163	137	-49	-16516	2104	-908	286	-22	444	-16000	3432	264	803	-592	278	-8524	3000	14196	26	-163	-197	-16016	1776	-1932	-456	44	235	-16204	1188	-1256	-425	94	368	129	130	8
-7336	-2968	13868	62	150	-27	-16604	2092	-1216	257	-21	369	-16048	3616	360	594	-524	363	-8580	3004	14256	28	-160	-256	-16112	1728	-2164	-513	32	242	-16140	1140	-1320	-408	108	353	129	130	8
-7360	-3136	13852	124	157	-84	-16608	2096	-920	237	-8	379	-16148	3776	396	479	-397	379	-8500	2912	14072	18	-153	-150	-16052	1720	-2084	-397	1	224	-16136	1084	-1412	-400	185	318	128	130	8
-7392	-2948	13792	15	170	-54	-16552	2224	-280	39	82	295	-16188	3944	456	304	-310	249	-8456	3004	14176	90	-94	-125	-16068	1792	-2180	-353	0	192	-16104	1224	-1496	-379	160	209	129	129	8
-7560	-2832	13888	35	223	-66	-16512	2240	-780	-185	125	261	-16012	3972	432	50	-202	174	-8472	2932	14244	73	-53	-95	-16028	1892	-2016	-369	-37	168	-16228	1340	-1372	-425	201	222	129	129	8
-7328	-3068	13864	-33	187	-89	-16564	2084	-1080	-240	191	250	-15908	3616	360	-198	-132	133	-8368	3164	14092	105	-105	-77	-16036	2032	-2096	-443	-31	84	-16160	1388	-1356	-508	241	176	129	129	8
-7332	-3192	13848	-43	175	-165	-16568	1984	-868	-146	186	242	-15980	3540	384	-226	-74	76	-8468	3188	14132	66	-86	-88	-16068	1940	-1928	-409	-17	63	-16212	1420	-1308	-552	294	137	129	129	8
-7324	-2992	13852	-64	151	-130	-16560	2024	-772	-98	203	188	-16120	3512	348	-195	-27	13	-8556	3052	14216	71	-113	-113	-16060	1896	-1760	-334	8	39	-16224	1308	-1040	-518	279	122	130	129	8
-7368	-3040	13776	-100	118	-147	-16588	2036	-920	-58	208	147	-16064	3360	280	-177	22	-15	-8516	2992	14272	-14	-91	-139	-16012	1956	-1776	-324	79	61	-16240	1336	-1028	-462	271	73	130	130	8
-7384	-3096	13732	-114	142	-173	-16560	2008	-916	-60	245	174	-16076	3256	236	-61	71	27	-8432	3104	14160	42	-105	-88	-16004	2000	-1688	-404	161	-46	-16304	1352	-848	-468	226	116	130	130	8
-7344	-3200	13728	-69	97	-182	-16608	1952	-748	114	281	126	-16128	3216	156	166	37	65	-8304	3092	14208	-7	-114	-190	-16032	1932	-1668	-368	265	-30	-16348	1260	-856	-459	210	119	129	130	8
-7472	-3036	13828	-95	107	-146	-16540	1920	-948	162	276	124	-16068	3268	256	368	116	89	-8480	3024	14216	-24	-37	-227	-16048	1984	-1552	-286	367	-71	-16356	1316	-892	-309	154	131	130	129	8
-7400	-2952	13812	-40	115	-176	-16656	2052	-944	421	278	129	-16076	3348	212	416	150	107	-8448	3100	14180	-43	-50	-280	-15968	1892	-1816	-148	432	-39	-16236	1292	-1140	-82	117	195	130	129	8
-7472	-2920	13836	-30	117	-165	-16500	2020	-1140	392	224	117	-16164	3464	256	506	204	89	-8356	3012	14140	-40	-149	-303	-16028	1872	-1936	-12	487	-79	-16184	1236	-1180	105	97	186	130	129	8
-7316	-3040	13772	-36	75	-209	-16580	1996	-852	393	251	62	-16048	3500	288	524	286	53	-8484	2960	14236	0	-89	-408	-16008	1792	-2004	129	580	-41	-16212	1080	-1280	161	80	142	130	130	8
-7408	-2996	13848	-59	64	-226	-16584	2028	-912	459	266	50	-16104	3504	232	618	325	33	-8572	3148	14208	-59	-92	-335	-16064	1944	-1916	106	583	-53	-16232	1160	-1272	118	10	157	130	130	8
-7396	-3060	13752	-26	62	-190	-16524	2052	-968	447	366	36	-16008	3504	320	587	265	-23	-8644	3016	14256	-90	-112	-345	-16016	1812	-1980	7	602	-28	-16184	1188	-1508	26	4	170	130	130	8
-7388	-3040	13880	-57	97	-210	-16620	1996	-848	454	313	66	-16092	3452	188	609	438	-42	-8536	2996	14196	-89	-40	-372	-16000	1780	-2320	42	666	-115	-16176	1216	-1332	-68	36	116	131	130	8
-7384	-3084	13916	-54	85	-237	-16528	1960	-1056	390	341	7	-16144	3388	120	412	416	-65	-8632	2644	14176	-76	-150	-344	-16088	1916	-2336	44	644	-73	-16128	1208	-1488	-128	57	113	130	130	8
-7432	-2972	13992	-74	41	-226	-16580	2044	-920	411	333	-23	-16244	3420	0	400	327	-56	-8380	3192	14240	-66	-76	-271	-16060	1736	-2316	-134	644	-134	-16168	1132	-1532	-231	120	35	130	130	8
-7488	-3016	13744	-115	48	-264	-16572	1980	-996	497	346	-58	-16416	3368	-44	196	66	108	-8428	3072	14160	-42	-29	-230	-16024	1852	-2232	28	673	-182	-16212	1364	-1732	3	63	-12	131	129	8
-7440	-3124	13832	-78	129	-264	-16556	1900	-876	534	382	-48	-16820	3220	100	-232	-389	411	-8476	2704	14216	-43	-110	-298	-15960	2032	-2072	8	633	-184	-16944	2352	-2392	1432	-513	-214	130	134	8
-7424	-2948	13948	-92	92	-217	-16652	2052	-992	594	410	-31	-16632	3528	200	-270	-583	620	-8372	2940	14384	-83	-212	-337	-15992	1996	-2144	-141	685	-160	-18380	3076	-1708	3807	-1310	-585	130	128	8
-7432	-2720	14044	-99	85	-201	-16524	2072	-1064	398	446	-130	-16096	3760	384	32	-751	600	-8484	2772	14300	-9	-129	-374	-16448	1264	-2876	-42	619	-182	-18260	1372	-2172	2725	-2264	-895	129	127	8
-7328	-2988	13924	-140	144	-153	-16636	1996	-1280	112	450	-160	-16184	3872	776	-235	-395	610	-8556	2752	14072	101	91	-235	-15940	1420	-2644	891	523	-176	-16016	188	-1012	1231	-2595	-986	129	131	8
-7548	-3208	13764	-184	152	-268	-16488	2000	-1300	-29	514	-180	-16584	3568	724	-286	72	680	-8380	2804	14240	38	11	-271	-16192	2140	-2412	590	396	-207	-16428	876	-176	1698	-1853	-1873	129	133	8
-7304	-2992	13776	-131	122	-243	-16592	1988	-848	-198	561	-199	-16864	3616	784	-762	754	991	-8556	2848	14204	56	39	-270	-16028	1676	-2300	242	444	-195	-15692	452	-1340	1137	-1207	-1946	127	127	8
-7324	-2932	14044	-159	65	-230	-16496	1896	-812	-216	597	-193	-17472	3668	360	-628	836	1453	-8408	2912	14264	102	57	-239	-15928	1804	-2144	521	431	-153	-15296	684	-856	549	-693	-1990	131	128	8
-7460	-3044	13896	-130	96	-234	-16540	1844	-976	-302	677	-252	-18188	3492	904	309	1259	1909	-8540	2996	14092	1	-19	-323	-15848	2392	-2124	80	432	-198	-15320	696	-912	308	-677	-1992	127	133	8
-7532	-3040	13856	-204	117	-227	-16704	1884	-996	45	768	-226	-17032	3964	576	65	2951	1657	-8468	3196	14320	-89	-163	-340	-15864	2324	-2208	-459	538	-351	-15648	932	-908	-1577	22	-1518	129	131	8
-7432	-3080	13848	-173	99	-190	-16368	2020	-976	-211	886	-308	-16596	4088	224	-499	3345	1458	-8452	3152	14240	-150	-253	-393	-15952	1736	-2316	-507	581	-375	-15832	148	-1000	-1912	229	-1186	133	128	8
-7392	-3136	13804	-166	100	-159	-16560	1940	-908	-660	961	-331	-14920	3488	-220	-401	3813	1592	-8536	2808	14344	-148	-103	-387	-15992	1584	-2452	-255	647	-329	-15908	-172	-628	-1370	258	-995	130	127	8
-7308	-3092	13920	-150	113	-100	-16464	1852	-1128	-976	1087	-407	-13764	3900	304	1935	2852	1317	-8608	2428	14236	-83	-167	-406	-16040	1592	-2432	-104	666	-352	-15900	-160	-608	-1012	542	-808	132	123	8
-7456	-3192	13768	3	139	-128	-16320	1128	-1568	-607	1085	-302	-13264	3316	-1808	839	2105	512	-8484	2720	14152	20	-223	-290	-15968	1488	-2152	72	704	-297	-16104	-128	-1128	-545	489	-606	134	136	8
-7556	-3020	13840	145	-11	-78	-16412	1328	-2068	346	988	-152	-15068	3824	-1508	449	1546	56	-8196	3308	14276	-88	-210	-264	-15980	1520	-2364	449	759	-294	-16200	244	-1044	10	460	-550	128	127	8
-7428	-2820	13916	131	27	-142	-16672	2396	-2172	-46	745	-142	-15288	3868	-1840	-282	1531	-40	-8608	3324	14172	-73	-70	-407	-16044	1860	-2788	402	775	-333	-16168	232	-1132	218	539	-478	129	131	8
-7352	-2872	13872	-49	66	-215	-16684	2092	-2120	-966	593	-220	-15632	3768	-1680	-336	1583	6	-8472	3012	14180	-150	83	-422	-15984	1692	-2656	325	759	-306	-16288	320	-1152	268	578	-376	129	131	8
-7360	-3024	13816	-89	149	-207	-16724	1464	-1616	-560	433	-165	-15600	3656	-1548	-377	1593	29	-8512	2712	14392	-140	27	-455	-15976	1660	-2792	184	786	-324	-16424	360	-1364	148	530	-396	126	129	8
-7240	-3200	13776	-106	83	-262	-16532	1616	-1756	-148	376	-180	-16172	3596	-928	249	1283	-76	-8068	2544	14268	-174	23	-446	-15888	1496	-2684	155	779	-308	-16108	396	-1424	-24	494	-378	129	126	8
-7356	-3200	13836	-65	152	-253	-16512	1772	-1232	92	425	-164	-15968	3700	-488	400	1097	-119	-8316	2440	14244	-86	-90	-405	-16004	1608	-2768	216	766	-329	-16128	260	-1632	-186	529	-353	131	127	8
-7400	-3032	14112	-110	70	-273	-16360	1756	-1228	312	471	-142	-16016	4008	-592	447	1004	-146	-8532	3044	14312	-79	-72	-438	-16040	1736	-2856	239	676	-362	-16148	28	-2052	-344	564	-492	127	127	8
-7448	-2876	14064	-47	25	-233	-16392	1704	-1016	240	457	-144	-16264	3812	-700	369	803	-126	-8428	2724	14284	-170	78	-490	-15992	1624	-3204	69	633	-386	-16096	92	-1724	-127	533	-339	133	125	8
-7296	-3168	13800	-58	27	-242	-16540	1560	-1420	228	654	-258	-16012	3836	-860	502	804	-240	-8480	2436	14364	-79	5	-453	-15952	1468	-3288	254	533	-341	-16176	-116	-2020	-202	611	-313	133	118	8
-7168	-3204	13912	26	48	-201	-16508	1652	-1564	330	590	-212	-15956	3740	-1228	391	805	-235	-8588	2696	14224	-80	-73	-329	-16012	1616	-3168	384	456	-375	-16192	-144	-2008	11	618	-326	126	122	8
-7520	-3024	13912	-38	41	-235	-16568	1776	-1928	173	545	-155	-15804	3828	-1368	379	870	-243	-8460	2712	14172	-26	-24	-312	-15952	1532	-3220	498	374	-365	-15892	-368	-1760	51	804	-439	130	125	8
-7404	-3120	13820	-83	52	-205	-16564	1640	-1908	149	490	-186	-15860	3804	-1696	334	976	-166	-8572	2580	14240	-6	-46	-336	-15884	1348	-3112	479	262	-380	-16032	-192	-1772	112	622	-346	125	131	8
-7496	-3172	13832	-28	120	-289	-16600	1660	-1624	225	342	-175	-16008	3776	-1916	320	1020	-198	-8456	2756	14368	64	-79	-219	-16040	1400	-2876	635	235	-317	-16228	-288	-1748	315	557	-303	124	114	8
-7492	-3176	13916	-72	106	-241	-16516	1604	-2144	125	286	-184	-15864	3652	-1704	430	1027	-175	-8540	2616	14340	56	89	-231	-15948	1488	-2908	353	270	-352	-16240	56	-1276	290	470	-258	129	126	8
-7408	-2848	13728	-92	140	-313	-16548	1568	-1736	77	232	-152	-15996	3664	-1508	572	952	-100	-8460	2640	14376	25	39	-223	-15860	1532	-2612	342	334	-317	-16220	192	-1280	307	388	-222	124	129	8
-7108	-3028	13928	-95	110	-301	-16560	1432	-1592	251	223	-129	-15948	3584	-1428	762	706	-138	-8508	2900	14236	57	-54	-271	-15884	1564	-2692	410	404	-296	-16272	56	-1188	222	250	-42	130	127	8
-7404	-3060	13840	-131	133	-324	-16436	1420	-1564	441	271	-121	-16008	3480	-1108	855	574	-150	-8572	2916	14240	-54	-138	-324	-15836	1472	-2744	353	460	-231	-16196	-132	-1264	150	116	1	130	119	8
-7332	-3160	13860	-23	131	-254	-16480	1304	-1544	704	328	-108	-16060	3544	-1100	947	446	-170	-8352	2520	14324	-28	-203	-366	-15924	1500	-2816	295	576	-261	-16120	-144	-1344	111	75	-10	130	122	8
-7136	-2968	13880	31	25	-201	-16528	1520	-1440	607	336	-139	-15944	3796	-1080	936	350	-159	-8448	2684	14232	-42	-43	-320	-15944	1356	-3156	278	573	-259	-16172	-256	-1688	388	-82	-16	129	128	8
-7464	-3048	13912	-33	103	-206	-16552	1512	-1800	527	378	-100	-15896	3804	-1140	777	288	-210	-8580	2604	14312	-47	-93	-320	-15932	1320	-2900	330	520	-288	-16084	-228	-1844	421	-122	-21	126	121	8
-7120	-3004	14024	46	72	-217	-16476	1440	-1696	449	456	-118	-16020	3804	-1348	488	324	-171	-8460	2608	14320	10	-73	-309	-15932	1384	-3188	492	504	-232	-16092	-240	-1744	534	-43	61	126	127	8
-7364	-3104	13804	47	51	-141	-16508	1448	-1788	295	464	-137	-15832	3712	-1300	423	265	-247	-8336	2356	14160	-14	-59	-291	-15924	1372	-2968	463	480	-265	-16188	-184	-1752	510	-91	10	122	126	8
-7436	-2972	13824	23	73	-139	-16504	1404	-1904	299	506	-118	-15968	3496	-1296	464	88	-202	-8468	2604	14292	89	-53	-266	-15860	1372	-2916	446	494	-236	-16176	-56	-1556	449	-187	53	124	125	8
-7064	-3064	13832	92	21	-130	-16512	1284	-1720	399	503	-103	-16152	3308	-1452	548	100	-139	-8368	2800	14188	-4	-39	-246	-15812	1396	-2880	286	505	-220	-16288	-52	-1580	196	-416	51	126	123	8
-7460	-3192	13924	174	78	-134	-16528	1228	-1968	893	474	-66	-15932	3212	-1672	944	-83	-147	-8492	2816	14244	-60	-58	-329	-15924	1480	-3124	65	552	-187	-16280	-80	-1564	243	-458	95	126	130	8
-7088	-2948	14012	170	4	-120	-16516	1288	-1980	1040	492	-39	-16084	3472	-1664	1258	-112	-151	-8680	2644	14296	-62	-64	-295	-15800	1356	-3480	-3	518	-195	-16188	-340	-1672	133	-515	176	128	126	8
-7384	-3156	13760	137	25	-195	-16576	1548	-2276	999	471	-10	-16028	3688	-1688	1387	-122	-120	-8332	2428	14248	-59	-78	-313	-15860	1176	-3312	187	520	-124	-16204	-272	-1724	261	-601	170	137	126	8
-7412	-3052	14036	138	45	-208	-16588	1428	-2160	971	403	-12	-16080	3852	-1788	1209	-79	-88	-8428	2504	14224	-81	-199	-370	-15936	1312	-3188	205	501	-128	-16280	-392	-1724	364	-696	38	132	126	8
-7404	-2980	13992	124	87	-196	-16644	1416	-2268	962	303	-30	-15800	3792	-1780	1160	-82	-92	-8540	2200	14128	-27	-119	-300	-15972	1288	-3488	160	413	-122	-16252	-256	-2008	493	-821	58	132	134	8
-7368	-2956	13852	77	129	-197	-16568	1628	-2340	606	261	-2	-15848	3788	-1788	901	12	-69	-8308	2792	14432	-63	-100	-260	-15900	1248	-3612	77	319	-127	-16160	-328	-1864	282	-721	116	125	129	8
-7316	-3064	13860	67	131	-213	-16612	1448	-2056	401	209	-32	-15728	3672	-1732	644	-19	23	-8320	2644	14376	-74	-33	-199	-15844	1148	-3456	255	238	-157	-16196	-240	-2024	416	-761	40	126	131	8
-7380	-2980	13964	84	166	-225	-16524	1440	-2080	389	188	-50	-16056	3740	-1624	584	89	-92	-8364	2612	14360	45	-152	-185	-15908	1240	-3528	197	160	-125	-16244	-348	-1852	371	-728	71	127	122	8
-7140	-2916	13876	89	145	-223	-16476	1344	-1892	383	178	-24	-16000	3680	-1564	519	40	-91	-8576	2352	14260	108	-146	-186	-15936	1248	-3500	387	160	-112	-16204	-260	-1728	473	-678	55	128	127	8
-7396	-2852	14132	67	170	-235	-16344	1228	-2012	326	236	-13	-16120	3472	-1120	522	-265	-101	-8428	2460	14280	98	-144	-139	-15920	1404	-3168	369	83	-141	-16220	-92	-1640	286	-733	89	126	125	8
-7404	-3124	13800	141	206	-270	-16456	1228	-1708	387	355	8	-15952	3384	-1212	553	-407	-113	-8448	2704	14272	46	-110	-119	-15976	1348	-3216	112	83	-76	-16220	-116	-1524	205	-674	101	130	123	8
-7488	-3040	13852	132	190	-227	-16368	1352	-1668	411	527	4	-16040	3568	-588	575	-556	-166	-8448	2616	14352	41	-69	-125	-15880	1320	-3368	65	52	-91	-16404	-128	-1392	82	-943	70	131	131	8
-7208	-3036	13940	191	161	-210	-16416	1300	-1476	305	684	31	-16024	3568	-564	539	-738	-120	-8344	2444	14360	40	-202	-126	-15896	1180	-3248	164	66	-119	-16252	-264	-1256	149	-992	76	124	125	8
-7264	-3052	13868	307	161	-133	-16484	1124	-1660	619	808	31	-16424	3428	-912	423	-795	-166	-8428	2328	14116	118	-71	-118	-15828	1188	-3144	318	114	-31	-16288	-264	-828	121	-991	72	125	121	8
-7188	-2996	13928	333	140	-86	-16524	1280	-2184	718	837	47	-15840	3340	-1252	135	-607	-298	-8228	2708	14412	150	-140	-125	-15884	1440	-2948	341	188	-39	-16108	-144	-1016	385	-1035	110	129	131	8
-7228	-2728	13992	326	83	-40	-16604	1144	-2408	898	714	81	-15960	3412	-1920	40	-492	-195	-8444	2592	14376	127	-8	-133	-15892	1468	-3064	215	231	-31	-16364	-124	-1084	391	-1038	156	123	128	8
-7480	-2948	13812	318	50	-35	-16640	1428	-2808	538	598	101	-15812	3304	-2052	141	-260	-193	-8296	2564	14200	113	121	-224	-15864	1392	-3320	287	224	-34	-16148	-188	-1036	452	-958	239	122	127	8
-7352	-2744	13964	243	70	-111	-16596	1484	-2840	354	393	87	-15864	3476	-2260	406	-178	-73	-8472	2500	14196	95	-60	-235	-15900	1252	-3272	497	232	4	-16192	-316	-1060	569	-967	270	125	124	8
-7216	-2784	13876	187	142	-150	-16552	1420	-2868	270	283	111	-15872	3576	-2036	576	-125	-37	-8432	2556	14380	121	-120	-200	-15888	1124	-3272	663	230	11	-16416	-388	-1008	722	-996	233	125	127	8
-7172	-2672	13908	95	96	-127	-16568	1368	-2560	423	138	106	-15824	3588	-1800	643	-121	32	-8444	2688	14336	175	-88	-204	-15932	1240	-3396	582	256	19	-16208	-136	-984	623	-987	209	125	124	8
-7248	-2764	14020	58	108	-208	-16488	1440	-2380	467	21	100	-15896	3560	-1616	759	-102	46	-8280	2504	14276	152	134	-137	-15860	1444	-3308	368	286	32	-16104	-36	-1084	405	-991	305	124	129	8
-7272	-2728	13940	-36	149	-286	-16416	1400	-2240	501	46	97	-15932	3676	-1280	715	-148	1	-8560	2540	14452	152	124	-99	-15764	1264	-3552	-30	349	-21	-16120	24	-944	134	-927	216	123	129	8
-7248	-2864	14008	-41	204	-222	-16464	1348	-2036	456	45	89	-16076	3688	-1272	661	-187	-21	-8352	2376	14288	196	78	-173	-15808	1180	-3420	37	300	-4	-16168	-328	-848	-19	-911	168	124	129	8
-7324	-2852	14036	-48	197	-180	-16504	1344	-2260	354	24	60	-15908	3704	-1336	508	-208	-78	-8556	2384	14368	316	-9	-105	-15884	1256	-3364	645	335	18	-16304	44	-796	115	-958	102	127	131	8
-7420	-2640	13852	-25	152	-188	-16444	1400	-2252	303	23	33	-15972	3796	-1476	405	-286	-101	-8344	2636	14176	167	-81	-136	-16000	1768	-3128	243	349	-72	-16380	328	-832	72	-883	127	127	131	8
-7332	-2560	13968	-112	172	-143	-16504	1452	-2400	58	70	4	-16016	3896	-1400	39	-182	-166	-8568	2868	14284	204	-42	-167	-15824	1628	-3384	-170	367	-149	-16276	488	-1024	-61	-852	111	125	129	8
-7260	-2728	14084	-139	96	-155	-16528	1412	-2300	-105	-44	-24	-15884	3868	-1464	-259	-83	-125	-8636	2468	14200	120	19	-223	-15884	1640	-3332	-56	340	-117	-16248	404	-896	-78	-753	87	126	130	8
-7304	-2596	14028	-150	146	-215	-16384	1400	-2428	-329	-26	-35	-16076	3640	-1488	-240	-115	-149	-8684	2404	14232	-80	-60	-321	-15920	1512	-3596	-160	261	-206	-16244	116	-1176	-202	-644	91	119	127	8
-7328	-2768	14048	-121	161	-188	-16496	1240	-2332	-197	-66	-32	-16048	3500	-1624	-237	-62	-162	-8352	2608	14388	-41	-168	-261	-15792	1284	-4124	-197	216	-214	-16244	64	-1260	-260	-616	64	124	130	8
-7348	-2736	14020	-162	149	-206	-16464	1356	-2364	-122	-98	-38	-15908	3404	-1384	-89	-75	-164	-8496	2596	14436	-118	-68	-236	-15796	1232	-3736	-149	164	-300	-16252	-68	-940	-300	-419	90	122	128	8
-7304	-2768	13924	-184	136	-272	-16436	1296	-2240	-108	-101	-64	-15992	3380	-1232	70	-108	-177	-8544	2428	14388	-86	-104	-198	-16032	1236	-3608	-329	91	-285	-16356	-168	-880	-493	-290	72	119	127	8
-7300	-2836	13896	-176	94	-266	-16468	1248	-2108	37	-76	-52	-16016	3484	-932	260	-119	-184	-8464	2476	14448	-65	81	-205	-15812	1292	-3620	-435	65	-280	-16384	-164	-1008	-439	-271	48	127	125	8
-7320	-2780	14000	-147	114	-280	-16392	1236	-2024	123	-46	-64	-16016	3440	-908	216	-128	-158	-8500	2428	14324	-39	-26	-200	-15776	1192	-3492	-410	48	-268	-16248	-220	-820	-453	-192	47	126	123	8
-7268	-2804	13980	-135	106	-242	-16436	1128	-2052	148	59	-35	-16032	3260	-752	171	-193	-165	-8448	2480	14276	-24	-98	-188	-15908	1184	-3524	-250	49	-258	-16472	-224	-640	-500	-242	47	123	134	8
-7404	-3012	13908	-13	111	-202	-16356	1232	-1816	145	143	-23	-16004	3252	-460	224	-245	-196	-8452	2456	14348	-6	-10	-196	-15852	1264	-3480	-240	-4	-253	-16312	-316	-740	-282	-233	41	127	123	8
-7428	-2828	14044	-18	128	-179	-16360	1200	-1792	184	313	-6	-16064	3240	-472	317	-440	-193	-8440	2452	14308	-22	-62	-249	-15844	1192	-3476	-164	38	-196	-16336	-320	-720	-115	-316	45	128	127	8
-7240	-2668	14104	32	66	-145	-16384	1032	-1420	349	432	0	-15916	2972	-812	375	-668	-167	-8468	2416	14344	-6	-37	-225	-15776	1116	-3388	20	51	-152	-16260	-396	-576	-36	-387	58	124	129	8
-7348	-2896	13896	200	23	-46	-16460	1072	-2056	594	491	-11	-16164	3228	-848	327	-620	-263	-8404	2328	14324	41	-72	-222	-15784	1152	-3224	109	105	-144	-16284	-308	-480	61	-380	77	125	123	8
-7220	-2892	14068	190	-32	-64	-16468	1116	-2144	582	577	30	-15756	3192	-1104	275	-742	-212	-8476	2204	14404	21	-176	-245	-15760	1104	-3268	71	130	-130	-16420	-340	-396	34	-520	87	125	126	8
-7388	-2836	13992	201	32	-1	-16592	1264	-2608	611	553	29	-16140	3396	-1516	137	-417	-231	-8344	2384	14304	101	-141	-225	-15784	1104	-3120	206	208	-113	-16420	-256	-392	190	-705	74	125	125	8
-7144	-2640	13888	209	4	-52	-16564	1240	-2672	494	462	14	-16004	3308	-1640	169	-292	-217	-8396	2480	14452	51	140	-292	-15776	1144	-3244	132	217	-89	-16672	-104	-368	-58	-954	18	127	125	8
-7244	-2588	13916	169	53	-81	-16596	1304	-2672	416	359	72	-15740	3468	-1708	340	-294	-212	-8344	2360	14316	110	152	-215	-15768	1196	-3328	189	304	-42	-16332	-156	-492	-15	-1055	72	127	124	8
-7352	-2612	13928	95	34	-127	-16560	1288	-2668	424	236	8	-16080	3528	-1836	404	-315	-108	-8352	2416	14380	108	-66	-232	-15732	1256	-3340	88	333	-70	-16152	-120	-324	-482	-1021	81	126	121	8
-7340	-2656	13916	83	78	-139	-16596	1304	-2800	420	159	55	-15968	3312	-1620	366	-229	-112	-8580	2444	14396	93	-6	-229	-15808	1192	-3368	-23	428	-75	-16352	-40	-572	-644	-1165	21	120	126	8
-7240	-2776	14008	10	66	-156	-16476	1272	-2772	369	87	66	-15912	3492	-1440	311	-325	-141	-8532	2356	14200	93	83	-260	-15792	1148	-3364	24	475	-61	-16156	-44	-224	-842	-1198	89	122	124	8
-7208	-2744	13956	-14	122	-168	-16512	1216	-2604	293	-21	96	-16100	3412	-1432	155	-61	-130	-8588	2592	14308	80	-46	-216	-15764	1308	-3432	-18	609	-25	-16220	-68	-140	-1080	-1299	116	123	126	8
-7296	-2692	13996	-36	102	-164	-16472	1280	-2540	181	-81	53	-15952	3524	-1400	172	-169	-119	-8412	2672	14388	-50	-76	-301	-15792	1480	-3628	-202	630	-64	-16144	-124	-280	-715	-1270	142	119	121	8
-7340	-2624	14028	-35	132	-210	-16468	1216	-2580	59	-81	6	-16008	3484	-1340	166	-164	-104	-8528	2480	14400	-104	-84	-386	-15844	1460	-3936	-510	649	-81	-16236	-376	-780	-364	-993	179	124	119	8
-7256	-2652	14132	-110	187	-200	-16540	1196	-2368	8	-147	39	-16092	3424	-1276	25	-134	-68	-8348	2304	14380	-101	-45	-361	-15916	888	-4140	-264	438	-57	-16232	-380	-1080	-291	-731	184	118	123	8
-7328	-2652	13980	-91	166	-200	-16476	1188	-2440	-35	-128	56	-15956	3444	-1004	-70	-107	-90	-8644	2404	14464	-92	-68	-220	-15888	996	-4396	154	315	-75	-16272	-504	-1008	-139	-686	108	123	120	8
-7340	-2792	13944	-94	131	-194	-16460	1184	-2320	-82	-89	30	-16036	3400	-1020	-174	-60	-111	-8452	2184	14300	-8	-112	-250	-15848	1092	-4064	206	154	-57	-16256	-260	-928	-156	-449	77	120	120	8
-7288	-2736	13944	-102	157	-178	-16488	1164	-2400	-120	-79	46	-16056	3380	-1120	-158	-124	-112	-8556	2296	14256	25	-49	-160	-15848	1240	-4100	-100	41	-130	-16288	-228	-768	-236	-263	66	122	120	8
-7300	-2700	13984	-77	170	-209	-16480	1232	-2500	-132	-89	31	-16000	3312	-968	-115	-172	-114	-8356	2264	14344	48	11	-117	-15816	1144	-4004	-149	-62	-126	-16240	-220	-732	-359	-133	75	122	125	8
-7260	-2776	14024	-123	156	-211	-16448	1076	-2372	-79	-131	65	-16120	3256	-960	-106	-118	-63	-8436	2400	14416	106	17	-76	-15868	1300	-3892	-157	-162	-106	-16388	-224	-656	-333	-32	37	118	120	8
-7252	-2676	14032	-73	142	-198	-16464	1124	-2560	-58	-103	50	-16076	3160	-972	-85	-63	-61	-8436	2336	14396	108	39	-99	-15676	1180	-3712	-207	-175	-140	-16304	-176	-488	-412	-65	67	124	125	8
-7328	-2712	14040	-103	142	-211	-16488	1072	-2528	-12	-109	73	-15980	3196	-1096	9	-57	-53	-8380	2412	14456	112	33	-97	-15792	1168	-3680	-113	-185	-150	-16252	-416	-316	-280	-54	100	123	120	8
-7288	-2664	13932	-85	146	-199	-16484	1072	-2428	55	-132	104	-16084	3124	-1016	248	-62	-23	-8388	2356	14460	151	5	-104	-15768	1088	-3500	15	-168	-136	-16400	-292	-232	-23	-119	126	117	122	8
-7236	-2764	14028	-41	162	-244	-16508	1108	-2480	189	-129	111	-16076	3212	-836	407	-80	-16	-8388	2436	14368	112	-2	-128	-15764	1108	-3624	104	-137	-95	-16304	-364	-44	290	-89	125	124	116	8
-7284	-2800	14044	-52	125	-207	-16404	1076	-2232	271	-78	147	-16092	3120	-816	464	-90	30	-8476	2356	14288	173	-22	-93	-15748	1256	-3596	173	-169	-61	-16304	-332	-296	432	-78	176	122	122	8
-7264	-2748	13956	-20	116	-241	-16496	1112	-2316	342	-81	103	-16032	3232	-784	557	-76	20	-8452	2364	14324	118	-52	-169	-15768	1152	-3724	146	-123	-46	-16228	-296	-120	552	-71	226	120	124	8
-7264	-2748	13980	5	71	-202	-16444	1156	-2368	319	-17	138	-16080	3200	-824	582	-11	50	-8428	2400	14292	123	-44	-143	-15772	1160	-3568	383	-81	-53	-16328	-260	-144	701	-56	150	120	126	8
-7264	-2692	14052	4	107	-162	-16452	1000	-2240	381	-5	153	-16056	3344	-928	488	64	27	-8352	2448	14296	128	-64	-177	-15840	1236	-3424	326	-114	16	-16352	-104	-176	550	-93	138	121	126	8
-7216	-2760	14000	14	55	-169	-16400	1172	-2388	421	19	98	-15976	3296	-872	522	25	8	-8400	2468	14288	145	-17	-165	-15824	1292	-3660	178	-61	-35	-16340	-116	-296	410	-113	205	121	122	8
-7220	-2676	13984	34	69	-173	-16444	1172	-2388	436	43	179	-16072	3320	-888	616	-26	14	-8464	2376	14292	111	-32	-206	-15712	1248	-3696	17	2	-46	-16340	-136	-404	258	-187	196	120	123	8
-7232	-2604	14076	18	100	-152	-16496	1232	-2368	363	45	175	-15964	3324	-1104	545	4	29	-8424	2388	14316	135	-29	-176	-15792	1080	-3724	64	-36	-47	-16212	-176	-128	162	-92	205	119	123	8
-7228	-2672	13996	19	102	-177	-16520	1204	-2476	306	30	91	-16040	3408	-1140	504	56	16	-8328	2396	14420	113	-63	-149	-15816	1280	-3604	89	-27	-27	-16348	-152	-232	283	-52	164	122	125	8
-7208	-2788	14068	-48	101	-163	-16424	1136	-2316	385	20	135	-16076	3308	-1148	355	8	24	-8408	2444	14308	111	-37	-208	-15832	1208	-3560	-32	-46	-62	-16364	-184	-208	239	-60	121	123	124	8
-7264	-2640	14016	-36	108	-192	-16500	1168	-2568	209	55	147	-16036	3368	-1232	369	-2	19	-8424	2380	14248	125	-79	-212	-15752	1124	-3672	42	-17	-56	-16380	-180	-272	202	-68	161	125	124	8
-7248	-2692	13972	-70	112	-180	-16520	1100	-2524	167	18	151	-15988	3376	-1228	311	-27	14	-8396	2372	14316	107	-66	-160	-15796	1196	-3604	93	5	-56	-16324	-212	-184	60	-89	153	127	127	8
-7212	-2664	13928	-107	122	-183	-16440	1256	-2524	81	-27	150	-16036	3332	-1068	226	-10	31	-8376	2396	14416	95	-8	-179	-15844	1224	-3624	62	5	-58	-16324	-272	-228	59	-124	172	127	124	8
-7268	-2568	14052	-107	129	-204	-16392	1108	-2516	62	-31	121	-16024	3360	-1036	243	29	56	-8480	2428	14352	133	-78	-179	-15824	1180	-3556	-77	60	-48	-16260	-240	-280	93	-90	155	127	130	8
-7264	-2696	14012	-142	92	-172	-16424	1124	-2352	167	-21	135	-16036	3276	-912	267	-30	43	-8484	2356	14440	70	-60	-175	-15820	1312	-3676	-76	21	-41	-16288	-184	-316	198	-74	171	130	127	8
-7320	-2632	14052	-89	111	-211	-16420	1132	-2376	129	26	176	-16088	3268	-920	279	-102	29	-8456	2420	14264	101	-79	-164	-15736	1216	-3736	-7	89	-40	-16392	-200	-376	51	-55	210	127	128	8
-7232	-2716	14004	-111	103	-177	-16428	1116	-2324	133	21	131	-16060	3256	-744	271	-77	20	-8420	2408	14420	104	-32	-216	-15868	1172	-3524	-41	34	-25	-16312	-184	-360	79	-53	189	130	126	8
-7252	-2708	13976	-85	67	-162	-16384	1072	-2304	48	73	168	-16076	3288	-800	300	-24	30	-8396	2348	14312	123	-59	-160	-15816	1156	-3796	-11	60	-39	-16288	-216	-384	88	-107	230	131	130	8
-7252	-2700	13964	-82	114	-165	-16480	1040	-2356	169	117	186	-16056	3260	-944	201	-69	-20	-8480	2384	14320	142	-101	-186	-15824	1168	-3704	-67	70	-65	-16288	-272	-200	83	-50	219	131	129	8
-7304	-2660	14008	-43	57	-177	-16396	1280	-2300	126	170	171	-16072	3244	-872	122	-104	3	-8416	2388	14328	106	-85	-159	-15748	1200	-3640	-87	84	3	-16348	-184	-376	139	-95	233	131	130	8
-7196	-2976	13880	-62	91	-195	-16476	1096	-2520	196	172	174	-16104	3288	-1056	119	-70	42	-8400	2376	14344	83	-67	-224	-15848	1228	-3836	46	41	7	-16276	-296	-324	174	-50	240	133	133	8
-7140	-2836	13912	-63	88	-124	-16472	1128	-2524	172	145	153	-16024	3208	-1148	164	-101	59	-8500	2356	14364	152	-42	-196	-15752	1108	-3736	70	79	33	-16232	-268	-396	233	-116	224	133	131	8
-7168	-2744	13984	-21	81	-168	-16532	1104	-2668	178	168	153	-16020	3200	-1208	205	-52	53	-8316	2448	14236	165	-52	-157	-15804	1176	-3632	95	54	21	-16284	-108	-416	253	-77	215	133	132	8
-7272	-2700	13900	-50	72	-183	-16456	1188	-2620	147	125	171	-16012	3132	-1336	199	-41	22	-8412	2464	14408	143	-34	-195	-15804	1420	-3664	31	129	15	-16216	-108	-408	191	-79	209	136	131	8
-7164	-2552	14080	-88	94	-151	-16492	1156	-2444	183	112	162	-16052	3308	-1076	369	-91	61	-8476	2412	14356	118	-50	-188	-15732	1260	-3772	-117	105	6	-16288	-60	-156	115	-59	271	134	131	8
-7148	-2672	13968	-99	95	-165	-16388	1112	-2360	195	76	177	-16068	3392	-1032	263	-46	50	-8412	2448	14328	119	45	-171	-15696	1220	-3740	-153	103	-4	-16280	-176	-480	174	10	219	134	135	8
-7296	-2688	13980	-72	148	-137	-16472	1196	-2452	152	64	198	-16024	3352	-1200	231	26	32	-8576	2464	14356	86	-35	-194	-15792	1196	-3620	10	82	3	-16344	-136	-392	45	9	232	134	133	8
-7264	-2544	14040	-58	158	-142	-16428	1316	-2512	12	-3	157	-16028	3392	-1084	227	-92	31	-8472	2472	14380	141	-73	-209	-15864	1224	-3720	-106	21	21	-16288	-132	-492	-10	-28	178	132	134	8
-7228	-2576	14056	-87	99	-128	-16448	1100	-2632	-58	42	149	-16044	3300	-1216	110	31	95	-8380	2372	14260	178	-43	-204	-15784	1208	-3784	-93	46	-12	-16280	-56	-664	-58	-77	173	136	131	8
-7316	-2628	14048	-115	141	-179	-16504	1140	-2604	-102	-14	165	-16104	3376	-1088	-68	92	44	-8436	2404	14512	140	-35	-209	-15840	1244	-3760	-68	18	-28	-16284	-120	-464	-122	-97	186	133	130	8
-7264	-2544	13984	-116	165	-176	-16496	1180	-2552	-52	6	136	-16032	3304	-1308	-80	39	9	-8404	2368	14320	151	-76	-167	-15820	1244	-3744	-68	8	-16	-16300	-120	-344	-121	-12	166	134	134	8
-7184	-2680	14120	-123	128	-228	-16532	1124	-2648	-148	-33	141	-16004	3248	-1156	-71	22	30	-8496	2360	14412	137	-36	-178	-15752	1228	-3748	-151	-19	-61	-16284	-308	-380	-148	32	184	135	130	8
-7300	-2748	14032	-133	143	-192	-16472	1048	-2552	-45	-80	161	-16044	3328	-968	77	2	66	-8428	2388	14448	139	-50	-143	-15760	1176	-3760	-129	-30	-6	-16296	-288	-412	-56	24	173	133	132	8
-7220	-2640	13960	-98	128	-215	-16428	1120	-2492	-39	-69	163	-16044	3296	-1004	136	23	84	-8400	2428	14376	176	-40	-129	-15840	1208	-3796	-31	-34	-19	-16256	-280	-420	-99	-18	185	134	132	8
-7264	-2660	13972	-114	125	-187	-16432	1216	-2464	6	-61	160	-16036	3324	-1012	153	-15	103	-8484	2368	14336	171	-44	-137	-15724	1348	-3764	-23	-19	1	-16284	-116	-368	78	-8	145	133	130	8
-7256	-2720	14000	-115	111	-209	-16476	1152	-2384	-23	-40	157	-15992	3352	-932	163	-32	40	-8484	2424	14472	176	9	-195	-15808	1360	-3776	-92	-24	-19	-16312	-144	-488	-31	-48	214	134	126	8
-7276	-2692	13968	-84	118	-198	-16440	1172	-2500	-36	-36	148	-16024	3372	-1004	62	26	72	-8404	2412	14332	159	-52	-154	-15812	1172	-3764	-52	-27	5	-16304	-184	-528	3	-19	208	136	129	8
-7236	-2664	14008	-98	139	-157	-16456	1168	-2508	34	-29	138	-16040	3380	-1124	-10	105	69	-8396	2368	14300	166	-45	-140	-15828	1216	-3740	34	-24	1	-16296	-256	-544	72	-61	189	131	127	8
-7288	-2716	13968	-112	141	-193	-16464	1204	-2576	-64	-38	164	-16028	3296	-1056	43	28	45	-8468	2408	14336	147	1	-167	-15812	1248	-3720	16	-48	8	-16272	-216	-500	56	-91	202	130	123	8
-7248	-2668	14004	-87	154	-187	-16436	1196	-2612	-55	-33	165	-16096	3360	-1052	170	-10	51	-8440	2516	14444	147	-2	-164	-15784	1364	-3744	10	-32	2	-16348	-144	-436	105	-87	187	130	129	8
-7224	-2676	13968	-97	175	-189	-16452	1204	-2444	24	-74	143	-16092	3384	-1132	95	23	80	-8420	2440	14480	154	-21	-152	-15808	1292	-3724	-62	-48	-6	-16304	-172	-520	105	-44	177	128	121	8
-7284	-2668	13876	-91	164	-185	-16492	1268	-2512	87	-62	163	-16036	3360	-1044	155	-16	44	-8464	2400	14292	169	-34	-137	-15712	1088	-3720	-21	-52	-1	-16336	-108	-336	-69	-101	204	131	123	8
-7176	-2592	13992	-133	128	-204	-16452	1248	-2564	-6	-99	146	-16080	3312	-1148	118	113	61	-8416	2480	14368	162	-24	-143	-15764	1224	-3700	115	-62	19	-16304	-128	-384	169	-32	139	125	123	8
-7316	-2752	13960	-129	144	-202	-16428	1244	-2680	10	-116	179	-16012	3260	-1200	146	94	62	-8496	2452	14352	127	-10	-153	-15732	1436	-3724	10	-68	-4	-16272	-132	-428	117	-39	147	128	122	8
-7228	-2660	13976	-120	139	-206	-16420	1260	-2532	32	-157	170	-16036	3432	-992	116	84	45	-8436	2488	14356	170	-48	-155	-15748	1332	-3796	-20	-19	-74	-16308	12	-516	172	-34	172	129	123	8
-7188	-2712	13948	-112	163	-218	-16432	1248	-2592	-31	-126	135	-16100	3460	-1016	152	74	38	-8404	2428	14336	126	-23	-137	-15808	1320	-3836	-29	-114	-63	-16240	-128	-320	-23	-42	166	131	121	8
-7244	-2704	13988	-159	163	-184	-16408	1208	-2428	3	-132	114	-16020	3340	-932	170	-1	25	-8416	2404	14360	98	8	-163	-15792	1288	-3712	6	-50	-10	-16272	-140	-496	5	-28	140	127	121	8
-7252	-2716	13976	-134	122	-198	-16472	1132	-2452	9	-100	165	-16008	3364	-900	117	-24	0	-8460	2424	14296	136	-27	-136	-15772	1308	-3760	56	-46	-60	-16232	-80	-384	143	24	156	125	121	8
-7240	-2744	14060	-124	130	-199	-16468	1216	-2396	-25	-109	125	-16048	3516	-992	140	30	19	-8388	2432	14248	143	-40	-180	-15780	1416	-3744	-7	-52	-46	-16296	-8	-436	105	97	182	126	118	8
-7328	-2660	14016	-157	137	-211	-16444	1212	-2460	3	-117	106	-15944	3452	-1044	30	18	-1	-8376	2448	14324	125	9	-159	-15800	1308	-3836	-205	-84	-88	-16252	-92	-368	-9	109	165	125	120	8
-7292	-2632	13940	-128	159	-190	-16388	1276	-2468	-98	-82	123	-16032	3348	-916	48	34	-15	-8452	2416	14360	113	-16	-126	-15852	1304	-3656	-181	-56	-91	-16272	-168	-240	-51	64	157	127	121	8
-7216	-2652	14060	-145	128	-215	-16468	1124	-2444	-23	-48	129	-16008	3324	-852	54	-32	-10	-8484	2300	14388	82	-11	-176	-15692	1296	-3684	-195	-11	-120	-16184	-188	-364	-3	105	191	127	121	8
-7180	-2640	13972	-169	155	-236	-16440	1208	-2444	5	-23	76	-16004	3300	-848	108	-48	-3	-8464	2376	14336	83	-15	-161	-15792	1264	-3544	-186	40	-160	-16228	-136	-320	70	147	263	125	120	8
-7224	-2672	13948	-192	122	-217	-16440	1080	-2396	-2	16	81	-16080	3304	-976	59	11	-8	-8364	2384	14300	96	-75	-124	-15752	1300	-3576	-169	39	-110	-16220	-180	-236	51	253	302	124	117	8
-7248	-2640	13968	-106	126	-202	-16428	1096	-2496	28	5	84	-16112	3256	-964	-13	57	-22	-8420	2476	14340	20	-82	-205	-15788	1320	-3372	-273	129	-110	-16332	-180	-284	144	256	286	122	121	8
-7264	-2620	13968	-133	93	-191	-16432	1160	-2320	-25	37	126	-16080	3280	-944	30	-25	-8	-8412	2480	14328	29	-29	-211	-15756	1176	-3624	-138	157	-45	-16348	-252	-392	297	186	321	126	128	8
-7288	-2724	13976	-73	128	-215	-16408	1120	-2332	68	63	137	-16052	3276	-988	48	-17	29	-8424	2464	14320	59	-69	-194	-15820	1172	-3732	-132	106	-40	-16432	-352	-544	243	72	224	127	119	8
-7236	-2652	13992	-108	89	-172	-16464	1160	-2456	18	51	140	-16088	3336	-1176	82	-25	17	-8396	2320	14376	115	-80	-234	-15744	1004	-3736	-30	132	-52	-16356	-280	-732	104	-91	196	123	121	8
-7208	-2700	14048	-89	108	-160	-16528	1152	-2520	39	58	149	-16004	3296	-1108	65	9	0	-8504	2352	14360	125	22	-210	-15864	1208	-3928	97	72	-14	-16236	-348	-628	142	-23	205	123	121	8
-7188	-2708	13984	-131	123	-177	-16448	1196	-2508	64	64	127	-16036	3344	-1212	133	23	13	-8360	2388	14264	159	13	-209	-15792	1240	-3988	34	52	4	-16312	-272	-692	111	-9	197	128	122	8
-7216	-2676	14008	-134	94	-169	-16472	1240	-2524	31	-23	161	-15992	3284	-992	164	41	29	-8452	2460	14308	171	-9	-185	-15784	1216	-3796	73	16	15	-16240	-76	-720	164	17	198	125	125	8
-7264	-2640	13936	-109	136	-206	-16508	1152	-2424	102	-5	174	-16088	3308	-1188	176	68	58	-8444	2412	14252	176	-8	-174	-15776	1264	-3848	75	-11	48	-16320	-80	-756	133	-60	155	124	123	8
-7236	-2644	14048	-133	106	-174	-16496	1164	-2432	69	5	171	-16000	3264	-1056	300	44	56	-8432	2452	14336	158	-7	-137	-15760	1380	-3684	15	-55	-22	-16284	-64	-524	-31	-40	209	123	123	8
-7216	-2680	14100	-108	142	-214	-16500	1072	-2416	126	7	191	-16076	3344	-1152	371	15	83	-8492	2400	14300	185	-71	-122	-15784	1336	-3684	-37	-42	-23	-16316	-224	-520	-45	-57	187	123	121	8
-7248	-2688	13936	-79	93	-203	-16472	1112	-2452	161	-21	163	-16028	3364	-1068	338	-12	77	-8432	2492	14292	161	-8	-172	-15744	1256	-3532	-54	-43	14	-16320	-248	-492	-19	-30	130	124	118	8
-7292	-2712	14028	-49	108	-199	-16492	1276	-2528	168	-24	176	-16044	3536	-1012	186	42	46	-8388	2416	14368	178	37	-175	-15812	1264	-3668	2	-8	10	-16324	-228	-452	-37	-70	178	124	120	8
-7232	-2556	14072	-62	111	-157	-16448	1336	-2560	1	-4	153	-15948	3408	-1152	140	45	31	-8476	2408	14316	132	15	-121	-15764	1360	-3696	87	-30	-21	-16252	-12	-492	126	-86	177	124	124	8
-7244	-2596	14108	-87	123	-208	-16480	1168	-2476	-67	-42	147	-16052	3344	-1132	172	58	59	-8496	2488	14308	148	-24	-179	-15788	1376	-3820	19	-16	5	-16288	-52	-584	118	-103	166	125	122	8
-7188	-2652	14056	-88	136	-205	-16440	1148	-2344	29	-26	129	-16076	3448	-1084	194	12	51	-8424	2384	14340	133	-49	-181	-15824	1244	-3740	92	-25	-21	-16272	-16	-616	171	-2	187	125	121	8
-7176	-2688	13968	-66	155	-187	-16444	1172	-2500	89	-21	170	-16028	3372	-1024	146	-27	49	-8476	2420	14324	158	-68	-184	-15748	1276	-3880	56	-45	-23	-16300	-164	-484	34	-82	191	123	118	8
-7208	-2640	14096	-71	115	-217	-16444	1236	-2460	53	-12	124	-16024	3376	-1032	95	-42	36	-8420	2536	14356	121	-52	-164	-15772	1348	-3796	20	-60	-44	-16268	-60	-600	-5	-61	148	125	130	8
-7220	-2688	14000	-123	152	-207	-16432	1288	-2576	77	11	157	-16028	3428	-1048	236	7	36	-8376	2420	14284	171	22	-156	-15800	1336	-3760	-73	-61	-59	-16324	-96	-684	26	-106	152	126	120	8
-7224	-2656	14064	-87	144	-171	-16460	1200	-2488	85	5	118	-16008	3404	-1132	234	-71	30	-8448	2460	14312	121	-29	-120	-15760	1240	-3856	87	-34	-13	-16256	44	-488	65	-48	162	125	125	8
-7272	-2648	14004	-96	157	-173	-16412	1200	-2716	87	-8	142	-16008	3364	-1100	207	-25	38	-8468	2528	14260	100	-25	-130	-15760	1384	-3752	44	-39	-26	-16252	-76	-496	72	-23	140	127	128	8
-7292	-2692	13956	-98	170	-235	-16496	1172	-2504	35	-69	101	-16056	3396	-1028	263	-33	33	-8400	2476	14408	126	-54	-143	-15820	1320	-3736	-53	-17	-66	-16308	-52	-408	21	-82	144	123	123	8
-7176	-2656	14016	-90	142	-226	-16468	1172	-2504	85	-29	113	-16016	3376	-1016	249	-41	7	-8448	2524	14352	96	-43	-206	-15756	1324	-3752	-12	13	-76	-16304	-72	-516	-14	-108	188	127	127	8
-7244	-2660	14020	-121	116	-189	-16480	1252	-2548	157	-42	116	-16024	3312	-960	218	-1	5	-8472	2532	14256	91	-35	-211	-15884	1388	-3812	-132	-9	-104	-16336	4	-564	116	-157	140	127	122	8
-7156	-2704	14044	-86	134	-226	-16444	1160	-2432	136	-9	105	-16028	3500	-1016	147	7	-9	-8440	2364	14240	86	-59	-143	-15784	1120	-3820	-2	6	-50	-16252	-60	-624	-29	-102	162	125	125	8
-7260	-2676	14060	-96	168	-193	-16448	1264	-2540	51	-11	85	-16000	3344	-1080	22	28	-2	-8436	2412	14336	88	-71	-164	-15832	1396	-3736	-6	8	-89	-16304	-164	-496	-9	-77	127	124	128	8
-7212	-2708	13980	-68	147	-224	-16452	1264	-2384	-97	5	96	-16056	3260	-1192	72	-16	21	-8440	2456	14284	103	-24	-158	-15768	1324	-3676	-67	19	-69	-16368	-160	-584	-36	-69	121	123	120	8
-7248	-2652	14060	-105	153	-205	-16456	1140	-2416	32	-10	118	-16064	3352	-984	195	-9	-12	-8472	2416	14212	86	-47	-194	-15752	1296	-3756	-40	13	-81	-16272	-232	-516	41	-89	135	126	124	8
-7288	-2660	13900	-91	140	-192	-16484	1236	-2480	87	20	110	-16028	3404	-1068	232	-22	-16	-8492	2428	14396	113	-44	-231	-15772	1276	-3888	101	-4	-8	-16252	-28	-624	113	-48	135	126	125	8
-7232	-2632	13928	-109	131	-188	-16468	1240	-2440	109	-44	147	-16060	3484	-988	199	-17	7	-8476	2412	14388	131	-60	-166	-15796	1228	-3628	17	-38	-68	-16336	-160	-516	9	-15	193	127	123	8
-7196	-2692	14116	-148	119	-181	-16444	1216	-2372	39	-14	114	-15948	3348	-1100	229	29	-6	-8424	2436	14444	99	-57	-124	-15800	1304	-3616	-28	13	-104	-16316	-64	-400	-73	-45	168	126	123	8
-7260	-2780	13952	-97	133	-195	-16456	1128	-2512	55	16	107	-16056	3340	-864	183	58	3	-8448	2456	14296	78	-6	-140	-15808	1340	-3556	-92	27	-83	-16296	-84	-612	34	-75	118	125	125	8
-7216	-2728	13960	-117	142	-219	-16424	1180	-2432	131	-12	122	-16036	3304	-976	201	46	-24	-8476	2536	14308	98	-34	-162	-15772	1368	-3712	-69	12	-17	-16232	-108	-588	26	-68	174	121	125	8
-7224	-2692	14040	-94	125	-181	-16452	1220	-2384	183	30	123	-15984	3352	-1008	274	22	-21	-8380	2484	14252	105	-31	-207	-15784	1284	-3744	-61	-9	-66	-16252	-208	-632	-8	-74	170	127	128	8
-7184	-2692	14000	-103	153	-199	-16448	1236	-2472	125	35	88	-16004	3420	-1140	244	-16	5	-8368	2420	14368	98	7	-207	-15708	1212	-3780	88	38	-76	-16292	-216	-684	206	-66	134	127	126	8
-7228	-2628	13948	-89	129	-209	-16508	1188	-2568	104	21	93	-15984	3420	-1068	184	9	-25	-8448	2404	14264	110	-8	-171	-15828	1272	-3836	119	-24	-79	-16292	-272	-676	225	-56	159	128	129	8
-7176	-2724	13952	-119	153	-222	-16424	1252	-2400	60	3	112	-16132	3324	-1236	171	54	12	-8416	2340	14368	126	-14	-154	-15828	1232	-3872	158	-48	-22	-16284	-144	-768	320	-16	110	125	125	8
-7224	-2748	14036	-140	126	-225	-16492	1192	-2632	112	-54	90	-16036	3280	-1252	228	38	-20	-8440	2440	14276	180	76	-145	-15752	1352	-3860	159	-96	-73	-16256	-4	-612	221	25	111	125	125	8
-7160	-2656	14036	-126	108	-189	-16396	1200	-2552	122	-26	115	-16040	3328	-1068	328	93	3	-8336	2544	14204	143	24	-176	-15756	1428	-3800	35	-128	-96	-16352	0	-768	88	-9	132	124	127	8
-7252	-2664	14112	-75	135	-184	-16520	1180	-2480	181	-53	94	-16044	3340	-1004	350	34	-25	-8548	2264	14272	122	-45	-164	-15792	1248	-3756	29	-94	-85	-16260	-124	-516	23	18	158	125	123	8
-7180	-2676	13924	-134	118	-226	-16428	1156	-2480	186	-39	75	-16096	3412	-916	380	72	-10	-8468	2348	14340	120	5	-183	-15752	1212	-3688	206	-135	-92	-16320	-252	-440	203	76	86	125	126	8
-7212	-2728	13960	-123	152	-166	-16372	1276	-2388	219	-17	87	-15988	3408	-940	337	-39	-19	-8456	2460	14396	157	27	-137	-15808	1352	-3680	122	-107	-93	-16300	-180	-516	190	26	69	126	122	8
-7248	-2728	14000	-126	141	-232	-16492	1188	-2436	154	-16	82	-16020	3456	-984	291	-16	-56	-8472	2436	14332	140	50	-174	-15724	1296	-3604	-10	-50	-162	-16348	-40	-556	136	-45	116	123	128	8
-7176	-2664	13996	-96	105	-213	-16460	1252	-2452	132	27	75	-16020	3480	-944	300	0	-16	-8476	2520	14252	127	-43	-192	-15728	1272	-3688	2	-69	-136	-16308	-44	-500	69	-10	108	125	123	8
-7164	-2708	14052	-138	112	-222	-16532	1176	-2460	136	8	57	-16008	3360	-1024	217	-17	-64	-8428	2432	14356	115	-32	-166	-15784	1240	-3628	94	-13	-95	-16300	-108	-536	163	-33	81	127	127	8
-7296	-2648	13916	-72	116	-216	-16468	1196	-2616	149	44	25	-15988	3252	-1096	222	24	-68	-8424	2500	14308	128	2	-202	-15744	1340	-3608	66	-7	-105	-16272	-132	-576	176	-11	106	123	125	8
-7248	-2728	13992	-120	146	-228	-16488	1276	-2580	124	22	56	-16024	3380	-1244	266	-1	-48	-8448	2420	14296	107	2	-167	-15780	1332	-3880	51	-41	-128	-16260	-116	-732	174	-61	137	125	121	8
-7284	-2652	14136	-118	128	-207	-16468	1120	-2528	172	-43	105	-15996	3324	-1192	266	-9	-55	-8436	2468	14328	93	-10	-200	-15852	1296	-3880	45	1	-163	-16248	-88	-792	159	-19	79	124	127	8
-7248	-2636	14056	-131	144	-186	-16480	1188	-2576	100	-8	49	-16036	3312	-1152	226	14	-51	-8480	2396	14348	86	-33	-169	-15792	1304	-3696	59	-19	-154	-16232	-140	-764	166	1	82	127	125	8
-7204	-2720	13952	-148	160	-254	-16428	1152	-2432	126	-36	11	-16092	3284	-1104	292	1	-65	-8416	2400	14316	82	-55	-187	-15792	1216	-3788	16	-36	-158	-16220	-212	-564	179	-13	101	124	129	8
-7148	-2740	13984	-114	172	-250	-16432	1148	-2428	224	-39	33	-16036	3308	-1060	314	-24	-35	-8504	2392	14172	95	-39	-186	-15792	1232	-3784	117	-81	-143	-16340	-176	-672	167	-6	91	125	126	8
-7196	-2716	13972	-103	165	-251	-16476	1192	-2472	212	-8	44	-16044	3328	-960	384	9	-42	-8460	2388	14360	103	-48	-159	-15840	1236	-3620	38	-34	-98	-16376	-164	-664	179	-68	78	126	128	8
-7196	-2764	13912	-113	135	-251	-16472	1128	-2524	205	-4	50	-16036	3332	-1116	350	15	-55	-8380	2352	14372	74	5	-175	-15836	1240	-3744	51	-20	-177	-16288	-176	-632	127	-57	66	127	128	8
-7244	-2652	13984	-94	149	-242	-16460	1120	-2412	164	20	43	-16068	3396	-988	317	-1	-45	-8388	2456	14412	124	-44	-212	-15800	1304	-3660	63	-30	-153	-16284	-108	-692	39	-27	88	127	127	8
-7200	-2736	14016	-99	111	-220	-16388	1176	-2532	144	28	24	-16072	3304	-1104	284	14	-66	-8504	2416	14340	57	-41	-188	-15832	1256	-3856	1	-56	-159	-16204	-176	-656	133	-61	102	129	124	8
-7200	-2648	14064	-94	125	-234	-16404	1180	-2440	142	29	64	-16060	3264	-1172	251	31	-99	-8452	2408	14360	98	-1	-176	-15736	1244	-3568	121	4	-141	-16268	-120	-604	185	-66	45	127	136	8
-7228	-2656	13984	-113	120	-197	-16440	1088	-2512	187	34	47	-16112	3240	-1036	237	-37	-62	-8468	2544	14280	61	-84	-198	-15748	1216	-3704	121	-43	-146	-16240	-204	-672	96	-136	129	127	128	8
-7192	-2664	13960	-81	107	-218	-16432	1148	-2420	211	1	61	-16044	3268	-1044	311	30	-60	-8448	2412	14276	63	-34	-202	-15756	1248	-3820	-5	8	-166	-16320	-108	-748	83	-161	85	130	126	8
-7272	-2708	13980	-102	115	-218	-16512	1120	-2488	222	13	41	-16076	3260	-1088	344	-29	-71	-8476	2412	14252	70	-69	-208	-15776	1184	-3820	-21	-40	-153	-16336	-276	-660	37	-141	116	127	126	8
-7176	-2680	14024	-113	127	-235	-16508	1072	-2536	254	69	11	-16092	3268	-1188	308	-29	-36	-8476	2396	14280	54	-62	-192	-15756	1188	-3848	0	0	-139	-16288	-380	-708	52	-170	106	125	125	8
-7264	-2704	14004	-87	135	-193	-16456	1044	-2556	245	48	99	-16016	3132	-1172	241	-29	-56	-8488	2284	14312	97	-33	-153	-15756	1072	-3896	31	-47	-147	-16324	-364	-608	152	-207	131	125	122	8
-7232	-2708	14064	-80	135	-228	-16460	1136	-2616	212	-11	99	-16008	3176	-1296	379	32	-57	-8500	2388	14216	105	-64	-178	-15800	1136	-3852	148	-113	-99	-16284	-404	-752	258	-181	146	126	134	8
-7212	-2672	13992	-94	147	-217	-16400	1096	-2532	230	5	78	-16068	3328	-1260	429	28	-23	-8452	2420	14360	135	-52	-192	-15776	1084	-3800	140	-90	-94	-16284	-356	-712	336	-166	165	126	128	8
-7252	-2680	13968	-84	164	-223	-16492	1108	-2608	228	-53	65	-16032	3204	-1448	400	-42	11	-8516	2272	14372	135	-47	-161	-15868	1112	-3756	257	-147	-80	-16316	-264	-712	307	-91	109	127	131	8
-7268	-2672	13976	-108	134	-215	-16440	1024	-2684	201	-112	105	-16048	3204	-1220	360	32	20	-8464	2336	14276	210	-95	-127	-15732	1172	-3708	181	-161	-106	-16244	-244	-696	217	-140	105	125	131	8
-7212	-2696	14088	-93	126	-225	-16400	1076	-2688	240	-108	98	-16068	3276	-1156	408	6	1	-8456	2412	14272	155	-20	-145	-15772	1260	-3736	200	-156	-130	-16316	-184	-712	320	-137	95	130	128	8
-7180	-2672	14028	-75	132	-224	-16460	1112	-2508	182	-59	109	-16020	3176	-1004	446	36	10	-8420	2328	14444	156	-61	-116	-15748	1220	-3828	80	-173	-92	-16256	-80	-636	153	-84	119	125	129	8
-7260	-2708	13880	-100	142	-213	-16456	1148	-2412	206	-57	78	-15988	3296	-960	409	36	6	-8476	2380	14296	155	-26	-156	-15776	1140	-3688	160	-158	-93	-16256	-168	-460	115	-79	141	126	131	8
-7228	-2684	13988	-78	133	-226	-16452	1128	-2408	178	-36	98	-16064	3288	-980	422	-32	-6	-8420	2380	14336	124	-38	-150	-15768	1104	-3676	124	-115	-52	-16304	-212	-524	107	-87	127	125	131	8
-7148	-2708	14032	-96	114	-197	-16408	1040	-2416	225	10	66	-16084	3292	-920	330	3	25	-8420	2476	14284	105	-10	-147	-15784	1076	-3528	82	-74	-58	-16348	-304	-364	111	-119	124	127	133	8
-7200	-2724	13992	-56	83	-186	-16428	1096	-2468	210	27	117	-16068	3276	-1000	261	29	-7	-8508	2412	14296	122	-32	-153	-15748	1212	-3640	65	-50	-75	-16372	-204	-504	143	-121	135	126	131	8
-7320	-2712	14048	-47	111	-174	-16440	1076	-2448	199	72	87	-15972	3244	-1052	221	12	17	-8492	2420	14312	127	-38	-160	-15748	1180	-3576	30	28	-53	-16260	-120	-548	205	-166	130	127	127	8
-7236	-2660	13944	-98	73	-184	-16464	1172	-2472	90	27	106	-16056	3176	-1108	215	13	-44	-8488	2408	14328	92	-33	-193	-15820	1188	-3708	73	54	-33	-16292	-168	-472	109	-168	138	129	127	8
-7248	-2752	14104	-34	113	-183	-16464	1084	-2536	61	33	65	-16028	3248	-1084	179	-20	-12	-8496	2428	14304	64	-14	-186	-15828	1212	-3676	17	47	-74	-16316	-204	-612	-7	-235	155	125	128	8
-7228	-2728	14060	-58	138	-189	-16492	1100	-2460	91	42	112	-16044	3180	-1296	96	-35	-12	-8464	2464	14324	106	-37	-173	-15760	1160	-3788	26	34	-55	-16284	-308	-648	77	-161	178	127	126	8
-7272	-2652	13988	-66	106	-219	-16472	1064	-2676	71	27	84	-16016	3188	-1244	140	-8	-26	-8500	2424	14380	89	-43	-212	-15764	1148	-3888	23	-8	-58	-16272	-364	-928	37	-217	125	127	124	8
-7236	-2712	14128	-104	159	-200	-16488	1136	-2764	57	-43	116	-16140	3224	-1432	162	24	-20	-8488	2412	14260	96	-78	-212	-15736	1096	-3824	-18	5	-75	-16352	-308	-848	29	-197	120	131	128	8
-7236	-2720	13964	-99	166	-257	-16456	1124	-2596	41	-79	139	-16076	3252	-1216	158	21	52	-8508	2364	14424	97	0	-160	-15748	1064	-3816	20	-14	-59	-16276	-304	-784	-50	-98	161	129	128	8
-7240	-2720	13960	-114	169	-217	-16384	1128	-2572	33	-85	85	-16100	3248	-1008	151	28	-7	-8500	2424	14360	129	3	-156	-15784	1152	-3696	-17	-64	-17	-16272	-268	-736	-58	-53	120	126	127	8
-7232	-2712	14020	-80	155	-187	-16452	1072	-2480	15	-67	144	-16088	3180	-980	100	-36	7	-8436	2412	14400	104	31	-167	-15752	1188	-3744	-57	-34	-51	-16340	-260	-600	-77	-137	126	127	130	8
-7204	-2736	13972	-57	142	-189	-16404	1104	-2444	46	-48	116	-16036	3196	-1016	177	0	4	-8476	2372	14232	145	-56	-155	-15744	1148	-3628	-28	-48	-35	-16248	-208	-580	-33	-122	148	128	130	8
-7224	-2708	13964	-103	162	-229	-16448	984	-2452	34	-16	102	-15964	3140	-992	144	2	59	-8452	2416	14256	113	-35	-154	-15788	1152	-3656	23	6	-65	-16320	-152	-516	-44	-140	228	128	126	8
-7264	-2776	14044	-79	146	-217	-16372	1092	-2476	72	15	157	-16032	3224	-1044	159	-6	40	-8448	2424	14344	129	-62	-155	-15800	1108	-3732	-81	-15	-36	-16296	-344	-568	-29	-160	195	123	127	8
-7264	-2688	13968	-54	139	-174	-16456	1072	-2316	98	4	148	-16108	3192	-1036	154	-9	35	-8448	2416	14328	109	-2	-180	-15848	1176	-3688	-13	3	-20	-16276	-328	-668	101	-184	152	127	128	8
-7220	-2688	13948	-76	138	-191	-16456	1080	-2544	42	-10	171	-16108	3196	-1216	156	5	23	-8472	2436	14404	110	-52	-202	-15812	1132	-3852	66	-11	-9	-16288	-260	-804	174	-188	169	126	131	8
-7288	-2660	14040	-50	129	-194	-16468	1052	-2648	87	-8	144	-15992	3172	-1208	158	44	33	-8420	2408	14504	148	-87	-174	-15820	1136	-3792	97	-54	-28	-16312	-256	-668	147	-144	176	125	126	8
-7288	-2724	14020	-38	102	-207	-16424	1140	-2492	69	-31	139	-16096	3240	-1228	214	-15	62	-8468	2392	14224	122	21	-146	-15800	1184	-3800	28	-45	-24	-16328	-180	-684	7	-109	192	127	132	8
-7240	-2664	14092	-48	132	-208	-16452	1100	-2476	118	-31	133	-16008	3272	-1276	218	-66	54	-8416	2348	14260	159	-20	-168	-15688	1176	-3696	5	-62	-5	-16288	-244	-684	-17	-160	198	128	134	8
-7188	-2720	14008	-73	119	-226	-16460	1068	-2564	140	-85	165	-16024	3260	-1160	278	17	61	-8472	2468	14336	174	16	-137	-15852	1240	-3828	-31	-46	-52	-16304	-204	-812	107	-203	155	129	127	8
-7200	-2712	13992	-97	146	-206	-16424	1096	-2464	164	-45	170	-16080	3160	-1296	296	-15	51	-8452	2496	14216	161	-28	-133	-15728	1240	-3844	-29	-105	13	-16292	-172	-732	14	-142	173	124	128	8
-7200	-2696	13996	-88	172	-176	-16472	1128	-2584	115	-93	166	-15980	3292	-1028	285	-15	47	-8484	2372	14292	142	-26	-180	-15740	1152	-3748	84	-113	-9	-16252	-256	-456	-5	-74	198	128	128	8
-7300	-2672	14040	-97	138	-200	-16448	1136	-2436	117	-64	124	-15996	3356	-1092	236	-18	49	-8452	2412	14384	153	-94	-150	-15764	1192	-3548	73	-59	-23	-16360	-208	-564	-17	-113	222	124	130	8
-7188	-2684	14080	-113	153	-228	-16408	1072	-2476	63	-76	168	-16048	3236	-1160	231	-11	53	-8388	2428	14416	141	3	-147	-15756	1204	-3712	-53	-79	-52	-16404	-264	-540	26	-156	173	125	127	8
-7192	-2700	14036	-85	137	-191	-16460	1044	-2552	109	-71	159	-16072	3308	-1168	170	2	47	-8516	2496	14316	129	21	-162	-15780	1156	-3704	-29	-34	-61	-16272	-184	-448	66	-186	194	128	128	8
-7140	-2624	14048	-82	132	-201	-16404	1140	-2616	76	-48	158	-16064	3336	-1136	155	-29	27	-8428	2400	14280	129	-8	-204	-15820	1200	-3632	-25	-38	28	-16404	-228	-632	19	-190	197	127	130	8
-7288	-2720	14000	-82	148	-199	-16432	1108	-2528	4	-55	127	-16020	3232	-1112	111	-70	51	-8528	2420	14336	105	-39	-152	-15760	1212	-3780	5	-65	-25	-16220	-236	-644	28	-174	208	130	133	8
-7224	-2636	14104	-76	154	-196	-16476	1124	-2648	-23	-59	154	-16092	3276	-1016	99	7	32	-8440	2456	14336	129	-8	-137	-15736	1120	-3808	0	-95	-35	-16260	-312	-740	56	-133	159	125	129	8
-7180	-2640	14088	-86	143	-223	-16476	1132	-2452	47	-77	165	-16084	3168	-1068	83	-23	50	-8504	2380	14276	106	-55	-135	-15796	1160	-3860	49	-67	-5	-16240	-268	-716	-10	-150	172	127	127	8
-7184	-2704	13928	-78	110	-178	-16452	1116	-2436	48	-36	168	-16044	3232	-1160	88	-26	35	-8464	2528	14248	110	-12	-122	-15788	1220	-3732	13	-89	-9	-16284	-248	-592	-4	-163	155	127	126	8
-7204	-2596	13920	-76	141	-184	-16464	1120	-2476	33	-33	148	-16024	3208	-1068	172	-16	30	-8420	2500	14352	132	-32	-123	-15800	1240	-3804	-8	-72	-38	-16328	-172	-524	84	-157	197	128	130	8
-7228	-2652	14076	-90	87	-171	-16480	1096	-2416	80	-4	157	-16052	3240	-1028	273	-37	80	-8440	2480	14332	128	-23	-173	-15744	1176	-3724	-57	-3	-28	-16312	-160	-572	-4	-176	201	127	129	8
-7184	-2716	14020	-96	131	-194	-16452	1160	-2528	138	-3	169	-16032	3264	-940	204	-17	39	-8452	2428	14396	100	13	-180	-15772	1144	-3688	-7	-42	2	-16340	-332	-584	58	-148	193	126	130	8
-7172	-2688	14004	-32	116	-206	-16416	1088	-2532	113	14	160	-15952	3192	-1056	175	-21	23	-8488	2460	14320	104	-60	-198	-15780	1176	-3704	72	-9	-16	-16212	-212	-580	99	-198	180	133	128	8
-7240	-2660	14024	-65	103	-184	-16416	1124	-2468	9	-4	124	-16080	3300	-884	233	-7	24	-8464	2460	14388	124	-34	-152	-15740	1176	-3712	42	-17	-31	-16280	-168	-608	154	-192	173	125	128	8
-7296	-2668	13912	-28	122	-223	-16488	1092	-2464	66	31	172	-16056	3392	-1108	199	-61	54	-8464	2416	14244	100	-51	-160	-15812	1220	-3716	-21	-34	-10	-16308	-180	-624	37	-231	145	130	126	8
-7296	-2804	13916	-74	160	-212	-16424	1168	-2504	140	66	138	-16036	3304	-1004	123	-130	47	-8508	2368	14260	102	-35	-179	-15756	1200	-3636	5	-14	-35	-16304	-156	-628	65	-206	228	122	129	8
-7240	-2636	14008	-56	133	-179	-16500	1004	-2552	140	71	176	-16044	3228	-1044	148	-52	31	-8488	2412	14268	101	-34	-157	-15800	1160	-3680	-6	-51	-6	-16332	-232	-676	-18	-172	211	127	127	8
-7260	-2656	14052	-37	142	-158	-16448	1180	-2568	57	85	111	-15904	3280	-1176	135	-111	-18	-8432	2436	14296	96	-34	-166	-15708	1184	-3732	-15	16	-40	-16300	-240	-692	-34	-157	200	127	126	8
-7188	-2684	14008	-23	146	-178	-16436	1200	-2508	43	78	150	-16112	3300	-992	195	-173	16	-8464	2416	14284	135	-41	-150	-15816	1160	-3708	-44	-48	-21	-16292	-248	-648	-12	-216	162	124	127	8
-7224	-2680	13964	-21	131	-203	-16536	1080	-2672	88	54	141	-16008	3296	-1208	124	-59	23	-8508	2324	14316	152	-78	-130	-15784	1216	-3808	-47	-49	-21	-16284	-244	-672	53	-177	154	126	126	8
-7208	-2668	13996	-44	174	-181	-16520	1168	-2644	111	69	131	-16100	3160	-1160	65	-93	22	-8500	2376	14352	121	-14	-126	-15780	1252	-3804	4	-53	2	-16264	-156	-524	-7	-136	218	125	127	8
-7220	-2652	14024	-55	150	-225	-16428	1052	-2628	33	40	148	-16028	3252	-1024	125	-39	-14	-8420	2504	14316	93	-49	-148	-15808	1320	-3656	-31	-58	-41	-16344	-136	-536	99	-127	162	123	124	8
-7244	-2668	14068	-58	116	-196	-16416	1016	-2512	82	32	154	-16008	3272	-944	244	-49	41	-8460	2424	14344	116	-56	-191	-15796	1216	-3808	-33	-20	-24	-16244	-232	-544	121	-167	132	125	126	8
-7184	-2672	13968	-51	146	-201	-16452	1120	-2460	104	31	152	-16128	3264	-1040	289	-64	32	-8480	2376	14320	125	-48	-185	-15780	1184	-3820	44	-53	-53	-16292	-260	-540	26	-161	210	125	129	8
-7244	-2672	13976	-81	139	-188	-16428	1116	-2512	135	17	142	-16024	3240	-992	236	-32	64	-8424	2436	14404	117	-44	-150	-15728	1208	-3708	63	-18	-8	-16324	-184	-588	3	-152	151	129	125	8
-7220	-2596	13972	-50	142	-222	-16416	1116	-2476	109	42	136	-16072	3304	-1068	161	-36	-2	-8432	2412	14344	121	-41	-148	-15852	1272	-3592	1	-2	-26	-16348	-96	-448	-14	-197	162	126	127	8
-7204	-2656	14028	-44	114	-146	-16420	1132	-2512	72	75	140	-16236	3420	-1100	146	-131	66	-8440	2464	14328	96	-30	-153	-15800	1340	-3604	-32	16	6	-16360	-148	-480	23	-198	144	127	125	8
-7152	-2732	14056	-65	126	-196	-16400	1088	-2436	154	48	158	-16000	3404	-992	230	-45	13	-8448	2440	14304	110	-95	-175	-15772	1172	-3840	-42	-6	-32	-16356	-228	-588	-9	-291	153	128	129	8
-7224	-2584	13996	-82	151	-188	-16380	1236	-2620	63	86	108	-16032	3276	-988	171	-68	11	-8480	2444	14244	91	-9	-194	-15804	1160	-3712	63	-6	-34	-16216	-256	-636	-53	-275	152	131	126	8
-7216	-2664	13968	-63	114	-178	-16396	1080	-2456	30	86	125	-16020	3276	-1032	201	-59	20	-8496	2508	14304	124	-37	-174	-15684	1128	-3632	123	12	8	-16292	-172	-628	-166	-269	143	128	127	8
-7216	-2688	14064	-38	141	-230	-16368	1040	-2636	157	65	125	-16048	3268	-996	158	-3	10	-8500	2488	14360	140	-97	-152	-15820	1372	-3636	-27	8	-5	-16380	-108	-524	-152	-263	149	127	130	8
-7216	-2600	13968	-43	129	-193	-16452	1112	-2588	197	66	150	-16028	3216	-1048	139	2	-15	-8520	2484	14348	112	-79	-190	-15792	1160	-3732	-123	12	-33	-16328	-276	-568	-35	-330	93	128	129	8
-7196	-2560	13960	-80	112	-215	-16520	1136	-2684	66	75	131	-16032	3280	-1208	215	8	30	-8460	2360	14224	116	-96	-171	-15720	984	-3836	189	8	-38	-16336	-356	-616	61	-354	146	126	127	8
-7244	-2612	13980	-91	116	-219	-16512	1064	-2592	94	23	132	-16080	3300	-1292	287	18	15	-8456	2352	14324	174	-75	-173	-15724	1124	-3788	266	-38	-18	-16420	-356	-496	-192	-462	66	125	123	8
-7212	-2620	14056	-63	123	-186	-16432	1148	-2692	81	11	127	-16040	3356	-1396	281	22	50	-8460	2364	14348	154	-49	-196	-15740	1048	-3716	322	7	-3	-16192	-264	-404	-104	-473	15	129	125	8
-7212	-2596	14128	-87	172	-234	-16448	1132	-2712	131	-52	129	-16028	3372	-1216	277	20	30	-8472	2464	14332	155	-46	-164	-15716	1392	-3776	268	-30	-14	-16296	-56	-648	49	-344	58	127	124	8
-7172	-2612	13964	-116	146	-186	-16436	1212	-2676	18	-78	128	-16104	3412	-1256	216	0	15	-8480	2628	14340	134	-72	-169	-15868	1392	-3876	47	-53	-50	-16228	104	-812	24	-328	59	127	125	8
-7276	-2580	14040	-91	159	-218	-16416	1100	-2648	-5	-108	109	-16080	3216	-1132	185	10	69	-8476	2488	14280	66	-25	-188	-15860	1220	-3732	12	-36	-44	-16184	-4	-652	-307	-261	117	128	127	8
-7228	-2648	14044	-158	156	-222	-16448	1068	-2620	-8	-111	106	-16084	3220	-1152	227	9	34	-8432	2480	14340	111	-74	-127	-15740	1204	-3732	63	-72	-64	-16284	-268	-444	-308	-159	147	127	124	8
-7184	-2592	14004	-131	145	-223	-16416	1100	-2536	84	-101	111	-15984	3360	-932	267	5	-22	-8460	2444	14280	115	-12	-143	-15784	1196	-3664	-55	-30	-105	-16276	-272	-356	-168	-161	145	128	124	8
-7256	-2648	14000	-69	135	-192	-16448	1160	-2392	81	-78	124	-16004	3344	-980	184	-30	5	-8516	2456	14272	98	-14	-135	-15784	1172	-3644	-13	-90	-40	-16296	-196	-384	12	-104	133	133	127	8
-7264	-2608	14036	-127	136	-188	-16424	1164	-2544	10	-44	102	-16032	3244	-800	193	32	9	-8528	2432	14216	73	37	-123	-15724	1244	-3524	-52	-33	-61	-16352	-236	-448	-75	-142	182	120	127	8
-7216	-2692	13976	-72	149	-224	-16456	1064	-2396	-8	-24	94	-16100	3328	-864	225	-48	-12	-8492	2404	14188	111	-32	-185	-15828	1152	-3612	-80	-22	-67	-16344	-304	-416	-127	-186	162	127	131	8
-7228	-2624	14124	-98	137	-229	-16456	1084	-2476	99	-1	107	-16120	3180	-1072	110	15	-30	-8472	2408	14248	154	-21	-138	-15784	1032	-3684	157	16	-32	-16276	-232	-416	85	-224	116	125	127	8
-7284	-2652	14068	-122	122	-217	-16404	1152	-2480	105	19	82	-15976	3272	-984	149	-38	-50	-8412	2520	14344	109	-56	-158	-15808	1360	-3724	115	37	-60	-16304	-108	-348	236	-171	116	126	130	8
-7180	-2656	13988	-103	117	-205	-16468	1092	-2652	41	30	106	-16108	3252	-1076	175	4	-44	-8448	2484	14228	113	-28	-165	-15792	1188	-3748	104	15	-69	-16312	4	-552	168	-116	108	128	126	8
-7184	-2676	14000	-95	128	-203	-16472	1128	-2516	109	7	91	-16052	3176	-1112	219	-4	-28	-8468	2452	14328	61	-28	-172	-15740	1228	-3748	56	-15	-82	-16316	-212	-536	-57	-132	122	126	126	8
-7272	-2628	14064	-73	95	-221	-16436	1084	-2744	113	-13	97	-16008	3216	-1084	246	1	-11	-8496	2400	14352	80	-77	-179	-15816	1244	-3716	-23	9	-125	-16248	-188	-576	-108	-155	104	127	131	8
-7196	-2656	14076	-128	162	-231	-16468	1080	-2644	138	-33	105	-16076	3332	-1200	184	49	-25	-8508	2416	14228	98	-48	-159	-15832	1296	-3824	-96	-6	-141	-16272	-312	-396	-88	-136	130	127	127	8
-7272	-2576	13980	-122	163	-211	-16464	1220	-2460	95	-24	75	-15984	3328	-1020	235	11	-29	-8452	2368	14376	113	-30	-174	-15780	1076	-3732	-27	-23	-124	-16296	-284	-520	-7	-90	128	123	127	8
-7164	-2588	14036	-113	165	-258	-16428	1128	-2464	11	-22	74	-16104	3300	-948	188	3	-17	-8448	2388	14228	111	-51	-152	-15788	1228	-3740	17	-6	-70	-16352	-208	-276	57	-61	93	126	127	8
-7196	-2620	13976	-118	139	-215	-16400	972	-2508	155	-31	65	-16100	3200	-968	190	24	-41	-8504	2420	14296	107	-53	-139	-15728	1144	-3704	-36	-7	-84	-16300	-224	-560	26	-74	117	129	126	8
-7248	-2688	14004	-101	130	-223	-16404	1200	-2644	138	-19	72	-16096	3216	-1088	187	15	-61	-8512	2444	14296	111	-28	-198	-15784	1212	-3652	8	15	-99	-16268	-184	-336	55	-108	113	123	135	8
-7240	-2684	14004	-87	119	-202	-16412	1124	-2608	44	-3	78	-16036	3196	-1064	158	38	-37	-8444	2440	14236	69	-25	-181	-15804	1200	-3608	49	22	-106	-16328	-272	-360	88	-28	119	128	126	8
-7212	-2676	13948	-105	135	-205	-16428	1052	-2536	77	-17	73	-16028	3140	-1008	261	18	-32	-8344	2404	14252	68	-26	-158	-15760	1172	-3644	26	3	-115	-16392	-360	-492	94	-104	156	128	129	8
-7156	-2632	14060	-118	123	-195	-16444	956	-2560	148	-31	112	-16076	3256	-1048	260	-14	16	-8452	2340	14376	61	-34	-173	-15816	1128	-3640	65	26	-95	-16224	-252	-388	150	-47	147	130	124	8
-7224	-2632	14104	-81	136	-204	-16416	1132	-2652	154	-7	97	-15972	3284	-1060	194	49	9	-8472	2492	14424	63	-6	-174	-15732	1192	-3588	69	19	-70	-16284	-280	-404	197	28	131	123	127	8
-7236	-2616	14044	-81	124	-214	-16464	1092	-2564	-1	20	68	-16008	3208	-996	191	48	-49	-8480	2388	14284	87	-2	-157	-15828	1188	-3728	7	10	-82	-16336	-124	-404	169	15	181	125	129	8
-7188	-2624	13944	-109	131	-219	-16460	1120	-2596	59	61	81	-16108	3208	-1012	156	61	-40	-8376	2392	14392	38	-39	-197	-15764	1156	-3608	-24	20	-82	-16300	-172	-520	71	-41	163	128	125	8
-7228	-2644	13984	-127	127	-208	-16444	1036	-2520	121	19	82	-16092	3172	-968	221	49	-21	-8392	2440	14412	109	-74	-179	-15768	1132	-3820	-44	59	-93	-16284	-232	-556	38	-85	128	126	131	8
-7248	-2668	13952	-109	133	-151	-16476	1076	-2572	199	47	66	-15940	3240	-1140	243	-1	-37	-8464	2380	14348	130	-71	-198	-15816	1076	-3756	-16	31	-110	-16192	-328	-480	16	-66	141	126	128	8
-7136	-2592	13960	-112	131	-227	-16472	1088	-2656	79	18	110	-16084	3248	-996	236	93	4	-8460	2396	14344	73	4	-161	-15748	1120	-3700	95	24	-85	-16252	-184	-464	105	-8	142	123	131	8
-7288	-2672	14060	-111	123	-196	-16488	1052	-2536	161	57	73	-16116	3200	-1024	221	51	-13	-8440	2416	14304	76	18	-169	-15808	1108	-3776	-35	22	-72	-16300	-348	-536	119	58	108	128	127	8
-7232	-2572	14012	-75	130	-206	-16404	1144	-2436	107	13	95	-16004	3304	-1132	208	87	-19	-8420	2424	14300	114	23	-189	-15768	1064	-3752	55	1	-86	-16332	-256	-500	155	19	125	125	128	8
-7248	-2628	14020	-113	116	-226	-16428	1196	-2612	4	78	108	-16004	3264	-1040	204	76	-18	-8444	2432	14328	106	-22	-183	-15748	1156	-3692	67	36	-94	-16184	-268	-492	97	-45	131	126	124	8
-7120	-2780	14008	-146	115	-231	-16488	1052	-2544	87	50	78	-16116	3160	-1136	231	77	20	-8480	2416	14268	108	-19	-189	-15788	1160	-3612	21	55	-86	-16320	-148	-428	132	-13	137	124	128	8
-7220	-2692	14088	-146	123	-192	-16464	1088	-2548	198	46	89	-16052	3136	-1216	255	42	22	-8492	2436	14256	102	-28	-180	-15736	1140	-3576	15	76	-41	-16224	-232	-368	83	32	162	125	128	8
-7184	-2620	13960	-116	116	-210	-16416	1028	-2672	179	42	103	-16076	3224	-1120	284	64	11	-8476	2468	14276	95	-88	-205	-15776	1232	-3752	-59	96	-120	-16260	-208	-448	164	-2	174	126	130	8
-7220	-2700	13984	-133	151	-190	-16436	1072	-2648	189	-13	143	-16012	3184	-1212	286	58	-12	-8484	2436	14296	61	2	-201	-15780	1172	-3768	-36	58	-57	-16300	-316	-572	204	46	173	124	133	8
-7224	-2612	13972	-91	134	-203	-16444	1096	-2656	122	-11	101	-15996	3328	-1136	254	93	22	-8508	2392	14372	42	-16	-215	-15844	1120	-3844	31	69	-66	-16304	-340	-660	209	77	174	127	126	8
-7260	-2632	14036	-96	124	-162	-16360	1056	-2560	90	23	131	-16092	3232	-984	233	89	9	-8448	2328	14516	97	6	-181	-15756	1156	-3792	101	31	-45	-16308	-268	-732	163	35	164	125	128	8
-7240	-2660	14012	-94	139	-225	-16508	1064	-2752	126	53	103	-16116	3208	-1196	194	108	24	-8428	2408	14248	111	-15	-145	-15788	1168	-3772	10	45	-60	-16356	-284	-608	103	5	138	126	127	8
-7208	-2656	14052	-110	131	-203	-16392	1076	-2568	89	53	107	-15996	3164	-1208	195	96	52	-8452	2432	14300	153	-79	-171	-15780	1184	-3840	-33	31	-82	-16272	-328	-652	-39	-22	188	127	126	8
-7140	-2676	13996	-109	109	-168	-16376	1072	-2520	163	57	127	-15988	3128	-988	237	105	-18	-8480	2368	14372	104	-39	-211	-15732	1072	-3904	-6	44	-48	-16316	-232	-504	34	13	156	127	133	8
-7244	-2652	13920	-108	150	-240	-16432	1056	-2664	207	14	108	-15992	3224	-1024	345	80	1	-8420	2416	14304	145	-10	-193	-15736	1156	-3756	45	44	-65	-16328	-212	-456	86	28	160	126	129	8
-7208	-2620	14200	-110	109	-219	-16436	972	-2528	227	57	82	-16040	3228	-1072	406	71	10	-8464	2416	14360	152	-27	-198	-15836	1192	-3728	-62	87	-107	-16308	-308	-652	299	57	160	127	129	8
-7168	-2696	14024	-99	77	-206	-16380	1056	-2608	217	78	93	-16056	3232	-1104	357	122	26	-8444	2352	14284	116	-29	-196	-15736	1096	-3876	110	46	-57	-16196	-304	-592	276	-9	138	126	125	8
-7216	-2684	13944	-62	123	-221	-16376	1056	-2560	162	80	117	-15964	3264	-1192	369	34	49	-8520	2384	14336	78	-49	-159	-15776	1104	-3788	190	44	-67	-16236	-236	-588	225	62	177	130	130	8
-7200	-2756	13964	-72	109	-197	-16460	1004	-2676	133	93	117	-16044	3200	-1148	348	74	19	-8364	2488	14264	129	46	-142	-15760	1196	-3740	95	58	-40	-16328	-296	-668	229	31	166	127	125	8
-7200	-2660	13968	-76	138	-162	-16444	1040	-2740	174	49	118	-16036	3252	-1156	217	76	-10	-8532	2376	14332	106	-1	-166	-15728	1164	-3792	25	53	-77	-16304	-196	-620	232	-1	188	128	127	8
-7224	-2648	14100	-72	118	-204	-16464	1112	-2716	144	43	128	-16028	3284	-1288	228	113	13	-8452	2372	14320	152	-92	-207	-15796	1168	-3816	34	51	-43	-16172	-304	-600	220	20	191	127	123	8
-7228	-2616	14052	-100	125	-187	-16444	1108	-2700	118	39	145	-16040	3196	-1308	186	94	56	-8496	2416	14368	131	-41	-175	-15724	1068	-3872	170	69	-48	-16264	-236	-656	220	70	195	126	126	8
-7196	-2656	14092	-105	135	-189	-16416	1096	-2700	148	12	120	-16092	3112	-1168	246	81	33	-8396	2408	14364	126	-25	-193	-15808	1168	-3844	35	53	-32	-16300	-272	-552	209	112	167	129	126	8
-7224	-2648	13996	-116	146	-213	-16432	1016	-2640	158	17	112	-15996	3196	-1160	268	1	25	-8476	2384	14332	137	-68	-144	-15796	1144	-3804	-57	51	-34	-16272	-272	-620	189	111	193	126	126	8
-7208	-2688	14056	-101	162	-203	-16440	1056	-2584	152	62	88	-16028	3228	-1132	332	-12	5	-8560	2452	14376	160	-58	-138	-15776	1164	-3852	-46	70	-49	-16204	-280	-532	253	208	231	123	126	8
-7184	-2696	14044	-127	145	-217	-16432	956	-2544	150	89	138	-16036	3272	-992	257	31	-7	-8496	2412	14192	129	-57	-129	-15792	1168	-3736	-38	68	-55	-16212	-328	-672	375	267	228	128	129	8
-7268	-2636	14088	-84	181	-191	-16392	1124	-2656	204	51	124	-16036	3224	-1132	155	58	-11	-8480	2384	14312	119	-38	-190	-15824	1148	-3804	50	58	-18	-16308	-256	-628	333	293	275	125	128	8
-7156	-2792	14016	-107	171	-207	-16484	1000	-2656	13	78	118	-16036	3256	-1196	133	115	13	-8472	2368	14348	125	-27	-194	-15776	1124	-3780	47	61	-6	-16248	-196	-596	298	322	284	130	127	8
-7144	-2636	14100	-83	94	-195	-16484	1012	-2744	90	99	134	-16092	3152	-992	123	88	8	-8448	2448	14456	117	-56	-129	-15732	1088	-3764	23	71	-30	-16300	-236	-492	248	281	244	124	129	8
-7192	-2628	14012	-83	147	-186	-16420	1000	-2640	68	82	104	-16044	3236	-1028	151	102	14	-8380	2412	14192	94	-21	-148	-15832	1172	-3688	9	113	-41	-16240	-204	-608	277	305	233	122	124	8
-7148	-2600	14100	-70	125	-208	-16464	1044	-2648	96	89	101	-16104	3180	-1256	154	81	9	-8484	2552	14304	103	-15	-161	-15716	1212	-3600	-97	180	-37	-16228	-312	-512	140	261	276	125	127	8
-7188	-2656	13900	-90	115	-210	-16384	1048	-2644	107	120	93	-15972	3236	-1228	209	56	36	-8508	2384	14336	124	-100	-193	-15740	1132	-3744	-115	127	-73	-16244	-236	-724	210	347	247	127	126	8
-7220	-2672	14088	-94	125	-210	-16396	1012	-2768	61	66	125	-16052	3304	-1176	215	46	45	-8444	2396	14296	102	10	-185	-15776	1120	-3980	-66	142	-49	-16200	-256	-764	294	426	289	123	127	8
-7192	-2636	13976	-127	141	-184	-16468	1016	-2712	51	95	97	-16108	3176	-1232	113	92	39	-8536	2404	14376	106	7	-190	-15772	1060	-4036	44	87	-26	-16276	-284	-756	246	473	286	125	128	8
-7212	-2636	14096	-109	127	-114	-16400	1012	-2716	101	56	144	-16076	3164	-1168	148	179	20	-8504	2456	14312	70	-25	-220	-15812	1144	-3972	40	123	-46	-16272	-296	-768	238	484	268	128	126	8
-7208	-2668	14024	-125	86	-205	-16472	1024	-2652	107	59	127	-15980	3144	-1148	290	103	23	-8476	2352	14368	122	-46	-151	-15716	1060	-4020	28	141	-6	-16272	-144	-692	155	351	290	127	130	8
-7144	-2604	13992	-131	147	-168	-16428	1108	-2820	92	57	130	-16048	3296	-1132	182	132	68	-8412	2412	14288	97	-10	-158	-15816	1112	-3824	-8	107	-35	-16344	-180	-704	62	297	266	123	129	8
-7256	-2636	14088	-115	117	-172	-16408	1128	-2584	56	59	137	-16056	3292	-1044	186	128	48	-8440	2444	14356	129	-47	-149	-15692	1120	-3780	2	135	-10	-16264	-140	-660	20	240	229	127	127	8
-7176	-2676	14064	-87	157	-177	-16512	1024	-2656	67	67	105	-16124	3240	-1124	134	177	28	-8412	2404	14272	117	-34	-176	-15824	1168	-3744	-120	200	-33	-16304	-220	-820	-33	152	221	126	127	8
-7188	-2720	14076	-72	117	-181	-16432	964	-2740	47	92	128	-16016	3104	-1116	94	90	32	-8544	2416	14336	84	-22	-193	-15732	1148	-3828	-75	206	-26	-16344	-140	-816	-23	98	204	125	128	8
-7148	-2516	14092	-106	110	-151	-16420	1036	-2792	19	146	115	-16096	3196	-1288	86	92	62	-8500	2400	14328	93	-30	-164	-15792	1196	-3784	-45	179	0	-16152	-252	-916	-39	19	176	127	128	8
-7244	-2592	14000	-108	135	-165	-16428	1028	-2852	64	112	163	-16028	3192	-1324	207	91	-1	-8504	2448	14292	93	19	-193	-15736	1112	-3896	-44	163	-19	-16276	-204	-820	-46	-36	245	126	131	8
-7208	-2664	14060	-123	119	-164	-16348	1096	-2680	60	90	144	-16068	3260	-1272	112	127	26	-8432	2488	14392	114	-38	-155	-15748	1084	-3948	-32	190	-6	-16288	-168	-948	-27	43	193	128	127	8
-7220	-2620	14096	-98	148	-220	-16372	1072	-2832	60	58	112	-16080	3240	-1268	128	97	7	-8500	2396	14328	101	-57	-205	-15708	1160	-4060	-73	151	-14	-16204	-284	-1160	-2	50	151	127	127	8
-7200	-2628	14000	-95	127	-158	-16440	1084	-2784	27	100	151	-16096	3280	-1244	45	107	15	-8448	2372	14372	81	-32	-143	-15724	1104	-4088	-59	128	-29	-16284	-228	-1044	68	85	126	127	133	8
-7264	-2616	13968	-107	133	-169	-16420	1072	-2780	-43	121	139	-16044	3244	-1396	91	117	-9	-8324	2412	14280	-21	-93	-194	-15728	1184	-4024	18	98	-28	-16220	-256	-960	43	132	156	124	125	8
-7184	-2672	13920	-91	139	-186	-16432	1112	-2700	0	51	121	-16096	3212	-1068	155	103	53	-8520	2312	14236	105	-54	-168	-15676	1180	-4052	3	76	-6	-16232	-288	-932	-70	132	216	125	125	8
-7184	-2660	14036	-148	114	-194	-16476	1064	-2672	58	95	161	-16132	3128	-1268	118	145	50	-8412	2440	14288	137	-54	-116	-15716	1216	-4056	22	80	-37	-16140	-192	-1060	-198	79	173	126	124	8
-7208	-2672	14088	-133	127	-180	-16384	1000	-2672	142	60	130	-15924	3244	-1244	200	143	38	-8512	2432	14264	149	-81	-171	-15756	1192	-3904	-76	110	4	-16248	-208	-876	-44	151	156	129	127	8
-7172	-2644	13904	-119	109	-168	-16404	1116	-2844	57	109	147	-16032	3328	-1284	187	103	14	-8516	2348	14376	121	-63	-195	-15748	1156	-3936	-35	140	-2	-16248	-204	-848	-135	141	193	129	126	8
-7220	-2672	14128	-128	77	-184	-16368	996	-2776	45	46	154	-16056	3348	-1240	169	83	29	-8360	2460	14344	123	-4	-187	-15764	1180	-3836	-86	128	-50	-16416	-232	-776	-95	104	214	123	128	8
-7200	-2612	14028	-91	102	-187	-16372	1056	-2824	67	69	111	-16012	3268	-1372	152	85	28	-8512	2380	14356	128	-84	-224	-15736	1140	-4112	-33	131	-16	-16252	-260	-996	176	103	170	126	126	8
-7192	-2552	14152	-107	116	-175	-16408	1036	-2712	83	79	160	-15988	3212	-1436	98	132	16	-8476	2416	14320	131	26	-218	-15728	1228	-4084	11	102	-8	-16232	-224	-1076	-20	129	212	127	126	8
-7168	-2560	14084	-118	110	-168	-16396	1172	-2784	-16	70	129	-15996	3224	-1424	82	122	33	-8456	2344	14352	121	-26	-180	-15712	1164	-3968	24	116	-9	-16296	-140	-1048	-51	132	187	126	126	8
-7200	-2640	13964	-125	132	-149	-16412	1052	-2728	-81	61	124	-15976	3316	-1272	71	61	15	-8480	2340	14272	124	-65	-177	-15700	1176	-3932	83	106	-58	-16180	-148	-1020	-57	189	206	125	126	8
-7128	-2588	14020	-93	155	-206	-16396	1012	-2668	61	52	111	-16048	3280	-1332	78	35	-7	-8452	2372	14288	120	-55	-141	-15708	1192	-3876	-50	103	-18	-16304	-160	-928	-53	256	177	125	125	8
-7184	-2664	13928	-97	187	-153	-16376	1084	-2776	64	67	130	-16004	3352	-1268	52	85	15	-8468	2408	14292	139	-51	-191	-15784	1236	-3968	-135	134	-34	-16288	-192	-948	-139	106	135	125	127	8
-7148	-2612	14120	-156	146	-219	-16344	1136	-2828	61	80	106	-16048	3192	-1276	-24	118	42	-8452	2388	14268	102	43	-163	-15740	1144	-3852	-151	93	-12	-16240	-140	-1068	-99	139	162	126	134	8
-7132	-2652	14060	-145	132	-223	-16492	1040	-2812	-2	9	114	-15952	3204	-1380	35	144	22	-8424	2420	14236	114	-67	-171	-15696	1160	-3988	-74	130	-38	-16292	-200	-1180	-191	100	149	125	124	8
-7204	-2684	13912	-155	144	-186	-16412	1072	-2952	-12	40	127	-16008	3176	-1360	71	106	-16	-8460	2472	14372	102	-42	-178	-15744	1208	-4116	-81	104	-15	-16268	-212	-976	-155	117	168	126	128	8
-7144	-2588	14048	-158	130	-197	-16428	1080	-2752	-10	6	149	-15948	3288	-1432	116	105	37	-8416	2388	14328	122	-23	-163	-15712	1164	-4096	-54	122	-49	-16304	-120	-868	-62	112	182	128	126	8
-7152	-2664	14000	-180	145	-162	-16460	1160	-2828	-55	0	105	-16064	3272	-1436	55	139	3	-8420	2424	14268	89	8	-183	-15668	1136	-4136	-78	87	-69	-16300	-264	-1148	-29	138	167	129	127	8
-7220	-2648	14028	-195	141	-178	-16420	1096	-2900	-56	0	160	-16080	3236	-1332	99	96	42	-8428	2408	14236	139	-14	-170	-15732	1168	-4024	28	92	-29	-16256	-296	-1096	-24	240	149	126	127	8
-7188	-2648	14092	-236	153	-208	-16484	1052	-2920	-117	-68	146	-15964	3264	-1412	134	195	47	-8328	2284	14400	154	-4	-217	-15696	1156	-3952	50	97	-25	-16400	-104	-1004	-46	83	176	127	129	8
-7252	-2704	14092	-181	167	-240	-16384	992	-2760	-71	-32	148	-16044	3224	-1316	141	229	19	-8484	2404	14356	137	-30	-202	-15796	1256	-4020	-74	75	-42	-16256	-204	-1108	-38	163	157	126	126	8
-7172	-2664	14068	-177	146	-202	-16412	964	-2772	29	-23	167	-16104	3164	-1380	102	190	31	-8460	2300	14376	139	-33	-175	-15704	1132	-4124	-101	81	-17	-16224	-244	-1192	-63	85	151	128	126	8
-7180	-2684	13960	-155	176	-171	-16380	1156	-2840	18	-67	148	-15912	3292	-1404	216	175	7	-8524	2320	14208	135	-71	-176	-15636	1168	-4132	-11	97	-33	-16212	-192	-1116	-92	105	172	124	126	8
-7168	-2708	13996	-203	118	-226	-16408	1060	-2728	-18	-36	134	-16036	3192	-1384	149	210	8	-8484	2400	14380	115	-11	-185	-15744	1252	-4036	-24	67	-32	-16228	-252	-976	-72	178	196	126	127	8
-7216	-2768	14036	-255	146	-203	-16432	964	-2772	-42	-48	160	-16000	3224	-1484	113	262	35	-8480	2464	14312	147	-7	-219	-15744	1096	-3988	35	67	-7	-16292	-256	-1080	36	113	149	128	127	8
-7288	-2704	13976	-228	158	-224	-16408	1032	-2860	-11	-74	142	-15968	3112	-1384	159	191	39	-8548	2404	14300	96	-61	-176	-15760	1232	-4084	62	91	-4	-16180	-304	-1144	184	110	149	128	127	8
-7116	-2664	14064	-196	129	-177	-16360	1088	-2868	-37	-44	110	-16004	3228	-1184	192	249	16	-8492	2340	14284	85	-56	-192	-15664	1128	-3972	43	97	-6	-16216	-184	-1032	76	95	215	124	125	8
-7180	-2688	14088	-170	155	-189	-16408	1052	-2772	-87	-26	120	-16040	3324	-1364	191	227	54	-8520	2412	14312	93	-46	-164	-15700	1240	-4012	52	148	-44	-16404	60	-948	-106	39	202	127	125	8
-7200	-2772	13960	-200	155	-223	-16368	1040	-2692	12	-54	150	-15968	3288	-1412	211	221	42	-7836	1780	14628	119	165	-255	-15704	1288	-4008	-22	170	-5	-16160	-196	-984	-47	19	189	129	125	8
-7164	-2600	13960	-183	110	-205	-16376	1092	-2808	-67	7	163	-16036	3208	-1300	159	195	74	-8404	2476	14376	219	-41	-161	-15764	1272	-4052	-212	194	-25	-16348	-176	-1308	9	-22	181	127	125	8
-7296	-2656	14024	-142	144	-177	-16416	1004	-2864	11	-23	145	-16016	3204	-1232	302	103	49	-8476	2440	14356	164	10	-227	-15704	1064	-4100	-88	114	-25	-16204	-220	-1256	-75	84	153	130	127	8
-7168	-2632	13884	-168	159	-205	-16380	1088	-2744	-13	6	161	-16060	3208	-1288	222	163	34	-8476	2372	14376	169	102	-130	-15748	1172	-4248	39	108	26	-16220	-220	-1324	-46	74	204	127	126	8
-7224	-2660	14052	-136	111	-142	-16480	1128	-2700	5	12	127	-15936	3316	-1264	145	157	24	-8540	2308	14296	174	-126	-191	-15660	1272	-4128	15	78	-45	-16216	-288	-1248	83	79	142	127	127	8
-7176	-2640	14044	-162	136	-174	-16352	1136	-2776	43	44	140	-15940	3256	-1288	219	168	12	-8480	2344	14384	194	-100	-161	-15664	1120	-4084	-13	86	-76	-16228	-272	-1256	-26	75	183	125	124	8
-7184	-2712	14056	-176	147	-193	-16404	1100	-2856	-6	56	112	-16000	3284	-1404	183	197	70	-8472	2296	14304	176	-37	-148	-15716	1108	-4036	63	65	-68	-16304	-224	-1160	-48	7	202	123	128	8
-7204	-2724	14076	-201	162	-188	-16444	1052	-2708	88	42	137	-16104	3164	-1204	304	88	39	-8532	2484	14448	175	-14	-159	-15720	1184	-4100	45	73	-18	-16260	-192	-1128	86	61	187	127	126	8
-7208	-2756	13932	-193	145	-227	-16396	1048	-2804	75	19	131	-15976	3188	-1532	308	124	113	-8460	2432	14212	145	-7	-167	-15676	1256	-4088	79	60	-47	-16284	-220	-1088	100	142	165	127	125	8
-7216	-2716	14076	-122	119	-213	-16444	1008	-2856	114	33	142	-16048	3152	-1472	391	165	54	-8480	2392	14276	175	-7	-204	-15712	1200	-4140	71	79	1	-16244	-152	-1288	290	115	143	127	126	8
-7124	-2640	14096	-183	123	-160	-16448	1192	-2952	75	-27	134	-15908	3356	-1596	406	249	82	-8520	2420	14280	156	-11	-180	-15760	1208	-4140	177	81	3	-16280	-124	-1260	230	81	152	126	124	8
-7124	-2580	14024	-168	130	-132	-16452	1088	-2952	16	-62	122	-16096	3252	-1704	311	256	79	-8440	2396	14380	137	-29	-147	-15720	1200	-4120	127	63	-31	-16224	-224	-1244	179	58	155	125	126	8
-7244	-2732	13976	-164	153	-209	-16420	1000	-2892	162	-127	154	-15944	3300	-1796	469	394	38	-8448	2372	14220	114	-24	-148	-15708	1236	-3992	63	84	-51	-16240	-212	-1208	86	55	156	127	129	8
-7212	-2604	14004	-116	185	-191	-16388	1136	-3072	172	-107	182	-15868	3284	-1584	357	345	73	-8492	2388	14328	95	-53	-177	-15700	1180	-4092	61	89	-44	-16276	-72	-1168	163	78	113	127	123	8
-7380	-2544	14100	-167	201	-203	-16460	1176	-2900	32	-142	146	-16044	3404	-1772	328	356	74	-8480	2440	14412	56	-21	-195	-15636	1256	-4084	58	83	-84	-16192	-192	-1312	123	125	135	128	129	8
-7092	-2604	14044	-198	160	-197	-16384	980	-2828	-97	-128	96	-15896	3184	-1576	258	333	85	-8704	2256	14292	29	-137	-200	-15644	1152	-4008	59	101	-6	-16164	-188	-1232	11	83	153	128	125	8
-7168	-2596	14120	-166	188	-209	-16288	1132	-2532	-97	-67	131	-15964	3384	-1156	316	264	81	-8480	2376	14256	50	-143	-149	-15656	1276	-4152	80	142	-65	-16248	-200	-1260	15	93	170	127	122	8
-7136	-2844	14036	-179	156	-183	-16336	992	-2432	10	-18	101	-16076	3268	-1072	293	238	71	-8464	2440	14368	60	-86	-188	-15672	1228	-4060	-78	139	-41	-16292	-124	-1212	3	17	115	129	126	8
-7180	-2852	14008	-174	153	-237	-16380	972	-2588	115	62	126	-16072	3368	-1052	278	175	27	-8496	2360	14280	73	-79	-192	-15732	1152	-4144	-98	179	-60	-16188	-196	-1276	-57	-2	150	128	126	8
-7204	-2832	13932	-146	158	-220	-16424	1128	-2688	218	70	106	-15928	3280	-1328	257	65	3	-8376	2356	14304	88	-79	-162	-15672	1196	-4016	0	159	-55	-16224	-104	-1284	-51	46	120	126	125	8
-7152	-2680	13916	-125	128	-200	-16404	1120	-2688	50	135	74	-16032	3272	-1304	191	73	33	-8456	2240	14288	57	-87	-208	-15640	1204	-4196	-104	156	-73	-16228	-296	-1284	-5	56	178	129	125	8
-7252	-2764	14024	-143	107	-177	-16468	1032	-2744	69	172	87	-16032	3252	-1540	157	131	28	-8596	2368	14460	73	80	-202	-15696	1192	-4204	-64	139	-69	-16204	-376	-1524	109	65	126	125	128	8
-7176	-2772	14000	-144	151	-171	-16444	1048	-2884	63	181	90	-15976	3212	-1548	161	167	-4	-8408	2372	14360	99	-68	-225	-15676	1148	-4176	116	89	-35	-16180	-296	-1332	215	146	124	126	127	8
-7260	-2740	13960	-113	124	-176	-16368	1068	-2956	123	134	126	-15932	3188	-1656	159	157	58	-8476	2304	14328	136	-20	-167	-15700	1120	-4268	150	110	-27	-16160	-252	-1464	273	115	100	128	125	8
-7168	-2748	14044	-118	122	-178	-16432	1092	-2876	80	112	80	-16028	3288	-1692	205	181	61	-8480	2412	14288	130	-21	-164	-15600	1288	-4168	126	111	-59	-16220	-148	-1300	69	73	142	126	124	8
-7212	-2764	14004	-94	136	-180	-16396	964	-3032	169	95	99	-15936	3232	-1820	164	170	51	-8476	2392	14344	134	-91	-142	-15628	1256	-4048	-26	114	-68	-16272	-100	-1244	-41	12	150	127	125	8
-7188	-2692	13940	-114	151	-194	-16396	1152	-2788	193	42	88	-15960	3184	-1684	329	205	59	-8488	2384	14368	116	-66	-166	-15624	1236	-4080	58	144	-11	-16244	-76	-1208	33	27	100	127	128	8
-7128	-2664	14008	-107	146	-196	-16420	1028	-2928	211	46	80	-16036	3316	-1708	403	199	51	-8464	2508	14276	118	-89	-183	-15708	1240	-4320	-38	189	-39	-16260	-240	-1436	-11	7	165	128	126	8
-7184	-2776	14028	-121	172	-205	-16428	1088	-2724	242	47	99	-15952	3312	-1564	423	182	10	-8492	2336	14332	52	-62	-218	-15712	1288	-4140	-50	158	-4	-16176	-136	-1528	91	48	163	128	127	8
-7212	-2772	14016	-118	135	-191	-16348	1144	-2948	138	46	111	-16100	3316	-1660	298	181	47	-8456	2284	14300	124	61	-145	-15684	1180	-4304	-38	174	-102	-16220	-256	-1592	-13	42	123	127	128	8
-7236	-2724	14076	-118	162	-210	-16320	1068	-2712	118	10	102	-16084	3268	-1468	295	194	56	-8532	2324	14276	82	-15	-199	-15600	1144	-4232	-57	144	-72	-16160	-236	-1464	-44	53	160	131	126	8
-7176	-2796	14036	-156	142	-168	-16400	1084	-2876	18	81	93	-15960	3324	-1760	215	130	62	-8416	2244	14348	74	-37	-146	-15644	1052	-4300	-74	103	-73	-16244	-176	-1384	-51	49	110	127	125	8
-7232	-2764	13932	-107	123	-178	-16412	1104	-2836	30	51	97	-15920	3356	-1624	72	162	-18	-8412	2360	14396	101	-11	-138	-15692	1216	-4352	-74	134	-81	-16172	-176	-1496	-109	63	129	126	127	8
-7224	-2712	14072	-134	163	-204	-16404	1100	-2828	1	53	63	-15976	3392	-1548	-10	109	16	-8416	2408	14236	86	18	-189	-15680	1240	-4420	-104	124	-72	-16268	-224	-1380	-137	87	110	128	127	8
-7168	-2732	13968	-120	172	-175	-16400	992	-2928	-37	48	63	-15956	3268	-1608	15	105	-13	-8464	2344	14244	120	5	-173	-15676	1204	-4252	-65	106	-66	-16288	-372	-1648	-211	33	178	126	125	8
-7236	-2720	13976	-157	174	-176	-16408	1056	-2876	52	60	93	-15900	3216	-1572	11	102	-39	-8456	2332	14356	97	-17	-167	-15612	1176	-4348	-45	106	-58	-16148	-440	-1476	-62	46	138	127	127	8
-7184	-2696	14008	-115	143	-210	-16384	1064	-2892	2	35	94	-15988	3180	-1740	90	197	-27	-8552	2432	14392	134	-13	-174	-15652	1132	-4300	62	94	-21	-16228	-388	-1592	-21	54	135	128	125	8
-7164	-2772	13984	-115	163	-186	-16444	1012	-2904	94	63	100	-16020	3224	-1668	126	161	9	-8628	2576	14244	114	83	-183	-15660	1168	-4396	123	31	-66	-16244	-240	-1572	113	99	111	129	126	8
-7156	-2716	14012	-108	139	-216	-16456	1032	-2820	116	16	120	-16056	3192	-1560	262	138	9	-8488	2320	14256	124	9	-175	-15676	1236	-4196	27	78	-74	-16232	-160	-1376	59	18	125	124	125	8
-7236	-2840	13976	-123	151	-172	-16404	1060	-2916	97	44	159	-15960	3216	-1644	415	134	2	-8504	2372	14292	122	-24	-159	-15612	1132	-4288	32	18	-63	-16264	-256	-1396	-28	-28	106	127	126	8
-7220	-2816	14008	-139	114	-194	-16440	988	-2860	156	102	106	-16008	3236	-1644	346	110	52	-8452	2352	14376	159	-51	-170	-15720	1240	-4292	73	65	-60	-16160	-240	-1376	115	2	138	126	127	8
-7228	-2712	14092	-59	103	-183	-16376	1032	-2800	202	54	119	-15820	3356	-1560	456	52	-26	-8444	2412	14232	117	-31	-160	-15640	1216	-4200	128	26	-66	-16148	-220	-1468	159	24	138	127	125	8
-7204	-2708	14008	-102	142	-187	-16400	1144	-2800	162	78	111	-15932	3308	-1660	379	160	11	-8456	2396	14292	132	-8	-201	-15628	1172	-4100	28	88	-68	-16264	-192	-1480	199	23	140	127	125	8
-7216	-2704	14012	-80	113	-206	-16420	1068	-2884	161	106	71	-15988	3316	-1584	357	130	6	-8484	2340	14368	104	-21	-159	-15576	1208	-4232	-3	99	-104	-16208	-228	-1308	7	31	146	126	126	8
-7128	-2616	14060	-117	134	-178	-16356	1140	-2836	84	106	99	-15884	3480	-1804	170	198	-25	-8484	2304	14256	127	-39	-200	-15588	1192	-4328	66	99	-44	-16216	-160	-1420	64	-12	147	127	126	8
-7096	-2740	14000	-174	183	-198	-16420	932	-2940	71	70	81	-15964	3160	-1808	152	112	-26	-8480	2332	14192	89	-40	-195	-15660	1320	-4368	97	93	-37	-16240	-228	-1456	-8	25	141	129	127	8
-7208	-2752	13988	-136	153	-187	-16308	1048	-2864	202	97	111	-16024	3276	-1676	312	43	-25	-8484	2276	14284	128	-66	-196	-15652	1160	-4372	-4	123	-99	-16216	-172	-1608	-19	-61	108	124	130	8
-7204	-2748	14096	-164	130	-203	-16384	1096	-2972	118	56	88	-16072	3252	-1744	288	117	-8	-8448	2844	14212	138	16	-114	-15648	1228	-4264	60	134	-116	-16284	-208	-1504	33	-4	128	127	127	8
-7188	-2756	14040	-145	157	-200	-16352	1016	-2960	60	58	129	-15892	3176	-2020	143	177	-4	-8504	2332	14424	70	-41	-248	-15748	1248	-4340	-69	129	-57	-16248	-252	-1556	58	21	107	133	126	8
-7288	-2728	13988	-137	146	-177	-16340	1024	-3000	53	28	95	-16012	3180	-1796	214	156	31	-8472	2292	14276	101	-22	-204	-15688	1112	-4396	38	50	-55	-16292	-100	-1780	-8	-95	125	127	126	8
-7272	-2788	13976	-122	135	-188	-16404	1028	-2976	73	12	112	-15884	3312	-1972	162	12	-4	-8504	2324	14312	96	-24	-188	-15572	1156	-4308	70	90	-86	-16272	-284	-1604	60	-15	156	127	128	8
-7228	-2736	14024	-141	139	-173	-16364	1052	-3072	87	27	88	-15940	3228	-1796	150	34	4	-8524	2392	14304	120	-48	-159	-15588	1196	-4324	-61	38	-88	-16268	-252	-1584	45	-5	135	126	125	8
-7260	-2752	13996	-120	148	-183	-16376	1060	-2808	87	-34	90	-16008	3300	-1592	179	113	-10	-8492	2348	14324	94	11	-181	-15620	1200	-4404	-5	33	-58	-16160	-284	-1596	-10	-56	143	126	129	8
-7124	-2780	13916	-135	139	-208	-16376	1032	-2916	92	-20	116	-16008	3168	-1760	125	126	-6	-8492	2388	14368	61	-62	-180	-15636	1200	-4324	-10	49	-51	-16244	-292	-1600	-30	-53	108	127	125	8
-7184	-2740	13980	-118	145	-154	-16404	1032	-2944	133	13	83	-15936	3308	-1780	140	41	-22	-8448	2360	14276	64	-17	-184	-15664	1168	-4380	-13	31	-39	-16188	-264	-1588	-110	-63	117	126	129	8
-7208	-2696	14004	-117	146	-205	-16372	1112	-3104	65	4	110	-15976	3216	-1760	132	57	11	-8472	2376	14308	120	-7	-186	-15648	1240	-4352	13	33	-89	-16208	-296	-1568	-156	-100	107	127	126	8
-7216	-2816	13960	-123	157	-224	-16404	932	-2876	130	15	94	-15964	3296	-1856	89	93	-21	-8444	2356	14232	127	10	-160	-15680	1108	-4468	6	4	-75	-16224	-320	-1636	53	-64	144	126	127	8
-7200	-2740	13940	-81	171	-193	-16384	1060	-2980	149	-30	92	-15936	3100	-1924	187	55	-1	-8532	2336	14396	136	12	-143	-15632	1064	-4428	69	-22	-66	-16220	-340	-1584	81	-99	170	129	128	8
-7204	-2748	14068	-78	159	-198	-16324	1000	-3084	127	2	108	-16020	3308	-1728	348	53	-2	-8476	2332	14376	146	29	-149	-15616	1212	-4500	85	-53	-73	-16244	-228	-1552	153	-76	159	126	130	8
-7228	-2772	13948	-75	154	-177	-16344	1004	-3016	185	-99	105	-15948	3252	-2084	255	-58	33	-8480	2412	14344	104	17	-158	-15604	1160	-4308	82	-50	-68	-16204	-324	-1652	190	-103	106	126	123	8
-7216	-2776	13984	-68	130	-226	-16320	1056	-3004	145	-53	90	-15916	3256	-1812	289	3	33	-8436	2340	14284	89	4	-163	-15660	1160	-4300	101	-107	-40	-16132	-292	-1492	48	-120	197	126	126	8
-7148	-2724	14044	-122	135	-234	-16328	1064	-2944	152	-36	90	-15924	3328	-1748	343	-6	13	-8500	2312	14300	140	-21	-145	-15624	1208	-4280	91	-59	-97	-16184	-208	-1492	135	-112	129	128	124	8
-7244	-2724	14032	-121	136	-231	-16336	1028	-2912	185	-17	109	-15980	3248	-1576	297	33	12	-8464	2360	14320	123	17	-157	-15680	1128	-4220	71	-37	-68	-16304	-252	-1404	55	-80	142	126	124	8
-7168	-2800	13980	-77	143	-192	-16380	960	-2792	191	-1	108	-16020	3256	-1708	288	-24	22	-8548	2436	14304	124	-34	-148	-15696	1256	-4300	-1	-30	-71	-16272	-276	-1452	119	-118	158	127	126	8
-7276	-2824	14140	-100	151	-178	-16348	1032	-2884	211	-13	115	-16012	3292	-1644	282	-32	17	-8488	2368	14328	94	-7	-184	-15616	1132	-4324	6	40	-55	-16184	-292	-1408	-20	-134	188	126	129	8
-7172	-2784	14128	-79	159	-180	-16348	1120	-2932	133	0	70	-15928	3300	-1668	118	-29	18	-8432	2336	14396	144	-34	-190	-15700	1232	-4360	6	8	-53	-16168	-212	-1532	-14	-118	148	129	128	8
-7208	-2776	14032	-62	84	-199	-16340	1060	-2928	76	47	89	-15984	3256	-1768	185	-1	-18	-8468	2364	14376	106	-7	-182	-15576	1184	-4344	-20	21	-64	-16236	-304	-1548	131	-148	116	125	125	8
-7168	-2716	14020	-52	140	-216	-16440	1068	-3000	87	4	83	-16068	3188	-1788	144	-27	-21	-8456	2320	14340	97	-57	-165	-15624	1148	-4384	59	-19	-95	-16132	-288	-1664	195	-158	110	125	124	8
-7276	-2828	13964	-100	140	-182	-16352	1016	-2848	91	-20	112	-15932	3212	-1848	164	-75	-30	-8504	2324	14344	118	-31	-168	-15632	1208	-4352	49	-9	-34	-16220	-288	-1668	122	-80	162	128	125	8
-7140	-2620	14132	-77	106	-197	-16288	1004	-3112	155	46	46	-15900	3320	-1848	199	-82	37	-8464	2368	14444	101	-21	-143	-15608	1024	-4428	-3	-37	-95	-16208	-348	-1536	7	-141	161	125	129	8
-7256	-2784	13948	-95	164	-221	-16440	1008	-3048	148	10	82	-15944	3172	-1864	213	-80	-25	-8420	2404	14368	107	-59	-126	-15664	1172	-4292	82	-46	-56	-16316	-368	-1516	-28	-204	141	128	128	8
-7112	-2728	13992	-105	149	-216	-16360	1004	-3100	210	-17	77	-16040	3212	-1732	371	-106	8	-8380	2368	14388	149	-87	-125	-15696	1216	-4336	-30	-56	-26	-16232	-328	-1656	218	-201	151	126	126	8
-7128	-2756	14044	-126	150	-247	-16412	1016	-3184	247	-82	124	-15984	3312	-2056	351	-100	3	-8452	2348	14236	134	-51	-170	-15724	1196	-4444	20	-73	-77	-16216	-252	-1636	107	-155	155	128	127	8
-7244	-2728	14024	-82	165	-265	-16348	1032	-3052	134	-117	100	-15836	3252	-1928	253	-92	20	-8528	2296	14276	120	-39	-128	-15600	1164	-4328	132	-128	-30	-16164	-268	-1560	70	-137	166	128	126	8
-7204	-2784	14024	-127	181	-204	-16412	1008	-3028	85	-121	139	-16016	3212	-1908	274	-22	30	-8512	2392	14308	129	17	-168	-15660	1216	-4400	38	-129	-63	-16296	-288	-1664	168	-150	147	124	127	8
-7180	-2832	14108	-111	174	-191	-16372	984	-3092	19	-133	89	-16020	3264	-1964	278	-77	37	-8520	2352	14300	132	14	-136	-15640	1148	-4480	58	-163	-89	-16160	-312	-1440	50	-146	145	127	128	8
-7236	-2724	13900	-125	180	-215	-16324	1004	-2948	81	-128	107	-15912	3256	-1744	254	-47	10	-8492	2372	14344	139	-8	-121	-15528	1216	-4256	24	-135	-115	-16184	-312	-1448	-16	-128	142	126	126	8
-7176	-2724	13984	-102	157	-209	-16356	1020	-2892	94	-142	156	-15928	3296	-1588	147	-91	21	-8524	2376	14284	131	-40	-131	-15616	1148	-4240	-58	-107	-55	-16200	-236	-1448	-15	-145	130	127	128	8
-7220	-2728	13976	-104	156	-239	-16432	1072	-2944	53	-119	133	-15884	3200	-1644	153	-42	-13	-8472	2388	14292	111	13	-153	-15704	1072	-4160	-59	-106	-47	-16148	-172	-1344	-212	-241	172	126	125	8
-7200	-2748	13960	-119	161	-252	-16316	1004	-2812	53	-59	113	-15972	3196	-1540	134	-34	7	-8500	2420	14292	126	-52	-140	-15672	1148	-4216	-119	-29	-85	-16148	-292	-1264	-127	-212	175	126	124	8
-7204	-2704	14088	-115	164	-237	-16348	968	-2884	78	-67	124	-15988	3172	-1516	203	-110	-3	-8448	2372	14188	108	-41	-147	-15664	1136	-4116	-128	-52	-83	-16220	-364	-1336	-108	-178	205	125	123	8
-7212	-2864	14060	-87	134	-204	-16328	932	-2808	130	-54	152	-16008	3176	-1500	114	-114	16	-8496	2372	14364	118	-38	-186	-15600	1080	-4288	-15	-8	-38	-16168	-272	-1348	-40	-201	144	127	127	8
-7144	-2756	14032	-88	128	-219	-16364	1044	-2872	43	2	120	-15912	3248	-1616	170	-88	-37	-8448	2384	14384	104	-82	-163	-15660	1144	-4280	-9	-32	-30	-16200	-300	-1404	135	-99	154	126	125	8
-7176	-2740	13992	-80	122	-178	-16392	1040	-2852	18	-23	81	-16000	3184	-1632	136	22	13	-8456	2388	14444	76	-35	-163	-15632	1128	-4336	14	-17	-35	-16216	-336	-1548	101	-157	149	128	124	8
-7144	-2776	13996	-63	112	-172	-16376	952	-2860	65	7	127	-16012	3248	-1660	73	-36	39	-8520	2356	14364	124	-39	-157	-15708	1080	-4324	50	7	-65	-16208	-236	-1552	193	-174	147	127	126	8
-7160	-2768	13924	-89	112	-191	-16316	1012	-2924	81	-5	119	-15960	3244	-1724	226	-48	-8	-8564	2336	14260	108	-26	-163	-15632	1204	-4296	69	-10	-31	-16172	-220	-1500	155	-191	167	128	125	8
-7200	-2784	13908	-118	143	-202	-16348	1044	-2980	78	-13	133	-15976	3272	-1844	216	-64	6	-8540	2304	14344	132	-50	-173	-15608	1180	-4340	-13	-29	-62	-16196	-252	-1480	24	-134	205	128	129	8
-7204	-2764	14060	-88	126	-183	-16420	988	-2944	88	-8	130	-16088	3184	-1656	326	-41	39	-8508	2340	14220	110	-16	-165	-15704	1136	-4336	-45	-5	-86	-16252	-320	-1356	-57	-169	197	128	129	8
-7216	-2752	13996	-77	130	-169	-16416	984	-3032	168	-5	102	-16024	3260	-1868	236	-74	6	-8524	2412	14268	116	-34	-133	-15628	1184	-4468	-36	-34	-33	-16192	-328	-1580	109	-172	152	127	131	8
-7220	-2748	14028	-101	151	-215	-16372	1112	-2888	120	-63	118	-15884	3284	-1828	220	-66	-2	-8488	2352	14240	134	-8	-157	-15616	1084	-4472	5	-76	-9	-16188	-316	-1620	110	-162	154	126	126	8
-7188	-2756	13896	-93	136	-246	-16344	944	-2968	38	-41	149	-15812	3320	-1692	215	-45	36	-8556	2324	14256	125	-14	-123	-15636	1120	-4464	90	-100	-37	-16140	-240	-1508	67	-101	189	124	128	8
-7276	-2724	14112	-90	153	-220	-16376	944	-3104	78	-64	114	-15984	3208	-1780	183	16	40	-8528	2400	14312	134	13	-156	-15684	1224	-4312	26	-80	-37	-16256	-256	-1424	59	-47	164	127	124	8
-7180	-2780	14028	-106	166	-198	-16336	996	-3008	63	-69	121	-16008	3252	-1800	230	-36	6	-8428	2348	14328	144	-25	-159	-15652	1136	-4248	16	-84	-38	-16240	-268	-1396	-23	-133	205	127	126	8
-7196	-2788	14088	-79	121	-236	-16416	1028	-2940	61	-67	173	-15960	3280	-1728	180	-51	3	-8500	2408	14400	118	-68	-171	-15720	1276	-4320	-27	-79	-33	-16208	-236	-1444	-39	-244	173	126	127	8
-7180	-2744	13996	-120	178	-217	-16380	960	-2876	71	-82	137	-15948	3260	-1640	120	-72	39	-8512	2368	14328	119	-56	-160	-15576	1092	-4328	-30	-44	-50	-16252	-288	-1380	-59	-251	171	127	126	8
-7264	-2720	14008	-110	126	-190	-16360	920	-2916	14	-56	116	-16012	3240	-1664	101	11	11	-8504	2424	14244	114	-34	-133	-15672	1176	-4356	-42	-54	-44	-16248	-284	-1384	47	-133	150	128	128	8
-7208	-2740	13940	-103	129	-190	-16384	952	-2920	76	-28	98	-15964	3236	-1496	195	-41	-14	-8508	2388	14332	89	-28	-174	-15640	1124	-4340	-109	-43	-42	-16260	-396	-1404	-43	-114	152	126	127	8
-7208	-2688	14008	-74	111	-194	-16380	1048	-2860	56	-23	137	-16008	3216	-1620	61	-26	39	-8464	2336	14320	157	-8	-144	-15624	1104	-4296	-60	-26	-42	-16280	-372	-1516	47	-154	124	126	124	8
-7220	-2776	13976	-137	149	-186	-16392	1028	-2996	2	-32	122	-16004	3212	-1772	23	-74	23	-8448	2300	14264	131	-29	-156	-15596	1148	-4484	13	-59	-16	-16164	-372	-1600	47	-163	157	127	124	8
-7200	-2696	13952	-68	149	-198	-16340	1036	-2992	20	-26	150	-15912	3184	-1876	117	-86	21	-8556	2364	14192	133	-9	-119	-15532	1148	-4368	17	-99	-7	-16132	-232	-1500	56	-124	159	126	124	8
-7224	-2720	13928	-99	103	-208	-16380	1040	-3048	-25	-52	141	-15956	3124	-1728	185	-40	-4	-8544	2424	14304	122	-76	-131	-15640	1176	-4252	-2	-49	-11	-16200	-264	-1432	75	-104	183	127	127	8
-7224	-2772	13980	-101	123	-228	-16352	948	-2904	93	-85	141	-15968	3260	-1556	246	20	23	-8512	2368	14372	145	-13	-119	-15636	1192	-4188	19	-89	-19	-16200	-248	-1364	11	-183	181	127	125	8
-7224	-2764	14060	-78	122	-217	-16364	1032	-2880	171	-58	144	-16080	3144	-1684	360	-25	79	-8492	2328	14320	98	-40	-194	-15712	1132	-4172	-8	-57	-25	-16300	-304	-1300	-13	-239	176	127	127	8
-7212	-2788	13912	-83	151	-201	-16360	972	-2948	216	-56	161	-15912	3328	-1780	334	-129	72	-8436	2368	14260	127	-29	-186	-15652	1168	-4204	13	-59	-75	-16156	-404	-1336	114	-234	190	127	127	8
-7212	-2724	14080	-118	112	-205	-16328	1036	-2968	195	-34	134	-15932	3240	-1620	375	-107	0	-8508	2372	14268	114	-20	-142	-15648	1160	-4304	32	-58	-10	-16236	-200	-1476	165	-156	171	127	125	8
-7208	-2772	14032	-81	128	-197	-16380	1024	-3004	130	7	150	-16012	3320	-1692	283	-57	45	-8444	2396	14352	141	-39	-143	-15652	1164	-4408	39	-59	-29	-16212	-168	-1536	166	-158	178	128	125	8
-7140	-2792	14032	-93	102	-213	-16348	1008	-2904	78	-16	129	-16036	3360	-1644	288	-84	16	-8508	2364	14384	125	-4	-172	-15644	1220	-4320	58	-38	-35	-16160	-212	-1516	66	-93	185	129	125	8
-7184	-2744	14016	-87	132	-190	-16364	1012	-2908	54	-50	119	-16008	3356	-1568	285	-70	17	-8476	2460	14264	109	-11	-182	-15568	1192	-4116	18	-19	-52	-16180	-204	-1388	-49	-110	222	125	125	8
-7224	-2792	13952	-100	133	-208	-16404	964	-3084	67	-41	116	-15924	3204	-1804	96	-49	31	-8488	2364	14308	106	-36	-169	-15624	1172	-4176	-94	1	-42	-16264	-256	-1424	-94	-209	184	125	126	8
-7196	-2792	14020	-111	126	-179	-16348	1056	-3104	52	-48	140	-15924	3252	-1788	33	-80	23	-8460	2408	14336	99	-71	-169	-15624	1208	-4236	-90	-10	-43	-16228	-276	-1364	-55	-265	181	127	127	8
-7196	-2708	14004	-93	162	-203	-16364	1004	-2952	49	-89	105	-15976	3296	-1844	128	-28	4	-8580	2332	14308	94	-72	-163	-15620	1164	-4316	-60	-2	-25	-16188	-256	-1512	-76	-196	172	128	128	8
-7220	-2736	14032	-108	161	-207	-16408	956	-2840	34	-63	128	-15972	3304	-1748	115	-122	-9	-8428	2376	14256	115	-38	-173	-15664	1212	-4208	-82	-12	-60	-16164	-296	-1508	11	-187	172	127	123	8
-7228	-2732	14056	-96	161	-206	-16372	1072	-2968	40	-81	130	-15968	3184	-1660	122	-90	16	-8520	2276	14396	114	-73	-191	-15636	1168	-4388	-95	-26	-38	-16196	-268	-1568	-116	-223	182	127	125	8
-7192	-2768	14084	-85	140	-226	-16352	988	-2852	61	-97	147	-15916	3188	-1544	127	-71	6	-8488	2296	14376	108	-37	-106	-15688	1240	-4380	-9	-39	-45	-16220	-292	-1536	-43	-186	176	126	130	8
-7168	-2792	13964	-93	116	-240	-16384	1020	-2800	29	-107	103	-15968	3232	-1580	96	-54	-22	-8468	2360	14252	108	-6	-188	-15652	1164	-4384	-49	-27	-58	-16196	-228	-1508	-81	-141	150	129	127	8
-7196	-2840	13956	-103	161	-205	-16368	1000	-2928	37	-63	109	-15988	3248	-1708	93	-39	25	-8440	2432	14308	130	-54	-139	-15696	1144	-4328	-81	-104	-90	-16156	-292	-1408	32	-105	190	125	127	8
-7160	-2808	13972	-47	140	-181	-16400	972	-2800	35	-43	113	-16020	3208	-1492	88	-100	39	-8448	2388	14220	132	8	-131	-15672	1204	-4404	-41	-56	-32	-16252	-236	-1520	-45	-177	181	124	127	8
-7168	-2764	13988	-117	124	-219	-16312	992	-2908	48	-39	111	-15996	3248	-1632	181	-90	47	-8508	2352	14456	111	-26	-169	-15652	1220	-4308	-51	-49	-40	-16176	-324	-1492	49	-157	190	126	125	8
-7180	-2852	14088	-69	139	-256	-16420	936	-2824	109	-8	111	-15988	3224	-1692	170	-127	36	-8432	2336	14340	148	-29	-136	-15684	1144	-4396	8	-90	-39	-16248	-328	-1412	2	-176	174	127	125	8
-7264	-2708	14004	-95	152	-174	-16336	1028	-2860	86	-19	151	-15928	3204	-1620	163	-163	-16	-8520	2308	14356	135	-21	-161	-15612	1112	-4328	56	-106	-24	-16120	-288	-1436	94	-120	200	127	126	8
-7252	-2812	14004	-113	155	-226	-16372	972	-2892	61	-4	117	-16008	3236	-1724	234	-48	23	-8528	2304	14260	156	-37	-153	-15656	1104	-4220	26	-99	-19	-16148	-216	-1412	46	-127	242	125	126	8
-7196	-2788	14004	-81	139	-179	-16436	960	-2936	168	-48	141	-16032	3204	-1772	236	-69	53	-8468	2324	14324	145	-80	-117	-15604	1108	-4204	32	-101	-50	-16268	-204	-1316	110	-146	195	130	127	8
-7236	-2712	14016	-87	150	-187	-16416	1000	-2940	192	-54	162	-15936	3248	-1876	288	-39	51	-8492	2436	14324	157	-36	-166	-15724	1100	-4316	-43	-43	-57	-16344	-224	-1228	75	-183	199	127	125	8
-7220	-2668	13992	-48	151	-205	-16412	1064	-3000	93	-112	151	-15932	3276	-1832	219	-53	31	-8500	2392	14344	72	-49	-154	-15600	1140	-4268	12	-65	-44	-16196	-252	-1264	52	-210	210	127	125	8
-7228	-2788	13996	-105	124	-193	-16380	1012	-2844	25	-58	158	-16008	3256	-1656	281	-50	28	-8504	2424	14296	159	-58	-142	-15764	1212	-4376	50	-84	-28	-16240	-280	-1400	26	-203	224	127	125	8
-7212	-2724	13976	-105	149	-190	-16400	976	-2872	68	-77	160	-15904	3288	-1528	220	-110	9	-8480	2436	14316	172	-35	-137	-15660	1192	-4292	-28	-62	-32	-16224	-288	-1412	-21	-210	169	126	125	8
-7152	-2756	13976	-96	120	-210	-16360	980	-2720	54	-104	150	-16024	3348	-1532	189	-24	10	-8448	2320	14324	137	-29	-185	-15648	1120	-4424	-27	-69	-45	-16244	-212	-1372	49	-194	156	127	126	8
-7168	-2792	14036	-91	130	-204	-16428	1024	-2804	82	-44	148	-16084	3228	-1472	86	-8	16	-8544	2348	14296	144	-28	-142	-15600	1232	-4300	-37	-62	-7	-16220	-276	-1428	-107	-189	200	128	127	8
-7148	-2760	13956	-90	152	-186	-16332	1096	-2820	37	-43	121	-15948	3312	-1620	-3	-95	-1	-8484	2372	14292	156	-29	-119	-15688	1144	-4288	-28	-81	-52	-16208	-192	-1396	-93	-117	176	128	127	8
-7212	-2796	14056	-82	148	-167	-16300	976	-2904	-76	-40	114	-16016	3268	-1724	51	-91	-2	-8512	2356	14296	123	-28	-138	-15636	1200	-4264	-107	-52	-27	-16208	-216	-1432	-49	-102	162	124	123	8
-7160	-2760	14064	-112	149	-213	-16380	1016	-2912	61	-59	126	-15932	3232	-1708	53	-66	-6	-8500	2340	14232	106	3	-179	-15680	1200	-4212	-65	-41	-43	-16196	-284	-1400	3	-108	173	126	125	8
-7204	-2800	13928	-89	133	-204	-16484	980	-2836	58	-40	173	-16000	3220	-1692	200	-56	28	-8424	2320	14396	111	-33	-164	-15656	1052	-4328	-14	-55	-45	-16204	-304	-1452	-19	-177	230	127	126	8
-7204	-2796	13980	-88	146	-207	-16428	1048	-2924	42	-105	150	-15896	3164	-1672	154	-29	43	-8540	2324	14316	145	-46	-117	-15624	1160	-4320	21	-96	-19	-16200	-316	-1320	9	-162	244	128	126	8
-7256	-2784	13940	-131	120	-250	-16424	952	-2832	0	-65	130	-16016	3152	-1680	184	-63	60	-8456	2408	14344	159	-31	-124	-15596	1204	-4240	50	-79	-54	-16224	-180	-1452	0	-205	143	126	124	8
-7168	-2720	14068	-108	101	-202	-16468	968	-2804	106	-87	149	-16032	3196	-1580	304	-24	9	-8528	2412	14432	145	-27	-157	-15736	1140	-4232	20	-93	-38	-16300	-228	-1344	38	-183	200	126	125	8
-7204	-2736	14004	-112	131	-212	-16384	1068	-2880	182	-69	143	-15960	3244	-1556	305	-53	50	-8496	2356	14312	138	-52	-150	-15592	1156	-4252	98	-72	-32	-16212	-128	-1380	167	-208	184	127	126	8
-7220	-2708	13952	-55	110	-221	-16328	1036	-2852	131	-84	176	-16036	3416	-1632	262	-24	27	-8424	2344	14280	145	-4	-156	-15616	1208	-4164	64	-66	-52	-16264	-228	-1304	-2	-174	165	125	125	8
-7204	-2704	13984	-76	98	-204	-16460	1052	-2728	73	-36	101	-16048	3288	-1520	297	-64	42	-8448	2420	14408	107	-39	-151	-15664	1244	-4148	-55	-81	-54	-16220	-264	-1336	84	-137	197	128	126	8
-7168	-2852	14012	-81	160	-229	-16372	1008	-2928	89	-71	147	-15996	3284	-1600	230	-100	45	-8464	2360	14304	111	9	-151	-15684	1180	-4176	-36	-34	-15	-16248	-344	-1316	143	-172	199	127	125	8
-7240	-2752	13956	-124	156	-227	-16400	932	-2860	89	-38	157	-16016	3256	-1492	174	-81	21	-8480	2320	14264	127	-28	-141	-15628	1168	-4316	5	-56	-41	-16204	-188	-1488	-19	-163	209	127	125	8
-7204	-2752	14056	-91	146	-222	-16348	992	-2856	102	-15	130	-16000	3244	-1628	142	-1	26	-8440	2312	14264	127	-7	-148	-15684	1192	-4292	17	-80	-49	-16224	-204	-1428	-3	-168	151	127	126	8
-7260	-2748	13964	-59	122	-216	-16392	924	-2944	57	-43	143	-15928	3288	-1696	109	-42	5	-8492	2384	14332	93	-10	-146	-15668	1184	-4336	-31	-48	-68	-16160	-244	-1412	-61	-160	144	127	127	8
-7208	-2780	13980	-113	142	-215	-16416	1104	-2864	20	-27	142	-16044	3316	-1644	109	-65	17	-8488	2396	14284	112	-76	-138	-15700	1240	-4100	38	-61	-41	-16244	-124	-1336	69	-154	163	128	127	8
-7164	-2684	14032	-97	146	-230	-16384	972	-2928	23	-104	132	-16016	3228	-1684	137	-29	45	-8452	2408	14292	120	5	-118	-15648	1236	-4092	-21	-48	-12	-16184	-248	-1380	52	-118	153	127	124	8
-7232	-2760	13956	-74	163	-210	-16392	1060	-2836	51	-89	185	-15992	3168	-1552	109	-76	37	-8448	2364	14340	114	-42	-155	-15636	1120	-4272	8	-83	-51	-16196	-184	-1264	-31	-161	194	127	125	8
-7176	-2796	14032	-117	150	-238	-16404	996	-2840	92	-97	151	-15968	3232	-1616	132	-49	24	-8460	2408	14336	168	-11	-148	-15664	1228	-4232	30	-28	-37	-16272	-212	-1376	9	-103	206	127	130	8
-7240	-2804	13996	-110	166	-214	-16360	1032	-2780	36	-32	130	-16008	3256	-1596	147	12	28	-8492	2356	14320	133	-14	-138	-15628	1164	-4208	-62	-60	-56	-16196	-212	-1324	-29	-158	166	126	126	8
-7224	-2748	14036	-92	127	-229	-16448	1000	-2788	81	-76	139	-16024	3280	-1484	136	4	29	-8480	2328	14392	146	-2	-159	-15700	1184	-4140	-31	-60	-81	-16196	-224	-1336	-14	-165	208	126	127	8
-7164	-2756	14008	-64	146	-218	-16380	1104	-2848	65	-41	171	-16008	3252	-1592	139	-14	8	-8496	2376	14320	122	-31	-161	-15652	1224	-4224	-51	-57	-37	-16208	-172	-1360	44	-132	172	126	124	8
-7228	-2804	14024	-82	125	-168	-16420	1024	-2764	35	-52	110	-15964	3376	-1488	155	-50	-3	-8460	2376	14296	140	-35	-152	-15652	1204	-4172	19	-45	-46	-16228	-88	-1296	100	-64	135	127	126	8
-7156	-2796	13976	-113	138	-207	-16372	1080	-2864	26	-24	105	-16012	3348	-1468	140	-14	-38	-8528	2448	14408	136	-18	-157	-15588	1288	-4264	-8	-5	-38	-16240	-112	-1360	159	-48	164	128	124	8
-7216	-2708	14040	-98	143	-180	-16420	1088	-2836	61	-1	113	-16060	3464	-1560	156	-75	-22	-8496	2304	14264	128	-11	-146	-15640	1216	-4252	-15	-42	-71	-16180	-132	-1388	77	-77	172	125	124	8
-7180	-2760	14084	-129	164	-230	-16464	1116	-2908	112	-22	99	-15984	3400	-1676	191	-8	-50	-8496	2388	14268	100	-20	-210	-15632	1328	-4168	18	-55	-116	-16160	-164	-1436	73	-96	139	125	128	8
-7212	-2772	14096	-115	145	-239	-16464	1064	-3044	2	-48	96	-15996	3412	-1760	150	48	-18	-8508	2372	14396	121	-115	-163	-15640	1216	-4252	23	-28	-131	-16132	-192	-1364	23	-136	104	127	128	8
-7180	-2720	13884	-183	196	-212	-16420	1132	-2980	-62	-80	72	-15904	3260	-1668	146	61	-62	-8512	2408	14272	89	-74	-195	-15640	1212	-4296	37	-37	-145	-16056	-120	-1184	-59	-107	97	126	124	8
-7188	-2748	14072	-136	176	-200	-16280	996	-2960	-61	-86	83	-15972	3224	-1712	92	68	-63	-8444	2400	14296	101	-124	-157	-15648	1196	-4188	41	-7	-136	-16172	-228	-1280	-23	-111	104	126	127	8
-7244	-2640	14036	-147	180	-233	-16420	1012	-2940	40	-107	81	-15960	3304	-1652	121	77	-56	-8472	2444	14384	69	-79	-177	-15720	1220	-4156	-3	0	-153	-16236	-244	-1036	-46	-142	83	127	123	8
-7216	-2804	14016	-181	189	-220	-16436	1020	-2800	-21	-93	76	-16048	3224	-1516	138	38	-99	-8480	2400	14364	80	-117	-202	-15612	1120	-4176	49	7	-77	-16244	-256	-1216	-30	-79	72	127	123	8
-7212	-2800	13976	-165	193	-195	-16428	924	-2748	-24	-94	78	-16084	3256	-1632	89	44	-35	-8528	2412	14292	72	-42	-159	-15672	1148	-4164	-24	45	-112	-16248	-236	-1296	82	-95	66	127	127	8
-7192	-2768	14012	-144	174	-209	-16364	952	-2868	-70	-68	85	-15984	3076	-1504	83	90	-30	-8492	2412	14364	73	-57	-156	-15596	1128	-4240	-108	43	-99	-16228	-328	-1368	37	-47	106	126	125	8
-7280	-2840	13920	-134	201	-205	-16392	928	-2848	-65	-39	96	-15960	3140	-1496	15	72	-37	-8528	2324	14296	88	-36	-148	-15676	1100	-4420	-58	62	-100	-16228	-360	-1444	-88	-53	163	126	124	8
-7256	-2760	14000	-117	167	-201	-16364	944	-2820	-77	-22	101	-16028	3152	-1528	11	102	-62	-8496	2380	14304	114	-44	-172	-15580	1084	-4296	38	7	-70	-16232	-420	-1440	-54	-68	107	125	125	8
-7228	-2780	13964	-89	149	-194	-16368	996	-2768	-116	-53	109	-15980	3112	-1556	10	59	-15	-8508	2412	14300	84	-46	-163	-15648	1148	-4244	-18	-45	-66	-16292	-464	-1512	-30	-99	123	125	125	8
-7192	-2748	13976	-123	125	-174	-16384	900	-2772	-30	-4	139	-16056	3012	-1384	43	86	24	-8548	2324	14344	81	-31	-135	-15628	1024	-4352	32	-33	-1	-16188	-444	-1444	-51	-127	169	125	125	8
-7224	-2856	13980	-76	93	-196	-16304	892	-2712	110	13	174	-16040	2996	-1460	246	75	22	-8560	2324	14360	124	-15	-178	-15688	1040	-4248	101	-31	-25	-16256	-440	-1332	57	-117	190	124	124	8
-7156	-2772	13960	-85	113	-183	-16340	968	-2788	204	-26	190	-16052	3020	-1520	344	7	68	-8472	2368	14284	113	-43	-154	-15700	1120	-4204	125	-59	37	-16300	-448	-1216	48	-82	192	126	125	8
-7252	-2740	14000	-42	126	-213	-16436	964	-2772	252	14	202	-15904	2992	-1564	430	94	116	-8548	2392	14272	125	-20	-192	-15728	1112	-4244	50	-34	3	-16272	-384	-1304	267	-105	231	125	127	8
-7276	-2824	13924	-62	93	-200	-16424	984	-2788	278	70	216	-15956	3216	-1560	515	66	99	-8548	2356	14340	123	31	-147	-15660	1100	-4220	122	-43	18	-16116	-368	-1304	331	-37	227	124	126	8
-7176	-2780	14008	-14	134	-202	-16332	1028	-2720	284	73	166	-16060	3108	-1544	505	80	144	-8492	2368	14308	139	-20	-158	-15628	1120	-4280	196	-35	66	-16180	-244	-1240	261	-39	246	126	125	8
-7228	-2780	13944	-52	128	-172	-16392	1080	-2672	246	107	192	-16004	3244	-1524	512	61	127	-8380	2428	14284	118	-11	-151	-15680	1200	-4204	148	-14	82	-16256	-192	-1284	222	-20	262	125	125	8
-7232	-2792	13968	-24	149	-168	-16392	1076	-2896	164	108	241	-16028	3288	-1576	430	165	132	-8448	2380	14248	87	-38	-174	-15660	1176	-4136	45	21	32	-16296	-160	-1216	169	-35	218	125	128	8
-7256	-2768	14004	-36	114	-128	-16388	1016	-2872	122	54	220	-15928	3256	-1752	295	121	94	-8472	2428	14368	70	-2	-201	-15664	1188	-4288	5	68	69	-16264	-136	-1044	126	-36	248	125	125	8
-7176	-2804	13980	-31	117	-170	-16404	1028	-2972	86	84	242	-16024	3352	-1748	153	38	92	-8420	2300	14324	86	-14	-182	-15648	1120	-4292	60	48	55	-16204	-244	-1308	-3	-31	234	127	124	8
-7224	-2720	14032	1	127	-168	-16372	1060	-2748	30	70	226	-15948	3408	-1712	92	78	107	-8496	2360	14328	97	-17	-158	-15608	1236	-4292	29	65	22	-16228	-80	-1332	-131	-52	222	126	125	8
-7232	-2800	14060	-59	98	-187	-16432	1076	-3056	-21	58	193	-15916	3380	-1696	-66	79	74	-8492	2356	14352	91	-17	-175	-15716	1316	-4368	-141	89	57	-16168	-84	-1560	-136	-82	210	126	124	8
-7256	-2732	14020	-47	104	-166	-16348	1096	-3080	-43	39	157	-15900	3352	-1700	-62	74	42	-8484	2360	14340	84	37	-171	-15644	1216	-4220	-121	80	9	-16040	-48	-1364	-174	-30	249	126	127	8
-7176	-2760	14008	-111	99	-204	-16440	1140	-2936	-33	41	188	-16004	3260	-1660	-47	108	63	-8536	2388	14428	104	-89	-194	-15628	1308	-4296	-75	29	-1	-16168	-80	-1496	-74	-22	160	126	130	8
-7136	-2704	14088	-83	122	-203	-16412	1104	-2788	54	41	158	-16048	3388	-1540	104	87	85	-8420	2412	14296	75	-17	-157	-15624	1224	-4228	-48	77	-14	-16276	-112	-1368	-133	-55	179	124	123	8
-7092	-2732	14036	-92	136	-192	-16400	1080	-2860	108	42	128	-15944	3324	-1580	201	30	18	-8512	2344	14256	109	-55	-178	-15608	1256	-4332	7	44	-52	-16224	-160	-1604	11	-59	158	123	125	8
-7228	-2748	13988	-76	137	-188	-16344	1064	-2888	169	16	157	-15984	3316	-1492	284	55	23	-8564	2316	14372	93	-9	-174	-15588	1196	-4368	45	3	-47	-16224	-132	-1532	52	-84	169	124	124	8
-7180	-2720	14060	-84	133	-174	-16356	1092	-2840	135	41	113	-15912	3364	-1580	299	126	5	-8508	2432	14412	103	-14	-203	-15584	1268	-4400	116	20	-68	-16256	-100	-1352	25	-67	142	124	126	8
-7212	-2800	14060	-78	170	-213	-16388	1084	-2868	164	48	77	-15952	3376	-1556	341	124	-44	-8516	2396	14348	131	-10	-181	-15664	1300	-4364	84	15	-89	-16228	-60	-1472	208	-57	195	123	125	8
-7220	-2756	13980	-113	189	-217	-16360	1088	-2876	151	24	100	-16028	3436	-1620	372	48	-5	-8488	2348	14208	127	-76	-177	-15684	1244	-4220	31	44	-100	-16164	-88	-1360	224	-60	129	123	123	8
-7224	-2728	14008	-137	175	-190	-16360	1040	-2956	176	51	40	-16000	3364	-1708	334	75	-38	-8524	2372	14296	123	-72	-190	-15652	1188	-4356	44	20	-98	-16276	-132	-1356	152	-37	81	124	124	8
-7240	-2740	14008	-145	159	-263	-16416	1008	-2956	198	35	21	-15972	3348	-1736	260	23	-57	-8476	2352	14328	8	-102	-210	-15632	1192	-4248	12	71	-165	-16224	-176	-1464	32	-82	71	123	125	8
-7124	-2708	14016	-139	134	-202	-16412	1124	-2948	119	27	42	-15904	3224	-1820	204	136	-55	-8524	2372	14324	30	-57	-196	-15660	1252	-4328	6	56	-132	-16184	-176	-1316	57	-61	79	124	123	8
-7228	-2792	14052	-150	132	-210	-16460	1032	-2992	46	32	49	-15980	3356	-1708	174	87	-53	-8472	2284	14264	8	-111	-205	-15620	1116	-4288	-20	79	-123	-16236	-284	-1472	27	-64	89	124	127	8
-7280	-2824	14056	-134	195	-211	-16400	1032	-2908	11	12	37	-15976	3184	-1648	62	89	-56	-8472	2320	14252	35	-71	-181	-15640	1136	-4304	-6	67	-126	-16176	-340	-1352	-148	-76	99	125	126	8
-7148	-2800	14040	-116	148	-205	-16368	1004	-2940	40	16	36	-15948	3148	-1832	46	87	-110	-8516	2360	14244	47	-129	-213	-15592	1120	-4196	-52	93	-124	-16252	-312	-1408	-145	-64	66	125	123	8
-7132	-2812	14028	-124	175	-211	-16392	980	-2984	5	21	57	-16084	3116	-1612	78	53	-43	-8432	2324	14320	45	-91	-202	-15664	1208	-4196	-78	86	-123	-16268	-284	-1228	-197	-77	60	125	127	8
-7188	-2752	13952	-102	128	-177	-16404	984	-2728	-4	28	66	-15996	3216	-1680	91	-1	-49	-8448	2380	14268	87	-96	-207	-15628	1168	-4364	-157	149	-111	-16240	-300	-1480	-102	-87	96	125	123	8
-7212	-2740	14028	-92	137	-198	-16360	996	-2884	-61	34	69	-16004	3156	-1752	-9	32	-13	-8548	2324	14312	54	-52	-176	-15644	1104	-4444	-191	88	-89	-16256	-436	-1480	-85	-28	105	124	126	8
-7188	-2760	14036	-115	132	-192	-16428	940	-3000	-51	48	86	-15936	3132	-1700	13	48	-30	-8444	2408	14436	111	-14	-186	-15620	1084	-4400	-39	99	-59	-16164	-480	-1544	-43	-17	163	126	126	8
-7212	-2752	13996	-123	157	-197	-16388	968	-2868	-12	16	65	-15928	3160	-1680	50	67	2	-8508	2372	14320	103	-10	-159	-15664	1212	-4288	18	124	-36	-16200	-404	-1376	-104	-144	151	125	126	8
-7220	-2808	13940	-86	120	-217	-16376	1060	-2960	-17	44	92	-16016	3124	-1684	58	57	14	-8492	2392	14296	131	-17	-178	-15616	1108	-4372	-78	17	-50	-16116	-320	-1756	92	-126	108	125	126	8
-7212	-2748	13936	-89	121	-194	-16320	1040	-3008	47	-23	107	-15884	3068	-1732	97	20	-4	-8528	2316	14220	156	-32	-140	-15612	1176	-4416	26	18	-35	-16148	-344	-1664	76	-91	169	123	125	8
-7200	-2752	13948	-150	126	-201	-16352	964	-2988	78	-28	126	-15948	3156	-1736	249	7	-24	-8512	2344	14340	182	-35	-147	-15688	1192	-4396	85	-25	-58	-16224	-244	-1700	-2	-75	132	126	125	8
-7148	-2780	13992	-128	142	-201	-16396	976	-2932	76	38	156	-16028	3152	-1684	260	36	17	-8468	2384	14260	167	27	-151	-15652	1184	-4432	15	-26	-92	-16252	-296	-1288	-91	-2	155	125	124	8
-7200	-2756	14072	-93	131	-188	-16356	1056	-2884	104	33	151	-15956	3168	-1688	340	91	-8	-8452	2352	14312	104	-47	-144	-15544	1192	-4248	-4	-7	-36	-16236	-288	-1480	32	-25	153	125	126	8
-7228	-2768	13968	-83	123	-179	-16392	952	-2936	122	6	143	-16036	3292	-1528	260	-56	25	-8476	2364	14296	77	-20	-166	-15632	1188	-4352	26	-40	-19	-16284	-280	-1392	54	-154	126	125	126	8
-7204	-2716	14024	-86	142	-196	-16392	1040	-3016	65	-47	128	-15848	3232	-1760	220	20	-14	-8508	2268	14284	77	11	-175	-15644	1156	-4216	28	-41	-45	-16160	-280	-1588	20	-132	176	125	127	8
-7256	-2808	14064	-90	143	-164	-16428	984	-2900	27	3	98	-15992	3220	-1772	151	77	32	-8492	2332	14284	100	3	-201	-15572	1208	-4496	20	-32	-53	-16200	-208	-1504	63	-111	138	126	122	8
-7140	-2784	13956	-99	127	-194	-16392	1072	-2920	38	0	104	-15968	3208	-1780	127	19	14	-8452	2332	14404	58	-31	-167	-15616	1164	-4344	18	-33	-43	-16180	-292	-1540	116	-46	112	126	125	8
-7284	-2792	13944	-87	140	-191	-16432	1028	-3008	86	-11	122	-15996	3108	-1704	126	-15	38	-8436	2328	14308	92	-44	-156	-15624	1188	-4468	-14	-38	-48	-16232	-252	-1556	111	-60	142	126	127	8
-7220	-2724	14000	-81	128	-204	-16392	956	-2956	70	-52	147	-15892	3160	-1764	149	-19	10	-8516	2276	14380	117	-71	-155	-15628	1168	-4372	25	-59	-43	-16236	-308	-1476	40	-91	168	127	127	8
-7196	-2784	14008	-90	160	-213	-16320	996	-3080	86	8	139	-16000	3160	-1636	191	79	-18	-8472	2372	14428	113	-48	-141	-15668	1120	-4392	42	-35	-46	-16216	-328	-1552	17	-184	221	125	126	8
-7184	-2852	13968	-52	125	-181	-16404	940	-2852	102	-20	129	-15992	3212	-1648	218	-71	8	-8556	2316	14196	104	-22	-151	-15576	1196	-4396	7	-13	-14	-16200	-292	-1360	102	-143	192	127	127	8
-7164	-2796	14040	-85	127	-172	-16380	1060	-2992	84	4	146	-15924	3152	-1740	277	-7	12	-8504	2372	14460	119	-22	-157	-15604	1208	-4232	103	-31	-46	-16204	-284	-1200	98	-67	186	125	127	8
-7212	-2780	14100	-59	138	-232	-16424	1012	-2964	167	-17	170	-16016	3196	-1632	415	9	-23	-8504	2408	14292	141	-69	-137	-15692	1264	-4144	49	-47	-25	-16272	-328	-1532	66	-91	153	125	129	8
-7244	-2832	14012	-83	140	-195	-16332	1052	-2980	141	23	167	-15912	3220	-1732	306	-2	43	-8504	2340	14344	142	-14	-182	-15612	1164	-4384	68	-28	-34	-16196	-188	-1492	200	-160	202	127	128	8
-7120	-2748	13972	-46	128	-179	-16396	1108	-3188	126	-13	142	-16024	3280	-1524	384	-93	48	-8432	2344	14356	116	-52	-173	-15580	1128	-4408	55	-30	-24	-16224	-184	-1488	121	-158	194	126	128	8
-7124	-2632	14108	-97	119	-184	-16376	1016	-2800	56	21	126	-16068	3256	-1664	230	-2	15	-8528	2412	14360	164	-48	-171	-15684	1160	-4456	62	-45	-41	-16172	-312	-1472	173	-96	181	128	127	8
-7272	-2800	14072	-77	136	-152	-16244	1000	-2944	280	8	139	-15964	3180	-1692	337	9	27	-8432	2368	14196	163	-13	-167	-15680	1128	-4332	37	-27	-17	-16212	-200	-1364	107	-97	191	127	125	8
-7256	-2760	14072	-57	141	-178	-16428	1004	-3064	123	-4	136	-15976	3276	-1944	305	-28	11	-8420	2400	14292	109	-41	-183	-15764	1148	-4464	-9	-55	-30	-16216	-280	-1484	173	-128	153	126	127	8
-7192	-2764	13932	-83	138	-189	-16344	988	-2932	126	-64	118	-16008	3216	-1800	142	-55	-24	-8528	2340	14376	90	18	-155	-15648	1156	-4492	31	-59	-45	-16204	-296	-1752	131	-173	177	128	126	8
-7252	-2752	13996	-83	175	-168	-16384	1028	-3108	37	-64	120	-15956	3164	-2124	124	41	26	-8444	2384	14308	121	42	-173	-15676	1132	-4368	47	-107	-43	-16188	-200	-1460	101	-87	182	127	126	8
-7300	-2820	13948	-146	158	-206	-16388	1004	-3204	33	-101	155	-15916	3168	-2096	74	142	68	-8484	2272	14268	130	-6	-169	-15636	1164	-4384	60	-112	-75	-16184	-264	-1384	-29	-24	188	128	127	8
-7188	-2760	14048	-140	173	-215	-16396	1012	-3100	23	-179	140	-15968	3140	-1952	142	103	-4	-8452	2324	14288	102	7	-84	-15688	1196	-4280	34	-112	-34	-16240	-148	-1408	-34	-24	137	127	130	8
-7232	-2800	13968	-105	169	-211	-16304	1020	-3004	10	-204	176	-15892	3108	-1844	215	160	33	-8496	2384	14268	168	33	-116	-15644	1160	-4288	-11	-128	-45	-16288	-284	-1148	-74	6	178	127	127	8
-7240	-2760	13984	-93	151	-206	-16400	952	-2836	2	-152	106	-15924	3160	-1488	236	153	49	-8552	2328	14316	119	60	-173	-15668	1168	-4152	35	-79	-13	-16188	-320	-1172	-16	-38	138	128	129	8
-7160	-2704	14068	-111	112	-235	-16324	968	-2716	-20	-138	204	-16108	3156	-1268	179	179	70	-8516	2272	14372	182	21	-141	-15612	1136	-4264	56	-33	0	-16132	-340	-1208	34	-45	195	126	126	8
-7228	-2800	14108	-120	145	-203	-16304	904	-2652	168	-59	158	-16080	3184	-1284	131	159	115	-8496	2392	14332	170	9	-170	-15648	1156	-4092	94	20	-20	-16228	-244	-1064	42	-30	168	126	128	8
-7176	-2832	13972	-73	116	-218	-16304	1060	-2664	138	82	157	-16008	3244	-1168	274	-3	5	-8448	2372	14340	194	-46	-181	-15660	1256	-4264	20	104	-31	-16240	-192	-1236	178	-80	176	127	125	8
-7236	-2812	13960	-77	120	-181	-16368	972	-2720	148	132	151	-16092	3168	-1192	334	42	46	-8472	2448	14352	162	-39	-189	-15600	1188	-4116	48	76	-19	-16248	-196	-1324	264	-66	227	127	126	8
-7252	-2820	14008	-10	110	-143	-16376	1008	-2804	190	172	99	-16012	3192	-1448	253	27	36	-8552	2404	14316	173	-56	-174	-15588	1132	-4384	103	128	4	-16172	-248	-1540	158	-138	187	127	129	8
-7188	-2764	14012	-25	90	-147	-16364	1112	-2920	143	226	99	-15976	3208	-1804	211	-59	26	-8552	2364	14268	55	-48	-271	-15664	1188	-4416	80	91	-9	-16208	-240	-1460	154	-132	196	128	127	8
-7216	-2800	13968	0	70	-169	-16404	1040	-3012	113	233	108	-15960	3236	-1972	241	36	12	-8472	2416	14264	46	-72	-217	-15676	1144	-4468	38	101	-14	-16300	-280	-1608	36	-180	220	127	124	8
-7152	-2764	14008	-50	122	-127	-16316	1024	-3012	157	152	133	-15988	3208	-1980	209	-55	12	-8496	2296	14284	92	-45	-221	-15648	1184	-4372	29	52	-27	-16208	-312	-1780	129	-191	154	127	128	8
-7264	-2820	14056	-45	111	-199	-16420	1012	-3108	113	196	100	-16016	3292	-1972	213	-24	19	-8404	2212	14192	32	-62	-151	-15656	1140	-4528	31	55	-34	-16152	-220	-1752	85	-196	156	128	126	8
-7164	-2740	14100	-78	141	-199	-16384	948	-3196	88	100	133	-15924	3100	-2360	196	-6	38	-8484	2416	14364	72	-9	-152	-15624	1144	-4476	113	-31	-21	-16188	-244	-1660	145	-82	162	128	124	8
-7288	-2752	14032	-90	123	-203	-16348	972	-3264	134	35	114	-15984	3208	-2244	292	12	23	-8512	2360	14372	113	11	-187	-15612	1212	-4532	60	-33	-26	-16204	-128	-1636	118	-32	135	126	128	8
-7188	-2748	13952	-73	142	-184	-16372	1012	-3260	159	-110	166	-15832	3168	-2180	307	71	-3	-8464	2280	14244	98	6	-125	-15572	1184	-4464	34	-69	-8	-16200	-260	-1592	78	-68	157	127	127	8
