#Activity	standing 
#ActivityID	8 
#Date 09-23-17-00
acc_rf_x	acc_rf_y	acc_rf_z	gyro_rf_x	gyro_rf_y	gyro_rf_z	acc_rs_x	acc_rs_y	acc_rs_z	gyro_rs_x	gyro_rs_y	gyro_rs_z	acc_rt_x	acc_rt_y	acc_rt_z	gyro_rt_x	gyro_rt_y	gyro_rt_z	acc_lf_x	acc_lf_y	acc_lf_z	gyro_lf_x	gyro_lf_y	gyro_lf_z	acc_ls_x	acc_ls_y	acc_ls_z	gyro_ls_x	gyro_ls_y	gyro_ls_z	acc_lt_x	acc_lt_y	acc_lt_z	gyro_lt_x	gyro_lt_y	gyro_lt_z	EMG_r	EMG_l	act
-9948	-4344	11592	-11	16	-24	-16576	1296	-752	4	3	14	-14944	2720	-5784	19	2	3	-9440	4024	13072	14	-10	-17	-15896	-2888	24	3	-4	-7	-15408	-1192	-5072	-1	-11	18	127	119	8
-9868	-4368	11576	-14	17	-29	-16768	1392	-696	2	-2	19	-14944	2640	-5864	20	3	7	-9416	4000	13128	16	-8	-19	-15816	-3280	176	-4	-5	-4	-15328	-1392	-5032	2	-7	18	127	119	8
-9908	-4336	11612	-10	14	-22	-16624	1240	-504	10	-3	18	-14840	2776	-5680	24	2	3	-9456	4032	12904	22	-7	-24	-15752	-3200	112	-5	-7	-8	-15152	-1392	-5096	3	-3	16	128	119	8
-9920	-4352	11576	-8	13	-21	-16776	1352	-496	15	1	16	-14992	2688	-5656	21	6	2	-9536	4032	13128	16	-8	-20	-15840	-3336	-32	8	-7	-7	-15280	-1424	-4976	6	-9	15	127	118	8
-9928	-4256	11752	-15	13	-22	-16536	1208	-632	11	-1	14	-14776	2856	-5720	24	3	5	-9448	4096	13256	16	1	-21	-15952	-3040	8	14	-8	-8	-15512	-1368	-5088	1	-11	14	127	119	8
-9952	-4320	11544	-12	15	-22	-16584	1264	-736	11	0	17	-14872	2768	-5832	24	3	4	-9376	3960	13256	19	-11	-18	-15776	-3224	176	9	-5	-3	-15344	-1288	-5056	1	-10	18	127	119	8
-9944	-4304	11752	-11	16	-26	-16648	1344	-880	13	4	13	-14832	2776	-5800	22	5	5	-9448	3968	12832	18	-5	-26	-15912	-3208	272	-6	0	-5	-15304	-1376	-5120	5	-15	19	127	119	8
-9908	-4356	11628	-11	16	-26	-16544	1096	-672	11	-4	14	-14896	2688	-5776	32	-2	5	-9440	3984	13040	15	-8	-22	-15728	-3080	192	-19	-3	-2	-15432	-1376	-4800	-4	-16	20	127	120	8
-9928	-4356	11684	-9	19	-24	-16640	1320	-520	19	1	13	-14968	2672	-5768	32	-3	5	-9496	4048	13112	18	-7	-25	-15864	-3240	56	-18	2	-6	-15160	-1264	-4856	-1	-10	18	127	120	8
-9948	-4312	11612	-14	18	-23	-16624	1232	-512	15	-2	17	-14968	2728	-5824	32	4	4	-9376	3936	13192	16	-9	-23	-15912	-3152	-48	-9	2	-7	-15328	-1432	-5024	4	-4	19	127	121	8
-9888	-4304	11652	-11	15	-23	-16600	1168	-792	17	1	13	-14896	2712	-5648	25	3	8	-9432	4136	13184	18	-1	-22	-15792	-3168	264	-9	1	-6	-15280	-1344	-5032	-3	-7	19	127	119	8
-9904	-4388	11668	-10	17	-20	-16448	1144	-496	9	3	9	-15008	2808	-5592	22	-6	4	-9432	4000	13280	23	-3	-23	-15920	-3240	-72	-1	-3	-9	-15280	-1304	-5048	5	-13	18	127	119	8
-9968	-4328	11648	-7	15	-21	-16568	1168	-784	14	2	18	-14856	2848	-5728	20	-1	1	-9408	4048	13032	17	-8	-21	-15944	-3352	208	0	1	-5	-15368	-1368	-4664	-3	-15	18	127	119	8
-9980	-4328	11716	-11	16	-25	-16560	1224	-688	9	0	15	-14904	2808	-5752	18	10	5	-9464	3848	13128	20	-3	-19	-15656	-3240	-56	-8	2	0	-15352	-1248	-4992	-2	-18	19	127	120	8
-9916	-4300	11700	-11	14	-25	-16544	1192	-800	7	3	18	-14760	2696	-5728	21	-1	2	-9440	3952	13160	20	-4	-18	-16040	-3024	-32	-17	2	0	-15464	-1424	-5096	-5	-15	20	127	119	8
-9980	-4300	11616	-10	15	-28	-16568	1352	-624	7	1	18	-14976	2696	-5816	21	-5	2	-9528	4088	13200	13	-8	-21	-15840	-3136	152	-9	1	-4	-15304	-1328	-5112	-1	-13	21	127	119	8
-9952	-4276	11632	-8	17	-24	-16648	1232	-968	7	-4	17	-14944	2776	-5704	22	2	5	-9400	4216	13168	16	-10	-23	-15912	-3200	232	-12	-1	-2	-15360	-1320	-4920	-3	-5	17	127	117	8
-9960	-4332	11604	-15	13	-19	-16528	1240	-512	3	-5	15	-14944	2712	-5720	22	4	7	-9376	3992	13216	20	0	-25	-15816	-3120	120	-9	-5	-4	-15296	-1216	-5056	4	-5	15	127	118	8
-9908	-4276	11692	-15	16	-25	-16672	1272	-728	13	2	19	-14984	2776	-5720	25	-3	10	-9440	3912	13320	20	-3	-24	-15808	-3016	24	-24	-12	-1	-15416	-1200	-5200	-5	-11	19	127	121	8
-9888	-4368	11564	-13	14	-29	-16608	1136	-696	20	-2	20	-14992	2552	-5520	24	4	7	-9440	4048	13128	22	0	-26	-15808	-3136	80	-31	-8	-9	-15288	-1288	-5432	-11	-13	15	127	118	8
-9912	-4348	11656	-10	15	-24	-16528	1200	-496	37	-5	19	-14888	2624	-5760	39	5	9	-9480	4040	13072	17	-5	-22	-15728	-3224	-80	-8	-5	-6	-15376	-1344	-5048	-5	-14	16	127	120	8
-9900	-4348	11596	-14	16	-24	-16656	1232	-488	37	-1	18	-14936	2832	-5824	34	4	9	-9400	4080	13072	14	-9	-20	-15824	-3272	288	3	-5	-5	-15416	-1376	-5024	5	-14	16	127	120	8
-9968	-4352	11560	-10	14	-28	-16592	1304	-904	16	-5	21	-14936	2720	-5600	31	6	10	-9464	4096	13168	13	-4	-23	-15888	-3072	264	5	-1	-7	-15352	-1216	-5104	5	-14	21	127	119	8
-9912	-4328	11704	-17	14	-24	-16608	1240	-496	7	-1	13	-14904	2816	-5760	23	0	3	-9496	4096	13080	11	0	-17	-15928	-3352	208	-1	-1	-5	-15272	-1480	-5096	9	-7	27	127	119	8
-9964	-4312	11624	-9	16	-23	-16736	1080	-856	9	-5	12	-14896	2888	-5704	22	0	3	-9424	4192	13256	18	-9	-18	-15880	-3248	152	-5	0	-6	-15416	-1256	-5216	4	-12	24	127	120	8
-9956	-4356	11524	-14	12	-24	-16552	1328	-920	17	1	18	-15120	2624	-5656	19	-2	5	-9472	4024	13048	17	-4	-18	-15824	-3152	272	5	-3	-7	-15248	-1256	-5112	7	-10	20	127	122	8
-9888	-4284	11712	-16	12	-25	-16576	1320	-784	10	-1	16	-14848	2832	-5592	22	-1	5	-9288	4040	13000	20	-10	-18	-15784	-3120	-8	17	-5	-3	-15376	-1296	-5264	9	-8	22	127	120	8
-9896	-4236	11660	-10	15	-26	-16720	1160	-832	4	-1	18	-14896	2688	-5568	19	-2	4	-9440	4096	13096	21	-8	-18	-15920	-3200	64	10	0	-7	-15368	-1336	-5280	6	-12	21	127	119	8
-9992	-4340	11620	-14	11	-24	-16712	1240	-760	12	2	14	-14848	2656	-5688	23	2	4	-9536	4064	13008	20	-12	-19	-15728	-3024	-8	-6	-4	-3	-15280	-1296	-5072	2	-13	18	127	121	8
-9940	-4352	11640	-13	16	-24	-16576	1224	-768	13	-4	11	-14888	2656	-5520	24	0	4	-9512	3896	13056	13	-5	-23	-15912	-3040	208	-23	-5	1	-15320	-1352	-4872	1	-22	18	127	121	8
-9956	-4316	11624	-9	16	-25	-16704	1312	-728	17	-7	14	-14832	2648	-6016	25	3	5	-9400	3976	13128	15	0	-18	-15832	-3048	144	-43	-7	-5	-15368	-1328	-4832	-2	-26	19	127	120	8
-9892	-4324	11616	-11	16	-29	-16504	1304	-656	10	-7	12	-14824	2776	-5664	28	-2	7	-9488	4160	13000	20	-8	-22	-15968	-3136	24	-29	-2	0	-15352	-1360	-5120	2	-26	20	127	121	8
-9952	-4392	11640	-13	15	-26	-16568	1208	-728	16	-6	17	-14920	2832	-5584	23	-5	7	-9552	4088	13064	19	-9	-22	-15880	-3120	-128	-19	-3	-4	-15208	-1376	-5056	5	-12	20	127	119	8
-9928	-4332	11724	-12	18	-26	-16520	1128	-792	19	-6	15	-14928	2752	-5680	21	-10	4	-9368	4016	13096	16	-5	-21	-15816	-3056	-88	0	-2	-2	-15344	-1352	-5216	8	-15	26	127	119	8
-9956	-4336	11668	-13	12	-22	-16792	1376	-816	20	-8	16	-15024	2744	-5928	23	-4	3	-9488	3872	13376	17	-8	-23	-15864	-3136	-120	1	-7	-4	-15328	-1448	-4992	6	-15	20	127	118	8
-9936	-4288	11620	-14	17	-24	-16608	1392	-784	8	-11	14	-15008	2704	-5728	24	-3	2	-9480	4040	13224	16	-6	-21	-15784	-3040	64	-8	-8	-6	-15248	-1304	-4832	3	-21	25	127	117	8
-9952	-4304	11680	-8	13	-29	-16632	1232	-776	7	-6	17	-14792	2792	-6144	19	0	3	-9600	3968	13144	19	-9	-17	-15784	-3032	24	-11	-11	-5	-15368	-1304	-5184	1	-26	19	127	121	8
-9924	-4388	11612	-11	16	-26	-16672	1304	-816	9	-6	15	-14960	2832	-5768	22	-5	2	-9632	4088	13128	13	-5	-24	-15848	-3224	248	-7	-9	-7	-15240	-1360	-5128	-2	-21	16	127	121	8
-10024	-4344	11680	-8	17	-29	-16752	1232	-624	12	-10	13	-14888	2704	-5752	21	-7	2	-9472	4144	13248	15	-8	-18	-15840	-3152	80	11	-8	-3	-15240	-1304	-5216	-1	-22	18	127	119	8
-9920	-4284	11712	-14	18	-25	-16632	1328	-904	9	-7	16	-14936	2760	-5936	24	-5	2	-9464	4080	12936	14	-5	-20	-15912	-3104	-88	5	-9	-3	-15344	-1288	-4896	6	-20	21	127	120	8
-9924	-4276	11604	-8	10	-26	-16528	1176	-696	5	-14	12	-14976	2848	-5752	22	-5	6	-9416	4000	13152	15	-7	-17	-15824	-3216	272	4	-13	-7	-15376	-1152	-5072	3	-22	20	127	121	8
-9944	-4336	11672	-6	13	-27	-16536	1304	-864	0	-15	11	-14936	2768	-5688	16	-5	1	-9424	4072	13024	15	-2	-21	-15832	-3016	152	2	-9	-3	-15264	-1280	-5016	0	-17	21	127	119	8
-9896	-4332	11672	-13	15	-29	-16688	1200	-808	6	-14	18	-14832	2712	-5768	14	-6	-3	-9512	4096	13240	12	-10	-15	-15920	-3160	40	4	-14	-6	-15336	-1256	-5112	5	-16	20	127	118	8
-9836	-4400	11748	-14	10	-30	-16576	1216	-616	-2	-12	17	-14968	2696	-5688	14	-6	-3	-9472	4024	13112	19	-7	-17	-15656	-3304	88	15	-13	-8	-15456	-1232	-4968	4	-24	14	127	119	8
-9904	-4332	11536	-9	12	-28	-16712	1272	-656	-4	-14	14	-14984	2760	-6016	10	-6	0	-9368	4064	13176	16	-2	-18	-15904	-3160	136	8	-10	-7	-15376	-1336	-5048	6	-21	18	127	121	8
-9880	-4308	11712	-12	15	-26	-16648	1360	-464	-6	-17	16	-14872	2736	-5688	14	-3	-1	-9472	3976	13232	12	-6	-20	-15720	-3160	288	5	-11	-6	-15360	-1416	-4832	5	-20	17	127	122	8
-9972	-4272	11628	-10	11	-25	-16704	1248	-584	7	-10	14	-14824	2704	-5800	15	-6	-1	-9552	3920	13272	16	-10	-14	-15824	-3152	104	2	-7	-6	-15224	-1464	-4808	-2	-20	24	127	122	8
-9932	-4284	11696	-15	17	-28	-16736	1232	-616	5	-14	14	-14976	2816	-5864	21	-8	1	-9448	3984	13200	16	-9	-21	-15848	-3072	-8	12	-8	-6	-15264	-1440	-4928	1	-23	22	127	120	8
-9904	-4384	11588	-9	15	-26	-16672	1312	-616	9	-11	15	-14848	2712	-5832	20	-3	2	-9448	4016	13216	12	-6	-18	-15848	-3048	152	24	-13	-6	-15336	-1232	-5232	9	-17	22	127	122	8
-9904	-4296	11628	-9	11	-28	-16592	1312	-424	5	-14	16	-14912	2736	-5712	19	-4	-2	-9488	4032	13248	12	-4	-18	-15864	-3184	72	25	-7	-13	-15256	-1288	-4896	8	-17	17	127	120	8
-9976	-4312	11736	-17	12	-29	-16584	1400	-448	5	-11	15	-14848	2672	-5872	18	-3	3	-9400	3976	13368	19	-14	-21	-15824	-3176	120	24	-13	-11	-15360	-1384	-4968	5	-17	21	127	118	8
-9908	-4372	11612	-17	12	-28	-16568	1224	-632	10	-8	10	-14904	2736	-5680	20	1	3	-9424	3864	13176	15	-9	-17	-15664	-3176	88	18	-13	-6	-15296	-1280	-4984	3	-18	20	127	121	8
-9940	-4264	11676	-13	10	-25	-16744	1264	-784	16	-13	13	-15008	2696	-5680	22	-2	2	-9584	3952	13136	12	-5	-16	-15808	-3200	224	3	-9	-14	-15464	-1424	-4784	5	-24	16	127	119	8
-9928	-4372	11720	-12	13	-25	-16584	1136	-712	4	-7	11	-15016	2664	-5496	21	-1	0	-9360	4072	13128	14	-12	-16	-15920	-3096	112	8	-7	-12	-15320	-1392	-5088	5	-25	20	127	122	8
-9876	-4332	11624	-11	12	-27	-16720	1104	-696	5	-11	11	-14944	2832	-5808	20	0	0	-9272	4032	13040	15	-4	-19	-15808	-3064	-48	13	-8	-8	-15432	-1328	-5088	7	-19	19	127	121	8
-9888	-4336	11700	-8	9	-29	-16648	1136	-568	5	-9	10	-15032	2624	-5576	17	0	1	-9440	4040	13208	11	-11	-18	-15640	-3136	88	22	-5	-6	-15320	-1392	-4896	3	-15	20	127	121	8
-9900	-4392	11720	-8	14	-23	-16736	1160	-488	8	-6	14	-14944	2712	-5656	16	0	-3	-9432	4136	13344	11	-13	-19	-15744	-3136	168	30	-3	-6	-15360	-1360	-4944	3	-20	24	127	120	8
-9884	-4292	11608	-4	13	-28	-16672	1384	-600	10	-8	17	-14896	2680	-5608	13	-10	-3	-9288	4112	13176	18	-5	-21	-15920	-3120	168	4	-7	-3	-15392	-1232	-5056	7	-19	20	127	118	8
-9868	-4292	11672	-7	15	-28	-16592	1200	-904	7	-11	12	-14896	2672	-5480	14	-7	1	-9560	3992	13312	18	-6	-19	-15632	-3280	88	-17	-5	-6	-15264	-1352	-4904	-5	-24	21	127	123	8
-9868	-4304	11640	-8	16	-31	-16560	1232	-704	5	-9	14	-14832	2696	-5776	13	-4	-3	-9440	3976	13160	16	-8	-17	-15856	-3432	232	-19	-2	-9	-15376	-1264	-5096	-8	-23	20	127	119	8
-9924	-4336	11648	-14	12	-25	-16592	1208	-368	4	-7	13	-14824	2560	-5760	14	-3	-2	-9344	4184	13192	17	-8	-17	-15768	-3088	-40	-5	-6	-6	-15200	-1424	-5128	-7	-19	15	127	120	8
-9908	-4368	11536	-10	13	-29	-16648	1160	-808	0	-14	14	-14800	2600	-5544	12	-6	-3	-9360	4160	13304	15	-11	-17	-15936	-3224	-96	-6	-6	-4	-15248	-1288	-4856	-4	-20	17	127	121	8
-9936	-4324	11592	-9	13	-24	-16680	1208	-816	1	-14	13	-14888	2600	-5856	16	-6	-1	-9416	4112	13232	15	-2	-20	-15808	-3160	-16	-4	-5	-2	-15248	-1328	-4928	-2	-19	21	127	119	8
-9896	-4336	11708	-10	15	-24	-16608	1248	-496	2	-12	12	-15056	2872	-5592	15	-5	0	-9472	4072	13336	12	-6	-19	-15856	-3344	64	4	-8	-3	-15344	-1376	-4968	-2	-18	21	127	119	8
-9916	-4324	11652	-8	15	-26	-16504	1168	-568	7	-9	10	-14928	2728	-5584	15	-9	2	-9480	4104	13096	11	-8	-16	-15768	-3072	8	2	-5	-7	-15416	-1312	-5160	-1	-17	18	127	119	8
-9944	-4336	11664	-8	13	-25	-16712	1160	-696	5	-9	13	-15064	2680	-5488	17	-3	-1	-9392	4080	13240	14	-5	-19	-15912	-3288	56	-3	-7	0	-15240	-1344	-4968	-7	-20	19	127	120	8
-9916	-4332	11672	-9	8	-27	-16712	1256	-608	10	-11	15	-14936	2736	-5720	20	-2	2	-9544	4024	13240	12	-3	-17	-15904	-3184	80	-9	-6	-6	-15440	-1224	-4856	-6	-20	23	127	120	8
-9900	-4408	11604	-14	12	-27	-16536	1304	-512	12	-13	17	-15040	2600	-5536	21	-5	1	-9392	3936	13032	17	-9	-14	-15920	-3072	232	-6	-4	-8	-15304	-1352	-5112	-1	-18	18	127	121	8
-9876	-4400	11576	-11	12	-20	-16584	1136	-696	6	-5	18	-14976	2752	-5688	24	-5	5	-9344	4040	13264	17	-6	-19	-15784	-3240	224	7	-10	-4	-15368	-1272	-5264	0	-16	22	127	121	8
-9944	-4264	11684	-13	15	-26	-16584	1336	-632	8	-9	12	-14968	2896	-5640	23	-10	6	-9432	4048	13016	14	-4	-24	-15800	-3056	32	-8	-11	-2	-15224	-1224	-4872	-1	-17	22	127	121	8
-9868	-4276	11632	-14	14	-29	-16544	1232	-576	8	-13	12	-14768	2712	-5584	23	-7	5	-9432	4104	13152	19	-4	-20	-15760	-3336	344	-15	-12	-3	-15328	-1448	-4768	-2	-21	22	127	120	8
-9848	-4360	11664	-11	19	-28	-16624	1288	-728	16	-5	17	-14968	2688	-5824	23	-2	5	-9392	3920	13272	17	-5	-18	-15992	-3208	-16	-5	-5	-6	-15336	-1400	-5032	2	-20	18	127	122	8
-9872	-4280	11544	-11	17	-24	-16648	1272	-640	18	-7	19	-14856	2712	-5464	23	-3	4	-9464	3952	13112	12	-6	-16	-15944	-3248	152	14	-7	-4	-15360	-1368	-4848	4	-17	22	127	121	8
-9960	-4356	11720	-9	13	-23	-16696	1320	-576	10	-7	12	-15072	2712	-5552	21	-4	2	-9504	4016	13184	18	-4	-20	-15768	-3088	248	15	-8	-9	-15432	-1144	-4944	7	-22	22	127	121	8
-9880	-4264	11708	-10	17	-25	-16680	1360	-848	5	-8	13	-14824	2600	-5680	22	-3	5	-9496	4040	13120	17	-10	-18	-15976	-3232	368	3	-6	-1	-15232	-1328	-4832	2	-19	22	127	119	8
-9932	-4316	11616	-12	15	-20	-16640	1240	-536	9	-7	17	-14880	2584	-5632	23	-2	3	-9408	4040	13160	20	-6	-18	-15920	-3168	32	0	-7	-3	-15280	-1336	-5040	0	-16	23	127	120	8
-9960	-4248	11688	-9	16	-23	-16544	1192	-616	6	-5	15	-14976	2768	-5592	15	-8	6	-9536	3816	13208	16	-9	-17	-15848	-3152	-120	8	-8	-3	-15304	-1312	-5112	6	-21	25	127	120	8
-9948	-4364	11776	-10	14	-28	-16568	1288	-784	9	-8	18	-14960	2816	-5872	20	-6	5	-9432	4040	13048	15	-5	-17	-15920	-3184	120	3	-9	-1	-15248	-1176	-5008	3	-18	20	127	121	8
-9840	-4360	11536	-10	15	-24	-16672	1224	-808	10	-4	17	-15056	2912	-5584	22	-6	0	-9424	4024	13160	16	-3	-21	-15752	-3072	192	5	-5	-2	-15360	-1352	-4992	2	-17	21	127	120	8
-9944	-4268	11760	-9	17	-28	-16584	1208	-768	11	-8	15	-15024	2760	-5472	20	-3	4	-9368	4016	13224	19	-9	-16	-15880	-3208	192	0	-7	-6	-15296	-1224	-5104	2	-17	16	127	121	8
-9876	-4340	11648	-18	13	-25	-16680	1080	-592	10	-8	19	-15016	2776	-5760	19	-3	4	-9328	4056	13232	14	-10	-19	-15696	-3184	208	-20	-7	-2	-15360	-1280	-5040	-2	-20	17	127	118	8
-9920	-4324	11744	-16	11	-29	-16640	1264	-856	11	-5	18	-15024	2736	-5600	21	-8	8	-9376	4064	13120	14	-6	-27	-15792	-3216	136	-15	-10	-8	-15440	-1264	-4832	-3	-17	14	127	119	8
-9920	-4312	11688	-9	14	-26	-16640	1336	-352	9	-9	13	-15024	2816	-5720	24	5	6	-9400	4264	13232	16	-7	-22	-15936	-3008	24	4	-9	-5	-15408	-1392	-4824	0	-15	17	127	119	8
-9940	-4312	11644	-7	13	-26	-16616	1232	-632	9	-8	15	-14960	2616	-5608	23	-1	5	-9296	3976	12944	14	-4	-23	-15832	-3328	168	7	-6	-2	-15424	-1312	-5048	2	-12	19	127	127	8
-9928	-4328	11556	-5	16	-24	-16680	1264	-600	9	-3	19	-14968	2688	-5696	25	-4	10	-9400	4096	13240	12	-8	-16	-15760	-3192	336	3	-6	-7	-15400	-1296	-4864	2	-17	22	127	126	8
-9880	-4400	11672	-11	15	-22	-16576	1208	-304	8	0	14	-14984	2768	-5864	22	-3	5	-9536	4016	13128	12	-3	-20	-15864	-3232	64	6	0	-6	-15424	-1272	-4936	9	-10	20	127	124	8
-10000	-4368	11668	-10	12	-27	-16672	1136	-592	15	3	11	-14992	2744	-5728	21	-7	3	-9472	4032	13256	15	-9	-21	-15816	-3200	400	15	-5	-6	-15368	-1248	-4960	3	-14	25	127	121	8
-9920	-4420	11620	-15	17	-25	-16632	1232	-512	7	-3	13	-15016	2720	-5488	22	-3	2	-9472	4088	13184	13	-8	-22	-15784	-3104	176	5	1	-3	-15360	-1256	-5136	3	-14	24	127	120	8
-9908	-4304	11608	-13	14	-27	-16504	1248	-440	8	2	20	-14912	2816	-5784	17	-7	4	-9504	3984	13128	17	-7	-20	-15928	-3272	136	-3	-2	-1	-15392	-1280	-5184	0	-18	19	127	121	8
-9884	-4356	11756	-11	17	-21	-16616	1376	-680	5	-2	17	-14872	2784	-5472	16	-6	4	-9576	4024	13088	22	-6	-16	-15936	-3184	136	-16	-4	-1	-15280	-1376	-4960	-3	-19	22	127	120	8
-9960	-4296	11628	-9	18	-23	-16704	1232	-704	5	-1	14	-15032	2560	-5664	18	-5	7	-9392	4024	13144	20	-5	-17	-15896	-3168	72	-6	-3	-4	-15320	-1320	-5032	1	-17	18	127	120	8
-9872	-4364	11668	-10	18	-22	-16616	1192	-616	9	1	18	-14872	2712	-5888	23	-2	4	-9576	4096	13112	18	-11	-19	-15752	-3208	272	-2	-3	-6	-15296	-1216	-4992	-3	-15	22	127	122	8
-9900	-4344	11664	-8	14	-23	-16648	1072	-616	15	-10	16	-14896	2568	-5816	30	3	7	-9344	4096	13224	15	-9	-18	-15976	-3144	64	2	-4	-5	-15352	-1272	-5120	4	-17	21	127	120	8
-9904	-4308	11656	-11	14	-26	-16600	1200	-544	10	-2	14	-14904	2736	-5808	26	-1	6	-9328	4032	13152	16	-9	-22	-15776	-3216	104	-1	-6	-4	-15384	-1272	-4968	4	-11	20	127	117	8
-9928	-4316	11640	-12	13	-23	-16648	1120	-544	14	-5	13	-14896	2736	-5624	21	-1	7	-9368	4176	13088	13	-6	-17	-15848	-3192	80	5	-8	-5	-15256	-1376	-5104	5	-15	24	127	118	8
-9928	-4312	11704	-11	13	-26	-16560	1352	-704	16	-8	21	-14968	2728	-6064	21	-5	3	-9464	4208	13152	14	-5	-24	-16024	-3208	168	7	-5	-9	-15320	-1312	-5088	4	-13	19	127	120	8
-9972	-4348	11696	-11	15	-29	-16632	1136	-568	9	1	19	-15040	2864	-5496	20	-1	5	-9336	4000	13008	15	-11	-22	-15952	-3168	-152	10	-3	-5	-15208	-1240	-5112	0	-13	18	127	120	8
-9916	-4356	11640	-8	17	-27	-16640	1288	-592	7	-8	14	-15048	2768	-5592	20	-4	1	-9576	4200	13152	17	-5	-20	-15760	-3088	56	4	-8	-7	-15488	-1312	-5136	3	-14	17	127	122	8
-9916	-4308	11756	-14	14	-24	-16760	1360	-544	-2	-10	18	-15032	2648	-5608	19	4	3	-9456	4128	13176	15	-2	-24	-15848	-3160	-32	7	-5	-6	-15408	-1328	-4848	3	-18	18	127	119	8
-9892	-4368	11700	-16	15	-24	-16752	1216	-344	11	-12	13	-14912	2856	-5680	23	1	6	-9568	4064	13352	16	-4	-19	-15880	-3056	104	4	-5	-2	-15352	-1248	-4936	1	-14	18	127	122	8
-9896	-4284	11632	-11	16	-28	-16736	1216	-600	10	-6	16	-15048	2696	-5712	23	-2	7	-9424	4096	13088	13	-12	-17	-15760	-3216	144	0	-5	-5	-15280	-1288	-4880	3	-13	21	127	122	8
-9948	-4376	11724	-11	13	-26	-16592	1104	-544	12	-6	15	-14928	2736	-5600	24	-3	4	-9480	4080	13112	15	-7	-16	-15728	-3264	160	11	-6	-5	-15432	-1352	-4960	3	-14	20	127	118	8
-9880	-4356	11672	-11	17	-25	-16584	1216	-544	7	-8	12	-15048	2784	-5704	24	-5	6	-9424	4104	13168	12	-7	-20	-15864	-3104	88	-2	-7	-6	-15480	-1200	-5000	4	-13	19	127	120	8
-9920	-4328	11620	-12	14	-25	-16632	1280	-624	9	-5	14	-14856	2808	-5648	27	-2	5	-9408	3936	13056	14	-12	-17	-15856	-3168	152	-1	-6	-3	-15320	-1344	-4792	-6	-16	20	127	121	8
-9952	-4292	11608	-10	13	-25	-16648	1264	-536	6	-9	17	-15072	2712	-5696	16	-5	5	-9352	4000	13112	15	-9	-18	-15824	-3304	176	-3	-5	-3	-15408	-1336	-5000	-1	-15	14	127	118	8
-9916	-4336	11644	-15	18	-26	-16576	1200	-696	7	-8	12	-14952	2872	-5464	17	-3	2	-9408	4112	13240	13	-16	-18	-15808	-3056	104	1	-3	-10	-15272	-1272	-4784	-4	-20	17	127	120	8
-9880	-4308	11688	-7	18	-25	-16656	1240	-768	13	-7	14	-15040	2648	-5464	22	-1	4	-9344	4056	13008	12	-10	-24	-15880	-3144	176	1	-2	-1	-15432	-1320	-4880	1	-17	13	127	119	8
-9940	-4328	11644	-7	16	-30	-16616	1320	-488	9	-6	14	-14848	2744	-5704	23	-2	2	-9488	4032	12992	13	-9	-22	-15808	-3336	344	5	-6	-4	-15264	-1424	-5000	0	-19	17	127	120	8
-9948	-4288	11556	-14	13	-28	-16768	1320	-384	9	-11	19	-14832	2784	-6048	18	-4	5	-9400	4072	13224	14	-2	-18	-15896	-3136	360	3	-1	-11	-15424	-1272	-5040	1	-18	21	127	119	8
-9840	-4308	11640	-13	14	-26	-16712	1280	-640	6	-5	16	-14840	2576	-5744	22	0	1	-9480	4040	13160	14	-7	-16	-15696	-3152	40	9	-3	-5	-15264	-1240	-4832	5	-13	22	127	119	8
-9920	-4360	11728	-13	12	-26	-16544	1240	-584	1	-6	17	-14984	2744	-5712	18	2	1	-9432	4048	12928	9	-3	-21	-15816	-3160	416	9	-8	-6	-15432	-1344	-4888	8	-12	18	127	120	8
-9904	-4400	11672	-8	16	-26	-16592	1104	-712	-5	-3	21	-14912	2592	-5600	12	2	5	-9424	3888	13096	14	-8	-20	-15808	-3168	144	14	-8	-11	-15328	-1368	-5112	5	-14	18	127	121	8
-9944	-4288	11596	-6	17	-24	-16720	1176	-680	-4	-6	17	-15024	2648	-5552	16	3	7	-9408	3880	13384	16	-9	-17	-15960	-3136	136	7	-6	-6	-15336	-1320	-5152	2	-17	19	127	119	8
-9908	-4388	11692	-13	14	-25	-16600	1280	-968	-2	-7	13	-14976	2856	-5800	18	4	6	-9400	4016	13008	12	-9	-18	-15888	-3144	-48	-6	0	-1	-15320	-1184	-4736	-2	-14	18	127	117	8
-9928	-4452	11740	-9	12	-28	-16712	1264	-952	1	-3	12	-15104	2608	-5704	28	3	5	-9400	3872	13136	11	-10	-17	-15728	-3192	296	5	-6	-8	-15360	-1256	-5000	2	-18	22	127	120	8
-9944	-4364	11784	-12	12	-26	-16616	1024	-680	2	-7	13	-14976	2840	-5776	23	1	7	-9376	4080	13096	16	-9	-17	-15808	-3160	312	11	0	-5	-15384	-1368	-4912	10	-15	20	127	120	8
-9928	-4368	11656	-8	12	-24	-16680	1240	-728	2	-6	16	-14968	2760	-5576	22	0	5	-9448	4120	13184	15	-6	-21	-15896	-3184	336	9	1	-4	-15392	-1240	-5056	6	-12	24	127	119	8
-9908	-4272	11732	-12	12	-25	-16688	1392	-512	4	-7	18	-15088	2688	-5576	20	-2	1	-9448	4024	13248	16	1	-21	-15816	-3088	160	-1	0	-6	-15416	-1312	-4832	1	-11	21	127	119	8
-9956	-4352	11664	-9	18	-25	-16656	1296	-632	-2	-2	17	-14952	2688	-5952	13	-3	3	-9504	4056	13176	14	-8	-20	-15784	-3248	344	-1	-2	-9	-15416	-1176	-5120	0	-16	18	127	120	8
-9940	-4288	11736	-11	10	-19	-16616	1240	-464	1	-6	14	-14888	2752	-5808	12	1	0	-9616	3960	13128	13	-7	-18	-15880	-3264	368	3	3	-5	-15248	-1400	-4856	-3	-14	16	127	121	8
-9880	-4320	11716	-8	12	-20	-16568	1192	-800	8	0	12	-14984	2792	-5752	16	0	3	-9568	3920	13016	19	-10	-19	-15912	-3144	224	7	-2	-8	-15448	-1216	-5184	-1	-14	18	127	120	8
-9896	-4316	11680	-7	15	-26	-16640	1384	-624	2	-5	16	-14944	2808	-5896	17	2	2	-9464	4088	13016	18	-6	-21	-15784	-3056	320	12	-4	-9	-15400	-1272	-5120	-3	-13	18	127	121	8
-9924	-4380	11684	-13	18	-26	-16656	1144	-608	4	-8	13	-14912	2664	-5600	20	2	6	-9488	4000	13320	16	-14	-19	-15768	-3168	-64	2	-2	-7	-15264	-1360	-4856	-4	-18	17	127	120	8
-9944	-4360	11620	-13	17	-28	-16552	1296	-584	3	-9	17	-15032	2808	-5400	21	2	3	-9312	4064	13352	18	-11	-20	-15864	-3224	344	-14	-3	-11	-15240	-1192	-4792	0	-13	16	127	118	8
-9908	-4332	11684	-12	13	-24	-16640	1320	-752	9	-7	16	-14976	2816	-5824	29	5	2	-9528	4016	13080	17	-5	-20	-15792	-3112	320	-16	1	-4	-15296	-1312	-4832	1	-12	17	127	119	8
-9952	-4296	11616	-10	16	-22	-16688	1240	-792	12	-1	15	-14968	2832	-5688	21	6	5	-9360	4040	13216	15	-4	-20	-16088	-3096	136	5	-8	-3	-15248	-1184	-5216	1	-8	17	127	118	8
-9852	-4320	11656	-3	14	-29	-16640	1272	-576	0	-2	12	-14880	2752	-5576	20	2	4	-9352	4048	13056	18	-8	-23	-15896	-3088	24	-1	-5	-8	-15320	-1128	-4896	2	-10	15	127	120	8
-9904	-4332	11664	-15	17	-22	-16680	1144	-616	0	-8	13	-14944	2680	-5664	16	4	3	-9328	4120	13136	16	-8	-21	-15696	-3064	320	-3	-8	-4	-15288	-1320	-5160	-3	-19	15	127	118	8
-9892	-4260	11760	-13	17	-27	-16640	1320	-704	4	-5	15	-14832	2688	-5640	14	3	-2	-9424	3880	13160	18	-6	-20	-15856	-3240	24	-2	-4	-9	-15288	-1312	-4856	-1	-12	13	127	120	8
-9936	-4300	11700	-11	14	-23	-16704	1112	-600	6	-3	16	-15048	2640	-5664	14	3	-1	-9440	3976	13336	10	-7	-19	-15760	-3056	176	2	-4	-10	-15368	-1312	-5088	-9	-11	8	127	120	8
-9964	-4344	11564	-9	16	-23	-16592	1224	-416	11	-5	17	-15024	2744	-5728	18	1	1	-9488	3872	13352	20	-6	-19	-15856	-3232	136	-3	-7	-11	-15408	-1216	-5120	0	-14	16	127	120	8
-9880	-4308	11584	-8	13	-24	-16488	1328	-528	5	3	14	-15040	2752	-5536	22	3	3	-9432	4160	13136	18	-10	-22	-15896	-3248	120	-7	-6	-13	-15384	-1224	-4816	-7	-17	20	127	117	8
-9932	-4352	11664	-20	14	-27	-16720	1072	-376	12	-6	9	-15024	2768	-5688	26	-4	0	-9528	3992	13312	11	-13	-19	-15928	-3216	136	-10	-6	-4	-15496	-1208	-5016	-2	-16	18	127	121	8
-9908	-4300	11664	-15	15	-26	-16456	1408	-352	7	-1	13	-14960	2736	-5976	24	2	3	-9360	3992	13192	16	-6	-25	-15952	-3232	208	-2	-4	-9	-15392	-1216	-4800	-1	-12	12	127	118	8
-9864	-4352	11648	-15	14	-26	-16600	1176	-560	16	2	10	-14992	2704	-5832	26	2	2	-9456	3984	13160	17	-8	-21	-15920	-3168	232	-5	-1	-10	-15352	-1312	-5024	2	-12	15	127	118	8
-9932	-4376	11636	-12	15	-24	-16496	1288	-720	32	3	14	-14984	2720	-5528	29	5	3	-9280	3952	13192	10	1	-23	-15928	-3192	184	-4	-5	-5	-15416	-1312	-4704	-3	-10	13	127	119	8
-9876	-4320	11756	-15	20	-26	-16608	1400	-528	11	3	13	-15016	2728	-5640	27	-1	5	-9400	4112	13280	16	-3	-27	-15824	-3248	136	-7	3	-8	-15496	-1344	-4696	-3	-15	16	127	120	8
-9872	-4356	11684	-19	16	-25	-16656	1216	-304	7	2	14	-14952	2856	-5576	26	4	10	-9368	3920	13304	18	2	-26	-15760	-3168	168	-20	-3	-5	-15432	-1456	-4784	2	-17	16	127	122	8
-9936	-4376	11616	-17	17	-22	-16760	1232	-632	12	6	12	-15040	2656	-5664	25	2	3	-9424	4000	13232	16	-4	-18	-15848	-3144	104	-18	8	-9	-15344	-1320	-4856	1	-14	18	127	120	8
-9892	-4364	11752	-21	14	-22	-16632	1192	-592	44	8	19	-14992	2696	-5680	29	-2	4	-9352	4096	12968	17	-5	-25	-15768	-3216	408	-13	6	-7	-15176	-1400	-5088	0	-10	20	128	119	8
-9888	-4356	11676	-14	14	-22	-16680	1288	-832	31	10	16	-14984	2808	-5680	34	0	4	-9504	4024	13072	17	-7	-24	-15848	-3216	32	-6	6	-1	-15224	-1272	-4904	1	-5	18	127	120	8
-9948	-4392	11652	-12	15	-22	-16648	1240	-728	15	10	16	-14832	2736	-5856	31	5	6	-9352	3944	13112	17	-4	-23	-15888	-3152	-160	2	9	-7	-15216	-1232	-4896	1	-13	16	127	119	8
-9892	-4360	11640	-11	16	-24	-16528	1224	-664	12	9	17	-14968	2688	-5648	29	2	8	-9432	4048	13368	16	-5	-25	-15904	-3232	152	3	4	-8	-15272	-1304	-5096	4	-11	18	127	120	8
-9944	-4324	11672	-17	17	-21	-16552	1144	-960	20	5	17	-14984	2736	-5680	31	-3	6	-9456	4048	13232	17	-6	-17	-15888	-3232	-56	5	6	-5	-15336	-1320	-5032	8	-12	19	127	120	8
-9892	-4324	11748	-9	17	-22	-16688	1168	-776	20	7	22	-15032	2728	-5920	28	4	6	-9576	3936	13072	17	-4	-23	-15808	-3216	272	11	3	-7	-15408	-1336	-4928	-2	-5	16	127	120	8
-9864	-4340	11644	-12	18	-25	-16568	1272	-576	16	6	16	-14784	2584	-5888	25	11	11	-9416	4048	13216	18	-14	-25	-15784	-3120	72	-7	6	-3	-15408	-1384	-5088	-1	-8	17	127	121	8
-9940	-4296	11672	-7	19	-21	-16576	1240	-864	11	5	20	-14992	2696	-5760	25	5	8	-9264	4032	13336	17	-13	-24	-15920	-3216	144	-14	6	-3	-15408	-1376	-4928	-1	-8	15	127	119	8
-9920	-4332	11704	-11	15	-22	-16640	1232	-536	10	5	14	-14920	2736	-5872	22	5	4	-9392	4080	13048	21	-11	-21	-15808	-3112	-96	-16	5	-8	-15304	-1264	-4744	-3	-7	22	127	120	8
-9928	-4348	11664	-12	12	-24	-16648	1152	-616	16	6	16	-14896	2544	-5864	24	1	7	-9368	3960	13272	15	-4	-28	-15896	-3200	8	-14	2	-1	-15344	-1248	-4992	-2	-7	20	127	119	8
-9936	-4304	11580	-5	18	-19	-16536	1208	-856	9	9	13	-14944	2728	-5808	25	3	6	-9464	4152	13368	18	-10	-21	-15840	-3248	72	-6	4	-7	-15344	-1248	-4752	-3	-3	19	127	119	8
-9920	-4280	11672	-9	11	-21	-16632	1120	-664	9	2	16	-14872	2792	-5808	20	6	8	-9368	3896	13064	22	-4	-18	-15904	-3040	256	-4	0	-4	-15352	-1360	-5160	-5	-2	21	128	120	8
-9860	-4408	11660	-10	16	-24	-16672	1160	-608	11	5	16	-14880	2648	-5832	22	8	10	-9336	4056	13040	15	-6	-21	-15920	-3184	72	0	4	-5	-15200	-1400	-5216	-3	-3	16	127	119	8
-9892	-4316	11744	-14	18	-24	-16576	1352	-632	25	2	24	-14880	2712	-5936	23	7	10	-9432	3976	13088	16	-6	-18	-15840	-3056	16	4	1	-7	-15400	-1248	-4960	-2	-8	17	127	118	8
-9924	-4236	11736	-7	19	-24	-16656	1352	-776	10	2	14	-14888	2672	-5640	26	3	6	-9552	4088	13120	16	-10	-20	-15792	-3096	-32	-3	5	-1	-15224	-1240	-4920	-3	-9	15	127	118	8
-9960	-4376	11704	-7	15	-21	-16576	1240	-480	10	10	19	-14984	2744	-5592	28	7	8	-9304	3960	12976	17	-3	-27	-15936	-3192	8	-8	-1	-3	-15400	-1312	-4928	2	-8	18	127	121	8
-9864	-4300	11696	-9	16	-21	-16552	1224	-544	14	6	19	-14912	2744	-5584	26	2	7	-9440	4064	13280	18	-5	-19	-15976	-3096	168	-11	0	-6	-15408	-1312	-5016	6	-6	14	127	118	8
-9964	-4280	11640	-8	20	-20	-16608	1376	-680	19	4	19	-14928	2776	-5568	28	1	12	-9448	4040	13176	19	-8	-23	-15752	-3232	104	-10	-3	-1	-15408	-1256	-5008	2	-4	20	127	122	8
-9904	-4336	11616	-11	14	-26	-16616	1200	-696	14	9	23	-14792	2736	-5624	28	6	10	-9552	4056	13184	16	-7	-19	-15688	-3024	-136	-9	2	-2	-15296	-1384	-4904	3	2	21	127	121	8
-9896	-4340	11576	-15	20	-23	-16752	1232	-688	18	10	19	-14952	2640	-5856	33	2	10	-9392	4048	13176	17	-9	-20	-15752	-3320	120	1	0	-5	-15400	-1320	-4920	3	-10	20	127	120	8
-9904	-4232	11716	-16	18	-27	-16568	1088	-504	13	9	20	-14808	2616	-5656	33	5	8	-9496	3992	13256	18	-1	-23	-15728	-3112	248	2	3	0	-15464	-1216	-4944	0	-4	17	127	119	8
-9904	-4328	11612	-10	15	-25	-16480	1248	-344	12	2	22	-15024	2720	-5496	29	6	9	-9544	3976	13264	19	-9	-20	-15800	-3080	16	-2	7	-2	-15528	-1248	-4944	-2	-7	17	127	117	8
-9944	-4320	11608	-14	14	-23	-16672	1144	-680	13	5	20	-14768	2688	-5680	23	4	10	-9456	3968	13128	16	-3	-20	-15800	-3000	168	-6	5	-2	-15264	-1352	-4968	-10	-3	21	127	120	8
-9908	-4280	11728	-14	12	-20	-16568	1256	-400	7	6	21	-15040	2672	-5752	21	3	8	-9400	3960	12960	16	-7	-22	-15792	-3064	24	-6	9	-1	-15288	-1240	-4960	-2	1	17	127	119	8
-9924	-4284	11660	-4	18	-21	-16672	1200	-704	9	6	22	-14984	2784	-5696	23	7	7	-9312	3984	13128	19	-5	-22	-15920	-3000	-48	-9	10	-1	-15392	-1360	-4984	1	0	20	127	119	8
-9880	-4336	11696	-8	14	-20	-16656	1272	-704	10	9	22	-14896	2776	-5528	23	5	7	-9416	4048	12928	13	-3	-24	-15760	-3224	96	-3	3	-2	-15216	-1280	-5032	0	-4	21	127	119	8
-9872	-4268	11680	-11	15	-22	-16544	1320	-704	9	8	26	-14904	2928	-5624	28	1	9	-9408	4000	13000	17	-5	-22	-15728	-3088	112	-4	4	-4	-15232	-1344	-4688	-3	-2	22	127	119	8
-9936	-4312	11696	-14	17	-20	-16696	1160	-640	18	7	19	-15136	2792	-5752	22	9	8	-9368	3992	13240	17	-6	-18	-15896	-3048	40	-8	5	-4	-15392	-1328	-5184	2	-7	17	127	120	8
-9924	-4276	11584	-12	14	-22	-16560	1248	-632	17	6	21	-14936	2784	-5816	27	3	8	-9576	4016	13200	25	-10	-20	-15744	-3216	152	-13	4	-9	-15384	-1328	-5072	-6	-2	20	127	120	8
-9908	-4288	11724	-15	18	-23	-16640	1296	-600	8	5	18	-14872	2640	-5720	22	3	8	-9440	4112	13248	19	2	-23	-15816	-3088	-40	-16	2	-3	-15416	-1224	-4984	-1	-7	12	127	120	8
-9860	-4308	11660	-17	17	-23	-16696	1272	-720	5	9	17	-14968	2832	-5680	25	0	6	-9368	4016	13152	22	-1	-21	-15848	-3160	144	-17	5	-1	-15512	-1336	-4928	-5	-4	13	127	118	8
-9924	-4320	11616	-14	14	-19	-16616	1216	-720	10	11	18	-14976	2816	-5752	25	5	6	-9552	4160	12936	20	-6	-25	-15856	-3144	288	-26	8	-4	-15328	-1320	-4664	-11	-7	15	127	123	8
-9928	-4344	11752	-16	15	-22	-16656	1376	-800	15	6	16	-14968	2776	-5584	29	9	7	-9416	3960	13112	21	-4	-20	-15776	-3088	-144	-14	7	-5	-15296	-1384	-5040	-2	-3	17	127	122	8
-9968	-4220	11632	-11	15	-22	-16608	1160	-944	14	11	18	-14960	2744	-5600	20	6	8	-9344	4072	13280	17	-2	-27	-15848	-3176	-160	1	4	-3	-15392	-1256	-5208	0	1	18	127	120	8
-9964	-4384	11712	-14	17	-20	-16728	1384	-792	12	5	17	-14968	2776	-5872	24	8	7	-9488	3928	13080	16	-6	-25	-15664	-3208	168	-11	4	-6	-15200	-1280	-5072	-3	-6	15	127	120	8
-9880	-4352	11684	-17	16	-21	-16568	1080	-576	10	3	20	-14888	2600	-5696	23	5	6	-9424	4056	13224	14	0	-25	-15720	-3144	32	-11	4	-5	-15368	-1344	-4880	-1	-7	17	127	119	8
-9924	-4356	11652	-10	18	-19	-16568	1216	-784	10	7	17	-14920	2728	-5680	31	10	5	-9496	4240	13224	18	-8	-22	-15776	-3224	24	-9	-2	-10	-15224	-1392	-5240	1	-6	15	127	119	8
-9904	-4360	11692	-13	15	-20	-16520	1248	-920	14	5	15	-14896	2832	-5888	27	10	4	-9472	4104	12872	17	-1	-23	-15808	-3184	72	-6	-1	3	-15280	-1176	-4904	-3	-2	15	127	119	8
-9900	-4320	11600	-15	17	-27	-16536	1296	-672	16	8	15	-14896	2688	-5728	29	12	5	-9472	4128	13144	18	-2	-23	-15896	-3104	88	-2	0	-10	-15280	-1328	-5128	-3	-7	16	127	118	8
-9908	-4324	11620	-15	16	-18	-16536	1288	-808	20	9	15	-14904	2848	-5624	26	12	6	-9400	4040	12832	21	-7	-26	-15856	-3176	232	-2	6	-9	-15232	-1336	-5032	-1	-7	17	127	120	8
-9984	-4232	11720	-14	14	-26	-16632	1232	-632	15	10	16	-15040	2680	-5952	29	9	1	-9536	4080	13024	18	-5	-23	-15832	-3080	72	-3	2	-4	-15464	-1280	-4960	7	-7	15	127	118	8
-9912	-4296	11664	-13	15	-23	-16584	1216	-712	9	5	18	-14872	2752	-5760	24	4	2	-9440	3968	13128	18	-7	-21	-15864	-3152	72	-10	4	-5	-15472	-1280	-4824	-2	-3	14	127	118	8
-9936	-4300	11684	-12	14	-21	-16552	1304	-712	8	6	15	-14976	2696	-5816	27	8	4	-9464	4056	13048	19	-3	-27	-15816	-3096	40	-16	5	-5	-15456	-1288	-5048	3	-3	17	127	121	8
-9912	-4244	11672	-13	20	-21	-16544	1232	-680	16	-1	17	-14904	2872	-5776	25	6	5	-9480	3928	13072	19	-9	-22	-15800	-3056	-48	-12	7	-6	-15304	-1384	-5304	-5	-2	17	127	118	8
-9908	-4344	11608	-12	16	-18	-16568	1336	-752	17	9	15	-14896	2864	-5768	20	1	7	-9448	4080	13152	14	-7	-20	-15800	-3120	256	-11	7	-5	-15320	-1328	-5088	-7	-7	12	127	118	8
-9928	-4296	11680	-12	18	-23	-16680	1280	-896	11	6	19	-14880	2720	-5680	19	7	6	-9448	4064	13160	21	-3	-26	-15832	-3232	64	-20	4	-4	-15360	-1128	-4928	-3	-7	14	127	118	8
-9868	-4320	11696	-10	18	-28	-16608	1440	-736	10	8	14	-14784	2776	-5744	20	4	3	-9408	4104	13096	16	-8	-21	-15776	-3160	80	-26	4	3	-15264	-1352	-4896	-8	-9	17	127	118	8
-9952	-4316	11592	-19	12	-25	-16672	1280	-800	14	1	13	-14944	2728	-5808	23	7	0	-9512	4080	13320	14	-6	-21	-15800	-3224	80	-26	5	-7	-15352	-1408	-5200	-6	-8	16	127	118	8
-9908	-4340	11688	-11	16	-21	-16632	1288	-616	9	6	15	-14936	2704	-5808	19	5	2	-9632	4104	13264	16	-2	-21	-15792	-3176	160	-10	3	-10	-15264	-1296	-4864	-1	-10	16	127	118	8
-9932	-4308	11772	-12	19	-23	-16536	1264	-792	8	3	17	-14744	2616	-5880	20	12	2	-9448	4000	13152	20	-4	-20	-15824	-3096	312	-3	6	-4	-15232	-1312	-4936	-3	-7	14	127	117	8
-9992	-4352	11584	-12	21	-26	-16696	1280	-728	13	-3	16	-14928	2736	-5744	25	5	4	-9528	4040	13152	14	-6	-22	-16032	-3088	16	-8	5	-5	-15456	-1280	-5240	-5	-10	15	127	118	8
-9944	-4308	11676	-11	19	-23	-16568	1160	-848	14	1	14	-14792	2720	-5512	26	3	8	-9440	3904	13112	16	-3	-21	-15856	-3088	-136	-20	2	-11	-15384	-1368	-5272	-2	-8	15	127	120	8
-9972	-4320	11676	-22	18	-27	-16560	1104	-784	12	2	17	-14840	2784	-5608	22	4	5	-9496	4024	13080	15	-2	-21	-15792	-3104	16	-9	5	-6	-15208	-1368	-5256	1	-2	16	127	119	8
-9936	-4272	11672	-11	18	-24	-16568	1144	-824	21	4	19	-14896	2768	-5872	24	4	4	-9552	4048	13112	16	-7	-22	-15848	-3208	96	-5	6	-8	-15336	-1160	-4896	-4	-7	14	127	119	8
-9900	-4340	11592	-9	18	-22	-16384	1256	-800	17	4	16	-14848	2736	-5864	28	7	7	-9496	3968	12984	16	-4	-21	-15912	-3216	-8	-8	1	-9	-15144	-1384	-5024	-1	-10	18	127	119	8
-9932	-4340	11712	-15	16	-20	-16768	1216	-720	11	9	18	-15008	2848	-5760	28	6	2	-9448	4072	13360	16	-2	-21	-15928	-3192	-56	-2	0	-7	-15280	-1296	-5096	-1	-8	19	127	120	8
-9920	-4276	11664	-19	17	-24	-16464	1216	-960	19	6	16	-14928	2648	-5912	28	4	5	-9424	4040	13096	18	-6	-17	-15768	-3184	8	-6	1	-9	-15296	-1416	-5000	2	-12	16	127	117	8
-9920	-4288	11636	-18	14	-26	-16640	1272	-816	16	5	14	-14880	2664	-5712	23	10	4	-9504	3984	13160	14	-2	-21	-15744	-3024	-72	-14	-2	-6	-15296	-1360	-5320	-6	-10	19	127	119	8
-9900	-4348	11704	-13	17	-18	-16632	1296	-752	15	7	12	-14888	2608	-5880	25	3	6	-9272	4040	13128	16	-1	-23	-15936	-3160	16	-10	-1	-10	-15304	-1424	-5128	1	-8	16	127	117	8
-9964	-4360	11644	-13	15	-24	-16736	1272	-960	20	9	16	-14776	2856	-5952	29	5	7	-9512	3976	12960	14	-6	-26	-15824	-3280	104	-9	1	-9	-15240	-1320	-4928	3	-10	17	127	118	8
-9920	-4292	11632	-12	16	-22	-16584	1096	-608	13	9	16	-14896	2768	-6040	26	0	5	-9472	3968	13168	17	-4	-22	-15920	-3032	-136	-1	4	-4	-15360	-1264	-5168	2	-6	16	127	121	8
-9900	-4304	11704	-11	21	-23	-16496	1288	-736	22	7	12	-14856	2824	-5880	24	0	2	-9392	3888	13192	12	-3	-21	-15824	-2856	88	-25	-2	-7	-15376	-1424	-5120	2	-10	19	127	118	8
-9896	-4272	11632	-10	17	-22	-16632	1168	-984	33	7	14	-14896	2776	-5872	28	2	4	-9392	3992	12816	22	-5	-27	-15848	-3176	88	-35	-7	-5	-15360	-1312	-5144	-8	-1	19	127	121	8
-9960	-4336	11680	-12	17	-22	-16456	1416	-872	16	9	16	-14816	2744	-5696	31	0	8	-9344	3752	13120	13	-7	-23	-15688	-3072	-72	-16	1	-5	-15384	-1528	-5032	-3	-9	20	127	120	8
-9880	-4340	11680	-15	18	-25	-16616	1424	-712	18	7	18	-14928	2712	-5840	27	6	9	-9536	4016	13096	18	-5	-24	-15776	-3056	224	-2	3	-6	-15192	-1352	-5432	0	-11	19	127	120	8
-9968	-4348	11700	-12	16	-22	-16560	1312	-1000	17	9	20	-14888	2664	-5816	26	0	6	-9400	4352	13288	16	-10	-22	-15976	-3216	0	3	3	-4	-15280	-1240	-5280	5	-12	17	127	118	8
-9928	-4300	11604	-11	14	-26	-16552	1232	-544	17	9	16	-14920	2696	-5752	25	4	4	-9392	3952	12952	16	-4	-23	-15696	-3224	80	1	0	-5	-15176	-1184	-4944	8	-7	13	127	119	8
-9964	-4372	11608	-15	14	-22	-16704	1240	-720	18	8	15	-14808	2648	-5976	29	4	6	-9424	4072	13024	17	-2	-20	-15752	-3184	-8	-9	2	-4	-15320	-1392	-5152	9	-10	16	127	121	8
-9940	-4324	11596	-15	13	-27	-16704	1280	-776	24	8	14	-14808	2880	-5776	32	1	9	-9504	3968	13176	18	-3	-21	-15816	-3240	-120	-1	0	-3	-15376	-1368	-5128	8	-9	20	127	121	8
-9960	-4316	11776	-10	14	-23	-16520	1240	-632	20	3	20	-14872	2640	-5800	25	3	11	-9504	4040	13064	18	-9	-24	-15984	-3248	0	6	5	-8	-15216	-1272	-5128	6	-5	21	127	117	8
-9960	-4272	11680	-10	13	-20	-16536	1264	-920	14	9	15	-14872	2760	-5784	28	3	9	-9480	3992	12976	15	-5	-23	-15744	-3144	-8	-1	4	-4	-15352	-1224	-4920	4	-12	18	127	119	8
-9944	-4292	11672	-7	19	-22	-16640	1176	-912	20	7	10	-14832	2816	-5920	26	1	7	-9640	4152	13208	19	-10	-21	-15848	-3032	-232	-14	4	-6	-15320	-1328	-5144	2	-11	19	127	120	8
-9916	-4348	11536	-10	14	-20	-16672	1248	-888	22	3	18	-14856	2720	-5856	28	5	5	-9400	4024	13008	19	-9	-22	-15752	-3224	-152	-9	0	-2	-15416	-1344	-5168	3	-10	18	127	120	8
-9900	-4232	11556	-9	13	-22	-16696	1312	-848	17	5	18	-14880	2880	-5896	29	3	4	-9368	3984	13096	15	-8	-21	-15912	-3224	224	-2	8	-7	-15232	-1352	-5256	6	-7	17	127	117	8
-9884	-4344	11680	-8	17	-23	-16608	1280	-912	20	5	17	-14816	2792	-5752	25	8	7	-9440	4048	13232	13	-4	-23	-15752	-3152	0	-4	1	-10	-15152	-1296	-5304	-1	-7	19	127	120	8
-9920	-4348	11696	-9	17	-20	-16704	1216	-920	20	4	18	-14920	2752	-6040	25	2	7	-9512	4064	13280	15	-10	-22	-15928	-3136	-88	-3	0	-4	-15208	-1224	-5200	0	-8	24	127	120	8
-9928	-4300	11604	-14	15	-27	-16656	1376	-848	17	7	14	-14832	2920	-5704	26	-6	8	-9432	3888	12952	14	-7	-18	-15848	-3192	-112	-4	-1	-3	-15368	-1352	-5104	7	-6	17	127	120	8
-9952	-4324	11608	-17	17	-21	-16608	1336	-848	21	8	16	-14808	2840	-5984	24	-5	13	-9512	4040	13184	16	-8	-19	-15848	-3184	-272	1	-3	-6	-15320	-1480	-5168	6	-10	18	127	117	8
-9936	-4304	11684	-6	17	-27	-16616	1328	-832	21	0	17	-14912	2744	-5984	27	2	6	-9560	4040	13088	17	-6	-20	-15720	-3264	24	0	-1	-7	-15280	-1344	-4992	3	-14	18	127	118	8
-9976	-4384	11660	-9	14	-20	-16632	1256	-984	19	3	17	-14872	2848	-5880	22	1	6	-9448	4072	13152	15	-5	-17	-15784	-3048	144	-8	0	-4	-15256	-1264	-5136	-1	-15	17	127	118	8
-9900	-4344	11608	-11	19	-24	-16592	1216	-920	19	3	18	-14880	2760	-6032	25	-1	3	-9376	4088	13048	15	-3	-24	-15944	-3232	-112	-14	3	-5	-15352	-1392	-4880	-3	-12	22	127	120	8
-9916	-4304	11648	-11	18	-25	-16712	1240	-632	17	1	15	-14720	2736	-5784	23	-1	7	-9456	3960	13224	14	-7	-22	-16000	-3168	16	-3	-1	-7	-15256	-1296	-5096	1	-9	20	127	117	8
-9968	-4268	11668	-10	17	-19	-16640	1200	-848	11	-1	18	-14888	2648	-5976	27	0	2	-9472	3944	13168	17	-13	-23	-15792	-3072	-120	14	-3	-6	-15304	-1264	-4960	3	-10	21	127	119	8
-9916	-4280	11704	-9	14	-25	-16672	1320	-1032	10	-1	15	-15008	2744	-5808	17	-2	5	-9544	3952	13152	16	-6	-23	-15880	-2976	32	6	4	-6	-15256	-1440	-5208	4	-9	22	127	121	8
-9980	-4328	11692	-15	19	-27	-16656	1288	-792	13	-2	12	-14912	2744	-5944	22	-2	4	-9480	4072	13016	17	-5	-20	-15760	-3192	184	-15	-7	-5	-15272	-1376	-5216	0	-17	18	127	119	8
-9924	-4356	11636	-13	14	-23	-16784	1304	-864	8	-5	16	-14928	2760	-5808	17	-5	6	-9536	4040	13216	15	-1	-19	-15824	-3208	-40	-10	-2	-7	-15352	-1400	-5192	-5	-14	12	127	120	8
-9976	-4300	11640	-12	12	-20	-16584	1216	-864	4	1	11	-14840	2888	-5936	17	-5	0	-9456	3952	13272	19	-5	-13	-15704	-3008	-144	1	0	-2	-15144	-1288	-5080	-2	-12	21	127	119	8
-9932	-4340	11660	-9	18	-23	-16600	1240	-664	5	-3	13	-14800	2848	-5944	17	-2	-3	-9472	4000	13136	18	-8	-20	-15728	-3176	-360	-3	-1	-6	-15256	-1256	-5032	-2	-10	19	127	120	8
-9976	-4284	11708	-11	17	-21	-16560	1256	-888	13	-7	18	-14752	2736	-5752	18	-1	2	-9432	4080	13016	15	-5	-17	-15896	-3080	16	7	-2	-9	-15432	-1352	-5248	-3	-9	21	127	120	8
-9968	-4292	11692	-14	14	-26	-16608	1392	-928	8	-1	18	-14912	2768	-6016	16	-2	2	-9576	3944	13016	15	-11	-19	-15992	-3240	16	9	-2	-5	-15440	-1240	-5336	-1	-18	20	127	121	8
-9964	-4324	11560	-10	12	-25	-16792	1200	-656	-1	-4	11	-14872	2760	-5840	17	-2	1	-9592	4112	13096	11	-6	-19	-15888	-3176	-40	12	-2	-4	-15328	-1248	-5096	-1	-16	20	127	118	8
-9884	-4304	11660	-9	17	-23	-16552	1264	-920	5	-6	19	-14976	2728	-5680	12	-4	0	-9360	4136	13336	15	-8	-22	-15848	-3160	-80	-1	-6	-4	-15304	-1256	-5184	-2	-19	22	127	119	8
-9948	-4320	11624	-6	12	-21	-16520	1232	-816	-2	-7	14	-14904	2736	-6072	17	-7	2	-9496	4080	13160	16	-4	-15	-15888	-3320	-272	-5	-4	-4	-15392	-1304	-5248	0	-11	16	127	121	8
-9912	-4348	11696	-8	15	-24	-16648	1336	-872	5	-6	18	-14888	2824	-5880	12	-6	-1	-9600	4096	13112	19	-7	-15	-15880	-3024	-200	0	-4	-8	-15248	-1360	-5496	-5	-14	18	127	120	8
-9956	-4300	11616	-12	15	-28	-16696	1272	-864	-2	-10	19	-14792	2736	-5824	15	-6	1	-9368	3920	13176	15	-3	-22	-15848	-3120	-160	6	-7	-2	-15256	-1256	-5200	-1	-21	20	127	121	8
-9972	-4324	11572	-9	17	-24	-16632	1232	-896	3	-13	17	-14856	2712	-5880	17	-8	2	-9472	4048	13160	15	-7	-15	-15848	-3216	-128	1	-9	-5	-15296	-1272	-5032	-5	-19	17	127	121	8
-9944	-4320	11664	-8	16	-27	-16632	1336	-672	3	-10	14	-14872	2760	-5840	17	-9	2	-9496	4232	13120	13	-5	-18	-15752	-3208	72	5	-13	-9	-15344	-1424	-5160	-5	-20	17	127	119	8
-9996	-4308	11552	-12	15	-27	-16608	1256	-880	5	-11	18	-14960	2816	-5760	18	-6	4	-9416	4096	13272	14	-4	-18	-15912	-3280	64	8	-8	-8	-15280	-1264	-5272	3	-9	20	127	119	8
-9896	-4276	11664	-9	11	-30	-16608	1216	-848	3	-8	11	-14824	2744	-5864	18	-3	-2	-9440	4000	13200	17	-10	-16	-15768	-3096	-56	4	-15	-2	-15376	-1376	-5208	-4	-15	18	127	118	8
-9932	-4268	11672	-12	16	-28	-16584	1256	-856	7	-11	16	-14952	2712	-5896	20	-2	3	-9376	4032	13360	15	-9	-18	-15880	-3144	-232	0	-10	-5	-15360	-1344	-5136	-4	-23	17	127	117	8
-9936	-4256	11620	-11	12	-20	-16568	1200	-776	2	-11	13	-14816	2736	-5784	16	-10	0	-9488	4064	12992	12	-9	-17	-15808	-3392	120	14	-13	-1	-15288	-1160	-5160	4	-18	21	127	121	8
-9980	-4316	11596	-11	9	-25	-16616	1160	-800	-2	-13	18	-14824	2768	-5480	17	-5	3	-9440	3968	13168	15	-8	-18	-15800	-3328	-224	17	-10	-2	-15432	-1248	-5272	8	-19	18	127	121	8
-9984	-4292	11600	-14	10	-26	-16800	1256	-736	-4	-15	18	-14992	2760	-5752	11	-3	4	-9368	4088	13200	14	-11	-21	-15800	-3152	16	18	-10	-1	-15208	-1352	-4936	5	-22	18	127	120	8
-9924	-4336	11636	-14	8	-28	-16528	1288	-712	2	-13	14	-14760	2864	-5776	16	-1	2	-9424	4000	13144	12	-4	-16	-15936	-3176	-112	15	-7	-4	-15448	-1384	-5104	3	-17	24	127	118	8
-9880	-4320	11712	-6	10	-28	-16728	1256	-800	4	-15	16	-14952	2792	-5568	10	-7	-1	-9528	3992	13016	15	-8	-20	-15976	-3064	-120	1	-2	-2	-15448	-1224	-4872	2	-17	24	127	120	8
-9936	-4280	11652	-9	11	-24	-16632	1112	-944	2	-9	13	-14840	2864	-5800	14	-8	1	-9408	4176	13264	16	-6	-21	-15888	-3040	16	-8	-11	-5	-15416	-1352	-5256	-3	-20	23	127	119	8
-9948	-4320	11680	-6	9	-26	-16640	1288	-752	-8	-9	11	-14888	2824	-5752	13	-11	4	-9416	4032	13176	11	-8	-21	-15848	-3232	-48	0	-5	-5	-15280	-1272	-5104	2	-19	21	127	120	8
-9880	-4284	11764	-8	8	-28	-16496	1264	-920	-14	-9	13	-14928	2808	-5600	12	-8	1	-9456	3992	13096	13	-3	-18	-15856	-3304	240	12	-6	-4	-15360	-1272	-5144	5	-18	17	127	119	8
-9872	-4288	11620	-6	10	-28	-16600	1472	-624	-13	-7	13	-14904	2760	-5752	8	-2	3	-9336	4104	13224	14	-4	-19	-15728	-3088	64	20	-7	1	-15272	-1320	-5104	1	-21	22	127	119	8
-9876	-4280	11640	-3	18	-23	-16736	1376	-832	-18	-6	9	-14896	2776	-5920	9	-3	2	-9360	4048	12944	11	-2	-21	-15792	-3248	104	5	-6	-4	-15240	-1424	-4912	2	-22	22	127	120	8
-9840	-4376	11816	-6	16	-24	-16608	1112	-832	6	-5	15	-14952	2904	-5648	14	-9	3	-9408	4032	13256	12	-7	-20	-15792	-3168	88	9	-5	-4	-15344	-1352	-5120	6	-24	20	127	121	8
-9928	-4324	11736	-6	16	-27	-16744	1272	-544	2	-6	15	-14944	2704	-5544	25	-11	4	-9472	4072	13224	13	-2	-21	-15816	-3048	-80	11	-2	-7	-15224	-1256	-5056	9	-18	21	127	121	8
-9964	-4304	11644	-9	11	-30	-16632	1144	-736	8	-5	13	-14888	2688	-6128	26	-5	5	-9424	4104	13344	15	-10	-18	-15840	-3200	-144	26	-1	-6	-15256	-1208	-5240	8	-17	24	127	119	8
-9928	-4284	11600	-9	12	-25	-16720	1296	-832	13	-2	14	-14712	2872	-5776	24	-6	5	-9568	4152	13120	20	-10	-16	-15864	-3200	24	0	-6	-7	-15320	-1328	-5048	9	-16	18	127	118	8
-9940	-4376	11620	-10	12	-25	-16560	1240	-816	7	-6	13	-14856	2832	-5808	23	-5	5	-9464	4024	13256	12	-6	-23	-15760	-3184	-48	-13	-7	-4	-15368	-1328	-5104	8	-14	23	127	120	8
-9948	-4264	11692	-14	11	-27	-16608	1288	-704	9	-6	12	-14952	2752	-5768	26	0	4	-9400	3984	13016	10	1	-18	-15704	-3176	-272	0	-9	-10	-15320	-1336	-5144	2	-16	19	127	120	8
-9924	-4328	11632	-11	14	-27	-16616	1176	-784	7	-6	16	-14856	2832	-5808	25	0	0	-9472	4104	13160	17	-7	-17	-15816	-3184	8	13	-9	-8	-15272	-1400	-5272	5	-19	14	127	121	8
-9896	-4288	11744	-8	11	-23	-16560	1304	-616	5	-10	14	-14872	2744	-5928	22	4	0	-9440	4096	13248	14	-7	-20	-15880	-3144	-56	13	-9	-9	-15256	-1152	-5152	4	-17	16	127	120	8
-9952	-4272	11756	-14	17	-26	-16624	1296	-712	7	-7	12	-14848	2808	-5800	24	-2	3	-9320	3944	13248	17	-3	-23	-15808	-3280	216	7	-7	-4	-15376	-1336	-4776	7	-16	16	127	119	8
-9892	-4316	11696	-14	15	-29	-16656	1224	-592	19	-1	15	-14896	2784	-5920	24	-2	1	-9496	3920	13088	11	-5	-23	-15920	-3136	-56	12	-6	-9	-15392	-1168	-5032	8	-20	25	127	122	8
-9884	-4316	11616	-5	13	-28	-16648	1216	-608	14	-3	20	-14848	2808	-5664	23	6	7	-9448	4048	13160	16	-6	-17	-15880	-3216	72	14	-7	-5	-15352	-1296	-5048	7	-16	17	127	122	8
-9912	-4256	11608	-7	15	-25	-16616	1328	-680	4	-5	12	-15008	2648	-5816	22	-2	3	-9320	3992	13184	17	-11	-20	-15784	-3168	80	15	-4	-6	-15392	-1328	-4944	5	-15	19	127	120	8
-9924	-4276	11700	-7	15	-23	-16688	1272	-888	-7	-7	15	-14840	2656	-5912	19	1	5	-9488	4072	13176	12	-4	-23	-15896	-3024	24	-6	-4	-6	-15264	-1240	-4928	3	-9	18	127	119	8
-9928	-4276	11824	-12	15	-24	-16736	1224	-776	2	-1	10	-15056	2736	-5392	16	2	1	-9424	3952	13192	20	-9	-24	-15824	-3216	-112	-23	-2	-5	-15216	-1232	-5032	-2	-14	17	127	120	8
-9952	-4320	11784	-13	13	-25	-16648	1336	-920	20	0	14	-14928	2496	-5640	20	2	2	-9408	4080	13176	15	-4	-25	-15976	-3192	-168	-10	1	-9	-15424	-1424	-5128	-4	-19	15	127	118	8
-9964	-4352	11648	-14	16	-25	-16672	1424	-824	15	6	19	-15048	2760	-5704	26	0	4	-9424	4016	12928	21	-9	-26	-15920	-3168	8	8	-1	-5	-15184	-1416	-5040	6	-16	14	127	120	8
-9908	-4316	11708	-13	14	-21	-16768	1200	-856	9	3	13	-14896	2760	-5496	22	0	6	-9576	4088	13056	17	-9	-24	-15904	-3016	-192	4	1	-4	-15376	-1384	-5264	1	-9	14	127	120	8
-9964	-4328	11640	-15	18	-28	-16560	1136	-752	20	5	12	-14888	2752	-5864	29	5	8	-9392	3968	12896	17	-10	-24	-15856	-3264	-112	-2	-3	-2	-15136	-1288	-4920	3	-13	23	127	119	8
-9912	-4356	11604	-13	15	-22	-16512	1096	-856	17	7	15	-14960	2664	-5632	24	2	1	-9472	4192	13032	14	-6	-27	-15712	-3072	-40	5	-1	-8	-15280	-1280	-4896	5	-8	21	127	120	8
-9948	-4320	11716	-13	13	-22	-16744	1328	-752	16	1	16	-14896	2712	-5816	26	5	2	-9456	3904	13048	14	-10	-21	-15776	-3120	72	-6	-1	-7	-15328	-1384	-5056	2	-14	18	127	119	8
-9860	-4260	11712	-12	14	-24	-16672	1168	-592	13	-1	19	-14832	2856	-6000	29	3	6	-9504	4000	13120	16	-11	-21	-15752	-3304	40	-6	1	-7	-15264	-1312	-5128	9	-13	16	127	119	8
-9940	-4232	11728	-12	18	-26	-16672	1104	-872	9	2	16	-14880	2768	-5840	24	6	3	-9416	4096	12976	17	-9	-21	-15824	-3088	240	-10	1	-1	-15240	-1496	-5104	-1	-9	23	127	119	8
-10004	-4276	11668	-11	14	-24	-16600	1208	-912	17	3	18	-14912	2792	-5968	25	1	7	-9464	4120	13032	17	-4	-26	-15904	-3224	-16	-4	-4	-9	-15416	-1368	-5016	9	-7	16	127	118	8
-9848	-4348	11588	-13	18	-23	-16600	1344	-688	10	-3	16	-14904	2712	-5480	24	9	6	-9592	4128	13248	17	-2	-23	-15768	-3048	56	-5	-2	-6	-15344	-1384	-4992	6	-11	19	127	117	8
-9872	-4308	11652	-16	15	-21	-16552	1240	-832	11	1	17	-14872	2768	-5592	24	3	7	-9488	4064	13168	17	-5	-19	-15864	-3208	112	3	-1	-4	-15296	-1408	-4896	6	-9	19	127	117	8
-9884	-4304	11584	-16	17	-21	-16576	1216	-680	14	4	15	-15032	2760	-5856	27	1	7	-9440	4096	13112	16	-12	-18	-15936	-3240	176	2	-2	-4	-15376	-1416	-5352	2	-7	22	127	118	8
-9944	-4316	11736	-15	11	-23	-16528	1192	-720	17	3	18	-14968	2760	-5816	29	0	5	-9552	3960	13208	16	-9	-20	-16000	-3200	88	-4	-2	-5	-15328	-1280	-5208	-1	-12	19	127	118	8
-9920	-4284	11592	-9	19	-24	-16616	1320	-952	13	3	18	-14912	2744	-5896	24	8	7	-9544	3928	12888	14	1	-22	-15768	-3104	-296	-1	-2	-9	-15336	-1344	-5440	6	-11	21	127	118	8
-10032	-4296	11708	-7	19	-23	-16504	1248	-704	23	0	19	-14832	2784	-5640	31	2	13	-9320	3936	13208	12	-8	-18	-15800	-3240	64	-2	-1	-5	-15192	-1368	-5120	3	-10	20	127	118	8
-9892	-4252	11780	-7	16	-19	-16632	1264	-856	7	2	17	-15088	2736	-5720	25	5	6	-9488	4136	13080	16	-2	-23	-15760	-3120	272	-10	-2	-5	-15560	-1360	-5088	1	-14	19	127	117	8
-9916	-4284	11676	-10	17	-20	-16680	1168	-624	10	4	14	-14920	2720	-5808	22	2	5	-9408	4112	13080	12	-5	-22	-15784	-3112	64	-18	2	-5	-15384	-1368	-4824	4	-15	18	127	117	8
-9904	-4396	11572	-18	16	-22	-16712	1200	-776	8	5	22	-14976	2704	-5584	22	2	6	-9496	3968	13032	15	3	-24	-15840	-3192	-88	-26	-1	-1	-15296	-1376	-4976	-1	-14	18	127	121	8
-9860	-4344	11784	-10	19	-20	-16448	1376	-1128	15	5	17	-14856	2680	-5640	29	-1	4	-9544	4056	13088	18	-2	-19	-15760	-3184	-16	-15	1	2	-15360	-1296	-4976	1	-10	20	127	121	8
-9972	-4264	11816	-20	18	-24	-16648	1232	-736	14	2	21	-14952	2696	-5888	26	4	7	-9440	3960	13176	19	-4	-20	-15960	-3136	-72	-5	1	-4	-15296	-1376	-5200	5	-7	19	127	121	8
-9880	-4300	11648	-15	16	-24	-16472	1152	-968	18	3	21	-14872	2696	-5592	28	0	5	-9376	4048	13208	18	-6	-21	-15800	-3168	16	-4	0	1	-15216	-1352	-5200	3	-5	19	127	120	8
-9944	-4320	11648	-18	17	-22	-16536	1192	-848	8	5	16	-15008	2776	-5896	27	4	6	-9376	4184	13080	10	-16	-17	-15792	-3296	24	4	-2	-2	-15200	-1368	-5168	0	-14	18	127	120	8
-9956	-4356	11688	-18	18	-19	-16648	1216	-832	11	2	18	-14784	2744	-5896	23	3	7	-9496	4056	13072	15	-7	-18	-15832	-3192	64	-8	0	2	-15344	-1464	-4944	3	-13	17	127	122	8
-9928	-4308	11660	-16	13	-23	-16712	1192	-1128	13	0	20	-14912	2784	-5920	26	-1	10	-9440	4064	13272	20	-7	-16	-15928	-3184	16	-19	-2	-2	-15328	-1336	-5160	-5	-13	15	127	117	8
-9904	-4308	11652	-16	16	-23	-16656	1104	-656	12	3	18	-14824	2752	-5800	21	-2	6	-9480	4032	12992	16	1	-22	-15776	-3192	-200	-17	1	-4	-15184	-1344	-4968	-7	-7	20	127	120	8
-9888	-4264	11620	-12	16	-19	-16616	1312	-752	18	-3	22	-14880	2824	-5624	22	1	2	-9376	3968	13064	15	-3	-23	-15904	-3160	-32	4	-5	-2	-15176	-1400	-5024	-3	-6	18	127	118	8
-9892	-4288	11676	-12	19	-21	-16592	1392	-856	13	-3	26	-14856	2896	-5784	18	-1	8	-9440	4032	13064	20	-10	-24	-15920	-3144	-40	10	-3	-1	-15256	-1448	-4976	0	-6	24	127	119	8
-9892	-4352	11676	-16	18	-23	-16624	1288	-896	5	-6	19	-14832	2688	-5952	16	1	8	-9416	3952	13064	18	-7	-22	-15888	-3240	208	3	-3	0	-15360	-1472	-5144	-4	-12	17	127	119	8
-9892	-4276	11724	-12	15	-28	-16584	1432	-984	-6	-6	16	-15008	2672	-5928	20	-1	4	-9424	4048	13192	18	-4	-22	-15768	-3048	-40	-27	2	-1	-15344	-1280	-5000	-6	-22	18	127	120	8
-9932	-4316	11584	-19	19	-26	-16624	1192	-640	19	-7	16	-15040	2720	-5600	29	-4	8	-9512	3928	13160	18	-5	-16	-15808	-3120	-32	-33	-6	0	-15264	-1424	-5104	-14	-16	21	127	117	8
-9936	-4236	11648	-12	15	-20	-16680	1344	-712	16	-4	25	-15056	2864	-5832	29	0	10	-9528	3960	13192	20	-4	-19	-15720	-3176	-56	-16	-4	2	-15352	-1360	-5136	-6	-12	15	127	121	8
-9936	-4368	11640	-17	17	-25	-16616	1248	-656	12	-4	23	-15048	2792	-5696	25	-1	5	-9512	3920	13328	19	0	-22	-15832	-3184	-200	-2	1	0	-15392	-1200	-5024	-8	-11	23	127	120	8
-9936	-4324	11652	-8	10	-27	-16656	1328	-1008	6	-8	21	-15024	2640	-5704	15	-3	9	-9496	3976	13072	16	-4	-16	-15760	-3144	136	-10	0	-1	-15304	-1328	-5200	-6	-6	18	127	119	8
-9976	-4328	11540	-9	14	-20	-16712	1224	-712	1	-4	21	-14832	2784	-5976	13	0	6	-9416	4048	12808	16	-5	-22	-15832	-3264	64	-8	-3	-5	-15320	-1384	-5080	-1	-13	20	127	119	8
-9972	-4268	11724	-9	10	-21	-16624	1256	-928	2	-2	17	-14880	2720	-5728	17	-1	5	-9568	4040	13136	16	-10	-22	-15904	-3024	-296	-5	-4	-5	-15256	-1328	-5280	1	-10	21	127	120	8
-9884	-4316	11648	-6	9	-24	-16624	1264	-736	2	-2	19	-14928	2696	-5728	16	0	4	-9504	4176	13096	14	-3	-23	-15856	-3200	-208	-3	-2	-3	-15216	-1424	-5056	1	-8	22	127	118	8
-9956	-4268	11644	-16	19	-18	-16608	1144	-672	15	0	19	-14912	2744	-5840	24	0	7	-9320	3832	12968	18	-6	-23	-15840	-3144	-128	-6	1	-1	-15304	-1368	-5096	-6	-15	21	127	119	8
-9948	-4248	11532	-14	17	-23	-16552	1272	-792	17	2	16	-14920	2672	-5576	28	-7	4	-9416	3912	13088	15	-4	-26	-15752	-3288	72	-13	-1	-2	-15352	-1344	-5256	2	-14	23	127	119	8
-9984	-4312	11680	-13	16	-24	-16560	1352	-856	16	3	16	-14808	2872	-5968	27	-2	5	-9424	3944	13248	16	-5	-20	-15784	-3112	-80	-12	-5	-4	-15328	-1432	-5296	0	-16	20	127	117	8
-9956	-4288	11640	-14	15	-22	-16584	1264	-952	22	-3	16	-14960	2896	-5608	26	2	7	-9464	4056	13240	19	-5	-20	-15832	-3104	-112	-2	-2	-4	-15360	-1336	-5152	-2	-11	19	127	121	8
-9996	-4288	11664	-8	19	-23	-16600	1176	-1136	15	-1	17	-14880	2744	-6104	24	-5	7	-9480	4056	13136	15	-5	-21	-15888	-3152	-192	1	0	-2	-15280	-1304	-5104	2	-6	20	127	122	8
-9976	-4280	11732	-7	14	-21	-16672	1280	-688	4	-10	14	-14800	2864	-5992	17	0	1	-9408	3976	13160	12	-4	-21	-15856	-3232	-144	-1	-5	-4	-15296	-1256	-5224	-2	-13	20	127	118	8
-9924	-4372	11648	-7	11	-23	-16592	1160	-832	6	-8	15	-14832	2624	-5768	21	-1	1	-9352	4104	13072	18	-13	-22	-16064	-3280	64	3	-8	-3	-15344	-1376	-5080	2	-15	19	127	119	8
-9908	-4300	11676	-10	19	-23	-16624	1168	-872	7	-6	15	-14912	2728	-5864	23	-5	1	-9488	4024	13080	17	-11	-19	-15776	-3368	-208	2	-4	-4	-15168	-1328	-5000	8	-19	16	127	120	8
-9968	-4316	11608	-11	16	-24	-16600	1280	-968	10	-7	19	-14928	2920	-5744	24	3	3	-9528	4040	13184	14	-8	-18	-15768	-3088	16	10	-7	-8	-15360	-1392	-5280	3	-19	21	127	122	8
-9940	-4300	11708	-9	17	-25	-16592	1344	-952	5	-9	18	-14768	2728	-5776	19	3	4	-9576	4104	13040	15	-6	-21	-15960	-3032	-120	-2	-7	-8	-15416	-1320	-5248	5	-12	23	127	120	8
-9964	-4272	11600	-14	14	-27	-16672	1264	-824	10	-8	18	-14992	2848	-5696	25	-2	3	-9424	4040	12928	16	-8	-18	-15800	-3144	-80	-7	-10	-6	-15184	-1280	-5072	4	-14	19	127	118	8
-9960	-4284	11708	-13	14	-22	-16568	1256	-944	15	-7	15	-14872	2752	-5744	25	-5	3	-9408	4072	13176	15	-7	-19	-15744	-3152	0	3	-7	-9	-15480	-1296	-4936	1	-17	23	127	118	8
-9924	-4356	11684	-9	19	-24	-16496	1320	-768	17	-9	20	-14888	2776	-5800	25	-4	6	-9304	3968	13096	15	-5	-22	-15832	-3096	-88	9	-5	-1	-15288	-1232	-5168	-3	-18	18	127	120	8
-9976	-4256	11724	-10	14	-24	-16680	1280	-872	11	-8	18	-14984	2792	-5704	22	-2	4	-9336	4064	12952	15	-4	-24	-15784	-3224	112	1	-4	-4	-15248	-1392	-5200	-1	-14	16	127	121	8
-9924	-4308	11704	-7	14	-22	-16616	1416	-688	9	-6	15	-14920	2784	-5696	19	-4	1	-9456	4040	13048	17	-5	-17	-15856	-3280	-72	-8	-5	-2	-15240	-1152	-5112	-3	-14	17	127	118	8
-9932	-4352	11704	-15	15	-24	-16712	1176	-856	12	-5	12	-14928	2776	-5832	21	-1	4	-9512	4096	12936	15	-4	-22	-15800	-3328	-200	-17	-9	-5	-15232	-1248	-4944	-5	-22	20	127	120	8
-9880	-4300	11632	-14	18	-27	-16680	1232	-968	15	1	12	-14952	2872	-5840	26	-2	5	-9352	4032	13184	19	-7	-18	-15944	-3136	-136	-4	-4	-6	-15296	-1280	-5136	-4	-18	17	127	120	8
-9928	-4320	11632	-14	11	-26	-16752	1176	-1104	8	-3	14	-14800	2944	-5936	17	-6	2	-9488	4048	13064	14	-1	-19	-15768	-3176	-72	5	-5	-4	-15432	-1320	-5032	4	-14	22	127	122	8
-9932	-4324	11652	-14	17	-25	-16480	1328	-792	6	-2	18	-14896	2704	-5776	17	-2	1	-9408	4072	13040	19	-7	-18	-15944	-3192	-88	8	-1	-2	-15360	-1296	-5272	4	-15	21	127	121	8
-9968	-4396	11824	-17	14	-22	-16592	1272	-816	7	-9	16	-14928	2688	-5872	14	0	0	-9360	4064	13128	16	-5	-21	-15784	-3104	-240	0	-8	-8	-15352	-1312	-5216	6	-18	19	127	120	8
-9968	-4316	11596	-10	14	-22	-16544	1240	-912	3	-8	15	-14808	2808	-5624	15	1	2	-9504	4072	13096	17	-8	-21	-15768	-3184	56	1	-6	-7	-15272	-1328	-5192	2	-20	18	127	120	8
-9980	-4288	11652	-12	11	-22	-16528	1304	-952	1	-9	14	-14960	2832	-5808	13	3	2	-9440	4120	13024	17	-8	-14	-15880	-3096	56	2	-6	-1	-15368	-1296	-5152	-3	-19	18	127	121	8
-9892	-4304	11620	-11	10	-26	-16560	1288	-1048	-1	-7	12	-14840	2704	-5600	14	-2	3	-9488	4080	13040	17	-7	-18	-15832	-3208	-216	6	-5	-9	-15304	-1208	-5344	-3	-15	19	127	119	8
-9952	-4380	11656	-12	16	-29	-16608	1280	-904	6	-10	12	-14848	2840	-5688	19	-2	-1	-9488	4096	13200	16	-4	-18	-15800	-3040	-120	-4	-7	-4	-15184	-1232	-5224	-3	-15	16	127	118	8
-9976	-4296	11640	-7	12	-27	-16456	1456	-984	6	-11	17	-14840	2840	-5832	26	-5	3	-9544	4128	13240	11	-11	-21	-15800	-3152	-184	-3	-6	-6	-15296	-1376	-5088	-2	-20	19	127	120	8
-9916	-4300	11640	-11	16	-28	-16680	1144	-856	18	-14	16	-14904	2832	-5664	28	-4	2	-9504	3992	13048	16	-6	-19	-15800	-3176	24	5	-12	-6	-15304	-1296	-5168	-3	-21	15	127	122	8
-9908	-4252	11620	-10	14	-26	-16560	1400	-760	12	-8	17	-14872	2792	-6000	18	-3	3	-9448	4064	13008	15	-4	-16	-15744	-3168	-72	18	-6	-3	-15272	-1464	-5024	4	-18	16	127	119	8
-9896	-4312	11716	-16	11	-28	-16624	1304	-616	2	-9	13	-15008	2720	-5696	21	-4	4	-9320	3992	13400	15	-13	-21	-15816	-3024	-128	10	-7	-6	-15240	-1304	-5048	7	-21	17	127	117	8
-9924	-4288	11680	-17	9	-25	-16592	1128	-824	7	-4	14	-14960	2680	-5752	22	1	3	-9552	3872	13312	13	-7	-19	-15880	-3168	-48	10	-9	-9	-15264	-1344	-5120	4	-14	19	127	117	8
-9880	-4304	11624	-21	13	-28	-16592	1328	-952	10	-4	14	-15048	2744	-5664	26	-4	4	-9496	4080	13208	12	-9	-22	-15744	-3112	120	-3	-4	-9	-15416	-1304	-5144	8	-17	20	127	120	8
-9956	-4284	11588	-8	14	-25	-16552	1240	-872	9	-5	10	-14944	2944	-5768	21	5	2	-9504	4048	13288	15	-8	-23	-15944	-3136	-48	4	-3	-3	-15232	-1368	-4944	7	-20	18	128	120	8
-9948	-4312	11584	-8	13	-28	-16568	1304	-640	15	-7	16	-14904	2688	-5816	25	0	3	-9424	3984	13248	15	-4	-19	-15856	-3184	-152	-6	-8	-3	-15288	-1240	-5088	2	-18	20	127	120	8
-9872	-4340	11620	-7	14	-22	-16568	1112	-800	12	-4	14	-14912	2792	-5664	23	-5	4	-9432	4104	13144	14	-1	-23	-15816	-3040	-136	-24	-2	-8	-15200	-1280	-5144	2	-17	21	128	120	8
-9936	-4332	11724	-13	16	-25	-16544	1176	-928	24	-2	15	-14768	2848	-5832	27	-5	2	-9464	3944	13128	13	-7	-23	-15896	-3296	96	-2	0	-5	-15352	-1400	-5184	-1	-19	24	127	119	8
-9896	-4296	11620	-7	19	-25	-16720	1272	-664	18	-2	13	-14808	2888	-5800	22	-2	-1	-9400	4088	13056	17	-7	-18	-15704	-3104	-144	-1	0	-3	-15376	-1400	-5160	5	-19	20	128	121	8
-10004	-4340	11728	-10	12	-23	-16504	1208	-960	5	-6	15	-15016	2712	-5632	21	-8	3	-9528	4144	13056	17	-4	-17	-15832	-3040	64	11	-2	-4	-15176	-1344	-4904	5	-13	22	127	119	8
-9956	-4304	11688	-11	15	-28	-16608	1224	-736	6	-5	14	-14760	2920	-5744	18	0	5	-9440	4128	13136	15	-8	-21	-15808	-3120	8	-2	-4	-8	-15288	-1312	-5104	5	-19	22	127	121	8
-9964	-4380	11644	-8	15	-24	-16640	1224	-1008	14	-6	11	-14824	2776	-5824	19	-6	2	-9328	3968	13168	15	-8	-15	-15712	-3160	-72	-6	-4	-6	-15360	-1288	-5080	1	-23	20	127	118	8
-9948	-4340	11596	-8	16	-24	-16520	1304	-960	9	-5	14	-14688	2696	-5584	25	-7	3	-9488	4096	13056	13	-1	-22	-15800	-3152	8	-7	-6	-5	-15240	-1344	-5048	2	-16	21	127	120	8
-9928	-4408	11676	-5	18	-23	-16552	1232	-912	9	-6	18	-14904	2720	-5816	19	-3	4	-9376	4024	12976	17	-10	-21	-15976	-3224	-160	-15	-8	-2	-15240	-1248	-5112	-3	-18	19	127	121	8
-9920	-4364	11692	-12	15	-24	-16536	1176	-656	9	-11	14	-14944	2752	-5808	18	-7	3	-9448	4024	13016	16	-4	-21	-15912	-3184	8	-5	-9	-7	-15288	-1304	-5120	4	-20	17	127	119	8
-9964	-4320	11612	-12	16	-23	-16648	1168	-872	11	-11	18	-14808	2640	-5776	23	-4	7	-9560	4024	13136	19	-1	-18	-15880	-3224	56	3	-8	-7	-15264	-1400	-5056	4	-16	19	127	120	8
-9964	-4276	11612	-14	17	-27	-16584	1240	-856	13	-8	17	-14784	2728	-5688	28	1	2	-9648	4024	13200	16	-4	-17	-15792	-3240	-80	10	-10	-8	-15360	-1352	-5048	3	-18	18	127	120	8
-9924	-4236	11736	-15	16	-27	-16624	1216	-848	13	-7	16	-14960	2872	-5752	30	-1	6	-9600	4096	13192	16	-8	-22	-15800	-3032	16	-5	-8	-5	-15384	-1328	-5096	-3	-22	21	127	119	8
-9944	-4328	11680	-15	16	-28	-16456	1168	-832	20	-8	15	-14968	2816	-5712	29	-6	8	-9552	3984	13224	17	-5	-21	-15904	-3232	88	-9	-9	-6	-15432	-1264	-5256	5	-21	16	127	118	8
-9976	-4308	11712	-17	16	-24	-16592	1376	-624	17	-4	14	-14824	2704	-5840	29	-6	5	-9632	3968	12976	17	-8	-20	-15848	-3328	-216	-2	-4	-7	-15344	-1240	-5088	3	-20	22	127	121	8
-9904	-4348	11696	-11	16	-26	-16696	1288	-920	12	-3	12	-14936	2840	-5720	24	-6	2	-9400	4200	13096	16	-6	-21	-15752	-3176	0	7	-9	-4	-15328	-1352	-5024	1	-16	22	127	121	8
-9920	-4300	11684	-8	12	-22	-16656	1528	-664	7	-8	19	-15048	2784	-5824	22	-2	4	-9424	4104	13232	18	-11	-19	-15792	-3008	40	2	-10	-4	-15392	-1448	-5048	4	-16	17	127	121	8
-9884	-4332	11644	-14	14	-24	-16584	1160	-808	5	-6	15	-14944	2792	-5880	21	-4	0	-9472	4016	13224	13	-2	-22	-15768	-3056	104	-1	-12	-7	-15224	-1320	-5040	0	-18	23	127	119	8
-9972	-4324	11628	-10	16	-25	-16800	1288	-608	11	-4	15	-15008	2792	-5520	26	-1	7	-9560	3976	13264	17	-3	-14	-15848	-3024	96	-1	-6	-11	-15472	-1504	-5200	-2	-20	16	127	121	8
-9996	-4280	11760	-13	16	-26	-16600	1224	-688	10	-3	14	-14936	2584	-5816	23	-8	4	-9352	3992	13288	17	-3	-21	-15808	-3080	264	2	-7	-7	-15280	-1312	-5248	1	-22	21	127	121	8
-9880	-4324	11768	-12	16	-25	-16472	1296	-880	10	-3	9	-14920	2816	-5720	29	0	9	-9456	4024	13016	18	-7	-19	-15848	-3160	-120	-5	-8	-5	-15272	-1320	-5016	-2	-20	17	127	121	8
-9876	-4304	11556	-12	15	-25	-16648	1352	-832	10	-4	13	-14832	2808	-6064	31	-5	7	-9368	4000	13224	18	-14	-19	-15952	-3056	-56	-7	-5	0	-15304	-1264	-5096	0	-15	21	127	120	8
-9920	-4288	11664	-7	18	-24	-16640	1280	-1104	24	-3	16	-14960	2728	-5768	25	-3	3	-9240	4096	13304	17	-7	-18	-15744	-3184	-144	3	-1	-3	-15360	-1336	-5048	2	-15	22	127	120	8
-9948	-4264	11640	-10	17	-22	-16744	1232	-1072	18	-1	13	-14880	2776	-5896	26	0	5	-9376	4048	13184	15	-2	-21	-15760	-2976	-80	4	0	-3	-15440	-1264	-5080	2	-19	23	127	119	8
-9932	-4360	11768	-14	15	-27	-16520	1240	-720	15	0	16	-14920	2680	-5856	28	-2	4	-9600	4072	13064	14	-7	-21	-15712	-3064	-216	4	-4	-7	-15168	-1392	-5096	4	-18	20	127	118	8
-9960	-4360	11660	-10	15	-24	-16576	1136	-768	13	-4	22	-14952	2592	-5752	28	-9	10	-9480	4040	13128	19	-7	-25	-15816	-3240	336	3	-1	-8	-15304	-1288	-5216	0	-13	20	127	120	8
-9968	-4400	11608	-15	15	-26	-16768	1176	-928	9	-5	16	-14976	2624	-5648	25	-5	8	-9472	4072	13320	17	-8	-22	-15840	-3048	64	-14	-2	-3	-15384	-1296	-4984	3	-13	18	127	120	8
-9928	-4284	11624	-11	16	-23	-16624	1200	-720	14	2	14	-15040	2728	-5752	32	-3	7	-9440	3928	13080	13	-2	-18	-15944	-3248	160	-8	-5	-5	-15352	-1344	-5008	0	-15	19	127	118	8
-9952	-4308	11644	-15	15	-25	-16584	1256	-832	21	-1	17	-14920	2688	-5760	32	0	5	-9528	4136	13016	19	-7	-17	-15880	-3192	24	11	-6	-5	-15336	-1288	-5168	5	-13	24	127	120	8
-9852	-4356	11624	-15	13	-25	-16584	1232	-792	16	0	13	-14760	2736	-5728	29	1	8	-9472	4024	13096	12	-9	-19	-15832	-3168	-8	9	-2	-7	-15432	-1184	-5080	5	-13	21	127	120	8
-9912	-4320	11604	-16	11	-24	-16656	1232	-768	15	-2	13	-14928	2720	-5696	16	2	5	-9496	4040	12888	14	-5	-27	-16024	-3088	8	-5	-1	-5	-15416	-1240	-5088	5	-11	17	127	119	8
-9964	-4244	11620	-11	16	-23	-16568	1152	-704	11	2	15	-14896	2680	-5680	20	0	4	-9376	3944	13032	18	-11	-20	-15728	-3264	-48	-13	-3	-7	-15272	-1384	-4936	-2	-14	21	127	121	8
-9840	-4404	11668	-6	13	-22	-16624	1264	-720	12	1	17	-14968	2672	-5768	20	0	1	-9464	4096	13232	12	-9	-21	-15944	-3136	-168	-1	2	-6	-15400	-1296	-5224	4	-14	19	127	120	8
-9928	-4308	11608	-9	12	-21	-16528	1264	-984	6	0	15	-14960	2896	-5720	21	1	4	-9480	4016	13072	18	-5	-18	-15656	-3216	264	5	-8	-3	-15256	-1256	-5032	1	-12	17	127	117	8
-9920	-4264	11704	-10	13	-22	-16568	1120	-880	4	-4	13	-14952	2648	-5752	13	0	9	-9464	4064	13176	14	-7	-21	-15808	-3072	-80	4	-2	-7	-15304	-1296	-4992	3	-14	22	127	118	8
-9928	-4316	11660	-14	17	-24	-16424	1264	-776	6	3	15	-14840	2760	-5856	18	-1	4	-9504	3936	13272	16	-10	-21	-15960	-3296	-80	-4	-3	-6	-15392	-1312	-5136	2	-15	20	127	120	8
-9948	-4316	11624	-12	16	-26	-16592	1200	-656	8	-10	16	-14920	2656	-5600	21	-2	6	-9464	4016	13128	15	-3	-23	-15848	-3176	-88	-4	0	-4	-15200	-1304	-5136	2	-5	16	127	120	8
-9932	-4364	11764	-11	16	-24	-16656	1392	-696	9	-4	15	-14824	2784	-5600	25	4	4	-9640	3968	12968	13	-4	-17	-15896	-3224	-88	5	-4	-5	-15368	-1376	-5296	-1	-12	20	127	121	8
-9944	-4272	11720	-13	20	-22	-16568	1168	-920	11	-5	15	-14984	2664	-5520	28	2	8	-9488	4056	13056	14	-7	-14	-15784	-3000	24	5	-4	-8	-15416	-1464	-5104	-3	-15	20	127	121	8
-9964	-4316	11736	-10	17	-22	-16528	1256	-952	8	-1	18	-14984	2640	-5872	18	1	6	-9560	3904	13272	16	-8	-18	-15848	-3072	32	1	-8	-2	-15232	-1248	-5104	2	-13	18	127	121	8
-9884	-4320	11628	-10	14	-23	-16552	1288	-832	10	-4	16	-14880	2816	-5872	16	0	4	-9392	3976	13216	14	-9	-20	-15840	-3208	-224	8	-3	-6	-15304	-1376	-5256	3	-15	20	127	121	8
-9928	-4376	11688	-10	16	-23	-16568	1240	-760	7	-3	18	-14936	2768	-5656	18	1	7	-9464	4000	13120	16	-9	-18	-15744	-3224	144	10	-7	-2	-15336	-1328	-5216	2	-11	20	127	119	8
-9952	-4328	11624	-7	17	-26	-16672	1096	-872	-1	-5	16	-14872	2912	-5720	18	-2	5	-9408	3984	13320	16	-7	-22	-15688	-3136	16	2	-3	-7	-15416	-1232	-5056	4	-13	20	127	121	8
-9940	-4324	11600	-9	13	-28	-16680	1296	-776	6	-1	12	-15064	2816	-5544	18	0	4	-9504	4000	13184	15	-13	-15	-15888	-3176	-64	-2	0	-4	-15320	-1408	-5264	1	-13	22	127	119	8
-9924	-4308	11652	-13	15	-26	-16584	1408	-920	7	-6	16	-14912	2760	-5808	25	-1	5	-9544	4032	13184	15	-2	-17	-15800	-3136	56	3	-3	-3	-15352	-1360	-5320	4	-13	18	127	119	8
-9920	-4332	11656	-15	13	-22	-16688	1256	-792	5	-7	17	-14880	2880	-5864	21	-3	8	-9392	4128	13224	19	-6	-20	-15888	-2976	-72	1	-1	2	-15360	-1208	-5184	2	-13	19	127	121	8
-9948	-4304	11664	-15	19	-30	-16608	1232	-816	11	-9	18	-14880	2864	-5552	26	-1	4	-9344	3984	13200	17	-12	-16	-15968	-3072	-40	4	-2	-4	-15328	-1208	-5344	0	-14	20	127	118	8
-9944	-4264	11616	-14	12	-29	-16608	1344	-760	10	1	18	-14952	2776	-5784	24	-2	7	-9440	4128	13096	14	-4	-20	-15896	-3088	-152	4	-4	-10	-15296	-1328	-5016	3	-12	14	127	121	8
-9908	-4308	11604	-16	16	-30	-16536	1304	-672	13	-3	17	-14888	2768	-5704	24	7	4	-9536	4032	13216	16	-12	-21	-15856	-3104	-128	-1	-2	-1	-15384	-1440	-5248	-1	-18	20	127	118	8
-9948	-4276	11692	-10	16	-25	-16472	1320	-752	8	-6	21	-14792	2760	-5680	15	-2	7	-9392	4024	13136	17	-5	-19	-15800	-3168	136	4	-3	-7	-15328	-1496	-4936	-2	-12	18	127	120	8
-9976	-4344	11680	-9	11	-23	-16584	1168	-800	2	1	18	-14896	2696	-5728	15	4	1	-9488	3880	13024	13	-7	-21	-15800	-3288	264	0	-2	-2	-15232	-1280	-5032	5	-14	21	127	120	8
-9912	-4276	11640	-9	17	-23	-16720	1272	-832	2	1	16	-14856	2640	-5864	19	1	5	-9376	3920	13120	15	-8	-22	-16000	-3240	-360	-3	2	-7	-15280	-1288	-5040	3	-10	22	127	119	8
-9988	-4268	11628	-13	12	-24	-16672	1264	-928	9	-3	18	-14928	2856	-5664	20	0	3	-9488	3976	12888	17	-10	-17	-15784	-3096	-200	1	2	-7	-15352	-1272	-5016	1	-11	22	127	121	8
-9976	-4344	11572	-11	15	-21	-16680	1256	-904	4	-4	17	-14832	2832	-5824	27	0	2	-9392	4056	13128	16	-4	-15	-15768	-3272	152	13	2	-5	-15400	-1192	-4760	8	-11	26	127	119	8
-9904	-4348	11648	-11	13	-24	-16592	1328	-336	7	-1	20	-14992	2840	-5680	15	-4	7	-9480	3992	13016	22	-7	-18	-15824	-3208	-112	5	1	-8	-15360	-1176	-5168	1	-15	20	127	118	8
-9920	-4324	11720	-13	13	-26	-16688	1264	-824	6	0	17	-14944	2744	-5720	17	-5	7	-9376	4048	13352	12	-11	-20	-15768	-3120	24	-5	-1	-7	-15200	-1376	-5104	4	-14	15	127	120	8
-9976	-4316	11564	-11	15	-25	-16768	1272	-808	4	4	22	-14984	2736	-5704	19	1	8	-9504	4072	13160	14	-8	-17	-15896	-3152	-56	-3	1	-4	-15368	-1328	-5024	-2	-14	14	127	120	8
-9952	-4316	11736	-12	12	-24	-16600	1256	-704	-2	-2	17	-14944	2896	-5744	26	5	0	-9416	4080	13120	13	-11	-19	-15784	-3144	-56	5	-4	-6	-15200	-1312	-5328	2	-11	17	127	120	8
-9932	-4276	11716	-15	14	-30	-16568	1128	-1016	2	-1	16	-14952	2792	-5584	23	9	3	-9472	4056	13360	14	-14	-19	-15832	-3224	40	5	3	-6	-15256	-1400	-5032	3	-6	14	127	121	8
-9904	-4288	11660	-11	14	-24	-16464	1256	-832	9	2	15	-15088	2760	-6016	16	1	3	-9392	3896	13168	16	-9	-23	-15744	-3112	40	2	-2	-4	-15240	-1328	-4944	4	-9	18	127	119	8
-9908	-4304	11584	-3	6	-24	-16640	1328	-784	4	2	17	-14920	2784	-5824	18	-3	4	-9408	4096	13128	10	-13	-19	-15880	-3264	-112	-2	0	-11	-15424	-1392	-5088	2	-9	21	127	121	8
-9908	-4296	11624	-5	14	-24	-16768	1344	-752	1	4	13	-14800	2904	-5744	11	-3	0	-9400	3824	13272	15	-7	-19	-15984	-3136	0	6	2	-3	-15320	-1304	-4888	3	-12	14	127	118	8
-9856	-4304	11720	-6	12	-25	-16648	1320	-720	-3	-4	17	-14872	2784	-5976	11	0	1	-9344	3936	13216	15	-1	-19	-15928	-3208	8	6	-1	-7	-15176	-1344	-5232	3	-11	20	127	118	8
-9868	-4360	11684	-14	16	-23	-16624	1248	-600	-1	1	14	-14984	2728	-5912	9	0	-1	-9424	4088	13120	20	-4	-22	-15928	-3056	-64	-4	1	-9	-15440	-1336	-4960	-2	-10	17	127	118	8
-9928	-4272	11792	-8	8	-21	-16688	1216	-800	7	-1	13	-14904	2712	-5576	9	-3	-1	-9624	3976	13216	16	-5	-24	-15808	-3200	-344	-3	0	-5	-15352	-1320	-5248	-5	-15	17	127	118	8
-9904	-4356	11604	-11	12	-24	-16640	1344	-896	7	0	16	-14920	2752	-5968	12	-6	2	-9528	3960	13120	13	-5	-15	-15648	-3072	-80	-4	4	-8	-15232	-1272	-5104	-5	-11	18	127	118	8
-9948	-4320	11676	-17	17	-26	-16720	1176	-1000	1	-1	16	-14912	2592	-5592	15	-4	3	-9392	3976	13072	18	-10	-20	-15800	-3184	264	-4	-3	-9	-15232	-1336	-5312	-7	-11	12	127	118	8
-9928	-4256	11740	-18	16	-21	-16592	1216	-848	6	-5	12	-14840	2768	-5880	17	-3	1	-9496	4048	12880	13	-13	-23	-15744	-3176	-8	-17	3	-2	-15296	-1312	-4896	-4	-14	12	127	120	8
-9980	-4336	11788	-22	13	-24	-16584	1296	-1000	7	0	15	-14880	2712	-5664	10	-3	1	-9408	4040	13192	12	-10	-19	-15664	-3104	96	-16	0	-8	-15304	-1320	-4896	-11	-15	18	127	120	8
-9908	-4336	11592	-18	14	-25	-16600	1248	-888	8	-3	13	-14856	2808	-5712	15	-3	2	-9432	4072	13400	14	-5	-20	-16024	-3216	-40	2	0	-11	-15160	-1328	-5168	0	-14	17	127	119	8
-9972	-4324	11684	-21	12	-29	-16728	1296	-816	8	1	15	-14904	2768	-5760	19	-2	3	-9472	4000	13272	15	-6	-23	-15904	-3160	-112	2	2	-4	-15280	-1384	-5080	1	-13	18	127	120	8
-9936	-4308	11616	-19	16	-31	-16624	1264	-832	3	-7	16	-14856	2664	-5944	18	1	3	-9440	4048	13336	20	-8	-24	-15680	-3160	-136	-6	-4	-6	-15176	-1400	-5168	1	-12	18	127	119	8
-9952	-4344	11764	-18	13	-27	-16600	1224	-784	8	-2	15	-14840	2600	-5920	21	-1	2	-9352	4048	13032	14	-8	-14	-15688	-3088	64	-4	-4	-2	-15296	-1456	-5008	-2	-16	20	127	120	8
-9896	-4356	11692	-23	13	-27	-16704	1216	-680	13	-1	17	-14912	2696	-5632	26	-1	3	-9400	3984	13096	18	-6	-20	-15800	-3224	8	1	-5	-6	-15240	-1328	-4856	2	-13	15	127	119	8
-9936	-4284	11672	-15	13	-31	-16552	1208	-688	18	-3	12	-14832	2792	-5536	31	-3	3	-9552	3976	13248	19	-10	-20	-15840	-3112	-112	1	-2	-3	-15264	-1304	-4992	-2	-18	18	127	118	8
-9912	-4276	11704	-16	15	-25	-16808	1352	-864	16	-2	12	-15112	2736	-6064	26	-3	5	-9424	3960	12936	14	-7	-19	-15800	-3024	-136	-2	-3	-2	-15264	-1328	-5152	-2	-17	18	127	121	8
-9968	-4328	11696	-14	14	-26	-16688	1248	-720	1	0	14	-14936	2752	-5800	22	-6	5	-9456	3920	13232	15	-6	-19	-15808	-3224	176	-13	-4	-6	-15248	-1448	-5000	0	-17	16	127	120	8
-9952	-4336	11712	-15	15	-23	-16488	1248	-680	4	-1	14	-14880	2624	-5640	24	0	3	-9352	4016	13072	16	-3	-20	-15744	-3240	-56	-8	3	-4	-15392	-1336	-5200	-1	-12	20	127	120	8
-9944	-4264	11656	-14	17	-26	-16632	1096	-712	12	0	15	-14776	2928	-5888	21	1	5	-9496	3952	13112	15	-6	-16	-15728	-3184	-112	1	-3	-4	-15264	-1408	-5200	5	-12	18	127	118	8
-9912	-4260	11680	-13	13	-26	-16576	1096	-816	11	-2	17	-14968	2760	-5824	21	1	3	-9432	4112	12952	14	-1	-23	-15880	-3288	-16	5	-4	-5	-15336	-1344	-5008	10	-17	20	127	118	8
-9884	-4344	11748	-11	13	-28	-16528	1336	-680	7	-1	15	-14800	2776	-5784	22	-2	7	-9440	4104	12904	15	-8	-19	-15792	-3184	-280	6	-3	-8	-15376	-1392	-5152	8	-18	21	127	118	8
-9888	-4300	11616	-15	16	-26	-16616	1232	-736	8	2	18	-14848	2648	-5768	19	-6	6	-9440	4088	13232	12	-2	-21	-15760	-3264	192	6	-1	-4	-15416	-1312	-4912	7	-17	23	127	120	8
-9916	-4228	11700	-11	15	-22	-16680	1128	-968	8	2	15	-14896	2760	-5880	21	1	4	-9424	4000	13112	13	-16	-19	-15808	-3088	-128	-6	0	-1	-15344	-1344	-5144	3	-14	20	127	120	8
-9972	-4372	11680	-7	15	-21	-16752	1320	-984	8	-2	15	-14832	2680	-5864	23	-3	3	-9504	4080	13176	17	-11	-19	-15888	-3200	-48	-2	-1	-1	-15320	-1288	-5312	1	-14	19	127	121	8
-9964	-4320	11660	-10	17	-24	-16672	1312	-856	9	-2	13	-14800	2768	-5912	24	-4	2	-9448	3952	13152	16	-4	-20	-15728	-3192	-48	6	-3	-6	-15232	-1392	-5112	4	-14	17	127	119	8
-9928	-4304	11736	-9	15	-26	-16624	1176	-728	4	-11	21	-14816	2752	-6072	20	-3	5	-9464	3984	13096	15	-13	-23	-15824	-3088	24	6	-6	-5	-15352	-1304	-5256	7	-18	20	127	121	8
-9912	-4224	11688	-15	14	-25	-16520	1384	-1032	23	-2	17	-14960	2984	-5872	25	4	4	-9464	3936	13144	15	-9	-24	-15816	-3192	-224	1	-5	-4	-15352	-1440	-5216	7	-19	21	127	120	8
-9952	-4460	11492	-10	17	-26	-16616	1224	-624	-10	-6	20	-14896	2672	-5760	20	1	5	-9456	4072	13200	18	-11	-19	-15824	-3056	-232	3	-5	-5	-15344	-1296	-5096	14	-17	20	127	118	8
-9948	-4316	11712	-13	14	-24	-16536	1088	-568	8	-5	17	-14984	2776	-5808	25	-6	4	-9464	4160	12984	14	-5	-15	-15888	-3072	-192	19	-6	-6	-15248	-1320	-5080	20	-21	19	127	120	8
-10004	-4328	11700	-10	12	-26	-16616	1288	-752	22	-3	17	-14944	2704	-5512	26	1	6	-9408	4208	12968	14	-14	-27	-15824	-3088	-96	20	-8	-3	-15320	-1464	-5104	12	-18	23	127	120	8
-9876	-4392	11612	-9	12	-24	-16624	1216	-1000	12	-6	19	-14968	2808	-5680	34	-1	10	-9536	3976	13064	15	-5	-22	-15888	-3176	-152	10	0	-9	-15232	-1360	-5104	21	-20	25	127	119	8
-9932	-4328	11620	-12	14	-24	-16512	1264	-760	4	-1	12	-15032	2792	-5696	28	-1	8	-9376	4016	13008	14	-9	-21	-15752	-3160	-8	8	-7	0	-15200	-1312	-5080	16	-20	27	127	120	8
-9944	-4324	11712	-6	16	-26	-16680	1272	-856	14	-6	14	-14904	2720	-5816	36	-2	6	-9440	3984	13192	4	-8	-19	-15784	-3264	-152	3	-4	-4	-15160	-1400	-4976	14	-18	22	127	118	8
-9872	-4288	11692	-12	14	-26	-16504	1264	-880	18	7	15	-14928	2744	-5880	28	1	6	-9440	4016	12992	8	-8	-22	-15896	-3184	-8	13	-7	-6	-15328	-1384	-5080	11	-17	26	127	119	8
-9892	-4280	11608	-9	15	-23	-16616	1264	-912	12	2	16	-14904	2592	-5552	26	-6	7	-9512	4080	13072	13	-8	-19	-15840	-3080	104	22	-3	-4	-15192	-1344	-5152	8	-17	23	127	119	8
-9920	-4352	11508	-6	13	-22	-16640	1280	-736	12	4	16	-15048	2736	-5824	28	-5	7	-9504	3952	13264	14	-11	-20	-15816	-3088	-88	5	-9	-4	-15296	-1272	-5040	12	-16	24	127	118	8
-9932	-4284	11696	-5	12	-25	-16568	1272	-920	3	-2	12	-14896	2736	-5832	22	-2	7	-9408	4080	13192	16	-12	-18	-15912	-3136	-8	2	-9	-5	-15328	-1440	-4928	10	-20	23	127	119	8
-9884	-4288	11648	-9	13	-21	-16552	1280	-928	14	-5	14	-14912	2656	-5760	23	-4	8	-9488	3968	13256	18	-15	-18	-15832	-3200	-8	6	-12	-9	-15360	-1440	-4936	5	-20	22	127	119	8
-9952	-4324	11540	-10	13	-25	-16576	1240	-872	8	-2	14	-14856	2768	-5728	22	-10	7	-9440	4136	13168	21	-10	-15	-15784	-3168	-112	6	-11	-7	-15392	-1400	-5216	9	-18	23	127	118	8
-9876	-4316	11620	-8	15	-24	-16640	1272	-1000	6	-5	14	-15120	2776	-5840	24	-6	9	-9472	4040	13088	15	-6	-18	-15792	-3176	-96	11	-11	-2	-15288	-1384	-5048	7	-19	24	127	118	8
-9884	-4308	11584	-10	14	-25	-16536	1240	-792	10	-2	15	-14904	2648	-5728	28	-6	9	-9464	3896	13112	20	-3	-22	-15856	-3016	192	12	-8	-3	-15216	-1304	-5088	7	-21	22	127	121	8
-9924	-4284	11672	-13	13	-24	-16648	1296	-768	13	-4	17	-14944	2568	-5696	29	-6	9	-9400	3992	13424	13	-4	-20	-15720	-3064	136	4	-2	-6	-15336	-1240	-5008	6	-20	20	127	119	8
-9976	-4336	11720	-9	15	-26	-16624	1400	-608	12	-1	18	-14968	2704	-5896	30	-8	7	-9464	3968	13232	14	-7	-23	-15936	-3176	-40	5	-12	-5	-15344	-1432	-5128	3	-15	26	127	120	8
-9948	-4312	11720	-4	17	-22	-16592	1240	-792	11	-10	13	-14920	2768	-6016	29	-8	8	-9512	4080	13264	16	-7	-18	-15888	-3216	-200	10	-10	-5	-15152	-1304	-5152	8	-14	24	127	120	8
-9900	-4336	11704	-8	13	-22	-16584	1136	-888	13	-12	15	-15040	2744	-5840	22	-7	8	-9504	4064	13096	13	-3	-17	-15800	-3176	136	10	-14	-8	-15344	-1376	-5008	5	-18	25	127	118	8
-9896	-4344	11692	-13	12	-26	-16568	1200	-856	8	-6	18	-14936	2904	-5784	26	-4	8	-9440	3976	12944	20	-5	-21	-15768	-3264	-16	16	-12	-7	-15208	-1328	-5088	10	-16	24	127	120	8
-9920	-4264	11556	-10	15	-22	-16600	1248	-968	10	-5	18	-14912	2696	-5808	24	-4	8	-9496	3960	13216	17	-3	-18	-15712	-3144	-56	13	-10	-8	-15288	-1264	-5040	10	-19	22	127	117	8
-9944	-4328	11744	-9	15	-24	-16688	1328	-856	9	-11	18	-14968	2736	-5680	23	-7	9	-9448	3984	13032	19	-5	-17	-16024	-3184	-32	15	-15	-6	-15280	-1408	-5032	8	-22	22	127	118	8
-9932	-4300	11616	-14	14	-25	-16592	1160	-864	10	-12	15	-14880	2784	-5688	23	-5	3	-9504	3944	13224	17	-4	-23	-15840	-3048	-112	17	-9	-6	-15224	-1224	-5080	10	-20	24	127	120	8
-9964	-4332	11636	-10	17	-22	-16720	1264	-904	0	-9	13	-14928	2744	-5928	24	-1	5	-9464	3952	13080	19	-14	-24	-15808	-3048	-88	12	-9	-3	-15384	-1280	-5112	8	-18	19	127	120	8
-9912	-4332	11732	-9	12	-24	-16520	1224	-712	1	-9	15	-14816	2704	-5600	23	1	4	-9440	3936	13136	16	-13	-20	-15720	-3104	80	6	-11	-7	-15144	-1312	-5016	6	-14	21	127	120	8
-9876	-4332	11720	-7	16	-27	-16640	1112	-760	6	-12	14	-14984	2816	-5576	22	-6	6	-9408	4136	13216	14	-10	-16	-15800	-3080	64	6	-6	-6	-15232	-1312	-5088	5	-15	23	127	119	8
-9916	-4276	11624	-10	11	-28	-16592	1224	-768	7	-5	14	-14912	2696	-5760	26	-5	4	-9336	4120	13240	15	-13	-17	-15856	-3184	-16	7	-8	0	-15376	-1320	-4736	-2	-19	22	127	119	8
-9904	-4284	11740	-8	12	-27	-16512	1336	-720	10	-7	19	-14960	2728	-5696	20	-1	3	-9472	3976	13208	13	-5	-19	-15880	-3224	112	-14	-7	-4	-15288	-1304	-4896	-2	-16	21	127	120	8
-9880	-4300	11640	-10	15	-23	-16592	1416	-688	5	-7	16	-14944	2832	-5592	23	-7	5	-9328	4040	13256	14	-3	-21	-15816	-3144	-88	-7	-10	-4	-15368	-1456	-5304	-4	-19	17	127	119	8
-9940	-4344	11536	-10	15	-29	-16528	1080	-784	18	-5	15	-15032	2688	-5600	21	-4	2	-9512	3952	12952	18	-4	-22	-15928	-3224	72	10	-6	-7	-15320	-1448	-5248	2	-16	19	127	119	8
-9884	-4248	11652	-13	12	-26	-16672	1384	-920	8	-14	10	-15024	2688	-5768	19	-4	5	-9480	3992	13160	13	-6	-20	-15824	-3280	-64	10	-7	-8	-15392	-1344	-5080	6	-20	21	127	120	8
-9968	-4340	11704	-4	16	-25	-16520	1416	-992	5	-9	13	-14824	2840	-5744	23	-1	3	-9416	4048	13184	14	-6	-24	-15800	-3208	64	6	-5	-7	-15376	-1408	-5096	6	-18	20	127	119	8
-9900	-4128	11912	-8	16	-25	-16728	1272	-792	-11	-3	13	-14800	2952	-5592	16	2	8	-9416	4064	13208	12	-7	-20	-15904	-3208	120	9	-8	-3	-15304	-1264	-5056	5	-21	23	127	120	8
-9836	-4276	11720	-5	16	-21	-16624	1200	-912	-11	-7	12	-14832	2664	-5688	16	-3	-3	-9480	4112	13240	18	-10	-17	-15888	-3240	-216	12	-6	-4	-15200	-1360	-5128	13	-18	21	127	120	8
-9992	-4404	11632	-10	10	-27	-16784	1240	-672	16	-7	21	-15048	2688	-5784	22	-6	7	-9296	4104	13240	16	-8	-19	-15848	-3280	64	13	-7	-5	-15328	-1312	-5096	4	-16	26	127	120	8
-9976	-4288	11720	-9	14	-22	-16544	1288	-704	1	-5	12	-14720	2672	-5720	17	1	6	-9472	4080	12960	14	-7	-26	-15808	-3192	-56	10	-7	-7	-15400	-1272	-4872	1	-12	23	127	118	8
-9908	-4300	11644	-12	13	-23	-16648	1056	-808	6	-7	15	-14904	2712	-5856	20	-3	9	-9472	4056	13176	17	-8	-20	-15848	-3048	32	11	-4	-6	-15304	-1280	-5000	6	-20	22	127	120	8
-9888	-4296	11700	-10	14	-24	-16648	1288	-880	10	-10	20	-14752	2776	-5520	18	0	4	-9472	4184	13016	9	-6	-17	-15792	-3080	72	-3	-7	-3	-15320	-1208	-4848	4	-22	12	127	118	8
-9896	-4300	11616	-12	9	-25	-16568	1088	-872	8	-9	14	-14968	2736	-5656	27	2	2	-9448	3936	13072	12	-4	-16	-15928	-3288	-112	-2	-9	-5	-15280	-1312	-5024	0	-19	21	127	118	8
-9888	-4296	11700	-7	12	-26	-16704	1088	-704	7	-8	15	-15048	2848	-5776	27	-2	0	-9424	3904	12992	14	-5	-18	-15880	-3072	-32	3	-3	-5	-15344	-1296	-5344	-2	-15	17	127	118	8
-9908	-4336	11620	-10	15	-25	-16624	1392	-824	-1	-10	11	-14888	2840	-5720	18	-2	2	-9240	3904	13264	16	-8	-20	-15728	-3056	-120	-3	-4	-5	-15256	-1288	-4896	0	-21	19	127	121	8
-9944	-4324	11680	-10	16	-23	-16624	1112	-688	11	-8	15	-14960	2896	-5776	23	-2	4	-9544	4072	13360	10	-9	-23	-15792	-3200	40	-22	-8	-5	-15472	-1344	-4936	-5	-21	22	127	120	8
-9868	-4336	11612	-11	16	-23	-16456	1280	-952	21	-14	23	-14960	2744	-5664	18	-5	0	-9376	3912	13312	16	-6	-20	-15896	-3272	-112	-7	-9	-7	-15328	-1384	-5000	3	-19	22	127	118	8
-9884	-4284	11696	-9	19	-18	-16472	1160	-944	7	-8	15	-15056	2768	-5752	15	-1	2	-9416	4056	12736	18	-7	-20	-15784	-3264	272	9	-7	-5	-15304	-1328	-5016	2	-19	18	127	119	8
-9928	-4356	11764	-12	16	-23	-16640	1328	-928	3	-11	11	-14840	2808	-5752	13	-7	0	-9544	3872	13008	14	-5	-18	-15952	-3104	-32	5	-3	-7	-15440	-1280	-4776	0	-20	18	127	118	8
-9984	-4312	11636	-13	15	-20	-16552	1296	-816	-5	-9	11	-14880	2592	-5608	17	4	1	-9440	4016	13120	16	-4	-23	-15776	-3248	-144	-2	-3	-4	-15400	-1376	-4776	-3	-19	17	127	121	8
-9896	-4332	11656	-8	14	-27	-16712	1248	-880	5	-9	13	-14840	2784	-5552	19	0	-1	-9416	4032	13248	11	-8	-23	-15816	-3168	-144	-15	-7	-8	-15288	-1328	-4896	1	-16	23	127	118	8
-9884	-4384	11716	-9	13	-21	-16560	1264	-776	12	-3	17	-15040	2688	-5720	18	-2	0	-9424	4064	13096	13	-5	-20	-15800	-3168	-192	1	-1	-7	-15128	-1368	-5160	0	-16	20	127	120	8
-9916	-4328	11648	-10	13	-28	-16568	1328	-768	11	-6	17	-14728	2664	-5832	23	-1	1	-9304	3976	13152	17	-9	-21	-15888	-3200	-96	8	-6	-5	-15272	-1432	-4888	-1	-12	21	127	121	8
-9944	-4372	11644	-12	12	-26	-16632	1240	-856	6	-6	15	-14848	2792	-5784	19	0	5	-9440	3872	13016	17	-14	-22	-15816	-3096	8	2	-7	-4	-15352	-1344	-5192	3	-16	17	127	120	8
-9876	-4328	11732	-17	12	-28	-16672	1192	-616	4	-7	16	-14904	2792	-5760	18	-4	2	-9480	4088	13032	16	-9	-21	-15776	-3104	8	-1	-5	-5	-15392	-1392	-4872	1	-22	23	127	120	8
-9932	-4276	11796	-16	12	-24	-16688	1272	-928	0	-7	13	-14944	2720	-5648	17	1	3	-9360	4048	13056	18	-9	-18	-15784	-3224	32	7	-9	-2	-15208	-1360	-4864	3	-16	19	127	120	8
-9908	-4300	11660	-8	17	-23	-16616	1288	-848	7	-6	16	-15008	2896	-5840	22	-2	6	-9416	4064	13272	15	-8	-18	-15728	-3056	168	6	-9	-7	-15320	-1224	-4960	0	-15	22	127	118	8
-9924	-4272	11728	-11	16	-25	-16552	1304	-888	10	-6	15	-14952	2792	-6000	24	-2	3	-9376	3968	13264	19	-7	-20	-15728	-3160	-136	6	-7	-5	-15256	-1328	-4944	3	-12	19	127	129	8
-9964	-4340	11632	-10	15	-26	-16696	1304	-1104	9	-7	15	-14912	2888	-5424	20	0	5	-9592	3968	12952	15	-3	-18	-15912	-3168	16	5	-8	-5	-15392	-1424	-4984	1	-10	18	127	119	8
-9916	-4300	11616	-8	14	-25	-16632	1248	-776	2	-8	15	-14968	2688	-5896	18	0	2	-9320	4080	13048	14	-4	-14	-15896	-3040	-88	8	-3	-5	-15224	-1128	-5008	-5	-17	15	127	117	8
-9944	-4320	11620	-9	14	-25	-16624	1152	-832	-5	-3	14	-14960	2624	-5696	18	-6	-1	-9400	4120	13120	17	-6	-22	-15888	-3144	64	-5	-2	-6	-15392	-1224	-4808	-6	-15	22	127	120	8
-9924	-4272	11712	-9	14	-24	-16520	1272	-872	7	-4	8	-14832	2656	-5648	15	-6	-1	-9472	4096	13152	15	-10	-18	-15848	-3336	-8	-8	-2	-4	-15296	-1240	-5032	-7	-14	18	127	118	8
-9944	-4308	11692	-9	17	-22	-16560	1376	-704	10	-4	16	-14888	2824	-5696	22	-2	5	-9352	3928	13080	18	-11	-19	-15904	-3240	-144	-12	0	-3	-15392	-1352	-5000	2	-15	15	127	120	8
-9892	-4312	11656	-8	16	-25	-16648	1304	-872	11	-1	17	-14784	2704	-5704	25	1	8	-9392	4056	13136	16	-6	-15	-15712	-3176	-64	-9	0	-4	-15256	-1208	-5168	0	-20	19	127	120	8
-9928	-4340	11748	-16	13	-24	-16720	1312	-696	15	1	19	-15008	2720	-5768	22	1	4	-9440	4016	13416	13	-7	-24	-15864	-3184	80	0	-3	-8	-15296	-1256	-5056	2	-11	17	127	122	8
-9876	-4288	11672	-9	14	-24	-16592	1136	-752	11	-3	14	-15072	2736	-5728	29	1	3	-9424	4032	13088	14	1	-26	-15928	-3184	-160	5	-5	-4	-15384	-1312	-5048	5	-16	19	127	120	8
-9964	-4380	11688	-10	16	-26	-16576	1224	-816	16	1	17	-14976	2704	-5752	30	-3	9	-9352	4032	13120	12	-4	-22	-15904	-3136	64	2	-4	-9	-15272	-1184	-5040	5	-15	19	127	120	8
-9908	-4320	11592	-7	15	-25	-16688	1320	-816	17	1	19	-14896	2776	-5768	27	1	8	-9528	3960	13008	16	-9	-21	-15920	-3216	96	4	0	-7	-15328	-1272	-4960	1	-14	21	127	121	8
-9948	-4316	11624	-10	12	-25	-16768	1344	-920	14	0	16	-15024	2832	-5544	30	4	5	-9448	3856	13376	19	-8	-20	-15776	-3152	-56	-1	-3	-5	-15376	-1328	-5000	6	-16	18	127	118	8
-9920	-4356	11644	-12	13	-25	-16656	1232	-528	23	9	12	-14984	2752	-5760	34	1	6	-9632	4040	12976	16	-9	-23	-15776	-3056	112	-11	-3	-4	-15368	-1176	-4896	2	-14	20	127	120	8
-9924	-4348	11764	-13	14	-25	-16584	1312	-1208	15	3	15	-14976	2656	-5696	30	1	5	-9464	4080	13152	14	0	-16	-15888	-3344	-336	4	1	-7	-15424	-1432	-4920	2	-13	24	127	119	8
-9916	-4336	11724	-17	15	-22	-16592	1264	-904	14	3	15	-15016	2784	-5696	27	-5	4	-9320	4152	13176	14	-6	-18	-15768	-3056	72	11	0	-2	-15360	-1272	-5096	11	-13	18	127	119	8
-9896	-4288	11680	-12	14	-23	-16592	1280	-1000	12	0	15	-14960	2704	-5768	23	-2	3	-9376	4024	13168	17	-7	-16	-15824	-3280	112	5	-2	-1	-15240	-1336	-4824	7	-14	22	127	120	8
-9940	-4308	11648	-11	14	-23	-16528	1320	-792	8	0	16	-14936	2752	-5704	24	-1	8	-9416	4040	13352	18	-5	-24	-15768	-3168	-64	-5	-1	-3	-15256	-1272	-5080	-7	-16	24	127	119	8
-9940	-4260	11644	-13	14	-21	-16528	1144	-576	4	-1	15	-15048	2776	-5656	21	-6	6	-9464	4056	12992	15	-7	-21	-15840	-3184	-80	-17	-4	3	-15376	-1176	-5008	-2	-15	21	127	121	8
-9932	-4316	11604	-11	14	-24	-16512	1240	-720	11	1	13	-14992	2816	-5752	21	-4	8	-9440	4112	13096	19	-6	-17	-15864	-3232	-296	-7	0	-2	-15240	-1464	-5200	-2	-16	20	127	121	8
-9912	-4320	11652	-11	19	-27	-16600	1144	-872	13	1	19	-14800	2776	-5664	22	1	4	-9368	3992	12936	17	-4	-21	-15840	-3088	192	-16	-1	-2	-15432	-1456	-5040	-8	-18	17	127	121	8
-9964	-4368	11620	-7	18	-18	-16592	1168	-984	16	-1	17	-14936	2720	-5608	24	-1	4	-9368	4160	13200	19	1	-22	-15744	-3184	24	-27	-2	-11	-15200	-1320	-5168	-3	-15	16	127	120	8
-9904	-4332	11572	-6	18	-26	-16600	1400	-856	15	-6	20	-14936	2752	-5712	23	0	1	-9368	3984	12928	20	-7	-20	-15760	-3112	-240	-10	-4	-5	-15296	-1440	-5056	-5	-15	18	127	118	8
-9916	-4344	11616	-7	13	-22	-16736	1280	-696	5	1	13	-15048	2720	-5656	21	-1	4	-9360	3984	13200	17	0	-25	-15776	-3112	-344	-6	-1	-1	-15440	-1288	-4928	-1	-9	18	127	119	8
-9880	-4324	11616	-6	15	-23	-16608	1160	-528	5	1	17	-15048	2816	-5632	17	2	4	-9368	4080	12960	18	-8	-18	-15856	-3248	-8	-6	4	-1	-15400	-1400	-4944	-5	-11	19	127	122	8
-9916	-4320	11716	-15	18	-28	-16544	1256	-992	9	4	16	-14912	2712	-5728	22	-2	9	-9464	3968	13144	16	-12	-20	-15752	-3176	-120	-10	-4	-3	-15440	-1384	-4816	0	-15	18	127	117	8
-9908	-4296	11688	-12	17	-24	-16680	1104	-680	9	0	18	-15040	2680	-5768	21	-1	7	-9456	4032	13080	19	-9	-18	-15856	-3264	-88	-11	5	-8	-15328	-1256	-4960	-1	-12	19	127	117	8
-9872	-4224	11688	-14	14	-28	-16752	1296	-776	13	1	21	-15056	2712	-5800	21	3	6	-9544	4032	13264	13	-9	-18	-15832	-3136	-112	-9	4	-6	-15352	-1320	-5000	-2	-10	18	127	122	8
-9844	-4308	11664	-12	16	-25	-16728	1232	-824	16	4	16	-14936	2736	-5496	23	0	5	-9504	4064	13088	18	-6	-23	-15896	-3120	-128	-10	4	-1	-15304	-1264	-4960	1	-14	20	127	119	8
-9900	-4332	11676	-8	17	-23	-16632	1376	-792	16	5	18	-15008	2728	-5656	30	-3	7	-9512	4048	13152	16	-1	-21	-15856	-3160	-56	-7	3	-5	-15408	-1368	-4896	5	-14	19	127	120	8
-9920	-4316	11712	-18	15	-21	-16584	1280	-864	12	6	18	-15072	2792	-5808	26	-7	8	-9432	4104	13224	18	-4	-28	-15928	-3032	56	-17	0	-9	-15272	-1272	-4872	1	-13	21	127	118	8
-9924	-4340	11672	-13	15	-21	-16552	1264	-800	25	7	16	-14872	2792	-5768	28	-7	5	-9672	3712	13144	10	-4	-16	-15712	-2984	-144	-17	-1	-9	-15136	-1152	-5032	-5	-20	19	127	119	8
-9944	-4296	11652	-14	19	-23	-16640	1232	-592	25	6	17	-14888	2704	-5728	33	-9	7	-9480	3976	13184	14	-8	-18	-15928	-3296	-264	-34	6	-5	-15280	-1384	-5088	2	-18	17	127	121	8
-9868	-4324	11604	-13	14	-25	-16592	1136	-872	24	9	15	-14936	2824	-5752	29	-1	6	-9568	3856	13376	17	-5	-20	-15800	-3312	8	-3	4	-5	-15432	-1536	-4864	4	-16	15	127	119	8
-9940	-4368	11628	-13	18	-21	-16592	1392	-760	20	9	20	-14896	2744	-5608	31	-10	8	-9376	4016	13088	19	-9	-20	-15904	-3016	80	11	4	2	-15296	-1280	-4856	8	-14	17	127	119	8
-9916	-4304	11796	-15	18	-27	-16624	1288	-864	6	16	13	-14976	2544	-5704	24	-4	5	-9416	4024	13216	17	-9	-22	-15840	-3032	184	-19	7	-5	-15336	-1208	-4928	-1	-18	20	127	117	8
-9924	-4328	11724	-8	15	-14	-16656	1248	-1008	26	11	19	-14848	2896	-5864	20	-10	7	-9416	4080	13224	18	-2	-23	-15792	-3216	-208	-27	5	-7	-15248	-1216	-5080	4	-19	19	127	119	8
-9920	-4292	11660	-10	19	-25	-16648	1208	-904	11	10	12	-14944	2776	-5648	26	-10	5	-9464	3984	13120	15	-4	-17	-16024	-3112	-400	-15	0	-5	-15288	-1384	-5048	5	-20	19	127	121	8
-9884	-4364	11700	-6	14	-25	-16704	1224	-776	7	17	13	-14856	2664	-5752	24	-9	9	-9496	3896	13208	15	-8	-22	-15992	-3088	32	6	10	-3	-15472	-1240	-5096	5	-13	16	127	120	8
-9916	-4312	11596	-4	15	-21	-16592	1160	-824	16	13	20	-14896	2680	-5712	26	-6	7	-9464	3928	13136	14	-8	-23	-15776	-3016	-240	12	3	-8	-15184	-1256	-4968	9	-11	19	127	120	8
-9844	-4276	11736	-5	12	-26	-16448	1320	-920	20	9	15	-14816	2744	-5576	25	-2	9	-9416	4112	13360	18	-6	-25	-15888	-3016	-80	2	3	-5	-15184	-1248	-4992	3	-7	23	127	119	8
-9924	-4384	11664	-6	15	-22	-16504	1352	-824	14	11	20	-14936	2776	-5776	34	-4	4	-9416	3976	13112	15	-8	-22	-15816	-3048	-128	-7	4	-5	-15336	-1472	-4888	13	-10	18	127	121	8
-9932	-4340	11752	-7	13	-26	-16640	1208	-816	20	13	13	-14912	2608	-5864	32	-6	11	-9296	3984	13312	14	-8	-25	-15880	-3248	-8	10	6	-7	-15360	-1328	-5248	6	-15	23	127	119	8
-9876	-4312	11708	-11	13	-21	-16592	1176	-960	19	12	20	-14912	2744	-5688	26	2	9	-9368	4104	13240	14	-4	-23	-15840	-3032	32	9	4	-8	-15264	-1392	-4888	9	-11	20	127	120	8
-9940	-4288	11716	-11	17	-27	-16704	1248	-928	21	10	13	-15024	2840	-5824	28	-6	10	-9392	4032	13128	18	-3	-23	-15856	-3056	112	-11	3	-6	-15272	-1288	-4600	5	-12	19	127	126	8
-9896	-4328	11636	-14	16	-24	-16568	1360	-928	20	8	16	-14912	2744	-5928	27	-10	7	-9408	3904	13352	17	-9	-18	-15824	-3272	-168	-15	3	-5	-15456	-1328	-4688	5	-12	21	127	123	8
-9904	-4320	11680	-11	15	-23	-16648	1224	-640	16	10	21	-14872	2680	-5480	26	0	6	-9336	4032	13088	17	-4	-22	-15896	-3184	-224	-4	3	-8	-15248	-1392	-5008	15	-11	18	127	120	8
-9924	-4340	11636	-18	11	-25	-16560	1192	-952	24	12	14	-14832	2816	-5472	30	-1	10	-9352	3960	13368	16	-4	-22	-15864	-3160	-32	13	5	-2	-15424	-1360	-5080	6	-11	22	127	121	8
-9896	-4264	11616	-14	16	-26	-16696	1304	-880	16	12	14	-14856	2648	-5768	28	-4	7	-9488	4024	13160	15	-1	-18	-15864	-3048	-56	-1	2	-7	-15320	-1432	-5376	10	-14	22	127	119	8
-9952	-4284	11772	-10	15	-24	-16576	1264	-928	22	11	18	-14760	2640	-5752	28	-12	8	-9560	4120	12896	14	-5	-18	-15792	-3168	-72	-18	0	-7	-15272	-1328	-5112	-1	-17	22	127	121	8
-9912	-4320	11736	-10	14	-25	-16608	1240	-920	14	5	16	-14936	2784	-5688	27	-5	7	-9544	3976	12952	15	2	-23	-15928	-3120	0	-15	7	-5	-15384	-1144	-5096	6	-11	19	127	121	8
-9932	-4360	11644	-6	17	-17	-16656	1208	-1064	17	12	20	-14792	2840	-5824	32	-1	13	-9440	3984	12960	17	-9	-22	-15768	-3064	-272	3	3	-7	-15384	-1232	-5032	3	-14	20	127	120	8
-9956	-4344	11712	-8	14	-21	-16576	1352	-904	23	9	15	-14888	2696	-5912	33	-2	10	-9464	3976	13144	15	-10	-24	-15912	-3168	-160	-5	7	-8	-15256	-1224	-4992	11	-6	20	127	120	8
-9896	-4348	11660	-4	16	-23	-16616	1048	-784	18	8	16	-14880	2744	-5704	31	-2	8	-9408	3880	13136	19	-3	-27	-15776	-3176	96	9	0	-8	-15400	-1352	-4888	11	-4	17	127	120	8
-9904	-4312	11624	-4	16	-15	-16704	1320	-1000	15	8	14	-14960	2720	-5568	22	4	8	-9488	4040	13200	14	-7	-18	-15776	-3152	24	8	3	-10	-15240	-1320	-4984	1	-6	21	127	120	8
-9964	-4304	11728	-4	19	-22	-16744	1200	-992	13	13	18	-14928	2840	-5864	22	4	5	-9456	4056	13240	15	-4	-15	-15840	-3176	-112	5	4	-2	-15440	-1384	-5016	3	-9	21	127	118	8
-9884	-4348	11696	-8	15	-21	-16656	1304	-824	10	0	19	-15032	2872	-5728	22	4	5	-9344	3952	13016	14	-3	-19	-15904	-3160	-56	-8	5	-6	-15248	-1224	-4816	7	-8	18	127	121	8
-9928	-4272	11716	-11	12	-20	-16640	1248	-952	6	9	18	-14896	2648	-5744	22	7	7	-9448	4128	13016	15	-6	-16	-15848	-3112	-120	1	1	-3	-15376	-1344	-4856	7	-8	21	127	120	8
-9956	-4296	11592	-11	13	-23	-16712	1280	-1080	10	7	16	-15056	2896	-5552	22	4	7	-9368	4016	13304	11	-2	-23	-15856	-3200	-280	-1	6	-4	-15360	-1296	-5040	9	-8	20	127	119	8
-9920	-4264	11680	-12	14	-22	-16712	1192	-888	10	7	17	-15032	2792	-5784	28	2	12	-9496	4096	12984	14	-8	-21	-15776	-3048	-392	5	3	-4	-15304	-1248	-5160	8	-6	22	127	120	8
-9900	-4224	11656	-12	11	-25	-16688	1296	-984	18	5	19	-14944	2888	-5720	27	-2	9	-9456	4048	12896	15	-2	-22	-15960	-3104	-296	4	2	-2	-15280	-1328	-5184	5	-6	20	127	119	8
-9968	-4280	11704	-12	14	-25	-16600	1232	-864	21	10	20	-15056	2792	-5448	24	-5	9	-9304	4040	13168	16	-4	-22	-15856	-3296	-280	-7	1	-4	-15288	-1296	-5080	0	-10	19	127	117	8
-9884	-4300	11580	-13	14	-21	-16600	1280	-1096	18	2	14	-14808	2688	-5744	27	2	6	-9456	4016	13064	17	-5	-17	-15840	-3208	-8	-9	0	-5	-15328	-1336	-5168	3	-13	20	127	121	8
-9972	-4332	11648	-13	16	-22	-16680	1240	-952	15	7	16	-14952	2728	-5608	28	5	6	-9400	3960	12984	17	-4	-20	-15776	-3072	-88	-5	8	-3	-15344	-1264	-5304	3	-8	16	127	119	8
-9916	-4340	11628	-13	14	-25	-16632	1240	-1008	17	13	13	-14944	2784	-5608	23	2	5	-9376	4032	13120	17	-8	-21	-15776	-3160	-240	-9	2	-6	-15336	-1256	-5040	1	-9	15	127	117	8
-9932	-4336	11652	-9	14	-24	-16728	1128	-888	13	5	16	-14808	2568	-5800	26	2	6	-9496	3992	13216	16	-8	-21	-15792	-3152	-152	7	0	-8	-15304	-1320	-5072	4	-7	18	127	121	8
-9928	-4336	11596	-10	18	-24	-16560	1120	-944	13	3	13	-14936	2704	-5808	24	-2	8	-9424	4032	13144	14	-5	-23	-15848	-3088	56	12	3	-6	-15256	-1224	-5000	8	-10	20	127	121	8
-9940	-4296	11772	-12	15	-25	-16640	1352	-944	5	5	17	-14816	2760	-5488	25	5	4	-9536	4000	13064	13	-9	-22	-15880	-3272	-8	-7	4	-7	-15272	-1312	-4968	10	-9	18	127	120	8
-9892	-4344	11708	-4	16	-17	-16576	1336	-856	15	0	17	-14856	2896	-5584	23	6	7	-9504	4080	13152	14	-7	-23	-15768	-3248	-240	-11	-2	-8	-15248	-1336	-5048	5	-12	15	127	120	8
-9964	-4280	11696	-10	19	-19	-16592	1224	-968	12	3	17	-15072	2744	-5784	24	12	7	-9496	3976	13016	16	-1	-21	-15848	-3120	0	-1	-1	-4	-15360	-1304	-5048	4	-10	25	127	119	8
-9948	-4324	11668	-12	16	-25	-16696	1232	-928	12	2	22	-14832	2640	-5712	24	3	7	-9480	4016	13112	17	-4	-20	-15728	-3152	-80	0	0	-6	-15184	-1216	-5080	1	-8	19	127	120	8
-9904	-4308	11516	-6	13	-26	-16528	1376	-1080	9	4	14	-14872	2760	-5600	22	4	4	-9456	4064	13136	17	-5	-19	-15864	-3184	-160	6	-4	-3	-15320	-1336	-5264	-2	-11	17	127	119	8
-9920	-4252	11636	-8	15	-25	-16688	1144	-1112	10	-3	19	-15056	2744	-5784	27	8	3	-9600	4024	12960	19	-6	-20	-15840	-3152	-280	1	-1	-3	-15360	-1384	-5184	4	-5	14	127	120	8
-9972	-4252	11576	-11	15	-25	-16624	1264	-1032	5	-7	18	-14856	2832	-5728	21	5	8	-9504	4080	13248	17	-11	-21	-15776	-3168	-216	7	-6	-10	-15224	-1296	-4864	0	-5	13	127	118	8
-9940	-4332	11648	-10	14	-23	-16744	1400	-1072	5	-4	17	-14872	2848	-5888	27	7	3	-9408	3984	13048	16	-9	-20	-15784	-3112	-96	7	-6	-6	-15240	-1416	-5000	-2	-12	14	127	117	8
-9964	-4316	11700	-17	14	-23	-16616	1248	-1000	11	-4	18	-14960	2912	-5768	24	7	8	-9416	4000	12904	14	-8	-19	-15672	-3136	-88	-3	-6	-7	-15336	-1376	-5056	0	-12	13	127	120	8
-9868	-4272	11732	-12	12	-21	-16624	1104	-1128	12	-4	19	-14776	2792	-5520	30	7	6	-9544	4032	13288	16	-8	-20	-15880	-3088	-208	-11	-6	-6	-15320	-1408	-5056	2	-8	16	127	119	8
-9928	-4284	11660	-12	12	-23	-16624	1320	-1152	13	2	17	-15048	2704	-5704	24	10	5	-9424	4048	13008	13	-8	-19	-15864	-3104	-248	-10	2	-6	-15280	-1344	-4896	-3	-1	18	127	119	8
-9996	-4304	11728	-13	12	-20	-16584	1232	-808	6	-1	15	-14952	2896	-5872	20	9	5	-9424	4048	13232	11	-4	-23	-15808	-3200	-32	-5	-3	-3	-15376	-1240	-4912	-4	-1	18	127	120	8
-9956	-4324	11740	-14	14	-23	-16552	1192	-872	0	0	13	-15040	2840	-5528	19	7	3	-9400	4064	12864	14	-7	-23	-15792	-3144	-160	0	3	-2	-15432	-1416	-4824	2	-3	15	127	119	8
-9912	-4304	11628	-9	15	-26	-16560	1224	-1112	9	5	18	-14952	2840	-5544	17	6	5	-9392	3912	13048	14	-3	-24	-16040	-3216	-128	4	-1	-4	-15216	-1464	-5008	1	-4	18	127	120	8
-9948	-4308	11816	-5	17	-17	-16592	1232	-1016	11	1	16	-14800	2744	-5968	15	4	3	-9496	4080	13152	19	-7	-22	-15880	-3088	24	-4	1	-7	-15336	-1344	-4888	-3	-7	20	127	118	8
-9900	-4324	11636	-8	15	-19	-16640	1344	-1056	9	8	19	-14952	2912	-5768	17	7	4	-9408	4120	13400	16	-3	-21	-15920	-3168	-128	-9	4	-8	-15376	-1288	-5016	-4	-4	21	127	118	8
-9904	-4280	11736	-9	16	-18	-16616	1144	-1008	12	5	19	-14928	2688	-5488	24	9	3	-9528	3976	13240	15	2	-19	-15728	-3168	-312	-7	1	-4	-15248	-1376	-5096	4	-6	18	127	118	8
-9900	-4296	11808	-5	13	-22	-16584	1224	-1248	9	1	12	-14928	2824	-5920	21	3	6	-9328	3856	13088	14	-7	-20	-15904	-3168	-128	-1	6	-5	-15256	-1448	-5040	0	-10	19	127	118	8
-9904	-4364	11592	-16	18	-25	-16624	1072	-1352	12	5	13	-14800	2752	-5864	21	3	4	-9440	3912	12960	17	-3	-22	-15896	-3224	-88	0	0	-9	-15264	-1304	-5080	6	-9	19	127	119	8
-9912	-4348	11652	-14	17	-22	-16584	1320	-1184	9	-1	19	-14744	2776	-5816	19	3	6	-9432	4016	13200	15	-5	-21	-15944	-3104	16	-7	-2	-9	-15344	-1360	-5104	-1	-11	19	127	118	8
-9936	-4260	11592	-12	15	-21	-16640	1208	-1136	7	2	17	-14856	2712	-5720	19	7	5	-9464	3944	13248	17	0	-21	-15712	-3176	-224	-15	-2	-7	-15296	-1304	-4936	-3	-4	19	127	121	8
-9944	-4252	11596	-14	14	-23	-16648	1328	-1096	9	0	13	-14840	2784	-5712	24	5	9	-9376	4056	13312	15	-3	-20	-15840	-3272	-216	-3	0	-7	-15376	-1296	-5032	1	0	14	127	119	8
-9992	-4288	11644	-9	15	-26	-16624	1280	-1072	10	-4	18	-14904	2656	-5648	26	8	8	-9496	4040	13048	11	-7	-19	-15744	-3136	-144	1	-4	-6	-15208	-1280	-5184	0	-6	20	127	118	8
-9912	-4336	11724	-9	15	-24	-16592	1192	-880	10	1	15	-14960	2624	-5536	28	8	6	-9400	4000	13080	15	-13	-19	-15832	-3280	-152	0	-5	-8	-15176	-1288	-5160	2	-8	16	127	119	8
-9944	-4292	11628	-11	19	-27	-16488	1224	-728	15	-2	15	-15016	2872	-5784	21	10	6	-9560	3984	13168	16	-9	-19	-15904	-3264	32	-8	-4	-5	-15456	-1240	-5112	4	-10	14	127	121	8
-9976	-4288	11652	-14	16	-18	-16632	1216	-1064	14	4	19	-14952	2832	-5800	19	7	4	-9448	4104	12960	18	-8	-18	-15792	-3192	-8	-2	-3	-5	-15264	-1352	-5408	2	-12	15	127	119	8
-9956	-4296	11708	-11	12	-20	-16672	1432	-1336	10	-4	18	-14904	2688	-5528	22	7	3	-9440	3896	13184	23	-7	-23	-15776	-3192	-160	-8	3	-5	-15320	-1288	-5080	2	-6	20	127	121	8
-9924	-4252	11524	-7	15	-23	-16680	1144	-768	1	3	14	-14896	2816	-5744	24	8	1	-9304	3968	13320	24	-1	-19	-15864	-3240	-88	-4	1	-7	-15368	-1256	-5000	1	-7	16	127	120	8
-9836	-4272	11708	-14	15	-28	-16592	1328	-1048	17	2	14	-14904	2840	-5784	26	9	9	-9504	3952	13072	22	-4	-23	-15832	-3056	-288	-15	4	-6	-15272	-1352	-5192	-2	-11	16	127	120	8
-9964	-4296	11652	-15	15	-19	-16728	1168	-912	16	7	19	-14944	2720	-5720	25	-3	3	-9440	3960	13088	18	0	-25	-15792	-3296	-48	-24	4	-5	-15280	-1328	-5168	-4	-7	14	127	120	8
-9948	-4364	11648	-15	19	-21	-16568	1216	-1200	23	4	16	-14808	2672	-5640	31	3	3	-9480	4016	13016	17	-6	-24	-15840	-3224	-136	-15	2	-3	-15448	-1408	-4920	-5	-9	16	127	118	8
-9880	-4320	11664	-13	16	-22	-16616	1112	-968	18	3	17	-14840	2760	-5824	24	-3	5	-9432	4056	13144	15	0	-22	-15840	-3224	-16	-4	6	-5	-15160	-1312	-4944	2	-12	16	127	121	8
-9964	-4308	11668	-15	12	-21	-16616	1248	-1056	20	1	12	-14856	2704	-5768	25	-2	1	-9440	4000	13128	17	-6	-28	-15640	-3048	-272	-2	6	-3	-15392	-1256	-5192	1	-8	19	127	121	8
-9852	-4308	11644	-16	20	-22	-16592	1400	-1072	15	6	14	-14840	2776	-5864	18	6	-1	-9448	4120	13224	15	-5	-24	-15848	-3144	-184	-5	1	-9	-15112	-1312	-4960	4	-9	14	127	119	8
-9960	-4248	11664	-13	15	-23	-16592	1192	-1008	5	4	20	-14936	2784	-5632	15	4	6	-9376	3944	13024	16	-6	-21	-15768	-3208	-360	0	0	-6	-15392	-1408	-5200	4	-5	21	127	120	8
-9948	-4324	11764	-16	13	-20	-16488	1304	-848	6	3	17	-14816	2648	-5912	14	4	2	-9264	3992	13144	13	-4	-20	-15920	-3096	-56	0	-4	-1	-15144	-1368	-4992	4	-9	12	127	121	8
-9940	-4272	11684	-15	14	-27	-16600	1240	-1192	4	1	18	-14824	2760	-6056	18	3	1	-9352	4048	13184	22	-10	-19	-15760	-3200	-168	5	2	-7	-15176	-1392	-5296	7	-1	16	127	121	8
-9876	-4284	11664	-14	14	-25	-16656	1272	-1184	10	-3	16	-14952	2696	-5600	21	6	7	-9424	4136	13080	22	-8	-18	-16040	-3232	-424	-5	-8	-6	-15320	-1416	-5096	-2	-4	18	127	119	8
-9940	-4316	11656	-18	15	-29	-16520	1376	-784	16	-2	16	-14904	2768	-5584	27	9	4	-9408	3960	13144	19	-5	-16	-15880	-3096	-72	-14	-5	-6	-15296	-1256	-4824	-5	-9	15	127	121	8
-9928	-4324	11740	-13	12	-26	-16584	1352	-800	20	-3	20	-14872	2696	-5912	28	8	5	-9480	3776	12976	17	-7	-15	-15752	-3296	-120	-2	-5	-5	-15352	-1240	-5192	-5	-13	19	127	119	8
-9896	-4348	11804	-12	13	-29	-16776	1264	-952	6	-6	14	-14912	2824	-5800	26	7	6	-9336	4104	13072	13	-9	-20	-15808	-3288	-264	10	-3	-3	-15384	-1360	-5040	1	-6	19	127	119	8
-9944	-4324	11692	-16	19	-24	-16472	1200	-1048	6	-3	15	-14920	2840	-5824	26	5	8	-9392	4096	13024	18	-3	-20	-15920	-3168	-464	2	-2	-2	-15392	-1288	-5032	1	-10	18	127	121	8
-9916	-4320	11600	-8	13	-22	-16560	1320	-1280	18	-2	16	-15024	2808	-5576	22	5	5	-9536	4080	13264	16	-7	-19	-15776	-3112	-152	-7	-4	-8	-15400	-1408	-5088	3	-7	16	127	121	8
-9892	-4292	11512	-8	20	-21	-16640	1360	-1008	13	0	18	-14888	2880	-5632	23	3	7	-9632	3952	12984	13	-7	-16	-15800	-3192	-88	-5	-3	-8	-15280	-1432	-5120	6	-6	17	127	118	8
-9928	-4316	11700	-9	18	-22	-16736	1192	-768	9	0	11	-14888	2744	-5776	24	-1	4	-9488	4016	13232	17	1	-24	-15920	-3240	-32	6	2	-8	-15360	-1296	-5280	9	-13	18	127	119	8
-9928	-4320	11680	-8	18	-25	-16656	1280	-1008	11	2	15	-14944	3032	-5816	25	2	6	-9448	3960	13368	14	3	-24	-15880	-3056	-136	-2	4	-2	-15360	-1248	-4968	3	-10	21	127	120	8
-9880	-4284	11584	-12	15	-25	-16728	1288	-1320	12	8	18	-15008	2720	-5424	21	4	7	-9568	4016	13320	17	-7	-24	-15848	-3064	-384	-7	-3	-6	-15240	-1384	-5120	2	-15	18	127	122	8
-9888	-4336	11672	-12	17	-22	-16672	1216	-1008	14	8	14	-14944	2864	-5800	23	-3	2	-9480	4024	13312	17	-8	-23	-15784	-3232	-304	-2	-1	-5	-15248	-1352	-5024	2	-13	20	127	122	8
-9940	-4296	11656	-16	18	-23	-16576	1288	-1088	14	5	11	-14888	2608	-5936	23	4	1	-9464	4088	13440	19	-11	-22	-15984	-3112	-200	8	-1	-6	-15200	-1376	-5080	1	-10	18	127	121	8
-9948	-4356	11608	-10	17	-25	-16672	1232	-1032	15	4	14	-14776	2680	-5600	27	9	6	-9472	4096	13160	16	-6	-20	-15832	-3104	-72	-4	0	-3	-15280	-1320	-4888	4	-9	17	127	120	8
-9940	-4296	11616	-11	16	-25	-16672	1208	-904	16	2	12	-14880	2672	-5872	23	3	4	-9448	4072	13240	16	-7	-22	-15856	-3224	-520	-7	-1	-2	-15376	-1336	-5152	4	-8	22	127	121	8
-9952	-4276	11644	-18	18	-22	-16576	1160	-1088	9	2	17	-14776	2704	-5816	29	2	5	-9480	3872	13128	15	-3	-20	-15672	-3336	-208	-5	-8	-4	-15248	-1328	-4752	7	-11	20	127	121	8
-9920	-4312	11684	-9	17	-26	-16656	1232	-1272	6	0	17	-14800	2672	-5728	28	-1	4	-9624	4032	12984	14	-7	-23	-15776	-3208	-280	5	-2	-3	-15328	-1376	-5232	4	-12	17	127	121	8
-9984	-4316	11620	-5	11	-27	-16448	1376	-1272	9	-7	19	-14992	2864	-5728	21	4	7	-9320	4048	13152	19	-4	-20	-15816	-3104	-56	2	2	-4	-15192	-1368	-5008	6	-11	20	127	122	8
-9952	-4296	11612	-12	14	-25	-16560	1256	-928	11	-5	17	-14808	2752	-5944	23	1	9	-9416	4040	13224	16	-7	-22	-15960	-3208	-88	1	-5	-8	-15288	-1224	-5168	0	-8	17	127	120	8
-9912	-4324	11664	-9	15	-23	-16600	1360	-896	4	-5	18	-14992	2776	-5824	22	3	6	-9344	3968	13400	21	-6	-20	-15888	-3136	-216	5	-8	-8	-15320	-1424	-5408	1	-8	19	127	121	8
-9912	-4288	11608	-14	16	-28	-16512	1152	-1248	2	-5	15	-15088	2776	-5712	21	4	5	-9344	4064	13200	13	-2	-20	-15768	-3240	-192	-2	-3	1	-15296	-1312	-5208	3	-10	22	127	120	8
-9896	-4220	11536	-11	15	-29	-16656	1344	-1264	7	-5	18	-14928	2904	-5600	20	0	4	-9512	3992	12968	17	-5	-22	-15896	-3280	256	1	-5	-7	-15344	-1280	-5168	-1	-11	21	127	121	8
-9968	-4308	11696	-10	12	-19	-16584	1200	-1400	12	-4	21	-14808	2720	-5936	18	4	4	-9456	3936	13120	20	-6	-19	-15744	-3160	-128	2	-6	-7	-15392	-1408	-5016	0	-12	16	127	118	8
-9940	-4332	11700	-13	11	-24	-16584	1272	-872	13	0	18	-14912	2784	-5720	21	2	5	-9544	3880	13048	16	-6	-20	-15704	-3136	8	2	-7	-3	-15264	-1480	-5272	4	-11	22	127	120	8
-9892	-4292	11736	-8	19	-25	-16584	1192	-1096	2	-3	16	-14848	2736	-5856	21	-5	2	-9512	4096	13024	17	-5	-21	-15640	-3184	-312	-7	-5	0	-15208	-1328	-5072	1	-10	21	127	118	8
-9912	-4316	11676	-6	14	-22	-16552	1280	-1064	11	1	18	-14912	2848	-5752	21	-1	3	-9488	4136	13072	16	-6	-19	-15720	-3160	-80	2	-5	-1	-15240	-1488	-4992	4	-13	21	127	122	8
-9980	-4240	11628	-8	13	-25	-16712	1248	-1104	4	-4	21	-14832	2824	-5920	13	1	5	-9424	3920	13264	16	-7	-23	-15752	-3376	64	7	-3	0	-15320	-1368	-4984	15	-8	22	127	122	8
-9940	-4220	11560	-6	16	-24	-16672	1168	-1112	-1	-6	17	-14792	2808	-5712	18	-2	3	-9664	3920	13064	16	-6	-24	-15800	-3120	-272	3	-5	0	-15352	-1352	-5112	8	-13	21	127	121	8
