#Activity	sitting 
#ActivityID	5 
#Date 09-09-17-27
acc_rf_x	acc_rf_y	acc_rf_z	gyro_rf_x	gyro_rf_y	gyro_rf_z	acc_rs_x	acc_rs_y	acc_rs_z	gyro_rs_x	gyro_rs_y	gyro_rs_z	acc_rt_x	acc_rt_y	acc_rt_z	gyro_rt_x	gyro_rt_y	gyro_rt_z	acc_lf_x	acc_lf_y	acc_lf_z	gyro_lf_x	gyro_lf_y	gyro_lf_z	acc_ls_x	acc_ls_y	acc_ls_z	gyro_ls_x	gyro_ls_y	gyro_ls_z	acc_lt_x	acc_lt_y	acc_lt_z	gyro_lt_x	gyro_lt_y	gyro_lt_z	EMG_r	EMG_l	act
-12396	-56	10168	-142	159	-239	-14060	-656	-7844	-74	-73	-268	-1644	-2088	16612	-77	-141	218	-13344	3372	9292	121	-81	-169	-14576	-1096	-7588	77	-51	-56	-1552	2612	16800	58	40	198	126	127	5
-12492	-120	10096	-98	164	-218	-14240	-816	-7832	6	-46	-227	-1692	-2164	16624	-109	-183	249	-13404	3452	9276	122	-82	-218	-14556	-1180	-7504	112	51	-41	-1536	2556	16904	77	35	202	126	128	5
-12504	-108	10144	-100	147	-229	-14200	-852	-7860	30	-18	-234	-1768	-2196	16652	-88	-162	308	-13440	3448	9360	83	-68	-156	-14548	-1128	-7588	96	59	-31	-1540	2540	16848	87	5	250	126	128	5
-12452	-32	10172	-100	187	-224	-14212	-788	-7880	17	21	-208	-1776	-2288	16716	-17	-147	337	-13304	3448	9240	97	-51	-209	-14512	-1176	-7704	57	122	-48	-1584	2448	16964	108	50	242	126	127	5
-12528	-92	10172	-149	171	-222	-14192	-888	-7952	-12	-1	-235	-1848	-2276	16656	-10	-169	331	-13452	3380	9316	84	-31	-209	-14516	-1232	-7796	33	118	11	-1756	2532	16948	85	26	219	126	128	5
-12448	-108	10076	-91	174	-190	-14148	-916	-8008	-43	11	-172	-1920	-2364	16668	63	-164	335	-13344	3384	9272	79	35	-186	-14536	-1196	-7708	5	132	14	-1820	2468	16876	142	75	199	126	128	5
-12416	-100	10220	-103	176	-210	-14152	-868	-8036	-56	54	-135	-1908	-2232	16680	114	-183	267	-13396	3420	9284	56	-3	-160	-14536	-1276	-7800	-12	118	48	-1880	2472	16900	172	-1	191	126	127	5
-12464	-164	10112	-77	146	-188	-14152	-860	-7968	-78	14	-115	-1916	-2288	16696	75	-162	266	-13404	3396	9464	97	44	-149	-14488	-1304	-7824	29	79	82	-1860	2512	16960	228	-29	136	126	128	5
-12496	-156	10148	-98	159	-181	-14156	-852	-8004	-52	-1	-50	-1968	-2212	16792	39	-155	238	-13332	3368	9236	100	40	-137	-14452	-1300	-7836	51	31	136	-1896	2536	16924	270	-7	93	126	127	5
-12480	-124	10188	-101	142	-177	-14116	-812	-7992	-10	-10	-27	-1964	-2240	16708	89	-99	176	-13424	3416	9300	79	-5	-133	-14528	-1208	-7820	39	-16	193	-1904	2648	16872	275	-14	36	126	127	5
-12484	-84	10008	-80	126	-188	-14140	-804	-8044	-8	-23	-29	-1992	-2144	16712	124	-128	185	-13336	3404	9256	104	36	-106	-14492	-1152	-7988	37	-31	189	-1904	2560	16924	239	-39	27	126	127	5
-12472	-48	10208	-60	144	-157	-14112	-760	-8008	-10	-53	-24	-1920	-2168	16700	57	-104	166	-13420	3424	9236	124	-24	-126	-14460	-1228	-7776	33	-88	232	-1824	2656	16860	225	-19	-22	127	127	5
-12532	-68	10180	-78	125	-169	-14212	-740	-8004	8	-49	-13	-2040	-2060	16744	51	-129	111	-13392	3396	9112	120	-2	-92	-14576	-1176	-7844	86	-116	237	-1736	2696	16912	248	-68	-7	126	127	5
-12420	-124	10136	-118	131	-204	-14196	-728	-7976	71	-55	-41	-1860	-2056	16752	25	-128	136	-13380	3360	9328	126	-35	-80	-14540	-1208	-7724	87	-131	243	-1752	2764	16880	257	-13	-23	126	127	5
-12456	-52	10052	-89	103	-210	-14116	-704	-8012	31	-60	-40	-1844	-2092	16740	16	-120	137	-13372	3424	9300	130	-14	-90	-14508	-1036	-7840	86	-96	225	-1628	2736	16924	206	-30	-28	126	127	5
-12484	-104	10144	-88	116	-179	-14156	-688	-8016	21	-31	-41	-1896	-2020	16672	4	-129	102	-13384	3412	9300	109	-4	-110	-14604	-1052	-7740	46	-36	211	-1624	2836	16896	192	-9	-21	126	127	5
-12464	-72	10124	-122	149	-187	-14124	-616	-7952	44	-36	-85	-1844	-2016	16652	5	-115	162	-13368	3440	9316	153	-47	-104	-14608	-1060	-7808	59	-41	184	-1672	2772	16860	169	-2	-4	126	127	5
-12412	-48	10144	-85	124	-189	-14156	-680	-7964	-12	-46	-92	-1864	-2060	16756	-9	-142	198	-13412	3448	9240	120	-28	-134	-14540	-1136	-7736	35	-38	160	-1608	2784	16824	136	31	30	126	127	5
-12420	-108	10148	-116	128	-218	-14204	-808	-7984	15	-33	-98	-1852	-2032	16744	14	-160	208	-13428	3432	9280	117	-27	-140	-14504	-1064	-7648	90	-36	137	-1684	2824	16772	148	34	52	126	127	5
-12484	-112	10100	-130	170	-195	-14172	-780	-7892	27	8	-129	-1864	-2092	16716	-8	-132	234	-13344	3432	9252	118	-47	-148	-14504	-1108	-7688	94	-12	105	-1708	2684	16804	187	32	57	126	128	5
-12504	-140	10128	-118	166	-202	-14136	-776	-8036	12	30	-156	-1884	-2152	16612	-23	-148	205	-13348	3412	9220	98	-44	-155	-14540	-1080	-7736	77	12	74	-1684	2664	16832	166	16	120	126	128	5
-12476	-108	10168	-101	190	-208	-14148	-768	-8016	28	27	-86	-1796	-2112	16688	9	-120	197	-13436	3436	9328	144	-57	-131	-14520	-1140	-7764	59	6	114	-1688	2736	16912	144	24	86	126	127	5
-12460	-88	10080	-82	166	-207	-14140	-720	-7932	30	21	-101	-1908	-2184	16764	-4	-143	183	-13404	3412	9296	113	-41	-158	-14548	-1128	-7932	54	20	98	-1744	2720	16928	140	18	38	126	128	5
-12432	-72	10084	-101	162	-190	-14128	-740	-8060	-6	39	-116	-1956	-2244	16704	-32	-125	179	-13352	3392	9400	125	8	-137	-14608	-1204	-7780	89	17	116	-1760	2608	16940	129	28	44	126	127	5
-12476	-108	10120	-86	128	-209	-14196	-840	-8092	-8	34	-136	-1988	-2228	16652	-28	-127	150	-13372	3396	9300	108	-47	-154	-14520	-1192	-7828	65	-7	136	-1692	2652	16908	152	-8	32	126	127	5
-12432	-96	10140	-81	138	-160	-14192	-844	-7880	34	-48	-60	-1920	-2220	16664	-13	-141	162	-13400	3424	9292	109	-53	-146	-14560	-1208	-7880	75	-20	163	-1804	2652	16980	169	-2	24	126	127	5
-12536	-84	10080	-103	128	-200	-14112	-864	-7928	42	2	-86	-1956	-2264	16804	17	-131	115	-13360	3468	9308	110	-41	-173	-14488	-1156	-7652	75	28	129	-1796	2596	16824	195	2	40	126	127	5
-12456	-84	10148	-109	126	-192	-14164	-884	-7996	71	-5	-40	-1924	-2244	16640	23	-119	135	-13400	3412	9260	133	-43	-124	-14508	-1208	-7804	57	-13	154	-1760	2616	16856	173	-32	17	126	127	5
-12492	-92	10036	-75	140	-190	-14148	-772	-8048	60	-20	-22	-1832	-2092	16664	44	-113	132	-13448	3472	9412	107	-33	-126	-14568	-1140	-7788	44	-21	180	-1724	2608	16896	191	-14	15	126	127	5
-12480	-140	10152	-78	150	-192	-14132	-720	-8028	28	-13	-71	-1880	-2160	16644	36	-103	164	-13400	3384	9244	118	-64	-149	-14512	-1200	-7760	60	-27	209	-1768	2612	16932	191	10	23	126	128	5
-12424	-68	10220	-92	156	-180	-14120	-804	-7888	-7	-6	-38	-1904	-2208	16708	-10	-123	163	-13352	3420	9280	130	4	-138	-14528	-1112	-7808	85	-28	206	-1756	2632	16828	193	-18	5	126	127	5
-12444	-140	10052	-79	129	-201	-14180	-864	-7880	40	-28	3	-1868	-2220	16704	-3	-84	165	-13384	3396	9244	129	-7	-95	-14544	-1244	-7796	66	-37	197	-1692	2588	16848	216	-18	5	126	127	5
-12472	-144	10176	-132	155	-177	-14136	-796	-7896	47	-11	-38	-1896	-2164	16672	37	-113	168	-13340	3368	9220	129	30	-143	-14500	-1164	-7836	81	-27	208	-1660	2604	16948	237	-30	22	126	127	5
-12444	-64	10148	-84	147	-189	-14168	-816	-8004	2	12	-38	-1920	-2152	16688	43	-132	148	-13320	3420	9192	99	5	-123	-14484	-1156	-7824	87	-28	211	-1680	2640	16916	261	-54	-16	126	128	5
-12272	-100	10116	-103	166	-194	-14152	-720	-8028	-36	-45	-44	-1896	-2180	16656	64	-85	143	-13484	3384	9244	116	35	-97	-14512	-1140	-7708	40	-46	218	-1652	2660	16888	268	-43	48	126	127	5
-12644	-136	10112	-98	92	-183	-14108	-780	-7912	43	1	-44	-1876	-2176	16796	57	-179	201	-13372	3480	9388	130	-17	-87	-14540	-1104	-7736	37	-1	191	-1656	2704	16932	258	-13	7	126	127	5
-12500	-136	10100	-80	186	-189	-14268	-732	-8008	1	-4	-20	-1884	-2196	16856	78	-119	211	-13400	3392	9268	143	-32	-111	-14520	-1124	-7848	13	-8	181	-1668	2740	16944	255	40	44	126	127	5
-12492	-80	10128	-113	166	-156	-14184	-772	-8016	4	-23	-29	-1904	-2148	16832	89	-91	192	-13420	3440	9244	133	-37	-104	-14520	-1184	-7772	68	-10	244	-1688	2624	16824	204	-40	27	126	127	5
-12360	-76	10168	-110	172	-168	-14160	-752	-7908	6	-48	-80	-1916	-2064	16620	70	-81	174	-13572	3372	9356	125	-27	-98	-14516	-1092	-7952	90	6	220	-1696	2680	16868	220	-16	39	126	127	5
-12400	-72	10096	-63	143	-174	-14100	-784	-8020	70	-35	-57	-1916	-2088	16660	50	-115	181	-13344	3304	9356	127	-19	-120	-14500	-1112	-7648	39	-27	214	-1736	2684	16816	257	-39	29	127	127	5
-12512	-136	10152	-54	153	-197	-14168	-720	-8100	24	-25	-73	-1960	-2116	16648	34	-101	177	-13360	3468	9296	113	-14	-124	-14484	-1132	-7964	38	-20	177	-1760	2664	16948	251	-29	34	127	127	5
-12476	-76	10052	-86	129	-222	-14112	-736	-7948	-18	-47	-89	-1928	-2080	16792	23	-128	172	-13440	3436	9300	111	-22	-127	-14504	-1116	-7792	10	-23	180	-1732	2708	16884	217	20	31	126	127	5
-12408	-52	10148	-54	169	-206	-14224	-768	-7912	-10	-86	-53	-1980	-2076	16636	65	-106	189	-13364	3384	9164	127	-71	-84	-14476	-1124	-7808	47	-48	158	-1748	2720	16904	238	-26	52	126	128	5
-12524	-92	10044	-105	128	-176	-14116	-736	-7876	-21	-52	-61	-1928	-2144	16820	21	-112	175	-13412	3400	9264	105	-51	-146	-14560	-1164	-7948	69	-71	208	-1724	2732	16880	198	5	17	126	127	5
-12480	-84	10052	-65	152	-197	-14208	-748	-7960	-47	-73	-81	-1820	-2116	16728	37	-153	195	-13352	3400	9328	151	19	-110	-14568	-1124	-7712	123	-69	148	-1668	2620	17012	194	30	4	126	127	5
-12492	-32	10104	-96	143	-192	-14188	-796	-8024	13	-44	-62	-1820	-2016	16708	5	-137	165	-13364	3380	9288	143	-42	-147	-14528	-1148	-7740	97	-83	217	-1660	2720	16764	213	-2	-20	126	127	5
-12404	-132	10160	-100	132	-178	-14172	-728	-7932	24	-26	-69	-1796	-2040	16628	-37	-119	141	-13340	3388	9356	155	-19	-131	-14588	-1052	-7636	80	-23	215	-1584	2744	16868	207	-15	-42	126	127	5
-12484	-64	10096	-89	158	-172	-14128	-688	-7896	62	9	-83	-1808	-2148	16820	-10	-87	127	-13376	3460	9272	167	-21	-151	-14544	-1124	-7644	67	18	214	-1604	2716	16812	184	-12	-28	126	127	5
-12484	-108	10144	-40	173	-230	-14164	-716	-8016	8	19	-80	-1892	-2120	16604	-50	-84	172	-13380	3404	9248	138	-28	-119	-14536	-1068	-7784	59	-8	194	-1688	2712	16836	137	29	-11	125	127	5
-12468	-120	10112	-79	145	-195	-14128	-816	-7932	5	14	-97	-1976	-2128	16744	-32	-121	177	-13392	3392	9276	171	-21	-104	-14512	-1092	-7808	26	-3	200	-1820	2680	16896	164	11	2	126	127	5
-12488	-88	10080	-74	169	-214	-14192	-760	-8084	8	4	-104	-2048	-2188	16716	8	-140	206	-13364	3436	9256	165	-85	-107	-14560	-1100	-7908	61	8	183	-1812	2752	16876	211	4	-5	126	127	5
-12496	-80	10112	-92	132	-189	-14092	-756	-8004	25	-38	-136	-2012	-2188	16636	6	-162	183	-13404	3424	9332	142	-44	-92	-14500	-1076	-7824	76	-55	148	-1816	2748	16908	213	-16	40	126	127	5
-12432	-64	10064	-71	119	-193	-14212	-784	-8076	23	-72	-87	-1992	-2176	16796	-17	-140	184	-13400	3448	9332	131	-46	-119	-14532	-1148	-7800	164	-110	164	-1896	2788	16920	170	15	18	126	127	5
-12432	-112	10096	-125	107	-201	-14232	-860	-7980	7	-120	-91	-2024	-2224	16672	-28	-117	124	-13348	3404	9276	111	-55	-119	-14516	-1104	-7804	133	-131	159	-1836	2744	16980	128	-34	29	127	127	5
-12440	-136	10144	-101	105	-220	-14220	-736	-8068	47	-100	-56	-1904	-2240	16668	-24	-124	133	-13364	3452	9312	134	-72	-103	-14532	-1052	-7736	78	-117	150	-1780	2676	16840	186	-27	1	127	127	5
-12500	-84	10080	-137	112	-211	-14204	-780	-8016	19	-117	-72	-1864	-2212	16752	37	-106	148	-13368	3496	9268	118	-122	-117	-14480	-1084	-7748	90	-181	145	-1676	2600	16860	184	15	24	126	127	5
-12480	-64	10028	-116	119	-200	-14124	-816	-7932	-11	-127	-59	-1868	-2192	16660	42	-134	130	-13448	3436	9240	70	-21	-127	-14540	-1164	-7720	87	-181	193	-1772	2568	16868	340	-15	72	126	127	5
-12420	-144	10156	-115	103	-216	-14244	-800	-7984	-35	-104	-30	-1772	-2140	16800	59	-100	126	-13392	3436	9276	112	-58	-137	-14504	-1172	-7644	79	-143	212	-1580	2588	16984	152	49	-5	126	127	5
-12464	-88	10060	-101	116	-181	-14232	-776	-7848	-19	-150	-70	-1728	-2108	16612	57	-135	141	-13344	3488	9228	85	-59	-106	-14500	-1192	-7680	97	-81	192	-1564	2484	16932	248	-33	-10	126	127	5
-12504	-120	10104	-104	127	-177	-14184	-808	-7896	-4	-56	-62	-1652	-2152	16620	60	-98	120	-13380	3448	9264	102	-47	-119	-14548	-1200	-7472	100	-59	243	-1480	2476	16836	221	-72	-23	126	127	5
-12468	-36	10216	-109	124	-190	-14148	-752	-7840	27	-31	-60	-1648	-2048	16620	52	-83	159	-13404	3388	9340	119	-11	-111	-14544	-1212	-7672	80	-10	276	-1548	2516	16800	339	-14	8	126	127	5
-12468	-112	10136	-74	152	-162	-14216	-744	-7884	20	18	-56	-1736	-2080	16568	39	-65	182	-13400	3416	9364	124	-13	-98	-14612	-1140	-7640	72	38	277	-1596	2596	16952	332	1	-17	126	128	5
-12516	-112	10164	-55	149	-210	-14144	-768	-7856	18	35	-2	-1788	-2084	16652	1	-57	175	-13392	3388	9420	136	43	-99	-14540	-1128	-7736	-16	34	290	-1528	2612	16912	322	18	-16	126	127	5
-12468	-84	10144	-80	152	-209	-14140	-744	-7908	-11	52	-31	-1836	-2140	16780	48	-86	203	-13396	3460	9276	158	17	-73	-14532	-1096	-7752	-32	77	283	-1636	2700	16864	306	35	-46	126	127	5
-12472	-96	10128	-91	181	-178	-14184	-780	-7916	-29	91	-13	-1936	-2172	16660	68	-87	171	-13368	3400	9264	169	37	-83	-14564	-1096	-7696	-24	109	291	-1748	2760	16892	277	2	-39	126	128	5
-12500	-60	10196	-54	186	-163	-14120	-748	-8024	12	38	16	-1948	-2144	16808	83	-53	186	-13360	3416	9236	160	60	-112	-14536	-1040	-7780	22	86	319	-1756	2800	16836	308	-28	-32	126	127	5
-12460	-60	10268	-53	179	-165	-14140	-708	-8092	13	40	-3	-1964	-2180	16672	58	-54	167	-13340	3448	9256	135	18	-95	-14444	-1060	-7932	42	55	307	-1980	2828	16912	584	-217	33	126	127	5
-12488	-112	10048	-82	148	-197	-14128	-720	-8028	27	4	3	-2088	-2120	16752	27	-71	97	-13408	3444	9256	145	2	-56	-14548	-992	-7840	37	32	251	-1816	2952	17004	291	124	12	126	127	5
-12508	-156	10264	-84	132	-164	-14152	-752	-8028	38	10	-15	-2100	-2092	16752	-12	-42	101	-13400	3388	9292	152	-63	-133	-14460	-996	-7884	36	-65	262	-1912	2964	16916	314	-57	20	126	127	5
-12508	-60	10148	-103	150	-173	-14184	-744	-8036	18	-44	19	-2020	-2176	16768	28	-61	102	-13396	3428	9276	119	-11	-118	-14528	-1024	-7864	98	-120	234	-1836	2960	16844	216	-52	31	126	128	5
-12412	-84	10108	-97	126	-172	-14160	-640	-8016	47	-53	7	-2096	-2096	16780	19	-65	97	-13304	3452	9200	121	-41	-113	-14580	-1032	-7788	82	-125	202	-1784	2896	16972	291	-4	41	126	128	5
-12428	-80	10064	-65	118	-182	-14064	-740	-7992	47	-85	-35	-1936	-2124	16768	45	-83	106	-13392	3440	9372	125	-95	-165	-14572	-1140	-7736	81	-101	132	-1676	2800	16832	240	-58	37	126	128	5
-12488	-84	10156	-76	110	-199	-14216	-664	-7980	14	-77	-27	-1920	-2112	16704	62	-81	149	-13388	3424	9308	126	-40	-140	-14600	-996	-7680	110	-134	167	-1668	2772	16868	261	-44	77	126	128	5
-12528	-168	10012	-103	112	-205	-14204	-692	-7952	32	-104	-62	-1824	-2112	16644	77	-85	117	-13400	3436	9208	93	-88	-165	-14564	-1064	-7760	99	-119	142	-1572	2716	16796	264	-30	97	126	128	5
-12460	-92	10200	-124	149	-206	-14228	-752	-7812	-46	-35	-35	-1712	-2068	16700	100	-70	113	-13368	3424	9272	124	-73	-182	-14572	-1084	-7688	78	-60	155	-1532	2616	16876	283	-35	102	125	127	5
-12464	-96	10116	-60	127	-172	-14196	-808	-7736	-4	3	-45	-1660	-2092	16620	70	-53	109	-13404	3492	9272	140	-48	-160	-14564	-1136	-7692	90	-41	162	-1548	2596	16856	320	-27	73	125	127	5
-12392	-80	10144	-84	161	-172	-14192	-852	-7756	46	62	11	-1608	-2108	16608	55	-24	90	-13304	3404	9260	135	-48	-136	-14580	-1176	-7720	94	-44	190	-1612	2584	16936	237	-12	52	126	128	5
-12460	-60	10064	-91	165	-159	-14176	-828	-7784	88	121	48	-1704	-2188	16568	58	-16	47	-13268	3444	9312	154	0	-123	-14552	-1160	-7704	140	-31	227	-1588	2608	16944	205	-27	-29	125	127	5
-12376	-100	10080	-63	176	-157	-14088	-824	-7812	143	176	68	-1696	-2152	16660	79	-21	27	-13460	3408	9196	136	5	-144	-14620	-1212	-7640	183	66	270	-1508	2616	16840	211	-62	-70	125	128	5
-12484	-140	10108	-51	198	-146	-14156	-772	-7948	103	228	72	-1792	-2252	16716	54	-16	0	-13360	3476	9252	146	17	-114	-14536	-1124	-7676	111	84	290	-1540	2480	16924	275	-67	-102	125	128	5
-12468	-80	10160	-81	165	-127	-14160	-724	-8000	70	177	124	-1968	-2224	16676	62	12	-8	-13416	3484	9280	165	34	-84	-14592	-1088	-7732	14	120	319	-1608	2652	16788	314	30	-102	125	128	5
-12488	-104	10172	-41	201	-130	-14152	-684	-8016	31	169	108	-2100	-2280	16744	99	13	10	-13380	3456	9232	164	83	-93	-14540	-1080	-7672	12	131	316	-1556	2660	16852	167	-41	-141	125	128	5
-12524	-88	10196	-45	214	-141	-14180	-656	-8112	37	109	111	-2192	-2224	16720	132	-19	48	-13380	3516	9312	184	93	-104	-14604	-972	-7732	-13	187	296	-1600	2748	16960	383	-107	-4	126	128	5
-12444	-80	10068	-54	170	-129	-14120	-640	-8112	-35	74	83	-2196	-2252	16728	226	-50	98	-13388	3480	9260	150	39	-106	-14556	-1028	-7776	-56	204	279	-1700	2808	16892	514	14	94	127	128	5
-12496	-80	9988	-108	175	-148	-14132	-612	-8092	-85	34	47	-2200	-2172	16716	258	-81	231	-13380	3404	9264	166	53	-105	-14564	-952	-7812	-56	179	284	-1844	2996	16920	489	56	127	127	128	5
-12512	-120	10216	-76	130	-166	-14076	-592	-8124	-86	-38	40	-2300	-2104	16668	314	-184	239	-13400	3480	9276	147	61	-96	-14544	-944	-7864	-61	146	231	-1816	3096	16824	434	-9	147	127	128	5
-12532	44	10100	-48	126	-127	-14096	-560	-8156	-47	-74	26	-2112	-2008	16756	300	-207	319	-13452	3448	9260	145	1	-114	-14512	-944	-8004	-71	105	174	-1908	3128	16868	314	-7	150	127	128	5
-12500	-72	10148	-53	109	-158	-14156	-536	-8216	-96	-101	3	-2096	-1956	16772	262	-166	270	-13388	3488	9268	147	-77	-102	-14472	-924	-8064	-44	6	157	-1988	3072	16824	217	-98	150	127	128	5
-12540	-76	10144	-64	111	-190	-14140	-592	-8060	-96	-199	-28	-2212	-1832	16732	184	-169	180	-13396	3468	9240	170	-80	-112	-14492	-944	-8000	21	-39	134	-1924	3084	16804	253	-24	144	126	128	5
-12468	-4	10032	-100	100	-185	-14104	-560	-8036	-32	-187	-53	-2132	-1784	16764	103	-138	138	-13472	3440	9196	149	-83	-135	-14512	-952	-7988	88	-79	96	-1744	3148	16772	240	-45	118	126	128	5
-12460	8	10128	-91	102	-205	-14172	-520	-7920	-52	-232	-67	-2060	-1764	16676	14	-172	122	-13384	3456	9256	112	-118	-140	-14532	-928	-7900	103	-141	47	-1640	3136	16808	184	-21	102	126	128	5
-12416	4	10104	-106	139	-204	-14176	-628	-7872	19	-203	-84	-1980	-1776	16732	-39	-190	109	-13408	3516	9168	90	-87	-190	-14560	-860	-7764	99	-103	2	-1624	3100	16840	15	41	122	126	127	5
-12428	-28	10120	-107	110	-225	-14148	-628	-7804	43	-193	-164	-1876	-1740	16656	-25	-185	135	-13340	3468	9204	92	-126	-192	-14568	-944	-7684	94	-115	-27	-1620	3092	16832	-35	-25	82	126	127	5
-12408	-24	10116	-109	116	-231	-14240	-596	-7812	72	-106	-224	-1808	-1760	16720	-67	-225	161	-13344	3376	9284	66	-39	-166	-14520	-1056	-7696	114	-97	-25	-1552	2964	16888	-70	27	83	126	127	5
-12464	24	10132	-144	157	-216	-14148	-560	-7820	29	-85	-232	-1780	-1776	16496	-80	-251	169	-13400	3488	9188	77	-65	-202	-14552	-1016	-7672	120	-32	-66	-1600	2928	16924	-118	46	81	126	127	5
-12460	-56	10112	-138	171	-245	-14160	-620	-7900	-1	-35	-281	-1792	-1844	16684	-157	-230	205	-13412	3420	9288	30	-44	-178	-14532	-1032	-7720	114	-24	-82	-1572	2884	16896	-162	35	72	126	127	5
-12428	-32	10192	-155	153	-217	-14128	-572	-7852	35	-10	-295	-1880	-1976	16788	-222	-241	200	-13368	3436	9380	40	-28	-194	-14572	-1108	-7700	119	-18	-92	-1704	2768	16900	-185	43	65	126	127	5
-12456	-52	10092	-149	181	-245	-14160	-732	-7988	7	22	-310	-1948	-2032	16760	-218	-258	251	-13384	3436	9224	52	-16	-239	-14588	-1116	-7796	126	-20	-93	-1676	2708	16704	-142	51	83	126	127	5
-12472	-16	10124	-153	173	-301	-14172	-724	-8028	88	-19	-343	-1912	-2104	16644	-227	-264	245	-13392	3420	9260	10	-54	-178	-14524	-1116	-7860	114	0	-72	-1752	2644	16816	-80	24	100	126	127	5
-12476	-80	10096	-178	158	-251	-14096	-752	-8028	88	-35	-311	-1840	-2212	16708	-181	-246	268	-13328	3456	9164	25	-31	-202	-14584	-1140	-7772	110	-47	-56	-1772	2596	16940	-61	55	89	126	127	5
-12472	-152	9992	-135	197	-276	-14148	-780	-8020	78	-36	-268	-1928	-2276	16696	-177	-263	298	-13396	3468	9208	51	-53	-206	-14440	-1192	-7796	82	-20	-52	-1768	2628	16880	-15	53	109	126	127	5
-12488	-96	10060	-119	122	-247	-14136	-840	-7936	36	-21	-292	-1880	-2324	16676	-155	-235	292	-13364	3340	9240	66	-64	-146	-14548	-1260	-7772	77	-34	-22	-1732	2520	17008	22	32	107	126	127	5
-12464	-44	10048	-141	136	-232	-14120	-888	-8000	-12	-22	-248	-1912	-2340	16604	-71	-239	263	-13396	3436	9208	59	-35	-177	-14540	-1200	-7792	127	-71	20	-1732	2520	16976	29	23	79	126	127	5
-12504	-56	10156	-137	144	-186	-14120	-948	-8032	-44	-71	-201	-1928	-2368	16712	-53	-242	209	-13364	3464	9192	90	-49	-140	-14536	-1240	-7908	122	-67	70	-1704	2528	16916	39	53	103	126	127	5
-12436	-80	10136	-73	136	-220	-14180	-892	-7948	-3	-50	-126	-1860	-2404	16688	-31	-184	206	-13308	3392	9332	127	-72	-99	-14516	-1228	-7840	76	-43	100	-1728	2520	16932	71	14	37	126	127	5
-12392	-124	10080	-113	144	-211	-14156	-924	-7996	74	-60	-99	-1868	-2456	16744	25	-148	155	-13384	3428	9224	140	8	-115	-14528	-1196	-7816	9	-58	111	-1724	2496	16916	134	7	15	126	127	5
-12444	-48	10056	-78	108	-186	-14152	-952	-8032	39	-95	-21	-1804	-2348	16692	-2	-140	98	-13360	3424	9336	125	-58	-111	-14560	-1176	-7800	13	-44	182	-1816	2580	16884	184	2	14	126	127	5
-12428	-100	10120	-55	150	-135	-14148	-872	-8000	96	-77	42	-1832	-2328	16668	44	-105	70	-13360	3444	9228	136	-20	-130	-14496	-1200	-7812	77	-86	219	-1780	2620	16828	195	-25	8	126	127	5
-12460	-116	10108	-57	107	-171	-14168	-768	-7952	48	-68	37	-1828	-2240	16672	105	-114	56	-13412	3396	9276	143	25	-98	-14556	-1224	-7700	108	-76	200	-1688	2684	17008	245	-34	-21	127	127	5
-12436	-100	10108	-60	109	-165	-14192	-768	-7944	36	-75	26	-1800	-2160	16700	68	-117	72	-13332	3424	9280	142	-53	-79	-14540	-1128	-7732	85	-44	232	-1664	2696	16848	242	-19	-27	127	127	5
-12488	-48	10092	-63	115	-142	-14220	-736	-7964	-14	-46	56	-1776	-2084	16748	109	-93	37	-13440	3448	9360	129	-31	-89	-14540	-1116	-7744	43	-25	214	-1588	2704	16900	187	15	-11	126	127	5
-12464	-44	10096	-68	141	-168	-14152	-744	-7840	6	-43	73	-1828	-2092	16668	125	-87	61	-13340	3432	9396	145	-49	-102	-14532	-1084	-7804	18	-1	229	-1632	2724	16736	182	11	-2	126	127	5
-12440	-28	10180	-67	124	-168	-14180	-724	-7924	85	-62	70	-1820	-1968	16596	99	-72	107	-13396	3464	9280	125	9	-124	-14612	-1056	-7724	8	9	197	-1628	2684	16776	176	40	33	126	128	5
-12468	-88	9984	-119	132	-160	-14140	-680	-7952	52	12	58	-1760	-1972	16628	50	-69	71	-13424	3476	9328	112	-25	-120	-14564	-1056	-7884	38	40	179	-1704	2772	16820	266	-26	29	126	127	5
-12480	-32	10152	-94	147	-161	-14152	-620	-7776	51	54	25	-1836	-1956	16696	39	-69	113	-13452	3480	9284	80	54	-117	-14548	-1076	-7688	100	69	159	-1676	2788	16872	127	91	26	126	127	5
-12468	-36	10096	-49	117	-165	-14184	-604	-7912	14	21	-26	-1864	-1932	16720	52	-72	165	-13364	3432	9236	93	38	-148	-14556	-1004	-7820	32	57	131	-1652	2728	16788	194	-42	89	126	127	5
-12448	-52	10124	-111	147	-176	-14212	-624	-7856	15	-3	-44	-1924	-2028	16736	57	-111	172	-13372	3380	9276	107	38	-146	-14516	-1112	-7680	27	111	89	-1684	2808	16856	180	27	147	126	128	5
-12424	-44	10096	-109	132	-174	-14188	-620	-7912	16	31	-130	-1908	-1948	16744	75	-101	155	-13344	3376	9196	85	-1	-164	-14468	-1120	-7784	3	59	97	-1704	2756	16860	181	64	138	126	127	5
-12432	-28	10020	-74	158	-181	-14172	-640	-7996	0	36	-151	-1896	-1976	16644	36	-105	239	-13376	3388	9256	99	-17	-149	-14512	-1092	-7836	32	53	61	-1804	2756	16868	179	-7	123	126	128	5
-12476	-60	10156	-88	175	-263	-14140	-600	-8020	-15	38	-168	-1952	-1976	16700	18	-103	251	-13404	3452	9360	74	-22	-172	-14544	-1148	-7828	39	79	65	-1828	2684	16796	249	-47	143	126	128	5
-12504	-36	10188	-112	134	-232	-14168	-668	-7992	-39	6	-172	-1928	-1992	16712	16	-133	267	-13452	3432	9332	113	-20	-157	-14476	-1136	-7924	44	-1	122	-1772	2616	16852	247	97	130	126	127	5
-12472	-128	10132	-119	136	-202	-14188	-752	-7944	-56	-14	-143	-1892	-2124	16764	-4	-116	258	-13388	3356	9200	110	-37	-160	-14568	-1120	-7836	72	13	131	-1796	2616	16900	210	-39	120	126	127	5
-12480	-28	10184	-109	168	-205	-14200	-744	-7824	-30	18	-182	-1856	-2160	16744	-15	-119	276	-13400	3440	9224	124	3	-134	-14464	-1172	-7672	84	-13	189	-1764	2572	16888	243	24	68	126	127	5
-12440	-32	10060	-114	154	-211	-14148	-792	-7964	20	28	-140	-1848	-2188	16728	-24	-107	264	-13364	3424	9232	117	-75	-88	-14504	-1148	-7752	78	15	161	-1692	2664	16892	246	-6	59	126	127	5
-12404	-40	10184	-60	183	-218	-14176	-780	-7944	-9	45	-135	-1824	-2152	16636	-9	-71	226	-13368	3424	9316	150	9	-155	-14496	-1172	-7728	71	6	244	-1744	2612	16848	250	-10	-19	126	127	5
-12476	-80	10236	-86	171	-202	-14120	-816	-7904	-26	23	-126	-1892	-2116	16712	3	-88	180	-13384	3496	9300	180	-57	-119	-14508	-1148	-7640	71	11	243	-1656	2636	16888	211	-48	-30	126	127	5
-12436	-44	10048	-39	157	-218	-14180	-740	-7940	13	73	-96	-1860	-2140	16648	-14	-103	164	-13412	3392	9392	179	-58	-89	-14520	-1124	-7708	69	40	270	-1672	2672	16820	241	-15	-57	126	127	5
-12444	-144	10084	-22	162	-196	-14144	-756	-7872	-17	62	-94	-1900	-2232	16628	-44	-86	160	-13420	3388	9288	218	0	-99	-14500	-1188	-7804	89	35	256	-1708	2744	16948	199	-21	-67	126	127	5
-12484	-56	10192	-40	131	-209	-14140	-720	-8016	14	34	-50	-1988	-2184	16732	9	-121	201	-13424	3452	9220	188	10	-92	-14516	-1064	-7752	34	34	252	-1692	2728	16916	238	-13	-53	126	127	5
-12384	-84	10156	-75	140	-201	-14128	-736	-8084	37	36	-57	-1996	-2188	16688	3	-108	158	-13360	3400	9244	177	-12	-86	-14488	-1020	-7840	23	13	216	-1736	2712	16924	280	-14	-21	126	128	5
-12492	-100	10064	-74	143	-149	-14136	-808	-8096	44	-28	-29	-2020	-2208	16740	51	-134	125	-13416	3460	9212	168	-31	-84	-14520	-1100	-7816	28	-25	235	-1784	2820	16884	219	1	-28	126	128	5
-12432	-132	10120	-60	127	-172	-14160	-664	-8028	14	-10	-28	-2024	-2192	16668	23	-99	148	-13420	3440	9200	157	-3	-123	-14460	-1084	-7872	57	-63	200	-1756	2824	16796	250	-40	-3	126	127	5
-12444	-52	10144	-81	139	-183	-14168	-716	-8016	11	-40	-55	-1968	-2100	16796	74	-140	160	-13372	3400	9324	109	-48	-94	-14552	-1048	-7900	99	-60	187	-1728	2836	16868	245	-61	-3	126	127	5
-12520	-68	10188	-56	160	-188	-14148	-704	-7976	-45	-67	-44	-1968	-2052	16728	60	-124	156	-13460	3448	9216	104	-36	-117	-14516	-1008	-7860	104	-60	175	-1700	2844	16772	217	27	44	126	127	5
-12460	-60	10108	-129	105	-193	-14132	-660	-7932	-28	-67	-74	-1940	-2068	16752	33	-141	168	-13352	3480	9268	76	-13	-122	-14496	-1036	-7752	94	-66	158	-1632	2844	16784	190	7	27	126	128	5
-12472	-76	10056	-99	148	-191	-14168	-684	-7992	-26	-64	-64	-1984	-2032	16820	33	-146	165	-13396	3420	9332	115	-41	-159	-14508	-1056	-7800	54	-17	109	-1616	2872	16812	190	-2	52	126	128	5
-12468	-40	10104	-106	147	-195	-14176	-704	-7832	5	-62	-87	-1904	-2036	16748	17	-120	181	-13396	3488	9280	109	-36	-157	-14540	-1024	-7776	63	-43	105	-1600	2760	16916	146	18	78	126	128	5
-12460	-92	10100	-113	134	-193	-14116	-716	-7996	14	-33	-103	-1852	-2000	16680	7	-132	182	-13400	3432	9272	99	-32	-164	-14568	-1080	-7776	44	-26	90	-1640	2792	16816	119	35	56	126	128	5
-12456	-32	10148	-131	136	-192	-14148	-604	-7884	35	-78	-113	-1848	-2000	16708	13	-162	212	-13328	3436	9288	71	-5	-149	-14552	-1092	-7824	70	-41	94	-1680	2784	16760	129	13	97	126	128	5
-12452	-88	10132	-124	164	-193	-14152	-756	-7948	-28	-43	-127	-1840	-1996	16772	-26	-178	224	-13400	3460	9240	72	-9	-133	-14528	-1100	-7720	82	-16	82	-1640	2720	16836	112	26	96	125	128	5
-12416	-64	10192	-151	129	-248	-14160	-764	-7936	11	-7	-185	-1876	-1992	16664	-39	-163	246	-13396	3424	9288	103	-40	-161	-14500	-1040	-7788	70	24	37	-1684	2664	16852	136	9	82	126	127	5
-12460	-68	10096	-107	158	-226	-14100	-756	-7988	-13	-16	-176	-1900	-2116	16708	-25	-171	226	-13424	3412	9300	105	-10	-175	-14536	-1132	-7872	46	-39	52	-1720	2748	16788	113	32	109	125	128	5
-12464	-72	10052	-107	150	-231	-14156	-772	-7984	-6	3	-162	-1904	-2184	16756	-10	-167	218	-13368	3424	9356	65	-44	-103	-14484	-1136	-7808	61	-18	70	-1680	2692	16900	108	40	81	126	128	5
-12492	-40	10216	-117	167	-245	-14108	-756	-7832	51	-35	-157	-1892	-2084	16668	-8	-134	233	-13356	3388	9232	125	-21	-142	-14516	-1160	-7824	54	-10	44	-1716	2668	16992	137	-8	45	126	128	5
-12480	-64	10156	-108	119	-235	-14148	-776	-7984	24	-46	-181	-1880	-2176	16648	-42	-173	211	-13392	3420	9276	97	-13	-137	-14524	-1092	-7720	85	-16	93	-1728	2652	16772	150	39	61	126	128	5
-12468	-92	10088	-115	163	-233	-14144	-812	-8088	25	-8	-143	-1920	-2124	16704	-18	-167	191	-13368	3420	9360	123	-36	-182	-14492	-1112	-7768	64	-25	108	-1744	2632	16748	112	33	35	126	128	5
-12396	-68	10208	-133	143	-201	-14192	-732	-8040	32	-1	-133	-1904	-2192	16700	-1	-167	223	-13328	3416	9232	117	-12	-121	-14496	-1212	-7748	42	13	101	-1760	2656	16872	156	7	41	126	127	5
-12484	-64	10056	-95	142	-217	-14084	-760	-7964	-9	-24	-115	-1856	-2196	16576	29	-141	223	-13404	3404	9388	111	-22	-140	-14520	-1204	-7944	35	-22	163	-1820	2732	17004	161	-5	61	126	127	5
-12452	-76	10028	-90	175	-176	-14084	-800	-7964	32	-9	-128	-1884	-2236	16768	-5	-147	163	-13400	3420	9236	117	-69	-106	-14484	-1144	-7880	51	-35	145	-1804	2716	16816	175	-49	20	126	127	5
-12428	-136	10104	-107	114	-200	-14152	-764	-7988	39	-47	-89	-1944	-2216	16748	0	-145	165	-13368	3416	9264	152	-68	-163	-14504	-1216	-7800	50	-79	149	-1780	2620	16948	153	12	14	126	127	5
-12500	-88	10184	-116	124	-179	-14100	-860	-7980	16	-25	-68	-1952	-2204	16740	19	-129	148	-13368	3396	9304	111	-59	-140	-14432	-1156	-7896	58	-53	179	-1784	2636	16812	181	-23	1	126	127	5
-12452	-80	10136	-71	158	-194	-14152	-724	-7944	40	-116	-49	-1868	-2232	16656	8	-126	140	-13416	3380	9344	104	17	-184	-14496	-1076	-7844	95	-104	197	-1764	2608	16816	166	-43	-3	126	127	5
-12472	-68	10140	-105	141	-210	-14188	-812	-7980	5	-115	-100	-1916	-2148	16704	36	-136	148	-13364	3408	9268	99	-77	-113	-14580	-1132	-7852	101	-95	153	-1664	2644	16876	170	-34	-4	126	128	5
-12392	-108	10160	-58	124	-190	-14112	-740	-8036	-9	-110	-52	-1864	-2192	16764	33	-123	173	-13364	3408	9260	126	-46	-111	-14540	-1140	-7888	49	-43	151	-1664	2684	16760	244	-32	9	126	127	5
-12428	-64	10128	-98	117	-172	-14164	-752	-7840	20	-56	-31	-1832	-2044	16712	56	-128	156	-13388	3404	9192	117	20	-144	-14536	-1124	-7708	109	-89	211	-1652	2644	16852	261	-25	20	126	127	5
-12472	-56	10148	-101	151	-206	-14204	-780	-7872	20	-26	-27	-1856	-2100	16756	44	-132	139	-13380	3432	9244	113	-3	-103	-14504	-1088	-7772	79	-37	207	-1664	2696	16864	250	-25	20	126	127	5
-12420	-80	9988	-75	157	-162	-14132	-760	-7992	29	8	-49	-1828	-2132	16764	39	-92	172	-13468	3424	9396	124	-46	-115	-14544	-1076	-7696	45	-18	220	-1684	2744	16860	247	20	27	126	127	5
-12416	-128	10192	-63	142	-198	-14204	-824	-7992	20	-30	-84	-1848	-2068	16784	38	-100	215	-13376	3396	9168	124	-6	-92	-14500	-1048	-7744	66	-31	219	-1672	2684	16860	231	-13	5	126	127	5
-12412	-56	10004	-106	135	-187	-14208	-756	-7836	15	-1	-20	-1844	-2124	16752	10	-85	160	-13344	3420	9256	125	0	-121	-14480	-1080	-7724	40	0	216	-1652	2696	16924	199	-3	36	126	127	5
-12424	-76	10136	-30	141	-217	-14160	-740	-7936	12	25	-62	-1812	-2120	16736	43	-114	185	-13392	3472	9196	141	-16	-140	-14480	-1124	-7772	63	-10	181	-1652	2744	16760	199	13	38	126	128	5
-12432	-112	10004	-61	145	-169	-14168	-768	-7924	17	2	-16	-1888	-2088	16648	46	-74	150	-13368	3476	9216	72	18	-141	-14532	-1052	-7844	46	-10	166	-1688	2724	16740	230	-16	15	126	127	5
-12448	-140	10216	-70	152	-159	-14180	-768	-7924	87	65	-10	-1868	-2164	16680	48	-78	146	-13436	3460	9220	123	2	-142	-14520	-1048	-7872	40	43	149	-1640	2716	16836	227	-3	57	126	127	5
-12460	-56	10164	-92	164	-179	-14180	-792	-8016	64	14	8	-1892	-2176	16628	53	-97	148	-13380	3388	9304	122	-16	-155	-14476	-1040	-7792	79	24	146	-1624	2748	16916	247	14	58	126	127	5
-12480	-64	10208	-105	153	-193	-14128	-752	-7928	9	2	13	-1944	-2120	16676	63	-90	127	-13388	3416	9260	128	-24	-143	-14564	-1116	-7760	75	39	147	-1752	2748	16888	203	1	36	126	127	5
-12492	-96	10140	-77	142	-159	-14160	-744	-7952	4	6	-36	-1924	-2104	16712	54	-103	160	-13328	3444	9320	137	0	-142	-14428	-1060	-7872	63	69	145	-1812	2760	16916	194	54	61	126	127	5
-12580	-108	10060	-95	117	-175	-14168	-728	-7944	5	13	-32	-2020	-2120	16748	44	-75	176	-13364	3448	9236	91	-39	-129	-14508	-1092	-7684	33	0	180	-1632	2788	16868	188	-21	42	126	127	5
-12472	-80	10084	-94	164	-208	-14160	-732	-8048	11	-24	7	-1920	-2044	16696	25	-96	155	-13364	3404	9320	124	-26	-129	-14592	-1096	-7892	61	13	121	-1744	2692	16992	168	12	74	126	127	5
-12500	-84	10024	-90	154	-183	-14152	-772	-7988	-1	-22	-33	-1960	-2072	16772	9	-91	139	-13420	3440	9264	135	-1	-125	-14448	-1136	-7740	68	1	142	-1724	2732	16800	183	0	45	126	127	5
-12436	-120	10024	-98	159	-186	-14220	-724	-7912	32	-7	-65	-1920	-2056	16648	60	-102	114	-13444	3396	9312	132	-20	-151	-14472	-1116	-7700	53	-39	162	-1804	2736	16848	194	-4	75	126	127	5
-12432	-32	10156	-85	191	-193	-14092	-720	-8012	48	-2	-18	-1976	-2076	16696	20	-109	156	-13440	3376	9296	119	17	-127	-14520	-1140	-7852	49	7	142	-1668	2640	16860	226	-17	0	126	127	5
-12400	-48	10116	-104	145	-167	-14144	-660	-7964	7	-20	-74	-1908	-2072	16748	30	-91	162	-13360	3372	9184	145	-23	-115	-14476	-1144	-7784	82	-64	168	-1776	2740	16788	194	-30	24	126	127	5
-12460	-64	10128	-90	204	-254	-14132	-656	-8088	17	-46	-117	-1960	-2056	16596	-9	-95	189	-13380	3436	9256	145	12	-120	-14500	-1148	-7820	69	-64	174	-1660	2748	16848	187	-16	33	127	127	5
-12460	-92	10104	-85	139	-195	-14132	-776	-8088	57	-37	-68	-1960	-2036	16752	26	-99	174	-13432	3384	9192	98	-17	-141	-14472	-1140	-7820	91	-73	161	-1724	2708	16864	190	-6	33	127	128	5
-12452	-48	10096	-98	130	-229	-14176	-724	-7952	46	-56	-106	-1880	-2072	16776	-5	-106	185	-13376	3416	9244	113	-39	-112	-14568	-1080	-7724	62	-70	133	-1688	2748	16880	195	35	17	126	127	5
-12496	-8	10096	-116	178	-221	-14144	-716	-7916	-28	-46	-67	-1936	-2116	16656	16	-108	190	-13344	3508	9196	103	-67	-155	-14608	-1124	-7780	56	-72	177	-1684	2740	16900	189	14	26	126	127	5
-12444	-76	10196	-121	161	-194	-14224	-768	-7952	33	-30	-115	-1896	-2132	16788	21	-110	181	-13340	3472	9168	158	-27	-146	-14532	-1040	-7768	55	-53	176	-1736	2704	16952	174	26	23	126	128	5
-12452	-56	10076	-94	150	-201	-14168	-804	-7920	25	-9	-82	-1896	-2156	16728	36	-126	163	-13344	3460	9380	117	-57	-139	-14496	-1112	-7804	34	-13	161	-1656	2784	16816	182	25	45	127	128	5
-12412	-96	10180	-109	125	-196	-14120	-792	-7852	-13	-52	-46	-1840	-2136	16700	-6	-92	171	-13432	3444	9264	109	-16	-150	-14516	-1064	-7704	66	-50	138	-1652	2736	16956	172	35	31	126	128	5
-12456	-92	10104	-109	143	-200	-14140	-744	-7952	11	-31	-63	-1908	-2120	16736	26	-85	138	-13396	3412	9296	121	-21	-129	-14516	-1076	-7764	64	-37	115	-1652	2732	16728	173	-15	21	126	127	5
-12424	-60	10204	-92	128	-221	-14160	-748	-7952	6	-15	-42	-1888	-2100	16528	-2	-97	157	-13356	3408	9328	107	-13	-102	-14496	-1100	-7792	59	-30	148	-1724	2712	16980	203	9	51	126	127	5
-12420	-92	10132	-97	153	-186	-14140	-728	-7876	-9	-13	-91	-1880	-2112	16776	14	-91	139	-13384	3440	9244	103	-1	-172	-14536	-1112	-7796	64	22	140	-1660	2724	16844	194	-11	42	126	128	5
-12436	-76	10132	-101	176	-204	-14112	-756	-7992	39	-15	-61	-1900	-2068	16764	15	-116	152	-13400	3480	9240	116	-26	-120	-14480	-1112	-7712	68	7	123	-1740	2732	16940	131	1	35	126	128	5
-12452	-84	10124	-99	143	-182	-14084	-744	-8024	20	-13	-22	-1912	-2104	16708	33	-98	187	-13388	3408	9180	127	-85	-123	-14548	-1104	-7820	54	-39	134	-1724	2704	16800	131	5	52	126	128	5
-12472	-112	10108	-99	174	-181	-14192	-648	-8024	15	-10	-42	-1960	-2012	16688	17	-103	162	-13380	3512	9248	117	10	-156	-14548	-1132	-7864	75	-26	119	-1756	2696	16908	187	7	41	126	127	5
-12472	-80	10084	-107	138	-200	-14204	-716	-8052	9	-43	-44	-1924	-2072	16740	2	-89	133	-13408	3440	9324	127	-43	-133	-14500	-1112	-7772	83	-42	153	-1772	2716	17000	184	-21	47	126	128	5
-12488	-108	10192	-134	165	-173	-14180	-680	-8016	11	-24	-56	-1940	-2120	16712	-11	-104	155	-13412	3404	9268	145	-45	-137	-14504	-1140	-7760	70	-67	153	-1760	2680	16824	162	-28	30	126	128	5
-12460	-84	10132	-98	113	-177	-14132	-652	-7964	18	-45	-70	-1992	-2104	16720	34	-85	166	-13360	3392	9236	101	-39	-107	-14468	-1096	-7700	83	-35	186	-1656	2708	16900	213	-15	29	126	127	5
-12416	12	10168	-88	129	-172	-14164	-688	-8024	16	-37	-71	-1952	-2088	16684	52	-75	148	-13424	3364	9288	119	-17	-143	-14540	-1056	-7808	79	-55	172	-1756	2712	16880	235	-14	14	126	128	5
-12488	-80	10100	-102	117	-188	-14136	-692	-7928	-1	-62	-73	-1876	-2100	16660	41	-127	170	-13452	3460	9240	126	11	-104	-14532	-1100	-7792	70	-49	155	-1752	2716	16804	205	-34	37	126	128	5
-12472	-128	10192	-105	134	-189	-14200	-784	-7924	-1	-38	-44	-1892	-2108	16732	35	-133	192	-13356	3436	9308	126	-15	-123	-14512	-1096	-7852	42	-59	155	-1720	2656	16956	227	-37	53	126	128	5
-12460	-76	10128	-56	159	-198	-14148	-704	-7972	-15	-52	-77	-1892	-2112	16548	5	-142	174	-13420	3396	9264	141	-24	-134	-14508	-1112	-7920	71	-9	199	-1652	2696	16800	237	-44	56	126	127	5
-12468	16	10044	-85	159	-206	-14148	-748	-7944	46	4	-52	-1832	-2112	16744	51	-153	181	-13364	3420	9240	159	-35	-115	-14500	-1160	-7716	70	-59	197	-1648	2704	16916	235	-29	30	126	128	5
-12500	-52	10068	-32	175	-177	-14168	-704	-7976	39	3	-77	-1884	-2148	16676	77	-100	179	-13348	3428	9348	177	-44	-112	-14524	-1100	-7784	96	-22	178	-1608	2704	16916	233	10	34	126	127	5
-12500	-52	10116	-39	146	-191	-14200	-700	-7920	-2	-3	-10	-1840	-2160	16724	39	-78	126	-13420	3404	9308	160	-52	-97	-14556	-1052	-7828	80	-19	205	-1660	2756	16752	179	10	15	126	127	5
-12476	-72	10124	-37	141	-199	-14164	-724	-7960	17	-22	-29	-1924	-2056	16732	35	-82	156	-13416	3464	9356	162	-22	-131	-14576	-1096	-7812	44	12	180	-1672	2752	16836	175	1	10	126	127	5
-12380	-28	10208	-71	120	-218	-14144	-700	-7916	6	20	-66	-1908	-2084	16660	18	-142	173	-13396	3472	9224	158	-42	-98	-14516	-1116	-7836	41	-7	174	-1700	2844	16852	198	10	43	126	128	5
-12444	-32	10116	-90	163	-191	-14148	-732	-8036	33	9	-71	-2004	-2048	16572	43	-110	148	-13376	3420	9284	152	-32	-122	-14540	-1052	-7892	49	19	151	-1772	2756	16884	152	-33	56	126	127	5
-12512	-132	10144	-58	157	-211	-14112	-712	-8036	51	4	-37	-1996	-2112	16796	15	-134	149	-13388	3420	9216	119	-27	-137	-14484	-1084	-7992	63	7	145	-1724	2808	16940	151	-3	33	126	127	5
-12484	-52	10112	-105	128	-182	-14144	-660	-7976	11	-40	-94	-1996	-2100	16700	20	-137	182	-13404	3504	9308	93	-39	-145	-14564	-1060	-7788	73	-23	126	-1704	2744	16832	179	-17	73	126	127	5
-12496	-80	10144	-107	144	-170	-14176	-688	-7928	-4	-35	-97	-1896	-2060	16696	10	-127	173	-13416	3452	9320	109	-44	-151	-14564	-1056	-7824	75	-79	123	-1748	2744	16816	209	-17	59	126	127	5
-12468	-60	10048	-116	140	-183	-14156	-684	-7888	-29	0	-122	-1908	-2040	16744	57	-133	179	-13360	3372	9252	91	-43	-142	-14548	-1024	-7872	69	-33	134	-1652	2812	16780	173	-10	62	126	128	5
-12452	-44	10136	-109	137	-197	-14140	-740	-8056	16	-59	-121	-1864	-2076	16600	21	-165	183	-13356	3492	9264	86	-55	-142	-14508	-1088	-7748	67	-84	95	-1672	2692	16872	155	-33	65	126	127	5
-12428	-60	10168	-84	120	-211	-14168	-724	-7940	1	-3	-142	-1884	-2088	16632	4	-155	218	-13360	3436	9348	71	-17	-155	-14524	-1088	-7936	55	-49	105	-1628	2732	16928	179	-4	93	126	127	5
-12504	-76	10176	-127	134	-184	-14204	-696	-7944	19	-58	-110	-1868	-2076	16780	-13	-141	187	-13444	3464	9256	103	-37	-168	-14480	-1176	-7752	91	-76	106	-1664	2708	16876	131	2	53	126	127	5
-12508	-40	10184	-137	141	-228	-14184	-748	-7836	26	-9	-135	-1860	-2100	16652	-34	-173	174	-13336	3448	9356	97	-75	-182	-14524	-1140	-7736	59	-60	120	-1656	2716	16904	120	-25	10	126	127	5
-12476	-72	10140	-117	141	-208	-14216	-720	-7900	-14	-24	-132	-1868	-2112	16652	6	-166	172	-13316	3392	9284	110	-7	-160	-14552	-1108	-7744	50	-5	123	-1684	2736	16920	153	-23	44	126	127	5
-12432	-144	10208	-114	125	-207	-14188	-748	-7912	3	-61	-121	-1880	-2132	16792	-8	-108	210	-13400	3408	9216	96	15	-153	-14528	-1072	-7912	52	6	162	-1644	2716	16908	179	-39	71	126	127	5
-12456	-80	10156	-123	161	-218	-14184	-744	-7920	-2	-21	-142	-1876	-2120	16708	-5	-126	172	-13420	3420	9252	99	-19	-150	-14484	-1088	-7772	60	-42	134	-1720	2700	16796	180	-20	54	126	127	5
-12384	-48	10088	-81	149	-204	-14168	-708	-7904	38	-37	-99	-1844	-2148	16764	-11	-137	162	-13388	3440	9276	117	-24	-134	-14532	-1104	-7908	73	-26	117	-1640	2664	16916	196	-21	-3	126	127	5
-12424	-112	10136	-103	145	-191	-14100	-772	-8012	48	-2	-81	-1924	-2164	16700	-11	-112	140	-13384	3408	9336	82	-24	-92	-14492	-1120	-7768	75	-26	118	-1688	2728	16876	213	-24	33	126	127	5
-12468	-124	10032	-90	168	-196	-14104	-800	-7988	37	-19	-73	-1844	-2124	16796	-28	-117	167	-13340	3432	9236	130	-62	-122	-14472	-1076	-7804	56	-57	156	-1748	2716	16848	162	4	33	126	127	5
-12436	-96	10112	-91	144	-198	-14196	-752	-7968	36	-36	-46	-1856	-2156	16736	50	-116	149	-13424	3424	9276	115	23	-147	-14564	-1152	-7812	62	3	123	-1660	2752	16904	157	12	24	126	127	5
-12496	-144	10160	-126	154	-188	-14184	-824	-7884	-9	-1	-69	-1864	-2148	16660	13	-123	176	-13376	3428	9308	145	-13	-120	-14504	-1100	-7736	64	-8	132	-1808	2640	16788	150	36	41	126	127	5
-12400	-108	10088	-63	128	-173	-14140	-768	-7920	8	-13	-71	-1892	-2144	16664	23	-107	148	-13448	3428	9204	134	-1	-134	-14544	-1116	-7716	46	-23	147	-1696	2676	16988	204	2	63	126	127	5
-12472	-56	10244	-120	131	-176	-14184	-748	-7904	26	5	-73	-1824	-2044	16676	4	-100	160	-13436	3364	9236	85	-34	-118	-14540	-1076	-7744	62	-17	80	-1700	2708	16920	177	21	41	126	127	5
-12468	-68	10192	-75	149	-141	-14196	-704	-7980	-6	-62	-76	-1856	-2092	16680	0	-137	159	-13324	3440	9272	100	13	-165	-14496	-1104	-7800	69	-17	117	-1668	2684	16844	183	-6	37	126	127	5
-12488	-68	10204	-65	156	-176	-14160	-728	-7972	14	-20	-46	-1856	-2124	16684	4	-115	157	-13416	3432	9248	116	-34	-176	-14500	-1028	-7696	76	13	161	-1600	2724	16828	172	8	59	126	128	5
-12520	-40	10116	-67	144	-182	-14200	-716	-8080	33	-13	-65	-1920	-2116	16672	4	-134	189	-13408	3444	9264	145	-73	-123	-14548	-1132	-7752	39	11	173	-1732	2740	16752	183	-1	33	126	127	5
-12528	-128	10196	-81	150	-184	-14160	-708	-7956	27	-6	-62	-1904	-2032	16692	4	-130	175	-13424	3452	9244	114	-26	-140	-14520	-1140	-7844	31	4	140	-1708	2688	16796	189	7	45	126	127	5
-12468	8	10132	-82	134	-218	-14196	-704	-8048	6	-14	-107	-1916	-2104	16716	1	-134	186	-13400	3396	9344	87	17	-139	-14568	-1060	-7728	46	-18	175	-1672	2716	16804	202	-15	16	126	127	5
-12428	-96	10084	-92	136	-188	-14140	-720	-8068	5	-28	-127	-1880	-2084	16696	-5	-134	192	-13372	3408	9248	145	-9	-156	-14540	-1144	-7820	92	-24	163	-1708	2700	16808	196	-5	43	126	127	5
-12476	-56	10044	-123	168	-191	-14156	-716	-8064	23	-28	-108	-1976	-2112	16720	6	-145	197	-13328	3424	9312	118	-55	-137	-14484	-1076	-7876	53	14	138	-1736	2776	16800	193	-9	44	125	127	5
-12484	-100	10072	-97	163	-179	-14120	-748	-7984	15	-43	-117	-1844	-2100	16824	-11	-155	211	-13396	3452	9272	120	-29	-137	-14516	-1016	-7704	80	-20	112	-1716	2736	16928	208	26	35	126	127	5
-12436	-56	10116	-105	154	-222	-14184	-732	-8012	9	-18	-88	-1932	-2128	16808	18	-124	161	-13352	3420	9408	96	-47	-112	-14612	-1120	-7744	75	-21	129	-1724	2752	16772	195	-14	59	126	127	5
-12436	-96	10096	-114	189	-169	-14124	-780	-7964	19	-46	-123	-1928	-2156	16752	24	-142	189	-13380	3432	9248	95	-11	-103	-14536	-1088	-7872	24	-45	138	-1704	2760	16984	194	-13	86	126	127	5
-12408	-44	10056	-100	141	-184	-14176	-704	-7880	5	-34	-110	-1892	-2176	16728	-13	-130	177	-13364	3416	9296	83	-62	-159	-14500	-1068	-7768	58	-19	105	-1760	2692	16940	162	30	76	126	127	5
-12424	-152	10040	-78	139	-189	-14072	-788	-7892	1	-31	-111	-1908	-2180	16644	0	-178	198	-13424	3428	9216	119	-24	-162	-14528	-1136	-7792	67	-25	98	-1760	2728	16872	150	-20	53	126	127	5
-12424	-108	10072	-73	151	-178	-14176	-720	-7952	-2	-51	-89	-1884	-2140	16660	41	-141	198	-13348	3412	9316	91	-15	-144	-14512	-1124	-7732	66	-38	145	-1648	2656	16856	179	-29	45	126	128	5
-12392	-136	10016	-81	158	-201	-14128	-776	-8000	14	-42	-93	-1836	-2172	16688	30	-136	167	-13388	3404	9320	94	0	-154	-14580	-1148	-7784	101	-66	157	-1696	2660	16800	178	16	52	126	127	5
-12508	-84	10084	-72	146	-176	-14104	-728	-7892	-13	-38	-87	-1820	-2160	16640	24	-135	164	-13408	3408	9252	96	-29	-148	-14540	-1196	-7792	84	-53	149	-1736	2640	16880	157	7	58	126	127	5
-12484	-116	10064	-91	127	-207	-14148	-716	-7924	21	-19	-46	-1888	-2136	16748	57	-158	141	-13408	3400	9300	127	-34	-105	-14540	-1120	-7772	64	-59	186	-1724	2656	16896	174	-5	-4	126	128	5
-12480	-52	10140	-111	148	-181	-14208	-708	-7932	56	-61	-46	-1896	-2096	16716	4	-123	145	-13404	3416	9304	81	-42	-145	-14456	-1168	-7828	104	-56	206	-1720	2732	16976	184	15	0	126	127	5
-12444	-64	10032	-59	137	-180	-14120	-724	-7964	36	-44	-71	-1888	-2136	16660	-2	-112	145	-13424	3440	9268	107	-32	-117	-14500	-1152	-7728	56	-51	183	-1716	2652	16968	210	-22	19	126	127	5
-12436	-108	10152	-97	164	-190	-14168	-788	-7992	6	-7	-80	-1908	-2064	16724	14	-96	134	-13360	3412	9300	143	-26	-82	-14568	-1124	-7736	85	-36	148	-1628	2664	16844	192	-35	1	126	127	5
-12496	-60	10048	-108	141	-173	-14164	-724	-7968	20	-51	-31	-1868	-2080	16612	21	-115	126	-13456	3496	9300	124	-62	-125	-14568	-1080	-7800	70	-13	196	-1728	2688	16916	223	-1	7	126	127	5
-12444	-28	10100	-60	175	-196	-14196	-676	-7972	8	1	-34	-1868	-2076	16708	-4	-135	142	-13428	3424	9328	139	-59	-103	-14516	-1076	-7812	50	-88	202	-1648	2624	16788	194	-10	0	126	127	5
-12460	-68	10212	-107	123	-184	-14080	-756	-8008	5	-28	-73	-1856	-2168	16724	18	-132	167	-13408	3456	9196	159	-35	-113	-14524	-1060	-7676	87	-47	218	-1632	2724	16892	178	-14	39	126	127	5
-12424	-132	10196	-111	125	-177	-14168	-716	-7884	-18	-18	-67	-1908	-2148	16628	8	-131	172	-13396	3344	9308	103	-52	-117	-14536	-1028	-7840	62	-42	185	-1692	2704	16912	208	-15	43	126	127	5
-12508	-108	10060	-87	141	-201	-14168	-716	-8064	26	-25	-58	-1924	-2072	16688	36	-118	151	-13404	3420	9320	152	-62	-131	-14576	-1044	-7752	62	-28	149	-1604	2748	16892	213	-17	28	126	127	5
-12408	8	10064	-82	135	-203	-14152	-712	-8020	14	4	-63	-1900	-2056	16664	60	-114	163	-13388	3408	9308	127	-49	-162	-14484	-1112	-7732	80	-48	182	-1684	2788	16888	229	1	39	126	127	5
-12496	-16	10036	-95	159	-175	-14132	-660	-7944	1	-36	-62	-1868	-2024	16724	25	-116	168	-13372	3420	9164	136	-14	-148	-14528	-1072	-7800	82	24	133	-1680	2752	16784	196	-29	56	126	127	5
-12428	-64	10044	-133	174	-199	-14240	-776	-7932	-24	-11	-30	-1820	-2020	16688	18	-141	192	-13400	3480	9204	114	-18	-154	-14492	-1012	-7824	59	0	127	-1644	2712	16820	192	26	44	126	128	5
-12432	-96	10100	-90	141	-171	-14152	-736	-7964	-40	1	-95	-1836	-2048	16648	-33	-105	202	-13384	3444	9380	87	18	-122	-14484	-1040	-7804	44	-15	111	-1628	2688	16960	195	7	57	126	127	5
-12444	-84	10256	-95	171	-192	-14136	-688	-8112	16	-10	-98	-1884	-2104	16632	19	-108	188	-13372	3468	9260	114	-21	-151	-14524	-1008	-7736	40	9	139	-1728	2752	16824	212	30	45	126	127	5
-12520	32	10140	-118	141	-199	-14148	-676	-8024	2	-7	-77	-1892	-2124	16660	-8	-100	192	-13348	3504	9208	78	-32	-154	-14544	-1076	-7788	49	-13	97	-1704	2772	16904	134	17	48	126	127	5
-12484	-48	10124	-91	151	-200	-14168	-720	-7936	10	17	-71	-1928	-2072	16732	28	-125	181	-13372	3396	9356	87	-4	-164	-14472	-1100	-7780	62	65	128	-1680	2768	17068	184	10	73	126	127	5
-12508	-68	10060	-130	153	-217	-14188	-676	-7944	20	-2	-105	-1880	-2112	16680	0	-111	202	-13448	3472	9144	109	-13	-138	-14512	-1068	-7788	59	-32	135	-1764	2776	16828	175	44	44	126	127	5
-12472	-56	10148	-110	144	-232	-14160	-744	-7912	-1	-8	-102	-1908	-2108	16720	-27	-109	151	-13412	3436	9308	120	0	-167	-14472	-1052	-7756	101	-40	125	-1776	2756	16868	198	-10	26	126	127	5
-12512	-84	10152	-85	129	-211	-14176	-796	-8004	3	-39	-96	-1980	-2096	16664	13	-111	196	-13380	3388	9300	122	-46	-162	-14588	-1124	-7808	59	40	127	-1760	2704	16924	193	32	46	126	127	5
-12496	-56	10104	-99	143	-205	-14252	-740	-8024	-30	2	-105	-1896	-2100	16660	26	-101	173	-13368	3452	9360	92	-26	-134	-14500	-1100	-7764	42	4	130	-1740	2716	16924	183	15	39	126	128	5
-12508	-80	10072	-101	168	-195	-14168	-852	-7972	-19	3	-96	-1944	-2156	16664	-4	-116	169	-13412	3448	9244	97	-22	-178	-14536	-1120	-7880	21	-10	149	-1720	2720	16832	187	-2	63	126	127	5
-12452	-112	10056	-103	168	-186	-14124	-732	-7900	5	5	-136	-1900	-2120	16668	-23	-128	214	-13396	3424	9112	126	-38	-176	-14536	-1088	-7772	68	-39	125	-1752	2716	16884	176	-15	59	126	127	5
-12480	-176	10116	-77	165	-230	-14156	-756	-7900	23	-10	-78	-1940	-2168	16640	22	-133	149	-13368	3432	9244	131	-25	-119	-14548	-1112	-7824	73	-9	149	-1696	2660	16824	176	-17	40	126	127	5
-12452	-108	10172	-73	154	-186	-14116	-760	-7952	18	-11	-103	-1932	-2164	16696	27	-133	165	-13328	3452	9304	154	-48	-157	-14560	-1088	-7740	79	-47	126	-1704	2688	16788	164	-26	45	126	127	5
-12508	-40	10072	-73	154	-211	-14104	-716	-7996	16	-2	-41	-1912	-2100	16660	-13	-130	178	-13380	3428	9352	156	-13	-115	-14552	-1168	-7776	52	-32	157	-1776	2660	16752	173	5	32	126	127	5
-12388	-56	10096	-73	159	-160	-14204	-808	-7944	8	-24	-41	-1856	-2152	16684	-5	-99	144	-13376	3464	9200	171	-87	-117	-14480	-1148	-7796	45	-21	153	-1732	2732	16844	142	-27	65	126	127	5
-12500	-124	10112	-59	149	-197	-14128	-812	-8008	24	8	-50	-1960	-2128	16728	16	-105	143	-13376	3396	9280	173	-42	-151	-14488	-1080	-7768	55	-12	134	-1732	2736	16908	179	-11	13	126	127	5
-12452	-76	10196	-53	132	-195	-14168	-720	-7920	43	-1	-85	-2012	-2120	16732	2	-94	167	-13404	3380	9248	165	-59	-154	-14516	-1072	-7960	29	-15	108	-1740	2788	16760	185	15	60	126	128	5
-12520	-140	10052	-102	126	-198	-14176	-760	-8068	17	-41	-46	-1904	-2120	16552	13	-132	166	-13420	3464	9280	120	21	-95	-14480	-1080	-7812	76	-23	137	-1736	2724	16992	156	0	45	126	127	5
-12516	-28	10076	-118	122	-170	-14124	-688	-8020	-16	-29	-61	-1888	-2100	16640	29	-159	210	-13332	3400	9224	127	-50	-80	-14444	-1132	-7676	79	-12	136	-1832	2680	16916	150	1	54	127	127	5
-12464	12	10188	-67	124	-191	-14160	-716	-7896	4	-60	-35	-1888	-2112	16760	39	-122	178	-13348	3436	9316	100	5	-141	-14460	-1120	-7776	76	-59	106	-1672	2676	16860	142	8	58	126	127	5
-12484	-84	10152	-116	143	-220	-14080	-792	-7980	12	-43	-57	-1848	-2092	16740	33	-106	161	-13388	3380	9288	105	-24	-124	-14580	-1044	-7876	80	-44	107	-1752	2724	16948	160	7	60	126	128	5
-12440	-60	10180	-74	109	-212	-14208	-776	-7908	-17	-29	-103	-1864	-2176	16716	52	-135	171	-13372	3496	9212	75	18	-144	-14516	-1152	-7736	81	-62	132	-1740	2632	16940	146	-28	62	126	127	5
-12532	-52	10132	-86	138	-211	-14104	-732	-7952	-27	-49	-63	-1908	-2116	16736	-5	-124	154	-13436	3428	9288	132	-25	-134	-14528	-1116	-7840	43	-64	136	-1740	2668	16900	175	-22	88	126	127	5
-12444	-20	10068	-96	123	-161	-14168	-756	-7996	57	-18	-22	-1884	-2176	16780	-3	-127	162	-13424	3404	9116	123	0	-140	-14496	-1132	-7796	60	-61	142	-1724	2680	16864	182	-21	52	125	128	5
-12444	-64	10112	-118	143	-181	-14136	-752	-7924	35	-19	-36	-1884	-2160	16656	40	-143	184	-13380	3440	9364	105	-14	-123	-14492	-1128	-7748	47	-33	139	-1792	2628	16872	149	-40	52	126	127	5
-12472	-80	10172	-133	143	-201	-14116	-776	-7936	59	-68	-66	-1948	-2112	16680	20	-145	177	-13452	3392	9212	103	-49	-133	-14488	-1148	-7872	41	-57	180	-1764	2696	16852	203	-4	36	126	127	5
-12500	-76	10116	-93	137	-200	-14120	-692	-7876	-41	-7	-71	-1916	-2120	16728	41	-117	158	-13432	3420	9252	116	-59	-133	-14468	-1128	-7912	56	-57	185	-1692	2684	16828	216	-11	8	126	127	5
-12444	-84	10224	-107	152	-188	-14164	-748	-7936	-16	-39	-62	-1904	-2096	16724	3	-108	165	-13324	3424	9352	104	-11	-97	-14484	-1084	-7852	67	-46	168	-1680	2720	16860	240	9	31	126	127	5
-12472	-76	10128	-101	145	-188	-14108	-796	-8024	47	-30	-35	-1844	-2076	16820	71	-87	141	-13356	3448	9196	98	-11	-106	-14516	-1076	-7876	106	-112	204	-1644	2640	16920	206	-16	23	126	127	5
-12412	-48	10120	-75	143	-184	-14152	-784	-8020	46	-20	-40	-1856	-2116	16672	31	-115	182	-13328	3476	9244	108	47	-134	-14504	-1176	-7784	63	-32	164	-1676	2700	16852	233	-41	25	127	127	5
-12532	-56	10052	-94	133	-186	-14088	-756	-8052	22	-46	-39	-1832	-2084	16660	42	-135	184	-13392	3388	9388	104	-41	-119	-14524	-1080	-7788	49	-60	193	-1692	2788	16892	214	-40	23	126	127	5
-12440	-16	10104	-113	150	-216	-14136	-692	-7956	26	-48	-74	-1844	-2088	16644	23	-118	185	-13436	3412	9320	122	0	-111	-14528	-1128	-7752	68	-35	149	-1676	2800	16804	242	-6	21	126	127	5
-12412	-76	10092	-108	151	-174	-14192	-740	-7968	-26	-23	-59	-1832	-2084	16568	20	-123	147	-13412	3504	9328	132	-65	-96	-14496	-1076	-7748	46	17	183	-1724	2756	16972	162	-6	16	126	127	5
-12496	0	10176	-94	134	-174	-14152	-720	-7984	-23	11	-77	-1880	-2028	16752	26	-109	181	-13412	3388	9252	138	10	-124	-14532	-1084	-7668	41	26	154	-1716	2756	16884	199	23	31	126	127	5
-12444	-60	10176	-69	134	-168	-14180	-692	-7880	-19	-1	-109	-1836	-1972	16632	49	-96	178	-13396	3464	9256	145	-69	-135	-14516	-1088	-7824	68	-9	169	-1700	2784	16824	177	-14	10	126	127	5
-12408	-68	10164	-94	178	-205	-14188	-724	-7944	17	20	-69	-1820	-2096	16728	21	-152	207	-13304	3428	9288	143	-19	-119	-14520	-1084	-7864	51	-49	157	-1632	2772	16920	212	-7	11	126	127	5
-12428	-32	10160	-87	162	-192	-14176	-680	-8008	37	-8	-63	-1912	-2028	16696	20	-134	204	-13404	3368	9236	144	7	-156	-14552	-1080	-7712	79	-25	147	-1740	2748	17008	198	-8	20	126	127	5
-12480	-80	10172	-98	111	-187	-14164	-696	-8024	36	38	-89	-1908	-2072	16716	35	-133	220	-13380	3428	9316	114	6	-100	-14608	-1132	-7716	53	-17	181	-1652	2744	16788	195	1	0	126	127	5
-12440	-24	10112	-125	170	-198	-14152	-668	-7948	24	34	-119	-1924	-2140	16644	-27	-118	190	-13444	3420	9260	130	-63	-123	-14548	-1116	-7816	80	-27	189	-1680	2712	16888	177	3	0	126	127	5
-12476	-112	10088	-91	135	-191	-14132	-740	-7984	5	20	-126	-1972	-2060	16700	-45	-133	226	-13348	3412	9276	116	-45	-116	-14524	-1100	-7764	58	-29	166	-1680	2720	16920	179	-6	20	126	127	5
-12496	-52	10300	-116	135	-180	-14156	-680	-8000	28	20	-122	-1896	-2116	16648	14	-111	209	-13388	3496	9328	108	-38	-145	-14632	-1096	-7804	75	-45	145	-1780	2728	16916	185	1	22	126	127	5
-12444	-92	10084	-95	194	-185	-14172	-724	-7988	-16	0	-143	-1908	-2216	16756	-22	-126	212	-13368	3432	9296	141	-77	-158	-14572	-1076	-7712	72	10	158	-1692	2736	16784	208	-13	31	126	127	5
-12468	-96	10096	-117	123	-198	-14112	-816	-8144	-27	-13	-116	-1960	-2180	16716	11	-144	204	-13372	3488	9228	106	-12	-140	-14500	-1120	-7796	41	1	148	-1680	2740	16896	187	8	19	126	127	5
-12492	-88	10040	-105	146	-200	-14164	-776	-8056	24	-40	-114	-1916	-2172	16688	36	-128	221	-13360	3400	9204	125	-35	-131	-14452	-1060	-7744	48	-11	149	-1748	2688	16732	179	29	65	126	127	5
-12472	-128	10060	-119	128	-189	-14112	-776	-8008	15	-20	-112	-1928	-2152	16616	15	-112	193	-13348	3476	9264	142	-54	-144	-14524	-1084	-7840	37	22	110	-1696	2708	16804	176	17	44	126	127	5
-12516	-80	10172	-88	136	-191	-14116	-772	-8012	9	-34	-124	-1988	-2172	16648	37	-112	195	-13372	3424	9280	132	-35	-111	-14540	-1068	-7840	28	0	147	-1664	2704	16892	184	-21	46	126	128	5
-12476	-156	10140	-61	110	-210	-14112	-852	-7948	-19	-49	-86	-1956	-2176	16616	7	-150	174	-13392	3460	9220	109	-41	-150	-14508	-1068	-7736	67	-50	164	-1680	2680	16920	192	2	51	126	128	5
-12488	-76	10060	-86	157	-185	-14204	-804	-8012	-11	-29	-86	-1888	-2156	16788	55	-120	136	-13376	3484	9284	97	-24	-125	-14516	-1128	-7744	83	-54	158	-1720	2704	16820	176	11	74	126	127	5
-12488	-72	10048	-99	136	-172	-14144	-792	-8008	14	-43	-43	-1888	-2120	16712	33	-72	164	-13404	3444	9380	100	-36	-131	-14540	-1108	-7872	90	-54	164	-1660	2732	16892	168	20	50	126	127	5
-12400	-84	10168	-80	151	-195	-14124	-800	-8044	34	-14	-33	-1836	-2136	16664	21	-107	146	-13388	3440	9356	108	-26	-131	-14620	-1104	-7752	52	-39	154	-1676	2672	16784	190	14	44	126	127	5
-12520	-88	10140	-76	126	-202	-14164	-832	-8100	-16	-22	-52	-1824	-2108	16788	62	-96	156	-13408	3432	9272	113	10	-115	-14516	-1116	-7708	99	-45	149	-1756	2656	16784	174	-24	23	126	127	5
-12524	-88	10088	-110	131	-192	-14172	-808	-8076	2	-15	-51	-1908	-2024	16764	26	-110	168	-13360	3472	9288	130	-52	-133	-14480	-1108	-7752	51	-36	172	-1624	2644	16872	230	-8	14	126	127	5
-12448	-104	10216	-106	167	-172	-14136	-744	-7864	-4	6	-93	-1836	-1984	16712	15	-102	164	-13404	3420	9236	126	-10	-114	-14592	-1128	-7708	70	6	167	-1644	2752	16804	214	8	33	126	127	5
-12388	-128	10100	-73	100	-194	-14164	-760	-8040	-8	11	-73	-1876	-2008	16728	30	-107	145	-13444	3376	9176	143	12	-144	-14516	-1080	-7836	55	5	143	-1716	2724	16904	222	-6	10	126	127	5
-12468	-92	10124	-86	164	-167	-14176	-772	-7996	21	10	-95	-1880	-2100	16640	24	-114	162	-13340	3496	9364	137	24	-143	-14500	-1096	-7748	44	14	162	-1640	2832	16848	228	-1	22	126	127	5
-12432	-124	10228	-89	132	-200	-14156	-740	-8000	21	-3	-96	-1920	-2100	16596	21	-114	192	-13356	3432	9296	112	-10	-122	-14576	-1080	-7748	45	34	149	-1676	2824	16792	184	3	32	126	127	5
-12476	-124	10108	-110	144	-208	-14132	-700	-8000	17	27	-104	-1916	-2080	16620	31	-118	187	-13404	3400	9296	130	-111	-126	-14552	-1152	-7864	67	21	129	-1672	2788	16856	174	26	53	126	127	5
-12456	-92	10092	-105	144	-215	-14132	-792	-7896	10	24	-122	-1868	-2100	16804	0	-118	220	-13372	3448	9328	118	9	-132	-14508	-1064	-7772	59	-7	132	-1756	2792	16804	166	-1	19	126	127	5
-12504	-52	10084	-132	150	-196	-14196	-732	-7904	30	-2	-114	-1924	-2088	16712	21	-66	174	-13460	3444	9180	99	-28	-188	-14540	-1128	-7836	47	58	124	-1732	2816	16900	159	50	57	126	127	5
-12452	-32	10128	-97	152	-184	-14180	-740	-8060	6	15	-94	-1900	-2124	16700	-41	-108	164	-13372	3356	9224	111	9	-158	-14536	-1164	-7756	51	22	107	-1744	2772	16788	144	32	34	126	127	5
-12456	-72	10116	-76	156	-183	-14124	-820	-7980	32	-26	-96	-1900	-2124	16752	19	-120	155	-13472	3496	9348	119	-30	-168	-14540	-1020	-7844	79	-22	119	-1616	2720	16952	169	24	80	125	127	5
-12416	-108	10160	-126	151	-176	-14108	-756	-8088	35	-8	-83	-1972	-2156	16744	-35	-112	154	-13404	3432	9248	112	-39	-135	-14504	-1084	-7848	86	4	110	-1752	2728	16884	151	49	46	126	127	5
-12388	-48	10068	-71	140	-221	-14120	-720	-8108	27	-2	-61	-1944	-2224	16760	20	-100	177	-13416	3424	9236	119	-98	-139	-14512	-1136	-7732	70	-33	107	-1700	2668	16872	172	-3	57	126	127	5
-12500	-64	10164	-102	129	-176	-14156	-764	-7984	6	-81	-104	-1956	-2152	16768	-12	-98	178	-13372	3444	9252	115	-66	-142	-14492	-1176	-7788	62	-35	108	-1736	2696	16776	170	16	60	126	127	5
-12460	-40	10156	-82	138	-219	-14092	-752	-7996	27	-21	-75	-1964	-2108	16764	-14	-101	190	-13408	3420	9276	100	-6	-149	-14504	-1132	-7748	53	-21	143	-1728	2632	16828	187	23	37	126	127	5
-12448	-76	10064	-123	170	-167	-14196	-756	-7932	36	-58	-81	-1920	-2076	16700	-16	-96	167	-13308	3372	9224	134	-38	-120	-14512	-1108	-7836	36	-34	147	-1696	2648	17008	172	-30	79	126	127	5
-12460	-96	10112	-81	113	-200	-14180	-824	-7944	5	-42	-63	-1928	-2100	16712	18	-84	163	-13400	3464	9312	110	-25	-128	-14576	-1164	-7744	82	-22	113	-1768	2580	16820	170	8	58	126	127	5
-12392	-104	10136	-112	137	-190	-14180	-712	-7944	-33	-26	-67	-1888	-2144	16656	38	-122	135	-13404	3452	9176	124	-38	-117	-14540	-1100	-7792	71	-24	175	-1740	2680	16964	198	6	71	126	127	5
-12532	16	10188	-76	138	-183	-14096	-768	-7940	-30	-35	-37	-1848	-2088	16700	18	-108	187	-13460	3384	9256	90	16	-140	-14520	-1180	-7700	91	-8	177	-1760	2656	16784	218	11	61	126	127	5
-12468	-68	10116	-134	191	-158	-14112	-796	-7904	-6	-5	-46	-1872	-2092	16692	5	-131	177	-13364	3456	9304	134	-5	-120	-14508	-1088	-7836	72	-7	164	-1736	2580	16936	265	-2	18	126	127	5
-12492	-140	10152	-68	178	-175	-14168	-676	-7860	21	3	-76	-1864	-2104	16764	43	-106	164	-13440	3452	9292	160	-62	-118	-14548	-1084	-7788	53	5	202	-1756	2604	16916	218	-10	7	126	127	5
-12436	-64	10096	-84	153	-190	-14192	-708	-7980	11	-10	-78	-1824	-2084	16776	61	-104	176	-13388	3436	9324	188	-43	-119	-14532	-1112	-7728	29	-33	166	-1684	2712	16840	187	-1	-12	126	127	5
-12472	-72	10088	-91	164	-172	-14180	-720	-8024	64	17	-52	-1896	-2160	16704	39	-120	187	-13368	3448	9336	200	-69	-116	-14496	-1152	-7732	31	13	195	-1744	2780	16816	207	60	22	126	127	5
-12488	-8	10148	-26	146	-166	-14176	-724	-8048	14	-17	-56	-1936	-2096	16632	55	-115	130	-13388	3456	9240	195	-32	-94	-14524	-1068	-7740	58	-9	200	-1760	2812	16848	223	-24	28	126	127	5
-12472	-64	10092	-89	128	-193	-14156	-784	-7908	-14	-9	-49	-1908	-2088	16672	22	-98	169	-13440	3492	9244	184	-53	-109	-14556	-1124	-7772	48	-3	145	-1716	2852	16872	204	-13	32	126	127	5
-12512	-96	10112	-64	125	-171	-14120	-652	-8016	27	-14	-32	-1924	-2132	16752	-24	-109	159	-13356	3504	9232	150	-66	-119	-14548	-1020	-7768	47	-16	169	-1696	2820	16832	179	10	45	126	127	5
-12476	-64	10060	-83	113	-218	-14112	-724	-7952	12	-65	-59	-1960	-2108	16728	3	-105	173	-13372	3444	9256	130	-80	-117	-14488	-1012	-7772	76	-13	118	-1736	2740	16868	164	33	64	126	127	5
-12432	-96	10048	-128	146	-216	-14176	-724	-8108	1	-72	-70	-1984	-2072	16580	53	-123	175	-13424	3436	9240	112	9	-146	-14528	-1088	-7796	75	-25	129	-1728	2768	16872	179	-13	69	126	127	5
-12460	0	10172	-97	130	-164	-14128	-704	-7916	-2	-47	-67	-1868	-2076	16752	70	-147	192	-13412	3456	9244	119	6	-145	-14464	-1068	-7824	86	2	111	-1732	2756	16852	190	28	101	126	127	5
-12432	-56	10092	-104	121	-207	-14172	-704	-7956	0	-28	-46	-1880	-2052	16696	18	-112	158	-13400	3392	9320	70	-29	-134	-14544	-1068	-7752	91	-62	135	-1704	2780	16884	172	-17	70	126	127	5
-12472	-100	10144	-103	124	-208	-14104	-768	-7856	29	-73	-94	-1900	-1988	16756	38	-99	187	-13380	3448	9328	126	23	-163	-14596	-1112	-7752	66	-32	115	-1700	2668	16864	168	-13	55	126	127	5
-12456	4	10176	-122	134	-209	-14204	-768	-7964	16	-33	-95	-1908	-1980	16728	26	-130	191	-13388	3420	9296	89	-38	-121	-14484	-1104	-7784	69	1	130	-1668	2684	16768	155	5	55	126	127	5
-12500	-84	10100	-93	146	-184	-14124	-692	-7852	19	-64	-95	-1904	-2068	16816	-17	-133	177	-13368	3408	9224	79	13	-147	-14540	-1072	-7836	77	-25	129	-1708	2740	16792	140	33	62	126	127	5
-12468	-112	10136	-121	137	-197	-14196	-672	-8076	-24	-30	-126	-1924	-2056	16744	-3	-161	224	-13360	3428	9340	88	-12	-145	-14548	-1088	-7932	60	-21	154	-1744	2700	16928	179	-17	65	126	128	5
-12424	-44	10148	-124	149	-203	-14140	-720	-7992	-33	-88	-123	-1908	-2116	16720	-29	-135	189	-13328	3380	9304	63	-13	-147	-14532	-1084	-7752	28	-4	128	-1728	2772	16788	165	2	82	126	127	5
-12524	-112	10132	-123	145	-216	-14100	-768	-8012	-42	-18	-130	-1896	-2092	16732	-27	-131	215	-13388	3408	9364	113	-45	-137	-14544	-1100	-7836	43	10	120	-1780	2728	16856	182	-46	75	126	127	5
-12444	-120	10128	-124	125	-214	-14152	-720	-7936	-6	-31	-105	-1856	-2132	16744	1	-148	225	-13384	3416	9344	91	-31	-123	-14472	-1104	-7768	36	1	99	-1720	2692	16856	210	0	95	126	127	5
-12440	-80	10116	-122	122	-178	-14160	-752	-8012	39	-49	-145	-1920	-2144	16660	13	-186	238	-13368	3420	9212	108	-5	-124	-14472	-1188	-7712	47	-35	139	-1728	2748	17012	193	-9	85	126	127	5
-12492	-80	10156	-121	132	-231	-14132	-752	-8064	-5	-2	-89	-1920	-2048	16672	27	-142	232	-13388	3472	9304	107	-30	-143	-14532	-1164	-7784	82	-17	100	-1776	2724	16900	194	-11	76	126	128	5
-12496	-96	10056	-68	156	-229	-14192	-704	-7924	-18	-50	-146	-1916	-2072	16668	8	-160	218	-13356	3400	9252	92	-26	-122	-14508	-1120	-7740	34	-24	137	-1736	2764	16948	142	-27	92	126	127	5
-12452	-116	10112	-68	136	-219	-14196	-780	-7944	-29	-43	-154	-1920	-2060	16676	-1	-181	249	-13360	3480	9376	112	-72	-130	-14536	-1156	-7928	68	-68	104	-1772	2696	16912	190	3	70	126	127	5
-12440	-40	10080	-97	133	-193	-14104	-792	-7964	-27	-20	-131	-1852	-2116	16688	-1	-154	206	-13332	3432	9212	129	-17	-140	-14536	-1164	-7852	87	-80	119	-1756	2688	17012	165	10	58	126	127	5
-12432	-92	10124	-57	150	-209	-14196	-840	-8056	11	-57	-146	-1852	-2132	16576	-17	-182	167	-13408	3364	9244	132	-77	-135	-14556	-1096	-7820	57	-62	146	-1700	2680	16816	134	-33	34	127	128	5
-12488	-176	10252	-75	112	-213	-14180	-804	-7900	61	-26	-104	-1900	-2188	16688	-31	-163	159	-13364	3464	9200	142	-82	-126	-14564	-1112	-7900	68	-70	156	-1692	2736	16832	142	7	9	126	127	5
-12432	-32	10108	-123	157	-206	-14132	-792	-7940	76	-27	-84	-1860	-2164	16652	-59	-92	114	-13396	3464	9316	136	-20	-116	-14496	-1196	-7868	42	-60	170	-1760	2756	16840	137	2	-23	125	127	5
-12444	-112	10140	-85	139	-187	-14164	-808	-7980	25	-41	-82	-1860	-2164	16704	-14	-116	112	-13424	3424	9320	124	-29	-130	-14468	-1100	-7776	85	-85	177	-1708	2744	16856	131	2	-37	126	127	5
-12468	-112	10168	-96	164	-205	-14172	-824	-7880	31	-23	-56	-1848	-2084	16700	-7	-121	83	-13392	3472	9252	103	-46	-139	-14504	-1132	-7944	121	-91	172	-1728	2700	16888	125	-9	-44	126	127	5
-12492	-128	10132	-78	163	-215	-14108	-736	-7916	50	3	-33	-1900	-2108	16712	-44	-117	86	-13316	3484	9208	106	-51	-120	-14576	-1140	-7688	94	-81	145	-1688	2760	16844	96	-7	-58	126	127	5
-12472	-108	10120	-97	160	-181	-14200	-720	-7956	76	-3	-38	-1936	-2188	16716	-17	-103	80	-13404	3420	9252	129	-43	-140	-14512	-1104	-7768	98	-84	166	-1684	2700	16944	121	-12	-26	126	127	5
-12432	-68	10100	-68	155	-165	-14184	-780	-7956	41	31	-45	-1844	-2108	16700	-28	-93	92	-13468	3488	9192	106	-24	-134	-14556	-1112	-7696	113	-80	153	-1632	2624	16880	85	-19	-27	126	127	5
-12468	-96	10096	-105	133	-170	-14256	-724	-7952	47	-1	-3	-1880	-2112	16716	-19	-128	73	-13408	3452	9248	146	-80	-144	-14568	-1024	-7596	106	-35	124	-1608	2700	16864	72	3	-16	126	127	5
-12464	-88	10052	-85	171	-184	-14136	-748	-7852	33	-15	-35	-1892	-2080	16684	-39	-96	114	-13428	3500	9364	106	-20	-130	-14532	-1124	-7792	84	-29	126	-1668	2700	16844	111	-4	38	126	127	5
-12416	-76	10152	-79	160	-194	-14176	-704	-7948	39	-32	-71	-1948	-2180	16724	-7	-106	151	-13356	3376	9184	89	10	-130	-14528	-1092	-7800	75	-31	110	-1712	2680	16868	135	-6	20	126	127	5
-12464	-96	10188	-93	153	-212	-14128	-624	-7932	26	-36	-132	-1916	-2084	16652	28	-123	190	-13368	3372	9264	79	-22	-157	-14544	-1008	-7688	36	0	96	-1672	2620	16872	200	23	66	126	127	5
-12480	-96	10236	-96	129	-211	-14108	-684	-8048	2	-11	-93	-1888	-2128	16596	41	-141	198	-13408	3452	9288	94	-7	-138	-14572	-1140	-7640	50	18	116	-1680	2648	16876	186	6	125	126	127	5
-12512	-112	10128	-117	131	-183	-14192	-772	-7972	0	11	-126	-1888	-2112	16720	54	-140	241	-13384	3424	9272	115	1	-124	-14496	-1172	-7816	39	6	117	-1740	2616	16860	244	19	139	126	128	5
-12476	-104	10080	-107	115	-194	-14104	-696	-7956	-63	-24	-98	-1888	-2152	16744	88	-130	253	-13300	3412	9280	112	-48	-147	-14500	-1180	-7676	11	35	89	-1700	2616	16784	255	45	134	126	128	5
-12464	-96	10188	-82	156	-203	-14172	-764	-8044	-3	-29	-97	-1872	-2200	16612	78	-132	263	-13360	3416	9304	98	10	-158	-14492	-1156	-7768	-9	28	122	-1768	2620	16828	250	-1	186	126	128	5
-12448	-100	10168	-106	119	-140	-14120	-764	-7956	-7	17	-86	-1892	-2184	16736	66	-95	258	-13424	3364	9380	91	-24	-136	-14556	-1160	-7772	41	11	150	-1800	2596	16828	290	0	119	126	127	5
-12520	-20	10128	-101	156	-183	-14144	-796	-7948	-58	-11	-106	-1880	-2196	16740	61	-120	210	-13416	3356	9360	147	-21	-99	-14464	-1160	-7776	42	37	124	-1740	2648	16772	253	5	103	126	128	5
-12524	-148	10176	-114	124	-201	-14132	-808	-7988	2	-21	-17	-1956	-2152	16680	33	-111	196	-13428	3468	9348	97	6	-156	-14540	-1188	-7856	59	-37	160	-1760	2696	16844	230	-9	64	126	128	5
-12568	-64	10144	-101	145	-189	-14116	-812	-8040	6	-7	-21	-1928	-2196	16748	39	-84	168	-13316	3388	9324	133	-3	-145	-14492	-1152	-7836	54	-26	146	-1808	2696	16960	238	-19	35	126	127	5
-12508	-108	10196	-86	129	-208	-14132	-784	-8040	39	-11	-38	-1888	-2148	16652	50	-96	160	-13404	3388	9308	125	-13	-130	-14552	-1096	-7836	58	-18	191	-1796	2712	16932	200	-13	22	126	127	5
-12512	-76	10140	-68	152	-175	-14088	-808	-7964	14	-43	-32	-1956	-2108	16700	42	-97	147	-13452	3400	9280	111	-30	-106	-14508	-1048	-7892	43	-48	215	-1788	2700	16888	216	-17	-4	126	127	5
-12492	-156	10044	-72	107	-189	-14120	-764	-7944	39	-37	-82	-1844	-2072	16572	21	-99	137	-13392	3428	9364	89	-19	-114	-14488	-1128	-7904	137	-61	201	-1708	2684	16852	195	-46	-1	126	127	5
-12452	-104	10048	-71	149	-183	-14124	-744	-7960	10	-30	-49	-1868	-2144	16692	26	-95	117	-13388	3428	9324	130	-23	-122	-14476	-1128	-7844	79	-71	202	-1720	2640	16888	226	-17	2	126	127	5
-12496	-88	10184	-93	144	-176	-14144	-732	-7980	26	-21	-73	-1868	-2164	16744	11	-89	122	-13352	3472	9184	136	5	-141	-14560	-1132	-7752	124	-53	188	-1724	2676	16772	227	12	2	126	127	5
-12456	-84	10152	-69	124	-172	-14148	-772	-7920	26	-34	-31	-1904	-2064	16576	20	-106	154	-13416	3456	9316	135	-19	-150	-14560	-1120	-7728	79	-97	226	-1684	2712	16888	239	-37	5	126	127	5
-12476	-88	10108	-76	125	-143	-14156	-724	-8060	19	-32	-48	-1900	-2124	16740	44	-108	175	-13392	3424	9280	110	-33	-109	-14488	-1100	-7768	92	-89	205	-1652	2692	16788	205	9	-13	126	127	5
-12516	-112	10144	-95	123	-198	-14148	-712	-7996	46	-43	-67	-1932	-2072	16636	37	-108	147	-13336	3440	9360	100	-3	-136	-14568	-1116	-7924	77	-35	218	-1704	2748	16948	209	16	6	126	127	5
-12484	-24	10216	-113	159	-196	-14112	-744	-7956	51	-5	-65	-1872	-2144	16792	26	-109	150	-13380	3396	9268	143	-17	-98	-14596	-1100	-7860	60	-33	174	-1668	2684	16852	208	0	2	126	127	5
-12456	-72	10180	-76	164	-185	-14116	-748	-7924	32	-14	-75	-1864	-2104	16776	-25	-94	159	-13416	3396	9288	108	-2	-114	-14524	-1120	-7784	47	-48	180	-1664	2776	16840	203	-20	16	126	127	5
-12472	-112	10076	-66	130	-160	-14132	-756	-8064	5	-24	-67	-1936	-2088	16676	46	-106	130	-13432	3496	9280	123	-23	-143	-14504	-1072	-7788	46	-12	180	-1652	2828	16844	183	-8	12	126	127	5
-12404	-60	10068	-124	167	-157	-14144	-716	-7996	19	-55	-43	-1972	-2108	16756	10	-102	155	-13420	3424	9288	140	-21	-149	-14552	-1016	-7832	59	-18	150	-1752	2720	16816	182	-26	35	126	127	5
-12484	-68	10160	-91	149	-182	-14136	-700	-7988	16	-28	-83	-1940	-2132	16728	10	-131	162	-13364	3468	9284	141	-33	-124	-14520	-1048	-7756	61	-13	129	-1692	2804	16820	183	-25	50	126	127	5
-12492	-76	10160	-68	169	-199	-14164	-684	-7920	-21	-39	-93	-1856	-2152	16732	-3	-121	177	-13328	3476	9276	96	14	-159	-14500	-1072	-7752	105	-54	122	-1664	2748	16792	199	-1	65	127	127	5
-12512	-72	10148	-66	172	-206	-14160	-732	-8000	30	-28	-116	-1836	-2084	16704	31	-128	148	-13376	3392	9352	123	-20	-137	-14504	-1100	-7628	88	-28	125	-1696	2772	16912	153	-6	81	126	127	5
-12504	-96	10152	-84	146	-206	-14176	-796	-7852	60	-14	-73	-1852	-2076	16692	-2	-120	156	-13408	3452	9236	146	-73	-161	-14520	-1052	-7824	84	5	116	-1636	2688	16772	170	5	79	126	127	5
-12508	-52	10120	-61	150	-171	-14180	-744	-7948	19	-59	-89	-1880	-2096	16716	24	-114	147	-13368	3460	9376	170	-63	-107	-14476	-1108	-7820	48	14	97	-1664	2696	16904	133	-13	32	126	128	5
-12436	-96	10136	-34	122	-169	-14120	-736	-7904	1	-36	-74	-1904	-2100	16580	5	-148	153	-13376	3408	9256	148	-74	-120	-14504	-1080	-7820	49	4	95	-1692	2664	16888	148	-13	58	125	127	5
-12472	-52	10072	-50	133	-193	-14132	-736	-7956	-13	-7	-94	-1824	-2072	16684	19	-112	157	-13416	3504	9260	135	-92	-134	-14488	-1012	-7764	76	-9	129	-1632	2680	16892	210	1	54	126	127	5
-12516	-20	10148	-53	116	-208	-14136	-712	-8136	-2	-19	-104	-1884	-2056	16740	11	-74	145	-13432	3408	9260	142	-58	-139	-14528	-1124	-7748	56	15	105	-1792	2620	16880	178	20	82	126	127	5
-12476	-52	10096	-125	117	-214	-14120	-764	-7940	8	-10	-88	-1872	-2168	16640	-16	-129	169	-13416	3448	9168	142	-50	-149	-14576	-1120	-7776	86	-32	155	-1796	2608	16864	217	18	61	126	127	5
-12476	-140	10076	-85	157	-197	-14160	-816	-7940	43	-8	-69	-1888	-2160	16712	47	-98	173	-13344	3432	9336	113	-19	-102	-14460	-1168	-7764	74	-17	112	-1708	2704	16840	199	-20	53	126	127	5
-12384	-20	10144	-81	122	-197	-14092	-796	-7984	31	-43	-65	-1904	-2148	16632	55	-153	165	-13396	3372	9272	124	31	-148	-14520	-1160	-7856	111	-18	134	-1704	2580	16888	222	14	65	126	127	5
-12512	-80	10064	-110	151	-211	-14164	-800	-8072	12	-23	-71	-1916	-2140	16736	62	-116	128	-13404	3380	9292	96	-60	-125	-14572	-1160	-7720	57	-46	159	-1712	2640	16980	219	3	74	126	127	5
-12440	-52	10152	-84	122	-178	-14188	-748	-7980	-7	-25	-75	-1860	-2212	16616	41	-81	170	-13336	3392	9324	122	-19	-164	-14468	-1172	-7820	49	-12	178	-1712	2684	16964	220	-8	24	126	127	5
-12468	-136	10088	-101	160	-218	-14168	-720	-7920	22	-19	-48	-1888	-2068	16660	51	-106	159	-13432	3412	9256	125	-27	-101	-14480	-1116	-7800	70	-44	165	-1776	2612	16880	257	-36	32	126	127	5
-12444	-64	10012	-113	128	-166	-14180	-800	-7988	37	-6	-26	-1864	-2084	16632	52	-122	141	-13360	3420	9324	94	0	-136	-14512	-1164	-7800	56	1	176	-1728	2680	16936	242	-25	12	126	127	5
-12464	-96	10076	-79	155	-178	-14152	-772	-7900	30	-4	-15	-1872	-2132	16704	19	-110	118	-13404	3412	9348	133	0	-112	-14512	-1164	-7788	61	-10	218	-1688	2676	16868	199	-20	22	126	127	5
-12444	-116	10200	-95	166	-178	-14152	-760	-8000	71	-10	-24	-1924	-2148	16668	23	-105	147	-13332	3400	9272	133	-13	-111	-14512	-1112	-7852	53	-64	181	-1756	2712	16940	213	-46	18	126	127	5
-12440	-112	10124	-86	152	-190	-14164	-744	-8052	11	19	-33	-1920	-2164	16712	49	-104	138	-13372	3460	9360	115	-1	-130	-14516	-1128	-7708	69	-17	227	-1668	2768	16848	207	-2	-8	126	127	5
-12452	-20	10108	-101	140	-191	-14128	-760	-7976	46	-22	-32	-1916	-2108	16720	81	-90	135	-13412	3368	9236	77	-51	-97	-14512	-1096	-7740	53	-33	213	-1684	2820	16920	240	-26	7	126	127	5
-12492	-44	10188	-98	130	-190	-14192	-728	-7904	31	-37	-36	-1888	-2084	16716	56	-118	154	-13360	3436	9388	97	-38	-124	-14464	-1100	-7860	55	-15	165	-1704	2792	16736	241	-16	24	126	127	5
-12472	-32	10124	-111	120	-196	-14160	-712	-8096	8	-41	-24	-1944	-2112	16740	47	-124	172	-13388	3428	9292	110	26	-135	-14484	-1008	-7940	35	-22	164	-1700	2732	16844	223	-17	23	126	127	5
-12496	-128	10060	-102	149	-197	-14184	-704	-7956	-29	-13	-94	-1908	-2112	16676	45	-102	140	-13372	3400	9204	102	2	-143	-14496	-1052	-7900	54	-36	170	-1768	2804	16892	185	7	25	126	127	5
-12456	-52	10136	-107	144	-187	-14216	-712	-7996	42	-41	-70	-1908	-2020	16724	22	-114	159	-13452	3444	9316	95	-57	-142	-14544	-1060	-7920	83	-77	126	-1652	2772	16880	218	-67	29	126	127	5
-12492	-88	10136	-81	145	-191	-14108	-716	-8020	5	-44	-107	-1880	-2044	16788	11	-131	179	-13400	3448	9296	122	-26	-128	-14508	-1072	-7696	71	-52	154	-1676	2804	16824	185	-27	63	126	127	5
-12524	-76	10124	-95	149	-199	-14152	-752	-7876	-3	-14	-128	-1892	-2108	16708	34	-137	155	-13468	3476	9236	134	-61	-167	-14508	-1092	-7880	64	-44	131	-1708	2828	16752	174	-12	47	126	127	5
-12460	-8	10188	-97	129	-214	-14224	-720	-7880	3	-32	-50	-1892	-2024	16688	-20	-159	170	-13364	3452	9260	122	-24	-171	-14584	-1084	-7788	70	-83	125	-1716	2736	16916	176	-8	47	126	127	5
-12468	-88	10016	-141	154	-202	-14140	-784	-8012	31	-73	-102	-1920	-2080	16660	-28	-137	187	-13272	3392	9208	120	-25	-121	-14552	-1048	-7744	79	-59	119	-1768	2732	16740	161	-30	43	125	127	5
-12404	-88	10120	-112	141	-227	-14180	-752	-7952	56	-4	-121	-1808	-2200	16712	-22	-118	157	-13316	3428	9324	112	-67	-141	-14560	-1100	-7804	59	-38	119	-1680	2712	16812	185	-60	58	126	127	5
-12416	-64	10184	-102	125	-172	-14180	-776	-7928	-8	-43	-109	-1884	-2220	16648	-12	-145	165	-13420	3384	9308	100	-38	-177	-14560	-1152	-7716	90	-48	115	-1716	2732	16860	180	-17	61	126	127	5
-12472	-48	10100	-87	145	-177	-14208	-724	-7900	14	-48	-121	-1832	-2108	16628	4	-127	117	-13372	3456	9240	86	-48	-118	-14616	-1140	-7788	84	-28	118	-1672	2692	16916	217	-27	54	126	127	5
-12468	-132	10144	-38	122	-231	-14164	-740	-8044	35	-53	-78	-1860	-2144	16780	-10	-120	140	-13376	3472	9180	104	-16	-148	-14548	-1136	-7872	94	-27	158	-1712	2744	16996	210	-25	33	126	128	5
-12400	-32	10196	-73	138	-249	-14084	-756	-7912	7	-31	-98	-1868	-2152	16752	5	-92	181	-13412	3412	9156	86	-24	-123	-14532	-1056	-7744	70	-45	138	-1664	2680	16980	157	-20	49	126	127	5
-12484	-100	10168	-96	123	-207	-14216	-748	-7844	9	-35	-102	-1868	-2088	16692	8	-117	153	-13444	3488	9356	85	-2	-131	-14452	-1112	-7656	83	-24	159	-1676	2664	16844	165	-11	38	126	127	5
-12544	-56	10200	-151	152	-195	-14156	-756	-7868	34	-11	-77	-1868	-2124	16764	44	-119	172	-13392	3360	9220	104	6	-152	-14468	-1112	-7668	54	-24	141	-1656	2592	16880	196	16	90	126	127	5
-12540	-68	10220	-72	145	-172	-14232	-852	-7908	11	-14	-94	-1824	-2148	16720	22	-123	204	-13364	3392	9292	109	-101	-137	-14524	-1160	-7792	69	-13	147	-1692	2700	16964	247	-35	74	126	127	5
-12512	-56	10116	-85	152	-202	-14200	-744	-8004	58	13	-53	-1820	-2136	16712	27	-149	164	-13388	3452	9284	83	6	-157	-14548	-1116	-7696	102	2	174	-1632	2748	16880	253	-4	104	126	127	5
-12496	-44	10088	-94	120	-186	-14088	-748	-7880	36	10	-67	-1832	-2192	16768	65	-69	139	-13360	3384	9264	136	-24	-132	-14516	-1088	-7704	85	41	160	-1576	2780	16880	228	-8	49	126	127	5
-12468	-96	10184	-70	178	-177	-14184	-784	-7916	39	6	-75	-1812	-2164	16600	40	-123	159	-13364	3396	9332	117	19	-157	-14560	-1072	-7708	28	49	176	-1684	2668	16808	229	-7	50	126	128	5
-12436	-96	10096	-90	162	-154	-14144	-788	-8044	24	14	-40	-1796	-2216	16624	70	-84	129	-13392	3464	9320	111	-25	-105	-14520	-1096	-7708	7	52	196	-1680	2676	16796	246	-34	67	126	128	5
-12504	-40	10068	-46	147	-191	-14124	-756	-8012	18	16	-28	-1856	-2132	16660	51	-77	114	-13384	3332	9196	109	35	-137	-14520	-1156	-7784	36	6	180	-1684	2732	16776	272	-23	54	126	127	5
-12420	-68	10032	-106	168	-172	-14176	-700	-7872	32	70	21	-1876	-2124	16708	75	-92	88	-13436	3452	9268	125	-36	-107	-14600	-1100	-7724	79	50	206	-1772	2736	16788	257	-12	57	126	128	5
-12524	-120	10144	-81	141	-211	-14104	-676	-8004	43	41	24	-1904	-2112	16676	36	-78	122	-13424	3388	9380	130	68	-122	-14496	-1084	-7772	49	21	228	-1788	2752	16828	287	16	27	126	128	5
-12484	-128	10072	-49	180	-161	-14236	-696	-8060	50	5	-9	-1920	-2148	16744	68	-60	84	-13344	3424	9344	67	36	-123	-14544	-1084	-7820	47	19	171	-1692	2836	16808	102	16	-7	126	128	5
-12448	-84	10092	-69	182	-201	-14096	-692	-7936	44	15	20	-1984	-2140	16748	64	-71	93	-13368	3412	9208	133	-28	-126	-14452	-1112	-7880	79	19	202	-1828	2704	16756	324	-58	31	126	128	5
-12432	-68	10048	-85	150	-154	-14132	-660	-8012	8	65	-17	-1976	-2112	16724	111	-81	115	-13412	3384	9292	128	-29	-140	-14500	-1076	-7808	103	0	210	-1752	2800	16952	178	21	22	126	128	5
-12488	-80	10176	-97	149	-183	-14204	-648	-7948	1	-25	-7	-1936	-2084	16792	98	-114	102	-13356	3448	9220	126	-33	-81	-14488	-1076	-7776	84	-32	203	-1756	2696	16936	264	6	15	126	128	5
-12472	-96	10120	-66	140	-186	-14148	-652	-8156	26	4	-37	-2016	-2064	16660	41	-88	101	-13452	3464	9316	123	-48	-149	-14488	-1044	-7876	70	-30	224	-1764	2892	16816	207	-53	6	126	128	5
-12416	-28	10200	-64	127	-168	-14116	-688	-7820	37	4	-5	-2052	-2044	16768	45	-115	127	-13344	3440	9328	134	-2	-145	-14536	-1036	-7720	65	-61	213	-1716	2808	16900	202	-5	-2	126	128	5
-12444	-40	10212	-61	133	-204	-14124	-676	-8016	41	28	-73	-1948	-2044	16724	9	-150	86	-13368	3424	9300	139	-61	-149	-14492	-1072	-7792	87	-93	218	-1716	2728	16676	251	-1	11	126	127	5
-12520	20	10244	-75	137	-216	-14156	-708	-7976	19	-25	-51	-1872	-1948	16768	34	-142	105	-13400	3492	9272	136	-78	-156	-14500	-1040	-7728	55	-63	214	-1584	2808	16844	118	161	3	126	128	5
-12504	-56	10152	-106	141	-170	-14160	-696	-7972	5	-28	-71	-1864	-2012	16684	8	-119	119	-13424	3476	9228	107	-10	-111	-14484	-1084	-7804	66	-45	208	-1636	2756	16844	248	-84	-8	126	127	5
-12456	-84	10080	-106	155	-179	-14168	-668	-7868	16	-19	-63	-1956	-1952	16644	-23	-125	140	-13428	3472	9256	143	-36	-114	-14532	-1084	-7800	80	-5	166	-1628	2836	16832	178	35	4	125	127	5
-12440	-28	10044	-102	143	-206	-14112	-688	-7916	44	-14	-71	-1872	-2032	16632	-10	-132	149	-13364	3476	9340	106	-45	-147	-14460	-1036	-7688	46	-34	157	-1660	2760	16780	149	-5	29	126	127	5
-12476	-36	10008	-127	149	-238	-14112	-696	-7932	29	-31	-142	-1880	-2072	16712	-35	-88	146	-13392	3444	9280	104	-3	-157	-14484	-1008	-7704	67	0	120	-1628	2796	16900	134	-34	24	126	127	5
-12436	-84	10084	-85	153	-197	-14208	-672	-8004	-14	19	-136	-1860	-2016	16744	-41	-115	193	-13424	3468	9224	113	-76	-150	-14476	-1052	-7736	64	3	141	-1652	2812	16928	171	14	71	126	127	5
-12508	-64	10168	-93	155	-198	-14184	-732	-7980	-16	9	-133	-1864	-2096	16656	-28	-121	237	-13392	3420	9252	98	-10	-147	-14552	-1044	-7668	55	-12	109	-1636	2796	16804	164	32	81	126	127	5
-12504	-56	10064	-74	150	-223	-14144	-796	-7916	-12	6	-124	-1908	-2092	16712	-27	-160	247	-13420	3472	9252	94	-2	-147	-14548	-1048	-7728	39	46	122	-1680	2784	16788	152	6	90	126	127	5
-12416	-44	10100	-94	173	-203	-14128	-732	-8068	29	-10	-107	-1856	-2132	16660	-25	-126	253	-13420	3432	9292	139	-39	-143	-14488	-1128	-7812	39	-5	118	-1696	2720	16736	186	19	75	126	127	5
-12528	-80	10120	-60	162	-229	-14120	-780	-8024	25	-13	-159	-1904	-2188	16680	7	-135	202	-13360	3440	9288	124	-37	-115	-14560	-1112	-7772	56	6	102	-1732	2692	16712	198	-24	72	126	127	5
-12460	-148	10032	-54	155	-174	-14124	-796	-8080	16	-17	-113	-1912	-2164	16720	-20	-77	166	-13368	3500	9272	176	-81	-148	-14552	-1132	-7812	68	5	134	-1808	2720	16892	165	11	68	126	127	5
-12476	-84	10060	-60	158	-173	-14128	-748	-7944	-6	3	-112	-1932	-2228	16716	12	-97	166	-13428	3408	9276	188	-97	-130	-14524	-1068	-7796	56	8	134	-1760	2728	16940	177	6	48	126	127	5
-12480	-12	10076	-33	137	-187	-14104	-752	-8020	-47	-7	-67	-1900	-2140	16700	60	-101	202	-13360	3424	9236	164	-40	-138	-14544	-1084	-7944	45	-18	167	-1772	2676	16880	235	-41	74	126	128	5
-12500	-80	10120	-74	127	-204	-14160	-800	-8008	-48	-13	-77	-1984	-2184	16604	34	-142	180	-13404	3468	9260	152	-39	-118	-14524	-1136	-7860	63	-34	188	-1772	2676	16920	298	-20	56	126	128	5
-12448	-68	10080	-74	132	-198	-14148	-800	-7984	16	-49	-71	-2008	-2144	16704	74	-99	160	-13412	3520	9236	163	-38	-111	-14544	-1032	-7732	36	-14	191	-1716	2708	16816	247	-29	52	126	127	5
-12452	-64	10072	-101	112	-169	-14128	-728	-8020	7	-37	-47	-1992	-2132	16640	64	-142	161	-13368	3356	9256	123	-37	-110	-14572	-1100	-7876	27	-62	213	-1800	2736	16824	219	8	2	126	127	5
-12444	-124	10148	-78	135	-185	-14164	-736	-7988	10	-51	-49	-1940	-2100	16688	43	-129	150	-13364	3428	9268	146	-24	-120	-14484	-1064	-7804	103	-66	202	-1728	2760	16784	252	-7	23	126	127	5
-12488	-96	10084	-87	108	-200	-14144	-732	-8004	4	-80	-52	-1924	-2080	16684	35	-111	138	-13380	3520	9248	130	-12	-148	-14516	-1080	-7756	116	-68	230	-1612	2748	16844	223	0	-27	126	128	5
-12472	-124	10096	-126	125	-200	-14148	-700	-7972	-27	-73	-75	-1928	-2076	16740	23	-85	160	-13368	3504	9260	121	-40	-101	-14516	-1008	-7656	59	-72	171	-1668	2720	16792	212	-46	9	126	127	5
-12464	-96	10040	-116	109	-149	-14152	-692	-7980	35	-47	-49	-1832	-2016	16692	17	-114	143	-13400	3412	9100	122	-29	-91	-14500	-1040	-7776	35	-49	192	-1592	2844	16824	214	-43	-6	126	128	5
-12468	-68	10164	-123	140	-209	-14208	-672	-7904	25	-67	-58	-1864	-2052	16744	40	-156	164	-13336	3396	9288	96	-38	-106	-14524	-1000	-7844	46	-36	163	-1588	2832	16948	194	-30	29	126	127	5
-12464	-16	10108	-148	142	-184	-14160	-680	-7980	5	-31	-64	-1884	-2084	16744	23	-125	168	-13424	3404	9256	93	-29	-85	-14508	-1060	-7704	5	-46	150	-1596	2900	16776	189	-35	40	126	128	5
-12512	-52	9988	-126	119	-225	-14168	-724	-7952	-1	-34	-94	-1836	-2012	16832	-14	-124	177	-13376	3432	9380	79	3	-124	-14572	-1092	-7768	72	-27	148	-1588	2880	16852	174	0	43	126	127	5
-12576	0	10084	-108	147	-205	-14136	-696	-8100	0	14	-100	-1860	-1976	16684	-3	-149	173	-13332	3476	9252	123	-28	-148	-14484	-1016	-7696	103	-21	113	-1692	2804	16828	164	5	31	126	127	5
-12524	-112	10144	-98	153	-171	-14164	-688	-8072	9	-14	-123	-1936	-2132	16688	3	-143	198	-13360	3456	9236	65	-16	-142	-14528	-1000	-7720	69	-10	65	-1616	2824	16796	141	-8	47	126	128	5
-12476	-48	10160	-104	167	-189	-14184	-684	-8072	-14	3	-157	-1944	-2092	16676	2	-158	181	-13396	3424	9160	92	-13	-152	-14504	-1036	-7720	32	-17	105	-1688	2824	16908	183	18	50	127	127	5
-12440	-64	10072	-118	179	-193	-14224	-716	-7908	-15	-30	-99	-1908	-2140	16616	-25	-159	199	-13328	3408	9212	76	-42	-170	-14488	-1064	-7644	9	0	103	-1684	2760	16840	125	47	71	126	127	5
-12436	-52	10048	-95	171	-207	-14192	-796	-7976	-20	-20	-125	-1936	-2180	16620	-35	-146	203	-13416	3444	9316	103	-43	-175	-14528	-1092	-7744	53	2	66	-1728	2824	16840	140	2	67	126	127	5
-12440	-60	10068	-104	159	-194	-14136	-680	-7956	-25	-49	-120	-1904	-2064	16640	-46	-162	225	-13372	3456	9320	125	-48	-182	-14552	-1072	-7840	87	-4	97	-1744	2812	16916	146	12	77	126	127	5
-12452	-56	10140	-97	164	-233	-14172	-788	-7956	6	-26	-103	-1936	-2196	16728	4	-134	157	-13408	3424	9312	109	-19	-153	-14504	-1080	-7756	89	-26	87	-1676	2712	16924	114	14	36	126	128	5
-12488	-20	10140	-97	147	-209	-14132	-700	-8056	28	4	-84	-1956	-2136	16780	2	-108	192	-13360	3496	9332	105	-50	-127	-14516	-1108	-7704	112	-9	86	-1700	2676	16796	145	3	71	126	127	5
-12496	-68	10224	-109	134	-226	-14124	-780	-7988	25	-52	-90	-1908	-2088	16652	-19	-143	191	-13444	3424	9284	122	-8	-138	-14516	-1140	-7824	87	-22	89	-1648	2648	16972	155	5	70	125	127	5
-12440	-72	10044	-90	161	-208	-14192	-820	-7920	30	-14	-93	-1864	-2176	16812	31	-115	160	-13348	3444	9340	143	-70	-112	-14580	-1040	-7852	36	-28	149	-1636	2716	16864	191	10	84	126	128	5
-12468	-120	10260	-75	138	-180	-14136	-800	-7984	11	-3	-78	-1896	-2132	16704	0	-118	148	-13368	3468	9172	120	-31	-127	-14528	-1208	-7740	51	-40	118	-1688	2720	16996	156	42	47	126	128	5
-12484	-44	10100	-112	143	-179	-14188	-708	-7940	23	11	-103	-1824	-2124	16704	52	-110	160	-13356	3444	9156	123	-2	-128	-14504	-1112	-7720	43	-51	153	-1712	2724	16828	135	5	37	126	127	5
-12424	-76	10120	-108	122	-172	-14124	-764	-7972	41	7	-113	-1784	-2188	16676	35	-116	179	-13400	3444	9228	109	-35	-136	-14544	-1192	-7696	62	11	195	-1668	2700	16912	185	-7	27	126	127	5
-12484	-88	10156	-96	145	-197	-14132	-768	-7916	19	10	-28	-1848	-2084	16672	-5	-97	146	-13456	3376	9224	116	-8	-133	-14532	-1112	-7796	66	-37	173	-1708	2652	16740	202	-11	58	126	128	5
-12488	-96	10080	-94	135	-197	-14084	-740	-7932	14	4	-29	-1860	-2164	16676	52	-110	170	-13428	3416	9192	117	-37	-146	-14544	-1088	-7796	93	-24	167	-1692	2692	16864	190	-40	57	126	128	5
-12488	-56	10132	-119	148	-201	-14164	-760	-8008	21	-4	-42	-1904	-2152	16696	51	-107	166	-13360	3468	9180	125	-31	-126	-14548	-1112	-7832	101	17	169	-1684	2744	16824	208	-35	45	126	128	5
-12452	-52	10156	-99	142	-173	-14156	-788	-8096	-28	-33	-37	-1892	-2148	16704	26	-107	176	-13424	3392	9236	144	-14	-136	-14524	-1020	-7812	27	13	154	-1680	2856	16876	209	-30	20	126	128	5
-12484	-44	10080	-103	117	-194	-14176	-748	-7948	-21	-3	-60	-1944	-2148	16708	41	-130	150	-13424	3432	9300	145	-20	-121	-14500	-1052	-7856	44	-3	145	-1684	2720	16816	228	22	44	126	128	5
-12448	-80	10160	-83	151	-198	-14128	-620	-7956	10	-31	-82	-1924	-2076	16628	33	-100	166	-13360	3460	9184	116	24	-136	-14572	-1088	-7740	30	13	150	-1708	2784	16900	192	-16	52	125	128	5
-12456	-76	10084	-79	132	-194	-14176	-716	-8004	-35	-26	-81	-1944	-2024	16772	19	-103	178	-13452	3428	9240	109	-49	-100	-14488	-1096	-7740	46	-16	128	-1656	2792	16892	179	-26	22	126	128	5
-12448	-60	10180	-83	130	-175	-14220	-724	-7864	33	-13	-68	-1924	-2080	16744	22	-98	198	-13396	3460	9236	89	11	-151	-14508	-1044	-7780	67	-14	115	-1688	2796	16888	196	15	43	126	128	5
-12436	-48	10072	-113	145	-163	-14160	-752	-7944	36	-16	-67	-1916	-2012	16732	24	-92	174	-13356	3448	9276	104	-6	-165	-14532	-1008	-7776	59	26	100	-1656	2736	16808	224	1	48	126	128	5
-12484	-72	10144	-86	136	-234	-14132	-736	-7940	39	13	-77	-1916	-2032	16696	-15	-111	172	-13380	3408	9344	96	-42	-127	-14528	-1128	-7740	80	-2	152	-1684	2832	16924	192	-14	36	126	128	5
-12460	-100	10108	-93	143	-213	-14164	-720	-8048	16	-19	-69	-1936	-2112	16704	39	-132	171	-13380	3428	9164	87	-37	-166	-14516	-1028	-7708	40	-8	109	-1700	2760	16752	173	-14	73	126	128	5
-12456	-44	10112	-73	170	-183	-14124	-692	-8012	-26	-35	-112	-1940	-2088	16684	-12	-109	210	-13404	3480	9400	119	-21	-148	-14584	-1036	-7900	58	16	152	-1728	2840	16864	169	44	60	126	128	5
-12484	-36	10128	-96	130	-194	-14116	-736	-8064	-16	-25	-105	-1892	-2168	16736	-3	-136	181	-13416	3448	9320	97	-53	-131	-14544	-1036	-7716	46	32	124	-1732	2808	16792	183	40	50	126	127	5
-12468	-60	10088	-80	159	-186	-14160	-784	-8100	9	-6	-81	-1944	-2140	16684	5	-103	205	-13352	3396	9308	81	-22	-144	-14520	-1052	-7796	79	36	79	-1716	2720	16864	159	1	70	126	127	5
-12516	-24	10092	-127	142	-225	-14128	-716	-7924	67	-4	-99	-1908	-2120	16736	-1	-101	175	-13404	3404	9224	108	-24	-164	-14496	-1148	-7792	50	5	148	-1672	2692	16860	161	16	41	126	127	5
-12480	-72	10128	-75	145	-216	-14108	-688	-8044	20	-35	-45	-1976	-2140	16784	2	-110	161	-13372	3520	9304	113	-23	-128	-14552	-1076	-7852	80	-7	165	-1832	2772	16904	182	-16	61	126	127	5
-12420	-12	10164	-92	170	-187	-14168	-816	-8060	26	-26	-91	-2052	-2184	16800	3	-124	156	-13436	3420	9332	114	-37	-138	-14540	-1100	-7824	66	-13	139	-1676	2712	16924	169	15	32	126	127	5
-12456	-108	10104	-70	156	-193	-14124	-792	-7960	14	-17	-96	-1936	-2144	16676	-11	-154	156	-13348	3444	9220	92	-40	-149	-14516	-1112	-7816	31	-16	189	-1700	2744	16740	170	-3	59	126	128	5
-12464	-40	10124	-147	159	-201	-14088	-656	-8004	39	-61	-111	-1876	-2200	16724	11	-112	147	-13440	3452	9256	114	-34	-116	-14568	-1084	-7792	98	-57	166	-1740	2752	16764	196	10	37	126	127	5
-12460	-148	10200	-110	114	-180	-14172	-736	-7844	-26	-52	-67	-1884	-2180	16708	27	-106	155	-13340	3440	9336	94	-62	-140	-14568	-1088	-7708	70	-10	156	-1668	2720	16844	214	-13	6	126	127	5
-12432	-84	10084	-69	171	-233	-14136	-780	-7908	6	-25	-59	-1864	-2048	16752	31	-129	182	-13332	3476	9276	157	-75	-137	-14508	-1088	-7708	56	-25	135	-1644	2792	16924	175	-7	16	126	128	5
-12456	-48	10112	-94	179	-188	-14088	-760	-7904	68	-29	-69	-1844	-2100	16588	2	-128	143	-13428	3436	9272	147	-73	-108	-14532	-1096	-7756	36	-23	173	-1656	2764	16836	155	-6	18	126	127	5
-12452	-76	10128	-52	170	-180	-14160	-680	-7864	30	-21	-29	-1864	-2160	16804	17	-123	170	-13408	3452	9388	124	-44	-134	-14536	-1068	-7760	93	10	156	-1716	2716	16852	175	-11	38	126	127	5
-12460	-56	10140	-36	165	-181	-14208	-696	-8016	-8	-42	-41	-1932	-2104	16620	41	-112	181	-13396	3440	9308	188	-41	-134	-14520	-1004	-7872	41	-3	136	-1696	2720	16888	196	-28	31	126	127	5
-12460	-44	10132	-33	117	-204	-14152	-764	-8008	-14	-32	-47	-1948	-2132	16712	20	-120	177	-13372	3516	9284	145	-55	-121	-14468	-1104	-7832	92	23	178	-1664	2788	16780	212	-21	29	126	127	5
-12420	-64	10244	-72	111	-172	-14148	-752	-7996	-5	-19	-76	-1940	-2192	16720	30	-118	180	-13392	3472	9260	185	-26	-157	-14488	-1076	-7836	41	-5	159	-1768	2804	16856	244	17	50	126	127	5
-12508	-80	10112	-61	144	-176	-14160	-712	-8044	11	-60	-72	-1940	-2132	16804	41	-121	162	-13344	3384	9168	134	-33	-118	-14524	-1032	-7840	11	0	130	-1752	2768	16852	224	-26	73	126	127	5
-12472	-52	10144	-69	118	-182	-14172	-692	-8048	25	-43	-115	-1988	-2088	16732	20	-122	174	-13360	3480	9184	90	-9	-102	-14520	-1136	-7888	68	-21	117	-1716	2788	16852	178	-25	50	126	127	5
-12472	-48	10132	-90	113	-190	-14148	-796	-7920	25	-41	-41	-1892	-2104	16684	21	-117	191	-13380	3428	9160	109	-52	-139	-14528	-1100	-7884	80	-19	123	-1704	2756	16868	167	-1	58	126	127	5
-12488	-92	10128	-89	159	-151	-14188	-788	-7888	-24	-55	-104	-1864	-2144	16652	12	-119	179	-13428	3480	9288	79	-25	-147	-14532	-1036	-7836	105	-46	170	-1764	2756	16820	181	-10	27	126	127	5
-12540	-100	10044	-143	159	-224	-14156	-764	-7948	31	-31	-57	-1936	-2252	16744	15	-123	150	-13448	3412	9244	88	-46	-120	-14520	-1064	-7784	92	-30	118	-1712	2768	16924	200	-29	80	126	127	5
-12476	-92	10064	-108	139	-197	-14156	-716	-7976	51	-41	-69	-1900	-2116	16716	66	-113	183	-13376	3452	9160	84	-9	-133	-14540	-1096	-7748	83	-29	92	-1668	2724	16880	202	-3	33	126	127	5
-12520	-72	10060	-102	139	-165	-14108	-684	-8052	36	11	-68	-1884	-2124	16752	35	-126	166	-13416	3448	9392	83	4	-137	-14528	-1084	-7764	49	-41	144	-1684	2668	16804	178	-25	37	126	127	5
-12432	-48	10068	-129	133	-214	-14092	-756	-7856	10	-27	-66	-1928	-2116	16704	4	-116	171	-13380	3416	9332	87	-29	-134	-14540	-1100	-7864	66	-27	168	-1692	2688	16840	192	7	51	126	127	5
-12460	-88	10184	-107	140	-181	-14180	-748	-8004	11	-60	-54	-1884	-2128	16684	31	-125	157	-13344	3432	9268	87	-24	-136	-14564	-1148	-7804	92	-85	162	-1680	2656	16856	209	-4	26	126	127	5
-12464	-12	10184	-115	138	-230	-14112	-796	-7980	1	-31	-49	-1968	-2164	16604	40	-125	155	-13364	3424	9200	131	-14	-107	-14512	-1056	-7880	73	-42	149	-1732	2708	16852	197	-15	20	126	127	5
-12468	-20	10060	-80	172	-201	-14124	-724	-8008	1	-25	-56	-1888	-2080	16744	44	-129	171	-13392	3464	9268	105	-7	-150	-14512	-1076	-7788	83	-32	174	-1712	2716	16856	159	-16	26	126	127	5
-12440	-92	10096	-117	156	-175	-14124	-760	-7932	70	-27	-48	-1908	-2136	16636	13	-119	179	-13432	3412	9296	128	-39	-112	-14600	-1144	-7820	55	-38	144	-1680	2720	16920	208	-5	22	126	127	5
-12496	-104	10124	-93	123	-203	-14140	-692	-7940	40	-31	-75	-1936	-2192	16648	29	-110	146	-13328	3464	9284	140	-24	-118	-14528	-1092	-7824	45	-67	189	-1632	2700	16864	226	6	33	126	127	5
-12412	-136	10096	-110	151	-205	-14164	-664	-7996	36	-62	-78	-1944	-2124	16784	35	-91	162	-13360	3452	9220	113	10	-123	-14560	-1056	-7812	50	-46	201	-1696	2812	16820	196	-44	29	126	127	5
-12452	-124	10108	-92	137	-174	-14152	-764	-7928	15	-9	-95	-1896	-2120	16624	31	-127	151	-13388	3420	9260	118	-45	-98	-14460	-1052	-7808	52	-29	203	-1724	2796	16996	221	4	38	126	127	5
-12412	-60	10092	-119	140	-173	-14128	-720	-8008	-2	-46	-66	-1956	-2136	16700	14	-119	159	-13416	3444	9360	120	1	-136	-14544	-1040	-7776	53	-80	192	-1684	2828	16796	229	-5	4	126	127	5
-12432	-68	10148	-80	133	-183	-14156	-732	-7976	9	-60	-86	-1932	-2092	16792	24	-158	156	-13408	3380	9300	129	-37	-109	-14484	-1128	-7820	71	-70	171	-1616	2788	16960	239	-31	30	126	127	5
-12460	8	10040	-81	150	-194	-14192	-768	-8052	5	-15	-67	-1900	-2076	16656	15	-111	161	-13460	3468	9332	138	-56	-116	-14536	-1056	-7748	72	-39	169	-1616	2796	16904	195	0	47	126	127	5
-12452	-40	10208	-118	141	-175	-14084	-764	-7896	13	-36	-85	-1836	-2076	16664	24	-99	130	-13352	3468	9228	126	-65	-105	-14580	-1048	-7808	67	-60	126	-1616	2792	16940	181	17	26	126	127	5
-12452	-84	10124	-83	119	-177	-14156	-736	-8032	8	-8	-70	-1860	-2104	16652	38	-111	155	-13400	3440	9220	128	-3	-158	-14512	-1048	-7752	66	-70	141	-1648	2760	16884	158	26	35	126	127	5
-12464	-52	10236	-94	168	-189	-14208	-724	-7844	59	-61	-63	-1900	-2080	16576	55	-110	143	-13380	3440	9320	131	-4	-144	-14532	-1000	-7676	63	-46	160	-1692	2800	16792	152	-6	31	126	127	5
-12396	-88	10120	-108	148	-169	-14116	-724	-7948	40	-14	-61	-1872	-2092	16764	35	-134	183	-13360	3464	9224	124	-35	-159	-14480	-1064	-7812	68	-12	143	-1692	2768	16844	128	11	37	126	127	5
-12448	-56	10132	-95	138	-171	-14148	-664	-8000	-7	-9	-58	-1868	-2012	16712	-11	-140	174	-13408	3420	9320	135	-21	-144	-14532	-1052	-7696	38	-24	140	-1632	2796	16864	157	6	6	126	127	5
-12428	-56	10168	-79	157	-195	-14148	-740	-7936	-10	14	-65	-1920	-2048	16668	-11	-130	185	-13364	3424	9212	136	-49	-112	-14544	-1096	-7736	77	-30	145	-1724	2720	16868	188	17	52	126	127	5
-12436	-40	10060	-123	172	-188	-14188	-784	-7936	15	-36	-113	-1860	-2064	16768	21	-135	181	-13404	3536	9324	81	-10	-134	-14564	-1056	-7720	67	4	139	-1708	2672	16916	213	-24	37	126	127	5
-12484	-60	10096	-93	141	-205	-14148	-744	-8016	25	8	-71	-1892	-2156	16612	-6	-124	191	-13368	3460	9304	115	-14	-123	-14564	-1084	-7704	22	-16	141	-1740	2692	16816	166	2	36	126	127	5
-12480	-120	10068	-72	159	-227	-14104	-696	-7928	38	4	-100	-1960	-2144	16700	-8	-151	188	-13372	3404	9180	114	-15	-141	-14496	-1132	-7848	39	-8	103	-1752	2724	16936	167	-18	52	126	127	5
-12468	-60	10180	-120	139	-187	-14136	-732	-8036	-29	1	-110	-1928	-2096	16720	-30	-138	204	-13384	3464	9388	105	-12	-130	-14580	-1132	-7756	53	-22	168	-1676	2768	16788	178	-31	49	126	127	5
-12496	-80	10124	-87	163	-190	-14156	-768	-7952	-48	1	-88	-1924	-2084	16684	31	-140	245	-13348	3424	9252	117	-11	-102	-14472	-1060	-7824	69	-25	137	-1732	2736	16896	169	-20	48	126	127	5
-12492	-88	10108	-92	151	-188	-14152	-724	-8096	11	-16	-102	-1884	-2172	16736	43	-126	189	-13400	3428	9128	118	-8	-156	-14528	-1124	-7744	69	-30	139	-1768	2704	16832	194	-23	42	126	127	5
-12528	-48	10072	-70	141	-202	-14152	-740	-7984	-32	-6	-110	-1912	-2112	16692	21	-117	170	-13380	3376	9288	119	-80	-135	-14512	-1080	-7808	63	-28	191	-1708	2720	16748	190	9	45	126	127	5
-12440	-92	10172	-79	129	-195	-14136	-772	-8016	29	-14	-65	-1924	-2180	16776	30	-135	201	-13440	3476	9372	101	-20	-149	-14516	-1060	-7900	57	-22	171	-1672	2760	16768	230	2	70	126	127	5
-12508	-136	10188	-101	126	-191	-14136	-792	-8048	38	-14	-42	-1884	-2180	16696	36	-133	148	-13408	3444	9244	113	3	-95	-14512	-1148	-7684	52	-24	169	-1700	2728	16912	197	-27	25	126	127	5
-12436	-64	10148	-100	143	-193	-14144	-732	-8028	2	-15	-89	-1936	-2068	16660	18	-99	159	-13408	3436	9288	139	-72	-97	-14492	-1072	-7800	84	-62	171	-1724	2712	16684	216	-38	15	126	127	5
-12464	-28	10128	-55	158	-190	-14148	-744	-8032	40	-62	-16	-1960	-2084	16684	29	-115	159	-13292	3456	9364	110	-44	-128	-14572	-1056	-7852	75	-49	208	-1684	2676	16832	174	-36	10	126	127	5
-12484	-124	10208	-100	160	-214	-14176	-732	-8076	15	-56	-28	-1904	-2108	16804	11	-113	134	-13396	3412	9296	136	-59	-105	-14544	-1064	-7728	92	-56	172	-1668	2768	16812	221	-1	25	126	127	5
-12516	0	10132	-113	144	-190	-14160	-756	-7968	24	-32	-30	-1884	-2096	16696	33	-131	128	-13436	3440	9208	141	-39	-136	-14556	-1052	-7832	60	-45	196	-1680	2760	16808	206	-11	1	126	127	5
-12444	-56	10148	-99	141	-162	-14208	-744	-7976	-28	-27	-53	-1892	-2032	16580	30	-94	151	-13396	3428	9300	126	-6	-136	-14524	-1004	-7788	65	-55	162	-1636	2776	16920	151	16	19	126	127	5
-12496	-76	10132	-88	156	-180	-14184	-784	-7912	52	-61	-44	-1964	-2168	16740	55	-100	141	-13412	3408	9160	128	17	-120	-14516	-1088	-7792	44	-72	192	-1684	2756	16904	167	18	5	126	127	5
-12472	-48	10032	-122	152	-168	-14148	-684	-7976	57	-41	-63	-2016	-2152	16836	-25	-98	167	-13396	3456	9260	118	-54	-107	-14492	-1036	-7832	39	-71	164	-1692	2760	16896	189	-4	35	127	127	5
-12456	12	10184	-56	168	-209	-14100	-676	-7972	15	-51	-60	-1920	-2096	16644	29	-110	153	-13384	3440	9212	139	-28	-116	-14564	-1036	-7828	32	-61	158	-1764	2776	16868	227	9	22	126	127	5
-12488	-108	10120	-90	152	-172	-14136	-752	-8020	-19	-41	-69	-1880	-2096	16768	-5	-115	159	-13364	3452	9244	101	1	-124	-14504	-1064	-7772	75	-43	134	-1628	2760	16844	202	-4	51	126	127	5
-12440	-40	10104	-110	142	-213	-14144	-700	-7956	9	-36	-68	-1900	-2060	16564	16	-80	144	-13420	3472	9264	135	-28	-148	-14480	-1016	-7700	101	-45	153	-1628	2752	16788	220	1	49	126	127	5
-12412	-60	10208	-52	145	-172	-14136	-792	-7984	42	-48	-67	-1888	-2128	16716	8	-141	148	-13412	3472	9248	134	-42	-152	-14576	-1048	-7736	85	-26	156	-1628	2744	16816	177	-16	35	126	127	5
-12456	-12	10172	-61	169	-199	-14172	-708	-7904	44	-31	-34	-1848	-2092	16744	7	-116	152	-13392	3428	9360	136	-34	-103	-14500	-1036	-7784	71	14	152	-1644	2692	16828	184	-41	40	126	127	5
-12544	-84	10108	-60	134	-177	-14100	-740	-7852	20	10	-64	-1784	-2076	16708	-17	-133	145	-13408	3504	9176	164	-24	-110	-14556	-1024	-7740	25	10	149	-1624	2768	16856	171	-10	55	126	127	5
-12468	-68	10124	-38	165	-186	-14144	-720	-7976	-12	3	-66	-1904	-2128	16692	13	-87	166	-13408	3428	9312	161	-25	-122	-14480	-1044	-7728	44	8	135	-1680	2796	16876	144	33	33	126	127	5
-12472	-84	10128	-31	164	-175	-14160	-736	-7972	-9	4	-40	-1880	-2068	16596	18	-118	158	-13384	3420	9164	173	-70	-125	-14528	-1036	-7776	62	-6	151	-1748	2704	16904	205	2	33	126	127	5
-12460	-60	10064	-75	136	-180	-14132	-720	-7972	3	-2	-47	-1960	-2124	16736	36	-126	188	-13388	3416	9224	133	-91	-127	-14524	-1080	-7752	106	-17	147	-1736	2756	16960	209	1	70	126	127	5
-12476	-44	10060	-86	151	-139	-14120	-728	-8024	-7	-3	-111	-1860	-2132	16588	6	-110	129	-13416	3436	9256	127	-47	-150	-14572	-1028	-7824	63	1	108	-1708	2768	16880	163	-7	66	126	127	5
-12476	-72	10188	-64	124	-174	-14124	-760	-7920	-1	-29	-59	-1948	-2092	16788	-2	-95	164	-13396	3452	9264	120	15	-159	-14544	-1072	-7904	37	-30	120	-1772	2740	16788	175	14	74	126	127	5
-12440	-56	10164	-31	163	-158	-14128	-704	-8000	28	-10	-84	-1952	-2212	16652	-23	-140	165	-13364	3412	9244	98	-13	-138	-14444	-1128	-7784	91	-47	121	-1740	2764	16920	181	22	63	126	127	5
-12540	-24	10036	-126	141	-179	-14172	-668	-7952	-11	-5	-26	-1960	-2176	16696	24	-136	149	-13392	3392	9284	73	-9	-134	-14516	-1084	-7860	100	-57	138	-1724	2736	16772	191	22	60	126	127	5
-12440	-48	10104	-142	144	-209	-14148	-684	-7868	-35	-23	-61	-1864	-2180	16684	38	-132	172	-13384	3428	9300	107	-44	-132	-14604	-1112	-7800	98	-54	130	-1708	2736	16932	137	6	39	126	128	5
-12536	-100	10276	-119	136	-163	-14128	-788	-7948	-16	-51	-55	-1896	-2136	16728	54	-138	151	-13380	3492	9328	110	-26	-124	-14516	-1116	-7744	32	-37	149	-1688	2680	16712	172	-25	52	126	127	5
-12420	-20	10124	-99	158	-213	-14168	-712	-8064	53	-52	-42	-1912	-2136	16656	20	-138	192	-13396	3456	9216	97	15	-132	-14504	-1100	-7808	35	-35	137	-1732	2688	16916	192	-23	45	126	127	5
-12500	4	10012	-101	148	-167	-14120	-748	-7896	32	-43	-109	-1928	-2032	16700	22	-141	161	-13392	3448	9264	113	19	-116	-14512	-1076	-7760	51	-36	206	-1728	2684	16880	210	-6	22	126	127	5
-12464	-56	10128	-107	143	-175	-14184	-748	-7908	60	-37	-83	-1872	-2116	16672	42	-112	184	-13408	3484	9268	84	-42	-135	-14524	-1124	-7708	70	-47	181	-1652	2668	16900	186	0	48	127	127	5
-12400	-48	10096	-54	127	-180	-14120	-708	-7944	-5	-55	-65	-1912	-2132	16748	3	-105	175	-13444	3452	9264	94	17	-148	-14516	-1092	-7764	84	-18	162	-1696	2708	16948	221	-29	30	126	127	5
-12476	-32	10132	-89	152	-180	-14112	-684	-8000	24	-20	-63	-1916	-2112	16700	18	-129	189	-13376	3472	9384	139	-5	-124	-14536	-1140	-7808	119	10	177	-1676	2724	16708	198	-36	16	126	127	5
-12524	-92	10108	-102	151	-221	-14104	-684	-7976	51	-28	-59	-1880	-2128	16784	27	-128	162	-13420	3424	9264	105	15	-130	-14512	-1084	-7808	105	-44	193	-1704	2716	16792	200	-24	21	126	127	5
-12464	-64	10016	-66	160	-208	-14132	-680	-8032	16	-7	-50	-1820	-2080	16772	21	-132	138	-13464	3444	9320	119	-33	-139	-14536	-1052	-7712	24	-23	180	-1624	2744	16900	222	10	24	126	127	5
-12480	-128	10152	-110	162	-150	-14084	-648	-8028	29	-17	-71	-1876	-2112	16732	15	-133	167	-13352	3448	9228	133	-40	-132	-14520	-1044	-7800	72	-1	129	-1660	2780	16844	185	-14	67	126	127	5
-12496	28	10036	-121	155	-171	-14120	-680	-7860	28	3	-99	-1832	-2092	16728	35	-82	174	-13344	3392	9300	129	-34	-108	-14592	-1036	-7828	39	32	144	-1660	2712	16860	187	8	37	126	127	5
-12496	-124	10160	-85	163	-235	-14176	-712	-7964	43	-13	-76	-1856	-2104	16704	35	-107	180	-13400	3436	9256	135	-11	-152	-14576	-1116	-7764	86	13	152	-1652	2748	16784	177	-37	27	126	127	5
-12496	-96	10092	-79	137	-178	-14156	-744	-7916	41	13	-92	-1860	-2112	16784	26	-115	204	-13340	3424	9208	134	-38	-162	-14572	-1060	-7764	84	12	157	-1652	2744	16844	165	11	82	126	127	5
-12512	-44	10012	-98	164	-188	-14192	-676	-8072	50	-5	-73	-1944	-2152	16712	5	-146	188	-13384	3460	9260	118	-29	-126	-14536	-1020	-7796	70	22	125	-1676	2752	16820	186	-3	65	126	127	5
-12492	-84	10136	-88	198	-189	-14144	-720	-8100	-27	-36	-54	-1932	-2172	16744	15	-101	190	-13452	3480	9228	133	-29	-116	-14496	-1020	-7948	42	30	106	-1676	2800	16956	198	3	77	126	127	5
-12456	-64	10080	-84	158	-173	-14168	-724	-7984	-15	-16	-115	-1932	-2088	16796	69	-114	178	-13396	3508	9300	109	-26	-143	-14500	-1128	-7800	30	66	97	-1644	2732	16976	172	47	83	126	127	5
-12484	-48	10180	-57	155	-181	-14144	-736	-8028	-8	-21	-61	-1928	-2088	16756	63	-101	254	-13404	3444	9356	130	-19	-135	-14504	-1020	-7824	-6	26	119	-1692	2792	16920	229	62	116	126	127	5
-12476	-64	10124	-89	141	-190	-14172	-660	-8104	-66	-27	-87	-1944	-2056	16712	63	-118	232	-13376	3432	9240	118	-40	-106	-14484	-1076	-7760	14	13	99	-1696	2688	16900	223	7	123	126	127	5
-12484	-52	10216	-90	155	-191	-14152	-748	-7956	-47	-45	-99	-1896	-2020	16604	62	-152	223	-13372	3456	9348	124	22	-110	-14492	-1100	-7716	49	-6	116	-1692	2816	16948	205	36	116	126	127	5
-12512	-68	10208	-96	123	-208	-14180	-672	-7988	-53	-22	-157	-1964	-1984	16772	34	-155	203	-13428	3416	9280	102	-29	-161	-14512	-1084	-7820	53	14	114	-1748	2824	16808	200	15	65	126	127	5
-12516	-56	10128	-85	147	-196	-14156	-664	-7948	2	-17	-131	-1980	-2064	16748	19	-151	274	-13408	3440	9280	121	-19	-146	-14488	-1052	-7848	50	-29	96	-1724	2832	16820	170	31	47	125	127	5
-12480	16	10156	-108	146	-224	-14104	-704	-8044	64	-26	-147	-1912	-2108	16752	-13	-158	183	-13396	3432	9204	108	-50	-98	-14420	-1024	-7824	61	-8	110	-1728	2864	16848	143	46	5	126	127	5
-12384	-96	10124	-117	157	-218	-14184	-836	-8084	55	-32	-113	-1904	-2016	16652	-47	-162	169	-13400	3472	9316	112	-83	-114	-14496	-996	-7848	54	-73	111	-1816	2912	16924	100	18	3	126	127	5
-12508	-44	10172	-121	131	-169	-14124	-704	-8036	142	-24	-103	-1880	-1948	16700	-75	-140	88	-13444	3440	9288	106	-44	-143	-14504	-1028	-7856	56	-78	110	-1820	2892	16832	7	18	-65	126	127	5
-12440	-52	10160	-117	122	-204	-14144	-680	-7920	64	-3	-89	-1884	-2096	16684	-158	-121	59	-13396	3468	9236	109	-29	-133	-14548	-1092	-7856	117	-108	128	-1756	2820	16908	-8	50	-66	126	127	5
-12448	-68	10084	-133	130	-234	-14176	-720	-7984	38	-67	-115	-1876	-2080	16756	-163	-106	49	-13364	3508	9240	83	-84	-152	-14532	-992	-7844	174	-117	65	-1784	2796	16908	-51	0	-82	126	127	5
-12448	-52	10076	-106	130	-199	-14140	-812	-7904	31	-2	-89	-1876	-2176	16712	-138	-94	39	-13420	3392	9304	88	-93	-169	-14576	-1068	-7832	178	-120	87	-1708	2692	16832	-56	0	-67	126	127	5
-12476	-80	10060	-105	138	-215	-14116	-748	-7908	131	-23	-89	-1840	-2204	16624	-150	-101	24	-13380	3476	9240	101	-53	-193	-14568	-1056	-7764	184	-137	102	-1660	2648	16908	-3	2	-50	126	127	5
-12388	-80	10140	-107	158	-241	-14212	-772	-7924	146	-3	-74	-1896	-2200	16668	-128	-107	65	-13384	3500	9224	74	-66	-149	-14540	-984	-7676	169	-113	97	-1668	2592	16780	42	36	-19	126	127	5
-12412	-56	10112	-69	156	-209	-14132	-760	-7932	136	36	-61	-1788	-2252	16624	-73	-105	60	-13352	3400	9280	95	-84	-164	-14472	-1148	-7660	145	-87	96	-1584	2476	16852	93	-36	2	125	127	5
-12480	-28	9996	-114	135	-187	-14140	-752	-7916	47	9	-50	-1676	-2292	16752	-23	-92	106	-13364	3436	9248	131	-15	-131	-14520	-1212	-7648	105	-18	99	-1536	2380	16720	145	-22	56	126	127	5
-12444	-56	10228	-55	172	-208	-14184	-748	-7856	10	35	-55	-1744	-2264	16592	21	-81	182	-13360	3408	9260	114	-34	-129	-14608	-1252	-7676	99	45	152	-1560	2456	16804	220	12	69	126	127	5
-12440	-136	10120	-99	149	-151	-14168	-760	-7884	4	61	-25	-1752	-2432	16636	82	-101	207	-13412	3440	9264	122	13	-171	-14604	-1196	-7744	67	39	179	-1520	2392	16752	248	9	93	126	127	5
-12488	-128	10152	-69	168	-196	-14196	-864	-7904	-57	68	-29	-1752	-2420	16676	151	-101	238	-13372	3396	9252	131	19	-111	-14544	-1164	-7652	-14	109	201	-1676	2400	16876	365	40	119	126	127	5
-12480	-52	10144	-39	143	-132	-14172	-868	-7964	-31	43	5	-1896	-2360	16652	217	-69	257	-13356	3400	9324	156	44	-81	-14448	-1160	-7688	-41	144	266	-1704	2448	16872	412	23	129	126	127	5
-12524	-100	10212	-51	172	-117	-14148	-836	-7964	-36	61	54	-2000	-2388	16644	241	-49	270	-13420	3356	9332	153	43	-98	-14540	-1180	-7844	-66	148	292	-1768	2508	16836	471	-12	105	127	127	5
-12492	-100	10236	-18	151	-111	-14112	-796	-8120	-62	75	102	-1968	-2284	16688	257	-93	272	-13404	3432	9216	153	14	-94	-14532	-1056	-7892	-60	104	316	-1852	2552	16988	526	-70	90	126	127	5
-12504	-72	10160	-58	148	-136	-14088	-716	-7964	-126	-4	83	-2056	-2284	16696	275	-57	248	-13388	3416	9200	179	49	-76	-14500	-1204	-7872	-19	78	365	-1928	2692	16852	529	-46	48	126	127	5
-12444	-12	10092	-54	143	-140	-14116	-764	-8132	-99	-28	90	-2120	-2084	16716	253	-61	202	-13400	3452	9200	167	38	-41	-14528	-1068	-7976	2	13	374	-1900	2756	16872	503	-49	44	126	127	5
-12496	-16	10148	-67	147	-147	-14124	-676	-8132	-97	-24	95	-2100	-2100	16688	211	-72	173	-13420	3476	9224	176	71	-44	-14528	-1044	-7840	-18	-60	397	-1844	2900	16952	472	-83	17	127	127	5
-12444	-60	10044	-68	95	-109	-14156	-632	-7924	-14	-79	103	-2076	-2012	16712	205	-59	155	-13408	3448	9296	198	-27	-82	-14580	-1036	-7776	34	-59	375	-1884	3028	16804	384	-27	-52	126	127	5
-12508	-28	10124	-39	98	-159	-14124	-552	-8076	-1	-90	101	-2028	-1892	16644	141	-77	102	-13432	3440	9172	208	-30	-69	-14516	-972	-7876	40	-92	332	-1768	2944	16872	357	-58	-73	126	127	5
-12508	-88	10056	-66	100	-180	-14152	-576	-7916	-10	-133	64	-2012	-1848	16704	99	-67	78	-13420	3428	9148	197	-91	-83	-14552	-944	-7924	77	-146	336	-1696	3000	16964	307	-73	-129	126	127	5
-12500	-32	10140	-27	127	-172	-14136	-624	-7964	21	-97	31	-1932	-1748	16648	25	-86	54	-13344	3448	9236	257	-95	-61	-14468	-912	-7820	99	-161	303	-1632	3128	16888	256	-67	-94	126	127	5
-12408	-8	10144	-65	132	-154	-14168	-492	-7944	38	-98	19	-1976	-1792	16724	1	-87	65	-13400	3496	9200	199	-96	-94	-14560	-916	-7816	117	-178	282	-1616	3048	16724	259	-53	-105	126	127	5
-12492	-88	10104	-71	131	-178	-14132	-516	-7992	54	-87	-25	-1968	-1784	16796	-23	-85	82	-13388	3540	9252	169	-98	-96	-14544	-856	-7804	99	-144	213	-1512	3032	16764	192	-57	-91	126	127	5
-12460	0	10108	-91	134	-189	-14208	-524	-8036	72	-87	-72	-1924	-1808	16828	-57	-101	99	-13416	3496	9172	116	-68	-147	-14580	-884	-7584	66	-100	172	-1532	3028	16824	128	-36	-58	126	127	5
-12408	-92	10124	-69	146	-222	-14184	-480	-7940	37	-65	-133	-1796	-1828	16788	-66	-144	162	-13380	3508	9304	106	-68	-168	-14496	-880	-7816	73	-85	100	-1520	2988	16752	90	11	-8	126	127	5
-12460	4	10188	-119	203	-235	-14156	-592	-7944	30	-10	-199	-1896	-1920	16736	-123	-150	132	-13436	3500	9236	109	-104	-166	-14576	-904	-7764	117	-86	57	-1532	2912	16828	16	14	4	126	127	5
-12452	-44	10148	-160	145	-206	-14152	-584	-7836	22	-1	-262	-1860	-1976	16668	-127	-164	231	-13388	3456	9244	60	-4	-152	-14556	-972	-7724	91	-18	21	-1596	2796	16832	-1	14	81	126	127	5
-12428	-28	10160	-123	141	-264	-14140	-652	-7924	34	27	-177	-1856	-2148	16684	-99	-171	254	-13420	3512	9260	70	-41	-158	-14504	-984	-7724	113	-10	-1	-1632	2860	16736	27	21	92	126	128	5
-12468	-72	10148	-113	168	-203	-14108	-672	-7956	28	73	-225	-1828	-2116	16680	-69	-167	237	-13408	3488	9208	39	20	-191	-14548	-1048	-7716	69	-11	-14	-1652	2664	16864	26	49	97	126	127	5
-12484	-68	10112	-130	194	-232	-14132	-760	-7872	15	50	-203	-1872	-2136	16644	-61	-168	221	-13380	3484	9188	65	-71	-182	-14584	-1068	-7760	42	49	-32	-1640	2696	16940	51	39	114	126	127	5
-12420	-52	10148	-126	152	-238	-14136	-732	-8048	13	55	-198	-1912	-2260	16632	-53	-135	270	-13392	3452	9180	57	1	-213	-14512	-1076	-7828	70	49	7	-1664	2592	16788	47	5	105	126	127	5
-12460	-136	10176	-114	151	-212	-14212	-752	-8048	45	52	-143	-1948	-2252	16608	-11	-160	247	-13396	3388	9284	50	-73	-155	-14508	-1168	-7824	49	23	39	-1772	2616	16952	80	56	61	126	127	5
-12560	-84	10232	-112	138	-187	-14080	-764	-8008	16	-32	-109	-1956	-2288	16720	-11	-165	189	-13396	3488	9288	49	-15	-156	-14536	-1160	-7760	51	-19	56	-1836	2616	16940	115	40	89	126	127	5
-12500	-56	10188	-109	139	-218	-14176	-728	-8060	8	18	-119	-1960	-2240	16636	20	-141	155	-13412	3444	9348	68	-13	-179	-14460	-1188	-7936	64	4	97	-1836	2608	16840	139	19	103	126	127	5
-12460	-44	10012	-118	145	-161	-14096	-780	-8060	9	-8	-70	-2016	-2212	16760	56	-123	134	-13420	3424	9316	94	-15	-139	-14540	-1160	-7860	54	-31	102	-1796	2596	16880	185	5	42	126	127	5
-12544	-72	10124	-94	143	-168	-14148	-692	-7996	15	-44	-48	-1968	-2208	16756	28	-107	132	-13368	3420	9236	113	-5	-161	-14452	-1076	-7812	62	-55	166	-1788	2644	16932	176	-14	35	126	127	5
-12508	-108	10128	-100	138	-199	-14180	-704	-8032	-15	-41	-48	-1976	-2176	16752	33	-135	176	-13388	3436	9320	138	-7	-149	-14536	-1124	-7864	58	-72	203	-1724	2632	16916	208	34	43	126	127	5
-12480	-76	10096	-101	125	-176	-14116	-684	-7992	-2	-59	-40	-1892	-2092	16680	52	-116	148	-13344	3392	9272	113	-33	-110	-14532	-1128	-7832	72	-67	169	-1684	2600	16860	218	-32	-5	126	127	5
-12464	-52	10120	-81	112	-172	-14200	-756	-7996	21	-24	-35	-1920	-1992	16656	32	-146	185	-13388	3448	9244	145	-9	-136	-14536	-1072	-7688	73	-77	221	-1708	2648	16844	242	-37	6	126	127	5
-12508	-24	10108	-133	135	-170	-14120	-656	-7912	-8	-59	-33	-1888	-2028	16660	24	-153	177	-13340	3348	9276	146	-22	-124	-14552	-1096	-7808	34	-52	246	-1664	2768	16884	276	-8	22	126	127	5
-12440	-48	10156	-103	135	-162	-14172	-648	-7808	7	-20	-25	-1868	-2036	16724	63	-118	162	-13400	3520	9280	125	-17	-88	-14564	-1000	-7712	42	-70	207	-1640	2736	16844	285	-53	-13	126	127	5
-12492	-8	10032	-111	156	-205	-14132	-644	-8048	-11	-20	-88	-1896	-1996	16704	50	-110	209	-13440	3468	9364	161	-26	-79	-14528	-1032	-7760	44	-27	222	-1580	2772	16876	263	-35	11	126	127	5
-12456	-40	10128	-93	125	-202	-14200	-680	-8032	36	-33	-77	-1808	-2028	16804	27	-123	191	-13428	3432	9236	147	-17	-105	-14564	-1056	-7784	52	26	175	-1644	2852	16876	230	-3	2	126	127	5
-12484	-56	10116	-49	162	-167	-14160	-636	-7908	16	-2	-63	-1888	-2064	16748	42	-128	183	-13324	3468	9364	130	-36	-146	-14568	-972	-7672	64	-17	189	-1616	2812	16872	204	-25	-30	125	128	5
-12452	-56	10060	-91	152	-198	-14136	-704	-7896	7	0	-98	-1912	-2084	16704	15	-91	204	-13340	3448	9268	123	-32	-125	-14528	-1016	-7736	66	-11	177	-1564	2836	16740	155	-35	20	126	127	5
-12460	-28	10220	-103	154	-212	-14144	-660	-7944	47	-18	-63	-1928	-2096	16704	9	-125	223	-13412	3452	9304	130	-44	-140	-14536	-968	-7708	60	38	157	-1732	2888	16868	204	0	23	126	127	5
-12468	-32	10220	-68	141	-212	-14148	-688	-8000	18	19	-118	-1936	-2116	16612	-15	-109	178	-13408	3476	9228	118	-54	-117	-14532	-1020	-7732	53	22	126	-1752	2912	16916	158	-10	35	126	127	5
-12492	-80	10168	-114	163	-185	-14196	-648	-8040	17	3	-69	-1908	-2020	16648	-1	-83	183	-13380	3460	9304	119	-17	-118	-14476	-912	-7800	40	20	118	-1740	2804	16864	183	-14	51	126	127	5
-12456	-76	10116	-101	192	-215	-14176	-692	-8056	-6	-11	-100	-1992	-2072	16696	12	-110	205	-13444	3472	9260	91	-77	-154	-14564	-1008	-7804	39	-4	104	-1760	2768	16824	167	-32	65	126	127	5
-12460	-80	10152	-131	164	-195	-14124	-700	-7928	27	-36	-109	-1916	-2136	16704	-7	-124	179	-13372	3448	9300	84	-43	-127	-14496	-1056	-7808	57	-44	111	-1720	2784	16920	200	-21	56	126	127	5
-12508	-64	10084	-105	138	-178	-14116	-708	-8048	21	-22	-111	-1916	-2160	16648	-11	-142	186	-13400	3460	9252	120	-17	-141	-14504	-1080	-7824	109	-26	116	-1740	2752	16928	166	0	63	126	128	5
-12476	-8	10172	-101	173	-214	-14140	-716	-7984	-21	-42	-132	-1888	-2180	16736	-10	-140	198	-13472	3456	9304	84	-31	-147	-14568	-1024	-7736	103	-16	121	-1724	2736	16812	115	-24	68	126	127	5
-12524	-64	10116	-95	141	-203	-14116	-780	-8040	36	-40	-97	-1856	-2156	16724	10	-120	199	-13404	3484	9244	124	-27	-175	-14544	-1068	-7736	45	0	139	-1652	2668	16864	211	29	50	126	127	5
-12508	-108	10072	-125	138	-177	-14212	-680	-8112	32	-14	-40	-1868	-2136	16696	44	-118	181	-13372	3420	9280	99	1	-175	-14544	-1128	-7732	62	-1	110	-1716	2700	16808	179	-1	50	126	127	5
-12372	-48	10096	-96	136	-184	-14152	-696	-7976	-6	-3	-61	-1804	-2104	16716	40	-112	175	-13400	3492	9312	123	2	-139	-14544	-1052	-7784	59	-56	131	-1656	2652	16904	196	27	31	126	127	5
-12444	-40	10056	-66	131	-178	-14072	-712	-7952	-23	-48	-78	-1900	-2040	16696	-3	-100	158	-13332	3476	9244	136	-24	-140	-14556	-1084	-7832	54	-22	158	-1700	2728	16860	197	-5	53	126	127	5
-12488	-40	10080	-102	137	-162	-14128	-704	-8016	-9	17	-64	-1876	-2052	16712	23	-123	164	-13452	3468	9268	129	-40	-120	-14536	-1096	-7700	10	23	168	-1736	2764	16772	211	-22	36	126	127	5
-12464	-48	10068	-111	149	-198	-14172	-676	-8012	-9	-28	-39	-1940	-2092	16816	-9	-134	157	-13336	3480	9364	108	-37	-87	-14548	-1076	-7752	63	6	185	-1720	2768	16908	195	6	27	126	127	5
-12428	-48	10100	-82	158	-170	-14216	-672	-7940	3	-13	-88	-1912	-2084	16644	50	-121	150	-13444	3424	9348	145	-5	-143	-14512	-1000	-7780	45	30	180	-1716	2732	16916	190	4	41	126	127	5
-12504	-8	10112	-76	161	-207	-14148	-628	-7972	32	7	-83	-1920	-2128	16688	71	-87	194	-13380	3440	9276	115	-43	-128	-14496	-1060	-7700	58	-17	171	-1712	2736	16792	217	15	56	126	127	5
-12464	-72	10108	-64	163	-195	-14140	-656	-8020	18	16	-64	-1872	-2056	16696	54	-123	191	-13352	3480	9284	98	-62	-128	-14604	-1040	-7824	70	-19	173	-1748	2796	16860	217	-15	47	126	127	5
-12428	16	10200	-89	132	-224	-14124	-656	-8036	26	-18	-62	-1916	-2080	16780	24	-108	157	-13396	3460	9252	93	-30	-122	-14552	-1080	-7712	58	11	131	-1700	2824	16900	189	-8	45	126	127	5
-12468	-60	10092	-106	139	-193	-14152	-660	-8036	0	-38	-67	-1948	-2004	16724	33	-95	134	-13396	3388	9204	110	-55	-137	-14476	-1032	-7788	68	-14	172	-1744	2788	16900	181	-6	17	126	127	5
-12444	-84	10124	-95	160	-199	-14152	-664	-8088	-19	24	-89	-1972	-1984	16724	9	-122	171	-13448	3464	9364	137	-52	-154	-14536	-1020	-7908	51	4	160	-1680	2852	16912	198	-10	57	126	127	5
-12432	-72	10008	-109	131	-173	-14164	-636	-7968	-8	-38	-116	-1964	-2048	16736	-35	-130	165	-13432	3396	9316	121	-14	-135	-14512	-992	-7884	92	-50	155	-1712	2792	16996	173	14	17	126	127	5
-12500	-80	10036	-99	133	-212	-14140	-712	-8016	22	-99	-113	-1956	-2120	16576	-1	-144	142	-13444	3476	9272	79	-10	-154	-14488	-956	-7744	80	-80	135	-1712	2772	16908	166	8	45	126	127	5
-12444	-88	10148	-118	129	-170	-14168	-688	-8036	-10	-66	-123	-1940	-2056	16668	-9	-99	156	-13484	3460	9244	99	-19	-171	-14596	-1032	-7720	71	-61	140	-1672	2844	16844	182	11	48	126	127	5
-12452	-44	10068	-97	159	-233	-14168	-744	-8064	-3	-69	-134	-1880	-2040	16696	-49	-132	141	-13380	3488	9304	114	-31	-150	-14540	-1112	-7744	76	-63	86	-1668	2720	16884	156	7	27	126	127	5
-12424	-80	10096	-83	150	-202	-14156	-684	-7896	22	-21	-150	-1912	-2108	16580	-33	-116	174	-13416	3448	9156	127	-60	-136	-14568	-1032	-7744	94	-15	121	-1660	2780	16800	160	10	47	126	127	5
-12444	-36	10128	-100	136	-198	-14124	-708	-8112	13	-31	-86	-1924	-2144	16624	-3	-117	125	-13320	3436	9312	137	-89	-149	-14512	-1096	-7740	104	-63	79	-1700	2704	16884	163	-9	28	126	127	5
-12448	-16	10080	-101	149	-187	-14164	-700	-8056	13	-4	-112	-1896	-2148	16784	-12	-127	156	-13364	3456	9276	149	-57	-137	-14500	-1052	-7768	84	-23	101	-1612	2724	16852	157	18	29	126	127	5
-12496	-28	10184	-64	152	-192	-14152	-704	-7916	8	-5	-87	-1888	-2132	16652	-17	-84	147	-13336	3500	9256	135	-55	-124	-14516	-1052	-7684	65	-1	123	-1608	2640	16888	148	-12	31	126	127	5
-12460	-16	10236	-71	146	-203	-14180	-708	-8036	18	8	-69	-1892	-2224	16704	-1	-86	163	-13324	3496	9272	157	-38	-175	-14604	-1116	-7764	65	65	127	-1688	2672	16908	145	8	62	126	127	5
-12492	-88	10104	-39	120	-204	-14124	-740	-7996	-8	7	-50	-1888	-2188	16688	21	-153	118	-13444	3476	9276	153	-70	-141	-14572	-1132	-7732	58	15	153	-1648	2652	16912	210	-4	36	126	127	5
-12480	-88	10072	-43	148	-165	-14112	-696	-8036	-21	17	-85	-1900	-2192	16672	80	-108	159	-13396	3484	9312	145	-28	-141	-14512	-1028	-7720	10	59	144	-1704	2676	16800	212	5	89	126	127	5
-12508	-56	10024	-49	136	-178	-14136	-716	-8056	-11	-27	-66	-1896	-2156	16756	96	-107	230	-13348	3460	9276	139	10	-113	-14548	-1052	-7724	1	55	126	-1760	2740	16888	250	-1	120	126	127	5
-12488	-40	10152	-95	173	-166	-14164	-676	-7952	12	19	-48	-1984	-2212	16616	54	-116	199	-13408	3440	9292	102	-18	-131	-14496	-1076	-7840	54	50	159	-1736	2736	16872	219	12	111	126	127	5
-12480	-68	10144	-62	133	-214	-14132	-668	-8068	30	-4	-74	-2016	-2144	16744	82	-117	184	-13456	3412	9376	131	-5	-132	-14544	-1028	-7796	56	-17	186	-1676	2756	16892	245	34	88	126	127	5
-12424	-60	10204	-85	141	-155	-14096	-632	-7992	-11	-52	-63	-2020	-2128	16560	81	-92	160	-13360	3428	9308	139	-17	-127	-14592	-1036	-7784	77	-10	170	-1720	2700	16912	256	58	96	126	127	5
-12500	-48	10244	-76	121	-185	-14148	-672	-8056	-27	-65	-28	-1868	-2052	16512	78	-66	138	-13416	3508	9236	102	-20	-143	-14532	-1028	-7940	67	-44	183	-1732	2828	16856	259	7	75	126	127	5
-12472	-56	10176	-142	153	-173	-14148	-668	-8032	-64	-103	-55	-1948	-1972	16784	49	-98	163	-13420	3476	9264	124	-44	-156	-14540	-1040	-7844	-8	-9	152	-1764	2788	16752	244	-39	44	126	127	5
-12420	-104	10076	-90	115	-190	-14160	-596	-8052	14	-51	-62	-1896	-2008	16696	18	-123	187	-13344	3488	9284	115	-3	-129	-14576	-972	-7792	43	13	127	-1756	2880	16948	206	-30	56	126	127	5
-12452	-48	10156	-89	144	-182	-14140	-580	-7924	8	4	-97	-1864	-2036	16620	43	-167	187	-13352	3448	9304	80	6	-120	-14560	-1072	-7772	37	-14	141	-1552	2804	16860	141	26	61	126	127	5
-12452	-68	10168	-71	162	-193	-14180	-660	-7996	-24	-4	-68	-1888	-1960	16668	69	-166	182	-13356	3476	9288	86	40	-140	-14576	-1104	-7776	129	-5	131	-1684	2840	16768	169	2	61	126	127	5
-12472	-28	10100	-115	164	-180	-14104	-696	-7904	4	2	-106	-1908	-2032	16732	78	-140	177	-13428	3412	9184	99	27	-99	-14560	-1024	-7732	126	-16	124	-1700	2900	16836	100	45	60	126	127	5
-12524	-60	10140	-106	162	-181	-14148	-692	-7980	57	22	-89	-1908	-2044	16748	-14	-153	158	-13472	3480	9360	104	-2	-112	-14500	-1040	-7652	61	11	86	-1740	2924	16848	105	83	13	126	127	5
-12488	-28	10184	-117	153	-209	-14160	-664	-7916	72	1	-78	-1940	-2060	16664	-70	-118	148	-13464	3468	9308	105	-26	-122	-14492	-992	-7788	36	-23	109	-1788	2816	16996	100	28	-16	126	127	5
-12524	-60	10172	-115	142	-196	-14096	-696	-8016	59	4	-92	-2052	-2116	16660	-75	-111	149	-13364	3444	9316	96	-12	-152	-14556	-1056	-7788	41	-53	86	-1756	2828	16672	61	6	-14	126	127	5
-12512	-20	10096	-142	162	-205	-14148	-712	-8124	44	-9	-101	-2028	-2176	16824	-71	-156	126	-13376	3452	9164	119	-9	-122	-14564	-1072	-7800	88	-75	53	-1876	2772	16888	39	-7	20	126	127	5
-12468	-124	10052	-93	140	-194	-14080	-696	-8208	25	-55	-75	-2048	-2136	16776	-48	-147	106	-13356	3436	9200	91	-37	-163	-14500	-992	-7844	93	-88	93	-1852	2800	16912	27	-7	-19	126	127	5
-12528	-48	10188	-76	112	-183	-14116	-712	-7992	57	-94	-77	-1996	-2148	16620	-33	-163	95	-13312	3420	9392	87	-35	-141	-14536	-1108	-7708	129	-105	95	-1776	2704	16932	77	0	32	126	127	5
-12440	-4	10072	-91	105	-194	-14152	-748	-8044	44	-61	-56	-2004	-2200	16688	-40	-172	100	-13344	3420	9196	112	-62	-165	-14588	-1016	-7728	143	-136	95	-1772	2756	16868	78	4	-3	126	127	5
