#Activity	sitting 
#ActivityID	5 
#Date 10-21-15-25
acc_rf_x	acc_rf_y	acc_rf_z	gyro_rf_x	gyro_rf_y	gyro_rf_z	acc_rs_x	acc_rs_y	acc_rs_z	gyro_rs_x	gyro_rs_y	gyro_rs_z	acc_rt_x	acc_rt_y	acc_rt_z	gyro_rt_x	gyro_rt_y	gyro_rt_z	acc_lf_x	acc_lf_y	acc_lf_z	gyro_lf_x	gyro_lf_y	gyro_lf_z	acc_ls_x	acc_ls_y	acc_ls_z	gyro_ls_x	gyro_ls_y	gyro_ls_z	acc_lt_x	acc_lt_y	acc_lt_z	gyro_lt_x	gyro_lt_y	gyro_lt_z	EMG_r	EMG_l	act
-5724	-4996	14748	109	-21	-122	-15544	444	-4556	-23	-65	-83	-2440	-432	16848	25	-3	5	-7996	4124	13248	-100	144	-179	-15984	2676	-4268	113	-4	140	-2536	-948	16672	54	-108	201	127	119	5
-5740	-5012	14760	76	-25	-87	-15644	472	-4564	-36	-81	-79	-2560	-416	16856	25	-4	3	-7996	4020	13276	-80	120	-175	-15940	2644	-4296	72	-55	137	-2512	-940	16608	46	-103	232	127	120	5
-5764	-5004	14704	106	-44	-146	-15636	448	-4548	-39	-48	-87	-2464	-584	16784	24	-5	4	-7928	4060	13248	-91	100	-186	-15940	2632	-4228	36	-13	125	-2484	-932	16664	-11	-115	205	126	120	5
-5692	-4972	14752	91	-59	-141	-15648	500	-4556	-51	-95	-78	-2416	-480	17024	22	0	6	-7936	4032	13208	-85	67	-150	-15972	2600	-4268	43	13	118	-2548	-1020	16584	47	-112	227	127	119	5
-5760	-5060	14792	98	-46	-126	-15620	400	-4508	-4	-68	-111	-2568	-376	16960	17	-5	4	-7968	4036	13328	-123	80	-147	-15948	2592	-4260	55	-29	136	-2520	-1004	16620	85	-133	186	126	120	5
-5728	-5048	14804	98	-22	-128	-15588	432	-4524	-34	-78	-83	-2464	-344	17232	23	-3	5	-7896	4212	13196	-105	123	-163	-16064	2592	-4260	122	10	109	-2500	-1028	16604	37	-138	193	126	120	5
-5748	-5024	14784	110	-52	-113	-15640	460	-4520	-41	-73	-74	-2416	-408	17032	26	-5	2	-7952	4128	13296	-120	133	-169	-16068	2668	-4208	123	-74	160	-2568	-936	16656	32	-128	209	127	119	5
-5748	-5064	14848	104	-38	-137	-15652	312	-4548	-9	-120	-65	-2464	-472	16856	26	-3	2	-7996	4072	13424	-143	140	-147	-15924	2564	-4236	90	-56	120	-2452	-928	16480	67	-129	211	127	119	5
-5728	-5024	14828	113	-36	-147	-15600	372	-4564	10	-89	-54	-2512	-312	17064	25	-3	4	-7924	4132	13240	-95	154	-142	-16004	2660	-4220	53	-58	110	-2432	-1028	16680	14	-127	229	126	120	5
-5760	-5020	14840	115	-64	-108	-15688	412	-4524	5	-60	-38	-2504	-576	16992	27	-2	5	-7960	4152	13316	-92	115	-182	-15956	2544	-4192	147	-22	143	-2428	-972	16596	18	-146	209	127	120	5
-5768	-5100	14908	110	-62	-98	-15700	420	-4540	-31	-63	-58	-2360	-328	17200	31	-3	0	-7992	4112	13244	-102	129	-154	-15996	2616	-4312	157	-9	163	-2476	-956	16548	10	-135	173	126	120	5
-5720	-5040	14820	138	-34	-90	-15632	480	-4508	-11	-74	-56	-2400	-368	17128	27	-2	1	-7960	4072	13148	-154	120	-155	-15964	2604	-4240	126	-26	176	-2532	-940	16544	47	-122	232	126	120	5
-5760	-5080	14824	111	-14	-140	-15676	456	-4528	-24	-11	-75	-2328	-320	16952	27	-3	0	-7904	4112	13136	-111	166	-180	-16008	2592	-4284	61	23	147	-2520	-904	16708	45	-139	228	126	120	5
-5748	-5028	14844	122	15	-119	-15644	484	-4608	21	-45	-37	-2456	-456	16824	27	-4	3	-7976	4108	13272	-124	145	-134	-16012	2672	-4208	42	12	127	-2480	-928	16616	60	-133	228	126	120	5
-5728	-4992	14756	91	7	-93	-15628	468	-4524	17	-57	-30	-2520	-376	17112	25	-2	2	-7940	4108	13272	-96	117	-165	-15952	2656	-4220	56	26	142	-2504	-932	16684	2	-153	222	126	120	5
-5796	-5076	14832	101	-48	-127	-15668	444	-4576	1	-30	-73	-2568	-376	16888	29	-4	4	-7936	4064	13328	-101	154	-192	-15992	2584	-4276	83	10	131	-2500	-984	16644	14	-154	232	126	119	5
-5728	-4988	14892	115	-10	-103	-15684	444	-4524	-12	-55	-81	-2328	-408	17096	31	-3	0	-7988	4152	13300	-101	129	-181	-15940	2656	-4304	96	9	148	-2520	-984	16616	49	-150	244	126	119	5
-5800	-4972	14876	135	-80	-114	-15584	468	-4504	-42	-40	-56	-2376	-360	16968	27	5	7	-7956	4100	13292	-53	121	-127	-15976	2592	-4260	17	-5	101	-2532	-952	16648	14	-112	235	126	119	5
-5764	-5108	14832	99	-39	-139	-15680	408	-4548	31	-48	-11	-2592	-440	16856	27	0	2	-7996	4116	13252	-93	90	-185	-15948	2588	-4416	-87	-6	101	-2516	-1016	16548	54	-100	208	127	120	5
-5708	-5072	14740	68	-28	-88	-15676	464	-4464	26	-17	-76	-2392	-448	17064	24	-5	0	-7880	3884	12976	-95	1	-141	-15720	2560	-4316	78	47	115	-2432	-1044	16552	35	-105	197	126	120	5
-5656	-5020	14840	124	-51	-100	-15632	392	-4596	-2	-56	-78	-2512	-384	16904	20	1	4	-7960	4024	13212	-80	-37	-142	-15952	2720	-4396	10	34	138	-2524	-1124	16616	114	-45	220	127	119	5
-5720	-5032	14784	95	-45	-106	-15680	440	-4480	-1	-35	-58	-2496	-528	17168	24	-2	5	-7932	3980	13216	-167	-76	-136	-15944	2560	-4236	-49	47	135	-2524	-996	16624	133	-38	202	126	119	5
-5692	-5032	14700	90	-46	-119	-15676	524	-4528	-22	-35	-48	-2416	-480	17152	29	-3	5	-7876	4164	13240	-147	-67	-92	-15964	2616	-4192	-42	26	164	-2480	-1064	16616	74	-50	190	126	119	5
-5796	-5100	14856	113	-58	-130	-15620	416	-4540	23	-77	-66	-2280	-472	16768	25	-5	4	-7916	4092	13228	-154	-65	-129	-16072	2588	-4256	-39	8	162	-2496	-1040	16700	48	-72	181	126	119	5
-5744	-5008	14756	153	-81	-109	-15640	420	-4684	-29	-25	-44	-2472	-328	16704	33	-1	0	-7860	4064	13172	-107	3	-144	-16020	2584	-4232	29	9	192	-2532	-960	16684	34	-81	169	127	119	5
-5692	-4968	14708	120	6	-133	-15684	384	-4548	-46	-55	-59	-2408	-392	17176	29	-2	1	-7912	4096	13140	-86	2	-153	-16004	2616	-4264	97	-7	177	-2512	-956	16672	109	-61	181	127	119	5
-5740	-5032	14780	132	-3	-106	-15624	416	-4576	-3	-43	-29	-2512	-576	16760	31	0	1	-7840	4052	13392	-97	35	-166	-15992	2688	-4192	120	-11	178	-2524	-968	16488	110	-99	209	126	119	5
-5796	-5012	14828	136	-79	-138	-15656	420	-4584	-11	-117	-13	-2504	-392	16920	31	1	1	-7860	4088	13228	-109	86	-128	-15976	2692	-4232	122	-7	173	-2524	-872	16632	72	-129	217	126	120	5
-5792	-4968	14692	149	-35	-114	-15668	428	-4576	-17	-43	-24	-2536	-408	16760	31	-4	3	-7916	4172	13324	-98	79	-179	-16028	2676	-4300	49	-9	114	-2572	-872	16620	73	-150	196	126	119	5
-5772	-4992	14752	116	-68	-115	-15632	456	-4568	-7	-65	-31	-2472	-224	16992	28	-8	-3	-7864	4084	13348	-140	112	-168	-15988	2632	-4172	71	-5	153	-2532	-900	16684	49	-118	246	126	120	5
-5680	-5008	14792	116	8	-132	-15628	412	-4604	5	-35	-36	-2552	-456	16880	30	-3	1	-7892	4060	13404	-128	100	-151	-16012	2648	-4336	57	5	139	-2404	-884	16616	30	-125	204	127	120	5
-5732	-4964	14784	113	-52	-145	-15620	488	-4504	-24	-55	-16	-2408	-408	17080	35	-2	-1	-7848	4072	13296	-136	95	-151	-15972	2696	-4244	129	-23	141	-2416	-904	16608	54	-95	221	126	119	5
-5748	-4996	14900	113	-12	-122	-15692	508	-4556	-23	-52	-55	-2392	-320	17136	23	0	5	-7844	4048	13292	-99	97	-178	-16016	2696	-4236	71	-18	145	-2500	-896	16696	51	-121	221	126	119	5
-5784	-4960	14752	110	-46	-102	-15692	408	-4576	10	-47	-67	-2496	-408	16832	24	-3	4	-7924	4128	13232	-95	159	-193	-15960	2680	-4324	48	4	127	-2512	-972	16596	43	-141	202	127	120	5
-5700	-4956	14768	100	-40	-102	-15660	456	-4476	13	-41	-48	-2480	-472	16800	25	-1	6	-7912	4080	13304	-108	125	-176	-16024	2620	-4248	83	25	152	-2516	-936	16632	43	-134	237	127	120	5
-5800	-5020	14820	82	-84	-90	-15632	480	-4384	-40	-33	-60	-2480	-408	16896	25	2	4	-7852	4068	13216	-147	102	-190	-15936	2648	-4332	115	10	125	-2484	-948	16692	40	-128	206	126	119	5
-5716	-5048	14740	94	-2	-157	-15644	408	-4524	-1	-50	-65	-2440	-432	16760	26	-3	1	-7896	4108	13284	-75	108	-200	-15952	2636	-4196	78	2	151	-2600	-896	16732	10	-109	204	126	120	5
-5696	-4984	14788	92	-36	-145	-15644	488	-4572	-32	-87	-37	-2456	-480	16816	28	-4	0	-7888	4120	13352	-92	144	-155	-15964	2688	-4188	66	12	151	-2512	-940	16588	-5	-126	216	127	119	5
-5780	-5000	14744	122	-14	-115	-15660	476	-4484	11	-47	-45	-2304	-464	17024	27	0	0	-7844	4028	13356	-117	160	-159	-16028	2628	-4168	75	-34	132	-2532	-948	16632	28	-116	208	127	119	5
-5752	-5016	14804	116	-58	-108	-15612	408	-4536	-6	-29	-89	-2520	-432	17112	25	2	1	-7832	4128	13240	-93	147	-219	-15980	2668	-4264	85	-11	107	-2536	-960	16608	34	-123	201	127	119	5
-5824	-5016	14892	111	-13	-113	-15612	432	-4504	-4	-55	-38	-2488	-312	16904	23	-1	4	-7852	4040	13224	-109	139	-187	-15988	2628	-4228	73	21	126	-2552	-952	16616	27	-106	201	127	119	5
-5772	-5024	14844	104	-2	-71	-15596	452	-4480	-6	-57	-78	-2520	-416	16800	25	-5	4	-7864	4120	13364	-135	165	-165	-15936	2584	-4320	79	-66	141	-2568	-948	16660	56	-106	192	127	119	5
-5744	-4980	14816	134	-58	-129	-15660	488	-4436	12	-31	-26	-2472	-344	16864	28	-5	2	-7832	4100	13260	-112	133	-162	-15984	2624	-4276	86	23	135	-2556	-920	16648	40	-117	177	126	119	5
-5696	-5096	14836	106	-46	-103	-15716	428	-4452	-46	-54	-61	-2528	-392	17008	26	-5	5	-7912	4108	13404	-94	124	-185	-15956	2656	-4284	71	-28	134	-2540	-960	16596	35	-135	225	126	120	5
-5780	-5132	14884	104	-16	-144	-15676	416	-4448	-19	-59	-48	-2456	-528	16856	29	3	0	-7912	4064	13364	-94	140	-185	-15984	2588	-4340	34	-35	129	-2532	-948	16668	21	-135	198	126	120	5
-5784	-5016	14844	133	-37	-124	-15740	428	-4540	7	-74	-50	-2592	-408	16784	24	0	3	-7892	4132	13192	-85	152	-171	-16000	2676	-4152	63	-25	139	-2480	-1016	16592	22	-100	238	126	119	5
-5764	-5032	14836	106	-59	-108	-15684	448	-4548	-2	-76	-25	-2520	-264	16720	26	-4	1	-7836	4112	13260	-86	173	-179	-15944	2640	-4300	80	-13	144	-2556	-928	16688	50	-98	243	126	119	5
-5804	-5020	14792	87	-22	-121	-15612	456	-4512	-16	-56	-43	-2416	-336	16800	26	2	2	-7832	4072	13380	-134	157	-184	-15904	2660	-4392	55	-10	163	-2536	-948	16548	38	-133	226	127	119	5
-5756	-5056	14744	99	-25	-97	-15676	396	-4584	16	-66	-79	-2600	-520	16656	27	-3	3	-7876	4032	13308	-64	146	-168	-16000	2580	-4316	87	-26	142	-2572	-884	16660	31	-169	214	127	119	5
-5788	-4964	14816	126	-75	-114	-15608	480	-4556	29	-72	-58	-2472	-400	16968	19	-5	-2	-7904	4112	13260	-100	155	-197	-15888	2612	-4340	70	-28	163	-2576	-936	16640	28	-147	217	126	119	5
-5728	-5012	14780	93	-3	-126	-15596	432	-4492	9	-84	-57	-2432	-584	16832	18	-5	-2	-7908	4032	13212	-97	145	-172	-15912	2588	-4268	97	-47	114	-2516	-936	16632	14	-159	199	126	119	5
-5756	-5036	14880	89	-110	-94	-15624	476	-4464	-26	-57	-21	-2472	-328	16944	25	-5	3	-7880	4076	13312	-101	147	-152	-15976	2652	-4300	81	-58	130	-2552	-928	16520	18	-140	200	126	119	5
-5720	-5024	14808	71	-88	-103	-15684	428	-4572	-27	-83	-96	-2432	-280	16832	28	-4	6	-7888	4068	13380	-98	117	-158	-15964	2668	-4304	100	-28	142	-2488	-960	16572	43	-98	200	126	119	5
-5704	-5024	14760	94	-41	-143	-15644	428	-4448	-10	-83	-40	-2248	-312	17144	27	-2	1	-7896	4088	13344	-72	133	-180	-15952	2676	-4316	96	-58	168	-2516	-892	16620	53	-135	192	126	119	5
-5736	-4956	14832	104	-56	-157	-15676	480	-4480	-1	-49	-61	-2392	-440	16912	22	0	3	-7828	4028	13280	-69	168	-174	-15960	2628	-4356	40	-3	136	-2488	-984	16660	16	-71	183	126	119	5
-5740	-5044	14820	100	-22	-121	-15676	424	-4428	47	-82	-95	-2232	-440	16816	22	-4	1	-7912	4080	13292	-76	151	-176	-15928	2648	-4312	82	2	169	-2432	-856	16632	33	-135	208	127	120	5
-5804	-5044	14772	101	-5	-124	-15684	460	-4556	3	-34	-52	-2512	-400	16816	20	-4	3	-7876	4036	13316	-53	149	-163	-15956	2636	-4220	102	-34	124	-2532	-884	16624	28	-80	180	127	119	5
-5684	-4960	14864	91	-51	-120	-15724	420	-4592	-3	-54	-126	-2304	-392	17120	28	-4	2	-7900	4120	13356	-26	161	-176	-15988	2752	-4316	45	-6	127	-2524	-912	16616	53	-149	212	126	119	5
-5696	-5028	14720	112	-20	-121	-15664	464	-4496	29	-54	-41	-2560	-376	16832	30	0	7	-7876	4124	13296	-74	168	-191	-15988	2684	-4208	38	44	106	-2568	-1008	16604	46	-134	228	126	119	5
-5780	-4988	14968	132	-27	-122	-15624	468	-4496	6	-49	-52	-2584	-256	17000	25	-1	6	-7836	4132	13292	-89	188	-172	-15996	2620	-4280	100	-32	153	-2564	-960	16604	41	-140	266	127	120	5
-5740	-5060	14840	145	-74	-90	-15640	408	-4576	-17	-8	-39	-2392	-424	16792	32	-1	-1	-7928	4044	13276	-87	142	-165	-15928	2692	-4328	79	27	143	-2556	-880	16656	20	-139	223	127	119	5
-5740	-5052	14760	112	-17	-119	-15620	480	-4576	-8	-34	-58	-2400	-416	17192	24	2	4	-7856	4064	13240	-100	147	-159	-15956	2728	-4180	69	17	139	-2620	-920	16660	31	-143	215	127	119	5
-5688	-4992	14864	117	-35	-114	-15656	520	-4568	-11	-73	-41	-2464	-280	17032	29	0	1	-7932	4120	13296	-71	147	-169	-15976	2688	-4260	60	-4	140	-2572	-896	16688	18	-138	209	127	120	5
-5756	-5024	14836	108	-47	-124	-15652	440	-4596	-30	-59	-24	-2504	-456	16680	23	-3	3	-7876	4120	13340	-110	161	-173	-15984	2680	-4276	77	-16	114	-2576	-932	16724	50	-150	233	127	120	5
-5696	-5024	14748	124	-49	-125	-15584	496	-4584	-21	-100	-71	-2464	-256	17088	23	0	6	-7904	4100	13256	-86	142	-181	-15952	2620	-4328	107	-41	116	-2516	-988	16624	41	-130	223	127	119	5
-5740	-4980	14848	78	-19	-103	-15600	408	-4648	-5	-65	-69	-2440	-432	16896	23	-4	-1	-7888	4048	13272	-119	138	-170	-15928	2632	-4292	98	-53	164	-2540	-896	16704	55	-132	217	127	119	5
-5796	-5040	14768	99	-50	-128	-15696	456	-4624	-45	-62	-51	-2528	-496	16840	22	2	1	-7860	4096	13256	-101	162	-203	-15936	2616	-4292	109	-16	100	-2576	-956	16656	72	-124	205	127	119	5
-5708	-4960	14908	109	-38	-134	-15660	444	-4568	-38	-49	-59	-2536	-440	17120	23	-1	2	-7908	4104	13340	-110	135	-188	-15936	2656	-4196	113	-60	149	-2508	-964	16648	40	-121	172	126	119	5
-5720	-5024	14840	97	-3	-144	-15704	376	-4516	-33	-87	-95	-2472	-400	16592	24	-2	4	-7864	4064	13364	-122	140	-184	-15944	2660	-4368	106	-48	147	-2480	-928	16600	75	-126	218	127	120	5
-5680	-5000	14800	89	-26	-116	-15664	416	-4460	-8	-79	-56	-2456	-400	17048	23	1	3	-7928	4088	13352	-130	152	-216	-16004	2644	-4252	89	-23	144	-2496	-928	16648	37	-142	187	126	119	5
-5760	-5004	14804	85	-13	-103	-15692	428	-4492	3	-99	-96	-2424	-480	17064	25	-2	1	-7828	4120	13312	-134	144	-165	-15996	2648	-4340	89	-80	137	-2488	-968	16600	35	-114	203	126	120	5
-5796	-5060	14748	89	-80	-120	-15648	480	-4484	39	-57	-34	-2488	-360	16912	24	0	6	-7880	4132	13296	-194	160	-147	-15968	2672	-4288	94	-1	129	-2456	-956	16792	17	-146	212	127	120	5
-5700	-5056	14780	109	-90	-107	-15632	420	-4552	-28	-72	-44	-2424	-280	16936	22	-2	2	-7868	4044	13276	-148	141	-205	-15940	2644	-4308	91	-2	179	-2532	-924	16556	-16	-128	201	126	120	5
-5716	-5028	14856	133	-19	-118	-15640	404	-4532	-14	-33	-42	-2400	-536	16968	23	0	1	-7872	4068	13296	-132	166	-166	-15980	2752	-4328	69	4	134	-2492	-900	16720	11	-141	195	126	120	5
-5764	-4968	14796	104	-10	-108	-15608	412	-4564	8	-45	-76	-2352	-432	16960	27	-1	3	-7916	4096	13288	-130	129	-184	-15956	2624	-4304	52	2	103	-2540	-952	16736	29	-139	227	127	120	5
-5732	-5028	14820	96	-46	-86	-15644	464	-4416	-7	-53	-48	-2352	-312	16920	26	-1	0	-7896	4044	13352	-86	149	-169	-16004	2580	-4220	69	5	132	-2536	-1012	16584	12	-140	241	127	120	5
-5748	-4988	14888	108	-28	-136	-15628	440	-4568	34	-22	-64	-2520	-392	17056	29	4	5	-7848	4080	13304	-75	152	-167	-15968	2612	-4280	123	8	148	-2584	-992	16600	33	-145	233	127	120	5
-5780	-5048	14736	151	-81	-132	-15656	440	-4544	-6	-30	-53	-2528	-264	16616	28	-2	5	-7892	4120	13380	-84	169	-158	-15960	2656	-4336	95	15	132	-2608	-936	16556	39	-141	224	126	120	5
-5784	-4992	14956	82	-40	-150	-15640	468	-4456	-22	-23	-69	-2488	-336	17048	25	-2	7	-7888	4124	13228	-96	128	-169	-16008	2728	-4324	75	-43	118	-2564	-936	16692	45	-140	229	127	119	5
-5792	-5064	14856	96	-21	-106	-15672	456	-4452	15	-56	-50	-2392	-360	17048	28	0	5	-7892	4080	13284	-82	176	-145	-15932	2704	-4268	48	12	112	-2516	-964	16752	43	-121	221	126	119	5
-5760	-5044	14764	91	-35	-110	-15656	432	-4512	37	-79	-40	-2336	-400	16720	24	2	0	-7880	4056	13268	-105	186	-193	-15940	2628	-4284	79	-44	123	-2576	-984	16652	40	-120	176	127	120	5
-5776	-5044	14892	108	-100	-100	-15684	404	-4532	12	-38	-83	-2504	-456	16824	25	-5	3	-7884	4056	13312	-101	145	-143	-15976	2608	-4224	134	-38	172	-2448	-940	16600	20	-115	188	126	119	5
-5712	-4952	14808	109	-58	-114	-15632	412	-4544	-1	-91	-18	-2512	-424	16848	27	0	1	-7932	4036	13168	-72	127	-169	-15972	2644	-4316	123	-3	127	-2516	-988	16756	7	-146	196	126	119	5
-5736	-5044	14824	121	-36	-104	-15684	464	-4500	-25	-27	-52	-2480	-392	16832	24	-5	4	-7852	4116	13332	-113	157	-158	-15968	2656	-4344	130	-36	144	-2524	-936	16660	70	-117	210	127	119	5
-5780	-5004	14872	97	-8	-116	-15668	436	-4520	2	-26	-12	-2344	-520	16944	30	-1	2	-7892	4076	13316	-75	167	-178	-15968	2660	-4284	73	-42	188	-2504	-936	16676	46	-120	195	127	120	5
-5768	-5060	14840	94	-26	-148	-15656	440	-4492	8	-61	-15	-2456	-408	16888	29	3	2	-7876	4164	13340	-85	172	-185	-16020	2600	-4260	101	-20	159	-2472	-952	16624	53	-114	184	127	119	5
-5796	-5052	14788	91	-41	-112	-15648	400	-4540	7	-65	-58	-2584	-496	16864	27	-1	3	-7804	4068	13360	-55	180	-128	-15968	2612	-4268	80	-36	152	-2504	-892	16632	60	-111	223	126	119	5
-5764	-5016	14812	102	-65	-122	-15588	444	-4528	32	-48	-45	-2496	-456	16936	27	-4	0	-7908	4068	13336	-123	156	-161	-15916	2668	-4264	100	-24	124	-2524	-968	16700	52	-118	217	127	119	5
-5776	-5020	14796	142	-51	-121	-15652	476	-4512	-44	-65	-56	-2608	-344	16968	31	-1	8	-7916	4180	13340	-83	174	-196	-16008	2700	-4304	92	-9	117	-2536	-876	16672	50	-125	217	127	119	5
-5688	-4980	14832	141	-47	-119	-15624	444	-4608	-52	-55	-48	-2432	-368	16776	31	2	2	-7876	4084	13264	-91	152	-115	-16016	2684	-4280	60	-17	128	-2496	-856	16624	41	-141	224	127	120	5
-5772	-4976	14852	135	-65	-108	-15664	480	-4628	-21	-43	-54	-2528	-384	16784	29	-1	-1	-7916	4068	13340	-95	121	-164	-15984	2676	-4312	79	-19	103	-2548	-908	16596	65	-134	234	126	120	5
-5728	-4964	14812	101	-7	-150	-15612	432	-4512	-16	-103	-45	-2504	-256	17048	28	2	0	-7864	4076	13348	-109	138	-169	-15924	2656	-4312	78	-33	144	-2532	-896	16588	34	-152	232	127	119	5
-5760	-5044	14844	115	-33	-107	-15672	484	-4496	33	-98	-73	-2376	-360	16920	25	-2	1	-7932	4112	13348	-108	149	-185	-15932	2668	-4368	86	-12	101	-2512	-948	16612	55	-111	215	126	119	5
-5808	-5004	14808	106	-50	-115	-15676	504	-4500	6	-69	-89	-2392	-240	16888	22	-3	1	-7872	4068	13244	-68	143	-196	-15956	2636	-4300	81	-49	135	-2536	-896	16600	8	-131	216	126	119	5
-5748	-4988	14828	86	-51	-130	-15616	476	-4528	-41	-61	-64	-2304	-472	16944	23	-1	5	-7784	4128	13400	-66	151	-176	-15948	2644	-4304	66	-12	128	-2540	-912	16728	18	-115	204	127	119	5
-5776	-5012	14840	103	-51	-103	-15680	468	-4520	-55	-69	-70	-2664	-432	16992	28	-5	5	-7884	4056	13368	-122	140	-166	-15936	2644	-4248	76	-3	131	-2532	-880	16664	4	-141	205	126	120	5
-5732	-5036	14776	85	-34	-151	-15664	456	-4444	27	-58	-77	-2488	-264	17056	22	-1	1	-7892	4104	13228	-89	147	-192	-15992	2656	-4288	103	-43	141	-2524	-924	16616	44	-145	195	126	119	5
-5720	-4996	14860	131	-21	-108	-15644	476	-4492	1	-34	-43	-2352	-416	16936	25	1	1	-7900	4020	13316	-78	138	-174	-15940	2644	-4360	88	-51	121	-2512	-964	16772	32	-121	233	126	120	5
-5792	-5036	14724	92	1	-146	-15664	468	-4484	-8	-78	-91	-2480	-360	17064	21	-2	2	-7856	4100	13436	-119	187	-210	-16040	2640	-4380	74	-2	95	-2516	-924	16724	31	-146	213	126	119	5
-5772	-5032	14816	76	-37	-140	-15616	424	-4552	6	-41	-105	-2464	-408	17000	19	-3	1	-7876	4068	13276	-95	162	-170	-15976	2648	-4272	82	-51	150	-2460	-944	16620	46	-147	203	126	120	5
-5680	-5056	14892	113	-86	-120	-15652	416	-4464	-42	-59	-101	-2488	-424	16800	25	0	3	-7892	4036	13304	-114	128	-196	-15984	2664	-4264	58	20	120	-2528	-916	16772	24	-94	230	126	120	5
-5764	-4996	14836	91	-72	-93	-15620	428	-4660	11	-63	-101	-2376	-312	16904	26	-4	4	-7920	4136	13316	-115	166	-179	-15960	2676	-4200	85	-35	93	-2576	-912	16612	17	-105	238	127	120	5
-5804	-4988	14800	110	-66	-124	-15656	420	-4560	-51	-72	-100	-2472	-440	16760	25	1	5	-7888	4096	13312	-107	151	-185	-16000	2608	-4300	60	-55	105	-2504	-960	16656	69	-112	207	127	119	5
-5788	-5012	14772	116	-86	-124	-15664	392	-4504	-15	-79	-47	-2424	-368	16896	23	-6	3	-7856	4124	13324	-104	164	-196	-16016	2672	-4276	66	-14	120	-2516	-920	16680	-7	-132	225	127	119	5
-5768	-5036	14776	127	-62	-107	-15616	488	-4624	-22	-73	-51	-2432	-312	16952	21	-2	1	-7852	4084	13392	-88	150	-176	-15984	2648	-4228	109	-11	135	-2548	-980	16612	30	-118	195	127	119	5
-5764	-5040	14776	94	-19	-132	-15624	476	-4492	-13	-85	-94	-2624	-216	16816	16	-6	5	-7832	4096	13332	-88	147	-161	-16012	2720	-4224	56	-39	115	-2512	-972	16720	52	-157	201	126	119	5
-5748	-5004	14820	92	-28	-163	-15644	544	-4572	-58	-84	-114	-2496	-360	16856	18	-2	3	-7856	4012	13424	-108	159	-211	-15996	2700	-4260	79	-38	132	-2540	-892	16776	53	-118	203	127	119	5
-5776	-5076	14800	83	-42	-90	-15724	448	-4492	-79	-36	-87	-2408	-224	17120	11	3	3	-7852	4048	13360	-99	159	-138	-16020	2700	-4240	76	12	105	-2500	-868	16624	-11	-92	219	127	120	5
-5772	-5044	14852	87	-44	-132	-15652	432	-4584	-16	-73	-88	-2392	-592	16800	22	-4	6	-7904	4104	13432	-111	168	-162	-15884	2672	-4200	33	11	57	-2452	-972	16512	3	-88	225	126	119	5
-5780	-5040	14872	113	-54	-120	-15628	448	-4472	-25	-69	-124	-2328	-328	16760	24	-3	7	-7804	4096	13248	-105	169	-165	-15944	2600	-4264	54	51	101	-2408	-948	16636	10	-116	236	126	120	5
-5692	-5012	14856	89	-22	-137	-15644	364	-4584	-31	-36	-104	-2344	-408	16944	32	3	4	-7888	4060	13420	-118	180	-181	-16008	2648	-4228	61	45	78	-2500	-900	16672	26	-96	251	126	120	5
-5708	-5092	14800	100	-66	-115	-15660	420	-4420	-12	21	-83	-2480	-440	16776	39	-5	0	-7892	4064	13392	-87	171	-215	-16024	2728	-4392	14	-12	104	-2560	-880	16548	28	-99	271	126	120	5
-5768	-5036	14824	135	-36	-113	-15656	320	-4584	15	-46	-69	-2472	-384	16816	34	-7	-7	-7844	4064	13340	-68	184	-180	-15940	2660	-4272	35	18	91	-2600	-880	16672	-21	-95	250	126	119	5
-5736	-5080	14824	87	20	-116	-15688	380	-4528	83	-44	-51	-2560	-552	16776	34	-9	-3	-7860	4020	13288	-57	182	-173	-15896	2660	-4368	93	-13	83	-2568	-864	16532	-55	-114	170	126	120	5
-5704	-4984	14816	97	-29	-121	-15708	408	-4596	70	-24	-37	-2432	-376	16992	16	-4	-8	-7880	4080	13260	-79	190	-182	-15952	2664	-4268	105	-11	123	-2564	-936	16636	-64	-100	159	126	120	5
-5728	-5064	14712	101	-50	-130	-15604	480	-4492	49	-8	-76	-2536	-240	17056	14	1	-8	-7884	4100	13372	-84	146	-189	-15924	2624	-4212	123	-56	104	-2480	-916	16536	-92	-87	135	126	119	5
-5720	-5044	14820	130	-118	-120	-15580	532	-4480	87	-25	-54	-2480	-240	16920	12	-1	-7	-7828	4052	13276	-107	135	-171	-15976	2600	-4384	131	-51	79	-2612	-936	16616	-117	-114	120	126	119	5
-5728	-5024	14824	96	-40	-172	-15684	528	-4552	25	-37	-90	-2512	-176	17000	11	-2	-6	-7868	4096	13316	-110	143	-171	-15968	2672	-4224	136	-96	106	-2696	-1036	16588	-82	-160	111	127	119	5
-5708	-5004	14864	80	3	-168	-15612	472	-4620	21	-15	-121	-2480	-392	16656	15	-2	-5	-7912	4100	13300	-91	134	-189	-15996	2596	-4276	138	-75	114	-2540	-1116	16612	-42	-167	94	126	120	5
-5752	-4976	14876	67	-11	-146	-15588	452	-4672	26	-64	-88	-2504	-520	16992	-4	5	5	-7844	4064	13276	-89	131	-171	-15960	2532	-4244	139	-61	137	-2508	-1184	16588	23	-150	101	126	120	5
-5748	-5020	14928	62	-10	-158	-15560	396	-4468	34	-46	-90	-2600	-568	17240	-3	4	7	-7844	4100	13240	-103	135	-160	-16036	2572	-4192	130	-51	151	-2484	-1120	16632	40	-189	169	126	120	5
-5832	-5128	14708	65	-47	-138	-15696	376	-4548	25	-77	-86	-2600	-712	16976	3	2	8	-7828	4100	13308	-78	149	-150	-15996	2568	-4304	149	-57	170	-2468	-1096	16640	70	-190	217	126	120	5
-5684	-5128	14760	105	-34	-128	-15748	284	-4464	-69	-66	13	-2416	-464	16792	25	3	6	-7900	4048	13380	-93	156	-139	-15972	2544	-4236	59	-19	151	-2436	-1072	16496	145	-163	210	127	119	5
-5720	-5000	14820	130	-20	-107	-15616	304	-4596	-80	-49	-39	-2272	-856	16912	28	3	10	-7940	4084	13352	-84	162	-171	-15920	2588	-4272	109	-3	202	-2464	-1152	16688	150	-176	248	126	120	5
-5788	-4976	14808	96	-65	-123	-15588	364	-4512	-57	-62	5	-2408	-840	17208	33	4	9	-7848	4116	13332	-82	147	-195	-15964	2560	-4208	33	12	264	-2456	-1128	16564	163	-147	293	126	120	5
-5692	-5060	14800	153	-26	-125	-15660	264	-4548	11	-52	48	-2360	-744	16848	34	6	10	-7848	3996	13408	-79	192	-175	-16032	2580	-4236	15	7	243	-2552	-968	16628	184	-162	271	127	120	5
-5772	-4996	14812	197	-67	-132	-15660	296	-4580	8	-76	127	-2520	-640	17064	53	11	7	-7872	4168	13300	-67	169	-133	-15900	2568	-4300	36	12	236	-2488	-968	16716	211	-164	283	127	120	5
-5708	-4976	14684	183	-81	-129	-15620	348	-4508	-80	-30	149	-2424	-464	17008	59	10	1	-7856	4060	13188	-102	188	-154	-15944	2636	-4288	16	-2	283	-2464	-972	16700	274	-177	278	126	120	5
-5696	-5064	14748	180	2	-93	-15604	420	-4612	-48	-72	185	-2640	-400	17088	46	8	2	-7880	4100	13200	-46	152	-170	-15984	2652	-4352	63	9	302	-2568	-916	16636	221	-172	254	126	119	5
-5684	-5044	14848	214	-44	-134	-15632	480	-4464	0	-83	175	-2344	-448	17064	41	10	-2	-7796	4136	13260	-40	176	-130	-15972	2652	-4364	75	-5	296	-2528	-952	16764	194	-171	240	126	120	5
-5764	-5032	14796	163	-20	-100	-15692	484	-4484	5	-54	159	-2472	-264	16736	44	5	-2	-7844	4092	13316	-75	183	-164	-15980	2692	-4236	91	-23	292	-2540	-872	16628	180	-136	196	127	119	5
-5812	-4940	14792	190	-41	-119	-15600	536	-4528	15	-67	170	-2224	-176	16992	43	9	-8	-7872	4080	13292	-89	181	-182	-15936	2692	-4396	84	-32	324	-2528	-784	16596	155	-150	178	127	120	5
-5788	-5028	14856	167	-15	-112	-15604	592	-4612	-6	-44	127	-2456	-40	17032	31	7	-3	-7840	4028	13260	-66	198	-148	-15976	2744	-4252	70	-40	298	-2572	-732	16580	129	-119	171	126	119	5
-5768	-5044	14776	131	-6	-129	-15620	612	-4536	-7	-92	42	-2488	24	16632	27	5	-5	-7892	4148	13380	-25	203	-162	-15988	2836	-4268	87	-10	220	-2540	-668	16704	75	-132	146	126	120	5
-5756	-5008	14900	118	-9	-130	-15628	688	-4464	2	5	-16	-2664	-200	17056	27	3	-1	-7856	4128	13260	-65	169	-162	-15956	2832	-4280	32	-31	198	-2444	-624	16584	71	-139	197	127	120	5
-5752	-4964	14924	112	-48	-147	-15524	608	-4476	60	-30	-46	-2616	56	16760	19	0	0	-7892	4108	13276	-90	165	-170	-15940	2732	-4392	68	7	159	-2560	-616	16684	51	-144	179	127	120	5
-5748	-5036	14848	77	-26	-145	-15668	616	-4512	26	-71	-131	-2528	-248	16944	10	-2	5	-7868	4084	13360	-90	162	-164	-15904	2836	-4264	112	-6	111	-2496	-628	16732	-15	-136	192	126	120	5
-5732	-5068	14880	96	-45	-111	-15572	632	-4572	-10	-8	-119	-2608	-152	16792	-2	-1	6	-7844	4096	13340	-141	113	-194	-15940	2760	-4244	74	-3	97	-2460	-720	16688	-9	-138	206	126	120	5
-5816	-4940	14812	83	-9	-126	-15660	576	-4576	-33	-72	-162	-2440	-440	16912	7	-1	7	-7892	4088	13392	-154	123	-187	-15988	2764	-4240	66	33	36	-2532	-720	16616	-16	-139	207	127	120	5
-5748	-5028	14868	61	-41	-154	-15572	500	-4508	-37	-39	-190	-2552	-320	16776	10	-3	8	-7840	4124	13344	-116	155	-157	-16060	2784	-4344	33	48	36	-2532	-816	16776	-66	-133	241	127	120	5
-5772	-5008	14800	48	-46	-158	-15640	480	-4604	-35	-30	-195	-2464	-424	16608	15	-1	10	-7812	4112	13188	-131	138	-193	-15956	2660	-4340	-11	6	40	-2528	-888	16628	-23	-133	254	127	120	5
-5708	-5044	14832	61	5	-126	-15604	424	-4456	-40	-76	-203	-2632	-672	17008	10	-1	3	-7900	4080	13252	-118	137	-191	-16040	2680	-4312	94	-35	23	-2492	-956	16568	-18	-139	223	126	119	5
-5728	-5004	14772	83	-55	-147	-15692	384	-4512	-29	-84	-191	-2512	-584	16864	16	-6	8	-7876	4060	13292	-115	130	-175	-16012	2696	-4272	114	9	60	-2548	-988	16596	-24	-145	207	127	120	5
-5768	-5004	14792	55	-35	-141	-15648	396	-4620	15	-38	-150	-2488	-688	16744	13	-5	8	-7832	4012	13400	-126	109	-212	-15988	2612	-4200	116	-41	77	-2524	-940	16700	-29	-117	210	126	120	5
-5704	-5068	14784	91	-12	-137	-15656	376	-4532	-18	-98	-106	-2536	-736	16880	31	-3	4	-7832	4044	13288	-87	134	-187	-16028	2596	-4324	67	-31	84	-2508	-996	16648	-76	-124	185	127	119	5
-5704	-5000	14836	111	-44	-123	-15656	244	-4568	4	-59	-62	-2416	-728	16800	36	-1	-1	-7844	4044	13276	-77	148	-188	-15964	2580	-4328	89	-26	91	-2464	-924	16664	-61	-115	187	127	120	5
-5756	-5068	14912	119	-18	-121	-15720	144	-4520	30	-61	-30	-2368	-840	16968	32	-4	-8	-7880	4076	13300	-110	153	-188	-15948	2720	-4300	98	-13	111	-2508	-840	16624	-63	-140	179	126	120	5
-5836	-5056	14808	166	-70	-124	-15680	120	-4604	153	-106	89	-2560	-696	17264	28	-2	-16	-7840	4140	13328	-95	121	-183	-15948	2784	-4256	84	-38	68	-2476	-868	16652	-34	-139	209	127	119	5
-5696	-4988	14872	192	-32	-120	-15636	200	-4596	177	-108	182	-2240	-776	16960	13	3	-22	-7940	4116	13196	-125	118	-185	-15972	2760	-4344	46	20	21	-2472	-832	16644	4	-148	264	126	120	5
-5720	-5048	14732	244	-72	-75	-15668	276	-4700	145	-103	242	-2632	-808	17032	3	6	-29	-7820	4128	13268	-129	147	-236	-15956	2680	-4260	83	23	33	-2484	-792	16604	18	-146	281	127	119	5
-5756	-5020	14796	261	-81	-113	-15644	392	-4656	131	-158	329	-2504	-840	16952	3	4	-31	-7828	4036	13324	-161	135	-162	-16024	2708	-4216	76	31	24	-2448	-824	16736	-26	-183	310	127	119	5
-5776	-4992	14736	258	-95	-125	-15660	284	-4520	100	-153	368	-2408	-752	16784	11	7	-32	-7904	4036	13304	-221	172	-205	-15968	2680	-4264	-2	111	6	-2488	-824	16620	-80	-163	332	126	120	5
-5760	-4992	14840	245	-91	-88	-15660	252	-4532	177	-192	449	-2464	-936	17152	25	0	-30	-7896	4048	13272	-210	128	-209	-15996	2784	-4364	-18	75	-40	-2500	-832	16656	-17	-193	377	126	120	5
-5752	-4992	14832	279	-86	-93	-15628	324	-4556	157	-241	461	-2632	-784	17136	25	8	-36	-7900	4064	13304	-185	117	-197	-15972	2728	-4288	-103	107	-98	-2428	-880	16676	11	-174	418	127	119	5
-5784	-4964	14848	309	-70	-123	-15644	284	-4640	64	-249	590	-2584	-1192	16776	13	13	-46	-7840	4028	13336	-219	120	-204	-16048	2684	-4272	-86	134	-81	-2484	-876	16704	14	-215	419	126	119	5
-5720	-5012	14912	381	-168	-63	-15728	68	-4584	191	-266	719	-2624	-1104	16992	34	16	-58	-7844	4100	13296	-183	166	-221	-15968	2736	-4240	-42	164	-110	-2480	-840	16576	8	-198	433	127	119	5
-5720	-5020	14800	419	-124	-61	-15732	308	-4548	302	-333	836	-2360	-752	17064	33	25	-70	-7924	4060	13220	-205	130	-216	-15820	2744	-4252	-62	135	-113	-2500	-872	16548	16	-181	473	127	119	5
-5720	-4940	14856	397	-159	-66	-15664	636	-4520	36	-287	862	-2456	-584	17056	41	23	-68	-7864	4040	13396	-242	100	-167	-15916	2584	-4472	-85	172	-148	-2508	-972	16636	22	-161	508	127	119	5
-5748	-4728	14880	438	-178	-16	-15680	744	-4628	15	-304	825	-2416	-600	16848	46	22	-64	-7888	4124	13224	-201	102	-203	-16004	2488	-4248	-115	152	-133	-2544	-1036	16708	37	-162	517	126	119	5
-5552	-5040	14956	419	-95	-61	-15752	732	-4384	-301	-290	840	-2440	-744	16896	65	32	-68	-7852	4028	13244	-111	140	-226	-15940	2384	-4500	-28	72	-23	-2524	-1196	16640	34	-165	447	127	119	5
-5652	-4924	14756	402	-122	-46	-15740	696	-4340	-36	-222	870	-2440	-400	16976	73	23	-65	-7892	4064	13272	-95	162	-193	-15992	2492	-4552	2	116	-13	-2480	-1180	16552	43	-163	423	126	119	5
-5776	-4896	14884	392	-89	-61	-15712	684	-4396	100	-182	867	-2504	-488	17152	87	13	-65	-7856	4084	13384	-102	174	-192	-15944	2460	-4352	-23	61	62	-2508	-1160	16532	55	-157	402	126	119	5
-5740	-4868	14872	351	-51	-74	-15780	872	-4484	417	-249	858	-2616	-224	16792	97	12	-61	-7852	4016	13328	-68	170	-146	-15924	2492	-4428	-54	61	88	-2612	-1164	16584	76	-126	325	126	119	5
-5844	-4924	14916	335	-103	-94	-15444	1164	-4596	303	-218	731	-2440	48	16832	92	16	-57	-7852	3988	13320	-52	176	-144	-15932	2388	-4392	46	0	144	-2576	-1124	16612	60	-141	274	126	119	5
-5680	-4796	14796	339	-96	-106	-15628	1256	-4364	10	-138	662	-2616	328	16856	78	15	-48	-7812	4048	13380	-90	148	-166	-15952	2452	-4360	99	-48	178	-2616	-1072	16600	41	-158	241	126	119	5
-5696	-4912	14888	292	-69	-95	-15660	1168	-4468	-84	-208	595	-2672	128	16904	60	11	-46	-7884	4052	13264	-75	188	-197	-15896	2568	-4408	131	-70	220	-2576	-924	16588	126	-116	218	126	119	5
-5576	-4748	14856	219	-65	-67	-15800	1092	-4112	-134	-87	491	-2760	40	16976	45	11	-42	-7784	4020	13360	-139	149	-193	-15912	2608	-4468	86	-55	216	-2620	-884	16612	120	-149	177	126	119	5
-5644	-4916	14788	250	-47	-116	-15448	1128	-4508	98	-120	418	-2376	208	16720	41	11	-35	-7860	4044	13312	-88	164	-165	-15948	2556	-4352	74	-104	170	-2532	-972	16632	142	-135	142	126	119	5
-5772	-4864	14804	220	-80	-104	-15636	1264	-4308	108	-69	268	-2592	168	16912	34	7	-23	-7904	3972	13344	-56	157	-143	-15920	2564	-4360	85	-93	192	-2464	-864	16588	51	-129	118	126	119	5
-5724	-4852	14944	193	-129	-148	-15712	1200	-4320	50	-88	264	-2688	8	16800	26	5	-28	-7824	4056	13464	-74	120	-148	-15944	2600	-4276	194	-155	204	-2460	-844	16660	84	-117	110	126	120	5
-5784	-4836	14900	174	-62	-93	-15632	1144	-4412	116	-66	168	-2672	40	16864	23	3	-23	-7868	4032	13236	-73	128	-151	-15988	2704	-4272	105	-104	188	-2452	-796	16736	83	-60	153	126	119	5
-5708	-4840	14908	148	-57	-126	-15636	1136	-4580	44	-60	136	-2512	-24	16704	24	4	-17	-7856	4036	13296	-81	143	-169	-15940	2708	-4328	104	-79	175	-2376	-804	16708	105	-76	197	126	119	5
-5720	-4752	14812	128	-30	-107	-15636	1148	-4556	13	-85	75	-2800	-80	16768	11	4	-13	-7824	4084	13356	-54	131	-156	-15952	2704	-4248	166	-5	133	-2348	-740	16672	81	-80	183	126	119	5
-5648	-4836	14796	160	-29	-117	-15712	1096	-4268	3	-53	48	-2608	-296	16920	17	2	-7	-7812	4116	13304	-135	120	-188	-15972	2764	-4128	155	-1	86	-2268	-684	16712	90	-25	242	126	120	5
-5752	-4896	14860	86	-44	-130	-15660	1040	-4452	-7	-91	-21	-2760	-296	16816	5	-2	1	-7840	4116	13424	-115	121	-189	-15904	2920	-3992	94	125	67	-2192	-672	16564	210	65	247	127	119	5
-5712	-4832	14876	77	-66	-132	-15688	1056	-4492	-5	-92	-19	-2504	-336	17000	7	1	0	-7904	4096	13352	-159	73	-195	-15972	2852	-4188	95	176	-5	-2172	-648	16668	485	22	242	126	119	5
-5712	-4876	14840	98	-57	-124	-15656	1072	-4356	17	-78	-80	-2528	-328	17128	14	-6	-2	-7808	4208	13288	-258	90	-257	-15992	2928	-4260	77	191	-41	-2228	-760	16856	804	297	313	127	121	5
-5688	-4856	14788	73	3	-96	-15656	1116	-4224	-36	-59	-139	-2296	-8	16888	7	-6	5	-7880	3952	13360	-282	-10	-309	-15964	2792	-4088	50	241	-13	-2224	-596	16756	889	412	468	127	121	5
-5700	-4864	14976	75	-23	-130	-15668	1084	-4164	-90	32	-234	-2344	104	16896	-3	-9	14	-7900	4044	13444	-311	68	-350	-16040	2704	-4344	33	349	-104	-2304	-428	16564	617	423	584	127	123	5
-5628	-4856	14996	52	1	-128	-15676	1200	-4128	-89	102	-251	-2264	-96	16552	-13	-17	25	-7784	3940	13116	-277	75	-363	-15988	2480	-4344	132	457	-148	-2292	-404	16608	537	452	573	127	122	5
-5680	-4872	14872	18	14	-113	-15668	1200	-4120	-75	144	-291	-2416	-112	16680	5	-14	25	-7736	3824	13016	-256	31	-311	-15816	2488	-4524	-36	513	-165	-2512	-748	16308	-163	329	676	126	122	5
-5728	-4832	14876	-10	66	-151	-15688	1136	-4372	-41	243	-362	-2328	-368	17000	24	-17	28	-7864	4136	13276	-220	62	-250	-16108	2268	-4420	158	408	-120	-2816	-832	16664	-331	95	535	126	122	5
-5692	-4892	14840	-28	48	-162	-15724	936	-4300	-117	236	-365	-2592	-656	16672	29	-17	26	-7852	3904	13476	-186	93	-194	-16032	2436	-4556	14	385	-91	-2824	-872	16592	-349	99	538	126	122	5
-5704	-4880	14868	-1	58	-116	-15736	656	-4444	67	274	-349	-2544	-800	16840	24	-18	15	-7864	3988	13420	-210	88	-238	-15860	2568	-4620	34	402	-107	-2808	-848	16564	-391	90	366	126	122	5
-5764	-4952	14824	28	41	-127	-15656	728	-4708	244	210	-276	-2704	-568	16952	20	-19	15	-7784	3996	13208	-209	71	-194	-15916	2596	-4664	-131	303	-62	-3016	-872	16628	-329	89	321	127	122	5
-5728	-4932	15012	79	38	-96	-15620	784	-4668	161	126	-207	-3048	-944	17032	-9	-16	-9	-7796	3928	13428	-244	84	-220	-15936	2308	-4664	-122	232	-53	-3076	-904	16640	-411	31	262	126	121	5
-5716	-4836	14852	63	51	-100	-15696	848	-4708	85	27	-155	-3080	-832	17016	18	-4	-20	-7868	3940	13352	-226	87	-204	-15744	2408	-4772	112	105	-47	-3164	-984	16636	-391	-32	212	126	122	5
-5860	-4968	14968	138	52	-104	-15548	796	-5040	-114	-157	-105	-2920	-968	16688	34	-2	-20	-7864	3916	13320	-187	40	-182	-15748	2660	-4764	115	17	-65	-2932	-964	16576	-101	3	270	127	122	5
-5628	-5020	15016	154	12	-153	-15720	704	-4808	14	-210	1	-3064	-1200	16848	-30	-27	-22	-7836	4000	13380	-171	13	-129	-15992	2608	-4664	-61	-7	-129	-2812	-836	16664	121	55	436	127	122	5
-5812	-4968	14832	191	66	-118	-15820	772	-5388	-78	-602	7	-2984	-1352	17328	71	13	-14	-7848	3900	13480	-170	-14	-144	-15892	2472	-4564	-247	25	-190	-2708	-788	16824	154	228	564	121	119	5
-5628	-4868	14752	248	56	-141	-16024	744	-4916	-275	-554	-31	-2872	-784	17744	65	27	16	-7884	3980	13424	-173	13	-137	-15880	2468	-4492	-176	-20	-229	-2664	-588	16600	24	383	665	125	118	5
-5768	-5468	15064	200	432	-48	-16048	708	-4920	-467	-612	-3	-3352	-1400	17184	148	88	-1	-7820	3960	13404	-162	-20	-119	-15896	2452	-4488	-152	-19	-277	-2768	-444	16464	-198	447	663	123	118	5
-5720	-5288	15188	337	470	122	-16056	280	-4412	341	-722	-14	-3032	-152	17136	-37	40	63	-7816	3968	13360	-162	-61	-137	-15800	2520	-4372	-92	-48	-327	-2952	-420	16620	-457	437	734	126	118	5
-5668	-4856	15120	614	760	545	-16052	1480	-4484	-347	-750	-512	-3032	488	16816	39	-18	129	-7808	3932	13260	-147	-77	-147	-15732	2736	-4556	-350	-55	-446	-3268	-428	16780	-500	353	903	127	119	5
-5604	-2996	15248	-702	970	1734	-16488	1864	-4464	-2588	-733	-1013	-2400	-720	17600	283	-94	176	-7840	4040	13456	-148	-112	-124	-16016	2724	-4848	-591	-148	-640	-3324	-716	16784	-589	476	1110	128	118	5
-3964	-4316	15372	-1989	-167	4311	-16660	-1396	-2836	-4688	-980	-1084	-3144	-160	17376	240	-141	124	-7768	3928	13408	-150	-87	-130	-16096	2276	-4592	-348	-212	-624	-3036	-1024	16656	-694	551	1144	126	119	5
-1464	-8740	17596	-1544	-1078	4977	-15796	-2412	-2376	-2413	-1588	-1929	-2536	1032	16888	46	-131	35	-7760	3984	13376	-184	-77	-121	-16016	2188	-4432	-70	-246	-567	-2596	-1104	16684	-846	465	1112	126	119	5
300	-10292	16608	-200	-3011	4037	-15564	-548	236	-1615	-2882	-2556	-2440	1176	16400	24	-127	26	-7724	3956	13464	-138	-26	-149	-16212	2012	-4340	-73	-373	-565	-2540	-1236	16584	-895	480	991	127	119	5
-316	-10916	18352	-1379	-5223	1623	-15616	-940	-704	-1271	-4356	-3130	-1432	-432	16184	-277	-111	-51	-7760	4016	13340	-102	-11	-95	-16052	2056	-4328	-120	-69	-391	-2400	-1248	16496	-727	393	783	129	118	5
856	-11196	15780	-1632	-6309	-1312	-17372	-2352	-84	-527	-5599	-3544	-1960	-1408	16736	-243	-107	-125	-7684	3964	13320	-142	35	-139	-15996	2248	-4168	-164	106	-313	-2320	-1152	16412	-518	178	495	127	118	5
-364	-9752	15764	-1243	-5530	-3383	-17624	-2164	-736	2163	-6690	-3642	-1936	-1528	17464	-160	-116	-198	-7752	3960	13396	-158	80	-169	-16024	2256	-4184	-195	198	-280	-2420	-1204	16436	-464	-11	280	127	118	5
-1712	-8848	16776	-1162	-5368	-4602	-17640	-1508	-1132	3517	-7535	-3782	-1832	-1592	17576	-58	-127	-193	-7696	4016	13384	-189	96	-205	-16132	2188	-4252	-77	318	-179	-2536	-1208	16436	-556	-138	241	127	119	5
-2352	-7608	16032	-994	-4871	-5026	-18032	-1408	-1324	3651	-8177	-3852	-2056	-1920	17616	-41	-192	-200	-7716	3952	13444	-216	148	-240	-16024	2244	-4268	52	387	-143	-2604	-1248	16668	-458	-164	238	127	118	5
-3060	-6696	15716	-771	-3997	-4984	-17620	-1304	-1568	3695	-8538	-3711	-1896	-1496	17792	-29	-232	-228	-7832	3888	13480	-220	193	-222	-16068	2272	-4252	44	388	-136	-2736	-1304	16524	-369	-243	202	128	118	5
-3464	-6120	14812	-1198	-3061	-4731	-17276	-1052	-1704	3566	-8748	-3574	-1952	-1552	17440	-95	-223	-246	-7736	3816	13440	-244	155	-240	-15996	2112	-4528	9	479	-63	-2904	-1388	16556	-210	-326	167	129	119	5
-3676	-6120	14228	-1607	-1655	-4375	-16688	-800	-1796	2964	-8966	-3481	-1952	-1192	16680	-116	-223	-254	-7788	3836	13368	-176	213	-218	-16004	2100	-4664	5	447	-4	-3056	-1480	16604	-150	-261	152	127	119	5
-4136	-5760	13924	-1875	-524	-4031	-16096	-752	-1960	2320	-9126	-3599	-1936	-1144	16272	-110	-191	-244	-7788	3876	13452	-142	232	-223	-15884	2064	-4648	16	354	16	-3128	-1512	16480	-151	-212	152	127	119	5
-4640	-5904	13916	-2949	70	-4089	-15484	-544	-2148	1835	-9216	-3571	-1816	-1464	15696	-74	-139	-236	-7792	3860	13464	-109	218	-189	-15832	2108	-4760	20	298	81	-3260	-1500	16520	-92	-205	163	126	119	5
-4708	-5752	13096	-4034	745	-4756	-15220	-356	-1404	1389	-9159	-3469	-2128	-1328	15448	-27	-91	-202	-7728	3916	13400	-57	210	-166	-15828	2136	-4760	68	177	118	-3220	-1476	16448	-43	-152	216	124	119	5
-5928	-6632	13864	-3789	1201	-5282	-14732	-768	-1968	1326	-8823	-3294	-1720	-912	15160	17	-18	-173	-7784	3832	13376	-95	203	-201	-15940	2108	-4800	-2	141	139	-3276	-1484	16648	-21	-162	262	127	119	5
-7212	-5784	14632	-2894	565	-5557	-14144	-1096	-2216	1763	-8323	-3383	-1312	-928	15352	-7	4	-166	-7720	3952	13324	-55	216	-177	-15912	2068	-4836	47	-8	192	-3320	-1528	16488	107	-152	238	125	118	5
-6988	-4768	13892	-3461	-352	-5979	-14352	-436	-1844	2073	-7789	-3020	-1336	-664	15576	-35	53	-169	-7776	3896	13264	-117	183	-178	-15836	2120	-4720	180	-79	287	-3232	-1504	16508	106	-173	235	125	119	5
-7160	-4968	13116	-3406	-739	-6070	-14196	-180	-1044	1311	-7079	-2724	-1472	-688	15488	-96	123	-149	-7764	3940	13448	-47	167	-141	-15916	2328	-4632	14	-109	246	-3032	-1252	16420	232	-163	350	125	119	5
-7736	-4968	13584	-1664	-942	-5423	-14264	-1060	-1492	1410	-6225	-2658	-1536	-552	15984	-161	150	-131	-7768	3984	13400	-81	170	-132	-16012	2144	-4628	-24	-129	252	-2948	-1312	16484	286	-111	369	126	118	5
-7460	-3640	13516	-1378	-1426	-4473	-14720	-760	-940	1538	-5398	-2501	-1632	-1056	16240	-180	180	-135	-7724	3864	13408	-50	158	-130	-15872	2256	-4524	24	-104	261	-2844	-1200	16564	363	-155	368	126	119	5
-7160	-4000	13228	-1827	-1590	-3469	-15164	-388	-408	1378	-4499	-2156	-1640	-1024	16480	-176	183	-130	-7748	3912	13384	-19	168	-138	-16056	2176	-4556	-31	-116	299	-2812	-1204	16608	448	-186	333	125	119	5
-6948	-4296	13360	-870	-1428	-2511	-15148	-600	-476	972	-3697	-1915	-1968	-1064	16776	-164	189	-131	-7784	3872	13284	-48	200	-122	-16004	2072	-4520	133	-121	346	-2884	-1152	16604	215	-207	328	126	119	5
-7088	-4284	13956	-425	-1629	-2015	-15096	-244	-168	1095	-2802	-1435	-1904	-1552	16744	-96	297	-113	-7816	4044	13380	22	219	-138	-15908	2320	-4616	187	-103	350	-2820	-1076	16688	149	-162	242	125	119	5
-6696	-4172	13684	283	-1951	-1795	-14864	-376	-76	844	-1989	-866	-1872	-1896	16304	-38	333	-99	-7820	3932	13380	-53	237	-134	-15928	2340	-4548	118	-79	377	-2888	-912	16560	121	-219	183	126	120	5
-7472	-8544	10788	3260	-284	-1038	-15256	-548	-12	455	-1294	-51	-1504	-2144	18440	75	310	-92	-7768	3900	13428	-40	224	-162	-16056	2324	-4452	39	-111	323	-2904	-896	16596	126	-247	125	126	119	5
-3816	44	12220	7831	4452	4523	-19052	-2508	-136	1243	-338	-302	-3160	-2856	19672	170	226	-107	-7784	3988	13460	-43	263	-150	-15960	2340	-4688	88	-118	329	-2980	-904	16544	52	-308	55	126	120	5
-3972	-9820	23264	6019	2944	2414	-19996	-968	5504	187	-1304	1040	-3624	-2632	20024	422	213	-130	-7776	3992	13412	-68	229	-169	-15968	2352	-4604	354	-161	296	-3120	-824	16520	17	-428	55	127	119	5
-5048	-3384	15104	3938	3169	1639	-19640	-1208	1480	3550	-884	712	-3832	-1832	19704	465	119	-101	-7760	4004	13408	-47	218	-200	-15992	2372	-4664	180	-209	271	-3076	-956	16520	-65	-584	20	127	119	5
-5332	-4756	18152	944	2618	-246	-16620	800	1404	3029	-630	2358	-2504	-784	17464	455	170	-98	-7804	3948	13356	-65	240	-163	-16040	2100	-4300	277	-191	293	-2968	-1256	16444	-33	-663	-10	127	120	5
-4512	-4812	16260	-72	1846	-28	-16448	-440	1844	539	-215	2450	-2640	440	17112	386	101	-40	-7836	3932	13364	-38	274	-193	-15928	2068	-4668	302	-173	340	-2940	-1668	16516	106	-702	-104	126	119	5
-2724	-5752	14052	-544	2005	403	-15284	-464	1984	-952	-472	2027	-3072	1184	15728	302	111	-18	-7868	3912	13336	-27	287	-208	-15864	1924	-4660	332	-309	470	-2872	-1800	16548	182	-687	-170	126	120	5
-1104	-6080	11412	-763	3575	451	-14680	-292	3124	-967	-939	1536	-3024	1576	15064	257	122	-8	-7896	3912	13360	75	304	-158	-15988	2004	-4560	499	-336	619	-3024	-1736	16572	324	-670	-312	126	119	5
-220	-6152	10484	-884	6267	540	-14536	128	3520	-1861	-1559	1257	-3008	1544	14912	208	115	-7	-7748	4008	13328	52	345	-132	-15980	2224	-4772	246	-362	711	-3024	-1516	16476	369	-656	-338	126	119	5
-804	-5720	10800	-747	9226	986	-14496	-300	3920	-2518	-2234	764	-2504	1280	14912	111	60	22	-7712	3880	13368	101	341	-109	-16036	2236	-4548	227	-423	758	-3260	-1272	16628	639	-737	-309	126	120	5
-2260	-5484	11836	-760	11771	1711	-15052	-936	3828	-2129	-2958	131	-2336	464	15440	30	-14	42	-7836	4112	13308	128	397	-142	-16052	2472	-4680	236	-516	753	-3116	-908	16564	1026	-768	-220	126	119	5
-7408	-7492	15640	51	13572	2811	-15992	-1692	3232	-1209	-3385	-164	-2792	80	17768	44	-110	27	-7784	4040	13372	49	418	-120	-15924	2588	-4732	7	-542	683	-2940	-784	16624	1023	-827	-31	127	119	5
-19488	-10272	25544	7	1378	1688	-17268	-6692	-6176	2108	-784	-1587	-3400	712	20704	21	-334	4	-7872	4044	13340	36	402	-166	-16008	2456	-4300	43	-530	656	-2524	-672	16956	862	-728	124	127	124	5
-7640	-6136	16484	2454	-2493	-331	-18332	-212	-1312	4809	473	-1012	-3280	616	20960	-13	-325	-6	-7280	4380	13192	43	791	-177	-16616	2704	-3944	99	-550	461	-2892	-496	17376	676	-725	360	129	120	5
-2856	-2992	14704	166	-1156	-756	-19952	1804	6960	1963	-723	471	-4536	-1784	17440	-11	-78	-136	-7576	3940	13256	-99	1107	-299	-16656	3372	-4052	-890	-724	220	-3040	-392	17108	737	-505	680	128	118	5
-5040	-5704	14556	-689	998	-113	-15236	1492	3064	-1415	-620	846	-2072	-1168	16824	-2	-44	-142	-7828	4248	13364	-125	1206	-320	-16136	3080	-4076	-1373	-627	-14	-2580	72	17040	1225	-396	886	127	119	5
-6672	-6912	14464	-647	218	-384	-14152	-2864	1456	-2055	-286	1088	-1576	304	17072	-70	12	-91	-7008	4392	13560	-106	1451	-661	-16872	2952	-3764	-1347	-799	-142	-2752	128	17692	1442	-864	909	125	119	5
-5256	-7184	13692	362	-489	-167	-15028	-3244	2580	-395	-367	145	-1744	-392	16712	-160	95	-89	-7268	3676	13696	12	2433	-937	-17948	2532	-4108	-1184	-1238	-422	-3216	-20	17980	970	-1239	953	126	118	5
-5212	-6664	14056	1421	-120	389	-15604	-2520	3184	778	-431	-46	-1936	-1552	16616	-197	102	-103	-7560	4124	13688	265	3300	-1274	-17948	2456	-4052	-1081	-1279	-469	-3012	-16	18036	676	-1388	860	127	120	5
-5520	-6124	14520	1688	-24	542	-16132	-1484	3108	1591	-306	28	-2392	-2040	16368	-79	30	-109	-7996	4184	13872	963	4094	-1772	-17204	2968	-3536	-659	-1727	-511	-2580	328	17640	414	-1748	547	129	119	5
-5532	-5392	14820	1369	-43	408	-16376	-832	2784	1623	-273	277	-2720	-1624	17136	64	-24	-106	-7992	3996	13920	1767	4229	-2349	-16456	3316	-3680	-627	-1608	-532	-2312	76	16976	-428	-1571	526	130	117	5
-5704	-5352	14860	803	-18	215	-16456	-692	2460	698	-210	642	-2816	-1536	17456	125	-30	-87	-7940	3972	14136	3353	3268	-3440	-15696	3496	-3252	-346	-1580	-271	-1948	-128	16300	-1236	-1437	599	129	118	5
-5664	-5856	14640	553	-132	55	-16200	-1252	2492	-102	-181	814	-2824	-840	17136	144	4	-70	-6672	5464	13696	4197	2383	-4766	-15656	3472	-2216	432	-2048	153	-2000	-848	16000	-1410	-1650	482	127	119	5
-5404	-5852	14380	544	-69	30	-15788	-1528	2724	330	-202	713	-2552	-544	16840	130	36	-63	-4892	7712	14164	3282	1106	-4774	-15336	2780	-856	877	-2866	590	-1816	-1016	15452	-374	-1684	378	127	119	5
-5424	-5752	14552	586	20	107	-15776	-1076	2844	969	-372	579	-2784	-432	16896	92	51	-50	-2828	8980	15260	2529	-138	-2983	-15540	1524	528	1016	-4110	304	-1740	-324	15652	99	-1489	608	126	118	5
-5544	-5684	14612	526	3	120	-16032	-1004	2604	810	-356	566	-2888	-632	16720	81	32	-61	-1932	10828	16300	2239	-1024	87	-16212	1544	1524	1239	-5913	-179	-1892	172	15792	-342	-1193	878	126	115	5
-5660	-5824	14656	491	5	63	-16072	-996	2404	606	-359	613	-3088	-648	16672	85	13	-83	-1668	10924	16616	2487	-1927	3797	-17136	2084	1776	434	-7939	-553	-2212	144	15852	-854	-1033	1009	127	117	5
-5648	-5644	14740	412	-27	20	-15912	-848	2512	498	-413	617	-2952	-344	17080	97	1	-88	-2892	10028	18068	2988	-3281	6763	-17104	2620	2152	-1456	-8676	-1059	-1764	-20	15600	-1627	-920	920	127	121	5
-5556	-5744	14584	339	-26	-2	-16052	-516	2836	433	-446	522	-2936	216	17056	100	7	-76	-3748	7180	19200	801	-6211	6219	-17036	3276	2020	-2308	-10488	-1141	-1296	-912	16068	-1762	-932	581	127	119	5
-5572	-5696	14772	242	-31	-13	-15968	-504	2764	60	-399	323	-2824	240	17032	62	0	-69	-3088	2900	18312	585	-8717	3216	-17388	1932	1920	-2196	-11834	-1132	-1172	-924	16072	-1730	-844	536	126	140	5
-5608	-5692	14644	195	-41	-21	-15860	-588	2856	-168	-319	181	-2216	184	17024	30	-10	-47	-2740	1812	16716	2322	-10004	-582	-17076	760	1636	23	-12562	-1354	-1068	-800	16064	-1148	-391	500	126	116	5
-5600	-5664	14528	130	-46	-100	-15776	-432	3180	-225	-195	-27	-2032	256	16968	-3	-18	-23	-3600	3580	15276	2262	-10087	-3733	-17664	1120	1488	2820	-13715	-1266	-1196	-748	16048	-1014	-280	603	126	112	5
-5488	-5736	14668	83	5	-115	-15968	-732	3224	-310	7	-230	-2064	-232	17424	-32	-27	7	-3980	4860	13300	1431	-8642	-5008	-17272	924	1124	2856	-14173	-1565	-1372	-1276	15908	128	44	921	127	117	5
-5544	-5728	14600	55	55	-99	-15888	-704	3104	-168	113	-284	-2520	-8	17248	-6	-24	25	-5164	6632	11820	2043	-5845	-3548	-17124	804	1060	1688	-13618	-2307	-1328	-1120	15744	-29	324	958	127	121	5
-5604	-5644	14656	23	35	-121	-16008	-932	3000	8	231	-346	-2304	-80	17048	-14	-18	38	-5836	7792	10720	2218	-2335	-306	-17188	380	644	2190	-15151	-995	-1064	-1212	15784	-302	609	764	127	120	5
-5564	-5708	14636	27	0	-130	-15868	-632	2788	-14	316	-442	-2400	-208	17080	-29	-18	51	-6532	6992	10876	978	1312	2630	-16964	772	584	498	-14574	-2052	-1204	-1032	15468	-1215	1063	540	126	118	5
-5576	-5712	14648	-19	-5	-163	-15952	-736	2896	-226	384	-537	-2248	-96	16992	-48	-17	70	-8184	5060	11544	55	3642	4005	-16524	1676	476	-1632	-14065	-2852	-1464	-1616	15792	-1513	1614	674	126	120	5
-5584	-5724	14724	-90	-22	-134	-15860	-720	2792	-439	462	-688	-2528	-128	16896	-53	-18	73	-9580	3292	12280	296	4876	4457	-16072	1596	176	-2603	-13924	-2482	-1440	-1448	15676	-997	1705	652	127	119	5
-5568	-5732	14480	-121	51	-124	-15880	-852	2720	-742	522	-765	-2456	-312	16912	-94	-44	96	-10848	2536	12788	852	4841	4066	-16028	2132	-224	-2934	-13130	-2327	-2372	-1848	15392	-1344	1570	859	126	119	5
-5508	-5752	14528	-97	2	-118	-15868	-1028	2628	-749	529	-866	-2736	-520	16952	-135	-47	106	-12252	2644	12928	658	3506	3361	-15788	1868	-552	-3564	-11970	-2595	-2516	-2204	15400	-1191	1842	902	127	115	5
-5612	-5664	14720	-92	2	-129	-15916	-1180	2584	-574	461	-889	-2896	-1096	16744	-108	-31	90	-14072	3004	12684	-58	1390	3336	-15880	1564	-1072	-3848	-10358	-2498	-2668	-2356	16708	-641	2254	1264	127	115	5
-5620	-5748	14708	-150	-7	-172	-15996	-1320	2308	-449	398	-810	-2944	-1360	16632	-46	-30	78	-14460	1904	12076	1	-798	3539	-16008	988	-756	-2651	-8705	-2449	-3068	-2352	17256	-25	2283	1293	127	121	5
-5596	-5760	14580	-162	-17	-206	-15964	-1384	2272	-326	275	-726	-2896	-1456	16680	13	-46	60	-13480	628	11616	443	-2473	2560	-16564	688	-348	-323	-7029	-1984	-3216	-1860	16724	32	2068	697	127	119	5
-5608	-5728	14544	-171	-57	-257	-15960	-1340	2460	-319	175	-729	-2680	-1264	16648	33	-49	59	-12756	320	10800	1500	-3511	867	-15988	756	376	1847	-5943	-1475	-3260	-1412	16664	42	1691	370	127	122	5
-5624	-5804	14760	-187	-70	-226	-16000	-1336	2428	-319	75	-710	-2816	-1096	16560	14	-46	60	-11536	1080	10296	2148	-4022	-1034	-15892	1152	780	3247	-4840	-1011	-3356	-1328	16640	638	2291	-141	127	121	5
-5612	-5852	14532	-176	-64	-229	-15876	-1440	2296	-287	-1	-656	-2784	-864	16712	-18	-30	53	-10368	1976	9464	2761	-4101	-2240	-14800	1068	1360	3619	-3844	-727	-3160	-1868	16000	815	2546	-97	127	121	5
-5532	-5808	14616	-130	-57	-231	-15928	-1328	2520	-394	-76	-661	-2632	-872	16848	-53	-31	51	-9464	3392	8820	3243	-3863	-2263	-13660	640	1636	3730	-2711	-501	-2800	-1788	15396	67	3003	110	127	121	5
-5544	-5760	14632	-193	-77	-188	-16020	-1352	2532	-619	-68	-635	-2384	-1064	16976	-42	-41	43	-9176	4472	8500	2723	-3275	-1326	-14076	856	1636	3601	-1813	-488	-2836	-1716	15556	-394	3809	243	127	120	5
-5456	-5808	14584	-215	-46	-208	-15980	-1388	2540	-685	-49	-614	-2416	-872	16912	-32	-53	44	-11520	-2952	7028	603	1097	-3832	-15660	1484	5936	6683	-996	-559	-2948	-2448	18228	-990	2696	497	127	124	5
-5576	-5852	14536	-229	-84	-166	-15800	-1308	2652	-635	-21	-702	-2336	-504	16816	-16	-71	51	-6480	14688	16232	-2441	6318	-5975	-24560	-220	11508	6240	-3099	1894	-5764	-4004	20604	-992	405	-433	127	122	5
-5512	-5796	14616	-236	-146	-194	-15912	-1112	2656	-667	-15	-856	-2416	-296	16912	-55	-77	65	-9924	7120	11348	-754	8416	574	-18604	2104	3504	657	-3073	1324	-5020	-2676	18556	2324	1696	-462	127	123	5
-5584	-5788	14576	-419	-114	-232	-16052	-952	2916	-458	83	-1040	-2424	40	17312	-64	-87	90	-9692	6676	13576	32	9500	4459	-16196	780	5512	-3011	-1241	-607	-3756	-1136	18360	2301	1185	-638	126	121	5
-5436	-5820	14680	-501	-116	-234	-16160	-800	3064	-432	294	-1181	-2280	-32	17248	-59	-83	102	-9896	6060	15652	-28	8323	4819	-17312	952	6524	-1309	-469	-285	-3648	-560	17912	957	747	-668	125	123	5
-5572	-5828	14648	-796	-127	-355	-16008	-980	2708	-410	395	-1303	-2232	-496	17264	-77	-80	111	-8632	3648	14420	182	6694	3845	-15760	2360	5588	-1539	-1001	-93	-3520	-400	16832	-76	788	-451	127	122	5
-4948	-5552	13776	423	238	14	-16056	-2388	3408	177	301	-1329	-2672	-1592	16840	-151	-64	102	-5296	3224	12948	-1676	5170	627	-14604	2448	7448	-3774	-766	28	-2884	-656	15304	-1039	713	-267	126	122	5
-5560	-6288	14192	557	585	60	-15784	-3164	1960	1021	116	-1184	-2360	-2256	16368	-190	-24	66	-7960	7076	16220	-4392	4194	-3691	-14060	2092	7136	-2230	-1363	42	-2600	-244	14856	-853	953	-23	126	121	5
-5776	-6360	14296	644	430	60	-15568	-2692	2244	1970	29	-934	-2072	-2360	16768	-171	7	30	-8960	8580	10204	-4193	2913	-2914	-13516	4560	5268	-3259	-1049	572	-2880	-880	16128	-549	518	22	127	120	5
-5504	-5944	14444	491	223	-21	-15916	-1956	2468	1377	-63	-698	-2088	-2592	16624	-122	-10	14	-9964	8396	11376	-7015	2229	-2874	-15240	3268	4664	-4229	-710	739	-3524	-748	17032	463	605	266	127	120	5
-5664	-5932	14436	269	225	-33	-15928	-1780	2356	381	20	-413	-2192	-2392	16880	-42	-26	3	-8912	4512	12860	-7700	1105	-2074	-16060	684	5532	-2940	-228	365	-3968	-140	16820	72	955	832	127	121	5
-5740	-5916	14636	113	94	-77	-15816	-2000	2308	-284	35	-261	-2296	-2016	16864	16	-9	9	-8088	2924	15220	-5625	532	-2118	-16948	376	7228	-1425	-115	-149	-4248	288	17216	-659	795	1260	127	121	5
-5656	-6028	14532	-96	20	-148	-15984	-2144	2232	-541	-44	-147	-2328	-1864	16832	16	9	13	-8016	2992	14712	-3107	868	-2387	-17380	40	6844	-1818	-318	-476	-4732	-556	17664	-1347	177	1400	126	120	5
-5636	-5740	14612	-108	-80	-165	-15916	-1836	2520	-538	-39	-18	-2432	-1472	17032	-14	22	9	-8672	4336	13452	-2395	1511	-1360	-16972	-692	5704	-2084	-54	-766	-4516	-2472	17380	-1557	-211	1073	126	121	5
-5496	-5684	14560	-18	-25	-185	-16056	-1872	2900	-425	-63	24	-2360	-1592	16784	-14	6	4	-8636	3448	13416	-1660	1408	-330	-16432	-868	5480	-1432	280	-946	-3732	-3032	16280	-1276	-241	514	126	120	5
-5524	-5988	14468	-41	42	-149	-15924	-1932	2344	-71	-50	-5	-2136	-1464	17112	-3	-8	-1	-8248	4780	12840	-1240	1493	-36	-15152	-328	5788	-1008	-13	-551	-3472	-3720	15556	-776	-144	194	126	119	5
-5680	-5956	14488	26	64	-180	-15836	-1912	2480	-17	-56	-14	-2128	-1280	16960	38	10	-6	-8712	4288	12820	-820	1282	-32	-14468	20	4988	-970	-190	-15	-3240	-4020	15268	-418	-237	-43	126	119	5
-5600	-5940	14516	65	-43	-162	-15772	-1752	2652	60	-20	-66	-2064	-1328	17224	41	16	-8	-9404	3644	12700	311	388	87	-14616	-536	4240	284	-52	451	-3288	-3688	15472	95	-184	-219	126	119	5
-5640	-5976	14452	77	-45	-116	-15868	-1696	2640	-36	34	-124	-2128	-1232	17000	47	24	5	-9776	4124	12668	1055	-835	711	-14756	-412	4000	2089	156	894	-3360	-3260	15680	580	-26	-423	126	119	5
-5604	-5892	14520	97	1	-143	-15960	-1788	2564	-102	15	-60	-2296	-1400	16728	43	11	12	-9268	4416	12956	1082	-2010	1324	-14856	376	4584	3146	290	1147	-3520	-2668	16012	886	169	-628	126	120	5
-5588	-5860	14572	61	-9	-97	-15932	-1900	2548	-120	46	-84	-2280	-1696	16992	43	9	13	-7100	5200	13604	782	-2409	750	-15960	1088	7064	4724	-153	1593	-3884	-2100	16252	1039	103	-812	126	119	5
-5660	-6020	14448	117	-20	-119	-15876	-2028	2532	-156	78	-7	-2464	-1680	16656	45	7	14	-6228	5580	12528	297	-688	-300	-16880	984	7768	3494	-1049	2218	-4600	-1540	16648	1267	-202	-981	126	119	5
-5616	-6004	14400	253	0	-67	-15768	-2016	2384	-71	39	-11	-2464	-1664	16744	45	1	18	-8368	3304	13704	722	-5	-138	-16056	1048	5956	1541	-501	1499	-4572	-828	16828	1516	-337	-697	126	119	5
-5656	-5964	14408	314	-57	-24	-15796	-2040	2260	-84	-7	86	-2216	-1624	16728	47	5	11	-8556	4472	13140	1362	-297	395	-16292	688	5968	1753	-48	972	-4152	-464	17012	898	-516	-383	126	120	5
-5636	-6044	14552	279	-107	-20	-15872	-1864	2184	-222	-90	109	-2400	-1608	16712	79	3	5	-8172	5192	12920	1633	-141	679	-15932	1140	6072	3306	-343	1053	-3880	-484	16828	627	-313	-469	126	121	5
-5628	-5920	14436	228	-63	-76	-15888	-1740	2380	-339	-128	199	-2432	-1440	16904	89	0	12	-8496	4772	13096	2270	-214	1007	-15284	1748	5540	4012	-243	914	-3756	-216	16560	722	-234	-441	126	120	5
-5660	-5904	14536	191	-76	-48	-15896	-1640	2316	-485	-105	117	-2400	-1040	16712	81	2	15	-8264	4916	13092	2578	-535	1252	-15600	1900	6020	4275	-125	625	-3824	-140	16360	533	-407	-188	126	119	5
-5656	-5844	14528	105	-71	-130	-15964	-1592	2460	-582	-143	135	-2368	-888	16896	67	5	18	-7724	5340	12764	2347	-442	1074	-15784	2056	6664	3988	-139	554	-3836	-616	16256	467	-502	-84	126	120	5
-5644	-5856	14660	34	-139	-154	-15960	-1468	2460	-587	-176	88	-2600	-816	16904	43	0	21	-7376	5788	12368	1905	-53	795	-15456	2100	6768	2893	-1	467	-3776	-924	16152	510	-497	6	126	120	5
-5664	-5780	14680	-88	-97	-207	-15984	-1480	2500	-644	-147	12	-2432	-824	16792	24	-3	21	-7764	5464	12740	1340	215	572	-15288	2220	6452	1418	44	228	-3736	-956	16212	454	-366	79	126	120	5
-5596	-5856	14572	-171	-145	-219	-15888	-1576	2448	-598	-216	-72	-2568	-728	16800	14	-6	22	-7964	5508	12796	1098	112	334	-15548	1904	6268	747	20	179	-3720	-856	16648	501	-229	117	126	120	5
-5648	-5852	14512	-193	-163	-255	-15968	-1560	2468	-536	-246	-140	-2536	-872	16888	3	-12	20	-7856	5600	12712	903	49	224	-15652	1680	6124	998	-135	191	-3648	-788	16524	582	-19	173	126	120	5
-5660	-6016	14468	-232	-93	-239	-15872	-1720	2404	-476	-222	-198	-2360	-976	16952	-5	-17	20	-7796	5516	12600	645	101	132	-15580	1780	6116	1207	-153	237	-3636	-752	16280	492	-160	164	126	120	5
-5624	-5872	14520	-249	-114	-238	-15852	-1720	2652	-436	-220	-273	-2408	-1048	16912	-18	-6	13	-7856	5604	12696	443	55	64	-15448	1984	6260	753	-91	51	-3680	-728	16316	305	-212	187	127	121	5
-5576	-6016	14368	-167	-106	-268	-15876	-1804	2456	-356	-173	-342	-2488	-1048	16856	-44	0	14	-7764	5748	12608	142	187	-42	-15448	2072	6388	196	-104	14	-3520	-796	16484	16	-143	236	127	120	5
-5580	-5920	14520	-123	-72	-181	-15940	-1884	2440	-232	-238	-313	-2400	-1168	16552	-48	1	15	-7824	5772	12588	-139	214	-178	-15508	1996	6396	131	-14	-54	-3460	-976	16488	-267	-46	258	126	121	5
-5512	-6004	14356	-95	-54	-154	-15896	-1880	2592	-90	-210	-323	-2168	-1216	16904	-49	-4	18	-7812	5604	12684	-268	257	-281	-15564	1804	6220	-486	-3	-71	-3512	-1136	16456	-279	-43	396	126	120	5
-5380	-6056	14444	-32	45	-124	-15860	-1800	2608	1	-243	-393	-2104	-1216	17048	-41	1	25	-7944	5464	12796	-354	279	-359	-15568	1592	6228	-425	48	-89	-3472	-1220	16416	-206	-134	422	127	120	5
-5580	-6148	14336	-35	191	-169	-15808	-1796	2540	-188	-164	-461	-2216	-1368	16776	-25	5	27	-8072	5456	12804	-408	159	-343	-15456	1632	6084	-137	32	-124	-3452	-1140	16424	-156	-122	392	127	121	5
-5624	-5900	14316	55	168	-149	-15772	-1880	2616	-191	-106	-428	-2128	-1368	16944	-13	-2	23	-7928	5548	12744	-476	66	-431	-15452	1624	6016	47	82	-80	-3544	-1224	16460	-189	-85	397	127	121	5
-5644	-5904	14336	-32	96	-151	-15876	-1860	2640	-145	-62	-411	-2264	-1520	17024	-5	3	22	-7912	5504	12684	-600	18	-469	-15416	1604	6036	89	74	-73	-3556	-1296	16360	-244	-12	386	127	120	5
-5688	-5964	14404	39	72	-109	-15844	-1956	2492	-40	9	-348	-2280	-1392	17112	2	-1	20	-7888	5400	12756	-607	-18	-507	-15488	1556	6052	15	86	-40	-3584	-1272	16428	-215	-48	398	127	120	5
-5668	-5932	14500	9	96	-123	-15868	-1940	2488	18	-5	-352	-2320	-1424	16952	7	4	14	-7940	5392	12876	-596	-50	-480	-15520	1444	5996	79	79	-26	-3604	-1308	16488	-224	-104	393	127	120	5
-5696	-5972	14560	-2	54	-166	-15860	-1900	2376	-13	54	-340	-2400	-1352	16832	9	2	10	-7956	5284	12904	-563	-24	-462	-15652	1368	6112	104	13	29	-3756	-1392	16260	-301	-144	361	127	120	5
-5708	-5960	14580	24	22	-146	-15916	-1848	2504	-61	47	-367	-2272	-1440	16936	21	-6	10	-7984	5268	12932	-431	-41	-407	-15692	1232	5988	92	49	-10	-3836	-1464	16368	-313	-105	279	127	120	5
-5700	-6088	14352	34	11	-134	-15860	-1888	2488	-82	52	-363	-2584	-1304	16816	15	-10	7	-7852	5304	12840	-391	6	-359	-15684	1280	6060	86	42	32	-3928	-1608	16332	-321	-106	229	127	120	5
-5764	-6024	14708	-15	-81	-150	-15908	-1928	2420	-174	55	-342	-2552	-1288	16792	10	-14	7	-7932	5200	13036	-247	106	-298	-15600	1324	5940	42	84	20	-3972	-1624	16284	-293	-140	191	127	120	5
-5668	-6036	14492	-62	-66	-152	-15932	-1988	2392	-232	53	-385	-2528	-1408	16608	5	-14	10	-7904	5280	12904	-136	183	-234	-15676	1368	5980	32	8	10	-3948	-1568	16256	-156	-122	148	127	120	5
-5664	-6040	14520	-108	-56	-184	-15928	-1912	2476	-241	24	-344	-2408	-1432	16856	3	-16	17	-7932	5220	12844	-40	164	-135	-15660	1368	5932	26	-10	58	-3900	-1536	16304	-131	-125	139	127	120	5
-5648	-6000	14476	-96	-54	-223	-15876	-2000	2400	-243	-22	-347	-2616	-1512	16784	-11	-14	17	-7900	5300	12912	58	160	-108	-15612	1344	5956	167	-80	65	-3844	-1456	16276	-141	-133	99	127	120	5
-5660	-6056	14508	-78	-97	-190	-15916	-2032	2416	-271	-50	-350	-2280	-1488	16968	-11	-13	22	-7936	5348	12856	107	144	-113	-15544	1428	6052	371	-197	160	-3760	-1364	16308	-42	-143	107	127	121	5
-5572	-6112	14416	-62	-129	-215	-15904	-1988	2384	-222	-102	-376	-2432	-1544	16944	-14	-9	25	-7876	5436	12852	45	142	-103	-15504	1556	5936	303	-204	118	-3788	-1368	16284	-18	-125	103	127	121	5
-5652	-6068	14420	-51	-183	-213	-15900	-1992	2452	-247	-95	-337	-2360	-1440	16944	-8	-13	24	-7944	5388	12768	27	126	-91	-15556	1612	6120	97	-127	110	-3792	-1244	16532	-6	-68	141	127	121	5
-5648	-6032	14468	-75	-135	-198	-15912	-2044	2296	-249	-88	-331	-2408	-1624	16736	-10	-10	25	-7872	5380	12888	36	167	-86	-15604	1576	6208	20	-94	89	-3756	-1272	16364	-103	-88	207	127	121	5
-5612	-6084	14516	-85	-151	-227	-15892	-2104	2392	-267	-126	-321	-2264	-1768	16672	-4	-11	31	-7904	5296	12804	-7	164	-103	-15484	1516	6092	117	-153	109	-3604	-1280	16448	-154	-92	198	127	120	5
-5628	-6056	14452	-63	-149	-210	-15916	-2108	2372	-274	-104	-251	-2248	-1696	16976	1	-15	23	-7940	5356	12876	0	138	-122	-15492	1576	6136	217	-107	56	-3620	-1272	16492	-94	-71	260	127	121	5
-5568	-6084	14496	-53	-176	-172	-15836	-2160	2588	-299	-118	-252	-2176	-1744	16856	6	-9	23	-7892	5492	12748	-173	124	-195	-15516	1716	6136	78	-99	57	-3640	-1300	16340	-30	-104	312	127	121	5
-5576	-6196	14376	5	-102	-196	-15792	-2300	2544	-231	-93	-167	-2192	-1616	16920	13	-3	19	-7924	5392	12676	-220	126	-261	-15508	1648	6112	-35	-85	23	-3640	-1376	16348	-56	-118	341	127	121	5
-5568	-6152	14408	68	-164	-138	-15816	-2260	2432	-141	-79	-143	-2024	-1720	16840	13	0	9	-7968	5464	12860	-313	96	-247	-15536	1472	6168	-12	8	45	-3664	-1412	16364	-76	-85	327	127	121	5
-5524	-6136	14324	68	-121	-116	-15836	-2276	2528	-77	-105	-116	-2296	-1784	17032	15	2	11	-7936	5336	12824	-338	79	-283	-15520	1488	6204	64	-48	73	-3660	-1484	16460	-58	-53	350	127	121	5
-5540	-6172	14444	149	-55	-116	-15848	-2220	2660	-59	-55	-105	-2376	-1536	16768	22	2	7	-7896	5296	12892	-272	142	-296	-15612	1376	6236	106	-35	63	-3660	-1412	16392	-21	-79	336	127	121	5
-5604	-6164	14424	152	-95	-78	-15900	-2180	2636	8	-42	-65	-2376	-1664	16624	22	2	6	-7892	5344	12824	-252	142	-276	-15548	1376	6004	15	-2	63	-3764	-1420	16404	5	-116	326	127	121	5
-5496	-6100	14372	142	-96	-118	-15824	-2056	2516	-33	-69	-44	-2240	-1464	16848	23	1	2	-7868	5332	12820	-208	93	-256	-15564	1444	6076	57	56	47	-3780	-1516	16368	8	-90	259	127	121	5
-5556	-6088	14368	197	-110	-100	-15860	-2124	2536	-47	-62	-29	-2328	-1560	16784	16	-2	2	-7904	5340	12892	-233	164	-223	-15596	1316	6112	23	-8	98	-3724	-1460	16232	-22	-93	253	127	121	5
-5584	-6132	14452	153	-76	-91	-15912	-2148	2476	-61	-50	-80	-2272	-1552	17152	21	0	-4	-7944	5264	12844	-139	148	-240	-15560	1432	5936	84	19	116	-3744	-1500	16324	-6	-133	237	127	121	5
-5628	-6136	14520	188	-95	-132	-15820	-2192	2496	33	-65	-13	-2424	-1616	16776	20	1	-4	-7952	5388	12884	-131	110	-210	-15572	1420	5992	173	-7	160	-3848	-1480	16232	-35	-94	245	127	121	5
-5576	-6036	14536	181	-30	-95	-15900	-2056	2568	7	-91	2	-2384	-1544	16776	20	5	-1	-7956	5352	12832	-146	120	-212	-15592	1484	5996	182	-23	131	-3812	-1440	16300	39	-113	243	127	121	5
-5604	-6108	14432	190	-51	-80	-15856	-2120	2556	-13	-96	26	-2336	-1488	16944	12	8	0	-7944	5368	12848	-154	116	-222	-15600	1428	6052	159	-56	153	-3772	-1364	16232	83	-141	233	127	121	5
-5592	-6044	14460	185	-95	-69	-15908	-2092	2344	-7	-77	-24	-2456	-1544	16880	13	1	-5	-7888	5248	12868	-92	83	-179	-15616	1408	5936	266	-88	169	-3768	-1344	16432	12	-128	218	127	121	5
-5576	-6068	14500	150	-20	-102	-15924	-2036	2508	7	-94	-16	-2384	-1472	16672	21	4	-1	-7972	5260	12848	-98	135	-178	-15676	1516	6080	225	-128	153	-3772	-1380	16356	12	-124	233	127	121	5
-5524	-6088	14432	165	-78	-114	-15832	-2108	2528	-10	-79	-30	-2368	-1512	16864	23	-3	3	-7920	5316	12860	-53	127	-170	-15516	1484	6172	105	-71	166	-3764	-1392	16484	9	-122	218	127	122	5
-5544	-6108	14492	132	-59	-65	-15892	-2100	2600	-19	-89	-16	-2360	-1544	17032	23	-3	-2	-7880	5228	12876	-28	133	-139	-15572	1392	6060	92	-57	98	-3768	-1420	16264	57	-129	214	127	122	5
-5544	-6088	14484	137	-78	-91	-15920	-2040	2568	-3	-76	-67	-2360	-1568	16960	27	1	-2	-7952	5316	12972	21	146	-135	-15528	1464	5960	196	-53	129	-3736	-1428	16376	40	-126	182	127	121	5
-5536	-6104	14616	132	-63	-89	-15872	-2044	2612	15	-91	-22	-2272	-1472	16832	20	-5	-2	-7848	5376	12880	-18	116	-143	-15560	1548	6104	272	-69	157	-3620	-1376	16384	14	-150	192	127	122	5
-5548	-6044	14456	117	8	-90	-15868	-2072	2472	30	-62	-52	-2392	-1432	16784	22	-5	-2	-7796	5388	12864	-14	125	-163	-15560	1512	6200	219	-45	152	-3676	-1408	16244	33	-102	235	127	122	5
-5556	-6072	14532	95	-50	-101	-15896	-2076	2556	37	-61	21	-2264	-1592	17016	25	-3	2	-7900	5264	12840	-35	143	-163	-15568	1472	6056	176	-34	139	-3720	-1400	16340	25	-114	203	127	122	5
-5544	-6076	14408	101	-56	-102	-15924	-2032	2512	55	-56	-63	-2320	-1584	17008	25	-3	-2	-7892	5372	12836	-36	143	-192	-15608	1468	6124	149	67	146	-3684	-1336	16412	3	-161	217	127	122	5
-5612	-6088	14384	81	-40	-143	-15824	-2048	2424	50	-25	-65	-2304	-1432	16672	22	0	3	-7940	5380	12820	-70	115	-172	-15548	1508	6044	133	1	164	-3772	-1384	16344	3	-148	237	127	122	5
-5512	-6120	14504	126	24	-123	-15820	-2096	2544	18	-65	-70	-2424	-1448	16664	26	-4	3	-7912	5344	12896	-105	129	-188	-15508	1532	6024	142	9	130	-3752	-1344	16424	59	-135	211	127	122	5
-5580	-6068	14540	128	-7	-122	-15880	-2104	2496	-21	-29	-67	-2376	-1560	17168	29	-2	6	-7876	5316	12904	-132	118	-176	-15556	1476	6128	193	-24	151	-3756	-1336	16408	-4	-141	238	127	122	5
-5612	-6096	14468	117	-64	-129	-15860	-2072	2520	-44	-47	-63	-2424	-1496	16848	25	-1	6	-7904	5312	12776	-116	89	-197	-15568	1440	6060	155	-13	164	-3820	-1348	16296	2	-111	220	127	122	5
-5552	-6096	14488	104	-21	-113	-15892	-2048	2476	-23	-85	-46	-2472	-1472	16704	22	0	8	-7904	5364	12724	-121	145	-232	-15528	1524	6060	195	-22	129	-3740	-1280	16236	28	-136	212	127	122	5
-5568	-6112	14512	109	-56	-133	-15900	-2096	2588	-89	-86	-48	-2408	-1480	17016	22	0	2	-7920	5332	12888	-165	133	-225	-15492	1524	6108	118	-53	120	-3768	-1308	16320	18	-155	209	127	122	5
-5588	-6140	14564	138	-50	-151	-15760	-2072	2460	-15	-50	-133	-2304	-1432	16936	22	0	1	-7808	5300	12852	-164	117	-209	-15496	1480	6164	80	-27	114	-3692	-1356	16448	-14	-123	221	127	122	5
-5468	-6020	14368	119	-46	-96	-15844	-2120	2516	25	-69	-99	-2264	-1496	16944	18	3	0	-7856	5280	12764	-181	121	-228	-15608	1464	6240	92	-4	140	-3568	-1372	16396	-48	-120	221	127	122	5
-5544	-6064	14440	137	-96	-112	-15912	-2136	2492	-22	-33	-70	-2400	-1480	16832	29	-5	2	-7880	5312	12892	-168	136	-248	-15536	1476	5948	68	10	99	-3688	-1448	16472	-9	-93	216	127	122	5
-5564	-6116	14536	139	-39	-122	-15872	-2092	2424	-46	-49	-38	-2376	-1608	16848	24	-2	1	-7888	5324	12764	-179	152	-188	-15576	1468	6108	98	17	113	-3756	-1356	16444	14	-115	212	127	122	5
-5592	-6064	14448	119	10	-98	-15844	-2108	2416	-18	-13	-67	-2320	-1776	16832	27	3	0	-7908	5300	12868	-173	148	-241	-15576	1456	6044	88	17	135	-3712	-1468	16352	-1	-125	224	127	122	5
-5556	-6060	14488	142	2	-104	-15848	-2084	2536	28	5	-43	-2328	-1608	16888	22	2	1	-7932	5288	12916	-189	116	-241	-15556	1504	6136	86	27	143	-3768	-1476	16288	-1	-110	251	127	121	5
-5596	-6100	14496	130	-26	-83	-15800	-2128	2420	46	-3	0	-2328	-1624	16904	23	4	0	-7888	5276	12872	-227	146	-209	-15628	1448	6068	84	20	133	-3776	-1452	16240	3	-133	242	127	122	5
-5556	-6048	14464	168	-18	-63	-15884	-2124	2408	5	-9	-44	-2464	-1616	17008	23	-1	3	-7900	5284	13000	-177	137	-205	-15624	1428	6044	107	8	174	-3796	-1384	16320	53	-154	229	127	122	5
-5584	-6092	14372	156	-85	-74	-15848	-2108	2608	-14	-50	-56	-2504	-1456	16712	32	-4	1	-7952	5304	12956	-137	148	-202	-15592	1432	6080	137	-29	160	-3792	-1468	16268	31	-192	198	127	122	5
-5556	-6048	14604	157	-11	-84	-15860	-2016	2376	24	-23	-35	-2408	-1600	17072	28	-2	4	-7840	5264	12900	-83	147	-198	-15584	1428	6180	147	-76	140	-3776	-1488	16316	31	-198	177	127	122	5
-5544	-6040	14340	158	-3	-65	-15844	-2044	2340	40	-36	-54	-2488	-1488	16952	23	-2	4	-7940	5276	12856	-37	151	-158	-15552	1444	6020	154	-31	160	-3736	-1416	16240	70	-193	205	127	122	5
-5540	-6068	14560	136	-84	-86	-15892	-2092	2388	11	-97	28	-2360	-1544	16600	22	-6	0	-7880	5260	12840	-22	160	-122	-15556	1484	5976	109	-23	122	-3716	-1388	16384	47	-161	188	127	121	5
-5556	-6048	14588	118	-49	-85	-15824	-2060	2376	-15	-95	-29	-2408	-1568	16784	19	0	5	-7900	5316	12940	-13	132	-159	-15528	1588	6016	183	-48	171	-3740	-1352	16408	29	-173	229	127	122	5
-5520	-5984	14444	97	-47	-111	-15900	-2076	2404	-26	-90	-33	-2280	-1528	16840	22	-7	2	-7936	5388	12896	-50	163	-180	-15524	1688	6000	152	-81	152	-3740	-1416	16360	50	-171	195	127	122	5
-5568	-6076	14392	145	3	-125	-15848	-2064	2464	-26	-69	-39	-2240	-1368	16768	24	-3	1	-7820	5304	12888	-102	118	-176	-15508	1584	6136	83	-42	165	-3692	-1304	16388	43	-132	241	127	122	5
-5588	-6080	14524	167	-50	-93	-15880	-2060	2496	21	-105	18	-2336	-1480	16936	28	-1	-1	-7888	5316	12800	-178	166	-190	-15608	1576	6056	88	1	139	-3676	-1268	16384	48	-151	238	127	122	5
-5532	-6076	14480	104	-56	-98	-15904	-2084	2452	-26	-41	-36	-2296	-1592	16888	23	1	2	-7956	5324	12776	-177	154	-183	-15548	1576	6028	85	-21	112	-3736	-1336	16344	53	-142	195	127	122	5
-5524	-6048	14504	142	-58	-72	-15908	-2068	2664	-32	-39	-40	-2360	-1608	16904	20	3	2	-7884	5304	13004	-180	120	-220	-15572	1540	6008	90	-4	99	-3680	-1444	16356	11	-129	244	127	121	5
-5532	-6084	14472	131	-25	-162	-15884	-2072	2444	61	-37	-54	-2296	-1424	16816	22	4	1	-7852	5308	12896	-169	141	-224	-15580	1488	6144	80	16	140	-3640	-1420	16368	13	-128	234	127	122	5
-5528	-6036	14384	156	-42	-112	-15872	-1992	2468	0	-23	-35	-2344	-1528	16736	21	1	1	-7860	5336	12988	-150	166	-185	-15548	1460	6036	83	6	140	-3668	-1488	16292	29	-141	206	126	122	5
-5520	-6008	14528	109	-47	-91	-15872	-2012	2504	-28	-4	-51	-2496	-1520	16760	30	4	0	-7900	5308	12948	-134	132	-209	-15548	1480	5916	142	28	115	-3740	-1432	16412	33	-139	234	127	121	5
-5576	-5996	14452	123	4	-129	-15856	-2096	2524	-6	-31	-19	-2240	-1456	17048	26	4	1	-7892	5284	12960	-138	119	-224	-15576	1544	6020	104	24	153	-3740	-1384	16364	14	-156	249	127	122	5
-5568	-6084	14512	142	-79	-104	-15932	-2052	2516	29	-28	-47	-2288	-1616	17008	31	4	5	-7908	5308	12840	-163	122	-240	-15544	1436	6120	86	56	160	-3728	-1484	16432	-43	-145	237	127	121	5
-5560	-6068	14580	123	1	-123	-15904	-2120	2476	31	-4	-32	-2336	-1544	16864	30	3	1	-7836	5256	12920	-163	161	-248	-15508	1420	6120	113	12	172	-3668	-1396	16296	24	-141	230	127	121	5
-5524	-6004	14476	142	-48	-130	-15912	-2108	2504	10	-17	8	-2344	-1376	16912	31	-1	5	-7864	5236	12948	-117	154	-213	-15592	1476	6016	100	70	171	-3656	-1392	16388	26	-179	210	127	121	5
-5588	-6024	14484	166	-33	-94	-15868	-2024	2448	-5	-9	-53	-2288	-1496	17016	31	-2	3	-7936	5240	12848	-112	164	-206	-15588	1484	6028	150	25	168	-3712	-1404	16420	46	-211	211	127	122	5
-5580	-6064	14584	170	-49	-119	-15900	-2160	2492	-34	-7	-52	-2376	-1704	16912	27	-1	1	-7892	5300	12804	-145	147	-214	-15616	1512	6024	190	26	164	-3700	-1348	16224	35	-153	227	127	121	5
-5536	-6028	14348	169	-25	-111	-15880	-2152	2464	8	-22	-29	-2352	-1608	17112	23	4	2	-7860	5288	12872	-129	155	-155	-15568	1532	6060	82	-7	124	-3748	-1372	16384	27	-159	215	127	121	5
-5552	-6040	14408	175	-1	-119	-15852	-2100	2404	52	-15	-28	-2384	-1752	16664	24	0	-4	-7932	5252	12840	-137	138	-185	-15632	1460	6052	99	-23	169	-3740	-1292	16448	15	-140	229	126	122	5
-5512	-6012	14512	168	-40	-109	-15888	-2080	2492	83	-34	-6	-2512	-1616	17016	30	3	-2	-7904	5304	12928	-95	155	-197	-15584	1528	6116	105	4	131	-3728	-1452	16360	31	-157	200	127	122	5
-5596	-5976	14556	203	-1	-97	-15892	-2000	2380	66	-64	-2	-2280	-1576	16664	26	-2	-1	-7892	5284	12812	-145	130	-191	-15584	1528	6068	163	-60	156	-3736	-1368	16372	13	-154	203	127	121	5
-5556	-6016	14472	169	-55	-101	-15884	-2012	2448	37	-53	-45	-2336	-1416	16840	30	0	-2	-7908	5236	12908	-126	161	-182	-15580	1504	6056	99	-6	158	-3792	-1320	16380	-8	-117	202	127	121	5
-5576	-5960	14444	141	-35	-108	-15856	-2008	2528	0	-52	-17	-2296	-1528	16768	26	-2	-2	-7884	5300	12996	-101	188	-190	-15628	1520	5976	85	-60	118	-3800	-1384	16344	8	-135	225	127	121	5
-5588	-5948	14580	128	-25	-101	-15932	-2028	2504	-37	-61	-70	-2496	-1608	16728	26	0	5	-7928	5288	12904	-117	141	-169	-15640	1448	5932	105	-27	126	-3756	-1408	16292	-4	-93	239	127	121	5
-5536	-6004	14512	140	-9	-115	-15892	-2056	2448	31	-90	-47	-2432	-1424	16960	23	-2	1	-7872	5284	12860	-98	129	-190	-15564	1468	6100	125	-53	97	-3712	-1436	16316	36	-132	243	127	121	5
-5576	-6028	14584	92	17	-123	-15872	-1992	2396	9	-78	-48	-2328	-1400	16840	17	-1	-1	-7868	5292	12916	-116	141	-174	-15588	1560	6100	148	-70	146	-3656	-1416	16300	93	-153	194	127	121	5
-5560	-6040	14584	88	-27	-150	-15896	-2024	2560	-21	-63	-62	-2520	-1376	16624	20	0	4	-7916	5364	12912	-103	141	-179	-15556	1532	6088	145	-70	132	-3724	-1296	16372	21	-135	212	127	121	5
-5600	-5976	14528	60	-52	-134	-15852	-2072	2492	-81	-75	-60	-2248	-1592	16840	33	-4	1	-7900	5288	12832	-105	145	-188	-15584	1564	5936	123	-44	158	-3728	-1380	16456	60	-100	260	127	122	5
-5532	-5976	14448	63	-54	-128	-15888	-2160	2468	-51	-68	-32	-2408	-1608	16896	29	-5	-1	-7812	5232	12848	-136	143	-182	-15640	1496	6132	99	-123	139	-3716	-1376	16344	20	-93	221	127	121	5
-5556	-6024	14492	104	-16	-115	-15884	-2092	2604	-29	-78	-26	-2384	-1576	16904	30	-3	0	-7924	5268	12924	-109	144	-187	-15572	1588	6100	109	-4	119	-3712	-1436	16376	12	-119	231	127	121	5
-5548	-6076	14412	106	-18	-120	-15820	-2188	2540	50	-15	-56	-2288	-1440	16952	24	1	2	-7892	5300	12916	-72	113	-184	-15620	1492	6096	116	-6	111	-3712	-1440	16224	-16	-121	215	127	121	5
-5500	-6056	14480	105	-66	-82	-15888	-2096	2484	54	-31	-26	-2432	-1544	16728	18	0	1	-7868	5212	12852	-95	139	-188	-15520	1464	6060	119	-44	110	-3728	-1400	16408	4	-102	221	127	121	5
-5564	-5992	14532	99	-16	-79	-15852	-2044	2408	6	-33	-28	-2456	-1536	16712	18	10	0	-7916	5264	12872	-58	162	-221	-15556	1528	6012	104	-26	156	-3692	-1472	16272	29	-127	218	127	121	5
-5520	-6024	14516	100	25	-92	-15856	-2084	2440	34	-29	-15	-2336	-1592	16864	18	6	0	-7916	5272	12896	-74	179	-206	-15556	1496	6072	141	-9	168	-3668	-1396	16296	37	-182	194	126	122	5
-5604	-6076	14452	124	-35	-113	-16000	-1996	2420	54	-30	-20	-2368	-1416	16976	25	-1	0	-7888	5264	12832	-74	153	-204	-15600	1492	6032	130	-2	133	-3788	-1400	16264	78	-191	189	127	122	5
-5544	-6028	14484	112	-45	-88	-15920	-2060	2460	14	-58	-51	-2400	-1584	16744	27	-1	4	-7872	5336	12824	-123	184	-201	-15588	1524	6000	144	-10	103	-3712	-1420	16416	-29	-164	224	127	121	5
-5608	-6024	14476	108	-25	-131	-15912	-1984	2492	37	-52	-58	-2400	-1560	17000	29	-3	4	-7820	5316	12868	-127	124	-192	-15576	1564	6136	122	30	155	-3680	-1436	16336	-10	-134	210	126	122	5
-5572	-6024	14512	108	-63	-87	-15840	-1948	2448	19	-89	-42	-2456	-1528	16880	28	1	7	-7860	5276	12932	-54	158	-137	-15548	1492	6000	88	4	138	-3736	-1476	16284	72	-135	267	126	121	5
-5528	-6012	14504	71	-34	-132	-15880	-2012	2468	-25	-86	-74	-2424	-1488	16904	25	-1	6	-7944	5236	12936	-113	163	-187	-15572	1572	6012	131	19	169	-3688	-1364	16400	48	-132	248	126	121	5
-5572	-6012	14520	81	-60	-162	-15860	-2044	2488	-80	-73	-55	-2424	-1536	16912	27	-3	5	-7896	5316	12900	-100	150	-144	-15572	1532	5832	129	-59	167	-3760	-1280	16268	102	-120	240	127	122	5
-5620	-6008	14496	85	-36	-153	-15888	-2112	2368	-71	-74	-77	-2272	-1496	16656	22	-6	5	-7868	5224	12864	-95	126	-216	-15628	1532	5984	110	-40	157	-3672	-1356	16332	6	-147	265	127	121	5
-5620	-6056	14424	87	-46	-147	-15840	-2084	2400	0	-100	-79	-2528	-1696	16968	32	-9	6	-7864	5228	12896	-103	131	-196	-15528	1520	6072	107	-61	119	-3712	-1444	16412	-31	-124	242	127	121	5
-5608	-5968	14428	145	-92	-111	-15936	-2092	2452	5	-124	-47	-2424	-1536	17048	25	-5	1	-7956	5216	12856	-105	108	-199	-15532	1556	6160	96	-51	120	-3744	-1404	16340	61	-128	248	127	121	5
-5568	-5968	14576	112	-53	-125	-15840	-2088	2428	4	-82	-57	-2272	-1440	16832	27	-5	0	-7920	5268	12920	-116	151	-182	-15532	1508	6136	110	-26	120	-3700	-1432	16444	62	-119	239	127	122	5
-5572	-6056	14532	159	-57	-98	-15860	-1992	2548	-44	-64	-37	-2328	-1568	16856	23	0	-1	-7972	5192	12908	-90	122	-164	-15552	1504	6084	150	-41	132	-3708	-1404	16480	93	-136	234	127	122	5
-5556	-5944	14572	156	-70	-124	-15880	-2088	2584	-38	-66	-49	-2480	-1488	16992	23	0	3	-7868	5256	12940	-102	125	-163	-15580	1492	6096	128	-11	147	-3700	-1332	16364	-6	-125	229	126	121	5
-5636	-5956	14384	170	-44	-93	-15816	-2072	2552	-4	-65	-45	-2296	-1552	16880	24	2	1	-7904	5292	12860	-115	130	-148	-15552	1488	6148	87	-69	164	-3696	-1352	16432	-17	-137	212	127	122	5
-5580	-6060	14420	115	-34	-135	-15860	-2036	2500	-30	-71	-4	-2456	-1512	16848	26	-6	-2	-7904	5280	12932	-90	128	-196	-15524	1548	6120	106	-42	115	-3744	-1376	16308	42	-144	198	127	121	5
-5556	-6064	14528	127	-101	-116	-15888	-2036	2520	10	-63	-41	-2248	-1536	17016	26	-6	1	-7868	5284	12872	-108	152	-175	-15532	1512	6204	115	-30	138	-3676	-1412	16480	42	-142	243	127	121	5
-5564	-6004	14484	130	-41	-143	-15872	-2028	2512	6	-46	-21	-2288	-1632	16864	27	-2	3	-7908	5268	12884	-86	152	-192	-15632	1592	6072	133	-2	140	-3648	-1344	16332	18	-171	200	127	122	5
-5560	-5988	14488	148	-31	-112	-15868	-2040	2400	59	-59	-70	-2248	-1480	16864	32	-2	-3	-7868	5204	12948	-124	164	-172	-15568	1536	6128	134	-60	121	-3696	-1424	16524	-24	-157	211	127	121	5
-5580	-6012	14496	101	-32	-111	-15812	-2004	2476	60	-5	-45	-2456	-1408	16712	25	-5	0	-7916	5248	12884	-99	170	-173	-15536	1532	5988	149	-16	164	-3708	-1372	16264	-24	-122	205	127	122	5
-5572	-6012	14516	98	-31	-130	-15888	-2036	2576	-1	-46	-57	-2304	-1416	16960	26	-2	3	-7920	5268	12856	-100	156	-196	-15600	1520	6056	118	48	138	-3696	-1412	16340	34	-141	197	127	122	5
-5576	-5980	14512	94	-62	-86	-15868	-2040	2384	-23	-29	-65	-2248	-1544	17016	27	0	3	-7952	5264	12960	-94	184	-210	-15580	1552	6128	104	-15	133	-3696	-1364	16384	30	-165	203	127	121	5
-5560	-6032	14500	80	-14	-89	-15844	-1976	2512	-17	-37	-104	-2520	-1576	16896	24	-2	3	-7864	5284	12856	-128	188	-195	-15508	1604	6004	102	28	176	-3692	-1340	16372	17	-133	235	127	122	5
-5516	-6008	14540	115	-18	-111	-15832	-2092	2532	1	-35	-98	-2472	-1640	16912	23	-7	0	-7864	5272	12920	-139	153	-231	-15664	1612	6092	100	2	111	-3732	-1400	16408	-42	-136	272	127	121	5
-5580	-6052	14540	98	-46	-134	-15868	-2056	2556	-35	-63	-70	-2144	-1592	16776	28	-3	5	-7860	5244	12836	-158	160	-212	-15644	1528	6028	81	7	127	-3748	-1376	16300	-5	-124	233	127	122	5
-5600	-6008	14532	71	-48	-120	-15868	-2044	2412	-20	-20	-100	-2168	-1680	16736	35	-6	6	-7900	5256	12856	-134	162	-196	-15648	1500	5928	73	31	72	-3760	-1392	16420	34	-140	261	127	121	5
-5552	-6040	14432	110	-35	-117	-15856	-2068	2456	-28	-73	-81	-2408	-1576	16768	33	-4	4	-7900	5284	12824	-122	134	-213	-15576	1496	6084	81	5	116	-3728	-1432	16316	-6	-134	223	127	121	5
-5592	-6016	14500	103	-54	-136	-15884	-2072	2552	-50	-81	-68	-2424	-1432	16952	26	1	0	-7912	5228	12880	-102	151	-189	-15628	1456	6024	111	-15	150	-3716	-1496	16428	3	-147	222	127	121	5
-5524	-5988	14496	85	-28	-163	-15928	-2048	2508	-19	-80	-76	-2472	-1496	16768	21	-5	8	-7888	5252	12888	-133	150	-179	-15600	1512	6152	124	-35	138	-3660	-1420	16400	-35	-135	209	127	121	5
-5536	-6068	14404	103	-54	-112	-15832	-2072	2560	-32	-82	-50	-2224	-1440	16960	26	-3	3	-7864	5176	12860	-84	162	-171	-15544	1512	5916	140	-25	144	-3768	-1372	16364	3	-147	218	127	121	5
-5548	-6036	14488	133	-57	-120	-15924	-2108	2424	-13	-54	-74	-2432	-1552	16784	29	-6	5	-7936	5256	12924	-107	152	-171	-15580	1548	6068	90	-41	137	-3720	-1392	16404	-8	-140	221	126	121	5
-5612	-6060	14440	89	-43	-160	-15840	-2024	2568	7	-63	-61	-2440	-1472	16952	34	-3	4	-7956	5284	12956	-102	155	-172	-15608	1528	6128	127	-24	181	-3788	-1444	16428	-6	-165	165	127	121	5
-5544	-6008	14528	100	-54	-155	-15856	-2024	2256	-10	-73	-97	-2408	-1464	16608	35	-7	0	-7912	5232	12972	-80	141	-167	-15580	1544	6064	168	-38	138	-3732	-1420	16440	30	-123	163	127	121	5
-5588	-5996	14404	86	-68	-131	-15904	-1972	2504	-32	-67	-96	-2424	-1536	16744	31	-1	5	-7852	5200	12892	-83	139	-167	-15664	1584	6052	117	-38	153	-3752	-1412	16336	8	-119	195	127	121	5
-5576	-6072	14408	75	-81	-128	-15860	-2076	2424	-54	-80	-104	-2456	-1392	16960	28	-8	6	-7908	5256	13004	-94	126	-160	-15548	1580	6028	111	-21	126	-3688	-1440	16424	38	-92	213	127	121	5
-5592	-6028	14520	39	-45	-166	-15892	-2112	2288	-5	-11	-100	-2488	-1568	16584	24	-4	5	-7924	5220	12948	-100	163	-164	-15560	1600	6040	113	-63	118	-3740	-1408	16452	6	-116	200	127	121	5
-5588	-5992	14424	57	-40	-161	-15852	-1996	2420	19	-91	-119	-2408	-1472	16824	24	-6	6	-7892	5248	12836	-102	134	-199	-15528	1584	6084	55	-55	130	-3728	-1440	16400	1	-139	216	127	121	5
-5528	-6052	14496	60	-19	-159	-15868	-2020	2488	-41	-113	-125	-2328	-1496	16744	34	-2	7	-7880	5232	12956	-105	147	-122	-15556	1544	5936	80	-58	127	-3736	-1408	16300	-10	-112	203	127	121	5
-5604	-6072	14492	22	-77	-172	-15860	-1996	2336	-109	-110	-127	-2472	-1536	16672	25	-8	7	-7892	5280	12936	-73	120	-145	-15596	1508	6044	101	-97	149	-3788	-1396	16340	38	-124	195	127	121	5
-5572	-6044	14464	14	-55	-160	-15812	-2096	2392	-104	-125	-117	-2264	-1536	17048	30	-4	5	-7916	5244	12928	-80	168	-160	-15564	1512	6052	141	-86	113	-3732	-1444	16368	-8	-136	234	127	121	5
-5548	-6008	14464	29	-53	-173	-15872	-2112	2392	-42	-109	-129	-2272	-1640	16736	25	-7	10	-7876	5216	12932	-52	157	-157	-15492	1556	6116	131	-54	112	-3760	-1380	16456	20	-105	218	127	121	5
-5524	-6096	14452	35	-51	-156	-15900	-2124	2468	-69	-94	-97	-2240	-1608	16960	25	-7	10	-7840	5324	12912	-68	147	-179	-15608	1564	6148	111	-87	118	-3756	-1384	16340	24	-83	250	127	121	5
-5552	-6060	14420	39	-73	-158	-15864	-2140	2456	7	-116	-121	-2232	-1576	16568	31	0	4	-7868	5224	12924	-116	163	-152	-15576	1540	6080	63	-68	111	-3624	-1332	16368	-15	-101	229	127	121	5
-5600	-6048	14356	60	-68	-146	-15888	-2088	2492	10	-66	-76	-2216	-1520	16776	29	-6	3	-7932	5224	13004	-78	135	-163	-15576	1528	5924	85	-60	117	-3724	-1400	16392	8	-91	227	127	121	5
-5504	-6036	14476	62	-83	-163	-15872	-2124	2504	-12	-107	-51	-2296	-1608	16792	32	-5	4	-7884	5256	13040	-49	155	-143	-15596	1516	6088	111	-80	117	-3732	-1424	16420	28	-115	231	127	122	5
-5556	-6100	14492	82	-91	-98	-15804	-2148	2536	-82	-89	-47	-2624	-1616	16688	25	-4	3	-7844	5296	12828	-58	135	-123	-15592	1600	6048	96	-92	97	-3764	-1404	16324	-7	-78	243	127	121	5
-5568	-6052	14456	114	-59	-111	-15828	-2132	2492	-44	-93	-50	-2408	-1616	17144	25	1	4	-7832	5264	12808	-63	145	-178	-15556	1504	6044	48	-51	80	-3676	-1444	16288	47	-84	242	127	121	5
-5536	-6068	14484	113	-64	-121	-15852	-2124	2372	28	-134	-82	-2456	-1528	16840	17	0	1	-7824	5260	13036	-31	140	-110	-15588	1480	6084	86	-75	113	-3796	-1476	16364	16	-120	221	127	121	5
-5580	-6064	14528	106	-43	-142	-15860	-2080	2468	-22	-118	-43	-2360	-1496	16672	32	1	3	-7924	5284	12868	-52	167	-157	-15556	1508	6068	153	-89	111	-3768	-1388	16324	22	-116	239	127	121	5
-5556	-6052	14388	92	-31	-125	-15800	-2052	2524	-40	-153	-86	-2464	-1480	16848	32	-6	0	-7820	5292	12940	-58	111	-118	-15516	1536	5940	145	-107	111	-3756	-1408	16312	37	-72	204	127	121	5
-5552	-5940	14484	86	-58	-84	-15908	-2032	2528	-95	-110	-68	-2376	-1416	16824	31	3	5	-7916	5296	12908	-20	121	-138	-15616	1532	6028	105	-118	141	-3692	-1380	16492	20	-68	244	127	121	5
-5536	-6032	14468	50	-51	-162	-15932	-2064	2548	-58	-118	-93	-2360	-1448	16736	24	0	5	-7912	5252	12912	-3	105	-146	-15548	1540	6076	119	-125	151	-3708	-1424	16448	20	-83	277	127	121	5
-5568	-6020	14480	17	-86	-156	-15864	-2052	2652	-49	-138	-122	-2520	-1424	17008	19	3	5	-7840	5312	12816	-15	144	-127	-15548	1496	6220	78	-100	118	-3676	-1540	16280	61	-115	276	126	122	5
-5584	-6072	14432	17	-41	-181	-15804	-2064	2576	-35	-140	-109	-2216	-1608	16672	20	-1	12	-7848	5324	12920	8	157	-160	-15596	1560	6076	111	-73	169	-3640	-1388	16476	102	-93	208	126	122	5
-5500	-6056	14416	-6	-31	-149	-15900	-2160	2516	-79	-145	-98	-2328	-1624	17184	25	-2	7	-7860	5284	12936	4	161	-154	-15540	1504	6080	112	-74	170	-3736	-1368	16348	90	-100	228	126	121	5
-5504	-6104	14552	-2	-7	-141	-15976	-2152	2488	-81	-128	-80	-2304	-1568	16936	25	-2	9	-7868	5280	12920	-27	167	-161	-15604	1516	6152	134	-72	152	-3800	-1368	16344	78	-118	265	126	122	5
-5540	-6024	14528	3	-27	-160	-15848	-2160	2532	-35	-85	-38	-2208	-1608	16888	27	-10	7	-7840	5260	12964	-33	147	-174	-15612	1556	6252	73	-35	133	-3756	-1348	16324	25	-119	225	126	122	5
-5520	-6080	14432	68	-40	-145	-15880	-2140	2480	1	-74	-60	-2392	-1624	17032	30	-3	4	-7868	5276	12824	-4	154	-139	-15536	1484	6208	89	-13	140	-3736	-1456	16320	32	-148	232	127	121	5
-5512	-6088	14548	108	-56	-134	-15864	-2116	2508	41	-86	-34	-2304	-1624	16936	19	-6	2	-7844	5300	12984	-39	125	-168	-15552	1520	6120	114	-58	149	-3744	-1436	16392	92	-112	215	127	121	5
-5660	-6048	14512	98	-50	-111	-15852	-2132	2484	-1	-109	-43	-2248	-1584	16816	20	2	1	-7836	5224	12912	17	143	-210	-15568	1544	5988	134	-87	170	-3708	-1436	16212	53	-94	209	127	121	5
-5568	-6104	14540	82	-52	-108	-15844	-2060	2576	-65	-118	-19	-2368	-1512	16672	18	1	4	-7908	5428	12792	39	129	-157	-15648	1508	6028	244	-104	125	-3760	-1388	16340	80	-112	217	126	121	5
-5540	-6144	14596	110	-58	-108	-15796	-2072	2508	-81	-138	-28	-2376	-1456	16848	25	1	7	-7876	5348	12896	4	153	-84	-15544	1616	6160	197	-97	150	-3784	-1404	16248	61	-114	171	127	122	5
-5528	-6124	14492	117	-63	-165	-15840	-2088	2516	-82	-126	-44	-2400	-1392	16896	28	-5	4	-7888	5256	12948	-22	119	-105	-15516	1564	6108	194	-82	135	-3768	-1316	16304	41	-129	203	127	122	5
-5560	-6032	14488	91	-89	-109	-15868	-2148	2652	-66	-138	-64	-2272	-1624	16880	29	-9	5	-7772	5380	12880	-9	151	-125	-15572	1660	6036	158	-103	146	-3764	-1352	16428	31	-108	209	126	122	5
-5584	-6108	14456	97	-48	-112	-15904	-2112	2576	-17	-130	-35	-2304	-1432	16744	28	-9	4	-7828	5308	12888	-27	138	-125	-15584	1576	6212	135	-102	110	-3680	-1372	16384	14	-103	189	126	121	5
-5572	-6068	14492	74	-62	-132	-15800	-2148	2592	8	-79	-68	-2328	-1544	16824	28	-5	0	-7880	5336	12972	-19	156	-133	-15536	1596	6256	112	-65	146	-3620	-1380	16428	41	-138	154	127	121	5
-5588	-6100	14420	110	-51	-147	-15900	-2092	2584	10	-87	-66	-2192	-1576	17264	24	-2	1	-7800	5336	12888	-38	158	-134	-15512	1512	6148	188	-56	147	-3532	-1372	16444	48	-141	124	126	122	5
-5552	-6116	14492	104	-80	-104	-15844	-2064	2676	-56	-52	-54	-2240	-1352	17136	24	0	3	-7772	5360	12844	-65	182	-164	-15520	1648	6220	190	-34	133	-3640	-1336	16332	27	-153	162	127	121	5
-5516	-6124	14488	121	-30	-102	-15816	-2044	2660	-49	-9	-85	-2248	-1456	16952	28	-3	1	-7892	5412	12900	-107	165	-199	-15524	1676	6064	124	-30	180	-3624	-1328	16412	4	-135	145	126	121	5
-5504	-6076	14452	100	-50	-70	-15848	-2144	2580	19	8	-70	-2176	-1552	16824	25	-6	-1	-7884	5392	12812	-120	169	-232	-15564	1580	6132	36	42	150	-3620	-1344	16452	10	-158	195	127	121	5
-5504	-6120	14548	123	-17	-63	-15836	-2152	2548	50	-4	-47	-2240	-1512	16904	29	-1	0	-7880	5348	12836	-175	168	-207	-15500	1552	6260	30	63	124	-3616	-1452	16468	-61	-134	200	127	121	5
-5564	-6076	14524	150	23	-115	-15824	-2132	2464	2	27	-116	-2424	-1440	17056	29	-2	5	-7824	5288	12868	-137	192	-251	-15572	1488	5960	83	57	126	-3720	-1384	16360	-5	-172	166	127	122	5
-5556	-6088	14420	126	0	-73	-15888	-2112	2456	45	38	-72	-2384	-1648	16704	24	1	0	-7848	5344	12904	-143	149	-198	-15540	1616	6128	100	66	170	-3684	-1444	16356	-8	-159	141	126	122	5
-5592	-6024	14520	94	-6	-116	-15876	-2072	2492	57	1	-85	-2344	-1544	16784	20	5	-1	-7928	5320	12960	-133	180	-173	-15504	1472	6144	88	51	175	-3756	-1396	16300	25	-180	166	127	122	5
-5560	-6044	14448	147	-45	-116	-15896	-1996	2540	39	1	-78	-2408	-1528	16720	22	6	2	-7792	5260	12884	-148	206	-225	-15564	1488	6060	108	26	183	-3712	-1484	16276	21	-127	132	127	122	5
-5488	-6060	14564	90	-24	-108	-15896	-2040	2504	-21	-12	-75	-2440	-1528	17024	20	1	5	-7860	5308	12924	-103	175	-163	-15568	1528	6080	203	1	151	-3868	-1388	16348	54	-127	173	126	122	5
-5524	-6060	14468	66	-12	-116	-15916	-2076	2684	-104	0	-95	-2504	-1624	16920	20	2	2	-7892	5332	12904	-109	174	-143	-15592	1656	6004	157	-9	127	-3868	-1352	16292	48	-141	225	127	122	5
-5564	-6028	14576	61	-39	-137	-15808	-2156	2512	-15	-36	-113	-2360	-1616	16864	27	4	6	-7868	5348	12892	-124	168	-174	-15524	1612	6080	106	-41	154	-3768	-1352	16376	38	-116	248	126	122	5
-5568	-6132	14376	125	-51	-104	-15888	-2188	2448	41	-78	-55	-2328	-1640	16824	29	-1	6	-7920	5284	12904	-126	151	-203	-15572	1608	6144	67	-68	169	-3776	-1364	16344	11	-103	245	126	122	5
-5552	-6092	14460	112	-32	-111	-15800	-2108	2508	32	-85	-66	-2544	-1640	16664	25	-2	7	-7900	5228	12840	-155	167	-197	-15608	1572	5968	119	-28	140	-3780	-1548	16360	40	-138	270	127	122	5
-5580	-6064	14448	117	-74	-110	-15804	-2132	2604	-27	-105	-50	-2416	-1632	16704	23	-3	7	-7868	5156	12860	-116	112	-176	-15548	1460	6140	103	9	132	-3696	-1448	16520	69	-148	262	126	122	5
-5548	-6040	14492	126	-38	-146	-15852	-2196	2396	-56	-74	-2	-2368	-1536	17016	25	-1	5	-7884	5292	12936	-78	146	-152	-15588	1520	6196	112	-45	127	-3756	-1416	16308	65	-129	276	127	122	5
-5580	-6088	14484	124	-68	-122	-15872	-2052	2512	-47	-89	-17	-2304	-1664	17168	32	0	3	-7888	5296	13024	-73	145	-179	-15592	1536	6056	140	-58	179	-3728	-1364	16324	51	-108	230	127	122	5
-5504	-6100	14448	163	-64	-106	-15832	-2172	2584	24	-67	-6	-2336	-1624	16616	34	-4	-2	-7892	5388	13012	-49	147	-159	-15596	1564	6040	123	-68	168	-3760	-1432	16264	20	-153	260	126	122	5
-5628	-6072	14508	155	-57	-109	-15848	-2056	2488	72	-78	-4	-2296	-1536	16688	33	-6	1	-7844	5248	12932	-93	155	-163	-15568	1576	6120	105	-65	167	-3624	-1464	16348	34	-161	237	127	122	5
-5508	-6056	14520	183	-38	-75	-15868	-2052	2512	12	-83	-1	-2336	-1408	16992	30	-4	1	-7900	5220	12804	-63	172	-149	-15572	1632	6120	127	-64	145	-3692	-1432	16412	92	-170	267	126	122	5
-5528	-6052	14520	198	-61	-107	-15860	-2036	2412	37	-68	-14	-2328	-1536	17096	28	-5	3	-7828	5292	12804	-59	146	-137	-15492	1656	6176	194	-32	183	-3692	-1328	16424	52	-180	217	127	122	5
-5516	-6048	14376	169	-57	-109	-15860	-2080	2552	6	-70	-19	-2360	-1400	16848	28	-1	2	-7848	5312	12968	-36	155	-134	-15512	1696	6084	156	-17	138	-3708	-1284	16316	85	-153	191	126	122	5
-5548	-6088	14444	146	-15	-111	-15844	-2076	2552	0	-32	-1	-2288	-1576	16944	31	1	4	-7876	5384	12868	-67	142	-184	-15508	1576	6020	99	-43	165	-3704	-1328	16452	56	-156	211	127	122	5
-5512	-6096	14520	107	-23	-120	-15800	-2020	2488	23	-68	-24	-2408	-1456	16760	22	0	3	-7868	5300	12844	-91	172	-170	-15524	1644	6088	98	-27	149	-3692	-1336	16400	27	-116	220	126	122	5
-5552	-6008	14472	68	-60	-109	-15872	-2040	2592	-6	-39	-56	-2568	-1512	16896	22	3	0	-7888	5340	12892	-83	131	-175	-15552	1612	6024	117	-29	147	-3760	-1376	16384	13	-101	244	127	122	5
-5524	-6080	14480	105	-73	-129	-15912	-2008	2568	-79	-32	-63	-2280	-1544	16624	22	1	5	-7904	5320	12936	-75	148	-207	-15564	1656	6152	98	-29	128	-3688	-1340	16328	38	-100	225	127	122	5
-5512	-6076	14460	60	-46	-119	-15860	-2056	2512	-42	-77	-119	-2328	-1544	17056	19	1	6	-7876	5364	12868	-101	136	-161	-15524	1604	6108	71	-43	108	-3684	-1316	16332	41	-119	220	127	122	5
-5548	-6044	14436	75	-109	-149	-15896	-2048	2548	-14	-63	-71	-2376	-1592	16848	21	-2	1	-7892	5380	12768	-105	124	-202	-15564	1584	6168	59	-24	121	-3724	-1340	16264	14	-110	228	127	122	5
-5472	-6096	14500	40	-42	-144	-15900	-2096	2552	-1	-63	-89	-2224	-1616	16672	26	-1	2	-7852	5304	12904	-115	127	-202	-15560	1628	6124	50	3	113	-3680	-1408	16468	20	-126	236	126	122	5
-5532	-6024	14500	66	-25	-164	-15828	-2124	2532	-4	-20	-91	-2296	-1520	16720	28	-3	3	-7920	5368	12908	-139	153	-194	-15536	1560	6144	63	-8	116	-3696	-1428	16420	10	-141	215	126	122	5
-5568	-6040	14436	111	-6	-126	-15892	-2116	2592	-20	-42	-113	-2304	-1568	16584	22	1	0	-7876	5296	12892	-142	163	-200	-15564	1592	6092	72	-12	135	-3760	-1396	16452	15	-137	190	126	122	5
-5568	-6028	14476	107	-53	-149	-15912	-2168	2448	-48	-53	-101	-2464	-1640	16848	26	-2	0	-7900	5284	12920	-124	184	-153	-15612	1592	6004	33	27	116	-3760	-1376	16288	-14	-128	234	127	122	5
-5544	-6056	14524	142	-23	-85	-15908	-2164	2508	-1	-45	-61	-2368	-1696	16936	13	2	5	-7864	5288	12824	-144	164	-187	-15544	1556	6072	78	-24	121	-3704	-1408	16344	3	-108	199	126	122	5
-5512	-6108	14448	99	-25	-128	-15856	-2056	2508	-20	-79	-45	-2320	-1528	16784	16	3	3	-7804	5300	12880	-115	159	-193	-15480	1488	6052	71	-24	149	-3684	-1452	16404	71	-136	195	127	122	5
-5580	-6072	14520	85	-33	-131	-15820	-2112	2388	-90	-66	-57	-2352	-1432	16560	20	-1	6	-7852	5276	13000	-95	178	-176	-15596	1564	6044	128	5	139	-3796	-1384	16220	9	-185	182	127	122	5
-5528	-6060	14468	73	-44	-121	-15896	-1992	2488	-59	-101	-95	-2488	-1592	17016	30	-8	4	-7916	5264	12856	-77	155	-144	-15640	1640	6128	101	-54	129	-3776	-1404	16408	40	-155	212	127	122	5
-5508	-6132	14512	72	-66	-138	-15816	-2124	2560	-57	-57	-145	-2544	-1592	16888	34	-1	4	-7852	5328	12932	-105	143	-183	-15556	1592	6108	97	-2	96	-3672	-1404	16436	-36	-82	232	127	122	5
-5584	-6084	14592	55	-37	-118	-15912	-2144	2588	-32	-53	-89	-2408	-1488	16944	30	-2	1	-7872	5236	12876	-83	165	-146	-15580	1560	6184	99	-20	142	-3744	-1356	16384	66	-85	241	127	122	5
-5512	-6080	14444	72	-65	-145	-15836	-2180	2424	3	-75	-40	-2336	-1464	16744	26	3	1	-7840	5368	12840	-90	172	-191	-15452	1644	6148	100	11	133	-3668	-1404	16460	52	-36	259	127	122	5
-5480	-6100	14356	123	-81	-150	-15868	-2184	2580	-14	-15	-49	-2424	-1536	16528	31	-1	5	-7804	5320	12760	-133	163	-187	-15480	1660	6040	48	16	134	-3692	-1440	16248	68	-111	224	126	122	5
-5572	-6112	14456	112	12	-101	-15840	-2180	2508	-31	-5	-99	-2360	-1624	16672	21	-1	4	-7852	5376	12884	-177	200	-239	-15488	1632	6140	50	8	140	-3748	-1344	16260	62	-121	233	127	123	5
-5504	-6068	14540	92	-33	-102	-15848	-2184	2488	9	5	-58	-2320	-1520	16920	28	2	-3	-7852	5336	12944	-132	186	-208	-15664	1536	6084	-26	49	88	-3748	-1372	16480	32	-101	266	126	122	5
-5540	-6020	14520	109	-9	-139	-15896	-2156	2468	60	-32	-20	-2408	-1552	17088	31	-3	-4	-7800	5304	12924	-105	153	-192	-15576	1564	6056	23	31	138	-3788	-1392	16320	-2	-129	257	126	122	5
-5604	-6164	14528	110	19	-113	-15844	-2040	2360	85	-56	-21	-2368	-1560	17024	36	-3	1	-7880	5312	13052	-107	179	-176	-15572	1512	5920	41	-31	115	-3772	-1456	16356	53	-144	236	126	122	5
-5604	-6112	14408	108	43	-114	-15900	-2012	2516	8	-43	-20	-2472	-1368	16792	30	-4	7	-7868	5308	12888	-73	165	-170	-15568	1508	6000	100	-6	138	-3776	-1556	16300	44	-136	197	126	122	5
-5540	-6092	14452	135	-56	-133	-15896	-2060	2340	-26	-96	-13	-2432	-1488	16688	25	-6	7	-7896	5276	12872	-33	168	-110	-15592	1492	5952	130	-11	196	-3836	-1472	16264	61	-155	219	127	122	5
-5496	-6040	14480	137	-94	-136	-15896	-2076	2520	-18	-98	-26	-2304	-1400	16920	23	-7	7	-7872	5268	12864	-6	133	-104	-15592	1488	6116	165	-59	175	-3800	-1376	16280	39	-153	213	126	122	5
-5528	-6008	14456	100	9	-135	-15888	-2068	2344	-85	-105	-71	-2304	-1544	16832	21	-7	5	-7892	5284	12932	13	177	-120	-15604	1576	6112	186	-58	138	-3684	-1356	16424	-20	-128	189	126	122	5
-5520	-6024	14492	101	-68	-139	-15864	-2076	2536	-59	-86	-57	-2344	-1544	16904	24	-6	4	-7848	5328	12800	-6	155	-115	-15588	1620	6076	174	-86	127	-3684	-1264	16320	22	-130	198	127	122	5
-5592	-6100	14460	103	-94	-125	-15892	-2088	2444	-39	-85	-34	-2288	-1440	16680	26	-2	2	-7812	5296	12940	0	131	-73	-15524	1676	6028	160	-58	152	-3716	-1248	16400	15	-128	200	126	122	5
-5544	-6108	14452	109	-64	-113	-15808	-2076	2480	-28	-142	-98	-2296	-1576	16920	23	0	3	-7836	5420	12868	-63	141	-170	-15512	1648	6280	120	-65	133	-3600	-1324	16376	4	-119	185	126	122	5
-5588	-6136	14532	83	-68	-160	-15804	-2108	2540	-20	-45	-64	-2328	-1488	16680	21	-4	5	-7856	5408	12848	-104	136	-146	-15496	1600	6196	148	-62	129	-3588	-1292	16296	38	-123	188	127	122	5
-5536	-6052	14528	85	-9	-128	-15844	-2116	2528	-46	-36	-94	-2408	-1536	16848	14	2	2	-7840	5324	12924	-80	137	-196	-15496	1716	6124	129	-33	118	-3716	-1316	16460	15	-116	203	127	122	5
-5564	-6064	14480	123	-94	-79	-15848	-2144	2512	-42	-83	-88	-2336	-1456	16712	22	-1	3	-7820	5412	12804	-83	177	-184	-15584	1628	6156	95	-52	142	-3716	-1308	16384	14	-143	223	127	122	5
-5524	-6060	14388	85	-29	-131	-15884	-2144	2496	29	-43	-66	-2240	-1632	16848	20	4	0	-7868	5316	12876	-125	118	-204	-15524	1700	6024	43	-41	93	-3712	-1340	16352	22	-107	218	126	122	5
-5600	-6100	14420	109	-24	-152	-15840	-2048	2568	51	-77	-74	-2336	-1552	16776	16	8	1	-7888	5332	12900	-155	185	-244	-15532	1500	6120	41	-1	116	-3672	-1444	16348	-20	-120	231	127	122	5
-5584	-6048	14448	97	-80	-95	-15892	-2020	2600	-20	-67	-96	-2288	-1448	16744	19	2	4	-7840	5260	12964	-126	167	-191	-15532	1536	6228	79	22	112	-3712	-1508	16328	-6	-141	197	126	123	5
-5544	-6044	14556	69	-58	-123	-15900	-2000	2588	-58	-66	-129	-2264	-1440	16896	18	2	4	-7908	5252	12928	-141	148	-188	-15560	1508	6076	82	-23	134	-3808	-1464	16436	10	-161	246	127	123	5
-5524	-6000	14424	96	-51	-112	-15912	-2092	2556	-43	-40	-123	-2424	-1656	16912	20	2	7	-7944	5288	12948	-132	134	-212	-15508	1548	6064	84	-11	130	-3744	-1448	16224	25	-129	222	127	122	5
-5524	-6024	14508	50	-29	-129	-15868	-2168	2516	-20	-34	-89	-2352	-1592	16816	24	-3	5	-7876	5284	12864	-89	153	-169	-15544	1520	6056	120	-37	177	-3732	-1464	16344	26	-133	240	127	122	5
-5516	-6124	14504	77	-59	-121	-15888	-2132	2520	24	-58	-76	-2344	-1696	16776	25	-2	4	-7892	5316	12948	-79	172	-144	-15552	1604	6156	104	-64	153	-3684	-1480	16288	62	-120	244	127	122	5
-5544	-6124	14524	73	-39	-161	-15864	-2156	2484	33	-34	-64	-2216	-1696	16992	30	5	5	-7848	5324	12704	-84	153	-140	-15576	1592	6156	144	-11	150	-3724	-1504	16332	32	-146	207	127	122	5
-5516	-6092	14496	107	-15	-122	-15848	-2188	2460	-28	-49	-62	-2400	-1624	16896	30	-3	6	-7868	5344	12880	-85	165	-190	-15572	1544	6072	140	-12	154	-3740	-1384	16320	83	-150	217	127	122	5
-5556	-6084	14500	108	-57	-114	-15868	-2188	2524	-28	-15	-31	-2368	-1560	16704	27	-6	5	-7900	5316	12948	-96	162	-194	-15556	1576	6108	95	-24	176	-3752	-1408	16384	61	-144	270	127	122	5
-5504	-6124	14420	114	-59	-117	-15880	-2116	2500	-42	-68	-30	-2472	-1656	17024	30	0	-1	-7800	5300	12880	-84	151	-175	-15600	1604	6100	136	-1	213	-3788	-1400	16368	63	-133	232	126	122	5
-5596	-6104	14500	143	-27	-110	-15796	-2192	2412	28	-67	4	-2368	-1616	16768	27	-8	3	-7896	5268	12908	-78	172	-169	-15664	1604	6112	67	-14	203	-3736	-1412	16416	78	-143	247	127	122	5
-5572	-6124	14432	144	-45	-97	-15848	-2148	2496	29	-56	-7	-2320	-1592	17064	26	-4	7	-7856	5296	12872	-69	169	-156	-15580	1620	5976	142	4	148	-3664	-1296	16340	111	-137	242	127	122	5
-5552	-6108	14400	146	-52	-101	-15844	-2168	2560	-27	-68	-31	-2384	-1488	16904	29	-7	3	-7892	5304	12880	-50	125	-160	-15572	1648	6140	97	-39	196	-3752	-1352	16384	112	-166	245	126	122	5
-5552	-6040	14384	133	-21	-116	-15908	-2096	2464	-3	-84	-31	-2344	-1416	16760	30	-6	3	-7888	5332	12924	-53	178	-166	-15592	1632	6112	106	-17	186	-3744	-1364	16424	48	-123	257	126	122	5
-5580	-6040	14484	181	-49	-97	-15904	-2068	2500	23	-81	0	-2280	-1664	16848	26	-5	0	-7876	5348	12920	-37	131	-173	-15544	1548	6124	93	-38	171	-3728	-1340	16416	40	-141	204	126	122	5
-5512	-6036	14428	141	-45	-101	-15864	-2016	2488	14	-106	20	-2368	-1400	16896	25	-3	3	-7916	5268	12852	-71	167	-137	-15536	1592	6000	112	-68	187	-3756	-1388	16260	59	-156	218	126	122	5
-5528	-5996	14444	142	25	-129	-15844	-2028	2600	-37	-86	-42	-2432	-1448	17016	23	-1	0	-7892	5352	12888	-41	136	-133	-15512	1596	6040	158	-64	160	-3744	-1324	16348	69	-146	191	126	122	5
-5512	-6096	14560	99	-24	-78	-15848	-2036	2408	-63	-76	-69	-2320	-1360	17072	16	-3	6	-7840	5392	12836	-65	144	-107	-15568	1664	6028	124	-39	145	-3736	-1280	16348	30	-126	203	126	122	5
-5484	-6124	14548	102	-38	-97	-15860	-2000	2508	-29	-75	-85	-2368	-1488	16944	22	-2	2	-7924	5368	12852	-68	165	-194	-15524	1656	6112	98	-63	146	-3664	-1336	16412	-9	-120	185	126	122	5
-5584	-6068	14532	76	-41	-169	-15796	-2068	2600	13	-91	-75	-2248	-1608	16896	19	-1	7	-7824	5396	12796	-121	134	-180	-15540	1612	6180	89	-52	130	-3648	-1324	16404	-17	-133	171	127	122	5
-5588	-6112	14580	68	-84	-169	-15840	-2084	2488	2	-81	-90	-2424	-1488	16936	22	-4	4	-7856	5424	12844	-52	152	-173	-15560	1676	6240	100	-35	98	-3716	-1328	16420	67	-124	214	127	122	5
-5500	-6032	14552	47	-4	-131	-15872	-2116	2620	-30	-82	-121	-2408	-1616	16736	27	2	4	-7892	5384	12804	-128	158	-209	-15536	1776	6128	81	-85	125	-3688	-1316	16400	78	-133	204	127	122	5
-5544	-6116	14416	46	-19	-157	-15900	-2092	2532	-73	-40	-85	-2376	-1552	16888	34	-2	-3	-7816	5424	12852	-129	114	-179	-15552	1644	6144	51	-12	115	-3700	-1376	16348	39	-91	241	127	122	5
-5492	-6064	14448	51	-56	-132	-15808	-2092	2652	6	-54	-96	-2320	-1560	17120	44	2	-3	-7808	5320	12860	-137	143	-232	-15488	1632	6128	61	-42	106	-3724	-1364	16384	39	-58	207	127	122	5
-5496	-6048	14484	95	-52	-135	-15852	-2140	2464	74	-32	-74	-2304	-1432	16832	20	10	2	-7828	5264	12876	-185	177	-208	-15492	1576	6152	64	6	103	-3688	-1456	16348	79	-109	205	127	122	5
-5500	-6076	14504	67	-20	-140	-15828	-2112	2484	-56	-61	-128	-2416	-1688	16648	23	0	4	-7860	5276	12916	-160	152	-210	-15588	1608	6108	47	5	112	-3812	-1424	16280	31	-116	246	127	122	5
-5576	-6068	14516	79	-80	-94	-15908	-2148	2600	-78	-46	-45	-2352	-1432	16848	25	-2	6	-7872	5336	12972	-132	157	-179	-15556	1588	6032	26	-3	140	-3780	-1432	16332	-18	-87	242	127	122	5
-5520	-6104	14472	129	-41	-117	-15820	-2172	2580	-73	-49	-95	-2528	-1720	16896	38	-1	5	-7872	5336	12832	-105	156	-154	-15528	1492	6036	78	-17	125	-3768	-1416	16412	-45	-102	218	127	122	5
-5500	-6108	14516	94	-27	-137	-15920	-2224	2616	3	-68	-10	-2416	-1712	16992	29	-6	2	-7816	5264	12796	-149	196	-194	-15536	1512	6096	126	-49	162	-3688	-1528	16388	63	-147	213	126	122	5
-5512	-6164	14504	133	-42	-52	-15800	-2148	2552	46	-63	-39	-2360	-1568	16784	17	3	0	-7868	5252	12920	-83	193	-160	-15520	1528	6188	116	18	184	-3620	-1444	16484	68	-135	203	126	122	5
-5544	-6088	14444	160	-66	-85	-15792	-2064	2572	59	-57	-42	-2400	-1584	16856	28	3	0	-7888	5376	12820	-51	205	-191	-15568	1560	6172	68	7	163	-3688	-1444	16436	71	-130	202	126	122	5
-5564	-6072	14588	140	-56	-94	-15880	-2124	2464	30	-31	6	-2352	-1584	16824	11	1	5	-7888	5316	12812	-49	190	-189	-15564	1624	6068	78	-20	111	-3816	-1320	16332	12	-112	184	127	122	5
-5476	-6020	14380	168	-17	-63	-15928	-2072	2552	1	-3	-37	-2432	-1584	17200	23	0	7	-7832	5392	12812	-5	186	-150	-15556	1696	6056	38	15	183	-3792	-1300	16348	26	-143	229	126	122	5
-5496	-6016	14496	118	-10	-85	-15896	-2076	2512	42	-18	-50	-2472	-1560	16664	31	-3	4	-7888	5348	12868	-28	175	-149	-15616	1664	6144	51	-2	171	-3844	-1284	16472	17	-157	226	126	122	5
-5576	-6056	14452	114	1	-120	-15848	-2024	2428	45	-51	-6	-2512	-1576	17072	31	-4	4	-7852	5368	12852	-2	167	-141	-15612	1612	5964	92	-28	136	-3764	-1312	16352	74	-156	177	126	122	5
-5556	-6028	14404	97	-18	-113	-15828	-2036	2560	-10	-59	-39	-2528	-1528	16768	26	-1	3	-7832	5344	12772	-20	172	-146	-15504	1664	6092	114	-20	160	-3752	-1376	16192	42	-130	225	126	122	5
-5528	-6080	14496	102	-16	-154	-15864	-2052	2524	31	-63	-38	-2464	-1496	16728	25	-3	5	-7840	5368	12932	-64	163	-138	-15488	1568	6104	104	-60	145	-3760	-1328	16436	47	-116	214	126	123	5
-5544	-6076	14576	56	-57	-111	-15880	-2088	2448	-7	-106	-54	-2360	-1384	16792	26	-5	1	-7820	5288	12820	-63	108	-147	-15540	1620	6112	98	-51	141	-3796	-1316	16448	62	-104	222	126	122	5
-5540	-6028	14576	51	-80	-137	-15904	-2024	2380	-90	-88	-80	-2368	-1448	16744	29	-3	5	-7812	5344	12864	-61	154	-147	-15524	1580	6076	128	-61	133	-3660	-1364	16392	50	-139	232	127	123	5
-5500	-6136	14400	28	-49	-145	-15848	-2120	2600	-89	-64	-106	-2296	-1640	16784	35	-3	1	-7860	5332	12844	-91	140	-189	-15548	1660	6224	122	-67	120	-3724	-1304	16336	69	-123	215	126	123	5
-5424	-6144	14376	70	-89	-147	-15880	-2144	2620	-64	-109	-43	-2280	-1600	16776	19	0	3	-7848	5368	12908	-101	141	-143	-15552	1708	6196	104	-86	124	-3704	-1292	16204	-4	-130	227	126	123	5
-5512	-6132	14468	83	-18	-134	-15832	-2160	2508	-48	-68	-74	-2456	-1680	16880	28	-1	2	-7900	5376	12876	-143	134	-220	-15572	1684	6144	51	-43	124	-3728	-1352	16300	-14	-107	195	126	123	5
-5544	-6060	14432	109	-59	-121	-15892	-2180	2512	46	-42	-43	-2296	-1592	17056	20	-5	5	-7860	5396	12856	-154	155	-202	-15576	1552	6072	67	-18	96	-3624	-1340	16404	18	-153	211	126	122	5
-5484	-6084	14448	120	-26	-100	-15812	-2164	2524	-6	-23	-71	-2384	-1568	17112	23	4	3	-7872	5376	12772	-135	157	-166	-15532	1576	6076	105	-42	131	-3668	-1436	16404	10	-119	194	126	122	5
-5548	-6052	14540	130	-14	-121	-15860	-2048	2644	-33	-16	-69	-2280	-1528	16744	22	-1	2	-7896	5316	12900	-124	158	-191	-15528	1588	6104	97	-15	126	-3736	-1376	16364	50	-109	189	127	122	5
-5524	-6132	14520	122	-40	-128	-15824	-2152	2516	-14	5	-109	-2464	-1568	16864	24	3	6	-7884	5328	12904	-174	124	-219	-15548	1616	6084	76	12	115	-3760	-1404	16384	-17	-107	242	126	122	5
-5548	-6120	14524	134	-28	-122	-15880	-2088	2476	-4	-16	-66	-2344	-1528	16864	26	-2	5	-7876	5368	12820	-94	154	-209	-15544	1616	6128	43	9	117	-3844	-1408	16388	-33	-120	242	127	122	5
-5504	-6128	14564	147	-37	-127	-15864	-2112	2468	3	-20	-60	-2456	-1664	16864	23	2	4	-7840	5308	12928	-156	159	-202	-15560	1556	6048	57	19	130	-3804	-1380	16288	-14	-125	221	126	122	5
-5564	-6028	14552	108	-24	-111	-15856	-2064	2588	16	-42	-68	-2344	-1456	16704	25	0	3	-7892	5332	13004	-137	215	-145	-15572	1572	6140	56	4	142	-3728	-1432	16340	-8	-151	219	127	122	5
-5512	-6036	14520	112	-41	-83	-15880	-2088	2516	-1	-55	-46	-2232	-1432	16856	27	7	3	-7844	5320	12888	-93	168	-194	-15564	1528	6052	87	-10	134	-3768	-1440	16448	44	-123	224	126	122	5
-5560	-5996	14556	87	-54	-120	-15848	-2108	2620	8	-62	-42	-2384	-1696	16816	29	-1	3	-7884	5344	12868	-98	159	-165	-15548	1568	6140	110	-30	156	-3816	-1376	16248	28	-99	193	126	123	5
-5580	-6064	14568	94	-52	-140	-15876	-2140	2552	-27	-78	-93	-2392	-1584	16936	27	1	3	-7904	5328	12944	-57	150	-173	-15496	1656	6024	95	-51	150	-3768	-1368	16388	31	-101	211	126	122	5
-5540	-6032	14452	85	-29	-113	-15864	-2076	2388	-14	-46	-54	-2440	-1496	16896	25	-2	7	-7964	5324	12856	-80	163	-189	-15580	1564	5996	119	-50	107	-3776	-1384	16356	28	-136	241	126	122	5
-5588	-6096	14440	78	-49	-112	-15844	-2108	2540	-27	-94	-63	-2376	-1688	16712	34	-6	4	-7820	5372	12964	-102	149	-170	-15564	1536	6052	58	-44	127	-3720	-1416	16328	47	-138	273	127	122	5
-5500	-6008	14360	113	-68	-125	-15876	-2184	2548	-28	-82	-70	-2368	-1496	17120	30	-3	5	-7844	5344	12844	-69	134	-155	-15596	1608	6116	71	-30	165	-3764	-1424	16364	25	-118	252	126	122	5
-5532	-6092	14468	138	-3	-132	-15828	-2116	2456	1	-78	-16	-2528	-1576	17080	31	-4	5	-7792	5332	12820	-98	140	-154	-15592	1592	6132	112	-78	145	-3688	-1468	16376	49	-109	203	126	122	5
-5480	-6076	14464	115	-86	-97	-15832	-2076	2424	-6	-91	-5	-2320	-1448	17056	24	-5	8	-7880	5308	12932	-82	133	-169	-15568	1612	6108	102	-70	164	-3768	-1456	16480	47	-132	228	127	122	5
-5472	-6052	14468	116	-58	-117	-15856	-2100	2560	-11	-46	-55	-2464	-1496	16936	25	-4	4	-7848	5300	12812	-68	164	-160	-15472	1672	6160	133	-67	140	-3736	-1388	16328	43	-131	190	126	122	5
-5524	-6052	14452	132	-32	-124	-15860	-2052	2596	-36	-76	-30	-2464	-1416	16936	20	-3	1	-7872	5364	12840	-27	154	-145	-15508	1644	6104	118	-53	142	-3712	-1384	16388	37	-109	212	126	123	5
-5524	-6080	14384	144	-24	-106	-15820	-2136	2496	12	-66	-63	-2360	-1472	17072	24	-2	4	-7892	5296	12788	-67	152	-158	-15568	1616	6228	116	-37	155	-3656	-1340	16304	34	-133	214	126	122	5
-5528	-6088	14552	120	-66	-98	-15800	-2088	2536	9	-60	-45	-2168	-1592	16760	30	-3	5	-7892	5388	12792	-115	168	-160	-15524	1684	6156	72	-34	112	-3660	-1348	16440	36	-120	243	127	122	5
-5508	-6112	14484	104	-40	-113	-15892	-2068	2544	-36	-48	-55	-2424	-1392	16896	27	-2	6	-7860	5372	12928	-108	155	-180	-15516	1632	6124	99	-17	125	-3736	-1400	16568	26	-147	216	126	123	5
-5504	-6072	14516	91	3	-113	-15808	-1972	2644	-14	-30	-65	-2592	-1480	17032	24	0	0	-7908	5372	12936	-78	158	-200	-15560	1580	6148	86	-6	150	-3784	-1296	16356	11	-137	215	126	123	5
-5548	-6132	14588	78	-52	-150	-15888	-2004	2500	29	-62	-68	-2416	-1464	16688	24	-4	3	-7836	5380	13008	-112	157	-179	-15520	1640	6088	93	-20	127	-3672	-1420	16300	1	-147	213	127	122	5
-5540	-6048	14500	46	18	-162	-15900	-2012	2476	-14	-77	-65	-2408	-1512	16904	23	-1	10	-7908	5332	12888	-88	148	-178	-15488	1648	5996	103	-11	175	-3736	-1376	16376	30	-103	222	126	122	5
-5560	-6100	14472	52	-43	-143	-15892	-2140	2500	-52	-69	-104	-2472	-1488	17128	19	2	3	-7868	5344	12940	-97	118	-164	-15548	1684	6132	82	-50	133	-3756	-1356	16480	35	-157	208	126	123	5
-5532	-6060	14540	68	-12	-158	-15876	-2204	2576	-15	-69	-63	-2296	-1536	16968	27	-2	4	-7864	5348	12884	-126	132	-165	-15576	1600	6112	71	-36	103	-3740	-1412	16384	-30	-110	231	127	123	5
-5536	-6048	14580	81	-24	-126	-15892	-2112	2508	-22	-60	-100	-2432	-1688	16896	24	-4	6	-7840	5320	12988	-159	153	-157	-15584	1576	6252	42	-23	109	-3736	-1428	16368	-17	-133	179	127	122	5
-5520	-6040	14476	124	-73	-122	-15852	-2156	2536	-34	-72	-74	-2336	-1400	16936	22	-2	2	-7868	5292	12852	-106	146	-166	-15592	1524	6184	69	-33	131	-3740	-1452	16380	49	-136	205	126	123	5
-5596	-6052	14460	116	-52	-120	-15844	-2132	2440	-33	-67	-54	-2376	-1608	16896	18	0	3	-7824	5324	12844	-76	157	-194	-15536	1512	6072	113	-16	145	-3720	-1400	16420	45	-140	221	127	122	5
-5544	-6032	14592	80	-40	-124	-15848	-2096	2608	-38	-52	-93	-2352	-1552	16792	23	-3	4	-7840	5368	12836	-84	168	-168	-15568	1620	6100	100	-8	106	-3748	-1408	16432	-4	-123	233	126	123	5
-5592	-6120	14348	106	-40	-117	-15828	-2076	2652	-75	-61	-39	-2440	-1472	16936	32	-8	7	-7848	5292	12924	-65	189	-120	-15528	1532	6140	83	-37	118	-3740	-1436	16384	13	-125	191	126	122	5
-5564	-6088	14472	135	-62	-115	-15832	-2168	2496	-11	-63	-64	-2360	-1528	16792	25	1	5	-7880	5356	12920	-114	160	-154	-15596	1616	6016	139	-45	157	-3672	-1388	16524	41	-148	235	127	122	5
-5540	-6084	14392	115	-23	-120	-15780	-2152	2460	38	-55	-19	-2288	-1592	17016	21	-2	5	-7876	5356	12912	-45	161	-137	-15488	1592	6048	127	-55	170	-3760	-1392	16552	23	-121	207	127	122	5
-5556	-6008	14504	124	-62	-135	-15832	-2136	2452	50	-48	-35	-2280	-1568	16952	25	-2	4	-7836	5300	12872	-39	144	-163	-15516	1576	6004	95	-17	129	-3644	-1332	16348	26	-119	204	126	122	5
-5536	-6092	14480	139	-27	-100	-15800	-2068	2656	27	-17	-53	-2328	-1448	16912	25	-5	5	-7836	5360	12876	-32	162	-152	-15496	1584	6176	60	9	142	-3696	-1320	16392	40	-140	189	126	122	5
-5504	-6024	14532	128	33	-104	-15792	-2036	2576	7	-10	-60	-2392	-1392	17000	23	-5	6	-7832	5336	12976	-9	197	-169	-15548	1556	6140	74	-24	137	-3712	-1312	16308	11	-154	239	126	122	5
-5568	-6012	14520	138	-40	-131	-15864	-2084	2608	23	-7	-26	-2408	-1656	16896	33	-1	4	-7908	5308	12872	-8	184	-157	-15540	1588	6056	71	-17	145	-3772	-1300	16436	-2	-148	206	126	123	5
-5592	-6096	14520	67	2	-115	-15900	-2068	2592	7	-43	-60	-2336	-1608	16728	29	1	2	-7832	5356	12936	-83	189	-165	-15572	1636	6144	49	28	111	-3712	-1320	16312	32	-124	221	127	122	5
-5616	-6084	14444	73	-7	-148	-15800	-2040	2480	22	-36	-37	-2360	-1328	16768	25	2	2	-7824	5336	12872	-86	178	-159	-15544	1628	6108	94	-33	129	-3780	-1356	16380	79	-107	197	127	122	5
-5516	-6068	14440	69	-31	-125	-15852	-2112	2492	12	-45	-91	-2384	-1376	16712	27	-1	3	-7796	5396	12816	-54	165	-195	-15572	1624	6120	68	-14	157	-3748	-1356	16312	39	-154	194	127	122	5
-5544	-6104	14332	68	-95	-131	-15848	-2116	2508	-13	-55	-72	-2392	-1440	16920	26	-1	6	-7872	5384	12916	-99	164	-165	-15516	1664	6136	78	-68	143	-3740	-1284	16244	47	-117	210	127	122	5
-5516	-6060	14432	66	-33	-115	-15920	-2052	2608	-84	-71	-106	-2320	-1432	16376	37	-6	1	-7876	5416	12820	-127	132	-160	-15560	1604	6152	79	-40	134	-3796	-1336	16436	37	-137	235	126	123	5
-5596	-6036	14496	57	-60	-103	-15848	-2096	2528	-55	-73	-110	-2432	-1536	16888	25	-5	8	-7852	5360	12892	-103	147	-190	-15492	1596	6156	62	-27	139	-3704	-1444	16408	2	-116	223	127	123	5
-5548	-6068	14400	76	-49	-129	-15800	-2096	2596	-68	-105	-114	-2336	-1352	16904	23	-4	7	-7856	5368	12900	-91	160	-156	-15528	1544	6168	68	-29	111	-3636	-1412	16236	15	-129	179	127	123	5
-5516	-6112	14392	82	-86	-125	-15880	-2104	2612	-86	-88	-136	-2344	-1560	16816	23	-9	11	-7820	5376	12852	-85	149	-196	-15556	1556	6212	109	-66	143	-3724	-1328	16428	34	-133	200	126	123	5
-5576	-6016	14432	85	-65	-122	-15876	-2128	2540	-94	-68	-119	-2416	-1440	16936	15	-1	11	-7820	5348	12884	-131	154	-173	-15512	1664	6272	113	-44	139	-3704	-1300	16400	60	-123	221	126	122	5
-5520	-6180	14448	63	-41	-111	-15868	-2212	2604	-44	-56	-114	-2256	-1744	16880	24	-2	3	-7844	5340	12884	-102	143	-165	-15572	1588	6052	89	-39	152	-3648	-1340	16348	-3	-119	217	126	123	5
-5528	-6120	14492	108	-49	-151	-15816	-2164	2588	9	-99	-82	-2224	-1712	16920	27	-5	9	-7836	5440	12900	-133	145	-185	-15476	1644	6136	52	6	107	-3668	-1344	16404	-12	-111	225	126	123	5
-5528	-6168	14404	92	-31	-99	-15748	-2140	2672	-32	-77	-71	-2280	-1624	17000	19	-5	4	-7888	5404	12924	-162	155	-155	-15492	1612	6128	63	0	134	-3676	-1468	16296	-5	-144	225	126	123	5
-5596	-6092	14500	128	-50	-90	-15856	-2204	2496	-33	-5	-77	-2248	-1512	17008	24	-2	3	-7852	5352	12868	-140	183	-163	-15552	1640	6100	83	-40	97	-3700	-1460	16416	31	-146	220	127	122	5
-5536	-6144	14588	131	-17	-120	-15804	-2116	2560	-17	-44	-74	-2328	-1536	16664	18	-3	6	-7868	5336	12900	-96	155	-184	-15584	1640	6228	77	7	114	-3660	-1448	16392	43	-143	245	127	123	5
-5520	-6104	14532	150	-43	-100	-15888	-2172	2512	-45	-23	-78	-2360	-1616	16880	26	1	4	-7804	5420	12924	-109	187	-191	-15560	1536	6036	81	36	131	-3784	-1456	16304	-2	-144	237	127	123	5
-5556	-6120	14520	140	-82	-42	-15904	-2132	2560	-27	-44	-82	-2280	-1576	16816	29	0	5	-7808	5360	12952	-97	182	-191	-15596	1496	6168	85	14	120	-3716	-1424	16256	19	-85	231	127	123	5
-5560	-6168	14424	125	-39	-109	-15860	-2124	2536	16	-32	-54	-2328	-1568	16848	32	3	3	-7864	5288	12908	-102	168	-166	-15532	1616	6120	96	-10	162	-3712	-1376	16296	13	-115	225	127	123	5
-5580	-6064	14416	148	-30	-92	-15780	-2132	2568	28	-42	-24	-2416	-1400	16816	33	-1	1	-7844	5312	12924	-85	195	-167	-15588	1604	6124	89	18	125	-3692	-1336	16404	17	-146	234	127	122	5
-5504	-6096	14508	113	-27	-82	-15868	-2144	2428	-3	-72	-31	-2328	-1528	16832	31	-4	3	-7900	5348	12896	-60	183	-174	-15568	1572	6144	125	23	153	-3760	-1348	16416	22	-105	193	127	123	5
-5600	-6048	14600	137	-81	-92	-15884	-2164	2548	33	-55	-52	-2480	-1536	16736	25	-3	1	-7920	5368	12904	-72	144	-177	-15540	1612	6088	105	-18	144	-3804	-1360	16404	5	-125	203	126	123	5
-5576	-6104	14556	133	-8	-75	-15824	-2096	2604	35	-36	-71	-2416	-1608	16816	27	-1	3	-7904	5316	12864	-58	137	-179	-15564	1652	6092	87	18	151	-3732	-1300	16376	43	-135	239	127	122	5
-5544	-6064	14528	127	-43	-137	-15860	-2076	2580	-27	-57	-75	-2320	-1472	16728	28	1	3	-7844	5404	12816	-113	145	-184	-15560	1548	6152	81	-19	130	-3704	-1384	16348	24	-169	239	126	123	5
-5572	-6120	14456	128	-31	-97	-15828	-2116	2428	-16	-73	-65	-2512	-1472	16952	31	0	-1	-7816	5404	12864	-146	133	-201	-15504	1628	6060	50	-8	138	-3736	-1380	16360	31	-120	199	126	123	5
-5544	-6088	14516	90	-15	-115	-15856	-2148	2448	-23	-69	-62	-2432	-1464	16784	23	-1	4	-7812	5400	12748	-105	178	-171	-15568	1552	6168	91	-42	146	-3756	-1452	16424	40	-145	221	126	123	5
-5556	-6080	14456	121	-28	-100	-15932	-2056	2600	-16	-42	-71	-2416	-1680	16776	26	-2	4	-7760	5344	12796	-104	156	-137	-15572	1592	6120	62	-46	132	-3776	-1400	16356	-6	-137	224	126	122	5
-5524	-6052	14544	117	-60	-114	-15872	-2064	2604	-8	-74	-56	-2368	-1424	16712	20	-4	5	-7880	5336	12816	-74	134	-140	-15624	1604	6116	110	-38	109	-3776	-1364	16424	21	-141	243	126	122	5
-5512	-6104	14484	109	-53	-111	-15872	-2136	2556	-52	-57	-69	-2376	-1520	16800	24	3	7	-7856	5384	12900	-51	192	-163	-15560	1612	6052	101	-80	111	-3752	-1404	16352	3	-137	207	127	122	5
-5500	-6012	14444	62	-44	-132	-15820	-2072	2544	-57	-72	-68	-2384	-1600	16968	27	-4	5	-7868	5344	12820	-91	123	-160	-15544	1608	6152	137	-17	159	-3704	-1344	16228	6	-138	201	126	122	5
-5560	-6036	14360	79	-60	-167	-15836	-2120	2536	-79	-82	-97	-2288	-1640	16648	22	-3	5	-7808	5416	12848	-104	142	-127	-15508	1660	6116	115	-47	159	-3708	-1360	16388	9	-147	189	127	123	5
-5536	-6116	14464	85	-83	-146	-15828	-2124	2616	-57	-93	-91	-2352	-1728	16936	18	-3	4	-7840	5360	12900	-85	126	-168	-15552	1716	6160	66	-39	145	-3760	-1400	16340	22	-116	228	127	123	5
-5552	-6112	14512	113	-61	-127	-15880	-2176	2560	-47	-99	-105	-2408	-1520	17000	24	-3	6	-7856	5376	12868	-91	155	-175	-15524	1636	6092	89	-24	135	-3704	-1408	16476	11	-135	242	126	123	5
-5548	-6136	14532	116	-75	-155	-15832	-2128	2604	4	-38	-62	-2304	-1448	16736	25	-1	4	-7828	5340	12896	-83	138	-191	-15548	1616	6168	100	-18	138	-3676	-1396	16480	34	-110	243	127	123	5
-5596	-6040	14564	93	-47	-105	-15836	-2148	2500	-5	-93	-69	-2408	-1568	16920	23	5	4	-7840	5312	12908	-91	163	-158	-15548	1588	6068	106	-23	113	-3728	-1344	16396	37	-136	233	127	123	5
-5540	-6088	14400	121	-59	-126	-15840	-2192	2520	-39	-51	-7	-2376	-1648	16656	21	-2	5	-7848	5396	12944	-107	188	-194	-15584	1656	6052	78	-18	106	-3692	-1340	16380	75	-128	218	126	122	5
-5512	-6124	14428	131	-68	-96	-15832	-2184	2552	4	-31	-65	-2264	-1616	16944	24	2	2	-7880	5356	12828	-133	183	-190	-15560	1584	6204	86	-6	103	-3748	-1416	16372	39	-111	236	126	123	5
-5472	-6064	14460	135	15	-125	-15796	-2196	2580	7	-28	-38	-2400	-1552	16680	28	-5	4	-7800	5376	12896	-90	149	-194	-15560	1608	6028	68	34	122	-3756	-1400	16484	0	-131	214	126	122	5
-5552	-6148	14392	120	-1	-86	-15836	-2200	2560	33	-76	-29	-2472	-1576	17192	31	-2	2	-7872	5344	12956	-98	188	-200	-15552	1588	6180	70	25	122	-3704	-1408	16356	19	-121	216	126	122	5
-5532	-6044	14392	152	-50	-114	-15832	-2148	2576	-12	-80	-88	-2344	-1680	16816	30	2	0	-7852	5340	12980	-121	160	-171	-15508	1604	6068	93	-1	141	-3748	-1388	16312	5	-141	238	127	123	5
-5492	-6016	14536	159	-9	-103	-15892	-2132	2492	5	-59	-22	-2288	-1464	16720	31	-6	1	-7860	5392	12852	-95	159	-189	-15548	1632	6100	98	-2	129	-3748	-1440	16292	49	-135	231	127	122	5
-5536	-6104	14544	110	-34	-90	-15812	-2144	2592	23	-28	-65	-2320	-1536	16856	25	3	1	-7856	5356	12924	-117	171	-208	-15444	1592	6060	88	-15	146	-3760	-1356	16352	41	-149	232	127	123	5
-5568	-6096	14440	115	-15	-111	-15860	-2116	2428	6	-74	-54	-2488	-1584	16832	23	-3	4	-7928	5336	12844	-101	186	-183	-15592	1628	6104	124	-16	149	-3760	-1336	16392	33	-135	196	127	122	5
-5500	-6064	14488	125	-100	-96	-15840	-2076	2556	-36	-41	-45	-2544	-1472	16896	28	-7	3	-7944	5268	12980	-57	157	-165	-15620	1656	6052	88	-27	154	-3776	-1324	16312	21	-130	204	127	122	5
-5568	-6136	14532	135	-35	-124	-15892	-2104	2444	-4	-59	-50	-2464	-1400	16944	27	-4	2	-7840	5352	12952	-92	147	-157	-15584	1620	6168	69	-54	132	-3760	-1356	16400	39	-100	180	126	122	5
-5616	-6072	14532	91	6	-130	-15824	-2112	2584	-4	-47	-86	-2488	-1480	17096	23	-3	4	-7828	5312	12888	-46	166	-150	-15556	1580	6164	111	-61	136	-3708	-1308	16344	30	-122	191	126	122	5
-5576	-6132	14512	90	-32	-147	-15856	-2120	2412	21	-65	-81	-2360	-1456	16728	21	-1	-1	-7904	5376	12940	-30	164	-149	-15540	1656	6096	108	-57	113	-3732	-1336	16424	69	-140	185	127	122	5
-5504	-6124	14452	34	-31	-124	-15836	-2088	2508	7	-63	-88	-2480	-1496	16736	16	2	8	-7892	5356	12968	-88	167	-164	-15544	1596	6128	80	-32	106	-3732	-1380	16384	42	-100	172	127	122	5
-5508	-6116	14500	47	-5	-153	-15876	-2092	2524	-52	-55	-98	-2472	-1536	16880	16	-4	4	-7848	5372	12916	-47	148	-167	-15516	1600	6052	32	-75	131	-3708	-1324	16436	8	-142	207	127	122	5
-5592	-6060	14460	26	-33	-137	-15900	-2148	2664	5	-111	-114	-2432	-1568	16960	22	-3	4	-7824	5440	12840	-43	176	-198	-15496	1632	6180	56	-16	140	-3692	-1368	16420	23	-121	209	127	122	5
-5620	-6028	14456	41	21	-134	-15824	-2176	2600	-21	-43	-87	-2400	-1584	16720	20	-3	11	-7844	5396	12908	-67	167	-168	-15608	1632	6224	96	-12	110	-3680	-1364	16472	33	-133	202	127	122	5
-5568	-6056	14532	7	-35	-139	-15868	-2120	2660	-75	-48	-104	-2384	-1704	16800	25	-2	6	-7780	5356	12896	-72	170	-196	-15552	1624	6148	57	-6	117	-3744	-1436	16416	48	-142	216	127	123	5
-5524	-6196	14448	54	-68	-151	-15848	-2148	2568	2	-51	-70	-2264	-1656	17072	22	-1	9	-7888	5404	12908	-87	153	-166	-15484	1636	6096	77	-1	114	-3716	-1388	16404	21	-123	232	127	122	5
-5600	-6164	14416	68	-1	-132	-15828	-2188	2540	-3	-97	-62	-2408	-1584	16760	27	-2	5	-7828	5332	12852	-117	126	-193	-15516	1636	6164	60	-6	131	-3708	-1408	16432	37	-138	229	127	123	5
