#Activity	sitting 
#ActivityID	5 
#Date 09-24-15-51
acc_rf_x	acc_rf_y	acc_rf_z	gyro_rf_x	gyro_rf_y	gyro_rf_z	acc_rs_x	acc_rs_y	acc_rs_z	gyro_rs_x	gyro_rs_y	gyro_rs_z	acc_rt_x	acc_rt_y	acc_rt_z	gyro_rt_x	gyro_rt_y	gyro_rt_z	acc_lf_x	acc_lf_y	acc_lf_z	gyro_lf_x	gyro_lf_y	gyro_lf_z	acc_ls_x	acc_ls_y	acc_ls_z	gyro_ls_x	gyro_ls_y	gyro_ls_z	acc_lt_x	acc_lt_y	acc_lt_z	gyro_lt_x	gyro_lt_y	gyro_lt_z	EMG_r	EMG_l	act
-7928	-2364	13676	-63	171	-186	-16100	-1004	-4016	81	-11	144	-3820	-2036	16600	224	-12	47	-8604	2980	14084	146	-24	-161	-14748	3880	-5932	-12	-15	-36	-3200	2364	16456	67	-128	210	127	127	5
-7872	-2424	13652	-86	157	-187	-16060	-1028	-3996	60	30	142	-3884	-2040	16476	208	-33	61	-8568	2912	14132	138	-35	-158	-14800	3832	-5880	9	-38	-25	-3200	2428	16468	54	-129	218	127	127	5
-7944	-2392	13788	-63	115	-210	-16060	-980	-4048	91	-16	132	-3816	-2096	16660	204	-26	38	-8612	2916	14008	143	-82	-170	-14768	3836	-5920	18	-38	-36	-3200	2424	16472	43	-131	258	127	127	5
-7904	-2372	13656	-71	131	-210	-16120	-992	-4164	85	-53	136	-3896	-2004	16532	211	-5	77	-8592	2900	14116	123	-24	-179	-14764	3916	-5960	-16	-4	-59	-3156	2484	16596	36	-111	212	127	127	5
-7900	-2372	13616	-73	140	-198	-16060	-1036	-4032	76	-16	146	-3816	-1980	16600	232	2	60	-8680	2900	14056	108	-56	-144	-14764	3848	-5896	-26	8	-41	-3208	2384	16484	64	-126	220	127	127	5
-7800	-2364	13720	-73	141	-153	-16160	-988	-4020	48	-16	143	-3860	-2008	16464	205	-2	55	-8556	2964	14048	62	-55	-204	-14760	3840	-5920	-9	-27	-26	-3208	2408	16544	49	-118	236	127	127	5
-7900	-2312	13744	-83	147	-171	-16056	-972	-4040	97	-2	138	-3800	-1980	16436	230	25	78	-8640	2924	14016	73	-27	-171	-14712	3856	-5828	-10	-34	-63	-3224	2468	16708	52	-112	266	127	126	5
-7952	-2388	13608	-92	135	-183	-16156	-940	-4048	90	-9	111	-3836	-2068	16528	214	4	60	-8568	2916	14028	100	-59	-181	-14800	3832	-5944	39	-20	-27	-3252	2420	16504	18	-124	223	127	127	5
-7888	-2392	13664	-69	118	-227	-16120	-932	-4108	71	-22	176	-3820	-1924	16572	200	-16	38	-8532	2944	13948	116	-73	-177	-14700	3924	-6016	-39	-19	-80	-3256	2452	16608	20	-133	254	127	127	5
-7888	-2368	13640	-119	184	-220	-16116	-948	-3964	87	-11	85	-3784	-1952	16436	179	0	67	-8656	2948	14108	101	-33	-163	-14756	3776	-5968	-18	-43	-48	-3408	2296	16664	-121	-159	250	127	127	5
-7804	-2364	13688	-105	126	-219	-16144	-984	-3996	56	-22	110	-3804	-1980	16580	190	24	48	-8584	2892	14000	133	-81	-158	-14756	3756	-5928	50	-19	-19	-3236	2424	16464	-19	-221	185	127	127	5
-7932	-2388	13632	-97	133	-218	-16148	-908	-4072	73	-2	84	-3820	-1976	16556	150	-44	39	-8604	2880	14136	150	-97	-131	-14788	3800	-6064	22	-65	-44	-3184	2368	16480	-131	-338	161	128	127	5
-7848	-2388	13648	-104	169	-177	-16100	-1000	-3980	45	13	126	-3896	-1904	16556	140	-41	55	-8616	2936	14100	114	-63	-190	-14812	3760	-5820	11	-86	-41	-3216	2404	16600	96	-36	153	127	127	5
-7908	-2356	13640	-157	134	-215	-16076	-948	-4088	41	14	116	-3812	-1928	16508	157	-8	72	-8652	2944	14000	142	-101	-146	-14760	3860	-5776	-4	-38	-49	-3216	2416	16460	8	-62	175	127	127	5
-7892	-2368	13636	-131	130	-208	-16044	-996	-4056	31	28	72	-3804	-1940	16556	171	26	77	-8620	2892	14156	156	-5	-156	-14780	3824	-5988	22	-22	-1	-3216	2396	16520	14	-119	164	127	127	5
-7936	-2460	13584	-168	133	-215	-16084	-960	-3996	42	-28	53	-3832	-1996	16600	161	-3	63	-8568	2996	14068	138	-76	-134	-14776	3888	-5892	22	-59	-37	-3292	2456	16540	32	-147	210	127	127	5
-7920	-2376	13612	-138	129	-173	-16152	-992	-3996	77	-80	84	-3816	-2012	16508	136	2	76	-8556	2892	14016	142	-67	-168	-14736	3884	-5928	-1	-22	-46	-3252	2440	16488	1	-159	198	128	127	5
-7848	-2384	13656	-122	144	-212	-16108	-952	-4012	71	-37	105	-3804	-2060	16464	133	15	77	-8572	2904	14048	134	-85	-166	-14772	3848	-5932	-18	-17	-57	-3268	2520	16504	-22	-143	200	128	127	5
-7844	-2472	13652	-75	167	-197	-16116	-1096	-4004	42	-55	74	-3872	-2240	16528	70	-36	63	-8580	2896	14076	122	-47	-195	-14832	3880	-5952	-22	-79	-116	-3328	2644	16652	14	-72	233	128	127	5
-7876	-2412	13784	-98	158	-147	-16072	-1128	-4052	88	-56	96	-3976	-2160	16488	59	-25	-5	-8560	2980	14056	131	-27	-138	-14704	3948	-5856	-4	-47	-127	-3324	2588	16460	3	-131	244	127	127	5
-7900	-2440	13568	-8	177	-201	-16156	-1160	-4116	144	-70	151	-3944	-2188	16420	15	-131	-11	-8604	2944	14048	87	7	-155	-14728	3992	-5980	-91	-86	-142	-3328	2668	16640	45	-93	248	128	127	5
-7800	-2360	13816	14	264	-184	-16156	-1108	-4000	194	-83	198	-4016	-2204	16436	103	-82	-75	-8612	3012	14080	50	7	-181	-14684	4052	-6072	-136	-137	-178	-3520	2640	16664	18	-115	254	127	127	5
-7900	-2472	13576	64	204	-189	-16048	-1168	-3968	245	-103	226	-3988	-2160	16588	92	-55	-157	-8656	2876	14080	27	-58	-176	-14656	3948	-5988	-168	-180	-227	-3404	2748	16596	-176	-139	345	127	127	5
-7888	-2448	13596	103	193	-159	-16132	-1108	-4100	291	-110	233	-4020	-2172	16572	84	-175	-210	-8616	2980	13988	77	-49	-189	-14780	3992	-5980	-91	-228	-305	-3496	2696	16472	-244	-231	311	127	127	5
-7928	-2296	13612	117	214	-137	-16156	-1140	-4204	330	-193	335	-4164	-2256	16496	188	-125	-287	-8616	2808	14056	-5	-52	-213	-14748	4004	-5940	-84	-266	-329	-3456	2576	16468	-330	-209	318	127	127	5
-7920	-2328	13652	136	230	-162	-16084	-1148	-4232	325	-177	401	-4172	-2048	16396	234	-137	-302	-8652	2812	14040	-32	-54	-239	-14696	3840	-5808	-150	-304	-370	-3248	2428	16528	-366	-215	343	127	127	5
-7912	-2288	13552	163	265	-110	-16040	-1040	-4148	373	-265	426	-4040	-1984	16488	327	-9	-368	-8616	2728	14004	23	-28	-212	-14756	3716	-5636	-57	-231	-361	-3072	2232	16536	-397	-260	377	127	127	5
-7900	-2368	13532	199	167	-132	-16112	-852	-4088	368	-342	435	-3948	-1952	16684	415	-46	-294	-8612	2852	14032	-20	3	-200	-14796	3628	-5844	28	-255	-344	-2996	2168	16456	-473	-402	384	127	127	5
-7720	-2144	13524	128	203	-137	-16052	-804	-4344	291	-360	349	-3848	-1820	16424	303	-157	-240	-8460	2844	14080	-48	-76	-186	-14768	3576	-5776	8	-242	-280	-2876	2028	16668	-458	-352	344	127	127	5
-7696	-2128	13556	50	227	-175	-16116	-652	-3964	147	-353	323	-3644	-1692	16536	312	-133	-174	-8540	2844	14056	23	-42	-152	-14860	3524	-5744	42	-197	-259	-2936	1992	16724	-365	-248	314	127	127	5
-7932	-2236	13604	-70	214	-232	-16172	-564	-3896	45	-338	287	-3676	-1656	16648	244	18	-90	-8524	2948	14116	59	11	-156	-14932	3472	-5784	21	-147	-168	-2868	1856	16708	-267	-221	291	127	127	5
-7768	-2208	13676	-148	245	-199	-16184	-728	-3912	9	-329	185	-3628	-1680	16504	212	-36	-71	-8560	2872	14112	97	47	-210	-14836	3592	-5740	-55	-120	-125	-2920	1752	16620	-84	-174	251	127	127	5
-7956	-2252	13624	-145	270	-177	-16128	-796	-3840	26	-324	79	-3572	-1656	16564	175	-64	69	-8600	2840	14096	128	-29	-165	-14812	3488	-5836	-100	-104	-23	-3028	1888	16632	91	-141	178	127	127	5
-7916	-2232	13700	-155	224	-258	-16108	-812	-3792	123	-328	23	-3592	-1872	16512	12	-54	58	-8632	2836	14016	165	-48	-171	-14820	3600	-5936	-20	-109	2	-3136	2128	16560	258	-162	124	127	127	5
-7840	-2312	13608	-194	201	-305	-16148	-808	-3852	167	-309	23	-3716	-1756	16480	-110	-61	50	-8656	2868	14060	218	-71	-148	-14776	3576	-5900	4	-95	40	-3268	2336	16584	292	-86	79	127	127	5
-7896	-2352	13612	-247	217	-254	-16144	-844	-3992	116	-243	-51	-3844	-1804	16540	-200	-72	2	-8608	2844	14124	260	-33	-135	-14760	3924	-5888	-18	-133	-16	-3304	2556	16480	51	-280	152	127	127	5
-7864	-2360	13700	-212	258	-269	-16212	-956	-3936	27	-237	-22	-3900	-2096	16492	-126	-61	6	-8660	2884	13984	240	-52	-222	-14896	4012	-5816	-14	-175	-62	-3388	2672	16676	149	-183	195	127	127	5
-7948	-2344	13620	-248	233	-274	-16212	-1000	-3940	55	-263	9	-3920	-2164	16552	-135	-63	-20	-8572	2904	14036	237	-72	-171	-14876	3992	-5924	-100	-213	-152	-3380	2836	16592	7	-139	231	128	127	5
-8004	-2348	13672	-171	231	-248	-16188	-1152	-3892	99	-291	3	-4016	-2288	16432	-118	-48	-74	-8756	2864	14104	166	-57	-189	-14792	3976	-5880	-57	-215	-239	-3296	2800	16420	-197	-158	251	127	127	5
-7988	-2388	13724	-108	235	-214	-16184	-1136	-3908	224	-315	111	-4036	-2356	16504	16	-56	-137	-8620	3044	14084	66	47	-189	-14788	3960	-5728	-67	-173	-314	-3244	2756	16544	-328	-107	296	127	127	5
-8064	-2440	13772	-71	227	-197	-16104	-1032	-3868	272	-320	168	-3900	-2320	16600	103	20	-213	-8568	3012	14076	7	31	-233	-14780	4056	-5760	-105	-205	-408	-3176	2756	16560	-455	-109	367	127	127	5
-8196	-2404	13724	-55	260	-235	-16196	-1084	-3932	238	-359	196	-3916	-2384	16516	207	57	-185	-8492	2944	14032	-79	6	-231	-14840	4008	-5612	-143	-148	-486	-3088	2660	16596	-495	-127	455	128	127	5
-8144	-2316	13656	-29	238	-193	-16180	-1036	-3948	171	-389	215	-3872	-2280	16472	82	-179	-192	-8556	2912	14124	-120	28	-270	-14884	3924	-5632	-205	-165	-570	-3012	2468	16608	-599	-102	587	128	127	5
-7892	-2320	13656	-92	309	-105	-16180	-1016	-3768	-20	-389	312	-3892	-2280	16520	194	-210	-124	-8624	2928	14112	-157	0	-287	-14916	3728	-5744	-227	-107	-595	-3072	2268	16680	-611	-71	634	128	127	5
-7992	-2220	13600	-36	270	-175	-16184	-972	-3756	61	-391	295	-3648	-2380	16672	337	-166	-113	-8732	2728	14348	-216	115	-342	-14964	3488	-5700	-178	-113	-606	-3080	2160	16552	-614	-99	587	128	127	5
-7900	-2392	13628	-106	242	-201	-16164	-976	-3704	19	-390	306	-3636	-2200	16516	292	-251	-159	-8636	2828	13936	-169	165	-349	-14920	3572	-5688	44	-150	-595	-3040	1956	16672	-585	-92	544	127	127	5
-7880	-2252	13588	-85	232	-182	-16180	-944	-3652	65	-373	303	-3604	-1952	16540	100	-108	-182	-8520	2880	13964	-141	205	-276	-14840	3544	-5716	27	-113	-510	-2964	1752	16640	-561	-112	440	128	127	5
-7964	-2356	13512	-98	217	-203	-16208	-944	-3628	109	-285	317	-3192	-2628	16664	573	-12	-77	-8768	2952	14108	-171	201	-328	-14788	3404	-5628	-7	-90	-424	-2952	1572	16400	-313	-141	401	127	127	5
-8016	-2284	13580	-52	166	-220	-16144	-816	-3496	138	-194	306	-3348	-2100	16832	283	188	-182	-8616	2624	14040	-73	54	-309	-14956	3204	-5728	-187	-69	-352	-2948	1532	16732	-302	-65	365	127	126	5
-7976	-2368	13788	-95	158	-182	-16196	-832	-3604	110	-136	289	-3536	-2144	16524	339	-18	-89	-8764	2868	13960	22	86	-210	-14956	3156	-5536	4	-32	-217	-2960	1364	16552	-295	-123	260	128	127	5
-7872	-2300	13608	-106	162	-193	-16252	-848	-3780	181	-149	259	-3468	-2024	16532	359	238	-79	-8596	2492	14116	104	17	-204	-14960	3092	-5752	27	29	-156	-2956	1384	16588	-110	-62	136	127	126	5
-8032	-2412	13588	-50	146	-194	-16288	-820	-3560	181	-105	234	-3428	-2116	16468	318	125	-42	-8656	2792	14060	155	147	-170	-14852	3212	-5676	110	27	2	-2928	1440	16580	-72	-85	89	127	126	5
-8008	-2248	13540	-85	169	-254	-16084	-796	-3436	143	-18	133	-3524	-2012	16568	191	126	18	-8684	2832	13996	228	54	-172	-14880	3296	-5844	66	30	95	-3000	1352	16684	119	-117	-6	128	126	5
-7952	-2360	13736	-92	179	-162	-16196	-820	-3588	16	16	138	-3568	-2048	16580	184	54	96	-8676	2768	13992	255	-5	-142	-14956	3248	-5828	94	24	212	-3032	1408	16432	296	-58	-25	127	126	5
-7944	-2244	13628	-96	169	-203	-16240	-852	-3588	-31	27	109	-3612	-2088	16540	167	-44	134	-8596	2704	14032	379	81	-93	-14888	3216	-5736	55	39	215	-3140	1544	16664	411	-66	-90	128	127	5
-7928	-2348	13708	-120	122	-184	-16200	-900	-3728	2	73	106	-3608	-2060	16580	182	-25	118	-8660	2704	13968	403	148	-77	-14884	3308	-5768	295	14	380	-3136	1684	16660	455	-126	-155	128	127	5
-7960	-2256	13596	-83	130	-200	-16236	-924	-3632	32	93	88	-3600	-2136	16472	203	-44	139	-8720	2876	14048	485	68	-61	-14852	3508	-5764	358	-18	480	-3164	1848	16560	490	-122	-202	128	126	5
-7956	-2380	13708	-67	110	-155	-16212	-1028	-3796	-4	91	119	-3676	-2180	16552	217	-7	133	-8716	2872	13964	487	89	-25	-14784	3544	-5884	350	24	499	-3212	2008	16516	510	-120	-225	127	126	5
-8020	-2368	13632	-89	122	-164	-16208	-912	-3640	27	96	109	-3760	-2072	16556	268	16	140	-8792	2956	14036	466	22	-24	-14780	3744	-5756	293	-21	519	-3188	2208	16576	518	-166	-218	128	127	5
-7948	-2316	13648	-92	95	-191	-16208	-968	-3808	10	102	80	-3780	-2132	16504	244	-17	164	-8716	2940	13944	448	-22	-71	-14804	3876	-5872	135	-14	499	-3300	2348	16696	514	-147	-147	127	126	5
-7996	-2376	13664	-74	123	-188	-16152	-956	-3752	7	131	118	-3904	-2168	16492	254	-39	141	-8676	2832	14152	434	-46	-71	-14968	3808	-5896	123	-37	416	-3340	2532	16556	422	-161	-115	128	126	5
-8016	-2300	13568	-82	86	-167	-16156	-948	-3768	39	128	154	-3856	-2200	16392	201	-38	71	-8712	2952	14112	380	66	-84	-14824	3972	-5672	178	-33	365	-3224	2688	16576	391	-182	-84	128	126	5
-7960	-2264	13568	-43	74	-171	-16132	-1060	-3836	51	90	184	-3756	-2220	16364	254	-33	108	-8776	2956	14052	360	37	-54	-14652	4068	-5840	145	-33	319	-3204	2664	16536	295	-153	-32	128	126	5
-7968	-2296	13664	-63	31	-168	-16140	-904	-3868	68	74	173	-3776	-2132	16700	283	-22	68	-8748	2932	14044	281	-133	-81	-14684	4040	-5688	119	10	262	-3220	2712	16464	253	-113	1	128	126	5
-7916	-2340	13608	-24	62	-165	-16220	-884	-3772	31	59	187	-3848	-2132	16684	372	12	59	-8680	3060	13924	208	-203	-62	-14820	4080	-5680	42	-21	214	-3096	2752	16528	198	-102	118	128	126	5
-7912	-2348	13580	-39	85	-192	-16192	-868	-3852	62	50	210	-3776	-2056	16472	403	-11	31	-8644	2848	14140	190	-113	-95	-14868	4012	-5696	44	43	42	-3108	2856	16528	149	-51	211	128	126	5
-7980	-2272	13516	-50	45	-203	-16100	-872	-3764	67	87	200	-3660	-2072	16500	375	56	49	-8756	2936	13940	114	-144	-129	-14836	4068	-5596	15	47	-43	-3024	2772	16524	-14	-141	263	127	126	5
-7968	-2304	13544	-34	29	-193	-16108	-848	-3868	114	132	203	-3656	-1988	16488	351	42	14	-8720	3052	13964	48	-209	-166	-14720	4008	-5652	3	126	-136	-3008	2700	16504	-91	-99	264	128	126	5
-7920	-2316	13644	-39	-8	-177	-16260	-800	-3768	103	154	175	-3688	-1980	16540	330	25	33	-8644	2960	14052	-6	-278	-217	-14880	3988	-5748	-74	115	-162	-3080	2636	16544	-136	-72	309	128	126	5
-7876	-2296	13636	-66	14	-174	-16240	-788	-3684	94	129	167	-3624	-1844	16556	266	89	-5	-8684	2992	14052	-50	-195	-267	-14736	3944	-5644	-1	139	-225	-3152	2656	16524	-250	-109	273	128	126	5
-7924	-2312	13532	-82	80	-184	-16180	-816	-3744	9	168	158	-3564	-1860	16496	235	-124	-8	-8684	2908	13948	-63	-197	-259	-14820	3880	-5576	2	162	-227	-3116	2464	16584	-240	74	276	128	126	5
-7916	-2328	13760	-101	51	-230	-16072	-736	-3800	35	187	94	-3640	-1860	16556	260	22	11	-8716	2948	14120	-81	-229	-228	-14796	3808	-5736	27	192	-256	-3076	2416	16488	-319	-49	269	128	126	5
-7824	-2344	13660	-130	53	-177	-16240	-788	-3752	22	194	88	-3708	-1940	16712	100	-23	29	-8592	2832	13880	-128	-236	-253	-14752	3736	-5820	-31	209	-281	-3156	2268	16520	-323	-98	252	128	126	5
-7968	-2188	13736	-108	133	-219	-16308	-808	-3872	52	173	43	-3748	-1848	16552	-53	-163	7	-8632	2828	13936	-112	-191	-262	-14868	3636	-5696	-16	231	-319	-3228	2020	16576	-370	-21	292	128	126	5
-8036	-2304	13704	-164	79	-213	-16128	-800	-3940	28	162	18	-3760	-1860	16496	-9	-89	13	-8644	2932	14036	-117	-185	-244	-14792	3628	-5800	22	191	-237	-3144	1920	16724	-310	-75	268	128	127	5
-8020	-2272	13708	-143	106	-230	-16168	-788	-3824	-7	135	-1	-3768	-1932	16736	181	95	73	-8636	2780	13956	-56	-248	-215	-14852	3560	-5928	43	200	-224	-3300	1868	16572	-216	-44	255	128	126	5
-7908	-2412	13620	-173	139	-264	-16188	-788	-3832	-39	180	-33	-3704	-1904	16520	60	126	103	-8588	2736	14032	-76	-196	-251	-14816	3528	-5980	106	188	-165	-3232	1732	16704	-175	-92	222	128	126	5
-7948	-2300	13684	-243	85	-248	-16092	-804	-3872	-71	98	-39	-3768	-1944	16552	57	127	108	-8656	2828	14040	-11	-123	-245	-14804	3428	-5992	66	184	-137	-3316	1776	16448	-119	-147	185	128	126	5
-8032	-2324	13808	-217	72	-238	-16148	-872	-3960	-62	160	-51	-3720	-1984	16524	80	127	171	-8696	2772	14020	74	-174	-148	-14716	3416	-5948	53	163	-42	-3176	1760	16708	-86	-137	144	128	126	5
-8000	-2412	13604	-242	72	-278	-16136	-840	-3904	-30	176	-83	-3660	-2088	16408	32	72	139	-8648	2840	14004	74	-259	-138	-14864	3340	-5820	122	172	19	-3148	1636	16584	-15	-147	67	128	127	5
-7984	-2404	13732	-238	67	-251	-16188	-904	-3792	-3	166	-77	-3648	-2148	16624	4	46	148	-8668	2872	14108	167	-157	-90	-14908	3376	-5804	172	131	111	-3196	1724	16632	79	-141	-2	128	127	5
-7828	-2368	13664	-219	78	-245	-16252	-948	-3724	-7	184	-70	-3816	-2208	16532	1	31	109	-8584	2948	14080	225	-117	-73	-14872	3468	-5880	156	92	156	-3204	1620	16668	167	-176	-31	128	127	5
-7808	-2320	13720	-230	139	-225	-16184	-872	-3888	-3	202	-32	-3752	-2232	16528	67	35	162	-8572	2832	13980	226	-108	-112	-14760	3504	-5920	146	108	201	-3124	1724	16620	152	-226	-38	128	127	5
-7800	-2260	13552	-234	112	-211	-16044	-988	-3908	-75	178	-52	-3724	-2300	16464	125	107	152	-8600	2696	14048	299	-194	-70	-14760	3556	-5908	103	131	308	-3080	1872	16740	260	-216	-91	128	127	5
-7836	-2268	13664	-218	84	-229	-16140	-964	-3908	-48	214	-24	-3724	-2248	16516	170	72	174	-8600	2712	13928	380	-160	-50	-14820	3604	-5932	115	146	318	-3212	1920	16568	310	-235	-63	128	126	5
-7892	-2376	13560	-239	65	-259	-16104	-992	-3916	-89	258	25	-3812	-2200	16628	158	123	181	-8508	2804	13964	341	-79	-30	-14856	3652	-5912	107	130	323	-3196	1964	16532	452	-147	21	128	127	5
-7892	-2312	13608	-195	82	-201	-16212	-1028	-3996	-96	263	57	-3896	-2260	16476	141	-2	154	-8544	2788	14052	363	2	-73	-14888	3716	-5944	25	129	343	-3260	2076	16512	450	-194	47	128	126	5
-7888	-2360	13640	-160	106	-215	-16224	-1028	-4012	-50	199	94	-3788	-2412	16408	300	-8	157	-8604	2880	13992	346	-22	-105	-14760	3788	-5924	13	116	312	-3244	2132	16536	440	-182	61	128	126	5
-7984	-2412	13728	-120	79	-205	-16124	-1020	-4012	-38	222	103	-3912	-2300	16456	336	-31	144	-8616	2920	14132	307	-57	-72	-14732	3744	-6048	109	88	368	-3196	2228	16568	385	-175	23	128	126	5
-7888	-2456	13712	-70	100	-203	-16092	-1108	-3996	-25	227	127	-3952	-2280	16588	326	-111	128	-8648	2944	14072	314	-22	-97	-14720	3768	-5980	77	84	347	-3288	2408	16556	334	-203	-15	128	127	5
-7824	-2420	13716	-39	99	-143	-16064	-1116	-4012	58	204	216	-3900	-2208	16552	349	-61	8	-8632	2884	14120	320	-91	-105	-14748	3936	-6004	101	42	290	-3392	2572	16580	330	-214	-43	128	127	5
-7908	-2284	13660	-28	95	-134	-16148	-996	-4100	94	153	208	-3928	-2116	16420	415	15	-22	-8584	2924	14096	282	-23	-117	-14680	4156	-6176	50	63	245	-3372	2576	16644	193	-259	18	128	127	5
-7900	-2324	13780	1	84	-139	-16176	-1028	-4164	71	119	308	-3964	-2160	16516	385	47	-42	-8620	2936	14076	239	-54	-113	-14728	4120	-5964	10	46	153	-3368	2624	16532	191	-234	83	128	127	5
-7920	-2360	13644	21	84	-167	-16060	-936	-3996	38	149	285	-3936	-2016	16364	423	58	-78	-8676	3008	14152	210	-49	-120	-14660	4088	-6088	-36	-33	84	-3348	2640	16608	151	-249	167	127	127	5
-7824	-2372	13640	-24	116	-139	-16112	-1004	-4040	68	83	288	-3952	-2008	16436	415	73	-96	-8608	2904	14080	165	-77	-134	-14732	4132	-5988	0	-52	45	-3348	2548	16548	134	-193	197	128	127	5
-7948	-2328	13640	-31	90	-123	-16168	-956	-4112	101	78	290	-3996	-1896	16584	377	58	-83	-8668	3016	14008	115	-44	-160	-14688	4068	-5976	-17	-32	-35	-3260	2540	16504	103	-214	242	128	127	5
-7916	-2316	13696	48	89	-125	-16076	-880	-4168	183	12	294	-4020	-1856	16524	265	-25	-71	-8648	2956	14060	104	-110	-153	-14732	4008	-6136	-40	-19	-103	-3208	2460	16576	79	-159	284	127	127	5
-7880	-2304	13668	8	110	-150	-16112	-848	-4116	155	7	300	-3872	-1856	16612	280	0	-34	-8636	3020	14068	87	-117	-180	-14704	4012	-6008	-40	-17	-75	-3172	2464	16688	65	-218	356	128	127	5
-7848	-2352	13684	-28	122	-182	-16104	-836	-4088	91	-38	256	-3808	-1872	16596	272	-37	-64	-8664	2944	14056	5	-61	-207	-14740	3976	-5752	-111	0	-153	-3116	2388	16568	87	-166	352	128	127	5
-7880	-2216	13680	-39	108	-172	-16084	-760	-3968	121	-92	238	-3664	-1792	16448	250	-29	-16	-8624	2992	14012	56	-89	-192	-14756	3900	-5924	-157	25	-179	-3032	2368	16628	86	-149	385	128	127	5
-7864	-2276	13612	-78	103	-163	-16160	-772	-3872	53	-71	198	-3644	-1760	16648	257	54	-4	-8620	2980	14160	-25	-55	-189	-14672	3780	-5820	-105	5	-158	-3048	2276	16568	37	-134	353	128	127	5
-7784	-2236	13684	-61	146	-208	-16136	-712	-3980	54	-20	158	-3688	-1780	16612	235	-22	38	-8560	2888	14044	22	-81	-195	-14764	3764	-6020	-58	47	-163	-3068	2340	16768	-19	-139	351	128	127	5
-7876	-2308	13720	-113	104	-168	-16168	-752	-3932	44	-6	115	-3628	-1756	16664	174	-55	48	-8656	2920	13980	21	-67	-188	-14696	3764	-5968	-37	35	-183	-3016	2260	16576	-60	-140	280	128	127	5
-7836	-2344	13700	-133	105	-231	-16176	-776	-3880	39	-18	107	-3676	-1812	16572	163	-24	73	-8552	2900	14016	21	11	-183	-14660	3768	-5868	0	56	-146	-3144	2228	16572	-106	-152	274	128	127	5
-7856	-2252	13700	-140	129	-181	-16184	-712	-3976	49	5	33	-3596	-1804	16452	136	-75	81	-8588	2864	14076	66	-78	-211	-14748	3776	-5976	-15	94	-126	-3136	2232	16612	-112	-163	243	127	127	5
-7860	-2340	13724	-197	126	-214	-16116	-800	-4004	11	-1	6	-3792	-1892	16528	68	-55	65	-8600	2872	13996	56	-55	-226	-14800	3752	-5928	-32	85	-85	-3076	2216	16632	-141	-118	228	127	127	5
-7856	-2356	13644	-211	153	-212	-16144	-812	-4048	15	24	-23	-3784	-1916	16504	56	-34	80	-8604	2832	14056	31	-40	-189	-14708	3748	-5960	30	98	-84	-3196	2248	16580	-176	-108	227	127	127	5
-7848	-2344	13632	-216	154	-196	-16104	-840	-3916	-36	41	9	-3792	-1908	16548	88	-24	105	-8584	2880	14112	36	-48	-220	-14724	3836	-6044	-9	77	-123	-3208	2204	16656	-169	-124	213	128	127	5
-7948	-2336	13632	-221	144	-272	-16128	-868	-4128	-12	41	-17	-3792	-2008	16532	88	-15	107	-8548	2892	14060	28	-64	-180	-14748	3816	-6064	-31	96	-136	-3124	2224	16556	-134	-149	236	127	127	5
-7840	-2176	13704	-224	179	-278	-16108	-912	-4024	-56	36	-14	-3796	-2028	16556	88	-47	136	-8556	2936	14012	32	-116	-165	-14684	3800	-6088	-6	69	-115	-3244	2212	16576	-109	-116	249	128	127	5
-7872	-2428	13644	-246	134	-247	-16112	-948	-4024	-45	-24	19	-3848	-2152	16564	115	16	117	-8520	2840	14108	45	-132	-212	-14756	3744	-6020	-60	80	-100	-3248	2156	16624	-89	-110	285	127	127	5
-7832	-2340	13628	-194	154	-242	-16072	-944	-4116	-29	-26	43	-3832	-2120	16532	125	-17	134	-8564	2884	14116	46	-122	-175	-14676	3764	-6016	-30	73	-149	-3208	2152	16560	-14	-137	295	127	127	5
-7840	-2380	13732	-181	146	-246	-16100	-960	-4032	6	-11	30	-3872	-2068	16572	153	-3	152	-8532	2812	14040	53	-29	-187	-14728	3824	-6044	5	21	-96	-3208	2228	16628	-32	-93	287	127	127	5
-7896	-2464	13788	-188	122	-220	-16136	-1032	-4020	51	-15	83	-3832	-2236	16608	173	-19	148	-8612	2840	13996	67	-89	-193	-14780	3752	-6056	-23	29	-119	-3260	2084	16660	18	-122	283	127	127	5
-7880	-2484	13628	-152	153	-201	-16160	-1092	-3908	35	0	119	-3736	-2212	16500	196	-19	94	-8616	2856	14016	89	-68	-169	-14708	3716	-6084	-69	17	-70	-3228	2100	16684	24	-116	249	127	127	5
-7864	-2448	13708	-102	134	-223	-16104	-988	-3964	95	40	136	-3776	-2240	16508	182	-3	95	-8628	2876	14044	98	-58	-174	-14700	3700	-6136	-8	20	-55	-3212	2104	16452	1	-129	238	127	127	5
-7852	-2388	13632	-79	124	-178	-16120	-908	-4020	78	32	164	-3676	-2232	16548	198	-10	59	-8640	2832	14168	130	-105	-139	-14704	3784	-6028	22	21	-40	-3200	2072	16600	45	-124	219	127	127	5
-7856	-2436	13720	-40	105	-200	-16124	-1044	-3980	80	16	152	-3752	-2228	16596	260	-12	28	-8624	2816	14044	90	-68	-180	-14720	3692	-6072	27	-12	-52	-3264	2044	16680	37	-141	188	127	127	5
-7852	-2432	13560	-26	68	-163	-16128	-1028	-4052	105	84	204	-3784	-2136	16500	259	-19	-25	-8620	2836	14032	191	-57	-148	-14776	3736	-6024	3	-14	-10	-3160	2064	16588	61	-147	162	127	127	5
-7852	-2392	13628	-13	84	-178	-16168	-1008	-4012	137	86	183	-3736	-2116	16552	277	-15	-19	-8608	2936	14052	184	-77	-135	-14696	3720	-5956	50	-53	-3	-3280	2124	16560	73	-162	127	127	127	5
-7904	-2324	13796	-10	86	-153	-16068	-924	-3924	123	102	232	-3768	-2072	16440	301	-23	-54	-8600	2852	14072	228	-77	-151	-14636	3736	-6152	43	-6	52	-3212	2200	16596	65	-146	148	127	127	5
-7920	-2356	13708	-44	36	-185	-16116	-908	-4056	119	87	251	-3808	-2032	16548	306	-29	-46	-8564	2848	13968	230	-79	-109	-14784	3832	-6056	42	-54	48	-3164	2184	16652	70	-171	125	127	127	5
-7832	-2352	13688	-43	104	-198	-16168	-852	-4048	118	114	215	-3760	-1980	16568	277	-49	-34	-8640	2812	14108	199	-54	-138	-14752	3816	-5948	60	-71	33	-3104	2204	16548	87	-149	144	127	127	5
-7892	-2240	13732	-28	95	-130	-16136	-880	-4020	85	88	233	-3784	-1984	16520	275	-11	-55	-8632	2896	14036	182	-23	-112	-14700	3836	-6060	56	-64	52	-3144	2196	16652	47	-173	163	127	127	5
-7888	-2276	13720	3	140	-163	-16040	-896	-4140	104	55	236	-3716	-1940	16652	305	6	-32	-8616	2836	14064	185	-106	-100	-14716	3820	-5980	61	-22	9	-3068	2268	16484	99	-126	156	127	127	5
-7804	-2408	13600	14	105	-152	-16164	-848	-4132	134	49	207	-3804	-1884	16476	283	-29	-26	-8592	2928	14068	181	-54	-131	-14736	3920	-6076	3	-61	-10	-3144	2364	16676	108	-91	173	127	127	5
-7772	-2316	13652	-20	121	-165	-16168	-792	-4200	98	32	195	-3828	-1880	16612	276	-48	-8	-8636	2908	14096	168	-15	-131	-14732	3928	-6012	-35	-21	-31	-3144	2400	16624	76	-108	186	127	127	5
-7848	-2328	13636	-26	118	-136	-16128	-848	-4080	69	72	186	-3800	-1916	16604	246	-37	-14	-8600	2860	14112	154	-57	-118	-14668	3904	-6080	-21	-24	-62	-3152	2416	16484	40	-84	210	127	127	5
-7868	-2352	13692	-41	136	-191	-16088	-848	-4008	75	30	166	-3724	-1888	16640	209	-19	-35	-8588	2888	14056	132	-9	-151	-14656	3932	-6032	4	-16	-63	-3180	2340	16568	2	-123	218	127	127	5
-7836	-2364	13680	-38	115	-157	-16136	-800	-4044	126	-4	138	-3772	-1820	16464	203	-49	-18	-8564	2948	14092	95	-75	-155	-14624	3920	-6068	15	-14	-78	-3180	2324	16536	15	-134	241	127	127	5
-7824	-2392	13644	-3	146	-181	-16088	-788	-4000	74	-15	171	-3792	-1816	16560	148	-40	18	-8608	2908	14068	105	-110	-170	-14716	3920	-6100	-22	-49	-111	-3084	2296	16600	-8	-101	247	127	127	5
-7820	-2368	13700	-62	161	-168	-16104	-792	-4100	89	-2	132	-3796	-1836	16624	173	-55	26	-8584	2892	14056	85	-90	-172	-14732	3872	-5964	-25	-39	-93	-3148	2224	16648	6	-94	243	127	126	5
-7796	-2308	13724	-81	143	-158	-16116	-848	-4096	65	-24	150	-3800	-1928	16608	133	-37	22	-8608	2912	14116	68	-44	-189	-14756	3796	-6012	3	-20	-97	-3164	2144	16684	9	-117	218	127	127	5
-7840	-2352	13704	-78	159	-189	-16128	-796	-4024	117	-33	85	-3836	-1944	16496	184	-32	43	-8616	2844	14128	77	-50	-188	-14676	3800	-6012	-5	-29	-101	-3200	2208	16596	-14	-130	238	128	127	5
-7800	-2308	13736	-64	128	-209	-16108	-840	-4180	92	5	138	-3792	-1976	16616	171	-38	49	-8624	2880	14112	110	-73	-151	-14684	3776	-5996	-60	-35	-92	-3168	2152	16560	27	-110	198	127	127	5
-7888	-2312	13680	-99	170	-205	-16060	-848	-4180	49	-31	90	-3780	-2032	16496	142	-36	63	-8564	2868	14188	134	-101	-158	-14740	3792	-5916	-11	-64	-71	-3164	2096	16596	45	-129	204	127	127	5
-7752	-2368	13704	-131	181	-227	-16100	-868	-4088	45	-36	109	-3748	-2016	16444	150	-54	33	-8628	2876	14052	112	-80	-139	-14756	3736	-6096	-38	-31	-91	-3112	2132	16556	46	-134	210	127	127	5
-7828	-2320	13656	-95	159	-225	-16124	-908	-4108	57	4	100	-3768	-2032	16484	141	-6	43	-8588	2904	14192	133	-58	-170	-14764	3860	-5984	38	-15	-66	-3124	2152	16548	35	-140	176	127	127	5
-7848	-2308	13676	-92	131	-206	-16080	-928	-4016	69	-52	106	-3820	-2012	16652	143	6	50	-8600	2896	14072	137	-69	-130	-14724	3812	-5964	22	-56	-55	-3144	2204	16612	11	-106	227	127	127	5
-7892	-2344	13688	-125	166	-211	-16120	-920	-4092	109	-42	108	-3868	-2028	16604	175	-28	54	-8560	2880	14076	127	-5	-170	-14732	3824	-5964	0	-36	-49	-3148	2212	16580	28	-155	194	127	127	5
-7876	-2384	13616	-131	162	-177	-16064	-868	-4064	82	-47	129	-3788	-2044	16500	180	-7	77	-8560	2820	14136	132	-85	-156	-14704	3872	-5948	29	-66	-31	-3144	2248	16580	50	-123	203	127	127	5
-7860	-2348	13724	-106	150	-205	-16096	-924	-4108	81	-34	129	-3800	-2088	16568	189	-40	52	-8584	2840	14128	122	12	-138	-14652	3824	-6036	-6	-35	-46	-3044	2332	16524	14	-103	199	127	127	5
-7824	-2408	13608	-95	163	-214	-16120	-892	-4008	111	-36	106	-3752	-2132	16608	174	-24	19	-8524	2896	14004	135	-64	-167	-14696	3808	-5948	2	-38	-87	-3072	2240	16636	88	-108	193	127	127	5
-7840	-2360	13676	-70	153	-210	-16164	-832	-4060	49	-18	109	-3728	-2004	16448	189	-32	38	-8572	2924	14140	110	-50	-164	-14704	3852	-6028	-11	-32	-44	-3128	2276	16476	80	-115	210	127	127	5
-7808	-2356	13676	-74	112	-192	-16104	-840	-4048	91	11	146	-3728	-2024	16596	177	-20	32	-8656	2916	14144	106	-40	-179	-14776	3828	-6024	-32	-20	-90	-3064	2256	16652	46	-105	204	127	127	5
-7804	-2380	13652	-78	136	-196	-16116	-860	-3984	76	-24	152	-3672	-1948	16496	232	6	43	-8596	2844	14020	105	-29	-170	-14768	3776	-5944	-20	-19	-32	-3092	2236	16636	25	-107	221	127	127	5
-7880	-2460	13684	-59	135	-166	-16112	-896	-4020	88	-27	152	-3788	-1944	16568	224	-40	43	-8592	2920	14000	84	-44	-169	-14756	3856	-5912	-35	-11	-46	-3108	2244	16524	9	-144	216	127	127	5
-7864	-2388	13732	-65	138	-203	-16128	-864	-4028	86	-46	140	-3776	-2004	16556	198	2	36	-8576	2908	14096	133	-55	-172	-14764	3792	-6056	-14	-64	-37	-3108	2232	16604	31	-132	208	127	127	5
-7896	-2312	13656	-72	140	-214	-16088	-900	-4024	129	-12	149	-3728	-1968	16520	158	6	25	-8596	2924	14048	102	-53	-161	-14676	3796	-6112	-35	-22	-65	-3196	2284	16528	55	-117	200	127	127	5
-7892	-2300	13528	-71	116	-192	-16132	-808	-4080	78	-20	135	-3804	-1888	16556	169	10	19	-8600	2952	14020	122	-50	-151	-14768	3836	-6064	34	-42	-61	-3140	2272	16560	11	-115	176	127	127	5
-7820	-2340	13748	-74	167	-175	-16184	-788	-4040	96	-37	149	-3776	-1924	16612	157	-4	18	-8552	2828	14128	123	-44	-178	-14768	3812	-5996	13	-18	-65	-3148	2268	16532	-17	-168	194	127	127	5
-7804	-2372	13672	-125	142	-170	-16132	-800	-4096	75	-17	123	-3804	-1956	16520	168	-117	69	-8572	2868	14000	125	-48	-147	-14724	3808	-6028	-51	-40	-70	-3080	2264	16504	17	-173	217	127	127	5
-7792	-2364	13736	-113	161	-172	-16072	-792	-4060	74	-9	111	-3708	-1900	16568	176	3	52	-8572	2836	14020	63	-48	-187	-14700	3844	-5900	-48	-32	-38	-3072	2236	16564	31	-87	199	127	127	5
-7852	-2348	13704	-137	139	-200	-16100	-788	-3980	52	-30	124	-3772	-1908	16592	162	-69	92	-8632	2940	14044	106	-17	-176	-14720	3800	-5988	-41	21	-77	-3036	2256	16604	-6	-84	203	127	127	5
-7788	-2332	13720	-143	146	-212	-16112	-888	-4032	59	-76	92	-3764	-1816	16576	32	-53	116	-8540	2928	14012	91	-51	-212	-14676	3756	-5944	-20	15	-57	-3128	2216	16504	86	-110	229	128	127	5
-7876	-2348	13740	-147	123	-201	-16132	-876	-3996	62	-39	67	-3776	-1956	16388	244	-56	89	-8512	2832	14096	122	-53	-214	-14772	3856	-6024	-3	20	-68	-3180	2264	16712	6	-51	220	127	127	5
-7768	-2384	13648	-126	127	-210	-16084	-860	-4044	44	-10	67	-3792	-1928	16460	169	62	115	-8620	2836	14100	112	-27	-171	-14740	3800	-6024	-31	-6	-117	-3096	2336	16560	3	-154	256	127	127	5
-7836	-2280	13684	-139	139	-215	-16112	-844	-4016	51	-34	66	-3748	-1936	16536	177	-2	111	-8584	2896	14116	76	-57	-212	-14712	3844	-6060	-16	16	-100	-3100	2328	16596	-32	-67	208	127	127	5
-7808	-2364	13688	-167	125	-226	-16096	-852	-4084	47	-22	48	-3768	-1932	16528	180	-59	94	-8588	2932	14044	85	-74	-225	-14736	3884	-6020	-17	-2	-62	-3120	2280	16516	-1	-126	233	127	127	5
-7880	-2300	13632	-157	129	-241	-16076	-952	-3992	40	-48	54	-3804	-2020	16516	107	-16	79	-8680	2916	13996	91	-55	-212	-14724	3836	-6008	-49	15	-106	-3128	2292	16520	-12	-107	242	127	127	5
-7784	-2308	13784	-112	163	-255	-16056	-836	-4124	51	-52	48	-3816	-2032	16576	124	-51	87	-8604	2804	14168	74	-64	-198	-14728	3824	-6116	7	7	-142	-3252	2264	16592	-1	-89	246	127	127	5
-7864	-2408	13704	-116	176	-220	-16080	-940	-4048	39	-32	69	-3800	-2028	16516	131	-46	66	-8664	2856	14044	73	-37	-197	-14700	3772	-6096	-56	-21	-131	-3164	2244	16612	-17	-92	250	127	127	5
-7836	-2288	13652	-119	169	-247	-16120	-900	-4032	77	-56	85	-3796	-2008	16524	98	-26	43	-8656	2860	14056	67	-51	-163	-14708	3808	-6000	-3	-8	-109	-3212	2220	16564	-22	-105	227	127	127	5
-7840	-2360	13616	-109	148	-211	-16140	-904	-4160	46	-90	111	-3772	-1996	16596	102	-43	27	-8608	2872	14064	86	-88	-176	-14712	3784	-6080	-44	-12	-96	-3200	2224	16544	13	-120	225	127	126	5
-7880	-2352	13692	-102	138	-214	-16068	-872	-3944	83	-67	103	-3776	-2056	16564	131	-18	50	-8616	2768	14172	88	-70	-153	-14696	3784	-6096	-29	-44	-125	-3096	2168	16520	16	-100	213	127	127	5
-7864	-2348	13676	-115	147	-187	-16140	-920	-4156	76	-43	79	-3740	-2048	16584	122	-8	33	-8624	2884	14004	102	-96	-149	-14740	3776	-5960	-3	-29	-85	-3140	2124	16620	-8	-115	211	127	127	5
-7840	-2364	13652	-117	134	-198	-16132	-892	-3928	95	-37	83	-3748	-1984	16544	104	-15	33	-8624	2828	14004	117	-56	-191	-14660	3712	-5976	9	-45	-96	-3068	2160	16496	-28	-165	200	127	127	5
-7836	-2416	13744	-123	119	-191	-16104	-888	-3912	64	-16	79	-3736	-2004	16508	148	-23	22	-8604	2832	14088	87	-49	-161	-14768	3808	-5896	-13	-28	-99	-3144	2188	16568	-5	-132	193	127	127	5
-7844	-2336	13776	-116	120	-239	-16084	-880	-3964	86	-16	120	-3668	-2040	16420	165	-47	48	-8576	2816	14060	134	-78	-143	-14736	3764	-5956	-13	-47	-97	-3120	2144	16624	-24	-146	195	127	127	5
-7864	-2388	13732	-98	138	-195	-16100	-864	-3952	43	-10	93	-3708	-2108	16568	142	15	46	-8556	2840	14072	134	-67	-212	-14748	3744	-6000	-9	-64	-45	-3048	2216	16656	22	-97	186	127	127	5
-7820	-2420	13708	-102	184	-176	-16132	-932	-4024	48	-4	74	-3780	-2044	16604	170	-45	74	-8564	2820	14064	121	-43	-160	-14696	3764	-5940	6	-58	-69	-3180	2196	16640	-22	-158	172	127	126	5
-7824	-2384	13740	-92	108	-247	-16084	-892	-4064	87	0	96	-3692	-2088	16344	167	-38	61	-8608	2872	14076	109	-88	-187	-14732	3812	-6084	30	-22	-49	-3124	2180	16568	8	-123	158	127	127	5
-7824	-2364	13760	-114	150	-183	-16128	-1024	-4152	105	16	104	-3796	-1916	16532	59	33	44	-8620	2852	14112	148	-85	-180	-14740	3856	-6080	32	-30	-27	-3128	2296	16616	8	-164	169	127	127	5
-7820	-2392	13648	-60	150	-188	-16116	-852	-3984	71	4	145	-3804	-2080	16620	176	31	52	-8576	2936	14048	167	-37	-148	-14688	3840	-6024	34	-58	-16	-3164	2208	16624	34	-119	162	127	127	5
-7832	-2328	13616	-111	166	-200	-16080	-972	-4060	92	3	153	-3760	-2068	16568	205	13	44	-8604	2888	14100	123	-9	-165	-14748	3836	-6064	3	-41	-23	-3144	2204	16556	24	-110	187	127	127	5
-7844	-2400	13704	-70	116	-169	-16116	-988	-4008	90	18	155	-3796	-2052	16572	185	14	23	-8588	2872	14000	143	-47	-150	-14724	3792	-6064	1	-73	-56	-3152	2196	16548	22	-117	209	127	127	5
-7932	-2448	13688	-41	154	-148	-16140	-908	-4116	106	5	142	-3760	-2052	16492	175	-19	20	-8564	2904	14108	149	-37	-174	-14708	3748	-6072	-12	-58	-61	-3156	2212	16704	63	-127	177	127	126	5
-7880	-2412	13664	-50	160	-166	-16048	-912	-3992	93	-38	152	-3772	-1964	16440	210	-53	7	-8656	2904	14040	132	-73	-160	-14772	3832	-6124	22	-63	-33	-3196	2156	16644	45	-118	220	127	127	5
-7840	-2300	13660	-35	162	-184	-16116	-896	-4000	108	0	182	-3784	-1952	16552	133	-81	-8	-8580	2900	14024	138	-15	-153	-14664	3752	-5960	10	-54	-32	-3096	2112	16596	141	-127	182	127	127	5
-7800	-2356	13708	-30	129	-194	-16104	-904	-3988	100	-28	191	-3752	-1992	16564	324	-28	14	-8592	2804	14076	141	-12	-153	-14732	3708	-6092	14	-68	-12	-3068	2152	16708	70	-161	207	127	127	5
-7844	-2340	13712	-67	158	-200	-16076	-852	-4048	112	10	215	-3720	-1972	16424	222	-11	44	-8612	2840	14060	137	-106	-158	-14712	3752	-6072	13	-82	15	-3100	2208	16564	97	-115	200	127	127	5
-7880	-2312	13656	-85	136	-183	-16164	-864	-4024	82	15	179	-3732	-2028	16584	225	-34	31	-8584	2824	14068	162	-30	-115	-14728	3764	-6056	2	-93	8	-3120	2228	16452	53	-160	196	127	127	5
-7844	-2356	13736	-51	124	-172	-16160	-864	-3988	71	21	166	-3732	-1924	16584	238	-8	81	-8596	2912	13956	174	-67	-118	-14744	3744	-6052	12	-67	25	-3040	2172	16652	73	-144	217	127	127	5
-7872	-2340	13684	-47	111	-188	-16060	-888	-4024	53	-17	205	-3736	-1992	16552	218	10	72	-8576	2900	14100	181	-16	-123	-14772	3776	-5960	42	-45	-19	-3044	2156	16680	95	-143	162	127	127	5
-7828	-2420	13712	-77	149	-191	-16084	-884	-4008	83	-11	161	-3712	-1916	16584	204	0	56	-8620	2844	14112	160	-16	-150	-14732	3860	-5940	27	-34	10	-3108	2236	16588	85	-161	165	127	126	5
-7900	-2364	13652	-60	133	-173	-16068	-940	-4116	80	8	172	-3792	-1928	16488	264	-11	71	-8636	2884	14020	150	-89	-114	-14668	3852	-6056	38	-54	2	-3092	2236	16656	49	-112	153	127	126	5
-7800	-2332	13696	-65	133	-172	-16048	-876	-4004	73	12	168	-3800	-1964	16452	209	-50	56	-8660	2964	14080	164	-21	-133	-14704	3852	-6020	49	-54	35	-3124	2292	16560	42	-143	168	127	126	5
-7828	-2376	13708	-46	119	-167	-16096	-884	-3988	82	23	144	-3728	-1948	16556	216	-10	52	-8608	2832	13996	175	-79	-162	-14704	3836	-5952	31	-31	-18	-3096	2372	16576	20	-160	193	127	127	5
-7836	-2352	13660	-93	134	-175	-16116	-800	-3964	78	-25	111	-3692	-1956	16584	226	-11	52	-8588	2924	14020	148	-25	-149	-14736	3892	-6068	-17	-47	8	-3172	2332	16592	7	-108	190	127	127	5
-7820	-2360	13652	-93	153	-200	-16144	-780	-4008	47	-6	142	-3768	-1948	16608	215	18	57	-8640	2968	13972	134	-90	-140	-14752	3840	-5956	-4	-34	-7	-3132	2300	16476	9	-132	181	127	127	5
-7940	-2308	13664	-118	152	-193	-16096	-808	-4164	58	-2	117	-3788	-1924	16576	203	-28	71	-8540	2920	14016	113	-69	-194	-14684	3812	-6008	8	-39	-29	-3112	2340	16660	11	-128	176	127	127	5
-7816	-2296	13676	-109	127	-185	-16072	-812	-3988	87	17	64	-3796	-1936	16560	179	-10	77	-8548	2904	14024	87	-29	-197	-14704	3876	-6000	13	-24	-65	-3152	2340	16672	-18	-121	212	127	127	5
-7832	-2320	13624	-105	113	-209	-16096	-736	-4016	59	-10	115	-3800	-1952	16540	203	-27	58	-8604	2884	14168	118	-53	-188	-14676	3820	-6012	4	4	-73	-3100	2256	16600	16	-115	200	127	127	5
-7868	-2340	13732	-133	122	-183	-16076	-800	-4124	28	-59	102	-3736	-1932	16636	186	-7	67	-8628	2900	14156	105	-38	-154	-14704	3840	-6032	-23	-11	-86	-3076	2212	16540	8	-119	189	127	127	5
-7796	-2336	13720	-152	115	-207	-16092	-908	-4176	38	-16	78	-3712	-1980	16504	164	-19	98	-8624	2864	14136	97	-52	-187	-14724	3812	-5980	-14	-13	-40	-3128	2216	16588	-10	-113	220	127	127	5
-7788	-2340	13612	-163	134	-218	-16092	-876	-4076	37	-5	75	-3704	-1972	16512	162	-7	65	-8648	2776	14044	111	-116	-152	-14780	3740	-6032	-11	-27	-48	-3140	2300	16640	7	-109	235	127	127	5
-7828	-2396	13860	-145	142	-197	-16148	-852	-4172	97	-19	64	-3744	-1956	16512	171	-46	83	-8552	2800	14040	118	-77	-175	-14692	3812	-6036	2	-16	-70	-3204	2220	16700	-8	-154	200	127	127	5
-7856	-2372	13628	-141	145	-240	-16076	-892	-4028	78	-25	92	-3776	-1960	16380	133	-5	70	-8584	2888	13984	116	-73	-175	-14760	3808	-6060	13	-33	-44	-3120	2224	16536	9	-138	209	127	127	5
-7828	-2340	13696	-163	160	-192	-16104	-924	-4076	33	-34	94	-3708	-1976	16580	155	-13	94	-8592	2892	14028	103	-81	-180	-14680	3816	-6012	-4	-27	4	-3180	2204	16588	-27	-119	197	127	127	5
-7812	-2368	13700	-140	163	-218	-16124	-900	-4060	18	6	61	-3704	-2084	16528	179	6	85	-8624	2896	14000	83	-63	-140	-14704	3768	-6020	5	-52	-92	-3164	2244	16728	38	-138	203	127	127	5
-7784	-2384	13656	-137	156	-198	-16088	-868	-4144	45	-2	103	-3804	-2016	16520	162	-24	103	-8580	2920	14044	116	-58	-172	-14696	3760	-5956	-10	-40	-93	-3128	2256	16636	20	-125	205	127	127	5
-7800	-2384	13748	-157	133	-220	-16160	-944	-3968	19	-20	81	-3708	-2088	16488	168	0	110	-8632	2840	14060	108	-63	-139	-14728	3780	-6020	17	-23	-69	-3052	2204	16480	33	-104	194	127	126	5
-7872	-2448	13704	-114	150	-221	-16100	-924	-3984	62	20	85	-3780	-1976	16488	173	-5	79	-8584	2888	14064	80	-75	-196	-14736	3816	-5964	2	11	-69	-3156	2160	16652	-11	-102	224	127	127	5
-7876	-2404	13540	-159	179	-189	-16112	-952	-4056	71	-19	94	-3728	-2024	16480	163	6	85	-8528	2920	14164	107	-99	-167	-14768	3824	-6100	-7	-14	-78	-3076	2256	16588	11	-118	219	127	127	5
-7848	-2432	13772	-109	135	-206	-16096	-920	-4088	33	20	91	-3756	-2004	16628	181	-36	57	-8556	2876	14064	133	-57	-127	-14748	3776	-6012	13	30	-66	-3108	2196	16620	18	-123	209	127	126	5
-7832	-2364	13696	-116	146	-217	-16120	-912	-3988	50	23	62	-3840	-1984	16596	185	-35	48	-8612	2872	14100	133	-79	-196	-14708	3832	-6092	33	-14	-70	-3164	2148	16532	15	-118	193	127	127	5
-7832	-2340	13704	-117	169	-172	-16152	-936	-4068	61	-11	95	-3716	-2004	16516	170	11	66	-8624	2836	14008	127	-46	-147	-14704	3792	-6060	16	9	-56	-3096	2232	16552	19	-133	205	127	127	5
-7796	-2376	13700	-67	116	-214	-16144	-904	-4084	44	-25	132	-3744	-2008	16532	150	-34	57	-8632	2880	14068	143	-5	-147	-14688	3804	-5980	19	-9	-81	-3176	2244	16544	5	-133	193	127	127	5
-7808	-2336	13700	-92	153	-227	-16184	-928	-4196	73	-11	123	-3764	-1992	16476	160	-24	45	-8644	2884	14088	123	-14	-171	-14700	3780	-5968	-19	-17	-64	-3136	2212	16580	4	-144	168	127	127	5
-7896	-2436	13724	-86	154	-177	-16120	-864	-4120	94	4	101	-3812	-1956	16552	189	-14	54	-8584	2924	14012	136	-99	-160	-14776	3840	-6096	2	-41	-52	-3152	2272	16652	31	-143	199	127	127	5
-7844	-2368	13620	-58	143	-211	-16060	-896	-4168	105	-7	112	-3768	-1996	16620	160	-5	29	-8512	2836	14184	127	-35	-125	-14708	3800	-5964	-21	-20	-65	-3152	2232	16572	64	-129	188	127	127	5
-7816	-2416	13792	-75	145	-239	-16112	-848	-4028	98	7	139	-3720	-1980	16576	159	19	56	-8548	2900	14144	138	-63	-173	-14708	3792	-6012	-35	-58	-58	-3124	2260	16604	50	-141	217	127	127	5
-7840	-2376	13672	-81	134	-217	-16096	-936	-4088	66	-46	121	-3768	-2020	16480	154	-15	40	-8576	2904	14028	138	-106	-139	-14736	3828	-6012	-22	-31	-10	-3124	2228	16580	76	-144	229	127	127	5
-7856	-2344	13512	-91	168	-204	-16072	-912	-3976	76	-14	131	-3696	-2024	16652	183	-21	68	-8600	2896	14060	139	-42	-165	-14744	3820	-5960	-17	-29	-54	-3080	2268	16540	78	-129	224	127	127	5
-7832	-2396	13696	-58	140	-200	-16140	-908	-4008	104	-27	143	-3708	-1944	16596	179	-23	35	-8556	2864	14064	124	-41	-140	-14724	3812	-6116	-4	-36	-70	-3168	2212	16632	80	-114	227	127	127	5
-7852	-2368	13780	-100	129	-220	-16068	-928	-4004	92	-17	100	-3724	-1968	16612	203	-14	74	-8560	2840	14064	127	-73	-160	-14668	3816	-6052	13	-16	-49	-3120	2212	16596	70	-118	199	127	127	5
-7832	-2356	13772	-69	128	-180	-16116	-908	-4088	62	1	111	-3752	-1976	16452	187	-35	45	-8580	2892	14076	127	12	-156	-14720	3812	-5972	-28	-56	-78	-3072	2260	16600	11	-140	202	127	127	5
-7852	-2340	13704	-69	172	-156	-16140	-908	-4068	39	-50	168	-3772	-1980	16576	155	-41	80	-8664	2924	13968	143	-74	-161	-14704	3804	-6000	-19	-34	-61	-3132	2224	16484	9	-152	210	127	126	5
-7880	-2420	13744	-72	150	-218	-16132	-876	-4044	88	-2	137	-3668	-1960	16516	177	-11	70	-8596	2880	14152	117	-73	-164	-14760	3784	-6084	-8	-48	-43	-3048	2204	16636	40	-105	211	127	127	5
-7844	-2360	13744	-124	121	-200	-16084	-840	-4112	75	-58	107	-3700	-1952	16444	167	-34	70	-8572	2852	14080	110	-39	-189	-14696	3880	-6076	-28	-27	-58	-3116	2256	16468	37	-125	194	127	127	5
-7844	-2412	13736	-107	172	-219	-16052	-824	-4076	62	-20	127	-3784	-2072	16556	158	-46	54	-8572	2828	14036	133	-6	-159	-14752	3820	-5948	27	-48	-66	-3044	2176	16548	31	-136	203	127	127	5
-7840	-2360	13668	-50	153	-170	-16112	-880	-4160	77	-60	109	-3752	-2012	16528	182	-32	48	-8588	2860	14144	117	-65	-158	-14708	3756	-5944	10	-55	-40	-3216	2240	16628	14	-128	202	127	126	5
-7868	-2284	13760	-96	153	-197	-16060	-888	-4048	104	-7	109	-3756	-1992	16420	164	-38	53	-8624	2892	14120	137	-58	-181	-14760	3864	-6084	1	-51	-39	-3196	2256	16624	11	-132	195	127	127	5
-7824	-2348	13816	-109	166	-187	-16144	-868	-4068	85	-79	98	-3784	-1968	16592	176	23	43	-8508	2908	14024	108	-42	-160	-14764	3800	-6096	1	-57	-50	-3104	2232	16620	29	-129	194	127	127	5
-7840	-2392	13728	-77	177	-236	-16128	-908	-4068	89	-47	99	-3720	-1992	16528	156	-10	26	-8540	2784	14116	118	-61	-178	-14688	3792	-6104	23	-55	-64	-3112	2248	16568	28	-127	203	127	127	5
-7816	-2344	13696	-76	164	-200	-16156	-932	-3996	79	-58	134	-3756	-1980	16416	173	5	51	-8596	2884	14076	172	-85	-121	-14692	3856	-6020	29	-65	-20	-3124	2300	16572	70	-122	187	127	126	5
-7844	-2352	13672	-80	160	-196	-16116	-896	-4156	86	-77	155	-3764	-1980	16528	161	6	36	-8612	2888	14008	115	-48	-172	-14644	3840	-6024	-10	-61	-64	-3108	2236	16484	30	-109	223	127	126	5
-7804	-2408	13700	-129	127	-192	-16104	-928	-3944	98	-38	132	-3680	-1976	16624	156	-12	43	-8600	2872	13944	115	-63	-140	-14744	3868	-5984	16	-48	-54	-3120	2256	16464	6	-129	205	127	126	5
-7824	-2412	13664	-88	138	-230	-16136	-876	-4084	38	-33	80	-3756	-2060	16508	143	-17	41	-8588	2928	13976	110	-48	-137	-14760	3784	-6012	-12	-73	-54	-3120	2232	16596	13	-121	230	127	127	5
-7776	-2396	13644	-84	152	-174	-16148	-860	-4024	94	-53	116	-3712	-2000	16456	162	23	17	-8528	2924	14084	132	-86	-166	-14812	3760	-5900	-5	-32	-22	-3108	2180	16572	-1	-134	194	127	126	5
-7880	-2396	13696	-79	134	-188	-16180	-924	-4012	95	8	116	-3768	-2048	16524	181	-8	39	-8552	2892	13988	110	-47	-176	-14748	3768	-6016	20	-18	-57	-3096	2208	16552	26	-130	214	127	127	5
-7852	-2388	13676	-60	144	-196	-16068	-876	-4064	85	-31	134	-3744	-2052	16548	172	-11	43	-8604	2868	14024	153	-35	-192	-14740	3760	-6140	26	-44	-63	-3168	2180	16568	10	-130	163	127	127	5
-7892	-2312	13760	-128	125	-195	-16140	-908	-4080	100	-4	128	-3724	-2032	16628	203	4	61	-8604	2864	14008	133	-24	-178	-14728	3808	-5984	-12	-34	-88	-3100	2204	16552	21	-112	202	127	127	5
-7884	-2420	13708	-117	114	-190	-16120	-888	-4016	73	13	119	-3784	-2012	16516	181	-29	18	-8556	2880	14104	129	-53	-175	-14728	3764	-5972	12	-29	-67	-3116	2248	16604	38	-119	211	127	126	5
-7864	-2356	13688	-93	129	-225	-16076	-908	-4104	55	-10	119	-3796	-2048	16544	179	-20	54	-8596	2920	14036	135	-36	-173	-14764	3768	-6044	4	-23	-8	-3124	2236	16700	31	-108	216	127	126	5
-7848	-2384	13748	-71	165	-172	-16088	-856	-4180	69	-3	123	-3744	-1960	16536	132	-55	56	-8620	2932	14008	168	-6	-181	-14732	3836	-6016	12	-17	-54	-3204	2196	16568	44	-124	183	127	127	5
-7840	-2408	13680	-85	146	-182	-16100	-924	-4076	101	-31	145	-3768	-1880	16480	169	-32	51	-8560	2872	14048	139	-40	-144	-14744	3796	-6084	31	-35	-60	-3180	2212	16588	36	-93	177	127	127	5
-7792	-2304	13564	-96	159	-210	-16152	-844	-4116	109	-18	108	-3780	-1972	16584	153	-17	41	-8608	2880	14088	148	-75	-150	-14696	3824	-6052	14	-13	-50	-3164	2252	16552	15	-158	182	127	127	5
-7852	-2364	13780	-74	153	-195	-16096	-912	-4072	86	-26	133	-3824	-2004	16520	180	-6	56	-8612	2872	14080	125	-50	-145	-14744	3800	-5936	16	-71	-64	-3156	2268	16564	73	-125	180	127	127	5
-7828	-2440	13616	-57	159	-169	-16080	-880	-4080	87	-16	126	-3756	-1968	16476	163	-3	47	-8628	2860	14124	105	5	-137	-14732	3788	-6048	15	-62	-46	-3080	2248	16512	47	-119	215	127	127	5
-7820	-2312	13676	-63	193	-206	-16104	-848	-4020	84	-59	172	-3744	-1992	16560	205	-9	36	-8616	2872	14156	102	-62	-151	-14708	3820	-6048	1	-45	-59	-3068	2260	16616	85	-146	206	127	127	5
-7820	-2376	13720	-108	170	-204	-16068	-876	-4148	78	-70	120	-3720	-2008	16556	148	-24	60	-8588	2980	14120	119	-34	-158	-14764	3848	-6056	-17	-27	-51	-3092	2244	16508	57	-122	202	127	127	5
-7908	-2364	13692	-69	160	-176	-16128	-876	-4032	88	-64	129	-3700	-2012	16560	150	21	45	-8580	2952	14036	131	-47	-160	-14728	3888	-6000	11	-66	-67	-3092	2244	16552	17	-132	220	127	127	5
-7812	-2416	13760	-85	181	-171	-16100	-876	-4012	94	-25	98	-3660	-1992	16528	158	-20	67	-8568	2904	14176	102	-79	-129	-14728	3792	-5912	-12	-50	-62	-3132	2312	16620	27	-139	233	127	127	5
-7852	-2356	13648	-118	181	-176	-16148	-844	-4100	85	-35	137	-3716	-1960	16592	165	-2	44	-8528	2968	14116	127	-47	-211	-14744	3844	-5884	-17	-29	-26	-3084	2288	16588	24	-96	197	127	127	5
-7804	-2404	13720	-100	193	-200	-16076	-868	-4008	52	-51	102	-3676	-2016	16496	160	-10	51	-8600	2904	14108	79	-79	-147	-14724	3856	-5932	11	-22	-94	-3076	2316	16472	12	-114	207	127	127	5
-7808	-2380	13672	-144	151	-196	-16104	-888	-4052	76	-47	106	-3764	-1924	16564	176	-5	85	-8564	2884	14020	64	-50	-155	-14704	3868	-5956	-33	2	-71	-3104	2280	16700	22	-85	226	127	127	5
-7796	-2376	13704	-113	191	-232	-16084	-896	-4084	63	-54	116	-3656	-2008	16612	204	9	72	-8588	2900	14024	98	-85	-158	-14760	3848	-5984	-25	11	-61	-3144	2332	16672	4	-100	242	127	127	5
-7860	-2352	13704	-96	150	-212	-16084	-832	-4016	61	-2	81	-3716	-2032	16584	189	-54	90	-8564	2904	14100	97	-45	-158	-14700	3832	-5936	-27	-11	-69	-3104	2272	16524	-34	-100	214	127	127	5
-7784	-2312	13740	-75	182	-226	-16132	-916	-4088	88	-41	81	-3780	-1968	16472	172	-43	63	-8640	2888	14048	98	-82	-178	-14664	3788	-6108	-22	-21	-72	-3168	2248	16628	-8	-116	217	127	127	5
-7836	-2360	13688	-102	162	-208	-16108	-860	-4112	59	-29	104	-3792	-1980	16560	155	-38	38	-8560	2908	13988	83	-69	-141	-14708	3768	-6044	15	-36	-94	-3172	2232	16624	13	-99	206	127	127	5
-7852	-2348	13640	-133	132	-211	-16100	-864	-4064	81	-2	89	-3716	-1976	16644	126	-25	51	-8556	2872	14084	108	-25	-185	-14680	3812	-6048	13	-41	-93	-3140	2224	16604	23	-105	226	127	127	5
-7832	-2424	13664	-126	142	-213	-16148	-908	-4168	113	-42	108	-3768	-1988	16516	118	-69	46	-8536	2900	14080	129	-15	-140	-14764	3828	-6036	-29	-58	-98	-3140	2240	16592	6	-129	188	127	127	5
-7852	-2368	13696	-95	173	-203	-16100	-904	-4184	84	-56	125	-3720	-2036	16572	157	-23	40	-8640	2896	14064	100	-66	-163	-14696	3844	-6016	-37	-29	-106	-3072	2180	16572	9	-80	222	127	127	5
-7836	-2380	13652	-87	162	-210	-16088	-916	-3988	71	-64	110	-3688	-2000	16548	173	-23	57	-8604	2892	14088	141	-82	-155	-14724	3768	-6064	-6	-67	-79	-3148	2160	16500	23	-116	213	127	127	5
-7836	-2392	13676	-63	163	-245	-16076	-864	-4036	95	-46	106	-3696	-2040	16508	145	5	24	-8532	2888	14100	129	-62	-161	-14732	3780	-6040	-9	-67	-80	-3088	2120	16556	16	-143	212	127	127	5
-7832	-2456	13744	-110	174	-191	-16064	-848	-4020	69	-23	121	-3680	-1980	16536	144	-20	53	-8576	2896	14132	98	-57	-171	-14752	3800	-6080	15	-58	-42	-3096	2152	16520	38	-112	210	127	127	5
-7816	-2436	13708	-134	157	-198	-16108	-844	-4096	39	-66	106	-3696	-2020	16552	142	-2	61	-8664	2900	14168	151	-59	-165	-14676	3816	-5948	3	-42	-32	-3148	2164	16652	4	-109	182	127	127	5
-7876	-2368	13700	-76	156	-258	-16132	-904	-3964	87	-51	114	-3752	-2028	16536	156	-19	66	-8608	2872	14116	145	-44	-155	-14664	3708	-6004	23	-38	-60	-3136	2248	16536	17	-147	192	127	127	5
-7848	-2408	13724	-83	167	-225	-16152	-912	-4084	92	-10	127	-3692	-2056	16600	176	-23	48	-8572	2824	14128	127	-58	-157	-14772	3824	-5984	6	-34	-36	-3120	2212	16672	3	-119	222	127	127	5
-7800	-2412	13672	-49	143	-202	-16100	-908	-4124	81	-7	113	-3708	-2044	16468	144	-23	57	-8568	2876	13992	133	-52	-133	-14684	3840	-5992	33	-35	-33	-3164	2276	16548	13	-123	208	127	127	5
-7768	-2388	13676	-86	138	-207	-16088	-908	-4064	51	-49	139	-3676	-2028	16572	152	-41	60	-8576	2888	14084	117	-51	-170	-14712	3812	-5996	9	-4	-32	-3060	2280	16620	0	-125	220	127	126	5
-7868	-2332	13656	-126	152	-217	-16116	-896	-4104	52	-45	95	-3732	-2084	16528	151	33	58	-8600	2896	14076	143	-69	-125	-14768	3760	-5980	-1	-2	-66	-3152	2268	16660	26	-111	233	127	127	5
-7812	-2444	13684	-94	138	-191	-16136	-932	-4044	72	-7	121	-3764	-2116	16504	172	4	64	-8564	2952	14180	111	-30	-168	-14704	3856	-6000	-11	-50	-46	-3108	2296	16608	-9	-67	207	127	127	5
-7812	-2400	13632	-114	153	-176	-16064	-896	-4028	92	-26	108	-3764	-2064	16572	167	23	49	-8592	2880	14152	105	-28	-183	-14676	3792	-6032	15	-23	-88	-3132	2260	16684	25	-100	203	127	127	5
-7860	-2356	13576	-78	139	-188	-16116	-920	-4072	76	-53	125	-3676	-2032	16564	153	-30	45	-8612	2928	14028	129	-75	-151	-14652	3780	-5880	-31	-35	-93	-3164	2292	16548	-27	-113	201	127	127	5
-7860	-2380	13596	-85	136	-206	-16152	-860	-4156	69	-33	89	-3696	-2016	16608	172	-39	28	-8568	2892	14028	103	-9	-142	-14732	3784	-5916	-5	-17	-75	-3160	2252	16600	10	-83	219	127	127	5
-7856	-2416	13724	-123	152	-220	-16136	-916	-4020	99	-39	102	-3756	-1976	16504	156	-45	22	-8692	2876	14020	101	-59	-187	-14740	3772	-5972	-9	-14	-64	-3124	2260	16688	6	-92	243	127	127	5
-7868	-2364	13608	-75	148	-203	-16136	-884	-4108	97	-6	156	-3776	-2048	16604	141	-2	63	-8588	2868	14100	118	-95	-169	-14764	3756	-6080	-29	-62	-112	-3132	2220	16680	-12	-101	220	127	127	5
-7844	-2364	13716	-80	151	-217	-16096	-884	-4032	99	6	74	-3688	-2008	16448	196	-37	40	-8592	2920	14056	126	-57	-149	-14700	3800	-5960	-5	-44	-76	-3144	2184	16652	9	-105	205	127	127	5
-7828	-2356	13648	-101	153	-216	-16072	-824	-4076	71	-9	104	-3668	-1940	16524	163	-18	73	-8620	2876	14076	111	-57	-182	-14712	3756	-5960	-12	-22	-58	-3148	2152	16544	0	-121	208	127	127	5
-7852	-2396	13804	-77	148	-197	-16096	-884	-4060	57	-29	88	-3728	-2048	16420	160	47	78	-8532	2856	14108	141	7	-152	-14752	3792	-5956	-20	-48	-31	-3140	2200	16576	20	-115	172	127	127	5
-7936	-2412	13636	-104	135	-177	-16076	-932	-4136	103	22	71	-3736	-2004	16400	164	-14	49	-8600	2888	14068	119	-28	-195	-14764	3728	-6036	-20	-24	-48	-3156	2208	16552	-5	-87	194	127	127	5
-7820	-2348	13724	-101	150	-217	-16084	-860	-3940	81	-23	130	-3724	-1964	16596	156	-29	65	-8612	2860	14144	139	-80	-176	-14800	3748	-6088	-1	-22	-44	-3128	2224	16692	18	-95	186	127	127	5
-7828	-2424	13600	-138	146	-196	-16084	-972	-4060	43	-6	126	-3752	-2020	16588	192	-7	42	-8596	2844	14032	164	-52	-178	-14724	3760	-6040	-5	4	-91	-3108	2168	16588	10	-125	187	127	127	5
-7792	-2384	13656	-111	143	-204	-16052	-872	-4108	50	-30	110	-3840	-2028	16528	213	-26	39	-8556	2908	14136	145	-24	-189	-14728	3808	-6024	-33	-35	-61	-3124	2280	16640	15	-129	212	127	127	5
-7800	-2380	13652	-112	193	-233	-16144	-888	-4096	99	-55	123	-3720	-2032	16456	156	-5	61	-8532	2956	14000	166	-99	-143	-14700	3812	-6080	7	-40	-41	-3172	2264	16492	6	-81	198	127	127	5
-7856	-2300	13632	-116	143	-211	-16052	-984	-4040	100	-19	70	-3720	-2032	16608	174	-36	38	-8588	2912	14012	108	-59	-175	-14684	3816	-6064	-37	-48	-88	-3188	2244	16540	30	-103	205	127	127	5
-7836	-2436	13676	-78	171	-219	-16096	-912	-4136	59	-12	92	-3720	-2040	16480	155	-41	60	-8608	2908	14012	112	-37	-164	-14704	3848	-6036	1	-30	-59	-3120	2272	16544	26	-110	233	127	127	5
-7848	-2392	13756	-111	148	-195	-16088	-956	-4084	61	-52	166	-3780	-2044	16588	163	4	58	-8540	2932	13984	121	9	-166	-14752	3792	-6088	-21	-21	-104	-3124	2236	16576	4	-98	215	127	127	5
-7872	-2376	13704	-74	171	-198	-16080	-948	-4128	116	-59	137	-3760	-2000	16560	175	1	36	-8576	2888	14028	124	-58	-151	-14756	3876	-6020	-21	-34	-66	-3132	2216	16508	27	-104	207	127	126	5
-7812	-2376	13768	-62	115	-174	-16124	-920	-4028	112	-51	143	-3732	-2020	16532	226	13	24	-8592	2876	14108	111	-67	-184	-14692	3820	-6140	-38	-18	-60	-3160	2224	16580	6	-92	237	127	126	5
-7824	-2400	13656	-102	139	-223	-16112	-908	-3956	69	-41	123	-3656	-2060	16612	194	-25	26	-8532	2840	14048	78	-83	-202	-14756	3796	-5952	-33	-42	-84	-3112	2196	16508	23	-96	218	127	127	5
-7832	-2332	13620	-68	147	-196	-16108	-784	-3996	65	-16	155	-3768	-1976	16524	162	-25	70	-8616	2916	14220	106	-55	-190	-14752	3784	-5864	-11	-41	-65	-3168	2196	16628	47	-76	204	127	127	5
-7752	-2332	13620	-114	157	-195	-16116	-848	-3952	82	-71	145	-3752	-2056	16612	146	-38	46	-8656	2900	14060	108	-79	-161	-14732	3792	-5984	1	-29	-81	-3120	2188	16632	22	-114	211	127	127	5
-7780	-2392	13728	-69	153	-220	-16128	-888	-4076	84	1	132	-3716	-2044	16540	178	-3	66	-8620	2860	14144	98	-32	-159	-14748	3788	-5940	-1	-50	-91	-3116	2144	16720	-11	-113	205	127	127	5
-7840	-2368	13624	-69	148	-152	-16168	-896	-3908	113	-34	107	-3712	-2020	16668	196	-16	28	-8592	2864	14096	95	-38	-166	-14784	3788	-5920	-15	-30	-73	-3184	2192	16616	-27	-121	174	127	126	5
-7784	-2412	13728	-111	160	-178	-16088	-852	-4060	53	-34	123	-3740	-1996	16456	166	-10	75	-8616	2824	14084	107	-63	-141	-14744	3848	-6024	-23	-41	-11	-3104	2280	16556	-18	-128	204	127	127	5
-7848	-2384	13692	-125	146	-239	-16100	-840	-4072	81	-24	117	-3704	-1988	16628	137	5	40	-8552	2892	14148	144	0	-178	-14796	3764	-6060	12	-19	-37	-3148	2216	16624	6	-128	179	127	127	5
-7828	-2376	13748	-122	150	-200	-16108	-940	-4020	47	-24	93	-3708	-1952	16564	189	-31	85	-8580	2848	14060	124	-45	-150	-14764	3740	-6092	14	-17	-42	-3100	2200	16576	-1	-126	188	127	127	5
-7856	-2416	13648	-118	140	-212	-16040	-928	-4068	92	-26	101	-3728	-2028	16576	149	-19	74	-8600	2880	14180	127	-37	-148	-14668	3804	-5968	6	-21	-53	-3104	2260	16532	-24	-115	187	127	127	5
-7868	-2388	13772	-102	147	-183	-16120	-948	-4052	85	-12	85	-3768	-2024	16612	176	-6	80	-8516	2880	14136	112	-72	-157	-14732	3876	-6012	-9	-14	-34	-3076	2260	16572	-14	-102	216	127	127	5
-7812	-2408	13728	-105	125	-184	-16160	-936	-4012	74	-22	105	-3796	-2044	16452	159	34	40	-8604	2920	14092	95	-123	-148	-14680	3868	-6028	-36	-35	-70	-3188	2248	16636	13	-112	227	127	127	5
-7828	-2388	13720	-101	150	-180	-16156	-924	-3968	83	-9	93	-3768	-2120	16504	155	-9	52	-8544	2844	14192	94	-71	-180	-14672	3800	-6064	-30	-35	-87	-3140	2264	16652	-2	-75	222	127	127	5
-7852	-2384	13740	-128	144	-216	-16160	-996	-4036	79	-44	142	-3720	-2068	16568	178	29	34	-8592	2896	13940	96	-52	-182	-14752	3796	-6000	9	-7	-102	-3148	2224	16528	22	-88	229	127	127	5
-7836	-2400	13752	-104	163	-222	-16052	-944	-3968	64	-26	86	-3716	-2052	16548	185	9	52	-8552	2896	13976	84	-52	-183	-14708	3792	-6016	-22	-69	-132	-3092	2160	16628	3	-89	243	127	127	5
-7840	-2432	13684	-110	136	-185	-16144	-972	-4144	82	-2	130	-3740	-2092	16568	194	9	53	-8604	2892	14008	110	-48	-162	-14728	3804	-6140	-9	1	-87	-3140	2116	16560	-26	-137	200	127	127	5
-7832	-2348	13800	-92	127	-200	-16080	-908	-4056	72	0	155	-3708	-2064	16648	201	5	49	-8572	2884	14116	71	-71	-181	-14736	3776	-5920	-28	-33	-89	-3200	2116	16648	-12	-110	217	127	127	5
-7880	-2348	13616	-82	188	-188	-16140	-864	-3968	90	-40	130	-3752	-2068	16596	200	4	49	-8564	2860	14112	74	-127	-173	-14728	3784	-6080	-11	-56	-51	-3200	2136	16628	18	-129	242	127	127	5
-7772	-2356	13668	-80	148	-198	-16096	-908	-4060	79	3	126	-3716	-1984	16624	134	3	44	-8516	2816	14084	121	-24	-179	-14672	3760	-6064	12	-35	-33	-3192	2196	16664	33	-93	233	127	126	5
-7852	-2408	13596	-101	136	-215	-16116	-860	-4028	87	3	106	-3720	-2024	16580	225	12	67	-8604	2824	14060	127	-22	-175	-14700	3752	-6136	15	-27	-51	-3192	2164	16560	18	-116	224	127	127	5
-7764	-2384	13624	-93	146	-210	-16116	-936	-4080	76	-25	125	-3712	-2004	16572	186	13	35	-8572	2932	14072	112	-63	-158	-14728	3756	-5996	0	-22	-52	-3152	2184	16572	18	-136	209	127	127	5
-7860	-2392	13640	-87	182	-194	-16136	-964	-4148	93	-8	148	-3704	-2028	16476	200	-28	30	-8572	2868	14100	156	-53	-173	-14696	3780	-6024	-17	-44	-32	-3184	2160	16572	11	-140	207	127	127	5
-7888	-2352	13664	-60	151	-196	-16120	-956	-3996	111	17	152	-3712	-2060	16500	179	9	37	-8628	2916	14072	133	-62	-150	-14688	3796	-6108	-6	-70	-26	-3164	2244	16668	23	-109	152	127	127	5
-7780	-2384	13660	-54	145	-208	-16072	-928	-4184	98	22	155	-3788	-2048	16544	196	3	17	-8500	2916	14140	143	-50	-163	-14716	3792	-5944	18	-59	-6	-3136	2192	16600	53	-153	156	127	126	5
-7832	-2420	13656	-64	146	-202	-16116	-872	-4128	125	-1	150	-3752	-2072	16608	168	4	39	-8552	2868	14100	187	-54	-151	-14732	3860	-6060	23	-61	-28	-3176	2252	16656	35	-139	164	127	127	5
-7740	-2388	13768	-30	124	-180	-16068	-872	-4120	84	4	156	-3732	-2008	16632	228	13	30	-8596	2924	14056	156	-46	-150	-14744	3796	-5980	33	-54	-56	-3112	2292	16540	34	-155	190	127	127	5
-7804	-2404	13696	-21	136	-202	-16144	-908	-3984	127	-19	161	-3732	-2036	16536	200	3	28	-8608	2960	14196	143	-19	-158	-14732	3832	-5980	0	-41	-36	-3108	2236	16484	30	-140	157	127	127	5
-7812	-2348	13692	-91	138	-193	-16108	-880	-4008	98	-14	138	-3740	-2004	16520	206	-12	44	-8596	2840	13968	146	-54	-155	-14740	3824	-5948	-23	-40	-47	-3128	2260	16528	68	-158	200	127	127	5
-7768	-2408	13712	-89	157	-163	-16120	-912	-4128	95	-23	135	-3728	-2000	16516	202	-9	52	-8576	2836	14060	138	-24	-144	-14784	3788	-6056	-18	-43	-31	-3116	2228	16556	28	-160	215	127	127	5
-7852	-2364	13816	-83	143	-198	-16112	-928	-4068	91	10	166	-3728	-1980	16480	202	-19	44	-8612	2920	14048	117	-57	-149	-14740	3812	-5952	14	-54	-48	-3116	2260	16664	29	-125	203	127	127	5
-7836	-2364	13776	-83	133	-173	-16112	-876	-4080	89	7	169	-3796	-1984	16464	176	15	61	-8596	2900	14024	130	-104	-191	-14720	3796	-6104	-9	-45	-50	-3120	2288	16600	58	-116	224	127	127	5
-7804	-2360	13652	-91	152	-184	-16184	-836	-4032	101	-41	140	-3696	-1984	16552	158	16	53	-8540	2948	14084	111	-82	-138	-14720	3800	-6084	-21	-39	-59	-3176	2240	16584	24	-120	195	127	127	5
-7784	-2420	13572	-87	139	-203	-16152	-860	-4036	83	13	127	-3728	-1996	16592	170	-36	25	-8544	2952	13980	126	-74	-130	-14776	3824	-5992	-6	-28	-79	-3128	2272	16624	11	-89	200	127	127	5
-7824	-2368	13632	-63	149	-204	-16124	-864	-4056	52	27	90	-3740	-1980	16604	145	22	69	-8588	2900	14108	109	-102	-144	-14720	3804	-6176	-4	-35	-33	-3108	2244	16468	3	-119	188	127	127	5
-7792	-2384	13756	-115	138	-214	-16052	-908	-4084	111	14	102	-3760	-1972	16588	186	12	72	-8580	2892	14000	133	-38	-185	-14728	3848	-5960	-34	-26	-47	-3148	2260	16608	31	-138	198	127	126	5
-7832	-2332	13752	-97	167	-174	-16100	-912	-4032	61	-41	88	-3720	-1964	16520	141	-4	48	-8620	2892	14132	119	-95	-163	-14632	3800	-5952	3	-41	-44	-3108	2232	16628	13	-100	195	127	127	5
-7852	-2340	13764	-133	145	-212	-16176	-884	-4140	81	10	104	-3728	-1972	16624	161	0	45	-8628	2888	14116	123	-89	-134	-14696	3756	-6044	-13	-71	-94	-3144	2168	16576	31	-147	214	127	127	5
-7780	-2404	13680	-152	120	-213	-16092	-804	-4108	75	12	122	-3752	-2008	16528	203	28	71	-8560	2884	14064	135	-39	-146	-14712	3796	-5984	23	-6	-81	-3176	2212	16564	-19	-115	199	127	127	5
-7916	-2448	13680	-169	136	-219	-16176	-864	-4108	42	-37	122	-3716	-2008	16536	161	10	45	-8636	2844	14096	107	-42	-171	-14740	3792	-6020	-32	-60	-102	-3092	2240	16736	35	-110	204	127	127	5
-7872	-2420	13732	-103	134	-200	-16164	-908	-4060	67	-3	117	-3756	-2008	16636	201	-2	65	-8604	2920	14072	149	-52	-180	-14756	3808	-6128	-4	-47	-47	-3200	2276	16416	10	-123	232	127	127	5
-7872	-2360	13644	-121	125	-208	-16128	-916	-4084	74	-18	125	-3760	-1984	16560	161	-22	72	-8540	2860	14016	97	-36	-150	-14724	3780	-6112	12	-30	-55	-3148	2260	16552	28	-117	210	127	127	5
-7860	-2436	13644	-114	152	-196	-16096	-956	-4116	54	-44	102	-3784	-2076	16552	197	-17	56	-8536	2884	14116	127	-73	-159	-14712	3808	-5992	29	-57	-61	-3140	2168	16540	30	-153	197	127	127	5
-7840	-2376	13568	-108	175	-183	-16064	-884	-3932	85	-36	104	-3756	-2020	16592	151	5	52	-8544	2848	14076	127	-15	-170	-14628	3768	-6000	-6	-36	-77	-3152	2180	16668	50	-132	188	127	127	5
-7868	-2440	13612	-97	175	-174	-16080	-932	-4148	96	-59	132	-3784	-2032	16500	154	-9	43	-8580	2868	13984	99	-64	-165	-14752	3824	-6040	-24	-30	-81	-3232	2272	16616	78	-152	226	127	127	5
-7852	-2400	13628	-79	170	-221	-16100	-860	-4044	82	-59	164	-3692	-1972	16536	177	20	60	-8648	2888	14128	122	-73	-160	-14724	3828	-5964	6	-73	-48	-3116	2220	16600	64	-157	199	127	127	5
-7848	-2356	13576	-101	174	-188	-16104	-920	-4056	78	-36	157	-3720	-2028	16592	169	-53	42	-8568	2928	14056	150	-80	-138	-14748	3796	-5916	16	-44	-67	-3108	2180	16620	32	-130	197	127	127	5
-7780	-2424	13664	-77	198	-170	-16040	-924	-3956	92	-12	102	-3652	-2028	16516	175	-38	34	-8572	2912	13964	109	-48	-130	-14700	3720	-6000	-7	-56	-11	-3056	2216	16592	87	-129	179	127	127	5
-7808	-2328	13744	-59	178	-215	-16120	-868	-3948	91	-28	162	-3708	-2044	16496	142	6	69	-8580	2864	14000	125	-46	-169	-14704	3728	-6004	8	-41	-59	-3068	2204	16616	67	-161	177	127	127	5
-7800	-2464	13692	-75	153	-199	-16088	-916	-4072	86	-22	134	-3672	-2016	16536	179	-1	51	-8572	2888	14108	113	8	-147	-14704	3776	-5928	10	-20	-48	-3116	2220	16568	36	-142	204	127	127	5
-7888	-2364	13700	-86	163	-177	-16072	-940	-3932	93	-34	99	-3716	-2092	16636	198	-6	62	-8580	2852	14072	136	-47	-175	-14752	3784	-6020	11	-45	-46	-3108	2160	16560	33	-109	185	127	127	5
-7884	-2420	13692	-77	154	-189	-16076	-912	-4020	82	-42	138	-3728	-2004	16608	164	-2	36	-8592	2908	14120	140	-16	-145	-14760	3788	-6052	-11	-36	-63	-3092	2224	16516	3	-150	179	127	127	5
-7892	-2344	13644	-67	151	-210	-16112	-928	-4116	99	20	123	-3704	-2004	16588	178	-20	64	-8580	2908	14052	165	-28	-182	-14760	3820	-6056	42	-43	-24	-3132	2308	16544	41	-160	193	127	127	5
-7820	-2432	13668	-78	151	-214	-16172	-912	-3936	83	6	155	-3788	-1956	16516	185	-51	50	-8604	2936	14128	158	-45	-158	-14700	3828	-5988	21	-6	-57	-3180	2232	16600	13	-144	198	127	127	5
-7752	-2392	13644	-80	125	-194	-16140	-940	-4064	120	-47	117	-3740	-1980	16536	170	-2	80	-8592	2908	14136	149	-46	-143	-14788	3856	-6016	8	-49	-25	-3168	2244	16584	-25	-131	204	127	127	5
-7792	-2380	13668	-72	142	-201	-16056	-884	-3948	72	-36	124	-3748	-1960	16556	189	-38	58	-8540	2880	14032	128	-20	-165	-14720	3932	-6048	33	-47	-83	-3168	2272	16512	20	-79	218	127	127	5
-7776	-2420	13692	-67	184	-192	-16152	-908	-4016	70	5	127	-3704	-2064	16492	161	15	61	-8588	2888	14008	108	-42	-173	-14712	3808	-6012	2	-12	-43	-3104	2296	16648	5	-128	218	127	127	5
-7812	-2388	13732	-74	152	-212	-16144	-912	-4012	89	-12	137	-3788	-2012	16584	159	-3	37	-8540	2916	14120	125	-20	-164	-14720	3784	-5940	11	-53	-56	-3140	2184	16692	16	-89	227	127	127	5
-7820	-2384	13744	-78	157	-221	-16132	-816	-4056	77	-35	118	-3692	-1944	16512	213	2	72	-8636	2920	14000	99	-30	-166	-14620	3868	-6088	-15	-10	-45	-3120	2244	16632	40	-123	239	127	127	5
-7832	-2408	13672	-128	134	-195	-16160	-824	-4056	60	9	120	-3680	-2024	16504	182	-11	73	-8604	2888	14056	122	-31	-155	-14768	3840	-5940	19	-29	-59	-3064	2276	16544	3	-92	193	127	127	5
-7792	-2432	13712	-95	139	-198	-16120	-892	-4020	63	-19	110	-3696	-2060	16588	161	-26	80	-8548	2900	14100	116	-56	-188	-14724	3764	-5904	-45	-32	-88	-3200	2288	16616	-4	-80	211	127	127	5
-7812	-2388	13704	-110	130	-189	-16108	-908	-4144	77	-39	127	-3764	-1996	16580	183	-2	77	-8540	2896	14092	93	-38	-155	-14720	3840	-6012	9	-6	-66	-3108	2208	16668	1	-99	233	127	127	5
-7840	-2412	13664	-107	157	-212	-16104	-884	-3988	63	15	117	-3704	-1972	16592	156	-5	68	-8620	2888	14060	76	-39	-187	-14716	3764	-6052	14	-21	-74	-3144	2176	16632	12	-114	228	127	127	5
-7864	-2396	13668	-121	154	-188	-16112	-840	-4024	30	4	61	-3688	-2000	16552	150	-34	78	-8540	2876	13988	87	-30	-191	-14816	3752	-6048	-27	-14	-48	-3172	2236	16504	-33	-100	169	127	127	5
-7840	-2412	13716	-92	141	-194	-16144	-904	-4064	97	-31	97	-3680	-2004	16512	171	-38	72	-8568	2888	14096	120	-33	-182	-14712	3772	-6056	-18	0	-102	-3216	2224	16564	-2	-148	182	127	127	5
-7804	-2412	13708	-78	159	-209	-16120	-932	-4076	75	3	86	-3700	-2056	16588	177	29	59	-8664	2880	14032	116	-42	-169	-14696	3756	-5956	13	-13	-51	-3176	2172	16648	10	-140	217	127	127	5
-7800	-2408	13724	-85	143	-205	-16104	-868	-4044	60	-15	103	-3696	-2052	16536	149	25	67	-8588	2836	14072	85	-35	-171	-14752	3792	-6044	-14	-8	-64	-3124	2164	16532	-1	-122	204	127	127	5
-7840	-2328	13620	-85	128	-188	-16072	-948	-4100	74	12	85	-3756	-2024	16580	172	14	92	-8572	2884	13972	112	-57	-192	-14724	3720	-6020	12	-24	-64	-3104	2220	16532	11	-143	211	127	127	5
-7812	-2460	13696	-116	124	-212	-16124	-908	-4116	58	-30	121	-3788	-2088	16580	193	-13	74	-8628	2844	14128	134	-33	-169	-14776	3820	-6060	9	-23	-69	-3260	2184	16660	40	-125	184	127	127	5
-7796	-2316	13700	-88	142	-230	-16116	-944	-4056	87	-12	113	-3820	-2024	16536	186	-23	47	-8576	2904	14108	125	-55	-199	-14712	3812	-6120	-29	-38	-84	-3208	2248	16624	24	-98	195	127	127	5
-7860	-2432	13624	-83	148	-210	-16104	-964	-4160	119	-4	114	-3832	-2072	16440	186	-3	42	-8608	2884	14120	135	-31	-204	-14804	3844	-6064	-16	-37	-38	-3172	2272	16492	72	-137	216	127	127	5
-7808	-2348	13736	-100	185	-190	-16104	-948	-4024	98	-52	168	-3756	-1984	16516	158	-20	54	-8592	2872	14112	123	-37	-182	-14676	3852	-5992	12	-54	-72	-3244	2196	16492	49	-116	186	127	127	5
-7788	-2452	13628	-93	145	-182	-16152	-892	-4124	40	-38	161	-3772	-1944	16612	136	-7	35	-8568	2872	14088	130	-50	-147	-14676	3780	-6056	-19	-81	-68	-3148	2232	16536	68	-126	217	127	127	5
-7804	-2344	13660	-94	173	-218	-16184	-892	-4128	95	-30	127	-3804	-2044	16660	152	-46	15	-8600	2872	14080	145	32	-152	-14760	3836	-6032	-1	-77	-84	-3128	2244	16580	29	-148	192	127	127	5
-7788	-2416	13712	-112	173	-197	-16088	-884	-4052	139	-60	142	-3672	-2032	16560	145	-49	30	-8564	2856	14080	141	-19	-202	-14688	3864	-6116	4	-67	-50	-3124	2240	16580	54	-136	223	127	127	5
-7832	-2360	13688	-88	191	-248	-16136	-940	-4036	115	-28	116	-3736	-2028	16560	178	-22	14	-8588	2908	14028	105	-68	-179	-14640	3812	-6032	-6	-40	-51	-3156	2280	16476	22	-89	221	127	127	5
-7816	-2444	13664	-115	166	-222	-16168	-888	-4092	134	-83	170	-3720	-1960	16536	157	-6	2	-8636	2928	14084	169	-69	-146	-14708	3796	-6016	-9	-44	-82	-3096	2232	16588	7	-119	206	127	127	5
-7788	-2404	13644	-79	178	-218	-16148	-888	-3992	100	-46	130	-3684	-1940	16584	157	-65	38	-8500	2816	14092	103	-69	-161	-14736	3836	-6052	-18	-59	-48	-3176	2236	16556	-7	-134	191	127	127	5
-7828	-2356	13628	-95	194	-172	-16128	-944	-4004	94	-55	102	-3676	-2072	16688	126	-7	33	-8552	2868	14068	88	-6	-163	-14684	3748	-5916	10	-60	-108	-3016	2152	16652	5	-85	202	127	127	5
-7844	-2376	13688	-74	181	-220	-16076	-976	-4204	77	-40	116	-3652	-2032	16576	150	-8	33	-8624	2952	14076	131	-36	-158	-14744	3812	-5884	5	-30	-72	-3020	2236	16500	6	-145	231	127	127	5
-7832	-2360	13652	-75	136	-188	-16068	-872	-4020	69	-31	153	-3660	-2076	16496	172	34	65	-8548	2920	14184	110	-75	-161	-14776	3728	-5864	-30	-4	-84	-3084	2224	16584	-17	-110	216	127	127	5
-7852	-2436	13656	-85	145	-207	-16144	-880	-3940	111	-24	118	-3688	-2028	16560	179	-5	57	-8596	2900	14020	108	-63	-197	-14716	3792	-5824	-52	-24	-47	-3084	2152	16612	20	-104	216	127	127	5
-7864	-2424	13764	-89	139	-235	-16080	-864	-3864	73	-49	96	-3672	-2072	16492	179	-8	84	-8592	2904	14048	107	-35	-155	-14740	3728	-6088	-52	15	-83	-3132	2152	16632	60	-85	227	127	127	5
-7864	-2376	13636	-112	131	-188	-16108	-800	-3952	50	8	100	-3684	-2032	16616	215	-13	82	-8624	2856	14056	148	-50	-170	-14740	3736	-6080	-27	-13	-43	-3072	2228	16664	54	-69	260	127	127	5
-7800	-2344	13756	-82	150	-226	-16076	-956	-3960	73	-2	111	-3684	-2092	16540	185	5	55	-8544	2852	14152	163	-74	-168	-14680	3744	-6080	12	-31	-54	-3104	2196	16620	37	-125	215	127	127	5
-7860	-2392	13696	-65	168	-177	-16092	-932	-3956	51	17	159	-3736	-2072	16568	192	16	61	-8532	2852	14068	124	-24	-169	-14780	3800	-6040	-20	-4	-52	-3140	2180	16644	1	-117	194	127	127	5
-7876	-2452	13720	-54	108	-201	-16120	-892	-3952	87	23	125	-3752	-2040	16524	183	-35	47	-8620	2848	14136	142	-29	-183	-14684	3800	-5996	24	-11	-39	-3184	2236	16596	33	-94	235	127	127	5
-7872	-2436	13668	-85	176	-203	-16132	-968	-3960	70	41	129	-3784	-2044	16612	195	5	58	-8580	2872	14120	144	-52	-192	-14700	3840	-6004	-17	-8	-40	-3228	2296	16544	0	-140	191	127	127	5
-7828	-2408	13712	-50	127	-197	-16116	-892	-3976	76	37	126	-3788	-2048	16576	212	5	23	-8544	2916	14152	126	-36	-159	-14704	3788	-6040	-7	-34	-62	-3212	2160	16672	42	-134	214	127	126	5
-7816	-2444	13644	-73	164	-172	-16088	-876	-4120	113	-23	138	-3784	-1976	16648	220	-27	15	-8540	2860	14028	137	-72	-179	-14664	3776	-6172	55	-49	-59	-3204	2168	16556	44	-138	172	127	127	5
-7832	-2356	13636	-87	146	-202	-16048	-876	-4064	89	4	117	-3724	-1964	16524	185	-29	44	-8596	2864	14116	130	-27	-152	-14812	3812	-6076	26	-33	-56	-3136	2180	16580	43	-155	188	127	127	5
-7820	-2444	13732	-85	122	-168	-16128	-820	-4076	83	-33	138	-3744	-1916	16516	192	10	46	-8600	2908	14176	135	-57	-144	-14688	3752	-5936	56	-46	-41	-3120	2208	16620	9	-124	180	127	127	5
-7804	-2412	13608	-81	120	-208	-16204	-808	-4112	55	-3	119	-3692	-1948	16552	164	-1	49	-8600	2924	14112	116	-42	-144	-14724	3768	-5876	43	-75	-51	-3088	2216	16508	20	-133	177	127	127	5
-7832	-2388	13660	-146	122	-173	-16128	-868	-3944	49	19	96	-3648	-1976	16584	176	-2	79	-8544	2852	14076	173	-96	-145	-14768	3748	-5920	5	16	-103	-3064	2256	16472	-13	-103	173	127	126	5
-7836	-2372	13744	-132	151	-222	-16156	-780	-3980	19	32	63	-3628	-2056	16496	172	-7	73	-8496	2900	14116	161	-40	-202	-14776	3804	-5868	8	18	-11	-3040	2220	16564	11	-78	210	127	127	5
-7836	-2340	13668	-139	124	-185	-16148	-848	-3968	18	32	71	-3652	-2088	16612	179	-21	153	-8576	2904	14060	129	-57	-149	-14736	3820	-5872	7	10	-43	-3108	2224	16500	-3	-59	177	127	127	5
-7824	-2360	13652	-140	135	-174	-16124	-916	-3964	8	17	89	-3724	-2060	16436	206	22	124	-8552	2892	14056	120	-60	-191	-14708	3768	-6064	14	-4	-12	-3184	2300	16660	-59	-75	149	127	127	5
-7812	-2392	13784	-132	141	-208	-16136	-948	-4108	42	79	104	-3808	-2100	16468	201	-4	119	-8584	2876	14164	95	-34	-189	-14708	3764	-6160	122	14	-15	-3176	2344	16620	-116	-52	82	127	127	5
-7832	-2412	13640	-145	145	-191	-16020	-972	-4048	81	6	79	-3844	-2104	16480	201	-27	112	-8636	2828	14040	135	30	-202	-14696	3920	-5996	119	-5	-34	-3188	2376	16472	-156	-93	51	127	126	5
-7800	-2412	13708	-134	115	-218	-16068	-992	-4076	47	30	94	-3836	-2052	16508	177	-29	102	-8636	2956	14004	98	-65	-154	-14716	4044	-6028	55	-32	-65	-3300	2344	16660	-139	-67	134	127	126	5
-7808	-2404	13620	-126	145	-179	-16056	-980	-4240	21	4	80	-3844	-2048	16592	149	-41	71	-8644	2924	14060	37	-69	-188	-14764	4000	-5948	-110	2	-140	-3176	2156	16580	-17	-101	205	127	126	5
-7840	-2384	13692	-108	183	-226	-16056	-988	-4200	72	-9	145	-3848	-2008	16616	144	-51	53	-8564	2880	13980	46	-133	-212	-14688	3836	-6052	-132	-12	-157	-3192	2172	16620	63	-98	322	127	126	5
-7844	-2432	13704	-106	165	-211	-16064	-940	-4040	97	-43	130	-3776	-1988	16540	149	-40	51	-8604	2880	14068	46	-113	-184	-14660	3720	-5972	-45	-18	-171	-3132	2124	16596	121	-70	329	127	126	5
-7876	-2464	13668	-91	198	-196	-16108	-868	-4120	103	-35	141	-3708	-2000	16516	164	-51	57	-8620	2896	14180	57	-70	-188	-14704	3692	-5896	0	26	-167	-3164	2172	16628	57	-64	341	127	126	5
-7856	-2412	13648	-101	176	-212	-16112	-880	-4088	72	-31	126	-3792	-1896	16608	152	-1	62	-8584	2852	14048	24	-42	-166	-14744	3684	-5896	-41	-43	-161	-3072	2200	16636	85	-121	309	127	127	5
-7844	-2368	13696	-94	173	-215	-16132	-872	-4040	48	-22	119	-3616	-1988	16540	196	-18	105	-8596	2872	14076	66	-19	-168	-14688	3744	-5948	-39	25	-131	-2956	2136	16748	90	-130	298	127	126	5
-7804	-2448	13748	-117	159	-186	-16024	-828	-3880	18	-1	124	-3636	-2040	16520	225	19	125	-8484	2828	14168	91	-122	-206	-14696	3764	-6036	-107	5	-100	-3036	2056	16592	121	-90	318	127	127	5
-7812	-2444	13704	-156	152	-183	-16184	-880	-4056	-4	7	71	-3588	-2040	16504	229	0	127	-8588	2752	14156	24	-168	-251	-14780	3672	-6040	-132	53	-70	-3080	2084	16560	133	-87	286	127	127	5
-7856	-2412	13708	-117	168	-224	-16124	-932	-4012	1	-6	43	-3720	-1968	16576	198	-26	155	-8612	2780	14208	48	-5	-173	-14740	3604	-6032	-66	54	-33	-3132	2100	16628	104	-83	283	127	127	5
-7808	-2420	13728	-124	152	-184	-16196	-944	-3972	8	39	81	-3700	-1980	16580	190	-44	166	-8572	2820	14008	144	69	-147	-14808	3672	-6044	34	37	-12	-3204	2116	16568	69	-106	229	127	127	5
-7880	-2368	13664	-83	174	-198	-16124	-988	-4100	46	29	88	-3780	-2012	16596	144	-26	142	-8568	2852	14172	162	19	-132	-14720	3708	-6040	95	51	-2	-3180	2160	16556	53	-124	203	127	127	5
-7812	-2420	13664	-105	198	-183	-16088	-932	-4104	35	23	75	-3932	-2084	16600	118	-8	121	-8596	2856	14152	122	8	-159	-14744	3792	-6200	55	24	62	-3192	2208	16564	57	-176	133	127	127	5
-7832	-2436	13632	-48	168	-181	-16148	-1060	-4180	114	-4	143	-3892	-2064	16520	100	-9	58	-8592	2760	14124	130	11	-214	-14788	3744	-6168	54	14	53	-3312	2292	16580	97	-166	111	127	127	5
-7900	-2468	13632	-30	199	-192	-16116	-1044	-4176	156	5	118	-4048	-2032	16516	81	-21	0	-8572	2860	14048	174	96	-194	-14720	3748	-6224	169	-7	70	-3272	2352	16544	30	-200	23	127	127	5
-7868	-2504	13728	44	231	-157	-16084	-1120	-4268	263	-133	172	-4024	-2120	16620	33	9	-67	-8632	2828	14096	175	19	-190	-14616	3832	-6108	135	-42	58	-3248	2400	16616	13	-230	16	127	127	5
-7904	-2388	13648	51	216	-184	-15964	-1048	-4196	313	-182	219	-3976	-2080	16456	43	1	-155	-8648	2808	14104	199	-31	-145	-14604	4032	-6164	59	-93	7	-3356	2424	16616	-17	-140	96	127	127	5
-7856	-2400	13656	93	207	-161	-16048	-940	-4180	348	-182	199	-3896	-2040	16488	69	8	-155	-8604	2836	14036	155	15	-160	-14700	4064	-6172	64	-44	-47	-3416	2464	16556	-17	-113	136	127	126	5
-7812	-2416	13700	83	195	-209	-16092	-876	-4276	271	-238	283	-3956	-2048	16564	104	-22	-140	-8680	2888	14120	97	-17	-180	-14644	3932	-6228	-33	-137	-130	-3272	2388	16528	49	-138	192	127	126	5
-7908	-2328	13736	82	172	-158	-16084	-844	-4092	229	-243	280	-3724	-2040	16668	126	-56	-139	-8560	2848	14100	119	-24	-172	-14628	3908	-6148	-40	-130	-153	-3284	2420	16672	47	-41	252	127	126	5
-7792	-2432	13700	11	196	-202	-16120	-852	-4084	237	-219	271	-3724	-1988	16596	125	-70	-128	-8624	2848	14084	115	2	-181	-14672	3800	-6164	-33	-214	-196	-3276	2392	16660	-91	-27	235	127	126	5
-7856	-2404	13776	32	184	-208	-16128	-840	-3848	271	-234	228	-3592	-1984	16612	166	-1	-117	-8560	2844	14208	76	-31	-178	-14764	3728	-6016	61	-199	-201	-3124	2360	16564	-240	-63	200	127	126	5
-7752	-2348	13620	5	150	-198	-16144	-816	-3968	273	-186	205	-3592	-1972	16716	124	7	-88	-8652	2856	14108	116	32	-161	-14824	3748	-6024	74	-227	-205	-3124	2168	16484	-245	-44	146	127	126	5
-7800	-2332	13740	11	203	-229	-16200	-796	-3840	226	-190	160	-3580	-1860	16600	98	-45	-105	-8608	2876	14024	150	-38	-138	-14720	3712	-5976	39	-234	-152	-3096	2084	16616	-339	-95	90	127	126	5
-7840	-2364	13636	-104	194	-170	-16164	-804	-4004	233	-153	195	-3532	-1864	16520	36	-4	-77	-8544	2972	14076	150	-67	-178	-14800	3636	-5968	24	-166	-88	-3012	2004	16504	-328	-78	56	127	126	5
-7796	-2400	13628	-82	158	-197	-16148	-788	-4016	214	-131	109	-3636	-1868	16616	42	-10	-80	-8572	2728	14052	164	-21	-198	-14740	3652	-5948	95	-179	-70	-3060	2020	16576	-264	-143	39	127	126	5
-7800	-2292	13764	-103	155	-239	-16208	-768	-3928	161	-117	68	-3656	-1864	16632	-33	-54	-45	-8628	2808	14108	139	7	-180	-14784	3616	-5932	98	-193	-41	-3052	1872	16712	-246	-129	24	127	126	5
-7756	-2300	13656	-110	157	-233	-16140	-736	-4068	148	-172	38	-3800	-1948	16648	-55	-48	-40	-8648	2732	14112	193	24	-177	-14708	3672	-6084	122	-105	15	-3140	1836	16564	-142	-134	30	127	126	5
-7904	-2396	13760	-107	200	-225	-16080	-836	-4088	146	-228	69	-3772	-1924	16600	-55	-41	14	-8556	2808	14164	204	11	-153	-14696	3636	-5948	128	-174	34	-3180	1920	16640	-50	-165	28	127	126	5
-7948	-2476	13624	-117	198	-222	-16132	-888	-4028	175	-166	35	-3756	-1956	16632	-79	-78	59	-8592	2804	14036	177	23	-123	-14856	3772	-6080	58	-139	30	-3336	2092	16596	1	-191	56	127	126	5
-7860	-2356	13672	-182	229	-240	-16144	-924	-4088	89	-239	22	-3804	-2060	16628	-69	-15	89	-8524	2884	14028	223	52	-103	-14804	3768	-6032	38	-199	35	-3480	2084	16504	91	-285	40	127	126	5
-7920	-2408	13692	-167	239	-268	-16152	-908	-3932	83	-217	-8	-3944	-2100	16588	-25	-22	112	-8700	2796	14076	191	100	-87	-14636	3828	-6120	-182	-215	13	-3372	2020	16488	162	-226	65	127	126	5
-7932	-2428	13672	-158	207	-268	-16172	-940	-4012	161	-283	23	-3776	-2164	16540	-43	-39	125	-8740	2880	14068	211	40	-22	-14640	3820	-6252	-229	-205	17	-3352	2060	16684	153	-194	96	127	126	5
-7864	-2492	13628	-131	212	-225	-16140	-1048	-3928	159	-251	40	-3760	-2396	16532	8	20	107	-8584	2860	14036	258	38	-90	-14688	3780	-6072	-118	-267	-7	-3340	2088	16652	172	-192	157	127	126	5
-7948	-2416	13644	-73	172	-238	-16100	-1076	-3936	201	-285	103	-3788	-2372	16400	2	23	52	-8616	2828	14004	256	7	-48	-14744	3784	-6144	-5	-311	8	-3276	2228	16528	151	-219	139	127	126	5
-7712	-2356	13632	-61	224	-235	-16160	-1080	-3964	228	-306	134	-3756	-2456	16636	91	8	18	-8644	2768	14020	263	3	-66	-14708	3780	-6112	16	-343	60	-3308	2240	16500	70	-216	90	127	126	5
-7768	-2396	13576	-34	225	-166	-16144	-1084	-3696	179	-275	150	-3708	-2356	16584	193	7	1	-8748	2956	14140	236	29	-64	-14720	3904	-5920	5	-357	3	-3196	2196	16712	31	-202	84	127	127	5
-7908	-2428	13792	36	223	-200	-16192	-1068	-3824	208	-217	244	-3740	-2380	16560	148	51	-12	-8680	3000	14196	214	5	-64	-14704	3880	-5880	-64	-362	26	-3116	2272	16524	25	-217	78	127	126	5
-7888	-2416	13644	15	199	-189	-16188	-1044	-3780	219	-199	246	-3568	-2308	16412	154	-23	-126	-8556	2876	14000	281	-11	-77	-14672	3872	-5848	-78	-323	18	-2960	2148	16612	-88	-303	69	127	127	5
-7916	-2420	13592	22	158	-138	-16104	-884	-3852	185	-183	260	-3540	-2380	16360	355	217	-126	-8640	2848	13916	213	-46	-91	-14748	3840	-5708	-107	-324	-26	-2944	2076	16580	-68	-186	68	127	126	5
-7868	-2336	13632	16	178	-118	-16136	-984	-3828	215	-140	287	-3488	-2392	16564	319	170	-138	-8648	3028	14028	215	-42	-95	-14772	3792	-5816	-85	-277	26	-2860	2008	16620	94	-195	121	127	127	5
-7844	-2348	13744	14	173	-123	-16184	-924	-3636	159	-65	296	-3480	-2284	16516	252	-70	-100	-8600	2920	13960	228	-60	-43	-14788	3732	-5680	-76	-217	61	-2772	2064	16512	4	-200	113	127	127	5
-7820	-2304	13680	51	155	-172	-16136	-924	-3748	160	-31	308	-3480	-2208	16520	304	49	-87	-8608	3004	13968	235	-83	-112	-14864	3768	-5720	10	-218	62	-2876	2088	16596	20	-127	71	127	127	5
-7836	-2356	13652	74	121	-130	-16200	-888	-3612	169	40	284	-3556	-2164	16584	292	-41	-66	-8660	2904	13976	239	-21	-111	-14816	3728	-5720	69	-183	115	-2812	2084	16516	76	-159	14	127	127	5
-7916	-2324	13792	64	147	-146	-16180	-892	-3744	207	66	234	-3568	-2104	16504	300	-46	-20	-8652	2880	14024	261	-40	-79	-14760	3688	-5836	104	-121	96	-2740	2020	16580	26	-149	33	127	127	5
-7868	-2376	13628	74	106	-146	-16108	-764	-3908	142	66	260	-3600	-2052	16512	237	-77	-23	-8604	2944	13992	229	-36	-116	-14836	3844	-5784	36	-117	123	-2972	2044	16596	31	-96	33	127	127	5
-7888	-2252	13620	40	136	-124	-16088	-776	-4028	97	78	260	-3648	-1940	16636	320	81	43	-8608	3052	14064	200	-50	-100	-14832	3848	-5744	6	-47	118	-3096	2072	16576	103	-143	73	127	127	5
-7848	-2364	13600	58	171	-175	-16216	-812	-3912	8	41	232	-3848	-1948	16568	359	86	33	-8668	3036	14020	227	-29	-159	-14820	3856	-5800	29	-46	115	-3104	2168	16536	103	-112	77	127	126	5
-7880	-2308	13836	-17	199	-130	-16148	-756	-4052	43	22	190	-3744	-1884	16532	337	113	51	-8644	2884	14072	227	17	-188	-14700	3864	-5836	55	-64	160	-3088	2172	16616	79	-166	71	127	126	5
-7856	-2240	13532	-35	165	-177	-16208	-784	-4004	57	43	167	-3824	-1828	16536	257	13	109	-8712	2908	13996	216	16	-120	-14800	3816	-5904	147	-50	121	-3176	2248	16576	5	-154	87	127	126	5
-7788	-2232	13696	-57	168	-158	-16184	-720	-4060	48	11	162	-3848	-1808	16620	233	142	133	-8656	2960	14028	210	26	-124	-14720	3884	-5816	142	-55	90	-3264	2200	16496	40	-177	103	127	126	5
-7884	-2340	13716	-98	178	-194	-16320	-644	-3916	14	-14	106	-3976	-1720	16612	229	21	161	-8688	3072	14084	150	47	-116	-14792	4016	-5796	-1	-39	77	-3312	2228	16520	54	-177	153	127	126	5
-7844	-2356	13696	-133	175	-163	-16312	-716	-3996	-105	-58	53	-3928	-1788	16608	165	-24	257	-8684	3036	13992	140	-1	-148	-14820	4004	-5856	-69	-54	63	-3432	2128	16524	95	-153	193	127	127	5
-7888	-2248	13668	-181	159	-158	-16100	-712	-4048	-135	-68	-5	-3628	-1808	16572	148	-38	301	-8664	2956	13960	115	47	-189	-14704	3900	-5936	-52	-119	39	-3220	2124	16496	178	-139	202	127	126	5
-7920	-2252	13680	-226	175	-202	-16092	-708	-3936	-169	-81	-39	-3556	-1864	16612	141	-19	325	-8752	2804	14040	152	-11	-174	-14676	3704	-6056	28	-103	59	-3264	2028	16624	125	-137	236	127	126	5
-7904	-2200	13616	-252	128	-239	-16020	-764	-3920	-237	-83	-60	-3428	-1988	16520	113	-8	421	-8660	2932	14012	216	-43	-109	-14668	3744	-5860	140	-89	24	-2976	1956	16584	205	-123	192	126	126	5
-7856	-2424	13704	-335	170	-278	-16044	-1008	-3888	-218	-5	-52	-3476	-2156	16484	108	40	363	-8680	2920	14092	252	-68	-29	-14608	3668	-5848	204	-183	96	-2644	1904	16636	284	-138	152	126	126	5
-7900	-2412	13616	-286	129	-283	-16040	-1052	-3664	-49	15	-84	-3344	-2192	16548	58	41	272	-8676	2896	13980	334	-159	-66	-14700	3688	-5620	206	-63	133	-2664	2004	16648	195	-104	137	127	126	5
-7900	-2424	13520	-198	104	-271	-16096	-924	-3660	38	91	-74	-3308	-2196	16548	58	145	243	-8652	3044	13928	334	-220	-46	-14776	3724	-5444	180	-19	185	-2476	1992	16604	227	-90	96	126	126	5
-7808	-2284	13616	-229	85	-257	-16212	-860	-3608	-6	153	-67	-3256	-2148	16584	104	178	174	-8604	3092	14060	297	-197	-91	-14896	3740	-5320	188	103	253	-2484	2148	16612	227	-46	55	127	126	5
-7812	-2452	13716	-219	61	-221	-16192	-804	-3632	-37	203	-83	-3224	-2224	16468	69	133	254	-8492	3040	13952	281	-160	-129	-14920	3864	-5460	148	203	276	-2540	2240	16584	258	-54	-22	127	127	5
-7768	-2460	13684	-224	121	-229	-16248	-832	-3576	-183	395	-144	-3308	-2244	16436	14	83	273	-8612	3104	14084	220	-103	-184	-14900	3964	-5468	74	329	292	-2688	2348	16492	201	-74	-27	127	127	5
-7756	-2308	13720	-218	88	-199	-16296	-944	-3688	-232	498	-113	-3408	-2320	16380	6	38	344	-8528	3124	14032	195	-4	-245	-14864	3996	-5568	80	392	223	-2728	2464	16516	231	-36	-29	127	127	5
-7828	-2480	13680	-152	127	-149	-16124	-1008	-3772	-177	545	-130	-3572	-2216	16412	48	7	358	-8536	3088	13964	133	5	-242	-14712	4092	-5748	69	423	257	-3152	2396	16548	219	-1	50	127	127	5
-7572	-2572	13696	-177	82	-165	-16040	-988	-3776	-63	584	-95	-3928	-2288	16420	76	9	330	-8552	3096	13940	98	34	-232	-14656	4076	-5980	-9	446	245	-3320	2464	16568	282	54	113	127	127	5
-7748	-2512	13696	-100	105	-220	-16108	-1200	-4188	93	570	-63	-4140	-2372	16528	195	-30	329	-8888	3152	14180	28	19	-257	-14716	4192	-6260	-14	409	144	-3568	2580	16636	168	20	157	127	127	5
-8116	-2456	13900	-119	134	-174	-16072	-1112	-4296	171	522	48	-4324	-2240	16640	274	129	261	-8936	3020	14124	57	-33	-265	-14600	4244	-6300	64	317	47	-3808	2652	16508	99	-16	192	127	127	5
-8116	-2440	13788	-121	95	-164	-16304	-1516	-4464	411	-52	208	-4452	-2236	16440	383	112	159	-8832	3104	14000	36	11	-222	-14656	4268	-6196	78	228	-21	-3884	2580	16568	38	-21	245	127	126	5
-8084	-2396	13652	-69	80	-193	-16048	-1056	-4408	71	232	169	-4464	-2116	16516	364	42	60	-8744	3104	14032	41	17	-157	-14584	4228	-6352	-48	166	-106	-3796	2464	16572	8	-160	298	127	126	5
-7760	-2316	13716	-17	64	-168	-15984	-1108	-4552	26	138	214	-4372	-1956	16460	452	-7	19	-8664	2996	13932	43	-36	-206	-14564	4104	-6272	-169	55	-132	-3752	2220	16572	63	-244	354	127	126	5
-7932	-2360	13720	-3	134	-187	-15964	-1104	-4428	-17	33	251	-4260	-1928	16604	319	26	-50	-8736	2992	13944	16	-162	-181	-14520	3956	-6340	-113	-50	-174	-3484	2160	16460	228	-187	345	127	127	5
-7860	-2328	13604	2	103	-179	-16000	-1016	-4396	129	-58	254	-4112	-1864	16504	213	-48	-81	-8648	2936	14044	67	-181	-124	-14664	3844	-6164	-38	-156	-162	-3392	1996	16608	297	-214	338	127	127	5
-7896	-2328	13588	-26	130	-182	-16080	-892	-4392	186	-127	242	-3980	-1888	16436	200	-68	-61	-8624	2900	14060	136	-197	-126	-14736	3696	-6012	-1	-204	-143	-3204	2044	16652	216	-200	316	127	127	5
-7796	-2204	13600	-89	177	-241	-16164	-732	-4208	137	-173	269	-3764	-1800	16468	199	-38	-21	-8588	3004	14012	130	-205	-89	-14808	3680	-5976	19	-158	-49	-2992	1920	16620	227	-190	281	127	127	5
-7836	-2356	13636	-120	113	-254	-16168	-712	-3996	85	-197	186	-3588	-1812	16480	163	-111	67	-8576	2988	14048	203	-102	-75	-14832	3756	-5872	35	-139	8	-2880	1956	16544	260	-224	271	127	127	5
-7800	-2360	13680	-174	169	-244	-16172	-656	-3908	49	-187	135	-3576	-1872	16564	139	-65	137	-8520	3024	14104	181	-46	-108	-14812	3784	-5640	-22	-56	60	-2760	2000	16556	305	-211	252	127	127	5
-7804	-2320	13736	-183	170	-238	-16104	-680	-3852	-51	-96	16	-3496	-1836	16480	94	-13	231	-8584	2992	14008	218	-22	-133	-14824	3752	-5712	-6	-16	121	-2736	2084	16624	335	-178	219	127	127	5
-7812	-2404	13680	-280	158	-286	-16180	-764	-3904	-83	-56	-26	-3468	-1940	16572	127	-23	299	-8624	3044	13964	238	-22	-146	-14792	3800	-5712	43	22	159	-2784	2188	16620	278	-187	230	127	127	5
-7812	-2308	13644	-312	181	-279	-16180	-812	-3892	-147	-43	-38	-3408	-2080	16604	256	34	338	-8608	2984	14032	207	-61	-154	-14756	3884	-5860	72	37	190	-2984	2264	16580	322	-106	221	127	127	5
-7780	-2408	13656	-290	156	-244	-16148	-968	-3864	-120	35	-77	-3544	-2116	16500	205	55	304	-8628	3068	14076	169	-2	-118	-14724	4004	-5860	90	87	194	-3068	2376	16508	395	-78	197	127	127	5
-7860	-2508	13616	-247	138	-215	-16132	-1044	-3988	-57	66	-69	-3740	-2228	16596	205	50	298	-8724	3180	14212	149	-67	-160	-14628	4152	-5988	8	133	183	-3144	2556	16548	346	-144	159	127	127	5
-7816	-2484	13712	-208	169	-223	-16056	-1140	-3964	-2	44	-49	-3872	-2252	16456	209	99	224	-8528	3020	13816	162	-109	-197	-14704	4108	-6112	-36	98	164	-3316	2740	16584	340	-107	174	127	127	5
-7952	-2420	13708	-176	171	-199	-16088	-1208	-4048	5	79	28	-3936	-2332	16400	171	41	166	-8560	2948	13980	162	-149	-123	-14716	4152	-6064	18	58	129	-3376	2692	16584	239	-63	127	127	127	5
-7852	-2464	13608	-95	116	-195	-16080	-1164	-3988	3	62	85	-4000	-2316	16400	174	28	78	-8596	3100	14100	167	-52	-164	-14624	4152	-6176	48	9	84	-3332	2708	16564	114	-99	109	127	127	5
-7892	-2484	13616	-112	158	-175	-16124	-1124	-3972	46	66	139	-4004	-2300	16452	187	-46	-10	-8652	2984	14112	167	-53	-142	-14636	4176	-6108	63	-36	17	-3392	2712	16620	23	-101	116	127	127	5
-7868	-2432	13716	-50	117	-198	-16068	-1140	-4012	114	4	189	-3904	-2188	16600	175	-49	-23	-8644	3004	14088	184	-94	-135	-14640	4236	-6188	54	-56	-38	-3296	2640	16664	-31	-141	147	127	127	5
-7816	-2376	13744	11	131	-167	-16120	-1012	-4092	175	-2	223	-3812	-2060	16392	171	-61	-54	-8616	3044	13984	103	-77	-152	-14720	4188	-6060	13	-79	-99	-3184	2536	16604	6	-122	190	127	127	5
-7872	-2424	13644	-16	133	-187	-16144	-928	-4120	174	2	194	-3796	-2020	16440	186	-123	-58	-8616	3052	14096	95	-73	-161	-14604	4116	-5868	-31	-100	-114	-3140	2408	16600	23	-101	229	127	127	5
-7856	-2456	13716	-11	108	-158	-16084	-900	-4076	105	20	237	-3764	-1952	16516	202	-69	-16	-8648	3084	14000	103	-95	-134	-14732	4008	-5924	-39	-40	-94	-3120	2336	16604	36	-58	230	127	127	5
-7868	-2452	13776	-61	110	-180	-16148	-836	-4152	82	-9	195	-3708	-1924	16508	182	-49	16	-8568	3032	14020	92	-104	-164	-14768	3952	-5824	-13	-83	-125	-3088	2280	16592	-19	-103	229	127	127	5
-7832	-2396	13760	-53	137	-186	-16120	-832	-4024	84	-8	188	-3716	-1956	16684	226	-16	74	-8572	2996	13956	91	-108	-154	-14728	3900	-5980	21	-57	-39	-3076	2264	16512	48	-95	219	127	127	5
-7784	-2416	13688	-142	135	-198	-16144	-792	-4132	41	26	128	-3764	-1988	16524	262	9	75	-8628	3084	14084	110	-43	-143	-14748	3920	-5844	-9	-61	-60	-3080	2188	16612	38	-101	204	127	127	5
-7864	-2396	13644	-101	155	-222	-16080	-884	-4132	28	10	129	-3796	-1956	16488	260	20	121	-8676	3064	13968	72	-82	-188	-14732	3912	-5824	-40	-62	-11	-3064	2204	16504	99	-144	217	127	127	5
-7848	-2392	13712	-150	127	-207	-16132	-916	-3984	17	-16	127	-3716	-1960	16572	310	32	137	-8580	2988	14088	128	-57	-176	-14716	3964	-5964	-71	-47	-9	-3112	2180	16656	79	-127	216	127	127	5
-7796	-2380	13672	-108	146	-220	-16128	-884	-4164	-37	19	68	-3724	-2008	16556	275	54	185	-8612	2988	14060	179	-94	-145	-14764	3876	-6004	7	-33	28	-3112	2228	16592	101	-159	209	127	127	5
-7788	-2420	13696	-143	142	-201	-16172	-948	-3960	-7	-12	101	-3744	-2072	16524	212	16	159	-8524	2940	14036	155	-55	-159	-14772	3964	-5956	38	-19	52	-3100	2224	16608	98	-174	176	127	127	5
-7896	-2468	13656	-136	161	-194	-16084	-916	-4040	-22	25	57	-3752	-2084	16476	182	10	199	-8556	3012	14060	169	-33	-139	-14668	3936	-5928	91	-28	125	-3180	2276	16620	98	-180	170	127	127	5
-7868	-2436	13740	-143	149	-214	-16064	-936	-4052	-17	-14	100	-3760	-2100	16404	210	50	156	-8556	3052	13952	188	-72	-124	-14652	3964	-5904	59	14	114	-3148	2300	16572	105	-162	167	127	127	5
-7924	-2428	13576	-104	123	-226	-16084	-1120	-3996	17	38	134	-3836	-2200	16460	286	39	163	-8528	2832	13996	179	-55	-149	-14612	4116	-5896	20	-28	97	-3184	2276	16588	188	-175	157	127	127	5
-7848	-2588	13680	-66	173	-236	-16100	-976	-4076	55	26	112	-3808	-2136	16416	272	-46	150	-8644	3012	14032	202	-127	-179	-14660	4040	-5984	-1	-58	103	-3212	2372	16560	220	-124	183	127	127	5
-7932	-2508	13648	-121	127	-225	-16124	-1008	-4064	13	32	127	-3876	-2040	16504	284	-10	139	-8628	2988	13936	160	2	-146	-14684	4008	-6084	27	-40	119	-3224	2392	16532	189	-145	128	127	127	5
-7832	-2492	13772	-67	112	-187	-16116	-1016	-4076	22	3	166	-3928	-2032	16540	247	-17	109	-8572	3032	14108	160	-37	-154	-14664	3956	-6008	23	-53	152	-3148	2344	16620	186	-153	151	127	127	5
-7816	-2428	13688	-30	151	-200	-16128	-1088	-4036	63	4	189	-3868	-1992	16528	246	-22	69	-8620	3104	13976	178	6	-147	-14612	3940	-5896	68	-65	171	-3184	2372	16552	187	-143	126	127	127	5
-7868	-2372	13600	-41	141	-161	-16064	-988	-4064	75	-12	196	-3892	-2076	16472	304	0	74	-8608	3028	14120	193	-65	-88	-14632	3988	-6172	7	-66	189	-3164	2368	16628	217	-232	78	127	127	5
-7896	-2416	13708	-77	111	-198	-16116	-964	-4068	114	-17	207	-3856	-1996	16644	273	43	37	-8520	3072	14052	217	1	-80	-14672	3968	-5964	24	-84	158	-3136	2428	16612	207	-170	60	127	127	5
-7820	-2392	13664	-14	117	-203	-16084	-852	-4100	85	-19	235	-3776	-1892	16440	262	2	33	-8504	3056	14128	200	-28	-72	-14688	4052	-6028	20	-116	197	-3148	2468	16588	192	-168	74	127	127	5
-7884	-2444	13648	-48	121	-149	-16108	-864	-3984	71	-18	195	-3812	-1892	16440	307	3	33	-8548	3060	14024	245	-16	-94	-14744	4108	-6108	-30	-114	205	-3092	2448	16668	214	-169	75	127	127	5
-7880	-2448	13652	-97	103	-190	-16084	-900	-4024	100	-12	170	-3676	-1848	16600	237	-6	34	-8668	3144	13992	260	-83	-60	-14720	4004	-5960	-25	-95	186	-3044	2444	16576	180	-222	58	127	127	5
-7836	-2336	13680	-77	115	-186	-16108	-836	-4132	92	-38	183	-3696	-2024	16528	226	-25	43	-8568	3080	13924	206	-81	-93	-14672	4180	-5876	5	-83	159	-2988	2540	16604	216	-198	70	127	127	5
-7788	-2384	13736	-59	144	-190	-16136	-864	-4040	91	-67	132	-3728	-1996	16500	203	-44	59	-8704	3092	13976	202	-71	-144	-14676	4200	-5964	21	-70	183	-3064	2572	16524	188	-161	62	127	127	5
-7844	-2424	13660	-76	114	-169	-16160	-892	-4036	67	-4	152	-3724	-2032	16492	256	28	69	-8572	3100	14048	176	-8	-144	-14664	4172	-5756	46	-18	135	-2980	2608	16540	222	-145	91	127	127	5
-7856	-2476	13728	-76	143	-167	-16072	-868	-4084	75	13	157	-3764	-2084	16544	255	-16	70	-8624	3012	14156	160	-103	-126	-14588	4240	-5936	-24	23	112	-3076	2712	16524	138	-126	103	127	127	5
-7832	-2388	13712	-58	177	-177	-16068	-920	-4160	106	46	143	-3732	-2000	16528	231	18	87	-8716	3148	14148	121	-131	-101	-14692	4272	-5836	41	-28	106	-3120	2720	16580	171	-147	119	127	127	5
-7784	-2328	13652	-33	126	-220	-16064	-892	-4088	62	39	148	-3848	-2020	16480	215	-15	41	-8600	3000	14080	3	-152	-236	-14592	4348	-5928	-20	-36	89	-3164	2752	16504	112	-90	136	127	127	5
-7808	-2380	13632	-53	151	-186	-16056	-960	-4164	62	44	144	-3884	-1992	16428	227	-16	44	-8592	3120	14048	-1	-116	-246	-14656	4324	-5904	-47	-57	28	-3204	2736	16612	93	-88	151	127	127	5
-7848	-2456	13672	-60	134	-158	-16032	-928	-4008	81	18	162	-3768	-1968	16556	228	-39	19	-8576	2952	14020	76	-110	-219	-14680	4236	-5952	-83	-53	-20	-3196	2672	16496	87	-109	160	127	127	5
-7788	-2436	13604	-40	156	-188	-16064	-964	-4072	75	2	161	-3876	-1960	16536	200	-43	15	-8592	2976	14056	81	-71	-170	-14680	4228	-5928	66	-17	-31	-3172	2552	16604	10	-118	201	127	127	5
-7852	-2356	13736	-60	147	-187	-16072	-936	-4080	92	-2	151	-3892	-1784	16556	187	-56	28	-8588	3100	14044	69	-75	-172	-14660	4224	-6028	2	-30	-62	-3164	2604	16536	-4	-124	219	127	127	5
-7792	-2356	13624	-65	166	-179	-16060	-820	-4136	77	-28	133	-3840	-1860	16624	208	-34	66	-8664	3156	14084	35	-92	-201	-14672	4200	-5940	10	-42	-58	-3120	2476	16516	-2	-121	199	127	127	5
-7888	-2324	13744	-99	158	-184	-16084	-904	-4036	44	-54	125	-3824	-1828	16552	171	-32	56	-8620	3016	14004	51	-114	-202	-14712	4040	-5968	-65	-11	-59	-3052	2484	16588	4	-99	226	127	127	5
-7856	-2384	13804	-117	180	-218	-16056	-856	-4100	73	-32	98	-3788	-1872	16600	188	-72	69	-8612	2976	14108	76	-92	-202	-14744	4044	-5952	-21	-40	-29	-3000	2452	16492	5	-88	205	127	127	5
-7812	-2364	13632	-117	150	-203	-16088	-856	-4080	60	-41	111	-3764	-1840	16664	173	19	83	-8576	3088	14080	82	-51	-155	-14736	4088	-6000	17	-48	-32	-3040	2412	16568	-22	-143	181	127	127	5
-7840	-2376	13600	-110	195	-236	-16088	-908	-3956	16	-72	90	-3768	-1912	16692	137	-69	76	-8560	3100	14084	123	-49	-165	-14712	4056	-5992	27	-49	-30	-3000	2420	16564	-55	-131	179	127	127	5
-7832	-2516	13808	-181	184	-216	-16100	-904	-4128	15	-23	90	-3740	-1964	16612	116	-86	124	-8544	3092	13936	126	-51	-173	-14648	4120	-6024	49	-17	-16	-3152	2372	16576	-27	-143	156	127	127	5
-7876	-2408	13688	-168	172	-219	-16116	-864	-4076	32	-31	24	-3728	-1956	16460	75	-44	104	-8540	3068	14068	125	-42	-174	-14640	4104	-5916	54	-10	-33	-3084	2452	16480	-16	-150	146	127	127	5
-7764	-2368	13664	-176	150	-203	-16100	-964	-4016	35	-32	74	-3784	-2020	16572	106	-73	97	-8588	3068	14080	114	-65	-191	-14612	4184	-5984	2	-34	-21	-3056	2508	16588	5	-117	147	127	127	5
-7856	-2392	13648	-170	169	-193	-16080	-968	-4020	53	-19	72	-3824	-2028	16608	130	-28	101	-8560	3036	14004	108	-52	-189	-14688	4120	-5916	36	-40	-27	-3148	2468	16576	21	-129	167	127	127	5
-7892	-2448	13660	-150	170	-198	-16116	-1008	-4104	33	12	104	-3832	-2108	16504	109	-3	76	-8520	3040	14032	134	-81	-160	-14636	4140	-5892	6	-19	-57	-3100	2532	16588	-21	-184	159	127	127	5
-7892	-2432	13684	-114	146	-173	-16032	-976	-4100	76	-29	113	-3756	-2120	16624	147	20	45	-8580	3052	14016	119	-80	-178	-14644	4208	-5988	44	-38	-13	-3140	2532	16508	18	-164	178	127	127	5
-7840	-2400	13640	-73	180	-205	-16092	-976	-4120	95	8	110	-3820	-2108	16496	152	-14	60	-8564	3076	14088	111	-66	-170	-14676	4136	-5776	-2	-55	-18	-3112	2476	16620	16	-155	179	127	127	5
-7880	-2360	13704	-58	185	-209	-16124	-1032	-4188	88	-26	136	-3804	-2112	16520	169	-28	54	-8536	3096	14008	103	-58	-209	-14592	4188	-6120	-8	-11	-79	-3124	2456	16584	12	-114	221	127	127	5
-7808	-2464	13660	-76	143	-217	-16048	-964	-4068	69	-15	157	-3796	-2004	16580	150	-49	36	-8688	3092	13936	89	-63	-144	-14628	4216	-6048	-18	-54	-59	-3180	2492	16512	56	-101	208	127	127	5
-7848	-2448	13664	-58	172	-190	-16056	-968	-4220	105	-14	137	-3892	-2064	16400	209	-28	25	-8620	2988	14040	86	-72	-157	-14588	4128	-5992	-21	-84	-72	-3164	2452	16516	66	-148	214	127	127	5
-7836	-2412	13648	-26	164	-191	-16104	-1004	-4152	121	31	150	-3832	-1944	16648	189	-52	30	-8572	3096	13980	129	-103	-152	-14692	4112	-5972	2	-37	-87	-3160	2460	16592	97	-133	212	127	127	5
-7828	-2332	13660	-45	181	-166	-16108	-888	-4232	94	-34	185	-3776	-1860	16440	159	-40	60	-8540	3004	14032	128	-61	-138	-14696	4100	-5880	28	-48	-41	-3148	2412	16708	64	-116	197	127	127	5
-7868	-2452	13752	-70	151	-207	-16064	-808	-4164	116	-36	171	-3804	-1880	16596	80	-67	-5	-8580	3004	14120	148	-66	-153	-14672	4104	-5876	7	-74	-82	-3072	2412	16516	99	-128	170	127	127	5
-7884	-2340	13700	-85	160	-200	-16084	-864	-4100	100	-43	140	-3804	-1860	16424	124	-73	47	-8576	3008	14120	142	-98	-177	-14708	4132	-6004	-19	-62	-26	-3080	2392	16476	70	-95	155	127	127	5
-7796	-2404	13752	-95	136	-208	-16072	-892	-3996	78	-26	129	-3728	-1952	16500	192	-9	42	-8524	3084	14000	159	-52	-147	-14664	4156	-5924	-6	-100	12	-3104	2400	16560	115	-143	152	127	127	5
-7804	-2436	13668	-106	144	-218	-16176	-888	-4008	53	-25	83	-3764	-1888	16620	190	19	80	-8588	3072	13980	155	-104	-152	-14676	4156	-5932	1	-71	-6	-3124	2388	16592	89	-129	143	127	127	5
-7808	-2368	13688	-113	173	-200	-16144	-828	-4028	65	-10	109	-3724	-1956	16524	126	-39	66	-8560	3088	14040	188	-34	-138	-14700	4132	-5920	38	-62	18	-3092	2496	16508	102	-111	123	127	127	5
-7904	-2416	13708	-128	154	-197	-16100	-904	-3980	59	-20	88	-3800	-1968	16620	149	-28	73	-8560	3064	14000	161	-100	-162	-14672	4148	-5872	13	-95	-1	-3176	2488	16548	65	-137	133	127	127	5
-7832	-2384	13636	-130	143	-175	-16088	-948	-4124	60	-47	76	-3780	-1964	16476	140	-35	69	-8576	3032	14036	165	-59	-154	-14648	4208	-5992	44	-91	35	-3044	2572	16508	45	-153	131	127	127	5
-7844	-2428	13756	-130	166	-181	-16152	-944	-4008	62	18	74	-3796	-1972	16576	167	7	90	-8544	3108	14092	189	-45	-142	-14664	4212	-5984	34	-98	15	-3148	2508	16584	25	-135	127	127	127	5
-7888	-2360	13692	-143	92	-208	-16128	-1020	-4104	22	-22	73	-3868	-1956	16632	145	-24	65	-8576	3144	13964	150	-72	-141	-14628	4284	-6004	16	-24	-22	-3172	2560	16628	45	-184	117	127	127	5
-7852	-2432	13768	-142	167	-206	-16044	-984	-4220	87	-67	104	-3824	-1888	16584	109	-28	66	-8660	2984	14112	130	-83	-180	-14680	4240	-6072	-63	-57	-24	-3168	2640	16580	93	-155	171	127	127	5
-7864	-2428	13860	-102	159	-185	-16108	-1008	-4172	106	-72	138	-3816	-2048	16516	122	-59	48	-8540	3120	14008	120	-30	-180	-14648	4264	-5988	-37	-36	-48	-3128	2588	16544	39	-133	161	127	127	5
-7788	-2396	13712	-121	124	-237	-16140	-932	-4064	72	-81	141	-3808	-2080	16444	152	-12	53	-8580	3016	14044	134	-68	-118	-14624	4336	-5984	-102	-74	-36	-3116	2580	16448	41	-103	199	127	127	5
-7812	-2428	13736	-110	153	-237	-16088	-880	-4096	108	-49	129	-3752	-2044	16548	176	-70	65	-8568	3056	13996	126	-107	-155	-14676	4204	-5932	-21	-69	-61	-3120	2552	16488	-5	-134	212	127	127	5
-7888	-2372	13656	-66	152	-209	-16068	-884	-3964	71	-59	122	-3692	-1952	16612	185	4	73	-8532	3168	14072	92	-73	-161	-14656	4240	-5828	22	-55	-56	-3008	2556	16632	-3	-76	230	127	127	5
-7880	-2420	13640	-86	177	-188	-16100	-972	-4092	78	-57	106	-3736	-1980	16556	174	19	77	-8536	3024	14076	92	-66	-141	-14656	4184	-5920	15	-33	-90	-3092	2588	16628	-11	-136	235	127	127	5
-7904	-2380	13652	-114	183	-205	-16140	-952	-4160	83	-57	123	-3700	-2008	16624	197	-24	68	-8568	3084	13996	81	-42	-192	-14628	4172	-5884	-11	-6	-84	-3076	2528	16640	-28	-112	210	127	127	5
-7876	-2436	13600	-75	159	-184	-16092	-932	-4116	58	-19	128	-3692	-1960	16604	143	-35	69	-8576	3112	14060	80	-84	-181	-14608	4108	-5996	-4	-34	-101	-3068	2512	16556	-20	-98	190	127	127	5
-7752	-2460	13820	-102	151	-209	-16136	-948	-3968	79	-44	108	-3784	-2008	16520	155	10	70	-8604	3064	14016	119	-140	-154	-14628	4172	-5932	-21	-39	-56	-3100	2432	16544	-15	-106	200	127	127	5
-7788	-2356	13632	-96	168	-210	-16092	-908	-4124	70	-37	66	-3736	-2008	16496	129	30	77	-8548	3100	14060	96	-76	-183	-14668	4132	-5964	-16	-11	-64	-3116	2416	16612	-58	-131	217	127	127	5
-7836	-2388	13680	-114	168	-204	-16060	-876	-4076	34	-48	83	-3724	-1988	16528	167	-13	64	-8528	2984	14048	115	-40	-166	-14712	4076	-5912	59	-40	-51	-3100	2340	16560	-40	-124	183	127	127	5
-7848	-2412	13644	-107	164	-197	-16064	-936	-4120	44	-7	80	-3792	-2024	16512	139	25	85	-8564	3004	14076	103	-70	-148	-14668	4168	-5900	56	12	-67	-3124	2372	16516	-33	-121	168	127	127	5
-7832	-2328	13624	-124	166	-234	-16092	-1020	-4124	56	-7	99	-3796	-2028	16528	186	-10	65	-8564	3024	14024	106	-28	-201	-14656	4128	-5960	4	-37	-21	-3120	2372	16480	-17	-132	181	127	127	5
-7764	-2364	13624	-86	166	-191	-16056	-964	-4028	53	-48	79	-3868	-2084	16600	197	29	75	-8560	3020	14060	120	18	-131	-14660	4096	-5972	17	-66	3	-3192	2392	16596	20	-142	167	127	127	5
-7868	-2384	13756	-143	175	-230	-16092	-988	-4056	76	-36	116	-3780	-2068	16600	164	40	81	-8524	3036	14032	151	-58	-132	-14736	4208	-6016	7	-62	-26	-3160	2408	16596	47	-124	158	127	127	5
-7828	-2416	13720	-68	123	-203	-16120	-928	-4032	86	-7	94	-3760	-2100	16572	225	1	80	-8604	3052	14056	125	-91	-180	-14680	4120	-5920	-2	-93	-37	-3128	2408	16564	46	-162	191	127	127	5
-7828	-2472	13724	-92	155	-184	-16152	-984	-4008	70	-45	134	-3800	-2052	16452	144	-113	34	-8580	3020	14064	176	-21	-151	-14648	4168	-5944	20	-60	19	-3096	2416	16536	101	-127	173	127	127	5
-7840	-2416	13728	-72	180	-205	-16040	-912	-3992	76	-20	134	-3764	-2112	16536	162	-39	54	-8548	3040	14156	189	-50	-121	-14712	4136	-6000	19	-63	14	-3112	2404	16452	80	-146	160	127	127	5
-7872	-2404	13628	-86	117	-183	-16132	-956	-4124	73	-24	144	-3756	-2088	16464	233	47	29	-8552	3088	14016	185	-81	-154	-14632	4100	-6004	3	-74	29	-3056	2368	16656	70	-176	157	127	127	5
-7772	-2472	13700	-81	119	-170	-16096	-944	-4120	99	-51	183	-3656	-2072	16572	245	39	69	-8580	3072	14048	188	-34	-137	-14648	4104	-5984	63	-74	45	-3044	2484	16540	80	-155	139	127	127	5
-7760	-2456	13600	-77	152	-199	-16160	-940	-4076	92	5	176	-3708	-2012	16532	254	17	46	-8568	3076	14116	195	-97	-120	-14660	4196	-5888	72	-62	47	-3008	2476	16588	93	-128	173	127	127	5
-7808	-2440	13684	-56	137	-137	-16076	-924	-4072	79	3	160	-3700	-2024	16464	254	20	57	-8552	3136	14060	221	-99	-116	-14644	4252	-5944	6	-53	49	-3040	2436	16628	83	-127	167	127	127	5
-7872	-2364	13748	-93	136	-188	-16080	-892	-3952	100	3	138	-3780	-1908	16604	214	-7	66	-8552	3100	14068	162	-46	-154	-14728	4164	-5856	-13	-50	57	-3064	2512	16420	78	-157	156	127	127	5
-7856	-2420	13752	-98	123	-187	-16056	-856	-4184	57	-16	159	-3768	-1912	16508	220	-11	72	-8544	3072	14100	177	-7	-153	-14620	4196	-5880	18	-36	18	-3132	2592	16564	81	-158	163	127	127	5
-7864	-2312	13732	-90	134	-175	-16056	-992	-4020	48	8	134	-3832	-1932	16596	227	29	79	-8568	3100	14072	124	-43	-125	-14652	4220	-5944	26	-28	-14	-3140	2572	16524	39	-149	164	127	127	5
-7816	-2412	13764	-74	166	-183	-16124	-892	-4092	47	-47	150	-3820	-1908	16440	242	14	66	-8584	3148	14044	175	-52	-144	-14624	4240	-5872	24	-68	13	-3236	2620	16520	43	-148	164	127	127	5
-7828	-2332	13708	-64	151	-193	-16092	-920	-4136	97	-22	126	-3868	-1920	16604	220	-10	67	-8608	3088	14028	125	7	-181	-14676	4256	-5916	-3	-23	14	-3184	2612	16596	38	-150	164	127	127	5
-7848	-2380	13684	-90	167	-179	-16080	-888	-4108	108	-32	145	-3780	-1888	16628	222	-23	74	-8560	3144	14056	150	-13	-160	-14640	4260	-5944	17	-46	-31	-3148	2604	16504	13	-161	200	127	127	5
-7872	-2428	13652	-119	148	-155	-16040	-924	-4112	106	-47	122	-3792	-1872	16476	144	-37	24	-8584	3052	14088	132	-63	-128	-14608	4256	-5860	13	-65	-40	-3108	2568	16552	79	-143	156	127	127	5
-7932	-2400	13676	-120	159	-214	-16088	-904	-4156	93	-50	117	-3720	-1920	16704	-12	-39	47	-8544	3056	13944	83	-69	-161	-14656	4260	-5824	-19	-43	-77	-3068	2588	16460	71	-111	205	127	127	5
-7888	-2364	13712	-114	209	-196	-16132	-888	-4100	73	-84	87	-3764	-1960	16620	129	-50	48	-8628	3092	14020	97	-53	-209	-14656	4200	-5944	-15	-46	-89	-3108	2536	16556	18	-120	219	127	127	5
-7768	-2424	13684	-115	153	-191	-16108	-912	-4056	68	-25	104	-3740	-1928	16572	169	-1	47	-8588	3140	14112	82	-95	-200	-14688	4196	-5940	-1	-54	-83	-3052	2540	16596	26	-138	196	127	127	5
-7820	-2444	13636	-124	174	-230	-16108	-928	-4056	92	-66	101	-3732	-1964	16596	185	4	72	-8620	3132	14016	102	-25	-177	-14776	4228	-5856	-9	-29	-89	-3032	2496	16504	17	-115	217	127	127	5
-7828	-2420	13536	-138	156	-210	-16124	-932	-4084	66	-41	45	-3728	-1964	16500	176	17	112	-8560	3084	14104	114	-53	-208	-14688	4236	-5940	-13	-17	-103	-3092	2508	16624	5	-104	196	127	127	5
-7824	-2424	13660	-161	129	-228	-16080	-936	-3928	43	-36	62	-3748	-1988	16612	118	26	67	-8580	3008	13996	85	-111	-193	-14672	4148	-6024	-13	-35	-110	-3076	2520	16640	-29	-138	211	127	127	5
-7824	-2448	13720	-196	137	-218	-16140	-976	-4064	51	-31	91	-3800	-1936	16524	120	-21	84	-8568	3124	14052	111	-88	-155	-14680	4200	-5888	-3	-49	-44	-3044	2456	16556	-9	-131	202	127	127	5
-7852	-2368	13732	-153	165	-216	-16056	-912	-4024	40	-27	68	-3772	-1996	16552	102	-18	56	-8560	3068	14032	114	-74	-171	-14660	4200	-5872	-42	-5	-33	-3128	2424	16636	-4	-140	218	127	127	5
-7808	-2456	13668	-140	183	-225	-16120	-928	-4052	48	-21	96	-3748	-1964	16576	130	17	64	-8524	3056	14016	96	-73	-155	-14628	4200	-6032	-31	-18	-86	-3176	2440	16592	-10	-86	207	127	127	5
-7828	-2424	13788	-106	147	-214	-16064	-980	-3996	48	37	92	-3824	-2060	16608	162	-37	85	-8536	3076	14008	75	-81	-178	-14716	4140	-5988	-23	1	-79	-3140	2484	16624	25	-68	233	127	127	5
-7852	-2404	13628	-127	151	-198	-16100	-896	-4048	52	0	92	-3804	-2056	16580	169	31	42	-8588	3096	14016	109	-26	-194	-14668	4172	-5880	-6	-30	-78	-3052	2496	16536	19	-92	204	127	126	5
-7844	-2432	13600	-62	154	-216	-16096	-1008	-4128	51	-54	104	-3840	-1980	16472	217	-47	57	-8592	3044	13968	114	-82	-160	-14656	4164	-5888	1	-71	-55	-3140	2452	16624	-16	-102	179	127	126	5
-7808	-2396	13632	-73	177	-194	-16072	-972	-4040	57	-1	126	-3832	-2020	16392	176	-20	24	-8592	3004	14040	85	-49	-179	-14660	4204	-5964	35	-35	-46	-3096	2428	16628	-10	-110	197	127	126	5
-7872	-2444	13560	-62	156	-191	-16140	-996	-4060	102	-42	157	-3800	-2076	16664	226	-3	24	-8548	3052	14072	127	-64	-132	-14712	4220	-5900	42	-19	-45	-3108	2412	16352	55	-177	210	127	127	5
-7828	-2468	13752	-87	182	-163	-16080	-948	-3996	82	-2	148	-3840	-1988	16504	152	-6	32	-8584	3096	13920	112	-96	-135	-14708	4128	-5872	-12	-58	-47	-3120	2436	16640	10	-192	183	127	127	5
-7856	-2384	13676	-48	126	-188	-16064	-980	-4104	123	-45	171	-3796	-1996	16496	220	-81	25	-8584	3040	14028	136	-52	-128	-14716	4148	-5904	-12	-40	-52	-3116	2400	16628	65	-186	210	127	127	5
-7844	-2436	13616	-79	136	-177	-16108	-932	-3920	93	-1	149	-3744	-2016	16652	251	95	48	-8524	3080	14068	173	-37	-156	-14584	4132	-5976	40	-60	-41	-3056	2376	16568	71	-97	182	127	127	5
-7848	-2440	13664	-30	156	-165	-16124	-896	-4004	98	5	169	-3756	-2008	16624	270	20	20	-8548	3144	14116	119	-49	-124	-14696	4212	-6028	17	-41	-41	-3084	2456	16652	77	-133	188	127	127	5
-7804	-2428	13648	-61	177	-177	-16056	-940	-4056	86	-8	181	-3792	-1920	16556	247	-4	53	-8572	3068	14080	122	-26	-179	-14664	4156	-5900	10	-24	-19	-3080	2436	16620	33	-99	171	127	127	5
-7864	-2436	13696	-61	138	-174	-16088	-948	-4072	87	-22	138	-3784	-1968	16536	198	-17	41	-8604	3088	14012	154	-45	-112	-14712	4224	-5940	35	-63	4	-3128	2528	16584	59	-119	218	127	127	5
-7932	-2460	13816	-100	112	-185	-16132	-932	-4144	80	-24	137	-3756	-1956	16524	159	-28	61	-8600	3092	14028	169	-69	-149	-14676	4268	-5912	17	-58	-19	-3108	2536	16524	84	-146	216	127	126	5
-7860	-2424	13708	-131	117	-194	-16120	-1000	-4024	92	-14	115	-3752	-1948	16580	158	-6	28	-8636	3128	14044	124	-24	-169	-14592	4204	-6000	7	-50	-19	-3128	2560	16484	75	-145	170	127	127	5
-7872	-2464	13668	-89	98	-193	-16064	-980	-4056	100	-20	136	-3728	-1840	16568	192	-8	49	-8548	3056	14096	146	-27	-169	-14696	4232	-5936	20	-31	-17	-3084	2512	16468	62	-92	209	127	127	5
-7812	-2372	13672	-100	162	-164	-16092	-896	-4076	61	-24	167	-3704	-1976	16548	243	75	63	-8572	3160	13968	141	2	-170	-14672	4260	-5872	30	-54	-22	-3060	2512	16588	51	-166	170	127	127	5
-7824	-2412	13688	-63	156	-189	-16152	-900	-4084	99	8	162	-3760	-1936	16424	218	46	7	-8592	3164	13988	122	-51	-134	-14644	4240	-5964	-1	-40	-53	-3060	2524	16544	16	-121	179	127	127	5
-7876	-2368	13748	-98	143	-201	-16132	-884	-4068	83	0	117	-3704	-1932	16596	226	47	68	-8584	3044	13956	117	-34	-170	-14636	4228	-5852	-10	-27	-31	-3064	2556	16552	40	-151	159	127	127	5
-7780	-2456	13732	-71	155	-198	-16088	-976	-4140	73	-42	108	-3752	-2068	16492	191	-12	64	-8548	3036	14012	164	-101	-164	-14688	4264	-6012	2	-22	-38	-3056	2524	16572	9	-127	202	127	127	5
-7820	-2448	13732	-74	155	-187	-16040	-904	-3996	68	8	64	-3776	-1964	16508	169	-12	75	-8532	3100	14020	116	-34	-179	-14740	4224	-5860	-1	-38	-24	-3064	2568	16520	22	-74	209	127	127	5
-7804	-2456	13660	-62	145	-205	-16076	-852	-4040	69	-3	94	-3692	-1948	16592	143	-27	47	-8608	3156	14060	103	-57	-151	-14656	4224	-5960	4	-25	-69	-3104	2552	16560	10	-126	200	127	127	5
-7860	-2392	13748	-96	192	-189	-16084	-892	-4080	76	-4	84	-3812	-1972	16480	140	-22	51	-8532	3024	14036	94	-36	-188	-14668	4260	-5880	-14	-19	-54	-3092	2552	16492	15	-109	198	127	127	5
-7856	-2448	13624	-20	176	-191	-16036	-936	-4076	83	30	108	-3864	-1916	16644	180	-21	78	-8616	3092	14028	114	-58	-152	-14680	4208	-5892	-48	-22	-91	-3120	2540	16596	0	-98	223	127	127	5
-7860	-2432	13680	-99	156	-182	-16084	-908	-4072	92	-38	117	-3792	-1952	16556	173	-23	52	-8580	3124	13948	118	-120	-176	-14644	4188	-5956	-32	-25	-88	-3168	2476	16464	10	-102	210	127	127	5
-7872	-2384	13640	-113	210	-213	-16072	-972	-4124	40	-33	129	-3868	-1944	16560	206	46	64	-8556	3064	14096	144	-88	-165	-14704	4124	-5888	1	-50	-53	-3108	2448	16580	25	-121	215	127	127	5
-7840	-2440	13616	-98	164	-173	-16088	-904	-4012	69	-25	108	-3832	-2012	16532	191	-10	59	-8624	3064	13996	122	-42	-148	-14696	4140	-6004	-8	-36	-60	-3064	2460	16544	-5	-115	181	127	127	5
-7864	-2424	13712	-121	176	-235	-16064	-944	-4092	62	-29	113	-3880	-1960	16492	175	-17	55	-8564	3064	14096	112	-52	-164	-14656	4156	-5948	1	-18	-37	-3136	2488	16528	73	-86	211	127	127	5
-7804	-2476	13680	-95	174	-191	-16076	-952	-4144	122	-9	156	-3848	-1976	16420	160	-48	57	-8596	3044	14072	119	-55	-138	-14676	4164	-5996	-23	-33	-94	-3160	2524	16580	6	-186	212	127	127	5
-7864	-2428	13684	-147	171	-248	-16092	-920	-4144	35	-26	100	-3820	-1964	16488	94	-28	37	-8556	3104	14060	115	-70	-176	-14688	4180	-5904	-11	-62	-83	-3152	2448	16548	35	-146	199	127	127	5
-7840	-2436	13708	-99	170	-230	-16076	-976	-4152	61	-40	101	-3796	-1960	16444	126	-66	62	-8556	3080	14092	131	-60	-148	-14660	4208	-5980	-14	-64	-36	-3112	2444	16552	17	-112	193	127	127	5
-7804	-2348	13724	-118	169	-186	-16140	-960	-4024	77	-53	111	-3772	-2004	16548	139	-10	67	-8612	3048	13996	129	-65	-142	-14628	4248	-5912	11	-61	-27	-3044	2488	16560	43	-153	196	127	127	5
-7916	-2432	13624	-135	171	-182	-16048	-936	-4092	99	-53	118	-3752	-2004	16504	158	-30	68	-8520	3060	13956	134	-60	-157	-14688	4180	-5756	7	-96	-48	-3040	2452	16504	60	-154	178	127	127	5
-7840	-2360	13736	-101	140	-182	-15984	-896	-4068	80	-5	101	-3748	-2016	16668	148	44	78	-8532	3064	14092	157	-80	-158	-14664	4212	-5952	3	-103	-47	-3112	2508	16572	95	-159	178	127	127	5
-7888	-2420	13764	-100	154	-237	-16092	-984	-4104	55	-18	119	-3760	-2000	16508	157	-22	66	-8520	3132	13972	148	-46	-169	-14664	4144	-5872	-7	-41	-51	-3024	2528	16504	90	-122	194	127	127	5
-7804	-2360	13576	-115	142	-242	-16076	-888	-4184	48	-34	118	-3756	-1964	16448	165	-37	77	-8620	3128	13964	116	-35	-144	-14744	4192	-5836	-31	-41	-54	-3096	2512	16620	90	-115	178	127	127	5
-7848	-2412	13624	-93	149	-200	-16128	-884	-4008	97	-32	102	-3708	-1952	16484	163	0	45	-8556	3076	13992	112	-80	-154	-14648	4192	-5928	-8	-14	-56	-3032	2488	16472	54	-138	220	127	127	5
-7880	-2444	13584	-146	138	-215	-16140	-908	-4028	89	1	125	-3756	-1964	16596	174	8	64	-8540	3104	14048	104	-49	-197	-14652	4224	-5956	-1	-19	-60	-3040	2532	16448	7	-98	213	127	127	5
-7808	-2424	13564	-87	116	-203	-16104	-892	-4016	50	5	121	-3728	-2004	16556	201	32	71	-8524	3060	14004	98	-29	-212	-14700	4184	-5900	43	-3	-63	-3052	2516	16484	13	-139	209	127	127	5
-7788	-2440	13760	-103	147	-207	-16120	-920	-3964	6	5	130	-3784	-1960	16580	223	26	70	-8536	3096	13988	113	-41	-176	-14632	4164	-5896	-3	9	-66	-3128	2560	16532	-32	-128	197	127	127	5
-7840	-2412	13744	-69	119	-190	-16124	-996	-3968	46	14	120	-3864	-2036	16528	214	8	79	-8576	3116	14024	107	-10	-171	-14668	4232	-5956	-14	25	-56	-3164	2568	16600	-1	-68	194	127	127	5
-7856	-2348	13624	-67	176	-181	-16024	-932	-4228	92	17	158	-3884	-1988	16508	159	-37	45	-8556	3012	14032	86	-20	-169	-14648	4324	-5944	-22	-9	-97	-3168	2556	16548	-6	-122	229	127	127	5
-7876	-2356	13568	-62	132	-151	-16120	-984	-4248	104	-9	140	-3896	-1936	16496	160	-56	57	-8532	3052	14040	62	-19	-194	-14676	4224	-5996	8	-22	-93	-3204	2472	16592	-6	-121	217	127	127	5
-7860	-2376	13600	-37	141	-188	-16104	-940	-4228	113	-59	151	-3896	-1972	16576	179	-45	29	-8584	3064	14068	91	-116	-182	-14604	4164	-5912	17	-59	-105	-3184	2544	16628	10	-158	224	127	127	5
-7784	-2404	13668	-90	176	-168	-16056	-916	-4080	74	-88	132	-3904	-1952	16552	186	-31	32	-8600	3036	14016	91	-42	-184	-14676	4192	-6088	17	-71	-122	-3184	2448	16592	-39	-116	228	127	127	5
-7828	-2432	13652	-112	169	-209	-16068	-944	-4140	101	-37	117	-3784	-1880	16536	149	-46	22	-8560	3056	14020	103	-49	-153	-14732	4204	-6056	-37	-86	-101	-3148	2416	16524	13	-141	235	127	127	5
-7852	-2388	13720	-57	211	-200	-16068	-872	-4176	83	-67	129	-3752	-1964	16552	151	-37	0	-8600	3040	13992	97	-61	-171	-14700	4072	-5824	-40	-90	-52	-3128	2336	16504	39	-148	215	127	127	5
-7880	-2404	13640	-60	149	-213	-16088	-876	-4092	90	-60	126	-3660	-1964	16548	146	-60	41	-8572	3084	14216	106	-49	-159	-14656	4096	-5924	10	-99	-31	-3132	2344	16604	56	-122	201	127	127	5
-7808	-2440	13688	-103	152	-210	-16096	-920	-3940	94	-87	125	-3700	-2148	16484	223	-1	86	-8516	3096	13972	161	-49	-132	-14696	4044	-5852	15	-114	-38	-3024	2332	16568	77	-142	173	127	127	5
-7784	-2428	13644	-69	130	-188	-16072	-1004	-3972	85	-46	105	-3672	-2000	16616	195	24	94	-8516	3104	14084	204	-13	-144	-14724	4084	-6016	47	-76	9	-3004	2404	16556	80	-167	147	127	127	5
-7832	-2452	13604	-107	147	-213	-16016	-924	-3968	107	-33	93	-3668	-2052	16560	206	-17	85	-8540	3056	13976	171	-30	-174	-14672	4168	-5756	52	-69	33	-2960	2396	16584	89	-162	132	127	127	5
-7840	-2416	13640	-99	164	-198	-16164	-880	-4040	75	-8	167	-3656	-2044	16508	200	14	68	-8512	3064	14060	178	-57	-135	-14724	4180	-5832	1	-44	5	-3048	2496	16596	61	-151	210	127	127	5
-7868	-2428	13716	-91	108	-221	-16124	-928	-3944	33	-16	117	-3708	-2092	16572	204	-23	91	-8612	3132	13956	173	-15	-151	-14716	4208	-5832	-35	35	9	-3032	2580	16528	67	-130	163	127	127	5
-7824	-2456	13624	-81	155	-174	-16088	-996	-4012	43	-4	115	-3736	-2228	16532	238	-8	88	-8632	3092	14036	168	-72	-142	-14616	4308	-5860	32	26	37	-3012	2540	16436	104	-132	211	127	127	5
-7836	-2472	13544	-64	164	-176	-16116	-1068	-4060	65	95	169	-3700	-2108	16492	233	41	66	-8564	3068	14036	152	-59	-171	-14724	4284	-5952	16	6	14	-3080	2640	16528	87	-103	189	127	127	5
-7796	-2392	13596	-29	112	-181	-16100	-992	-4020	129	27	172	-3896	-2076	16416	265	12	59	-8608	3088	14084	117	-37	-144	-14704	4276	-5876	44	31	-13	-3092	2576	16668	16	-105	204	127	127	5
-7900	-2424	13796	7	166	-170	-16084	-996	-3964	119	26	183	-3824	-2020	16456	289	-2	40	-8584	3116	13988	119	-29	-154	-14632	4296	-5928	13	9	16	-3132	2616	16564	33	-111	204	127	127	5
-7908	-2400	13744	-18	121	-150	-16092	-936	-4132	93	53	216	-3964	-1980	16448	275	-14	45	-8632	3112	14012	141	-64	-151	-14696	4328	-5848	8	-24	-25	-3220	2660	16420	57	-114	178	127	127	5
-7820	-2452	13724	-16	150	-190	-16080	-916	-4204	82	0	172	-3868	-1828	16520	247	-15	34	-8612	3084	14008	123	-73	-176	-14696	4280	-5912	-1	12	-48	-3244	2656	16592	56	-88	238	127	127	5
-7840	-2412	13796	-40	165	-177	-16084	-892	-4216	98	-13	202	-3832	-1784	16500	221	-31	16	-8572	3076	14032	121	-18	-194	-14640	4292	-5964	-50	-15	-53	-3244	2584	16628	42	-97	206	127	127	5
-7788	-2352	13616	-20	142	-169	-16092	-800	-3972	74	-17	165	-3824	-1764	16440	203	-46	41	-8572	3160	14000	104	-90	-184	-14612	4212	-5984	-5	-69	-55	-3180	2544	16576	32	-115	205	127	127	5
-7784	-2388	13700	-65	140	-236	-16120	-856	-4236	75	-7	147	-3796	-1784	16516	165	-3	34	-8624	3052	13988	121	-74	-168	-14648	4200	-6000	5	-36	-50	-3084	2540	16488	38	-107	229	127	127	5
-7808	-2344	13784	-75	120	-211	-16128	-824	-4216	80	-26	138	-3728	-1796	16764	156	-31	49	-8544	3120	14084	131	-89	-149	-14668	4124	-5940	-11	-67	-83	-3068	2560	16476	28	-143	198	127	127	5
-7824	-2368	13676	-134	141	-220	-16132	-828	-4164	80	-29	81	-3684	-1724	16560	120	-35	73	-8564	3096	14048	121	-58	-154	-14628	4100	-5912	22	-52	-63	-3072	2512	16612	24	-114	185	127	127	5
-7796	-2336	13648	-132	160	-218	-16128	-816	-4020	75	-50	71	-3652	-1816	16536	88	6	48	-8512	3136	14000	129	-51	-164	-14708	4208	-5900	1	-38	-75	-2996	2492	16612	-18	-144	160	127	127	5
-7816	-2468	13620	-152	162	-226	-16116	-904	-4108	34	-52	33	-3688	-1888	16516	23	-64	37	-8548	3044	14096	140	-11	-160	-14692	4228	-5808	34	-26	-62	-3024	2528	16480	36	-131	183	127	127	5
-7856	-2456	13768	-189	175	-248	-16128	-944	-4056	58	-5	66	-3740	-2028	16440	135	-25	81	-8608	3088	14072	123	-47	-144	-14656	4260	-5836	-18	3	-79	-3016	2568	16536	28	-89	171	127	127	5
-7828	-2476	13764	-183	153	-190	-16124	-920	-4040	49	-54	43	-3760	-2028	16396	78	-5	99	-8536	3132	14008	114	-100	-202	-14696	4300	-5800	-24	-19	-102	-3072	2472	16544	32	-74	191	127	127	5
-7856	-2396	13696	-191	120	-213	-16068	-952	-3940	42	-3	26	-3740	-2068	16588	224	89	84	-8616	3092	14128	109	-63	-188	-14660	4244	-5868	-32	29	-91	-3080	2552	16600	-10	-51	206	127	126	5
-7800	-2436	13692	-142	166	-224	-16176	-980	-4056	28	-29	36	-3888	-2100	16424	166	-30	90	-8544	3020	13928	95	-51	-200	-14636	4260	-5908	-24	-18	-124	-3092	2584	16500	18	-100	224	127	127	5
-7872	-2432	13676	-167	138	-207	-16092	-1024	-4188	16	3	64	-3920	-2024	16408	120	-33	67	-8604	3076	14028	91	-92	-195	-14696	4284	-5964	-29	-2	-128	-3224	2564	16468	30	-94	234	127	127	5
-7844	-2428	13624	-77	163	-169	-16144	-1032	-4056	84	-43	94	-3880	-1988	16508	94	-91	61	-8540	3056	14068	103	-70	-195	-14628	4212	-6028	-17	-26	-94	-3176	2520	16580	-13	-127	274	127	127	5
-7836	-2384	13724	-102	145	-214	-16108	-1024	-4172	58	-4	114	-3832	-2032	16432	92	-31	45	-8596	3132	14052	57	-54	-177	-14708	4204	-5940	-31	-28	-113	-3160	2468	16528	-31	-143	239	127	126	5
-7852	-2432	13716	-78	137	-213	-16144	-1032	-4092	81	-2	172	-3800	-2060	16572	160	-57	71	-8532	3092	14076	86	-106	-218	-14652	4168	-5940	-33	-36	-102	-3164	2416	16568	42	-107	234	127	126	5
-7880	-2408	13744	-65	180	-193	-16104	-988	-4076	79	-29	105	-3836	-2036	16460	158	-93	31	-8572	3080	14032	63	-32	-158	-14664	4072	-5912	-41	-29	-93	-3176	2376	16580	26	-107	199	127	126	5
-7804	-2456	13736	-57	136	-174	-16048	-988	-4088	93	-12	139	-3772	-2004	16504	234	64	19	-8524	3072	14160	126	-101	-161	-14656	4120	-5824	-14	-80	-52	-3192	2416	16516	63	-126	206	127	126	5
-7848	-2416	13708	-58	158	-213	-16116	-940	-4144	86	-21	164	-3720	-1944	16524	219	77	23	-8612	3116	14072	137	-24	-174	-14704	4132	-5960	24	-58	-74	-3120	2388	16460	71	-132	242	127	126	5
-7812	-2420	13708	-63	155	-180	-16064	-940	-3996	77	-30	149	-3804	-1972	16492	139	-54	20	-8496	3032	14068	152	-74	-145	-14652	4116	-5888	20	-67	-54	-3140	2404	16536	2	-203	172	127	127	5
-7820	-2480	13696	-75	146	-171	-16128	-928	-4128	119	-2	141	-3756	-2028	16552	212	-41	42	-8604	3072	14008	133	-15	-157	-14684	4164	-5940	13	-51	-16	-3072	2420	16544	47	-132	156	127	126	5
-7884	-2380	13652	-39	172	-178	-16140	-904	-4068	87	-8	158	-3760	-2008	16592	129	-68	39	-8572	3028	14040	178	-21	-128	-14692	4204	-5860	54	-57	18	-3172	2480	16548	11	-181	168	127	127	5
-7840	-2368	13752	-67	166	-220	-16080	-968	-4260	74	-2	161	-3820	-2012	16556	106	-59	31	-8608	3112	13984	189	-37	-121	-14596	4176	-5824	47	-50	-9	-3060	2480	16516	1	-174	206	127	127	5
