#Activity	sitting in car 
#ActivityID	12 
#Date 09-19-15-07
acc_rf_x	acc_rf_y	acc_rf_z	gyro_rf_x	gyro_rf_y	gyro_rf_z	acc_rs_x	acc_rs_y	acc_rs_z	gyro_rs_x	gyro_rs_y	gyro_rs_z	acc_rt_x	acc_rt_y	acc_rt_z	gyro_rt_x	gyro_rt_y	gyro_rt_z	acc_lf_x	acc_lf_y	acc_lf_z	gyro_lf_x	gyro_lf_y	gyro_lf_z	acc_ls_x	acc_ls_y	acc_ls_z	gyro_ls_x	gyro_ls_y	gyro_ls_z	acc_lt_x	acc_lt_y	acc_lt_z	gyro_lt_x	gyro_lt_y	gyro_lt_z	EMG_r	EMG_l	act
-712	-12292	14292	31	-70	-77	-10768	-10664	9560	-50	-86	-3	1136	-4296	17688	94	24	13	5040	9872	14832	8	-59	12	-10728	8544	11992	77	-111	103	672	1496	18024	97	-51	27	136	128	12
-304	-11420	14580	55	-69	-58	-10912	-11232	9832	59	-78	-34	808	-4184	17792	107	-16	5	4800	9440	16376	-77	-52	-3	-11824	8400	12544	-56	-98	113	64	2080	18816	63	-21	3	140	127	12
-724	-11564	14952	56	-82	-59	-10672	-11048	9720	75	-79	-36	1304	-4376	18456	125	-51	3	4016	7520	15824	-21	-57	5	-12912	7920	12184	-103	-100	90	-928	2440	19376	47	-88	20	151	130	12
-588	-9408	14372	70	-72	-29	-11192	-9672	9712	113	-85	-21	1496	-4552	18040	117	-37	15	3536	6432	13968	166	-65	92	-11784	7240	10872	-45	-76	31	-320	2576	18160	86	-98	50	136	139	12
-908	-8292	13320	-5	-69	-73	-9904	-8472	8952	105	-39	63	2248	-4264	16744	83	10	39	3552	7288	12472	275	-77	125	-9792	7120	10600	120	-46	-11	880	2592	16896	134	-70	108	136	144	12
-332	-10232	12252	-59	-43	-82	-8136	-8696	8112	34	-17	129	2472	-3568	16584	62	62	78	5296	10344	13648	88	-63	75	-8608	8688	11744	241	-58	13	1152	1824	16512	141	-46	107	127	133	12
228	-12320	12892	92	-75	-10	-9208	-10856	9416	-82	-51	20	2464	-2904	17424	50	119	133	5416	9792	13848	-102	11	-35	-10688	9424	11680	-36	-62	114	256	2352	17464	110	-4	19	128	129	12
-824	-10224	13452	189	-30	92	-11144	-10280	9224	99	-39	-124	2976	-3576	17200	70	149	105	3272	7416	14336	-159	43	-89	-11776	8336	10512	-197	-16	138	-1016	3288	18208	11	-13	-4	127	144	12
-1584	-8884	14768	169	-28	60	-11768	-8616	9096	233	31	-90	648	-3440	17200	75	131	23	3056	5440	14520	22	-4	9	-12064	6808	10800	-38	-15	33	-432	3296	17344	-38	-80	54	125	152	12
-1076	-6092	14036	17	-33	-5	-10856	-6960	9144	67	21	56	-536	-3224	16712	91	35	-50	2744	7360	12544	216	-8	87	-10408	7232	9872	88	7	-51	-464	3296	17328	-36	-88	60	125	140	12
-976	-8524	12940	-85	0	-69	-9400	-7352	8088	-39	12	140	1432	-2776	15672	13	23	-47	4408	8368	12648	214	-27	86	-8928	7824	10376	152	6	-53	784	2216	15768	124	-46	76	123	129	12
-80	-10824	13040	-62	-38	-78	-8536	-8992	9000	-143	-12	90	336	-2472	16912	-81	255	32	5720	10848	12624	40	-2	7	-8912	8736	10976	142	-50	17	992	2168	16032	118	16	12	118	135	12
272	-11980	13016	51	-4	8	-9904	-10016	9240	-96	-40	-49	1736	-2472	16944	-73	271	69	4552	8760	13200	-155	53	-83	-10040	8848	11064	-44	-53	108	-200	3032	16320	41	17	-45	128	149	12
-864	-8232	13336	71	7	33	-10728	-9008	8984	71	11	-140	672	-3720	16352	-45	344	22	2864	6744	12480	-89	55	-82	-10632	7168	9768	-129	-5	45	-1192	3760	17040	-39	2	-19	126	150	12
-1248	-6944	12944	-68	24	-12	-10136	-7112	7856	144	75	-12	1232	-3312	15704	51	163	-32	3328	7720	13872	-60	32	-47	-10464	7632	10856	93	41	-46	376	2968	17576	-83	-10	14	129	161	12
-324	-9896	13460	-75	-18	-47	-9528	-8488	8928	-63	40	73	952	-2816	15800	51	-51	-23	4784	8160	14120	-38	40	-36	-10960	8656	11760	67	37	-44	-1768	2472	16784	-46	30	38	123	151	12
208	-9976	13576	-54	15	-29	-10048	-9040	9256	-146	-25	-39	1392	-3352	16096	-40	-121	21	3512	8200	12456	10	48	-43	-10320	8288	10376	-102	30	-33	-520	3032	17128	-20	10	19	123	148	12
-972	-9276	12532	-36	45	5	-9680	-8816	8200	-34	22	-72	1896	-3704	16776	-22	-8	-3	3896	8248	12720	-33	60	-49	-8920	7552	10240	-28	50	-57	1576	3000	16344	-55	17	2	128	154	12
-724	-9956	13268	-32	7	-28	-9352	-9096	8352	-18	75	-12	360	-3288	16824	-66	223	-18	4320	7976	13552	-98	50	-68	-9896	7912	11008	13	50	-53	464	2272	15896	-65	64	13	125	148	12
-520	-9956	12920	-22	11	-23	-10232	-9192	9104	-73	19	-16	496	-3712	16024	-129	221	-13	3696	7560	12752	-89	71	-79	-10168	7528	9840	-115	66	-43	280	1808	15448	-38	40	21	115	137	12
-584	-9288	13596	-17	16	-22	-9784	-8832	8712	-7	43	-27	648	-4144	15584	-84	124	-12	4464	7912	13232	-99	39	-65	-9968	6984	10344	-55	51	-50	-160	1816	15304	-41	16	47	117	130	12
-348	-8892	13052	-39	-1	-38	-9472	-8176	8680	-38	17	-1	456	-4032	15472	-16	18	18	3848	7560	12264	-74	50	-69	-9896	7064	9656	-28	12	-22	-40	1456	16064	-41	27	54	120	136	12
-592	-9944	12740	-33	18	-37	-9464	-8544	7728	-43	1	3	1008	-4072	15232	29	-57	27	4064	7392	12904	-59	21	-47	-9784	6704	10216	29	0	-12	432	1472	15472	-7	70	55	125	137	12
-340	-8772	12732	-53	-2	-47	-9160	-8872	8120	-21	7	-2	1184	-4000	15208	35	-78	38	3824	7768	13520	-100	27	-70	-9920	6984	10912	75	-13	-18	424	1688	15800	31	17	53	127	135	12
-592	-11168	12248	-26	0	-24	-9280	-9768	8320	2	11	-11	408	-3872	16728	98	-68	18	4664	8384	13664	-159	45	-89	-11024	7864	11144	-7	-22	13	-808	1616	17152	38	-38	1	131	134	12
-388	-11304	13940	67	-6	2	-10384	-10296	8816	34	-2	-65	664	-4000	16920	63	-19	3	3608	5544	14384	-102	27	-66	-12040	7424	11216	-75	-29	24	-256	2280	17680	-44	-34	9	133	141	12
-460	-8660	13276	21	14	5	-11008	-8560	8768	80	-8	-56	1336	-4232	16768	79	-11	-41	2720	6768	13312	24	33	-19	-11136	6768	10328	-45	14	-45	-176	2384	17464	-97	-22	24	135	150	12
-1260	-9560	13064	-39	6	-33	-9480	-8344	8224	50	60	29	1608	-3624	16328	63	-51	-38	4296	6976	13608	77	3	18	-10152	7128	11208	54	31	-64	808	1744	16592	-70	0	23	135	156	12
-168	-9464	13096	-29	-20	-41	-9088	-8800	8944	-117	19	39	1296	-3040	16120	-69	-14	-5	4368	8472	13168	66	33	2	-9640	7432	10664	-16	41	-31	1032	1384	15664	2	34	-4	133	144	12
-132	-11112	12796	4	4	-14	-9352	-9504	8600	-136	-15	-25	880	-3640	16368	-140	67	33	4904	8768	13312	-55	28	-39	-9656	7496	10992	-13	7	25	776	1456	15904	21	51	-41	132	141	12
-572	-11064	13148	34	-3	-6	-10056	-9752	8712	-74	-2	-61	776	-3960	16336	-90	124	26	3880	7544	13120	-102	48	-75	-10552	7256	10552	-53	-13	61	160	1872	16608	-36	56	-49	136	151	12
-700	-8788	13092	72	7	21	-10056	-9008	8248	-8	14	-52	512	-4120	15544	-30	101	-5	2936	6344	12968	1	36	-35	-10584	6880	10112	-71	29	34	0	2648	16080	-83	58	-46	133	172	12
-852	-7276	12800	-31	-1	-33	-9552	-7832	8064	68	36	8	768	-3648	15272	-14	66	-63	3704	7072	13248	39	18	-7	-9696	6536	10040	43	50	-26	704	2208	15288	-89	74	-37	130	161	12
-944	-11020	13092	-83	-15	-77	-8712	-8344	8424	-15	29	46	1080	-3296	15952	-47	28	-31	5152	8328	13008	-31	6	-35	-10016	7888	10928	89	-17	-3	328	976	16160	-32	34	-69	126	129	12
-12	-11312	13312	29	7	-14	-9696	-9304	8576	-149	-47	-40	1128	-4176	16224	-58	19	50	4496	8096	13672	-86	23	-60	-10560	8304	10792	-40	-29	71	-248	1608	16712	11	42	-79	126	122	12
-704	-9064	13668	18	-2	-14	-10872	-9728	8656	-22	-37	-98	824	-4824	16632	50	7	57	3440	7056	13408	-81	41	-82	-10768	6968	10496	-61	-12	60	-800	2096	16952	-22	63	-35	125	130	12
-1188	-9608	13236	-43	14	-49	-10320	-9008	8576	75	27	-20	240	-4768	16688	172	-45	21	3680	7288	14176	-69	28	-59	-10864	7168	11200	65	14	12	-856	1960	17304	-44	16	22	123	140	12
-592	-9972	13616	-37	-13	-72	-10048	-9552	8880	-37	20	48	744	-4200	16488	118	-65	18	3872	6968	13880	17	24	-32	-11232	7456	11232	26	27	-2	-528	1696	16992	9	-13	31	123	133	12
-316	-9544	12788	-82	13	-66	-9552	-9344	8600	-30	-13	27	1336	-4272	16248	29	-26	45	3712	7424	13448	42	28	-38	-10032	7288	10608	16	41	0	32	1488	16416	58	10	33	126	129	12
-64	-10900	12732	-13	8	-40	-9064	-9848	8240	-3	3	20	1432	-4416	16216	31	3	63	4776	8920	14104	-16	23	-44	-10320	7464	11320	79	25	38	256	1240	16192	45	35	28	126	135	12
-320	-11284	13296	59	-12	-7	-9416	-10272	8544	-22	-4	-12	1096	-4528	16528	46	11	74	4104	8120	13632	-66	33	-77	-10696	7544	10832	-13	-3	80	-344	1304	16528	24	45	13	123	135	12
-820	-9956	13300	118	-2	24	-10512	-10016	8312	52	2	-34	672	-4736	16392	77	24	42	3656	7120	14056	-70	28	-71	-11096	7040	10752	-49	7	81	-680	1504	16816	22	47	-8	125	135	12
-1012	-11116	13648	39	-23	-20	-10608	-9560	8632	117	26	31	520	-4280	16824	105	23	-4	4032	7456	15320	-57	-1	-39	-12000	7080	11632	35	-33	51	-960	1656	17912	39	-10	-10	123	137	12
-272	-10076	13888	50	-18	6	-10328	-9704	9016	-31	-31	26	384	-4232	16952	66	-9	-2	3792	8536	15440	8	15	2	-12312	7808	11368	60	-47	59	-1176	2256	18304	39	-70	-14	126	139	12
-764	-9740	14176	67	-36	0	-10664	-10032	9392	-21	-42	-11	136	-3784	17240	39	-4	0	3640	6448	13928	148	-12	41	-11560	7672	10832	22	-34	40	-560	2128	17912	48	-48	-2	128	143	12
-616	-9484	13428	41	-21	-12	-9960	-8848	8704	19	-22	31	1160	-4264	16888	65	34	-11	3624	7800	13688	199	-34	74	-10096	7704	10800	119	-25	8	352	2368	17016	42	-2	22	128	146	12
-592	-9976	13488	50	-40	-18	-9320	-9248	9112	-4	-2	64	1248	-3440	16648	72	54	-1	4976	8544	13728	136	-25	59	-9408	8072	11512	127	-20	17	504	2064	16352	51	16	21	125	136	12
40	-9912	13292	32	-33	-19	-9648	-9392	9240	-10	-24	26	1224	-3032	16536	42	31	23	4568	8192	12880	42	11	-2	-9424	8432	10640	-26	-5	56	-16	2448	16440	58	34	-6	123	131	12
-1016	-10428	12988	59	-6	13	-10016	-9088	8688	61	1	-19	696	-2944	16480	55	-28	35	4224	8800	13312	-67	17	-36	-10320	8264	10600	-30	2	87	-808	2488	16496	22	7	-22	125	137	12
-428	-9636	13948	103	-34	15	-10400	-9104	9368	80	12	-29	648	-3088	16816	73	-79	9	3928	7544	13400	-54	16	-41	-11144	7992	10504	-14	-25	72	-1288	2752	16768	-7	-37	-22	127	147	12
-868	-8316	13888	65	-10	17	-10872	-8488	8984	60	-6	-39	424	-3440	16712	52	-76	-17	2808	7408	13696	15	23	-22	-10792	7528	10184	5	-2	35	-1072	3048	16728	5	-50	-8	128	146	12
-1524	-10276	14044	-34	-19	-49	-10440	-8456	8312	70	18	6	272	-3336	17232	44	-50	-28	4200	8192	13880	-19	-25	-19	-10792	8208	11136	100	-41	4	-576	2656	17096	22	-98	7	127	138	12
-576	-11108	13688	-24	-26	-54	-10704	-9320	8800	-53	-26	1	360	-3448	17248	1	-47	-6	4632	8600	13752	-23	-11	-25	-11168	8920	11512	25	-41	25	-680	2616	17704	-2	-88	6	126	134	12
-612	-9648	14612	-17	-34	-39	-11120	-9992	9224	-74	-55	-56	784	-4024	17600	5	-48	-10	3664	7584	14416	-82	17	-63	-11568	8312	11528	-43	-35	22	-480	2672	18296	-45	-60	16	128	136	12
-884	-10468	14116	-40	-8	-63	-11072	-9712	9408	7	-20	-40	936	-4176	17808	25	-35	-34	4368	7736	15136	-42	-12	-27	-11576	7624	11976	-15	-17	-10	-112	2536	17792	-35	-20	25	130	140	12
-472	-9500	14328	-65	-27	-90	-10224	-9552	9632	-41	-23	-8	1360	-4352	17288	-16	12	-33	4152	7816	13784	31	0	-12	-10688	7728	11312	-17	-12	-42	400	2096	17440	0	0	35	130	137	12
-520	-9044	14008	-77	-31	-91	-9496	-9392	8936	-23	-21	11	1504	-4368	16936	-65	89	-11	3992	7840	13192	23	6	-21	-9672	7624	11000	-36	26	-37	392	1600	16424	50	43	34	130	136	12
-332	-10864	13116	-41	-23	-77	-8952	-9768	8608	-19	3	12	1944	-4576	15736	-70	99	26	5200	9192	13144	-33	-14	-28	-9968	7672	11184	41	-8	5	200	1320	16208	70	36	37	128	137	12
-108	-10508	13024	50	-33	-16	-9416	-10032	9064	-34	-33	-23	1032	-4256	16440	3	59	46	3856	8000	13144	-123	36	-84	-10336	7848	10680	-37	-11	62	-432	1328	16648	34	-8	35	125	136	12
-888	-10768	13056	108	-12	16	-10360	-9856	8376	85	-4	-51	520	-4544	16048	82	4	30	3144	7592	13840	-111	20	-79	-10968	6664	10464	-97	15	72	-808	1640	16344	16	-26	35	125	139	12
-740	-8956	13176	55	-19	-7	-10184	-8936	8128	95	13	-11	224	-3920	16272	107	-62	-5	3008	8032	14432	-76	7	-50	-11288	6832	10568	5	-5	45	-936	1536	16856	1	-75	40	124	139	12
-1156	-10192	13344	44	-27	-13	-10352	-9192	8520	24	-11	24	168	-3728	16824	73	-103	-20	3824	7760	15064	-49	15	-34	-11832	7512	10952	58	-36	50	-1120	1408	17248	10	-109	6	123	137	12
-876	-10308	14456	85	-36	-6	-10864	-9920	9080	-23	-39	-17	408	-3904	17120	54	-128	-20	3528	6288	14336	29	-20	-5	-12152	7952	10896	42	-61	57	-1008	2016	18112	14	-84	-22	126	139	12
-888	-9496	14024	58	-25	-4	-11312	-9352	9160	3	-48	-26	608	-4088	17528	79	-102	-34	3792	6928	14280	116	-27	35	-11400	7512	10952	51	-62	40	-376	2592	17840	9	-32	-12	128	145	12
-640	-9440	13976	24	-34	-36	-10376	-9184	8960	30	-6	22	976	-3872	17320	85	-45	-45	4048	7224	13640	167	-40	72	-10496	7784	11552	82	-51	-2	296	2616	17128	5	4	-4	126	142	12
-924	-9304	13256	-42	-31	-70	-9400	-8744	9176	-14	-22	41	1368	-3512	16896	5	44	-12	3912	7704	12608	171	-10	43	-9592	7904	10184	0	-2	-2	432	2296	16952	42	35	-7	126	135	12
-592	-10688	12696	9	-6	-44	-9160	-9208	8344	-1	0	34	1376	-3552	16512	-13	105	31	5128	8560	12944	69	-19	16	-9472	8112	10976	48	2	16	128	2176	16104	54	60	0	126	134	12
-28	-10024	13364	30	-25	-33	-9192	-9392	8760	1	-6	2	1296	-3664	16224	7	116	59	4512	9104	12384	-17	13	-41	-9576	8216	10728	16	-14	49	160	2040	15912	52	61	4	124	138	12
-732	-9864	12460	57	18	13	-9896	-9360	8448	43	-10	-25	808	-3816	16560	54	80	39	3520	8480	12744	-99	52	-80	-10096	7840	10232	-45	13	65	-680	2440	16336	28	10	11	127	139	12
-1172	-9624	13564	61	-8	-11	-10072	-9152	8232	104	40	-11	576	-3752	16312	50	38	16	3920	7536	14336	-105	9	-79	-10680	7128	11104	31	6	37	-784	2536	16264	30	-12	26	127	140	12
-628	-9308	13420	8	-10	-16	-10088	-8984	8648	42	13	14	448	-3600	16328	32	-18	-6	3464	7544	13760	-102	44	-85	-11160	7992	10616	6	-3	27	-712	1952	17360	14	-63	28	126	140	12
-1484	-11100	13508	25	5	-17	-10336	-9152	8144	20	-1	-16	384	-3584	16624	-2	-77	-15	4016	6664	14664	-63	15	-58	-11640	7640	11096	-5	5	23	-1008	2360	17376	-3	-77	13	129	135	12
-612	-9824	13508	12	-17	-30	-10592	-8992	8720	-32	-17	-25	384	-3832	16512	32	-93	-29	3056	6840	13472	39	16	-22	-11240	7352	10216	11	-11	-2	-536	2224	17408	-31	-44	30	131	143	12
-828	-9024	13176	5	-1	-31	-10008	-8440	8088	-45	-10	14	808	-4000	16272	43	-61	-49	3624	7624	13352	80	-2	4	-10168	7416	10776	66	-1	-28	56	1952	16432	-11	-14	38	130	140	12
-468	-9592	13032	-16	-22	-55	-9312	-8920	8624	-56	-3	34	1040	-3616	16304	20	-4	-21	3968	8168	12808	79	3	-1	-9584	7600	10544	5	14	-20	-40	1304	16304	40	9	29	128	134	12
-348	-10368	12996	5	-6	-31	-9392	-9112	8424	-69	-26	16	1040	-3976	16216	0	47	30	4720	8280	13336	-22	11	-34	-9704	7600	10456	-3	8	33	24	1408	16008	63	25	9	127	129	12
-616	-10296	13076	14	-11	-33	-9880	-9576	8560	-18	-25	-19	1056	-4104	16512	51	70	51	3904	8024	13152	-75	40	-61	-10520	7176	10520	-25	-26	67	-464	1880	16808	37	18	2	125	135	12
-712	-9408	12760	23	5	-7	-9832	-9192	8248	66	3	-17	824	-4072	16320	98	66	31	3032	6816	13248	-18	27	-39	-10904	6960	10216	25	4	49	-624	2144	16736	9	16	4	126	142	12
-864	-9152	13160	30	-6	-14	-9680	-8864	8408	84	32	31	1064	-4040	16136	84	58	10	3328	7976	13080	41	5	-10	-10480	7208	10512	131	-5	19	-352	2192	16720	16	12	18	125	144	12
-692	-10912	13252	20	-2	-12	-9512	-8984	8416	66	27	46	760	-3408	16440	32	44	15	4440	8216	14144	19	-3	-15	-10592	8432	11296	122	-3	28	-440	1736	16816	45	-6	8	122	136	12
-204	-10356	13652	97	-11	26	-10344	-9488	8800	3	-7	-4	576	-3560	16600	11	7	32	3792	8552	13728	-10	33	-35	-10768	8560	11120	-15	-6	60	-736	2400	17360	33	-18	-12	126	137	12
-1228	-9392	13496	69	10	28	-11048	-9080	8624	33	-5	-27	240	-3504	16888	66	-67	-12	3360	6760	13728	6	34	-45	-11072	7552	10416	-74	11	55	-1048	3000	16856	-19	-18	2	127	144	12
-964	-8424	13484	23	12	-13	-10704	-8360	8576	18	28	27	432	-3552	16672	79	-69	-47	3240	6672	13288	86	17	-6	-10624	7144	10240	28	14	-17	-496	2576	16664	-44	-23	23	129	146	12
-1020	-8768	13188	8	10	-23	-9656	-8168	8240	-46	22	67	904	-3240	16264	16	-13	-30	4032	8416	12736	95	17	9	-9680	7632	10168	79	24	-23	-80	1912	16104	0	-10	16	127	136	12
-680	-10772	12968	0	5	-39	-9224	-8720	8368	-71	0	60	912	-3448	15832	-25	36	11	4888	9096	13344	13	1	-33	-9584	8280	10720	63	17	15	-120	1704	15920	59	18	8	127	132	12
-264	-10728	13768	60	-9	-19	-9672	-9888	9216	-61	-21	-2	680	-3832	16216	3	61	44	4608	8120	13096	-66	28	-75	-10368	7936	10696	-20	-18	66	-768	1952	16136	59	36	5	126	134	12
-1024	-9240	13280	52	12	5	-10432	-9248	8640	52	-9	-39	472	-4104	16352	71	50	18	3136	8096	13096	-70	34	-76	-10664	7512	9944	-32	-14	67	-1048	2112	16664	28	11	10	126	140	12
-1628	-9316	13612	50	-5	-19	-10296	-8792	8552	137	34	0	240	-3832	16432	94	16	-21	3392	7456	13736	5	0	-35	-10976	7192	10240	59	-3	25	-720	2176	16680	27	-5	20	127	143	12
-440	-9952	13876	31	-22	-35	-10328	-8536	8760	53	-5	38	384	-3592	16832	55	-3	-12	4456	8288	14784	-33	-5	-47	-10960	8136	11424	139	-7	28	-664	1776	17024	53	-31	17	126	137	12
-508	-10816	13968	7	-35	-50	-10792	-9776	9160	-13	-40	1	384	-3664	17064	34	-15	6	4176	7936	14448	-62	16	-72	-11520	8264	11288	-16	-39	63	-928	1960	17760	52	-47	1	125	135	12
-1416	-10788	13744	16	-7	-38	-10824	-9912	8344	15	-32	-43	248	-4184	17184	70	-64	-3	2528	7608	14016	-4	-2	-42	-11416	7560	10624	-50	-40	41	-1104	2176	17976	0	-60	7	127	139	12
-1284	-8960	13432	20	-11	-34	-10608	-9144	8456	38	-15	-6	480	-4496	16744	85	-63	-34	3104	7408	14192	88	-19	-5	-11288	7248	10888	58	-27	16	-552	1984	17296	-2	-44	28	128	145	12
-764	-9800	13476	27	-31	-57	-9936	-9136	8920	1	-6	58	1016	-4296	16880	53	-46	-37	4104	8328	13488	151	-29	15	-10344	7464	10736	99	-8	-8	-48	1464	16384	55	-19	31	128	139	12
-952	-9368	12992	51	0	-24	-9840	-9192	8856	-21	-27	56	1040	-4256	16704	25	-7	2	3368	8352	11976	96	12	-31	-9584	7872	9616	5	21	47	24	1400	16344	90	14	14	127	135	12
-1660	-10892	12912	105	12	-5	-9976	-9592	8296	47	-5	47	720	-4192	16432	45	35	30	3704	8216	12584	12	-4	-58	-10016	7848	10056	-5	19	88	-608	1496	15816	84	41	17	126	136	12
-880	-9084	12840	105	-2	-2	-10168	-9560	8200	93	9	58	416	-4336	15888	74	56	20	2904	7312	12800	-35	19	-89	-10504	6992	9488	14	9	98	-992	1392	15888	80	41	26	124	138	12
-1884	-8744	12004	103	19	5	-10000	-8920	7432	162	30	66	80	-4056	15640	91	68	1	1688	5752	11632	40	27	-88	-10496	6288	8592	-10	34	84	-1096	1320	15264	104	37	24	126	138	12
-2028	-9152	11860	118	27	6	-9400	-7560	6344	220	60	91	-184	-3720	14240	62	98	-8	2392	8168	12656	93	-14	-41	-9736	6136	8544	173	56	56	-1080	1504	14592	119	62	36	126	139	12
-1636	-11560	12848	55	-21	-54	-8992	-8344	6696	135	57	135	-432	-3128	15296	85	43	-12	5128	10344	15096	-128	-18	-98	-11320	8400	11528	293	-35	90	-1304	648	16840	97	-54	7	122	130	12
-692	-12668	13460	164	-11	28	-11728	-10496	8272	-57	-72	7	-496	-3472	16776	121	-96	9	4296	8816	17784	-255	56	-161	-14272	9288	11792	-14	-75	192	-2512	1496	18816	67	-117	-62	127	136	12
-1436	-9908	16148	252	-50	57	-13288	-10696	9512	-5	-70	-153	-648	-4328	17560	236	-206	-18	1016	3496	13816	164	-9	-10	-14288	6432	9288	-327	-78	121	-2080	2792	18648	-13	-39	-26	133	145	12
-2020	-3708	13696	55	35	5	-11752	-6216	7840	219	-25	10	384	-4680	16048	212	-58	-88	664	5552	12656	537	-78	187	-10168	5344	9112	188	-20	-45	-32	2832	17168	11	59	31	134	157	12
-2348	-8480	11820	-128	-33	-152	-7736	-6632	7640	8	18	257	1248	-3360	16824	166	48	-104	5232	9856	11736	526	-110	182	-7672	7544	10680	487	-10	-87	1496	1072	15432	161	82	31	127	133	12
252	-12616	13244	9	-54	-106	-8128	-9944	9552	-322	-81	260	1664	-2696	16560	1	135	63	6672	10520	12040	172	-53	25	-8080	10616	11872	255	-32	74	904	1360	15584	235	113	-26	123	121	12
1140	-12588	12992	245	-11	60	-10160	-12008	9952	-189	-111	-52	1472	-3784	17488	142	107	142	5552	10120	12648	-171	62	-138	-9816	10064	11032	-157	-20	250	-1096	1992	16840	139	94	-41	121	130	12
416	-11820	13268	260	18	88	-11864	-11176	10000	304	14	-127	-80	-4168	18544	298	25	64	3600	9104	15776	-260	35	-184	-13000	7984	10984	-146	-32	243	-2512	3280	18760	36	8	6	123	150	12
-1144	-11444	15240	286	14	117	-12304	-8888	9232	441	68	20	-128	-3704	18520	323	-92	-19	2368	6944	17040	-82	34	-91	-14160	7328	11208	73	-17	128	-2112	3584	19592	41	-107	37	124	143	12
-2248	-10180	16240	106	-26	-6	-12392	-8448	9184	242	52	113	-96	-2920	18776	145	-142	-34	3944	8160	16736	116	-59	32	-13952	9328	12360	299	-43	44	-1656	3296	20384	118	-150	2	125	136	12
-620	-10828	15588	45	-36	-31	-12288	-9040	9840	-18	-36	69	-288	-2368	18392	3	-151	-25	3416	8024	15368	232	-45	86	-12208	10448	11632	144	-77	52	-1768	3944	18616	90	-57	-9	127	139	12
-824	-8940	14680	49	-30	-30	-11496	-8840	8928	-71	-67	11	-384	-2752	17328	3	-88	-37	2840	10136	13544	247	-53	91	-10472	9312	10472	48	-53	30	-1208	3344	17496	56	9	11	129	146	12
-1536	-9972	13220	22	-19	-27	-10512	-8672	7872	17	-31	39	-88	-2768	17816	70	-64	-53	5040	13544	15184	31	-22	38	-10248	9792	11608	75	-27	19	-1152	2672	17600	54	-39	29	128	137	12
-1600	-13508	16136	48	-93	-41	-11616	-10640	9784	-95	-35	11	288	-2856	19776	61	-127	18	7072	12512	18776	-316	-20	-70	-13728	11592	14632	-14	-85	90	-1904	3232	20456	0	-172	7	126	126	12
-272	-13160	18308	127	-111	3	-14280	-11760	12056	-164	-141	-173	288	-3424	20408	80	-130	56	4696	8120	18360	-173	15	-13	-15824	10144	13120	-329	-109	120	-2568	4352	21744	-71	-127	-13	129	137	12
-1764	-6564	16972	-12	-57	-1	-13760	-8624	10984	96	-108	-201	536	-4048	19232	135	-36	-19	744	6776	13440	319	-30	179	-12560	7712	9672	-198	-87	-45	-1656	4856	19736	-70	2	31	133	152	12
-3152	-6292	14252	-175	-50	-106	-10088	-6512	8736	224	15	64	664	-2200	18136	21	122	-60	3984	9576	13032	479	-135	310	-9224	8728	10384	302	-32	-164	544	3704	16760	84	46	83	130	141	12
-1404	-9892	14596	-155	-152	-184	-8736	-8064	9608	-66	-6	156	1336	-1408	16912	-182	164	42	7048	11600	11480	260	-104	212	-7824	10904	11200	222	-57	-96	984	2512	15192	212	17	71	118	125	12
-308	-13644	13704	-40	-84	-42	-9960	-9816	9944	-190	-110	-31	896	-1368	17304	-111	68	119	6120	11544	11032	-140	-2	13	-8440	11320	9960	-213	-56	66	-1352	2888	15416	162	-48	19	114	123	12
-976	-10564	14744	181	-47	116	-11496	-9624	9376	37	-57	-238	-80	-1464	17672	49	-62	84	4056	11704	13440	-431	29	-108	-10728	9976	10048	-253	-61	162	-2616	4416	17080	-56	-119	2	122	135	12
-2240	-8264	16412	116	-78	61	-13264	-8184	9752	162	-17	-202	-392	-1960	18944	144	-224	-60	3224	8560	14880	-409	24	-113	-13536	8800	10624	-126	-97	113	-2768	5432	19080	-203	-219	6	129	153	12
-2168	-6600	16164	-63	-45	-38	-13384	-6816	9560	72	-12	-90	120	-1832	18824	31	-276	-115	1736	5712	15120	-80	-12	25	-13240	8336	11032	24	-68	-52	-1656	5728	19136	-182	-197	-23	130	147	12
-1564	-6724	14056	-245	-26	-133	-11192	-6280	9040	-111	-9	-7	848	-1144	17544	-205	-132	-130	2648	7032	12384	240	-21	146	-10344	8784	10080	57	-34	-188	-16	4840	17224	-84	-85	-30	131	144	12
-1160	-7272	12816	-315	-21	-179	-8616	-7128	8760	-243	-13	10	1488	-1864	16280	-374	80	-85	4320	9608	11248	180	-29	112	-7872	9528	10248	80	13	-233	536	3744	16016	-80	14	-5	132	132	12
-728	-10796	11980	-234	-14	-134	-8112	-8840	8304	-249	-12	-67	936	-2400	15960	-363	159	7	5064	10152	10168	-115	34	-28	-7584	10280	10272	-81	15	-150	-528	2256	14912	-97	13	21	130	132	12
-776	-9640	12148	-67	18	-1	-9840	-9224	7952	-99	29	-173	184	-3064	15784	-241	113	51	4216	9920	11080	-421	125	-185	-8736	9264	9760	-339	84	-62	-1152	2400	15144	-130	-3	38	132	133	12
-1264	-7908	13304	-29	3	4	-10920	-7960	8328	70	94	-196	-32	-3672	16040	-150	97	43	3576	8152	12328	-545	150	-260	-10328	7056	9496	-395	117	-45	-1168	2728	15328	-178	-14	56	132	139	12
-1772	-8576	14284	-129	11	-45	-11016	-7168	8184	-8	84	-123	208	-3536	16600	-92	56	27	2800	7448	13152	-485	143	-231	-10328	6808	9600	-349	114	-45	-1424	2064	17008	-245	-96	62	129	139	12
-2184	-9828	14196	-200	35	-72	-11304	-8560	7992	-224	22	-67	184	-3664	16680	-130	-9	18	2264	6832	14544	-347	104	-174	-12624	7744	10312	-42	64	-80	-1536	1536	17928	-213	-117	47	128	141	12
-1816	-9872	13856	-201	23	-88	-10808	-9552	7936	-255	5	-85	-320	-4248	16584	-183	-58	5	2072	7440	14256	-178	82	-106	-12328	7488	9768	-15	46	-99	-1400	1184	17576	-99	-61	42	131	143	12
-1564	-9396	12980	-186	26	-79	-10592	-9792	8128	-119	31	-67	-120	-4824	16720	-157	-33	-21	2400	7040	13720	-73	67	-61	-11360	7192	9944	10	41	-109	-768	1080	16576	-36	-5	50	129	139	12
-1260	-10472	12632	-115	30	-68	-9952	-9336	7632	-40	39	-22	-152	-4784	16120	-79	12	-32	3192	8112	13144	-22	53	-39	-10352	6936	9616	-15	62	-112	-792	1000	15368	-24	27	65	128	133	12
-1152	-9476	13200	-77	10	-61	-9584	-9128	7872	-53	35	-5	360	-4608	15368	-29	35	-20	3936	8336	12848	-58	37	-56	-10000	6928	9880	-62	54	-77	-480	536	15104	-51	31	60	125	129	12
-624	-10256	12724	-57	5	-36	-9768	-9384	8000	-75	13	-26	160	-4384	15936	13	28	13	3872	9584	13632	-124	42	-74	-10560	7216	10264	-79	19	-4	-1104	176	15728	-64	4	22	123	130	12
-1072	-10200	13452	24	-2	2	-10320	-9992	8048	-77	-9	-66	-16	-4440	16456	20	38	51	2536	7384	13112	-132	58	-89	-11608	6776	9808	-110	-5	54	-1224	696	16256	-54	7	-9	123	138	12
-1832	-8068	12872	59	0	20	-10704	-9256	7776	17	5	-49	-128	-4904	16216	30	52	38	1968	6608	13464	-48	43	-52	-11160	6464	9280	-15	16	51	-1368	1120	16608	-21	16	-11	124	148	12
-1780	-9944	13056	-25	-16	-48	-10208	-9080	7248	87	50	39	-360	-4200	16440	38	54	11	3400	7720	14552	-5	-10	-11	-11616	6984	10608	143	-14	21	-1304	928	16440	31	-9	2	121	147	12
-688	-10780	13112	10	-16	-20	-10376	-9536	7848	-16	3	36	-344	-3856	16120	-4	26	30	3040	8464	14696	4	11	3	-11840	7976	10656	91	-48	46	-1488	1424	17256	40	-50	-25	122	136	12
-1816	-11612	13580	93	-23	13	-10856	-9904	7992	-3	-31	-38	-376	-4200	16584	40	-52	20	3856	7000	14504	30	-2	5	-11840	8056	10576	3	-54	63	-1736	1880	17456	-1	-54	-19	123	140	12
-1268	-9368	14048	83	-33	8	-10984	-9848	8248	4	-33	-46	-136	-4336	16704	121	-110	-20	2952	7344	13728	122	-9	35	-11488	7472	10192	-20	-43	38	-1296	2304	17152	-33	-42	4	125	149	12
-1556	-8848	13892	32	-27	-18	-10896	-8560	8168	11	-20	19	400	-4064	16768	101	-57	-37	3032	7368	13280	174	-29	70	-10456	7472	10416	47	-34	4	-440	2064	16440	3	-44	19	125	142	12
-1136	-9276	13028	-19	-25	-43	-10104	-8640	8344	-30	-24	58	448	-3736	16720	34	-30	-9	3432	9032	12848	153	-14	57	-9824	7960	10192	41	-10	8	-256	2064	16160	67	-26	14	124	133	12
-1196	-10204	12868	-1	-26	-39	-9768	-9136	8456	-49	-27	38	400	-3544	16560	-6	31	35	3744	9344	12504	37	12	-6	-9912	8288	10344	42	-14	46	-568	2016	16216	57	7	8	127	132	12
-1408	-10588	12580	49	-9	0	-10160	-9408	7992	13	-9	12	128	-3736	16616	35	47	47	3344	9608	12976	-55	39	-44	-10416	8120	9864	12	2	74	-1168	1992	16792	30	15	18	125	139	12
-1664	-9540	13516	108	-6	34	-10760	-9336	8296	82	13	6	-144	-4016	16216	68	30	35	2440	7520	12880	-64	44	-70	-11112	7784	9648	-22	14	65	-1360	2144	16472	19	15	33	127	141	12
-2276	-8448	13008	54	-2	12	-10952	-8048	7608	130	24	30	-208	-3624	15784	69	15	13	2536	7104	13456	-27	33	-49	-10856	7224	9688	-1	46	34	-1320	2176	16016	58	20	53	127	139	12
-1664	-9976	12892	-14	-3	-39	-10816	-8064	7160	138	31	45	-224	-3176	15848	42	37	18	3272	8128	13728	-21	16	-36	-11040	7424	9696	45	26	6	-1176	1736	16048	66	-5	52	126	133	12
-1148	-9324	12732	31	6	7	-9800	-8328	7440	-14	-1	37	-120	-3280	15672	16	37	37	3040	8464	13752	-7	34	-25	-11152	8016	9800	70	1	40	-1552	1888	16840	45	-15	23	125	133	12
-1144	-9704	13604	72	-28	16	-10640	-8816	8120	-41	-21	-15	-176	-3504	16208	58	-13	20	2912	8352	13928	-9	36	-18	-11632	7968	9960	58	-28	67	-1496	2168	16904	3	-12	9	128	140	12
-1740	-10276	13968	65	-17	13	-11272	-8720	8680	-22	-10	-21	-120	-3432	17048	120	-63	-7	3208	8440	13640	66	11	8	-11416	8040	10088	36	-28	38	-1152	2448	17328	-15	-10	15	129	144	12
-1432	-8316	13612	29	2	13	-11264	-8448	8736	-50	-8	9	48	-3552	17136	100	-43	-7	2800	7440	13144	93	20	11	-10616	7800	9888	-20	18	16	-912	2584	16720	6	16	13	127	139	12
-2088	-8948	13268	-12	-7	-20	-10328	-8552	8416	-23	15	43	344	-3128	16976	53	17	6	3520	8328	12576	99	15	22	-10104	7752	9600	-5	33	-2	-768	2312	16304	26	34	15	126	135	12
-1156	-9768	13224	-6	1	-20	-9904	-8696	8392	-30	17	48	480	-3200	16512	5	68	39	3864	9144	12680	50	22	-6	-10240	8304	9936	68	23	27	-856	1984	16208	27	34	2	125	137	12
-1180	-10084	13680	66	3	21	-10208	-9264	8464	-23	-3	18	312	-3232	16392	12	69	40	3920	9000	12688	40	23	-14	-10712	8776	10352	67	12	61	-1440	2360	16568	10	20	-3	125	139	12
-1812	-8456	13400	71	11	35	-11080	-8856	8352	75	11	-12	-160	-3432	16624	59	34	33	2568	7952	12936	-15	51	-55	-10856	7944	9144	-37	29	67	-1560	2704	16136	10	28	11	126	142	12
-2476	-8728	13572	43	15	7	-10840	-8168	7728	127	52	30	-440	-3088	16488	59	33	6	3352	9040	13680	-27	30	-44	-10736	7912	9968	64	31	18	-1464	2504	16328	18	6	28	126	142	12
-1336	-10296	13692	13	-3	-11	-10520	-8480	7928	46	28	57	-360	-2904	16376	37	17	2	3296	8848	13872	-84	40	-50	-11400	8784	10288	37	14	24	-1824	2096	16856	36	-32	16	125	136	12
-1948	-10400	13836	15	-5	-17	-11152	-8864	7976	-24	-18	-6	-528	-3128	16728	-8	-25	9	3480	8848	14464	-75	28	-54	-11968	8760	10120	-27	4	40	-1928	2528	17144	11	-44	3	128	136	12
-1344	-9544	14308	32	-14	-2	-11464	-8856	8408	-6	-20	-44	-328	-3400	16888	40	-67	-19	3064	8296	14608	-12	22	-21	-11928	8128	10464	-3	-21	24	-1616	2648	17296	-31	-45	12	131	144	12
-1768	-9820	14776	0	-27	-38	-11576	-8544	8832	-40	-16	-18	-8	-3600	17224	62	-63	-39	3808	7552	14480	44	-16	11	-11416	8216	11168	71	-42	-16	-896	2504	17672	-34	-25	26	130	140	12
-1028	-9356	13748	-55	-27	-64	-10992	-8976	8888	-109	-39	-4	248	-3416	17696	11	-6	-26	3480	8656	13280	82	-1	23	-10568	8352	10072	-23	-6	-29	-680	1968	17000	7	-4	18	129	136	12
-1096	-8696	13572	-36	-19	-51	-10320	-9008	8568	-63	-24	-11	288	-3744	16528	-59	66	23	3472	9008	12872	33	4	-1	-9992	8304	10208	-38	6	-9	-752	1888	16128	38	25	31	129	134	12
-1152	-9844	13208	-40	-28	-54	-9960	-9080	8648	-7	-11	-7	256	-3816	16792	-24	75	40	3464	9280	12824	-50	21	-41	-10280	8176	10248	-24	-9	30	-1072	1696	16472	43	-5	34	127	136	12
-1444	-9776	13340	37	-15	-7	-10640	-9280	8416	28	-16	-20	0	-3880	16896	47	20	37	3056	8400	13240	-106	38	-76	-11120	7944	9744	-37	3	60	-1408	1792	16472	22	-24	28	127	137	12
-1824	-8236	13332	22	-12	-14	-10928	-8760	7992	89	6	-13	-208	-3944	16296	73	-16	11	2256	7872	12984	-51	28	-63	-10960	6968	8976	-39	10	48	-1448	2320	16144	18	-21	33	127	143	12
-2124	-9384	12916	-25	-9	-41	-10568	-8336	7624	126	30	38	-344	-3208	16488	53	-18	-13	3352	8672	14536	-55	-7	-34	-11272	7704	10144	96	-8	17	-1416	1664	16536	17	-42	34	125	141	12
-1076	-10276	13248	0	-26	-26	-10376	-9264	8016	28	-11	25	-256	-3080	16448	4	-30	-4	3200	8656	14496	-62	18	-34	-12016	8200	10448	54	-37	29	-1720	1992	17160	18	-76	-3	124	134	12
-1484	-9836	14048	56	-27	4	-11160	-9112	8432	-4	-44	-45	-168	-3616	16656	13	-76	-18	2880	7984	14224	12	5	-3	-11936	8112	10168	-3	-53	47	-1552	2480	17648	-3	-58	-12	128	141	12
-1968	-9260	13920	41	-25	-15	-11368	-8400	8400	15	-30	-42	48	-3608	17192	71	-82	-43	2448	7856	13352	125	-3	34	-11232	7616	9920	6	-43	11	-840	2704	17272	-37	-20	6	128	147	12
-1432	-9140	13372	4	-18	-31	-10736	-7992	8488	-44	-1	30	256	-3432	16920	52	-32	-37	3400	8040	13568	136	-23	48	-10264	8048	10624	65	-5	-31	-440	2296	16456	-6	10	19	127	140	12
-1100	-9032	12972	-38	-20	-52	-10088	-8600	8464	-118	-25	35	632	-3456	16704	-18	54	25	3656	8800	12288	90	6	11	-9648	8136	10280	-18	19	-5	-264	2000	16000	53	32	16	125	129	12
-1396	-9680	12740	-20	-1	-38	-9832	-9128	8264	-63	-4	4	696	-3520	16480	-14	111	58	3696	8608	12280	-29	29	-32	-9904	8144	9840	-11	12	28	-864	2160	16112	46	35	14	126	133	12
-1072	-9644	12880	28	-1	-5	-10064	-9352	8472	18	12	-7	272	-3696	16424	40	97	50	3248	8832	12952	-107	47	-75	-10872	8088	9952	11	5	55	-1152	2232	16616	5	14	18	126	140	12
-1256	-9056	13236	66	4	24	-10560	-9120	8352	68	11	-8	-128	-3680	16312	60	42	22	2368	7712	13352	-98	57	-74	-11464	7784	9888	16	18	44	-1328	2552	16888	-17	-1	24	127	143	12
-2204	-8384	13140	47	10	24	-10952	-8352	7616	112	35	5	104	-3272	16240	33	3	-3	2336	8120	13504	6	48	-32	-11064	7624	9240	21	41	9	-1432	2608	16280	-6	8	34	127	143	12
-1952	-8948	13544	-6	9	-2	-10336	-7912	7792	66	49	46	-40	-2896	16248	-5	-6	-13	3216	8040	13872	-15	34	-33	-10824	8120	10456	70	32	-9	-1120	2192	16432	-10	1	29	127	141	12
-1316	-10248	12852	15	8	7	-10384	-8448	7936	-36	18	30	-232	-2816	16336	-14	-20	8	3416	8328	13512	-15	49	-29	-11136	8368	9928	-6	30	12	-1656	2128	16416	-5	-14	19	126	136	12
-1232	-9280	13880	33	-4	13	-10632	-8704	8000	-74	0	-19	-256	-3416	15912	5	-22	17	2680	7384	13048	5	48	-34	-11088	7800	9504	-49	7	17	-1432	2408	16304	-20	-6	18	127	138	12
-1616	-8544	13088	10	18	7	-10696	-7808	7856	-49	-1	-11	56	-3520	16200	57	-6	4	2880	8672	13120	33	37	-9	-10368	7592	9528	19	15	-6	-1160	2408	15976	-31	8	26	128	141	12
-1400	-9624	13440	-19	-12	-29	-10024	-8328	8096	-79	20	21	144	-3040	16312	52	23	13	3616	8544	13136	20	29	-6	-10288	7872	10160	56	15	-9	-792	2072	16016	-12	15	22	126	138	12
-1068	-9708	13496	-15	-9	-26	-10304	-9024	8368	-109	-21	4	248	-3232	16248	0	64	41	3432	8424	12720	-21	38	-35	-10208	8112	9896	-28	14	17	-1160	2080	16432	15	22	3	126	133	12
-1216	-9456	13172	-12	1	-6	-10488	-8968	8608	-97	-24	-3	40	-3416	16472	11	67	41	3304	8704	13264	-57	37	-35	-10768	7960	10080	2	2	34	-1384	2128	16768	22	18	9	127	137	12
-1416	-9132	13460	6	-6	-8	-10456	-8888	8416	56	16	-17	-8	-3416	16544	46	44	21	2616	7992	13048	-20	45	-42	-10976	7968	9896	26	1	29	-1400	2592	16680	-4	3	17	127	142	12
-1380	-8708	13344	4	12	7	-10792	-8504	8064	62	24	5	56	-3256	16488	46	6	1	2856	8664	13240	-6	37	-29	-10840	7920	10000	62	17	7	-1176	2680	16712	-16	-9	18	126	140	12
-1564	-8896	13244	2	13	2	-10640	-8424	8088	39	29	24	-112	-3136	16528	15	-8	1	3160	8288	13216	4	41	-33	-10680	8200	9968	13	35	-3	-1248	2176	16432	-10	3	24	126	141	12
-1576	-9816	13392	-5	12	-10	-10400	-8312	7864	-19	27	27	-208	-3264	16248	-36	4	9	3752	8400	13520	-55	38	-46	-10680	8280	10184	-9	30	-3	-1408	2288	16240	-15	-9	22	126	137	12
-1516	-10552	13380	-21	4	-9	-10576	-9192	8096	-48	16	8	-272	-3280	16512	-20	-11	11	3616	9272	13944	-127	59	-59	-11536	8168	10208	-61	21	16	-1920	2112	17056	-38	-49	16	126	137	12
-1816	-10784	14480	28	-8	6	-11016	-9392	8040	-40	4	-34	-416	-3632	16776	3	-49	5	3256	8136	14776	-101	34	-49	-12360	8352	10616	-37	-10	14	-1712	2464	17984	-66	-68	14	128	139	12
-984	-9144	14384	36	-20	20	-11560	-9000	8480	-40	-20	-57	-160	-3728	17152	37	-71	-14	2616	8472	15200	-25	30	4	-12264	8496	10728	8	-25	7	-1536	2464	18120	-69	-49	14	128	142	12
-1788	-9000	14304	-19	-32	-15	-11552	-8784	8776	-38	-17	-45	96	-3456	17664	21	-39	-8	3056	8152	14416	63	20	34	-11384	8232	10472	-8	-8	-16	-968	2592	17496	-35	2	24	128	140	12
-1836	-9660	14472	-54	-24	-44	-10936	-8584	8680	-71	-16	-11	392	-3448	17384	0	27	11	3552	9000	13192	97	-2	58	-10520	8216	10136	15	-13	-38	-808	2208	17040	27	29	25	126	135	12
-1344	-9912	13684	-62	-21	-46	-10648	-9048	8640	-78	-17	2	368	-3392	17248	-10	84	41	4272	9376	13080	14	10	22	-10112	8856	10384	44	-12	-6	-808	2352	16560	40	24	29	125	133	12
-904	-9828	13884	-18	-31	-20	-10600	-9608	9264	-44	-14	-23	264	-3144	17328	14	66	53	3968	9696	13488	-105	34	-31	-10712	8824	10568	-21	-9	29	-1312	2536	16960	20	-10	18	124	135	12
-1744	-10136	13936	20	-17	9	-11128	-9368	8984	33	-4	-49	-224	-3176	17416	13	15	38	3112	8896	13728	-124	40	-48	-11320	8688	10288	-72	4	35	-1848	3224	17008	-26	-42	18	124	140	12
-1680	-9048	13940	17	-15	-4	-11424	-8504	8328	80	21	-39	-192	-3104	16912	-10	-32	1	2568	7632	13280	-53	33	-28	-11304	7712	9384	-102	24	-4	-1776	3200	16792	-73	-40	22	127	146	12
-1824	-8444	13772	-37	-9	-33	-10672	-7736	7992	55	28	9	-432	-2792	15872	-55	-33	-34	3240	7856	13312	-18	9	-5	-10536	7904	9864	23	13	-49	-1304	2496	15920	-65	-49	28	127	143	12
-1564	-10060	13296	-73	-23	-52	-10184	-8400	7672	-38	8	11	-296	-2688	16280	-94	-32	-28	3840	8944	13376	-74	12	-21	-10752	8584	10056	16	-18	-28	-1400	1880	16480	-28	-84	10	126	136	12
-832	-10632	13788	4	-20	-22	-10752	-9208	7952	-100	-38	-68	-360	-3472	16400	-91	-49	-4	3440	8336	13672	-122	18	-39	-11216	8568	10376	-56	-33	8	-1544	2248	16888	-31	-79	-6	128	136	12
-1684	-9036	14096	-26	-25	-32	-11464	-8696	8240	-42	-39	-106	-56	-3832	16856	-11	-60	-24	3104	8240	13968	-96	16	-39	-11416	7720	10288	-74	-31	-13	-1480	2304	17056	-36	-65	4	129	141	12
-1684	-8768	13476	-95	-24	-60	-10928	-8368	8248	-30	-16	-47	88	-3632	17112	16	-29	-30	3040	7968	14000	-50	12	-5	-11176	7704	10432	-42	-5	-49	-640	2240	17080	-78	-44	34	128	138	12
-1532	-8932	13352	-154	-25	-99	-10264	-8480	8224	-97	-27	-23	456	-3784	16656	-60	32	3	2512	7768	12752	3	16	-6	-10360	7456	9944	-49	17	-67	-432	1752	16632	-30	-2	42	128	134	12
-1208	-8524	13240	-163	-28	-104	-9768	-9016	8040	-94	-27	-19	656	-4056	16224	-90	82	41	3744	8952	12600	-47	30	-28	-10208	7760	9880	-5	14	-37	-536	1592	16664	-16	3	46	127	134	12
-1232	-10460	12620	-76	-12	-49	-9608	-9640	7960	-55	4	-20	584	-4296	16400	-45	64	62	3224	8584	12992	-130	54	-61	-10784	7728	10376	-2	1	7	-800	1288	16440	11	-7	36	125	136	12
-1396	-10392	12692	-1	3	5	-10384	-9632	7960	-5	4	-31	360	-4408	16248	28	22	44	2272	7424	12584	-135	67	-84	-11152	7376	9592	-77	31	25	-1048	1712	16384	-23	-8	33	125	139	12
-1848	-8620	12332	26	22	22	-10440	-8584	7496	89	45	-9	40	-4256	16040	47	10	8	1968	6856	13024	-49	65	-55	-10728	6528	8968	-69	71	-1	-1240	1720	15840	-40	14	44	126	144	12
-1616	-8052	12580	-11	1	1	-9544	-8256	7456	63	72	50	-72	-3688	15552	0	15	-6	2904	7704	13248	-25	46	-35	-10728	6928	9480	48	69	-19	-1168	1360	15640	-33	3	37	124	142	12
-1584	-10720	12556	6	5	9	-9664	-8792	7360	-50	33	52	-8	-3544	16008	-38	4	18	3456	8288	13784	-72	54	-45	-11384	7840	9872	50	28	16	-1544	896	16312	-9	-31	2	123	135	12
-1236	-10904	12516	17	0	12	-10600	-9520	7776	-75	-1	-20	-376	-3800	15992	-16	-43	30	3688	8696	14200	-77	53	-55	-11912	8104	9944	-18	-1	60	-2000	1736	16880	-17	-30	-19	126	139	12
-1252	-9108	14136	114	-2	59	-11664	-8720	8080	0	-1	-58	-544	-4064	16568	71	-49	-4	2360	7184	13792	67	25	2	-11432	7072	9584	-20	-22	35	-1536	2344	16584	-51	12	0	128	145	12
-1852	-7980	13404	13	2	8	-11096	-7744	7872	13	16	11	-168	-3704	16720	89	-17	-35	2616	7344	13120	135	10	32	-10416	7144	9488	61	-1	-14	-824	2288	16104	-27	29	15	127	144	12
-1452	-9428	13400	-33	-6	-48	-10040	-8208	8064	-68	18	65	96	-3208	16320	31	55	-6	2752	7712	13392	140	7	45	-9944	7792	10048	107	6	-34	-312	1736	15704	48	44	6	125	133	12
-1096	-9788	12580	-46	-2	-40	-9560	-8760	8232	-126	-29	29	352	-3384	16392	-27	117	50	3880	9976	12576	16	28	-16	-9744	8432	10072	63	9	19	-736	1880	16368	61	50	-8	126	130	12
-896	-10352	12908	-15	5	-15	-10152	-9848	8296	-24	8	-14	120	-3752	16784	23	89	63	3912	9056	13816	-147	53	-82	-10984	8648	10704	26	-5	64	-1512	2256	17248	9	11	-2	126	139	12
-1556	-11132	14056	64	-9	24	-10976	-10288	8768	28	2	-55	-224	-3800	17176	75	-8	37	3232	9216	14928	-164	47	-92	-12504	8704	11088	-28	-10	63	-1848	2480	18504	-62	-52	13	127	144	12
-1512	-10020	14660	68	0	31	-12488	-9528	9040	81	4	-59	-448	-4144	17720	67	-84	-4	2464	7520	14960	-67	50	-67	-12784	7888	10608	-98	28	23	-1880	2560	17904	-64	-49	31	129	146	12
-1856	-8044	14024	-15	-1	-30	-11832	-8296	8256	96	31	-1	-536	-3904	16904	9	-54	-22	2296	6824	13696	76	25	0	-11232	7032	9552	-63	50	-50	-1000	2088	16736	-9	-9	60	129	143	12
-2268	-9432	12928	-120	8	-84	-10080	-7984	7400	-10	29	79	-216	-3512	16120	-48	16	-11	3336	8216	12816	70	9	14	-9904	7280	9784	68	33	-63	-936	1328	15816	34	-24	60	126	133	12
-1208	-11180	12704	-71	-13	-58	-9328	-9296	7472	-142	-15	57	-208	-3648	15656	-61	24	31	4832	9968	14224	-76	12	-39	-10768	8616	10576	96	-12	16	-1096	976	16480	38	-45	31	125	129	12
-576	-12332	14356	73	-50	-6	-10728	-10848	8528	-152	-62	-48	-240	-4312	16672	25	-42	43	3928	8864	14504	-165	31	-91	-12248	8640	10664	-68	-52	95	-1872	1464	17664	2	-47	14	128	137	12
-1568	-9616	14448	102	-19	24	-12208	-9776	8712	39	-51	-109	-160	-4784	17440	116	-69	0	2168	7440	15048	-92	20	-49	-12504	7336	10448	-137	-30	75	-1744	2128	17688	-30	-32	26	128	144	12
-1736	-7880	14208	4	-40	-39	-11520	-8464	8200	134	-4	-19	160	-4240	17288	110	-29	-40	2112	6624	14520	86	-25	29	-11728	6448	9768	-19	-19	-9	-1072	1880	17048	24	-21	35	127	141	12
-1732	-8784	13028	-93	-37	-95	-10096	-8416	7816	36	-14	71	264	-3688	16744	3	40	-19	2944	8056	13280	166	-30	74	-10672	7240	10208	144	-32	-24	-464	1352	16616	86	-2	15	125	133	12
-1244	-10656	12828	-46	-41	-80	-9376	-9232	8232	-49	-28	46	456	-3480	15976	-35	63	27	4168	9152	12520	84	-31	39	-10128	8352	10432	163	-56	38	-680	1472	16552	87	5	-3	124	135	12
-856	-11364	12732	49	-25	-7	-9976	-9896	8488	-27	-45	-15	248	-3712	16632	27	22	42	3568	8864	13024	-42	0	-11	-10696	8880	10592	51	-58	92	-880	2216	16912	32	-12	-7	124	141	12
-1608	-9456	13120	129	-18	47	-11008	-9432	8216	56	-25	-54	-48	-3792	16968	94	-39	22	2816	7904	13504	-49	25	-38	-11064	7960	10064	-100	0	72	-1400	2664	16776	-36	-33	17	127	144	12
-1872	-7668	13340	68	-19	9	-11160	-8288	7952	120	27	-3	-320	-3624	16552	78	-63	-19	2688	7408	13560	4	16	-22	-11128	7256	9664	-99	42	14	-1384	2304	16688	-32	-42	30	128	146	12
-1732	-9840	13268	-15	-28	-43	-10304	-8144	7744	38	24	69	-264	-3288	16320	3	-44	-23	3392	8696	13760	-5	6	-6	-11184	7688	10152	17	20	3	-1376	1760	16592	-8	-76	29	126	137	12
-952	-10408	12988	22	-11	-6	-10200	-8984	7888	-61	-26	22	-360	-3416	16328	-37	-48	13	2928	9384	13976	-38	31	-18	-11560	8384	10072	29	-11	45	-1640	1976	17152	21	-71	4	127	136	12
-1704	-9948	13988	65	-33	22	-11024	-9304	8312	-31	-39	-49	-112	-3792	16904	39	-70	9	3136	7912	14504	-33	17	-28	-11960	8376	10576	68	-40	56	-1424	2496	17744	-9	-44	18	129	138	12
-1592	-9776	14364	44	-27	-3	-11864	-8968	8784	3	-23	-49	-192	-3936	17192	55	-69	6	3128	7888	14392	24	9	-8	-11592	8320	10688	61	-51	25	-952	2792	18016	-21	-5	21	128	139	12
-1656	-9216	14200	-27	-14	-39	-11496	-8656	8840	-34	-12	-10	176	-3488	17904	77	7	-12	3152	7464	13720	58	9	8	-11032	8184	10528	0	0	-27	-680	2632	17336	6	30	23	127	136	12
-1516	-9468	13308	-80	-13	-78	-10584	-8928	8272	-46	-1	28	472	-3432	16960	-19	98	15	3376	7880	12800	77	16	9	-10224	7864	10064	-47	36	-44	-576	2256	16608	50	66	33	127	134	12
-1212	-10200	12732	-72	1	-61	-9592	-8768	8336	-15	17	28	376	-3552	16136	-66	133	54	3696	8432	12312	11	30	-25	-9808	7744	10040	17	40	-14	-832	1792	16016	58	51	37	126	135	12
-840	-9884	12404	-29	14	-24	-9456	-9024	7720	17	27	17	304	-3536	15584	-27	105	57	3232	9016	12864	-96	51	-72	-10128	7824	9880	27	29	22	-1104	1728	15776	27	9	29	125	136	12
-1384	-10708	12832	47	11	17	-10312	-9344	7896	21	20	-16	-208	-3584	16128	21	36	36	3368	8320	13456	-169	53	-113	-11272	8024	9864	-23	17	48	-1544	1880	16288	-35	-33	21	127	140	12
-1576	-8964	13236	92	1	40	-11208	-9056	7864	41	26	-47	-560	-3704	16328	18	-23	9	2224	6768	13752	-124	69	-93	-11648	7240	9336	-89	27	33	-1920	2152	16384	-74	-39	17	127	145	12
-2364	-9216	13748	14	-1	-7	-10960	-8296	7416	54	33	-17	-776	-3808	16256	5	-50	-39	2592	7672	14736	-92	28	-52	-11808	7368	10056	6	23	-2	-1824	1752	16776	-63	-57	20	126	143	12
-1800	-10004	13344	-44	-7	-35	-10864	-8704	7656	-28	0	9	-632	-3504	16320	-19	-63	-38	2592	8336	14616	-39	36	-21	-12200	7704	10192	6	-7	-12	-1768	1544	17288	-31	-78	0	126	138	12
-1812	-10396	13576	-26	-13	-19	-10816	-9168	7888	-83	-23	-32	-448	-3744	16624	-14	-77	-22	3200	8392	14296	14	19	6	-12064	7912	10400	17	-34	-1	-1472	1872	17816	-25	-66	-3	127	138	12
-1224	-9724	14040	-9	-26	-14	-11000	-9144	8464	-65	-27	-56	160	-4064	17048	23	-56	-11	3040	8088	13848	86	1	37	-12064	8160	10360	6	-34	1	-1016	2136	17336	-33	-8	18	128	141	12
-1420	-9312	13636	-30	-23	-20	-10856	-8760	8456	-70	-18	-29	304	-4072	17296	36	-5	9	3080	9224	13600	87	6	31	-10584	8120	10248	22	-8	-25	-680	2000	16880	-26	14	24	126	137	12
-1756	-9544	13772	-45	-21	-34	-10840	-9176	8720	-65	-13	2	264	-3856	17536	23	58	34	3040	8008	12928	31	12	-2	-10272	8208	10248	-13	11	-6	-664	1632	16328	20	37	23	124	133	12
-1664	-9816	13160	-29	-8	-34	-10840	-9456	8480	-36	-6	-2	56	-3952	17064	15	79	59	3392	9912	12904	-55	37	-43	-10496	8160	9760	-42	25	23	-1280	1744	16416	38	22	21	124	133	12
-1936	-9936	13532	-1	-8	-21	-10864	-9944	8408	53	25	-2	-304	-3904	16848	30	63	52	3200	8552	13896	-134	34	-86	-11424	7816	10176	11	7	50	-1864	1648	17216	30	-14	18	124	140	12
-1904	-10984	14064	17	-1	-13	-11176	-9736	8424	87	21	-3	-416	-3872	16920	34	7	23	2912	8160	14744	-138	26	-84	-12528	8104	10496	33	-9	49	-2016	1984	17912	3	-59	13	125	142	12
-1900	-10248	13636	44	-5	6	-11520	-9376	7704	93	10	-20	-744	-3736	16800	21	-51	-10	2080	7000	14992	-67	30	-52	-12608	7816	9976	-19	-2	26	-1992	2160	17728	-18	-50	12	127	143	12
-2196	-9516	13764	8	-14	-34	-11320	-8560	7496	85	18	-5	-760	-3648	16624	-9	-55	-44	2808	8200	14416	25	-3	-6	-11712	7640	9856	17	5	-24	-1776	2072	17176	-34	-40	22	129	142	12
-1728	-10572	13768	-34	-19	-56	-10992	-8848	7608	-16	-2	13	-912	-3464	16608	-42	-53	-43	3272	8640	14968	-28	-8	-9	-11688	8448	10760	34	-22	-11	-1632	1544	16928	-23	-67	15	128	137	12
-1492	-11068	13804	8	-24	-29	-11088	-9560	8096	-122	-54	-43	-680	-4000	16864	-48	-68	-19	2936	9296	15184	-89	9	-28	-12080	8512	10440	-50	-36	19	-1680	1576	18040	-25	-85	2	129	135	12
-2024	-10372	14260	40	-50	-20	-11824	-9816	8400	-98	-61	-95	-512	-4592	17488	19	-81	-12	3152	8192	15304	-57	2	-15	-12560	8128	10872	-92	-47	28	-1792	1808	18184	-49	-74	16	130	140	12
-1972	-10608	14624	2	-54	-54	-12216	-9608	8552	-65	-57	-70	-320	-4680	18064	62	-58	-2	2840	7552	15224	-3	-3	-7	-12360	7800	10704	-61	-42	-3	-1272	1800	18120	-49	-51	32	129	140	12
-1844	-9940	14380	-50	-39	-75	-11624	-9760	8640	-56	-33	-24	-24	-4536	17944	40	6	12	3216	7840	14408	43	-32	24	-11784	7968	10552	21	-32	-12	-1024	1496	17824	24	-10	29	127	136	12
-1612	-10020	13748	-63	-34	-77	-10824	-9864	8784	-32	-32	-7	168	-4176	17552	-9	51	41	2896	8616	13576	9	-3	11	-11376	8280	10336	31	-28	7	-1080	1472	17360	69	11	28	124	133	12
-1616	-10708	13340	-29	-33	-59	-10704	-10056	8240	59	-8	-15	-168	-4064	17072	4	48	52	2880	9384	13944	-21	-6	-2	-11384	8112	10232	16	-32	31	-1584	1632	17248	76	-1	29	124	136	12
-1704	-10416	13356	43	-28	-7	-10640	-10120	8296	71	-6	-23	-272	-4016	16992	39	7	35	2696	9240	14040	-55	12	-15	-11392	8048	10032	4	-20	48	-1696	1896	16592	39	-34	31	124	139	12
-2100	-10412	13960	67	-44	-17	-11336	-9168	8104	116	1	-5	-496	-3736	16656	63	-49	-2	2232	7712	13512	-26	5	-26	-11744	7448	9680	-54	-11	35	-1984	2192	16608	-4	-54	26	124	141	12
-2284	-8708	13220	37	-20	-13	-11144	-8384	7744	74	-4	7	-608	-3432	16384	23	-68	-31	1592	6584	13064	17	-4	-16	-11088	7160	8936	-46	-6	18	-1776	1976	15800	-12	-54	15	126	142	12
-2392	-9240	12708	-16	-22	-42	-10472	-8120	6848	26	6	33	-624	-3232	15864	-18	-46	-55	3400	8928	14104	-39	-18	-9	-11056	7584	9672	82	-23	8	-1512	1680	16360	-10	-83	4	125	139	12
-1568	-11624	13608	17	-54	-48	-10600	-9608	7712	-56	-31	1	-784	-3264	16512	-42	-77	-33	3480	9280	14824	-113	-6	-38	-12488	8664	10600	25	-68	48	-1960	1400	17512	-15	-118	-21	127	137	12
-1968	-10856	14456	61	-43	-15	-12008	-9568	8096	-49	-67	-103	-632	-4176	17056	-7	-98	-26	2240	6880	14888	-73	-14	-28	-12824	7848	10560	-82	-68	54	-1984	2440	18352	-45	-85	-16	130	141	12
-2148	-7876	13972	-3	-32	-32	-11992	-8472	8160	31	-41	-92	-344	-4400	17192	54	-63	-49	1640	6632	14240	74	-19	30	-11944	7416	9968	-43	-40	-26	-1288	2288	17920	-63	-37	22	132	143	12
-2156	-9424	13156	-110	-36	-100	-10648	-8296	7896	-15	-11	5	-112	-3896	17256	15	5	-31	2920	8288	13128	87	-16	48	-10888	7528	10096	38	-18	-71	-496	1776	17000	-6	-4	41	129	134	12
-1944	-10668	12924	-97	-32	-101	-10056	-9136	7928	-123	-32	18	432	-3920	16528	-60	81	50	3888	9344	13032	15	-16	7	-10256	8376	10440	56	1	-41	-528	1184	16968	53	23	34	127	129	12
-1392	-10272	12676	-50	-19	-50	-10304	-10080	8488	-92	-41	-37	256	-4312	16880	-28	72	81	3224	9352	13040	-119	44	-64	-10800	8376	9944	-54	7	34	-1368	1288	16656	46	10	29	125	134	12
-1700	-10888	13208	34	-7	0	-10920	-10256	8032	52	12	-61	-296	-4472	17008	56	33	57	2784	7512	14112	-184	51	-104	-11760	7576	9944	-113	12	56	-1816	1696	16968	3	-12	43	126	140	12
-2116	-9400	13712	37	-7	4	-11272	-9248	7760	111	32	-19	-400	-4344	16888	77	-16	14	1664	7128	13488	-73	49	-64	-12128	6928	9408	-69	29	15	-1872	1776	16888	-29	-43	43	125	141	12
-2320	-8420	12712	9	12	2	-11000	-8344	7184	89	33	27	-632	-3736	16360	22	-30	-19	1272	6632	13320	34	25	-23	-12144	6584	9232	-69	29	11	-1728	1576	16248	-28	-17	31	125	141	12
-1856	-8960	12264	2	1	-23	-10320	-8208	6984	14	36	57	-688	-3400	15760	-46	-8	-23	2272	7800	13136	63	14	-12	-10640	7096	9048	96	34	-10	-1392	1232	15512	-2	-2	29	125	140	12
-1800	-11552	12540	28	-8	-14	-10072	-8896	6680	-31	15	42	-736	-3400	15600	-53	-4	-17	3312	10184	13608	-49	20	-39	-11176	8264	9760	92	-8	33	-1992	1088	16064	9	-38	10	123	136	12
-1920	-12428	13512	105	-15	24	-11280	-9496	7456	-40	-9	-29	-1216	-3984	16304	15	-61	-2	2624	8000	14568	-132	36	-72	-12480	8088	10016	-48	-21	67	-2552	1440	16896	-14	-52	-11	126	137	12
-2636	-9728	14328	116	-24	29	-12280	-9016	7944	14	-13	-63	-1208	-4152	17000	84	-71	-27	1848	6840	14752	-25	24	-48	-12728	7288	9224	-109	-15	39	-2448	1872	17488	-44	-46	3	128	142	12
-2272	-7684	14044	12	-2	-20	-12224	-8928	7856	13	-7	-66	-792	-4152	16976	80	-32	-35	1152	7576	13944	84	-6	4	-11872	7016	9592	22	-7	-20	-1640	1840	17120	-35	-14	15	129	142	12
-2724	-9592	12972	-67	-4	-74	-10912	-8504	7256	-28	-4	47	-608	-3752	17176	18	27	-11	2360	8392	13432	104	-3	20	-11168	7752	9744	131	3	-24	-1336	1048	16840	35	17	10	127	135	12
-2084	-11120	12828	-54	-2	-79	-10648	-9520	7840	-77	-25	33	-392	-3952	16648	-35	83	41	3240	9696	13208	5	8	-24	-10872	7992	9808	79	-4	20	-1384	1088	16512	85	34	4	127	132	12
-2292	-11040	13104	-7	1	-48	-10712	-10160	7880	-5	-11	-17	-720	-4424	16784	22	70	53	3016	8384	13664	-103	47	-100	-11648	8040	9696	-28	1	59	-1872	1648	16736	46	25	12	126	137	12
-2148	-10456	13012	23	15	-19	-11328	-9688	7272	92	31	-25	-952	-4328	16512	89	31	29	1928	7984	14288	-130	41	-101	-12384	7424	9456	-65	15	41	-2416	1432	17232	-6	-7	36	127	142	12
-3064	-10072	12928	44	4	-2	-11280	-8792	7208	100	41	1	-1008	-4184	16504	73	-9	12	1376	7704	14312	-38	48	-60	-12568	7152	9128	-56	53	1	-2360	1368	17040	-31	-33	45	127	142	12
-2976	-8500	12964	18	4	-2	-10888	-8592	7048	44	31	29	-1048	-4040	16216	-6	-21	6	1152	7896	13136	52	38	-36	-11736	7120	8280	-37	61	-4	-2120	1040	16040	-19	-4	39	127	141	12
-2748	-9300	12196	19	19	-6	-10888	-8208	6336	4	24	45	-1048	-3968	15752	-37	-4	12	1600	9064	13128	62	20	-21	-10992	7080	8536	72	52	12	-2056	848	15416	12	13	38	127	139	12
-2808	-10784	12508	50	-21	0	-10624	-8312	6288	-3	25	46	-1320	-4128	16248	10	-19	9	2720	9752	14128	-74	32	-62	-11896	8008	9760	117	-3	47	-2448	624	16464	25	-35	19	124	136	12
-2960	-10864	13344	79	-28	15	-11760	-9848	7232	-48	-14	-5	-1648	-4256	16976	70	-58	1	2288	8008	15232	-107	41	-90	-12984	8320	9968	-29	-13	92	-3080	1136	17368	21	-48	-7	124	136	12
-2488	-10264	14240	95	-20	12	-12640	-9432	7744	19	-15	-43	-1440	-4264	17064	115	-58	-9	968	7368	14400	8	17	-45	-13320	7168	9024	-97	-28	56	-2928	1728	17552	-15	-21	-1	126	141	12
-3052	-8700	13800	28	12	-13	-12152	-8096	7288	74	5	-2	-1056	-4096	17352	112	-22	-25	1136	7464	14360	129	-27	22	-12504	7032	8880	73	-15	3	-2216	1720	17136	0	9	9	127	141	12
-2660	-9800	13228	-28	-12	-63	-11440	-8528	7272	22	6	69	-904	-3744	17152	64	33	-15	2440	9152	13984	132	-21	42	-11608	7848	9736	201	-28	-7	-1672	1416	17208	68	30	-4	126	135	12
-2576	-10512	13336	-2	-14	-54	-10904	-9584	7544	-46	-15	46	-768	-3864	16704	8	70	27	2928	9040	13216	76	-10	7	-11336	8544	9904	113	-31	33	-1768	1456	16712	112	48	-21	125	133	12
-2964	-9596	12920	31	7	-10	-11232	-9576	7488	24	-8	-17	-936	-3864	16744	29	63	38	1992	8432	12904	-24	26	-58	-11440	8560	9328	-22	-12	62	-2400	2176	17008	57	24	-5	126	138	12
-2988	-10024	13256	84	3	8	-11544	-9104	7288	115	27	-11	-1112	-3928	16608	67	35	11	1744	8184	14288	-61	16	-57	-12288	8024	9504	-25	-3	44	-2624	2096	17000	0	-13	21	127	142	12
-2652	-9632	13308	54	3	-3	-11832	-8656	7000	53	8	8	-1272	-3672	16816	57	-2	-11	1280	8320	13768	-13	25	-45	-12312	7464	8872	-33	26	13	-2576	2016	16920	-23	-45	22	127	141	12
-3348	-9788	13124	45	6	-16	-11600	-8352	6808	21	23	33	-1264	-3560	16472	12	-19	-28	1304	7192	13096	20	22	-46	-11912	7664	8416	-10	40	-2	-2440	1552	16384	-15	-26	16	128	141	12
-2956	-9436	12728	38	12	-15	-11240	-8240	6568	3	18	43	-1496	-3648	16024	-32	-3	-27	1848	8488	13504	13	15	-45	-11496	7640	8640	65	31	6	-2512	1160	15992	18	-3	18	129	139	12
-2456	-9256	13068	24	-1	-21	-10960	-8800	6568	-26	9	31	-1608	-3856	15968	-8	2	-19	2200	9000	14368	-64	25	-65	-11880	8096	9208	97	-13	34	-2592	1080	16688	41	-27	16	127	136	12
-2832	-10668	13284	52	-17	-5	-11776	-9280	7184	-19	-14	-18	-1952	-4008	16648	35	-12	-7	1840	9656	14640	-104	40	-75	-12864	8112	9112	-38	-24	60	-3048	1272	17488	13	-53	6	126	136	12
-3488	-9744	13940	65	-19	-1	-12384	-8848	7200	18	5	-56	-1696	-4280	17816	123	-58	-13	1072	7392	14688	-48	23	-50	-13360	7632	9008	-78	-14	37	-3144	1736	17280	-15	-30	22	126	140	12
-2940	-8676	13884	4	-5	-37	-12112	-8304	7224	32	-2	-14	-1424	-3928	16664	87	-18	-4	1080	7632	13856	87	-11	12	-12520	7184	8808	18	-11	-11	-2496	1456	17216	-11	-11	27	127	140	12
-3016	-9032	13096	-21	-9	-42	-11424	-8256	6808	-3	-10	28	-1312	-3696	16896	60	7	8	2072	8888	13648	103	4	35	-11864	7840	9128	128	-3	-8	-1912	1248	16672	44	15	11	127	136	12
-2544	-10340	13532	-22	-20	-54	-11200	-9112	7304	-40	-3	36	-1024	-3624	17208	36	42	34	2448	9224	13296	41	-3	-6	-11536	8552	9472	99	-26	32	-2008	1336	16760	81	27	-8	125	134	12
-2644	-10864	13620	36	-7	-13	-11632	-9624	7880	-27	-14	-14	-1072	-3880	17056	47	42	44	1904	8608	13536	-28	15	-35	-12016	8728	9584	7	-34	62	-2624	1784	17184	47	6	-7	124	138	12
-3244	-9816	13204	64	0	7	-12056	-9176	7592	66	2	-35	-1568	-3592	17264	73	11	12	1672	8080	14600	-62	30	-51	-12464	8144	9136	-43	4	52	-3040	2144	17280	1	-16	5	125	142	12
-3100	-8688	13920	12	-18	-26	-12016	-8848	7632	95	30	14	-1416	-3872	17096	78	12	6	1144	6816	13784	-2	28	-47	-12688	7280	8456	-54	9	4	-2688	2152	16984	-35	-36	13	126	143	12
-3584	-8544	13028	-3	15	-9	-11304	-8192	6424	43	24	28	-1296	-3320	16144	-18	-1	-41	1320	7888	13144	60	-2	-3	-11656	8112	8824	70	19	-19	-2328	1800	16712	-26	-29	5	127	140	12
-2696	-9660	12468	-5	4	-19	-10824	-8064	6312	9	27	34	-1408	-3200	15888	-62	21	-33	1680	8824	13368	29	19	-15	-11272	8200	8608	72	10	-4	-2320	1504	16128	2	-4	0	127	140	12
-2756	-9028	12424	36	-2	4	-11048	-8240	6728	-34	4	6	-1552	-3392	15896	-54	24	-17	2024	9664	13632	-67	43	-50	-11384	8320	8840	34	12	18	-2600	1200	16312	17	-5	6	128	137	12
-3676	-11020	13628	47	-18	-8	-11888	-8872	7104	-32	16	-19	-1816	-3792	16656	12	-8	-10	2864	8528	14600	-150	37	-85	-12688	8408	9680	-24	-7	39	-3032	1480	16888	-6	-40	14	126	137	12
-3144	-9332	14008	31	-4	1	-12712	-8760	7240	-27	-7	-57	-1752	-3752	17208	38	-37	3	616	7440	14800	-107	52	-79	-13360	7952	8896	-126	5	14	-3368	2040	17600	-43	-50	21	127	139	12
-3472	-8560	14020	-5	0	-20	-12168	-8328	7160	2	3	-42	-1760	-3872	16960	50	-33	-13	752	7616	14328	30	12	-11	-13016	7280	8824	-41	10	-26	-3032	1552	17456	-51	-31	28	127	140	12
-3252	-9064	13376	-56	-4	-51	-11736	-7992	6904	-7	-1	0	-1456	-3664	16768	22	0	-4	1360	8744	13304	86	9	24	-11768	7576	8504	74	-4	-40	-2144	1208	16720	-3	7	26	127	139	12
-3256	-10508	12996	-44	0	-59	-11368	-8680	6720	-45	4	22	-1376	-3784	16792	8	38	25	1504	8576	13032	90	6	15	-11464	8456	9320	137	-5	-8	-2168	1136	16608	52	18	11	125	134	12
-2456	-9768	13384	20	-7	-18	-11696	-9672	7256	-59	-5	-8	-1400	-3744	16968	13	37	49	1768	9408	13280	-73	47	-61	-11912	8736	8920	-6	-8	45	-2800	1512	16760	50	10	-5	124	136	12
-3540	-10724	13872	37	-3	-4	-12480	-9552	7384	37	12	-36	-1776	-3920	17496	53	4	28	1408	7984	14736	-112	36	-84	-12816	8312	9160	-80	-6	52	-3320	2024	17216	-8	-15	10	124	140	12
-3040	-9216	13800	11	8	-8	-12576	-8936	7192	90	26	-21	-1888	-3792	17200	49	-18	-10	896	8296	14632	-82	35	-63	-13240	7640	8592	-60	14	9	-3360	1776	17256	-54	-49	9	126	142	12
-3604	-9264	13128	-25	10	-26	-12192	-8456	6696	76	37	19	-1944	-3616	16592	8	-20	-41	856	7680	14064	-8	19	-19	-12824	7400	8512	6	29	-29	-2976	1808	16944	-32	-39	2	127	141	12
-3500	-9424	12744	-30	4	-32	-11576	-8144	6368	10	31	26	-1848	-3384	15952	-69	15	-38	1040	8864	13184	31	26	-10	-12024	7736	7928	46	25	-32	-2720	1424	16616	-19	-11	4	128	138	12
-4072	-10284	12424	6	7	-12	-11160	-8488	6240	-36	41	-2	-2056	-3608	16032	-94	32	-12	912	8624	13064	-5	31	-34	-11896	8368	8320	51	23	-4	-3008	1248	16280	-17	-1	6	128	136	12
-3988	-9648	12892	78	5	36	-12016	-8384	6400	-58	28	-24	-2288	-3816	16016	-52	27	3	1056	9248	13392	-82	56	-62	-12080	8520	8032	-24	45	14	-3128	1264	16440	-31	1	25	127	136	12
-3908	-9780	13496	47	-14	8	-12496	-8328	6496	-19	33	-10	-2488	-3912	16704	13	7	2	1632	8208	14288	-118	42	-81	-12824	7904	8672	-75	44	15	-3704	1096	16056	-44	35	37	126	137	12
-3620	-9064	13588	3	8	-10	-12632	-8256	6720	-29	20	-7	-2232	-3600	16480	27	0	8	648	7872	14112	-69	54	-62	-13056	7280	8040	-103	38	-11	-3768	1072	16776	-48	-19	31	126	138	12
-4096	-8408	13336	-33	8	-19	-12000	-8208	6320	-17	13	-8	-2384	-3616	16560	18	9	11	352	8368	13800	-34	40	-37	-12736	7608	7960	-13	29	-11	-3216	808	16432	-4	57	12	126	139	12
-3912	-10428	13228	-25	0	-36	-12080	-8624	6496	4	14	-1	-2120	-3624	16384	12	8	20	888	8064	14128	9	13	-16	-12936	7824	8416	83	-2	0	-3184	1104	16624	-3	8	7	126	138	12
-3600	-9476	13068	-24	8	-19	-12072	-8504	6448	-13	4	-28	-2128	-3840	16272	28	13	25	576	9056	13352	12	39	-24	-12304	7824	8256	83	-7	8	-3136	1192	16728	23	20	3	126	137	12
-4000	-9760	12832	-11	5	-18	-12272	-8680	6144	36	27	-11	-2456	-3720	16888	44	10	22	1048	8952	14176	-34	34	-31	-12320	8344	8312	30	3	8	-3208	1480	16312	14	10	4	125	137	12
-3908	-9660	13808	-9	-5	-22	-12304	-8704	6848	-6	23	-13	-2208	-3768	16664	31	2	16	992	8320	13544	-31	25	-39	-12768	8048	8560	-26	-1	12	-3680	1584	16504	-13	-4	2	125	138	12
-3796	-9240	13324	3	7	-6	-12408	-8632	6640	-10	2	-28	-2280	-3680	16952	24	2	0	1144	8416	13688	-32	29	-36	-12648	8024	8336	-39	18	10	-3536	1576	16648	-30	-20	1	127	140	12
-4304	-9612	13240	-21	-1	-29	-12304	-8656	6624	21	21	5	-2160	-3720	16840	11	1	-17	1112	8136	14272	-12	15	-33	-12840	7888	8424	23	11	2	-3424	1320	16928	-26	-28	0	127	141	12
-3012	-10088	13540	-11	-7	-23	-12304	-8808	6640	-38	4	5	-2216	-3744	16968	-12	4	-16	1008	8640	14496	-28	22	-34	-12984	8248	8792	29	-10	10	-3176	1328	17008	-25	-28	-5	127	139	12
-3912	-9220	13140	11	-3	-3	-12472	-8848	6464	-27	-4	-30	-2344	-3856	16888	-25	16	-19	568	8608	13864	-10	28	-34	-12656	8056	8192	-6	1	3	-3400	1560	17072	-20	-10	4	127	139	12
-4576	-10240	13308	14	-8	-21	-12552	-8688	6496	19	24	-15	-2416	-3912	16888	-16	19	-22	864	8968	13816	15	21	-30	-12616	7952	8272	-1	14	-12	-3400	1304	16688	-11	12	18	127	139	12
-3628	-9312	13640	22	2	-19	-12336	-8096	6928	-14	19	17	-2512	-3968	16392	-11	34	-8	1344	9248	13664	-36	24	-50	-12288	8096	8304	26	13	-14	-3344	1104	16504	1	-5	30	126	137	12
-3496	-10552	13472	-13	-3	-39	-12520	-9056	6496	-15	18	15	-2480	-4040	16960	9	12	11	1592	9176	15456	-131	30	-78	-12944	8216	9376	15	16	16	-3392	856	16936	15	-43	27	126	136	12
-3592	-11000	13816	-35	-10	-38	-12728	-9336	6896	-46	-19	-37	-2504	-4248	17080	24	-22	20	944	10056	15320	-131	48	-84	-14128	8136	9048	-74	-12	25	-3960	1096	18160	-26	-76	14	127	139	12
-4336	-9992	14432	1	-14	-19	-13040	-9752	6768	13	-3	-80	-2352	-4608	18056	36	10	8	456	8840	15536	-114	30	-60	-14352	8152	9464	-50	-29	22	-3840	1416	18720	-65	-64	7	127	141	12
-4168	-9276	14292	-4	-23	-34	-13488	-9208	7240	45	-4	-49	-2328	-4336	17632	41	-43	-16	48	8384	14344	38	6	6	-13672	7752	8360	-20	-15	-15	-3440	1216	17864	-35	-17	23	128	139	12
-4332	-9824	13820	-38	-6	-49	-12536	-8456	6552	-8	4	6	-2232	-4072	17352	9	-21	-9	936	8624	14376	68	-13	25	-12816	8032	8816	63	-6	-28	-3000	1016	17144	23	2	29	127	135	12
-3640	-9928	13476	-7	-14	-42	-12208	-9112	6896	-60	-4	13	-2120	-4104	16992	-4	24	22	1472	9360	13816	65	-7	21	-12184	8368	8336	17	-16	-2	-3048	776	16536	64	16	16	126	134	12
-3564	-10032	13600	25	-31	-21	-12208	-9096	6800	-60	-20	-11	-2192	-4056	16968	4	39	28	1360	9400	13376	-18	5	-18	-12096	8216	8472	-17	-21	37	-3224	1080	16176	56	1	12	125	137	12
-3940	-10580	13240	34	-22	-19	-12528	-9320	6720	25	-13	-18	-2224	-3896	16672	36	22	14	1264	8344	14872	-77	7	-39	-12616	7872	9000	-2	-29	53	-3416	1480	16280	27	-34	5	124	140	12
-2980	-9436	14732	12	-48	-50	-12280	-8976	7032	29	-24	-15	-1904	-3704	16632	39	2	-16	1544	7896	14936	-48	-13	-26	-13176	7424	9104	2	-62	31	-3152	1816	17152	-4	-57	-4	126	140	12
-3512	-10356	13236	-18	-31	-53	-12272	-8600	6600	51	-36	-35	-1816	-3520	16896	33	-14	-45	848	8512	13784	31	-28	23	-12704	7784	8528	22	-68	8	-2936	1768	17384	-23	-58	-18	127	141	12
-3416	-9448	13444	-11	-48	-58	-11608	-8176	6808	49	-17	-36	-1744	-3472	16352	-27	-13	-47	1280	7936	13760	32	-38	28	-12128	8088	9288	83	-69	-5	-2560	1592	16912	-12	-38	-11	127	140	12
-3184	-9044	12492	-8	-27	-48	-11728	-8184	6952	-30	-53	-29	-1528	-3728	16448	-36	-23	-29	648	8768	12768	56	-8	12	-11488	8248	8240	-11	-28	4	-2472	1560	16368	16	-27	10	127	136	12
-3940	-9120	12508	-7	-20	-43	-11504	-8184	6296	-4	-15	-25	-1760	-3848	16480	-13	-18	-3	2016	8600	13200	-49	-7	-34	-11328	8168	8840	-14	-1	-4	-2608	1280	16160	6	-52	33	126	136	12
-3528	-11308	12976	-12	-35	-56	-11712	-9040	6976	-56	-14	-7	-1936	-3792	16976	20	-55	13	1712	9256	14528	-198	33	-96	-12952	8744	9128	-107	3	20	-3424	1080	17136	-25	-99	37	123	137	12
-3396	-10412	13532	4	-17	-26	-12864	-9776	6824	-46	-25	-70	-2024	-4192	17288	26	-92	20	1000	8072	15208	-195	42	-97	-14216	7616	9160	-161	2	27	-3736	1568	18112	-65	-114	33	126	139	12
-3448	-9036	14004	-9	-23	-28	-12856	-9208	6936	48	-1	-72	-1968	-4344	17136	38	-84	-16	-312	7456	14872	-40	27	-38	-14128	6992	8480	-39	-17	-16	-3400	1264	18232	-84	-76	23	127	143	12
-4132	-9032	13320	-45	-12	-53	-12368	-8320	6320	60	8	-14	-1928	-4176	16912	-6	-30	-29	592	7840	14088	90	-16	25	-12680	7368	8304	125	-14	-44	-2672	952	16920	-11	-2	28	128	140	12
-3412	-9032	12884	-47	-18	-60	-11616	-8488	6560	-18	3	22	-1936	-3880	16568	-40	39	-8	1240	8672	12760	97	1	30	-11520	8024	8240	120	-16	-35	-2472	672	16040	75	37	13	126	133	12
-3904	-10496	12352	-3	3	-26	-11712	-8656	6208	-40	-7	8	-2024	-3952	16400	-54	69	36	1752	9600	13184	-29	14	-27	-11416	8472	8320	-2	4	18	-3064	944	16000	65	31	12	124	133	12
-3568	-11000	13264	61	-18	-6	-11496	-9152	6528	-34	16	-30	-2328	-4064	16976	7	45	35	1536	9320	14272	-130	29	-69	-12720	8216	8800	-72	-4	49	-3728	1040	16696	-3	-13	13	124	138	12
-3868	-9884	13516	62	-15	17	-13240	-9256	6936	3	5	-43	-2320	-4008	16960	48	-8	7	64	8496	14528	-138	50	-88	-13880	7808	7888	-135	12	57	-4152	1264	17472	-67	-65	7	125	144	12
-4488	-9744	14148	44	-4	2	-13176	-8752	6216	68	24	-16	-2528	-3936	17064	61	-55	-39	560	6920	15600	-35	4	-41	-13976	7264	8632	-7	5	12	-3760	1352	17480	-62	-70	-5	126	146	12
-3752	-9460	13708	-4	-15	-28	-12688	-8488	6544	32	13	4	-2360	-3560	17008	14	-52	-52	168	8528	14584	48	1	7	-13448	7928	8448	80	-20	-9	-3368	1280	17264	-31	-43	-11	127	142	12
-3892	-10108	13204	-14	-10	-44	-12440	-8528	6168	-7	1	-4	-2504	-3776	16512	-34	-17	-29	720	7872	13984	67	-6	24	-12616	8360	8736	99	-27	-3	-3080	1272	16768	19	-8	-8	127	137	12
-3768	-9812	13232	2	-16	-33	-12000	-8384	6528	-18	-9	-22	-2416	-3872	16352	-19	10	-5	624	9072	12968	46	8	-3	-12032	8400	8024	32	-17	7	-3472	1048	16560	30	3	8	127	136	12
-4268	-9616	12648	26	-9	-9	-12448	-8408	6168	-12	-4	-23	-2624	-3944	16888	18	3	14	792	9264	13448	-41	28	-48	-12032	8248	8032	-55	20	15	-3472	1192	15912	16	13	37	127	136	12
-4136	-9628	13572	7	-26	-39	-12576	-8728	6256	2	10	-5	-2536	-4024	16736	38	9	20	920	9080	14496	-130	16	-80	-12728	8016	8416	-37	23	7	-3760	1048	16760	-14	-26	54	126	137	12
-3956	-10804	13708	-6	-20	-35	-13104	-9552	6520	-34	-16	-12	-2856	-3912	17368	39	-28	23	672	8392	15360	-197	47	-113	-14344	8248	8792	-106	14	36	-4272	896	17816	-38	-80	23	125	139	12
-4452	-10076	13792	-8	-4	-35	-13384	-9448	6360	20	-12	-63	-2824	-4176	17456	24	-39	7	-784	8032	15528	-107	37	-77	-14792	7400	8552	-68	-9	18	-4512	1064	18232	-36	-69	8	127	141	12
-4680	-9788	13580	-20	-6	-40	-13128	-8888	6352	78	6	-39	-2888	-4368	17344	19	-33	-14	-584	8008	14848	10	14	-23	-14216	7544	8016	39	-18	-9	-3928	944	17752	-23	-37	16	127	142	12
-4648	-9896	13444	-14	-8	-56	-12720	-8544	5968	17	9	6	-2704	-4360	16768	-17	-3	-21	440	8632	13848	117	-23	24	-12960	7760	7864	131	-18	-33	-3096	680	16824	30	10	29	128	136	12
-4316	-9732	12660	-11	4	-38	-12112	-8360	5944	-45	-5	20	-2632	-4144	16656	-29	24	-4	-104	9088	13456	54	14	-11	-12024	8608	7864	56	15	-8	-3344	624	16272	39	23	24	127	134	12
-4488	-10532	12076	39	-4	-10	-12440	-8752	5640	-46	-5	28	-3080	-4216	16744	-13	21	36	592	9752	13792	-70	34	-56	-12496	8056	7504	-94	47	28	-4112	792	16328	1	10	40	125	135	12
-4968	-10248	13436	65	-20	-5	-12752	-9448	5872	-7	16	1	-2960	-4392	16936	34	0	31	232	8424	14504	-117	35	-95	-13656	7824	7760	-123	46	48	-4368	520	16504	-27	-29	35	124	139	12
-4672	-10024	13436	62	-5	11	-13328	-8912	5808	56	29	-7	-3168	-4408	16904	67	-21	-1	-616	7736	14688	-105	60	-85	-14336	7184	7312	-93	21	48	-4960	520	17024	-18	-54	10	126	142	12
-5020	-8800	13004	41	-2	8	-13464	-8424	5480	104	42	8	-3280	-4024	16568	62	-14	-29	-1200	7520	14304	5	32	-36	-14016	6984	6808	5	21	26	-4664	808	16768	12	-29	-6	127	143	12
-5108	-10004	12992	32	-9	-17	-12784	-7904	5360	115	59	37	-3712	-3128	14272	6	57	-22	-408	8888	13664	84	1	3	-13392	7608	7080	140	-13	14	-4112	792	16504	23	-5	-9	126	140	12
-5132	-9308	12628	14	-5	-2	-12872	-7640	5488	49	25	26	-3064	-3848	16072	-33	178	-8	-568	8584	13688	45	17	-13	-12768	8392	7216	143	-6	33	-4272	736	15448	51	74	-6	126	138	12
-5376	-10052	12840	41	-15	-3	-13168	-8408	5600	-3	18	28	-3720	-3664	16560	40	-11	7	-144	9504	13240	-11	25	-48	-13224	8336	7136	14	10	45	-4760	952	16792	34	3	-1	126	138	12
-5624	-9344	12892	60	7	12	-13536	-8104	5376	4	22	3	-3720	-3664	16744	70	-27	21	-1432	8736	13560	-31	37	-58	-13712	8296	6784	-68	38	36	-4864	1064	16600	8	-12	15	127	140	12
-5800	-8884	12696	59	18	17	-13440	-7776	5096	36	39	5	-4016	-3608	16136	65	8	18	-1352	8368	13672	-39	1	-38	-13280	7576	6496	-41	88	27	-4976	1000	16560	-10	-10	27	126	140	12
-6032	-9292	12872	40	5	-8	-13464	-7912	4944	41	53	30	-4008	-3736	16656	52	-1	13	-592	9136	14352	-34	30	-57	-14104	7976	6936	51	51	13	-5112	736	17112	-5	-42	18	126	141	12
-5808	-10528	13080	16	5	-21	-13792	-8456	4824	3	51	27	-4232	-3568	17064	26	-15	17	-1048	9080	14896	-91	47	-80	-14752	8352	7280	46	30	38	-5632	576	17432	-14	-42	2	126	139	12
-5888	-10416	13444	38	15	5	-14408	-8952	5320	20	43	-15	-4544	-3832	17152	40	-36	14	-1536	9112	14840	-74	63	-85	-15240	8520	6896	20	8	30	-5904	1032	17872	-17	-47	-11	127	140	12
-6684	-9960	13696	64	15	26	-14576	-8624	4864	74	47	-39	-4760	-3904	17816	62	-39	-12	-1864	9616	15320	-45	53	-61	-15328	8880	6736	11	24	25	-5904	1128	16832	-29	95	-4	128	141	12
-6608	-9884	13984	64	10	19	-15040	-8144	4992	51	53	-11	-4760	-4048	17744	64	-36	-25	-2200	8984	14560	31	42	-33	-14776	8416	6368	-33	59	1	-6256	1056	17064	-43	-18	9	128	139	12
-6708	-8752	13476	10	28	3	-14744	-7720	4800	3	49	33	-4832	-3584	17696	28	-5	-22	-2056	10232	14296	31	40	-25	-14368	8632	6432	-9	75	-15	-5440	784	17024	-23	23	23	127	136	12
-6908	-9776	13180	16	16	-4	-14264	-8096	4584	-27	57	48	-4784	-3584	17328	-24	71	17	-1608	9920	14232	-18	42	-45	-14304	8984	6328	-20	73	-2	-5376	384	17120	17	34	28	126	135	12
-6700	-10488	13704	30	1	-4	-14360	-8696	4592	-55	51	23	-5248	-3984	17616	-4	34	43	-1264	9440	15192	-108	36	-80	-15112	8632	6744	-17	63	34	-6352	664	17072	-17	6	38	125	136	12
-6352	-10512	14040	70	1	17	-15328	-9016	5096	2	51	-13	-5384	-3856	17320	45	9	43	-1776	9880	15120	-82	53	-81	-15560	8264	6568	-32	36	27	-6976	360	17024	-19	-15	35	126	140	12
-6860	-9212	14004	44	6	13	-15112	-8072	4680	73	51	-20	-5560	-3672	17296	65	-6	3	-2960	9840	14888	-24	43	-53	-15200	8104	5888	5	21	14	-6800	640	17040	-12	-21	19	127	142	12
-6928	-9480	13500	30	5	-5	-14904	-7648	4280	95	49	13	-5568	-3528	16832	49	-6	-27	-2144	9624	14888	10	19	-15	-14824	8072	5984	66	7	3	-6456	672	16848	-9	-8	13	129	142	12
-6964	-9104	13680	2	-22	-28	-14312	-7776	4352	13	27	23	-5360	-3288	16728	-2	9	-31	-1800	9256	14240	8	16	-21	-14464	8264	6048	80	0	5	-6232	712	16432	6	-1	-3	129	139	12
-6748	-9536	13328	5	-20	-26	-14520	-7952	4504	-25	9	12	-5376	-3368	16728	-21	12	-17	-1600	9448	14120	2	13	-28	-14272	8488	5672	6	-6	21	-6152	464	16464	15	-3	4	129	138	12
-6968	-10216	13592	11	-20	-27	-14544	-8112	4408	-6	8	-10	-5296	-3568	16920	3	0	-16	-1736	10080	14352	-23	8	-34	-14584	8592	6224	-22	-8	21	-6288	584	16328	-7	-23	9	129	138	12
-6780	-9280	13232	10	-14	-32	-14408	-7928	4272	-5	-5	-19	-5168	-3728	16632	29	-8	-8	-2608	8592	13928	-32	7	-33	-14712	8584	6152	-37	-12	24	-6352	648	16656	-26	-39	18	128	139	12
-7232	-9276	12804	11	-9	-42	-14384	-7712	4160	12	-6	-16	-5152	-3704	16608	25	-8	-16	-1976	8344	13864	-5	-1	-24	-14232	7872	5936	-6	5	3	-5992	408	16384	-5	-38	24	129	140	12
-6800	-8356	12796	-13	-20	-54	-14032	-7672	4368	-14	-13	8	-4968	-3664	16616	14	4	-13	-2224	8688	13760	-16	11	-43	-14216	7928	5704	32	-6	9	-6008	224	16224	5	-33	21	128	140	12
-7132	-10440	12588	-2	-2	-48	-14048	-8112	3840	-8	-8	6	-5112	-3688	16672	13	-1	-2	-2440	9672	13720	-10	13	-38	-14880	8360	6408	67	-8	30	-5936	-40	16584	15	-30	20	127	137	12
-6620	-10612	13420	15	-17	-41	-14608	-8824	4632	-2	-19	-22	-5208	-4000	17136	17	-27	7	-2176	8952	15208	-113	26	-83	-15472	8288	6672	-8	-22	31	-6120	336	17000	13	-46	21	125	138	12
-7120	-9848	13504	24	-14	-24	-14960	-8504	4656	28	-16	-45	-5144	-4192	17280	44	-47	-8	-2112	8456	15440	-67	22	-64	-15608	8032	6256	-38	-16	12	-6472	408	17912	-25	-59	21	127	139	12
-6732	-10112	13720	-13	-22	-48	-14904	-8352	4368	39	6	-20	-5264	-4096	17416	58	-58	-16	-2568	8936	15248	0	0	-14	-15808	8328	6312	-4	-22	1	-6336	120	17920	-35	-63	25	126	139	12
-7116	-9312	13988	15	-15	-24	-15200	-8128	4968	-38	-24	-14	-4720	-4128	17456	24	-44	-8	-1864	9640	14864	55	-1	10	-15024	8560	6512	4	-24	2	-5784	304	17368	13	-28	20	127	137	12
-6552	-9468	13384	-30	-21	-55	-14536	-8280	4800	-31	-23	9	-4552	-4104	17264	26	-10	8	-2288	9208	13928	91	1	16	-14192	8040	6104	-14	-22	11	-5496	496	16648	51	12	16	126	135	12
-6576	-9136	12920	9	-5	-29	-13984	-8152	4696	-15	-4	24	-4584	-4008	16720	12	48	15	-1688	9640	13664	64	0	17	-13752	8296	5784	41	-18	13	-5400	288	16336	63	24	11	125	136	12
-6500	-9832	12892	13	-19	-35	-13888	-8232	4592	-23	8	27	-4640	-3728	16784	21	55	13	-1680	9832	13848	-1	4	-27	-14000	8272	6064	55	-11	38	-5792	544	16336	65	6	8	124	136	12
-6516	-10424	13100	57	-21	-10	-14152	-8400	4728	14	6	9	-4544	-3576	16776	23	37	6	-1696	9792	14120	-34	13	-36	-14416	8520	6280	21	-9	46	-5960	808	17056	31	-15	2	124	139	12
-6760	-9344	13800	77	-30	12	-14488	-8176	5168	71	7	-18	-4712	-3560	16912	31	8	-14	-1656	9200	14440	-31	3	-31	-14936	8184	6360	30	-22	47	-6264	1080	16936	-6	-30	-6	125	142	12
-6288	-8772	13140	42	-13	-6	-14536	-7424	4520	92	9	-7	-4744	-3288	16888	30	-17	-34	-2168	9192	13960	32	2	-1	-14248	8248	6160	30	-18	23	-5832	1032	16816	-4	-28	-7	126	141	12
-6816	-9060	13112	5	-14	-38	-14016	-7040	4488	38	14	14	-4752	-3080	16488	11	-16	-30	-1776	8712	13744	59	-7	7	-13920	8200	6336	69	-17	3	-5480	1144	16448	9	-24	-1	126	138	12
-6228	-9412	13052	0	-16	-35	-13768	-7384	4584	-48	-10	17	-4496	-3192	16416	-4	-17	-11	-992	10080	14120	2	4	-16	-13824	8984	6880	65	-20	9	-5368	928	16928	13	-29	1	125	136	12
-6460	-9728	13500	22	-25	-23	-14072	-8312	5024	-80	-21	-27	-4400	-3376	16968	18	-36	9	-1176	9632	14584	-63	25	-46	-14400	9024	6824	-43	-14	30	-5712	952	17072	-8	-35	11	124	136	12
-6852	-9884	13880	8	-20	-30	-14672	-8344	5168	-22	-6	-58	-4584	-3880	17384	51	-49	12	-1184	9168	14552	-49	19	-48	-14760	8312	6464	-140	9	16	-5880	1080	17344	-37	-35	25	125	138	12
-6468	-9292	14072	-17	-11	-37	-14528	-8192	4992	16	4	-39	-4432	-3960	17352	60	-29	1	-1592	7960	14240	-29	9	-37	-14936	8032	6608	-54	-1	-10	-5560	872	17120	-29	-32	33	126	138	12
-5836	-9020	13168	-52	9	-53	-13888	-7824	4816	-17	-9	-7	-4016	-3864	17080	13	25	6	-1896	9792	14216	12	-3	0	-14152	8040	6720	89	-11	-22	-5264	704	16984	15	-11	23	127	136	12
-6140	-9632	12660	-57	-11	-60	-13440	-8272	5152	-32	-20	2	-4240	-3840	16784	-15	54	22	-1568	10144	13576	2	31	-17	-13656	8136	6480	54	-2	-1	-5048	464	16472	41	16	18	127	137	12
-6348	-9296	13088	-11	-18	-29	-13520	-8680	4784	-1	0	-12	-4288	-4104	16672	-14	50	32	-1000	9144	13800	-40	28	-48	-13928	8544	6352	21	-3	13	-5448	560	16448	37	20	25	126	136	12
-5872	-9880	13004	28	-3	-9	-13880	-8384	4816	9	7	-12	-4376	-3976	16488	25	26	18	-1376	9944	14360	-55	28	-50	-14160	8096	6480	-19	7	28	-5728	664	16416	18	-7	29	125	138	12
-6400	-10140	13480	6	-15	-21	-14072	-8280	4720	28	18	4	-4688	-3728	17088	48	-11	1	-1496	9312	14856	-93	29	-67	-14688	8232	6672	-41	5	25	-5952	528	17040	-9	-54	21	124	140	12
-6244	-10276	13292	6	-6	-14	-14568	-8480	4632	13	0	-6	-4672	-3544	17112	42	-54	-16	-1664	8544	15624	-93	28	-48	-15264	8080	6728	-52	-1	23	-5992	784	17408	-30	-70	6	124	141	12
-6208	-9796	13684	-17	-26	-30	-14360	-8472	4736	13	4	-25	-4584	-3552	17120	10	-58	-28	-1784	8664	15240	-16	-2	-7	-15504	7864	6768	36	-35	-1	-5576	752	17864	-49	-74	-9	124	141	12
-6300	-9868	13668	2	-22	-14	-14384	-8304	4984	-1	-4	-39	-4416	-3624	17032	-8	-55	-24	-1792	9208	14632	43	-6	19	-14928	8816	6720	53	-41	-1	-5568	816	17592	-56	-47	-13	126	140	12
-6240	-9460	13876	28	-33	-12	-14376	-7952	5104	-11	-8	-35	-4400	-3864	17296	-9	-27	-16	-1336	9400	14536	92	-17	42	-14056	8984	7160	53	-32	-6	-5272	752	17328	-10	5	1	127	137	12
-6172	-9200	13664	20	-29	-16	-14720	-7792	5576	-44	-31	-19	-4288	-3904	17616	23	-4	-1	-872	10144	13696	63	3	17	-13256	8816	6744	-38	-11	10	-5112	848	16576	27	19	17	126	135	12
-6208	-9660	13652	-2	-26	-46	-14584	-8240	5744	-35	-8	2	-4352	-3624	17464	42	22	25	-1064	9920	13544	-11	8	-26	-13296	8480	6232	-72	-4	18	-5328	832	16128	49	9	26	125	136	12
-6368	-9856	13528	-6	-2	-48	-14040	-8408	4984	-7	0	12	-4376	-3536	17024	28	45	30	-1384	9080	14128	-79	11	-58	-13976	8288	6448	-8	1	23	-5592	984	16704	42	-17	21	124	138	12
-5900	-9960	12824	-12	4	-40	-14000	-8616	4832	30	-4	0	-4240	-3400	16960	11	49	5	-1320	8864	14920	-125	29	-81	-14656	8024	6712	68	-13	26	-5712	1088	16984	21	-28	10	124	140	12
-6316	-9472	13036	-22	-7	-50	-13896	-8608	5056	68	10	-26	-4504	-3416	16632	-14	33	-13	-1816	8808	15128	-78	29	-68	-14840	8048	6880	61	-17	-4	-5632	1016	17112	-8	-36	5	126	140	12
-6888	-9868	13648	-12	-10	-35	-13992	-8224	4480	78	17	-40	-4480	-3456	16888	-30	0	-39	-1696	8112	14216	-46	24	-54	-14664	8384	7096	16	-15	-14	-5656	776	17480	-50	-38	8	127	139	12
-6500	-9876	13056	19	4	-16	-14248	-7800	4264	37	9	-40	-4704	-3776	16704	-32	-31	-40	-1520	8848	14200	-8	10	-23	-14288	8472	6672	-14	7	-27	-5696	368	16808	-42	-31	19	128	139	12
-5924	-9352	13612	10	-12	-23	-14160	-7480	4696	-45	4	-14	-4576	-4184	16624	-30	-32	-22	-1248	9576	14272	-5	14	-11	-13976	8112	7208	-26	10	-18	-5056	88	16632	-19	-31	31	128	138	12
-6404	-10036	13156	-20	-18	-37	-14072	-8048	5168	-133	-26	-5	-4496	-4136	16992	15	-36	8	-1600	9224	14216	-32	38	-45	-13960	7856	6264	-127	17	17	-5384	-136	16400	-12	-36	34	127	138	12
-6120	-9436	13372	4	-16	-28	-13824	-8688	4584	-105	-12	-14	-4472	-4392	17008	27	-4	28	-1504	9120	14240	-63	25	-46	-14368	7776	6504	-55	9	24	-5656	-184	16880	5	-26	35	126	138	12
-6344	-9792	13280	2	-17	-35	-13968	-8840	4920	-32	-18	-9	-4456	-4448	16712	61	14	32	-1776	8240	14368	-46	25	-49	-14768	7552	6536	14	-8	44	-5816	104	16824	28	-9	27	125	139	12
-5920	-9852	13124	11	-11	-29	-13824	-8816	4760	42	-3	-2	-4312	-4368	16528	50	37	25	-1504	8672	14728	11	-2	-7	-14696	7640	6728	111	-23	28	-5336	368	16856	48	11	21	125	138	12
-5556	-9468	13288	16	-18	-31	-13600	-8216	4944	88	-10	9	-4304	-3968	16536	52	39	9	-1264	8744	14456	62	-13	12	-14160	7968	6808	138	-35	36	-5232	408	16472	69	19	10	125	137	12
-5212	-9372	13140	34	-30	-27	-13608	-7944	4840	80	-25	3	-4024	-3680	16240	62	25	10	-1008	9176	14368	75	-13	33	-13544	8048	6840	100	-42	47	-4928	1024	16144	68	21	9	126	137	12
-5328	-9472	13144	21	-41	-42	-13336	-7784	5120	38	-26	7	-3680	-3376	16376	82	18	8	-328	8496	14040	65	-25	21	-13240	8176	7280	42	-49	47	-4784	1032	16128	60	1	13	125	138	12
-4932	-9788	13400	19	-41	-47	-13104	-7944	5472	-36	-43	8	-3464	-3264	16280	96	3	12	16	8640	13776	48	-27	15	-13216	8152	7080	-16	-55	38	-4424	1344	16192	47	-23	9	126	138	12
-4596	-9540	13004	4	-39	-58	-12832	-8104	5552	-50	-57	-7	-3256	-3152	16128	87	1	10	32	8440	14344	61	-47	35	-13144	7816	7544	-2	-58	34	-4256	1208	16224	51	-30	3	126	138	12
-3740	-9208	13492	0	-49	-71	-12424	-8072	6232	-53	-64	-22	-2792	-3344	16120	75	8	-3	1152	7888	14856	74	-60	56	-12872	7576	8360	80	-99	20	-3640	1240	15768	61	-22	-1	127	137	12
-2832	-9548	13828	-50	-68	-133	-12008	-8248	6832	-48	-100	-18	-2232	-3464	15600	69	29	-23	2104	7512	14248	144	-100	90	-12040	6968	8944	131	-155	-1	-2992	1592	15720	104	-2	-10	128	135	12
-1968	-9340	13840	-98	-80	-158	-11200	-8312	7112	-36	-144	-20	-1408	-3592	15640	63	60	-44	3048	7800	13856	165	-119	120	-11296	7568	9672	195	-215	-6	-2016	1520	15744	121	-19	-26	128	136	12
-1436	-10112	13312	-128	-85	-178	-10352	-8752	7736	-28	-186	-50	-576	-3352	15920	62	72	-42	3656	8336	13640	129	-112	106	-10720	7824	10160	158	-244	16	-1136	1552	16664	138	-38	-27	126	136	12
-952	-10148	13452	-124	-81	-169	-10328	-9128	8160	-54	-204	-94	8	-3704	16224	29	56	-32	4040	7680	14032	44	-112	74	-10696	7912	11144	118	-257	27	-904	2328	16648	104	-64	-11	125	136	12
-616	-10264	13356	-125	-88	-167	-10120	-9472	8856	-100	-224	-108	1096	-3712	17064	54	30	-42	3984	8152	14072	38	-57	41	-10840	7872	11456	41	-244	9	104	2496	18120	69	-99	5	122	136	12
-672	-10240	13100	-108	-59	-139	-10040	-9632	9344	-116	-201	-98	1904	-3856	17832	40	2	-31	3424	7888	13848	36	-43	43	-11000	8000	11656	2	-193	6	824	2832	18864	13	-122	3	123	136	12
-808	-10200	13456	-57	-66	-104	-9744	-10160	9832	-124	-148	-77	2448	-4128	18112	-14	-13	-15	3744	7696	13432	68	-53	51	-10888	8120	11888	35	-138	-11	1528	2768	19216	-24	-99	-1	126	138	12
-456	-9856	13140	-28	-50	-60	-9752	-10128	9840	-115	-103	-39	2792	-4328	18408	-49	-21	-22	3608	8232	13424	79	-20	40	-10216	8288	11776	35	-48	-5	1976	2544	18736	-16	-29	7	126	139	12
-388	-9832	13356	24	-28	-30	-9776	-10232	10056	-88	-43	-1	2720	-4416	18544	-61	-21	-18	4144	8056	13088	48	-3	15	-9824	8200	11792	24	18	-3	1480	2424	17728	-17	-8	18	124	139	12
-688	-9644	12800	37	-8	8	-9664	-9992	9800	-11	10	28	2144	-4416	18152	-37	-12	9	3864	8432	12344	-8	54	-42	-9616	7968	10816	-52	86	11	576	1856	17160	-6	-3	30	122	135	12
-1132	-9932	12752	68	28	30	-9720	-9624	8736	76	74	51	1688	-4448	17176	15	-11	31	3896	8056	13008	-94	64	-86	-9864	7704	10520	-45	122	31	-72	1800	16344	20	-10	44	121	136	12
-1148	-9868	12728	71	23	36	-9896	-9512	8472	109	102	64	1024	-4096	16648	55	-23	30	3520	8296	13856	-161	64	-111	-10632	7560	10376	10	115	51	-536	1864	16376	26	-23	40	121	134	12
-828	-10080	13196	86	23	40	-10432	-9176	8224	116	109	42	224	-3832	16192	62	-36	28	3696	7424	14344	-168	82	-128	-11584	7472	10616	6	92	66	-1312	2024	16488	9	-17	21	124	136	12
-1008	-10252	13948	69	15	28	-10728	-8896	7912	126	98	15	-488	-3416	15576	39	-35	16	3512	7232	14952	-106	46	-88	-12040	7256	10456	6	60	35	-1856	1792	16656	-10	-29	12	125	138	12
-976	-9756	13816	24	10	10	-10704	-8664	7688	85	52	1	-1008	-3592	16200	9	-38	-9	2904	7072	14736	-43	48	-53	-11960	7328	10080	10	18	12	-1880	2008	16808	-16	-33	2	126	141	12
-1148	-9932	13560	-13	1	-17	-10904	-8616	7488	31	25	-4	-824	-3736	15856	-23	-40	-23	3240	7344	14912	24	10	-4	-11552	7392	10520	37	-7	-16	-1440	1944	16680	-19	-41	1	128	139	12
-1292	-10204	13560	-33	-26	-41	-10416	-8936	7800	-54	-13	-10	-472	-3832	15952	-41	-22	-26	3512	8488	14064	35	20	-5	-11264	7736	10080	2	-29	-16	-928	1504	16808	-26	-35	4	129	138	12
-1472	-11020	13924	28	-30	-21	-10656	-9272	7816	-104	-38	-44	8	-4136	16728	-21	-12	-1	3720	8752	14512	9	1	2	-11112	8536	10680	-25	-24	9	-824	1256	17392	-22	-23	5	129	137	12
-1584	-11292	15128	76	-55	-10	-11608	-9760	9112	-131	-72	-71	-80	-4640	18072	18	-30	15	3712	11608	14920	-51	-4	-23	-12128	9304	11032	-30	-41	60	-1656	1200	18952	-43	-64	9	127	138	12
-2364	-12408	15912	121	-50	39	-13408	-11536	9784	-109	-94	-87	-784	-5272	20488	123	-153	9	3416	10808	17152	-264	24	-137	-12392	9584	11336	-36	-40	71	-2696	1328	20512	-68	-154	1	125	142	12
-3372	-13464	17516	121	-58	4	-15432	-12936	9832	5	-67	-103	-1600	-5352	22216	198	-279	-16	2816	10048	19896	-272	10	-139	-16640	9720	12752	-139	-37	122	-3480	1728	22320	-37	-207	21	125	142	12
-2892	-13324	19268	49	-86	-82	-16432	-12944	10656	121	-45	-86	-1680	-5416	22328	184	-289	-34	3488	9216	21728	-141	-71	-36	-17584	9432	13736	-8	-101	76	-3496	1496	23120	-17	-215	36	125	139	12
-1636	-13148	19640	-69	-109	-165	-15336	-12640	10872	111	-108	-61	-1552	-5672	21200	101	-237	-45	3696	8592	20504	64	-139	79	-16864	9392	13600	27	-187	24	-2384	1672	22416	58	-181	32	125	136	12
-1836	-12116	17088	-127	-94	-188	-13320	-11616	9672	103	-158	-45	-688	-5120	20136	37	-144	-67	3352	9448	17928	205	-159	179	-16176	9360	13296	18	-193	24	-1368	2224	21200	98	-119	19	128	134	12
-1492	-12968	16160	-111	-161	-209	-12008	-11360	9080	73	-149	-39	-472	-4624	19096	-58	-37	-53	4792	9472	16664	172	-201	194	-12552	9624	12840	25	-204	1	-656	1872	19560	120	-40	50	128	134	12
-760	-11832	15032	-50	-185	-183	-11336	-10400	9472	-31	-188	-54	480	-4672	17920	-123	43	2	4048	8000	14336	162	-170	187	-11296	8672	11592	-169	-164	2	-336	1976	17472	168	30	87	129	131	12
-444	-8952	12916	-52	-176	-171	-9952	-8744	8544	2	-174	-63	1336	-4360	15992	-121	178	33	3616	7320	12808	212	-155	198	-9392	6496	9976	-190	-138	-15	104	1952	15360	195	70	120	126	130	12
-208	-8756	12248	-45	-193	-185	-7880	-7704	8184	35	-144	-4	1840	-3728	14344	-68	257	55	3912	6400	10584	232	-172	206	-8232	5624	8888	-30	-171	-16	616	1696	13488	214	28	118	122	130	12
264	-6960	10284	-42	-170	-151	-7016	-6888	7592	-1	-166	22	2464	-3120	13120	-50	240	95	2944	6032	8968	243	-125	190	-7120	5432	8136	72	-161	19	936	1960	12472	238	-3	92	119	127	12
-68	-6228	8852	-24	-123	-105	-6144	-6440	6848	50	-139	15	3000	-2568	12376	6	189	105	2640	5704	7848	179	-88	133	-6312	5424	7560	126	-138	35	1480	2192	11912	237	13	60	119	131	12
-336	-6172	7500	-21	-72	-79	-5560	-5912	6168	135	-66	22	2400	-1592	11832	53	126	60	2248	5080	6840	97	-48	71	-5560	4960	6888	121	-86	46	1544	2600	10968	189	39	31	120	139	12
-476	-5632	7004	18	-36	-47	-5216	-5416	5728	165	5	30	1968	-1144	11000	76	80	21	2480	4288	6456	92	-18	47	-5744	5144	6712	116	-81	48	1536	2872	10328	106	57	12	122	142	12
-60	-4524	7064	24	-16	-26	-4952	-4448	5296	169	49	43	1728	-1240	10336	43	86	3	2496	3648	5984	124	7	40	-5008	4192	6416	59	16	-11	1288	2664	9384	43	57	2	124	144	12
80	-3640	6528	-22	8	-12	-4536	-3632	5304	157	69	58	1640	-984	9184	0	92	-13	2056	3680	5312	151	55	19	-4504	3880	5960	35	54	-40	1344	2520	9088	-15	53	-8	124	141	12
64	-3488	5740	-85	74	11	-4016	-3032	4672	77	91	89	1856	-1040	8672	-21	92	-22	2056	3568	4840	99	108	-26	-3992	3984	5552	34	99	-45	1416	2296	8856	-68	54	-22	127	143	12
-348	-4692	5556	-99	116	29	-3568	-3280	4296	-34	124	94	1608	-864	8952	-32	87	1	2168	3920	5184	70	122	-61	-4240	4072	5896	89	122	-50	1216	2384	9048	-109	67	-33	127	145	12
-228	-6036	6448	56	106	104	-4000	-4384	4528	-162	150	61	1352	-936	9024	-48	86	30	3056	7464	6064	-36	144	-98	-4664	5496	6096	166	144	-39	920	1944	9960	-166	48	-59	127	146	12
-240	-8012	8080	114	105	160	-5400	-5760	5416	-221	140	15	888	-1552	11280	-52	29	42	3232	7688	8264	-353	175	-246	-6032	7024	7448	96	178	46	-32	1520	11368	-215	-4	-87	127	144	12
-488	-9368	9476	208	131	207	-8096	-7784	6544	-216	118	-71	192	-2040	13176	26	-104	35	3688	6320	10584	-547	201	-352	-8784	6920	8640	-50	194	110	-976	2216	13328	-239	-33	-95	132	145	12
-1256	-7724	11968	206	159	214	-10376	-7864	7232	-113	149	-163	-408	-3408	14632	58	-173	10	2952	5152	12264	-448	240	-349	-10960	5800	9456	-151	183	32	-1728	2896	15088	-273	-28	-68	135	149	12
-1732	-5744	12920	-45	179	102	-11176	-6792	7472	-42	180	-87	-672	-4480	15272	35	-148	-63	1784	4824	13560	-303	251	-295	-11520	5808	9288	-56	174	-80	-1496	2416	16648	-290	-40	-27	135	153	12
-1352	-9040	12712	-241	163	-50	-9968	-7888	6952	-192	179	75	-192	-4440	15608	-30	-75	-69	2880	6648	15168	-136	172	-187	-11824	6728	10656	170	157	-152	-672	1600	17528	-217	-19	15	132	140	12
-396	-10856	13396	-221	122	-70	-9600	-10280	8120	-376	95	58	208	-4624	16296	-157	51	4	4336	8832	14808	-75	164	-156	-11984	8472	11648	154	124	-147	-384	592	18424	-156	36	32	130	130	12
-356	-12112	13584	-131	141	4	-10600	-11712	8408	-282	48	-41	136	-5832	16952	-169	147	64	4280	8392	15472	-132	187	-179	-11872	8824	12240	-56	144	-82	-464	320	18592	-136	136	47	129	129	12
-736	-11808	14344	-37	119	36	-11216	-11856	8920	-139	56	-52	-56	-6584	17760	-65	171	66	4072	8080	15744	-95	176	-173	-12256	7400	11576	-206	163	-59	-384	200	18272	-105	173	83	128	134	12
-820	-11440	15616	-9	100	36	-11272	-11592	9216	-77	69	29	56	-6912	18336	20	147	42	4656	9032	16784	-93	145	-142	-12720	7376	12504	-93	133	-49	-488	-352	19168	-60	114	89	125	133	12
-492	-12868	16044	-11	55	14	-11608	-12288	10296	-91	46	79	928	-6664	19456	68	99	57	5016	8856	17936	-85	116	-120	-13640	7800	12888	4	98	12	-720	-520	20232	36	65	58	122	131	12
-296	-14080	16820	47	45	36	-12280	-13288	10752	-90	17	57	1080	-6712	20368	98	56	83	5040	9408	19216	-63	86	-105	-14744	8304	13904	112	15	88	-1000	88	21408	98	40	18	119	135	12
-280	-14256	17456	134	28	73	-13240	-14080	11344	-42	-10	21	840	-6656	21664	196	-3	73	4824	10472	20312	-5	68	-69	-15640	9264	14320	166	-54	133	-1464	816	22552	104	-12	-2	121	143	12
-836	-14736	19196	197	-9	81	-13240	-14104	10976	-29	-6	14	288	-6400	22584	275	-106	15	4720	9872	21424	73	-6	1	-16344	10120	15136	179	-83	142	-1664	1648	23392	91	-69	-19	122	144	12
-780	-14160	19504	194	-32	68	-15000	-13976	12184	139	-44	32	208	-5912	23048	282	-169	-43	4712	9576	20808	191	-38	66	-15904	10160	15008	111	-93	142	-1512	2360	23472	98	-65	-27	122	145	12
-1024	-13076	19328	141	-48	25	-14528	-12752	12064	179	-39	61	160	-5304	22600	240	-154	-80	5376	10576	20224	275	-93	140	-15800	10128	14976	100	-90	126	-816	2840	23008	111	-50	-33	123	143	12
-940	-13828	18904	62	-81	-42	-13896	-12432	11992	111	-58	77	488	-4400	22288	156	-132	-62	5792	10952	19160	260	-105	148	-13984	11088	14816	105	-125	102	-688	3256	22392	112	-44	-35	125	139	12
-732	-13340	17764	64	-77	-40	-13408	-12192	11248	73	-96	28	624	-4352	21056	79	-71	-23	5376	9824	17616	207	-94	125	-13264	10816	14032	-13	-108	92	-624	3672	21560	111	-26	-17	127	139	12
-1024	-12260	16848	71	-84	-42	-12640	-11552	10696	135	-63	16	896	-4056	20328	42	34	-2	5000	9544	16440	163	-89	110	-12376	10192	12792	-15	-87	63	-704	3664	20216	111	-15	18	128	141	12
-1060	-11228	15572	46	-85	-58	-11616	-10112	10000	132	-55	19	960	-3760	19328	-7	82	8	4296	9304	15360	129	-64	88	-11512	9360	12000	-18	-58	36	-528	3552	18816	129	-6	56	127	138	12
-968	-10540	14796	21	-85	-67	-11104	-9248	9240	101	-49	26	1000	-3408	17888	-62	121	20	4280	9112	14200	85	-56	64	-10720	8840	11312	3	-44	21	-424	3032	17392	149	0	63	127	135	12
-908	-9608	14012	-14	-82	-74	-10296	-8808	8960	64	-39	17	984	-3128	16936	-75	125	25	4000	8384	13008	20	-33	23	-9976	8488	10480	-10	-38	24	-248	2928	16536	137	8	70	127	134	12
-864	-9328	13024	-15	-74	-68	-9776	-8440	8112	41	-35	6	968	-3040	15792	-65	96	23	3384	7808	12472	-18	-22	7	-9592	7952	9920	-41	-21	15	-336	2920	15720	115	9	70	127	134	12
-932	-8544	12220	-10	-62	-60	-9344	-8040	7912	46	-31	-5	712	-2896	15216	-47	53	11	2712	7248	11496	-32	-5	-17	-9144	7248	9144	-69	1	8	-336	2648	14880	79	-4	77	127	136	12
-1168	-7992	11260	9	-39	-32	-8936	-7536	7160	52	-14	4	568	-2880	14640	-32	2	-10	2216	7240	10704	-50	13	-41	-9104	6792	8368	-81	31	4	-504	2312	14408	35	-37	83	127	135	12
-2196	-7624	10732	26	-9	1	-8720	-6984	6712	58	12	17	568	-2848	14912	-17	-65	-19	1512	7976	9784	-76	52	-80	-8960	6816	7400	-73	68	5	-864	1896	14920	-21	-76	77	127	135	12
-2920	-8956	10812	75	29	52	-9352	-7472	6296	25	51	32	24	-3208	15808	9	-134	-12	1632	8456	11416	-252	87	-173	-10120	7608	8496	7	104	49	-1352	1568	16056	-77	-123	47	127	135	12
-3048	-9728	11528	94	44	67	-11168	-8720	6704	-53	76	8	-96	-3400	17192	51	-193	0	1736	7336	13064	-317	145	-237	-12216	7272	9032	-39	139	73	-1672	2192	17376	-125	-104	13	130	142	12
-3028	-9048	13032	77	80	75	-12528	-8728	7352	-26	135	-12	-416	-4064	17416	79	-152	6	1432	6784	13504	-320	153	-241	-13520	6936	9904	-20	136	13	-1792	2216	18160	-174	-56	-5	129	147	12
-2356	-8472	13888	-63	118	18	-11696	-8536	7576	-38	149	30	256	-4392	17344	52	6	6	1504	5832	15472	-9	157	-125	-13528	6648	10248	60	124	-66	-936	2096	18928	-164	47	-30	131	144	12
-1912	-8708	12920	-161	147	-11	-10504	-8552	7480	-101	138	80	384	-4360	16688	-13	191	18	1656	6032	12864	199	138	-32	-12048	7240	9848	90	148	-123	-216	1584	18320	-94	215	-42	132	141	12
-1876	-8468	11672	-173	172	10	-9320	-8376	6832	-120	151	111	448	-4352	15736	-111	378	84	2296	7536	12464	260	150	3	-9696	7608	9512	140	215	-129	224	912	16040	-10	373	-15	131	139	12
-1248	-9936	11176	-103	127	29	-8544	-8576	7088	-143	181	134	664	-4176	14800	-95	454	178	3784	8904	11736	187	160	-37	-8608	7448	9200	116	222	-88	-88	880	14208	60	423	24	126	134	12
-528	-9824	11448	42	113	101	-8456	-8704	7104	-152	177	97	408	-3728	14080	-25	472	213	4032	8544	11776	50	181	-105	-8568	7360	8808	-2	224	-22	-824	544	12816	76	390	34	120	135	12
-364	-9292	12496	97	117	133	-9096	-8560	7568	-96	150	63	40	-3840	13424	69	424	200	4048	7584	12544	-65	165	-131	-9144	6160	8568	-24	193	31	-1288	912	12432	89	330	22	120	137	12
-228	-9316	13072	100	79	106	-9632	-8416	7504	-17	125	51	-472	-3152	13760	175	317	144	4216	6904	13344	-61	107	-103	-10144	5528	8856	130	81	62	-1680	1208	12912	80	224	-3	121	138	12
-188	-8692	13524	93	43	84	-9504	-8024	7496	-2	62	38	-576	-2704	13552	192	216	69	3776	7080	13144	-6	71	-60	-10416	6472	8984	230	-42	74	-1824	1552	13464	45	118	-30	123	143	12
-424	-8692	13012	78	28	54	-9464	-7848	7456	32	9	28	-760	-2680	13744	159	88	10	3424	6600	12792	46	24	-12	-10104	7104	8816	234	-91	91	-2144	2272	13976	23	36	-44	125	146	12
-512	-8912	13040	59	-15	15	-9360	-7832	7432	102	-12	23	-1040	-2408	13776	132	-58	-58	4056	6976	13040	95	-44	51	-9760	7224	9648	214	-134	74	-2448	2496	14176	21	-29	-37	126	142	12
-152	-9240	13084	41	-58	-27	-9240	-7768	7632	73	-69	-1	-1000	-2320	13672	110	-165	-128	4432	7344	13008	100	-70	81	-9584	7672	10064	90	-156	57	-1960	2736	14120	16	-98	-21	125	135	12
316	-9280	13164	22	-95	-66	-9088	-7728	7992	70	-104	-50	-544	-2400	13944	91	-206	-173	5080	7392	13760	66	-112	108	-9304	7856	11072	-21	-181	34	-1520	2608	14328	6	-159	-7	126	130	12
512	-9540	13380	-21	-144	-119	-8928	-7928	8560	40	-160	-96	-512	-2224	14648	114	-234	-167	4856	6592	12352	40	-126	103	-9264	7456	10520	-153	-207	26	-1120	2776	14664	-27	-200	5	127	133	12
72	-8624	12332	-57	-132	-145	-8664	-7152	7936	26	-183	-151	-168	-2120	14120	26	-184	-108	3888	6640	12096	36	-140	118	-8552	7032	9840	-146	-202	4	-824	3032	14880	-29	-190	20	127	135	12
-100	-8900	12404	-102	-189	-198	-8328	-7896	7792	-2	-192	-142	-128	-2224	14408	-76	-134	-53	4744	7776	12320	-83	-183	106	-8640	7488	10680	-25	-224	-21	-352	2384	14528	-14	-232	48	126	139	12
276	-9912	12316	-82	-207	-216	-8624	-8736	8296	-60	-221	-182	176	-2680	14768	-168	-163	-13	4240	7680	11496	-142	-149	69	-8992	7648	10320	-142	-223	2	-304	2360	15208	7	-288	36	125	139	12
-348	-8740	12096	-68	-185	-178	-9048	-8680	8080	-11	-230	-219	456	-3384	15408	-217	-205	-13	3688	8056	12616	-264	-131	8	-9152	7632	10264	-177	-193	10	-768	2368	15872	-23	-341	52	129	143	12
-908	-10640	12720	-87	-184	-197	-9560	-9320	8624	-17	-209	-214	376	-3984	16736	-191	-301	-47	3952	6856	13784	-347	-124	-39	-10720	7472	11112	-206	-185	2	-760	2544	17096	-73	-390	66	132	146	12
-956	-9440	12912	-100	-168	-198	-10440	-9952	8424	-71	-191	-216	800	-4760	17808	-206	-361	-92	3368	6968	14360	-304	-82	-40	-11752	7384	11120	-244	-149	-32	-24	2440	18232	-131	-438	70	130	142	12
-1028	-10088	13856	-169	-149	-234	-10560	-10512	8816	-17	-142	-185	1792	-5880	17656	-241	-338	-151	3304	5456	14768	-171	-114	8	-11832	6712	11608	-251	-124	-81	1064	2216	18776	-171	-379	86	131	138	12
-492	-9376	13108	-211	-116	-231	-9896	-10176	8968	-31	-138	-110	2240	-6064	17936	-263	-244	-159	3320	7824	13672	-50	-79	36	-11136	7208	11520	-146	-98	-120	1888	888	18960	-161	-272	98	130	135	12
-892	-10652	12424	-182	-87	-193	-9400	-10608	8576	-66	-120	-52	2800	-6376	17896	-251	-166	-104	3552	8008	13456	-77	-61	10	-10392	7296	11376	-143	-22	-70	2328	-56	18496	-67	-158	112	129	131	12
-740	-11580	12180	-68	-81	-118	-9656	-10904	8560	-82	-70	-41	3032	-6384	17672	-136	-118	-10	4040	8240	13392	-131	-8	-49	-10832	6960	11272	-162	16	-8	1864	-352	17888	2	-101	121	128	130	12
-376	-11308	12948	72	-60	-39	-9744	-10800	8800	-34	-26	-32	2744	-6776	17432	43	-27	65	4288	8008	14592	-159	22	-85	-11360	6376	11544	-120	27	51	1168	-496	18072	34	-58	105	128	134	12
-292	-10828	13600	119	-43	16	-10024	-10984	9160	-9	-15	-16	2216	-6744	17888	168	24	93	3392	7224	14856	-122	50	-94	-12032	6440	11360	-29	15	103	688	-216	18728	76	1	48	124	138	12
-264	-10960	13612	124	-41	23	-10888	-11112	8944	14	2	6	1752	-6136	18368	248	34	79	3088	7088	15568	-27	37	-66	-12648	6592	11368	103	6	135	328	592	19096	117	65	4	123	141	12
-1092	-11380	14392	176	1	72	-11384	-11464	9384	78	27	43	1360	-5568	18912	262	4	39	3424	7240	16128	67	21	-27	-13248	7176	11880	235	-27	132	16	1488	19520	113	98	-38	121	142	12
-792	-10812	14880	164	21	76	-11864	-11128	9568	119	47	80	1032	-4992	19096	216	4	-2	3808	7536	16192	181	21	16	-12888	7632	12248	257	-38	123	16	2128	19432	107	117	-76	122	144	12
-576	-10752	14724	115	42	60	-11400	-10328	9840	125	48	122	1136	-4584	18768	194	30	-32	3912	7432	15264	290	28	49	-11760	8120	12360	197	-5	97	256	2392	19512	81	131	-90	121	146	12
-660	-10840	14752	97	55	58	-10664	-9800	9536	89	65	140	1304	-4272	18272	176	75	-25	4712	8160	15352	306	20	64	-11112	8640	12584	209	24	74	248	2848	18808	57	141	-78	122	145	12
-72	-10616	14164	87	45	61	-10200	-9864	9784	1	55	132	1464	-3904	17760	166	112	18	5184	8600	14720	277	45	42	-10624	8880	12688	134	62	70	448	3040	18360	43	155	-58	123	141	12
-36	-10828	14412	87	56	74	-10176	-9928	9744	-23	50	104	1392	-3712	17872	140	174	68	5344	9160	14168	215	56	15	-10176	8976	12056	75	79	58	336	3008	17752	33	162	-34	124	139	12
4	-10540	14340	92	54	73	-10312	-9824	9728	-9	58	84	1176	-3776	17592	133	209	90	5096	8768	13888	118	73	-36	-10176	8776	11632	66	86	70	-128	2784	17504	47	161	-7	126	137	12
-460	-10884	14488	75	51	53	-10320	-9816	9600	29	65	74	712	-3552	17424	139	180	97	5104	9224	13984	31	69	-60	-10416	8736	11712	93	66	66	-520	2656	17440	81	124	21	126	138	12
-120	-10912	14696	64	37	37	-10528	-9864	9368	60	65	58	568	-3648	17072	133	127	83	4800	8648	14712	-45	65	-85	-10864	8832	11752	99	58	59	-720	2800	17520	110	76	44	126	136	12
-92	-9908	14636	34	32	21	-10624	-9616	9312	69	43	44	432	-3512	16712	128	58	63	4728	8176	15216	-72	60	-87	-11160	8480	11608	66	39	47	-1048	2984	17160	97	32	67	128	134	12
-260	-10196	14172	1	9	-8	-10328	-9408	9224	68	29	40	432	-3392	16216	115	-12	32	4496	7904	14688	-29	53	-56	-10904	8040	11064	11	11	14	-936	2912	17032	69	-6	85	127	134	12
-216	-10728	14228	-2	-5	-19	-9760	-9168	8840	44	13	24	544	-3336	16160	82	-44	-4	4400	7576	14200	13	9	-15	-10760	7904	11104	26	3	-9	-664	2744	16576	42	-29	78	127	134	12
8	-9652	13680	34	-15	-7	-9856	-8752	8856	9	-16	4	520	-2864	16064	40	-46	-22	4360	8784	13872	44	12	8	-10216	8024	10616	20	-14	-1	-304	2336	16248	33	-33	50	127	135	12
-120	-9748	13880	60	-36	-7	-9728	-8552	9000	-14	-27	-5	896	-2920	16312	-9	-37	-31	4440	7936	12712	31	1	6	-9856	7928	10736	-18	-27	14	-368	2488	15944	17	-25	22	127	137	12
-412	-9248	13460	58	-34	2	-9856	-8512	8968	-41	-44	-5	864	-2992	16336	-28	-22	-37	4264	7960	13016	11	-2	-2	-9664	7688	10352	-31	-21	21	-224	2488	15864	8	-12	-1	127	138	12
-152	-9096	13768	29	-43	-38	-9664	-8640	9080	-43	-34	-2	1144	-3272	16104	-28	13	-41	4736	7296	13688	25	-28	14	-9712	7088	10472	7	-38	10	56	2704	15464	13	-5	-6	127	140	12
524	-9212	13564	-22	-60	-88	-9296	-8640	9408	-31	-37	-3	1664	-3168	15840	-25	59	-33	5064	7288	13544	47	-44	30	-9288	7072	11320	32	-62	1	488	2624	15544	29	-7	-9	125	139	12
876	-9492	13460	-79	-60	-117	-8688	-8592	9304	-10	-51	-19	1712	-3248	15704	-19	88	-22	5704	6688	13048	48	-67	45	-9216	7104	11320	45	-102	-5	832	2400	15592	43	-11	-18	125	139	12
1528	-9572	13312	-97	-64	-145	-8048	-8768	9176	23	-64	-41	2080	-3136	14768	-32	113	-4	6432	6688	13504	60	-92	69	-8720	6976	12152	95	-144	-5	1048	2656	15352	54	-1	-26	126	140	12
2448	-9252	13672	-124	-104	-178	-7672	-8848	9832	3	-97	-69	2616	-3192	14712	-47	115	8	7088	6176	13336	67	-120	87	-8216	6944	12536	131	-193	-15	1776	2864	15496	47	-4	-10	126	141	12
3076	-9944	13292	-159	-111	-201	-7488	-9056	10232	-30	-139	-92	3088	-3320	15008	-26	72	2	8080	6592	13224	92	-127	103	-7736	7104	13296	93	-225	-18	2480	2992	15976	11	-46	-6	126	143	12
3388	-10168	13296	-184	-121	-211	-6704	-9392	10720	-88	-186	-106	3592	-3360	15336	-32	2	-4	7856	6832	12920	55	-121	89	-7528	7296	13856	54	-238	-11	2696	3320	15640	-70	-163	-12	126	141	12
3760	-10612	13040	-175	-116	-201	-6672	-9984	11168	-159	-215	-139	4584	-3848	16256	-58	-60	2	8336	6256	13080	6	-84	55	-7560	7208	14280	3	-240	-16	4000	3304	17024	-66	-145	-26	126	140	12
3728	-10164	13064	-170	-107	-201	-6648	-10632	11600	-180	-209	-147	5304	-4472	16600	-103	-72	-14	7800	5872	13040	17	-96	66	-7360	7120	14488	-17	-208	-25	4688	3256	17232	-91	-145	-11	124	141	12
3888	-9680	12708	-179	-118	-198	-6192	-10784	11608	-154	-174	-121	6048	-4888	16944	-154	-48	-30	7952	6224	12320	18	-80	43	-6728	6936	14584	-17	-155	-52	5416	3072	17664	-120	-132	17	126	141	12
4028	-10644	12216	-166	-101	-155	-5792	-10752	12160	-143	-137	-78	6440	-5032	17224	-180	-29	-22	7816	6976	11752	-52	-28	-1	-6752	7464	14352	-49	-85	-34	5712	2400	17984	-108	-117	20	127	139	12
3728	-10488	11856	-82	-48	-92	-5672	-11128	11576	-107	-90	-61	6488	-5488	16888	-159	-17	9	7400	6616	12192	-115	0	-41	-6992	7120	14088	-82	1	-7	5128	2112	17704	-51	-77	29	128	138	12
3788	-10124	12172	-13	-36	-51	-5840	-11280	11512	-43	-23	-40	5768	-5824	16736	-73	-19	27	7872	6504	12720	-148	26	-82	-7304	6696	14112	-73	44	7	4360	1816	17352	-14	-50	55	126	137	12
3828	-9988	12380	34	-4	-5	-6176	-10968	11304	20	13	-17	5536	-5680	16432	4	-24	21	7280	6024	12232	-152	59	-103	-7616	6632	13288	-88	61	24	3744	1632	16968	25	-59	61	125	137	12
3272	-10008	12500	67	23	30	-6520	-10544	10680	74	45	10	4800	-5408	15864	74	-54	13	6888	5976	13200	-126	57	-88	-8120	6280	13192	-51	76	43	3424	1816	16656	70	-66	51	125	134	12
3124	-9896	12688	78	15	34	-6824	-10392	10368	97	55	40	4064	-5032	15728	110	-87	-5	6944	5920	13528	-84	41	-71	-8480	6072	12944	33	58	50	3040	1808	16192	84	-56	55	127	135	12
3088	-10456	13084	65	-2	10	-7080	-10328	10632	90	55	52	3768	-4688	15584	105	-85	-7	7248	5264	13760	-10	5	-32	-8304	6024	13392	92	19	35	2856	2096	15872	86	-43	49	126	135	12
3596	-9568	12840	58	-13	-1	-6848	-9848	10248	76	30	51	3696	-4456	15224	107	-63	-15	7608	5936	13528	63	9	-3	-8056	6304	13256	84	-12	30	3024	2128	15528	80	-29	36	127	136	12
3788	-10392	13004	59	-17	-12	-6552	-9696	10200	68	0	48	3888	-4288	14936	104	-32	-21	7488	6240	13240	93	-10	23	-7736	6536	13192	81	-37	34	3352	2480	15800	64	-16	11	127	138	12
3732	-10076	12508	61	-26	-11	-6408	-9648	10352	37	-28	29	4216	-4104	15376	83	9	-14	7680	6176	13104	106	-14	32	-7504	6752	13408	81	-43	53	3752	2712	15688	50	26	6	128	138	12
3684	-10104	13040	81	-40	-13	-6376	-9656	10608	-1	-40	14	4480	-4000	15176	69	35	7	7944	6072	12632	105	-31	36	-7296	6832	13376	65	-55	56	3784	2688	15792	40	48	-5	129	138	12
3980	-9844	12888	76	-43	-18	-6424	-9528	10976	-18	-50	-4	4584	-3968	15608	75	63	11	7936	5936	12720	110	-30	33	-7208	7040	13456	58	-58	58	3624	2968	16208	41	39	-14	128	139	12
3876	-9616	12804	78	-39	-19	-6528	-9816	10976	-19	-47	-5	4680	-4192	15952	86	60	8	7880	6432	12600	83	-34	16	-7232	7216	13824	76	-64	58	3616	2816	16392	44	15	-10	127	141	12
3964	-9972	13028	59	-43	-27	-6616	-10048	11168	6	-46	-4	4832	-4208	16048	93	28	4	7984	6936	12936	30	-16	-3	-7472	7584	14064	84	-56	69	3720	2992	16808	56	-19	-2	126	140	12
3636	-10016	13104	45	-20	-23	-6792	-10392	11376	21	-39	-11	4608	-4176	16528	103	-26	-2	7584	6792	13120	-22	13	-35	-7408	7568	14072	79	-59	71	3544	3416	17376	59	-45	3	126	140	12
3256	-10272	13056	30	-6	-13	-7064	-10368	11328	49	-22	-7	4440	-4136	16800	108	-77	-9	7496	6592	13360	-59	18	-56	-8192	7784	13960	25	-14	64	3296	3424	17672	29	-65	20	126	138	12
3228	-10652	13196	33	4	-3	-7392	-10560	11312	48	4	-4	4320	-4304	17312	93	-101	-13	7520	6904	14080	-80	21	-56	-8712	7792	14472	40	3	30	2920	3344	17912	13	-77	24	126	137	12
3208	-10420	13604	26	-5	-15	-7592	-10664	11536	33	12	-4	4168	-4368	17184	67	-104	-20	7192	6328	13832	-42	31	-51	-8904	7792	14352	-4	7	8	3080	3192	17840	6	-79	27	127	137	12
3148	-10296	13372	37	8	3	-7480	-10360	10936	29	16	1	4256	-4272	17032	42	-75	-32	7240	6680	13712	10	30	-34	-8584	7664	13792	11	20	-7	3008	3072	17488	5	-63	28	127	139	12
2964	-10092	13876	51	5	7	-7520	-10224	11240	16	18	18	4000	-4272	16920	8	-37	-20	7744	6664	12992	37	17	-30	-8160	7536	13424	4	35	-4	3192	2816	16840	13	-28	27	128	139	12
3168	-9932	13652	53	7	3	-7480	-10016	10864	-2	13	28	4240	-4216	16488	-22	16	-3	7400	7168	13296	50	12	-22	-7848	7496	13184	12	40	3	3088	2552	16600	33	16	19	128	140	12
3096	-9836	13736	69	-6	0	-7424	-10048	11024	-10	8	35	4176	-4352	16328	-11	57	11	7456	7256	12720	35	14	-32	-7704	7296	13072	7	20	22	3072	2360	16088	49	29	10	127	137	12
3092	-9928	13516	54	0	-6	-7352	-9840	10976	5	6	31	4104	-4392	16432	-3	64	15	7648	7432	13192	-5	20	-45	-7904	7296	12968	28	7	54	2784	2408	16368	65	21	2	127	136	12
2912	-10340	13792	68	1	-3	-7600	-10256	10928	36	10	26	4000	-4368	16224	39	65	17	7608	6992	13840	-38	9	-51	-8488	7376	13216	56	-21	75	2632	2664	16432	71	8	-2	126	138	12
3180	-10316	13720	58	-11	-11	-7744	-10296	10704	63	-8	14	3800	-4056	16592	99	24	4	7344	7272	14224	-24	7	-35	-8688	7344	13464	82	-41	66	2472	3248	17184	58	-19	-1	126	140	12
2640	-10148	13568	32	-10	-18	-7832	-10112	10696	77	-11	-2	3536	-3608	16512	81	-15	-22	6752	6296	13816	8	14	-26	-8808	7520	13264	43	-32	52	2688	3640	17560	29	-31	-2	127	142	12
2456	-9900	13780	21	-10	-21	-7720	-9704	10704	77	-4	3	3648	-3720	16656	52	-51	-37	7000	6544	13720	29	-16	-4	-8744	7760	13952	87	-28	16	2816	3624	17552	-7	-33	3	128	142	12
3180	-10224	13368	0	-23	-43	-7552	-9824	10856	1	-13	4	4040	-3736	16616	27	-47	-36	7416	6816	13144	53	-2	4	-8096	7888	13744	49	-18	-4	3160	3352	17320	-19	-19	15	127	141	12
2984	-9836	13108	-7	-9	-31	-7264	-9640	10616	-50	-9	-7	4120	-3840	16368	-4	-22	-13	7512	7040	12808	41	16	-11	-7816	7840	13504	-19	11	-4	3320	2984	16744	-24	-1	20	127	137	12
2892	-9388	13052	12	-15	-21	-7080	-9584	10784	-61	-9	-15	4120	-4112	16376	-8	17	5	7288	6888	12232	9	29	-34	-7584	7360	12912	-63	23	4	3320	2912	16328	-21	10	28	127	138	12
3000	-9708	12928	27	-4	-8	-7232	-9792	10744	-53	6	-3	4048	-4104	16296	-7	18	15	7464	7096	12648	-36	32	-41	-7664	7224	12920	-21	33	11	2840	2456	16352	6	17	29	127	139	12
2752	-10164	13184	30	-4	-15	-7160	-10048	10984	-45	4	4	3808	-4280	16048	23	67	36	7336	7032	12840	-39	36	-48	-7992	7120	12744	-8	22	22	2888	2456	15952	39	21	25	126	136	12
2976	-9576	13288	18	5	-13	-7392	-9960	10912	-5	-1	5	3704	-4304	16088	39	58	29	7120	6688	12944	-37	34	-51	-8096	7072	12792	28	7	37	2704	2528	16544	39	20	19	127	136	12
2828	-9384	13164	4	0	-14	-7376	-9888	10528	48	10	24	3768	-4136	16008	54	47	10	6680	6384	13016	-41	29	-47	-8048	7056	12800	32	7	41	2712	2872	16224	41	14	20	126	138	12
2768	-9708	12856	6	4	-18	-7192	-9904	10312	69	17	30	3688	-4024	16096	58	33	0	6960	6896	13192	4	19	-33	-8176	7184	13128	82	2	24	2568	2976	16336	38	7	19	125	139	12
2972	-10200	13168	23	-1	-18	-7128	-9784	10472	70	17	30	3600	-3760	15856	47	12	-4	7320	6456	13080	31	7	-23	-8208	7384	13280	65	-6	22	2832	2992	16360	32	1	18	125	138	12
3204	-9328	13012	22	-3	-7	-7144	-9392	10472	33	3	8	3920	-3792	15800	42	-12	-12	7016	6728	12920	42	20	-21	-7728	7296	12976	35	-10	18	2872	3144	16384	4	-13	5	126	138	12
2944	-9896	12968	19	1	-7	-7040	-9456	10536	3	7	9	4000	-3648	15888	39	-39	-8	7304	6336	13032	10	22	-26	-7920	7424	13032	8	-3	26	3088	3064	16544	-10	-23	9	127	141	12
2948	-9904	13092	40	0	-3	-7232	-9688	10544	-44	2	1	4000	-3952	16040	25	-29	-3	7328	6832	12536	24	15	-19	-7800	7336	12992	-11	1	14	2824	3096	16488	-13	-27	11	127	140	12
2836	-9352	13340	30	-7	-8	-7384	-9576	10736	-45	-4	-3	3928	-4120	15896	12	-6	-1	6968	6968	12752	23	22	-17	-8016	7360	13064	-7	6	16	2952	2808	16088	-7	-18	8	128	141	12
2924	-9376	12996	20	-8	-13	-7096	-9608	10664	-19	1	9	3928	-4080	15752	11	13	-1	7072	7560	12944	16	24	-25	-7696	7352	13024	16	10	18	2832	2632	16136	1	-3	20	127	139	12
2808	-10564	13256	16	-2	-18	-7352	-9952	10808	-8	2	11	3696	-4032	16536	18	17	8	7496	7448	13128	-58	23	-53	-7984	7664	13136	33	-2	35	2480	2512	16768	15	-14	20	126	137	12
2932	-10688	13428	46	5	1	-7712	-10392	10832	3	-12	-12	3552	-4192	16568	42	-4	17	7160	7112	13832	-113	34	-72	-8920	7888	13272	12	-2	39	2256	2912	17480	27	-27	16	127	136	12
2420	-10364	14100	31	-7	-11	-8128	-10656	10944	30	-1	-23	3488	-4120	16936	56	-28	1	6960	5888	14128	-93	22	-67	-9472	7464	13904	5	-12	36	2296	2976	17416	25	-30	14	127	138	12
2484	-9924	13708	0	1	-15	-8288	-10344	10768	39	0	-20	3544	-4152	17208	52	-46	-21	6544	7224	14288	-4	27	-28	-9272	7776	13480	29	-4	1	2408	3072	17984	-11	-41	23	127	142	12
2608	-10320	14112	8	-11	-21	-8008	-10168	11056	28	10	12	3552	-4224	17048	17	-44	-20	7360	7136	14272	24	10	-15	-9008	7912	13824	44	-1	-14	2672	2864	17552	-7	-28	24	127	140	12
2692	-9884	13900	-12	-14	-37	-7992	-9816	10960	-29	-11	5	3792	-4152	17144	-8	-12	-5	6936	6768	13664	58	15	-12	-8400	7592	13272	-4	6	-16	2840	2672	16920	11	1	29	127	137	12
2968	-10324	13592	15	-1	-28	-7552	-10136	10896	-53	-9	11	3840	-4360	16376	-1	17	17	7296	7088	12896	51	7	-11	-7896	7464	13304	-8	9	2	2896	2600	16480	12	18	26	127	138	12
2964	-9684	13344	24	-6	-15	-7408	-10104	10536	-38	-6	14	3808	-4496	16472	25	50	24	7280	7496	13344	-1	17	-28	-7904	7592	13208	-11	5	6	2792	2336	16512	23	11	20	125	138	12
2832	-11004	13848	31	-26	-28	-7616	-10440	11040	-8	-8	12	3952	-4272	16672	64	44	16	7616	6992	13744	-15	11	-32	-8368	7184	13312	-1	-15	51	2576	2544	16616	55	6	11	125	137	12
3052	-9884	13756	35	-12	-20	-7688	-10376	10928	37	-16	-1	3800	-4416	16200	58	43	10	7008	7256	13480	-13	12	-20	-8392	7464	13064	50	-35	51	2504	2864	16816	53	-5	-2	125	138	12
2584	-10212	13716	-1	-23	-31	-7560	-10088	10848	81	-11	2	3776	-3896	16480	58	9	-14	7160	6568	13784	-22	4	-22	-8720	7552	13360	69	-43	51	2624	3072	17160	24	-15	-2	125	141	12
2784	-10572	13464	-9	-25	-36	-7536	-10088	10720	69	-9	-1	3736	-3688	16568	38	-15	-22	7312	6456	13624	-9	-9	-10	-8768	7728	13848	72	-46	25	2696	3200	17496	10	-38	-2	125	141	12
2808	-9992	13576	-3	-26	-37	-7656	-9976	10896	31	-16	-17	3840	-3704	16472	13	-41	-24	7184	6464	13600	15	-5	-11	-8584	7768	13760	32	-38	17	2968	3304	17264	-5	-40	7	127	141	12
2856	-9920	13160	-9	-30	-39	-7528	-9624	10808	-1	-15	-20	4072	-3976	16392	-7	-37	-22	7080	7128	13208	50	-2	5	-7912	7656	13256	-9	-6	-10	3096	3056	17184	-32	-38	22	127	141	12
2900	-9940	13052	14	-19	-26	-7128	-9712	10864	-44	-11	-7	3952	-4112	16536	-6	-29	-8	6896	6936	12328	43	13	-3	-7752	7744	12968	-51	17	-6	3088	2680	16720	-22	-29	30	127	141	12
2940	-9296	13368	32	-12	-8	-7312	-9488	10784	-72	-17	-2	4064	-4552	16192	-6	-1	26	7152	6816	12544	13	17	-27	-7568	7456	12808	-51	33	8	3088	2536	16376	2	-7	43	127	138	12
2736	-9504	13100	21	-16	-14	-7416	-9800	10824	-65	-16	14	3968	-4456	15984	31	24	40	6928	7192	12448	-11	34	-36	-7504	7072	12496	-33	29	27	2928	2208	15944	35	7	38	126	138	12
2804	-9804	13068	28	10	-5	-7296	-10024	10768	-15	5	25	3872	-4344	16152	71	28	41	6744	7656	12440	-45	30	-49	-7984	7272	12648	37	14	45	2800	2272	16104	38	7	40	125	136	12
2676	-9572	13020	43	8	7	-7624	-10240	10632	47	8	24	3576	-4312	15992	96	20	33	6760	6464	13136	-52	34	-54	-8344	7104	12800	41	7	70	2304	2496	16112	77	2	19	125	137	12
2576	-9524	13120	33	1	-15	-7600	-9760	10200	118	24	34	3560	-3968	15800	93	24	11	6496	6576	12960	-2	16	-32	-8400	6840	12424	66	-1	50	2184	2920	16336	73	12	20	126	138	12
2608	-9768	12792	38	2	-6	-7256	-9384	10048	126	27	38	3504	-3928	15736	92	22	5	6688	6352	13072	37	13	-13	-8152	7360	12416	99	-11	35	2432	2840	16192	56	1	16	125	140	12
2696	-9560	12940	44	-17	-20	-7248	-9184	10232	76	7	32	3208	-3344	15568	59	2	-14	6680	6632	13024	40	3	-16	-8024	7336	12624	66	-10	33	2312	3200	15904	31	-3	8	126	138	12
2560	-9536	12900	55	-15	1	-7256	-9216	9944	15	-7	7	3376	-3480	15672	49	-25	-8	7120	7376	13104	18	3	-12	-8096	7728	12912	61	-17	42	2384	2776	16144	18	-32	9	126	138	12
2760	-10376	13548	73	-28	-12	-7584	-9560	10664	-44	-32	-10	3328	-3688	15864	41	-47	-6	7368	7392	13616	-33	1	-25	-8472	7848	12800	-20	-31	56	2344	2912	16848	-3	-47	1	127	140	12
2324	-10360	13608	58	-16	-8	-7952	-9976	10712	-66	-41	-34	3352	-3888	16664	44	-66	-6	7040	6808	13928	-35	10	-24	-8816	7728	13344	-48	-21	50	2384	3208	17552	-13	-63	-1	128	142	12
2276	-9836	13972	13	-34	-37	-8136	-10048	10976	-31	-28	-27	3624	-3896	16896	47	-51	-16	7040	6752	14232	15	-10	-3	-9208	7496	13520	6	-34	21	2472	3344	17752	-22	-53	1	129	142	12
2776	-9912	14004	5	-33	-40	-7856	-10336	11376	-38	-31	-14	3872	-4032	17096	28	-35	-15	7384	7144	13584	55	-6	20	-8496	8072	13584	56	-38	5	2896	3296	17856	-13	-38	8	127	142	12
3136	-9992	14152	8	-32	-40	-7704	-10144	11424	-14	-24	-17	4136	-4040	17136	6	-2	3	7616	6960	13792	64	-19	19	-8176	8272	13896	51	-33	6	3000	3192	17184	11	-6	21	126	139	12
3360	-9976	14144	5	-35	-49	-7616	-10136	11520	12	-28	-14	4200	-4096	17128	20	28	18	7792	7856	12744	65	-19	20	-7744	7984	13736	39	-29	4	3136	3184	16760	36	8	30	126	137	12
3096	-9844	13996	7	-24	-41	-7560	-9952	11672	33	-21	-9	4368	-3944	16792	50	39	26	8032	7472	12752	8	-11	1	-7648	8040	13448	18	-31	24	3048	3216	16544	46	3	28	124	136	12
2932	-10236	14164	8	-29	-49	-7528	-10088	11576	30	-18	6	4360	-3880	16784	71	23	19	8112	7008	13280	-23	-3	-19	-7656	7792	13616	-12	-28	44	3224	3072	16712	52	-16	13	124	136	12
3360	-10060	13884	-10	-35	-49	-7336	-9952	11320	19	-28	0	4320	-3648	16504	52	16	10	7648	7160	13184	-20	-5	-23	-7736	7792	13544	-11	-28	40	3024	3560	16960	42	-29	3	126	139	12
3116	-10436	13780	-7	-27	-46	-7056	-10088	11216	27	-18	-7	4216	-3696	16456	33	-8	-14	7904	6680	13560	-60	-10	-27	-8280	7848	13824	46	-50	43	3160	3688	17368	7	-57	0	125	140	12
3244	-10824	13600	0	-31	-54	-7296	-10144	11224	8	-34	-23	4232	-3512	16544	-1	-47	-27	7288	6536	13856	-47	-6	-25	-8480	7952	13968	-2	-47	26	2888	3848	17808	-13	-65	-3	127	141	12
3140	-9632	13384	5	-26	-30	-7392	-10040	11000	15	-29	-42	4192	-3864	16712	-21	-70	-40	7336	6656	13680	-22	3	-15	-8200	7672	13848	-7	-21	1	3320	3680	17464	-36	-78	13	128	142	12
2864	-10240	13532	-20	-33	-53	-7240	-9888	11024	6	-7	-20	4304	-3960	16584	-43	-70	-36	7576	7152	12936	3	3	-16	-8016	7752	13712	-28	-10	-24	3384	3040	17336	-49	-67	25	128	142	12
3136	-9500	13056	1	-20	-23	-7376	-9752	11104	-38	-17	-27	4256	-4248	16312	-53	-39	-13	7496	7304	12896	-5	15	-18	-7544	7864	13416	-40	27	-18	3552	2688	16600	-20	-40	35	128	138	12
2968	-9848	13536	-13	-20	-46	-7072	-9728	10976	-42	-9	-7	4344	-4360	15992	-33	-1	19	7624	7008	12152	-34	28	-36	-7584	7080	13000	-84	18	2	3184	2480	16456	0	-16	50	128	137	12
2780	-10128	12808	12	-4	-16	-7144	-9888	10872	-42	-10	1	4064	-4512	16392	11	24	39	7280	7248	12296	-79	39	-47	-7672	7336	13000	-31	27	21	2912	2344	16440	11	-6	47	127	137	12
2676	-9852	13176	4	-6	-24	-7288	-9960	10664	-15	-3	1	4008	-4520	15984	46	31	46	7112	6264	12768	-77	33	-68	-8112	6888	12792	-37	23	41	2720	2424	16152	40	1	43	127	137	12
2848	-9648	13016	23	-7	-8	-7360	-9880	10504	28	4	16	3616	-4544	15872	68	27	33	6752	6416	12896	-52	32	-50	-8304	6656	12360	-37	18	45	2744	2168	16312	44	1	44	126	137	12
2668	-9684	13136	28	-4	-12	-7264	-9928	10592	67	12	25	3648	-4144	15416	76	24	21	6576	6480	13384	-3	15	-26	-8264	6960	12760	71	-5	48	2416	2512	15912	71	6	27	126	138	12
2936	-9836	13040	33	-15	-13	-7216	-9592	10168	71	-6	16	3752	-3928	15696	77	8	12	6840	7216	12768	47	5	-6	-8176	6992	12408	52	-14	48	2496	2560	16168	55	0	20	126	137	12
2504	-10216	12968	54	-6	-7	-7320	-9536	10200	52	-7	20	3688	-3736	15464	91	-17	-1	7312	6760	13384	15	-4	-7	-8264	7456	12792	83	-26	56	2384	2760	16384	35	-11	13	126	139	12
2700	-10036	13088	62	-24	-6	-7224	-9576	10256	45	-8	23	3480	-3552	16440	95	-59	-6	6720	6880	13192	13	14	-18	-8472	7552	12976	26	-25	61	2520	3040	16960	22	-32	5	126	140	12
2532	-9940	13276	59	-12	4	-7712	-9688	10440	1	-17	-5	3800	-3712	16320	73	-62	-8	6696	6232	13104	30	3	5	-8600	7304	13008	-23	-26	47	2528	3432	16768	8	-32	-1	127	140	12
2544	-9308	13160	54	-25	-2	-7512	-9480	10680	5	-9	-2	3792	-3600	16336	63	-40	-14	6816	7504	13056	85	2	29	-8272	7544	13016	52	-25	17	2736	3560	17128	-21	-37	-1	127	142	12
2680	-9684	13472	39	-23	-2	-7472	-9552	11280	-24	-9	9	3856	-3400	16688	44	-22	-16	7392	6776	13256	84	9	15	-8208	8264	12976	38	-9	15	2872	3480	16880	-18	-26	-4	127	142	12
2904	-9816	13892	60	-17	7	-7760	-9728	11392	-30	-13	-1	3784	-3568	16488	5	3	6	7528	7664	12256	84	10	17	-7792	8192	12920	7	1	10	2832	3512	16800	-3	-1	-7	127	141	12
2536	-9344	13608	17	-1	5	-7808	-9592	11056	2	1	-2	3848	-3664	16976	12	35	15	7344	7752	12688	27	25	-10	-7600	8400	12896	19	7	21	2664	3360	16680	4	12	3	127	142	12
2616	-9728	14100	6	-14	-13	-7904	-9744	11224	12	14	10	3688	-3544	16952	23	38	17	8088	7400	13168	-19	15	-29	-7880	8112	13392	0	4	19	2752	3504	16656	6	5	8	126	139	12
3128	-9960	13928	2	-7	-24	-7760	-9768	11296	6	5	0	3784	-3448	16720	28	32	15	7656	7512	12928	-50	24	-33	-8040	8008	13176	-5	-4	27	2552	3568	16944	18	-10	9	126	139	12
2628	-9552	13728	-34	-6	-33	-7648	-9656	10984	21	-4	-10	3872	-3592	16432	26	25	5	7472	7584	13528	-57	15	-31	-8408	8016	13792	41	-5	17	2680	3560	17248	2	-18	14	126	137	12
3092	-10348	13952	-33	-20	-44	-7584	-9880	11160	0	-7	-13	3912	-3584	16672	13	-3	1	7488	6744	13240	-52	20	-41	-8352	8232	13672	8	-16	4	2664	3520	17352	-13	-25	24	127	139	12
2912	-10124	13708	-13	-4	-33	-7640	-9816	10912	-11	-11	-27	3880	-3808	16440	-15	-15	4	7288	7480	13424	-27	16	-23	-8120	7968	13632	2	-2	-14	2864	3272	16944	-19	-30	35	127	136	12
2880	-9624	13672	-34	-14	-41	-7504	-9648	10744	-29	-7	-26	3936	-3864	16384	-14	-22	-2	7480	7664	13192	-34	19	-24	-8040	7936	13408	-7	0	-13	2920	2984	16992	-23	-32	41	128	137	12
2660	-10048	13620	-14	-20	-29	-7768	-9968	11088	-66	-18	-29	3888	-4000	16512	-12	-33	5	7448	7288	13152	-59	37	-41	-8000	7712	13352	-43	8	0	3040	2896	16808	-17	-33	38	127	137	12
2744	-10084	13704	-19	-10	-26	-7824	-9992	11016	-55	-11	-22	3832	-4200	16960	-13	-16	10	7272	7240	12864	-64	24	-38	-8200	7464	13312	-47	7	13	2968	2864	16816	-20	-29	30	127	138	12
2752	-9264	13164	-14	-9	-14	-7424	-9984	10920	-46	-12	-5	3856	-4448	16848	0	-1	15	6856	7296	13368	-54	40	-32	-8208	7520	13072	-21	22	3	2848	2664	16848	-11	-18	37	127	139	12
2684	-9828	13464	-12	-17	-19	-7472	-10232	11040	-14	7	8	4008	-4264	16624	7	10	18	7008	7296	12888	-35	35	-33	-8392	7384	12928	-30	19	10	2872	2664	16656	1	-2	35	126	138	12
2660	-9648	12872	-12	6	-17	-7408	-9768	10440	27	13	9	3936	-4200	16584	3	26	22	6624	6568	12992	-10	37	-23	-8064	7032	12680	-4	25	9	2544	2664	16168	25	16	34	126	139	12
2672	-9208	12892	10	0	-5	-7288	-9832	10352	35	15	18	3616	-4008	15552	30	46	27	6960	6952	12440	19	36	-23	-7936	7104	12520	35	17	19	2576	2536	16080	29	10	28	126	139	12
2464	-10136	13020	35	5	4	-7072	-9528	10432	37	23	27	3432	-3760	15832	35	36	28	6952	7544	12856	-38	35	-35	-7976	7400	12640	50	16	40	2432	2528	16016	28	-2	16	124	139	12
2648	-10132	13068	33	0	10	-7712	-9720	10464	6	-1	19	3352	-3768	15936	60	-11	27	6760	7288	13480	-72	45	-50	-8584	7592	12800	9	10	57	2040	2712	16480	32	-17	13	125	138	12
2244	-10260	13392	52	1	21	-8192	-9752	10216	3	0	-13	3376	-3728	16360	72	-52	14	6672	6800	13784	-67	45	-38	-9440	7616	13080	-13	-7	49	1936	3280	17160	5	-44	7	127	139	12
1928	-9752	13740	46	-12	21	-8152	-9776	10328	3	-1	-17	3184	-3728	16920	65	-72	-10	6304	6872	13736	-2	30	-12	-9208	7784	12920	3	-4	29	1976	3504	17472	-29	-45	8	128	143	12
2132	-9928	13788	41	-13	9	-8240	-9656	10528	-6	5	-4	3272	-3928	16976	38	-65	-21	6600	7016	13224	83	13	18	-8936	7872	12888	4	13	-3	2200	3152	17520	-26	-15	16	127	143	12
2480	-9404	13796	41	-12	8	-8200	-9280	11056	-19	0	10	3320	-3872	16736	7	-20	-14	6760	7616	13088	109	18	20	-8064	7816	12664	30	22	-13	2448	3064	16608	4	13	25	127	137	12
2448	-9516	13692	3	-4	-10	-7920	-9384	10808	-30	9	27	3512	-3624	16504	9	26	12	7184	8328	12904	46	17	6	-7600	7952	12880	47	7	6	2528	2888	16472	10	16	24	126	134	12
2428	-10532	13624	12	-16	-13	-7776	-9744	11048	-54	-3	16	3432	-3760	16704	29	61	39	7248	7856	12840	-42	40	-35	-8032	8184	12832	24	-3	34	2328	3064	16608	29	17	12	125	135	12
2448	-9792	13872	16	1	2	-8040	-10344	10904	-21	-5	-8	3472	-3568	16592	53	54	33	6928	7304	13456	-93	43	-61	-8072	8232	12848	17	-1	34	2056	3344	16656	21	3	5	125	138	12
2436	-9640	13748	-7	-12	-18	-8056	-9816	10720	48	8	-9	3376	-3544	16352	39	36	12	6672	6296	13672	-80	28	-52	-8976	7736	13136	-14	-2	34	1984	3536	17248	2	1	11	126	141	12
2404	-9660	13452	-31	-7	-29	-7944	-9520	10384	65	19	-11	3168	-3408	16256	8	22	-8	6648	7552	13696	-34	21	-23	-8840	7984	12896	8	8	-3	1864	3504	17160	-18	-19	19	127	140	12
2300	-10424	13588	-9	-17	-33	-7856	-9536	10400	28	7	-12	3032	-3504	15936	-31	2	-5	6696	6368	13416	-14	16	-14	-8800	7840	13088	-3	-1	-9	2056	3120	16744	-28	-30	26	126	138	12
2360	-9464	13484	-2	-27	-8	-8016	-9280	10392	-25	-13	-31	3072	-3672	16320	-35	-35	2	6664	8192	13072	-16	24	-9	-8480	8096	12664	-14	-4	-4	1960	2832	16600	-24	-55	36	127	138	12
1916	-10160	13484	22	-21	-5	-8304	-9576	10536	-50	-14	-33	2944	-3864	16448	-6	-69	6	6704	7448	13576	-33	26	-17	-8496	8024	12464	-40	0	14	2064	2880	16592	-29	-51	37	127	139	12
1932	-9132	14020	3	-26	-12	-8472	-9656	10808	-77	-34	-31	3144	-4152	16896	22	-72	8	6288	7720	12976	-39	32	-28	-8536	7664	12504	-70	8	12	2144	2888	16768	-27	-44	38	127	139	12
1820	-9460	13464	-14	-7	-20	-8624	-9632	10584	-61	-24	-2	3160	-4016	16736	39	-39	9	5960	6184	12856	-20	30	-24	-8560	7456	12320	-47	14	8	2088	2632	16544	1	-29	40	127	138	12
1676	-9264	13340	-42	-9	-37	-7936	-9600	10080	-12	1	24	3248	-4032	16200	10	6	22	6376	7368	12680	6	20	-13	-8496	7160	12064	2	7	6	2168	2648	16352	21	-5	41	126	137	12
2072	-9576	12712	-32	0	-26	-7448	-9552	10104	16	13	29	3248	-3944	15656	-1	56	31	6520	7360	12560	-24	37	-27	-8152	7312	12128	73	11	16	2248	2440	16352	42	12	33	126	137	12
1976	-10324	13100	2	-1	-5	-7352	-9744	9816	52	24	20	3120	-3856	15688	26	53	34	6496	8496	13232	-82	32	-46	-8688	8032	12784	75	-1	46	1816	2528	16720	39	-5	25	125	135	12
2160	-10692	13248	62	-7	30	-8224	-9832	10080	56	10	-17	2720	-3568	16440	40	16	31	6336	7616	14144	-131	56	-57	-9528	8336	12880	-4	-5	65	1432	3000	17464	23	-21	12	126	136	12
1196	-10248	14084	61	-6	37	-9056	-9984	10448	51	-10	-45	2592	-3504	17016	50	-41	10	5624	7624	13944	-76	48	-49	-10192	8296	12816	-91	0	47	1152	3376	18080	-22	-49	6	127	141	12
1380	-9796	14232	86	-7	46	-9376	-9456	10312	28	1	-39	2208	-3712	17200	45	-89	-29	5352	6536	14000	18	26	-1	-9904	7856	12096	-78	22	6	1208	3352	17432	-52	-45	17	127	146	12
900	-9080	14192	19	-23	-12	-9192	-9048	10320	-22	3	2	2688	-3648	16968	1	-77	-30	5984	7288	13024	99	12	22	-8824	7408	11776	-21	30	-25	1600	2792	16600	-29	-19	36	128	141	12
1612	-9848	13732	-16	-16	-30	-9264	-8832	10016	-31	3	6	2808	-3840	16648	-18	-26	-7	6712	7752	12896	87	-1	18	-8208	7912	12448	69	8	-24	1864	2376	16128	6	-11	36	126	134	12
1456	-10180	13596	-11	-20	-30	-8296	-9712	10376	-122	-26	24	2640	-3920	16552	-9	10	35	6912	8480	13240	-35	27	-33	-8456	8288	12072	15	-6	35	1560	2408	16224	30	-14	17	125	134	12
1516	-10440	13628	13	-11	-18	-8784	-10696	10240	-35	-15	-16	2488	-4072	16888	35	24	37	6136	7720	13760	-126	36	-67	-9304	8224	12256	-9	-14	67	1040	2768	17032	26	-25	8	126	137	12
1252	-10556	13928	25	-1	-5	-9128	-10424	10280	77	0	-28	2200	-4128	17208	66	-5	7	5800	7744	14376	-151	37	-76	-10160	8112	12720	-10	-14	64	832	3128	17736	13	-39	14	127	141	12
748	-9756	14000	2	-15	-4	-9528	-9976	9936	131	11	-21	1920	-4016	17136	40	-21	-16	5040	7096	14304	-76	30	-47	-10400	7896	12448	-49	5	23	912	3312	17824	0	-33	25	127	141	12
828	-9516	13644	-20	-7	-33	-9200	-9224	9544	118	21	1	2208	-3848	16528	-7	-6	-20	5104	6304	14016	10	-5	-1	-9952	7616	12640	3	11	-17	1032	2760	17008	-1	-19	41	127	137	12
1268	-9084	13808	-41	-34	-56	-8472	-8880	9712	26	-2	11	2328	-3760	15760	-46	21	-12	5768	6232	13928	43	-10	7	-9144	7296	11904	38	-14	-32	1728	2496	16136	19	-2	46	127	137	12
1532	-10696	13380	-45	-41	-75	-7976	-9120	9952	-69	-37	2	2624	-3760	15792	-33	36	13	6624	7840	12800	64	-29	33	-8144	7448	12120	32	-35	-14	1936	2160	16032	17	-9	43	125	134	12
2168	-10024	13164	-4	-40	-48	-7832	-9496	9864	-122	-70	-25	2856	-3968	15888	8	27	29	6472	8312	12656	14	-9	11	-8248	7704	12192	-20	-38	32	1960	2104	15920	11	-15	24	126	136	12
1888	-9964	13264	25	-50	-41	-8136	-9768	10216	-103	-72	-34	3072	-4144	16568	42	2	31	5784	7120	12424	-27	5	-18	-8608	7520	11936	-63	-27	59	1960	2600	16432	11	-21	19	126	140	12
1364	-9124	12880	18	-27	-27	-8072	-9688	9880	-37	-43	-15	3296	-4376	16384	65	-16	22	5768	7160	13152	-32	2	-8	-8856	7240	11944	-15	-18	57	1880	2616	16736	17	-20	26	127	141	12
1788	-9408	13372	31	-48	-31	-7904	-9944	10296	9	-23	11	3288	-4240	16536	77	-29	7	6312	7160	13112	-15	-4	-3	-9008	7392	12456	55	-30	47	1848	2648	16872	26	-32	33	126	139	12
1732	-10052	13200	-1	-36	-35	-7984	-9872	10400	47	-22	14	2888	-4056	16384	77	-32	-1	6288	6768	13336	-5	2	-6	-8856	7720	12560	55	-40	47	1728	2816	17264	41	-40	23	124	138	12
1972	-10460	13120	30	-22	-11	-8056	-9976	10624	80	-16	-1	2816	-3560	16400	72	-42	3	6576	7576	14168	-5	-4	6	-9240	7864	12976	67	-41	42	1672	3176	17704	38	-45	18	125	138	12
2300	-10192	13788	50	-40	-10	-8232	-9672	10544	67	-17	-16	3176	-3488	16784	75	-62	-5	6544	7336	13688	25	-2	13	-9296	8200	12936	14	-33	36	1784	3528	17776	9	-48	15	125	140	12
2048	-9992	13916	48	-32	-2	-8696	-9336	10792	37	-24	-21	3152	-3288	16936	62	-58	-12	6400	6968	13400	70	2	20	-8848	8088	12624	-28	-13	9	2104	3512	17056	-10	-27	26	127	142	12
2032	-8908	13680	18	-29	-20	-8424	-8856	10928	-22	-10	0	3320	-3392	16792	33	-35	0	6104	6992	12680	110	-1	26	-8256	7848	12664	-13	9	-12	2376	3360	16632	-15	-8	23	127	141	12
