#Activity	sitting in car 
#ActivityID	12 
#Date 09-19-15-41
acc_rf_x	acc_rf_y	acc_rf_z	gyro_rf_x	gyro_rf_y	gyro_rf_z	acc_rs_x	acc_rs_y	acc_rs_z	gyro_rs_x	gyro_rs_y	gyro_rs_z	acc_rt_x	acc_rt_y	acc_rt_z	gyro_rt_x	gyro_rt_y	gyro_rt_z	acc_lf_x	acc_lf_y	acc_lf_z	gyro_lf_x	gyro_lf_y	gyro_lf_z	acc_ls_x	acc_ls_y	acc_ls_z	gyro_ls_x	gyro_ls_y	gyro_ls_z	acc_lt_x	acc_lt_y	acc_lt_z	gyro_lt_x	gyro_lt_y	gyro_lt_z	EMG_r	EMG_l	act
-2736	-10784	12268	17	-12	-17	-11024	-10664	5096	-17	-9	-12	112	-5528	15800	31	-1	19	3024	8800	13088	-12	18	-22	-11152	8048	9904	12	-5	21	-920	3288	16712	15	-15	16	127	138	12
-2768	-10540	12308	-4	-12	-30	-11072	-10496	5192	4	-8	-5	40	-5856	16120	36	-4	13	3104	8952	13272	5	9	-20	-10944	7848	9768	28	-12	18	-1080	3432	16400	17	-12	17	127	138	12
-2912	-11160	12056	1	-15	-26	-10848	-10944	4992	0	-1	2	160	-5584	16096	43	-11	9	3216	9176	13008	-1	15	-15	-11320	8224	9936	28	-16	22	-1032	3152	16424	5	-21	12	127	138	12
-2724	-10816	12112	20	-13	-15	-10920	-10640	5352	6	-5	-5	208	-5560	16104	25	-3	6	3200	8960	13032	-1	13	-21	-10984	8032	9808	8	-5	23	-976	3352	16608	1	-14	6	127	138	12
-2820	-10824	12200	6	-13	-18	-10984	-10536	5040	19	-3	-2	96	-5616	16128	27	2	4	3200	9272	12928	3	15	-22	-11128	8040	9936	24	-4	20	-824	3384	16816	4	-18	8	126	138	12
-2924	-11120	12120	24	-14	-19	-11024	-10664	5152	0	-2	-3	-96	-5560	15968	20	-4	4	3352	9112	13072	-6	26	-21	-11256	8224	9944	9	-3	23	-1080	3312	16856	-10	-24	9	125	139	12
-2780	-10560	12404	14	-8	-17	-11016	-10432	5016	-2	-2	1	80	-5664	16168	19	3	7	3048	8888	13112	6	20	-24	-10960	8080	9928	-2	-2	21	-944	3344	16368	2	-15	13	126	139	12
-2852	-10820	12248	-2	-14	-24	-11000	-10400	5048	2	2	8	128	-5512	16216	30	-7	3	3400	9376	12944	3	22	-25	-11088	8080	9936	20	-2	15	-1040	3248	16576	5	-24	21	126	139	12
-2900	-11048	12220	7	-5	-15	-10960	-10736	5128	-13	-1	2	-128	-5456	16016	26	-11	12	3200	9088	12896	-12	24	-27	-11152	8224	9760	28	-6	16	-992	3368	16696	2	-19	17	126	138	12
-2792	-10536	12368	2	-11	-19	-10920	-10560	5088	10	-2	-7	160	-5584	15928	23	-2	6	3208	9000	13144	-8	16	-29	-10952	7968	9896	-7	3	22	-864	3328	16584	8	-13	22	127	138	12
-2912	-11028	12084	-2	-13	-24	-11144	-10488	5096	11	5	-5	-72	-5584	16208	33	-3	7	3208	9280	13024	-16	15	-30	-11176	8128	9792	18	0	17	-1088	3296	16528	3	-19	20	126	137	12
-2836	-10876	12164	15	-14	-16	-11120	-10776	5120	-2	-5	-6	-48	-5416	16104	25	-3	9	3064	9000	13104	-11	13	-24	-11112	8048	10048	8	-4	17	-1016	3328	16672	4	-17	12	125	137	12
-2836	-10520	12224	1	-15	-27	-11008	-10352	5120	13	-4	-10	16	-5656	16008	28	4	2	3104	9056	13072	-4	4	-22	-11112	7920	9712	18	-14	12	-1088	3376	16568	8	-15	14	126	138	12
-2948	-11124	12076	6	-16	-26	-11000	-10456	4920	-10	-3	-7	24	-5392	16296	32	3	7	3096	9368	12944	1	7	-19	-11160	8192	9968	34	-12	15	-952	3320	16600	-2	-20	16	126	138	12
-2792	-10776	12156	22	-11	-23	-11032	-10592	5256	-21	-9	-12	96	-5376	16160	14	3	8	3168	8920	13016	-7	10	-16	-11168	8104	9928	18	-10	15	-1040	3224	16512	4	-20	14	126	139	12
-2796	-10712	12316	5	-12	-27	-10912	-10456	5040	0	-7	-2	160	-5560	16144	22	0	-1	3224	8904	13152	0	3	-18	-11240	8056	10088	43	-10	13	-952	3168	16608	7	-18	12	126	139	12
-2940	-11176	12128	15	-19	-26	-10992	-10864	5192	-6	-4	-7	8	-5616	16064	24	-2	6	3208	9152	13104	4	7	-14	-11312	8144	9968	52	-21	18	-1088	3312	16632	0	-19	15	125	138	12
-2780	-10616	12316	14	-10	-20	-11128	-10520	5112	8	-3	-11	72	-5824	15848	14	1	8	3112	8920	13040	10	5	-10	-11216	8192	9960	43	-16	13	-888	3280	16360	9	-13	14	126	139	12
-2920	-10748	12232	-3	-8	-27	-10912	-10560	5040	11	-7	3	128	-5792	15888	36	1	1	3088	9376	12880	11	4	-3	-11064	8072	9896	50	-7	9	-904	3280	16696	13	-16	18	126	140	12
-2880	-11108	12192	19	-24	-24	-10888	-10680	5288	-5	-4	-1	72	-5544	16040	29	-5	3	3384	9344	12776	0	5	-11	-11200	8280	9888	24	-9	14	-952	3184	16584	6	-22	17	126	139	12
-2760	-10744	12228	23	-15	-19	-10920	-10864	5280	-5	-4	-6	8	-5504	15864	19	-3	4	3176	8912	13056	8	6	-17	-11064	8024	9704	0	-6	16	-880	3192	16568	12	-17	15	127	140	12
-2852	-10988	12172	10	-11	-25	-10920	-10648	4872	8	-4	-8	136	-5576	16016	23	0	4	3240	9232	12872	1	4	-16	-11080	7960	9808	27	-9	15	-992	3184	16632	1	-17	18	127	140	12
-2820	-11000	12188	20	-11	-15	-10944	-10744	5120	-6	-5	-3	88	-5472	15928	18	2	7	3144	9096	12904	1	8	-12	-11176	8088	9872	17	-1	22	-1056	3312	16688	-5	-16	14	126	139	12
-2756	-10752	12292	16	-17	-18	-10936	-10528	4952	4	-6	-1	112	-5664	15912	17	7	1	3096	8840	13104	14	4	-14	-11088	7792	10016	25	-11	12	-1184	3272	16504	11	-13	14	127	139	12
-2884	-11132	11940	10	-18	-21	-10872	-10536	5024	-3	0	2	48	-5504	15960	27	1	1	3232	9032	13128	20	4	-14	-11144	8320	10056	31	-9	14	-952	3280	16600	9	-22	15	127	139	12
-2816	-10968	12148	32	-12	-9	-10880	-10784	4944	-3	-4	-5	-16	-5560	15776	13	-1	2	3088	9144	13136	3	14	-21	-11088	8288	10032	20	-9	18	-1104	3400	16616	4	-22	10	127	138	12
-2780	-10528	12304	21	-18	-15	-10976	-10472	5192	19	-9	-6	216	-5576	15968	17	-2	-4	3208	9240	12976	-2	9	-19	-11120	8000	9928	20	-8	14	-904	3328	16576	6	-15	13	127	139	12
-2912	-11032	12108	21	-17	-20	-11000	-10672	5144	5	-6	-1	-32	-5576	16224	26	1	-6	3192	9328	12936	-6	15	-21	-11200	8336	9896	20	-7	22	-968	3224	16720	-3	-28	15	127	138	12
-2812	-10680	12272	21	-16	-15	-11048	-10688	5088	-6	-1	-3	-56	-5504	15952	13	3	1	3168	9160	13024	-13	17	-24	-11144	8280	9904	-17	1	16	-1032	3384	16376	5	-15	22	126	138	12
-2868	-10684	12244	0	-10	-21	-10856	-10256	5168	10	-7	7	80	-5512	16240	26	4	-3	3288	9160	13048	-2	17	-28	-11120	8120	9944	0	-6	9	-1056	3360	16696	10	-14	17	127	139	12
-2920	-11116	12064	6	-13	-24	-10960	-10656	5176	-10	-6	6	40	-5600	16096	22	0	7	3200	9160	12792	-19	23	-31	-11176	8288	9712	9	-6	17	-976	3160	16600	8	-17	21	127	138	12
-2736	-10684	12248	16	-8	-19	-10992	-10528	5216	2	-8	-4	144	-5464	16032	17	0	2	3168	8880	13008	-17	18	-26	-11144	8208	9896	2	-4	21	-1144	3192	16744	11	-18	20	126	139	12
-2920	-10760	12292	1	-18	-25	-10928	-10496	5304	13	-7	-3	56	-5696	16160	31	1	1	3192	9320	13256	-13	17	-25	-11120	8312	9992	12	-4	17	-896	3312	16496	10	-18	24	126	138	12
-2800	-11028	12164	22	-17	-22	-11064	-10672	5096	1	-3	0	-40	-5584	15816	23	-6	7	3376	9248	12752	-20	22	-30	-11104	8200	9696	-6	-1	19	-1064	3304	16480	6	-20	19	126	137	12
-2736	-10548	12348	14	-17	-20	-11128	-10312	5240	6	-5	-5	0	-5464	15952	19	0	4	3104	8776	13088	-13	23	-30	-11112	8000	9880	-12	-1	13	-904	3384	16496	13	-16	18	127	138	12
-2952	-10964	12296	-2	-11	-23	-11016	-10416	5144	-1	2	3	80	-5496	16136	26	-4	3	3168	9304	12656	-16	17	-24	-11152	7984	9944	12	-7	13	-896	3304	16608	7	-19	19	126	138	12
-2824	-10944	12120	21	-12	-19	-11032	-10672	5128	-16	-8	-4	32	-5464	16072	18	-2	2	3256	9064	12872	-15	22	-26	-11048	8184	9896	-1	-3	20	-1096	3352	16720	0	-15	16	126	138	12
-2736	-10600	12232	12	-17	-20	-10888	-10416	5056	9	-5	0	112	-5664	16096	21	6	-2	3152	9080	12952	-7	14	-28	-10904	7896	10088	15	-3	15	-984	3176	16544	15	-13	15	126	138	12
-2952	-11124	12176	12	-17	-23	-10960	-10648	4992	-3	-8	-5	-32	-5464	15912	24	-5	0	3336	9232	12912	-15	15	-24	-11128	8128	9944	30	-6	19	-896	3280	16944	0	-26	14	126	138	12
-2856	-10816	12180	25	-14	-18	-11088	-10672	5272	-3	-6	-7	16	-5600	16248	14	2	0	3136	8952	13088	-14	18	-23	-11024	8088	9904	-2	-2	14	-920	3304	16608	4	-17	18	127	139	12
-2796	-10584	12360	3	-12	-24	-11040	-10432	5120	8	-4	2	56	-5512	16216	25	2	-1	3256	9112	12864	-9	17	-29	-11048	8040	9944	4	1	10	-928	3304	16560	10	-19	20	126	139	12
-2900	-11132	12172	10	-12	-20	-11000	-10736	5320	-6	-4	2	72	-5632	15912	27	-2	3	3320	9328	12968	-14	23	-24	-11136	8352	9808	8	-4	18	-968	3256	16376	1	-20	19	125	138	12
-2732	-10688	12272	16	-13	-16	-11024	-10624	4912	-4	-4	-4	192	-5424	16136	13	5	4	3120	8904	12992	-13	21	-30	-11160	8080	9616	-10	-4	17	-1104	3328	16544	11	-14	18	126	138	12
-2840	-10760	12256	3	-13	-19	-10992	-10584	5072	10	-6	-1	-56	-5728	16160	24	-2	-2	3248	9216	12904	-9	15	-25	-11216	8016	10192	23	-8	16	-848	3272	16680	8	-15	17	126	138	12
-2908	-11080	12120	19	-12	-21	-10944	-10632	5064	3	-5	4	-8	-5600	16128	25	-2	1	3144	9200	12968	-15	19	-20	-11208	8208	9952	17	-4	17	-1120	3152	16504	0	-18	20	126	138	12
-2672	-10600	12300	17	-18	-16	-10952	-10536	5200	0	-12	-4	248	-5584	15992	22	1	-4	3168	8912	13104	-1	12	-22	-11136	7856	9792	8	-4	16	-880	3336	16608	11	-11	16	127	139	12
-2904	-10924	12140	6	-17	-23	-10824	-10464	4968	3	-7	1	168	-5448	16104	29	-2	2	3288	9272	13112	-5	11	-23	-11136	7960	9840	23	-13	16	-832	3176	16736	5	-20	17	127	139	12
-2872	-10952	12144	20	-12	-17	-11032	-10648	5224	-18	-9	-6	-40	-5560	16064	27	-3	11	3216	9296	12920	-13	15	-21	-11080	8288	9808	13	-4	24	-1032	3240	16760	5	-12	12	126	138	12
-2784	-10584	12312	8	-13	-22	-11096	-10408	5040	-6	-6	-6	24	-5656	16144	31	-3	9	3112	9096	13128	-3	12	-21	-11168	7992	9696	27	-7	17	-1016	3184	16512	12	-12	16	126	139	12
-2956	-11148	12280	8	-13	-23	-11064	-10672	5136	-1	-3	-2	-16	-5608	16384	36	-8	9	3248	9168	12912	-9	16	-24	-11120	8192	9856	16	-13	22	-1048	3168	16600	12	-19	14	126	137	12
-2812	-10792	12284	20	-10	-19	-10856	-10688	5248	3	-3	-9	-104	-5616	16224	22	-2	8	3240	8904	12936	-1	19	-19	-11168	8280	9832	-4	-5	16	-944	3464	16480	3	-19	12	126	138	12
-2760	-10580	12284	-4	-10	-26	-10960	-10264	5056	20	-1	-3	160	-5624	15816	27	-1	-3	3328	9112	13096	6	14	-19	-11064	8120	9960	11	-10	16	-952	3448	16392	2	-19	14	126	139	12
-2868	-11196	11960	8	-16	-22	-10960	-10648	5056	-2	-2	-3	168	-5472	15776	24	-4	6	3320	9320	12896	-3	21	-25	-11232	8368	9856	2	-11	20	-1032	3288	16672	-3	-21	16	126	137	12
-2772	-10788	12236	12	-11	-16	-11040	-10472	5360	-6	-7	-6	-8	-5528	16064	19	-3	10	3336	9112	12992	-8	17	-24	-11016	8208	9936	-12	-5	19	-1048	3456	16544	6	-16	13	126	138	12
-2832	-10752	12268	-3	-18	-22	-10960	-10440	5136	1	1	-3	40	-5664	16320	27	-2	4	3160	9312	13088	-10	18	-25	-11032	8040	10000	20	-1	16	-872	3320	16704	11	-14	17	126	138	12
-2880	-11024	12200	8	-14	-25	-11096	-10840	5120	-10	-3	-7	0	-5432	16360	26	-6	9	3144	9168	13064	-14	18	-27	-11112	8296	9696	12	-7	19	-1016	3264	16560	4	-21	17	126	137	12
-2780	-10600	12336	3	-9	-24	-11008	-10600	5328	0	-1	-5	16	-5616	16016	30	-2	11	3152	9088	13072	-9	14	-27	-11000	7920	9880	1	-5	20	-1024	3312	16432	12	-18	15	126	138	12
-2884	-10932	12224	-3	-7	-24	-10856	-10536	5240	3	-3	4	144	-5424	16248	38	-8	5	3120	9248	13128	-2	8	-26	-11152	8160	9552	23	-6	16	-840	3232	16376	6	-18	18	126	138	12
-2804	-10924	12188	17	-14	-17	-11128	-10584	5272	-6	-5	-1	40	-5496	15984	30	-7	12	3232	9072	12784	-15	16	-23	-11128	8056	9704	8	-6	20	-952	3312	16400	4	-18	17	126	138	12
-2756	-10612	12372	13	-8	-21	-10864	-10456	5088	9	-2	-5	112	-5592	16104	25	-1	11	3184	9008	12976	-8	9	-21	-11040	7944	10000	13	-4	18	-968	3432	16536	8	-13	14	126	138	12
-2992	-11108	12200	11	-12	-24	-10928	-10656	4960	0	1	-3	-32	-5600	16184	32	-2	6	3272	9240	13216	-12	18	-22	-11160	8240	9992	14	-3	22	-1032	3296	16600	3	-19	14	126	138	12
-2868	-10792	12136	22	-11	-19	-11120	-10616	5224	-6	-5	-9	0	-5712	16080	16	0	8	3216	8888	13056	-10	21	-24	-11168	8016	9720	-10	2	23	-1152	3360	16488	7	-17	13	126	138	12
-2812	-10560	12340	6	-13	-24	-10936	-10264	5096	2	-9	-3	144	-5664	15888	21	4	1	3104	9152	13008	-5	11	-21	-10984	7968	9872	3	-1	8	-1008	3512	16616	9	-15	15	127	138	12
-3012	-11120	12108	11	-13	-24	-10960	-10632	5184	-16	-4	1	-24	-5432	16328	23	-3	2	3176	9456	12888	-11	13	-20	-11192	8296	9856	17	-2	15	-960	3256	16680	3	-21	19	127	137	12
-2792	-10768	12236	26	-14	-20	-11000	-10680	5240	-14	-5	-5	136	-5512	16120	16	0	4	3360	8960	12792	-14	20	-28	-11064	8072	9592	-11	-6	17	-904	3304	16424	13	-21	16	128	139	12
-2796	-10712	12336	7	-14	-23	-10840	-10520	5240	11	-4	-6	48	-5544	16136	23	2	-3	3384	9264	13176	-12	16	-28	-11040	7912	9872	13	-3	13	-960	3264	16464	12	-17	12	127	139	12
-2864	-11200	12032	16	-13	-23	-11016	-10664	5088	3	-3	-1	40	-5360	16192	22	0	2	3256	9352	12600	-24	23	-31	-11264	8264	9976	5	-12	24	-1056	3360	16608	1	-22	17	126	137	12
-2852	-11136	12036	23	-15	-25	-11080	-10488	5056	7	-5	-5	128	-5568	15976	16	2	3	3112	8968	13168	-13	19	-28	-11040	8088	10016	-4	-2	15	-1088	3272	16488	14	-11	18	127	138	12
-2896	-10804	12164	-1	-13	-30	-10936	-10480	5128	1	-3	-5	24	-5688	15992	27	2	4	3208	9136	12912	-11	17	-26	-11168	8096	9952	22	-6	16	-840	3344	16720	10	-23	18	127	138	12
-2824	-11056	12044	15	-14	-25	-11064	-10544	5168	-13	-5	-9	104	-5512	16048	22	-3	9	3200	9096	12928	-17	24	-31	-11184	8224	9960	6	-7	16	-968	3328	16424	1	-23	17	127	138	12
-2704	-10660	12280	14	-11	-22	-11008	-10656	5192	11	-6	-7	96	-5656	16032	19	-1	3	3128	8984	13104	-14	17	-28	-10992	8072	9560	-13	-1	14	-992	3440	16464	6	-16	19	127	138	12
-2968	-11160	12160	6	-15	-21	-11120	-10688	5088	11	-1	2	72	-5632	16248	23	0	1	3384	9352	12696	-19	18	-30	-11160	8144	9840	0	-4	13	-952	3184	16696	2	-26	16	126	138	12
-2748	-10828	12208	25	-13	-16	-11088	-10696	5056	-4	-3	-3	-32	-5592	15792	10	5	2	3160	9088	12968	-15	24	-26	-11144	8128	9952	-9	-1	23	-880	3280	16416	2	-21	17	126	138	12
-2768	-10552	12332	11	-18	-18	-10944	-10384	5136	8	-4	3	120	-5616	15896	18	4	-3	3224	9112	12984	-6	16	-25	-10976	7832	9848	18	-10	14	-928	3344	16344	15	-15	18	126	139	12
-2912	-11080	12040	5	-14	-24	-10872	-10552	5072	-8	-8	1	48	-5424	16128	25	2	-1	3192	9296	12784	-11	16	-26	-11200	8168	10048	23	-8	16	-920	3336	16576	7	-16	15	126	137	12
-2824	-10800	12220	22	-10	-15	-10896	-10664	5352	-8	-10	-6	8	-5696	16008	13	0	4	3160	9072	13024	-13	17	-26	-11096	8128	9824	-3	-7	20	-1152	3304	16464	12	-13	14	127	138	12
-2848	-10616	12328	8	-18	-21	-10992	-10376	5352	8	-6	-6	16	-5608	15792	28	-3	4	3128	9128	13032	-11	11	-27	-11080	7992	9872	18	-11	22	-896	3432	16552	10	-15	19	127	138	12
-2944	-11112	12168	16	-16	-22	-10952	-10744	5072	-12	-5	-2	24	-5464	15992	22	1	2	3168	9112	12912	-20	17	-23	-11144	8248	9824	26	-9	24	-1008	3352	16656	4	-18	19	126	137	12
-2800	-10680	12260	19	-17	-22	-10904	-10608	5200	11	-6	-3	160	-5544	16136	20	2	0	3008	9032	12880	-4	13	-21	-11080	8032	10040	3	0	19	-912	3360	16488	8	-17	16	127	137	12
-2828	-10740	12116	1	-19	-26	-10920	-10432	5120	14	-10	0	192	-5640	15792	26	1	-3	3168	9296	12824	-2	15	-23	-11112	8104	9712	17	-10	13	-952	3296	16664	12	-19	14	126	138	12
-2824	-11076	12100	18	-19	-22	-10864	-10688	5240	-7	-9	-5	96	-5456	15976	19	1	2	3232	9168	12848	-11	23	-25	-11208	8240	9880	4	-8	21	-936	3160	16448	3	-19	20	127	138	12
-2724	-10644	12340	16	-11	-18	-10888	-10520	5056	-2	-6	-6	112	-5512	15928	13	-1	-1	3176	8944	12944	-10	14	-27	-11104	7944	9792	0	-2	20	-800	3448	16424	9	-13	20	127	139	12
-2924	-11072	12268	5	-19	-20	-10912	-10568	5096	-4	-4	5	240	-5640	15792	20	3	-2	3216	9256	12960	-21	17	-28	-11224	8200	9784	25	-8	14	-944	3328	16808	5	-22	15	126	138	12
-2868	-10972	12172	27	-13	-15	-11088	-10688	5096	-7	0	-11	-56	-5528	16128	19	-2	3	3304	9032	12816	-21	25	-31	-11152	8288	9688	-3	2	16	-984	3392	16760	3	-16	14	126	137	12
-2804	-10452	12348	12	-14	-25	-10888	-10280	5000	9	-1	-5	-16	-5536	15960	21	8	-4	3208	9016	12888	-8	16	-28	-11088	7832	9840	-3	-3	10	-984	3352	16624	13	-15	16	127	138	12
-2896	-11092	12220	7	-20	-22	-11008	-10472	4944	-2	-7	-4	-48	-5384	16120	21	3	2	3376	9368	12808	-17	20	-22	-11288	8016	9896	22	-6	14	-976	3280	16648	6	-23	23	127	138	12
-2788	-10952	12260	20	-16	-22	-11128	-10680	5056	-13	-6	-7	-40	-5568	16016	20	-5	6	3216	9344	12952	-17	18	-30	-11128	8192	9952	1	-9	19	-904	3352	16336	4	-21	19	127	138	12
-2792	-10564	12376	10	-15	-23	-11016	-10424	4920	8	-5	-8	24	-5560	16080	23	-9	3	3200	8976	13016	-16	14	-29	-11128	8016	9712	10	-3	17	-712	3240	16528	11	-12	17	126	139	12
-2948	-11144	12296	11	-15	-20	-10984	-10552	5224	0	-1	1	96	-5496	16064	28	-6	6	3336	9280	13048	-13	17	-26	-11240	8112	9776	17	-7	23	-1088	3144	16624	-3	-15	18	126	138	12
-2760	-10716	12428	19	-14	-20	-11024	-10552	5216	-8	-3	-9	-56	-5536	15800	20	-1	10	3200	8960	13120	-11	14	-24	-11320	8032	10048	-1	-3	17	-904	3312	16456	11	-14	15	126	138	12
-2760	-10620	12344	0	-14	-28	-10928	-10368	5072	3	-3	-4	-48	-5688	16064	21	-3	10	3136	9248	12976	-6	10	-25	-11000	8016	9880	34	-13	15	-984	3272	16456	11	-13	14	126	139	12
-2848	-11164	12020	10	-16	-24	-11032	-10776	4920	-10	-6	-4	24	-5504	16024	25	-1	7	3296	9152	12792	-9	16	-23	-11104	8320	9696	18	-10	23	-952	3240	16696	1	-20	12	125	138	12
-2800	-10636	12228	15	-9	-21	-10960	-10520	5096	9	-1	-6	-104	-5656	15832	16	0	2	3304	9000	12936	-4	17	-23	-10984	8160	9760	-4	-3	15	-1064	3400	16512	6	-15	12	126	138	12
-2884	-10936	12180	-1	-16	-25	-11000	-10384	4888	4	-1	1	104	-5408	16104	24	-1	-5	3392	9296	12752	-8	17	-26	-11048	8184	9872	13	-11	14	-896	3288	16576	4	-22	12	126	139	12
-2808	-10968	12176	14	-14	-22	-11120	-10688	5192	-16	-4	-6	-8	-5568	16120	18	-2	7	3224	9224	13024	-15	28	-29	-11168	8216	9808	-14	-5	21	-976	3312	16632	-4	-23	14	126	138	12
-2700	-10512	12328	-1	-13	-16	-11064	-10400	5064	3	-1	-6	80	-5672	15928	21	-4	4	3248	8976	13232	-2	23	-28	-10984	7904	9904	0	-6	15	-928	3432	16496	8	-17	17	126	139	12
-2960	-10984	12208	-13	-7	-22	-10816	-10528	5264	1	-1	2	136	-5640	15920	30	-3	6	3280	9272	12944	-7	18	-31	-11032	8040	10088	34	-3	16	-1048	3312	16576	7	-22	18	126	138	12
-2836	-10936	12124	9	-15	-19	-10824	-10784	4792	-8	-2	-5	-96	-5536	15896	24	-8	8	3032	9008	12992	-11	24	-31	-11216	8360	10048	14	-7	19	-920	3248	16680	5	-24	17	125	138	12
-2740	-10612	12324	-1	-14	-21	-10920	-10400	4936	16	0	-4	96	-5608	16160	30	-3	-1	3120	9016	13056	-11	13	-29	-11208	7944	10152	11	-4	18	-1064	3368	16528	6	-20	17	126	138	12
-2932	-11164	12184	9	-15	-26	-10904	-10688	5056	6	-2	-5	104	-5576	15888	32	-6	3	3136	9176	12968	-8	13	-26	-11208	8168	9896	20	-4	20	-960	3304	16624	4	-22	18	126	137	12
-2932	-11144	12224	11	-12	-22	-10904	-10744	5096	0	0	0	56	-5600	16088	18	3	8	3216	9056	13232	-14	12	-24	-11112	8008	9904	4	-5	21	-1080	3344	16456	9	-16	14	127	138	12
-2788	-10624	12204	5	-21	-21	-10920	-10432	4912	4	0	-3	40	-5616	15968	25	6	-1	3064	9232	13024	-6	13	-23	-11104	7952	9880	8	-3	18	-848	3184	16568	18	-13	16	126	139	12
-2932	-11104	12116	13	-15	-20	-11032	-10664	5040	-14	-5	2	-24	-5464	15984	23	1	5	3272	9320	12848	-5	18	-21	-11120	8248	9616	18	-14	19	-800	3296	16592	15	-11	14	127	138	12
-2852	-10724	12300	27	-12	-16	-11096	-10744	5048	-12	-4	-6	8	-5688	15856	13	3	2	3208	8960	12992	-14	19	-26	-11064	8040	9896	0	-2	21	-1008	3272	16464	12	-15	13	127	138	12
-2748	-10688	12292	13	-21	-23	-10920	-10464	5280	1	-4	2	112	-5576	16104	22	2	-3	3288	9208	13048	-12	12	-24	-11200	8088	9984	24	-8	16	-880	3280	16504	12	-16	16	127	138	12
-2868	-11060	12144	23	-14	-20	-11128	-10624	5032	-8	-6	-1	72	-5704	15976	19	5	2	3280	9144	12912	-10	14	-24	-11072	8280	9952	12	-11	26	-944	3328	16840	-2	-18	17	126	137	12
-2796	-10564	12272	20	-6	-18	-11152	-10432	5016	13	-5	-2	40	-5536	15896	23	3	-5	3120	8968	12896	-3	16	-30	-11104	8176	10032	-3	-3	18	-960	3336	16472	10	-20	16	127	138	12
-2900	-10932	12156	5	-16	-21	-10984	-10488	5040	7	0	7	112	-5456	15872	28	2	-2	3240	9376	13120	-8	14	-24	-11024	8152	9984	21	-4	17	-976	3360	16528	4	-17	16	127	139	12
-2788	-11004	12220	21	-15	-21	-11040	-10624	5352	-10	-8	-2	-120	-5472	16272	19	-3	5	3400	9216	12944	-15	21	-27	-11264	8224	9864	-2	-6	17	-984	3296	16672	5	-20	21	127	138	12
-2760	-10560	12436	11	-11	-18	-11032	-10304	5264	4	-4	-10	264	-5640	16296	19	2	2	3288	9008	13032	-10	21	-25	-10984	7976	9800	-1	-4	17	-880	3416	16608	13	-14	17	127	139	12
-2928	-11148	12092	7	-10	-24	-10960	-10632	5224	1	-7	-4	-32	-5512	16096	22	0	3	3152	9288	12944	-15	14	-30	-11176	8272	9856	19	-7	15	-896	3200	16488	3	-19	20	127	138	12
-2796	-10928	12096	19	-13	-20	-10960	-10856	5240	-5	-1	-6	-104	-5440	16048	14	6	3	3168	8928	12776	-16	21	-24	-11128	8184	9856	-1	-4	17	-1080	3280	16584	0	-24	17	126	138	12
-2760	-10488	12312	0	-10	-26	-11008	-10464	4824	11	-5	-5	192	-5560	15896	17	3	0	3216	9064	13248	-7	17	-25	-10872	7824	9976	8	-6	13	-864	3264	16512	14	-16	15	126	140	12
-2956	-11080	12100	6	-17	-25	-10904	-10640	4936	-1	-3	1	0	-5536	16128	24	0	1	3208	9320	12640	-13	19	-29	-11240	8096	9480	17	-8	18	-1032	3232	16488	3	-23	17	126	139	12
-2800	-10780	12072	18	-8	-17	-11008	-10600	5200	-5	-7	-4	48	-5408	15872	16	1	6	3224	8928	12896	-17	19	-30	-11208	8176	10032	-4	1	20	-976	3336	16616	6	-13	14	126	139	12
-2780	-10664	12368	6	-13	-24	-10992	-10472	5000	9	-12	-1	24	-5728	15776	27	-1	-5	3160	9056	13176	-12	14	-27	-10992	7944	9608	16	-4	10	-984	3192	16568	9	-13	18	127	139	12
-2968	-11196	12076	13	-17	-23	-10912	-10656	5224	-7	-5	3	0	-5552	15952	23	0	-1	3288	9192	13128	-15	18	-21	-11128	8208	9984	9	-6	20	-1072	3280	16584	-2	-21	19	126	137	12
-2792	-10664	12376	14	-10	-24	-10984	-10592	5216	3	-2	-6	-24	-5440	16048	22	2	1	3248	8824	12768	-8	18	-26	-11136	8016	9752	-10	-3	14	-1032	3264	16608	13	-20	19	126	138	12
-2792	-10680	12304	-4	-12	-24	-10976	-10272	5048	7	-4	-2	104	-5528	15832	26	-3	-2	3088	9280	13088	-12	17	-26	-11000	8160	10120	20	-5	14	-808	3216	16744	12	-16	19	127	138	12
-2856	-11072	12132	18	-14	-22	-10944	-10760	5120	-15	-5	-7	-32	-5544	16192	20	-2	10	3064	9008	13072	-21	20	-27	-11168	8280	9864	13	-7	22	-1056	3216	16648	3	-19	16	127	138	12
-2724	-10728	12320	15	-12	-21	-10944	-10544	5240	0	-8	-5	104	-5744	15968	20	5	3	3136	8960	12904	-13	15	-27	-11088	8104	9928	3	0	18	-976	3240	16544	16	-15	21	127	139	12
-2700	-10656	12336	10	-15	-21	-10936	-10616	5184	6	-5	1	-24	-5528	16096	32	-5	1	3280	9256	13048	-10	15	-25	-11184	8112	10016	18	-3	14	-1064	3328	16616	3	-18	18	126	138	12
-2772	-10868	12284	24	-6	-18	-11144	-10784	5016	0	-1	-3	-48	-5640	16088	20	-4	6	3128	9048	12848	-17	22	-25	-11096	8136	9960	-7	-2	17	-1104	3392	16616	2	-18	16	126	138	12
-2708	-10448	12292	8	-9	-25	-10928	-10440	5328	9	-4	-1	32	-5616	16048	23	1	2	3152	8880	12984	-13	22	-27	-10912	7888	9800	13	-5	12	-888	3104	16536	13	-16	13	126	140	12
-2912	-11036	12112	7	-13	-24	-10928	-10432	5288	-5	-5	3	136	-5416	16064	30	-3	4	3208	9168	12856	-6	15	-24	-11136	8160	10040	28	-7	17	-896	3256	16568	7	-23	17	126	138	12
-2748	-10908	12228	23	-14	-16	-10928	-10568	5096	-12	-6	-8	-40	-5688	16008	15	1	7	3040	9072	13056	-18	20	-25	-11176	8216	9936	3	-4	22	-1040	3384	16576	7	-18	14	126	138	12
-2764	-10640	12308	8	-14	-19	-10952	-10488	5168	6	-5	-3	160	-5496	16192	26	1	-1	3160	9152	12944	-10	12	-23	-11152	8040	9856	9	1	14	-1048	3344	16544	10	-17	16	127	139	12
-2872	-11120	12176	11	-17	-19	-10904	-10624	5152	-3	-7	-3	80	-5424	16152	27	-2	5	3200	9208	12808	-16	20	-29	-11312	8128	10016	2	-6	17	-1128	3264	16680	0	-19	16	127	137	12
-2856	-10588	12332	19	-16	-18	-11168	-10400	5200	3	-5	-3	-80	-5544	16080	17	0	5	3144	9032	12920	-5	15	-23	-11080	8056	9704	-7	-5	18	-1056	3256	16336	7	-17	16	127	137	12
-2828	-10636	12168	-1	-16	-25	-11064	-10424	5112	4	-7	4	48	-5536	16256	30	1	1	3240	9064	12936	0	13	-22	-11128	8016	9880	24	-13	11	-768	3248	16544	8	-18	12	127	138	12
-2896	-11136	12016	8	-11	-24	-11064	-10728	5104	-21	-6	-2	-40	-5536	16064	20	-4	5	3128	9264	12784	-16	22	-29	-11104	8080	10056	21	-10	13	-1072	3240	16720	2	-20	17	127	137	12
-2744	-10712	12292	17	-13	-17	-10864	-10496	5056	-3	-5	-10	160	-5568	15896	19	-1	3	3272	9000	12912	-15	15	-25	-11040	7960	9944	3	-2	21	-1056	3432	16552	12	-13	17	127	139	12
-2928	-10880	12220	3	-10	-19	-11032	-10296	5096	5	-6	-6	-32	-5600	16128	31	-4	6	3056	9256	12864	-10	15	-26	-11128	8088	9936	27	-3	17	-1000	3264	16600	3	-17	22	126	139	12
-2872	-10940	12264	19	-9	-21	-11088	-10664	5032	-9	-4	-7	40	-5744	16048	29	-1	13	3184	9072	12920	-9	20	-26	-11264	8304	10040	1	-9	23	-1032	3296	16584	1	-17	18	126	138	12
-2716	-10544	12236	5	-12	-20	-10912	-10544	5176	6	-8	-3	160	-5816	16120	32	-6	9	3088	8968	13024	-8	12	-24	-11072	8096	10056	7	-3	10	-808	3328	16256	11	-10	18	126	139	12
-2924	-11008	12168	0	-12	-25	-10896	-10640	5216	0	-5	-5	104	-5544	15992	33	-7	7	3232	9168	12952	-9	13	-24	-11096	8096	10056	23	-15	22	-848	3224	16712	7	-20	16	126	138	12
-2776	-10860	12308	19	-15	-17	-11080	-10728	5048	-8	2	-5	80	-5520	16336	19	-4	9	3144	9088	12896	-5	22	-22	-11184	8168	9960	4	-4	22	-984	3288	16592	5	-19	15	126	138	12
-2776	-10608	12340	1	-13	-25	-11048	-10480	5088	9	-5	-2	112	-5544	16352	21	2	4	3144	9136	13136	0	18	-22	-10968	8016	9944	14	-9	18	-896	3280	16624	8	-20	9	126	139	12
-2896	-11108	12172	7	-15	-18	-11016	-10696	5112	0	1	-1	-40	-5552	16120	27	-1	4	3184	9192	12928	-11	19	-26	-11184	8192	9944	17	-7	23	-1032	3184	16736	-6	-24	12	126	137	12
-2804	-10764	12320	13	-15	-12	-11008	-10656	5320	-2	-4	-4	-24	-5720	16144	15	-1	10	3144	9056	12960	-7	19	-22	-11224	8312	9928	13	-7	24	-992	3376	16552	-1	-14	15	126	138	12
-2828	-10560	12196	-12	-10	-25	-10872	-10512	4728	13	-3	1	-72	-5696	15928	24	-4	0	3256	9192	12976	-5	13	-27	-11136	8136	10032	18	1	9	-912	3288	16888	7	-18	23	126	139	12
-2928	-11184	12028	0	-17	-21	-10912	-10672	5224	-3	-4	2	232	-5400	15976	25	-4	4	3152	9264	12984	-13	20	-29	-11136	8096	9840	20	-5	13	-984	3320	16528	7	-24	21	126	137	12
-2756	-10740	12264	15	-11	-21	-10928	-10536	5088	-1	-6	-10	40	-5632	15848	17	3	4	3144	9088	12984	-16	16	-28	-11032	8136	9840	-13	2	16	-1000	3304	16256	15	-16	19	126	138	12
-2872	-10808	12252	5	-15	-17	-10800	-10472	5088	5	-5	-3	96	-5568	16312	31	-2	4	3048	9312	13232	-14	14	-25	-11152	8136	9872	17	-7	14	-952	3168	16416	9	-13	21	126	138	12
-2880	-11056	12096	22	-16	-22	-10952	-10712	5216	-14	-3	-9	24	-5576	15848	22	-3	8	3240	9064	12976	-18	23	-28	-11120	8104	9864	6	-4	23	-1096	3232	16744	3	-18	16	125	138	12
-2796	-10536	12388	13	-13	-24	-10992	-10528	4992	3	-8	-6	24	-5600	16048	23	2	7	3128	8776	13176	-3	12	-28	-11096	7960	9944	9	-7	15	-968	3216	16744	12	-15	13	126	138	12
-2880	-10976	12180	1	-16	-27	-10984	-10616	5104	3	-5	3	16	-5600	15816	27	2	3	3136	9272	12816	-10	11	-22	-11184	8120	9768	28	-10	12	-976	3232	16712	10	-17	16	126	137	12
-2868	-10936	12152	20	-13	-18	-10776	-10632	4984	-4	-6	-7	24	-5568	16216	15	1	1	3128	9216	12880	-12	16	-25	-11072	8200	9696	4	-10	21	-960	3416	16472	5	-16	15	126	137	12
-2752	-10608	12372	14	-14	-19	-11016	-10504	5240	2	-7	-7	72	-5496	15800	22	2	1	3216	8880	13112	-6	13	-19	-10912	7992	9792	7	-9	13	-904	3368	16544	7	-11	13	127	138	12
-2860	-11156	12220	13	-17	-22	-11040	-10464	5416	-8	-2	-2	56	-5688	16424	30	-3	7	3216	9168	13032	-12	16	-23	-11208	8112	10056	17	-7	20	-912	3248	16648	0	-20	14	126	137	12
-2804	-10744	12260	19	-12	-21	-11120	-10752	5184	-9	-6	-6	-104	-5680	15688	18	-1	9	3120	8944	12808	-8	18	-24	-11200	8088	9920	-3	-5	18	-800	3448	16432	3	-15	16	126	138	12
-2716	-10508	12236	-1	-10	-27	-10904	-10544	5096	11	-8	4	112	-5544	16024	27	3	-2	3248	9160	13072	5	12	-26	-10952	8096	9896	12	-4	10	-920	3240	16592	13	-17	17	126	139	12
-2932	-11248	12092	15	-17	-25	-10720	-10632	5088	-1	-6	-1	96	-5552	16104	27	-2	3	3272	9472	13024	-18	18	-24	-11152	8296	10032	17	-3	16	-952	3280	16664	5	-27	18	127	137	12
-2684	-10700	12220	26	-13	-14	-11040	-10512	5096	-5	-12	-12	48	-5560	15840	15	3	7	3272	9032	13064	-17	19	-31	-11128	8192	10072	-12	-5	21	-1136	3240	16512	1	-24	15	127	139	12
-2864	-10760	12348	8	-14	-23	-10944	-10424	5064	13	-1	-4	128	-5536	16096	25	-3	-1	3360	9152	13040	-17	17	-24	-11344	8072	9720	19	-5	16	-896	3360	16792	5	-18	20	127	138	12
-2928	-11000	12180	22	-13	-12	-11000	-10632	5144	-3	0	-9	-80	-5624	16248	20	0	2	3256	9264	12984	-16	21	-27	-11288	8200	9872	4	-4	17	-1080	3384	16616	1	-18	20	125	138	12
-2796	-10596	12332	15	-9	-16	-11048	-10432	5048	5	-2	-4	72	-5752	16256	16	1	-3	3144	8992	13168	-8	17	-26	-11136	7952	9968	-7	1	14	-1136	3224	16488	13	-18	21	126	138	12
-2852	-10832	12244	-2	-14	-27	-10936	-10352	5368	-2	-7	6	112	-5600	16032	26	-2	0	3112	9240	12888	-9	18	-27	-11112	7992	9720	14	-6	12	-1016	3128	16400	16	-20	20	127	138	12
-2836	-11068	11996	15	-18	-17	-10856	-10720	5104	-17	-6	-3	32	-5408	16144	25	-3	8	3320	9016	12792	-17	25	-24	-11368	8120	9840	7	-9	22	-1016	3368	16856	5	-21	21	127	138	12
-2716	-10568	12476	12	-11	-25	-10856	-10480	5296	5	-7	-13	56	-5552	16096	21	-3	4	3160	9032	13304	-7	17	-24	-11064	8000	9832	12	-7	20	-928	3416	16616	7	-15	14	126	139	12
-2912	-11040	12316	9	-18	-23	-10952	-10520	5264	3	-3	-7	-144	-5544	16136	29	-2	8	3144	9264	13080	-6	10	-21	-11240	8160	10048	32	-7	24	-984	3224	16712	-4	-21	10	126	138	12
-2812	-10848	12260	19	-16	-16	-11120	-10552	5128	5	-3	-5	80	-5560	16024	20	2	5	3144	8984	13008	-5	20	-23	-11144	8080	9856	-2	-9	19	-976	3392	16560	4	-15	14	126	138	12
-2800	-10524	12368	-2	-3	-27	-10944	-10424	4968	17	-2	4	16	-5584	16128	27	4	3	3152	9128	13104	0	8	-24	-10984	7888	9752	8	-6	11	-880	3312	16288	13	-16	10	126	139	12
-2940	-11148	12052	-1	-10	-29	-10872	-10624	5408	-1	-3	3	160	-5600	16080	25	-1	-2	3232	9328	12720	-8	17	-23	-11160	8232	9824	18	-12	18	-904	3240	16440	10	-24	18	126	138	12
-2740	-10788	12268	22	-12	-20	-11096	-10736	4968	-13	-6	-9	8	-5600	16136	15	-1	4	3216	9072	13008	-16	18	-27	-11104	8200	9712	1	-1	23	-1008	3344	16576	9	-16	17	126	138	12
-2812	-10620	12244	6	-16	-21	-10952	-10424	5200	2	-6	-4	136	-5632	16128	26	0	-2	3184	9160	13072	-14	17	-24	-11120	7904	9736	19	-6	17	-824	3440	16744	8	-15	14	126	139	12
-2888	-11192	12172	18	-16	-21	-10960	-10680	5336	-6	-8	-2	88	-5584	16088	25	2	6	3208	9200	12808	-18	20	-29	-11200	8264	9928	15	-3	18	-864	3384	16400	-2	-21	19	126	138	12
-2732	-10660	12352	20	-13	-16	-11080	-10544	5136	2	-4	-5	80	-5456	16048	14	0	4	3136	8912	12984	-13	20	-23	-11144	8032	9936	-4	-3	16	-888	3368	16464	9	-18	21	126	138	12
-2756	-10724	12392	5	-8	-26	-10904	-10304	5104	3	-4	-2	88	-5600	15960	26	1	1	3096	9120	12904	-7	14	-23	-11048	7840	9848	21	-8	14	-728	3192	16544	12	-17	15	127	139	12
-2816	-11096	12040	15	-16	-23	-10944	-10680	5216	-17	-5	-5	96	-5544	16088	24	-4	10	3184	9120	12928	-12	21	-28	-11200	8232	9832	13	-3	23	-952	3248	16784	1	-19	20	126	138	12
-2824	-10668	12356	15	-7	-21	-11048	-10584	5120	3	-3	-7	8	-5632	15696	19	-1	6	3120	8880	13112	-7	17	-21	-11088	8144	9792	2	-1	21	-1216	3360	16600	1	-18	17	127	138	12
-2928	-10924	12292	7	-15	-24	-11032	-10376	4992	12	-4	1	-8	-5712	16256	31	-9	5	3216	9256	12720	-11	14	-23	-11152	8024	9800	19	-7	16	-1008	3224	16376	0	-24	16	126	138	12
-2880	-10860	12152	20	-9	-20	-10976	-10632	5048	3	-2	-1	-48	-5528	16152	21	-6	9	3104	9160	12720	-11	22	-25	-11144	8296	9824	-9	-8	21	-1152	3312	16536	-4	-22	18	126	138	12
-2820	-10472	12344	7	-12	-25	-11064	-10280	5072	11	-4	-3	192	-5680	15912	26	-2	2	3104	8992	12984	-2	15	-21	-11064	7912	9640	3	-6	16	-880	3368	16328	8	-18	15	127	139	12
-2936	-11100	12112	2	-14	-26	-10840	-10496	5064	-7	0	2	80	-5608	16136	30	-4	5	3080	9168	13072	-9	13	-26	-11192	8216	9704	33	-7	16	-944	3160	16616	3	-20	17	126	138	12
-2784	-10864	12156	19	-15	-12	-11024	-10848	4976	-18	-8	-8	8	-5608	15968	18	-1	9	3208	9200	12936	-18	22	-27	-11152	8352	9888	3	-4	21	-904	3456	16672	7	-14	16	126	138	12
-2804	-10616	12328	7	-16	-22	-10896	-10464	5168	8	-1	-8	80	-5640	16088	21	1	3	3208	9096	12872	-8	14	-26	-11024	8008	9760	9	-2	13	-976	3424	16352	14	-13	18	127	138	12
-2992	-11144	12156	12	-21	-25	-11128	-10632	5128	0	-2	0	72	-5672	16128	26	-3	2	3280	9224	13120	-17	19	-27	-11240	8216	9920	13	-5	22	-1056	3304	16736	1	-21	15	126	138	12
-2804	-10708	12308	19	-8	-17	-11128	-10544	5320	0	-6	-7	-72	-5568	15952	24	0	6	3200	9128	12880	-16	18	-25	-11128	8104	9904	-8	1	19	-896	3304	16584	8	-17	19	127	138	12
-2804	-10588	12304	0	-8	-28	-10976	-10512	5128	6	-8	-3	128	-5656	16136	33	-2	4	3080	8840	12800	-9	16	-28	-10936	7936	9832	20	-9	15	-960	3336	16592	13	-16	17	127	139	12
-2920	-11140	12092	9	-16	-26	-10872	-10624	5128	-7	-11	0	56	-5456	16048	28	-4	5	3296	9256	12856	-10	14	-27	-11176	8208	9808	17	-12	18	-856	3264	16528	1	-22	20	126	138	12
-2784	-10640	12264	16	-13	-22	-10960	-10512	5280	-1	-3	-6	96	-5560	15920	20	-4	7	3232	9064	13080	-6	15	-23	-11064	8144	9808	-4	0	20	-1064	3264	16448	9	-14	14	127	138	12
-2776	-10836	12288	6	-14	-20	-10904	-10432	5240	-4	0	-3	192	-5608	16320	29	2	4	3192	9384	12760	-9	14	-26	-11104	8008	9712	18	-12	19	-888	3360	16584	11	-15	17	126	139	12
-2852	-11032	12208	18	-15	-14	-11024	-10816	5136	-9	-7	-4	88	-5584	16048	23	-2	9	3064	9080	12760	-12	19	-30	-11160	8232	9944	1	-5	27	-928	3344	16608	4	-17	14	126	138	12
-2724	-10548	12348	10	-11	-16	-10960	-10880	5112	-8	-3	-3	24	-5640	16096	23	-2	8	3120	8888	13064	3	15	-22	-11120	7960	9832	2	-7	19	-936	3440	16512	10	-16	12	126	139	12
-2952	-10980	12164	-6	-11	-25	-10800	-10536	5200	7	2	7	96	-5592	15952	29	-5	0	3248	9272	12752	3	21	-22	-11112	8072	9864	26	-8	15	-984	3488	16736	7	-21	12	126	138	12
-2772	-10884	12100	16	-15	-10	-10856	-10696	5240	-8	2	-1	32	-5408	16208	18	0	5	3336	9112	13088	-11	28	-28	-11216	8176	9992	6	-6	20	-888	3336	16784	-1	-21	14	125	137	12
-2784	-10556	12384	5	-16	-18	-10952	-10352	5040	8	1	-7	24	-5600	16032	20	-5	5	3152	9160	12768	-9	19	-25	-11000	8088	9792	1	-1	14	-984	3448	16560	7	-17	16	126	139	12
-2960	-11060	12196	-3	-16	-14	-10928	-10568	5152	6	2	3	-24	-5528	16008	29	-2	5	3184	9384	13104	-12	21	-26	-11128	8360	9752	10	1	19	-752	3416	16800	-5	-24	16	126	137	12
-2796	-10800	12220	12	-11	-19	-11216	-10712	5216	0	1	-2	8	-5664	16040	23	-5	9	3200	9128	13072	-15	19	-26	-11104	8096	9960	-11	0	20	-1016	3224	16656	-7	-23	21	126	137	12
-2832	-10456	12312	-2	-12	-20	-11056	-10376	4976	11	-1	-1	144	-5536	16008	29	-2	3	3176	9112	12872	-8	15	-24	-11064	7952	9600	6	0	13	-1040	3288	16560	13	-17	20	126	139	12
-2948	-11168	12132	3	-19	-29	-10992	-10544	5048	-10	-5	4	-8	-5464	16168	33	-1	6	3336	9352	12880	-10	20	-27	-11192	8136	9872	19	-6	17	-928	3216	16600	5	-21	23	127	137	12
-2880	-10828	12204	21	-15	-20	-11032	-10688	5064	-8	-12	-13	96	-5632	15792	18	-1	8	3040	9064	12976	-15	18	-23	-11208	7960	9680	5	-2	14	-984	3368	16504	12	-14	20	127	138	12
-2792	-10740	12328	8	-17	-22	-10936	-10528	5144	1	-9	-7	208	-5576	15936	30	6	4	3224	9104	13224	-14	15	-22	-11192	8000	9984	24	-8	17	-904	3096	16424	19	-13	18	127	138	12
-2880	-11224	12148	17	-18	-26	-11080	-10776	5368	-6	-3	-11	120	-5600	16064	24	4	4	3280	9168	12896	-21	18	-28	-11184	8080	10120	7	-7	19	-968	3224	16528	5	-21	16	127	137	12
-2800	-10636	12428	23	-8	-18	-11064	-10432	5176	3	-4	-6	-8	-5672	15960	16	4	-1	3080	8816	13176	-7	13	-29	-11104	8024	10016	-6	-3	13	-912	3344	16608	12	-14	13	127	139	12
-2828	-10776	12188	2	-16	-26	-10984	-10408	5176	-2	-9	1	96	-5616	15920	26	7	-1	3128	9232	13048	-3	12	-25	-11112	8184	9960	26	-8	13	-800	3256	16680	7	-18	16	127	139	12
-2776	-11180	11956	18	-17	-21	-11008	-10792	5272	-23	-9	-3	216	-5592	16368	23	1	6	3288	9280	12936	-16	18	-23	-11040	8320	10120	12	-8	23	-824	3240	16736	3	-18	16	127	138	12
-2740	-10644	12424	21	-12	-20	-11072	-10784	4992	-3	-7	-6	72	-5568	16192	22	-4	5	3120	8864	13120	-14	17	-29	-10976	7944	9872	-7	-10	22	-800	3432	16488	13	-10	14	127	139	12
-2720	-10540	12392	13	-10	-20	-10944	-10720	5104	11	-1	0	40	-5592	16328	33	-4	0	3256	9328	12968	-10	14	-25	-11240	8088	10000	18	-3	16	-960	3248	16584	3	-19	18	126	139	12
-2836	-10868	12180	24	-9	-12	-10992	-10840	5200	0	1	-2	112	-5656	15928	20	-2	4	3040	9016	12824	-12	24	-28	-11192	8104	10024	-6	-5	24	-1088	3216	16440	5	-21	15	126	138	12
-2796	-10480	12244	14	-12	-15	-10888	-10336	5088	16	0	9	104	-5512	16080	23	2	0	3192	9296	13104	1	14	-26	-10928	8032	9848	14	-8	17	-784	3288	16256	12	-16	22	126	139	12
-2856	-10972	12048	15	-9	-17	-10928	-10552	5088	7	4	7	144	-5616	15904	32	-2	0	3240	9312	12848	-3	17	-28	-11080	8136	9872	23	-5	15	-1032	3280	16584	3	-21	24	126	138	12
-2800	-10856	12176	30	-8	-15	-10960	-10496	4976	4	-2	-1	-104	-5472	15728	23	6	6	3096	9200	13088	-14	23	-31	-11128	8112	9968	1	3	16	-984	3360	16440	6	-15	20	127	138	12
-2816	-10528	12324	20	-18	-18	-11104	-10304	5048	15	0	-1	16	-5464	15816	24	-1	2	3096	9264	12944	-7	17	-25	-11048	7984	9824	3	-4	15	-1104	3272	16312	7	-17	15	126	138	12
-3068	-11084	12232	14	-7	-18	-11104	-10520	5088	-6	-1	-3	-184	-5392	16064	27	-5	6	3160	9216	12960	-16	18	-21	-11232	8184	9904	15	-7	19	-1208	3208	16576	0	-20	16	126	137	12
-2776	-10596	12424	19	-16	-18	-11168	-10568	5048	-2	-5	-6	-144	-5704	16152	18	-2	5	3032	8880	13080	-6	17	-23	-11200	8032	9936	0	-10	20	-1184	3272	16360	9	-17	13	127	138	12
-2888	-10656	12256	-7	-11	-27	-11080	-10280	4984	8	-6	-3	88	-5576	15928	31	4	-2	3328	9304	12944	-2	8	-22	-11192	8152	10064	30	-13	12	-864	3352	16784	10	-22	19	127	139	12
-2836	-11148	12052	7	-16	-24	-10872	-10696	5064	-10	-5	-4	-32	-5376	15992	24	-3	8	3200	9376	12944	-16	13	-24	-11080	8408	10048	12	-16	20	-984	3256	16608	7	-22	18	127	137	12
-2788	-10616	12316	16	-18	-23	-10984	-10400	5176	0	-5	-19	104	-5720	15992	16	4	4	3160	8832	13024	-11	14	-24	-11128	8080	9880	-4	-5	20	-936	3336	16544	14	-18	17	127	138	12
-2840	-10924	12208	-2	-21	-28	-10944	-10544	5136	2	-10	-4	24	-5600	16184	34	0	4	3064	9248	12936	-14	17	-29	-11224	7944	9920	19	-7	18	-896	3376	16680	1	-21	18	126	138	12
-2812	-10976	12212	12	-18	-26	-11120	-10736	5136	-13	-7	-9	-8	-5640	15968	25	0	10	3256	9056	13152	-14	18	-25	-11280	8016	9784	8	0	16	-920	3296	16672	2	-20	16	127	138	12
-2712	-10560	12324	4	-7	-27	-11040	-10568	5240	1	-4	-12	336	-5592	16008	22	4	6	3184	8856	12904	-7	14	-25	-11088	7920	10032	10	-6	10	-928	3408	16480	9	-16	19	127	139	12
-2860	-11068	12156	3	-16	-27	-10920	-10624	5024	-4	-8	-3	104	-5672	16096	31	-3	4	3224	9312	13088	-3	18	-28	-11176	8248	10232	21	-10	16	-848	3224	16600	10	-21	12	127	138	12
-2736	-10880	12152	20	-14	-22	-10864	-10776	5152	-5	-2	-4	120	-5720	16152	18	-2	4	3232	8968	12744	-12	19	-29	-11104	8048	9920	4	-1	20	-952	3360	16416	4	-17	17	126	139	12
-2816	-10516	12292	9	-13	-19	-10984	-10504	5168	10	-1	-1	160	-5568	15912	21	1	2	3120	9072	12928	0	15	-26	-10968	7928	9744	15	-1	15	-896	3352	16312	5	-18	16	127	139	12
-2804	-11024	12116	13	-11	-16	-10952	-10568	5272	0	0	4	88	-5608	16072	26	-1	1	3192	9288	12488	-16	21	-28	-11232	8112	9848	13	-3	21	-1000	3288	16496	0	-20	16	126	138	12
-2728	-10652	12136	30	-9	-12	-11072	-10552	5248	1	-5	-9	-136	-5560	16008	14	3	3	3200	8848	12968	-13	19	-24	-11032	8000	9784	-9	0	19	-1016	3376	16232	2	-14	16	127	138	12
-2832	-10512	12228	4	-14	-19	-10936	-10256	5224	9	-1	6	-48	-5664	15864	27	-2	-2	3128	9056	12936	-4	13	-22	-10976	8016	9704	17	-5	14	-856	3424	16424	5	-14	18	126	138	12
-2964	-11180	12152	17	-17	-19	-11096	-10776	4912	-9	-4	-1	0	-5464	16064	25	1	4	3208	9288	12760	-13	20	-23	-11264	8232	9808	16	-8	21	-1056	3152	16776	2	-20	15	126	137	12
-2748	-10624	12332	22	-14	-16	-10992	-10520	5128	-9	-6	-10	-72	-5640	15936	19	-5	9	3040	9032	12944	-9	18	-26	-11040	8120	9992	2	-3	21	-1032	3368	16624	13	-15	18	126	138	12
-2832	-10708	12328	-1	-14	-28	-11104	-10312	5032	1	-6	4	168	-5512	15928	31	-3	6	3304	9344	12936	-9	12	-25	-11024	8128	9824	31	-8	17	-960	3344	16720	12	-21	14	127	138	12
-2864	-11024	12292	15	-20	-24	-10920	-10768	5032	-12	-7	-7	-16	-5488	16032	27	-2	12	3224	9280	13056	-21	24	-30	-11272	8328	9904	9	-9	23	-1072	3352	16712	-1	-23	17	126	137	12
-2776	-10552	12264	7	-12	-24	-11040	-10520	4952	4	-9	-12	96	-5600	15792	22	-3	8	3288	9160	13240	-11	19	-25	-11176	8016	10168	-6	-2	11	-1056	3360	16824	12	-18	19	127	138	12
-2864	-10948	12268	-1	-18	-30	-10976	-10584	5216	6	-6	-5	72	-5608	15960	31	-5	1	3064	9264	12968	-13	15	-26	-11048	8072	9976	20	-7	13	-912	3336	16768	2	-20	17	126	138	12
-2876	-11104	12220	2	-19	-27	-11032	-10736	5104	-8	-5	-7	56	-5488	16128	19	-4	6	3032	9040	12856	-16	23	-27	-11152	8192	9920	4	-12	19	-1160	3192	16696	2	-21	17	125	137	12
-2768	-10600	12308	3	-9	-26	-10992	-10744	5168	-7	-4	-12	-80	-5704	15808	20	-2	2	3336	9008	13104	-9	13	-25	-10984	8096	9856	7	-7	10	-816	3304	16320	12	-13	17	126	138	12
-2940	-11156	12240	5	-14	-24	-10952	-10744	5000	-9	-5	2	152	-5624	16416	30	-2	3	3096	9272	12976	-14	17	-28	-11272	8152	10112	20	-13	18	-936	3176	16648	1	-26	14	126	138	12
-2764	-10820	12276	19	-7	-18	-11040	-10776	4824	-7	-13	-4	56	-5768	15752	14	-4	5	3048	8976	13024	-9	23	-26	-11224	8056	9960	-4	-4	20	-984	3424	16552	4	-19	12	127	138	12
-2832	-10552	12264	2	-11	-26	-10904	-10360	4992	14	-5	2	-8	-5584	16160	27	-2	-2	3272	9104	13208	-3	12	-23	-10992	7928	9800	13	-6	14	-912	3272	16720	7	-16	13	127	139	12
-2912	-11120	12048	9	-13	-23	-10896	-10464	5368	13	-3	4	88	-5448	16104	31	2	6	3280	9360	13056	-11	16	-28	-11048	8272	9776	17	-10	18	-992	3216	16416	7	-19	19	127	138	12
-2692	-10696	12300	27	-14	-16	-10920	-10664	5144	-9	-5	-9	-72	-5656	15840	17	3	6	3184	8992	12920	-9	17	-23	-11056	8192	9704	0	-3	18	-944	3360	16496	16	-10	15	127	138	12
-2816	-10540	12400	6	-14	-22	-10984	-10400	4992	11	-4	0	240	-5520	15968	27	5	3	3008	9056	12952	-8	14	-25	-11000	7776	9952	27	-6	19	-800	3424	16504	17	-13	16	127	138	12
-2880	-11096	12232	12	-13	-22	-11048	-10400	4968	11	-1	-1	-40	-5464	16192	28	1	5	3272	9176	12952	-8	22	-23	-11056	8312	9856	14	-10	17	-920	3400	16688	0	-17	13	126	136	12
-2780	-10612	12352	15	-14	-20	-10928	-10480	5064	1	-3	-8	80	-5416	15912	17	-1	5	3296	9040	13096	1	18	-25	-11216	8136	9752	-2	-6	18	-984	3432	16576	7	-17	13	126	137	12
-2820	-10716	12196	-11	-11	-24	-10976	-10392	5384	4	-7	3	232	-5488	16048	30	1	7	3376	9312	12816	-3	18	-25	-11024	8280	9928	19	-11	16	-1008	3432	16736	6	-18	18	126	137	12
-2828	-10892	12128	6	-14	-17	-10904	-10680	5272	-11	-1	-3	16	-5440	16048	19	-2	12	3200	9128	12984	-14	23	-27	-11000	8352	9952	1	-2	26	-1056	3288	16456	-6	-20	18	126	138	12
-2872	-10560	12396	2	-17	-15	-11008	-10408	5040	9	-5	-7	72	-5512	16040	22	-3	3	3288	8920	13080	-11	17	-24	-11032	8152	9848	-1	-5	17	-832	3408	16256	8	-15	16	127	138	12
-2908	-11040	12340	-3	-10	-21	-11088	-10424	5240	5	1	-4	112	-5576	16080	31	-1	3	3256	9264	12976	-10	15	-29	-11120	8208	9928	15	-2	14	-1088	3312	16568	2	-27	20	126	138	12
-2832	-10844	12272	13	-10	-15	-11016	-10520	4872	-6	-4	-11	-88	-5544	16240	23	-4	11	3024	9056	12872	-22	23	-29	-11120	8344	10000	-5	-1	15	-984	3352	16672	5	-23	20	126	137	12
-2784	-10500	12400	3	-9	-24	-10960	-10592	5040	9	1	-5	-24	-5600	16144	25	1	5	3160	9152	13088	-13	13	-26	-11104	7856	9880	12	-4	14	-968	3432	16560	10	-19	19	127	138	12
-2888	-11204	12228	9	-18	-29	-10984	-10512	5224	-9	-6	0	184	-5416	16008	32	-5	2	3152	9424	12976	-17	15	-26	-11304	8056	9720	27	-7	16	-840	3304	16816	2	-19	20	127	138	12
-2760	-10888	12224	24	-8	-17	-10944	-10608	5024	-8	-2	-10	0	-5560	16192	17	0	6	3144	9064	13008	-18	21	-25	-11128	8120	9792	0	-6	17	-1208	3184	16440	9	-14	16	127	138	12
-2792	-10588	12328	9	-12	-25	-11128	-10384	5224	13	-6	-9	72	-5568	15952	27	5	1	3344	9144	13088	-14	11	-25	-11152	8088	9856	17	-8	12	-888	3288	16672	12	-14	11	127	139	12
-2988	-11140	12124	14	-17	-27	-10872	-10520	5072	-5	-4	-4	-8	-5456	16016	27	-1	0	3184	9320	12992	-15	17	-26	-11128	8152	9824	12	-8	19	-1080	3280	16504	3	-18	16	126	138	12
-2720	-10680	12272	22	-14	-21	-11056	-10520	5096	-9	-6	-10	24	-5496	16104	15	4	4	3184	8904	12968	-12	15	-23	-10992	8192	9800	-8	-6	14	-1016	3296	16560	8	-12	12	127	139	12
-2804	-10576	12356	3	-16	-24	-10984	-10384	5152	-5	-4	-8	112	-5624	15896	27	3	0	3144	9296	12864	-9	17	-27	-11048	7912	9944	16	-11	13	-1032	3288	16472	5	-15	13	127	139	12
-2876	-11040	12220	10	-12	-23	-10952	-10640	5016	-14	-7	-4	0	-5448	15848	23	4	7	3176	9216	12792	-13	18	-26	-11144	8192	9824	10	-10	18	-920	3208	16728	-4	-18	11	126	138	12
-2784	-10544	12304	15	-15	-20	-10992	-10544	5096	2	-7	-8	136	-5568	15920	20	1	1	3216	8960	12848	-9	16	-23	-11208	7976	9984	3	-3	16	-872	3256	16304	6	-19	18	126	138	12
-2852	-10876	12288	0	-11	-28	-10984	-10552	5208	4	-1	-8	-88	-5568	16072	29	-4	6	3392	9256	13008	-15	16	-22	-11168	8192	10016	26	-8	14	-920	3280	16672	3	-21	13	126	138	12
-2820	-11024	12144	18	-9	-16	-10952	-10728	5200	-6	-5	-4	88	-5456	15912	17	-3	8	3112	9176	12944	-20	25	-33	-11096	8264	9808	3	-3	19	-1048	3304	16784	1	-17	18	126	138	12
-2748	-10524	12232	11	-14	-24	-10960	-10520	5248	6	-5	-8	88	-5632	15904	24	-1	3	3192	8864	12840	-6	23	-28	-11080	8032	9784	2	-2	12	-904	3304	16224	8	-17	19	126	139	12
-2920	-11012	12152	0	-12	-26	-10880	-10624	4976	-1	-4	-1	192	-5624	15672	27	-3	2	3200	9352	12864	-13	24	-23	-11040	8184	9928	11	-6	13	-920	3264	16584	0	-16	19	126	138	12
-2764	-10948	12076	20	-12	-22	-10936	-10840	5096	-11	-7	-6	48	-5680	16096	16	-1	1	3160	9056	12976	-17	23	-28	-11144	8232	9784	-10	-4	19	-968	3288	16552	5	-17	18	126	138	12
-2808	-10668	12320	11	-14	-13	-10856	-10752	5136	10	0	3	160	-5768	15856	23	-2	-6	3064	9048	13184	-9	16	-26	-11032	7888	9808	8	-1	16	-808	3152	16432	12	-19	16	126	139	12
-2920	-11180	12080	14	-17	-21	-10824	-10504	4984	6	-6	8	96	-5608	16152	22	-1	-5	3056	9304	13064	-13	16	-25	-11344	8040	10072	31	-16	16	-1128	3056	16576	6	-23	14	126	138	12
-2744	-10752	12236	28	-12	-15	-11008	-10696	5064	5	-5	2	-8	-5632	16256	10	7	-9	3176	9088	12960	-13	11	-25	-11232	7872	9640	14	-13	21	-992	3288	16632	9	-17	8	126	139	12
-2784	-10676	12272	6	-17	-23	-10992	-10328	4768	16	-4	6	216	-5656	15792	20	4	-10	3160	9216	13016	-8	6	-22	-10864	8088	9928	29	-9	20	-952	3168	16672	14	-18	12	127	139	12
-2972	-11088	12052	16	-11	-21	-10912	-10632	5064	-15	-4	3	-184	-5336	16088	20	0	-3	3088	9224	13208	-13	18	-20	-11200	8408	9744	9	-12	20	-920	3472	16816	7	-20	13	126	138	12
-2792	-10656	12248	24	-10	-15	-11088	-10584	5072	-6	-7	1	24	-5640	16016	13	1	-4	3040	9064	13120	-5	11	-26	-11160	8040	9976	-8	-4	16	-1144	3568	16480	5	-14	13	125	138	12
-2836	-10784	12264	4	-16	-21	-11064	-10560	5296	4	-6	0	120	-5664	15984	29	-3	-12	3296	9224	12936	-3	12	-21	-11256	8080	9920	16	-12	16	-1040	3440	16600	11	-20	18	126	138	12
-2880	-11076	12152	21	-22	-19	-10992	-10528	5528	9	-6	4	-16	-5360	16184	20	-1	-9	3192	9192	12984	-6	13	-20	-11136	8216	9840	5	-11	17	-880	3336	16456	4	-23	14	126	138	12
-2740	-10568	12408	16	-10	-16	-11080	-10512	4976	32	3	1	152	-5624	16048	14	1	-11	3192	8976	13088	-4	5	-21	-10984	7968	9584	10	-5	15	-752	3376	16528	12	-17	14	127	139	12
-2928	-10900	12168	12	-16	-20	-10784	-10384	4944	15	1	9	160	-5432	15856	20	9	-11	3376	9400	13024	-11	9	-22	-11128	8128	9896	35	-11	14	-856	3304	16504	12	-16	16	127	138	12
-2800	-10872	12060	27	-14	-15	-11176	-10656	5176	-10	-4	2	-8	-5528	16104	16	8	-3	3288	9128	12944	-20	23	-23	-11192	8248	10000	4	-5	19	-992	3328	16784	9	-17	19	127	139	12
-2860	-10532	12364	23	-21	-15	-10920	-10328	5296	3	-6	2	8	-5528	15952	16	1	-1	3232	8984	13024	-14	16	-23	-11024	8088	9832	-2	-2	12	-992	3432	16592	18	-13	25	127	139	12
-2916	-11048	12324	14	-17	-18	-11000	-10472	5272	-7	-9	0	48	-5560	16088	30	-7	0	3224	9272	12752	-16	18	-26	-11264	8248	10136	11	-8	13	-920	3328	16792	12	-18	25	127	138	12
-2768	-10656	12380	27	-13	-17	-11080	-10616	5112	-6	-8	-4	104	-5536	16072	24	-9	3	3104	8880	12856	-7	18	-31	-11056	8216	9712	-13	-2	19	-1088	3264	16440	14	-20	20	127	138	12
-2852	-10496	12308	9	-16	-22	-11016	-10288	5088	6	-2	4	288	-5424	16216	32	1	1	3232	8960	12960	7	9	-23	-11128	7936	9848	23	-6	10	-832	3328	16568	13	-21	21	127	138	12
-2920	-11064	12040	9	-17	-18	-10944	-10744	5072	-1	-4	4	112	-5392	16128	29	-2	5	3320	9392	12904	-6	21	-26	-11264	8248	9840	24	-17	15	-848	3328	16536	3	-19	18	127	138	12
-2748	-10704	12180	23	-13	-15	-11104	-10760	5064	-1	-1	-7	-8	-5392	15992	18	-4	9	3144	9040	13040	-13	18	-24	-11072	8104	9904	-4	-2	21	-872	3344	16400	5	-17	17	127	139	12
-2832	-10780	12476	7	-8	-20	-11184	-10440	5136	17	-3	-3	152	-5496	16040	19	-2	0	3384	9224	13104	-14	13	-27	-11080	8048	9792	8	-4	20	-1000	3376	16440	3	-18	13	127	140	12
-2876	-11024	12240	15	-13	-16	-11000	-10560	5120	-8	-1	-12	-96	-5544	16032	21	-3	2	3224	9136	12880	-14	19	-29	-11288	8128	9824	-8	-2	17	-1120	3336	16456	-10	-19	9	126	139	12
-2820	-10500	12392	8	-5	-23	-11120	-10368	4984	7	2	-6	80	-5640	15784	14	-1	4	3048	8880	13136	-2	13	-25	-11120	8048	9752	-9	-5	9	-1000	3280	16328	-1	-12	10	126	140	12
-2920	-10764	12284	-10	-8	-27	-10792	-10224	5072	-1	0	2	88	-5544	15976	28	4	3	3336	9248	12880	-3	13	-26	-10928	8120	9808	24	-4	9	-1024	3264	16464	2	-18	16	126	139	12
-2872	-10948	12144	-10	-12	-28	-10912	-10784	4880	-25	-5	-6	-40	-5608	16248	15	1	5	3256	9432	12816	-7	16	-24	-11120	8280	9824	6	-9	14	-904	3352	16584	7	-16	15	126	139	12
-2784	-10600	12428	10	-18	-24	-11040	-10696	5168	-1	-14	-16	16	-5688	15960	18	2	2	3200	9048	12944	-17	19	-36	-10968	8040	9672	2	-3	13	-832	3320	16280	8	-13	20	127	139	12
-2932	-11008	12336	3	-17	-25	-10976	-10560	5120	9	-6	-12	-48	-5560	15904	33	1	2	3144	9224	12976	-21	17	-29	-11216	7936	9736	19	-6	15	-944	3192	16664	-2	-17	19	128	138	12
-2816	-10848	12196	16	-15	-17	-11056	-10640	5032	-12	-1	-18	-96	-5728	16032	21	-5	7	3080	8896	13024	-13	22	-29	-11176	8120	9936	-3	-3	15	-1040	3224	16568	2	-22	18	128	138	12
-2736	-10424	12328	-3	-10	-29	-10920	-10376	4976	-5	-6	-9	192	-5752	15936	25	-2	12	3176	8952	13112	-3	15	-24	-11048	7944	9976	18	-7	4	-768	3240	16608	8	-16	21	127	139	12
-2920	-11120	12028	-8	-15	-31	-10808	-10792	5096	-21	-9	-7	24	-5664	16072	32	-4	10	3248	9224	12920	-12	19	-28	-11128	8136	10056	23	-14	17	-840	3144	16744	6	-19	21	126	138	12
-2732	-10824	12276	17	-8	-18	-10912	-10736	4968	-19	-1	-1	96	-5872	16152	23	-2	10	3016	8984	13064	-14	21	-28	-11128	8120	9904	-13	-1	17	-984	3200	16720	15	-16	19	126	139	12
-2824	-10644	12228	2	-13	-24	-10944	-10432	5288	16	4	-6	208	-5552	15992	31	0	3	3136	9104	13072	-11	17	-29	-11200	7920	9848	7	0	16	-984	3232	16816	10	-17	16	127	139	12
-2864	-11152	12160	14	-13	-17	-10992	-10752	5104	-2	-3	-3	32	-5504	16184	27	-9	7	3208	9040	12952	-6	23	-29	-11240	8184	10024	0	-4	22	-1016	3256	16656	-5	-25	16	126	139	12
-2756	-10468	12304	6	-6	-16	-11016	-10488	4968	8	-2	-4	40	-5504	15952	17	-10	7	3056	8928	13016	4	26	-22	-11072	8000	9784	0	-6	17	-1016	3296	16632	-6	-18	14	127	138	12
-2912	-10780	12280	-11	-13	-26	-10952	-10536	5056	12	-1	1	-56	-5688	15904	33	-2	5	3224	9344	13120	6	11	-23	-11184	8048	9976	28	-5	13	-840	3264	16824	3	-19	19	127	138	12
-2896	-11112	12076	1	-18	-22	-10976	-10552	5056	-15	-5	-2	-40	-5408	15992	28	-4	10	3120	9120	13128	-11	19	-25	-11192	8304	9856	2	-9	20	-1064	3168	16592	3	-22	17	126	138	12
-2792	-10572	12412	2	-12	-22	-11000	-10760	4984	-12	-3	-4	8	-5760	16064	31	-2	8	3128	8896	13032	-6	14	-25	-11040	7952	9824	-1	-1	18	-896	3472	16440	15	-14	19	126	138	12
-2896	-10960	12160	-2	-18	-26	-10872	-10440	5176	3	-4	-5	120	-5440	15984	41	-6	2	3112	9440	13144	-12	13	-26	-11136	8168	9672	19	-5	18	-1016	3304	16656	6	-19	21	126	138	12
-2812	-10880	12148	16	-17	-20	-10952	-10688	5096	-11	-9	-10	0	-5616	16352	30	-2	13	3128	9136	12752	-16	19	-21	-11160	8208	9920	-5	0	21	-976	3384	16712	4	-16	21	126	138	12
-2696	-10448	12452	3	-18	-23	-11072	-10240	5200	4	-4	-8	-32	-5632	16016	35	0	13	3256	8992	13120	-6	12	-23	-11072	7904	9832	14	0	10	-880	3288	16624	18	-10	24	126	139	12
-2956	-11092	12160	5	-16	-26	-10872	-10544	5472	-7	-4	-2	184	-5488	15984	40	2	14	3216	9136	13032	-9	14	-24	-11136	8224	9896	27	-15	14	-1064	3232	16464	16	-16	19	126	138	12
-2760	-10776	12308	21	-8	-19	-10888	-10784	5048	-11	-11	-2	232	-5528	16184	23	-1	6	3224	9064	12944	-15	15	-28	-11136	8056	9808	11	-8	22	-944	3344	16664	16	-18	18	126	138	12
-2772	-10568	12292	8	-13	-23	-10936	-10312	5176	14	-7	-3	240	-5424	16192	31	2	5	3248	9064	13048	-13	12	-26	-10984	7904	9824	16	-1	14	-944	3424	16488	12	-17	15	126	139	12
-2884	-11132	12136	17	-21	-20	-11008	-10768	5064	-11	-5	-5	96	-5336	16160	24	-1	1	3136	9280	12904	-12	18	-28	-11320	8192	9920	-1	-4	22	-960	3440	16536	-4	-16	9	126	139	12
-2752	-10656	12336	19	-10	-12	-10992	-10472	5088	-5	-7	-11	96	-5536	16088	15	0	5	3064	8984	13040	-2	15	-20	-10968	7952	9936	-9	-5	13	-1136	3488	16440	-1	-13	13	127	139	12
-2876	-10660	12292	-4	-16	-23	-10824	-10328	5064	6	-3	1	168	-5424	16048	21	1	1	3304	9304	12952	-5	12	-22	-10952	7968	9848	23	-13	9	-896	3304	16568	5	-18	12	126	138	12
-2912	-11060	12232	13	-19	-25	-10936	-10728	5296	-19	-1	-1	-24	-5496	15904	13	3	2	3280	9256	12808	-17	21	-25	-10976	8192	10000	5	-8	17	-888	3448	16576	-5	-22	11	126	137	12
-2724	-10592	12392	13	-12	-22	-10928	-10480	4920	-2	-5	-17	168	-5680	15936	8	2	4	3304	8952	13064	-14	15	-28	-11080	8008	9992	-4	0	17	-952	3488	16432	1	-13	14	126	138	12
-2900	-11012	12192	-1	-11	-26	-11048	-10384	5104	1	-1	-17	40	-5616	15688	24	0	3	3184	9304	12960	-20	15	-27	-11280	8184	9888	20	-5	16	-1056	3264	16816	-3	-19	16	126	138	12
-2836	-10828	12220	17	-17	-22	-11000	-10488	4968	1	-2	-9	-32	-5600	16032	19	-2	11	3144	9136	12656	-22	24	-29	-11264	8232	9744	-6	-3	18	-1080	3224	16552	-5	-17	17	126	137	12
-2816	-10848	12144	13	-15	-22	-11016	-10424	5112	7	-5	-11	8	-5800	16024	25	-1	6	3208	9080	12896	-10	14	-28	-11128	7944	9928	6	-6	9	-1008	3368	16536	15	-17	18	126	138	12
-2916	-11084	12148	-4	-16	-31	-10976	-10808	4896	-4	-9	2	40	-5712	16256	27	-7	0	3200	9232	12984	-14	15	-25	-11200	7960	9848	23	-16	16	-1008	3080	16712	9	-18	20	126	137	12
-2700	-10968	12004	20	-10	-21	-11024	-10728	5032	0	-4	-5	96	-5744	15904	15	-2	4	3192	9032	12912	-19	19	-27	-11064	8072	9776	-2	-6	16	-1056	3192	16376	8	-16	13	126	137	12
-2800	-10604	12232	10	-18	-22	-10792	-10496	4952	16	-7	-5	8	-5584	15920	17	1	-3	3112	9128	12936	-18	14	-23	-11128	7968	10144	11	-4	17	-784	3208	16648	8	-18	16	127	138	12
-2912	-11140	12008	17	-18	-17	-11008	-10656	5208	-7	-4	-5	-32	-5768	16008	17	1	0	3272	9112	13056	-11	17	-25	-11200	8144	10216	14	-9	20	-1056	3040	16472	0	-23	13	126	138	12
-2724	-10616	12336	23	-12	-18	-11032	-10520	5120	-16	-6	-7	96	-5608	15520	13	4	4	3272	8816	12912	-3	15	-22	-11128	7904	9752	-2	0	19	-1000	3224	16656	10	-16	15	126	138	12
-2888	-10716	12336	3	-17	-21	-11056	-10344	4952	-8	-7	4	40	-5520	16032	32	-3	0	3200	9264	12944	2	10	-18	-11040	7944	9928	25	-13	17	-992	3152	16528	16	-13	13	126	138	12
-2904	-10820	12272	2	-12	-24	-10856	-10712	5280	-11	-8	-1	48	-5568	15776	28	-10	7	3256	9232	12808	-8	17	-25	-11312	8328	9736	7	-17	25	-856	3312	16360	8	-18	14	126	137	12
-2732	-10640	12324	18	-13	-19	-11016	-10584	5208	12	-6	-9	0	-5608	15984	24	-3	4	3064	8864	13024	-12	10	-20	-11080	7928	10072	7	-4	29	-968	3344	16360	20	-12	9	127	138	12
-2932	-10940	12272	2	-17	-22	-11016	-10440	4960	16	-2	1	256	-5536	16096	40	1	1	3144	9304	13040	-6	12	-21	-11112	7984	9936	31	-8	18	-1088	3376	16728	4	-18	15	126	138	12
-2884	-10900	12164	19	-13	-19	-11048	-10512	5496	-4	-5	1	24	-5416	15952	26	-4	7	3152	9008	12936	-4	17	-21	-11296	8208	9888	12	-6	21	-1064	3328	16576	1	-20	17	126	138	12
-2700	-10428	12412	9	-10	-21	-10720	-10392	5168	10	-3	1	8	-5560	15704	26	-1	1	3160	8944	12960	3	7	-20	-11032	8032	9848	14	-7	13	-896	3344	16456	16	-19	17	126	138	12
-2848	-11012	12128	2	-12	-28	-10848	-10464	5184	1	-1	6	-32	-5600	16264	28	-6	1	3304	9232	13016	-6	13	-19	-11032	8080	9984	28	-10	14	-936	3360	16592	10	-22	16	127	138	12
-2824	-10904	12304	24	-12	-15	-10800	-10552	5192	-11	-3	-4	248	-5552	15872	17	1	10	3184	9048	12912	-14	15	-21	-11024	8328	9792	0	-6	21	-952	3296	16264	3	-16	15	126	139	12
-2784	-10548	12240	10	-13	-18	-10984	-10232	4952	6	-4	-8	40	-5560	16224	22	5	5	3312	9352	13088	-13	14	-20	-11064	7984	9800	20	-2	18	-904	3280	16480	5	-14	16	126	139	12
-3024	-11108	12180	14	-27	-21	-10920	-10632	5048	-10	-3	-7	8	-5376	15960	30	-2	12	3240	9304	12904	-19	16	-28	-11208	8264	9944	22	-7	21	-912	3376	16696	0	-22	15	126	138	12
-2828	-10728	12384	16	-16	-16	-10912	-10528	5448	-7	1	-15	-16	-5624	16032	20	-5	10	3000	8912	13296	-9	15	-23	-11128	8088	9944	7	-5	16	-864	3184	16568	6	-18	14	127	139	12
-2844	-10604	12476	-1	-9	-27	-10872	-10304	5272	12	-2	1	48	-5512	16120	32	-5	5	3232	9232	12864	0	9	-21	-11032	7920	10048	30	-11	9	-896	3320	16576	9	-23	19	126	138	12
-2908	-11128	12124	9	-13	-27	-10936	-10528	5112	-6	-7	-3	112	-5456	15888	29	-5	8	3168	9176	12728	-6	15	-19	-11200	8280	9920	25	-13	18	-1016	3384	16792	0	-23	17	126	138	12
-2656	-10700	12292	13	-13	-23	-11152	-10608	5192	-1	-6	-7	72	-5608	16016	22	0	9	3216	8936	12880	-3	14	-19	-11112	8056	9720	14	-5	19	-968	3280	16440	7	-13	10	126	139	12
-2876	-10788	12252	-2	-11	-27	-10904	-10544	5056	7	-2	-3	144	-5464	15776	29	7	5	3368	9400	13032	-3	6	-19	-11120	8080	9960	33	-7	15	-904	3248	16504	5	-15	16	126	139	12
-2860	-11020	12200	20	-11	-17	-10856	-10688	5400	-13	-5	-9	-152	-5576	15992	20	-2	5	3232	9288	12856	-6	17	-22	-11272	8352	9936	8	-7	21	-1120	3176	16512	-1	-17	13	126	138	12
-2728	-10560	12312	10	-9	-21	-11024	-10504	5112	-1	-9	-5	104	-5616	15992	19	1	3	3080	8824	13144	2	9	-21	-10992	7952	9752	3	-5	12	-1000	3248	16616	7	-16	12	127	138	12
-2932	-10956	12208	-2	-12	-24	-10776	-10432	5280	-3	-7	-3	-72	-5392	15896	30	4	0	3208	9320	12912	3	14	-16	-11000	8248	10176	36	-4	11	-976	3304	16712	-4	-22	15	127	138	12
-2820	-10884	12164	17	-11	-19	-10984	-10616	5288	-14	-8	-3	-72	-5512	16008	18	-4	6	3280	9048	12912	-5	14	-19	-11112	8160	9784	18	-6	17	-944	3200	16584	-2	-20	18	126	138	12
-2808	-10476	12296	4	-21	-23	-10952	-10456	5064	13	-6	-9	32	-5560	16120	27	3	4	3280	9240	12928	-2	10	-14	-10936	8000	9896	26	-4	14	-1040	3280	16464	13	-17	15	127	139	12
-2972	-11156	12144	8	-20	-21	-10896	-10488	5128	-5	-2	-7	-40	-5600	16024	31	-1	11	3328	9120	13064	-4	14	-20	-11296	8184	10056	20	-5	19	-896	3368	16680	-2	-20	17	126	138	12
-2844	-10812	12188	15	-8	-23	-10896	-10568	5000	-3	-4	-15	48	-5448	16088	25	-2	7	3080	8792	13144	-4	15	-22	-11224	8104	10000	-4	0	17	-1160	3328	16496	-2	-12	14	127	138	12
-2832	-10612	12296	-1	-11	-22	-11008	-10440	5184	1	-1	-2	144	-5576	16120	30	-1	2	3288	9296	13080	-4	13	-23	-11000	8000	9800	12	-6	9	-688	3184	16672	9	-16	17	127	138	12
-2868	-11172	12152	8	-15	-26	-10904	-10744	5120	-13	-5	-3	224	-5664	15976	24	-1	9	3232	9224	12776	-14	19	-28	-11288	8224	9896	4	-8	21	-1048	3032	16592	3	-20	12	125	138	12
-2752	-10552	12336	16	-17	-17	-10928	-10560	5024	-3	-4	-13	192	-5528	16024	14	4	2	3136	8904	13104	-12	21	-27	-11104	7976	10056	-9	-1	19	-928	3280	16704	10	-13	15	126	138	12
-2904	-10788	12296	-2	-12	-24	-10952	-10392	4896	6	-5	-2	96	-5680	15976	14	0	7	3280	9288	13136	-8	17	-25	-11088	7976	10160	18	-2	17	-800	3248	16480	3	-21	16	126	138	12
-2828	-10992	12224	5	-12	-20	-10976	-10800	4904	-11	-4	-2	-16	-5592	16096	20	-1	3	3160	9168	12736	-15	28	-27	-11216	8240	10176	6	-9	21	-1120	3400	16744	-2	-21	18	126	138	12
-2700	-10616	12356	2	-16	-22	-10984	-10504	5064	11	-2	0	-32	-5800	16024	24	5	0	3184	8904	13032	-7	19	-26	-10976	8040	9680	-1	-2	14	-688	3320	16416	15	-14	23	126	139	12
-2892	-11036	12160	-7	-19	-24	-10976	-10544	5200	9	-4	2	136	-5568	16008	30	3	-3	3312	9448	12848	-10	17	-28	-11128	8112	9848	15	-7	13	-960	3200	16880	9	-20	22	126	138	12
-2840	-11008	12068	16	-16	-16	-11048	-10632	4976	-6	-5	-10	80	-5504	16072	23	-2	6	3152	9232	12880	-20	23	-32	-11224	8152	9840	-22	-2	17	-1048	3272	16504	1	-22	16	126	138	12
-2736	-10528	12232	10	-17	-18	-10912	-10360	4936	12	-4	0	120	-5576	15912	23	-1	4	3232	9168	12920	-12	14	-24	-11168	7912	9904	7	1	16	-968	3272	16456	7	-16	17	127	139	12
-2908	-11168	12112	6	-14	-23	-11064	-10408	4976	-8	-4	-2	48	-5680	16200	33	-1	8	3232	9392	13224	-9	16	-23	-11328	8248	9784	19	-7	20	-880	3240	16456	3	-17	16	126	138	12
-2764	-10744	12260	24	-15	-18	-11000	-10560	5192	-9	-4	-6	48	-5688	16152	25	0	11	3120	8952	12968	-11	17	-26	-11136	8136	9936	-3	-4	21	-1064	3184	16288	9	-16	16	127	138	12
-2796	-10604	12288	3	-12	-21	-10912	-10592	5256	6	-8	-3	80	-5696	15960	33	0	6	3168	9136	12888	-1	12	-21	-11040	7920	9696	19	-10	16	-896	3336	16568	16	-12	16	127	138	12
-2852	-11196	12064	14	-16	-25	-10912	-10712	5152	-5	-4	-6	-8	-5416	16088	32	-6	6	3176	9312	12944	-12	14	-20	-11184	8232	9744	17	-10	21	-1024	3384	16728	4	-19	18	126	137	12
-2788	-10720	12360	28	-14	-17	-11000	-10568	5064	-1	-7	-6	72	-5488	15984	13	0	5	3184	9032	12944	-6	15	-21	-10968	8144	9976	0	-7	20	-872	3480	16736	12	-12	11	127	138	12
-2840	-10784	12296	12	-14	-21	-10936	-10328	5112	11	-1	-4	144	-5448	16080	24	5	-1	3312	9304	13008	-7	9	-19	-11048	8080	9888	22	-8	13	-880	3352	16704	11	-15	16	126	138	12
-2848	-11036	12092	27	-16	-21	-11136	-10720	5064	-15	-6	-3	-48	-5504	16168	18	1	3	3280	9272	12808	-17	18	-23	-11312	8208	9848	3	-6	21	-1096	3288	16576	-1	-16	19	126	138	12
-2748	-10548	12372	19	-11	-20	-11072	-10424	5040	-4	-5	-6	104	-5520	15912	18	4	5	3144	9000	13024	-12	12	-23	-10928	8160	9808	-3	-3	14	-1000	3440	16592	9	-13	16	127	139	12
-2924	-10956	12268	-2	-11	-30	-11040	-10368	5112	-2	-9	1	8	-5632	16136	28	-1	5	3248	9368	12704	-12	14	-23	-11088	8144	9696	25	-10	14	-808	3376	16736	4	-20	14	127	138	12
-2860	-10884	12092	18	-12	-23	-10960	-10600	5104	-11	-4	-5	0	-5448	16104	21	-6	9	3248	9112	12912	-18	21	-27	-11056	8280	9904	5	-1	17	-1104	3320	16616	3	-22	19	126	138	12
-2704	-10608	12284	4	-14	-26	-10944	-10376	5056	11	-6	-8	56	-5600	16136	25	3	2	3208	9128	13184	-13	21	-27	-10952	8168	9736	6	0	15	-936	3168	16592	15	-22	16	127	139	12
-2940	-11128	12188	2	-14	-28	-10928	-10696	4952	1	-2	-7	48	-5592	15800	26	-7	5	3272	9320	12968	-20	18	-32	-11192	8192	9888	9	-5	19	-1096	3160	16816	4	-25	17	127	138	12
-2796	-10776	12272	19	-9	-17	-11040	-10744	5144	-1	-7	-11	-32	-5576	15960	18	-4	8	3112	9008	13056	-21	24	-31	-11176	8104	9920	-16	1	15	-936	3312	16544	8	-15	14	127	138	12
-2776	-10596	12324	1	-16	-24	-11056	-10464	5192	15	-4	-6	184	-5608	15976	27	-3	2	3232	9064	12672	-7	15	-28	-11056	7808	9704	13	-4	7	-952	3168	16528	9	-16	17	127	138	12
-2952	-11092	12120	3	-17	-22	-11008	-10568	5056	-14	-8	4	-16	-5528	16120	27	-4	4	3152	9112	13048	-9	16	-23	-11152	8176	9832	17	-7	20	-856	3072	16880	9	-21	19	126	137	12
-2736	-10744	12272	19	-12	-16	-10976	-10608	5176	-9	-6	-7	88	-5768	16128	21	2	6	3288	9040	12904	-12	18	-29	-11176	8008	10016	-9	-3	23	-1032	3208	16496	13	-15	20	127	138	12
-2876	-10692	12112	6	-14	-20	-10944	-10552	4936	8	-5	-1	112	-5640	16008	30	2	1	3184	9160	12824	-6	10	-21	-11088	8072	9856	21	-10	16	-936	3192	16504	13	-18	11	127	139	12
-2916	-11120	12132	22	-21	-21	-10904	-10776	5048	-2	-3	-4	-56	-5584	16160	19	-5	2	3208	9080	12872	-5	13	-21	-11296	8192	9792	7	-3	24	-1024	3304	16600	2	-17	14	126	138	12
-2804	-10640	12308	19	-7	-16	-11032	-10608	5112	12	-3	-2	80	-5552	16024	15	-2	0	3192	8904	13184	-1	14	-18	-11304	8240	10016	8	-7	21	-896	3392	16544	9	-15	12	126	139	12
-2960	-10820	12208	1	-18	-19	-10984	-10360	4984	10	-6	3	136	-5464	16072	23	4	-4	3224	9360	12952	0	12	-19	-10896	8016	9864	23	-16	15	-792	3344	16488	5	-19	9	126	139	12
-2844	-11020	11996	17	-18	-20	-11008	-10568	5368	-16	-1	-2	24	-5568	15968	17	-1	2	3240	9256	12864	-15	17	-24	-11264	8264	10056	4	-8	23	-1048	3392	16680	2	-18	15	126	138	12
-2796	-10548	12308	15	-15	-22	-11008	-10664	4984	-1	-7	-9	112	-5544	15912	15	3	2	3320	9040	12992	-16	15	-26	-10928	8216	9704	8	-6	14	-1000	3304	16528	12	-14	17	127	139	12
-2860	-11080	12264	3	-20	-25	-10952	-10528	5320	3	-6	-6	88	-5528	16064	31	-5	1	3360	9264	13064	-15	17	-25	-11136	8136	9968	18	-6	14	-896	3432	16728	3	-22	18	127	137	12
-2700	-10836	12080	22	-11	-22	-11016	-10688	5040	-4	-4	-9	-24	-5616	16304	17	-2	4	3120	9064	12952	-17	21	-25	-11320	8264	9864	-9	1	15	-976	3320	16704	4	-19	21	127	138	12
-2728	-10508	12368	2	-15	-30	-10928	-10376	5064	13	-3	-1	144	-5704	16048	30	-3	3	3224	9144	13048	-12	15	-25	-10960	7760	9848	16	-6	11	-960	3200	16592	19	-12	21	127	139	12
-2924	-11172	12160	3	-12	-26	-10864	-10648	4952	-12	-4	0	152	-5520	15976	33	-2	8	3304	9384	12856	-20	18	-27	-11016	8104	10064	29	-8	20	-856	3056	16560	7	-21	25	126	137	12
-2712	-10820	12156	22	-10	-14	-11008	-10936	5280	-10	-5	-8	8	-5720	16048	24	1	12	3272	8952	13144	-16	24	-28	-11032	8056	9968	2	-1	23	-928	3272	16624	17	-17	22	125	138	12
-2788	-10672	12336	7	-13	-19	-10848	-10584	5208	17	-5	-7	80	-5720	16200	34	0	4	3216	8992	13080	-12	16	-27	-11056	8040	9872	7	2	18	-1048	3328	16616	14	-14	23	126	138	12
-2904	-11124	12124	20	-20	-17	-10952	-10584	5112	-1	-5	-2	40	-5496	16208	27	-2	8	3152	9088	13088	-9	20	-25	-11400	8240	9984	-2	0	19	-1008	3240	16768	-6	-21	19	125	138	12
-2780	-10640	12440	26	-14	-16	-11072	-10560	5136	-1	-7	-4	48	-5600	16128	19	-5	2	3144	8832	13096	1	13	-18	-11064	8152	9656	-12	-4	19	-840	3320	16488	5	-17	15	126	139	12
-2888	-10676	12320	5	-16	-23	-10944	-10416	5088	7	-3	11	80	-5520	16136	28	-4	-5	3336	9344	12880	4	12	-20	-11216	7912	10024	28	-12	15	-944	3216	16560	7	-20	9	126	139	12
-2860	-11016	12024	17	-13	-15	-11072	-10520	4920	-11	-6	6	48	-5416	16080	19	-8	5	3296	9192	12680	-1	17	-25	-11168	8216	9672	11	-8	23	-984	3248	16688	2	-20	12	126	138	12
-2760	-10568	12416	16	-9	-21	-10888	-10496	5200	0	-2	-7	0	-5680	15856	20	-2	4	3176	8904	12944	-6	10	-26	-10864	8056	10024	0	-4	21	-888	3360	16352	12	-10	13	126	139	12
-2852	-10892	12232	3	-9	-27	-10984	-10272	5152	-3	-8	0	160	-5336	16032	33	-1	8	3272	9456	12720	-11	15	-31	-11120	8240	10000	21	-9	17	-1160	3336	16584	4	-18	15	126	138	12
-2848	-10952	12192	20	-11	-24	-11104	-10856	5192	-14	-9	-8	-88	-5520	16072	31	-5	11	3200	9136	12984	-17	23	-31	-11168	8368	9888	9	-6	21	-1048	3280	16592	3	-15	14	126	138	12
-2824	-10408	12332	2	-11	-24	-11152	-10432	5128	11	-4	-9	32	-5688	16128	26	1	4	3216	8944	12872	-10	15	-26	-11088	7944	9784	15	-4	14	-880	3280	16424	15	-13	15	127	138	12
-2912	-11088	12144	-9	-13	-30	-10888	-10560	4984	4	2	2	72	-5464	16152	28	-1	7	3376	9312	13016	-7	15	-28	-11168	8288	9832	32	-11	16	-912	3280	16656	8	-21	15	126	138	12
-2716	-10936	12260	14	-14	-20	-11024	-10776	5128	-12	-1	-14	-8	-5528	15984	12	-2	11	3360	9128	12968	-15	27	-24	-11272	8352	9952	-8	-4	15	-1000	3400	16624	5	-19	18	126	137	12
-2804	-10612	12328	0	-11	-24	-10888	-10368	5000	0	-3	-10	352	-5616	15920	19	3	8	3192	9136	12816	-11	18	-29	-11144	8024	9928	7	-6	10	-968	3400	16400	6	-14	13	126	138	12
-2928	-11152	12116	-3	-16	-22	-10936	-10712	5176	-9	-1	-3	-48	-5472	16192	23	-10	5	3344	9256	12896	-14	22	-30	-11312	8144	10096	17	-8	15	-1176	3288	16760	-7	-21	12	125	137	12
-2696	-10696	12288	7	-12	-14	-10904	-10688	5176	-1	-1	-10	128	-5664	15936	14	-2	1	3128	8936	13064	-11	17	-21	-11184	8168	9984	-8	0	13	-1000	3280	16528	3	-20	12	126	137	12
-2856	-10676	12252	-6	-15	-23	-10896	-10392	5032	14	-2	3	184	-5672	15976	24	1	-2	3368	9272	13040	-5	12	-23	-10904	8104	9752	17	-8	13	-832	3312	16632	6	-20	19	125	138	12
-2972	-11148	12068	6	-12	-22	-11040	-10688	5152	-9	-3	-3	-88	-5488	16224	20	-6	7	3240	9168	12856	-10	18	-26	-11184	8432	10024	14	-7	18	-944	3264	16496	0	-22	18	126	137	12
-2796	-10624	12256	13	-7	-22	-11032	-10528	4920	-5	-9	-10	0	-5616	15976	21	-3	8	3200	8936	12880	-10	18	-30	-11056	7960	9768	4	-1	17	-1000	3384	16328	14	-15	21	127	138	12
-2908	-10884	12228	1	-16	-26	-10880	-10608	5208	0	-2	1	32	-5544	15800	31	-6	3	3256	9200	12864	-8	12	-26	-11152	8200	9792	25	-4	17	-992	3168	16704	9	-15	19	126	138	12
-2756	-10956	12120	20	-16	-22	-11064	-10672	5120	-5	-3	-8	48	-5552	15976	28	-5	8	3136	9248	12976	-18	23	-27	-11176	8248	9800	3	-2	15	-1008	3360	16584	8	-20	18	126	137	12
-2784	-10584	12288	17	-10	-19	-10928	-10544	4976	9	-3	-7	136	-5576	16080	25	3	0	3152	8896	13024	-7	11	-27	-10960	8032	9888	-1	-2	12	-848	3392	16464	13	-15	23	126	138	12
-3000	-11024	12036	4	-14	-30	-10912	-10368	5104	0	-6	6	32	-5536	15904	27	5	2	3232	9408	12888	-12	12	-26	-11152	8048	9848	27	-3	11	-944	3280	16624	1	-18	16	126	137	12
-2812	-10952	12136	24	-14	-14	-11088	-10728	5176	-23	-10	-6	-40	-5448	15984	15	3	12	3328	9096	12720	-16	19	-24	-11120	8176	9896	-2	-3	20	-1056	3304	16448	1	-17	18	127	138	12
-2736	-10516	12356	14	-12	-23	-10920	-10472	5048	-3	-8	-8	144	-5600	16304	20	3	6	3176	8936	13024	-13	15	-26	-11032	7784	9776	2	-3	16	-1008	3232	16568	13	-11	16	126	138	12
-2988	-11088	12136	11	-16	-23	-11152	-10544	5176	-2	-2	-4	-16	-5560	16024	31	0	7	3288	9248	13008	-11	17	-29	-11240	8192	9984	15	-8	21	-1040	3432	16576	2	-20	17	126	137	12
-2760	-10888	12324	25	-12	-19	-11328	-10632	5040	1	-1	-4	-80	-5664	16152	24	-1	8	3064	8944	12856	-8	18	-26	-11176	8120	9960	-7	0	21	-1120	3040	16608	6	-18	17	126	138	12
-2832	-10632	12300	2	-11	-26	-10928	-10512	5072	14	-7	-5	56	-5616	15864	28	2	-1	3096	9144	12888	-2	9	-19	-11120	8016	9616	23	-6	14	-928	3296	16632	14	-15	13	126	139	12
-2948	-11148	12152	10	-8	-25	-10952	-10624	5056	1	-2	5	32	-5488	16064	26	-4	0	3344	9160	12920	-7	18	-27	-11056	8240	9840	22	-8	24	-1056	3304	16720	2	-20	15	126	137	12
-2780	-10712	12272	23	-9	-16	-11072	-10512	5256	-4	0	-6	40	-5440	16352	20	-1	6	3216	9160	13040	-8	19	-24	-11032	8120	9888	-12	-2	17	-992	3512	16504	2	-15	16	127	138	12
-2752	-10804	12356	6	-20	-22	-10952	-10344	5136	3	-5	-4	56	-5544	15888	28	-1	4	3344	9064	12840	-7	17	-24	-11072	8032	10056	12	-4	19	-1056	3320	16680	5	-17	15	127	138	12
-2880	-11044	12144	19	-15	-23	-11016	-10656	5256	-15	0	-4	-120	-5488	16120	20	-4	8	3456	9464	13048	-10	13	-27	-11352	8240	9800	0	-4	20	-992	3360	16464	0	-18	15	127	137	12
-2816	-10644	12336	10	-12	-21	-11056	-10568	5032	4	-3	-4	216	-5528	16032	24	-8	1	3136	8992	13184	-5	12	-22	-11136	8016	9864	-2	-6	11	-960	3240	16616	11	-16	20	127	137	12
-2912	-10928	12284	2	-15	-24	-10696	-10504	5168	8	-6	1	160	-5616	16016	33	-1	-1	3224	9384	13112	-14	17	-25	-11192	8048	9688	32	-7	14	-872	3240	16688	14	-20	21	127	138	12
-2804	-11028	12028	19	-19	-20	-10896	-10632	4976	-6	-5	-1	16	-5544	16032	21	-3	4	3216	9104	12944	-15	19	-21	-11104	8304	9952	11	-10	21	-1048	3400	16496	7	-17	18	126	138	12
-2760	-10556	12292	15	-13	-19	-11040	-10552	5120	18	-2	-5	16	-5464	16032	24	3	1	3232	8944	12936	-8	14	-26	-11064	7832	9760	5	-4	18	-976	3264	16672	11	-13	15	127	138	12
-2904	-11036	12148	8	-17	-21	-11008	-10368	5352	7	-5	2	96	-5680	16072	24	2	3	3240	9400	12920	-15	15	-26	-11240	8136	10120	24	-11	18	-944	3360	16600	3	-18	14	126	138	12
-2772	-10888	12256	26	-13	-16	-11208	-10744	5064	-16	0	-6	16	-5520	16184	13	-4	5	3176	8976	12840	-15	22	-27	-11360	8200	10000	3	-2	21	-920	3416	16512	8	-19	16	127	137	12
-2784	-10472	12300	6	-16	-22	-11032	-10296	5104	1	-7	-5	40	-5592	15968	22	2	0	3184	8936	12912	1	12	-20	-11016	7776	9904	14	-6	15	-832	3432	16680	12	-17	14	127	139	12
-2916	-11112	12064	8	-22	-25	-10880	-10656	5168	-10	-5	-2	-24	-5456	16336	30	-2	9	3224	9272	12768	-10	15	-26	-11192	8240	9872	14	-10	19	-1088	3280	16576	-2	-20	19	126	138	12
-2772	-10732	12288	21	-12	-17	-11024	-10512	5104	-11	-7	-6	-88	-5568	15968	21	-1	8	3192	8896	12976	-14	22	-28	-11128	8208	9840	-6	-2	21	-880	3256	16336	8	-17	17	126	138	12
-2772	-10620	12204	4	-15	-23	-10896	-10552	4976	12	-2	-3	152	-5584	16064	31	-5	4	3296	9256	13056	-12	20	-25	-10976	7968	9792	19	-5	14	-1000	3208	16960	7	-21	20	126	138	12
-2908	-11152	12156	14	-13	-18	-10976	-10824	5248	-1	-2	-3	144	-5696	15936	24	0	5	3296	9224	12848	-15	22	-34	-11224	8320	10040	13	-4	15	-896	3216	16632	2	-21	18	127	138	12
-2824	-10664	12280	14	-7	-22	-11144	-10512	5112	15	-4	-5	-72	-5752	15920	19	-4	3	3088	8944	13168	-9	18	-26	-11152	8008	9800	-2	-1	15	-1064	3360	16472	8	-16	18	126	138	12
-2832	-10792	12248	4	-16	-23	-10816	-10360	4968	6	-4	-3	80	-5600	16024	27	0	-1	3248	9224	12984	-7	13	-22	-11064	7984	9960	28	-9	13	-816	3344	16496	6	-13	17	127	139	12
-2812	-11104	12028	23	-16	-18	-10936	-10728	5040	-25	-7	-3	-40	-5384	16136	17	-1	5	3288	9208	13080	-15	15	-26	-11128	8216	9928	10	-12	17	-1192	3320	16624	5	-18	16	126	138	12
-2744	-10528	12432	17	-10	-24	-10928	-10424	5024	-7	-7	-9	128	-5664	16024	10	5	3	3248	8960	12744	-13	18	-23	-11016	8104	10064	3	-2	16	-992	3352	16688	10	-14	17	127	139	12
-2960	-11088	12288	9	-18	-23	-11120	-10384	4920	-3	-1	-2	104	-5536	16352	26	4	0	3208	9320	12744	-12	16	-18	-11240	8152	9872	23	-3	13	-1032	3336	16736	-2	-19	16	126	138	12
-2804	-10920	12296	24	-15	-21	-11056	-10584	5144	-10	-7	-2	-32	-5608	16088	16	-6	2	3168	9032	12936	-13	20	-31	-11168	8192	9776	-6	-5	22	-856	3256	16648	2	-19	14	127	138	12
-2736	-10484	12412	0	-7	-24	-10912	-10392	5128	10	-6	-4	120	-5600	15936	26	2	4	3144	9160	12960	-6	16	-20	-11096	8088	9792	13	-5	11	-824	3368	16504	13	-15	20	127	138	12
-2888	-11076	12104	7	-17	-21	-10752	-10664	5056	-2	-8	2	184	-5544	16040	34	-2	8	3288	9296	12904	-12	19	-25	-11144	8240	9824	24	-4	19	-1008	3256	16824	4	-19	21	126	137	12
-2784	-10820	12200	15	-15	-16	-10952	-10560	5192	-4	-7	-8	-16	-5616	15904	24	-4	9	3240	8984	13080	-12	17	-27	-11056	8000	9768	2	-3	23	-1056	3328	16632	13	-15	20	126	138	12
-2808	-10656	12432	9	-20	-23	-10824	-10512	4816	6	-5	0	-32	-5488	15816	29	-1	2	3288	9040	13064	-12	15	-26	-10976	8104	9840	26	-8	17	-960	3224	16768	19	-16	15	127	138	12
-2868	-11124	12196	12	-18	-21	-11088	-10768	5024	-5	-5	0	184	-5584	16272	24	-5	6	3312	9248	12944	-10	22	-23	-11136	8104	9824	12	-12	18	-848	3376	16592	14	-17	15	126	137	12
-2740	-10660	12232	17	-10	-14	-10856	-10720	5000	5	-1	-4	144	-5544	15992	16	4	3	3080	8984	12896	0	22	-23	-11032	7992	9888	-9	-5	15	-888	3304	16624	5	-17	12	126	138	12
-2872	-10800	12148	-3	-13	-19	-10760	-10352	5144	7	2	0	104	-5616	15864	23	3	-2	3328	9480	12928	0	13	-23	-11104	8080	9864	20	-9	18	-960	3272	16704	2	-17	10	127	138	12
-2856	-11028	12080	10	-17	-17	-11032	-10768	5248	-15	-4	0	-88	-5600	15992	15	-1	3	3376	9128	12896	-12	21	-25	-11160	8368	10072	8	-7	17	-1072	3264	16800	2	-20	16	126	137	12
-2724	-10604	12364	6	-14	-20	-11216	-10504	5144	-3	-6	0	24	-5600	16064	17	-1	-1	3248	8960	13024	-11	19	-26	-11064	7904	9984	-1	-7	19	-920	3288	16768	12	-13	17	126	138	12
-2976	-10996	12260	-5	-16	-21	-10896	-10512	5096	12	-2	3	48	-5512	16160	35	-7	-1	3136	9296	13080	-11	13	-25	-11072	8112	9848	27	-4	16	-968	3448	16624	5	-22	18	126	137	12
-2924	-10936	12124	16	-16	-18	-11088	-10624	5280	4	-4	-6	-144	-5576	16040	25	-5	3	3224	9032	12704	-13	18	-27	-11184	8304	9808	-2	-3	20	-1008	3288	16464	0	-19	22	126	136	12
-2684	-10484	12340	6	-15	-22	-11008	-10392	4952	10	-3	-5	56	-5544	15856	23	3	3	3272	9088	12856	-6	15	-22	-10936	7928	9672	12	-5	13	-888	3304	16512	18	-13	16	126	138	12
-2896	-11060	12172	5	-12	-28	-11016	-10544	5000	-5	-4	4	32	-5424	15864	34	4	5	3256	9256	12872	-10	17	-24	-11184	8376	9928	31	-15	18	-864	3256	16536	8	-18	17	127	137	12
-2744	-10908	11984	23	-8	-20	-10816	-10688	5144	-18	-8	-11	-8	-5560	15928	18	4	6	3176	9144	12904	-14	18	-26	-11160	8232	9864	4	1	23	-976	3328	16400	6	-14	15	127	138	12
-2740	-10636	12328	13	-19	-20	-10912	-10216	5136	8	-7	-8	104	-5528	16128	23	4	-2	3232	9136	12888	-21	13	-27	-11112	8008	9896	14	-4	17	-880	3248	16608	14	-16	14	127	138	12
-2984	-11152	12312	16	-17	-20	-10944	-10680	5208	-11	-2	-8	208	-5552	16200	29	-1	5	3168	9208	12840	-12	15	-25	-11112	8048	10032	16	-5	16	-1208	3152	16840	-3	-22	13	126	138	12
-2736	-10620	12368	21	-10	-23	-11088	-10504	4864	-7	-5	-8	104	-5632	16200	15	0	4	3000	8928	12944	-8	12	-22	-11128	8112	9928	-1	-9	17	-1040	3392	16456	5	-13	16	126	138	12
-2840	-10692	12276	0	-16	-28	-11000	-10392	5048	10	-7	3	152	-5680	15896	31	0	1	3288	9200	13024	1	11	-21	-11088	8024	9616	29	-11	10	-944	3232	16552	14	-19	17	127	139	12
-2888	-11188	12020	16	-15	-23	-10992	-10808	4960	-1	-1	1	-88	-5552	15920	25	-3	6	3168	9248	12936	-8	21	-25	-11072	8344	10048	17	-7	20	-1016	3232	16560	3	-18	15	126	138	12
-2740	-10700	12304	19	-17	-19	-11032	-10560	5136	4	-5	-7	176	-5560	16144	19	1	2	3192	8984	12736	-12	17	-25	-11032	7928	9848	-8	-1	23	-1072	3352	16368	12	-14	12	126	139	12
-2848	-10928	12344	9	-15	-25	-10896	-10424	5016	1	-2	-8	8	-5552	15920	25	0	2	3272	9056	12880	-12	13	-23	-11112	8168	9904	15	1	19	-864	3416	16584	10	-16	13	126	139	12
-2788	-10988	12156	24	-12	-19	-11008	-10728	5216	-17	-4	-8	-40	-5528	16040	18	2	5	3176	9240	12824	-18	24	-27	-11200	8248	9800	-8	-4	17	-1080	3368	16768	-4	-20	15	126	138	12
-2756	-10428	12428	10	-16	-22	-10992	-10408	5200	4	-3	-4	40	-5656	16016	20	-6	3	3088	8944	12944	-5	15	-25	-10984	7904	9848	2	-1	14	-992	3256	16376	9	-14	20	127	139	12
-2944	-11068	12172	1	-15	-25	-10864	-10592	5032	-1	1	2	104	-5624	16040	28	-5	-1	3200	9360	12784	-12	16	-22	-11096	8312	10016	21	-7	12	-888	3312	16544	8	-19	19	126	138	12
-2768	-10912	12168	17	-14	-19	-10936	-10752	4936	-7	-3	-3	152	-5512	16152	20	0	3	3232	9056	12968	-19	23	-30	-11120	8136	9712	-2	-9	17	-976	3336	16624	10	-17	22	126	138	12
-2740	-10596	12300	6	-17	-23	-10864	-10416	5000	11	-2	-8	104	-5608	16016	23	2	7	3216	9048	13096	-18	15	-30	-10912	7968	9760	11	1	15	-1008	3208	16792	13	-16	18	126	137	12
-2972	-11140	12140	12	-18	-21	-10952	-10688	5024	2	-8	-3	-40	-5552	16136	32	-1	4	3176	9256	12904	-15	21	-26	-11344	8136	9784	15	-5	22	-1000	3240	16784	-5	-24	17	126	137	12
-2732	-10628	12288	23	-15	-12	-11104	-10720	5144	2	-6	-8	40	-5656	15928	15	-3	3	3080	8864	12848	-2	20	-23	-11128	8112	9888	-9	-7	18	-1104	3200	16448	5	-17	18	127	138	12
-2792	-10604	12332	-1	-13	-24	-10944	-10456	4960	11	-1	3	192	-5528	16072	28	-2	4	3224	9144	12960	3	10	-19	-10936	7816	9864	22	-10	11	-832	3128	16568	8	-17	19	127	138	12
-2904	-11188	12072	11	-25	-23	-10824	-10824	5144	-18	-7	-1	56	-5440	16048	22	-3	4	3280	9240	12800	-16	18	-24	-11152	8296	9992	15	-7	20	-920	3240	16648	1	-20	16	127	137	12
-2752	-10676	12364	21	-10	-17	-10944	-10600	5112	-9	-8	-8	104	-5736	16016	16	0	5	3128	8928	13120	-15	15	-29	-11064	8096	9920	-7	-3	20	-984	3376	16448	11	-15	15	127	138	12
-2860	-10792	12320	4	-17	-20	-10856	-10360	4880	2	-1	-2	264	-5552	16216	30	-1	1	3160	9248	12904	-12	14	-26	-11128	8144	9888	15	-8	15	-952	3408	16512	3	-16	18	127	138	12
-2784	-11004	12168	22	-16	-18	-11096	-10864	5112	-5	-4	-6	-136	-5592	15936	22	-4	11	3144	9352	13040	-13	14	-24	-11272	8200	9968	2	-8	23	-1024	3280	16800	1	-18	15	126	138	12
-2832	-10516	12412	5	-15	-19	-10904	-10512	5208	10	-6	-6	80	-5656	15896	25	-3	-1	3224	8912	12824	-6	14	-21	-11120	7848	10152	8	-7	13	-912	3392	16496	15	-19	15	126	138	12
-2908	-11036	12152	1	-14	-30	-10880	-10424	5224	2	-4	3	112	-5528	15872	29	-2	3	3232	9272	12984	-9	18	-22	-11152	8176	9848	32	-14	15	-936	3296	16576	9	-16	21	127	138	12
-2764	-10904	12160	19	-12	-20	-10960	-10688	5136	-12	-4	-5	32	-5440	16216	13	-2	10	3152	9136	12800	-16	23	-28	-11184	8168	9800	3	-3	20	-992	3248	16584	7	-20	18	127	139	12
-2752	-10608	12344	11	-15	-17	-11040	-10304	4992	2	-6	-7	152	-5528	16096	22	1	4	3400	9168	12856	-13	18	-29	-11080	8168	9840	8	2	13	-1032	3256	16568	12	-17	16	127	139	12
-2952	-11168	12128	14	-13	-22	-10984	-10624	5328	-12	-7	-3	80	-5416	16120	28	-7	8	3048	9240	13128	-24	21	-27	-11224	8280	9592	5	-6	19	-1024	3344	16728	0	-21	14	127	137	12
-2788	-10668	12420	18	-8	-22	-11120	-10664	5248	-4	-6	-9	-120	-5752	15872	19	-2	8	3120	8920	12968	-10	18	-22	-11104	8144	9768	-6	0	13	-1256	3312	16424	3	-15	17	126	138	12
-2788	-10608	12328	0	-13	-26	-11120	-10488	5192	8	-3	-3	40	-5616	15800	33	-1	-3	3208	9096	12872	-2	10	-20	-11024	8096	9480	19	0	9	-936	3240	16448	9	-18	18	126	139	12
-2900	-11104	12116	5	-15	-21	-10960	-10648	4904	-8	-5	-1	48	-5528	15976	26	-1	10	3368	9320	12848	-12	17	-26	-11312	8296	9736	17	-8	16	-912	3096	16648	5	-18	14	126	137	12
-2752	-10764	12328	10	-10	-21	-10944	-10616	5056	2	-8	-7	136	-5616	16016	18	-2	6	3104	8968	13008	-9	20	-29	-11024	7992	9792	-3	0	20	-968	3344	16432	12	-14	13	127	138	12
-2860	-10920	12244	3	-14	-19	-10928	-10488	5032	14	-9	-3	40	-5536	16120	30	-1	3	3152	9472	12880	-10	14	-26	-11056	8144	9576	16	-9	12	-888	3184	16608	11	-14	18	127	138	12
-2816	-11068	12064	21	-20	-16	-10912	-10752	5072	-9	-4	-4	16	-5392	16192	25	4	5	3112	9320	12992	-18	21	-25	-11224	8088	9696	3	-5	22	-1024	3376	16576	-1	-18	14	126	138	12
-2780	-10520	12352	13	-12	-21	-11080	-10496	5128	-1	-3	-8	104	-5672	16256	14	1	6	3144	8944	12928	-14	16	-25	-11048	7944	10000	3	-5	15	-1008	3480	16232	11	-10	12	126	138	12
-2888	-11012	12192	-2	-14	-23	-11040	-10328	4976	-1	-5	4	176	-5536	15896	25	-2	0	3104	9264	12840	-11	13	-27	-11192	8072	9960	30	-12	13	-1072	3360	16784	11	-18	22	126	138	12
-2784	-10904	12228	17	-18	-14	-10952	-10648	5200	-11	-5	-3	-8	-5560	16128	18	-5	7	3216	9072	13016	-11	24	-32	-11088	8312	9960	5	-3	20	-928	3368	16560	2	-21	14	126	138	12
-2696	-10600	12424	2	-16	-23	-11000	-10408	5224	11	-10	-4	168	-5552	16104	25	-6	2	3232	9128	13032	-7	19	-26	-11104	7920	9920	6	-4	15	-1000	3384	16672	6	-19	17	126	138	12
-2904	-11088	12204	-2	-12	-21	-11040	-10608	5024	2	-3	-1	32	-5592	16128	30	-2	1	3384	9224	13032	-8	22	-25	-11144	8112	10120	8	-10	20	-984	3152	16880	-3	-19	19	126	138	12
-2740	-10804	12252	9	-15	-15	-11128	-10640	5400	8	1	-7	48	-5576	16104	20	-5	5	3168	8912	12984	-7	18	-28	-11176	7960	10168	-13	-3	17	-920	3320	16480	0	-14	19	126	138	12
-2880	-10592	12248	-11	-20	-23	-11016	-10416	5192	17	-3	1	88	-5688	15952	30	-4	-1	3304	9192	12768	-4	13	-25	-11072	7800	9928	15	-6	11	-880	3360	16360	8	-19	17	126	139	12
-2876	-11196	12168	3	-16	-26	-10944	-10512	5112	-11	-2	1	32	-5584	16008	27	-4	8	3400	9304	12800	-11	21	-29	-11176	8280	9936	13	-10	21	-864	3096	16632	1	-20	18	126	137	12
-2744	-10724	12336	14	-13	-22	-10936	-10648	4912	-5	-2	-10	-80	-5632	15904	25	-2	8	3032	9008	12808	-13	15	-29	-10992	8096	9608	-6	-6	20	-1008	3344	16608	15	-11	13	126	138	12
-2880	-10804	12240	6	-9	-18	-11000	-10464	5056	3	-3	-3	336	-5672	15976	34	-2	2	3128	9128	13104	-9	9	-27	-11128	8040	9776	24	-12	16	-952	3416	16856	12	-14	18	127	139	12
-2932	-11060	12072	23	-22	-25	-10984	-10792	5064	-14	-4	-5	8	-5552	16168	26	-2	6	3144	9176	13336	-11	17	-22	-11240	8368	9784	17	-6	22	-1176	3352	16464	3	-18	16	126	138	12
-2820	-10588	12396	21	-10	-20	-10944	-10504	5040	2	-6	-2	96	-5680	16008	20	3	-2	3168	9000	12976	-4	7	-19	-11072	8056	9936	7	-6	15	-984	3320	16312	19	-11	15	126	138	12
-2864	-10992	12128	8	-10	-24	-10928	-10624	5040	10	-8	2	32	-5568	15856	29	3	-5	3152	9320	13040	-9	9	-21	-10976	8144	10056	34	-13	20	-736	3360	16704	12	-23	14	126	137	12
-2812	-10928	12196	25	-20	-15	-10992	-10584	5344	-9	-5	-2	136	-5704	16008	23	0	-5	3280	9296	12864	-14	18	-26	-11056	8264	10040	3	-10	25	-952	3408	16984	2	-21	12	126	138	12
-2824	-10580	12340	23	-15	-20	-11096	-10360	5224	3	-1	-5	16	-5496	15976	16	7	2	3192	9152	13016	-9	12	-28	-11000	8080	9920	1	-2	17	-872	3424	16656	2	-14	13	127	139	12
-2868	-11096	12284	12	-11	-21	-10920	-10552	5216	-10	-2	3	72	-5448	15984	25	1	4	3248	9312	12904	-16	19	-24	-11216	8200	9792	14	-2	21	-920	3368	16760	-3	-20	17	126	138	12
-2820	-10844	12280	18	-10	-22	-11128	-10528	5016	-7	-8	-8	-128	-5552	16120	18	-2	9	3320	9048	13024	-14	18	-28	-11040	8160	9608	-10	2	16	-1096	3344	16384	5	-19	19	126	138	12
-2840	-10472	12296	-3	-9	-25	-10920	-10368	5328	17	-1	-2	128	-5760	16008	26	-4	5	3312	9200	12928	-7	17	-24	-11136	8024	9744	2	-6	12	-952	3256	16536	11	-20	22	126	139	12
-2984	-11172	12084	2	-10	-28	-10904	-10536	5016	1	-5	-5	24	-5552	15960	32	-6	8	3248	9376	12848	-14	20	-26	-11112	8216	10080	17	-10	19	-944	3120	16552	5	-22	23	126	138	12
-2692	-10848	12192	21	-12	-22	-11032	-10616	5240	4	-4	-11	-56	-5520	16152	22	3	8	3344	9088	13200	-16	19	-23	-11104	8152	9920	6	0	17	-976	3240	16480	12	-15	19	126	138	12
-2828	-10744	12348	6	-15	-21	-10984	-10512	5120	12	-4	-8	176	-5616	16096	29	2	4	3128	9128	13184	-10	14	-28	-11032	7904	9872	26	-2	21	-992	3240	16536	8	-17	17	127	138	12
-2900	-11132	12180	18	-21	-22	-10944	-10632	5048	-5	-2	-6	-96	-5584	16032	26	-2	6	3328	9152	13016	-21	20	-29	-11216	8224	9888	15	-8	22	-1088	3264	16720	0	-19	16	127	138	12
-2740	-10564	12360	20	-18	-19	-11080	-10672	4976	-9	-8	-5	216	-5568	16104	16	-2	1	3176	8912	12976	-9	15	-21	-11104	8072	10112	-5	-2	19	-944	3376	16496	11	-17	13	127	138	12
-2884	-10828	12308	0	-16	-24	-11040	-10400	5176	-6	-4	2	160	-5568	16080	30	-2	0	3216	9136	13072	-2	14	-19	-11192	8024	9880	20	-14	14	-952	3336	16600	7	-15	15	127	138	12
-2880	-10976	12012	18	-17	-22	-10896	-10760	4872	-17	-8	-2	-136	-5592	16064	18	2	-1	3360	9176	12736	-5	19	-25	-11144	8416	9992	9	-5	22	-968	3368	16728	3	-20	12	126	138	12
-2740	-10596	12288	14	-12	-20	-10976	-10472	5336	15	-2	-9	136	-5560	15720	26	2	-1	3128	9040	13104	-7	12	-23	-11024	7920	9680	0	-2	20	-936	3328	16552	14	-14	16	127	138	12
-2928	-11064	12296	8	-16	-24	-11024	-10472	5112	8	2	-1	-72	-5416	16088	32	-1	2	3392	9168	12992	-14	16	-25	-11048	8232	9992	18	-6	18	-944	3208	16792	4	-19	21	126	138	12
-2816	-10772	12208	19	-11	-17	-10992	-10640	4920	3	-3	-3	-72	-5416	16240	20	-3	7	3200	9056	12848	-12	20	-28	-11192	8208	9880	-3	-6	16	-1048	3304	16632	2	-20	15	126	138	12
-2812	-10488	12344	0	-18	-27	-11000	-10480	5264	10	-4	-2	136	-5592	15760	25	4	0	3088	9008	13344	-3	18	-23	-10992	7912	9976	10	-4	11	-792	3392	16616	8	-13	19	126	139	12
-2936	-11160	12048	2	-19	-21	-10872	-10496	5224	-10	-3	-1	176	-5560	15960	25	-6	5	3136	9640	12944	-13	15	-23	-11064	8288	9616	27	-10	12	-928	3288	16712	1	-23	15	126	137	12
-2696	-10840	12276	19	-11	-18	-10960	-10712	5152	-23	-4	-10	72	-5624	16024	19	-3	12	3160	8984	13032	-14	23	-31	-11112	8088	9640	-10	-2	23	-1072	3304	16736	10	-16	19	126	138	12
-2912	-10700	12236	8	-11	-22	-10880	-10376	5096	3	-2	-8	40	-5632	15920	30	-2	1	3232	9112	12976	-15	15	-30	-11104	8008	9848	23	-6	13	-912	3272	16768	12	-16	23	126	139	12
-2912	-11180	12240	13	-13	-20	-10984	-10888	5240	-5	-3	-4	96	-5592	16120	32	-5	5	3272	9208	12792	-20	24	-27	-11256	8192	9928	3	-7	20	-1136	3136	16496	-1	-21	20	124	137	12
-2756	-10664	12352	16	-14	-21	-10960	-10592	5112	10	-1	-5	168	-5656	16016	23	-1	2	3232	8912	12816	-1	17	-24	-11048	7920	9952	-8	-1	16	-856	3200	16512	12	-16	19	125	138	12
-2792	-10788	12220	-2	-11	-25	-11000	-10392	4968	10	-2	3	240	-5464	15976	30	-1	3	3256	9416	12920	-1	12	-24	-11088	8032	9824	26	-15	17	-912	3280	16464	9	-18	19	126	137	12
-2852	-11084	11940	21	-12	-18	-11056	-10720	4976	-9	-7	-6	32	-5600	16168	19	0	6	3184	9288	12736	-10	17	-26	-11136	8336	9872	22	-7	25	-1048	3312	16776	2	-20	15	126	138	12
-2864	-11064	12096	21	-15	-17	-11016	-10456	5072	8	-5	-13	-16	-5536	15888	14	3	0	3136	9088	12920	-8	17	-24	-11128	8048	10016	3	-7	16	-1016	3440	16384	9	-9	12	126	139	12
-2892	-10940	12312	11	-18	-18	-11280	-10432	5152	-7	-9	-6	88	-5632	16072	26	2	3	3208	9376	12912	-11	14	-21	-11048	8200	9800	5	-1	18	-1016	3400	16608	3	-17	16	126	138	12
-2872	-10868	12256	19	-12	-22	-11200	-10712	5096	-17	-10	-11	8	-5632	16128	24	3	3	3216	8992	12848	-11	22	-24	-11256	8136	10048	-13	-2	18	-1024	3312	16504	0	-22	21	127	138	12
-2788	-10472	12360	-5	-7	-30	-11016	-10504	5136	5	-6	-7	16	-5560	16016	23	3	4	3240	9016	12856	-5	17	-27	-10904	7888	9720	5	-5	12	-752	3448	16496	15	-19	20	127	138	12
-2908	-11092	12072	1	-14	-30	-10784	-10672	5216	0	-7	-2	248	-5368	15992	28	-3	4	3312	9304	12720	-15	18	-26	-11176	8160	10080	30	-7	15	-816	3208	16568	5	-21	23	127	137	12
-2804	-10872	12096	27	-17	-18	-10976	-10568	5360	-6	-5	-10	152	-5560	16048	17	-4	8	3240	9040	13016	-22	18	-24	-11136	8144	9920	2	0	24	-984	3432	16528	6	-15	16	127	138	12
-2728	-10580	12284	15	-19	-19	-10920	-10416	5064	15	0	-9	128	-5776	15928	26	2	5	3216	9080	13272	-14	16	-28	-11160	7976	9928	19	-1	14	-920	3328	16712	10	-13	13	127	139	12
-2988	-11100	12320	12	-14	-21	-11048	-10856	5136	-3	-3	-5	-56	-5544	16256	28	-4	7	3232	9096	12808	-17	19	-29	-11400	8224	10144	13	-7	21	-1072	3240	16624	-2	-22	19	127	138	12
-2704	-10648	12452	18	-8	-18	-10960	-10520	5336	-1	-1	0	0	-5680	16064	17	-3	6	3048	8776	13080	-9	21	-23	-11096	8016	9848	-10	0	12	-1184	3528	16648	8	-17	12	127	138	12
-2728	-10560	12472	13	-7	-19	-10984	-10464	5280	6	-1	2	48	-5616	15888	26	-2	-3	3120	9248	12744	1	15	-22	-11112	8096	9984	22	-5	9	-984	3288	16368	5	-22	11	127	139	12
-2896	-11096	12068	1	-9	-23	-10816	-10776	5144	-9	-2	-3	136	-5568	15984	19	-1	2	3200	9176	12880	-4	23	-24	-11184	8376	9848	11	-11	23	-1064	3256	16656	-6	-23	12	127	137	12
-2808	-10624	12380	5	-13	-17	-10904	-10480	5128	0	-1	-9	24	-5696	16048	15	5	-1	3224	9128	13080	-8	14	-25	-11000	8072	9832	-3	-2	19	-832	3264	16400	7	-14	13	127	138	12
-2860	-10860	12260	-8	-14	-21	-11120	-10496	5056	9	-5	-6	104	-5552	15776	26	-5	-2	3200	9296	12904	-12	13	-28	-11128	8160	9736	24	-11	20	-928	3296	16544	9	-20	13	127	137	12
-2872	-11012	12196	12	-18	-20	-11088	-10744	5280	-5	-4	-3	32	-5552	16248	24	-5	7	3200	9128	12912	-19	22	-27	-11304	8248	9888	-2	-3	22	-984	3256	16712	5	-20	17	127	137	12
-2812	-10608	12364	3	-11	-23	-11088	-10504	5096	11	-3	-10	128	-5680	15968	25	-2	5	3208	8832	12936	-4	13	-26	-10928	7984	9792	7	4	14	-1136	3344	16560	1	-21	18	127	138	12
-2904	-11072	12180	-6	-15	-28	-10904	-10672	4976	-3	-10	2	80	-5632	16136	37	-2	3	3280	9424	12784	-8	12	-27	-11272	8200	9864	32	-6	15	-888	3224	16568	10	-19	20	127	137	12
-2832	-10984	12184	17	-6	-22	-10984	-10840	5320	-9	-3	-7	-32	-5496	15912	22	-1	7	3216	9080	12968	-20	20	-31	-11136	8272	9752	3	-9	23	-1096	3320	16488	11	-23	18	127	138	12
-2728	-10532	12208	13	-13	-19	-10888	-10472	5072	11	-6	-4	40	-5584	15896	22	2	2	3112	9040	13024	-13	13	-28	-11072	7952	9880	8	-4	17	-936	3368	16448	19	-13	15	127	139	12
-2852	-11112	12068	20	-20	-22	-11088	-10800	5128	-4	-5	2	16	-5512	15976	27	0	-2	3336	9312	12928	-13	18	-22	-11224	8160	9864	15	-11	21	-1024	3280	16536	3	-18	13	126	137	12
-2816	-10836	12260	29	-4	-19	-11048	-10584	5040	-8	-4	-6	-112	-5536	15912	10	2	5	3176	8936	13024	-11	17	-24	-11240	8184	9880	-11	-1	17	-1072	3208	16728	4	-18	15	127	138	12
-2848	-10576	12236	8	-14	-23	-10864	-10168	5088	4	-2	-2	184	-5560	15808	23	5	-1	3176	9216	12896	0	11	-23	-11064	8008	9976	20	-7	13	-928	3312	16456	17	-16	14	126	138	12
-2864	-11100	11980	7	-14	-26	-10840	-10752	5064	-13	-3	-1	168	-5496	16184	27	-2	5	3296	9368	12632	-1	16	-23	-11072	8176	9920	19	-14	18	-928	3176	16696	4	-20	13	126	137	12
-2764	-10612	12276	18	-11	-21	-10976	-10416	5072	-2	-6	-11	56	-5424	16272	23	0	6	3360	9232	12848	-6	17	-23	-11024	7984	9744	1	-8	22	-816	3464	16544	8	-14	15	126	138	12
-2748	-10788	12276	-1	-18	-23	-11024	-10360	5240	8	-6	-4	120	-5520	15792	32	0	-1	3320	9288	13040	-11	15	-24	-11192	8056	9784	20	-8	16	-912	3248	16632	11	-21	14	126	138	12
-2812	-11096	12148	18	-13	-23	-11016	-10696	4904	-5	-2	-7	80	-5360	15960	25	0	6	3248	9048	12872	-14	20	-26	-11160	8224	9960	3	-8	22	-1080	3272	16488	-2	-24	17	126	138	12
-2744	-10560	12332	15	-9	-21	-11016	-10536	5056	9	2	-16	48	-5608	15760	23	-5	7	3256	9128	12968	-16	24	-28	-11080	8208	9888	-3	1	16	-1000	3368	16320	9	-14	17	125	138	12
-2852	-10912	12260	-5	-12	-28	-10992	-10440	5128	0	-3	4	112	-5624	16160	31	-7	7	3232	9232	12960	-10	17	-29	-11096	8080	9928	26	-2	9	-928	3264	16776	3	-21	18	125	139	12
-2792	-10956	12220	15	-10	-24	-11032	-10880	5152	-20	-10	-7	32	-5696	16200	19	0	8	3248	9128	13024	-12	23	-26	-11184	8328	9968	-2	-10	21	-1016	3280	16536	4	-21	24	125	137	12
-2728	-10588	12384	15	-14	-19	-10944	-10488	5152	10	-4	-2	144	-5752	15960	23	2	1	3056	8912	13032	-9	14	-28	-11048	8112	9928	-2	-1	14	-928	3264	16464	8	-15	17	126	138	12
-2944	-11052	12196	10	-16	-23	-10824	-10568	5280	15	-4	-8	176	-5464	16256	26	1	4	3152	9384	13200	-13	16	-25	-11328	8176	9904	18	-8	17	-1104	3280	16400	3	-22	18	126	138	12
-2848	-10820	12248	22	-16	-14	-11136	-10696	5016	-2	-2	-1	8	-5616	16008	20	1	6	3048	9016	12960	-10	21	-22	-11152	8120	9760	0	-8	22	-960	3320	16680	4	-20	16	125	138	12
-2796	-10472	12368	5	-14	-23	-10952	-10384	5248	8	-8	-1	56	-5616	15656	24	2	5	3144	9128	12864	-1	10	-21	-10824	8032	9872	20	-6	18	-936	3360	16464	14	-15	17	126	139	12
-2952	-11128	12100	5	-12	-22	-10856	-10560	5184	-2	-5	-1	24	-5456	16008	32	-4	4	3208	9464	12888	-6	11	-26	-11160	8304	10024	20	-17	21	-904	3320	16584	4	-21	16	126	138	12
-2784	-10760	12268	18	-13	-21	-11096	-10480	5016	1	-4	-4	32	-5512	16184	17	-3	6	3104	9016	12856	-10	17	-22	-11040	8040	9752	-7	-2	21	-1184	3416	16544	8	-16	18	127	138	12
-2856	-10636	12280	-1	-17	-23	-11096	-10304	4904	11	-10	-5	-56	-5576	15984	26	0	2	3392	9144	13064	-16	15	-23	-10992	8112	9800	20	-7	14	-944	3336	16568	9	-18	17	127	138	12
-2892	-11148	12100	12	-18	-23	-10960	-10752	5120	-8	-3	-5	24	-5512	16048	24	-3	5	3184	9168	12968	-13	23	-28	-11152	8336	10120	8	-6	18	-928	3328	16488	-2	-24	16	126	137	12
-2784	-10624	12208	12	-5	-20	-11048	-10616	4968	4	-5	-11	32	-5624	16368	19	-1	3	3304	9216	13032	-10	16	-29	-10976	8096	9840	-2	3	15	-984	3288	16680	9	-13	19	127	139	12
-2860	-10796	12292	-4	-13	-25	-11080	-10336	5040	2	-3	-2	232	-5760	15992	29	1	1	3344	9304	12808	-13	17	-21	-11072	8032	9824	19	-3	11	-840	3120	16656	7	-20	18	127	138	12
-2904	-11100	12104	16	-10	-25	-10992	-10840	4896	-24	-9	-9	0	-5472	16040	19	-2	8	3336	9296	13192	-18	19	-25	-11280	8192	9928	6	-4	18	-1088	3168	16616	8	-17	18	126	138	12
-2760	-10688	12368	14	-17	-21	-11136	-10640	5136	0	-6	-9	136	-5592	15776	24	-2	6	3240	8792	12904	-12	16	-26	-11184	7936	9760	0	-8	18	-920	3368	16496	13	-14	15	126	140	12
-2964	-11124	12144	1	-15	-21	-10920	-10680	5040	3	-5	-3	112	-5496	15984	29	0	3	3120	9480	12864	-9	13	-22	-11192	7920	9904	25	-6	18	-832	3112	16760	6	-19	18	125	139	12
-2760	-10932	12156	22	-17	-17	-10904	-10728	5024	-10	-7	-4	-24	-5560	15952	19	-2	6	3144	9096	12848	-9	20	-27	-11144	8224	9824	0	-2	19	-888	3320	16488	6	-17	17	126	138	12
-2696	-10916	12156	18	-6	-20	-11072	-10400	5192	13	-1	1	72	-5568	16024	23	2	0	3296	8936	12736	0	8	-20	-11072	7960	10048	8	-8	14	-840	3280	16392	15	-14	16	127	138	12
-2880	-11084	12084	6	-12	-26	-10920	-10648	5056	-3	-2	-1	120	-5584	15888	29	0	7	3336	9216	12752	-3	12	-23	-11152	8080	9840	25	-7	18	-1000	3344	16440	1	-20	12	127	138	12
-2732	-10940	12092	23	-9	-11	-10816	-10744	5176	-6	-9	-5	-48	-5512	15736	22	-3	5	3224	9056	12824	-14	17	-23	-11240	8128	9968	8	-6	19	-1120	3296	16528	3	-18	15	127	138	12
-2784	-10636	12320	4	-19	-20	-10816	-10440	5064	10	-5	-2	288	-5616	16016	25	-4	2	3280	9056	12872	-5	9	-22	-11040	8008	9920	18	-11	18	-824	3304	16688	8	-20	14	127	139	12
-2960	-11204	12236	13	-18	-19	-10960	-10680	5184	-10	-6	-6	24	-5616	16048	25	-4	10	3240	9128	13088	-8	15	-24	-11168	8232	9896	12	-8	19	-1064	3336	16576	-2	-22	16	127	138	12
-2824	-10664	12284	16	-9	-17	-11096	-10504	4976	-4	-3	-12	16	-5632	15848	23	2	6	3216	8968	13096	-11	18	-26	-11112	8072	9872	-9	-1	18	-1016	3336	16432	5	-16	18	126	138	12
-2820	-10684	12252	-6	-15	-26	-10896	-10424	4912	8	-5	3	48	-5704	15896	30	-2	3	3184	8912	12888	-5	14	-25	-11104	8000	9840	22	-4	9	-968	3264	16736	15	-18	23	127	138	12
-2844	-11112	12120	12	-21	-19	-10808	-10656	4952	-1	-7	0	0	-5520	15840	26	-7	4	3112	9264	12880	-14	20	-26	-11096	8424	9840	9	-11	16	-960	3240	16512	7	-23	18	127	137	12
-2816	-10740	12296	19	-11	-21	-10992	-10608	5216	6	-4	-6	8	-5576	16216	15	-1	5	3144	9000	12976	-10	14	-24	-11032	8152	9848	4	0	19	-792	3120	16464	15	-12	19	127	138	12
-2908	-10828	12296	10	-14	-23	-11280	-10568	5096	6	-8	1	56	-5632	15872	28	-1	3	3272	9424	13152	-10	10	-27	-11176	8000	9880	37	-2	20	-928	3320	16632	12	-14	16	127	138	12
-2900	-10904	12140	23	-17	-17	-11080	-10632	5296	-20	-6	-6	56	-5440	16088	23	1	8	3184	9088	13048	-11	17	-22	-11256	8136	10016	10	-5	21	-1176	3264	16632	2	-19	16	126	138	12
-2764	-10468	12428	10	-16	-21	-11064	-10432	5192	-2	-9	-3	-48	-5616	15928	20	-2	4	3128	9048	13184	-2	18	-26	-11048	8016	10064	4	-6	12	-1024	3264	16576	13	-19	15	126	138	12
-2884	-11084	12156	-6	-16	-28	-10896	-10520	5128	-5	-1	2	216	-5544	16184	29	-1	4	3240	9208	12984	-2	20	-21	-11232	8352	10160	23	-11	12	-1088	3328	16616	3	-21	13	126	137	12
-2700	-10852	12192	10	-13	-20	-10896	-10728	4872	-4	0	-9	24	-5584	15992	18	-2	5	3200	9104	13008	-11	22	-24	-11128	8312	9832	-3	-7	22	-944	3352	16528	2	-22	12	126	138	12
-2776	-10668	12380	-5	-20	-22	-10880	-10472	5064	17	0	-7	232	-5600	15816	25	-2	-1	3192	9240	13152	-1	18	-23	-11128	8152	10144	9	-6	12	-832	3328	16536	9	-14	11	127	139	12
-2912	-11100	12296	2	-18	-20	-10928	-10736	5264	-2	-6	-5	32	-5568	16088	28	0	5	3224	9056	12904	-8	20	-24	-11240	8296	10168	9	-4	17	-832	3240	16784	5	-20	21	126	138	12
-2784	-10704	12352	16	-12	-19	-11024	-10696	5224	-1	-5	-3	32	-5656	16032	24	-1	8	3208	8896	13024	-6	14	-24	-11168	8096	9864	-11	-2	13	-952	3248	16360	8	-12	17	126	138	12
-2812	-10596	12328	-1	-11	-30	-10888	-10368	4944	4	-6	7	80	-5528	16048	32	-2	1	3160	9160	13144	-6	10	-20	-11112	7992	10112	24	-7	14	-752	3272	16488	13	-18	26	127	138	12
-2948	-11200	12112	12	-19	-20	-10872	-10688	4832	-13	-4	4	-24	-5536	15816	27	6	7	3400	9320	12800	-8	12	-25	-11224	8272	9968	14	-5	16	-864	3384	16592	5	-18	19	126	137	12
-2660	-10708	12304	21	-18	-14	-10888	-10440	5104	-2	-4	0	144	-5488	15816	15	1	4	3312	8960	13016	-10	19	-26	-11096	8112	9936	-1	-1	22	-1184	3440	16576	15	-12	15	126	139	12
-2880	-10768	12216	13	-14	-21	-11024	-10336	5272	8	-5	2	-8	-5440	16144	27	5	0	3280	9248	13152	-14	13	-27	-11000	8136	9776	29	-7	21	-864	3376	16688	7	-14	10	126	138	12
-2848	-10992	12268	25	-22	-13	-11144	-10736	5296	-2	0	-5	-8	-5464	16040	17	5	7	3176	9232	12904	-17	18	-27	-11272	8336	9720	6	-5	21	-992	3440	16576	1	-21	16	126	138	12
-2784	-10488	12368	20	-11	-20	-11088	-10416	5400	9	-2	-4	0	-5520	16096	17	1	4	3112	8976	12888	-6	16	-23	-11112	8104	9896	-9	-2	12	-1040	3360	16648	5	-13	17	127	139	12
-2860	-10912	12212	3	-18	-21	-11176	-10408	5120	9	-2	-5	16	-5568	16152	25	-7	2	3160	9400	12888	-2	16	-21	-11128	8176	9784	13	-2	7	-904	3240	16656	-3	-15	19	126	139	12
-2876	-10964	12032	21	-16	-18	-10984	-10616	5216	-14	-5	-11	8	-5488	16032	21	-2	9	3280	9152	12984	-13	21	-27	-11088	8216	9752	-3	-3	21	-960	3368	16320	4	-19	16	127	138	12
-2804	-10544	12388	4	-8	-27	-11000	-10416	5176	2	-10	-11	232	-5520	15960	24	2	7	3376	9056	12920	-16	12	-30	-10864	8024	9984	4	2	17	-904	3192	16584	15	-16	18	126	139	12
-2864	-11112	12156	2	-11	-26	-11088	-10568	5040	-2	-3	-3	40	-5624	15872	30	3	8	3408	9424	12984	-19	21	-29	-11184	8136	9848	20	-9	20	-984	3272	16600	4	-22	16	125	138	12
-2812	-10804	12164	21	-9	-22	-10888	-10744	5064	-4	-7	-12	-120	-5608	15984	23	3	6	3168	8936	13008	-19	23	-30	-11304	8136	9872	3	-2	18	-1160	3344	16672	10	-16	16	125	138	12
-2760	-10568	12352	-1	-6	-30	-10992	-10352	5016	18	-3	-3	128	-5824	15928	28	2	3	3160	9176	13056	-8	13	-29	-11200	7992	9864	13	-3	13	-800	3176	16544	13	-15	18	126	139	12
-2920	-11220	12152	2	-10	-25	-10952	-10632	5384	-6	-3	1	104	-5488	16064	20	-3	6	3120	9304	12904	-16	23	-23	-11320	8312	9848	12	-4	17	-976	3152	16536	3	-20	20	126	138	12
-2696	-10788	12344	24	-11	-17	-10864	-10520	5328	-2	-8	-10	24	-5688	16448	23	-3	6	3112	9048	12968	-15	21	-32	-11112	8112	9920	-18	4	14	-968	3272	16536	9	-14	15	126	139	12
-2820	-10716	12276	6	-16	-16	-10896	-10392	5136	8	-5	-5	48	-5568	15992	21	-1	-1	3168	9248	13024	-9	18	-22	-11240	7960	9824	8	-5	15	-968	3208	16792	8	-18	17	127	138	12
-2884	-11096	12172	18	-19	-16	-10952	-10760	5168	-11	-2	1	-48	-5624	16160	25	-6	5	3056	9144	13120	-9	19	-24	-11272	8088	9832	4	2	16	-1056	3064	16600	-3	-19	15	126	137	12
-2832	-10568	12304	21	-13	-17	-11080	-10632	4968	3	-3	-3	48	-5768	15872	17	0	1	3144	8960	12824	-1	16	-21	-11056	8136	9592	4	-8	14	-1040	3296	16568	14	-12	13	127	138	12
-2908	-10912	12168	5	-16	-21	-10864	-10240	5136	10	-3	-1	8	-5512	15792	33	3	4	3296	9352	12872	-4	14	-26	-11080	8032	9760	28	-12	18	-952	3256	16552	11	-14	17	127	138	12
-2856	-10948	12176	21	-18	-18	-10952	-10624	4968	-4	-5	-4	-56	-5520	15992	27	1	8	3144	9152	13240	-13	21	-28	-11272	8272	9760	3	-8	28	-1144	3376	16456	8	-17	16	127	138	12
-2772	-10496	12372	15	-10	-21	-11128	-10224	5136	8	-10	-2	-240	-5448	16008	21	4	6	3144	9176	12960	-8	13	-19	-11184	8112	9936	6	-5	18	-1144	3320	16384	11	-18	15	127	139	12
-2936	-11144	12344	2	-17	-24	-11024	-10488	5104	1	-8	1	-104	-5296	15912	34	-2	0	3136	9224	12960	-9	13	-23	-11168	8176	9928	26	-8	21	-952	3384	16600	1	-19	16	127	138	12
-2792	-10808	12160	19	-8	-20	-11104	-10632	5048	-6	-10	-9	48	-5360	16032	18	-1	4	3024	9112	12960	-8	13	-25	-11120	8056	9848	0	-9	15	-1040	3368	16616	0	-21	17	127	138	12
-2724	-10564	12236	1	-15	-26	-10912	-10456	5152	8	0	-7	32	-5600	16096	23	5	1	3256	9248	13192	-9	9	-22	-10880	7992	10080	16	-7	10	-840	3480	16552	11	-18	15	127	139	12
-2844	-11148	12096	10	-12	-24	-10952	-10600	5240	-18	-8	-10	-32	-5544	16104	21	1	5	3408	9248	13048	-11	13	-25	-11232	8232	10112	20	-12	17	-1088	3344	16784	0	-19	16	126	139	12
-2768	-10764	12368	19	-17	-20	-11048	-10640	5320	-4	-4	-8	80	-5520	16120	18	1	5	3304	8896	13048	-20	23	-26	-11144	8032	9960	-11	1	16	-1064	3288	16272	8	-21	18	126	139	12
-2816	-10724	12344	-1	-10	-24	-11080	-10480	5048	8	-5	1	136	-5592	16096	26	-4	-1	3320	9152	12904	-9	21	-28	-11096	8008	9736	6	-1	11	-968	3352	16448	5	-22	23	126	139	12
-2932	-11204	12140	7	-13	-26	-11024	-10672	5360	-1	-2	-1	-48	-5504	16216	17	-8	1	3200	9056	12824	-17	24	-31	-11128	8176	9768	0	-8	19	-880	3312	16712	0	-25	17	126	138	12
-2712	-10668	12320	13	-11	-23	-10992	-10384	5296	12	-2	-4	176	-5640	15848	14	4	0	3160	8864	12872	-11	17	-28	-11024	7944	9800	1	-3	14	-1024	3080	16536	4	-20	14	126	139	12
-2836	-10840	12284	1	-12	-22	-11040	-10456	4912	0	-2	-5	-48	-5680	15992	26	3	3	3152	9312	13024	-13	14	-29	-11128	8016	10016	31	-2	13	-840	3048	16536	6	-21	14	127	138	12
-2856	-11000	12084	14	-14	-17	-10800	-10472	5056	1	-2	-4	-24	-5608	16248	22	1	8	3176	9152	13088	-19	19	-31	-11176	8240	9704	8	-6	23	-1088	3296	16504	5	-22	18	126	138	12
-2716	-10640	12292	11	-12	-20	-11008	-10560	5032	-1	-8	-5	-56	-5736	16184	26	-1	6	3008	8952	13088	-9	11	-24	-11176	8016	9768	4	-2	16	-1016	3160	16312	16	-18	20	127	139	12
-2832	-11108	12220	5	-15	-25	-10840	-10568	5088	-2	-5	-6	32	-5600	16048	30	-9	0	3120	9160	12952	-10	17	-23	-11224	7984	9984	14	-8	18	-960	3208	16584	9	-22	20	127	137	12
-2732	-10876	12148	17	-6	-13	-10824	-10632	5384	-6	-6	-2	-72	-5544	15984	21	-3	6	3168	9000	13016	-6	18	-27	-11256	7920	9640	-9	-6	22	-888	3152	16560	3	-15	16	126	137	12
-2776	-10452	12348	10	-14	-21	-10856	-10240	4984	13	-8	0	232	-5600	15832	24	2	0	3152	8976	12848	5	7	-21	-10968	7960	9984	22	-15	15	-880	3136	16544	14	-12	14	127	139	12
-2948	-11140	12124	12	-22	-23	-10960	-10688	5000	-7	-2	5	32	-5504	16248	32	0	6	3208	9320	12856	-7	10	-22	-11136	8232	9920	36	-14	23	-928	3144	16672	7	-20	14	126	138	12
-2768	-10832	12208	31	-14	-13	-11032	-10584	4848	-9	-8	-9	120	-5504	16104	19	0	4	3256	9088	13008	-15	16	-28	-11192	8208	9864	1	1	22	-952	3512	16704	10	-12	11	126	138	12
-2820	-10608	12368	13	-18	-19	-11000	-10312	5192	14	-4	-1	80	-5592	15848	29	0	1	3360	9160	12944	-3	10	-27	-11144	7968	9976	11	-5	18	-1024	3392	16728	13	-15	16	127	138	12
-2892	-11144	12156	17	-15	-24	-10960	-10744	5152	-9	-8	-2	-48	-5512	16048	24	2	-2	3320	9248	12848	-13	20	-23	-11296	8392	10240	12	-10	22	-960	3368	16808	0	-21	18	127	138	12
-2748	-10572	12404	22	-11	-17	-10920	-10608	5456	-6	-9	-3	-48	-5424	15736	22	-5	4	3176	9008	13184	0	17	-27	-11072	8048	9616	-2	-2	16	-1032	3392	16496	10	-14	17	127	138	12
-2880	-10732	12268	-2	-10	-24	-11040	-10528	5216	1	-6	-5	168	-5512	16048	24	2	0	3288	9272	12952	-4	9	-26	-11048	8048	9984	26	-13	18	-808	3296	16624	12	-18	16	126	138	12
-2856	-10996	12140	16	-12	-18	-10960	-10656	5136	-2	-3	1	-48	-5424	15976	18	-4	4	3232	9192	12912	-16	23	-29	-11152	8360	9824	7	-8	19	-1152	3200	16624	3	-21	14	126	137	12
-2772	-10644	12388	16	-12	-20	-11136	-10488	4896	9	-4	-3	104	-5600	16336	14	-1	4	3280	9008	13008	-12	21	-25	-11088	8144	9832	-1	3	16	-968	3560	16720	7	-24	17	126	137	12
-2916	-10928	12336	-9	-16	-25	-10952	-10464	5112	3	-7	4	-24	-5440	16096	27	-5	5	3352	9216	12880	-11	18	-27	-11136	8176	9944	5	-4	15	-1104	3272	16680	1	-21	13	126	137	12
-2864	-10840	12320	7	-13	-17	-11208	-10600	5088	-7	-4	-5	96	-5536	16088	23	-1	4	3240	9152	13064	-8	21	-24	-11312	8160	9920	-9	-4	21	-992	3336	16504	1	-17	17	126	138	12
-2808	-10416	12308	-9	-12	-25	-11072	-10328	5168	6	-3	-5	56	-5568	16120	27	-6	6	3120	9016	13024	1	13	-22	-10984	7920	9776	3	-7	9	-992	3320	16440	10	-11	18	126	138	12
-2860	-11036	12192	-9	-16	-25	-10952	-10440	5408	-5	-3	0	168	-5472	16256	30	1	4	3360	9112	12960	-3	12	-21	-11160	8232	10136	25	-9	15	-872	3128	16416	7	-19	16	126	138	12
-2764	-10896	12124	19	-13	-22	-10920	-10592	5056	-15	-6	-12	-152	-5424	15976	19	1	4	3248	9048	13040	-17	17	-23	-11168	8216	9896	7	-12	18	-1024	3336	16424	8	-15	16	126	138	12
-2700	-10548	12320	6	-14	-25	-10840	-10360	5016	9	-8	-9	144	-5680	15672	25	-1	0	3232	9136	13120	-9	11	-25	-11072	7944	10000	17	-9	19	-976	3464	16632	10	-18	11	126	139	12
-2952	-11140	12104	7	-15	-23	-10816	-10616	5320	-9	-3	-3	120	-5368	15976	26	1	5	3184	9160	13136	-22	13	-30	-11080	8288	10176	8	-3	18	-888	3352	16624	-2	-17	16	126	138	12
-2764	-10716	12316	26	-14	-18	-11000	-10616	5056	-4	-5	-7	0	-5624	16016	15	2	2	3192	9048	13104	-14	19	-22	-11152	8008	9520	-11	-5	13	-896	3280	16328	8	-16	15	127	138	12
-2860	-10624	12324	4	-11	-19	-10904	-10368	5104	2	-5	-2	56	-5640	16160	21	1	-1	3160	9256	12904	-10	15	-25	-11104	7984	10048	-10	-1	15	-880	3320	16880	6	-20	16	126	139	12
-2956	-11056	12068	16	-8	-22	-10904	-10760	5248	-10	-4	-1	104	-5464	16224	17	0	0	3208	9008	12760	-12	22	-26	-11112	8200	9896	5	-1	18	-1000	3232	16456	-4	-21	18	126	138	12
-2740	-10664	12200	16	-14	-21	-10808	-10344	5000	1	0	-7	16	-5544	15952	10	1	-1	3208	9208	12952	-19	21	-29	-11072	7928	9640	-6	3	11	-992	3272	16504	6	-14	15	126	138	12
-2812	-10916	12232	3	-18	-22	-10912	-10488	5272	-2	-3	-4	96	-5632	16128	29	1	4	3200	9264	12800	-19	17	-29	-11280	8040	9984	19	-1	16	-888	3200	16560	7	-19	17	126	137	12
-2860	-11036	12216	20	-12	-16	-10960	-10736	5136	-11	-4	-8	-128	-5560	15928	23	-1	12	3152	9088	12984	-23	27	-30	-11352	8128	9856	-8	-2	20	-1080	3344	16792	4	-17	17	125	138	12
-2772	-10480	12392	10	-15	-19	-11032	-10592	4968	11	-6	-8	176	-5752	15832	25	-4	6	2920	8888	13120	-3	19	-27	-11280	7712	9904	2	-6	12	-1016	3160	16600	9	-19	17	126	138	12
-2916	-11128	12132	5	-9	-27	-10848	-10624	5064	7	-4	4	40	-5584	16168	36	-10	1	3192	9368	12968	-6	14	-23	-11184	8168	10128	28	-12	17	-896	3040	16600	2	-21	19	126	138	12
-2824	-10944	12024	20	-10	-19	-11032	-10728	5120	-3	-7	-6	-32	-5568	15888	21	-4	7	3184	8992	12944	-6	18	-25	-11112	7944	9928	0	-9	22	-1000	3296	16456	9	-18	15	126	138	12
-2772	-10588	12296	12	-12	-23	-10976	-10480	4872	7	-6	-8	56	-5688	15752	24	4	1	3168	9104	13104	-5	12	-25	-11168	7912	9792	12	-5	17	-1040	3152	16624	10	-10	13	127	139	12
-3020	-11228	12136	15	-14	-24	-10888	-10624	5112	-7	-3	-2	-160	-5560	16072	28	0	8	2968	9208	12888	-9	16	-24	-11256	8248	9936	18	-7	22	-1072	3280	16512	-1	-17	13	126	137	12
-2764	-10716	12312	25	-13	-18	-11256	-10504	4936	-9	-2	-9	-16	-5616	15888	20	-6	8	3096	8776	12968	-6	20	-27	-11368	7984	9832	-6	-3	24	-1080	3216	16328	7	-15	19	127	138	12
-2832	-10580	12276	1	-10	-20	-10792	-10336	5200	9	-6	2	160	-5656	15928	32	-4	2	3224	9176	12928	-2	14	-24	-11160	7840	9648	18	-2	13	-944	3224	16616	18	-19	19	127	138	12
-2864	-11096	12100	14	-17	-19	-10960	-10768	5064	-6	-5	-2	-56	-5376	16216	31	-2	6	3176	9232	12944	-4	19	-27	-11184	8088	9624	6	-4	22	-800	3264	16680	4	-22	18	126	137	12
-2744	-10644	12232	20	-15	-21	-11040	-10456	4888	2	0	-7	-8	-5624	16016	22	2	4	3208	9112	12912	-6	14	-21	-11048	8000	9752	8	-2	20	-1096	3168	16432	14	-11	20	126	138	12
-2804	-10792	12332	10	-18	-24	-10864	-10376	5104	2	-8	-2	48	-5584	16016	23	7	6	3360	9384	13008	-9	11	-21	-11048	7896	9640	12	-5	19	-864	3248	16384	14	-14	18	127	138	12
-2832	-11000	12148	23	-23	-18	-11016	-10808	5344	-9	-10	-6	-184	-5408	16160	23	-2	9	3104	9176	12728	-17	15	-29	-11336	8344	10056	9	-9	25	-1160	3480	16776	8	-19	15	126	137	12
-2800	-10452	12456	15	-14	-25	-10992	-10472	5192	6	-5	-5	144	-5472	16088	22	-1	1	3224	8960	13064	-8	13	-26	-11000	8072	9928	1	-4	14	-888	3408	16424	12	-20	17	126	139	12
-2860	-10984	12160	-1	-13	-27	-11008	-10544	5384	4	-7	8	144	-5432	16008	34	3	-3	3408	9448	13008	-7	15	-29	-11232	8200	9944	20	-6	16	-904	3288	16712	1	-27	19	126	138	12
-2776	-11028	12112	22	-15	-16	-11040	-10640	5144	-8	-4	-1	72	-5520	15936	17	2	5	3240	9224	12952	-16	22	-27	-11232	8264	9904	-6	-3	21	-1048	3368	16856	-4	-25	18	125	138	12
-2788	-10512	12300	10	-10	-19	-10920	-10424	5136	12	3	-9	-24	-5592	16104	15	5	2	3216	9168	13064	-12	21	-31	-11184	8072	9992	-5	2	19	-864	3328	16608	4	-18	13	126	139	12
-2932	-11124	12176	8	-13	-21	-11072	-10568	5112	-1	0	-5	-72	-5560	16040	20	0	5	3112	9384	13032	-14	22	-28	-11168	8296	9904	17	-1	15	-1136	3336	16560	-6	-17	18	126	138	12
-2764	-10696	12264	15	-6	-20	-11104	-10560	5056	-9	-5	-3	24	-5592	16016	16	-4	7	3128	8904	13040	-5	21	-30	-11096	8160	9840	-11	5	12	-1016	3344	16448	5	-13	24	127	138	12
-2788	-10460	12328	-3	-12	-25	-10984	-10160	5000	2	-3	0	8	-5632	15904	26	0	0	3224	9240	12984	-4	16	-26	-10904	7952	9720	3	-7	6	-920	3304	16424	17	-17	20	127	139	12
-2908	-11132	11988	5	-13	-26	-10872	-10640	4968	-16	-8	0	96	-5488	16120	30	0	8	3224	9120	12824	-10	12	-27	-11104	8144	9608	11	-9	14	-944	3064	16456	8	-22	20	126	138	12
-2768	-10780	12160	22	-11	-17	-10920	-10592	5104	-2	-4	-16	48	-5600	15752	19	2	8	3160	9008	12792	-16	18	-24	-11088	8040	9512	9	-6	27	-1056	3208	16176	11	-19	17	126	137	12
-2812	-10760	12196	12	-20	-26	-10920	-10344	5256	6	-3	-6	104	-5640	15984	31	7	2	3216	9224	13080	-15	8	-24	-11136	7872	9952	41	-10	21	-904	3256	16704	12	-15	14	126	138	12
-2816	-11200	12264	22	-14	-23	-11008	-10896	5208	-6	-5	-6	0	-5576	16264	23	3	8	3216	9080	13080	-15	16	-29	-11328	8176	9992	19	-11	24	-1048	3400	17008	3	-20	11	126	137	12
-2808	-10588	12436	18	-15	-22	-11136	-10560	5248	10	-3	-7	24	-5680	16256	19	-4	3	3144	8880	12888	8	12	-20	-10984	8144	9952	4	-9	19	-944	3424	16432	9	-16	9	126	138	12
-2832	-10852	12216	-7	-10	-25	-10824	-10416	5048	11	-10	7	56	-5552	16040	36	0	-4	3336	9360	12896	3	4	-18	-11184	8088	9992	20	-7	12	-768	3304	16568	3	-22	14	127	138	12
-2812	-11076	12100	17	-11	-26	-10792	-10544	5056	-17	-7	-2	160	-5432	16096	19	-1	8	3304	9216	12888	-7	24	-23	-11112	8208	9832	21	-11	14	-1024	3240	16600	0	-18	19	126	138	12
-2652	-10568	12304	15	-17	-11	-11008	-10384	5152	-3	-4	-8	136	-5784	15960	19	-4	4	3256	9224	12800	-10	21	-26	-10880	7944	9808	-10	-2	17	-976	3416	16672	7	-18	22	126	139	12
-2936	-10984	12188	11	-15	-21	-10992	-10648	5040	-10	-2	-3	120	-5504	16216	34	2	7	3312	9344	12840	-19	18	-26	-11160	8192	9920	14	-3	17	-992	3272	16592	5	-18	26	126	138	12
-2836	-10780	12152	21	-14	-16	-11232	-10664	4936	-5	-4	-6	-16	-5664	16024	27	2	11	3208	8960	12992	-23	23	-29	-11160	8144	9984	13	-4	19	-1192	3288	16432	12	-16	23	127	138	12
-2760	-10404	12380	-4	-8	-22	-11072	-10232	4736	14	-2	-3	120	-5592	15816	31	0	5	3128	9080	13120	-8	10	-22	-11104	7832	9544	20	-1	11	-904	3408	16200	18	-14	23	127	138	12
-2860	-11096	12060	-3	-19	-25	-10800	-10536	4976	-1	-6	8	32	-5448	16096	30	-6	4	3312	9264	12856	-11	17	-22	-11088	8216	9952	35	-11	16	-944	3176	16616	10	-17	21	127	137	12
-2728	-10832	12036	22	-10	-18	-10976	-10568	4984	-6	-4	-3	104	-5440	15808	22	0	7	3256	8992	13048	-16	17	-22	-10952	8104	9976	10	-7	17	-936	3360	16616	10	-14	14	127	138	12
-2772	-10688	12220	13	-16	-19	-10880	-10608	5144	4	-4	-13	208	-5576	16080	21	3	1	3256	9088	12840	-13	8	-27	-10976	8024	10016	22	-3	17	-976	3368	16848	9	-16	12	127	138	12
-2852	-11092	12240	23	-17	-15	-11080	-10752	5144	-8	-6	-8	-32	-5400	16240	17	3	5	3184	9072	13096	-16	20	-29	-11280	8344	9752	-9	-7	24	-1032	3360	16664	-5	-23	11	127	138	12
-2812	-10540	12400	16	-11	-16	-11184	-10520	5408	1	2	-10	168	-5600	16024	14	1	-1	3240	8840	12880	4	21	-18	-11120	7960	9736	-17	-2	15	-920	3304	16448	-3	-14	9	127	139	12
-2944	-10704	12264	-15	-13	-23	-11064	-10392	5024	-4	-7	0	-48	-5512	16064	29	-4	1	3120	9296	12888	1	18	-20	-11056	7968	9808	19	-4	11	-848	3280	16384	4	-19	11	126	138	12
-2840	-11116	12012	-4	-18	-22	-10848	-10784	5024	-17	-5	2	144	-5520	16032	23	-3	7	3312	9272	12776	-9	22	-25	-11160	8280	9720	14	-9	15	-920	3200	16464	4	-18	17	126	137	12
-2664	-10680	12420	-3	-15	-20	-11016	-10552	5208	8	-6	-14	176	-5584	15888	23	2	7	3256	9152	13136	-13	15	-28	-11136	8072	9824	8	0	18	-1008	3368	16472	15	-14	19	126	138	12
-2960	-11064	12212	-3	-17	-21	-10952	-10520	5064	18	3	-3	176	-5528	16184	29	0	6	3304	9240	12896	-18	18	-27	-11176	8304	9792	22	-4	17	-1120	3336	16792	0	-22	21	126	137	12
-2880	-10888	12212	23	-18	-14	-11152	-10792	4912	9	1	-6	-56	-5584	15992	26	-2	10	3320	9056	12912	-17	16	-25	-11176	8272	10032	-11	0	19	-984	3232	16624	0	-21	22	125	137	12
-2788	-10412	12296	4	-9	-24	-11040	-10360	5024	14	-3	-2	152	-5752	15896	24	-2	5	3160	9064	13016	1	12	-17	-11016	7984	10016	10	-4	12	-888	3312	16448	10	-16	24	127	138	12
-2940	-11076	12096	-1	-17	-26	-10856	-10512	5088	-15	-9	6	-56	-5552	16168	33	-3	2	3256	9224	12800	-2	12	-20	-11080	8216	9544	22	-6	19	-968	3272	16536	10	-18	28	126	137	12
-2760	-10860	12208	26	-12	-21	-10896	-10744	5200	-21	-6	-4	-56	-5544	15928	19	1	5	3288	9088	12752	-12	16	-21	-10888	8048	9600	-1	-7	26	-1040	3112	16312	9	-12	15	127	138	12
-2832	-10684	12228	17	-14	-24	-10888	-10488	5264	5	-7	-1	40	-5504	15984	26	2	-3	3216	9096	12880	-15	11	-25	-11072	8056	9856	22	-12	20	-1056	3288	16376	18	-15	13	127	138	12
-2964	-11108	12228	25	-15	-19	-11080	-10784	5304	-6	-4	-7	32	-5408	16240	25	3	5	3144	9264	12776	-21	16	-25	-11352	8208	9992	16	-6	30	-984	3248	16712	1	-17	13	126	138	12
-2856	-10616	12328	28	-20	-17	-11144	-10528	5096	15	-3	-9	24	-5568	16072	18	-4	5	3152	8904	12912	-10	18	-26	-11296	8144	9848	1	-4	19	-1176	3384	16592	3	-20	13	126	138	12
-2872	-10624	12316	3	-14	-22	-10984	-10432	5288	20	-1	1	96	-5520	15904	32	0	1	3200	9256	13008	4	9	-18	-11232	8176	9792	30	-5	13	-1056	3488	16504	5	-15	18	126	138	12
-2924	-11168	12048	7	-14	-22	-10904	-10648	5184	-6	-7	-2	56	-5304	16256	26	-4	5	3280	9352	12648	-10	20	-23	-11104	8448	9840	12	-10	16	-960	3360	16784	-3	-21	16	126	137	12
-2724	-10636	12376	14	-13	-24	-11000	-10464	5072	3	-4	-9	-80	-5536	16024	15	3	5	3120	9056	12928	-6	19	-25	-10808	8104	10080	-6	-5	16	-896	3320	16080	12	-10	15	126	139	12
-2852	-10980	12216	-3	-12	-25	-10952	-10368	5024	-5	-3	-3	168	-5464	16040	26	-1	6	3336	9440	13032	-14	17	-27	-11168	8192	9856	8	-2	17	-984	3256	16424	8	-17	20	127	138	12
-2808	-11000	12152	23	-11	-19	-11064	-10616	5064	-16	-4	-8	0	-5568	16184	19	1	7	3128	9240	12928	-24	28	-32	-11176	8088	9672	-17	3	15	-864	3408	16368	1	-20	20	126	138	12
-2772	-10432	12260	12	-15	-19	-10856	-10432	5056	8	-5	-4	40	-5720	15920	16	6	4	3320	9080	12840	-14	16	-31	-10920	7832	9856	-4	4	14	-984	3320	16568	6	-17	21	127	139	12
-2912	-11084	12088	4	-22	-22	-10768	-10616	4992	-2	-4	2	24	-5632	15936	23	3	0	3160	9312	13048	-16	19	-29	-11216	8096	9776	25	-7	14	-1104	3248	16360	3	-21	18	126	138	12
-2832	-10832	12176	20	-16	-17	-10928	-10680	5104	-4	-1	-6	-32	-5616	15784	14	-6	4	3168	8824	12984	-16	26	-30	-11104	8152	9880	2	-3	18	-1176	3216	16360	1	-18	20	126	138	12
-2744	-10484	12380	1	-12	-23	-10904	-10392	5096	12	-9	-3	112	-5512	15920	24	-3	2	3168	9112	13168	-12	15	-21	-11016	7992	9848	21	-3	18	-920	3192	16456	15	-18	13	126	138	12
-2856	-11168	12192	5	-20	-22	-10912	-10720	5344	-1	-7	-1	-24	-5608	16216	30	-5	2	3152	9168	13120	-14	19	-25	-11160	8000	9776	16	-10	21	-1024	3216	16712	5	-24	16	126	136	12
-2768	-10680	12300	16	-11	-20	-10856	-10600	5040	3	-5	-5	96	-5544	16296	17	-6	4	2936	8928	13048	-3	16	-24	-11160	8200	9888	-5	-8	17	-952	3328	16488	10	-15	13	126	138	12
-2804	-10636	12224	2	-15	-26	-10976	-10384	5168	8	-4	-1	256	-5632	16216	24	6	3	3176	9272	12976	-3	12	-19	-10976	8000	10000	18	-8	14	-976	3248	16624	3	-18	13	126	138	12
-2880	-11252	12068	21	-23	-18	-10928	-10856	5064	-20	-7	-5	112	-5512	16152	22	3	11	3232	9144	12752	-9	21	-23	-11344	8152	9760	6	-4	19	-1016	3296	16528	3	-17	18	126	137	12
-2744	-10652	12328	25	-8	-15	-11024	-10616	5336	-1	-4	-8	32	-5744	16080	21	1	7	3128	8968	13080	-2	17	-22	-11032	7992	9808	-6	1	19	-904	3272	16432	15	-11	17	127	138	12
-2888	-10712	12304	7	-20	-23	-10960	-10600	5192	13	-6	6	24	-5688	16192	29	-4	3	3208	9384	12936	-3	19	-23	-11160	8096	9784	22	-4	18	-1016	3320	16704	14	-16	16	127	137	12
-2908	-10980	12148	22	-13	-17	-11224	-10680	5064	-2	-1	-6	-48	-5536	15960	34	-7	7	3304	9128	12944	-5	16	-30	-11288	8232	9848	4	-7	25	-1120	3288	16376	6	-21	17	126	137	12
-2688	-10564	12424	7	-6	-24	-11048	-10544	5104	11	-3	-3	128	-5560	16032	22	4	6	3176	9128	12880	-1	12	-23	-11136	7992	9952	15	-6	15	-1016	3416	16576	15	-16	15	126	137	12
-2880	-10988	12188	5	-10	-23	-10928	-10464	4768	-1	-5	4	128	-5472	16240	27	1	1	3416	8984	12800	-2	13	-24	-11112	8112	9992	35	-14	13	-920	3296	16672	8	-21	19	126	137	12
-2704	-10908	12164	20	-12	-19	-10888	-10688	5296	-3	-6	-3	80	-5488	16264	22	1	2	3232	9104	12984	-22	16	-27	-11112	8264	9848	7	-10	18	-912	3256	16416	9	-13	14	127	137	12
-2668	-10616	12516	5	-18	-27	-10984	-10368	5264	0	-8	-8	192	-5672	16024	18	8	-3	3224	9280	13176	-12	14	-24	-10944	7744	9776	6	-8	14	-848	3376	16480	21	-13	12	127	138	12
-2768	-11328	12192	7	-17	-32	-10760	-10592	5120	-9	-9	-4	256	-5536	16152	26	5	-4	3368	8960	12936	-14	16	-25	-11096	8208	9992	16	-12	17	-920	3336	16872	5	-22	13	127	137	12
-2796	-10416	12040	16	-12	-19	-11024	-10600	5128	-7	-6	-12	240	-5544	15976	13	4	0	3176	8520	12936	-13	17	-27	-11080	8032	9808	-2	-10	14	-920	3464	16672	12	-15	11	126	139	12
-2764	-10384	12404	1	-16	-33	-10736	-10640	5088	5	-2	-4	304	-5584	15952	17	10	-6	2936	9672	13120	-4	5	-19	-10952	7856	10160	29	-11	14	-824	3224	16648	15	-16	14	127	140	12
-2828	-11336	12056	10	-19	-26	-10936	-10552	5176	-8	-6	-2	320	-5600	16088	24	8	-3	3152	9560	12752	-13	19	-26	-10896	8344	10120	0	-15	15	-864	3328	16392	2	-25	19	126	138	12
-2832	-10588	12164	25	-14	-17	-10944	-10624	4992	21	-4	-8	-88	-5624	15736	13	-3	0	3376	9168	12992	-21	15	-27	-11040	8152	9888	-15	4	19	-1016	3376	16424	6	-24	14	126	138	12
-2308	-11140	12424	10	-18	-28	-10928	-10336	5360	11	-2	2	216	-5544	15984	29	-3	0	3504	8904	13064	-13	13	-23	-11176	8016	10360	27	-10	15	-768	3256	16576	3	-22	16	127	139	12
-2616	-10896	12224	13	-14	-17	-11048	-10640	5424	-9	-11	-8	128	-5744	16032	26	-6	4	3480	8952	12960	-8	25	-27	-11136	8232	9848	-2	-2	19	-920	3432	16376	-3	-26	22	126	138	12
-2352	-10892	12324	10	-18	-26	-10792	-10504	5040	18	1	3	8	-5616	16136	22	-10	8	3240	9472	12904	-14	21	-26	-10904	8024	10336	10	-12	9	-392	3288	16152	21	-19	21	126	139	12
-2196	-10616	12432	-11	-22	-41	-10792	-10480	5432	-21	-23	-6	496	-5520	15616	34	-4	1	3688	9168	13072	10	1	-8	-10664	7952	10256	23	-26	18	-520	3264	16288	27	-12	17	127	137	12
-2380	-11024	12020	8	-15	-32	-10512	-10624	5584	-19	-27	-24	416	-5464	15784	28	9	11	3792	9072	12704	8	2	-8	-10672	8192	10224	-2	-29	22	-592	3384	16496	21	-10	10	127	138	12
-2104	-10760	12440	-4	-34	-43	-10656	-10528	5600	-8	-24	-12	712	-5504	15856	32	15	-1	4080	9120	13168	-12	-15	-6	-10488	7960	10432	42	-32	21	-480	3520	16400	27	-6	10	128	139	12
-2008	-11352	12400	-11	-36	-50	-10544	-10944	6032	-20	-38	-7	696	-5456	16168	36	4	-7	4080	8856	12856	-23	-10	-14	-10720	8016	10688	43	-37	24	-376	3456	16584	36	-16	5	127	137	12
-2004	-10824	12252	4	-32	-40	-10488	-10848	6136	1	-37	-27	864	-5584	16184	26	0	-5	3952	8592	13216	-20	3	-8	-10512	8000	10784	8	-36	28	-264	3648	16632	31	-25	6	127	138	12
-1788	-10844	12660	-20	-24	-55	-10352	-10608	6168	9	-27	-12	1096	-5544	16432	32	-2	-9	4264	8728	13296	-17	-11	-6	-10584	8024	11008	34	-41	18	176	3776	16960	20	-29	14	127	137	12
-1644	-11152	12252	-27	-15	-46	-10304	-10976	6256	-28	-34	-15	1232	-5544	16336	31	-18	-6	4128	8792	12864	-8	6	-9	-10456	8008	10840	19	-37	15	216	3720	16840	15	-31	8	126	137	12
-1568	-10788	12304	-25	-13	-38	-10240	-10712	5952	-5	-29	-17	1376	-5496	15848	14	-15	-1	4280	8688	13032	-17	9	-15	-10320	7960	10816	3	-16	17	368	3720	16816	6	-31	23	126	138	12
-1756	-11200	12392	-30	-18	-40	-10024	-10784	6200	-13	-23	-12	1440	-5704	16152	21	-10	-7	4304	8728	13128	-27	5	-22	-10456	8136	10608	12	-16	14	256	3504	16728	-6	-24	20	125	137	12
-1740	-11140	11816	-7	-19	-32	-10200	-11056	6040	-1	-10	-18	1224	-5688	16280	17	-7	0	4088	8768	13016	-35	26	-30	-10536	8016	10520	-25	6	15	88	3568	16808	1	-32	21	125	137	12
-1616	-10888	12276	-5	-17	-33	-10144	-10680	6024	6	-4	-9	1200	-5768	16192	19	-1	2	4152	8376	13288	-37	16	-27	-10568	7672	11008	1	4	14	96	3448	16808	7	-29	18	125	139	12
-1672	-11328	12220	-4	-14	-27	-10288	-11104	5896	-1	0	-5	1176	-5720	16064	25	-7	-3	4032	8592	12856	-23	17	-38	-10600	7768	10512	17	-5	13	-40	3496	16536	-8	-32	19	124	138	12
-1784	-10988	11904	23	-6	-12	-10368	-10984	5864	13	-5	-5	1032	-5856	15808	15	-11	-6	3888	8328	13144	-14	25	-30	-10392	7768	10680	-6	6	17	24	3360	16592	-1	-31	19	124	138	12
-1696	-10948	12388	7	-18	-26	-10224	-10680	5640	14	2	5	1064	-5720	15584	19	-8	-8	4344	8488	13088	-5	5	-19	-10440	7760	10504	28	-10	10	208	3336	16616	4	-20	15	125	139	12
-1692	-11268	12076	16	-15	-17	-10088	-10752	5792	-20	-12	-2	1136	-5584	16048	23	-8	0	4000	8592	12808	0	19	-28	-10448	7992	10504	1	-14	19	24	3256	16512	5	-22	10	124	137	12
-1872	-10748	12144	38	-14	-10	-10144	-10624	5568	10	-5	-11	1112	-5616	15448	15	4	4	4136	8504	12920	-5	9	-19	-10432	7800	10552	-1	-4	24	112	3368	16320	10	-14	13	127	138	12
-1544	-11052	12536	13	-28	-24	-10336	-10608	5808	-11	-12	1	1192	-5472	15832	33	5	3	4328	8656	12984	-2	0	-16	-10400	7944	10640	39	-22	19	72	3432	16720	15	-10	11	126	138	12
-1832	-11228	12068	32	-16	-13	-10360	-10904	6160	-25	-20	-16	1040	-5592	16128	26	0	9	4048	8832	12624	-2	17	-24	-10408	7984	10696	12	-14	31	16	3448	16776	13	-15	12	126	137	12
-1712	-10612	12452	29	-15	-25	-10248	-10776	5776	10	-1	-3	1128	-5832	16008	29	11	11	4520	8576	13192	-5	4	-15	-10272	7864	11000	34	-8	29	-40	3496	16592	15	-15	10	126	139	12
-1548	-11124	12420	3	-24	-31	-10472	-10648	6264	-19	-12	2	1304	-5472	16152	40	-1	6	4320	8680	12952	7	4	-19	-10368	7960	10904	38	-23	24	144	3600	16840	15	-15	15	126	138	12
-1828	-11160	12100	27	-5	-10	-10248	-11128	5928	2	-12	-7	1016	-5432	16216	32	-6	13	4184	9008	12992	-3	23	-24	-10464	8144	10976	2	-2	22	48	3672	16728	8	-20	20	125	137	12
-1640	-10808	12588	12	-12	-22	-10384	-10736	6240	19	1	5	1176	-5632	16208	31	-1	7	4368	8744	13120	-9	10	-23	-10352	8032	11048	15	2	25	296	3704	16544	6	-17	19	126	138	12
-1696	-11332	12180	10	-16	-18	-10376	-10896	6272	-15	-12	0	1112	-5568	16136	31	-5	4	3984	8928	12936	-3	28	-30	-10552	8120	10632	-4	-3	17	-8	3688	16744	-4	-22	21	125	137	12
-1984	-10916	12096	34	-8	-3	-10568	-10800	5864	20	8	-7	1112	-5608	16080	16	-4	4	4160	8744	12856	-18	26	-25	-10408	8128	10576	-9	14	20	-96	3704	16632	-2	-18	23	125	138	12
-1656	-10884	12676	5	-14	-24	-10328	-10632	5912	4	6	13	1064	-5600	15720	26	0	-3	4320	8448	13432	-13	15	-25	-10584	7952	10744	20	-2	13	8	3568	16472	4	-20	23	125	139	12
