#Activity	standing 
#ActivityID	8 
#Date 10-21-16-10
acc_rf_x	acc_rf_y	acc_rf_z	gyro_rf_x	gyro_rf_y	gyro_rf_z	acc_rs_x	acc_rs_y	acc_rs_z	gyro_rs_x	gyro_rs_y	gyro_rs_z	acc_rt_x	acc_rt_y	acc_rt_z	gyro_rt_x	gyro_rt_y	gyro_rt_z	acc_lf_x	acc_lf_y	acc_lf_z	gyro_lf_x	gyro_lf_y	gyro_lf_z	acc_ls_x	acc_ls_y	acc_ls_z	gyro_ls_x	gyro_ls_y	gyro_ls_z	acc_lt_x	acc_lt_y	acc_lt_z	gyro_lt_x	gyro_lt_y	gyro_lt_z	EMG_r	EMG_l	act
-5388	-4948	14868	293	28	-19	-16228	44	136	1039	179	227	-15800	1504	-3536	242	19	83	-7492	4808	13384	1120	521	387	-16668	1764	980	1859	-136	317	-16148	308	-2680	2215	-901	310	121	125	8
-5512	-4844	14876	287	-4	-44	-16244	108	-96	1102	208	243	-15904	1632	-3320	249	11	85	-7416	5140	13284	1367	575	474	-16528	2380	816	1797	-98	300	-15980	208	-2788	2061	-923	342	121	126	8
-5496	-4856	14860	323	58	-59	-16236	156	-92	1158	214	234	-15784	1768	-3568	262	11	78	-7264	5456	13404	1814	839	603	-16812	2672	716	1583	-34	436	-16068	384	-2992	2224	-614	453	121	125	8
-5508	-4756	14888	145	39	-108	-16284	404	-228	858	166	280	-15896	1792	-3040	231	20	86	-8040	4972	13804	3222	1108	1261	-16912	412	424	1807	-149	194	-16324	148	-2576	2354	-597	288	122	126	8
-5368	-4932	14840	32	68	-110	-16260	308	-284	416	78	204	-15856	1848	-3512	172	22	83	-8344	3828	14452	6309	946	3172	-17016	-1276	1232	3168	-482	-105	-16292	-972	-2380	3147	-622	-206	122	126	8
-5524	-4884	14880	-117	117	-182	-16376	416	-376	-159	4	250	-15760	1744	-3664	130	13	72	-8192	4264	13924	8244	699	4347	-17484	224	1316	5203	-919	-11	-16204	-1780	-2944	4826	-695	-499	122	127	8
-5484	-4832	14908	-427	120	-243	-16324	724	-348	-893	-89	270	-15912	2040	-3720	88	-24	70	-7576	6004	13488	8742	869	4455	-17168	1732	1092	6913	-1593	58	-16156	-884	-3120	6736	-497	-265	121	127	8
-5456	-4676	14800	-700	174	-348	-16380	956	-464	-1712	-238	249	-15744	2192	-3552	-15	-36	80	-7272	5476	13304	9005	962	4567	-17012	2028	1156	7588	-2026	-54	-16340	124	-3460	7712	-243	43	122	128	8
-5580	-4788	14856	-905	224	-431	-16404	736	-396	-2718	-383	265	-15504	2248	-3048	-144	-13	96	-7596	5632	13416	9302	870	4883	-17256	1216	1828	7984	-2646	-34	-16332	96	-3496	7848	-247	53	122	128	8
-5368	-5248	14708	-1336	132	-570	-16136	76	-56	-3052	-428	216	-15808	2080	-3608	-198	-8	83	-8024	5588	13780	10381	611	5683	-17040	164	2068	8398	-3128	-365	-16148	-1268	-3272	8779	-218	-309	122	128	8
-5432	-5284	14188	-1562	253	-550	-16184	-172	80	-2547	-403	250	-15704	1712	-3280	-195	-20	48	-7316	6212	13300	11346	265	6295	-16720	1276	2452	9026	-3197	-362	-15872	-1432	-3364	9505	-449	-641	123	129	8
-5736	-5284	15260	-1210	231	-507	-16096	168	252	-2151	-332	231	-15720	1816	-3224	-160	-23	44	-6760	7472	12116	11797	328	6508	-16248	2400	2328	8478	-3196	-220	-15760	-204	-3116	9103	-418	-655	123	130	8
-5496	-5276	14868	-934	116	-400	-16000	-124	20	-1633	-231	217	-15672	1856	-3040	-110	-15	40	-6516	7944	11448	11658	545	6508	-15884	3116	2164	7082	-2954	-177	-15644	684	-3060	7577	-316	-738	124	129	8
-5496	-5288	14848	-587	34	-370	-16124	-192	240	-874	-55	204	-15768	1632	-3168	-25	1	39	-5976	8956	10904	11090	1175	6184	-16448	3088	2148	5547	-2961	-2	-15540	464	-2960	5972	92	-822	124	128	8
-5556	-5348	14680	-414	64	-278	-16144	44	180	-316	91	187	-15824	1648	-3216	69	23	40	-7356	8956	11740	11194	1208	6298	-16132	1660	1776	4671	-2740	-75	-15892	-16	-2488	4738	187	-1006	125	128	8
-5448	-5384	14704	-229	31	-225	-16188	84	128	110	154	122	-15976	1520	-3288	149	14	48	-6600	9276	11108	11263	542	6383	-16032	2188	1964	4023	-2561	-147	-16068	-220	-2552	3936	157	-1223	126	128	8
-5372	-5452	14716	50	24	-143	-16140	-160	84	603	189	110	-15784	1344	-3176	205	21	53	-5928	10540	9792	10321	403	5872	-15756	3288	1528	3387	-1978	-137	-16148	-112	-2072	3103	-229	-1308	126	129	8
-5628	-5332	14776	308	-57	-63	-16112	-112	40	987	302	143	-15848	1408	-3288	276	24	47	-5084	11588	8556	8606	424	4968	-15724	4176	1060	1972	-1429	-294	-15788	500	-1808	2283	-418	-1097	126	128	8
-5508	-5272	14768	476	-83	-11	-16132	-20	48	1393	375	149	-15808	1632	-3376	312	22	46	-4512	11776	8364	6612	929	3778	-16180	4240	976	1166	-1017	-168	-16320	512	-2328	1496	-81	-849	126	129	8
-5468	-5364	14720	599	-32	66	-16256	-8	-8	1793	417	147	-16088	1688	-3368	333	24	47	-5156	12152	8712	4744	1344	2663	-17044	3036	180	1145	-1230	-75	-16316	416	-2316	1365	-20	-687	127	129	8
-5360	-5300	14836	634	-42	66	-16232	148	-48	1940	426	216	-15888	1832	-3224	321	28	49	-6128	12000	9344	3797	1004	2107	-16708	1892	-76	1775	-1321	-91	-16236	-180	-2308	1904	228	-443	127	130	8
-5500	-5260	14776	497	74	70	-16280	204	-76	1885	472	231	-15944	1944	-3192	267	26	42	-5908	12020	9080	2992	530	1622	-16692	2512	340	3300	-1539	92	-16096	-388	-2560	2737	298	-249	127	129	8
-5592	-5036	14816	225	104	-55	-16344	888	-336	642	331	372	-15952	2192	-3384	196	-1	41	-5796	12952	8692	1989	333	1012	-16452	2896	116	3676	-1385	83	-16636	-132	-2436	3426	151	-64	127	130	8
-5464	-5228	14740	51	163	-110	-16272	472	-364	-261	272	349	-15856	2232	-3336	94	-22	30	-5832	12404	8944	1205	-251	581	-16316	2836	612	3296	-1235	43	-16260	24	-2324	3630	-161	119	127	130	8
-5560	-4928	14696	-238	63	-181	-16312	660	-328	-982	242	497	-15984	2208	-3336	0	-51	15	-5356	12104	9072	340	-309	232	-16532	3060	1432	3007	-1124	142	-16088	-288	-2484	3412	-112	329	128	131	8
-5488	-5108	14852	-253	79	-206	-16388	416	-152	-1436	137	493	-15984	2312	-3272	-98	-60	10	-5656	11824	9384	-255	-136	-146	-16668	2536	2020	2879	-1213	195	-16168	-604	-2676	3417	65	310	128	130	8
-5512	-5052	14700	-663	187	-324	-16288	856	-376	-1793	102	595	-15984	2456	-3328	-159	-84	-1	-6332	11596	9932	-131	-298	-107	-16512	1824	1884	2906	-1192	142	-16104	-628	-2656	3482	129	247	128	131	8
-5560	-5472	14756	-1021	295	-473	-16536	1024	-160	-2418	-36	488	-15864	2472	-3320	-173	-86	-1	-5624	11544	9532	-215	-217	-109	-16452	2256	2696	3086	-1289	178	-16040	-696	-2596	3168	212	1	128	130	8
-5668	-5260	14432	-1312	296	-526	-16180	740	-680	-3003	-37	386	-15680	2664	-3968	-294	-87	-9	-5792	11712	9608	-141	-81	-143	-16212	2788	2568	2571	-1209	231	-16056	-740	-2284	2572	125	-98	129	132	8
-5656	-5324	14800	-1687	336	-635	-16276	884	-220	-3334	-248	195	-15560	2704	-3728	-317	-109	-24	-5776	12044	9260	-275	-44	-149	-16348	3020	2364	1653	-857	125	-15988	-468	-2328	1497	177	-140	129	132	8
-5640	-5448	14664	-2535	91	-955	-16120	1404	-192	-4146	-301	87	-15728	2880	-3392	-350	-142	-24	-5576	12152	9368	-665	203	-376	-16436	3140	2588	610	-516	111	-16332	-440	-2508	355	403	-172	129	132	8
-5408	-5540	14596	-3039	185	-1310	-16524	1256	-400	-4990	-365	72	-15824	2808	-3680	-438	-126	-11	-5516	11408	9692	-915	418	-499	-16552	2508	2788	21	-439	-36	-16628	-644	-2540	-581	224	-294	129	132	8
-5744	-5472	14788	-3994	39	-1659	-16388	1544	-632	-5802	-519	97	-15928	2656	-3688	-522	-157	-6	-5700	11380	9784	-1000	653	-657	-16444	2476	2356	-27	-513	44	-16024	-984	-2296	-786	183	-365	129	132	8
-6264	-5612	14908	-4733	-105	-2178	-16416	1676	-628	-7164	-673	296	-15784	2856	-2984	-646	-204	7	-5928	11760	9540	-935	566	-692	-16420	2312	1940	91	-639	-19	-15824	-988	-2236	-851	374	-388	130	131	8
-5240	-6196	14468	-4606	-299	-2343	-16076	284	-164	-7486	-648	227	-15648	2624	-3000	-737	-211	7	-5800	11968	9356	-1099	645	-721	-16436	2692	2280	62	-504	62	-16064	-760	-2660	-992	570	-418	130	132	8
-6040	-5960	14636	-5155	-418	-2571	-16196	1240	-604	-7351	-873	658	-16088	2512	-2400	-777	-266	-12	-6152	11808	9816	-1171	746	-739	-16292	2536	2152	-362	-374	-42	-16184	-620	-2572	-1354	647	-349	130	133	8
-6496	-5248	15156	-6982	-505	-3767	-16888	4088	-332	-8662	-1231	1338	-16416	3568	-1632	-896	-367	15	-6272	11720	9844	-1021	538	-658	-16444	2444	2056	-550	-154	-130	-16184	-924	-2296	-1729	494	-600	130	131	8
-5388	-6468	14676	-8198	-1214	-4847	-17172	1804	812	-12440	-1199	1238	-16248	4520	-2280	-1184	-332	125	-5936	11692	9572	-946	464	-650	-16292	2796	2168	-729	184	-227	-16008	-1408	-2100	-2026	636	-509	131	131	8
-4956	-7364	14564	-7697	-1158	-4561	-15560	-2028	832	-11025	-1044	816	-16264	2424	-2712	-1294	-224	100	-5692	11204	9908	-770	810	-688	-16272	2648	2908	-803	402	-294	-16308	-1404	-2444	-2083	812	-438	130	131	8
-5936	-6740	15044	-8163	-1626	-4861	-16400	576	908	-6665	-990	1575	-16240	2128	-2640	-986	-165	1	-6172	11100	10060	-426	1011	-588	-16344	2208	3048	-1051	510	-400	-16244	-1596	-2556	-2369	735	-503	130	131	8
-6048	-6800	14796	-8901	-1928	-5408	-16588	2428	520	-6382	-1044	1633	-15960	3368	-2688	-833	-129	20	-6588	11244	10116	-7	984	-295	-16164	1952	3004	-1449	760	-502	-16116	-1768	-2540	-2784	704	-645	130	131	8
-5132	-7304	14136	-9828	-2440	-6093	-16428	2252	560	-6946	-1284	1779	-15808	3088	-2688	-828	-160	65	-6316	10936	10232	443	839	59	-16140	2076	3016	-1901	995	-640	-15940	-1676	-2700	-3269	652	-657	132	131	8
-4444	-8064	13212	-10250	-2762	-6301	-16304	1236	720	-7084	-1488	1737	-15272	2984	-3040	-864	-86	133	-6340	10976	10068	832	787	316	-16196	1796	2784	-2006	1185	-759	-15768	-1680	-2792	-3669	580	-531	131	132	8
-4724	-8696	13480	-10046	-2154	-6439	-16024	1136	140	-6107	-1832	1683	-15352	2888	-3024	-858	-72	137	-6004	10776	9924	1287	822	559	-16360	1968	2732	-2117	1248	-710	-15868	-1292	-3624	-3631	712	-582	131	132	8
-4556	-9072	13312	-10741	-3046	-6755	-15888	2104	92	-5902	-2244	1837	-15096	2808	-3392	-680	14	156	-6136	10912	9944	1871	1125	748	-16660	1788	2864	-2326	1040	-546	-15476	-1248	-3812	-3775	863	-612	132	131	8
-4300	-9192	12884	-10817	-2997	-6810	-15984	2160	196	-6813	-2714	1780	-15080	3392	-3272	-647	-3	193	-6492	11216	10172	2504	1170	1102	-16512	1140	2388	-2329	913	-586	-15268	-1468	-3796	-3633	1152	-608	132	131	8
-3244	-10500	11648	-10491	-3215	-6810	-15624	408	8	-6562	-2693	1479	-15024	3072	-3272	-623	16	206	-6348	11124	9848	3014	1131	1491	-16236	1272	2552	-1902	759	-520	-15252	-1616	-3956	-3496	1291	-807	132	131	8
-2460	-12596	10796	-9236	-2682	-6242	-15900	-92	-236	-5199	-2770	1178	-15152	2616	-2928	-565	82	172	-6444	11768	9380	3213	971	1748	-16340	1516	2376	-2062	788	-456	-15340	-1220	-3620	-3575	1364	-926	131	131	8
-2044	-12152	10632	-7735	-2437	-5560	-15444	-288	-612	-4185	-2396	630	-15168	2360	-2512	-473	127	113	-6188	12076	9052	3004	598	1853	-16360	2176	1804	-2452	899	-523	-15780	-856	-3580	-3970	1322	-1026	131	131	8
-2120	-11568	10600	-6459	-2261	-4812	-15836	360	-256	-4992	-2282	361	-15488	2520	-2536	-491	159	81	-5736	12836	8568	2201	423	1543	-16420	2684	1136	-2895	1233	-528	-16084	-420	-3436	-4741	1389	-892	132	131	8
-1136	-11864	10140	-5059	-2121	-3849	-16188	280	452	-5408	-2729	529	-15880	2672	-2344	-584	204	65	-5248	12592	8256	1332	431	1042	-16720	2756	1160	-3285	1471	-373	-16464	-204	-3252	-5208	1521	-727	132	131	8
-1568	-12300	10868	-4044	-1474	-2988	-16712	108	488	-5390	-2493	-312	-16272	3008	-2728	-665	259	64	-5664	12664	8704	884	731	550	-17004	2472	1200	-3367	1420	-427	-16688	-132	-3220	-5308	1391	-730	132	131	8
-1628	-12660	10604	-3357	-1372	-2434	-16216	-276	784	-4615	-2118	-557	-16336	2896	-2504	-639	246	39	-5820	12640	8720	407	736	210	-16696	2072	1004	-3238	1486	-624	-16116	-1052	-3096	-5358	1293	-688	132	130	8
-1516	-12920	10492	-2420	-1274	-1888	-16280	-228	1128	-3083	-2172	-567	-15904	2736	-2168	-536	216	3	-5892	12728	8568	-269	556	-158	-16464	2096	1276	-3150	1533	-573	-15808	-1040	-3236	-4798	1342	-597	132	130	8
-1380	-12820	10168	-2240	-1222	-1780	-16232	52	1532	-1532	-1970	-674	-16040	2624	-1712	-379	160	-39	-6004	12404	8944	-669	416	-280	-16620	1824	1364	-3235	1619	-653	-16116	-884	-3360	-4434	1698	-473	132	130	8
-1812	-12224	10772	-686	-685	-1022	-16164	792	1392	-1435	-1796	-633	-15984	3040	-1104	-328	127	-61	-5916	12240	8980	-802	430	-314	-16560	1544	1320	-3089	1410	-733	-16100	-1176	-3944	-4276	1303	-539	133	131	8
-2060	-11916	11156	-871	-671	-1089	-16080	1016	1640	-2482	-1798	-496	-16488	3248	-656	-377	62	-70	-5408	11880	8964	-690	639	-417	-16716	1652	2004	-2751	1330	-710	-15396	-1276	-4796	-3791	1204	-306	133	131	8
-1608	-11612	10852	-1057	-729	-1133	-15920	752	2424	-2966	-1782	-310	-16208	3608	-664	-507	30	-57	-5452	11720	9040	-681	708	-406	-16896	428	1928	-2362	1093	-646	-15136	-1284	-5076	-3317	1674	-327	133	131	8
-1984	-11832	11244	-1280	-754	-1102	-15940	1116	2400	-3443	-1696	47	-15896	4088	-720	-600	3	-39	-6356	11504	9876	557	1206	105	-16668	280	2156	-1762	881	-568	-14828	-1428	-4984	-2547	1998	-605	132	131	8
-1900	-12324	10868	-1395	-956	-1285	-16292	1052	2556	-3867	-1788	491	-16064	3776	-968	-616	4	-43	-6392	11860	9388	1183	1207	532	-16376	664	1836	-1400	690	-415	-14916	-1436	-4804	-1660	2447	-820	132	130	8
-1728	-12696	10476	-1323	-965	-1239	-15704	-28	2456	-2328	-1118	264	-15744	3344	-1184	-554	31	-43	-6180	12308	8956	1225	1044	709	-16460	1360	1092	-1655	728	-418	-16044	-844	-4812	-938	2609	-724	133	131	8
-1400	-12844	10228	-1199	-847	-1163	-15748	-76	2080	-964	-712	245	-15712	2816	-1408	-404	54	-53	-6076	12688	8352	749	795	596	-16652	1828	592	-2169	885	-374	-16252	-660	-5012	-1247	2086	-522	132	131	8
-1364	-12900	10440	-1167	-668	-1137	-16076	452	1996	-299	-526	305	-15856	2408	-1752	-234	69	-59	-5572	12528	8596	303	691	219	-17044	1552	564	-1988	813	-302	-16144	-712	-5420	-1775	1438	-32	132	130	8
-1732	-12460	10920	-1616	-629	-1332	-16092	1228	2100	-797	-655	404	-15872	2480	-1600	-143	49	-30	-6136	12112	9040	259	697	-11	-16948	592	780	-1053	387	-221	-16144	-1380	-5388	-1340	861	398	133	130	8
-1576	-12492	10672	-1984	-858	-1410	-15976	1016	2152	-1983	-719	346	-15848	2592	-1656	-151	3	15	-6216	12060	8972	486	592	16	-16560	500	1124	42	1	-149	-15600	-1732	-5024	-102	249	338	132	130	8
-1068	-12876	10160	-1848	-784	-1288	-15980	64	2092	-2091	-590	370	-16064	2728	-1856	-154	-25	52	-6204	12184	8904	543	485	114	-16368	1040	1420	228	-89	-80	-15496	-1596	-4912	749	-71	54	132	130	8
-904	-13076	9812	-1450	-607	-1068	-16084	-112	2088	-1026	-328	370	-16024	2976	-1744	-45	-14	51	-6216	12324	8824	646	374	179	-16552	1032	1192	46	-131	-125	-15524	-1512	-4884	1048	-80	-40	132	130	8
-948	-12996	10064	-952	-386	-818	-16096	404	2072	-121	-158	322	-15960	3288	-1816	77	31	47	-5896	12276	8956	689	304	192	-16820	1112	1384	260	-196	-90	-15408	-1400	-5048	1044	-52	140	132	130	8
-920	-12932	10096	-577	-188	-621	-16196	592	2096	153	0	187	-15880	3560	-1696	143	57	45	-6048	12400	8792	722	438	111	-16976	1096	1160	644	-433	8	-16180	-1304	-5140	1170	2	287	132	130	8
-1040	-12928	10044	-425	-8	-397	-16124	732	2180	227	44	85	-16256	3608	-1520	172	55	40	-5840	12408	8724	671	481	37	-16836	1292	1408	765	-531	48	-15880	-1080	-5152	1201	-125	372	131	130	8
-1284	-12672	10408	-502	37	-366	-16008	904	2616	269	63	162	-16072	3728	-1400	160	31	33	-5988	12424	8668	681	626	-47	-17120	952	1540	894	-603	-30	-15760	-1016	-5168	1208	-222	358	131	130	8
-1276	-12400	10624	-811	52	-438	-15812	1076	2796	80	115	257	-15928	3824	-1176	141	25	42	-6100	12384	8672	690	557	-53	-16460	980	1488	990	-531	81	-15760	-1044	-4932	1170	-288	303	131	130	8
-964	-12936	9992	-657	208	-437	-15968	560	2312	230	220	168	-15904	3832	-1600	105	26	64	-6052	12620	8592	597	447	-60	-16404	1288	1368	795	-412	56	-15368	-1120	-4968	1314	-538	118	131	130	8
-700	-13284	9404	-226	554	-184	-16140	72	1784	920	474	63	-16016	3376	-2208	151	40	46	-6144	12684	8440	299	266	-117	-16632	1284	868	621	-392	85	-15328	-1024	-4952	1251	-508	92	131	130	8
-1160	-13016	10184	-47	636	25	-16240	808	1740	1468	502	92	-16016	3408	-2480	234	62	8	-6096	12868	8264	-121	9	-239	-16636	1380	732	502	-424	114	-15648	-748	-5000	735	-406	268	131	130	8
-1456	-12972	10332	-117	597	9	-16080	1460	1896	1243	424	93	-15760	3528	-2464	257	54	5	-5888	12612	8260	-502	-151	-402	-16760	1440	1088	538	-453	192	-15632	-772	-4860	701	-383	449	131	130	8
-1436	-13132	10144	-43	340	-75	-15948	940	1744	774	327	-41	-15616	3672	-2408	188	16	17	-6092	12432	8636	-531	-154	-583	-16680	884	1272	866	-601	177	-15596	-1124	-4892	1090	-389	425	130	130	8
-1004	-13348	9496	479	331	100	-16012	916	1584	773	362	-45	-15536	3376	-2424	185	9	10	-5948	12288	8648	-451	-203	-532	-16584	1060	1612	1232	-651	257	-15472	-1320	-4960	1602	-406	263	131	129	8
-1156	-12928	10068	841	434	324	-16232	620	1436	1779	488	-154	-15704	3264	-2352	244	30	-21	-6072	12348	8672	-376	-107	-492	-16612	1080	1676	1062	-685	273	-15480	-1376	-4904	1723	-373	209	131	130	8
-1220	-12808	10096	1066	413	489	-16084	1168	1788	1503	547	-244	-15800	3696	-2264	283	37	-29	-5996	12400	8736	-342	-130	-462	-16556	1124	1848	847	-601	231	-15624	-1516	-4776	1593	-483	135	132	129	8
-1184	-13028	9936	1295	559	621	-16056	760	1752	1397	540	-483	-15832	3432	-2320	251	32	-14	-6132	12484	8620	-399	-119	-400	-16524	1144	1660	717	-563	312	-15496	-1444	-4644	1462	-578	212	131	129	8
-1384	-13188	9900	1788	477	722	-15964	344	1484	2050	695	-510	-15832	3048	-2168	278	43	-28	-6184	12464	8556	-469	-163	-365	-16524	1292	1488	648	-590	264	-15604	-1280	-4600	1209	-575	357	131	129	8
-1232	-12844	10176	2162	587	865	-16064	572	1776	2746	760	-484	-15832	3200	-1992	349	79	-49	-6068	12436	8656	-581	-253	-430	-16624	1196	1384	640	-543	333	-15640	-1180	-4548	1095	-522	485	131	129	8
-1528	-12456	10576	2123	502	919	-16156	1216	1992	2577	797	-402	-15880	3408	-2040	363	72	-45	-5988	12464	8672	-597	-286	-399	-16624	1304	1588	770	-533	296	-15696	-1120	-4604	1178	-448	505	131	129	8
-1728	-12428	10652	1817	478	776	-15996	1352	2056	2025	700	-359	-15928	3640	-2144	329	41	-29	-6048	12160	8752	-592	-212	-507	-16648	1044	1876	877	-656	274	-15744	-1456	-4580	1404	-380	453	131	129	8
-1684	-12392	10728	1612	482	681	-16016	988	2092	1909	705	-286	-15816	3464	-1992	298	25	-14	-5980	12172	8892	-381	-249	-462	-16536	1060	1752	1100	-606	382	-15740	-1416	-4568	1472	-401	420	131	129	8
-1664	-12308	10724	1356	489	630	-16068	1084	1976	1955	688	-199	-15848	3448	-2272	286	36	-2	-6060	12192	8864	-277	-104	-363	-16476	1260	1996	1084	-665	361	-15568	-1660	-4568	1789	-490	251	131	129	8
-1780	-12180	10888	1067	413	524	-16036	1412	1844	1784	599	-173	-15776	3640	-2472	272	33	7	-6024	12196	8844	-156	-92	-300	-16480	1152	2048	911	-565	261	-15600	-1624	-4420	1662	-519	261	130	129	8
-1920	-12012	10952	601	350	236	-15928	1528	2060	1395	562	-42	-15728	3872	-2320	250	24	17	-5992	12100	8844	-21	-45	-247	-16528	1272	2028	1040	-526	293	-15684	-1740	-4420	1517	-536	316	130	129	8
-1916	-12004	10984	102	235	-57	-15884	1644	1976	898	413	35	-15368	4048	-2504	184	22	32	-6036	12152	8892	110	36	-221	-16604	1264	2152	1050	-458	272	-15656	-1724	-4512	1452	-429	366	130	129	8
-1944	-12132	10836	-270	248	-248	-16136	1504	1728	478	312	29	-15648	3840	-2456	130	19	45	-6000	12312	8628	158	151	-199	-16604	1348	1972	841	-378	302	-15696	-1508	-4468	1290	-362	375	130	129	8
-1932	-12128	11052	-710	111	-428	-16096	1484	1760	191	168	148	-15568	3800	-2848	117	9	43	-5888	12288	8840	249	181	-227	-16608	1472	2016	820	-329	318	-15732	-1368	-4624	1027	-337	416	130	129	8
-1952	-11904	11124	-1299	69	-681	-16036	1824	1876	-135	-72	234	-15720	3992	-2736	94	-12	50	-6064	12316	8704	166	297	-281	-16608	1480	1840	698	-274	343	-15780	-1396	-4492	822	-394	388	131	129	8
-1980	-12500	10688	-1817	-117	-1016	-15868	1608	1532	-688	-158	237	-15560	3976	-2632	48	-50	65	-6032	12436	8668	117	272	-296	-16524	1380	1884	540	-190	346	-15836	-1392	-4372	790	-469	385	130	129	8
-1768	-12884	10428	-1850	-119	-1017	-16124	628	1568	-264	-205	181	-15632	3360	-2440	45	-46	62	-6028	12340	8840	26	279	-347	-16620	1440	1868	479	-177	335	-15648	-1328	-4424	518	-459	308	130	128	8
-1612	-12652	10532	-1928	-31	-1006	-16368	1072	1464	70	-330	319	-15744	3384	-2688	93	-37	36	-6064	12260	8800	64	233	-308	-16500	1312	1772	461	-199	324	-15708	-1268	-4316	358	-444	341	130	128	8
-1688	-12584	10540	-2061	-132	-1037	-16104	1472	1656	-444	-397	299	-15648	3680	-2400	66	-36	39	-6120	12328	8696	67	200	-319	-16440	1192	1908	543	-233	280	-15592	-1292	-4280	322	-465	288	130	128	8
-1356	-13044	9944	-1907	-16	-980	-16204	772	1304	-895	-421	127	-15864	3536	-2760	5	-56	43	-6088	12276	8760	64	187	-298	-16504	1380	1820	618	-249	320	-15576	-1400	-4580	469	-436	172	129	128	8
-1424	-13208	9876	-1400	-56	-759	-16140	400	1000	-372	-309	85	-15744	3160	-2360	12	-44	23	-5988	12456	8488	-77	213	-362	-16592	1548	1784	436	-119	362	-15728	-1268	-4404	468	-390	163	130	128	8
-1028	-13192	9692	-830	62	-487	-16220	324	1084	85	-239	-10	-15824	3376	-2768	52	-12	7	-5952	12520	8464	-311	197	-522	-16584	1604	1684	139	-74	367	-15768	-1244	-4512	235	-322	245	130	128	8
-1460	-13280	9820	-308	47	-183	-16244	860	924	90	-151	-132	-16032	3312	-2344	67	-17	-8	-6148	12428	8688	-533	134	-598	-16600	1364	1656	25	-14	381	-15720	-1144	-4384	67	-316	314	129	128	8
-1192	-13248	9832	195	20	31	-16140	480	1204	55	-12	-246	-15936	3272	-2296	74	-23	-20	-6048	12436	8644	-660	36	-622	-16552	1492	1616	-35	-16	382	-15748	-1172	-4132	26	-363	344	129	128	8
-1344	-13048	9904	574	128	266	-16212	480	1392	402	37	-280	-15896	3256	-2272	73	-19	-19	-5996	12372	8660	-825	-5	-697	-16628	1508	1632	-99	23	369	-15788	-1152	-4296	23	-341	367	130	128	8
-1452	-13000	10092	761	110	302	-16020	1008	1688	565	75	-217	-15936	3328	-2512	97	-3	-31	-6068	12320	8896	-877	0	-774	-16620	1432	1580	-16	14	324	-15848	-1232	-4240	62	-410	400	130	128	8
-1512	-12860	10216	827	123	346	-16028	1040	1748	476	117	-251	-15704	3592	-2176	90	-10	-28	-6128	12224	8688	-900	-19	-736	-16548	1396	1740	124	-27	348	-15776	-1388	-4392	242	-391	347	129	128	8
-1564	-12840	10204	916	126	321	-16000	868	1548	675	163	-284	-15640	3712	-2264	85	-1	-25	-6004	12256	8700	-1016	-23	-832	-16596	1572	1792	103	-49	409	-15684	-1312	-4352	322	-383	329	130	127	8
-1624	-12760	10212	988	120	357	-16048	1016	1608	1041	207	-279	-15624	3464	-2408	123	10	-33	-6204	12180	8856	-1035	-41	-894	-16644	1432	1956	28	9	388	-15816	-1368	-4380	214	-395	381	130	127	8
-1684	-12760	10316	956	143	338	-16044	1248	1560	966	166	-270	-15736	3440	-2376	139	18	-30	-6196	12044	8784	-1006	-9	-831	-16536	1352	2136	-72	27	360	-15704	-1556	-4260	140	-473	423	130	128	8
-1736	-12764	10344	939	64	257	-15960	1156	1512	747	133	-335	-15592	3384	-2504	122	5	-24	-6288	12048	9176	-821	38	-737	-16476	1272	2144	-55	25	378	-15616	-1468	-4228	80	-448	439	130	128	8
-1596	-12724	10460	868	37	251	-16116	1048	1596	691	12	-323	-15608	3504	-2624	94	8	-14	-6220	11728	9212	-606	140	-592	-16584	1356	2344	-110	38	344	-15728	-1528	-4308	-13	-478	418	129	128	8
-1484	-12852	10144	990	-9	320	-16132	848	1444	750	85	-359	-15704	3424	-2744	96	5	-16	-6148	11740	9264	-157	306	-461	-16612	1140	2396	82	-75	289	-15684	-1508	-4292	90	-339	298	129	127	8
-1328	-12944	9964	1367	221	534	-16296	344	1368	1061	211	-530	-15808	3304	-2640	103	20	-26	-6368	11744	9248	340	476	-269	-16644	1068	2204	304	-223	231	-15700	-1520	-4200	273	-308	114	129	128	8
-1608	-12908	10208	1662	254	752	-16268	616	1340	1424	160	-532	-15968	3312	-2672	150	21	-63	-6332	11972	9144	617	506	-62	-16452	1188	2036	372	-284	219	-15748	-1340	-4148	356	-359	-65	129	127	8
-1648	-12692	10376	1852	243	858	-16056	904	1372	1378	188	-570	-15856	3256	-2560	173	17	-77	-6184	12064	8928	734	485	46	-16404	1572	2100	305	-221	229	-15672	-1204	-4140	229	-340	-120	129	127	8
-1740	-12620	10596	1904	248	905	-15928	888	1592	1175	214	-565	-15760	3184	-2112	150	6	-71	-6208	12084	8976	819	587	68	-16540	1308	2020	332	-267	139	-15800	-1332	-4144	202	-357	-166	129	127	8
-1828	-12656	10560	1959	210	911	-16028	812	1520	1199	297	-520	-15840	3304	-2448	117	5	-56	-6424	12112	8880	879	473	171	-16444	1196	1680	465	-292	114	-15684	-1476	-4136	288	-368	-202	129	127	8
-1724	-12428	10528	2030	283	884	-16088	668	1516	1396	309	-462	-15848	3224	-2448	117	19	-55	-6260	12256	8708	754	403	202	-16416	1524	1716	495	-297	109	-15660	-1400	-4220	354	-216	-127	129	127	8
-1972	-12368	10664	2032	241	948	-16096	1056	1572	1365	316	-465	-15912	3336	-2680	137	16	-66	-6220	12344	8636	503	235	177	-16420	1632	1552	356	-188	154	-15668	-1252	-4224	258	-179	-23	129	128	8
-2104	-12252	10848	1900	304	833	-16012	1184	1496	1165	284	-474	-15800	3256	-2376	132	10	-63	-6112	12436	8780	227	101	39	-16548	1600	1476	247	-113	170	-15736	-1380	-4376	217	-134	85	129	127	8
-2232	-12236	11084	1765	180	657	-16040	1172	1456	993	284	-365	-15568	3184	-2736	102	13	-50	-6308	12376	8608	-13	7	-11	-16568	1352	1636	227	-71	171	-15784	-1376	-4400	158	-160	170	129	127	8
-2144	-12280	10864	1662	34	524	-15984	1068	1220	975	244	-322	-15464	3224	-2616	90	12	-43	-6168	12344	8744	-167	-116	-51	-16420	1468	1740	217	-62	197	-15640	-1400	-4280	224	-229	219	129	127	8
-2124	-12260	10892	1640	-26	434	-15960	1108	1144	885	221	-310	-15520	3232	-2672	75	17	-46	-6136	12240	8704	-308	-194	-33	-16536	1552	1800	128	-36	221	-15616	-1312	-4404	134	-201	276	128	127	8
-2220	-11972	11116	1519	-194	340	-16060	1316	1304	569	73	-264	-15512	3240	-2968	52	19	-43	-6108	12256	8784	-323	-145	-105	-16680	1544	1896	23	-10	301	-15708	-1396	-4384	19	-195	234	128	127	8
-2276	-11904	11276	1226	-279	135	-16144	1536	1464	90	-30	-238	-15432	3352	-3120	30	3	-31	-6156	12136	8832	-298	-132	-105	-16668	1324	2092	-56	15	250	-15768	-1516	-4280	-82	-170	205	129	127	8
-2208	-11648	11380	743	-343	-38	-16212	1424	1728	-300	-224	-216	-15752	3384	-3080	-13	-7	-17	-6084	12188	8968	-156	-51	-115	-16584	1436	2328	77	-17	320	-15728	-1500	-4108	-150	-218	190	128	127	8
-2284	-11820	11348	148	-354	-315	-16144	1724	1888	-585	-375	-198	-15768	3728	-2584	-42	-28	-5	-6172	12180	8932	-96	35	-29	-16540	1492	2168	-50	41	298	-15812	-1616	-4088	-262	-335	163	129	127	8
-2452	-11620	11644	-507	-545	-695	-16032	1740	2056	-927	-485	-37	-15712	3800	-2680	-61	-47	8	-6184	12248	8928	-12	79	20	-16472	1432	2032	-187	110	233	-15620	-1616	-4132	-315	-281	137	129	127	8
-2508	-12040	11768	-1540	-629	-1131	-16044	1596	2160	-1641	-894	-82	-15592	3760	-2320	-93	-53	22	-6036	12032	9008	116	56	65	-16492	1292	2100	-80	98	222	-15576	-1512	-4164	-399	-216	205	129	127	8
-2512	-11848	11492	-2396	-971	-1679	-15588	1724	2124	-2124	-846	120	-15336	3936	-2072	-120	-56	25	-6160	12188	8836	268	109	151	-16540	1288	2168	26	22	292	-15616	-1580	-4356	-338	-145	184	128	127	8
-2196	-12472	10964	-2598	-1265	-2034	-15788	912	1568	-2380	-936	122	-15360	3552	-2632	-200	-42	39	-6232	12144	8972	328	88	318	-16460	1384	2028	-69	42	281	-15556	-1428	-4340	-427	-109	190	128	127	8
-1304	-12720	10152	-2043	-1267	-1951	-15996	60	824	-2093	-785	-28	-15856	2944	-2872	-194	-15	9	-6216	12252	8884	460	103	390	-16500	1328	2140	-260	22	348	-15520	-1196	-4500	-630	-105	114	128	127	8
-1368	-12636	10136	-1281	-1153	-1608	-16396	252	740	-1367	-737	-98	-15872	2840	-3120	-137	19	-25	-6172	12264	8948	577	66	558	-16492	1272	1968	-294	13	308	-15548	-1084	-4504	-764	-131	5	128	127	8
-1368	-12592	10324	-663	-1021	-1177	-16388	628	1212	-1432	-790	-302	-16088	2952	-3136	-129	23	-36	-6204	12448	8744	537	-10	616	-16540	1492	1632	-289	-82	361	-15656	-992	-4416	-793	-130	-108	128	127	8
-1368	-12724	10352	-301	-985	-906	-16176	396	1452	-1519	-661	-533	-16032	3040	-2376	-130	-23	-32	-6060	12672	8464	283	-160	505	-16580	1672	1296	-356	-133	383	-15720	-900	-4440	-750	-155	-75	128	127	8
-1216	-12568	10432	5	-786	-655	-16192	128	1952	-931	-595	-466	-16088	2680	-2384	-89	-38	-29	-5952	12676	8544	-131	-344	326	-16740	1760	1132	-398	-126	434	-15788	-924	-4480	-636	-141	57	128	127	8
-1280	-12544	10556	38	-768	-658	-16336	336	2132	-312	-482	-447	-16192	3008	-1856	-12	-31	-37	-5856	12608	8320	-554	-527	67	-16736	1812	1320	-290	-119	483	-15904	-1096	-4260	-544	-162	190	128	127	8
-1180	-12752	10476	395	-525	-256	-16256	64	1628	-54	-246	-510	-16248	2976	-2072	32	-37	-40	-5904	12448	8656	-841	-540	-101	-16644	1748	1692	-178	-132	468	-15892	-1308	-4128	-362	-194	286	128	127	8
-880	-12732	10192	893	-200	107	-16408	-256	1720	583	-86	-545	-16272	2776	-1800	90	-28	-65	-5876	12348	8848	-896	-489	-255	-16632	1708	1920	1	-177	461	-15932	-1496	-4032	-187	-213	311	128	127	8
-1268	-12852	10548	1071	-7	364	-16132	148	1668	846	148	-569	-16256	2776	-1808	132	-31	-80	-5824	12488	8864	-1010	-466	-333	-16628	1900	1976	104	-114	438	-15940	-1496	-4056	-6	-312	309	128	127	8
-1332	-12776	10488	1093	40	378	-16124	400	1692	782	186	-513	-15960	2944	-1696	112	-30	-82	-5644	12492	8668	-1241	-397	-545	-16656	2156	1936	-255	83	415	-16044	-1100	-4024	-183	-379	376	128	127	8
-1348	-12188	10624	1373	178	582	-16064	568	1640	494	220	-498	-15960	3064	-1856	55	-18	-70	-5812	12316	8916	-1401	-302	-673	-16604	1816	1952	-552	137	347	-15968	-1104	-4044	-429	-329	410	128	126	8
-1300	-12208	10708	1447	148	626	-16116	572	1564	86	258	-473	-15840	3176	-1888	5	-16	-59	-5948	12152	9064	-1316	-277	-724	-16556	1520	1940	-447	113	280	-15796	-1244	-3928	-402	-329	390	128	127	8
-1344	-12392	10936	1319	85	631	-16052	640	1724	58	305	-440	-15896	3048	-2320	-7	-22	-62	-5888	12036	9104	-1158	-234	-698	-16460	1568	2072	-216	86	302	-15652	-1220	-3972	-199	-278	279	127	126	8
-1492	-12024	10924	1333	190	605	-16068	800	1976	-20	309	-413	-15808	3192	-2192	-11	-14	-59	-5896	12020	9040	-1040	-173	-653	-16584	1600	1900	-169	62	258	-15636	-1228	-4044	-102	-197	249	127	127	8
-1876	-12196	11184	969	181	434	-15916	1056	1884	-137	361	-341	-15752	3168	-2112	2	-23	-45	-5972	11916	9212	-939	-186	-571	-16544	1392	2036	-96	-59	208	-15668	-1356	-4060	39	-176	160	127	127	8
-1964	-11836	11284	532	14	157	-15960	1196	2000	-188	291	-233	-15616	3312	-2304	14	-25	-41	-5972	11912	9200	-780	-139	-518	-16524	1404	2180	51	-83	197	-15640	-1556	-4160	224	-245	80	127	127	8
-1708	-11556	11316	229	-47	-48	-16032	1124	2040	-39	156	-135	-15752	3240	-2216	29	-10	-14	-5996	11820	9272	-484	-60	-361	-16480	1360	2208	144	-138	250	-15668	-1624	-4220	318	-224	93	127	126	8
-1896	-11816	11476	-227	-158	-316	-16044	1340	2008	-110	35	-41	-15752	3232	-2160	37	3	-3	-5992	11836	9332	-246	9	-249	-16460	1424	2316	170	-189	205	-15668	-1620	-4220	308	-168	114	127	126	8
-1884	-11720	11268	-763	-326	-614	-16040	1144	1900	-241	-31	82	-15768	3256	-2176	38	-8	20	-6008	11828	9296	-26	31	-109	-16476	1496	2288	165	-144	189	-15684	-1612	-4052	235	-106	169	127	126	8
-1724	-11624	11232	-1143	-294	-846	-16092	1196	2132	-200	-204	166	-15576	3280	-2440	27	12	42	-5944	11932	9272	169	92	-23	-16480	1404	2264	148	-161	148	-15660	-1536	-4248	225	-66	196	127	127	8
-1660	-11816	11168	-1422	-286	-1039	-16104	1136	1836	-406	-363	206	-15744	3312	-2440	8	15	59	-5968	11884	9196	384	172	121	-16504	1432	2248	213	-171	136	-15664	-1480	-4244	232	-94	197	127	127	8
-1432	-12400	10604	-1351	-469	-1056	-16028	476	1300	-345	-367	221	-15672	2952	-2408	-11	10	68	-5944	12008	9172	504	184	194	-16520	1524	2032	302	-191	150	-15768	-1332	-4248	307	-104	131	127	127	8
-924	-12476	10316	-742	-246	-819	-16288	-144	1324	503	-344	159	-15944	2664	-2728	28	37	48	-5876	12068	9088	622	215	197	-16548	1632	2060	262	-174	158	-15752	-1256	-4244	309	-75	105	127	127	8
-1296	-12940	10412	-223	-136	-564	-16232	136	1052	940	-383	41	-15904	2824	-2616	89	45	26	-5844	12128	9060	586	205	206	-16552	1728	1928	253	-186	135	-15844	-1196	-4048	234	-98	75	127	127	8
-1224	-12896	10364	258	-175	-350	-16148	176	1080	846	-346	-64	-15856	2712	-2744	88	28	14	-5732	12144	8960	556	259	120	-16700	1852	1916	284	-119	155	-15904	-1108	-4092	131	-126	58	127	127	8
-1136	-12820	10488	761	-38	-46	-16240	24	1280	827	-328	-113	-15944	2696	-2288	78	24	-5	-5780	12256	9052	463	334	34	-16500	1904	2104	221	-66	84	-16056	-1216	-3932	28	-250	-8	127	127	8
-1304	-12832	10528	986	-33	151	-15980	100	1384	786	-226	-167	-16112	2984	-2392	80	13	-21	-5796	12212	9184	463	402	-16	-16596	1896	1976	163	16	39	-15932	-1216	-3980	-54	-250	-69	127	127	8
-1204	-12464	10632	1235	144	316	-16260	264	1540	661	-149	-168	-16040	3320	-2112	44	0	-29	-5840	12308	9036	361	431	-59	-16616	1728	1960	26	44	-10	-15916	-1276	-4132	-153	-222	-146	127	127	8
-1264	-12576	10684	1519	228	545	-16280	364	1488	498	-42	-243	-16040	3192	-2064	19	-3	-45	-5900	12304	8948	284	475	-187	-16756	1728	1868	12	84	-23	-15884	-1276	-4236	-249	-146	-106	128	127	8
-1272	-12428	10636	1829	344	728	-16172	200	1684	414	60	-272	-15936	3056	-2248	10	6	-58	-5860	12384	8808	98	457	-242	-16488	1728	1840	20	75	37	-15772	-1216	-4248	-333	-195	12	127	127	8
-1428	-12268	10808	2002	441	878	-16044	460	1520	448	167	-321	-15808	3072	-2536	3	2	-72	-5952	12580	8800	-151	358	-368	-16488	1808	1516	-40	94	41	-15624	-1140	-4332	-337	-253	70	127	127	8
-1596	-12160	11068	2029	496	907	-16012	804	1540	298	167	-364	-15992	3080	-2416	-5	-6	-72	-5956	12592	8596	-632	179	-586	-16660	1948	1280	-263	187	143	-15720	-820	-4616	-441	-245	183	127	127	8
-1696	-11992	11128	1788	436	819	-16048	844	1792	200	158	-348	-15824	3024	-2528	8	-8	-68	-5840	12608	8596	-1242	-4	-885	-16708	1800	1100	-592	269	156	-15740	-748	-4584	-673	-242	307	128	127	8
-1920	-11788	11420	1434	379	648	-16008	1060	1784	88	76	-286	-15576	3120	-2496	-5	-14	-53	-5860	12416	8784	-1765	-130	-1151	-16696	1788	1044	-631	281	228	-15668	-880	-4540	-761	-251	411	128	127	8
-2100	-11628	11672	787	219	274	-15884	1456	2000	-227	-40	-182	-15784	3160	-2376	-17	-19	-34	-6032	12156	8976	-2035	-308	-1266	-16428	1460	1572	-484	161	347	-15636	-1136	-4204	-597	-271	421	128	127	8
-2108	-11244	11820	-75	56	-226	-15868	1796	2232	-825	-204	-69	-15648	3496	-2048	-44	-23	0	-6020	11956	9060	-2099	-391	-1253	-16348	1392	1964	-385	101	333	-15528	-1396	-4132	-397	-204	388	128	127	8
-2464	-11208	12120	-1298	-371	-902	-15848	2072	2516	-1355	-410	109	-15376	3568	-2056	-86	-32	35	-6064	11788	9344	-1890	-410	-1114	-16372	1280	2216	-304	115	317	-15552	-1708	-4268	-242	-97	354	127	127	8
-2536	-11068	12320	-2821	-729	-1721	-15692	2364	2744	-2206	-739	460	-15400	4016	-1928	-156	-49	76	-6092	11512	9580	-1553	-338	-939	-16508	1312	2504	-248	39	336	-15636	-1800	-4256	-142	-46	260	127	127	8
-2460	-11236	12128	-4456	-1212	-2689	-15576	2208	2816	-2981	-1026	676	-15368	4344	-1880	-225	-58	121	-6136	11456	9664	-1038	-239	-624	-16500	1156	2708	-209	-1	299	-15540	-1968	-4268	-210	1	244	127	127	8
-1724	-12124	11084	-5406	-1470	-3213	-15680	796	2428	-3070	-1227	766	-15560	3872	-1944	-253	-54	138	-6124	11372	9788	-906	-170	-515	-16480	1024	2888	-6	-39	258	-15504	-1928	-4144	-267	35	212	127	127	8
-504	-13200	9468	-4978	-1250	-2989	-16080	-864	1332	-1934	-914	529	-15928	2848	-2280	-169	-21	99	-6052	10948	9944	726	222	272	-16420	920	3160	199	-110	195	-15564	-1916	-4184	-210	22	49	127	127	8
-332	-13488	9240	-3570	-786	-2330	-16600	-1372	468	-436	-575	318	-16232	1960	-2640	-9	21	42	-6232	11164	10100	1730	569	776	-16504	964	3048	397	-325	134	-15792	-1776	-4116	-40	-70	-181	127	127	8
-268	-13632	9268	-3325	-686	-2164	-16556	-796	272	269	-385	121	-16272	1688	-2856	86	46	-11	-6152	11496	9800	2599	717	1225	-16452	1196	2488	566	-407	4	-15816	-1460	-4068	220	-191	-454	127	127	8
-180	-13820	9116	-503	-356	-633	-16616	-860	436	216	-128	-253	-16312	1696	-2552	91	38	-26	-5964	11992	9268	2991	842	1408	-16592	1548	2016	743	-610	-5	-15860	-1164	-4128	532	-238	-650	127	127	8
-480	-13384	9712	682	-21	59	-16484	-776	1320	553	55	-351	-16376	1920	-2120	94	25	-27	-5808	12672	8700	2638	798	1264	-16768	2224	964	819	-574	0	-16148	-828	-4040	803	-361	-638	127	127	8
-496	-13292	9772	1499	229	568	-16420	-468	1440	933	200	-387	-16352	2336	-1984	125	18	-29	-5640	13216	8156	1605	630	670	-16860	2812	416	691	-462	82	-16308	-540	-4172	887	-405	-311	127	126	8
-860	-12968	10108	1908	405	871	-16204	52	2060	1270	417	-374	-16136	2488	-1872	178	12	-19	-5648	13396	7944	214	243	-70	-16828	2616	4	478	-275	55	-16236	-492	-4136	881	-431	171	127	127	8
-848	-12748	10252	2122	652	1010	-16136	124	2072	1597	567	-313	-16104	2832	-1760	233	19	-17	-5784	13132	8260	-1009	-81	-772	-16884	2304	548	525	-268	92	-16228	-748	-4180	966	-456	641	127	127	8
-1060	-12676	10392	2252	783	1185	-16088	216	1940	1937	660	-266	-16048	3016	-1944	274	30	-17	-5856	12692	8632	-1860	-355	-1224	-16680	1936	1196	692	-218	154	-15968	-1252	-4080	1164	-505	949	127	127	8
-1208	-12600	10568	2343	786	1140	-15984	500	1644	2020	729	-197	-15744	2840	-1856	268	34	-18	-5860	12392	8852	-2370	-431	-1465	-16496	1788	1852	755	-209	199	-15812	-1476	-4012	1413	-504	970	127	127	8
-1336	-12492	10556	2344	813	1256	-15984	572	1552	1991	770	-93	-15696	3008	-2112	242	42	-18	-5880	12132	9056	-2551	-447	-1592	-16392	1716	2048	504	-85	171	-15680	-1440	-4068	1308	-492	915	126	127	8
-1536	-12348	10632	2334	744	1137	-15960	852	1512	1797	743	-120	-15672	3112	-2088	211	49	-12	-5932	11748	9408	-2518	-372	-1520	-16404	1424	2588	179	21	153	-15624	-1388	-4256	989	-485	817	127	127	8
-1704	-12168	10980	2159	662	1080	-15952	1004	1580	1540	663	-28	-15616	3152	-2464	182	48	-1	-6160	11528	9588	-2095	-310	-1314	-16368	1164	2668	40	16	165	-15560	-1528	-4136	677	-477	692	127	127	8
-1768	-11984	11168	1764	482	815	-16008	1260	1744	1250	590	-15	-15664	3136	-2416	153	56	6	-6052	11268	9684	-1611	-170	-1054	-16412	1336	2692	84	47	157	-15632	-1624	-4028	505	-282	487	127	127	8
-1844	-11852	11348	1253	365	487	-15940	1536	1888	815	476	45	-15648	3384	-2576	132	45	20	-6016	11188	9668	-1006	23	-768	-16496	1332	2740	77	68	109	-15504	-1560	-4108	376	-66	411	127	127	8
-1956	-11660	11436	507	191	82	-15916	1684	1996	397	273	195	-15456	3664	-2624	108	29	33	-5920	11032	9904	-281	291	-462	-16504	1364	2952	48	54	63	-15616	-1788	-4164	356	117	198	127	127	8
-2140	-11644	11604	-337	-81	-392	-15848	1964	2184	-43	120	250	-15520	3752	-2536	79	20	44	-6312	11276	9780	507	533	-135	-16528	836	2900	321	-93	14	-15760	-1980	-4044	512	124	23	127	127	8
-2348	-11480	11896	-1491	-331	-1045	-15788	2120	2256	-610	-157	469	-15448	3912	-2592	40	12	72	-6280	11248	9908	1230	589	310	-16388	1156	2908	333	-88	-61	-15680	-2140	-3944	492	41	-140	127	127	8
-2128	-11768	11492	-2543	-697	-1674	-15760	1904	2212	-1150	-410	596	-15312	4008	-2584	-19	7	99	-6156	11588	9580	1727	743	614	-16384	1336	2564	284	-176	-129	-15604	-1864	-4076	388	-45	-203	127	127	8
-1532	-12228	10876	-3081	-864	-2040	-16032	868	1676	-1320	-527	570	-15680	3632	-2728	-60	17	107	-6044	11660	9560	2052	793	855	-16400	1484	2344	282	-47	-112	-15640	-1612	-4084	207	-2	-198	127	127	8
-952	-12836	10188	-2869	-773	-1937	-16232	-40	1028	-885	-485	466	-15880	3032	-2904	-43	31	81	-5968	11884	9228	2232	932	881	-16652	1596	2320	291	-153	-76	-15812	-1412	-4292	73	216	-123	127	127	8
-592	-13440	9592	-1870	-496	-1418	-16496	-588	460	-230	-283	225	-16192	2496	-2968	-2	45	34	-6100	12180	8888	2138	937	848	-16488	1600	1796	129	-63	-103	-15812	-1240	-4344	-151	176	-117	127	127	8
-512	-13540	9580	-550	-263	-674	-16608	-784	372	368	-122	-1	-16384	2152	-3216	48	45	-13	-6044	12544	8788	1802	790	731	-16552	1884	1320	75	-24	-56	-15868	-788	-4392	-239	77	-120	127	127	8
-712	-13200	9768	532	-31	-4	-16460	-456	568	676	-10	-106	-16136	1992	-2944	89	31	-45	-5996	12720	8476	1139	533	466	-16632	1964	924	-72	19	-19	-15796	-524	-4372	-240	-73	-55	127	127	8
-968	-12972	10052	1239	60	404	-16312	160	1132	667	50	-169	-15968	2536	-2688	88	10	-44	-5972	12756	8556	1080	568	426	-16676	1964	608	32	23	12	-15776	-772	-4400	-132	-211	34	127	126	8
-1124	-12836	10328	1579	178	626	-16168	424	1356	501	132	-221	-15864	2568	-2672	65	-8	-20	-6004	12972	8444	-521	-89	-311	-16720	2036	548	292	-63	203	-15888	-856	-4432	123	-337	256	127	127	8
-1048	-12764	10392	1861	303	785	-16264	372	1520	760	143	-286	-15952	2920	-2440	103	-11	-14	-5920	12896	8488	-1435	-353	-800	-16648	1916	1000	167	111	263	-15844	-992	-4520	292	-432	580	127	126	8
-1108	-12612	10488	2032	403	968	-16228	488	1696	1240	232	-281	-16088	3032	-2504	171	-1	-20	-6000	12348	8744	-2037	-549	-1059	-16600	1556	1532	132	47	284	-15732	-1308	-4376	315	-452	757	127	126	8
-1276	-12548	10716	2066	517	1055	-16188	556	1488	1306	156	-344	-15816	3176	-2616	204	-15	-33	-6048	12200	9052	-2234	-671	-1190	-16428	1472	1920	233	68	347	-15684	-1552	-4348	424	-401	813	127	127	8
-1352	-12312	10604	2009	566	1137	-16064	668	1488	1303	250	-410	-15736	3216	-2376	187	-30	-43	-6024	11852	9312	-2226	-632	-1179	-16416	1496	2352	165	124	388	-15636	-1584	-4080	411	-356	805	127	127	8
-1508	-12352	10776	2036	544	1195	-16048	692	1608	1154	232	-466	-15896	3360	-2240	153	-28	-52	-6068	11752	9508	-2005	-534	-1060	-16488	1464	2400	117	119	371	-15664	-1428	-4340	164	-272	734	127	127	8
-1532	-12240	10776	1945	508	1133	-15964	896	1300	868	284	-513	-15808	3280	-2640	109	-28	-62	-6284	11804	9708	-1569	-473	-875	-16284	1532	2128	-244	575	525	-15612	-1244	-3952	-88	-239	556	127	127	8
-1816	-12104	11000	1688	403	1039	-15920	960	1472	486	295	-523	-15536	3352	-2648	64	-30	-64	-6200	11796	9508	-1094	-506	-720	-16196	1604	1984	-478	743	440	-15672	-1160	-3920	-695	20	341	127	127	8
-1816	-11968	11284	1369	336	819	-16044	1288	1684	-13	164	-487	-15584	3312	-2472	25	-29	-55	-6280	11612	9596	-633	-419	-443	-16424	1540	1980	-688	757	300	-15676	-1100	-3888	-775	86	258	127	127	8
-2336	-11820	11552	452	160	439	-15956	1272	1900	-180	166	-487	-15584	3432	-2376	-7	-57	-39	-5880	11608	9496	-378	-362	-278	-16724	1340	2192	-532	580	212	-16508	-1292	-4160	-2102	299	-266	127	125	8
-2168	-11164	11768	-403	-90	-101	-16024	1848	2112	-1138	-80	-102	-15720	3680	-2216	-39	-75	-21	-6116	11636	9684	-147	-206	-132	-16532	1428	1952	-436	462	179	-17612	-1608	-4336	-3566	-191	-1323	127	127	8
-2224	-11280	11976	-1459	-329	-733	-15964	2280	2408	-1849	-294	167	-15760	4040	-2128	-103	-84	14	-7032	12684	9380	596	-161	270	-16192	1900	1468	-682	755	-69	-18228	-1004	-3712	-4232	-2932	-2623	127	122	8
-2564	-10932	12256	-2964	-728	-1607	-15900	2644	2376	-2792	-702	439	-15416	4184	-2152	-201	-102	54	-5812	12104	9060	867	-360	525	-16312	2208	1988	-1279	1025	-235	-19436	-1452	-3660	-4620	-5745	-2236	126	126	8
-2204	-11368	11744	-4334	-1218	-2463	-15668	2004	2484	-3746	-989	723	-15384	4168	-2192	-300	-105	101	-4940	11796	8908	-58	-280	107	-16576	2792	2152	-1583	899	-439	-13124	-2672	-2940	-3967	-7704	-86	126	128	8
-1080	-12716	10148	-4402	-1335	-2656	-15920	4	1604	-3462	-888	533	-15512	3704	-2640	-336	-81	102	-5092	11948	9048	-140	-238	9	-16744	1236	1940	-1396	965	-458	-13764	-1340	-2744	-2010	-3949	1456	126	128	8
-440	-13804	8992	-3032	-940	-2009	-16628	-1428	308	-1459	-644	122	-16120	2392	-3168	-240	-25	33	-6140	11264	9832	-353	-179	-222	-16832	508	1996	-688	392	-406	-14772	-836	-3896	-1119	-1693	872	126	128	8
-80	-13792	8912	-1092	-453	-960	-16832	-1196	16	234	-550	-176	-16208	1720	-3600	-57	50	-53	-5880	11336	9708	-199	-147	-61	-16680	1164	1992	-795	397	-377	-14656	-364	-3956	-709	-557	382	127	127	8
-560	-13668	9600	560	-155	-123	-16684	-488	172	614	-456	-441	-16120	1992	-3216	35	49	-98	-5704	11720	9480	-133	-43	-127	-16724	1228	1720	-757	230	-252	-15424	-620	-3692	-954	-305	-56	127	126	8
-828	-13344	9772	1558	-14	496	-16188	-252	640	181	-304	-691	-16000	2056	-2864	0	-19	-96	-6164	12312	9188	-82	-142	-135	-16480	1488	1084	-508	383	-93	-16272	-612	-3264	-1147	-449	-230	127	127	8
-980	-13156	9912	2190	-16	829	-15972	-280	1216	255	-82	-758	-16008	2208	-2160	-8	-50	-100	-5580	12032	9164	-572	-251	-408	-16756	2172	1480	-780	451	-154	-16144	-584	-3244	-1480	-562	6	127	126	8
-860	-12968	9804	2656	171	1148	-16068	-164	1504	798	139	-822	-16088	2672	-1624	61	-30	-105	-5788	12056	9200	-1154	-293	-684	-16616	1632	1124	-1013	571	-197	-15996	-1072	-3284	-1573	-539	210	127	126	8
-980	-12620	10396	3186	384	1489	-16228	168	1748	1166	334	-890	-16248	3104	-1544	115	0	-107	-5884	11988	9368	-1568	-290	-942	-16680	1424	1416	-715	444	-126	-16156	-1576	-3316	-1071	-519	231	127	127	8
-1288	-12172	10828	3238	529	1600	-16148	548	2080	1282	432	-829	-16288	3160	-1544	138	18	-111	-5640	11412	9424	-1951	-337	-1181	-16732	1388	1600	-488	457	-67	-15964	-1512	-3400	-476	-446	312	127	127	8
-1624	-11928	11092	3040	611	1519	-15908	756	2208	1068	534	-662	-16280	3152	-1104	94	4	-112	-5520	11488	9636	-2215	-156	-1440	-16676	1492	1944	-288	187	4	-15904	-1496	-3508	4	-432	379	127	127	8
-1752	-11832	11268	2562	515	1267	-15872	836	2244	719	533	-455	-15904	3120	-1392	28	-3	-91	-5768	11248	9700	-2350	-14	-1536	-16600	1084	1840	-125	111	33	-15724	-1624	-3600	442	-325	464	127	127	8
-1780	-11916	11260	2136	488	1003	-15976	812	2184	514	505	-289	-15888	3008	-1664	-26	5	-66	-5924	10984	9980	-2201	75	-1497	-16608	848	1968	-24	58	132	-15708	-1400	-3728	785	-109	387	127	127	8
-1656	-11788	11236	1867	451	851	-16096	660	1788	572	509	-138	-15976	2712	-2008	-35	2	-46	-5652	10724	10032	-2271	224	-1500	-16708	1056	2168	333	-182	238	-15316	-1328	-3832	1068	176	262	127	126	8
-1744	-11628	11284	1610	441	703	-16032	888	1616	759	431	-53	-15848	2728	-2440	-8	18	-34	-5448	10592	9908	-2660	325	-1665	-16688	836	2184	384	-254	209	-15568	-1296	-4264	1282	552	121	127	126	8
-1840	-11532	11316	1269	413	506	-16256	1228	1684	592	329	76	-15680	2688	-2568	6	31	-14	-5516	10980	9916	-3005	537	-1887	-17080	816	2008	1073	-885	588	-15640	-1272	-4388	1375	619	51	127	126	8
-2132	-11924	11584	816	274	272	-16216	1076	1648	143	195	84	-15632	2896	-2912	13	35	7	-6776	11056	10600	-2500	693	-1551	-16780	36	1428	1433	-1257	653	-15108	-1428	-4388	1564	891	48	127	126	8
-2068	-11628	11508	321	60	-38	-15964	1036	1592	230	95	111	-15504	3016	-2712	45	20	18	-7012	10812	10764	-2305	685	-1411	-16540	-52	1992	2133	-1474	813	-14712	-1844	-4168	2016	1383	76	127	126	8
-2140	-11348	11684	-311	-79	-420	-15900	1540	1928	236	-61	239	-15416	3160	-2880	65	21	39	-6912	10356	11044	764	541	204	-16232	392	2464	2626	-1602	842	-14240	-2156	-3872	2645	2271	103	127	126	8
-2336	-11724	11660	-1076	-392	-948	-15876	1652	1912	-243	-168	360	-15624	3256	-2224	49	34	66	-6708	10524	10708	2112	567	951	-16028	724	2932	2399	-1462	822	-15280	-2008	-3560	3414	3632	-51	127	126	8
-1692	-11820	11112	-1450	-500	-1200	-16048	700	1860	-25	-265	377	-15712	3096	-2560	60	60	94	-6524	10124	10716	3319	720	1756	-16100	916	3132	1935	-1409	658	-17204	-1992	-3824	2979	3147	-487	127	126	8
-1536	-12064	10996	-1531	-464	-1311	-16068	440	1672	869	-231	361	-15760	2616	-2744	154	92	92	-6616	10776	10560	4557	823	2468	-16152	1348	2888	1408	-1066	471	-16448	-2624	-3708	1863	1379	-418	126	126	8
-1824	-12536	11188	-1621	-463	-1324	-16176	476	1364	938	-244	324	-15880	2520	-2480	232	75	100	-6284	11252	10156	5468	919	2848	-16292	1440	2576	1514	-886	239	-16052	-2588	-3256	1784	582	-178	126	127	8
-1312	-12316	10648	-1564	-556	-1282	-16032	440	1292	862	-209	394	-16008	2448	-2224	247	39	97	-5656	11924	9296	5377	978	2849	-16436	1980	1896	1660	-947	238	-15788	-1768	-3040	2364	726	-20	126	126	8
-1208	-12368	10512	-1319	-333	-1072	-16148	56	1160	802	-163	321	-16088	2352	-1928	245	48	93	-5500	12544	8532	4543	928	2354	-16688	2680	1060	1261	-786	159	-15832	-928	-3172	3095	1208	443	126	126	8
-1148	-12740	10524	-829	-241	-788	-16324	-172	944	623	-17	342	-16360	2472	-2208	234	45	92	-5548	13148	8180	3190	730	1618	-16700	2888	92	891	-575	228	-16376	-468	-3280	3373	1466	932	126	126	8
-684	-12888	10096	-68	28	-296	-16568	-648	948	926	84	219	-16416	2264	-2904	207	36	80	-5672	13596	7712	1599	270	710	-16700	3072	-540	533	-53	286	-17488	-116	-3516	2487	1298	1020	126	127	8
-924	-12832	10272	720	437	245	-16516	-432	792	1451	225	146	-16256	2288	-2640	231	27	49	-5828	13616	7816	-54	-206	-121	-16772	3156	-280	193	359	284	-17120	116	-4032	1231	311	1135	126	127	8
-1184	-12712	10528	1384	577	656	-16424	100	868	1529	291	146	-16224	2440	-2800	228	8	23	-5764	13720	7920	-1776	-634	-965	-16780	3304	8	-329	862	224	-16296	-148	-3548	32	-531	1506	127	127	8
-1480	-12472	10684	1728	595	882	-16216	400	948	1062	235	120	-15928	2976	-2552	149	-14	9	-4904	13276	7724	-3609	-996	-2031	-16872	3364	660	-1188	1311	204	-16216	20	-3668	-532	-324	1692	127	127	8
-1308	-12472	10544	2160	612	1124	-16216	116	840	667	201	73	-15776	2824	-2760	67	-20	-8	-5064	12404	8416	-5262	-965	-3086	-16744	2732	1332	-1908	1420	218	-16444	-248	-3676	-1159	169	1682	127	127	8
-1276	-12484	10680	2678	795	1439	-16224	64	952	696	272	-37	-15736	2864	-2688	29	-10	-32	-5488	11864	9008	-6213	-871	-3682	-16412	1664	1732	-1922	1390	234	-16244	-832	-3860	-1988	206	1270	127	127	8
-1472	-12256	10892	3167	1068	1669	-16092	484	1300	727	289	-38	-15808	2896	-2408	23	-10	-49	-5632	11144	9708	-6359	-491	-3802	-16608	1152	2340	-1284	1129	305	-15576	-1348	-3656	-2065	181	1089	126	127	8
-1916	-11552	11540	2725	1165	1541	-16052	1444	1528	52	100	-44	-15512	3320	-2240	-25	-25	-46	-6284	10116	10696	-5471	-242	-3433	-16336	292	3032	-572	713	95	-15488	-2044	-3512	-1494	129	899	127	127	8
-2588	-11228	12072	1868	823	1104	-15916	2112	1784	-1307	-97	184	-15400	3880	-2472	-124	-47	-19	-6416	9840	10996	-4112	-50	-2641	-16416	364	3360	179	266	-29	-15416	-2576	-3784	-529	238	568	127	127	8
-2804	-10932	12092	745	347	442	-15844	2380	2168	-2185	-292	332	-15544	4136	-2088	-230	-46	12	-6808	9712	11308	-2513	344	-1717	-16408	324	3524	457	65	-140	-15512	-2668	-3980	158	219	263	127	127	8
-2676	-10756	12156	-518	24	-348	-15848	2572	2408	-2623	-469	502	-15552	4528	-2072	-290	-39	44	-6856	9036	11744	-453	666	-555	-16444	252	3976	448	-60	-313	-15492	-2636	-4088	257	222	169	127	127	8
-2996	-10696	12544	-2052	-517	-1256	-15852	2844	2636	-2995	-659	802	-15288	4736	-2032	-303	-22	80	-6872	9164	11764	1888	1065	756	-16684	-284	4092	676	-352	-451	-15124	-2876	-4628	1199	332	-293	126	127	8
-2844	-10768	12544	-3842	-1077	-2288	-15732	2912	2720	-3357	-881	1001	-15240	4696	-2408	-304	-21	118	-6916	9600	11532	4249	1363	2083	-16456	-204	3900	915	-576	-457	-15256	-2724	-4744	1609	526	-520	126	127	8
-2436	-11024	12084	-5426	-1447	-3218	-15484	2420	2740	-3527	-1122	1152	-15368	4632	-2360	-313	-21	153	-6704	9824	11092	6335	1619	3269	-16080	36	3740	880	-867	-534	-14936	-2324	-4784	1562	547	-711	126	127	8
-1920	-11980	11204	-6392	-1607	-3824	-15432	1336	2196	-3408	-1364	1176	-15296	3960	-2552	-284	-13	159	-6416	10568	10356	7802	1781	4156	-15756	476	3136	842	-984	-515	-14924	-1808	-4936	1164	841	-955	126	127	8
-312	-13632	9056	-5713	-1558	-3539	-16112	-1144	464	-2163	-1017	670	-15624	2784	-3200	-199	12	137	-6220	11716	9400	8322	1921	4489	-15844	520	2984	862	-975	-511	-15120	-1128	-5448	476	617	-1224	126	127	8
92	-14176	8520	-3411	-699	-2449	-16680	-1916	-672	242	-580	221	-15976	1280	-3848	6	85	60	-5772	13344	8000	7443	1691	4108	-16784	2696	-124	338	-581	-77	-15384	12	-5336	-418	519	-1123	126	127	8
-400	-14036	9092	-1442	-501	-1272	-16912	-800	-596	1364	-388	5	-16368	1048	-3968	202	143	-17	-5376	14576	6784	4957	1206	2804	-17292	4124	-2016	-592	-32	322	-16392	1392	-5148	-1499	430	-475	127	126	8
-368	-13740	9196	252	-330	-317	-16800	-468	136	1167	-249	-357	-16408	1456	-3344	268	108	-47	-5472	14600	6816	2066	558	1268	-17188	3064	-2140	-1106	176	362	-16688	1836	-4608	-2163	242	251	127	126	8
-680	-13196	9908	1305	-61	362	-16452	-380	1200	1126	-140	-413	-16544	1808	-2392	220	35	-16	-5684	13944	7560	-37	-175	-80	-17228	2324	-1024	-346	-10	415	-16872	680	-3752	-1542	-271	552	127	126	8
-484	-12940	9920	2076	204	898	-16432	-508	1660	1393	102	-359	-16608	2112	-1808	213	-9	2	-5572	12912	8304	-1328	-565	-878	-17040	2268	464	820	-314	376	-16596	-1192	-3156	342	-735	518	127	126	8
-684	-13080	9972	2710	620	1367	-16292	-260	1640	1601	324	-367	-16776	2696	-1104	235	-22	6	-5680	12552	8576	-1858	-641	-1369	-16788	1848	1720	1584	-492	280	-16416	-2268	-3028	2363	-782	325	127	127	8
-832	-12772	10264	3210	908	1792	-16304	-76	1780	1847	521	-277	-16472	3224	-1312	231	-9	-9	-5468	12168	8944	-2000	-495	-1545	-16736	1968	2500	1743	-490	189	-16052	-2772	-3640	3182	-366	411	127	126	8
-1164	-12460	10584	3522	1166	2095	-16172	512	1688	1814	740	-233	-16432	3312	-1224	223	-6	-14	-5548	12184	8932	-2169	-110	-1779	-16692	1712	2788	1243	-260	151	-16124	-2804	-4264	2871	-3	688	126	127	8
-1464	-12128	10808	3550	1257	2208	-15992	920	1904	1561	871	-228	-15848	3648	-1824	161	16	-37	-5924	12064	9124	-2100	185	-1814	-16608	1600	2704	548	38	157	-15900	-2328	-4428	1781	-161	1087	126	127	8
-1888	-11844	11252	3145	1190	2007	-15744	1456	2196	1337	852	-52	-15704	3880	-1920	118	-6	-31	-6064	11788	9368	-1758	440	-1619	-16516	1136	2832	95	65	170	-15608	-1604	-4448	670	-519	1298	126	127	8
-2288	-11340	11680	2243	1004	1533	-15812	2216	2216	675	739	107	-15536	3968	-2328	83	-31	-19	-6252	11412	9564	-1126	595	-1252	-16256	1000	2648	-89	237	52	-15168	-1184	-4152	142	-661	1247	126	127	8
-2456	-11172	11904	974	686	812	-15948	2484	2148	-58	467	297	-15640	4088	-2784	32	-48	21	-6344	11580	9468	-491	732	-846	-16384	696	2328	-5	108	37	-15244	-880	-4400	-98	-368	898	126	127	8
-2580	-11492	11804	-157	348	175	-15768	2444	1820	-649	253	407	-15400	3944	-2816	-17	-52	52	-6460	11768	9232	-102	590	-509	-16236	976	1940	21	143	7	-15372	-760	-4272	-143	-199	355	126	127	8
-2500	-11404	11820	-1201	22	-507	-15744	2136	1888	-979	62	564	-15296	4008	-3208	-63	-38	67	-6252	11924	9040	-14	411	-260	-16176	1276	1700	-125	139	-49	-15316	-524	-4136	-224	91	-77	127	127	8
-2268	-11780	11424	-1979	-231	-1011	-15832	2060	1536	-941	-197	554	-15048	4192	-3224	-95	2	67	-6248	11852	9108	-14	340	-250	-16192	1332	1848	-231	124	-65	-15292	-772	-4256	-440	309	-364	126	127	8
-1992	-11996	11148	-2380	-472	-1436	-15840	1832	1096	-1129	-432	444	-15040	4216	-3696	-116	24	48	-6408	12008	9240	78	21	54	-16376	1104	1840	-196	61	-125	-15352	-1188	-4216	-613	518	-545	126	127	8
-1972	-12572	10772	-2393	-749	-1619	-15992	1368	624	-1191	-605	280	-15096	3944	-3608	-145	49	24	-6268	12060	8996	78	-104	219	-16420	1280	1932	-290	144	-57	-15440	-1376	-4268	-931	738	-552	126	127	8
-1320	-12768	10188	-1827	-784	-1456	-16132	556	636	-868	-617	-52	-15272	3496	-3864	-140	81	-1	-6032	11896	9212	166	-105	240	-16532	1584	2208	-484	234	-69	-15548	-1388	-4392	-1026	790	-545	126	127	8
-1524	-12960	10204	-1127	-760	-1205	-16276	576	372	-512	-662	-283	-15648	3056	-3768	-110	106	-33	-5968	11728	9320	420	119	279	-16680	1464	2496	-677	376	-159	-15992	-1612	-4376	-1879	792	-400	127	127	8
-988	-12912	10044	-288	-545	-711	-16616	-60	780	-286	-693	-556	-15944	2392	-3368	-53	97	-62	-5944	12064	9280	651	373	301	-16884	1608	2416	-751	384	-149	-16164	-1748	-4380	-1955	507	-524	127	127	8
-1128	-12712	10296	297	-370	-211	-16572	108	1420	-21	-627	-624	-16424	2144	-2464	4	67	-72	-5932	12492	8956	576	592	159	-16964	2092	1628	-996	492	-174	-16496	-1524	-4188	-1893	197	-480	127	127	8
-596	-13132	9972	1162	24	423	-16556	-900	1280	432	-395	-705	-16816	2056	-1944	28	11	-72	-5772	12740	8528	48	732	-242	-16944	2268	1224	-1157	654	-225	-16652	-1136	-3988	-1751	-70	-252	127	127	8
-592	-13408	9484	2466	464	1217	-16436	-1332	812	1192	75	-774	-16840	1608	-1920	82	-3	-88	-5760	12708	8528	-693	747	-846	-17104	2380	832	-1318	647	-233	-16500	-936	-4144	-1516	-154	110	127	127	8
-908	-12832	10044	3581	820	1999	-16408	-872	1164	1961	333	-682	-16528	1832	-1512	174	18	-129	-5868	12728	8472	-1500	636	-1404	-17056	2000	692	-1219	582	-254	-16328	-776	-4288	-1172	-284	390	127	127	8
-1384	-12436	10504	4316	1095	2498	-16144	356	1260	1641	529	-581	-16408	2568	-1832	154	10	-132	-6160	12516	8744	-2210	445	-1912	-16688	1680	756	-1062	540	-221	-15896	-832	-4636	-775	-279	602	127	127	8
-1708	-12128	10832	4640	1134	2665	-15908	648	1324	977	695	-560	-15776	3024	-1648	51	9	-107	-6100	12188	8708	-2759	301	-2259	-16464	1340	1164	-916	535	-167	-15460	-956	-4720	-398	-292	653	127	127	8
-1904	-11908	11164	4758	1186	2722	-15824	764	1648	947	806	-519	-15640	3224	-2120	-2	23	-97	-6164	11764	8996	-3057	137	-2344	-16348	1156	1452	-813	626	-55	-15316	-1264	-4940	-131	-78	696	127	127	8
-2264	-11432	11620	4454	1200	2524	-15848	1460	1808	975	717	-384	-15720	3512	-2232	-1	37	-81	-6348	11496	9456	-2887	263	-2361	-16620	700	2072	-801	445	117	-15076	-1548	-5532	-27	162	634	127	127	8
-2716	-11000	12080	3591	972	2029	-15840	2196	2164	530	663	-162	-15520	3528	-2328	10	24	-56	-6860	11120	9888	-2465	155	-2025	-16432	-16	2084	-677	301	211	-15004	-1828	-5544	23	133	583	127	127	8
-3000	-10584	12596	2317	732	1271	-15988	2472	2300	-92	433	25	-15576	3664	-2520	-5	0	-11	-6608	11056	9892	-1889	236	-1661	-16440	376	2360	-292	195	442	-15116	-1708	-5692	223	270	569	127	127	8
-3508	-10244	13064	511	202	253	-15988	3048	2420	-628	174	385	-15336	3744	-2280	-1	0	42	-6584	10984	9788	-1755	258	-1612	-16524	160	2272	-152	-147	422	-15104	-1952	-5388	221	12	618	127	127	8
-3548	-9668	13156	-1730	-393	-1000	-15952	3764	2676	-1543	-195	799	-15104	4224	-2888	-55	-7	113	-7048	10624	10292	-157	457	-474	-16340	-332	2544	476	-318	488	-14952	-2240	-4924	505	-66	574	127	127	8
-3764	-9952	13352	-4317	-1155	-2551	-15768	4032	3088	-2588	-671	1159	-15096	4624	-2880	-96	-23	192	-7048	10376	10532	1110	587	339	-16312	-224	2720	1271	-694	527	-14968	-2428	-4712	1160	-113	387	126	127	8
-3060	-10692	12404	-6475	-1797	-3885	-15436	2688	2736	-2983	-1029	1378	-14920	4584	-2816	-134	-34	263	-7040	10408	10288	2582	644	1241	-16076	-188	2904	2020	-910	425	-15068	-2432	-4624	1309	-148	329	126	127	8
-1692	-11680	11032	-7316	-1745	-4371	-15608	880	1776	-1864	-1151	1299	-15328	3864	-3320	-74	-8	260	-6988	10584	10284	4015	685	2191	-16068	308	3268	2373	-1117	226	-15408	-2336	-4048	2214	-307	-108	126	127	8
-984	-13020	9732	-6623	-1495	-3945	-16116	-364	276	-599	-1133	1008	-15760	2880	-3560	78	31	206	-6496	10968	9864	5145	922	2849	-16224	948	3188	2514	-1161	61	-15748	-2152	-3816	2304	-226	-382	126	127	8
-16	-14068	8324	-4217	-909	-2771	-16540	-1980	-864	496	-725	359	-16192	1936	-3592	178	60	119	-6124	11592	9140	5703	1251	3129	-16412	1560	2676	2488	-1145	-123	-16080	-1464	-3988	2258	45	-560	126	127	8
-136	-14696	8312	-949	-517	-1086	-16568	-2036	-1048	677	-645	288	-16528	1056	-3576	276	79	9	-5268	13056	7756	4730	1513	2517	-17120	3244	1156	1697	-861	8	-16500	-340	-4292	1629	268	-612	126	127	8
248	-15000	7980	2433	-182	688	-16976	-3020	-1200	2828	456	-783	-16864	920	-3512	365	97	-89	-5672	14188	6828	2456	1325	1308	-17508	3904	-644	137	21	34	-17064	1092	-4228	46	90	-270	127	126	8
180	-13956	8716	5364	611	2472	-17176	-2340	-216	4108	861	-1120	-17208	1016	-2864	429	87	-169	-5444	14876	6244	-439	736	-341	-17360	4388	-1560	-1392	656	115	-17028	2184	-4320	-1567	20	404	127	127	8
-712	-12780	10200	6917	1408	3711	-16652	-272	1236	3975	1066	-1231	-17024	2192	-2152	436	31	-192	-5328	15032	6068	-3838	-68	-2409	-17600	4944	-2564	-2804	1293	208	-17160	2124	-4292	-2800	-46	965	127	126	8
-1004	-11772	10912	7273	2116	4271	-16124	600	2328	2979	1023	-1196	-16544	3192	-1456	333	-43	-176	-5460	15256	5828	-7991	-1013	-5031	-17188	4332	-2892	-3971	2080	485	-17092	2192	-4332	-3483	-29	1608	128	126	8
-1268	-11636	11016	7284	2206	4366	-15872	1052	2452	2381	953	-937	-16168	3960	-1376	184	-68	-156	-5556	14288	6724	-11716	-2101	-7491	-16556	4016	-1448	-5110	2791	675	-16268	1584	-4276	-4578	146	2305	128	126	8
-3052	-10568	12516	5504	2372	3924	-15864	2588	1832	1154	877	-500	-15592	4472	-1800	0	-73	-142	-5724	13380	7348	-15032	-2571	-9639	-15368	3428	-716	-6592	3157	721	-15496	600	-4028	-5753	-207	2453	127	127	8
-3192	-10424	12464	4117	1914	3157	-15908	2912	1824	-723	591	-221	-15232	5048	-2384	-203	-102	-120	-5748	11800	8216	-17425	-2497	-11043	-14864	2300	632	-7143	3497	737	-15036	-276	-3360	-6378	-1074	2553	126	127	8
-3740	-10224	12920	2644	1294	2196	-15776	2980	1748	-1706	416	-59	-14888	5064	-3024	-365	-104	-102	-6148	9436	9752	-17798	-1643	-11328	-15076	12	1572	-5467	3375	680	-14356	-1740	-3100	-6036	-1596	2521	126	127	8
-3896	-10176	13032	906	545	993	-16016	3424	1896	-2354	61	99	-14912	4896	-3552	-440	-100	-94	-7396	7780	11396	-16961	-1179	-10822	-15940	-1748	1408	-2124	2681	738	-14496	-2672	-3716	-3468	-1334	2150	126	127	8
-4200	-9400	13636	-1363	-91	-480	-16032	4248	2448	-3069	-410	374	-14824	5040	-3536	-482	-110	-50	-8516	6048	13104	-14181	-1520	-9541	-16660	-1408	1828	1106	1820	734	-14548	-2236	-4876	-501	-307	1942	126	126	8
-4656	-9356	14024	-4410	-1107	-2392	-16268	5068	2944	-4577	-1155	684	-14768	5256	-3664	-550	-107	33	-8076	5372	13412	-11820	-1166	-7991	-17260	-952	3688	2301	850	743	-14956	-2164	-6252	1238	351	1718	126	126	8
-3856	-10152	13036	-7062	-2045	-4079	-15704	3524	2864	-5452	-1724	736	-14664	4704	-3408	-558	-103	119	-8356	5284	13644	-11330	-1158	-7738	-17336	-1708	4580	1843	615	389	-15304	-2460	-6532	1744	11	1041	126	127	8
-2096	-11420	11144	-8084	-2181	-4765	-15272	916	1812	-3991	-1771	518	-14832	3448	-3200	-402	-72	153	-8288	3232	14596	-5283	-1145	-3379	-17468	-1332	5712	488	217	219	-15132	-2756	-6828	812	63	478	126	127	8
-1620	-12912	10108	-7336	-1792	-4499	-15652	-432	732	-1680	-1666	278	-15368	2088	-2976	-90	-24	114	-8492	3632	14344	-1762	-358	-969	-18056	-1552	4992	-794	-44	138	-15404	-2360	-6852	-470	351	-58	127	127	8
-748	-13776	8824	-5432	-1453	-3561	-16004	-1564	-560	50	-1202	-78	-15904	1192	-2480	190	25	32	-8308	4464	13996	1449	245	1207	-18180	-1368	3812	-1136	-285	182	-15956	-1540	-6580	-1885	778	-422	126	127	8
-864	-13492	9252	-3267	-1154	-2371	-16440	-1288	-356	991	-795	-355	-16512	1112	-2288	317	69	-45	-8096	5408	13396	3810	894	2678	-17656	-168	2464	-824	-721	395	-15996	-248	-5920	-2286	476	-910	127	127	8
-1156	-13176	9612	-1753	-1054	-1506	-16384	-432	592	306	-491	-441	-16696	1816	-1264	250	73	-63	-8056	6512	12692	5096	1093	3557	-16832	908	1112	-762	-1017	304	-15960	724	-4668	-2072	-130	-1269	127	127	8
-780	-13276	9600	-379	-701	-761	-16352	-424	764	130	-423	-476	-16672	2192	-792	86	47	-35	-7876	7268	12292	5571	1042	3824	-16344	1792	560	-725	-1028	55	-16044	300	-3608	-1751	-656	-1466	127	127	8
-1244	-12944	10132	460	-391	-231	-16240	-440	1780	-249	157	-387	-16784	2496	-840	22	40	-28	-7588	8316	11652	5349	779	3561	-16260	1980	-204	-109	-1064	-118	-16232	-532	-3048	-651	-1015	-1404	127	127	8
-1260	-12880	10308	922	-123	6	-16264	136	2128	102	416	-247	-16736	2992	-1416	7	59	-15	-7188	8684	11356	4549	714	2916	-16352	2236	-464	1023	-1045	-104	-16288	-1052	-3168	1339	-805	-1153	127	127	8
-1368	-12756	10440	1294	128	209	-16176	308	1896	563	695	-166	-16408	3320	-1920	63	56	-15	-7132	9204	10840	3394	547	2065	-16592	2064	-680	2033	-1126	-169	-16072	-1188	-3848	3394	-405	-592	126	127	8
-1408	-12944	10240	1816	375	401	-16108	68	1256	1235	1025	-216	-16048	2784	-2168	110	68	-29	-7320	9488	10788	1980	310	1111	-16300	2044	-544	2971	-1426	-122	-15640	-920	-4196	4784	-289	121	126	126	8
-1492	-12656	10328	2309	434	645	-16060	156	1196	1862	1105	-197	-15832	2608	-2552	205	82	-58	-7448	9108	11056	666	-79	389	-15960	1772	-120	3430	-1416	-92	-15368	-460	-4632	5061	-636	766	126	126	8
-1580	-12348	10572	2573	440	850	-16136	800	1116	2125	1115	-295	-15480	2832	-3256	260	72	-60	-7508	9156	10888	-505	-612	-107	-15920	1716	304	3308	-1606	145	-15320	-368	-4496	5049	-774	882	126	126	8
-1724	-12380	10744	2685	485	918	-15948	1116	868	1970	1069	-377	-15360	2704	-3600	271	53	-41	-6948	8900	11048	-1430	-864	-605	-16276	2152	792	2910	-1248	313	-15120	196	-5140	4748	-1384	931	126	127	8
-1948	-12132	11036	2781	336	841	-15984	948	1164	2267	958	-488	-15360	2536	-3624	328	42	-18	-7056	8996	11272	-2189	-656	-1360	-17060	2396	972	2236	-933	727	-15680	540	-6192	3786	-630	939	126	127	8
-1860	-12176	10912	2756	257	804	-16060	780	1076	2627	888	-520	-15440	2552	-3272	429	40	-10	-7692	9468	11036	-3062	-1002	-2072	-16688	2608	508	506	-190	974	-15776	1196	-5800	1877	-652	1085	126	126	8
-1732	-12336	10752	3093	181	995	-16092	120	1104	3151	975	-620	-16096	2352	-2936	534	-13	-33	-7208	9476	10856	-4723	-1428	-3012	-15416	3756	424	-2022	658	996	-15148	1576	-5008	-432	-898	1318	126	126	8
-1060	-13060	9928	4207	376	1605	-16132	-1476	184	4423	1174	-1043	-16968	1912	-1480	429	-145	-67	-6656	9320	10616	-6245	-1169	-3700	-15648	2440	448	-3709	1440	1018	-15248	1124	-3712	-2983	-1463	1502	126	127	8
312	-14336	8268	7262	1023	3345	-16516	-4160	-1208	6897	1928	-1700	-17008	1272	-3728	701	-234	-154	-7952	5812	12808	-5693	-1362	-3427	-16948	-552	1544	-2610	1266	820	-16012	-876	-3176	-3303	-935	1188	128	127	8
304	-13432	8920	11377	2696	6041	-16220	-4544	-972	10679	2584	-2288	-17688	-832	-2888	1160	-350	-346	-6920	6176	12800	-4867	-1232	-3183	-18080	596	2016	553	70	917	-16676	-2244	-4036	-661	176	694	129	128	8
100	-12884	8804	14877	3895	8493	-15416	-3596	-636	11436	3086	-2803	-16416	-1320	-2344	1341	-317	-492	-7208	7620	12052	-5363	-1045	-3590	-16804	2948	1388	683	23	859	-17112	-1372	-3676	1242	-193	546	128	127	8
812	-12948	8200	18965	6080	11393	-14628	-4364	-860	10545	3461	-3335	-15328	-792	-1168	1159	-324	-477	-7268	7324	11936	-5996	-713	-3862	-15676	3268	2192	-1247	459	625	-16108	-724	-3256	348	-938	1048	130	127	8
1104	-13076	7572	24009	8560	14967	-13856	-6180	-1880	10252	4035	-4147	-14880	-1288	-1296	1144	-422	-541	-7800	5812	12612	-6015	-1241	-3743	-15772	1904	2104	-2517	956	173	-16344	-1420	-2940	-1527	-1263	1004	130	127	8
-2160	-13560	10476	29213	10506	18989	-13184	-6712	-2616	9873	4431	-4705	-13688	-3064	-104	1085	-348	-738	-7116	4308	13604	-5436	-1511	-3451	-16484	1504	2792	-2822	1305	61	-17048	-1464	-4236	-3093	-2183	319	136	126	8
-14588	560	26904	22942	6329	15211	-14604	3868	-1404	9909	3879	-3787	-15208	-1264	-1664	878	-240	-762	-8128	3432	13988	-3105	-815	-1991	-17996	-1704	3800	-2503	778	-639	-17900	-1960	-3740	-2991	-2068	27	131	127	8
-18960	10228	26616	4285	-2638	3197	-29156	32767	8044	642	645	4719	-20976	17968	-1352	702	-169	-27	-7472	5748	13112	-1704	-561	-1159	-17264	1168	1504	-2250	843	-485	-18380	-3004	-4944	-1411	-2518	-1536	130	128	8
-3772	-7632	14720	92	-339	-448	-17544	588	8088	-10654	2575	-1221	-15888	19600	-3920	-360	-330	794	-7296	6128	12584	-1823	-505	-1199	-17412	1888	1784	-2021	799	-364	-14612	-2024	-4392	-515	-4877	-1582	127	125	8
-5564	-6112	14296	785	408	-316	-10672	-8400	500	8703	4095	-1015	-15568	-3696	-3728	71	-351	199	-7664	5712	12892	-3552	-1475	-1980	-15196	2492	1020	-3848	2067	-130	-13976	196	-3732	-3021	-5496	991	120	127	8
-5204	-7000	13896	1829	-12	-80	-15696	-6440	-4308	21866	2813	2822	-13712	-10832	-3840	1489	7	-433	-7960	5784	13236	-3857	-2246	-1968	-16076	2492	1212	-6180	2771	-75	-14872	1764	-4312	-6685	-5839	2487	119	125	8
-3736	-10052	12892	4894	-68	1621	-15792	-2760	-5380	19339	1574	1150	-14664	-4192	-5104	1664	342	-386	-7084	5240	13184	-3594	-2174	-1750	-17244	1620	1928	-7891	2788	-52	-14756	1392	-3220	-8319	-4357	2227	124	127	8
-5620	-5932	14820	6840	-53	2991	-16592	4328	-2728	9214	472	-259	-16232	896	-3496	1072	96	-106	-7404	4076	13748	-2754	-1226	-1205	-17772	-408	856	-8410	2549	-171	-15336	1308	-3812	-7238	-2110	673	134	129	8
-6204	-4484	15176	5237	-537	2231	-17020	4692	-612	986	6	-115	-16512	3104	-2512	742	-86	123	-7332	5420	13360	-2233	-1141	-1023	-17040	536	-560	-7105	2163	-10	-15256	2184	-4200	-6472	-1327	-600	135	126	8
-5548	-5276	14796	3868	-303	1506	-16536	328	468	1320	385	99	-16160	2624	-2920	810	-196	213	-7408	5604	13020	-2767	-1245	-1350	-16440	1908	-1204	-5852	2029	428	-15288	1824	-4120	-7252	-756	-282	138	130	8
-5700	-4704	14980	2879	-74	991	-16488	404	120	5373	391	690	-15800	2824	-2584	917	-128	173	-7332	4848	13304	-2957	-1394	-1555	-16692	1276	-588	-5132	1322	572	-15612	-256	-3700	-7088	-673	502	130	128	8
-5624	-4752	14908	1804	-10	423	-16668	2004	-568	7081	449	842	-15904	4432	-2624	832	-17	113	-7316	3952	13724	-2359	-1170	-1347	-17020	-660	412	-3637	778	714	-16316	-2728	-3408	-4836	-709	684	126	128	8
-5552	-4704	14824	981	25	125	-16764	2620	-1220	4389	152	157	-16424	4280	-2208	429	90	66	-7136	3468	13888	-1120	-600	-781	-17700	-1768	1260	-1280	276	944	-16684	-4140	-3464	-1274	-864	643	123	128	8
-5644	-5024	14812	519	4	0	-16608	1852	-1212	886	-255	-224	-16256	3024	-2280	29	124	36	-7192	3776	13856	123	-60	-144	-17468	-752	1224	942	-131	1302	-16492	-2820	-3256	1654	-1108	540	124	127	8
-5552	-5140	14708	333	-56	-83	-16016	412	-676	-929	-323	-318	-15872	1040	-2192	-176	80	15	-7092	4420	13640	650	236	80	-16944	1068	836	1712	-419	1345	-16108	200	-3036	2693	-1154	641	124	127	8
-5436	-5308	14696	364	-82	-69	-15764	-232	-344	-886	-285	-143	-16216	-440	-2528	-117	-4	42	-7096	4936	13516	472	285	43	-16500	2360	100	1220	-542	1224	-15848	2332	-2488	2162	-1063	834	125	127	8
-5240	-5356	14712	505	-25	-20	-16292	-532	-316	386	-196	86	-16048	-800	-2824	126	-51	63	-7220	5020	13372	217	204	-89	-16396	2580	-244	380	-521	1070	-15796	2748	-1948	948	-744	626	128	127	8
-5472	-5396	14716	682	-84	61	-16412	156	-816	1242	-342	143	-16240	424	-2784	354	-22	81	-7208	4916	13400	-68	68	-265	-16392	2332	28	33	-377	840	-15852	1892	-1656	100	-294	107	128	127	8
-5436	-5088	14796	631	-67	66	-16428	232	-792	1340	-366	161	-15904	1680	-2880	385	28	84	-7188	4840	13668	-190	-91	-375	-16380	1948	524	144	-240	747	-16404	476	-1620	-607	-192	-111	130	127	8
-5548	-5112	14788	510	-32	39	-16360	980	-756	890	-631	-174	-15936	2456	-2680	316	38	70	-7140	4672	13708	-116	-132	-369	-16628	1892	956	11	6	532	-16416	-504	-1944	-790	-386	91	129	127	8
-5428	-4944	14684	310	-114	-14	-16160	1036	-320	267	-588	-314	-16088	2672	-2128	223	8	35	-7020	4548	13616	-113	-48	-345	-16768	1688	1216	-227	211	362	-16520	-872	-2132	-817	-642	292	128	127	8
-5456	-4956	14788	179	-111	-89	-16188	756	-272	78	-554	-403	-16136	2744	-2248	126	11	14	-7176	4660	13656	-120	49	-255	-16520	1644	964	-654	476	281	-16208	-520	-2188	-537	-653	401	126	127	8
-5432	-5012	14804	68	-82	-151	-16232	632	-324	199	-479	-469	-16112	2032	-2224	22	-4	-4	-7072	4480	13608	8	76	-155	-16700	1488	936	-908	528	117	-16164	332	-2308	-637	-641	330	125	127	8
-5476	-5088	14724	-19	-90	-182	-16184	540	-444	-33	-427	-477	-16040	1288	-2528	-40	-7	-14	-7084	4812	13448	-82	131	-197	-16800	1924	408	-992	477	136	-16172	1032	-2320	-995	-546	168	126	127	8
-5400	-5184	14712	71	-65	-159	-16248	128	-532	-207	-508	-555	-16176	712	-2224	-28	11	-28	-7060	4772	13384	-252	77	-274	-16684	2024	216	-1047	447	40	-15992	1272	-2244	-1214	-382	-11	127	126	8
-5468	-5168	14848	69	-27	-120	-16316	44	-560	-259	-580	-494	-16200	784	-2456	0	13	-36	-7196	4892	13612	-515	35	-415	-16616	2060	44	-1055	402	-7	-15940	1240	-2204	-1438	-253	-61	127	127	8
-5504	-5232	14748	75	-88	-115	-16292	88	-500	-246	-586	-474	-15944	1224	-2216	-28	12	-36	-7108	4624	13380	-743	-31	-496	-16704	1692	388	-938	318	-86	-16048	588	-2292	-1340	-74	-25	126	127	8
-5336	-5040	14780	30	-67	-132	-16140	536	-228	-658	-640	-464	-16160	1520	-2008	-111	-13	-22	-7088	4656	13520	-1002	-57	-624	-16696	1700	492	-1005	251	-135	-16036	-4	-2476	-959	55	34	127	126	8
-5444	-5116	14860	3	-87	-165	-16236	432	-288	-882	-605	-530	-16240	1624	-2640	-163	1	-19	-7092	4288	13484	-1098	-60	-593	-16660	1328	804	-1012	200	-185	-16128	-408	-2488	-666	239	168	127	126	8
-5448	-5052	14788	-31	6	-166	-16248	276	-40	-795	-570	-601	-16064	1224	-2264	-182	34	-28	-7144	4392	13736	-1042	7	-512	-16760	1184	900	-902	110	-167	-16240	-396	-2764	-433	270	272	126	126	8
-5424	-5176	14784	-73	-3	-157	-16184	188	-280	-456	-547	-628	-16000	1056	-2352	-138	76	-42	-7028	4348	13576	-1088	97	-487	-16780	1216	540	-690	-26	-146	-16072	56	-3028	-455	212	371	126	127	8
-5424	-5264	14764	-37	67	-146	-16296	268	-304	-73	-505	-652	-16016	1008	-2528	-88	106	-44	-7060	4584	13620	-1146	125	-526	-16776	1656	368	-677	-196	-106	-15936	656	-3360	-711	296	470	126	127	8
-5500	-5164	14884	-7	34	-126	-16224	256	-236	-67	-542	-691	-15952	880	-2376	-44	133	-36	-7264	4464	13708	-1095	94	-533	-16680	1500	156	-947	-194	-87	-15728	948	-3136	-909	511	522	126	127	8
-5320	-5192	14700	-31	41	-116	-16188	-116	-100	119	-514	-670	-15840	824	-2376	-30	189	-14	-7220	4452	13728	-1036	63	-486	-16732	1364	280	-1044	-151	-35	-15784	624	-3140	-1088	784	552	127	128	8
-5480	-5288	14800	25	121	-86	-16212	96	-316	314	-569	-744	-15648	1040	-2240	-34	283	14	-7248	4156	13596	-800	27	-396	-16744	1080	208	-921	-155	62	-15464	184	-2928	-571	1293	642	128	127	8
-5460	-5184	14832	-17	48	-117	-16200	72	-72	194	-589	-693	-16224	1280	-2088	-40	325	28	-7132	4232	13616	-538	80	-348	-16744	984	412	-567	-204	175	-16396	12	-3120	-347	1987	843	127	127	8
-5504	-5288	14752	-39	45	-125	-16172	-120	-16	157	-623	-740	-16432	936	-2800	54	198	-1	-7232	4044	13864	-218	64	-220	-16796	972	360	-100	-287	212	-16156	228	-3184	95	1653	569	127	127	8
-5500	-5072	14740	-40	96	-73	-16324	-296	-284	176	-548	-678	-16008	1280	-2448	49	184	-23	-7176	4296	13624	-157	139	-189	-16616	1600	432	187	-276	317	-15784	232	-3104	350	1499	626	126	127	8
-5496	-5228	14660	-74	50	-157	-16164	164	-136	-5	-510	-587	-16008	1744	-2520	33	179	-45	-7132	4192	13700	-131	125	-207	-16652	1640	540	23	-268	270	-15648	264	-3036	437	1525	1045	126	127	8
-5528	-5216	14856	-148	84	-123	-16180	-16	64	-348	-520	-627	-15936	1328	-2496	-33	202	-31	-7088	4264	13680	-118	185	-196	-16644	1544	516	-39	-184	294	-15352	160	-3080	1145	1817	1602	126	127	8
-5432	-5120	14704	-201	191	-100	-16212	-64	-4	-419	-548	-668	-15520	896	-2784	-162	293	1	-7216	4256	13684	-101	176	-224	-16716	1280	464	20	-196	296	-15492	184	-2960	1727	2295	2157	126	127	8
-5608	-5112	14712	-215	108	-84	-16048	-112	-148	-372	-542	-565	-15784	1120	-2768	-190	343	5	-7172	4084	13696	-114	153	-211	-16548	1428	456	214	-191	345	-17344	468	-3804	747	1900	1788	126	127	8
-5484	-5248	14668	-208	126	-83	-16136	-280	-152	-307	-605	-591	-16128	792	-3400	-102	262	-12	-7100	4264	13548	-106	145	-212	-16700	1460	636	263	-150	323	-16740	832	-3628	668	597	738	125	127	8
-5664	-5216	14768	-168	99	-103	-16264	-224	-132	-335	-527	-525	-16040	800	-3072	-64	205	-29	-7196	4256	13660	-49	163	-158	-16708	1648	540	231	-117	256	-15508	848	-3236	899	471	590	125	127	8
-5552	-5372	14704	-59	20	-132	-16272	-152	-104	-258	-582	-489	-16088	840	-2928	-37	182	-35	-7180	4296	13684	-70	175	-145	-16600	1516	512	114	-125	170	-16300	732	-3340	949	551	786	126	127	8
-5552	-5252	14712	-17	-15	-167	-16008	-364	100	-248	-423	-358	-16176	784	-2536	-38	161	-31	-7080	4256	13648	-60	168	-178	-16628	1808	672	38	-93	218	-15852	452	-3316	1378	529	703	126	127	8
-5500	-5372	14680	29	6	-130	-16128	-412	172	-231	-273	-222	-16104	616	-2504	-45	142	-30	-7212	4280	13632	-108	173	-214	-16720	1428	508	2	-46	167	-16588	640	-3628	895	797	633	126	127	8
-5496	-5360	14724	99	-27	-148	-16180	-444	184	-168	-186	-170	-16096	904	-2744	-26	126	-34	-7084	4124	13700	-89	129	-156	-16616	1336	520	233	-119	189	-16860	1000	-3956	-18	587	193	126	127	8
-5428	-5400	14784	168	-59	-110	-16204	-408	148	-129	-103	-129	-16296	992	-2912	10	88	-36	-7164	4304	13616	-73	183	-220	-16796	1776	692	151	-59	184	-16180	692	-3676	-263	175	69	126	127	8
-5556	-5340	14660	198	-51	-112	-16176	-344	104	0	-18	-64	-16312	776	-2872	12	43	-33	-7112	4312	13672	-96	141	-228	-16680	1644	632	-29	7	96	-16072	668	-3452	-352	57	134	126	127	8
-5432	-5240	14772	173	28	-85	-16280	-376	184	33	-22	-48	-15984	856	-3224	10	39	-25	-7100	4228	13652	-132	144	-183	-16580	1508	472	-111	72	38	-15904	428	-3432	-149	88	175	126	127	8
-5576	-5272	14860	146	-7	-84	-16196	-192	-72	25	-52	-19	-15928	1016	-3328	9	27	-25	-7076	4312	13744	-78	204	-240	-16732	1504	596	-50	39	91	-15780	460	-3688	198	61	293	126	127	8
-5596	-5316	14748	230	-9	-114	-16144	-196	-196	-57	-29	22	-15760	1016	-3464	16	14	-18	-7180	4264	13656	-97	145	-254	-16624	1340	420	76	29	91	-15964	356	-3608	609	130	461	126	127	8
-5592	-5228	14768	216	-109	-75	-16172	-136	0	-122	-69	-7	-15904	752	-3888	18	1	-9	-7124	4304	13636	-130	167	-223	-16600	1532	560	199	-78	207	-15716	320	-3756	1145	51	564	126	127	8
-5524	-5356	14628	205	-106	-100	-16208	-120	-124	-138	-32	20	-15768	824	-3488	11	-13	-1	-7116	4220	13512	-71	143	-233	-16752	1392	528	117	6	251	-15728	416	-3640	1384	281	665	127	127	8
-5512	-5236	14764	225	-90	-139	-16148	-204	-144	-65	-61	2	-15816	1080	-3480	26	-17	-1	-7240	4208	13764	-129	172	-192	-16676	1348	508	146	20	308	-16404	720	-4240	768	10	601	126	127	8
-5368	-5228	14708	202	-85	-114	-16236	-152	28	1	-99	4	-15872	1152	-3560	37	-13	-4	-7184	4200	13632	-79	171	-126	-16716	1404	548	127	-55	320	-16060	860	-4136	526	-337	377	127	127	8
-5520	-5280	14676	150	-28	-115	-16336	-64	-64	166	-157	-95	-15760	1160	-3736	30	-3	2	-7236	4264	13608	-65	172	-151	-16652	1596	464	72	-43	371	-15924	836	-3824	255	-321	403	127	127	8
-5572	-5252	14820	187	-87	-76	-16184	-48	-172	-68	-244	-60	-15712	1064	-3832	28	-13	6	-7168	4240	13600	-93	123	-170	-16620	1380	540	149	-89	360	-15972	728	-3828	-4	-262	362	126	127	8
-5596	-5240	14692	162	-159	-140	-16140	-164	-112	-105	-277	-67	-15672	984	-3624	35	-21	10	-7148	4260	13620	-83	102	-119	-16592	1484	584	256	-98	382	-16080	816	-3864	-455	-344	173	127	126	8
-5500	-5284	14712	194	-151	-170	-16128	-284	28	-145	-270	-26	-15880	864	-3432	43	-31	8	-7176	4156	13712	-38	90	-167	-16712	1540	656	307	-122	378	-16660	1204	-4152	-2077	-471	-245	127	127	8
-5504	-5256	14772	199	-208	-138	-16232	-252	56	-81	-271	-17	-15912	992	-3424	49	-28	17	-7156	4224	13656	-39	130	-152	-16824	1728	520	272	-97	327	-17432	1288	-3888	-3109	-773	-798	127	128	8
-5396	-5320	14776	199	-142	-144	-16324	-252	-28	-22	-345	-12	-15888	960	-3488	49	-23	21	-7208	4280	13560	-45	113	-112	-16672	1784	492	95	-98	196	-18108	1616	-3788	-3646	-1644	-1885	126	127	8
-5488	-5156	14752	174	-86	-136	-16236	-88	220	-81	-244	-8	-16096	800	-3408	51	-25	26	-7112	4356	13688	-74	71	-130	-16672	1820	540	21	-75	139	-16656	548	-3100	-3132	-2825	-2907	126	126	8
-5452	-5348	14756	188	-101	-126	-16208	-248	-48	-43	-245	-25	-15888	1128	-3104	47	-30	30	-7168	4292	13644	-181	47	-176	-16376	1796	640	37	-38	18	-15620	-308	-2656	-2676	-3710	-2569	127	126	8
-5592	-5136	14876	229	-97	-149	-16124	-204	84	-49	-228	44	-15952	1216	-3088	60	-34	24	-7140	4176	13696	-205	48	-212	-16452	1636	736	53	47	-70	-14768	-40	-2528	-695	-4098	-2001	127	127	8
-5504	-5188	14816	226	-195	-151	-16188	-116	56	-153	-186	28	-15840	1272	-3024	51	-44	22	-7212	4300	13680	-242	34	-208	-16716	1616	560	4	109	-101	-14476	-456	-2272	192	-2644	-706	127	127	8
-5376	-5376	14836	246	-212	-130	-16204	-156	156	-116	-157	60	-16104	1240	-3232	45	-49	16	-7148	4196	13684	-248	-7	-229	-16640	1620	520	-6	140	-119	-15496	-392	-3184	315	-1737	121	127	125	8
-5500	-5276	14780	236	-167	-128	-16228	-272	168	-54	-39	106	-16136	1048	-3256	41	-52	14	-7124	4164	13676	-130	70	-120	-16748	1128	420	300	27	10	-16068	56	-3080	1195	-1345	248	126	127	8
-5324	-5156	14792	194	-102	-112	-16288	-408	280	72	-29	84	-16072	960	-3304	47	-47	11	-7092	4200	13632	-47	58	-106	-16876	1436	460	569	-52	50	-16544	604	-3244	953	-1349	7	127	128	8
-5484	-5260	14656	178	-15	-78	-16240	-220	-24	245	10	64	-15952	1088	-3376	39	-42	16	-7084	4340	13648	-61	108	-130	-16620	1864	428	512	38	-37	-15600	808	-2716	900	-1294	12	127	127	8
-5480	-5220	14696	129	-91	-106	-16236	4	-20	39	-56	102	-15944	1160	-3552	35	-44	17	-7104	4404	13628	-172	108	-213	-16556	1700	532	194	58	-72	-16152	848	-3060	302	-1108	101	127	125	8
-5512	-5212	14776	62	-73	-86	-16168	-68	28	-133	-48	93	-15896	1184	-3544	32	-48	11	-7096	4196	13708	-199	81	-209	-16820	1340	480	145	-19	21	-16308	680	-3200	-240	-1123	-173	126	126	8
-5472	-5136	14744	3	-73	-166	-16216	32	-28	-309	-96	101	-15888	1152	-3384	7	-58	7	-7052	4296	13688	-141	76	-237	-16804	1364	500	234	-23	100	-15592	532	-3072	-252	-871	-238	127	128	8
-5472	-5212	14768	2	-97	-188	-16208	16	-32	-340	-130	79	-15808	1336	-3192	-40	-75	7	-7148	4264	13676	-116	77	-154	-16628	1448	468	181	27	206	-15920	404	-3096	-694	-602	-110	125	127	8
-5392	-5224	14800	-59	-134	-110	-16236	-20	-36	-446	-190	-2	-15888	1104	-2872	-62	-131	-2	-7136	4168	13756	-2	31	-135	-16664	1580	592	234	128	222	-16172	424	-3312	-1086	-733	-242	125	127	8
-5468	-5244	14740	-95	-168	-164	-16280	76	-52	-421	-231	-86	-16336	1392	-3208	-30	-260	-9	-7252	4280	13640	73	-13	-202	-16656	1564	340	42	258	410	-15732	404	-2832	-831	-562	-290	130	126	8
-5488	-5396	14756	-235	-95	-174	-16480	-168	132	-366	-261	-119	-16776	1952	-3456	116	-488	-4	-7148	4296	13644	127	-58	-157	-16556	1500	132	-158	341	406	-15872	272	-2868	-1110	-509	-132	129	126	8
-5384	-5308	14636	-151	-99	-164	-16232	-252	212	-161	-243	-130	-17456	704	-4208	209	-590	-27	-7144	4208	13688	329	-109	-141	-16632	1484	420	-185	396	484	-16216	152	-2620	-1326	-482	-74	128	126	8
-5432	-5440	14772	-120	-57	-133	-16248	-408	320	-102	-272	-138	-16032	872	-3032	207	-663	-55	-7040	4244	13548	273	-189	-169	-16676	1592	416	-339	365	382	-16260	344	-2684	-1096	-439	-156	128	125	8
-5436	-5348	14680	-67	-147	-129	-15704	-420	344	144	-283	-164	-14256	2024	-1592	278	-596	-90	-6956	4368	13676	59	-140	-215	-16728	1552	476	-364	293	325	-16020	272	-2600	-754	-461	-193	129	126	8
-5628	-5256	14840	-190	-204	-161	-16156	124	340	-45	-265	-346	-15104	1200	-2040	96	-323	-101	-7072	4316	13752	265	-4	-192	-16652	1388	324	-189	185	306	-15852	304	-2704	-288	-512	-17	128	127	8
-5580	-5248	14812	-195	-246	-187	-16504	256	-228	-336	-402	-294	-15816	1120	-2744	-9	-179	-60	-6980	4408	13688	307	60	-136	-16700	1492	484	-213	169	330	-16412	240	-2632	-232	-305	164	127	125	8
-5424	-5232	14720	-225	-260	-163	-16264	340	-112	-522	-506	-403	-15760	1232	-2800	-121	-93	-29	-7092	4308	13640	312	195	-170	-16724	1672	324	-238	181	349	-16276	272	-2496	-363	-188	111	128	126	8
-5372	-5372	14616	-241	-247	-217	-16256	176	-88	-572	-588	-446	-15600	840	-2448	-208	7	10	-7036	4276	13680	313	138	-139	-16592	1744	348	-254	204	318	-16268	240	-2516	-904	-406	-46	128	127	8
-5408	-5464	14740	-217	-205	-199	-16148	-268	180	-551	-597	-488	-16112	784	-2040	-182	47	11	-7164	4300	13832	291	68	-152	-16548	1732	336	-354	243	139	-16292	140	-2500	-1195	-658	-142	128	126	8
-5508	-5420	14764	-253	-239	-199	-15992	-632	432	-468	-509	-509	-16528	544	-1544	-91	-2	-2	-7344	4360	13792	409	12	-137	-16668	1340	164	-211	349	154	-16196	140	-2644	-947	-722	-166	127	126	8
-5384	-5324	14632	-287	-236	-201	-16200	-428	468	-267	-410	-360	-16432	1168	-1784	-22	-66	-23	-7176	4248	13656	597	-198	-24	-16680	1348	536	-8	262	126	-16056	208	-2428	-964	-751	-153	128	122	8
-5240	-5516	14656	-150	-142	-148	-16240	-496	544	-157	-294	-283	-16528	776	-2032	67	-120	-53	-6928	4460	13732	388	-175	-79	-16724	1764	340	-96	201	189	-16132	148	-2640	-1009	-675	-133	127	127	8
-5408	-5332	14724	-42	-24	-144	-16144	-244	344	-31	-275	-263	-16008	728	-1960	56	-128	-44	-7008	4336	13740	346	-192	-109	-16796	1620	252	-137	273	146	-16356	80	-2376	-928	-510	-125	127	126	8
-5480	-5376	14800	23	-55	-158	-16244	-396	340	-29	-222	-283	-16136	816	-2120	38	-94	-26	-7048	4364	13620	417	-286	-36	-16592	1656	220	21	130	96	-16096	324	-2452	-1025	-753	-92	129	127	8
-5404	-5380	14592	51	-105	-170	-16188	-176	164	27	-252	-234	-16120	912	-2088	22	-83	-17	-6816	4612	13428	177	-266	-132	-16588	1820	308	-97	138	124	-16020	428	-2508	-904	-801	-40	127	125	8
-5400	-5408	14696	43	-158	-149	-16084	-208	88	-83	-195	-246	-15864	1160	-1864	18	-75	-11	-7044	4548	13708	27	-271	-142	-16624	1796	460	-129	63	83	-16144	200	-2444	-817	-683	-21	127	127	8
-5364	-5364	14764	107	-108	-166	-16124	-140	228	-132	-172	-295	-16288	1208	-2152	36	-75	-23	-7152	4528	13668	58	-334	-163	-16656	1448	248	-131	144	36	-15956	204	-2396	-696	-611	-51	127	126	8
-5432	-5460	14788	22	-178	-193	-16344	-280	240	-190	-193	-326	-16152	704	-1880	31	-107	-27	-6732	4504	13624	-15	-303	-216	-16836	1664	548	-156	136	118	-16128	152	-2424	-340	-557	-47	127	126	8
-5248	-5460	14576	66	-219	-167	-16220	-400	376	66	-199	-227	-16040	888	-1864	55	-87	-16	-6836	4456	13632	-164	-147	-234	-16736	1548	300	-145	46	83	-16208	-156	-2340	-248	-533	139	127	127	8
-5356	-5552	14628	90	-97	-163	-16144	-308	360	129	-255	-189	-16376	984	-1552	65	-77	-23	-7092	4284	13788	17	-212	-183	-16692	1492	388	35	95	39	-16324	116	-2072	-366	-519	183	128	130	8
-5348	-5436	14628	-22	-252	-121	-16172	-340	452	63	-196	-184	-16464	856	-1864	66	-82	-31	-6896	4476	13736	37	-188	-212	-16584	1760	444	21	145	17	-16296	84	-2152	-524	-457	45	128	127	8
-5324	-5468	14636	-116	-237	-97	-16244	-464	368	68	-149	-143	-16104	896	-1584	66	-90	-31	-6832	4464	13608	-28	-136	-218	-16760	1768	324	-145	267	-99	-16372	204	-2172	-533	-647	49	128	129	8
-5456	-5448	14904	-163	-257	-100	-16188	-432	516	134	-228	-133	-16048	832	-1816	74	-98	-43	-7044	4596	13716	-119	-191	-241	-16612	1684	136	-326	288	-111	-16164	424	-2008	-631	-549	30	126	128	8
-5464	-5384	14772	-576	-542	-162	-16108	-296	316	206	-157	-24	-16144	760	-1416	46	-93	-32	-6860	4468	13784	-181	-210	-266	-16656	1572	244	-502	304	-131	-16156	196	-2168	-774	-561	116	127	128	8
-5300	-5488	14748	-506	-668	-168	-16220	-384	336	182	-98	-5	-16328	768	-1528	49	-92	-23	-6744	4620	13588	-280	-131	-297	-16756	1512	360	-415	258	-120	-16284	-24	-2396	-887	-401	122	127	128	8
-5272	-5632	14656	-336	-508	-142	-16200	-472	344	204	-47	-30	-16216	760	-1352	42	-88	-22	-7040	4488	13872	-212	-93	-267	-16768	1304	164	-252	337	-106	-16172	156	-2360	-549	-494	33	127	127	8
-5348	-5544	14928	-261	-549	-96	-16120	-384	484	297	33	78	-16032	896	-1352	35	-69	-26	-6864	4140	13824	81	-223	-168	-16764	1132	308	-134	265	-146	-16076	-56	-2364	-566	-420	106	128	126	8
-5128	-5456	14664	-323	-821	-111	-16136	-312	432	251	94	152	-16216	1048	-1336	35	-69	-29	-6704	4700	13748	15	-151	-185	-16656	1608	264	-91	201	-63	-16196	-128	-2460	-514	-370	120	128	127	8
-5212	-5644	14604	-68	-622	-63	-16208	-412	504	225	189	76	-16224	720	-1456	19	-76	-24	-6828	4352	13688	-20	-11	-167	-16716	1440	144	-204	259	-40	-16068	212	-2392	-265	-359	105	127	126	8
-5176	-5656	14688	93	-355	-88	-16176	-460	256	108	175	216	-16128	864	-1336	1	-69	-18	-6848	4484	13808	-46	-42	-203	-16688	1356	172	-69	164	-37	-16180	108	-2248	-232	-254	188	126	128	8
-5120	-5592	14572	220	-197	-78	-16204	-252	220	82	246	246	-16080	512	-1536	-14	-40	-16	-6628	4488	13792	-175	6	-220	-16784	1584	300	-55	156	38	-16232	176	-2652	-269	-178	204	126	125	8
-5096	-5452	14628	299	-151	-63	-16212	-240	212	-35	198	267	-16264	776	-1664	8	-23	-9	-7088	4436	13900	-138	28	-163	-16732	1172	16	-52	205	42	-16180	200	-2260	-97	-170	231	127	127	8
-5156	-5576	14716	309	-80	-41	-16240	-356	188	-41	162	240	-15928	536	-1576	3	-24	2	-6780	4436	13804	-28	2	-174	-16736	1428	284	211	19	103	-16192	56	-2320	69	-111	266	127	129	8
-5180	-5508	14632	318	-9	-15	-16204	-304	0	101	140	245	-16000	888	-1680	6	-25	-1	-6788	4416	13784	-47	31	-174	-16680	1544	368	177	105	90	-16304	112	-2452	146	-27	213	127	126	8
-5160	-5568	14728	415	44	-1	-16216	-80	144	54	86	216	-16168	952	-1944	20	-15	4	-6932	4428	13896	-6	78	-180	-16656	1320	112	166	63	74	-16088	-80	-2280	90	-161	202	127	127	8
-5308	-5476	14740	325	38	-76	-16232	-24	112	-85	46	164	-16072	744	-1808	-3	5	17	-6680	4412	13652	20	85	-165	-16740	1336	300	220	42	112	-16080	20	-2264	136	-186	256	127	127	8
-5168	-5428	14688	301	73	-81	-16336	-196	104	-106	17	113	-16144	832	-2152	12	13	28	-6716	4412	13660	15	67	-216	-16704	1528	252	225	0	152	-16208	208	-2272	411	-13	355	127	127	8
-5200	-5556	14640	351	128	-29	-16248	-248	44	111	-50	129	-16136	728	-2152	27	26	35	-6968	4460	13964	-67	143	-239	-16736	1276	236	195	9	208	-16264	-68	-2216	299	-104	382	127	129	8
-5368	-5548	14808	339	147	-82	-16228	-152	364	90	-71	96	-16216	632	-1832	36	27	41	-6812	4424	13740	32	171	-208	-16644	1332	240	281	-10	206	-16200	48	-2288	529	-38	361	126	127	8
-5224	-5536	14728	332	99	-70	-16248	-140	232	-33	-141	143	-16144	760	-1696	57	26	38	-6752	4492	13824	15	186	-167	-16672	1464	196	268	25	262	-16196	164	-2396	623	39	376	126	130	8
-5180	-5444	14708	383	123	-41	-16260	-160	172	-7	-174	89	-16032	920	-1648	51	46	44	-6652	4500	13752	-118	258	-218	-16692	1532	300	269	-62	269	-16176	120	-2444	563	-4	416	127	124	8
-5180	-5404	14768	441	187	-52	-16172	-176	-12	4	-190	115	-16032	984	-1768	47	52	49	-6784	4492	13760	-98	306	-248	-16676	1432	176	241	48	252	-16124	12	-2344	578	-14	459	127	127	8
-5440	-5500	14856	418	124	-57	-16128	-172	168	-104	-178	64	-16216	1016	-1552	32	50	50	-6860	4552	13760	-187	362	-245	-16728	1424	212	356	-27	292	-16188	136	-2336	654	50	464	126	126	8
-5184	-5492	14700	373	119	-67	-16276	-136	304	-104	-192	95	-16200	1048	-1728	34	54	45	-6816	4480	13804	-252	288	-280	-16700	1516	304	400	-74	286	-16404	232	-2364	647	36	480	126	126	8
-5260	-5376	14752	427	161	-48	-16204	-272	236	-57	-136	133	-16096	912	-1664	27	64	47	-6624	4460	13668	-413	407	-350	-16788	1612	232	308	-47	255	-16228	192	-2308	828	17	483	127	128	8
-5316	-5404	14764	453	149	-58	-16152	-168	336	-22	-165	140	-16304	1112	-1752	33	55	44	-6680	4544	13772	-426	428	-337	-16660	1432	180	278	-18	257	-16080	136	-2432	857	58	573	126	126	8
-5232	-5480	14772	542	162	-94	-16192	-288	176	-103	-171	147	-16112	960	-1888	28	60	43	-6752	4264	13684	-513	425	-367	-16792	1260	296	443	-136	352	-16196	260	-2772	975	114	535	127	126	8
-5352	-5440	14760	476	133	-81	-16168	-44	240	-64	-187	158	-16144	1064	-1760	32	46	46	-6728	4472	13592	-666	585	-410	-16812	1480	324	495	-245	468	-16100	328	-2988	1071	106	451	127	126	8
-5324	-5440	14800	434	136	-62	-16264	-16	212	-88	-157	130	-16152	1280	-1864	19	51	45	-6852	4360	13780	-812	552	-466	-16876	1204	-52	433	-254	503	-15912	368	-3128	1088	218	474	126	126	8
-5272	-5376	14788	386	87	-51	-16176	64	232	-36	-165	170	-16032	1104	-1752	2	57	49	-6724	4492	13660	-1049	682	-509	-16808	1320	220	619	-551	719	-16064	480	-3452	1113	314	590	127	127	8
-5384	-5444	14708	401	130	-51	-16284	-64	140	-99	-167	76	-16152	1040	-2144	6	78	53	-6820	4148	13780	-1236	757	-545	-17000	1036	108	580	-769	955	-16036	404	-3832	1230	459	610	127	127	8
-5340	-5328	14796	454	179	-71	-16196	-116	244	34	-206	92	-16176	1032	-1816	30	76	52	-7260	4368	13996	-1072	749	-477	-16824	904	-364	702	-1103	1109	-15984	488	-3800	1215	425	576	127	127	8
-5464	-5396	14836	322	64	-64	-16152	-8	376	61	-196	53	-16000	1272	-1960	54	81	50	-7632	3928	14100	18	406	-125	-16396	856	-264	955	-818	1305	-15816	636	-2984	1129	419	548	127	127	8
-5328	-5320	14804	223	10	-115	-16156	-32	428	22	-182	37	-16096	1424	-2056	60	68	50	-6852	4352	13600	222	262	11	-16496	1952	636	895	-862	1468	-16148	512	-2844	705	436	501	129	127	8
-5332	-5372	14756	244	-30	-132	-16212	-124	396	137	-163	-24	-16416	1168	-2008	75	59	54	-7120	4388	13872	229	249	-73	-16480	2192	484	344	-489	1379	-16340	364	-2024	294	260	529	128	126	8
-5300	-5356	14780	308	74	-79	-16172	-176	188	254	-132	8	-16136	1224	-2064	91	76	49	-7256	4148	13860	527	11	93	-16448	2000	528	168	-121	1114	-16468	188	-1288	-336	132	504	127	126	8
-5336	-5376	14816	243	-16	-106	-16180	-160	276	429	-171	2	-15992	1056	-2144	107	64	42	-6808	4340	13624	510	4	86	-16352	2396	688	-37	-3	1010	-16564	-148	-1108	-577	10	451	126	127	8
-5316	-5292	14772	190	-54	-92	-16168	-36	356	377	-161	4	-16192	1032	-1832	90	68	52	-6980	4492	13680	449	5	-1	-16536	2420	632	-292	283	658	-16752	-172	-836	-456	-291	507	127	127	8
-5212	-5416	14712	213	13	-91	-16192	-212	268	286	-128	-47	-16192	872	-2376	122	41	45	-7064	4504	13696	372	12	-46	-16520	2400	556	-175	354	327	-16688	64	-656	-387	-405	528	127	125	8
-5380	-5304	14744	112	-70	-108	-16280	-220	180	307	-136	73	-16088	1088	-1840	114	27	49	-6772	4520	13660	239	4	-96	-16524	2528	468	-119	450	48	-16476	240	-1248	-182	-459	437	126	127	8
-5260	-5364	14680	123	-33	-76	-16076	-224	268	287	-126	65	-16256	1136	-1960	95	13	40	-6892	4312	13712	-34	67	-169	-16660	2028	364	-98	380	-225	-16396	188	-1560	173	-573	384	126	127	8
-5352	-5328	14844	178	-16	-93	-16192	-84	180	100	-160	129	-16152	1400	-1944	42	11	40	-6916	4428	13800	-110	94	-224	-16644	2020	264	120	355	-268	-16304	264	-2004	364	-662	394	125	127	8
-5296	-5312	14792	294	-1	-61	-16252	-60	252	-168	-178	142	-16232	1448	-1496	-10	-2	36	-6888	4380	13676	-170	76	-249	-16700	1828	168	177	305	-381	-16080	444	-2436	627	-638	384	126	125	8
-5392	-5284	14740	235	25	-73	-16236	-144	140	-243	-168	165	-16080	1480	-1976	-46	-15	24	-6976	4348	13680	-201	99	-284	-16708	1572	228	208	271	-367	-16048	452	-2720	505	-528	377	127	127	8
-5312	-5256	14860	254	5	-58	-16200	-88	320	-288	-175	159	-16128	1424	-1816	-59	-7	4	-7012	4268	13800	-244	124	-268	-16788	1484	288	257	194	-255	-16044	536	-3120	468	-484	284	127	127	8
-5364	-5248	14908	205	48	-86	-16188	44	364	-405	-154	181	-16248	1464	-1832	-63	-15	4	-7040	4460	13772	-305	143	-255	-16804	1560	156	194	172	-141	-16032	756	-3276	340	-354	245	127	127	8
-5364	-5312	14728	187	-53	-95	-16196	228	348	-419	-130	85	-16000	1488	-2240	-79	-19	9	-6996	4240	13804	-117	46	-201	-16744	1464	248	48	130	-33	-15932	676	-3236	-84	-264	250	127	125	8
-5312	-5288	14876	142	-76	-100	-16140	100	248	-252	-84	61	-15984	1184	-2264	-61	-12	10	-6940	4364	13736	-92	51	-210	-16680	1496	232	-84	71	185	-15980	444	-3080	-340	-193	282	127	127	8
-5288	-5312	14696	199	18	-108	-16232	24	276	-95	-127	1	-16064	992	-2264	-20	17	10	-6860	4320	13680	-107	123	-167	-16804	1520	216	-132	99	247	-16084	448	-2752	-262	-61	288	127	127	8
-5336	-5272	14768	242	8	-132	-16172	44	140	54	-173	48	-15864	1064	-2152	11	52	16	-6920	4300	13716	-235	140	-223	-16684	1624	116	-55	-41	327	-16144	376	-2692	-106	-28	322	127	127	8
-5340	-5304	14820	228	34	-125	-16232	68	212	122	-183	-33	-15984	1232	-2320	29	54	20	-6896	4484	13684	-354	214	-286	-16704	1784	-28	44	-130	393	-16136	352	-2592	64	-54	345	128	127	8
-5364	-5308	14712	269	51	-95	-16340	16	248	19	-235	-28	-15904	1184	-2168	37	72	28	-6980	4272	13752	-332	150	-234	-16704	1532	184	174	-204	414	-16220	388	-2512	299	-64	377	127	126	8
-5352	-5236	14832	229	64	-158	-16232	-36	340	5	-215	-67	-15840	1384	-2032	28	102	36	-6900	4368	13732	-342	190	-262	-16612	1856	180	249	-303	452	-16244	256	-2488	443	-80	385	127	127	8
-5336	-5224	14796	256	27	-100	-16188	24	240	69	-253	-66	-15736	1352	-2000	1	167	52	-6968	4180	13852	-262	216	-227	-16764	1660	228	250	-259	349	-16224	284	-2308	633	-70	342	127	127	8
-5328	-5304	14848	250	12	-101	-16216	8	228	49	-299	-94	-15768	1440	-1856	-40	239	61	-6984	4400	13548	-313	228	-245	-16608	1860	228	329	-307	388	-16376	288	-2384	711	-44	374	127	127	8
-5404	-5232	14720	302	4	-162	-16140	-40	256	-48	-308	-79	-16336	1232	-2184	-16	210	52	-7080	4284	13812	-282	210	-242	-16588	1860	148	419	-279	388	-16248	432	-2544	825	-137	410	126	127	8
-5284	-5348	14848	275	21	-118	-16212	-176	364	-96	-246	-44	-16040	1360	-2208	17	186	48	-7092	4340	13868	-200	205	-229	-16536	1972	68	351	-240	407	-16176	456	-2432	620	-206	488	126	127	8
-5368	-5268	14852	301	88	-108	-16176	-124	500	-14	-221	-1	-15976	1368	-2064	9	210	41	-6980	4264	13824	-45	156	-156	-16616	1864	240	274	-114	346	-16172	516	-2332	339	-253	405	126	125	8
-5356	-5308	14852	324	71	-86	-16116	-28	588	-19	-180	14	-15896	1416	-2328	7	260	41	-7032	4304	13780	19	118	-156	-16640	1928	428	159	-5	318	-16264	536	-2112	291	-243	311	126	127	8
-5404	-5292	14852	287	-4	-88	-16216	-116	616	11	-105	48	-15984	1384	-2672	1	277	42	-6892	4320	13692	-22	118	-184	-16672	1988	408	116	-23	220	-16324	352	-2356	163	-195	327	126	127	8
-5396	-5228	14900	220	-12	-81	-16092	-120	560	76	-89	-33	-16160	1240	-2936	12	261	37	-6940	4276	13672	-83	163	-185	-16612	1836	172	96	37	172	-16296	388	-2252	135	-345	370	125	126	8
-5392	-5284	14928	198	-1	-95	-16228	-28	444	80	-62	27	-16328	1072	-2640	52	208	21	-7036	4312	13712	-31	108	-191	-16688	1852	256	152	74	154	-16216	476	-2244	162	-309	331	125	125	8
-5328	-5256	14840	170	-18	-109	-16388	-80	356	160	-51	32	-16328	1184	-2640	107	151	12	-6956	4256	13732	7	88	-189	-16664	1956	248	171	109	129	-16208	484	-2256	91	-358	282	126	126	8
-5352	-5208	14808	168	-17	-110	-16248	-8	152	215	-60	81	-15944	1592	-2704	105	131	18	-6980	4276	13628	20	85	-185	-16608	1932	232	65	139	62	-16200	408	-2284	178	-350	266	126	127	8
-5360	-5128	14700	207	5	-89	-16156	40	380	154	-20	48	-16016	1448	-2728	84	116	29	-7060	4324	13696	86	57	-94	-16680	1856	192	185	114	56	-16096	416	-2324	340	-446	301	126	126	8
-5404	-5188	14792	183	-52	-87	-16168	76	400	23	-67	63	-16136	1448	-2976	65	94	29	-6936	4320	13680	116	36	-175	-16564	1944	300	229	97	32	-16280	476	-2156	207	-438	300	126	127	8
-5348	-5204	14684	189	-7	-98	-16236	16	428	52	-44	48	-16112	1440	-2976	83	72	27	-6836	4228	13660	62	75	-134	-16752	1856	292	126	110	-21	-16332	440	-2168	266	-394	199	126	127	8
-5404	-5300	14816	178	-34	-66	-16188	-68	396	115	4	15	-16128	1328	-2928	103	50	21	-7012	4360	13796	-30	61	-163	-16744	1804	300	175	92	-60	-16184	420	-2260	275	-418	215	126	127	8
-5356	-5188	14840	181	-35	-104	-16212	44	380	240	10	-23	-15984	1336	-2704	108	40	25	-6992	4336	13784	-1	42	-165	-16668	1840	312	209	93	-84	-16136	500	-2284	336	-434	253	127	126	8
-5360	-5140	14872	170	-33	-112	-16240	-72	308	269	27	14	-16128	1464	-2768	96	35	27	-6900	4304	13756	39	64	-170	-16704	1844	300	182	97	-46	-16264	472	-2308	214	-326	239	126	125	8
-5404	-5184	14696	211	-27	-117	-16176	16	360	244	67	54	-15992	1536	-2976	94	38	21	-6924	4280	13752	-5	82	-182	-16728	1768	276	166	71	-77	-16180	468	-2340	168	-337	183	127	126	8
-5368	-5260	14836	206	-28	-97	-16264	8	336	248	22	0	-15992	1448	-3200	91	34	18	-6856	4320	13624	-112	122	-222	-16752	1728	180	146	33	-73	-16100	456	-2360	253	-292	214	126	127	8
-5404	-5240	14736	213	-15	-129	-16176	-32	408	235	41	42	-15968	1432	-2672	91	31	17	-6896	4308	13740	-221	156	-215	-16744	1740	228	207	-16	-19	-16240	492	-2556	339	-266	254	127	126	8
-5344	-5264	14832	203	-44	-115	-16184	-4	152	227	31	4	-15912	1456	-2960	83	28	16	-6936	4356	13684	-317	208	-247	-16808	1700	156	209	-122	47	-16148	520	-2816	382	-175	266	127	127	8
-5404	-5188	14868	160	35	-124	-16188	64	364	209	52	-10	-16064	1560	-3040	71	24	16	-7104	4292	13804	-212	189	-244	-16708	1536	176	285	-148	104	-16064	552	-2780	357	-249	201	127	126	8
-5408	-5228	14740	139	-49	-111	-16260	8	372	226	53	-20	-15896	1336	-3040	64	27	17	-6948	4364	13776	-198	129	-204	-16672	1688	220	331	-205	148	-16052	448	-2580	482	-199	188	127	127	8
-5436	-5176	14716	120	-4	-80	-16160	52	232	190	17	-28	-15928	1568	-3072	71	25	13	-6868	4356	13716	-259	178	-180	-16708	1696	236	215	-199	175	-16148	416	-2544	536	-91	255	127	126	8
-5336	-5100	14772	145	-34	-129	-16184	4	220	227	49	-3	-15888	1256	-3136	76	30	11	-6900	4264	13676	-299	228	-235	-16788	1644	280	264	-280	182	-16236	420	-2484	528	11	271	127	127	8
-5388	-5188	14828	144	25	-112	-16172	44	312	186	27	-11	-15952	1432	-3016	77	32	13	-6988	4264	13676	-343	211	-204	-16748	1712	300	344	-367	242	-16280	380	-2356	593	-93	327	127	127	8
-5420	-5248	14820	189	26	-126	-16192	-16	324	234	46	20	-15872	1296	-2912	72	27	14	-6832	4236	13776	-477	258	-264	-16744	1736	408	407	-451	201	-16072	420	-2452	622	-86	355	127	126	8
-5304	-5256	14776	233	-47	-111	-16192	-24	308	236	21	-24	-15880	1408	-2992	75	23	17	-7008	4240	13752	-608	334	-313	-16800	1672	120	448	-558	245	-16220	524	-2712	568	45	335	127	127	8
-5424	-5224	14832	210	-10	-107	-16208	-24	280	170	-7	25	-15936	1480	-2992	88	27	14	-6968	4216	13776	-525	313	-254	-16804	1576	276	505	-579	302	-16048	480	-2632	715	124	284	127	127	8
-5388	-5168	14700	222	-25	-93	-16232	-8	244	206	16	19	-15896	1432	-3000	83	27	12	-6880	4304	13720	-448	371	-251	-16688	1720	412	367	-605	392	-16084	392	-2816	677	148	313	127	127	8
-5344	-5160	14752	218	-57	-91	-16240	104	236	188	50	25	-15904	1408	-3112	70	18	16	-6916	4192	13808	-525	443	-289	-16700	1920	360	146	-552	478	-16136	444	-3024	668	260	398	127	127	8
-5368	-5248	14772	200	-7	-130	-16148	116	328	197	54	52	-15800	1536	-2696	69	15	16	-7072	4108	13740	-374	456	-277	-16824	1316	156	17	-534	478	-16016	488	-2956	709	308	387	127	125	8
-5364	-5196	14780	171	-28	-77	-16200	4	296	232	102	42	-15912	1584	-2848	69	15	10	-7176	4096	13884	-259	425	-196	-16768	1328	212	242	-551	631	-16068	424	-3020	522	267	383	127	127	8
-5320	-5212	14800	189	-43	-59	-16124	40	332	267	96	28	-15960	1592	-3048	69	20	9	-7132	4132	13812	-91	339	-146	-16632	1688	348	427	-622	813	-15968	560	-2672	836	231	311	127	127	8
-5440	-5200	14780	194	-27	-89	-16196	-20	256	268	138	33	-15960	1512	-3248	70	16	9	-7212	4248	13740	13	163	-91	-16352	2056	276	463	-453	823	-16008	648	-2148	814	187	407	127	127	8
-5396	-5256	14712	175	-32	-103	-16164	20	264	219	146	83	-16000	1480	-2960	70	17	2	-7372	4184	13860	326	37	-71	-16288	2432	316	164	355	777	-16264	564	-1512	481	184	438	127	128	8
-5392	-5164	14776	227	-42	-95	-16188	64	208	239	115	49	-15864	1496	-3144	68	8	6	-7172	4220	13844	827	-171	79	-16340	2468	664	-4	654	512	-16704	272	-760	-128	-126	348	127	127	8
-5392	-5204	14780	221	-50	-78	-16240	80	108	248	112	17	-15952	1224	-3424	70	8	8	-7220	4248	13844	1259	-262	133	-16264	2548	780	-68	657	484	-16908	136	-272	-578	-334	233	127	126	8
-5392	-5196	14788	188	-5	-81	-16284	100	176	246	64	-21	-16120	1272	-3688	79	-2	6	-6804	4348	13540	1236	-317	158	-16584	2376	972	-347	880	-369	-16892	-116	-284	-827	-681	212	127	125	8
-5432	-5180	14808	153	-15	-66	-16208	84	88	210	35	10	-15880	1288	-3400	82	-10	3	-6680	4416	13588	626	-211	74	-16672	2704	744	-357	879	-708	-16768	64	-480	-724	-898	179	126	129	8
-5364	-5136	14864	97	-23	-81	-16280	88	192	78	-65	7	-15808	1360	-3424	63	-25	0	-6704	4504	13628	151	-112	-84	-16632	2532	508	-434	931	-1024	-16536	276	-752	-695	-1046	316	126	127	8
-5444	-5124	14788	144	-48	-87	-16252	68	72	-84	-119	38	-15952	1496	-3160	28	-31	-1	-6716	4456	13616	-282	2	-236	-16668	2184	364	-302	877	-1303	-16284	452	-1188	-425	-1009	337	127	127	8
-5420	-5128	14780	171	-5	-92	-16236	56	64	-262	-133	60	-15888	1736	-2888	-11	-38	-7	-6732	4420	13612	-593	150	-388	-16816	1916	220	-146	755	-1372	-16144	592	-1868	-135	-890	209	126	128	8
-5416	-5084	14792	183	-17	-70	-16132	120	316	-405	-131	29	-16008	1680	-2872	-53	-40	-12	-6572	4436	13532	-871	331	-532	-16828	1816	376	-59	647	-1348	-15952	688	-2928	133	-592	101	127	127	8
-5412	-5152	14792	147	-58	-94	-16220	164	236	-581	-112	55	-16024	1816	-2760	-93	-41	-17	-6820	4284	13632	-1204	513	-650	-16852	1232	-128	-197	500	-1245	-15860	740	-3788	481	-505	85	127	127	8
-5428	-5128	14808	107	-33	-82	-16196	124	228	-664	-86	48	-15840	1736	-2480	-128	-37	-28	-6760	4280	13712	-1402	630	-677	-16944	884	-60	-195	175	-908	-15584	1056	-4816	929	-165	39	127	127	8
-5372	-5104	14772	108	-4	-107	-16180	184	340	-665	-33	46	-15952	1816	-2680	-145	-25	-41	-7392	4040	14060	-1286	580	-560	-17096	176	-364	7	-247	-442	-15480	1060	-5160	804	333	134	127	127	8
-5368	-5108	14752	122	-30	-117	-16108	212	156	-655	8	9	-15912	1808	-2864	-128	-4	-52	-7268	3868	14180	-780	280	-362	-17052	8	-308	374	-753	135	-15372	1076	-5112	566	611	186	127	127	8
-5376	-5096	14816	142	-33	-123	-16196	276	368	-521	58	-32	-15696	1624	-3168	-122	18	-50	-7192	4148	13800	-417	290	-197	-16756	808	-452	280	-918	718	-15560	1028	-5104	151	951	158	127	127	8
-5456	-5148	14876	155	-41	-143	-16260	228	356	-375	107	-123	-15728	1392	-2992	-78	32	-51	-7100	3948	13980	-279	253	-156	-16912	752	-48	210	-1045	1070	-15588	892	-4352	-53	1031	101	127	128	8
-5428	-5144	14824	136	-44	-139	-16276	224	280	-343	103	-138	-15816	1424	-3304	-24	44	-44	-7028	4092	13656	-67	242	-66	-16740	880	12	209	-1083	1379	-15628	704	-3608	-255	1287	230	128	128	8
-5476	-5100	14920	137	-89	-160	-16204	100	168	210	151	-183	-15784	1168	-3336	39	55	-40	-7076	4100	13844	69	196	-17	-16728	1488	248	139	-1110	1687	-15788	548	-2936	-281	1461	292	128	128	8
-5376	-5208	14760	191	-17	-167	-16216	56	152	351	151	-261	-15736	1184	-3336	89	60	-34	-7092	4164	13796	125	168	8	-16512	1704	436	175	-1024	1675	-15940	212	-1992	115	1634	454	128	128	8
-5388	-5216	14772	218	-51	-135	-16216	60	184	448	135	-265	-15936	1264	-3208	122	65	-28	-7020	4152	13756	163	126	-17	-16452	2080	572	159	-856	1572	-16256	72	-1344	171	1705	473	128	128	8
-5372	-5256	14892	174	-30	-145	-16244	36	224	463	88	-260	-15856	1272	-3136	130	52	-18	-7048	4264	13808	142	158	-34	-16448	2384	652	209	-700	1262	-16536	-164	-1000	303	1567	602	127	126	8
-5396	-5200	14860	169	-14	-144	-16240	64	64	457	33	-223	-15960	1320	-3040	125	43	-14	-7012	4272	13708	110	137	-72	-16440	2592	668	261	-435	873	-16716	-192	-728	483	1136	805	128	127	8
-5348	-5224	14800	167	-21	-156	-16224	-12	88	343	47	-194	-15888	1328	-3160	101	28	-14	-6980	4316	13648	39	174	-145	-16416	2728	800	251	-256	499	-16368	84	-748	1204	936	1047	127	127	8
-5428	-5160	14864	151	20	-120	-16184	-68	56	162	-3	-210	-15984	1328	-3112	68	16	-16	-6984	4320	13720	-123	218	-211	-16464	2648	664	146	-97	107	-16176	252	-860	1646	1102	1421	127	127	8
-5384	-5096	14832	120	-32	-147	-16276	4	-36	-7	26	-131	-15976	1312	-3120	28	-2	-23	-7024	4288	13648	-189	199	-251	-16540	2468	552	165	-17	-187	-16276	452	-1484	1851	1396	1813	127	127	8
-5404	-5168	14780	132	-28	-102	-16256	-60	156	-208	-29	-128	-16072	1344	-2768	-13	-14	-26	-7072	4060	13716	-259	140	-291	-16564	2000	664	138	95	-406	-17096	764	-2448	1312	1195	1670	127	127	8
-5420	-5176	14860	128	36	-72	-16228	64	76	-314	-15	-97	-15912	1248	-3160	-55	-15	-25	-6996	4196	13676	-196	195	-314	-16684	2116	584	59	250	-446	-16400	884	-2964	1042	863	1202	126	127	8
-5404	-5104	14828	126	-14	-114	-16268	60	148	-340	-50	-99	-15728	1328	-3040	-66	-12	-31	-7100	4204	13752	-283	261	-326	-16644	1792	416	-128	334	-515	-15888	1040	-3328	767	867	1067	127	127	8
-5316	-5120	14748	111	2	-105	-16148	28	88	-196	-72	-107	-15952	1392	-3192	-61	2	-38	-7120	4056	13672	-240	227	-303	-16708	1564	440	-242	315	-471	-15656	912	-3648	743	923	1076	127	127	8
-5436	-5136	14884	61	-15	-122	-16240	144	148	-232	-75	-183	-15736	1424	-3288	-59	14	-41	-7048	4168	13796	-235	200	-252	-16660	1460	356	-228	244	-246	-15328	704	-3792	927	1137	1160	127	127	8
-5452	-5132	14768	79	20	-120	-16244	120	8	-204	-80	-150	-15744	1456	-3384	-47	20	-39	-7128	4028	13744	-175	172	-249	-16672	1320	300	-120	184	-77	-15404	788	-3776	1140	1315	1275	127	128	8
-5440	-5092	14788	52	10	-106	-16204	132	24	-80	-116	-238	-15688	1368	-3456	-38	22	-45	-7096	4068	13612	-121	134	-233	-16680	1328	320	-104	90	100	-15968	980	-3892	1007	1270	1090	127	128	8
-5432	-5164	14856	52	54	-145	-16224	76	60	-12	-141	-261	-15648	1192	-3272	-16	37	-38	-7084	4140	13692	-126	91	-193	-16736	1656	320	-8	-18	202	-16168	1032	-4060	978	1147	765	127	128	8
-5388	-5180	14832	30	49	-110	-16228	116	184	37	-259	-252	-15648	1160	-3456	4	54	-36	-7068	4068	13856	-75	152	-186	-16796	1528	496	67	-36	244	-16304	908	-3948	838	799	620	127	129	8
-5480	-5208	14880	8	94	-88	-16416	144	-60	37	-321	-402	-15720	1240	-3728	-3	69	-28	-6980	4052	13868	-61	90	-125	-16652	1652	312	75	-69	310	-16236	868	-3652	671	508	445	128	128	8
-5472	-5096	14816	-16	127	-95	-16284	112	-176	-125	-433	-432	-15744	1096	-3488	20	80	-21	-7128	4168	13712	-22	92	-143	-16604	1768	380	67	-121	319	-16252	944	-3312	535	385	388	128	128	8
-5372	-5196	14840	-36	41	-150	-16212	-104	112	16	-390	-406	-15696	1136	-3192	35	64	-19	-7044	4104	13780	-66	48	-162	-16612	1788	388	129	-113	269	-16232	844	-3180	423	379	357	127	128	8
-5460	-5228	14860	1	51	-129	-16192	-32	64	22	-466	-405	-15928	1152	-3408	43	49	-5	-7016	4192	13672	-74	31	-174	-16688	1836	432	187	-133	197	-16260	880	-3012	291	377	307	127	128	8
-5460	-5012	14940	14	41	-119	-16148	-212	104	-110	-456	-351	-16048	1192	-2936	59	38	-10	-7076	4148	13660	-97	34	-148	-16640	1944	456	197	-37	158	-16496	1068	-3060	82	316	248	128	128	8
-5332	-5232	14688	-20	14	-128	-16212	-296	452	0	-348	-312	-16072	1208	-2904	50	31	-8	-7112	4188	13740	-70	25	-128	-16604	1984	456	122	105	46	-16296	948	-3168	-68	11	118	127	128	8
-5464	-5148	14804	26	54	-123	-16092	-188	280	45	-287	-230	-16248	1256	-2608	35	26	-7	-6992	4116	13696	-12	29	-128	-16564	2028	520	32	403	-73	-16312	792	-2924	-176	-149	132	127	128	8
-5444	-5216	14852	79	24	-159	-16132	-328	484	-43	-194	-170	-16040	1032	-2712	27	21	-11	-7024	4140	13768	-17	35	-129	-16576	1852	524	-43	384	-185	-16148	708	-3028	-291	-250	106	127	128	8
-5488	-5212	14728	77	3	-110	-16012	-332	472	-42	-84	-58	-15880	1232	-2848	10	9	-9	-6988	4136	13752	-66	85	-164	-16700	1812	388	-21	275	-223	-16144	792	-3164	-166	-317	140	127	128	8
-5320	-5184	14788	124	-11	-42	-16180	-264	436	61	-4	-12	-16040	1208	-3016	8	2	-5	-6884	4152	13708	-157	120	-204	-16692	1848	272	-29	211	-288	-16108	884	-3528	-41	-262	218	126	127	8
-5480	-5176	14768	148	8	-58	-16176	-200	260	15	54	-2	-15952	1104	-3152	7	-6	-12	-6976	4128	13792	-188	174	-247	-16732	1752	340	-139	181	-262	-15928	940	-3768	62	-37	244	127	127	8
-5408	-5180	14800	182	29	-70	-16172	-152	200	-47	55	45	-15848	1176	-3256	9	-3	-11	-7008	4104	13732	-196	257	-281	-16888	1592	352	-265	161	-200	-15812	1088	-4184	109	164	314	127	127	8
-5460	-5180	14804	167	39	-95	-16196	-80	108	-78	49	35	-15800	1360	-3440	0	-13	-11	-7100	4008	13696	-130	254	-265	-16832	1140	112	-53	-12	-58	-15508	1072	-4448	140	294	239	127	127	8
-5476	-5136	14776	174	26	-79	-16208	20	88	-149	49	-21	-15776	1288	-3344	-3	-18	-16	-7076	4104	13808	-133	248	-260	-16676	1320	40	100	-158	142	-15500	956	-4504	193	198	209	127	127	8
-5444	-5152	14724	139	-3	-93	-16156	60	212	-189	36	-61	-15728	1528	-3392	-6	-10	-14	-7072	4020	13736	-97	158	-218	-16720	1316	232	182	-302	252	-15492	1036	-4280	184	91	197	127	128	8
-5472	-5140	14792	99	5	-93	-16148	140	228	4	7	-105	-15888	1464	-3664	4	4	-13	-7116	4088	13672	-81	129	-163	-16660	1456	320	221	-351	401	-15656	1052	-4072	134	121	97	127	128	8
-5568	-5252	14836	115	-18	-107	-16180	32	212	106	-11	-131	-15888	1192	-3488	43	3	-10	-7096	4092	13632	-37	102	-139	-16680	1500	352	229	-405	493	-15748	940	-3904	142	175	103	127	127	8
-5528	-5148	14804	133	-97	-122	-16128	-24	12	201	-27	-169	-15800	1128	-3592	72	9	-9	-7088	4028	13832	-55	70	-113	-16740	1548	468	294	-420	564	-15944	888	-3644	41	217	40	128	127	8
-5464	-5244	14868	98	-68	-155	-16172	-108	208	241	1	-219	-15784	1336	-3312	85	7	-11	-7016	4108	13804	19	59	-115	-16636	1780	528	256	-343	521	-16120	860	-3224	-11	203	50	127	127	8
-5488	-5184	14768	116	-69	-145	-16168	-60	204	374	13	-221	-16064	1384	-2984	92	0	-9	-7024	4120	13772	-24	83	-134	-16552	1952	468	190	-264	450	-16188	880	-3036	-167	183	30	128	127	8
-5480	-5272	14688	135	-60	-139	-16148	-44	232	354	18	-259	-15992	1200	-3248	103	-10	-13	-7028	4140	13792	-11	61	-94	-16576	1984	664	124	-205	369	-16272	836	-2872	-226	156	63	127	127	8
-5460	-5148	14808	181	-65	-122	-16116	-196	268	603	105	-274	-15904	1264	-3280	108	-16	-12	-7076	4116	13704	-68	96	-162	-16616	2048	564	74	-99	207	-16360	828	-2940	-293	15	65	127	127	8
-5460	-5200	14780	193	-44	-145	-16196	-120	72	640	97	-227	-16096	1296	-3328	106	-24	-21	-6992	4160	13780	-86	126	-205	-16576	1996	572	-49	8	21	-16308	944	-2888	-265	-64	71	127	127	8
-5444	-5188	14784	136	-95	-100	-16224	-180	-52	488	72	-228	-15880	1256	-3352	86	-25	-35	-7056	4188	13616	-169	141	-198	-16648	1984	416	-13	42	-92	-16264	920	-3072	-296	-111	18	127	127	8
-5476	-5220	14816	151	-73	-119	-16260	-104	56	179	51	-224	-15840	1376	-3384	38	-30	-39	-7028	4136	13740	-214	134	-214	-16652	1828	440	3	103	-164	-16116	784	-3216	-286	-131	-54	127	127	8
-5452	-5188	14696	114	-58	-117	-16332	-136	-40	21	8	-226	-15992	1320	-3424	30	-30	-44	-7056	4100	13696	-201	110	-194	-16668	1760	524	34	89	-230	-16032	872	-3312	-200	-242	-92	127	127	8
-5492	-5144	14736	128	-70	-104	-16308	-32	-108	-71	-139	-244	-15752	1112	-3384	-34	-27	-50	-7028	4160	13704	-227	149	-210	-16668	1748	424	-2	124	-276	-15884	888	-3536	-241	-223	-73	127	127	8
-5548	-5120	14772	102	-76	-110	-16232	-8	-96	-295	-186	-268	-15704	1336	-3488	-58	-32	-52	-7016	4128	13720	-195	112	-226	-16580	1660	388	-34	114	-308	-15824	916	-3708	-289	-155	-105	127	127	8
-5476	-5128	14808	23	-111	-118	-16208	-56	44	-554	-259	-323	-15736	1168	-3352	-84	-39	-57	-7008	4172	13692	-172	129	-201	-16724	1644	476	-41	111	-213	-15892	840	-3696	-298	-20	-68	127	127	8
-5460	-5184	14856	5	-129	-166	-16176	-128	144	-471	-292	-296	-15872	1232	-3368	-93	-31	-61	-7044	4136	13664	-174	137	-226	-16680	1648	532	-93	136	-184	-15792	808	-3956	-325	137	-68	127	127	8
-5512	-5124	14760	39	-104	-161	-16240	-192	196	-505	-361	-317	-15952	1024	-3160	-91	-26	-69	-7044	4124	13800	-143	129	-222	-16740	1428	300	-116	112	-126	-15892	892	-3920	-457	280	-80	127	127	8
-5368	-5220	14824	-13	-43	-159	-16236	-176	108	-488	-361	-267	-15952	1096	-3248	-101	-12	-70	-7036	4120	13828	-136	104	-211	-16684	1556	228	-161	100	-37	-15788	952	-3852	-613	336	-115	127	127	8
-5496	-5236	14736	-27	-72	-128	-16264	-148	268	-640	-395	-311	-15968	1064	-2960	-116	-8	-71	-6980	4116	13636	-149	129	-185	-16636	1560	340	-238	132	-21	-15940	884	-3836	-813	431	-73	127	127	8
-5424	-5208	14820	-34	-84	-167	-16132	-288	188	-677	-380	-294	-16032	856	-2944	-116	-5	-71	-6968	4104	13704	-90	139	-203	-16724	1560	324	-196	102	35	-15948	844	-3720	-845	474	-134	128	127	8
-5472	-5272	14856	15	-74	-147	-16128	-260	316	-778	-320	-245	-16120	1008	-2728	-123	-13	-65	-7032	3976	13832	-174	87	-182	-16736	1516	420	-132	91	13	-16056	740	-3732	-853	564	-140	128	127	8
-5452	-5208	14728	53	-91	-144	-16148	-332	504	-741	-255	-191	-16104	1024	-2968	-121	-17	-68	-7100	4068	13720	-143	131	-208	-16688	1656	396	-152	146	-6	-15944	788	-3556	-816	553	-192	128	127	8
-5344	-5204	14720	18	-25	-157	-16252	-364	420	-517	-205	-150	-16024	920	-2872	-115	-10	-58	-7012	4152	13848	-109	162	-220	-16692	1748	388	-298	186	-33	-16116	764	-3592	-773	636	-115	128	127	8
-5472	-5252	14832	36	13	-132	-16204	-364	416	-368	-106	-133	-15880	1024	-3216	-93	4	-62	-7416	4052	13892	-121	173	-213	-16780	1496	392	-229	92	-78	-16052	724	-3516	-748	504	-103	128	127	8
-5456	-5192	14820	24	18	-161	-16192	-268	188	-258	-84	-140	-15896	832	-3000	-76	3	-57	-7012	4080	13788	-147	138	-233	-16620	1648	248	-211	156	-70	-16068	584	-3636	-625	556	-60	127	127	8
-5432	-5256	14768	78	-37	-127	-16188	-344	284	-238	-63	-85	-15848	672	-3024	-59	6	-53	-7012	4164	13732	-155	188	-273	-16736	1764	332	-264	224	-118	-15936	716	-3896	-559	644	20	127	127	8
-5440	-5232	14792	106	-80	-116	-16188	-388	108	-298	-57	-99	-15968	688	-3168	-49	-7	-48	-7044	4032	13772	-159	215	-300	-16776	1484	252	-208	192	-106	-15840	696	-3912	-469	671	91	127	127	8
-5384	-5164	14780	91	-66	-139	-16176	-288	36	-365	-61	-33	-16152	832	-3168	-51	-8	-43	-6984	4008	13720	-121	187	-252	-16640	1312	104	-202	196	-96	-15864	796	-4192	-548	663	32	127	127	8
-5472	-5228	14784	121	-46	-52	-16192	-264	72	-464	-100	-26	-15840	928	-3048	-68	-7	-40	-7064	4020	13704	-116	184	-218	-16572	1388	140	-139	143	-43	-15784	852	-4080	-535	569	-23	127	127	8
-5368	-5180	14892	94	-57	-105	-16232	-244	248	-511	-79	-35	-15800	1088	-3192	-79	0	-35	-7048	4020	13752	-135	207	-234	-16736	1648	220	-112	133	-50	-15960	936	-4060	-638	511	-53	127	127	8
-5508	-5140	14772	89	-94	-134	-16144	-212	148	-552	-98	-6	-15904	888	-3304	-89	5	-35	-7004	4036	13952	-77	168	-240	-16696	1564	220	-106	150	-31	-15908	772	-3792	-556	521	-96	127	126	8
-5488	-5276	14788	55	-42	-106	-16128	-256	196	-542	-79	-2	-16024	904	-3464	-83	2	-38	-7036	3932	13820	-174	153	-227	-16620	1396	228	-149	150	-100	-15988	904	-3788	-1082	676	-216	127	128	8
-5444	-5264	14840	80	-78	-134	-16124	-220	324	-440	-58	9	-15752	920	-3176	-75	-12	-33	-7056	4000	13844	-124	119	-219	-16704	1412	176	109	54	-99	-16496	1064	-4644	-2551	266	-508	127	127	8
-5456	-5252	14748	109	-133	-138	-16228	-336	292	-407	-2	54	-15904	792	-3304	-61	-20	-29	-7036	4080	13832	-171	114	-224	-16748	1648	116	224	38	-182	-16788	1036	-4204	-3043	-284	-752	127	127	8
-5392	-5236	14836	127	-70	-116	-16312	-304	228	-235	-14	-15	-15912	672	-3488	-26	-6	-29	-7100	4188	13844	-132	53	-232	-16612	1616	268	126	33	-296	-17056	976	-4056	-4142	-577	-1203	127	126	8
-5436	-5208	14788	122	-46	-140	-16244	-188	160	-189	-34	40	-15824	680	-3304	-10	5	-17	-7048	4068	13860	-206	90	-221	-16632	1680	348	59	51	-347	-17472	1040	-4008	-3861	-1347	-1753	127	127	8
-5448	-5276	14812	148	-66	-99	-16156	-260	168	-137	-25	-38	-16080	824	-2992	6	2	-4	-7036	4120	13816	-192	52	-179	-16644	1660	392	-27	80	-546	-17756	736	-3588	-3173	-2634	-2731	127	126	8
-5468	-5232	14820	126	-43	-121	-16140	-240	192	-116	-18	8	-15904	1032	-3328	18	-6	-3	-7104	3996	13768	-241	35	-183	-16652	1628	456	-38	193	-630	-15508	-416	-2772	-2558	-4187	-2996	127	127	8
-5440	-5192	14772	162	-96	-124	-16096	-260	320	-116	47	-14	-15928	1264	-3304	21	-12	-5	-7008	4052	13776	-248	42	-200	-16480	1728	460	-36	254	-768	-13832	-296	-2304	-755	-4049	-1555	127	127	8
-5352	-5192	14812	158	-58	-131	-16284	-352	292	5	90	35	-15928	1072	-3168	22	-4	-12	-6932	4116	13584	-275	30	-197	-16492	1560	316	-108	330	-863	-14800	-84	-3120	-450	-2489	-264	127	126	8
-5400	-5244	14696	136	12	-94	-16236	-204	264	110	85	-4	-15952	1232	-3288	22	-2	-14	-7008	4032	13832	-263	108	-273	-16828	1108	240	-159	244	-871	-15364	8	-3956	-56	-1733	10	127	126	8
-5428	-5284	14756	149	2	-133	-16248	-220	-16	151	57	-13	-15944	1040	-3368	10	4	-15	-7040	3992	13852	-215	167	-287	-17032	692	-92	-6	312	-643	-15528	548	-3984	629	-1060	83	127	126	8
-5508	-5268	14752	120	2	-106	-16176	-148	100	-92	41	13	-15840	888	-3120	-2	0	-12	-7032	3932	13740	-202	143	-271	-16756	840	76	237	137	-457	-15508	788	-4316	583	-793	63	127	126	8
-5412	-5248	14752	158	-96	-129	-16140	-200	188	-127	31	-40	-15800	936	-3192	-5	4	-9	-7100	4004	13920	-219	114	-230	-16620	1100	8	221	155	-367	-15360	800	-4108	484	-566	136	127	127	8
-5448	-5272	14712	193	-77	-96	-16168	-176	216	-128	32	20	-15944	824	-3096	5	-4	-3	-7120	4024	13800	-135	110	-246	-16776	788	12	85	63	-190	-15556	780	-4164	231	-316	150	127	127	8
-5400	-5188	14784	132	-30	-108	-16236	-280	228	-3	75	3	-16040	960	-3032	22	10	0	-7040	3952	13776	-115	107	-187	-16908	836	168	220	-55	-6	-16064	680	-4072	111	-58	79	127	127	8
-5428	-5236	14804	132	21	-118	-16224	-216	188	163	112	-23	-15904	904	-3216	40	32	3	-6968	3932	13768	-89	135	-192	-16796	1096	212	165	-78	91	-16004	484	-3924	40	32	41	127	126	8
-5508	-5240	14856	147	-4	-52	-16184	-160	96	247	124	-67	-15840	920	-3048	65	39	1	-7056	4032	13760	-34	136	-223	-16672	1180	220	10	-92	150	-15924	288	-3660	-278	-148	117	127	127	8
-5496	-5224	14784	130	-73	-113	-16216	-168	56	261	56	-25	-15976	880	-3104	85	36	0	-6996	4012	13824	-67	151	-164	-16664	1048	232	70	-77	208	-16028	324	-3588	-221	-305	160	127	127	8
-5532	-5232	14728	104	-43	-109	-16124	-156	132	243	114	-80	-15872	784	-3448	99	27	2	-7120	3984	13796	-46	134	-200	-16828	992	100	113	-83	235	-15972	340	-3296	-1	-232	170	127	127	8
-5412	-5208	14776	166	-22	-118	-16224	-348	176	286	113	-69	-15944	776	-3024	102	29	14	-7080	3948	13792	-28	142	-168	-16732	1132	20	220	-155	222	-15988	260	-3220	323	-41	256	127	126	8
-5364	-5284	14788	163	-29	-107	-16296	-356	140	471	139	-18	-15888	688	-3216	113	26	17	-7008	4052	13740	-15	131	-154	-16644	1296	108	318	-224	218	-16172	196	-3088	555	-112	279	127	127	8
-5408	-5280	14804	169	-5	-98	-16288	-244	160	527	164	-36	-15928	776	-3272	118	29	21	-7000	4064	13724	-76	148	-185	-16692	1372	224	430	-190	133	-16044	340	-3140	720	-279	251	127	127	8
-5472	-5288	14824	178	-9	-100	-16152	-136	132	411	100	-37	-15816	928	-3456	111	27	28	-7080	4000	13768	-42	138	-219	-16772	1228	352	429	-189	106	-16248	340	-3136	700	-468	235	127	127	8
-5452	-5240	14660	186	5	-89	-16156	-216	156	392	132	-65	-15816	936	-3160	111	22	22	-7000	4028	13776	-80	142	-196	-16720	1192	392	428	-211	71	-15984	476	-3356	802	-511	183	127	126	8
-5508	-5160	14824	199	-6	-103	-16140	-280	224	440	118	-38	-15880	1016	-3152	128	20	26	-6956	3972	13832	-74	168	-198	-16696	1180	236	359	-110	95	-16032	480	-3368	658	-410	235	127	126	8
-5312	-5236	14620	213	-36	-118	-16148	-264	200	545	184	-44	-16064	1112	-3400	134	16	20	-7072	4036	13832	-117	131	-179	-16744	1260	272	262	-153	96	-16084	456	-3384	588	-440	266	127	126	8
-5436	-5180	14716	170	42	-75	-16228	-56	68	483	144	-78	-15872	1008	-3232	131	20	25	-7064	4008	13744	-99	144	-177	-16720	1100	160	237	-129	83	-15948	436	-3320	414	-559	186	127	128	8
-5452	-5232	14740	176	19	-145	-16240	-120	-52	577	118	-115	-15808	1072	-3512	134	17	21	-6992	4028	13840	-100	132	-171	-16680	1084	200	317	-135	127	-15920	444	-3488	431	-523	212	127	127	8
-5492	-5268	14824	158	11	-100	-16172	-208	68	648	109	-122	-15960	912	-3464	155	16	26	-7036	3984	13724	-123	134	-174	-16728	1172	332	304	-163	170	-15944	424	-3456	383	-506	170	127	127	8
-5476	-5216	14796	149	27	-138	-16160	-136	-192	660	86	-68	-15784	1000	-3600	154	16	26	-6996	4048	13792	-26	145	-202	-16740	1120	208	257	-158	212	-16000	436	-3568	397	-457	200	127	127	8
-5376	-5204	14848	169	-29	-108	-16188	-168	-12	647	65	-124	-15736	944	-3640	150	2	26	-7104	3984	13824	-55	143	-203	-16668	1076	196	235	-196	228	-15932	404	-3516	413	-517	168	127	127	8
-5440	-5312	14872	175	-53	-108	-16240	-188	-100	632	-1	-121	-15912	952	-3400	149	4	28	-7036	4000	13668	-57	147	-157	-16688	1192	208	316	-210	279	-15928	356	-3396	436	-585	143	127	127	8
-5412	-5212	14656	181	-43	-78	-16308	-84	-12	662	-67	-166	-15784	1024	-3752	146	8	26	-7048	3940	13792	-58	115	-143	-16712	1012	328	295	-196	258	-15864	216	-3280	452	-549	185	127	127	8
-5468	-5196	14816	148	-62	-121	-16264	-192	-88	610	-152	-226	-15768	864	-3552	140	2	24	-7076	4012	13772	-37	116	-131	-16716	1080	252	324	-209	356	-16116	348	-3432	484	-485	226	127	128	8
-5456	-5272	14848	128	-5	-132	-16220	-208	20	605	-201	-193	-15752	1024	-3656	138	3	26	-6980	4084	13832	-34	134	-167	-16788	1092	376	357	-224	406	-16052	380	-3328	433	-565	167	127	128	8
-5420	-5208	14712	119	-45	-118	-16116	-188	-64	448	-240	-220	-15736	904	-3552	134	-11	29	-7084	3980	13740	-31	120	-153	-16684	1236	316	278	-209	427	-15952	376	-3228	355	-612	248	127	127	8
-5388	-5280	14752	155	-118	-124	-16224	-368	-8	383	-280	-227	-15712	776	-3232	122	-20	33	-7008	4040	13744	-25	143	-134	-16724	1256	348	259	-186	428	-16060	372	-3196	317	-603	211	127	127	8
-5408	-5124	14840	138	-88	-105	-16252	-272	-44	346	-307	-193	-15872	944	-3200	121	-20	31	-7028	4076	13688	-4	124	-162	-16736	1184	344	281	-175	467	-16036	448	-3232	345	-562	222	127	127	8
-5396	-5216	14792	147	-83	-124	-16212	-312	60	332	-319	-160	-15872	904	-3176	111	-22	32	-7004	3996	13860	11	127	-132	-16648	1300	240	234	-181	479	-16036	432	-3168	322	-570	241	127	126	8
-5460	-5216	14840	147	-69	-116	-16168	-220	96	304	-300	-179	-15928	968	-3176	108	-14	26	-6992	4060	13820	-32	129	-149	-16716	1292	252	198	-184	466	-16052	372	-3304	251	-594	239	127	127	8
