#Activity	sitting 
#ActivityID	5 
#Date 09-23-16-33
acc_rf_x	acc_rf_y	acc_rf_z	gyro_rf_x	gyro_rf_y	gyro_rf_z	acc_rs_x	acc_rs_y	acc_rs_z	gyro_rs_x	gyro_rs_y	gyro_rs_z	acc_rt_x	acc_rt_y	acc_rt_z	gyro_rt_x	gyro_rt_y	gyro_rt_z	acc_lf_x	acc_lf_y	acc_lf_z	gyro_lf_x	gyro_lf_y	gyro_lf_z	acc_ls_x	acc_ls_y	acc_ls_z	gyro_ls_x	gyro_ls_y	gyro_ls_z	acc_lt_x	acc_lt_y	acc_lt_z	gyro_lt_x	gyro_lt_y	gyro_lt_z	EMG_r	EMG_l	act
-9832	-3420	12040	-11	12	-21	-15624	-1024	-4992	23	2	17	-4048	-176	16584	24	-3	0	-9856	2744	13032	24	-5	-18	-15336	-936	-5280	-2	2	-5	-3744	2040	16272	0	-12	21	131	127	5
-9824	-3472	12116	-12	14	-17	-15728	-936	-4864	9	5	15	-4064	56	16504	27	-6	10	-9960	2808	13328	17	-3	-21	-15360	-864	-5016	-3	-5	-11	-3776	1984	16056	-12	-18	28	131	124	5
-9792	-3360	12180	-10	10	-20	-15704	-1072	-4992	-21	2	11	-4144	-104	16536	26	-1	12	-10048	2696	13352	3	-10	-21	-15200	-920	-4760	-7	-4	-10	-3680	1792	16256	-2	-23	35	131	125	5
-9820	-3492	12116	-9	10	-23	-15784	-1136	-5184	-29	3	5	-4072	-168	16552	27	5	18	-10000	2760	12992	-1	-8	-23	-15480	-1160	-4872	1	-6	-12	-3472	1560	16424	11	-18	28	132	124	5
-9840	-3532	12004	-16	9	-33	-15752	-1568	-4992	-17	-2	15	-4272	-480	16496	25	5	9	-9960	2640	13024	1	-4	-29	-15336	-1208	-4856	15	0	-5	-3624	1824	16584	18	-17	32	132	122	5
-9764	-3560	12068	-9	10	-25	-15768	-1336	-5152	49	-17	21	-4136	-168	16592	22	-2	3	-9912	2776	13112	23	-6	-22	-15384	-904	-4872	19	-3	-5	-3816	1888	16232	20	-10	29	132	125	5
-9808	-3436	12060	-11	11	-21	-15672	-1032	-5040	45	-17	17	-4072	40	16632	20	-9	7	-9968	2640	13344	19	3	-18	-15416	-912	-5360	9	-3	-13	-3904	2008	16400	17	-7	34	132	126	5
-9792	-3360	12104	-11	11	-26	-15792	-1008	-4984	8	-11	12	-3832	-344	16704	8	-2	8	-9888	2648	13056	23	6	-24	-15464	-896	-5000	-6	-6	-20	-3752	2056	16280	3	-15	36	132	124	5
-9792	-3512	12000	-12	18	-28	-15664	-1336	-5048	-5	8	15	-3920	-408	16624	25	3	2	-9912	2752	13280	17	-4	-23	-15480	-968	-4792	-22	-3	-20	-3816	1920	16352	-6	-14	35	132	126	5
-9792	-3548	12024	-7	22	-26	-15592	-1232	-4912	10	3	15	-3968	-32	16880	32	7	5	-9952	2688	13208	6	-10	-24	-15528	-1136	-4896	-24	-4	-23	-3800	1856	16376	-14	-12	28	132	124	5
-9792	-3396	12076	-4	18	-21	-15840	-1136	-4960	9	-1	13	-4088	64	16424	19	-3	9	-10120	2728	12992	4	-5	-22	-15464	-1288	-5056	-13	0	-16	-3640	1736	16336	-21	-12	19	132	127	5
-9820	-3456	12080	-11	16	-22	-15872	-1176	-5224	-11	2	14	-4016	32	16656	18	-7	4	-9960	2648	13352	-1	-8	-29	-15448	-1248	-4824	19	-8	-10	-3576	1640	16496	-22	-17	11	131	125	5
-9812	-3464	12064	-13	22	-24	-15800	-1192	-5248	1	1	4	-4144	-88	16728	29	-14	7	-9912	2728	13184	6	-5	-23	-15448	-1192	-4968	34	-9	-3	-3736	1640	16336	-13	-15	4	132	124	5
-9780	-3404	12084	-13	22	-26	-15768	-984	-5080	4	-5	-1	-4072	120	16400	23	-8	11	-10048	2632	13304	8	-4	-21	-15352	-992	-5008	37	-6	7	-3864	1536	16360	-3	-19	-3	131	126	5
-9808	-3388	12064	-17	19	-25	-15784	-1064	-4944	2	-11	-6	-4120	16	16656	8	-10	18	-9992	2752	13072	18	-5	-21	-15336	-1080	-4792	26	-6	8	-3760	1768	16320	7	-17	1	131	122	5
-9812	-3420	12156	-27	16	-31	-15640	-1264	-4992	-7	-7	-5	-4232	-208	16448	1	-2	20	-9944	2768	13192	28	-1	-18	-15448	-960	-4944	4	-6	5	-3744	1880	16272	22	-14	9	132	126	5
-9856	-3568	11956	-28	20	-31	-15760	-1456	-4848	22	-12	-2	-4272	-224	16488	6	-4	14	-9984	2752	13200	27	5	-21	-15512	-912	-5120	-20	-2	2	-3784	1904	16312	24	-15	14	132	124	5
-9784	-3540	12028	-22	15	-28	-15704	-1256	-5040	40	-8	-8	-4064	-264	16600	9	-6	16	-10056	2720	13336	21	1	-19	-15336	-1128	-5032	-34	3	-3	-3880	1936	16360	20	-15	16	133	125	5
-9840	-3484	11952	-20	15	-25	-15840	-1040	-5008	29	-10	2	-3936	-384	16504	-1	-2	13	-10040	2712	13120	19	2	-16	-15392	-1168	-4944	-29	-1	-4	-3776	2016	16328	2	-18	24	132	125	5
-9808	-3468	12080	-17	15	-27	-15768	-1192	-5064	-8	-7	8	-3912	-472	16704	13	3	13	-9944	2808	13168	16	-8	-18	-15464	-1224	-5008	-8	-4	1	-3704	1904	16616	5	-21	15	132	123	5
-9864	-3488	12092	-13	14	-24	-15800	-1528	-4992	-12	-6	12	-4136	-600	16864	26	1	9	-9872	2824	13216	16	-4	-21	-15384	-896	-4888	22	-4	3	-3632	1848	16432	4	-17	13	132	124	5
-9816	-3528	12080	-14	14	-22	-15712	-1528	-5160	-3	-9	16	-4152	-480	16472	32	-2	2	-9856	2720	13040	9	-19	-20	-15392	-968	-5040	36	-5	4	-3728	1768	16496	1	-16	10	132	127	5
-9820	-3544	12156	-3	14	-22	-15832	-1344	-4608	17	-11	23	-3816	-256	16768	21	-7	-2	-9960	2760	12976	12	-5	-25	-15296	-824	-5056	34	-14	2	-3648	2088	16248	7	-14	20	132	125	5
-9796	-3524	12000	-2	11	-21	-15696	-1256	-5032	15	-3	29	-3816	-424	16600	24	-12	-2	-9944	2760	13192	8	-5	-28	-15464	-872	-4960	13	-8	-15	-3768	2016	16328	6	-15	36	132	123	5
-9808	-3428	12032	-6	11	-21	-15688	-1312	-4904	10	-2	28	-3920	-272	16776	40	0	0	-9904	2832	12968	0	-11	-25	-15464	-928	-5120	-18	-17	-18	-3880	2056	16528	3	-16	40	132	125	5
-9824	-3392	12100	-9	13	-21	-15816	-1192	-4904	14	-1	24	-3960	-160	16968	36	1	5	-10096	2688	13128	-8	-16	-26	-15528	-984	-4992	-42	-11	-27	-3848	1976	16632	8	-14	46	131	125	5
-9764	-3424	12068	-7	14	-25	-15768	-1320	-4984	-10	4	25	-4120	-392	16608	25	9	1	-9856	2736	13040	-7	-11	-19	-15488	-1016	-4952	-33	-9	-27	-3560	1792	16432	8	-16	44	132	126	5
-9836	-3532	12020	-10	9	-22	-15784	-1496	-5168	12	3	28	-4096	-368	16472	30	6	-3	-9784	2616	13176	3	-6	-25	-15440	-1288	-4944	-21	-1	-24	-3664	1856	16544	-4	-14	33	132	126	5
-9772	-3532	11988	-4	10	-19	-15872	-1336	-4848	48	0	33	-3952	-344	16568	30	-3	-13	-9832	2760	13264	4	-14	-24	-15496	-1184	-4976	-2	-2	-12	-3720	1720	16560	-4	-13	22	132	127	5
-9820	-3448	12144	-1	14	-22	-15768	-1152	-5000	49	-7	37	-3952	-32	16744	31	-6	-16	-9960	2608	13320	0	-8	-29	-15384	-1128	-5120	18	-2	-12	-3744	1840	16496	0	-9	13	132	123	5
-9772	-3408	12100	-5	14	-20	-15752	-1032	-4992	13	2	29	-3912	96	16880	26	-4	-8	-10104	2672	13192	-2	-11	-22	-15352	-1136	-5000	35	-9	-6	-3784	1720	16400	-7	-14	9	132	123	5
-9836	-3464	12140	-11	15	-22	-15696	-1072	-5008	-2	7	22	-3992	88	16376	28	1	-3	-9944	2544	13152	-4	-15	-23	-15520	-1064	-5256	25	-10	1	-3776	1728	16312	-14	-19	8	132	124	5
-9820	-3436	12116	-9	19	-20	-15760	-1024	-4936	-10	6	12	-4064	32	16656	25	4	4	-9952	2704	13024	-6	-12	-25	-15352	-1024	-4944	3	-11	-3	-3736	1840	16368	-1	-14	18	131	123	5
-9816	-3468	12032	-21	13	-24	-15848	-1200	-4912	-3	6	13	-4168	0	16648	19	-3	12	-9864	2640	13224	-10	-14	-23	-15424	-1056	-4808	-7	-2	-7	-3752	1768	16568	1	-14	27	132	125	5
-9692	-3456	12016	-13	12	-24	-15712	-1192	-5168	-4	3	9	-4312	-64	16632	19	-4	9	-10088	2608	13368	-7	-17	-23	-15328	-1112	-4968	-23	5	-14	-3736	1856	16792	-5	-19	21	131	122	5
-9820	-3500	12120	-15	14	-27	-15752	-1128	-5328	18	-5	3	-4176	-32	16816	22	-3	16	-9920	2728	13280	0	-15	-21	-15360	-1224	-4672	-12	-4	-7	-3752	1520	16240	1	-15	14	131	125	5
-9828	-3472	12080	-16	18	-29	-15664	-1368	-5032	12	-14	5	-4240	-232	16528	22	-4	11	-9984	2568	13168	5	-11	-20	-15336	-1048	-4928	3	-2	2	-3568	1888	16368	11	-16	13	132	124	5
-9800	-3408	12096	-14	15	-29	-15792	-1216	-4792	6	-12	6	-4128	-192	16832	11	-4	8	-9984	2704	13192	1	-12	-21	-15424	-968	-4816	26	-2	3	-3800	1984	16512	14	-17	15	132	125	5
-9832	-3524	11972	-11	17	-30	-15784	-1352	-5192	24	-15	12	-4016	-272	16624	15	-6	7	-9920	2792	13232	18	-7	-22	-15496	-912	-4856	22	-7	-1	-3760	2016	16448	10	-13	19	132	123	5
-9728	-3548	12052	-14	15	-20	-15560	-1048	-4792	21	-14	12	-4016	-88	16704	20	-10	11	-9952	2624	13120	13	-4	-25	-15480	-1008	-5000	11	-8	-2	-3760	1896	16312	-3	-12	22	131	124	5
-9820	-3376	12080	-13	15	-27	-15736	-1096	-5008	-7	-10	3	-3872	-120	16768	22	-2	18	-9984	2720	13016	13	-9	-20	-15400	-1048	-5024	-1	-9	-6	-3592	1888	16256	-5	-16	28	133	124	5
-9780	-3464	12120	-18	18	-27	-15776	-1256	-4616	-43	1	3	-4048	-440	16552	24	-4	22	-9864	2776	13064	10	-5	-20	-15520	-1000	-4840	0	-3	-7	-3632	1824	16384	-4	-23	22	131	125	5
-9784	-3432	12068	-20	17	-25	-15832	-1504	-5016	-23	1	7	-3968	-496	16544	31	4	7	-9824	2704	13440	13	-3	-17	-15448	-1056	-4848	4	-10	-2	-3504	1800	16288	-2	-21	18	131	123	5
-9836	-3576	12056	-14	15	-25	-15760	-1536	-5168	20	-3	13	-4168	-384	16512	28	-3	4	-9848	2648	13200	12	-8	-21	-15472	-1208	-4784	-4	-9	-3	-3640	1736	16344	1	-14	16	131	126	5
-9816	-3400	12020	-4	17	-25	-15704	-1320	-5016	44	-11	23	-4056	-344	16560	21	-5	-4	-9936	2536	13048	13	-10	-22	-15360	-1136	-4928	-3	-2	-6	-3824	1792	16544	-1	-13	16	132	123	5
-9696	-3472	12068	-10	12	-22	-15696	-1136	-5040	40	-4	24	-4040	-296	16704	29	1	-3	-9832	2568	13224	9	-7	-25	-15432	-1024	-5144	1	1	-6	-3840	1744	16240	11	-12	23	131	127	5
-9748	-3488	11984	-8	16	-22	-15728	-1264	-5088	11	5	19	-3864	-264	16680	34	-4	2	-9856	2776	13336	4	-12	-19	-15488	-1024	-4912	9	1	-9	-3840	1944	16256	11	-14	18	131	126	5
-9748	-3484	12060	-9	15	-17	-15784	-1208	-4904	3	11	17	-4064	-176	16424	32	8	4	-9896	2728	13096	8	-4	-23	-15392	-952	-5320	7	-3	-1	-3896	1952	16456	-2	-18	20	130	127	5
-9836	-3488	12092	-7	15	-17	-15672	-1200	-4848	4	6	18	-4040	-240	16592	31	6	6	-9872	2704	13240	14	-7	-21	-15352	-952	-4912	3	-3	-3	-3848	1816	16392	-6	-17	23	130	125	5
-9764	-3396	12112	-8	15	-21	-15832	-1184	-5096	-5	6	16	-4080	-80	16480	27	0	5	-10000	2696	13288	17	-11	-16	-15432	-1000	-4952	-2	-6	-5	-3552	1904	16488	-1	-11	29	131	123	5
-9788	-3408	12060	-14	13	-16	-15840	-1216	-4976	-11	3	10	-4208	-312	16632	28	2	1	-9856	2608	13392	14	-1	-16	-15344	-1056	-4880	-7	-1	-8	-3744	1744	16248	6	-10	23	133	125	5
-9836	-3440	12040	-7	15	-23	-15752	-1368	-5072	3	-5	18	-4320	-400	16656	30	0	-2	-9936	2632	13304	11	-3	-19	-15488	-1216	-5080	-5	0	-5	-3632	1784	16360	8	-19	21	139	125	5
-9784	-3492	12180	-6	14	-26	-15704	-1280	-5184	21	1	25	-4216	-264	16776	28	-3	-8	-9896	2696	13312	15	-11	-21	-15488	-1040	-4952	10	-5	1	-3768	1896	16560	16	-17	17	140	126	5
-9808	-3440	12156	-4	16	-19	-15608	-1168	-4944	43	-3	28	-4024	-80	16328	26	4	-3	-9992	2600	13456	16	-8	-17	-15440	-952	-5104	18	-4	-2	-3792	2040	16544	6	-14	15	141	123	5
-9744	-3468	12092	-5	17	-24	-15848	-904	-4936	38	-3	24	-4184	-104	16416	21	-1	-4	-9864	2648	13024	19	0	-17	-15480	-928	-5072	9	-6	-6	-3856	2096	16328	-1	-16	20	140	125	5
-9736	-3428	12044	-8	17	-21	-15712	-1080	-4960	9	-2	22	-3928	-24	16472	22	-1	0	-9848	2608	13120	16	2	-19	-15416	-904	-4880	-8	-8	-9	-3776	1968	16416	-1	-15	22	140	125	5
-9852	-3436	12100	-9	12	-28	-15832	-1024	-5264	-1	-1	16	-4056	-40	16512	26	1	5	-9872	2648	13072	21	1	-16	-15480	-984	-4864	-11	-9	-9	-3664	1880	16104	1	-13	29	139	123	5
-9788	-3436	12184	-7	14	-25	-15736	-1184	-4920	-16	0	14	-4056	-176	16784	25	1	6	-9936	2696	13192	20	-2	-19	-15384	-1176	-4760	-12	-6	-9	-3696	1728	16504	-3	-14	27	139	126	5
-9796	-3396	12040	-10	15	-21	-15792	-1216	-5080	-12	-5	14	-4016	-248	16664	21	2	4	-9848	2720	13088	19	-3	-24	-15400	-1000	-5016	-2	-10	-11	-3528	1768	16440	4	-15	26	138	125	5
-9804	-3432	12092	-11	17	-26	-15840	-1336	-5080	1	-7	19	-3944	-376	16624	20	-3	-6	-9712	2664	13240	17	-2	-23	-15328	-1128	-4848	11	-10	-2	-3736	1968	16488	10	-8	20	138	122	5
-9804	-3520	12016	-10	13	-23	-15792	-1272	-4936	38	-3	19	-3904	-128	16656	25	-3	-3	-9856	2728	13264	16	5	-21	-15368	-992	-4768	11	-6	-6	-3608	1936	16504	3	-7	17	137	126	5
-9788	-3428	12136	-13	21	-24	-15768	-952	-5128	37	-3	21	-3992	-144	16568	20	-4	-2	-9864	2552	13304	11	-3	-23	-15432	-1096	-4736	2	-3	-8	-3752	2008	16376	-8	-13	15	137	124	5
-9764	-3368	12208	-9	16	-24	-15816	-1080	-5112	17	2	14	-3928	-88	16592	25	0	8	-9936	2808	13160	10	-8	-23	-15464	-960	-4992	4	2	-5	-3752	1800	16456	-2	-15	12	137	126	5
-9860	-3468	12120	-16	17	-29	-15736	-1088	-5032	-5	7	9	-4152	-192	16744	19	5	9	-9872	2632	13184	11	-7	-22	-15416	-952	-4936	1	-1	-4	-3688	1912	16560	2	-17	22	137	126	5
-9872	-3472	12056	-22	18	-23	-15840	-1232	-5056	2	6	11	-4184	32	16592	19	5	8	-9944	2776	13320	17	1	-20	-15496	-960	-5128	-5	3	-12	-3632	1816	16376	-6	-17	22	137	125	5
-9796	-3448	12172	-15	16	-22	-15848	-1256	-4984	3	-4	8	-4208	-136	16456	14	1	9	-9976	2672	13288	20	2	-20	-15536	-1144	-4880	-10	-2	-9	-3536	1960	16312	-8	-14	23	137	126	5
-9864	-3412	12128	-18	16	-26	-15768	-1088	-4904	7	-3	11	-3992	-224	16312	17	-8	10	-9840	2744	13224	19	-1	-23	-15384	-1104	-4792	-8	0	-9	-3688	1856	16400	4	-9	21	136	125	5
-9744	-3460	12148	-15	16	-25	-15768	-1088	-5144	10	-4	10	-4152	-136	16592	34	-11	12	-9864	2688	13264	15	-2	-20	-15424	-960	-5104	-3	1	-4	-3864	1896	16304	5	-14	23	136	124	5
-9764	-3456	12128	-12	15	-27	-15872	-1152	-5016	-1	-2	3	-4064	-224	16608	34	-5	18	-9888	2720	13264	13	-8	-25	-15384	-1168	-5000	12	-2	-5	-3752	1736	16544	5	-17	21	136	125	5
-9828	-3424	12112	-15	14	-30	-15768	-1472	-5144	-16	-3	10	-4096	-480	16800	27	6	10	-9936	2760	13184	14	-9	-21	-15320	-1048	-4976	25	-3	-4	-3840	1816	16592	11	-16	20	136	126	5
-9792	-3504	12024	-11	12	-27	-15808	-1568	-4848	17	-4	15	-4280	-408	16544	23	7	2	-9936	2648	13112	23	-6	-21	-15432	-984	-5056	20	-14	-5	-3840	2112	16368	11	-15	24	135	124	5
-9720	-3524	12032	-8	18	-24	-15632	-1304	-4944	47	-13	24	-4104	-112	16472	19	-5	-2	-10008	2864	13000	18	-8	-17	-15376	-896	-5144	-5	-10	-7	-3832	2024	16384	0	-9	31	136	125	5
-9848	-3416	12072	-4	15	-19	-15896	-1080	-4984	27	-7	19	-3872	-240	16672	11	-7	-1	-9976	2768	12968	15	-3	-16	-15408	-968	-5080	-12	-3	-12	-3768	1952	16240	-1	-10	26	135	125	5
-9768	-3396	12080	-9	16	-21	-15736	-1176	-5040	0	3	16	-3888	-248	16624	20	-2	-3	-9936	2608	13232	21	-4	-21	-15320	-1088	-4960	-15	-9	-15	-3696	1768	16352	2	-17	21	135	123	5
-9788	-3448	11992	-9	13	-27	-15816	-1320	-5056	-16	8	18	-4048	-336	16568	30	8	-1	-9944	2664	13128	18	-5	-21	-15448	-1104	-4872	1	-10	-10	-3664	1952	16464	2	-20	21	134	124	5
-9800	-3484	12120	-9	11	-22	-15792	-1120	-5144	6	-5	22	-3960	-128	16792	32	0	1	-10016	2688	13336	18	-1	-20	-15384	-1088	-4816	4	-9	-7	-3640	1848	16392	-3	-13	18	134	126	5
-9804	-3468	12084	-10	14	-20	-15808	-1016	-5128	24	-10	20	-4064	160	16680	24	-8	5	-9856	2720	13176	20	-4	-17	-15400	-1160	-4872	5	-5	-8	-3528	1808	16512	-10	-15	18	134	126	5
-9856	-3412	12160	-10	14	-25	-15728	-1104	-5064	18	-8	22	-4096	40	16536	27	-2	3	-9960	2608	13064	15	-3	-20	-15584	-1064	-4784	10	-10	-4	-3736	1816	16224	-1	-11	16	133	123	5
-9820	-3420	12092	-13	18	-22	-15728	-1192	-4992	3	0	12	-4072	-168	16568	31	0	9	-9952	2664	13008	13	-9	-18	-15416	-1000	-4928	13	1	-3	-3736	1888	16288	5	-15	17	133	123	5
-9728	-3536	12204	-16	14	-27	-15752	-1232	-4752	4	6	10	-4200	-200	16704	25	4	8	-9896	2664	13272	16	-13	-21	-15536	-976	-4856	8	-1	2	-3608	1872	16536	11	-17	15	134	123	5
-9816	-3500	12008	-14	16	-27	-15680	-1248	-5072	24	-5	12	-4104	-200	16896	18	7	6	-9800	2784	13240	17	-7	-23	-15464	-888	-4872	-4	-3	0	-3712	1968	16680	11	-17	26	134	126	5
-9804	-3444	12128	-15	16	-26	-15880	-1224	-4960	32	-7	15	-4136	-232	16824	19	-2	7	-9992	2736	13352	15	-4	-19	-15480	-1008	-4920	-14	0	-1	-3664	1920	16240	8	-12	24	134	126	5
-9764	-3444	12120	-8	15	-26	-15752	-1232	-4696	13	-5	10	-4016	-360	16656	20	0	6	-10032	2752	13160	17	-11	-20	-15304	-1064	-4800	-12	-1	-11	-3696	1968	16288	2	-15	20	134	126	5
-9780	-3484	12152	-12	17	-26	-15768	-1232	-5008	-1	4	14	-4048	-336	16424	21	-2	6	-9728	2704	13208	24	0	-17	-15464	-1040	-4952	-4	-3	-4	-3840	2072	16288	-5	-13	15	133	124	5
-9768	-3548	12060	-12	16	-23	-15840	-1320	-4904	9	-3	14	-3984	-128	16536	30	2	4	-9848	2712	13328	21	-2	-20	-15392	-1064	-5088	4	-7	-1	-3728	1920	16056	-13	-12	16	133	125	5
-9836	-3392	12108	-6	15	-23	-15752	-1224	-5152	7	-6	15	-4120	-152	16712	24	3	1	-9952	2544	13288	15	-4	-24	-15480	-1112	-5080	14	-8	-6	-3792	1760	16432	-4	-15	20	133	125	5
-9788	-3464	11996	-7	13	-19	-15768	-1360	-4896	-3	-8	19	-3944	-248	16320	21	2	0	-9848	2560	13320	12	-3	-19	-15416	-1016	-4912	13	-5	-10	-3656	1960	16432	6	-10	25	133	122	5
-9752	-3516	12080	-15	13	-24	-15832	-1408	-4992	12	1	17	-3944	-360	16704	16	-5	-1	-10000	2728	13080	9	-5	-19	-15296	-840	-5080	11	-7	-7	-3824	1952	16472	0	-10	25	133	123	5
-9804	-3420	12092	-8	14	-19	-15704	-1224	-5040	18	-3	23	-4048	-104	16768	19	1	3	-9976	2696	13064	10	-6	-23	-15400	-1176	-5208	-9	-6	-16	-3728	1976	16544	2	-13	31	133	123	5
-9776	-3440	12116	-9	18	-23	-15744	-1048	-4944	20	-5	19	-3960	-144	16416	27	1	4	-10152	2760	13256	7	-10	-21	-15536	-1136	-4808	-9	-10	-18	-3768	1768	16432	1	-11	29	132	125	5
-9812	-3464	12084	-13	14	-28	-15808	-1032	-4920	11	-1	15	-3992	48	16720	28	-2	9	-9952	2736	13320	6	-3	-21	-15416	-1064	-5088	-6	-6	-13	-3696	1920	16560	-3	-14	24	132	124	5
-9824	-3468	12036	-16	17	-23	-15680	-1144	-5056	-2	2	12	-4120	-208	16736	24	1	14	-9992	2696	12856	14	-3	-20	-15552	-1000	-4840	-5	-8	-8	-3736	1784	16624	-5	-12	25	132	126	5
-9768	-3428	11972	-17	13	-26	-15824	-1400	-4920	-12	4	14	-4104	-280	16672	17	3	0	-9888	2752	13144	19	-2	-21	-15368	-1216	-4968	4	-5	-7	-3584	1832	16320	11	-13	19	132	124	5
-9804	-3504	12020	-16	15	-28	-15816	-1408	-5048	31	-1	18	-4048	-128	16488	16	-4	-2	-9872	2688	13112	15	-3	-19	-15384	-992	-4744	8	-5	-4	-3624	2032	16400	2	-9	16	133	127	5
-9784	-3484	12104	-11	22	-20	-15832	-1144	-5040	37	-3	15	-3928	-88	16528	15	-4	-2	-9944	2648	13032	15	-3	-23	-15368	-1136	-4888	4	-3	0	-3600	1880	16424	-9	-16	11	132	124	5
-9792	-3356	12068	-11	20	-21	-15776	-992	-5000	22	-4	11	-4048	8	16656	15	-6	4	-9896	2664	13000	15	-2	-18	-15408	-1120	-4888	-4	-5	-1	-3584	1784	16320	-5	-14	9	132	124	5
-9756	-3376	12172	-15	21	-24	-15736	-1152	-5048	-18	7	6	-4096	-192	16904	21	4	6	-9920	2608	13096	17	-2	-18	-15488	-1056	-4896	1	-3	-2	-3736	1752	16344	-3	-16	11	132	124	5
-9752	-3564	12080	-16	19	-28	-15592	-1360	-4984	-10	5	6	-4024	-296	16760	26	3	7	-9824	2640	13280	20	-1	-16	-15624	-1048	-5016	6	-2	-4	-3784	1856	16504	5	-16	15	132	123	5
-9768	-3508	11992	-15	18	-25	-15680	-1152	-4872	10	-1	13	-4048	-112	16560	26	0	12	-9904	2752	13320	17	-11	-15	-15384	-888	-5096	-6	5	-6	-3656	1888	16384	-2	-14	23	132	126	5
-9840	-3516	12052	-12	16	-24	-15648	-1184	-4816	18	-6	11	-4016	-112	16664	23	-8	13	-9856	2728	13000	15	-13	-18	-15432	-1088	-4936	-10	-2	-11	-3624	1792	16344	-2	-13	26	132	126	5
-9780	-3460	12184	-17	15	-25	-15832	-1032	-4984	6	-7	9	-4136	-272	16432	29	-6	14	-10032	2624	13096	15	-3	-22	-15384	-1080	-4896	-7	-1	-9	-3736	1816	16232	9	-17	22	132	126	5
-9800	-3444	12056	-17	14	-25	-15760	-1144	-5096	-9	0	5	-4208	-296	16632	22	-1	12	-9736	2696	13040	13	-15	-20	-15432	-1120	-5032	6	0	-8	-3704	1952	16576	17	-17	19	132	123	5
-9828	-3516	12064	-13	18	-29	-15776	-1440	-5064	10	-1	8	-4152	-232	16728	19	-4	11	-9896	2776	13032	12	-11	-23	-15488	-888	-4760	20	-2	-8	-3776	1968	16472	11	-17	21	133	126	5
-9800	-3504	12044	-10	12	-26	-15872	-1232	-4848	23	-12	12	-4072	-160	16584	12	-7	7	-9784	2600	13088	17	-4	-25	-15480	-888	-5016	17	-8	-3	-3704	2184	16272	6	-14	23	133	126	5
-9800	-3484	12100	-7	18	-25	-15808	-1280	-5056	18	-8	16	-3984	-192	16760	9	-6	0	-9952	2656	13416	16	-6	-16	-15496	-968	-5120	10	-8	-12	-3712	2008	16272	-6	-11	25	132	122	5
-9772	-3488	12028	-8	17	-26	-15760	-1256	-5200	4	-4	11	-3872	-320	16552	20	-10	-2	-9856	2656	13192	19	-4	-16	-15416	-1000	-4728	-6	-6	-12	-3680	1960	16384	-12	-15	21	132	125	5
-9800	-3508	12028	-11	17	-23	-15704	-1192	-4960	5	-3	15	-4152	-88	16680	24	-6	-2	-10016	2520	13184	12	-3	-20	-15448	-968	-5024	-7	-2	-19	-3824	1840	16512	-9	-16	18	132	123	5
-9784	-3468	12136	-10	17	-21	-15768	-1168	-4816	11	-9	15	-4064	-128	16672	19	-2	3	-9800	2648	13288	9	-6	-17	-15328	-1048	-5056	-8	-5	-18	-3752	1888	16664	-12	-15	25	132	126	5
-9736	-3464	12100	-12	16	-21	-15768	-1088	-5248	-1	-6	17	-4008	-304	16648	18	-1	7	-9880	2616	13088	8	0	-19	-15576	-920	-4816	2	-10	-15	-3584	1680	16208	-10	-13	30	132	126	5
-9720	-3400	12108	-16	19	-30	-15664	-1328	-4808	-1	-6	19	-3992	-280	16776	23	0	9	-9968	2568	13088	8	-3	-24	-15480	-1184	-4792	2	-6	-17	-3720	1712	16560	-2	-15	30	132	125	5
-9756	-3504	12032	-8	17	-23	-15784	-1512	-4696	2	-3	16	-3984	-416	16448	20	0	-2	-9968	2720	13088	15	3	-22	-15368	-1144	-5040	-2	-4	-15	-3640	1824	16152	6	-13	35	132	123	5
-9744	-3496	12080	-9	18	-22	-15736	-1336	-4944	39	0	25	-3992	-248	16480	23	-1	-5	-9848	2728	13272	11	2	-23	-15424	-1024	-4912	-1	-2	-19	-3800	1800	16272	7	-16	28	132	122	5
-9772	-3456	11988	-4	15	-20	-15688	-1072	-4840	36	-4	21	-4128	-160	16720	27	-8	-1	-9840	2632	13256	15	-1	-27	-15480	-1136	-5080	5	2	-12	-3872	1960	16632	-1	-15	20	132	124	5
-9768	-3372	12108	-13	16	-20	-15744	-976	-4888	12	-2	17	-3968	-128	16776	27	-1	2	-9944	2664	13120	17	0	-17	-15504	-1040	-4880	11	-8	-12	-3808	1840	16344	-7	-12	19	132	125	5
-9760	-3436	11972	-15	12	-25	-15568	-1152	-5112	-18	7	11	-4144	-288	16528	29	3	6	-9936	2688	13176	15	-5	-16	-15304	-1032	-4856	11	-8	-8	-3744	1800	16464	-8	-20	12	132	123	5
-9820	-3464	12020	-14	15	-23	-15760	-1192	-5160	-13	8	13	-4168	-256	16552	31	-3	6	-9976	2656	13144	12	-10	-16	-15392	-1088	-4760	1	-9	-7	-3760	1768	16368	-4	-15	19	132	124	5
-9800	-3504	12128	-9	16	-26	-15792	-1336	-5160	-2	-2	16	-4168	-176	16496	21	-1	3	-9808	2640	13016	12	-9	-17	-15504	-1088	-4872	-9	-8	-14	-3760	1728	16424	2	-9	24	132	124	5
-9836	-3472	12052	-13	17	-20	-15848	-1208	-4992	27	-7	19	-4224	-248	16488	18	-4	4	-10072	2776	13248	9	-2	-20	-15368	-1168	-4744	-14	-3	-9	-3736	1760	16504	6	-14	29	131	126	5
-9820	-3500	12084	-9	14	-22	-15632	-1112	-4896	29	-5	17	-4040	-152	16456	22	-10	4	-9864	2648	13224	9	-4	-22	-15392	-1128	-5080	-10	-7	-3	-3784	1824	16624	11	-16	22	132	125	5
-9776	-3392	12048	-13	17	-24	-15752	-1136	-5160	8	-6	10	-3976	-256	16760	25	-2	12	-10072	2688	13080	19	-8	-19	-15368	-1112	-4824	8	-7	-3	-3632	1848	16536	10	-20	21	132	126	5
-9768	-3456	12036	-13	17	-28	-15752	-1264	-5264	7	-4	15	-4112	-208	16784	27	1	8	-9952	2600	12968	14	-5	-18	-15344	-1144	-4968	15	-9	3	-3672	1808	16248	9	-18	10	132	126	5
-9744	-3444	12032	-14	16	-26	-15904	-1312	-5048	9	-7	15	-4216	-232	16936	33	2	7	-9856	2616	13344	10	-9	-20	-15432	-856	-5056	15	-11	4	-3736	1880	16368	7	-15	10	132	124	5
-9756	-3416	12124	-15	15	-24	-15728	-1088	-4976	12	-7	12	-3976	-128	16384	22	-7	8	-10032	2792	13160	15	-3	-18	-15304	-904	-4936	7	-6	2	-3680	2064	16496	-1	-15	13	131	124	5
-9768	-3448	12048	-11	19	-23	-15744	-1224	-4888	7	-2	11	-3920	-56	16504	14	-4	4	-9944	2712	13176	17	-3	-19	-15320	-912	-4952	-6	-7	-6	-3744	1792	16464	0	-14	18	132	126	5
-9844	-3408	12064	-19	20	-24	-15752	-1280	-5080	-4	1	11	-4080	-344	16704	17	1	3	-9864	2728	13344	14	-5	-23	-15400	-920	-4856	-14	-1	0	-3608	2008	16200	5	-16	18	132	122	5
-9776	-3516	12072	-15	18	-24	-15808	-1208	-5056	16	-3	14	-3864	-120	16584	26	-1	3	-9856	2744	13032	12	-6	-20	-15408	-952	-4928	-8	-3	-9	-3576	1992	16288	1	-16	20	132	125	5
-9776	-3396	12168	-13	21	-24	-15712	-1064	-4712	12	-4	13	-4088	-216	16616	22	-2	8	-9984	2576	13312	11	-5	-23	-15512	-1040	-4800	-9	-4	-8	-3720	1896	16544	-3	-14	20	132	127	5
-9780	-3388	12156	-19	16	-27	-15768	-1160	-4992	13	-2	14	-4080	-296	16784	25	-3	10	-9952	2664	13128	12	-3	-22	-15440	-952	-4896	-8	-3	-5	-3744	1808	16632	1	-15	17	132	124	5
-9776	-3428	12076	-20	14	-22	-15848	-1216	-5240	3	3	9	-4016	-272	16616	36	-5	12	-9784	2664	13592	10	-9	-25	-15544	-1064	-4688	-3	-2	-9	-3744	1896	16360	7	-13	20	133	124	5
-9756	-3512	12072	-13	21	-29	-15696	-1136	-5184	5	-2	9	-4000	-208	16432	27	-2	11	-9920	2744	13080	16	-2	-23	-15392	-928	-5080	13	1	-11	-3816	1992	16352	0	-16	16	133	125	5
-9736	-3472	12128	-11	18	-25	-15808	-1288	-5008	4	-3	10	-4008	-200	16688	20	1	8	-9896	2768	13064	15	-8	-23	-15512	-1000	-5000	13	2	-5	-3680	1984	16504	-5	-18	18	134	125	5
-9820	-3516	11940	-12	17	-21	-15808	-1136	-5384	14	-3	13	-4248	-224	16384	24	1	4	-9944	2560	13312	17	-1	-23	-15464	-936	-5000	11	-3	-7	-3776	1856	16592	0	-17	23	133	125	5
-9852	-3432	12040	-12	13	-25	-15728	-1232	-4872	8	-3	18	-4096	-240	16680	20	-1	5	-9920	2584	13080	20	-2	-26	-15296	-1000	-5224	6	0	-8	-3864	2072	16176	5	-13	22	135	126	5
-9784	-3408	12008	-12	15	-24	-15776	-1248	-5168	1	-7	18	-4136	-312	16624	14	0	8	-9952	2704	13384	18	-7	-21	-15624	-1040	-5024	2	-4	-11	-3760	2096	16288	5	-15	23	135	123	5
-9756	-3468	12164	-3	15	-26	-15872	-1296	-5304	12	-5	16	-4216	-48	16568	21	-2	7	-9872	2584	13096	8	-8	-21	-15472	-1184	-4976	-5	-2	-6	-3944	1848	16480	-7	-16	22	136	127	5
-9796	-3400	12048	-10	16	-27	-15736	-1328	-4976	5	-7	11	-4128	-192	16784	22	-4	7	-9968	2640	13168	12	-5	-20	-15448	-1112	-4880	-8	-6	-11	-3768	1888	16312	-2	-15	22	137	126	5
-9768	-3460	12116	-8	12	-24	-15696	-1360	-5104	3	-4	19	-4128	-216	16720	24	5	-2	-9976	2536	13072	11	-9	-17	-15400	-1088	-4944	3	-5	-5	-3656	1760	16248	4	-14	22	137	122	5
-9804	-3536	12080	-10	16	-25	-15752	-1176	-4944	16	-2	18	-3952	-104	16528	24	2	1	-9960	2712	13376	8	-8	-24	-15328	-1136	-5224	8	-12	-11	-3728	1976	16088	2	-14	20	139	126	5
-9792	-3428	12080	-11	13	-21	-15696	-1088	-5072	22	-10	16	-4088	-104	16776	19	-7	3	-9936	2648	13328	5	-8	-22	-15336	-1080	-5040	8	-11	-10	-3664	1848	16424	-9	-15	22	141	126	5
-9740	-3480	12100	-10	13	-24	-15672	-1184	-4896	3	-9	12	-4048	-128	16632	18	-1	3	-9848	2712	13112	3	-13	-21	-15544	-1040	-4896	9	-9	-5	-3776	1824	16544	-2	-13	23	142	126	5
-9796	-3460	12188	-15	18	-21	-15648	-1272	-5080	0	-4	14	-4048	-240	16600	20	-1	5	-9976	2704	13272	3	-11	-21	-15416	-1008	-4824	10	-6	-10	-3688	1792	16328	5	-13	21	143	125	5
-9776	-3476	12120	-11	18	-25	-15584	-1352	-4944	1	1	14	-3992	-264	16704	19	2	4	-9904	2608	13216	11	-4	-22	-15424	-880	-4864	8	-3	-8	-3656	1976	16432	14	-14	24	143	122	5
-9720	-3484	12056	-10	11	-23	-15728	-1296	-4888	21	0	14	-3952	-288	16528	20	-1	4	-9848	2744	13304	9	0	-19	-15408	-976	-4792	-3	-6	-13	-3656	2072	16392	8	-13	23	144	122	5
-9768	-3432	12176	-10	17	-21	-15760	-1280	-5008	16	-5	19	-4104	-280	16760	25	-3	-1	-9824	2616	13208	14	-8	-22	-15400	-1016	-4976	-10	-5	-12	-3776	1968	16472	0	-10	26	144	125	5
-9816	-3492	11988	-7	14	-21	-15648	-1288	-4960	16	2	17	-4000	-400	16544	26	1	3	-9968	2784	13176	17	-5	-25	-15376	-1216	-5096	-6	0	-15	-3832	1776	16416	-2	-16	23	144	125	5
-9780	-3516	12080	-10	17	-21	-15680	-1096	-5080	7	2	12	-4008	-152	16608	32	-5	8	-9960	2552	13216	22	-11	-20	-15432	-1064	-4632	0	-2	-8	-3888	1704	16544	-2	-13	24	142	124	5
-9808	-3452	12112	-11	18	-24	-15752	-1072	-4856	0	-4	11	-4040	-56	16736	27	-2	9	-9832	2728	13272	12	-1	-23	-15520	-1104	-5040	-2	-3	-11	-3680	1840	16280	-1	-18	22	142	125	5
-9800	-3348	12040	-16	19	-27	-15792	-1248	-5088	-15	0	6	-4064	-72	16712	25	-2	10	-9920	2640	13440	14	-6	-21	-15408	-1184	-4944	14	-4	-7	-3752	1968	16344	-3	-17	24	141	123	5
-9860	-3520	12108	-14	19	-24	-15816	-1368	-5048	5	-1	15	-4048	-216	16480	25	-1	3	-9904	2520	13144	13	-4	-25	-15368	-976	-4672	11	-5	-5	-3752	1896	16472	-2	-15	21	140	125	5
-9832	-3444	12088	-13	13	-24	-15800	-1304	-5048	18	-4	15	-3952	-128	16616	18	-5	4	-10008	2640	13184	12	-8	-20	-15280	-1040	-5304	-1	-6	-3	-3656	1776	16424	5	-11	16	140	122	5
-9780	-3428	12044	-7	16	-25	-15744	-1312	-5072	24	-7	17	-4040	-176	16616	17	-3	0	-9864	2808	13464	12	-10	-22	-15504	-1000	-4848	-8	-1	-9	-3688	1968	16320	13	-11	20	140	126	5
-9784	-3488	12112	-10	16	-27	-15840	-1160	-5064	20	-4	16	-3928	-256	16664	19	-6	6	-9952	2768	13184	8	-9	-21	-15328	-1112	-5000	-4	-8	-8	-3760	1952	16224	4	-14	16	139	123	5
-9816	-3456	12024	-7	14	-26	-15648	-1080	-5176	14	-3	16	-3920	-200	16648	27	1	0	-10040	2552	12976	14	-11	-22	-15416	-1000	-5056	-12	-10	-7	-3632	1928	16320	-2	-17	20	138	122	5
-9792	-3508	11900	-5	12	-25	-15752	-1112	-5152	-1	-5	14	-4048	-144	16456	30	-2	9	-9824	2816	13232	15	-6	-20	-15344	-1120	-5040	-1	-11	-5	-3760	1808	16232	4	-10	24	138	127	5
-9832	-3424	12032	-11	16	-25	-15800	-1152	-4768	-10	-5	10	-3976	-96	16624	24	-4	11	-9888	2624	13248	25	0	-19	-15496	-928	-5144	-1	-4	-7	-3648	1992	16744	5	-13	26	137	123	5
-9820	-3512	12132	-14	17	-27	-15712	-1288	-4880	0	-3	9	-3920	-104	16712	22	2	8	-9776	2608	13136	27	-1	-15	-15464	-992	-4704	-2	-6	-10	-3600	1816	16552	4	-12	22	136	127	5
-9752	-3456	12092	-15	20	-25	-15904	-1440	-4992	8	-5	11	-3888	-240	16600	18	-6	5	-9936	2632	13120	16	6	-22	-15552	-936	-4936	0	-6	-5	-3632	1888	16568	2	-12	23	136	123	5
-9764	-3492	12120	-14	16	-28	-15728	-1360	-4840	6	0	12	-3920	-448	16672	13	2	2	-9832	2608	13000	22	5	-21	-15448	-1008	-4688	4	-3	-11	-3480	1960	16320	6	-13	22	136	123	5
-9792	-3468	12072	-12	16	-23	-15776	-1408	-5008	14	0	18	-4008	-296	16608	19	6	-5	-9912	2648	13256	17	-4	-20	-15360	-1040	-4840	1	-1	-12	-3648	1912	16352	1	-15	20	136	127	5
-9812	-3476	12148	-12	18	-25	-15840	-1208	-4776	40	-3	21	-4048	-288	16656	17	0	-7	-9960	2664	13208	15	3	-22	-15392	-976	-5096	-7	-2	-11	-3728	2000	16392	-5	-15	15	136	125	5
-9804	-3472	12052	-8	17	-19	-15616	-1128	-5080	31	2	23	-3864	-152	16680	20	-2	-2	-9912	2712	13400	12	-7	-19	-15376	-1040	-5200	-10	-1	-10	-3728	1960	16496	-3	-9	20	136	124	5
-9756	-3380	11988	-13	13	-21	-15712	-1048	-5296	14	4	20	-3984	-72	16480	25	-3	4	-10072	2672	13216	9	-1	-21	-15400	-1048	-4952	-8	-4	-14	-3720	1848	16512	-11	-11	25	137	125	5
-9808	-3448	12060	-10	18	-23	-15672	-1032	-4840	-18	7	7	-3928	-80	16448	31	-1	10	-9984	2640	13032	14	-4	-20	-15400	-912	-4936	-9	-3	-18	-3792	1864	16592	-14	-13	26	135	122	5
-9848	-3416	12004	-13	14	-22	-15712	-1328	-5208	-28	8	10	-4176	-384	16680	25	8	9	-9800	2720	12968	16	-6	-21	-15520	-1104	-4664	6	-1	-11	-3520	1608	16400	2	-21	26	136	125	5
-9808	-3432	12024	-15	12	-24	-15744	-1464	-5056	-12	-4	19	-4184	-528	16568	17	7	-3	-9760	2560	13168	10	-3	-26	-15320	-1064	-5008	9	-1	-8	-3824	1936	16448	12	-18	28	136	123	5
-9776	-3500	12104	-5	21	-22	-15872	-1448	-5264	51	-17	29	-4224	-304	16512	16	-6	-13	-9856	2704	13088	13	-3	-24	-15352	-976	-5088	14	-2	-13	-3784	2016	16456	9	-18	26	135	122	5
-9804	-3456	12096	-3	13	-21	-15712	-968	-4944	54	-16	24	-3992	120	16568	20	-7	-3	-9992	2824	13144	19	-8	-21	-15400	-928	-4912	5	-7	-14	-3936	1920	16584	1	-14	25	136	122	5
-9776	-3424	12048	-7	15	-24	-15688	-840	-4752	14	-3	18	-4056	-136	16672	22	-6	4	-9848	2592	13264	19	-3	-20	-15224	-968	-4888	0	-8	-12	-3768	2000	16344	-9	-13	26	135	123	5
-9772	-3360	12012	-11	18	-25	-15672	-1120	-4840	-22	2	14	-3936	-240	16608	35	3	10	-10024	2744	13200	26	-5	-18	-15400	-1168	-4912	-7	-6	-12	-3512	1688	16592	-7	-13	24	135	125	5
-9772	-3520	12044	-12	13	-26	-15728	-1464	-4912	-27	0	14	-4192	-232	16400	25	11	11	-9888	2640	13088	24	-3	-17	-15512	-1104	-4768	-9	-4	-11	-3760	1728	16424	1	-16	25	134	126	5
-9796	-3520	12124	-11	15	-27	-15752	-1352	-5104	22	-15	20	-4144	64	16688	23	-1	6	-9808	2624	13328	21	-6	-20	-15448	-1024	-5048	-12	-7	-10	-3680	1888	16456	-2	-12	27	134	123	5
-9868	-3412	12104	-5	14	-20	-15680	-1072	-4880	30	-11	13	-4048	-64	16560	13	-10	0	-9784	2688	13032	17	-1	-20	-15392	-1016	-5016	-4	-2	-9	-3704	1728	16416	2	-10	26	134	123	5
-9764	-3392	12052	-15	16	-21	-15736	-1192	-4984	8	-3	13	-3984	-216	16392	10	-2	-4	-9912	2640	13032	14	-13	-17	-15432	-1024	-4912	4	2	-9	-3696	1832	16384	8	-11	17	134	123	5
-9796	-3452	12056	-14	16	-25	-15824	-1152	-5232	11	4	7	-3808	-264	16840	31	-3	1	-9976	2928	13056	18	3	-22	-15400	-1056	-4896	11	-6	-9	-3712	1920	16512	0	-20	18	134	125	5
-9804	-3480	12104	-15	16	-22	-15712	-1160	-5032	11	-4	14	-3976	-120	16432	29	2	6	-9856	2712	13016	18	-1	-20	-15440	-952	-5072	7	-2	-8	-3744	1776	16416	-3	-20	16	134	125	5
-9808	-3468	12064	-15	17	-24	-15704	-1200	-4984	2	-5	14	-3976	-288	16544	20	0	9	-9880	2576	13184	18	-1	-19	-15440	-1144	-4992	6	-2	-4	-3704	1856	16360	3	-17	21	134	125	5
-9796	-3512	12120	-15	19	-26	-15744	-1280	-5232	18	1	13	-3992	-112	16616	25	-6	9	-9992	2736	13192	30	6	-18	-15384	-936	-4784	-3	3	-9	-3568	1720	16504	0	-14	22	134	122	5
-9768	-3484	12092	-3	14	-24	-15816	-1048	-5104	10	-1	10	-4192	-64	16672	21	-7	11	-9968	2792	13264	25	6	-14	-15472	-1080	-4960	-6	2	-9	-3640	1808	16432	-3	-14	22	134	122	5
-9864	-3456	12172	-15	19	-25	-15792	-1336	-5016	-7	0	5	-4152	-112	16736	20	1	11	-9880	2712	13280	16	0	-18	-15360	-1104	-5048	-9	1	-7	-3696	1840	16528	-5	-15	16	134	124	5
-9776	-3500	12056	-14	17	-24	-15896	-1288	-4976	-4	3	6	-4064	-136	16664	26	-2	12	-9856	2608	12976	17	0	-22	-15336	-1096	-4784	-1	-3	-6	-3512	1736	16352	4	-15	21	133	126	5
-9776	-3460	12096	-13	17	-24	-15656	-1136	-5008	10	-6	10	-4120	-224	16320	25	1	9	-9984	2648	13016	14	-6	-24	-15608	-1168	-4856	1	3	-4	-3672	1888	16576	9	-16	20	133	125	5
-9756	-3460	12044	-15	20	-28	-15704	-1296	-4976	4	-7	8	-4064	-256	16608	17	-2	11	-10008	2664	13024	21	-1	-22	-15288	-1064	-4960	3	0	-7	-3776	1848	16608	6	-15	17	134	125	5
-9772	-3428	12028	-12	19	-29	-15784	-1504	-4896	17	-10	14	-3976	-104	16800	13	-9	6	-9912	2640	13232	20	-7	-24	-15448	-968	-4992	9	0	-5	-3680	1912	16328	3	-12	14	133	123	5
-9752	-3484	12068	-15	16	-24	-15680	-1328	-5000	17	1	13	-4056	-200	16816	15	-2	2	-10008	2912	13096	17	-4	-21	-15408	-880	-4848	8	2	-8	-3808	1952	16480	-2	-14	16	133	122	5
-9828	-3512	12064	-10	18	-24	-15688	-1136	-4800	24	-4	10	-4120	8	16592	22	-2	2	-9912	2672	13128	12	-8	-23	-15328	-784	-4872	3	-5	-3	-3840	1816	16456	-6	-15	18	133	125	5
-9836	-3456	12108	-12	14	-23	-15688	-1112	-5064	3	-4	11	-4024	-256	16472	25	-1	8	-9976	2728	13472	9	-9	-26	-15344	-848	-5248	2	-2	-10	-3560	1880	16448	-13	-13	21	133	126	5
-9784	-3428	12048	-11	18	-23	-15632	-1272	-5088	-15	-4	6	-4120	-112	16512	27	-2	12	-10056	2704	13152	10	-4	-23	-15344	-1056	-4872	-2	-3	-7	-3728	1816	16440	1	-15	24	133	125	5
-9760	-3520	12032	-12	18	-25	-15888	-1440	-5136	-12	0	5	-3968	-272	16488	21	-3	4	-9752	2688	13200	11	-7	-22	-15416	-1048	-5264	-11	-2	-16	-3824	1872	16160	2	-15	24	133	125	5
-9792	-3508	12056	-15	17	-25	-15872	-1208	-4952	15	-2	11	-4088	-200	16584	19	-6	7	-10008	2648	13168	13	-1	-23	-15336	-1080	-4848	-10	-4	-15	-3656	1760	16240	-4	-8	24	133	124	5
-9776	-3464	12080	-14	16	-26	-15832	-1120	-4960	28	-4	10	-3920	-96	16424	7	-5	5	-9960	2528	13080	16	-7	-22	-15416	-1240	-4936	3	2	-4	-3864	1880	16464	-8	-9	13	132	124	5
-9788	-3400	12048	-16	21	-24	-15768	-1048	-5000	22	-1	7	-3936	-96	16728	11	-1	5	-9856	2608	13176	24	-1	-16	-15472	-1248	-5200	14	-3	0	-3568	1640	16464	-4	-11	-1	132	125	5
-9796	-3512	12108	-21	23	-29	-15920	-1168	-4888	5	3	5	-3984	-232	16392	8	-4	7	-9936	2584	13208	22	4	-17	-15472	-1024	-4920	21	0	3	-3624	1864	16544	3	-19	-5	132	124	5
-9792	-3484	12080	-22	18	-27	-15696	-1192	-5048	9	3	4	-3952	56	16568	13	-6	7	-9904	2768	13208	26	-5	-17	-15400	-928	-4920	16	-4	0	-3752	1944	16432	3	-14	1	132	122	5
-9764	-3472	12060	-16	22	-25	-15712	-1088	-4816	11	4	-2	-3872	-24	16688	3	-6	13	-10016	2736	13232	19	-10	-19	-15272	-880	-4872	4	-1	2	-3656	1872	16256	-3	-10	8	132	123	5
-9760	-3476	12016	-18	20	-25	-15808	-1192	-5248	2	1	-6	-4040	-264	16632	4	0	15	-9736	2664	13088	17	-3	-21	-15376	-984	-4952	-17	8	-10	-3688	1880	16448	-1	-12	11	132	125	5
-9824	-3444	12096	-18	21	-24	-15752	-1264	-5112	3	-2	-3	-4096	-248	16416	11	-3	15	-9864	2616	13328	28	1	-21	-15496	-1048	-4768	-21	8	-16	-3680	2064	16312	-4	-9	21	132	124	5
-9808	-3404	11976	-16	19	-27	-15704	-1392	-4704	1	2	-4	-4240	-232	16856	13	-1	15	-10016	2768	13272	24	2	-22	-15408	-1040	-5296	-11	13	-9	-3584	1952	16368	2	-13	22	132	126	5
-9828	-3476	12008	-20	16	-26	-15768	-1392	-4848	5	1	2	-4040	-312	16544	16	-4	18	-9968	2696	13168	16	-2	-24	-15464	-992	-4968	8	10	-14	-3880	1944	16192	-1	-17	21	132	122	5
-9808	-3444	12064	-13	16	-28	-15840	-1232	-4968	7	-9	3	-4080	-248	16592	17	-7	18	-9912	2768	13200	11	-5	-25	-15440	-1000	-5120	17	3	-15	-3784	2000	16320	-5	-14	25	132	123	5
-9756	-3468	12048	-19	14	-24	-15912	-1200	-4992	5	-3	1	-4016	-232	16656	14	-5	22	-9896	2720	13136	11	-5	-26	-15576	-848	-5104	20	2	-15	-3856	2056	16568	-5	-15	30	132	125	5
-9720	-3452	12112	-19	16	-23	-15768	-1232	-5048	-4	3	-1	-4024	-224	16552	23	-3	26	-9944	2648	13072	2	-7	-28	-15448	-960	-4856	11	-5	-12	-3896	1824	16344	-7	-16	34	132	125	5
-9800	-3492	11996	-20	17	-28	-15648	-1184	-5064	-9	-3	-1	-4048	-248	16680	18	-3	25	-9800	2584	13008	0	-9	-27	-15496	-1016	-4864	-3	-2	-19	-3656	1800	16496	-4	-17	35	132	125	5
-9808	-3496	12052	-14	14	-27	-15760	-1504	-5168	-24	1	10	-3936	-488	16744	20	1	14	-10016	2696	13224	-4	-4	-28	-15528	-1016	-4896	-3	3	-17	-3528	1560	16624	1	-22	36	133	123	5
-9836	-3612	12024	-3	17	-29	-15744	-1520	-5280	16	-1	16	-4168	-448	16712	24	3	5	-9936	2640	13136	-4	-12	-28	-15384	-1040	-4864	-5	7	-10	-3816	1808	16384	6	-19	32	132	125	5
-9836	-3528	12052	-9	15	-23	-15736	-1544	-5016	39	-4	17	-3976	-272	16656	28	-4	3	-9968	2496	13336	2	-6	-26	-15472	-1032	-4808	-5	2	-16	-3800	1976	16288	3	-12	23	132	125	5
-9808	-3488	12008	-8	19	-21	-15704	-1152	-5112	40	-13	21	-3864	-208	16560	24	-3	9	-9920	2568	13344	-5	-9	-24	-15416	-1120	-5048	-2	-1	-11	-3896	1648	16312	-2	-7	19	133	122	5
-9820	-3504	12000	-12	16	-20	-15664	-1216	-5040	4	3	14	-3888	-336	16600	32	2	7	-9808	2488	13424	-3	-13	-23	-15416	-1104	-5208	0	-7	-6	-3968	1536	16432	2	-17	21	132	126	5
-9824	-3464	12024	-12	18	-25	-15712	-1304	-5032	-9	5	18	-3944	-320	16832	41	7	11	-9920	2792	12976	-1	-11	-24	-15488	-1208	-4976	8	-3	-1	-3624	1608	16760	10	-22	23	132	124	5
-9824	-3468	12124	-12	17	-24	-15704	-1488	-5104	-10	9	19	-4000	-504	16584	37	10	1	-9880	2608	13224	5	-13	-25	-15216	-1136	-4728	12	-5	10	-3696	1680	16600	12	-19	18	132	124	5
-9808	-3588	12152	-8	13	-23	-15744	-1408	-5160	22	6	32	-4096	-496	16680	29	4	-5	-9784	2576	13184	11	-8	-17	-15472	-1192	-4952	13	-5	7	-3832	1808	16656	15	-14	9	132	124	5
-9804	-3472	12060	-4	9	-21	-15800	-1360	-5176	35	2	36	-3960	-320	16760	37	-2	-13	-9920	2656	13136	15	-6	-20	-15352	-928	-4928	-2	-5	8	-3840	1696	16472	16	-18	7	132	124	5
-9800	-3452	12124	-1	11	-19	-15808	-1376	-5136	29	8	35	-4008	-320	16848	32	2	-18	-9920	2632	13272	15	-11	-14	-15480	-1040	-5032	-2	-6	17	-3704	1904	16232	10	-16	-1	131	127	5
-9820	-3476	12096	1	14	-16	-15880	-1248	-4816	21	14	35	-3832	-96	16584	40	7	-17	-9944	2568	13416	17	-2	-14	-15368	-1048	-5080	1	-9	14	-3656	1944	16376	22	-21	0	132	125	5
-9736	-3428	12056	-4	12	-18	-15752	-1296	-4880	0	10	29	-4096	-232	16664	28	10	-12	-9832	2624	13280	19	-5	-17	-15504	-888	-5000	7	-6	15	-3688	2040	16400	16	-13	4	132	123	5
-9772	-3532	12092	0	11	-17	-15624	-1176	-4672	13	5	34	-4176	-56	16312	30	5	-8	-9832	2720	13480	18	-5	-22	-15304	-864	-4760	-2	-6	14	-3768	1912	16376	8	-13	9	132	126	5
-9772	-3480	12024	-5	10	-17	-15832	-1152	-5336	9	5	27	-4224	40	16792	29	-3	-7	-10080	2728	13304	19	-2	-22	-15264	-992	-5000	-3	-5	8	-3776	1952	16344	9	-12	9	132	125	5
-9764	-3440	12036	-5	12	-24	-15800	-1016	-5072	3	7	24	-4072	-40	16720	20	3	-8	-9880	2552	13288	16	-3	-20	-15384	-928	-4976	9	-5	8	-3560	2000	16432	10	-12	17	132	123	5
-9820	-3460	12068	-7	13	-20	-15656	-1264	-4872	11	3	20	-4152	-80	16472	24	0	-4	-9856	2712	13128	14	-5	-26	-15344	-856	-5008	15	-4	1	-3680	2056	16336	7	-19	15	132	123	5
-9788	-3416	12024	-11	16	-24	-15800	-1072	-5112	4	-3	16	-4056	-112	16672	27	1	5	-9832	2616	13264	13	-3	-24	-15336	-832	-5040	15	-11	-1	-3584	2104	16336	10	-21	15	131	126	5
-9772	-3464	12068	-11	15	-27	-15768	-1168	-5136	6	-6	15	-4008	48	16776	30	4	4	-9904	2712	13272	15	-8	-24	-15392	-872	-4872	13	-11	-3	-3720	1960	16528	9	-15	22	131	123	5
-9848	-3436	12076	-16	15	-28	-15704	-1248	-5016	15	-7	14	-4088	-8	16680	31	-3	8	-9784	2672	13240	12	-6	-28	-15464	-848	-5056	9	-8	-12	-3664	2016	16344	1	-12	27	131	123	5
-9780	-3448	12032	-17	19	-28	-15840	-1144	-4880	17	-7	14	-3976	-24	16776	18	-7	17	-10008	2688	13224	8	-8	-22	-15480	-920	-5000	-6	-3	-14	-3640	1936	16424	-4	-16	31	132	123	5
-9824	-3460	12168	-13	20	-31	-15744	-1360	-5008	-13	-6	9	-3992	-456	16680	13	2	6	-9976	2800	13168	16	-3	-24	-15352	-968	-4760	-8	-3	-15	-3544	1888	16448	0	-15	27	132	125	5
-9828	-3508	12020	-13	18	-29	-15760	-1320	-4712	18	-6	12	-3984	-288	16592	10	1	6	-9856	2608	13088	9	-8	-22	-15480	-960	-5072	-5	-3	-20	-3632	2120	16440	4	-9	26	133	126	5
-9732	-3556	12116	-16	17	-23	-15656	-1152	-5168	26	-2	9	-3944	-176	16528	14	0	1	-9856	2656	13168	10	-7	-21	-15496	-976	-4824	-9	1	-25	-3624	1968	16328	-6	-7	30	132	124	5
-9756	-3472	12116	-14	18	-27	-15680	-1080	-4888	25	-7	10	-4008	-256	16592	12	0	3	-9832	2544	12960	13	-8	-21	-15584	-1016	-4936	-10	0	-22	-3504	1808	16560	-6	-12	30	133	126	5
-9736	-3420	12156	-12	14	-29	-15672	-1192	-4936	-14	0	10	-4072	-304	16568	16	-2	6	-9848	2632	13328	12	-11	-22	-15248	-1064	-5032	1	2	-23	-3624	1840	16488	-8	-13	25	132	123	5
-9808	-3444	12020	-12	15	-30	-15768	-1192	-5152	-12	5	11	-3984	-264	16720	22	2	6	-9832	2656	13352	11	-4	-23	-15424	-1136	-4760	14	4	-17	-3656	2008	16576	-11	-13	27	133	126	5
-9752	-3464	12112	-19	14	-22	-15856	-1408	-4880	-2	-2	12	-4104	-208	16568	22	-2	1	-9864	2576	13064	6	-1	-25	-15400	-984	-4856	11	-1	-21	-3704	2024	16400	-11	-13	24	132	126	5
-9812	-3536	12136	-12	18	-21	-15832	-1192	-4824	29	-3	15	-4072	-128	16456	15	-6	2	-9872	2544	13280	10	-11	-22	-15504	-1048	-4864	14	-3	-18	-3840	1856	16552	-11	-9	30	132	126	5
-9792	-3452	12020	-13	15	-19	-15672	-1088	-4872	25	-4	16	-4104	-64	16592	21	-5	3	-9816	2688	13160	7	-7	-24	-15528	-1032	-4968	-5	-1	-17	-3752	1696	16392	-8	-8	27	132	126	5
-9796	-3404	12056	-10	19	-22	-15712	-1192	-4856	4	-1	11	-4016	-272	16624	22	-1	3	-9872	2432	13264	10	-6	-27	-15368	-1016	-5168	-8	-4	-16	-3704	1632	16384	3	-15	28	132	125	5
-9792	-3468	12140	-13	17	-26	-15784	-1128	-5152	12	2	12	-4024	-24	16792	28	0	7	-9872	2584	13240	11	-4	-18	-15368	-1088	-5024	-2	-1	-16	-3768	1688	16488	-1	-15	25	131	124	5
-9752	-3440	12100	-13	16	-24	-15576	-1160	-4984	13	-1	11	-4088	0	16504	25	-7	13	-9936	2576	13224	15	4	-22	-15360	-1248	-4864	3	-9	-10	-3656	1680	16464	-4	-18	24	132	122	5
-9832	-3480	12112	-16	16	-28	-15736	-1120	-5160	2	-4	5	-4136	-24	16656	21	-7	17	-9880	2816	13464	11	-5	-21	-15464	-1240	-5000	3	-10	-3	-3736	1808	16432	-3	-14	22	132	126	5
-9776	-3452	11980	-22	14	-28	-15680	-1152	-5048	-14	1	5	-4080	-288	16544	24	-4	13	-9872	2456	13096	15	-4	-21	-15512	-1184	-4856	8	-9	-7	-3832	1824	16456	9	-10	20	131	125	5
-9760	-3504	12200	-17	19	-28	-15600	-1296	-4912	-5	-4	1	-4040	-344	16760	22	-4	12	-9976	2640	13232	19	-5	-18	-15352	-1000	-5096	3	-7	-1	-3624	1816	16480	6	-9	19	132	125	5
-9764	-3520	12140	-16	20	-31	-15688	-1368	-5232	17	-9	11	-3968	-360	16496	17	0	3	-9816	2704	13096	21	-2	-16	-15360	-1096	-4920	-5	-5	-3	-3664	1928	16384	7	-11	22	132	125	5
-9884	-3472	12052	-11	17	-27	-15600	-1280	-4848	35	-13	15	-4064	-296	16392	20	-6	3	-9952	2608	13144	22	-1	-19	-15392	-1040	-5096	-7	-4	-3	-3792	1800	16536	8	-11	18	132	124	5
-9768	-3480	11984	-12	17	-27	-15600	-1384	-4960	15	-6	11	-3960	-464	16776	17	-1	0	-10008	2656	13192	24	-1	-18	-15384	-1000	-5152	1	-6	-4	-3632	1880	16440	1	-14	13	132	125	5
-9828	-3520	12128	-14	15	-23	-15704	-1336	-4920	8	-2	16	-4000	-192	16560	24	0	0	-9912	2640	13264	27	-2	-21	-15344	-1008	-4952	7	-6	-5	-3712	2160	16376	-2	-13	12	132	126	5
-9780	-3500	12052	-11	15	-24	-15728	-1336	-4848	12	-1	16	-4064	-120	16760	24	-6	3	-9976	2584	13040	17	-2	-20	-15360	-1032	-4952	1	-7	-4	-3848	1928	16152	-14	-13	13	132	126	5
-9796	-3452	12148	-11	20	-19	-15784	-1216	-5000	8	-1	13	-4024	-152	16744	19	0	6	-10048	2656	13360	20	-4	-21	-15344	-984	-5224	-3	-6	-13	-3776	1744	16488	-7	-16	20	131	124	5
-9776	-3480	12008	-10	16	-22	-15640	-1320	-5088	-5	3	17	-4024	-320	16616	25	-1	-3	-9872	2656	13096	16	-1	-24	-15408	-1032	-5088	1	-2	-10	-3672	1936	16464	5	-10	21	131	124	5
-9780	-3468	12036	-12	17	-22	-15864	-1344	-4944	1	-2	11	-3792	-320	16328	26	-2	0	-9968	2616	13048	14	-6	-20	-15416	-856	-5040	4	-3	-11	-3728	1888	16344	7	-16	24	132	122	5
-9812	-3496	12044	-8	13	-22	-15728	-1192	-4960	10	3	16	-3984	-224	16496	22	2	-2	-9832	2608	13344	12	-8	-25	-15280	-848	-4864	6	-7	-11	-3696	1752	16352	0	-15	22	132	122	5
-9788	-3508	12040	-7	20	-16	-15784	-1360	-5080	20	-3	20	-4176	-224	16424	28	0	1	-9904	2584	13160	10	-8	-24	-15376	-1040	-4888	2	-2	-8	-3800	1864	16384	2	-15	20	132	126	5
-9844	-3536	12028	-13	16	-20	-15632	-1048	-5088	35	1	16	-4064	-120	16624	26	-5	4	-9952	2464	13144	12	-7	-21	-15408	-904	-5040	1	-1	-13	-3840	1896	16496	-1	-11	18	132	126	5
-9768	-3468	12064	-14	17	-25	-15832	-1072	-4912	16	-2	11	-3992	120	16544	26	-5	13	-9736	2608	13384	18	-7	-19	-15344	-1056	-4936	-4	-4	-12	-3816	1840	16416	-11	-16	24	131	125	5
-9792	-3392	12092	-16	13	-25	-15680	-1064	-5176	-15	-4	4	-3992	-120	16632	21	-4	16	-9960	2576	13056	20	-3	-23	-15544	-1024	-4744	-2	-1	-11	-3728	1712	16448	-1	-14	19	132	125	5
-9800	-3480	12088	-18	17	-25	-15576	-1408	-4960	-25	2	10	-4056	-320	16784	17	-2	6	-9976	2568	13392	18	-5	-24	-15376	-880	-4960	11	0	-9	-3744	1848	16360	10	-15	28	132	123	5
-9792	-3520	12104	-13	18	-27	-15840	-1408	-4968	19	-2	12	-3984	-176	16608	21	-3	5	-10024	2792	13384	16	-5	-21	-15376	-928	-4768	0	-8	-14	-3768	1760	16192	-1	-9	28	132	126	5
-9816	-3460	12172	-3	15	-20	-15672	-1248	-4664	34	-10	15	-4000	-240	16624	18	-7	5	-9968	2600	13248	11	-1	-21	-15392	-1168	-5016	-18	-1	-11	-3896	1816	16544	-10	-12	23	131	125	5
-9784	-3408	12100	-15	20	-21	-15640	-1096	-5032	14	-6	10	-3880	-232	16960	18	-2	7	-9856	2616	13264	14	-1	-20	-15328	-1224	-4872	-13	-2	-8	-3712	1816	16544	2	-12	18	131	126	5
-9768	-3484	12072	-22	18	-29	-15728	-1216	-5032	-5	0	5	-4072	-104	16648	24	1	12	-9888	2568	13312	14	-1	-21	-15416	-1264	-5048	-1	-5	-8	-3680	1848	16496	2	-12	14	132	125	5
-9760	-3556	12108	-19	20	-24	-15688	-1304	-4912	-9	3	7	-3840	-272	16760	27	4	13	-10000	2672	13400	15	-1	-21	-15368	-976	-5152	11	-3	-1	-3744	1824	16456	3	-19	15	132	124	5
-9784	-3564	12020	-18	17	-28	-15760	-1560	-4888	15	-1	11	-4040	-216	16704	16	6	8	-9888	2728	13336	12	-6	-20	-15432	-888	-5128	8	-4	-5	-3728	1888	16312	-5	-13	19	131	122	5
-9808	-3552	12028	-10	19	-23	-15600	-1296	-5008	24	-3	10	-4048	-216	16592	15	1	5	-9952	2608	13008	14	-9	-22	-15336	-984	-5208	4	-1	-5	-3784	1776	16384	-4	-9	22	131	126	5
-9792	-3440	12108	-7	15	-21	-15576	-1144	-4960	12	3	10	-3944	-376	16600	21	-5	3	-9856	2584	13232	16	-3	-17	-15448	-1032	-5080	-7	0	-9	-3712	2008	16696	7	-11	24	132	122	5
-9820	-3464	12124	-15	13	-27	-15784	-1320	-4968	-10	4	15	-4080	-472	16584	15	4	3	-9864	2784	13080	17	-2	-20	-15440	-936	-5016	-3	1	-15	-3664	1888	16480	12	-14	25	132	125	5
-9836	-3544	12128	-12	14	-26	-15816	-1480	-5136	12	1	20	-4024	-464	16728	21	-1	0	-9904	2448	13344	13	-4	-18	-15344	-1096	-5016	-1	-4	-14	-3752	2008	16400	5	-14	24	132	124	5
-9792	-3500	12112	-9	13	-22	-15648	-1208	-5160	26	-4	22	-4040	-304	16672	20	2	-2	-10040	2584	13336	11	-3	-27	-15296	-984	-4992	1	-3	-15	-3744	2056	16392	5	-9	29	132	125	5
-9780	-3456	11960	-6	9	-22	-15736	-1280	-4856	28	-7	23	-4064	-192	16368	20	-2	-1	-9936	2568	13280	12	-8	-19	-15408	-992	-5048	5	-2	-15	-3728	1960	16440	-3	-10	32	131	123	5
-9832	-3528	12020	-8	13	-22	-15696	-1216	-5056	11	0	16	-4000	-112	16856	33	-6	1	-9920	2648	13360	9	-6	-25	-15328	-1160	-5120	-1	-6	-18	-3704	1680	16424	-14	-15	25	131	125	5
-9812	-3508	12108	-10	14	-23	-15688	-1024	-5336	-10	2	15	-4064	-40	16720	33	-7	12	-9832	2552	13200	15	-13	-22	-15216	-1088	-4920	8	-1	-11	-3768	1648	16616	-5	-19	23	132	125	5
-9768	-3484	12176	-13	13	-26	-15744	-1096	-4992	-12	3	12	-4064	-48	16592	33	3	8	-10016	2624	13136	14	-5	-17	-15240	-1152	-4816	18	-10	-5	-3712	1592	16488	3	-18	20	131	124	5
-9816	-3452	12028	-14	13	-25	-15752	-1280	-5128	-5	-4	16	-3968	-176	16832	27	-2	8	-10072	2576	13280	16	-1	-15	-15376	-904	-5016	22	-10	-4	-3840	1784	16496	9	-13	19	132	126	5
-9836	-3372	11980	-10	21	-31	-15856	-1456	-5016	13	-5	14	-4128	-232	16672	15	2	3	-9944	2592	13128	12	-3	-18	-15480	-1096	-4896	3	-10	-1	-3536	1816	16288	11	-12	19	131	123	5
-9808	-3540	12116	-14	20	-23	-15616	-1344	-5208	31	3	16	-3936	-232	16760	11	-3	1	-9896	2632	13000	17	-4	-20	-15472	-1008	-5040	-12	0	-1	-3872	1696	16344	8	-12	15	132	125	5
-9792	-3460	12036	-14	20	-28	-15824	-1112	-5088	31	-4	12	-3992	0	16896	16	-4	5	-9936	2672	13072	17	-6	-23	-15472	-1096	-4920	-19	-4	-8	-3768	2008	16336	7	-13	16	132	123	5
-9856	-3448	12156	-12	19	-26	-15688	-1032	-5048	15	-2	14	-4112	-264	16336	17	0	9	-10096	2608	13120	14	1	-17	-15480	-1152	-5176	-13	-5	-1	-3776	1920	16272	4	-16	15	132	122	5
-9824	-3512	12044	-18	18	-26	-15664	-1136	-5056	-9	4	13	-4128	-256	16648	31	0	15	-10000	2704	13184	17	-2	-18	-15328	-1016	-4944	-1	-10	-6	-3760	1984	16376	-4	-17	15	131	123	5
-9760	-3520	12008	-18	12	-29	-15648	-1504	-4744	-17	3	11	-3968	-192	16704	30	-3	12	-9880	2664	13168	24	-5	-17	-15536	-992	-4840	5	-7	-4	-3688	1840	16608	-5	-16	18	131	126	5
-9824	-3492	12064	-14	13	-29	-15752	-1432	-5152	4	-5	12	-4048	-264	16392	24	-1	8	-9976	2544	13160	17	-3	-24	-15280	-992	-4912	8	-6	-5	-3720	2024	16352	-5	-14	22	132	122	5
-9808	-3448	12128	-12	11	-25	-15904	-1320	-5144	10	-3	14	-4048	-328	16488	22	-2	3	-9856	2704	13344	14	-11	-22	-15400	-912	-4952	7	-6	-9	-3696	1992	16424	6	-10	25	131	122	5
-9748	-3444	12164	-14	13	-23	-15744	-1192	-4976	19	-3	16	-3904	-336	16728	20	-5	0	-9864	2696	13264	10	-4	-19	-15368	-872	-5000	5	-6	-6	-3712	1896	16368	2	-15	24	132	123	5
-9852	-3464	12092	-10	18	-23	-15736	-1296	-5112	21	-1	12	-4016	-168	16672	26	-3	5	-9872	2488	13280	14	-3	-25	-15416	-1024	-5112	-5	-11	-12	-3720	1760	16232	1	-13	24	132	125	5
-9748	-3464	11996	-10	20	-28	-15728	-1272	-4808	13	-1	18	-4040	-64	16528	23	3	8	-9968	2720	13112	11	-2	-25	-15504	-1032	-5016	-1	-8	-11	-3688	1632	16488	0	-17	26	131	126	5
-9752	-3540	12028	-13	12	-27	-15664	-1184	-4976	14	3	15	-3952	-136	16488	23	3	8	-9968	2664	13176	12	-5	-21	-15336	-968	-5232	1	-3	-12	-3784	1912	16440	4	-12	26	132	123	5
-9764	-3468	12044	-15	9	-23	-15736	-1400	-5112	0	-7	12	-3760	-288	16616	19	1	8	-9896	2688	13064	13	-4	-21	-15488	-992	-5056	-2	-3	-10	-3672	1944	16704	-1	-12	23	132	125	5
-9756	-3464	12032	-11	17	-25	-15688	-1264	-5048	4	-2	14	-3944	-280	16800	15	-2	0	-9896	2624	13128	9	-10	-20	-15448	-800	-5112	1	-2	-15	-3688	1776	16616	-7	-8	28	132	125	5
-9764	-3456	12072	-6	18	-20	-15696	-1208	-5032	9	-4	14	-3952	-272	16656	24	-1	-1	-9992	2640	13048	16	1	-23	-15432	-1064	-4888	-5	-1	-15	-3816	1800	16560	-1	-11	21	131	124	5
-9844	-3476	11988	-10	16	-23	-15824	-1136	-4896	21	-5	16	-4024	-216	16880	30	-2	3	-9832	2552	13152	17	-2	-23	-15400	-1120	-4952	-5	-2	-9	-3592	1712	16432	2	-16	23	132	124	5
-9820	-3440	12136	-11	16	-22	-15792	-1168	-5032	0	0	13	-3944	-360	16656	24	2	5	-9872	2600	13096	14	-5	-20	-15384	-1192	-4808	-1	-2	-11	-3728	1920	16544	9	-14	21	132	124	5
-9804	-3524	12048	-16	19	-24	-15672	-1328	-5000	8	-1	20	-3944	-200	16744	24	-1	3	-10008	2608	13344	17	-5	-18	-15296	-1016	-5032	8	-2	-7	-3696	1976	16272	4	-11	24	132	125	5
-9804	-3500	12228	-13	19	-24	-15752	-1432	-4808	13	0	19	-4040	-152	16496	20	1	2	-9952	2632	13016	15	-3	-22	-15344	-960	-5224	2	-2	-7	-3728	1848	16480	-6	-16	16	131	122	5
-9776	-3528	12020	-11	20	-26	-15608	-1136	-5144	28	-1	17	-3960	-144	16360	19	1	1	-9888	2640	13112	12	-6	-22	-15328	-1000	-5248	-12	-4	-8	-3776	1704	16584	-6	-15	15	132	126	5
-9820	-3500	12048	-12	17	-23	-15656	-1264	-5048	16	1	18	-4048	-48	16704	21	0	2	-9968	2640	13144	14	-3	-20	-15440	-1056	-5000	-8	-1	-11	-3832	1824	16448	4	-8	25	132	123	5
-9808	-3460	12172	-9	15	-22	-15792	-1040	-5088	-1	-2	15	-4184	-272	16688	24	-2	6	-9848	2648	13032	13	-6	-19	-15352	-1032	-4944	4	-1	-8	-3656	1880	16400	0	-13	23	131	126	5
-9816	-3416	12108	-14	15	-28	-15752	-1392	-5136	-14	4	15	-4208	-256	16560	24	2	3	-10016	2560	13400	14	-7	-19	-15376	-992	-5104	7	-3	-7	-3704	1960	16392	8	-12	22	132	123	5
-9756	-3576	12080	-12	11	-25	-15784	-1248	-5080	13	-5	17	-4112	-240	16624	25	1	3	-9832	2720	13184	10	-7	-23	-15352	-1024	-5152	11	-10	-11	-3816	1952	16104	4	-15	25	131	125	5
-9784	-3500	11948	-9	18	-25	-15776	-1312	-5168	25	-4	21	-4144	-344	16376	16	3	0	-9952	2696	13112	18	-8	-20	-15344	-840	-4864	7	-6	-12	-3712	1784	16272	-2	-12	30	132	126	5
-9752	-3400	12096	-7	12	-24	-15624	-1232	-4952	26	-7	22	-3984	-168	16816	18	4	3	-10048	2712	13232	15	-6	-21	-15480	-1096	-4976	-5	-8	-15	-3760	1896	16536	3	-12	25	132	126	5
-9856	-3516	12120	-10	13	-22	-15848	-1208	-4792	19	-6	18	-3944	-208	16568	26	-5	-1	-9848	2656	13200	17	-10	-22	-15368	-1024	-5080	0	-7	-10	-3632	1792	16512	5	-12	24	132	126	5
-9764	-3452	12184	-8	14	-23	-15600	-1168	-4944	4	-1	18	-4024	-128	16544	26	-1	3	-9992	2528	13320	13	-6	-21	-15352	-1016	-5000	11	-7	-6	-3776	1872	16328	-7	-13	22	132	126	5
-9804	-3448	12036	-6	10	-24	-15632	-1192	-5032	-9	0	16	-4056	-64	16496	25	4	-1	-9840	2736	13016	12	-1	-17	-15360	-920	-5000	12	-9	-7	-3752	1816	16512	-7	-14	20	131	125	5
-9724	-3484	12056	-6	13	-23	-15776	-1336	-5056	-5	5	18	-3968	-112	16672	30	-2	1	-9848	2608	13024	15	-11	-20	-15344	-1096	-5240	6	-9	-6	-3720	1912	16224	-2	-12	22	131	123	5
-9788	-3392	12100	-9	12	-17	-15840	-1088	-4960	4	3	13	-3976	-40	16592	23	-4	5	-9896	2576	13240	12	-10	-23	-15304	-1008	-4920	-10	-2	-13	-3648	1776	16360	1	-14	22	131	126	5
-9796	-3396	11992	-14	15	-27	-15808	-1272	-5080	-2	-1	10	-3984	-208	16688	18	-2	5	-9904	2568	13304	13	-7	-23	-15464	-1056	-4976	-10	-3	-6	-3728	1824	16536	8	-14	21	131	123	5
-9824	-3472	12068	-16	21	-25	-15680	-1360	-5080	8	-2	13	-4040	-256	16448	23	2	8	-10024	2368	13152	14	-3	-21	-15480	-952	-5128	-1	-3	-9	-3664	1904	16360	8	-14	21	132	122	5
-9776	-3504	12072	-16	19	-26	-15680	-1320	-5040	23	-5	15	-3904	-192	16512	24	-2	5	-9992	2552	13080	10	-7	-20	-15360	-784	-5008	7	-3	-2	-3704	1872	16656	5	-11	19	132	126	5
-9764	-3428	12060	-11	17	-26	-15800	-1152	-5272	28	-5	18	-3968	-200	16512	16	0	10	-9984	2608	13240	13	2	-19	-15368	-1096	-5120	2	-7	-4	-3800	1768	16504	2	-11	20	132	125	5
-9732	-3444	12012	-17	15	-23	-15888	-1224	-5200	-2	-1	17	-4128	-264	16432	20	2	5	-9808	2528	13144	21	-4	-23	-15200	-1112	-5056	0	3	-7	-3680	1752	16648	1	-13	18	131	124	5
-9848	-3536	12064	-12	17	-29	-15824	-1328	-5040	5	0	19	-3960	-344	16568	22	-1	3	-9880	2640	13192	18	-5	-16	-15376	-872	-5072	6	0	-12	-3728	1872	16448	-1	-12	18	132	123	5
-9852	-3544	12132	-11	16	-21	-15840	-1432	-4952	4	-3	9	-4000	-328	16680	23	1	7	-9848	2592	13200	18	1	-19	-15432	-912	-4864	-1	-5	-12	-3848	2064	16336	1	-11	21	132	124	5
-9764	-3464	12056	-9	13	-22	-15808	-1264	-4920	16	-7	16	-4008	-192	16776	19	-1	3	-9976	2616	13136	16	-5	-24	-15496	-1016	-5120	2	-7	-12	-3840	1968	16392	-5	-11	28	131	124	5
-9764	-3488	12164	-8	16	-27	-15752	-1248	-5064	6	-4	14	-3960	-400	16608	20	-3	-1	-9872	2744	13336	10	1	-22	-15376	-976	-5024	-1	-11	-14	-3824	1808	16504	-7	-14	27	132	122	5
-9808	-3468	12048	-6	16	-23	-15752	-1248	-4904	10	-2	18	-3952	-248	16512	28	0	5	-9912	2688	13112	9	-2	-25	-15544	-1112	-5032	-9	-9	-13	-3760	1464	16432	-4	-11	23	132	125	5
-9796	-3452	12112	-10	11	-27	-15664	-1296	-4864	1	2	18	-4072	-304	16600	26	5	-2	-9912	2464	13312	15	-2	-21	-15496	-1128	-5112	-4	-1	-10	-3640	1760	16472	5	-14	23	132	123	5
-9808	-3512	12100	-10	12	-26	-15896	-1432	-4936	10	-6	20	-4056	-152	16584	20	1	0	-9936	2520	13144	14	-5	-19	-15376	-1120	-4720	10	-6	-9	-3768	1864	16392	10	-15	28	132	126	5
-9792	-3452	12128	-9	16	-22	-15840	-1048	-4992	25	-5	21	-4056	-128	16656	19	1	-1	-9920	2824	13200	13	-8	-19	-15344	-1032	-4960	6	-10	-14	-3768	1896	16376	0	-11	25	131	126	5
-9720	-3476	12036	-12	16	-23	-15696	-1152	-5080	24	1	20	-4016	48	16776	21	-1	3	-9960	2656	13080	10	-6	-26	-15464	-1176	-4896	-3	-5	-16	-3680	1696	16440	-10	-11	20	131	125	5
-9808	-3420	12084	-14	12	-26	-15696	-1096	-4808	1	-1	9	-3744	-160	16672	18	-2	5	-9904	2624	13160	11	-10	-19	-15336	-1112	-5048	-6	-3	-10	-3680	1696	16544	1	-13	20	132	123	5
-9800	-3476	12012	-16	19	-26	-15832	-1184	-5080	-12	5	10	-3952	-232	16544	20	2	10	-9992	2496	13200	13	-2	-25	-15496	-1128	-4848	-9	-2	-12	-3584	1752	16232	0	-13	20	131	123	5
-9792	-3544	12080	-16	19	-24	-15784	-1304	-4984	3	-2	13	-4056	-232	16784	21	-4	6	-9968	2568	12952	15	-1	-20	-15480	-1112	-5080	-8	3	-6	-3824	1800	16328	-6	-17	15	131	122	5
-9796	-3436	12144	-15	17	-24	-15856	-1344	-4976	17	-3	11	-4104	-248	16528	18	-1	3	-9888	2656	13448	14	-5	-25	-15336	-992	-5008	-3	-3	-7	-3776	1736	16472	-6	-14	14	132	126	5
-9812	-3480	12060	-14	16	-27	-15744	-1184	-5040	19	-3	10	-4024	-128	16624	16	-2	2	-10032	2624	13120	22	-4	-22	-15496	-920	-5056	3	-2	-4	-3752	1936	16480	2	-11	13	131	124	5
-9756	-3512	12044	-11	20	-22	-15624	-1112	-5056	23	2	13	-4080	-144	16552	22	1	5	-9968	2600	13112	19	2	-16	-15384	-1024	-4928	1	1	-5	-3648	1920	16456	3	-12	15	131	124	5
-9824	-3452	12084	-18	21	-21	-15784	-1224	-4752	8	1	11	-3912	-128	16440	24	1	9	-9912	2632	13168	18	-6	-19	-15512	-848	-5040	-8	2	-8	-3768	1840	16360	-4	-18	20	132	124	5
-9800	-3520	12048	-16	13	-23	-15728	-1160	-5072	9	-7	15	-4096	-144	16720	22	2	10	-10008	2528	13512	18	-7	-16	-15352	-968	-5048	-1	-2	-6	-3688	1832	16456	1	-16	25	131	124	5
-9820	-3436	12108	-7	15	-23	-15616	-1304	-5296	-8	3	11	-4008	-144	16648	26	3	7	-10032	2608	13232	13	-7	-24	-15392	-1096	-4872	5	-6	-11	-3712	1928	16600	5	-13	27	132	125	5
-9824	-3492	12000	-17	13	-22	-15760	-1264	-5040	-7	1	14	-4168	-416	16728	24	2	6	-9800	2544	13384	16	-4	-20	-15440	-928	-4968	7	-9	-7	-3824	1992	16448	6	-16	24	131	127	5
-9792	-3504	12152	-11	11	-20	-15752	-1336	-5008	17	-5	21	-4080	-384	16592	23	-3	5	-9872	2584	13288	13	-4	-21	-15416	-1056	-5016	-1	-11	-9	-3712	1864	16624	-2	-13	26	132	125	5
-9744	-3404	12048	-9	15	-20	-15760	-1368	-4984	8	-7	16	-4088	-472	16624	22	0	2	-9960	2504	13184	11	-11	-22	-15464	-976	-4944	2	-5	-10	-3728	1784	16384	0	-12	22	131	126	5
-9748	-3500	12052	-10	15	-19	-15776	-1344	-4976	19	0	23	-4136	-216	16480	23	-2	0	-9936	2576	13328	12	-12	-20	-15432	-1096	-5032	5	-8	-14	-3840	1824	16192	5	-14	22	131	124	5
-9856	-3472	12108	-14	16	-24	-15688	-1216	-4824	10	0	20	-4016	-144	16560	30	1	5	-10008	2744	13408	10	-3	-22	-15472	-968	-5048	5	-6	-10	-3640	1872	16400	-1	-16	25	131	125	5
-9828	-3512	12068	-16	15	-23	-15672	-1232	-5016	11	-4	18	-4080	-56	16632	19	2	6	-9840	2600	13256	12	-13	-18	-15320	-920	-5184	1	-8	-8	-3768	1720	16400	-5	-17	21	131	125	5
-9840	-3516	12036	-15	21	-21	-15776	-1112	-5208	14	-3	11	-3984	24	16440	21	-2	10	-9960	2592	13344	12	-4	-20	-15440	-1056	-4920	-1	-4	-9	-3752	1768	16264	-4	-12	22	132	125	5
-9712	-3344	12056	-16	20	-21	-15640	-1080	-5160	-2	-2	6	-4088	-176	16760	21	-5	10	-9880	2536	13120	18	-9	-17	-15360	-1144	-4896	-2	-2	-4	-3648	1688	16192	3	-16	21	131	124	5
-9812	-3368	12064	-14	16	-28	-15768	-1328	-5152	-14	-6	6	-4000	-328	16664	23	-4	12	-9952	2712	13032	14	-4	-17	-15400	-976	-4960	2	-5	-2	-3752	1704	16328	4	-16	16	132	125	5
-9852	-3460	12032	-19	16	-26	-15752	-1480	-5048	-6	-2	7	-4000	-384	16608	28	-3	13	-10008	2544	13264	17	-2	-17	-15296	-968	-5168	2	-3	-2	-3688	1864	16456	10	-15	13	131	124	5
-9744	-3472	12068	-11	15	-29	-15736	-1384	-5008	34	-7	14	-3968	-48	16744	22	-2	6	-9944	2648	13360	17	-3	-19	-15400	-928	-5128	7	-4	-4	-3880	1960	16576	15	-8	18	131	124	5
-9756	-3452	12108	-8	20	-25	-15832	-1256	-5064	23	-7	12	-3984	-248	16672	14	0	7	-9856	2600	13184	17	-5	-17	-15496	-992	-5040	0	-6	-6	-3768	1960	16416	2	-15	22	131	126	5
-9784	-3468	12208	-15	14	-26	-15736	-1096	-5304	21	0	14	-4096	-168	16672	20	-3	8	-9872	2672	13088	13	-2	-21	-15400	-1016	-5104	-11	-2	-9	-3856	1896	16592	-9	-17	23	132	123	5
-9824	-3472	12228	-7	16	-28	-15760	-1208	-5096	-3	5	11	-4048	-376	16584	23	3	7	-9968	2536	13016	14	-6	-21	-15288	-1096	-4808	-6	0	-6	-3688	1856	16608	-1	-20	22	132	123	5
-9732	-3456	12128	-15	16	-31	-15584	-1264	-5200	-4	-4	12	-4184	-280	16496	20	-2	5	-9848	2640	13008	14	-2	-19	-15336	-1040	-4840	7	-2	-5	-3784	1912	16232	1	-17	17	131	123	5
-9712	-3500	12000	-8	14	-26	-15800	-1320	-5200	8	-2	21	-3936	-232	16528	25	-2	3	-10008	2640	13272	13	-3	-20	-15328	-1096	-4736	9	-6	-9	-3824	1968	16552	-4	-18	19	131	124	5
-9752	-3520	12108	-13	19	-19	-15752	-1192	-4888	19	-4	14	-4080	-160	16632	25	-8	4	-9912	2728	13512	22	-1	-17	-15464	-1040	-5056	3	-7	-5	-3696	1928	16400	-5	-16	15	131	126	5
-9796	-3476	12080	-9	10	-21	-15656	-1168	-5056	13	-4	14	-4192	-152	16504	30	-5	1	-9864	2528	13488	17	0	-17	-15352	-1080	-5144	8	-6	-7	-3848	1744	16216	4	-15	20	132	126	5
-9800	-3440	12068	-11	14	-26	-15840	-1248	-5088	-4	-1	16	-4008	-344	16664	27	-1	7	-9896	2576	13248	19	-9	-21	-15304	-976	-4840	3	-2	-4	-3848	1728	16392	13	-16	24	132	125	5
-9864	-3492	12088	-13	19	-26	-15712	-1304	-4984	-1	-3	14	-4088	-328	16424	18	4	9	-9984	2608	13248	19	-4	-18	-15480	-1080	-4992	-2	-8	-5	-3504	1832	16472	6	-22	21	132	123	5
-9792	-3488	12080	-12	16	-25	-15728	-1432	-5184	19	-4	19	-4040	-320	16896	18	4	-3	-9856	2616	13472	11	5	-26	-15432	-976	-5008	0	-4	-4	-3672	1944	16552	9	-13	24	131	123	5
-9796	-3520	12060	-8	12	-18	-15744	-1232	-5192	41	-9	21	-3880	-104	16592	20	-5	-1	-9816	2576	13328	15	1	-20	-15368	-1040	-5184	-7	-5	-3	-3680	1944	16416	0	-10	18	132	125	5
-9760	-3440	12080	-10	20	-23	-15680	-1072	-5112	25	-2	18	-3984	-32	16392	16	-5	5	-9904	2664	13272	17	-5	-18	-15400	-1080	-4952	-10	-3	-7	-3744	1992	16280	-5	-19	16	132	122	5
-9824	-3404	12088	-13	18	-25	-15704	-1024	-4712	-13	-3	7	-3928	-296	16704	17	-1	9	-9848	2688	12920	15	-8	-18	-15288	-960	-5016	1	0	-7	-3720	1872	16424	2	-21	15	132	123	5
-9780	-3520	12144	-20	18	-25	-15824	-1384	-5088	-17	3	8	-3944	-160	16624	29	3	8	-9952	2616	13056	16	-7	-21	-15416	-968	-4952	10	-3	0	-3720	2024	16352	3	-14	12	131	126	5
-9804	-3500	12080	-16	17	-23	-15784	-1392	-4960	2	-5	11	-4024	-120	16336	35	-3	12	-9824	2776	13160	21	-2	-21	-15440	-888	-4952	5	-7	-7	-3744	1760	16472	-3	-17	22	131	125	5
-9756	-3476	12040	-16	20	-22	-15736	-1344	-5008	19	-3	10	-4104	-232	16424	22	0	10	-9960	2552	13160	17	-4	-23	-15488	-1232	-5168	-4	-2	-9	-3656	1896	16616	-5	-15	21	132	127	5
-9768	-3468	12012	-14	15	-27	-15760	-1368	-5056	7	-1	15	-4024	-392	16448	13	2	4	-10040	2752	13184	17	2	-24	-15328	-984	-5096	-2	-1	-8	-3688	2024	16488	10	-11	26	131	125	5
-9840	-3500	12040	-8	14	-26	-15728	-1392	-5056	22	1	18	-3992	-344	16512	20	-6	-4	-9904	2576	13096	14	-10	-18	-15376	-912	-4952	-2	0	-11	-3840	1952	16592	6	-15	21	132	122	5
-9856	-3488	12072	-8	13	-24	-15768	-1312	-5048	27	0	19	-4024	-376	16656	23	0	0	-9904	2624	13136	9	-7	-19	-15328	-976	-4840	3	-4	-16	-3720	1952	16320	0	-19	25	132	124	5
-9748	-3504	12140	-4	14	-24	-15624	-1224	-5256	23	-9	21	-4048	-200	16616	20	2	2	-9912	2640	13208	13	-11	-21	-15264	-1112	-5008	3	-6	-17	-3824	1848	16528	-7	-14	31	131	123	5
-9796	-3492	12048	-9	19	-23	-15736	-1184	-5136	11	3	13	-4088	-80	16536	33	-2	7	-9944	2744	13280	8	-3	-19	-15576	-1112	-5176	3	-10	-13	-3952	1760	16584	-5	-11	23	130	126	5
-9768	-3388	12056	-10	15	-21	-15608	-1208	-5080	-20	3	9	-4112	-136	16592	28	-5	7	-10016	2488	13208	13	-6	-23	-15416	-1248	-5024	10	-11	-11	-3600	1744	16256	-7	-16	25	132	125	5
-9808	-3472	12160	-11	13	-29	-15712	-1488	-4960	-32	-2	13	-4136	-248	16544	21	1	3	-9904	2528	13224	15	-10	-18	-15464	-1040	-4912	17	-8	-9	-3816	1824	16264	7	-17	23	132	123	5
-9824	-3568	12044	-7	10	-24	-15776	-1392	-5160	34	-8	24	-4024	-176	16672	26	-1	-4	-9896	2632	13160	9	1	-20	-15272	-880	-4864	16	-4	-9	-3704	1776	16448	5	-10	23	131	122	5
-9756	-3376	12088	-7	14	-21	-15728	-1104	-4888	50	-10	22	-3880	112	16624	17	-7	-4	-9952	2672	13024	14	0	-20	-15408	-1000	-5008	-4	-8	-7	-3688	1808	16336	-8	-12	20	131	124	5
-9784	-3480	12132	-11	18	-20	-15792	-1000	-4896	27	-9	14	-3904	-96	16672	17	-5	6	-9848	2488	13248	18	1	-20	-15384	-1024	-4936	-12	0	-11	-3720	1800	16576	7	-15	19	132	125	5
-9816	-3444	12140	-16	19	-30	-15816	-1080	-5088	-12	2	6	-3992	-80	16616	25	-2	11	-9856	2592	13320	21	3	-17	-15496	-952	-4952	-9	-1	-5	-3768	1896	16240	13	-15	21	132	126	5
-9768	-3436	12052	-20	15	-30	-15704	-1312	-5096	-26	2	8	-4048	-320	16904	20	0	14	-9776	2752	13120	16	0	-16	-15272	-1000	-4712	2	-7	-8	-3752	1888	16352	3	-19	19	132	125	5
-9808	-3532	12092	-13	17	-26	-15744	-1472	-4992	3	-6	15	-4232	-336	16672	20	-3	5	-9976	2592	13208	17	-4	-19	-15344	-1000	-4784	-3	-6	-3	-3808	2040	16536	2	-13	20	132	125	5
-9812	-3492	12108	-9	13	-20	-15736	-1360	-4776	29	-7	15	-4088	-32	16800	20	-6	1	-9864	2696	13224	16	-3	-26	-15328	-912	-5080	-1	-5	-13	-3640	1768	16424	-3	-6	23	132	125	5
-9816	-3392	12168	-12	12	-23	-15768	-1120	-5088	25	-7	20	-4080	-336	16608	16	-9	-3	-9936	2552	13232	13	-5	-24	-15528	-1088	-4728	-4	1	-14	-3736	1872	16176	-2	-9	20	132	123	5
-9816	-3440	12084	-9	14	-25	-15800	-1248	-4976	3	-1	15	-3968	-120	16528	29	-2	-3	-9944	2624	13224	12	-4	-20	-15408	-1128	-4784	3	-3	-13	-3656	1920	16632	-3	-18	14	131	125	5
-9732	-3560	12020	-13	20	-23	-15640	-1192	-5072	6	1	17	-4016	-312	16632	27	4	2	-9880	2584	13192	13	-2	-25	-15384	-952	-4848	11	-2	-15	-3744	1856	16424	-6	-17	20	131	124	5
-9764	-3472	12132	-13	17	-30	-15832	-1352	-5160	6	-3	15	-4168	-96	16632	23	-1	8	-9856	2592	13336	12	-6	-20	-15504	-912	-5208	13	-9	-8	-3688	1768	16448	-7	-17	24	132	122	5
-9812	-3404	11968	-12	19	-22	-15840	-1272	-5160	0	-6	17	-4048	-152	16632	17	2	6	-9880	2672	13208	10	-7	-21	-15344	-992	-5312	6	-9	-17	-3768	1880	16552	-1	-12	31	132	127	5
-9768	-3548	12008	-15	19	-19	-15680	-1384	-5048	8	0	13	-4016	-280	16472	16	3	7	-9776	2560	13040	11	-6	-19	-15296	-936	-5224	-3	-6	-17	-3688	1848	16328	-7	-10	31	131	127	5
-9792	-3440	12072	-12	18	-23	-15728	-1272	-5096	20	-1	14	-3936	-176	16632	24	-8	5	-9840	2616	13096	18	-2	-20	-15416	-1208	-4928	-15	-2	-16	-3824	1848	16608	-7	-14	25	131	124	5
-9760	-3436	12016	-12	15	-28	-15632	-1112	-5064	9	-11	10	-4136	-312	16664	19	0	2	-9872	2552	13408	18	-3	-19	-15376	-1192	-5096	-6	-4	-14	-3664	1664	16472	1	-14	22	131	122	5
-9768	-3476	12060	-11	14	-26	-15648	-1312	-5112	-1	-3	13	-4024	-240	16480	25	0	3	-9976	2552	13160	15	-9	-23	-15528	-1056	-4896	14	-5	-9	-3736	1872	16760	6	-11	22	132	126	5
-9752	-3512	12096	-10	17	-24	-15728	-1248	-5264	5	-3	13	-4000	-280	16632	22	-3	10	-9936	2672	13272	12	-1	-18	-15400	-968	-5176	19	-8	-7	-3672	1784	16232	2	-12	19	131	124	5
-9808	-3488	12096	-12	18	-23	-15792	-1184	-4824	25	-4	11	-3976	-152	16784	20	-2	10	-9784	2592	13408	13	-1	-18	-15416	-976	-4816	5	-12	-5	-3704	1672	16272	-4	-12	24	132	124	5
-9792	-3452	12032	-9	15	-23	-15704	-1296	-4856	10	-5	9	-4040	-224	16648	8	-4	6	-9912	2616	12960	12	-5	-22	-15400	-1024	-4968	-7	-6	-11	-3672	1864	16544	1	-11	26	131	125	5
-9776	-3444	12128	-16	18	-26	-15608	-1184	-5144	5	-5	16	-3872	-376	16432	16	-2	2	-9880	2568	13184	14	-7	-19	-15464	-1064	-4696	-9	-2	-7	-3680	1912	16480	-1	-15	23	132	126	5
-9816	-3496	11992	-13	18	-27	-15656	-1296	-5152	7	0	19	-4056	-256	16736	27	-5	3	-9960	2600	13176	18	-3	-22	-15392	-960	-4896	-12	-1	-4	-3392	1864	16440	2	-15	21	132	126	5
-9812	-3484	12060	-16	19	-21	-15600	-1248	-4968	18	-5	16	-4000	-312	16544	29	-5	6	-9952	2664	13352	23	3	-22	-15480	-1088	-5256	1	-5	-4	-3752	1816	16448	1	-16	16	131	124	5
-9836	-3476	12036	-11	19	-22	-15784	-960	-5152	14	-6	7	-4056	-128	16664	32	-6	12	-9968	2592	13016	21	-2	-18	-15432	-976	-5168	1	-4	-2	-3736	1808	16488	-8	-12	15	131	124	5
-9820	-3444	12168	-16	15	-24	-15672	-1160	-5176	-6	4	7	-4000	-32	16352	31	-3	14	-9784	2640	13304	17	-1	-16	-15480	-1096	-4888	9	-2	1	-3816	1784	16512	-2	-12	13	132	123	5
-9808	-3484	12076	-14	17	-24	-15704	-1272	-5016	-12	0	8	-3992	-304	16528	24	-3	13	-9856	2632	13216	16	-6	-25	-15400	-984	-4800	5	0	-1	-3800	1880	16584	4	-15	19	131	126	5
-9804	-3504	12056	-14	15	-24	-15672	-1560	-5104	9	3	17	-3928	-248	16800	21	-1	7	-9992	2600	13336	17	-4	-21	-15448	-1008	-5024	5	-3	-7	-3664	1848	16528	13	-16	22	131	123	5
-9796	-3464	12020	-10	15	-28	-15776	-1152	-4848	25	-6	13	-4072	-216	16608	16	-4	5	-9904	2440	13320	16	-14	-21	-15480	-1064	-4952	1	-1	-4	-3648	1928	16336	10	-17	24	131	126	5
-9788	-3436	11964	-9	16	-23	-15640	-1264	-4984	23	-2	17	-3984	-376	16624	17	-2	4	-9912	2584	13048	11	-5	-16	-15488	-1008	-5008	-5	-3	-6	-3888	2064	16440	8	-14	22	132	125	5
-9852	-3476	12028	-8	18	-22	-15808	-1216	-4864	14	-3	22	-4040	-224	16584	26	-4	3	-9824	2616	13096	13	-6	-24	-15344	-1024	-5032	-1	-8	-9	-3744	2000	16720	-1	-13	23	131	123	5
-9760	-3480	12020	-10	12	-23	-15808	-1208	-4880	10	-4	19	-3944	-200	16792	27	-3	4	-9832	2664	13048	11	-8	-21	-15464	-936	-4848	1	-6	-11	-3640	1952	16552	-7	-14	23	131	125	5
-9768	-3448	12076	-12	16	-21	-15776	-1248	-5112	2	0	15	-3968	-168	16536	37	-2	3	-9904	2584	13240	10	-9	-21	-15520	-976	-5200	6	-7	-8	-3760	1800	16368	-3	-14	28	131	125	5
-9764	-3440	12148	-9	13	-16	-15736	-1048	-5128	4	-5	15	-4024	-128	16488	38	-2	4	-9984	2632	13024	11	-6	-21	-15440	-936	-4896	6	-13	-18	-3680	1664	16544	-5	-11	29	131	123	5
-9776	-3436	12148	-9	17	-27	-15728	-1432	-4944	-11	-2	12	-4064	-272	16680	22	2	4	-9904	2536	13256	10	-4	-24	-15384	-1064	-4960	2	-8	-17	-3624	1744	16360	0	-16	30	131	127	5
-9848	-3496	12096	-12	17	-25	-15688	-1488	-5040	5	-7	16	-4096	-216	16624	16	1	-2	-9904	2632	13032	15	-2	-27	-15328	-1104	-4768	7	-6	-10	-3664	1896	16560	7	-14	27	131	124	5
-9756	-3552	12008	-7	19	-24	-15696	-1312	-4952	30	-6	24	-4016	-192	16624	16	3	-9	-9840	2624	13072	18	6	-18	-15352	-920	-5016	2	-3	-12	-3712	1840	16552	3	-9	24	131	123	5
-9776	-3488	12052	-7	15	-22	-15752	-1224	-5224	40	-10	23	-3912	-24	16376	11	-2	-5	-9896	2600	13288	17	2	-23	-15376	-1112	-4936	-2	-1	-12	-3608	1808	16368	0	-12	20	131	125	5
-9732	-3464	12140	-14	17	-20	-15784	-952	-4808	27	-1	16	-3904	-152	16712	17	2	-2	-9896	2728	13440	16	1	-19	-15272	-968	-5016	3	-4	-12	-3808	1864	16584	-6	-16	14	130	124	5
-9820	-3392	12096	-14	15	-19	-15688	-1040	-5144	1	2	7	-3888	-8	16528	36	-1	12	-9976	2568	13216	12	-6	-17	-15424	-1064	-5056	0	-5	-5	-3776	1952	16344	-8	-13	17	130	125	5
-9748	-3488	12080	-19	20	-28	-15832	-1200	-5136	-33	1	2	-4008	-128	16544	33	-3	19	-10048	2520	13072	12	-10	-20	-15400	-1128	-5096	-4	-2	-7	-3776	1776	16440	-12	-15	19	131	124	5
-9784	-3492	12076	-23	18	-24	-15544	-1448	-5208	-25	2	5	-4016	-296	16776	28	3	15	-9984	2568	13120	11	-7	-27	-15424	-1000	-5160	-3	-4	-10	-3568	1744	16624	-5	-16	21	131	125	5
-9844	-3564	12048	-14	17	-24	-15744	-1536	-4976	16	-2	9	-3992	-200	16656	21	-2	6	-9952	2488	13232	16	-5	-22	-15440	-1000	-5040	1	-1	-5	-3640	1872	16416	9	-11	24	131	125	5
-9800	-3532	12128	-13	19	-20	-15704	-1336	-4856	39	-10	12	-4112	-240	16616	14	-4	1	-9992	2560	13280	12	-1	-20	-15336	-1032	-4880	-3	0	-11	-3672	1848	16560	5	-8	21	131	126	5
-9756	-3380	11928	-11	16	-24	-15696	-1168	-4936	35	-10	11	-4144	-232	16560	11	-2	0	-9888	2408	13016	13	-9	-21	-15360	-1056	-4968	-3	-1	-8	-3784	1744	16384	8	-17	17	132	123	5
-9756	-3536	12108	-11	15	-27	-15728	-1264	-5184	10	0	13	-4048	-320	16664	19	-2	2	-9864	2568	13232	13	-1	-14	-15376	-952	-4840	7	-6	-10	-3872	1912	16360	6	-16	19	131	125	5
-9796	-3512	12016	-9	19	-26	-15696	-1224	-5224	7	-3	15	-4104	-176	16728	25	-1	7	-9888	2648	13192	14	-5	-23	-15448	-856	-4896	8	-8	-7	-3768	1808	16344	-11	-17	20	131	125	5
-9832	-3484	12040	-14	18	-25	-15600	-1176	-5032	4	-4	12	-4040	-168	16480	26	-1	10	-9840	2600	13184	21	-3	-19	-15272	-1096	-5072	-4	-10	-10	-3792	1832	16496	-14	-15	22	130	123	5
-9820	-3496	12052	-14	17	-18	-15704	-1224	-5256	-12	-4	12	-4104	-280	16392	28	1	10	-9864	2560	13232	21	1	-15	-15344	-1128	-4928	4	-6	-9	-3816	1872	16424	1	-12	22	131	125	5
-9772	-3504	12012	-18	15	-27	-15672	-1360	-5016	-18	-2	12	-3880	-376	16480	24	1	-1	-9888	2472	13096	16	0	-19	-15432	-832	-4936	11	-4	-12	-3520	1912	16272	9	-12	23	131	125	5
-9808	-3508	12000	-12	16	-25	-15752	-1520	-5008	12	-3	19	-3888	-392	16952	20	3	-6	-10016	2664	13200	14	-2	-21	-15408	-768	-4856	-1	-6	-9	-3720	1856	16496	7	-13	24	131	122	5
-9808	-3516	12020	-6	16	-21	-15688	-1232	-4904	53	-11	28	-3784	-112	16664	19	-3	-11	-9856	2640	13160	21	-4	-23	-15376	-968	-5120	-11	-7	-12	-3840	1968	16440	8	-10	24	131	125	5
-9808	-3436	12048	-5	17	-23	-15648	-952	-4872	40	-6	22	-3976	-8	16552	19	-2	-3	-9960	2624	13152	15	-3	-22	-15320	-1088	-5016	-19	-2	-9	-3768	1784	16504	1	-12	24	131	125	5
-9752	-3448	12112	-14	14	-26	-15712	-1048	-5080	12	4	18	-3832	-160	16768	20	-3	6	-9936	2520	13096	12	-6	-19	-15480	-1080	-4952	-10	2	-11	-3728	1888	16416	2	-20	23	130	127	5
-9780	-3448	12060	-17	19	-26	-15600	-1200	-4984	-13	12	8	-4000	-96	16536	39	3	19	-9944	2640	13216	13	-6	-17	-15384	-936	-4968	3	-4	-9	-3680	1856	16560	-8	-20	20	131	123	5
-9800	-3460	12104	-18	21	-22	-15704	-1184	-5032	-22	4	4	-4256	-152	16880	28	4	16	-10008	2560	13032	11	-2	-21	-15216	-1144	-5072	11	-7	-3	-3592	1656	16360	-7	-14	16	131	126	5
-9796	-3456	12004	-17	15	-26	-15704	-1288	-5168	-10	5	9	-4280	-272	16744	28	3	7	-9824	2704	13368	19	2	-23	-15432	-1144	-4856	10	-4	-4	-3680	1720	16376	1	-14	20	130	125	5
-9872	-3464	12076	-19	17	-24	-15832	-1368	-4976	21	-3	15	-4208	-144	16416	26	-5	2	-10048	2760	13000	16	-5	-21	-15440	-936	-5024	11	-1	-5	-3640	1776	16336	10	-9	17	131	126	5
-9740	-3428	12160	-12	16	-25	-15648	-1136	-5056	26	-8	12	-4024	-128	16376	19	-4	4	-9872	2528	13176	15	-2	-22	-15256	-936	-4976	7	0	-9	-3880	2008	16376	17	-11	20	131	126	5
-9792	-3436	12060	-11	18	-27	-15736	-1200	-5232	26	-5	15	-4040	-208	16768	17	0	7	-9864	2720	13288	14	-2	-15	-15544	-816	-5080	0	-5	-9	-3840	2056	16352	10	-16	24	131	124	5
-9824	-3432	12004	-13	14	-28	-15736	-1344	-5336	11	-3	12	-4008	-264	16704	17	4	12	-9992	2624	13232	11	-4	-18	-15272	-1008	-5120	-13	-5	-11	-3832	1968	16384	-7	-18	25	131	125	5
-9796	-3480	12104	-10	17	-23	-15712	-1144	-5072	7	-4	11	-4024	-240	16544	21	3	11	-9888	2536	13216	12	-7	-22	-15384	-1032	-5056	-12	-7	-8	-3744	1792	16584	-4	-12	26	131	126	5
-9796	-3460	12092	-16	19	-24	-15680	-1304	-4896	-12	-4	12	-4096	-344	16536	15	0	8	-9880	2600	13224	10	-7	-16	-15328	-1024	-4944	2	-5	-12	-3736	1848	16352	5	-11	24	131	123	5
-9716	-3496	12072	-17	15	-30	-15592	-1464	-5088	-6	0	15	-4048	-400	16664	25	-3	0	-9808	2776	13408	10	-2	-23	-15536	-1160	-4872	2	-3	-9	-3656	1984	16312	3	-12	23	131	126	5
-9876	-3564	12004	-10	12	-20	-15752	-1336	-5184	19	-6	18	-3992	-200	16560	26	-3	-4	-9864	2544	13144	14	-7	-23	-15248	-992	-4920	15	-13	-5	-3632	1952	16384	-3	-14	18	131	125	5
-9908	-3440	12148	-11	16	-21	-15632	-1104	-4656	26	-7	21	-3968	-64	16536	28	-2	-2	-9832	2752	13064	13	-6	-18	-15264	-984	-4800	12	-8	-12	-3776	1912	16440	2	-14	23	130	125	5
-9720	-3440	12076	-8	19	-23	-15656	-1144	-5056	12	-3	18	-3888	-80	16528	22	3	4	-10072	2688	13376	17	-4	-19	-15400	-880	-4912	8	-7	-14	-3640	1816	16272	-2	-13	23	131	127	5
-9824	-3472	12088	-10	17	-25	-15648	-1248	-5144	-5	4	16	-4016	-344	16648	12	4	4	-9960	2720	13064	11	-3	-18	-15368	-976	-5152	-1	-1	-15	-3560	1856	16568	2	-12	23	131	126	5
-9824	-3528	12012	-14	19	-23	-15736	-1280	-5048	18	7	16	-3936	-200	16680	20	2	0	-10088	2496	13184	16	-3	-19	-15392	-1128	-4936	-6	-6	-13	-3728	1880	16512	7	-8	26	131	126	5
-9788	-3524	11956	-8	19	-19	-15864	-1264	-5072	17	-2	13	-4128	-72	16488	19	-4	4	-9968	2672	13232	12	-3	-21	-15608	-984	-4944	-9	-6	-10	-3768	1904	16328	-2	-13	26	131	124	5
-9748	-3468	12072	-11	19	-21	-15704	-1168	-5048	21	-3	13	-4112	-248	16376	24	-3	5	-9952	2576	13184	15	-5	-19	-15328	-1080	-5208	-6	2	-13	-3800	1744	16552	-8	-13	23	131	126	5
-9820	-3500	12120	-13	17	-26	-15752	-1232	-5080	-10	4	9	-4040	-256	16680	31	-2	6	-9856	2464	13312	12	-6	-19	-15336	-1040	-4944	3	-3	-9	-3696	1744	16280	2	-16	14	131	123	5
-9824	-3528	12088	-7	11	-18	-15672	-1272	-4984	19	-8	21	-3928	-136	16816	21	-3	-5	-9864	2712	13192	16	-8	-18	-15336	-888	-5256	10	-4	-5	-3784	1976	16400	2	-15	23	131	127	5
-9768	-3436	12020	-13	15	-20	-15656	-1232	-4984	14	0	19	-4048	-336	16496	29	-3	-6	-10016	2616	13264	16	-2	-21	-15424	-848	-5112	11	-7	-9	-3792	2056	16248	8	-17	26	131	124	5
-9728	-3492	12084	-7	16	-22	-15664	-1288	-4968	14	1	18	-4008	-304	16880	28	1	1	-9816	2600	13224	12	-6	-20	-15464	-864	-4952	3	-12	-11	-3664	1816	16280	4	-15	25	130	124	5
-9804	-3424	12104	-11	19	-25	-15552	-1224	-5144	6	1	12	-4088	-216	16496	27	3	11	-9768	2536	13120	13	-7	-20	-15224	-1096	-4840	-8	-7	-11	-3728	1744	16376	-1	-17	25	131	125	5
-9824	-3508	12040	-13	18	-29	-15744	-1336	-5056	3	-2	16	-4096	-248	16896	21	2	2	-9856	2520	13336	15	-3	-21	-15400	-1080	-4712	-7	2	-12	-3648	1608	16608	5	-14	24	131	124	5
-9872	-3540	12124	-10	14	-26	-15728	-1368	-4816	22	-2	21	-4088	-216	16472	21	-1	-3	-9856	2544	13136	19	-5	-21	-15368	-1040	-5008	-1	-1	-5	-3792	1672	16400	8	-8	25	131	124	5
-9760	-3488	12020	-7	16	-18	-15688	-1208	-4696	30	-8	17	-4000	-24	16888	20	-6	1	-10024	2560	13448	24	0	-16	-15368	-1144	-5200	2	-4	-6	-3784	1792	16496	2	-13	23	131	126	5
-9784	-3380	12108	-6	15	-21	-15736	-992	-4976	6	-9	17	-3904	-32	16840	15	-5	0	-9936	2624	13160	17	-4	-16	-15368	-1168	-4944	10	-8	-2	-3816	1784	15952	-2	-13	19	131	126	5
-9752	-3504	12092	-13	13	-26	-15824	-1144	-4912	-3	-3	13	-3808	-160	16504	32	-6	4	-9864	2560	13280	15	-5	-23	-15464	-1104	-4944	7	-6	-8	-3648	1936	16440	1	-16	18	131	127	5
-9828	-3484	12028	-11	21	-25	-15680	-1216	-5352	-1	0	6	-3976	-72	16536	28	-3	12	-9912	2576	13160	12	0	-18	-15344	-856	-5104	-8	-4	-9	-3568	1848	16376	-3	-16	26	131	125	5
-9836	-3456	12148	-19	17	-26	-15752	-1320	-5320	2	0	9	-3992	-296	16592	16	-3	20	-9984	2704	13456	11	-1	-18	-15400	-1056	-5168	-19	-2	-11	-3664	1864	16464	-4	-17	24	131	124	5
-9832	-3484	12020	-13	21	-27	-15728	-1312	-4872	3	-3	12	-4080	-408	16592	12	3	5	-9896	2624	13224	12	-9	-17	-15320	-976	-4864	-8	0	-13	-3672	1896	16464	6	-13	20	131	122	5
-9832	-3624	12080	-14	17	-24	-15672	-1416	-5032	39	-4	16	-3992	-192	16592	18	-2	0	-9976	2552	13240	15	-5	-25	-15376	-984	-5024	-4	-2	-10	-3712	1864	16376	3	-15	21	131	127	5
-9820	-3464	12032	-13	18	-26	-15704	-1152	-4936	32	-3	16	-4048	-232	16704	16	-6	2	-9856	2592	13152	11	-1	-17	-15432	-1152	-4968	0	-2	-7	-3672	1800	16320	-8	-15	14	131	125	5
-9772	-3448	12068	-13	15	-23	-15632	-1176	-5248	11	-5	12	-4000	-304	16848	21	-4	5	-9944	2608	12992	12	-6	-22	-15512	-952	-4992	8	-5	-4	-3712	1808	16568	3	-16	14	131	126	5
-9776	-3468	12072	-11	19	-26	-15728	-1264	-5144	-18	2	4	-3936	-248	16736	26	-1	5	-9968	2600	13344	11	-1	-20	-15360	-936	-5088	14	0	-15	-3736	2080	16560	8	-11	26	131	126	5
-9832	-3496	12088	-16	19	-21	-15696	-1368	-5160	-7	4	10	-3848	-208	16512	24	3	11	-9992	2624	13248	8	-4	-23	-15432	-744	-5032	-3	-4	-19	-3744	1984	16584	-6	-13	37	130	123	5
-9724	-3528	11988	-11	11	-25	-15680	-1304	-4952	5	-4	15	-4024	-384	16528	20	-1	9	-9776	2520	12824	11	-7	-24	-15304	-1056	-5112	-16	-6	-23	-3680	1880	16384	-6	-15	43	131	125	5
-9820	-3452	11960	-8	13	-26	-15592	-1464	-5056	3	-3	21	-4304	-496	16648	15	6	-5	-9888	2520	13368	6	-9	-21	-15392	-1112	-4928	-14	-4	-20	-3648	1952	16512	2	-17	35	131	125	5
-9812	-3552	12080	-5	12	-22	-15696	-1408	-5128	38	-9	28	-3968	-296	16376	26	5	-12	-9904	2656	13056	10	-4	-28	-15304	-1192	-5256	5	-1	-18	-3720	1872	16376	1	-12	27	132	126	5
-9796	-3480	12180	-1	11	-20	-15696	-1160	-5168	39	-7	26	-3992	-160	16320	30	-9	-10	-10008	2640	13048	15	-6	-17	-15344	-1048	-5160	17	-6	-14	-3704	1816	16248	-10	-13	19	131	124	5
-9796	-3432	12084	-2	11	-20	-15872	-968	-4840	14	-8	26	-3936	-24	16896	25	-3	0	-9840	2568	13176	14	-3	-20	-15512	-1136	-4888	29	-10	-10	-3768	1656	16464	-10	-16	19	131	125	5
-9796	-3456	12164	-12	17	-21	-15824	-1040	-5104	-19	0	14	-3920	56	16760	30	-2	10	-9872	2640	13008	15	-5	-21	-15400	-856	-5096	20	-9	-10	-3712	1800	16336	-1	-10	22	133	123	5
-9748	-3412	12080	-11	19	-25	-15688	-1344	-5048	-42	3	7	-3944	-424	16888	13	1	10	-9952	2568	13208	18	-4	-24	-15368	-952	-4816	2	-8	-12	-3536	1768	16480	8	-16	24	132	126	5
-9836	-3540	12016	-18	17	-25	-15704	-1656	-5176	-7	7	20	-4008	-296	16728	15	6	-2	-9872	2632	12992	15	-1	-19	-15504	-984	-5000	-11	5	-8	-3624	1736	16576	12	-12	26	131	125	5
-9824	-3548	12060	-10	16	-21	-15712	-1392	-4936	42	-9	22	-4056	-272	16608	17	4	-11	-9752	2472	13328	14	0	-21	-15288	-1112	-5224	-17	3	-11	-3752	1952	16360	11	-7	25	132	125	5
-9732	-3488	12080	-1	12	-22	-15808	-1144	-5096	69	-7	29	-4008	-88	16688	15	-4	-12	-10008	2648	12992	10	-1	-20	-15376	-1096	-5120	-17	0	-14	-3760	2000	16464	0	-11	18	131	126	5
-9788	-3472	12076	-8	15	-23	-15704	-928	-4904	37	1	22	-4000	-32	16560	24	-3	-3	-10016	2440	13080	15	-4	-18	-15296	-1016	-4880	-14	0	-10	-3744	1904	16456	-11	-17	12	132	123	5
-9824	-3436	12196	-13	19	-27	-15744	-840	-4824	-17	4	10	-4056	-104	16608	37	-2	11	-9960	2576	13272	13	-2	-19	-15328	-1112	-4848	15	-1	-3	-3768	1784	16376	-10	-18	7	131	125	5
-9800	-3500	12052	-22	19	-29	-15656	-1296	-5168	-28	5	5	-3856	72	16656	39	1	17	-9840	2568	13272	15	-7	-22	-15512	-904	-5144	21	-5	0	-3760	1848	16376	-1	-14	21	131	125	5
-9808	-3400	12080	-15	17	-22	-15792	-1312	-5032	-31	3	4	-4040	-32	16592	33	-3	22	-9976	2632	13224	11	-8	-19	-15304	-976	-5032	17	-10	-6	-3528	1720	16448	1	-16	25	132	122	5
-9808	-3468	12064	-12	18	-22	-15664	-1456	-4912	-11	-6	7	-4176	-360	16568	22	2	13	-9880	2608	13056	15	0	-20	-15304	-976	-5256	-1	-6	-4	-3656	1728	16208	6	-15	25	131	122	5
-9812	-3564	11932	-14	17	-23	-15776	-1304	-5168	30	-2	14	-4120	-112	16320	25	-5	3	-9848	2552	13416	13	0	-22	-15384	-1136	-4968	-8	-3	-7	-3800	1800	16472	11	-11	24	131	124	5
-9744	-3456	12092	-9	19	-21	-15672	-1288	-5184	39	-11	12	-4016	-312	16536	19	-4	2	-9888	2584	13016	19	-1	-16	-15480	-912	-5176	-4	-1	-10	-3776	2032	16544	13	-13	20	132	125	5
-9804	-3488	12044	-11	18	-27	-15640	-1024	-5240	36	-4	20	-3960	-248	16560	16	-2	4	-9864	2560	13072	18	-1	-18	-15280	-984	-4992	-1	-9	-9	-3880	1944	16824	5	-17	15	132	124	5
-9824	-3456	12020	-15	18	-28	-15872	-1288	-5032	15	-3	14	-4080	-304	16504	29	0	8	-9904	2440	13232	19	-4	-16	-15376	-984	-5008	-6	-2	-7	-3904	1856	16456	-9	-14	16	132	122	5
-9792	-3480	12112	-15	18	-23	-15568	-1160	-5000	-2	4	9	-3832	-136	16848	33	1	15	-9944	2592	13256	18	-10	-15	-15320	-1032	-5048	-10	-6	-9	-3696	1864	16392	-8	-14	23	132	124	5
-9760	-3548	12028	-11	17	-24	-15800	-1200	-5168	-8	-3	12	-4104	-320	16584	25	-2	16	-9944	2536	13192	12	3	-20	-15272	-1120	-5160	0	-5	-11	-3840	1864	16352	-1	-15	27	133	123	5
-9752	-3456	12076	-14	14	-28	-15688	-1464	-4864	-31	2	10	-4024	-504	16648	12	2	3	-9888	2624	13360	15	-6	-24	-15352	-1032	-5008	11	1	-8	-3712	2088	16480	7	-16	27	132	126	5
-9844	-3520	12012	-8	13	-27	-15688	-1576	-5032	3	-9	20	-3976	-344	16800	16	4	-12	-9960	2704	13384	11	-3	-24	-15424	-872	-4864	10	-9	-13	-3624	2080	16512	6	-14	29	132	126	5
-9812	-3528	12028	-6	19	-21	-15768	-1288	-4976	44	-9	30	-3856	-224	16672	22	-1	-11	-9944	2664	13272	9	-3	-20	-15408	-936	-5008	2	-8	-17	-3680	1872	16440	-10	-12	27	132	123	5
-9808	-3424	12108	-5	18	-18	-15760	-1120	-5088	53	-14	25	-3984	16	16632	25	-5	-6	-9904	2696	13008	10	-6	-19	-15424	-1128	-4824	-6	-4	-17	-3824	1640	16536	-6	-9	25	131	125	5
-9764	-3396	12004	-8	20	-22	-15688	-1048	-4920	15	-5	20	-3904	40	16472	30	1	5	-9888	2664	13112	13	-3	-19	-15528	-1136	-4800	-4	-3	-15	-3664	1840	16488	-2	-14	23	131	125	5
-9780	-3436	12016	-13	19	-25	-15688	-1216	-4880	-10	8	9	-3824	104	16336	35	-2	16	-9936	2640	13288	12	-6	-15	-15480	-984	-5056	1	-7	-11	-3608	1704	16384	-7	-18	21	132	122	5
-9720	-3468	12184	-19	21	-25	-15608	-1304	-5200	-27	5	0	-4144	24	16760	22	3	24	-9856	2544	13224	16	-6	-19	-15392	-1096	-4888	7	-10	-2	-3816	1600	16560	-10	-15	18	132	125	5
-9808	-3464	12172	-21	17	-27	-15864	-1320	-4864	-16	3	7	-4088	-104	16632	29	2	17	-10016	2552	13088	21	1	-21	-15576	-1104	-5000	3	-1	-3	-3640	1512	16200	5	-12	21	131	124	5
-9800	-3520	12104	-18	18	-26	-15784	-1352	-5080	17	-3	1	-4040	-136	16536	20	-2	7	-9856	2584	13184	23	3	-17	-15448	-1120	-4936	0	8	-3	-3760	1752	16688	14	-6	12	132	124	5
-9776	-3488	12052	-11	20	-28	-15944	-1280	-4944	25	-6	7	-3848	-304	16624	15	-7	11	-9880	2648	12992	17	1	-20	-15472	-984	-4952	-4	0	1	-3768	1968	16328	17	-11	10	132	124	5
-9780	-3512	12104	-21	19	-30	-15840	-1160	-5200	20	-9	7	-4064	-344	16656	16	-1	13	-9840	2648	13200	22	-6	-18	-15480	-968	-4880	-2	2	0	-3720	1968	16128	4	-19	6	132	125	5
-9736	-3504	12164	-19	19	-30	-15680	-1168	-4872	10	1	6	-4048	-304	16824	24	-1	13	-9896	2640	13120	16	-1	-22	-15208	-880	-5016	-2	-1	-3	-3808	2008	16160	0	-14	12	133	127	5
-9764	-3468	12076	-14	18	-27	-15656	-1192	-4976	5	-3	7	-4088	-432	16656	21	5	12	-9888	2776	13176	14	-3	-20	-15368	-896	-4952	-4	1	-7	-3696	1928	16544	-3	-16	22	132	124	5
-9792	-3480	12060	-11	15	-28	-15544	-1504	-5112	-1	-3	18	-4120	-392	16560	18	7	7	-9864	2616	13088	16	-7	-19	-15264	-1048	-4872	-10	-3	-10	-3760	1960	16160	1	-13	24	132	126	5
-9804	-3532	12124	-10	12	-25	-15624	-1568	-4872	11	-8	17	-4024	-384	16768	20	-5	1	-10008	2656	13392	11	-10	-18	-15248	-960	-5184	-6	-3	-9	-3800	1952	16664	4	-12	30	132	123	5
-9828	-3520	12040	-9	15	-21	-15688	-1376	-5128	14	-8	17	-4064	-168	16352	19	-7	-5	-9992	2592	13232	18	-6	-21	-15368	-960	-5024	7	-7	-18	-3632	2032	16696	0	-15	31	132	122	5
-9804	-3484	12076	-2	15	-22	-15800	-1112	-5104	-2	-7	23	-4088	-392	16656	26	-9	-4	-10112	2592	13328	13	-10	-24	-15296	-1048	-5000	22	-14	-12	-3712	1928	16456	0	-14	28	132	122	5
-9772	-3528	12060	-7	15	-24	-15696	-1328	-4880	9	-5	22	-3984	-160	16728	33	0	1	-9864	2656	13432	16	-6	-19	-15360	-1120	-4696	21	-16	-13	-3760	1792	16360	-4	-10	24	131	125	5
-9760	-3452	12020	-10	9	-24	-15776	-1208	-5040	23	-6	23	-3784	-56	16472	32	-1	3	-9944	2608	13224	15	-7	-22	-15416	-1096	-4872	11	-6	-9	-3688	1672	16528	-7	-12	24	132	123	5
-9808	-3472	12000	-7	17	-26	-15824	-1152	-5016	16	-5	17	-3976	40	16840	19	1	6	-9808	2624	13192	20	-6	-23	-15392	-1152	-4824	0	-6	-11	-3664	1744	16272	3	-14	23	131	123	5
-9772	-3476	12008	-16	14	-20	-15776	-1208	-5064	9	-5	19	-4112	-64	16592	21	-1	7	-9960	2696	13392	19	-1	-19	-15336	-1080	-5336	2	-4	-10	-3752	1880	16376	10	-10	23	132	124	5
-9800	-3484	12100	-11	16	-28	-15760	-1456	-4936	-10	4	10	-4048	-344	16648	14	4	2	-9968	2752	12976	12	-2	-21	-15360	-1016	-4728	-9	-5	-10	-3608	1928	16456	6	-11	23	132	122	5
-9784	-3516	12056	-14	16	-24	-15656	-1496	-5040	17	2	15	-4112	-392	16744	19	3	3	-10032	2632	13024	16	-6	-22	-15288	-1024	-5024	-13	-3	-9	-3808	1856	16536	10	-9	20	131	126	5
-9756	-3532	12068	-12	16	-23	-15856	-1248	-5040	36	-6	17	-3864	-328	16560	22	-1	-1	-9888	2832	13184	15	-7	-21	-15328	-992	-4976	-15	2	-12	-3688	1928	16448	1	-11	21	132	126	5
-9820	-3404	12140	-8	17	-22	-15656	-1152	-5128	16	-2	16	-4064	-248	16904	14	-6	2	-9920	2608	13176	12	-5	-17	-15400	-1080	-4960	-7	0	-3	-3808	1856	16240	-1	-17	17	132	125	5
-9804	-3460	12000	-14	17	-25	-15760	-1320	-5128	5	0	16	-3904	-168	16376	29	0	6	-9896	2608	13216	9	3	-23	-15320	-992	-4912	5	-2	-10	-3776	1944	16400	-5	-19	13	131	124	5
-9832	-3496	12136	-15	15	-22	-15728	-1080	-5160	4	-2	8	-4072	56	16552	40	1	15	-9872	2528	12936	23	-4	-20	-15496	-1088	-5096	19	-6	-10	-3640	1744	16528	-10	-13	15	132	126	5
-9828	-3420	12128	-13	17	-24	-15616	-1128	-5032	-17	0	6	-4128	-128	16560	25	3	14	-9936	2688	12984	19	-3	-18	-15448	-976	-4856	23	-11	-2	-3640	1744	16656	-9	-18	17	132	122	5
-9764	-3520	11988	-17	14	-25	-15696	-1440	-5000	-6	-4	13	-4080	-128	16704	22	2	3	-9856	2600	13352	16	-7	-18	-15448	-1224	-4944	13	-6	-3	-3776	1864	16576	8	-14	18	132	124	5
-9816	-3464	12128	-13	13	-25	-15712	-1336	-4880	17	-6	15	-4056	-112	16392	20	1	-4	-9984	2600	13152	18	-5	-16	-15528	-856	-4824	-1	-5	-5	-3648	1920	16704	11	-12	17	132	124	5
-9816	-3468	11960	-13	15	-27	-15816	-1264	-4968	37	-9	18	-3920	-248	16592	8	-2	-2	-9912	2672	13368	15	-6	-22	-15216	-952	-4920	-13	-5	-7	-3824	1968	16064	12	-10	22	132	122	5
-9796	-3512	12088	-7	24	-26	-15736	-1160	-5272	36	-6	16	-3944	-96	16656	17	-4	5	-9992	2696	12992	14	-2	-21	-15344	-1000	-4880	-14	-2	-9	-3808	1992	16400	-1	-15	21	132	123	5
-9784	-3416	12140	-13	18	-26	-15608	-1168	-5224	7	-3	10	-3968	-128	16304	27	-3	12	-9856	2560	13160	15	-8	-17	-15416	-1080	-4920	-14	-6	-5	-3808	1824	16400	-7	-18	21	131	126	5
-9844	-3508	11996	-13	16	-25	-15592	-1104	-5072	-22	-2	8	-3984	-232	16584	32	3	17	-9960	2696	12944	16	-5	-21	-15272	-1120	-4848	1	-8	-9	-3640	1744	16560	-4	-17	23	131	125	5
-9792	-3504	12140	-17	15	-31	-15632	-1416	-5176	-24	3	9	-4144	-424	16824	28	2	12	-9944	2600	13304	16	-9	-23	-15344	-1056	-4744	14	-2	-8	-3640	1800	16432	7	-13	20	132	122	5
-9784	-3576	12116	-15	12	-25	-15808	-1448	-5128	7	-7	16	-4240	-312	16424	17	3	4	-9936	2608	13336	20	0	-17	-15448	-928	-4992	16	-6	-9	-3744	1944	16592	8	-11	22	132	122	5
-9804	-3540	12148	-7	13	-28	-15800	-1392	-4952	32	-6	22	-3984	-424	16800	16	-4	-9	-9832	2504	13184	18	1	-20	-15344	-1000	-5072	9	-4	-6	-3720	1896	16392	6	-10	23	132	122	5
-9812	-3424	12092	-4	16	-20	-15816	-1360	-5112	39	-12	28	-3944	-216	16584	15	-3	-12	-10032	2552	13200	11	1	-23	-15392	-1008	-5008	2	-6	-14	-3840	2032	16400	-2	-12	23	132	124	5
-9812	-3428	12048	-6	16	-22	-15640	-960	-5416	31	-1	21	-3904	-88	16840	25	-1	1	-9880	2592	13304	13	-3	-22	-15344	-1008	-5024	-10	-11	-11	-3856	1912	16304	-8	-12	23	131	122	5
-9768	-3352	12136	-10	18	-21	-15712	-976	-5112	-3	5	12	-3888	-64	16704	27	0	11	-9880	2536	13240	15	-10	-21	-15320	-1000	-5000	-7	-5	-9	-3608	1792	16600	-11	-12	23	132	126	5
-9772	-3488	12064	-19	20	-18	-15624	-1280	-5136	-23	12	10	-4112	-232	16800	24	3	16	-10016	2656	13352	17	-6	-18	-15400	-1048	-4936	-11	-7	-12	-3720	1624	16456	-7	-15	23	131	123	5
-9764	-3592	12092	-16	22	-23	-15760	-1392	-4960	2	5	11	-4128	-128	16704	32	3	12	-9976	2576	13096	15	-1	-25	-15480	-1256	-4704	-9	-8	-8	-3608	1688	16392	-6	-11	22	131	124	5
-9824	-3448	12124	-14	18	-22	-15688	-1200	-5072	16	-5	10	-4112	-288	16416	21	-3	7	-9800	2584	13312	15	-2	-20	-15424	-1224	-5000	-2	-3	-4	-3648	1720	16760	0	-15	15	132	123	5
-9836	-3420	12020	-15	18	-27	-15728	-1208	-5056	15	-2	6	-4056	-256	16760	19	0	3	-9976	2640	13184	14	-9	-18	-15336	-1008	-4872	12	0	0	-3744	1952	16280	15	-14	15	131	123	5
-9780	-3464	12080	-16	20	-28	-15832	-1336	-5232	24	-1	10	-4096	-264	16536	24	-1	9	-9896	2528	13232	13	-11	-22	-15400	-784	-5080	18	-2	0	-3904	1960	16440	13	-16	15	132	124	5
-9752	-3436	12144	-17	16	-26	-15704	-1216	-5008	16	-2	10	-4088	-216	16720	15	0	7	-9952	2624	13320	23	-3	-16	-15344	-976	-4944	6	-3	-2	-3776	2032	16096	7	-16	20	132	124	5
-9832	-3472	12004	-19	18	-26	-15640	-1200	-5080	16	0	14	-4096	-256	16584	15	5	9	-10008	2816	13304	14	-4	-24	-15400	-912	-4912	-10	-5	-10	-3800	1952	16216	-3	-9	29	131	125	5
-9784	-3460	12040	-13	18	-23	-15600	-1376	-4880	0	-4	10	-4056	-240	16832	19	-2	9	-10032	2688	13192	16	-3	-22	-15360	-1112	-4976	-20	-3	-16	-3848	1880	16384	-7	-13	34	131	124	5
-9724	-3460	12148	-16	14	-21	-15544	-1384	-5256	-1	1	12	-4024	-408	16536	18	-1	5	-10008	2616	13248	10	-8	-23	-15392	-1096	-5200	-19	-2	-12	-3704	1824	16512	-8	-13	28	132	122	5
-9764	-3524	12008	-9	13	-19	-15712	-1568	-4960	-9	-4	11	-4120	-368	16728	20	2	-6	-9912	2472	13112	16	-9	-20	-15304	-1128	-4992	1	-6	-13	-3640	1744	16352	-3	-14	21	132	126	5
-9832	-3592	12028	-8	15	-28	-15744	-1528	-4936	22	-6	24	-4024	-192	16560	29	0	-12	-9936	2688	13304	13	-9	-21	-15432	-936	-4976	27	-4	-8	-3672	1816	16448	4	-14	19	132	123	5
-9784	-3504	12032	-7	15	-23	-15776	-1200	-4912	29	-6	26	-3944	-112	16456	23	-4	-8	-10080	2592	13336	8	-4	-21	-15472	-1104	-5160	24	-10	-6	-3800	1904	16432	4	-14	24	132	123	5
-9756	-3432	12096	-10	17	-18	-15776	-1176	-5168	23	-6	24	-3936	-64	16704	17	-3	-5	-9808	2704	13160	11	-4	-25	-15256	-992	-4976	14	-12	-13	-3848	1848	16512	-2	-13	27	131	125	5
-9764	-3456	12044	-8	14	-22	-15752	-1088	-4864	10	-1	21	-3960	112	16600	22	-3	5	-9904	2560	13224	8	-5	-28	-15552	-1064	-4992	-6	0	-10	-3600	1752	16376	-5	-14	23	131	123	5
-9800	-3444	12032	-11	19	-23	-15640	-1200	-5072	-5	2	10	-3976	16	16816	22	2	9	-9848	2568	13080	13	-4	-20	-15328	-1056	-5128	-8	-3	-10	-3640	1696	16224	0	-15	23	132	123	5
-9716	-3404	12088	-14	19	-26	-15728	-1200	-5088	-17	3	14	-4080	-376	16504	18	1	6	-10008	2568	13336	19	-7	-18	-15328	-1240	-4952	-6	-4	-12	-3664	1760	16336	5	-16	25	132	124	5
-9780	-3576	12092	-12	17	-20	-15712	-1536	-5176	22	-2	19	-4080	-248	16512	25	0	-2	-10056	2624	13216	19	-2	-19	-15392	-1000	-5016	-7	-7	-6	-3712	1880	16256	0	-12	18	132	126	5
-9852	-3460	12072	-10	16	-22	-15728	-1128	-5192	34	-5	12	-4048	-56	16512	29	-6	0	-10000	2720	13264	14	-4	-23	-15376	-1144	-5144	-6	-1	-8	-3768	1832	16336	-6	-11	13	132	124	5
-9728	-3436	12072	-14	16	-28	-15776	-1128	-5104	22	-2	10	-3952	-160	16704	25	-9	8	-10072	2480	13136	20	0	-23	-15384	-1064	-5240	-3	1	-3	-3824	1648	16376	2	-18	11	131	124	5
-9800	-3444	11980	-20	17	-22	-15784	-912	-4936	-6	1	5	-4128	-144	16824	34	-7	21	-9920	2632	13128	15	-2	-19	-15352	-1048	-4880	11	0	-2	-3776	1808	16248	8	-21	16	132	124	5
-9792	-3464	12072	-21	21	-25	-15728	-1168	-5272	-26	6	-2	-3936	-264	16544	26	-1	25	-10000	2608	13152	16	-9	-18	-15504	-1088	-4712	18	-6	-4	-3672	1872	16504	9	-21	22	132	126	5
-9724	-3524	12052	-16	15	-26	-15688	-1664	-5208	-11	2	7	-4112	-368	16664	17	2	14	-9824	2640	13240	13	-4	-21	-15368	-816	-5016	5	-11	1	-3824	1968	16536	-1	-15	27	132	123	5
-9768	-3496	12084	-19	17	-32	-15688	-1496	-5272	-7	-1	4	-4176	-304	16544	18	0	6	-9896	2608	13320	11	0	-22	-15528	-1096	-5256	-11	-4	-6	-3744	1888	16328	5	-12	22	132	123	5
-9824	-3476	12048	-5	19	-22	-15688	-1344	-4984	33	-9	15	-4144	-264	16864	11	-4	-1	-9944	2552	13160	16	-9	-16	-15368	-1088	-4952	-17	-3	-16	-3696	1856	16312	10	-12	14	132	122	5
-9792	-3424	12032	-6	15	-29	-15768	-1224	-5008	24	-8	13	-3944	-264	16568	16	-10	1	-9856	2568	13136	19	0	-19	-15480	-1032	-4856	-6	-5	-12	-3744	1872	16624	1	-19	12	132	126	5
-9780	-3516	12116	-10	18	-27	-15848	-1256	-4880	3	-4	11	-3936	-416	16512	29	-3	6	-10032	2536	13304	15	-3	-17	-15384	-984	-5016	11	-10	-5	-3800	1880	16264	-3	-19	12	132	124	5
-9756	-3580	12072	-14	12	-23	-15872	-1216	-4848	0	-1	15	-4040	-72	16512	28	2	8	-9800	2520	13328	18	-4	-20	-15296	-1024	-4936	13	-12	-1	-3688	1864	16464	-10	-16	20	131	126	5
-9768	-3488	12076	-16	14	-21	-15768	-1328	-5200	0	-5	9	-3968	-40	16664	21	-1	10	-10008	2584	13184	15	-8	-18	-15416	-984	-5168	5	-9	-8	-3592	1736	16416	-2	-11	24	132	125	5
-9796	-3472	12052	-9	15	-23	-15808	-1288	-5272	-4	-5	13	-4040	-312	16760	10	-1	8	-9936	2640	13328	15	-4	-23	-15248	-864	-4952	2	-3	-11	-3608	1864	16264	12	-12	29	132	126	5
-9772	-3540	12124	-16	15	-22	-15712	-1512	-5232	6	-2	9	-3984	-248	16552	18	-5	-4	-9880	2624	13376	14	-4	-23	-15256	-1008	-4856	0	-2	-17	-3752	1824	16328	11	-15	26	132	126	5
-9808	-3520	11980	-7	14	-23	-15736	-1368	-5016	25	-2	18	-4016	-296	16816	21	-1	-3	-9840	2384	13112	10	-5	-23	-15408	-960	-5224	-9	-8	-15	-3832	1816	16464	-1	-16	26	132	124	5
-9792	-3520	12064	-10	14	-24	-15824	-1144	-5016	23	-7	21	-4112	-328	16552	20	1	5	-9992	2632	13248	13	-6	-21	-15432	-1144	-4720	-3	-7	-10	-3528	1744	16200	-2	-18	19	132	125	5
-9840	-3476	12092	-8	17	-25	-15880	-1288	-5032	18	2	18	-3952	-136	16632	28	0	2	-9872	2640	13088	15	-4	-21	-15360	-1176	-4912	0	-1	-8	-3704	1800	16416	-2	-15	19	132	122	5
-9712	-3472	12036	-11	19	-23	-15664	-1296	-5104	-2	-1	17	-4024	-216	16720	21	-1	1	-9752	2608	13304	14	-8	-24	-15344	-1152	-5000	6	0	-2	-3800	1896	16424	1	-16	11	132	126	5
-9800	-3520	12164	-9	16	-27	-15800	-1488	-5008	-3	5	25	-3984	-368	16584	16	3	-4	-9984	2568	13288	16	-6	-22	-15288	-920	-4840	6	0	-10	-3640	1848	16480	-5	-14	14	132	123	5
-9836	-3532	12060	-11	15	-22	-15624	-1464	-5128	10	1	22	-3872	-216	16488	19	4	-14	-10040	2656	13272	14	-2	-20	-15400	-960	-5072	2	0	-7	-3808	1840	16400	-7	-15	15	132	125	5
-9752	-3424	11996	-3	17	-18	-15864	-1136	-5000	37	-4	26	-3984	48	16600	16	-8	-10	-9968	2736	13248	12	-2	-19	-15520	-992	-5152	-2	1	-4	-3776	1784	16720	-1	-13	16	131	125	5
-9772	-3476	12100	-11	17	-15	-15744	-920	-5336	21	3	20	-3960	88	16544	27	-6	2	-10008	2520	13024	14	-1	-23	-15384	-1144	-4808	-4	5	-7	-3736	1720	16560	-5	-16	13	131	123	5
-9812	-3404	12172	-15	13	-22	-15824	-984	-5168	-14	4	6	-3992	48	16512	30	-3	3	-9840	2520	13136	16	-6	-16	-15304	-1000	-4976	3	-2	-2	-3864	1776	16416	-5	-19	11	131	125	5
-9768	-3480	12136	-20	23	-27	-15696	-1104	-5368	-21	7	4	-4192	40	16792	35	-3	20	-9912	2568	13344	26	-1	-20	-15392	-1048	-4816	11	-1	-1	-3656	1840	16560	2	-16	16	131	122	5
-9796	-3492	12172	-18	17	-27	-15784	-1472	-5056	-17	0	3	-4120	-232	16680	27	2	18	-9856	2624	13192	22	-3	-22	-15528	-864	-4928	14	-5	3	-3632	1840	16384	4	-14	13	132	125	5
-9748	-3516	12060	-15	15	-28	-15728	-1456	-5304	15	-12	10	-4264	-304	16768	13	0	10	-9776	2552	13112	23	-5	-21	-15448	-1016	-4920	6	-1	4	-3648	1904	16560	8	-15	15	132	124	5
-9784	-3496	12100	-9	17	-28	-15688	-1312	-5248	41	-10	15	-4152	-264	16728	15	-3	-1	-9920	2600	13160	19	-8	-23	-15272	-960	-4912	-4	3	4	-3824	1960	16376	15	-17	17	132	122	5
-9788	-3488	12048	-10	15	-27	-15688	-1216	-5160	30	-13	7	-4112	-400	16416	12	-2	5	-9832	2616	13176	18	-7	-22	-15352	-984	-5232	-1	-5	-5	-3920	2016	16240	22	-14	11	132	124	5
-9856	-3480	12128	-14	16	-21	-15624	-1176	-4880	15	-8	13	-3936	-288	16528	13	-6	5	-9904	2632	13232	17	-8	-20	-15408	-976	-5016	6	-6	-4	-3688	2248	16504	9	-12	14	132	123	5
-9780	-3476	12068	-10	17	-27	-15776	-1168	-4936	-7	-4	15	-3920	-400	16360	24	-4	11	-9920	2752	13016	12	-4	-19	-15424	-832	-5056	5	-12	1	-3736	2104	16216	-12	-19	18	131	125	5
-9792	-3520	12056	-15	13	-23	-15824	-1360	-5208	-21	-5	10	-4048	-368	16584	25	-5	11	-9920	2760	13152	12	-7	-21	-15472	-912	-4944	1	-7	-11	-3624	1952	16328	-8	-13	26	131	127	5
-9812	-3496	12032	-12	14	-26	-15792	-1352	-4920	-11	1	14	-3976	-448	16728	22	3	-3	-9720	2800	13224	11	-5	-20	-15440	-960	-4704	-4	-2	-13	-3536	2080	16424	-3	-13	32	132	123	5
-9836	-3548	11932	-5	16	-22	-15848	-1520	-4992	20	-6	19	-3968	-392	16816	21	-2	-9	-9816	2488	13208	14	-6	-23	-15408	-1032	-5344	1	1	-15	-3536	1936	16568	0	-10	28	132	124	5
-9756	-3480	12076	-4	13	-16	-15672	-1352	-4864	45	-2	30	-3920	-208	16608	27	-5	-11	-9816	2536	13184	14	-1	-17	-15392	-984	-5008	7	-4	-18	-3736	1888	16328	2	-10	32	132	125	5
-9788	-3476	12132	-6	11	-20	-15792	-928	-5032	30	-6	23	-3816	-112	16616	28	-9	-7	-9872	2552	13152	15	-1	-25	-15480	-992	-5152	10	-5	-19	-3768	1976	16312	-6	-11	33	131	126	5
-9752	-3464	12164	-12	13	-20	-15712	-1064	-5016	9	2	19	-3848	-104	16664	28	-1	0	-9992	2760	13272	13	-5	-27	-15248	-1064	-5040	8	-10	-14	-3592	1784	16488	-9	-13	31	131	124	5
-9756	-3476	12008	-15	16	-22	-15744	-1064	-4920	-9	10	14	-4200	-24	16768	29	4	9	-9976	2536	13248	11	-4	-26	-15424	-984	-4976	0	-4	-21	-3592	1880	16224	-4	-17	29	131	125	5
-9876	-3460	12072	-14	14	-23	-15744	-1400	-5176	-5	2	11	-4040	-200	16608	24	1	1	-10000	2696	13136	12	-5	-23	-15464	-1120	-4728	-13	0	-19	-3632	1848	16168	-7	-8	34	131	122	5
-9812	-3556	12052	-7	17	-24	-15792	-1256	-5192	17	0	15	-4096	-120	16312	24	1	6	-9888	2648	13304	12	-6	-21	-15392	-1144	-5168	-14	-2	-24	-3840	1680	16312	-5	-7	32	131	123	5
-9784	-3424	12124	-10	15	-22	-15792	-1152	-5096	22	2	12	-4144	-160	16552	22	-9	1	-9784	2560	13304	12	-12	-20	-15480	-1128	-5112	-5	2	-16	-3792	1832	16480	1	-13	24	131	125	5
-9812	-3472	12032	-12	18	-21	-15864	-1176	-4976	8	-3	12	-3920	-144	16880	23	-4	7	-9888	2592	13256	7	-7	-24	-15368	-1136	-5000	6	-3	-8	-3720	1872	16456	-2	-14	19	131	126	5
-9772	-3460	12060	-17	16	-27	-15696	-1256	-4992	-4	-1	8	-4080	-120	16704	31	-6	5	-9976	2616	13256	16	-4	-22	-15368	-1056	-4888	10	-4	-8	-3728	1848	16384	-5	-16	14	132	125	5
-9840	-3488	11972	-13	19	-24	-15904	-1288	-4984	2	-5	9	-4024	-304	16528	24	6	8	-10096	2648	13192	20	-3	-23	-15432	-1008	-5072	9	-2	-2	-3720	1600	16568	-5	-19	19	132	126	5
-9856	-3572	12072	-11	11	-26	-15592	-1352	-5080	23	-12	21	-4224	-152	16760	11	-5	12	-10024	2528	13256	16	-4	-23	-15416	-1152	-4976	2	-5	-8	-3640	1912	16576	0	-13	18	132	125	5
-9704	-3444	12052	-10	16	-25	-15736	-1192	-4784	15	-9	13	-4072	-192	16528	7	-5	4	-10000	2616	13512	17	-6	-18	-15376	-952	-4896	3	-6	-12	-3840	1832	16312	5	-13	25	132	125	5
-9844	-3452	12104	-12	12	-24	-15616	-1200	-5000	15	-7	13	-4000	-216	16536	16	-8	4	-9896	2712	13216	17	-7	-17	-15400	-952	-4944	-9	-12	-10	-3856	2032	16128	-5	-13	27	132	124	5
-9756	-3476	12056	-15	14	-22	-15648	-1304	-5072	-2	-5	12	-4000	-392	16512	26	-9	5	-10032	2616	13208	10	-8	-19	-15344	-1240	-4952	-17	-7	-9	-3608	1760	16464	0	-17	22	132	125	5
-9764	-3564	12020	-12	13	-24	-15672	-1256	-4840	-7	3	17	-4008	-432	16744	30	-3	6	-9992	2616	13040	10	-5	-20	-15400	-992	-5016	-6	-6	-7	-3672	1880	16488	6	-18	22	131	125	5
-9820	-3512	12016	-12	18	-25	-15704	-1224	-4784	8	-2	18	-3912	-368	16744	35	0	6	-9888	2640	13120	14	-6	-20	-15384	-1064	-4856	3	-8	-14	-3608	1944	16464	6	-10	27	132	122	5
-9804	-3492	12144	-8	16	-23	-15576	-1360	-4960	9	-7	23	-3792	-264	16400	20	-2	-1	-9976	2584	13360	9	-4	-16	-15416	-1096	-4856	8	-9	-8	-3608	1904	16464	-1	-12	23	132	122	5
-9800	-3600	12100	-8	19	-24	-16008	-1432	-5344	24	-3	19	-3808	-264	16512	22	-4	-1	-9960	2624	12984	19	-2	-19	-15376	-992	-5048	13	-6	-13	-3720	1936	16600	-6	-14	29	132	123	5
-9804	-3560	12068	-11	16	-24	-15736	-1160	-5272	20	-3	16	-3848	-232	16728	20	-1	-3	-9840	2640	13088	15	2	-24	-15376	-952	-4960	0	-5	-15	-3680	1832	16544	-5	-15	27	131	124	5
-9776	-3416	12140	-12	20	-22	-15752	-1040	-4976	10	-1	16	-3936	-152	16768	21	0	4	-10032	2552	13128	16	1	-23	-15288	-1064	-5008	-9	-4	-14	-3752	1752	16528	-3	-14	24	132	121	5
-9780	-3440	12080	-14	15	-25	-15544	-1288	-5016	-19	6	17	-3976	-248	16768	24	-1	0	-9960	2496	13232	17	-3	-19	-15432	-1080	-5160	-11	0	-5	-3568	1752	16496	-3	-12	21	131	122	5
-9776	-3528	12072	-17	16	-25	-15624	-1264	-5016	15	0	16	-4064	-48	16560	31	-2	8	-9984	2520	13168	12	-3	-23	-15472	-1152	-5000	-3	-7	-3	-3672	1808	16672	-1	-14	13	131	124	5
-9804	-3468	12040	-14	14	-19	-15728	-1112	-5224	20	5	13	-4120	-32	16592	25	-10	8	-9992	2864	13248	20	-3	-19	-15304	-992	-5040	-1	-2	-1	-3784	1704	16416	-6	-13	16	131	124	5
-9788	-3356	11992	-12	21	-23	-15832	-1112	-5096	18	0	7	-3992	-112	16608	21	-3	12	-9952	2664	13144	18	-3	-22	-15336	-1032	-5096	0	4	-3	-3832	1832	16464	0	-18	11	131	126	5
-9764	-3412	12092	-18	22	-25	-15736	-1256	-5016	-8	8	3	-4096	-368	16440	22	2	15	-10048	2624	13264	21	-4	-21	-15344	-1048	-4656	7	-3	-3	-3688	1864	16504	15	-14	12	131	123	5
-9812	-3512	12064	-21	19	-28	-15760	-1480	-4936	-13	2	5	-3976	-552	16528	23	0	14	-9984	2608	13264	17	-2	-21	-15496	-840	-4976	3	0	-3	-3728	1968	16128	21	-19	18	131	125	5
-9792	-3540	11932	-13	16	-26	-15768	-1408	-5112	20	-6	17	-4000	-248	16632	20	-2	9	-9920	2600	13152	20	-5	-22	-15520	-896	-5256	-3	-4	-9	-3856	2152	16368	14	-14	25	131	123	5
-9816	-3608	12020	-13	17	-22	-15800	-1248	-4880	38	-11	13	-4016	-320	16632	17	-4	6	-9880	2456	13208	18	-1	-19	-15352	-928	-5184	-16	-4	-11	-3696	2032	16440	0	-13	27	132	123	5
-9800	-3416	12120	-15	14	-21	-15752	-1200	-5088	13	-9	15	-4048	-376	16648	14	1	3	-9776	2688	13336	15	-3	-23	-15296	-1064	-5120	-10	-6	-13	-3672	1968	16656	-5	-15	26	131	123	5
-9812	-3492	12060	-8	12	-20	-15640	-1336	-5400	2	-4	13	-4184	-208	16392	33	-4	-1	-9920	2488	13176	13	-5	-23	-15400	-968	-5056	-7	-6	-15	-3656	1872	16216	-4	-16	23	132	123	5
-9760	-3492	11972	-9	16	-19	-15808	-1328	-4768	-10	2	13	-4120	-336	16624	32	5	5	-9952	2704	13080	11	-9	-23	-15336	-896	-5032	19	-8	-11	-3736	1896	16488	-7	-17	26	132	124	5
-9808	-3516	12188	-8	9	-25	-15800	-1432	-4968	0	-2	22	-3904	-288	16608	23	-2	2	-10024	2648	13120	8	-7	-22	-15344	-920	-5000	21	-10	-9	-3688	1840	16320	-1	-10	29	131	124	5
-9724	-3524	12104	-7	17	-20	-15672	-1328	-5208	19	-8	25	-3936	8	16616	25	-4	-6	-9768	2536	13456	13	-2	-23	-15424	-976	-4856	11	-11	-10	-3640	1912	16312	5	-8	31	132	122	5
-9848	-3496	12124	-7	15	-22	-15744	-1232	-4936	22	-9	24	-3848	-224	16688	17	-8	-3	-9904	2656	13160	9	-7	-24	-15384	-1128	-5112	3	-7	-13	-3672	1904	16592	3	-11	32	132	125	5
-9812	-3448	12028	-12	14	-28	-15584	-1144	-5168	14	3	15	-3976	-200	16560	15	-6	-4	-10000	2552	13128	10	-7	-19	-15336	-992	-4880	-7	-6	-12	-3704	1760	16560	3	-16	24	132	123	5
-9792	-3476	12164	-14	16	-22	-15752	-1280	-5008	6	0	15	-3984	-104	16616	28	3	7	-9856	2568	13192	17	-6	-20	-15512	-1192	-5080	-7	-1	-12	-3656	1824	16240	0	-19	24	131	124	5
-9812	-3484	12032	-14	18	-25	-15672	-1152	-5064	6	-1	14	-4072	-80	16488	27	4	10	-9832	2704	13280	20	-4	-19	-15424	-1160	-5168	3	-6	-8	-3816	1744	16368	-4	-15	20	132	123	5
-9740	-3408	12100	-13	17	-24	-15736	-1272	-5136	-2	-1	10	-4064	-232	16832	25	-1	11	-9920	2656	13320	17	-1	-19	-15424	-1088	-5080	3	0	-8	-3720	1856	16248	4	-12	18	131	121	5
-9740	-3564	12044	-16	10	-27	-15688	-1336	-4984	6	-3	14	-4104	-240	16600	24	-2	8	-9944	2688	13224	19	-1	-17	-15440	-1056	-5104	4	-1	-3	-3840	1824	16056	6	-12	16	131	122	5
-9848	-3516	12064	-15	18	-22	-15760	-1328	-4984	12	0	8	-3936	-256	16664	19	-2	4	-9832	2672	13064	18	-2	-19	-15296	-1064	-5096	-5	4	-3	-3736	1912	16392	3	-16	20	132	125	5
-9780	-3444	12100	-8	19	-20	-15776	-1344	-5000	22	-6	20	-4040	-224	16376	13	-1	1	-9832	2576	13200	16	-9	-18	-15368	-928	-4976	-1	-2	-5	-3744	1944	16328	3	-16	22	132	126	5
-9808	-3496	12008	-7	18	-22	-15712	-1296	-5040	24	-7	15	-4008	-176	16480	20	-1	2	-9872	2560	13232	17	-9	-17	-15488	-840	-5144	2	-3	-8	-3904	1920	16232	5	-16	20	132	125	5
-9844	-3476	12068	-11	16	-23	-15768	-1304	-4968	6	-2	17	-4000	-248	16536	24	2	2	-10008	2640	13320	15	-6	-22	-15440	-1032	-5088	7	-5	-10	-3752	2072	16368	-2	-15	22	132	125	5
-9764	-3416	12064	-8	16	-24	-15616	-1216	-5112	-14	5	14	-3928	-464	16664	20	3	5	-9872	2728	13016	17	-13	-23	-15536	-920	-4960	1	-10	-10	-3768	1952	16472	-2	-14	24	131	125	5
-9804	-3536	12028	-14	14	-25	-15688	-1296	-5008	-1	1	21	-4064	-296	16616	29	5	-3	-9936	2808	13280	11	-4	-23	-15400	-848	-4896	-9	-7	-17	-3752	1944	16280	-4	-14	29	131	125	5
-9772	-3480	11988	-7	16	-19	-15864	-1168	-4880	39	-5	24	-4144	-88	16688	29	2	-2	-9912	2544	13120	10	-3	-23	-15352	-976	-5056	-8	-9	-15	-3632	1992	16304	-2	-10	27	131	124	5
-9788	-3412	12172	-7	13	-22	-15728	-1040	-5336	26	-10	18	-3944	16	16560	19	-3	1	-9904	2600	13112	19	0	-18	-15200	-1048	-4784	-1	-7	-14	-3808	1776	16328	4	-9	25	132	124	5
-9788	-3484	12096	-13	17	-24	-15688	-1048	-4936	-4	1	20	-3928	-104	16512	28	2	2	-10000	2616	13160	16	-5	-22	-15448	-1024	-5080	18	-9	-8	-3592	1824	16328	3	-14	21	131	126	5
-9800	-3408	12172	-13	19	-24	-15704	-1200	-4992	-4	0	15	-4016	-8	16656	34	0	10	-9872	2608	12728	16	-8	-21	-15480	-1192	-5024	14	-11	-2	-3824	1808	16456	-6	-17	21	131	125	5
-9800	-3416	12036	-16	21	-24	-15632	-1208	-5224	0	-10	9	-4184	-48	16608	19	-4	20	-10000	2656	12944	17	-5	-21	-15344	-1088	-4872	14	-11	-3	-3784	1656	16488	1	-10	19	131	126	5
-9736	-3496	12072	-20	15	-31	-15600	-1128	-5176	3	-8	4	-4080	-72	16664	18	-3	18	-9864	2536	13304	16	0	-21	-15256	-1000	-4864	0	-5	-2	-3776	1736	16648	5	-9	21	132	125	5
-9756	-3436	12112	-14	24	-29	-15752	-1312	-4776	-4	-6	2	-4224	-240	16536	19	0	13	-9920	2608	13408	18	-7	-14	-15416	-1080	-4920	-12	-6	-6	-3704	2000	16456	11	-11	17	132	122	5
-9804	-3500	12072	-19	16	-26	-15792	-1400	-4872	3	-4	7	-3992	-344	16352	11	1	8	-10016	2576	13064	16	-4	-18	-15488	-992	-4960	-15	3	-7	-3688	1952	16352	7	-17	11	132	124	5
-9780	-3508	12084	-18	18	-27	-15680	-1448	-5080	25	-6	14	-4016	-384	16816	15	1	2	-9880	2616	13096	14	-7	-21	-15432	-968	-5104	-9	0	-4	-3792	2088	16544	6	-15	15	132	126	5
-9836	-3456	12072	-10	19	-24	-15800	-1192	-4888	40	-10	15	-3824	-328	16632	12	0	2	-9904	2528	13312	20	-2	-21	-15552	-968	-5104	-10	-3	-7	-3864	2152	16688	2	-13	20	132	126	5
-9760	-3488	12056	-14	16	-27	-15648	-1312	-4864	22	-3	18	-3856	-384	16440	15	-2	4	-9968	2672	12920	12	-4	-22	-15408	-864	-4968	-6	0	-14	-3672	1944	16328	-7	-14	23	132	125	5
-9832	-3496	12028	-8	19	-25	-15696	-1264	-4960	-2	3	12	-3936	-256	16584	25	2	4	-9896	2800	13280	14	-3	-23	-15320	-1152	-4864	-4	0	-17	-3584	1888	16200	-15	-12	27	131	124	5
-9820	-3528	11980	-15	19	-19	-15744	-1440	-4656	-10	8	14	-3968	-224	16480	27	1	6	-9784	2576	13304	11	-2	-25	-15376	-976	-4872	-1	-6	-20	-3600	1736	16088	-12	-17	24	131	125	5
-9844	-3512	12076	-8	18	-20	-15704	-1368	-4984	-11	5	22	-4152	-448	16600	28	3	-3	-9760	2576	12832	8	3	-21	-15376	-1088	-5096	10	-5	-18	-3648	1760	16616	-2	-16	28	131	123	5
-9812	-3520	12120	-8	15	-23	-15856	-1384	-5232	26	-1	28	-4112	-224	16760	28	5	-4	-9824	2480	13224	10	-5	-24	-15304	-952	-4912	14	-4	-17	-3808	1736	16224	1	-10	29	132	121	5
-9820	-3484	12076	-5	11	-18	-15768	-1192	-5184	30	2	21	-4088	-112	16552	22	-4	-3	-10056	2672	13208	12	-3	-27	-15448	-1088	-4856	8	-9	-15	-3712	1856	16360	2	-12	29	132	124	5
-9784	-3416	12024	-12	16	-25	-15640	-1288	-5056	24	-1	20	-3784	-56	16856	21	3	-2	-9952	2632	13152	15	-8	-23	-15528	-952	-5224	4	-3	-19	-3808	1840	16496	1	-12	27	131	122	5
-9864	-3476	12004	-11	15	-24	-15776	-1064	-5168	14	5	18	-3912	56	16936	28	3	3	-9848	2528	13280	16	-6	-21	-15400	-1192	-4992	-11	-5	-16	-3880	1728	16256	0	-12	27	132	126	5
-9812	-3460	12052	-12	21	-22	-15640	-1024	-5096	6	2	6	-4088	-32	16456	19	2	20	-9984	2416	13400	16	-3	-22	-15400	-1128	-5000	-10	-4	-14	-3904	1728	16400	0	-15	26	131	124	5
-9792	-3476	12160	-17	11	-27	-15816	-1256	-5128	-13	-6	7	-4000	-208	16504	21	2	11	-9864	2584	13168	13	0	-23	-15392	-1048	-4992	2	-3	-7	-3688	1696	16456	-1	-13	21	131	123	5
-9740	-3516	12008	-15	15	-24	-15696	-1376	-5040	-3	-5	8	-4112	-104	16720	22	-2	6	-9840	2544	13424	14	-2	-19	-15328	-1168	-5096	8	-7	-5	-3848	1848	16264	2	-9	20	132	122	5
-9800	-3508	12136	-11	14	-27	-15664	-1384	-5152	12	-12	15	-4112	-200	16648	18	-6	1	-9984	2640	13256	19	-13	-19	-15376	-904	-5080	4	-6	-6	-3680	2040	16568	7	-7	21	131	126	5
-9816	-3524	12116	-11	16	-27	-15640	-1384	-4944	22	-8	16	-3736	-128	16648	20	2	4	-9976	2560	13152	14	-6	-21	-15232	-928	-4992	1	-6	-6	-3896	2064	16424	9	-13	20	132	126	5
-9764	-3412	12056	-12	13	-22	-15696	-1392	-4992	14	-12	14	-3952	-368	16608	22	3	3	-9880	2640	13224	14	-10	-20	-15288	-1024	-4848	-9	-8	-12	-3776	1896	16608	2	-17	20	132	124	5
-9816	-3452	12084	-13	15	-24	-15800	-1168	-4816	9	-1	15	-4072	-232	16712	22	2	4	-9752	2664	13432	3	-3	-22	-15384	-1032	-4960	-5	-7	-8	-3720	1896	16392	0	-14	24	132	124	5
-9840	-3544	12088	-12	15	-28	-15696	-1232	-4888	8	4	13	-4088	-160	16688	25	0	6	-9960	2736	12984	17	-3	-22	-15368	-1096	-4960	0	-8	-12	-3648	1952	16440	-4	-14	26	132	126	5
-9756	-3504	12224	-15	17	-27	-15816	-1336	-4968	5	-7	11	-4008	-192	16704	21	1	7	-9920	2552	13216	16	-7	-17	-15400	-1152	-5040	13	-8	-6	-3592	2008	16328	-5	-11	21	132	122	5
-9776	-3472	12068	-10	16	-22	-15800	-1304	-5016	4	-5	14	-4024	-272	16560	20	-5	-1	-9872	2544	13264	12	-1	-21	-15464	-920	-5096	5	-10	-13	-3624	1952	16304	-7	-13	19	131	125	5
-9812	-3452	12084	-17	14	-25	-15688	-1184	-5112	6	-3	13	-3928	-280	16504	26	-4	1	-10016	2640	13208	17	-5	-22	-15320	-1000	-5096	9	-5	-2	-3520	1736	16376	3	-14	21	132	125	5
-9812	-3468	12132	-13	16	-22	-15744	-1320	-4896	4	-4	20	-4000	-320	16496	20	4	0	-9936	2704	13144	17	-9	-19	-15416	-992	-4792	-1	-1	-15	-3600	1856	16336	10	-8	18	132	124	5
-9812	-3496	11944	-14	12	-26	-15776	-1360	-4968	26	-1	23	-4064	-224	16760	25	4	2	-9912	2608	13216	15	-8	-19	-15336	-1096	-5112	-4	1	-8	-3824	1840	16392	10	-10	25	132	126	5
-9784	-3508	12100	-8	18	-24	-15744	-1224	-5176	31	-5	20	-4104	-168	16768	20	-5	1	-9888	2544	13536	13	-5	-16	-15408	-952	-5024	-10	-3	-9	-3760	1832	16472	-8	-12	26	132	123	5
-9796	-3392	12056	-12	17	-25	-15688	-1272	-4720	10	-1	17	-4096	-136	16848	16	0	-1	-9848	2632	13000	14	-4	-19	-15512	-1088	-4936	1	-4	-4	-3744	1872	16560	-4	-15	20	133	126	5
-9776	-3484	12068	-11	20	-26	-15784	-1272	-5104	4	5	16	-3952	-280	16616	23	1	2	-10088	2784	13288	16	1	-16	-15384	-928	-5056	7	-1	-6	-3592	1888	16720	-1	-13	20	131	123	5
-9752	-3472	12148	-9	18	-18	-15728	-1320	-5200	8	2	16	-4120	-8	16728	28	0	5	-9992	2568	12976	15	3	-15	-15352	-1144	-4872	7	-7	-4	-3736	1904	16264	-3	-13	16	131	126	5
-9724	-3464	12056	-9	16	-21	-15712	-1192	-4952	4	-5	12	-4168	-192	16440	26	1	9	-9904	2752	13312	15	-5	-20	-15344	-952	-4968	4	-3	-3	-3728	1808	16352	2	-16	22	132	124	5
-9768	-3432	12056	-10	19	-24	-15656	-1232	-4872	-2	-4	12	-3944	-336	16616	28	-1	1	-9944	2648	13240	17	-8	-19	-15336	-1008	-5320	-2	-4	-9	-3792	1824	16208	6	-15	25	132	123	5
-9820	-3524	11956	-12	19	-29	-15728	-1384	-5080	13	-6	12	-4088	-72	16648	31	-2	5	-9960	2664	13144	20	-7	-16	-15512	-1056	-4936	-4	-3	-2	-3648	1816	16448	5	-15	25	131	125	5
-9808	-3476	12192	-12	19	-25	-15656	-1152	-5008	18	-6	7	-4024	-40	16672	22	-4	15	-9944	2640	13176	14	-8	-20	-15384	-1168	-5104	0	-8	-3	-3736	1688	16488	-4	-16	19	132	125	5
-9824	-3420	12124	-15	14	-26	-15680	-1096	-4992	5	-6	6	-4168	-208	16680	19	-1	16	-9920	2720	13184	18	-5	-18	-15376	-1104	-4856	9	-6	-4	-3656	1728	16368	-1	-18	13	132	123	5
-9816	-3460	12108	-16	16	-26	-15744	-1320	-5232	-11	0	8	-4192	-392	16824	18	0	10	-9816	2608	13264	16	-7	-19	-15360	-976	-5016	14	-3	3	-3592	1952	16672	9	-15	9	132	122	5
-9776	-3536	12108	-13	16	-35	-15824	-1320	-5256	14	-5	16	-3928	-200	16480	21	-3	6	-9864	2696	13480	21	2	-20	-15400	-952	-5088	7	-9	-1	-3776	1968	16528	7	-13	11	132	122	5
-9800	-3532	12148	-11	16	-24	-15824	-1288	-5104	25	-11	11	-3928	-32	16504	17	-6	8	-9960	2640	13400	19	-2	-14	-15496	-960	-4960	-1	-7	-7	-3736	2016	16232	4	-13	15	132	123	5
-9832	-3448	12168	-10	14	-23	-15744	-1144	-4872	18	-11	11	-3808	-136	16544	17	-3	3	-9960	2560	13224	15	-5	-19	-15376	-960	-5024	-12	0	-10	-3784	1840	16328	3	-11	25	132	125	5
-9780	-3472	12132	-12	18	-27	-15624	-1256	-4792	-4	5	11	-3928	-192	16824	20	3	2	-9912	2760	13280	16	-7	-21	-15440	-952	-4928	-19	-4	-15	-3672	2112	16496	4	-14	28	132	124	5
-9848	-3496	12012	-14	19	-31	-15712	-1200	-5040	-2	3	12	-3848	-448	16544	25	1	3	-9904	2608	13304	8	-5	-20	-15328	-1008	-5072	-13	0	-10	-3512	2104	16392	-6	-17	26	131	124	5
-9772	-3556	12148	-14	20	-25	-15880	-1584	-5184	8	1	21	-4128	-312	16608	20	3	3	-10024	2568	13424	10	-4	-18	-15408	-992	-4776	-11	-4	-13	-3664	1864	16264	-3	-13	21	131	125	5
-9764	-3524	11968	-7	17	-24	-15728	-1384	-5072	38	0	18	-4168	-168	16736	21	1	-1	-9944	2560	13360	14	-1	-25	-15392	-1088	-4968	8	-4	-17	-3704	1880	16544	-4	-14	23	131	123	5
-9804	-3480	12080	-7	19	-20	-15584	-1328	-5040	23	-1	21	-4080	-224	16584	21	-2	-6	-9896	2616	13416	13	-4	-22	-15392	-1232	-4912	13	-3	-16	-3712	1648	16376	0	-15	23	131	125	5
-9836	-3520	12088	-13	15	-23	-15752	-1152	-5016	-2	3	20	-4096	-232	16736	28	2	0	-9960	2480	13272	10	-1	-22	-15400	-1000	-5024	16	-4	-9	-3664	1760	16448	-3	-13	27	131	122	5
-9752	-3504	12064	-11	15	-24	-15776	-1128	-5016	0	6	15	-4088	-96	16496	32	1	6	-9840	2696	13504	14	-5	-22	-15352	-992	-4768	6	-5	-17	-3824	1864	16480	3	-15	25	131	122	5
-9828	-3476	12076	-12	16	-21	-15696	-1152	-5176	6	-2	12	-4184	-8	16568	30	3	12	-9960	2696	13056	14	-8	-21	-15408	-936	-5192	1	-4	-12	-3784	1904	16400	-2	-11	27	131	122	5
-9780	-3512	12136	-13	16	-23	-15672	-1224	-5136	8	-6	15	-4184	-112	16584	22	-1	9	-9920	2776	13032	16	-6	-19	-15336	-1168	-4776	-6	-2	-14	-3776	1768	16384	1	-9	22	131	126	5
-9812	-3428	12076	-13	15	-28	-15744	-1304	-4976	6	-2	11	-4200	-176	16432	17	-3	6	-9856	2672	13424	18	-6	-17	-15376	-1168	-5112	-6	-4	-7	-3600	1880	16312	9	-15	18	132	124	5
-9820	-3472	12056	-11	13	-23	-15848	-1368	-5144	11	-3	17	-4056	-464	16592	14	0	-1	-9936	2560	13144	15	2	-19	-15360	-1128	-5056	1	-5	-9	-3784	1800	16392	6	-15	18	131	123	5
-9784	-3496	12024	-8	15	-25	-15800	-1272	-4824	32	-12	19	-4048	-160	16504	20	1	-3	-9896	2792	13088	19	-8	-19	-15344	-976	-5152	0	-7	-7	-3832	1760	16328	4	-17	19	132	124	5
-9768	-3504	12060	-5	13	-24	-15760	-1088	-4840	29	-8	15	-3864	-280	16592	19	-4	-1	-10088	2568	13248	14	-2	-18	-15272	-1016	-4960	-1	-8	-6	-3728	1872	16536	-1	-15	21	132	122	5
-9816	-3396	12072	-10	17	-25	-15656	-1152	-4840	0	-3	13	-3904	-168	16768	17	-5	7	-9952	2480	13112	17	1	-22	-15392	-968	-4952	7	-5	-12	-3528	1808	16568	3	-16	24	132	125	5
-9876	-3492	12008	-11	13	-26	-15664	-1272	-5096	-12	1	14	-4008	-112	16552	27	-6	4	-9824	2568	13304	12	1	-20	-15480	-928	-4864	2	-6	-4	-3720	1960	16456	-2	-20	20	131	125	5
-9848	-3560	12052	-12	20	-23	-15792	-1376	-5064	3	-8	13	-4024	-176	16704	28	1	6	-9880	2536	13256	18	-2	-16	-15368	-1064	-5040	2	-10	-8	-3560	1856	16528	-2	-16	22	132	123	5
-9772	-3448	12096	-10	15	-25	-15704	-1416	-5112	5	-5	14	-4128	-176	16824	12	2	3	-9952	2520	13320	16	-4	-21	-15328	-992	-4864	6	-5	-8	-3584	1976	16584	1	-17	22	131	124	5
-9864	-3480	12016	-9	14	-24	-15704	-1248	-5136	23	-5	17	-3976	-248	16560	25	-6	-1	-9960	2560	13160	17	-4	-23	-15328	-976	-5000	4	-6	-6	-3648	1928	16368	4	-10	23	131	125	5
-9776	-3476	12112	-14	16	-22	-15792	-1296	-4976	14	3	17	-4040	-360	16544	25	-8	3	-9744	2616	13360	17	-8	-19	-15336	-1024	-5160	-4	-7	-14	-3704	1784	16496	6	-13	23	131	125	5
-9808	-3460	11996	-15	20	-25	-15664	-1112	-5152	8	3	14	-3944	-304	16720	23	-3	4	-9880	2600	13352	9	-3	-19	-15272	-920	-5120	-9	-2	-11	-3656	1920	16368	1	-16	28	131	126	5
-9852	-3460	12044	-13	19	-26	-15824	-1432	-4816	4	5	21	-3912	-296	16600	26	3	5	-9968	2648	13328	16	-4	-22	-15400	-960	-4864	-9	1	-9	-3808	1960	16152	2	-18	22	131	125	5
-9844	-3448	12040	-11	14	-20	-15560	-1168	-5144	9	-2	17	-4064	-160	16496	23	3	2	-10016	2592	13192	21	-3	-21	-15432	-1024	-5000	5	-1	-7	-3704	1904	16416	-2	-17	22	132	122	5
-9852	-3460	12116	-9	18	-21	-15776	-1288	-5144	10	1	21	-4016	-224	16552	21	-4	3	-9848	2616	13240	17	-4	-21	-15400	-1016	-4888	6	-3	-12	-3752	1896	16312	-5	-14	22	131	126	5
-9808	-3468	12144	-14	15	-24	-15896	-1280	-5224	10	2	15	-4024	-112	16496	24	-5	2	-10024	2720	13424	11	-2	-16	-15488	-1032	-5152	5	-4	-12	-3768	1816	16432	-6	-10	19	131	124	5
-9796	-3472	12056	-11	19	-25	-15736	-1264	-4976	5	-1	14	-3936	-96	16528	25	-2	4	-9896	2608	13344	13	-4	-23	-15352	-1096	-4592	-5	-4	-12	-3848	1832	16480	0	-14	26	131	124	5
-9832	-3520	12076	-9	18	-28	-15600	-1288	-5032	6	-2	19	-3936	-344	16600	27	-4	3	-9944	2496	13320	12	-8	-24	-15424	-928	-5096	-6	-8	-11	-3624	1808	16576	8	-11	33	131	122	5
-9788	-3456	12048	-12	17	-27	-15680	-1304	-5168	19	4	17	-4072	-160	16632	27	0	3	-9944	2688	13120	11	-4	-20	-15464	-1040	-5008	-3	-2	-7	-3584	1776	16504	5	-17	22	131	124	5
-9744	-3468	12080	-14	15	-24	-15592	-1376	-5288	20	-5	18	-4128	-48	16840	17	-2	2	-9896	2456	13240	18	-1	-19	-15488	-1008	-5088	4	-5	-9	-3704	1880	16440	1	-18	20	131	123	5
-9796	-3420	12112	-7	16	-21	-15776	-1208	-4896	20	-4	14	-4008	-208	16792	17	-4	2	-9776	2488	13224	11	-8	-23	-15328	-1096	-5080	12	-6	-5	-3664	1968	16288	2	-14	18	131	124	5
-9784	-3476	11968	-11	19	-22	-15744	-1152	-5128	14	-4	14	-4168	-144	16336	16	-2	5	-10000	2752	13056	17	-4	-19	-15448	-968	-5160	10	-12	-9	-3792	2040	16384	-1	-16	21	130	125	5
-9852	-3480	12196	-14	19	-21	-15664	-1200	-5008	2	-5	9	-3856	-24	16616	24	-7	8	-9968	2696	13392	12	-4	-23	-15400	-1056	-5128	-4	-3	-9	-3640	1896	16192	-3	-14	22	132	122	5
-9772	-3512	12004	-14	17	-24	-15664	-1264	-4944	-12	-2	10	-3960	-296	16456	28	0	12	-9944	2544	13272	11	-3	-20	-15352	-1024	-5096	-9	-3	-9	-3744	1776	16504	4	-13	19	131	126	5
-9804	-3472	12040	-16	15	-22	-15752	-1336	-5264	3	-3	12	-4064	-136	16544	29	-6	9	-9968	2608	13128	14	-6	-20	-15368	-1016	-4992	-6	-4	-10	-3584	1688	16368	3	-9	24	131	123	5
-9680	-3476	12048	-14	16	-24	-15656	-1360	-5304	8	-5	11	-4112	-272	16600	22	2	8	-9968	2568	13120	13	-3	-24	-15392	-1056	-4856	2	-3	-9	-3568	1968	16592	2	-15	21	131	124	5
-9824	-3520	12108	-6	19	-27	-15808	-1264	-4792	19	-8	14	-4200	-288	16672	18	-2	5	-9992	2720	13080	16	-5	-20	-15336	-896	-4936	5	-4	-2	-3720	2040	16616	1	-14	20	132	125	5
-9756	-3440	12112	-13	17	-25	-15712	-1280	-4936	20	-5	13	-4072	-360	16824	17	-7	3	-9840	2640	13264	16	-7	-19	-15496	-880	-5040	5	-2	-5	-3736	2024	16432	2	-13	20	132	123	5
-9900	-3464	12084	-16	18	-26	-15800	-1336	-5104	18	4	14	-4008	-376	16504	17	0	-2	-9760	2664	13064	14	-5	-16	-15232	-1008	-4840	5	-5	-17	-3672	1872	16496	-2	-13	23	132	122	5
-9784	-3524	12028	-13	21	-24	-15784	-1312	-4864	18	-2	15	-4152	-376	16456	23	-5	1	-10000	2608	13264	17	2	-22	-15448	-984	-5000	-17	-1	-16	-3648	1968	16552	-5	-12	23	131	126	5
-9744	-3444	12068	-8	22	-22	-15712	-1384	-5040	15	0	20	-3976	-48	16824	24	-6	5	-9944	2416	13184	14	-2	-23	-15432	-992	-5048	-16	0	-14	-3760	1744	16512	-8	-12	26	131	126	5
-9788	-3536	12036	-17	16	-19	-15632	-1160	-4912	-1	3	9	-3960	-56	16704	32	2	6	-9896	2656	13240	15	-4	-26	-15360	-1168	-5088	1	-3	-13	-3672	1752	16400	-7	-15	20	130	125	5
-9768	-3436	12056	-9	15	-24	-15728	-1160	-5144	-9	2	11	-4024	-160	16848	28	-1	8	-9840	2616	13336	14	-6	-19	-15432	-1232	-4816	10	-4	-5	-3664	1808	16368	-10	-14	20	131	123	5
-9840	-3488	12072	-11	16	-29	-15752	-1312	-4952	-9	2	12	-4040	-160	16560	27	1	3	-9952	2688	13152	12	-4	-25	-15320	-904	-4992	21	-7	-4	-3696	1848	16112	-2	-20	16	131	122	5
-9856	-3484	12236	-17	16	-23	-15608	-1328	-5000	19	-2	16	-4040	-256	16472	24	-4	2	-9768	2728	13056	16	-7	-23	-15344	-936	-5080	17	-3	-9	-3760	1912	16576	14	-13	25	131	126	5
-9812	-3504	12148	-5	18	-28	-15792	-1280	-5176	32	-8	18	-4096	-72	16616	20	-3	4	-9912	2568	13016	13	-8	-23	-15464	-960	-4968	-1	-3	-7	-3760	1840	16464	10	-11	26	132	123	5
-9776	-3480	12068	-11	10	-24	-15688	-1184	-4936	25	-10	20	-4216	-248	16712	15	-2	1	-9816	2560	13232	12	-8	-24	-15432	-1024	-5088	-15	-2	-15	-3792	1976	16344	5	-10	28	132	124	5
-9804	-3492	12032	-11	16	-27	-15696	-1248	-4992	7	-2	15	-4000	-264	16432	15	0	2	-9904	2648	13072	18	-3	-21	-15512	-1208	-4872	-6	1	-10	-3600	1880	16320	7	-17	21	132	126	5
-9776	-3496	12052	-6	13	-24	-15696	-1360	-4992	12	-4	21	-4008	-360	16416	26	-1	1	-9856	2688	13064	15	-10	-16	-15360	-920	-4952	-8	1	-13	-3760	1920	16576	-1	-13	23	132	123	5
-9772	-3424	12060	-6	10	-22	-15888	-1328	-5064	13	-8	23	-4040	-232	16736	26	-7	2	-9896	2640	13288	18	-6	-20	-15440	-912	-5048	12	-8	-7	-3792	1928	16792	-10	-17	16	131	123	5
-9780	-3428	11984	-5	14	-25	-15704	-1144	-4872	13	-5	16	-4096	-208	16560	24	-3	-2	-9800	2520	13288	14	-8	-22	-15320	-1008	-4912	12	-6	-7	-3736	1840	16288	-3	-12	20	131	124	5
-9756	-3408	12100	-7	12	-22	-15664	-1296	-5224	-5	-3	17	-3880	-200	16624	25	-3	-3	-10176	2528	13512	5	-3	-21	-15488	-976	-4840	8	-9	-7	-3600	1696	16392	7	-13	26	131	123	5
-9772	-3524	12100	-13	19	-23	-15688	-1168	-5072	13	-3	20	-3968	-112	16600	27	0	-1	-9936	2648	13472	12	-7	-20	-15232	-880	-4928	3	-4	-7	-3656	1888	16472	3	-15	28	131	122	5
-9716	-3388	11968	-14	16	-23	-15760	-1192	-5104	16	-2	15	-4016	-200	16664	24	-6	6	-9968	2640	13216	11	-10	-18	-15376	-1208	-4800	-2	-7	-11	-3528	1832	16280	-2	-19	22	131	124	5
-9736	-3440	12088	-14	21	-22	-15736	-1128	-4864	15	-6	14	-4040	-168	16768	23	1	11	-10008	2664	13152	15	1	-22	-15288	-1152	-4880	5	-7	-4	-3632	1720	16496	-3	-17	19	131	126	5
