#Activity	sitting 
#ActivityID	5 
#Date 10-06-17-51
acc_rf_x	acc_rf_y	acc_rf_z	gyro_rf_x	gyro_rf_y	gyro_rf_z	acc_rs_x	acc_rs_y	acc_rs_z	gyro_rs_x	gyro_rs_y	gyro_rs_z	acc_rt_x	acc_rt_y	acc_rt_z	gyro_rt_x	gyro_rt_y	gyro_rt_z	acc_lf_x	acc_lf_y	acc_lf_z	gyro_lf_x	gyro_lf_y	gyro_lf_z	acc_ls_x	acc_ls_y	acc_ls_z	gyro_ls_x	gyro_ls_y	gyro_ls_z	acc_lt_x	acc_lt_y	acc_lt_z	gyro_lt_x	gyro_lt_y	gyro_lt_z	EMG_r	EMG_l	act
-11032	-4556	10524	-94	146	-161	-13952	2348	-8276	35	-87	18	-1880	-876	17008	181	-18	26	-11940	1732	11680	114	-43	-158	-15340	748	-6584	91	-43	172	-2476	-648	16760	-17	-148	215	125	126	5
-11064	-4592	10584	-75	160	-150	-13932	2296	-8208	-39	-87	-13	-1856	-772	16984	227	-4	34	-12020	1744	11640	117	-75	-141	-15204	748	-6536	78	-44	195	-2436	-628	16648	21	-129	219	125	126	5
-11024	-4608	10540	-105	157	-126	-13948	2328	-8080	-41	-71	-1	-1844	-824	16976	188	7	-4	-11940	1724	11580	128	-38	-133	-15204	852	-6444	29	-39	191	-2420	-576	16716	56	-133	224	125	126	5
-10992	-4608	10552	-90	173	-154	-13944	2320	-8112	-8	-76	-18	-1820	-808	16960	185	-7	12	-11948	1748	11572	118	-39	-141	-15240	764	-6500	46	-15	182	-2384	-520	16584	90	-131	235	125	127	5
-11000	-4592	10600	-50	161	-139	-13972	2388	-8116	2	-59	-22	-1804	-840	16936	193	-30	37	-11900	1768	11616	125	-55	-136	-15268	852	-6488	32	6	159	-2384	-536	16660	31	-118	203	125	127	5
-10976	-4580	10524	-105	175	-179	-13964	2348	-8208	-1	-49	-19	-1876	-904	16988	220	-13	-14	-11928	1744	11544	129	-63	-140	-15248	776	-6640	82	-18	143	-2376	-580	16696	9	-117	249	125	126	5
-11028	-4604	10632	-84	167	-128	-13956	2328	-8164	-8	-45	-30	-1828	-904	16952	229	4	24	-11968	1704	11588	102	2	-170	-15288	824	-6516	93	18	149	-2432	-568	16628	-2	-118	214	125	126	5
-11056	-4556	10492	-81	160	-179	-13988	2320	-8252	-43	-41	-16	-1888	-840	17040	219	14	46	-11936	1780	11468	110	-40	-132	-15236	836	-6580	66	-16	125	-2432	-632	16720	-13	-144	189	125	126	5
-11036	-4656	10488	-118	148	-152	-13924	2364	-8276	-23	-38	-89	-1884	-768	17024	207	-13	27	-11952	1708	11516	133	-46	-192	-15220	780	-6592	81	22	158	-2452	-664	16600	-8	-159	224	125	126	5
-11036	-4552	10608	-94	171	-169	-14008	2408	-8236	-53	-36	-38	-1880	-784	16928	147	16	3	-11984	1744	11556	112	-38	-146	-15264	856	-6556	20	-16	145	-2444	-556	16700	14	-128	214	125	126	5
-11016	-4512	10464	-110	153	-197	-13988	2304	-8260	-23	-21	-59	-1888	-836	16976	161	-14	10	-11904	1792	11616	116	-77	-168	-15248	776	-6532	-13	-23	154	-2464	-528	16628	62	-131	244	125	126	5
-10980	-4608	10568	-114	176	-175	-13940	2352	-8192	35	-62	-39	-1960	-896	17072	144	6	14	-11932	1712	11528	112	-54	-159	-15296	804	-6580	58	1	156	-2388	-640	16728	8	-134	226	125	126	5
-11008	-4572	10640	-114	160	-158	-13960	2324	-8228	-6	-44	-22	-1852	-880	17128	175	-15	26	-11876	1728	11648	100	-25	-175	-15232	800	-6588	103	-22	156	-2452	-604	16664	2	-168	183	125	126	5
-10996	-4556	10640	-124	113	-162	-13964	2404	-8200	-20	-56	7	-1836	-848	17004	219	15	33	-11940	1772	11596	122	-44	-160	-15292	844	-6540	66	-7	191	-2396	-592	16792	-2	-137	216	125	126	5
-11032	-4568	10624	-93	161	-193	-13892	2312	-8172	-36	-59	-40	-1816	-844	16928	202	11	18	-11884	1752	11484	115	-44	-158	-15228	836	-6564	40	-27	158	-2448	-560	16664	-1	-153	217	125	126	5
-11016	-4564	10488	-72	195	-147	-13976	2352	-8184	16	-53	-25	-1880	-880	16908	197	-16	6	-11936	1752	11552	129	-58	-170	-15264	832	-6548	18	-11	171	-2368	-632	16676	12	-103	201	125	126	5
-11044	-4584	10580	-110	156	-193	-13960	2304	-8132	0	-66	-47	-1868	-800	17008	156	-37	53	-11892	1724	11568	100	-76	-165	-15288	824	-6632	18	-14	156	-2392	-624	16712	44	-117	240	125	126	5
-11040	-4508	10512	-92	146	-167	-13952	2364	-8172	3	-15	-52	-1836	-868	17132	200	-8	41	-11924	1796	11584	134	-44	-143	-15276	752	-6480	48	-23	178	-2424	-644	16584	44	-126	216	125	126	5
-10976	-4540	10608	-100	157	-154	-13940	2336	-8216	-28	-32	-55	-1808	-896	16952	195	-6	27	-11912	1732	11576	129	-42	-147	-15252	868	-6604	98	-54	172	-2392	-476	16632	35	-146	198	125	126	5
-10996	-4564	10640	-141	178	-143	-13928	2304	-8180	-4	-51	-28	-1840	-900	16920	201	-10	35	-11968	1812	11648	96	-36	-151	-15248	788	-6512	50	-40	177	-2372	-576	16708	0	-163	224	125	127	5
-11012	-4560	10624	-94	169	-192	-14020	2264	-8184	36	-19	-32	-1924	-896	17048	184	0	23	-11912	1716	11516	109	-44	-183	-15300	848	-6516	25	-49	121	-2420	-488	16624	12	-132	248	125	126	5
-11020	-4608	10528	-67	152	-141	-13912	2304	-8212	7	-19	-39	-1860	-872	16920	215	-10	9	-11972	1752	11608	135	-49	-176	-15216	816	-6568	58	-21	138	-2404	-584	16712	18	-102	221	125	126	5
-11004	-4560	10572	-97	155	-199	-13988	2360	-8216	-19	-51	-60	-1888	-800	16976	247	3	20	-11924	1692	11616	120	-45	-176	-15212	796	-6608	98	21	155	-2440	-632	16660	42	-110	252	125	126	5
-10964	-4576	10512	-105	168	-180	-13988	2388	-8216	-11	21	-26	-1908	-836	17088	204	-21	11	-11928	1744	11680	131	-69	-159	-15328	716	-6516	112	22	159	-2432	-664	16732	6	-137	225	125	126	5
-11016	-4592	10484	-111	158	-172	-14016	2340	-8272	0	-74	-17	-1936	-844	16996	164	-29	23	-11964	1712	11520	117	-76	-147	-15276	796	-6628	76	11	162	-2448	-616	16724	24	-136	226	125	127	5
-11024	-4596	10676	-74	175	-172	-13940	2384	-8180	-13	-43	-31	-1820	-784	16804	169	-39	21	-11944	1776	11504	97	-28	-190	-15208	884	-6528	22	28	142	-2432	-504	16612	57	-141	238	125	126	5
-11012	-4556	10532	-96	145	-157	-14004	2356	-8212	19	-11	-70	-1892	-872	16848	161	-15	39	-11876	1696	11496	103	-89	-162	-15320	840	-6496	-34	-24	88	-2460	-548	16768	15	-107	219	125	126	5
-11072	-4512	10564	-106	162	-194	-13952	2352	-8156	16	-44	-54	-1880	-908	17024	158	-6	36	-11936	1724	11592	109	-6	-175	-15208	776	-6520	46	11	132	-2372	-584	16628	26	-108	257	125	126	5
-11016	-4564	10508	-85	132	-190	-14012	2348	-8144	-13	-47	-32	-1856	-896	17028	219	3	46	-11952	1736	11596	134	-49	-188	-15292	764	-6508	94	-10	120	-2324	-608	16748	-5	-133	253	125	126	5
-10964	-4564	10620	-117	181	-162	-13956	2292	-8148	-17	-44	-29	-1880	-824	16972	233	10	18	-11868	1700	11564	147	-44	-155	-15264	828	-6552	90	-23	134	-2440	-624	16696	-12	-175	206	125	126	5
-11004	-4584	10556	-111	171	-170	-13912	2332	-8096	21	-37	-30	-1904	-768	16936	176	-2	25	-11924	1752	11628	103	-45	-177	-15312	804	-6608	69	-12	157	-2420	-684	16764	20	-143	194	125	126	5
-10996	-4552	10492	-103	158	-162	-13948	2372	-8188	40	-22	-16	-1860	-788	16836	206	-33	-5	-11924	1716	11664	115	-30	-148	-15188	792	-6544	48	-34	169	-2404	-688	16548	2	-145	194	125	127	5
-11032	-4532	10568	-122	169	-193	-13956	2436	-8256	1	-18	-67	-1944	-844	17112	185	-2	4	-11980	1704	11616	121	-45	-158	-15256	720	-6628	32	-4	175	-2432	-716	16704	64	-134	211	125	126	5
-10992	-4504	10608	-171	157	-189	-13976	2324	-8224	-26	-23	-35	-1892	-908	17060	189	-21	32	-11952	1736	11548	148	-16	-118	-15244	784	-6532	71	-41	167	-2360	-612	16712	78	-158	201	125	126	5
-10972	-4608	10616	-166	135	-160	-13944	2276	-8248	31	-30	-55	-1916	-868	16940	193	6	47	-11924	1736	11440	130	-29	-134	-15268	796	-6544	78	-44	193	-2380	-568	16744	74	-121	196	125	126	5
-10976	-4568	10472	-141	149	-186	-13984	2284	-8156	8	-61	-32	-1916	-932	16928	160	-23	45	-11916	1768	11536	149	-68	-180	-15288	848	-6448	55	-28	168	-2428	-512	16680	46	-111	226	125	126	5
-10992	-4584	10552	-137	180	-168	-13924	2232	-8236	-32	-60	-16	-1860	-948	17128	173	3	45	-11904	1780	11512	120	-60	-157	-15268	828	-6448	76	4	143	-2440	-564	16672	2	-168	219	125	127	5
-10996	-4584	10544	-79	160	-182	-14008	2312	-8220	4	-63	-2	-1892	-840	17048	211	-39	20	-11932	1728	11584	126	-2	-194	-15196	800	-6616	82	16	173	-2416	-624	16752	4	-126	231	125	126	5
-11048	-4512	10552	-61	158	-125	-13956	2352	-8196	-26	-47	-27	-1892	-904	17044	252	7	-3	-11864	1784	11560	98	-18	-136	-15224	744	-6508	86	10	136	-2480	-620	16736	36	-127	243	125	126	5
-11024	-4532	10644	-67	186	-149	-13920	2340	-8244	-23	-65	-3	-1836	-820	16972	183	18	16	-11936	1736	11620	124	-30	-185	-15264	732	-6552	67	-20	170	-2424	-632	16624	11	-114	192	125	126	5
-11016	-4556	10668	-63	177	-167	-13896	2352	-8292	23	-65	-37	-1852	-764	17112	211	20	4	-11904	1712	11540	117	-77	-143	-15268	776	-6584	56	-38	153	-2392	-608	16748	14	-131	196	125	126	5
-11056	-4592	10508	-88	169	-155	-13920	2344	-8116	-2	-55	-32	-1884	-792	16912	184	-11	45	-11920	1768	11604	103	-36	-168	-15200	812	-6580	51	-22	169	-2420	-608	16676	-6	-106	215	125	126	5
-11052	-4536	10632	-104	165	-144	-13944	2404	-8188	2	-54	-52	-1912	-868	17016	189	-14	35	-11864	1672	11524	130	-28	-123	-15256	804	-6544	61	-59	202	-2372	-560	16692	56	-152	212	125	126	5
-10988	-4572	10604	-49	166	-180	-13932	2356	-8208	12	-41	-73	-1876	-804	17032	162	-11	45	-11960	1732	11632	140	-28	-134	-15288	788	-6436	74	-28	193	-2500	-560	16684	29	-153	219	125	127	5
-11004	-4560	10524	-95	204	-161	-14000	2300	-8248	20	-53	-61	-1804	-804	16980	147	21	45	-11916	1728	11604	91	-18	-138	-15304	848	-6600	69	-19	155	-2432	-512	16656	17	-121	210	125	126	5
-11012	-4516	10516	-82	188	-159	-13960	2360	-8332	-5	-40	-28	-1836	-896	16868	207	9	17	-11992	1776	11544	101	-53	-125	-15240	836	-6556	57	4	168	-2372	-600	16664	1	-129	225	125	126	5
-11044	-4572	10668	-78	127	-177	-13896	2220	-8252	-49	-55	-74	-1908	-880	17028	198	-25	62	-11952	1700	11532	95	-64	-209	-15260	764	-6452	59	17	167	-2408	-608	16628	31	-147	221	125	126	5
-10996	-4532	10648	-87	153	-177	-13972	2280	-8256	-24	-25	-33	-1860	-804	16920	219	-11	30	-11924	1740	11508	99	-21	-147	-15176	760	-6468	64	-23	142	-2424	-624	16704	2	-160	204	125	126	5
-11012	-4584	10556	-70	178	-183	-13916	2320	-8208	6	-49	-15	-1876	-788	16992	204	5	14	-11928	1728	11580	142	-95	-164	-15296	744	-6540	55	-20	154	-2416	-624	16656	22	-134	225	125	126	5
-11012	-4584	10628	-113	168	-155	-13940	2332	-8200	-20	-32	-13	-1888	-912	16888	186	0	15	-11884	1768	11636	96	-27	-144	-15240	800	-6464	50	-2	155	-2428	-648	16788	13	-122	209	125	126	5
-11028	-4600	10592	-98	169	-165	-13964	2408	-8236	5	-32	-35	-1860	-812	17044	184	21	45	-11940	1712	11608	136	-32	-160	-15224	780	-6576	65	-27	178	-2464	-560	16620	7	-97	208	125	127	5
-10992	-4556	10640	-111	120	-173	-13912	2360	-8240	-30	-35	-56	-1852	-820	17020	203	-30	57	-11920	1716	11580	133	-42	-135	-15260	808	-6480	33	1	139	-2424	-672	16692	8	-168	227	125	126	5
-11028	-4528	10552	-124	154	-189	-13916	2276	-8268	-5	-44	-36	-1868	-860	17016	186	-9	36	-11908	1768	11616	113	-81	-159	-15256	796	-6648	73	-8	138	-2488	-596	16700	28	-111	219	125	126	5
-11004	-4560	10560	-137	167	-173	-13964	2416	-8216	11	-43	-44	-1924	-876	16972	206	-17	24	-11852	1692	11648	119	-55	-151	-15220	808	-6564	38	-14	196	-2376	-616	16688	59	-145	226	125	126	5
-11024	-4584	10512	-96	176	-189	-13992	2328	-8244	-5	-77	-55	-1884	-820	17092	179	22	32	-11944	1768	11632	103	-38	-190	-15276	796	-6436	64	-30	139	-2408	-608	16644	45	-164	221	125	126	5
-10992	-4592	10540	-98	135	-178	-13944	2324	-8172	-14	-61	-41	-1880	-824	17128	199	-3	0	-11936	1744	11560	144	-69	-139	-15200	760	-6524	40	2	171	-2392	-528	16704	4	-140	188	125	126	5
-11004	-4532	10540	-91	194	-160	-13924	2316	-8196	-4	-58	-18	-1872	-836	16952	194	-14	25	-11932	1780	11504	127	-52	-168	-15316	816	-6556	52	-43	132	-2372	-596	16704	10	-126	195	125	126	5
-11004	-4500	10480	-75	170	-178	-13972	2368	-8152	0	-38	-8	-1852	-776	17060	160	-20	18	-11916	1804	11656	126	-29	-151	-15208	824	-6568	51	-39	158	-2420	-600	16604	0	-121	209	125	127	5
-11036	-4608	10668	-72	151	-155	-13968	2368	-8156	-4	-15	-32	-1820	-860	17028	208	-5	21	-11928	1788	11592	105	-27	-180	-15296	896	-6548	66	-14	170	-2416	-556	16708	48	-107	195	125	126	5
-11020	-4536	10528	-96	146	-180	-13952	2360	-8344	1	-22	-17	-1908	-868	17008	168	-30	39	-11936	1792	11592	142	-12	-158	-15232	824	-6536	48	-20	153	-2384	-612	16676	33	-129	222	125	126	5
-11028	-4572	10608	-92	151	-180	-13992	2348	-8208	3	-50	-4	-1864	-864	16984	169	3	-2	-11940	1696	11552	118	-51	-159	-15292	816	-6652	48	-4	163	-2440	-540	16648	26	-140	199	125	127	5
-10988	-4540	10588	-118	176	-140	-13932	2360	-8252	-30	-57	-57	-1868	-844	17012	187	-26	19	-11928	1732	11688	117	-40	-139	-15216	888	-6584	56	-15	159	-2468	-612	16640	-14	-159	198	125	126	5
-11016	-4532	10624	-78	183	-156	-13916	2384	-8220	-12	-25	-45	-1840	-824	17000	175	-16	28	-11888	1752	11560	101	-32	-134	-15268	868	-6596	61	-14	135	-2404	-616	16660	-36	-142	199	125	126	5
-10996	-4576	10504	-58	166	-147	-13876	2296	-8232	5	-28	-55	-1868	-828	16984	213	-2	30	-11952	1784	11648	130	-49	-160	-15240	884	-6568	49	-8	156	-2408	-612	16636	21	-151	207	125	126	5
-11028	-4592	10604	-100	148	-177	-13932	2420	-8260	-1	-28	-3	-1904	-828	17016	192	-8	24	-11932	1760	11696	95	-48	-180	-15280	784	-6504	66	-31	158	-2436	-624	16656	46	-133	242	125	127	5
-10980	-4580	10584	-94	145	-146	-13888	2316	-8220	26	-26	-41	-1912	-860	17056	176	-22	35	-11888	1776	11568	110	-99	-154	-15236	764	-6580	78	-19	176	-2388	-612	16648	14	-124	238	125	126	5
-11040	-4568	10604	-78	159	-143	-13984	2412	-8152	-40	-14	-18	-1860	-820	17028	209	-18	34	-11956	1736	11564	97	-60	-163	-15292	724	-6504	77	7	185	-2352	-588	16652	18	-134	199	125	126	5
-11012	-4508	10556	-100	181	-203	-13952	2376	-8264	-15	-34	-66	-1868	-828	17032	178	-19	25	-11960	1712	11540	120	-19	-166	-15248	792	-6524	114	-27	173	-2404	-592	16572	4	-152	204	125	126	5
-10996	-4636	10540	-110	177	-154	-13920	2324	-8244	-17	-74	-26	-1864	-872	17072	199	-42	32	-11912	1744	11564	141	-13	-188	-15268	768	-6608	29	26	153	-2396	-616	16728	45	-130	175	125	126	5
-10984	-4564	10648	-112	184	-132	-13960	2396	-8196	19	-25	-19	-1836	-912	17080	183	-9	42	-11908	1696	11536	125	-34	-140	-15256	876	-6544	52	-3	185	-2388	-656	16668	42	-131	185	125	126	5
-11032	-4488	10476	-112	176	-161	-14000	2324	-8252	27	-55	-23	-1796	-772	17016	165	8	32	-11912	1748	11460	128	-57	-155	-15236	776	-6432	84	-41	178	-2428	-568	16820	50	-137	225	125	126	5
-10996	-4520	10508	-112	165	-166	-13980	2364	-8240	-38	-18	-33	-1852	-948	17068	203	-11	25	-12000	1752	11516	116	-59	-154	-15212	884	-6500	40	-13	176	-2464	-560	16788	11	-125	225	125	127	5
-11004	-4564	10584	-97	177	-158	-14028	2388	-8244	0	-23	-17	-1776	-872	17012	216	8	39	-11928	1768	11528	131	-25	-135	-15272	856	-6456	52	-14	151	-2416	-436	16648	27	-140	249	125	126	5
-10960	-4596	10608	-98	181	-151	-13908	2344	-8260	11	-51	-9	-1888	-828	17060	182	-17	9	-11960	1724	11616	81	2	-159	-15260	820	-6480	67	-28	122	-2420	-468	16648	31	-126	253	125	126	5
-11044	-4532	10592	-104	157	-183	-13936	2304	-8192	41	-49	-27	-1868	-824	16960	174	-3	34	-11992	1768	11616	113	-55	-154	-15276	856	-6544	52	6	154	-2428	-500	16784	36	-154	234	125	126	5
-11020	-4564	10672	-63	179	-151	-13920	2388	-8336	-3	-45	0	-1880	-780	17020	217	5	-25	-11928	1684	11664	123	-83	-172	-15272	832	-6604	55	15	164	-2420	-636	16836	-12	-132	248	125	126	5
-10996	-4592	10508	-135	163	-184	-13988	2380	-8204	-9	-55	-48	-1944	-772	17024	189	8	0	-11932	1768	11596	140	-86	-150	-15232	788	-6580	44	-24	155	-2428	-648	16808	21	-122	210	125	126	5
-11040	-4620	10656	-174	165	-205	-13908	2392	-8256	-8	-39	-11	-1816	-748	17052	214	-24	22	-11896	1744	11440	149	-73	-148	-15300	804	-6456	49	12	182	-2364	-636	16696	-7	-177	202	125	126	5
-11016	-4560	10656	-143	145	-186	-13924	2352	-8352	-2	2	-72	-1960	-748	17012	171	0	60	-11956	1696	11580	148	-51	-143	-15236	820	-6408	50	8	159	-2412	-624	16696	27	-121	230	125	126	5
-11024	-4480	10676	-143	152	-152	-13952	2372	-8296	-12	-3	-100	-1836	-816	16980	171	-18	52	-11900	1772	11512	156	-72	-166	-15292	776	-6560	45	19	161	-2464	-552	16724	18	-150	221	125	126	5
-11036	-4608	10572	-123	179	-182	-14028	2328	-8308	-7	-35	-67	-1872	-808	16912	149	-26	19	-11952	1828	11408	125	-38	-146	-15268	800	-6492	41	-21	136	-2472	-528	16676	31	-133	199	125	127	5
-11036	-4560	10536	-102	178	-172	-13936	2260	-8196	29	-37	-26	-1860	-936	16968	148	-34	5	-11932	1688	11608	101	-56	-223	-15244	804	-6488	39	-15	147	-2444	-552	16640	31	-132	241	125	126	5
-11040	-4628	10540	-99	139	-175	-13976	2332	-8300	-4	-10	-13	-1904	-904	16928	199	-24	4	-11972	1804	11580	73	1	-161	-15284	804	-6632	52	-5	106	-2464	-576	16796	19	-132	234	125	126	5
-11020	-4544	10572	-70	155	-165	-13984	2276	-8292	7	-70	-17	-1848	-888	17076	188	8	8	-11948	1772	11544	98	-27	-180	-15192	864	-6528	77	-3	119	-2480	-624	16688	-18	-154	237	125	127	5
-11020	-4580	10596	-52	179	-154	-13964	2360	-8264	-25	-51	-10	-1860	-876	16892	202	-19	27	-11980	1712	11504	81	-58	-188	-15216	828	-6512	57	-17	164	-2404	-680	16672	-15	-141	216	125	126	5
-11044	-4564	10524	-81	183	-173	-13972	2336	-8184	-12	-51	-34	-1832	-760	17092	184	-36	13	-11948	1684	11596	123	-40	-160	-15276	720	-6504	40	-9	168	-2376	-712	16648	-6	-121	204	125	126	5
-11024	-4640	10592	-89	149	-187	-13948	2372	-8164	12	-48	-46	-1856	-768	16980	178	-13	8	-11916	1732	11628	105	16	-160	-15248	760	-6504	36	-30	156	-2352	-684	16596	62	-124	198	125	126	5
-11004	-4572	10508	-47	179	-177	-13924	2344	-8256	6	-19	-16	-1884	-836	16908	194	-8	19	-11912	1748	11548	97	-37	-129	-15276	800	-6528	59	-27	192	-2440	-608	16672	97	-123	207	125	127	5
-11064	-4616	10604	-80	194	-181	-13984	2344	-8244	-18	-50	-49	-1864	-848	16968	192	9	33	-11920	1708	11560	106	-4	-172	-15252	880	-6484	42	-37	184	-2480	-516	16612	35	-103	254	125	126	5
-11060	-4572	10600	-99	187	-168	-13904	2340	-8256	13	-26	-27	-1872	-900	16980	173	-13	28	-11940	1776	11588	132	-16	-170	-15256	872	-6400	52	-3	130	-2460	-492	16712	38	-127	249	125	127	5
-11012	-4536	10576	-122	192	-185	-13944	2348	-8232	-16	-46	-22	-1832	-916	17028	208	16	47	-11924	1796	11588	115	-8	-150	-15292	860	-6548	44	2	160	-2460	-616	16632	4	-159	225	125	126	5
-11024	-4604	10576	-106	124	-164	-13956	2312	-8284	-38	-60	-44	-1892	-868	16960	188	21	31	-11888	1728	11572	108	-57	-153	-15252	840	-6500	71	2	121	-2464	-624	16688	-2	-166	234	125	127	5
-11004	-4508	10560	-100	157	-146	-13964	2312	-8224	-2	-32	-26	-1860	-820	17008	199	16	42	-11960	1708	11596	114	-47	-159	-15228	848	-6600	42	16	159	-2436	-644	16628	-9	-128	210	125	126	5
-11024	-4528	10612	-114	192	-179	-13968	2416	-8164	2	-11	-17	-1876	-744	16872	206	-11	-11	-11916	1732	11612	100	-49	-173	-15280	776	-6536	79	11	179	-2440	-740	16576	27	-101	185	125	126	5
-10976	-4640	10612	-89	140	-165	-13972	2380	-8184	-26	-28	-67	-1816	-772	16920	178	-14	3	-11944	1652	11564	125	-15	-166	-15260	788	-6548	65	0	187	-2456	-652	16680	11	-148	199	125	126	5
-11072	-4536	10668	-94	146	-166	-13908	2380	-8200	-16	-59	-91	-1916	-724	17064	172	-19	32	-11908	1704	11628	78	-6	-151	-15300	848	-6552	53	-8	162	-2488	-604	16668	30	-124	215	125	126	5
-11052	-4576	10556	-116	148	-209	-13900	2312	-8156	-2	-22	-87	-1868	-824	16980	197	-10	32	-11972	1748	11552	137	-81	-156	-15244	780	-6588	55	-18	189	-2476	-632	16700	94	-137	202	125	126	5
-11092	-4548	10688	-90	179	-173	-13968	2316	-8260	-15	-24	-52	-1828	-872	17024	190	0	20	-11932	1744	11472	135	-38	-138	-15280	820	-6624	63	-20	149	-2428	-608	16696	26	-117	213	125	126	5
-11016	-4560	10492	-142	154	-169	-13960	2292	-8192	9	-27	-32	-1880	-916	16960	213	-5	42	-11944	1740	11496	131	-76	-146	-15204	840	-6500	63	8	159	-2448	-548	16724	33	-117	243	125	127	5
-11020	-4524	10536	-101	122	-132	-13912	2308	-8260	-35	-67	-13	-1864	-848	17020	189	-3	24	-11976	1752	11576	123	-62	-149	-15264	820	-6580	33	13	142	-2424	-572	16584	34	-140	233	125	126	5
-11044	-4568	10568	-79	127	-161	-13880	2316	-8280	-18	-58	-50	-1840	-852	16940	164	-16	1	-11956	1764	11592	90	-76	-161	-15312	840	-6612	80	11	182	-2428	-656	16640	3	-153	232	125	126	5
-10996	-4572	10564	-82	177	-155	-13932	2380	-8260	-50	-30	-33	-1848	-872	16932	205	22	-12	-11928	1776	11656	119	-115	-145	-15284	744	-6484	75	-10	175	-2432	-652	16708	23	-142	244	125	126	5
-11012	-4568	10612	-52	148	-165	-13932	2328	-8176	9	-47	-41	-1864	-796	16996	191	-43	17	-11932	1744	11520	112	-35	-142	-15288	788	-6408	52	-22	187	-2368	-584	16688	23	-128	217	125	126	5
-11044	-4504	10600	-98	156	-163	-13972	2340	-8112	-14	-23	-20	-1956	-844	16936	199	-15	15	-11888	1728	11452	84	-71	-143	-15244	744	-6624	6	-2	186	-2404	-628	16696	15	-155	247	125	126	5
-11072	-4580	10572	-102	148	-169	-14028	2316	-8220	-18	-27	-30	-1912	-796	17040	171	12	45	-11916	1664	11592	124	-32	-158	-15216	796	-6480	56	-25	178	-2400	-684	16644	30	-139	227	125	126	5
-11092	-4620	10556	-108	188	-177	-13920	2400	-8112	1	-97	-27	-1916	-876	17080	198	-15	31	-11952	1732	11564	126	-47	-214	-15296	768	-6632	48	17	167	-2368	-652	16748	22	-135	210	125	126	5
-11000	-4596	10752	-106	161	-148	-14000	2360	-8192	-17	-53	-60	-1840	-912	17060	192	2	26	-11932	1760	11568	113	-47	-137	-15200	860	-6544	84	27	183	-2432	-580	16556	7	-129	216	125	126	5
-10984	-4604	10528	-90	165	-202	-13964	2376	-8288	-8	-34	-56	-1908	-780	17044	154	-24	-11	-11948	1748	11564	121	-29	-159	-15260	836	-6512	58	-32	177	-2428	-532	16628	29	-139	225	125	127	5
-10956	-4524	10644	-112	159	-182	-13984	2344	-8340	26	-49	-31	-1948	-916	16984	164	-26	9	-11940	1724	11520	139	-71	-119	-15268	792	-6584	33	-29	206	-2408	-580	16652	-14	-151	192	125	126	5
-11048	-4568	10640	-107	156	-160	-13988	2400	-8260	0	-8	-58	-1860	-864	16932	154	-5	41	-11928	1768	11548	120	-32	-159	-15268	860	-6480	76	-12	149	-2392	-588	16728	-3	-126	210	125	126	5
-11056	-4536	10568	-103	145	-160	-13968	2420	-8252	-1	-20	-52	-1932	-856	16940	190	-16	21	-11900	1736	11656	119	-40	-197	-15272	816	-6548	43	17	136	-2444	-608	16732	8	-135	206	125	127	5
-11056	-4540	10588	-75	156	-155	-13936	2268	-8132	-12	-45	-33	-1948	-840	16928	192	-12	1	-11916	1804	11668	103	-30	-185	-15268	764	-6440	45	-27	164	-2436	-652	16688	10	-124	198	125	126	5
-10976	-4636	10540	-142	194	-161	-13956	2376	-8136	21	-58	-49	-1920	-904	16936	203	7	23	-11848	1752	11656	91	-62	-130	-15284	828	-6480	70	-34	161	-2364	-584	16616	31	-136	219	125	127	5
-11048	-4568	10548	-85	175	-157	-13912	2316	-8200	-9	-31	-51	-1840	-816	16880	170	-16	61	-11928	1704	11528	117	-41	-158	-15232	820	-6604	19	-17	152	-2452	-584	16640	16	-126	214	125	126	5
-11016	-4496	10636	-99	155	-156	-13928	2336	-8156	-44	-71	-57	-1816	-852	17056	185	-16	37	-11920	1744	11656	85	-27	-168	-15264	780	-6524	46	5	144	-2472	-616	16704	17	-131	196	125	127	5
-10968	-4576	10628	-125	183	-177	-13988	2332	-8216	-33	-56	-77	-1840	-860	16968	214	-1	47	-11980	1688	11548	107	-35	-159	-15260	844	-6548	47	-6	151	-2408	-648	16652	62	-124	240	125	127	5
-11044	-4524	10536	-81	156	-145	-13968	2332	-8208	-7	-53	-41	-1816	-848	16948	169	-16	33	-11912	1724	11492	126	-15	-147	-15296	800	-6432	50	-24	161	-2428	-624	16664	51	-121	232	125	126	5
-11060	-4600	10472	-86	167	-187	-13900	2332	-8276	-24	-32	-54	-1936	-904	17036	195	-11	12	-11920	1776	11524	134	-44	-166	-15280	764	-6376	77	3	172	-2424	-556	16700	28	-138	242	125	126	5
-11000	-4588	10564	-113	158	-195	-13976	2316	-8116	-9	-76	-26	-1876	-808	16984	212	-20	13	-12028	1728	11512	113	-32	-179	-15284	840	-6552	47	-10	165	-2364	-556	16664	16	-172	244	125	126	5
-11048	-4584	10448	-67	154	-124	-13980	2392	-8200	-41	-42	-51	-1868	-876	16980	174	-20	-9	-11952	1720	11580	93	-4	-160	-15264	820	-6504	59	10	135	-2444	-608	16672	-14	-121	190	125	127	5
-10996	-4552	10624	-109	178	-168	-13896	2348	-8236	-12	-44	-22	-1840	-852	16988	156	-3	-7	-11916	1728	11600	138	-47	-174	-15236	740	-6560	26	20	137	-2308	-672	16632	30	-151	225	125	126	5
-11004	-4568	10584	-95	162	-167	-13968	2340	-8264	-3	-20	-46	-1892	-776	16996	186	-20	1	-11896	1776	11620	102	-6	-159	-15220	788	-6592	58	-12	152	-2388	-624	16652	-2	-156	232	125	126	5
-10956	-4540	10572	-123	177	-194	-13988	2400	-8148	-24	13	-72	-1924	-828	17068	202	25	34	-11884	1760	11604	152	-36	-149	-15276	816	-6560	43	25	133	-2448	-584	16636	34	-140	203	125	126	5
-11012	-4572	10556	-161	132	-194	-13928	2340	-8232	-33	-4	-67	-1872	-808	16968	204	-14	1	-12036	1760	11576	106	-32	-145	-15180	764	-6520	11	-17	125	-2412	-576	16680	52	-99	202	125	127	5
-10980	-4568	10636	-161	152	-153	-13892	2316	-8244	16	-30	-77	-1876	-832	17052	167	-19	32	-11952	1768	11564	128	-42	-166	-15272	788	-6460	47	-34	156	-2432	-548	16676	26	-129	196	125	126	5
-11044	-4520	10624	-142	149	-149	-13932	2348	-8188	21	-12	-40	-1964	-864	16944	159	2	9	-11948	1772	11532	122	-20	-182	-15272	796	-6500	43	-36	131	-2436	-520	16632	-11	-146	218	125	127	5
-10992	-4600	10684	-122	137	-170	-13936	2364	-8148	8	-32	-43	-1904	-820	16964	196	-23	30	-11944	1676	11600	118	-34	-172	-15236	788	-6452	45	-11	151	-2540	-628	16708	12	-141	238	125	126	5
-10924	-4564	10624	-94	176	-167	-13960	2252	-8168	-12	-40	2	-1872	-900	17012	212	-28	10	-11928	1740	11568	117	-16	-132	-15176	784	-6616	46	-31	154	-2500	-716	16632	-1	-103	188	125	127	5
-11056	-4564	10520	-115	155	-191	-13968	2308	-8216	12	-6	-11	-1940	-796	16936	178	-13	31	-11960	1764	11572	111	-40	-200	-15308	812	-6492	80	-46	137	-2484	-640	16644	42	-108	244	125	126	5
-11008	-4528	10604	-62	127	-143	-14048	2284	-8296	18	-51	-22	-1852	-896	16956	205	-19	23	-11964	1724	11640	97	9	-128	-15252	812	-6544	80	-35	140	-2500	-644	16756	3	-159	199	125	127	5
-10948	-4524	10540	-92	188	-176	-14012	2332	-8208	40	-30	-63	-1868	-860	16976	186	-31	25	-11996	1680	11540	120	-51	-147	-15280	792	-6592	48	17	142	-2444	-700	16612	32	-164	228	125	126	5
-11036	-4572	10564	-80	186	-146	-13936	2352	-8240	-31	-74	-54	-1828	-828	17044	199	-62	28	-11876	1684	11584	123	-31	-148	-15236	816	-6548	58	-51	176	-2384	-640	16632	-3	-140	228	125	126	5
-11040	-4528	10476	-71	188	-126	-13964	2320	-8160	-4	-82	-25	-1864	-864	17172	181	3	38	-11928	1732	11692	115	-49	-169	-15244	812	-6644	68	-26	146	-2408	-564	16628	37	-119	218	125	126	5
-11024	-4524	10576	-45	163	-158	-13900	2312	-8276	5	-42	-54	-1864	-872	16964	168	5	32	-11956	1716	11548	104	3	-158	-15268	760	-6548	89	-8	148	-2416	-568	16592	28	-153	213	125	126	5
-11004	-4500	10604	-89	147	-181	-13912	2324	-8304	-9	-75	-42	-1844	-860	16908	201	16	5	-11940	1796	11580	137	-60	-173	-15260	872	-6616	61	17	118	-2420	-600	16688	35	-156	218	125	126	5
-11068	-4552	10568	-42	157	-157	-13960	2320	-8132	-33	-35	-57	-1764	-840	17036	190	32	-3	-11936	1744	11644	118	-46	-157	-15244	800	-6496	92	-31	155	-2448	-592	16632	5	-141	253	125	127	5
-11008	-4624	10640	-107	176	-166	-13992	2328	-8144	9	-39	-22	-1864	-824	16988	209	-26	31	-11904	1784	11660	129	-23	-205	-15360	800	-6444	27	-17	151	-2356	-604	16684	-18	-124	232	125	126	5
-11044	-4580	10540	-94	163	-166	-13928	2304	-8216	-8	-27	-29	-1896	-804	17120	185	-11	41	-11900	1752	11604	110	-21	-159	-15264	744	-6484	64	-8	146	-2436	-608	16680	3	-128	246	125	127	5
-11032	-4588	10484	-81	146	-143	-13936	2332	-8248	-1	-32	-39	-1904	-816	16928	185	19	48	-11864	1700	11580	125	-39	-167	-15300	780	-6488	67	-9	123	-2468	-592	16708	53	-103	249	125	127	5
-11020	-4496	10672	-83	170	-144	-13960	2364	-8108	1	-22	-53	-1876	-812	17036	202	-42	22	-11944	1704	11556	127	-93	-151	-15244	784	-6544	62	-25	163	-2480	-580	16576	41	-121	244	125	126	5
-11048	-4532	10556	-114	174	-169	-13920	2348	-8200	-26	-22	-49	-1868	-764	17028	200	-2	33	-11912	1696	11576	117	-21	-185	-15224	776	-6540	67	4	155	-2404	-660	16608	-3	-142	233	125	127	5
-10992	-4592	10592	-82	160	-129	-13964	2412	-8280	-33	-50	-17	-1904	-824	17132	204	0	9	-11872	1708	11612	104	-18	-168	-15212	816	-6572	60	-21	167	-2464	-528	16680	27	-150	223	125	127	5
-10996	-4552	10616	-96	153	-160	-13940	2408	-8256	10	11	-36	-1960	-844	17016	136	-4	17	-11888	1728	11520	120	-73	-170	-15252	796	-6460	45	8	146	-2468	-632	16656	14	-122	214	125	127	5
-11060	-4536	10652	-77	146	-149	-13964	2292	-8196	14	-38	-38	-1912	-848	17048	166	2	24	-11956	1744	11516	143	-45	-149	-15240	832	-6572	31	-48	113	-2456	-548	16620	22	-128	207	125	126	5
-11020	-4548	10520	-108	161	-155	-13984	2324	-8380	-43	-57	-18	-1832	-820	17084	165	-27	42	-11904	1740	11528	120	-77	-116	-15288	816	-6560	61	8	146	-2420	-564	16680	29	-129	217	125	127	5
-11008	-4572	10604	-97	156	-157	-13932	2384	-8260	-45	-43	-13	-1892	-796	17008	202	-1	32	-11912	1756	11616	108	-24	-170	-15288	800	-6552	34	-26	126	-2380	-656	16608	27	-148	233	125	127	5
-11056	-4596	10532	-105	188	-167	-13932	2336	-8232	-14	-63	-66	-1892	-832	17076	210	-30	52	-11912	1748	11512	118	-65	-172	-15292	768	-6540	88	-24	169	-2420	-608	16624	19	-164	211	125	127	5
-11016	-4564	10572	-88	142	-131	-13948	2372	-8120	-5	-58	-95	-1884	-804	17048	161	-3	41	-11952	1736	11640	129	-36	-155	-15188	780	-6520	49	-14	154	-2424	-636	16628	45	-150	207	125	127	5
-11036	-4520	10560	-141	193	-184	-13952	2332	-8236	-27	-38	-67	-1832	-840	16900	187	4	32	-12020	1740	11580	130	-35	-183	-15236	812	-6596	51	-37	145	-2408	-588	16644	60	-78	200	125	126	5
-11076	-4556	10544	-102	173	-158	-13904	2312	-8204	-11	-31	-64	-1912	-876	16992	197	-5	33	-11944	1780	11508	127	-41	-157	-15256	808	-6472	30	2	147	-2456	-648	16736	66	-127	224	125	127	5
-11028	-4516	10572	-124	177	-145	-13972	2268	-8280	-6	-52	-71	-1868	-932	16952	205	-1	33	-11944	1744	11556	90	-43	-171	-15220	832	-6636	62	-32	150	-2452	-540	16804	42	-95	275	125	126	5
-11012	-4492	10528	-72	180	-183	-14004	2344	-8300	-6	-20	-50	-1860	-844	16972	200	-6	29	-12012	1764	11668	101	-43	-146	-15224	804	-6608	64	-5	174	-2384	-584	16660	1	-133	240	125	126	5
-10972	-4516	10464	-62	166	-173	-13924	2360	-8212	-40	-34	-22	-1896	-844	17020	204	0	32	-11880	1744	11548	94	5	-169	-15252	736	-6472	57	-3	192	-2460	-612	16580	-21	-141	222	125	126	5
-11028	-4488	10532	-102	150	-166	-13920	2372	-8132	-4	-35	-6	-1900	-780	16920	221	-2	34	-11900	1696	11548	106	-8	-177	-15244	728	-6532	72	-11	164	-2388	-660	16716	-25	-171	202	125	126	5
-10996	-4544	10580	-71	131	-191	-13976	2316	-8264	-36	-8	-30	-1804	-772	16972	184	1	39	-11836	1764	11684	95	-33	-163	-15284	792	-6404	50	29	172	-2376	-632	16620	6	-149	188	125	126	5
-11072	-4596	10560	-149	153	-172	-13940	2420	-8280	-3	-15	-88	-1868	-792	17024	168	0	10	-11916	1804	11580	118	-50	-145	-15276	764	-6588	50	-12	156	-2424	-620	16648	76	-115	190	125	126	5
-10916	-4580	10584	-91	166	-199	-13956	2364	-8144	-3	-11	-57	-1900	-792	16964	172	-24	16	-11920	1692	11592	116	-36	-180	-15256	768	-6528	43	-20	160	-2392	-600	16560	41	-129	215	125	127	5
-11028	-4616	10596	-119	182	-169	-13924	2280	-8092	-17	-36	-58	-1888	-860	16940	185	-18	27	-11920	1744	11488	95	-13	-167	-15252	872	-6568	100	17	171	-2420	-500	16612	29	-119	221	125	126	5
-10996	-4596	10624	-144	169	-176	-13920	2336	-8268	-18	-38	-52	-1916	-860	16992	197	-2	29	-11912	1748	11624	145	-24	-148	-15276	812	-6612	54	8	158	-2432	-476	16656	17	-131	253	125	126	5
-11000	-4552	10500	-112	158	-184	-13904	2288	-8320	-31	-19	-8	-1872	-916	17056	172	-5	14	-11872	1784	11544	88	-50	-191	-15252	828	-6496	35	8	158	-2476	-508	16648	-11	-167	260	125	127	5
-10992	-4544	10588	-133	151	-175	-13976	2332	-8256	-31	-63	-40	-1924	-844	17036	225	-35	31	-11972	1768	11520	98	-72	-147	-15264	768	-6472	72	-7	105	-2408	-640	16632	-38	-147	216	125	126	5
-10968	-4552	10472	-87	154	-149	-13916	2360	-8364	3	-41	-14	-1916	-832	17016	222	0	16	-11960	1784	11532	119	-75	-189	-15268	756	-6584	65	13	146	-2384	-600	16676	26	-126	210	125	126	5
-11000	-4616	10592	-104	172	-150	-13964	2304	-8120	-26	-38	-35	-1888	-820	16976	176	-11	8	-11896	1700	11504	144	-54	-158	-15248	796	-6472	38	-16	129	-2296	-656	16576	25	-144	235	125	126	5
-10980	-4576	10532	-131	152	-160	-13924	2356	-8328	11	-13	-14	-1836	-804	17044	156	-2	40	-12004	1716	11676	107	-57	-167	-15224	800	-6636	66	-62	183	-2440	-660	16640	56	-133	231	125	126	5
-11052	-4568	10640	-97	164	-142	-13936	2360	-8268	-31	-77	-20	-1908	-824	16940	191	-30	50	-11872	1776	11544	94	-43	-202	-15320	724	-6496	54	-11	188	-2400	-584	16560	45	-146	223	125	126	5
-11000	-4544	10476	-82	182	-168	-13964	2360	-8224	-7	-76	-59	-1832	-892	17112	224	6	14	-11944	1796	11596	97	-53	-142	-15240	808	-6472	36	-30	138	-2464	-576	16708	52	-150	207	125	127	5
-11028	-4548	10512	-107	158	-189	-14008	2352	-8192	13	-20	-21	-1856	-828	17048	167	-23	48	-11944	1756	11536	135	-51	-166	-15260	844	-6592	9	-25	184	-2360	-592	16572	39	-134	211	125	126	5
-11000	-4588	10572	-91	166	-172	-13948	2292	-8228	31	-42	-35	-1900	-872	17008	178	0	18	-11904	1716	11588	125	-53	-172	-15276	820	-6548	42	-3	174	-2408	-556	16728	42	-129	202	125	126	5
-10972	-4528	10572	-134	176	-171	-13952	2348	-8176	-8	-68	-37	-1912	-816	17076	216	-10	38	-11948	1716	11708	118	-73	-179	-15320	832	-6560	62	-10	155	-2476	-544	16804	32	-143	228	125	126	5
-11008	-4632	10548	-167	149	-186	-13980	2352	-8232	-60	-23	-28	-1884	-868	17112	226	-21	13	-11904	1672	11696	146	-90	-141	-15236	720	-6640	70	2	173	-2440	-596	16664	6	-132	286	125	126	5
-11024	-4568	10596	-146	153	-173	-13936	2364	-8188	-13	-26	-49	-1884	-868	16936	174	15	43	-11888	1704	11512	169	-97	-136	-15224	828	-6536	61	-8	194	-2380	-660	16728	28	-125	220	125	127	5
-10980	-4532	10620	-147	132	-157	-13904	2348	-8144	16	-23	6	-1856	-808	17076	159	-1	71	-11980	1788	11612	148	-67	-192	-15224	820	-6512	38	-11	144	-2440	-584	16592	34	-121	234	125	127	5
-11032	-4540	10556	-119	135	-130	-13960	2408	-8128	-3	-27	-48	-1856	-816	16952	209	18	41	-11916	1716	11552	134	-39	-154	-15292	800	-6488	76	14	144	-2380	-636	16648	30	-128	245	125	126	5
-11016	-4552	10660	-133	159	-183	-13920	2356	-8332	-5	4	-77	-1920	-908	16900	211	11	23	-11936	1704	11612	121	-62	-156	-15304	804	-6604	50	-27	192	-2468	-676	16592	30	-107	222	125	126	5
-11008	-4528	10580	-114	212	-154	-13936	2380	-8180	-41	-55	-47	-1912	-776	17056	206	-13	27	-11892	1780	11532	112	-36	-154	-15276	824	-6492	58	-22	143	-2448	-564	16692	2	-162	213	125	127	5
-11004	-4492	10588	-101	179	-188	-13956	2400	-8148	-14	-48	-71	-1872	-768	16948	181	-10	21	-11932	1724	11592	136	-35	-160	-15288	820	-6540	57	-25	150	-2440	-576	16680	14	-124	206	125	127	5
-10956	-4596	10560	-45	176	-168	-13868	2336	-8160	35	-49	-43	-1904	-908	17000	161	-34	9	-11900	1720	11608	96	-27	-139	-15300	760	-6648	57	-47	153	-2416	-612	16632	9	-159	231	125	126	5
-11048	-4556	10480	-78	178	-163	-13884	2368	-8196	-12	-76	-11	-1932	-900	17016	195	-5	25	-11964	1736	11488	149	-57	-140	-15228	736	-6580	56	-23	157	-2412	-564	16684	22	-113	217	125	127	5
-11000	-4552	10412	-88	168	-160	-13988	2364	-8296	3	-35	-49	-1908	-864	17032	224	-24	22	-11916	1740	11708	109	-40	-149	-15208	756	-6508	39	-26	172	-2476	-608	16692	11	-138	187	125	126	5
-11068	-4600	10548	-57	153	-165	-13908	2356	-8296	-21	-80	-54	-1848	-844	16996	184	-37	16	-11900	1828	11640	132	6	-150	-15284	748	-6408	61	-41	116	-2376	-492	16680	-30	-147	218	125	127	5
-11060	-4588	10576	-109	165	-181	-13888	2340	-8216	13	-11	-36	-1856	-840	17044	188	-21	62	-11920	1748	11596	139	-50	-149	-15232	792	-6552	43	-13	153	-2492	-560	16676	22	-127	251	125	127	5
-11016	-4596	10560	-103	186	-180	-13948	2352	-8188	-5	-33	-16	-1900	-832	16984	155	-34	19	-11872	1748	11668	90	-66	-164	-15236	784	-6432	51	-18	143	-2392	-604	16768	21	-131	210	125	127	5
-10960	-4480	10676	-83	147	-159	-13960	2312	-8268	1	-24	-64	-1872	-836	16956	217	-8	39	-11908	1764	11544	119	-47	-154	-15308	772	-6568	51	-36	170	-2424	-704	16692	21	-150	220	125	127	5
-11012	-4592	10540	-81	153	-144	-13952	2348	-8096	-22	-58	-37	-1856	-812	17016	189	-24	44	-11948	1704	11576	128	-40	-188	-15236	788	-6488	105	-20	157	-2420	-636	16636	39	-100	185	125	126	5
-11036	-4572	10528	-98	153	-167	-13960	2368	-8176	-5	-45	-22	-1916	-780	16892	202	-19	31	-11976	1752	11564	140	-14	-137	-15288	808	-6536	69	-17	173	-2452	-584	16632	3	-156	184	125	126	5
-10992	-4620	10540	-99	175	-129	-13956	2356	-8216	-33	-24	-49	-1848	-812	17048	195	-9	32	-11988	1704	11544	143	-49	-173	-15220	688	-6568	30	-51	181	-2448	-676	16612	72	-139	192	125	127	5
-10980	-4540	10520	-136	146	-172	-13984	2356	-8236	-25	-23	-25	-1908	-784	16988	173	-5	10	-11916	1756	11656	139	-50	-158	-15260	760	-6536	25	-6	148	-2488	-608	16660	49	-134	177	125	126	5
-11008	-4504	10520	-119	157	-131	-13960	2356	-8260	-10	-30	-56	-1852	-868	17040	201	0	21	-11956	1744	11624	114	-81	-158	-15236	804	-6572	60	-46	159	-2468	-584	16640	26	-145	225	125	127	5
-11084	-4580	10612	-97	159	-202	-13912	2340	-8176	-13	-33	-58	-1972	-840	16960	210	-11	46	-11932	1756	11496	113	-89	-188	-15212	812	-6572	50	-13	156	-2504	-588	16704	22	-107	189	125	127	5
-11028	-4568	10532	-98	169	-161	-13980	2376	-8208	6	-55	-51	-1964	-820	17004	193	6	15	-11912	1760	11496	119	-47	-124	-15248	816	-6532	73	-25	153	-2428	-532	16608	30	-121	212	125	126	5
-11064	-4544	10612	-88	173	-194	-13956	2348	-8320	-32	-60	-39	-1864	-836	16996	204	-1	28	-11912	1684	11608	116	-60	-165	-15284	840	-6572	82	37	124	-2480	-544	16608	-10	-162	206	125	127	5
-11044	-4520	10596	-74	143	-186	-14024	2384	-8208	-33	-31	-55	-1928	-808	16836	209	18	16	-11956	1744	11524	115	-98	-136	-15304	824	-6564	79	11	150	-2456	-656	16644	-2	-150	230	125	127	5
-10972	-4496	10600	-111	184	-172	-13932	2324	-8224	-32	-44	-52	-1796	-840	16948	177	-31	35	-12024	1724	11684	109	-23	-173	-15252	828	-6420	31	-25	152	-2368	-620	16644	28	-168	218	125	126	5
-11016	-4580	10636	-108	165	-162	-13940	2360	-8236	-6	-30	-69	-1848	-844	16944	184	-8	41	-11936	1768	11548	143	-12	-172	-15252	704	-6416	33	-11	138	-2388	-600	16628	1	-139	217	125	126	5
-10968	-4556	10496	-99	212	-167	-13920	2360	-8208	-15	-20	-63	-1904	-820	16852	200	15	18	-11900	1752	11552	113	-35	-174	-15220	780	-6608	38	-10	174	-2448	-576	16556	48	-143	223	125	127	5
-11012	-4576	10508	-107	188	-170	-13944	2336	-8244	4	-46	-65	-1876	-864	16936	190	-28	20	-11908	1768	11576	152	-34	-128	-15180	836	-6564	49	-66	149	-2424	-552	16588	48	-129	223	125	127	5
-10996	-4544	10552	-99	185	-160	-13940	2372	-8312	-34	-65	-56	-1868	-916	16972	208	-8	24	-11912	1760	11620	134	-27	-137	-15256	828	-6568	40	-13	143	-2492	-524	16660	22	-108	221	125	127	5
-10976	-4524	10572	-106	172	-188	-13960	2308	-8224	-18	-44	-54	-1884	-912	17044	232	-11	19	-11916	1780	11460	116	-44	-154	-15236	784	-6408	75	-27	162	-2392	-548	16620	-12	-149	206	125	126	5
-11008	-4584	10576	-124	147	-158	-13948	2304	-8292	-16	-50	-10	-1912	-860	16924	212	-10	24	-11904	1736	11540	110	-57	-151	-15372	788	-6628	57	-8	182	-2464	-640	16664	5	-143	221	125	127	5
-10964	-4576	10568	-78	149	-182	-13948	2348	-8140	-6	-55	-28	-1832	-836	17004	194	-30	-11	-11908	1732	11612	127	-20	-117	-15204	732	-6416	68	-21	164	-2456	-600	16684	16	-127	225	125	126	5
-11048	-4524	10556	-83	146	-144	-14020	2312	-8100	-14	-47	-40	-1840	-776	16920	171	5	18	-11928	1836	11516	158	-62	-155	-15232	788	-6580	67	-38	168	-2412	-624	16696	14	-93	208	125	126	5
-10992	-4608	10496	-85	137	-194	-13948	2396	-8204	-26	-58	-62	-1868	-788	16952	182	24	26	-11928	1760	11640	139	-58	-159	-15296	816	-6544	81	-10	185	-2468	-568	16584	-3	-121	216	125	126	5
-10976	-4560	10612	-69	172	-195	-13960	2288	-8228	-9	-46	-41	-1820	-804	16892	193	-36	22	-11916	1728	11536	110	-6	-132	-15232	780	-6624	45	2	143	-2396	-520	16660	34	-120	201	125	127	5
-11000	-4492	10664	-95	133	-147	-13988	2396	-8216	9	-22	-39	-1832	-844	16976	175	-2	42	-11920	1660	11568	95	-75	-157	-15316	796	-6580	78	-47	190	-2400	-588	16544	11	-147	197	125	127	5
-10996	-4544	10628	-123	183	-166	-13896	2368	-8284	17	-32	-50	-1860	-920	16944	225	27	-2	-11936	1808	11652	114	-47	-139	-15220	808	-6576	52	-12	154	-2444	-584	16668	1	-130	219	125	126	5
-10980	-4540	10628	-113	193	-135	-14004	2304	-8276	-33	-16	-51	-1936	-824	16936	170	-7	28	-11920	1728	11568	140	-55	-152	-15288	812	-6468	87	-30	137	-2492	-616	16756	-3	-141	200	125	126	5
-10984	-4528	10544	-104	154	-167	-13964	2324	-8288	-32	-34	-54	-1924	-860	16924	178	0	34	-11940	1772	11588	122	-62	-187	-15312	812	-6564	57	-15	167	-2408	-568	16712	28	-134	229	125	127	5
-11044	-4548	10568	-108	154	-146	-13972	2336	-8272	-1	-91	-68	-1896	-896	16876	178	21	24	-11936	1752	11680	126	-61	-174	-15268	836	-6568	60	10	139	-2444	-660	16664	19	-137	213	125	127	5
-11036	-4604	10660	-57	190	-149	-13916	2356	-8140	-2	-49	-69	-1840	-816	16948	181	-6	32	-11984	1700	11572	133	-31	-171	-15232	808	-6488	75	-28	143	-2428	-652	16568	18	-116	213	125	127	5
-11032	-4616	10556	-105	145	-172	-13932	2344	-8192	-12	-56	-39	-1848	-820	17056	174	-39	60	-11952	1776	11588	101	-14	-149	-15296	708	-6564	55	-11	142	-2440	-636	16724	8	-138	216	125	127	5
-11020	-4572	10604	-87	123	-165	-13964	2336	-8228	-18	-42	-69	-1844	-768	17028	200	16	27	-11900	1752	11560	166	-87	-139	-15236	744	-6580	63	-6	164	-2428	-672	16712	1	-155	231	125	126	5
-11072	-4600	10616	-95	165	-175	-13980	2284	-8280	4	-13	-45	-1872	-844	16956	205	1	24	-11916	1768	11520	82	-43	-151	-15248	788	-6360	89	-20	177	-2440	-628	16744	54	-133	196	125	126	5
-11016	-4584	10580	-115	159	-191	-13916	2316	-8200	22	-61	-56	-1868	-780	16920	160	-8	41	-11920	1748	11576	137	-38	-135	-15252	764	-6500	46	-13	175	-2460	-580	16688	53	-143	202	125	127	5
-10992	-4524	10572	-101	166	-163	-13928	2332	-8284	-3	-32	-49	-1900	-876	16996	171	-31	24	-11916	1760	11572	110	-54	-182	-15328	852	-6456	31	-11	142	-2476	-544	16608	-5	-137	224	125	126	5
-10956	-4580	10576	-89	143	-172	-13980	2340	-8176	-18	-50	-24	-1868	-884	17036	174	-3	33	-11884	1756	11540	131	-78	-145	-15188	832	-6484	22	-44	135	-2464	-520	16708	31	-122	211	125	127	5
-11060	-4596	10568	-128	151	-171	-13888	2308	-8220	-39	-32	-52	-1892	-876	17088	186	3	4	-12004	1744	11588	139	-22	-129	-15268	800	-6464	54	-19	122	-2416	-580	16688	-2	-90	238	125	127	5
-11000	-4592	10580	-144	132	-170	-13948	2348	-8156	-6	-56	-15	-1852	-880	16900	168	-16	43	-11856	1776	11600	117	-77	-162	-15244	764	-6464	61	-18	147	-2368	-584	16832	52	-119	247	125	127	5
-11016	-4552	10560	-150	156	-167	-13944	2296	-8288	28	-39	-31	-1876	-872	17044	224	25	52	-11932	1768	11584	160	-55	-199	-15292	744	-6540	65	-6	172	-2440	-660	16672	-8	-121	241	125	127	5
-10948	-4528	10520	-128	161	-167	-13916	2340	-8276	-11	-67	-47	-1904	-684	16888	199	5	33	-11876	1740	11560	148	-50	-166	-15236	808	-6620	45	-18	162	-2416	-612	16724	11	-152	213	125	127	5
-11032	-4616	10568	-125	161	-154	-13936	2352	-8344	-43	-32	-56	-1844	-780	16896	200	-44	43	-11984	1780	11568	136	-61	-159	-15252	804	-6600	41	52	180	-2464	-628	16644	36	-146	218	125	126	5
-11060	-4524	10572	-118	138	-161	-13964	2340	-8268	-40	-30	-61	-1892	-848	17032	166	-4	9	-11932	1740	11576	79	-9	-157	-15268	808	-6556	31	-24	187	-2452	-576	16624	37	-123	207	125	127	5
-10972	-4536	10496	-82	178	-142	-13948	2364	-8280	-12	-41	-27	-1888	-848	17024	173	-55	55	-11936	1668	11624	96	-23	-159	-15336	836	-6488	51	-40	167	-2448	-520	16660	52	-120	210	125	126	5
-11024	-4548	10520	-77	174	-206	-14024	2304	-8404	2	-38	-40	-1928	-924	16896	173	-3	16	-11884	1788	11540	104	-53	-145	-15272	816	-6540	44	-12	161	-2480	-544	16660	30	-140	214	125	127	5
-11016	-4560	10656	-102	167	-175	-13984	2352	-8328	-25	-69	-2	-1844	-868	17048	181	10	24	-11988	1752	11568	114	-6	-157	-15228	824	-6468	74	-38	139	-2396	-544	16680	14	-129	232	125	127	5
-11016	-4576	10640	-94	163	-153	-13956	2324	-8200	-20	-31	-101	-1836	-892	16964	190	-22	28	-11956	1776	11604	116	-39	-174	-15308	800	-6520	82	-32	173	-2424	-616	16656	-19	-150	235	125	127	5
-11028	-4608	10596	-73	180	-177	-13932	2292	-8220	-32	-72	-25	-1860	-812	16964	213	-5	-1	-11960	1724	11572	105	-48	-178	-15268	788	-6548	50	-35	159	-2392	-596	16564	-5	-139	258	125	126	5
-10996	-4508	10580	-73	182	-156	-13968	2384	-8192	3	-16	-69	-1852	-856	17004	219	-20	21	-12000	1740	11664	125	-67	-165	-15160	756	-6516	37	-38	139	-2404	-676	16584	27	-97	247	125	126	5
-11020	-4560	10660	-72	170	-159	-13928	2332	-8152	-49	-50	-58	-1892	-832	16936	217	-25	12	-11988	1732	11548	143	-54	-154	-15300	740	-6580	38	-21	152	-2392	-624	16636	64	-118	213	125	127	5
-11036	-4508	10536	-92	166	-150	-13936	2332	-8164	7	-23	-36	-1840	-820	17060	206	-14	41	-11936	1756	11636	100	-36	-177	-15264	792	-6484	78	-34	162	-2448	-624	16644	41	-141	212	125	126	5
-10976	-4540	10660	-130	183	-158	-13956	2332	-8252	-17	-36	-78	-1860	-796	17000	173	-21	48	-11940	1736	11664	147	-34	-127	-15276	768	-6528	22	-7	167	-2408	-568	16700	31	-133	213	125	127	5
-10992	-4568	10668	-138	180	-160	-13956	2252	-8284	-12	-40	-48	-1920	-908	16952	151	-6	46	-11996	1728	11472	147	-61	-148	-15252	792	-6548	74	2	179	-2400	-548	16728	-13	-138	199	125	127	5
-11000	-4528	10644	-118	182	-181	-13900	2296	-8040	20	5	-67	-1900	-840	16960	185	-14	-7	-11928	1728	11584	140	-78	-132	-15244	844	-6496	57	-20	152	-2380	-568	16836	11	-125	232	125	127	5
-10972	-4568	10496	-151	160	-163	-13972	2340	-8148	-12	-39	-15	-1864	-908	16968	166	3	18	-11976	1708	11504	116	-72	-171	-15228	824	-6492	43	-29	139	-2384	-604	16724	33	-96	237	125	127	5
-11012	-4552	10624	-128	165	-176	-13936	2312	-8272	12	-47	15	-1888	-920	17012	201	-36	6	-11900	1740	11580	114	-56	-180	-15268	760	-6528	58	-21	128	-2424	-584	16564	14	-139	246	125	126	5
-11028	-4556	10664	-96	156	-159	-13932	2336	-8332	14	-43	-46	-1944	-852	16976	174	-9	13	-11912	1748	11584	144	-36	-155	-15252	780	-6484	54	-20	168	-2452	-616	16668	33	-129	240	125	126	5
-11036	-4564	10548	-71	146	-164	-13912	2344	-8276	-30	-41	-28	-1924	-852	17048	194	-24	20	-11876	1752	11508	147	-75	-141	-15332	748	-6604	61	-13	151	-2488	-652	16596	14	-127	232	125	127	5
-11004	-4588	10560	-98	173	-161	-13896	2348	-8140	-65	-45	-49	-1888	-800	16852	194	-20	38	-11956	1732	11540	125	-56	-161	-15280	852	-6536	57	-32	166	-2448	-660	16652	19	-156	228	125	126	5
-11140	-4532	10576	-105	180	-178	-13932	2428	-8220	-27	11	-61	-1876	-800	16904	211	17	35	-11936	1772	11576	137	-11	-128	-15252	752	-6536	63	-29	181	-2440	-632	16652	22	-144	210	125	127	5
-11044	-4548	10524	-91	181	-168	-13984	2300	-8288	-12	-57	-64	-1912	-796	17052	183	-12	35	-11940	1780	11532	128	-36	-140	-15236	756	-6424	63	-52	200	-2416	-668	16728	63	-134	170	125	126	5
-10976	-4588	10552	-102	158	-139	-13992	2412	-8168	13	-35	-70	-1940	-868	17008	165	-26	27	-11940	1748	11512	93	-43	-170	-15284	892	-6552	41	-36	152	-2464	-628	16644	32	-146	194	125	126	5
-11016	-4548	10644	-111	130	-189	-13912	2284	-8144	-12	-56	-57	-1900	-816	16988	158	-12	49	-11924	1728	11544	102	-28	-134	-15240	808	-6544	36	-6	193	-2444	-592	16728	28	-139	243	125	127	5
-11068	-4580	10588	-119	154	-171	-13936	2308	-8156	21	-31	-72	-1876	-892	16972	206	-1	26	-12008	1776	11616	158	-30	-158	-15228	844	-6556	94	-28	148	-2468	-548	16732	67	-110	233	125	126	5
-11032	-4636	10576	-88	153	-174	-13956	2276	-8280	-4	-62	-38	-1884	-860	17008	226	17	14	-11932	1772	11532	132	-86	-148	-15260	848	-6448	55	-6	162	-2384	-508	16720	-14	-139	224	125	127	5
-10992	-4524	10548	-87	157	-173	-13992	2324	-8240	-19	-57	-40	-1804	-888	17024	197	-3	33	-11916	1792	11388	103	-66	-167	-15300	792	-6472	55	-14	134	-2428	-576	16704	-17	-186	231	125	126	5
-10964	-4564	10616	-95	161	-173	-13988	2324	-8292	-29	-60	-28	-1844	-744	16944	188	-1	20	-11952	1764	11496	131	-64	-179	-15284	824	-6508	54	2	144	-2436	-568	16676	-7	-141	224	125	126	5
-11020	-4468	10564	-101	163	-159	-13992	2312	-8276	-26	-26	-7	-1864	-856	17048	190	5	29	-11888	1716	11628	130	-77	-135	-15228	752	-6556	43	-4	141	-2400	-628	16612	3	-161	212	125	126	5
-11016	-4536	10632	-92	178	-171	-13968	2372	-8192	-2	-28	-15	-1904	-772	17048	181	-12	38	-12004	1760	11572	89	-42	-128	-15260	736	-6612	94	2	166	-2372	-684	16644	19	-159	231	125	127	5
-11004	-4544	10576	-94	175	-155	-13896	2376	-8192	5	-31	-35	-1868	-856	16952	187	-3	15	-11896	1732	11612	90	-45	-118	-15300	780	-6532	85	-42	155	-2432	-616	16584	56	-125	194	125	127	5
-11044	-4564	10624	-121	157	-176	-13916	2340	-8276	14	-55	-50	-1884	-860	16816	186	-11	5	-11936	1720	11540	145	-43	-149	-15260	864	-6508	23	-25	176	-2416	-548	16624	36	-116	204	125	126	5
-11004	-4564	10544	-97	155	-166	-13948	2328	-8196	-9	-12	-25	-1904	-864	17020	161	0	22	-12012	1752	11560	111	-47	-158	-15240	792	-6432	52	5	191	-2440	-584	16632	31	-148	196	125	127	5
-11016	-4568	10632	-128	155	-159	-13916	2336	-8196	-20	-20	-35	-1844	-904	17144	178	-17	3	-11968	1748	11596	104	-29	-124	-15224	816	-6516	51	-16	131	-2380	-560	16672	7	-142	216	125	127	5
-10980	-4580	10472	-79	139	-161	-13980	2320	-8196	-1	-47	-37	-1884	-896	16984	143	-5	7	-11908	1724	11536	135	-30	-189	-15272	744	-6580	48	-20	156	-2452	-608	16680	-6	-131	239	125	127	5
-10988	-4624	10612	-74	172	-192	-13932	2332	-8296	-8	-25	-13	-1928	-856	16972	224	-1	17	-11924	1820	11672	88	-14	-172	-15296	768	-6512	66	-44	144	-2404	-612	16600	13	-149	217	125	127	5
-11040	-4552	10524	-86	131	-176	-13924	2380	-8272	-9	-44	-29	-1896	-812	16952	201	1	-1	-11892	1700	11572	106	-68	-168	-15228	828	-6548	87	-25	166	-2360	-632	16632	65	-128	231	125	127	5
-11020	-4544	10536	-96	138	-181	-13924	2328	-8192	-28	-1	-50	-1848	-760	17008	163	-48	41	-11940	1788	11552	123	-39	-168	-15248	800	-6472	77	-16	157	-2420	-628	16732	49	-118	208	125	126	5
-11064	-4592	10608	-128	154	-175	-13992	2384	-8188	-34	-44	-40	-1856	-800	16940	183	2	43	-11856	1768	11664	103	-36	-198	-15296	812	-6500	46	-16	165	-2392	-572	16628	26	-124	219	125	127	5
-11016	-4556	10536	-80	145	-198	-13984	2372	-8172	-19	-93	-40	-1880	-816	17004	195	-13	18	-11936	1716	11672	124	-18	-142	-15268	820	-6508	62	-26	172	-2368	-500	16664	30	-135	193	125	126	5
-11028	-4516	10612	-98	159	-175	-13952	2296	-8176	-11	-52	-74	-1828	-876	17084	188	9	32	-11940	1712	11604	115	-29	-164	-15232	824	-6528	65	-26	157	-2432	-508	16712	40	-98	220	125	127	5
-11072	-4596	10528	-116	170	-134	-13924	2348	-8244	11	-27	-43	-1884	-824	16920	166	-17	9	-11904	1752	11588	137	-75	-127	-15356	824	-6520	81	-8	158	-2424	-536	16644	11	-137	231	125	126	5
-10976	-4536	10604	-111	162	-175	-13928	2400	-8352	-10	-31	-36	-1928	-856	16984	205	-49	28	-11956	1748	11640	140	-74	-171	-15256	792	-6564	47	-19	143	-2408	-648	16648	7	-163	233	125	126	5
-11012	-4572	10484	-111	170	-144	-13952	2316	-8092	6	-58	-35	-1888	-804	17076	213	-32	34	-11928	1700	11504	105	-25	-112	-15272	904	-6540	55	-19	185	-2440	-540	16672	20	-130	228	125	126	5
-11040	-4636	10560	-155	169	-209	-13940	2392	-8172	8	-42	-40	-1904	-784	16956	215	-16	2	-11936	1748	11668	131	21	-148	-15224	832	-6500	52	32	135	-2416	-576	16664	11	-159	217	125	127	5
-11040	-4532	10552	-156	184	-169	-13924	2316	-8232	-8	-25	-56	-1820	-840	16940	168	-39	38	-11932	1676	11536	132	-87	-147	-15252	780	-6424	35	-6	157	-2384	-620	16692	52	-99	204	125	126	5
-11048	-4524	10560	-144	165	-167	-13944	2364	-8160	57	-4	-69	-1844	-936	16980	231	22	13	-11896	1780	11500	118	-64	-176	-15220	784	-6688	21	-6	185	-2444	-588	16788	47	-109	214	125	127	5
-11004	-4548	10620	-121	172	-179	-13980	2332	-8252	23	-24	-51	-1940	-868	16980	197	-7	24	-11932	1788	11584	115	-70	-161	-15240	792	-6556	61	-43	142	-2500	-576	16732	18	-117	216	125	127	5
-11068	-4532	10652	-115	122	-171	-13972	2320	-8132	-26	-49	-44	-1864	-888	16996	214	-33	51	-11936	1748	11644	120	-38	-158	-15276	796	-6636	79	-14	160	-2456	-580	16736	12	-148	217	125	126	5
-11124	-4520	10632	-46	167	-152	-13932	2316	-8208	-50	-36	-33	-1944	-852	16948	191	-1	34	-11920	1800	11512	120	-46	-180	-15288	828	-6544	47	2	166	-2460	-624	16732	19	-151	237	125	126	5
-10956	-4592	10636	-65	169	-186	-13944	2328	-8224	2	-53	-42	-1852	-856	16908	206	-39	17	-11888	1732	11504	99	-41	-129	-15272	768	-6528	66	-28	141	-2444	-644	16680	-5	-127	223	125	126	5
-10940	-4584	10580	-101	145	-184	-13996	2308	-8328	-25	-34	-57	-1936	-820	16928	172	7	32	-12036	1704	11568	110	-39	-175	-15208	764	-6624	61	-14	175	-2428	-556	16608	28	-138	228	125	127	5
-11036	-4496	10636	-137	156	-149	-13984	2376	-8252	-31	-20	-58	-1852	-872	16960	201	-21	30	-11932	1744	11596	125	-61	-166	-15284	696	-6576	38	13	135	-2368	-596	16576	33	-129	232	125	126	5
-11064	-4536	10588	-81	146	-157	-13924	2376	-8180	-2	-32	-31	-1860	-836	17000	172	-20	30	-11944	1768	11640	100	5	-172	-15312	840	-6500	45	-22	145	-2364	-552	16552	8	-166	213	125	127	5
-10968	-4564	10516	-67	169	-177	-13916	2372	-8180	-4	-35	-39	-1920	-800	16992	181	-20	32	-11916	1712	11612	109	-39	-141	-15244	808	-6560	39	11	202	-2404	-552	16684	5	-166	195	125	127	5
-11068	-4600	10620	-94	148	-185	-13984	2352	-8316	4	-39	-19	-1924	-864	16980	192	-21	30	-11948	1780	11544	101	14	-184	-15252	800	-6456	57	-12	149	-2412	-628	16712	27	-122	184	125	127	5
-10960	-4536	10592	-92	165	-153	-14004	2388	-8188	13	-28	-43	-1896	-880	16996	189	-18	44	-11940	1756	11576	123	-38	-162	-15256	800	-6600	70	12	190	-2424	-628	16752	29	-133	225	125	126	5
-10956	-4528	10636	-140	174	-147	-14040	2356	-8260	-3	-41	-30	-1888	-820	16956	188	-9	34	-11888	1728	11616	134	48	-145	-15288	828	-6536	70	11	178	-2448	-568	16656	66	-150	193	125	127	5
-11020	-4540	10524	-132	177	-163	-13904	2320	-8300	1	-36	-16	-1848	-924	17016	164	-33	42	-11948	1704	11584	117	-62	-161	-15316	788	-6504	70	-9	110	-2416	-604	16744	11	-120	209	125	127	5
-10984	-4548	10540	-108	148	-157	-13920	2360	-8212	45	-10	-67	-1908	-816	17064	173	-8	3	-11892	1808	11672	118	-36	-157	-15220	740	-6668	60	-33	160	-2436	-556	16676	2	-123	227	125	126	5
-11028	-4588	10592	-73	172	-181	-13976	2340	-8288	-6	-37	-51	-1832	-812	16976	184	28	22	-11900	1732	11604	117	-36	-147	-15236	752	-6592	40	-1	166	-2428	-628	16600	28	-149	218	125	127	5
-10956	-4552	10608	-110	143	-169	-13976	2368	-8132	0	-38	-38	-1880	-868	16940	148	-8	33	-11888	1784	11636	113	-72	-175	-15232	816	-6568	48	20	163	-2436	-604	16664	15	-167	189	125	127	5
-11052	-4524	10620	-116	176	-152	-13988	2336	-8248	-27	-73	10	-1916	-852	16920	183	-19	16	-11924	1728	11568	104	-37	-160	-15220	828	-6584	62	-20	143	-2444	-644	16732	29	-140	229	125	127	5
-10976	-4608	10652	-85	165	-181	-13944	2364	-8252	-6	-92	-57	-1940	-840	16936	183	-16	-2	-11904	1780	11564	97	-65	-145	-15264	796	-6476	64	14	162	-2488	-532	16748	5	-132	258	125	126	5
-11016	-4532	10632	-117	173	-165	-13976	2396	-8264	25	-12	-5	-1844	-832	17052	187	-10	31	-11920	1696	11516	110	-13	-194	-15240	844	-6576	53	-39	148	-2436	-572	16664	33	-145	225	125	126	5
-11076	-4620	10664	-69	142	-177	-13996	2372	-8292	-18	-58	-42	-1832	-864	16960	177	-20	29	-11900	1788	11592	113	-46	-178	-15256	796	-6516	40	-14	199	-2476	-568	16632	35	-129	216	125	127	5
-11016	-4612	10616	-90	183	-168	-13972	2356	-8184	-14	-69	-12	-1896	-856	17024	178	-30	5	-11944	1736	11532	138	-55	-182	-15248	744	-6572	19	-9	162	-2420	-628	16640	44	-112	197	125	126	5
-11072	-4588	10532	-94	189	-167	-13972	2312	-8212	-2	-67	-42	-1892	-876	17008	173	-29	15	-11920	1728	11456	106	-70	-181	-15292	740	-6660	12	-7	141	-2440	-632	16700	4	-157	227	125	127	5
-10960	-4592	10512	-78	158	-161	-13968	2396	-8316	-24	-38	-53	-1888	-824	16976	205	1	34	-11908	1708	11560	121	-54	-183	-15308	760	-6668	73	-47	172	-2428	-572	16704	-6	-149	242	125	127	5
-10976	-4604	10616	-100	172	-145	-13924	2340	-8268	-13	-19	-33	-1824	-752	17032	178	-33	29	-11932	1708	11524	122	-19	-152	-15268	768	-6580	65	28	176	-2416	-600	16784	23	-122	221	125	127	5
-10980	-4532	10564	-124	161	-142	-13960	2328	-8228	-7	-31	-45	-1820	-860	16936	179	-16	30	-11948	1756	11564	83	-57	-148	-15260	848	-6468	8	13	177	-2516	-596	16844	34	-135	226	125	127	5
-11000	-4484	10452	-107	162	-125	-13944	2304	-8272	10	-52	-60	-1868	-836	17016	175	-38	10	-11980	1756	11556	123	-62	-192	-15260	796	-6544	60	-15	123	-2464	-556	16620	54	-147	248	125	127	5
-11036	-4544	10552	-79	156	-193	-13972	2324	-8180	-36	-33	-24	-1804	-884	17064	204	-19	17	-11936	1720	11724	117	-35	-161	-15268	796	-6592	66	-28	160	-2424	-584	16748	26	-122	243	125	127	5
-10920	-4600	10588	-128	165	-180	-13992	2324	-8172	3	-37	-37	-1860	-900	16876	176	11	18	-11908	1792	11572	98	-61	-164	-15244	808	-6584	64	-40	159	-2428	-592	16648	11	-129	211	125	127	5
-10992	-4604	10628	-114	140	-153	-13968	2316	-8288	-8	-33	-33	-1856	-912	17008	192	-12	42	-12000	1712	11492	109	-94	-183	-15296	824	-6564	76	-17	190	-2384	-552	16712	40	-117	191	125	127	5
-11024	-4596	10484	-98	169	-122	-13992	2396	-8280	-5	-66	-31	-1888	-832	17060	165	-8	23	-11972	1720	11524	119	-75	-165	-15256	808	-6552	88	-8	151	-2500	-592	16740	15	-128	216	125	126	5
-10992	-4540	10568	-122	174	-170	-13944	2376	-8176	-19	-10	-12	-1904	-808	16924	200	-10	24	-11908	1788	11664	103	-24	-173	-15284	804	-6516	79	-51	174	-2408	-636	16632	20	-138	216	125	126	5
-10968	-4504	10584	-112	140	-191	-13936	2384	-8232	15	-32	-35	-1924	-928	17060	182	-11	11	-11916	1740	11604	98	-2	-191	-15216	788	-6540	42	-7	147	-2408	-612	16736	17	-116	206	125	127	5
-10996	-4568	10484	-92	166	-202	-14020	2356	-8300	-4	-55	-62	-1856	-844	17028	175	16	14	-11868	1668	11592	100	-43	-149	-15308	812	-6520	34	-39	163	-2476	-576	16768	32	-159	232	125	126	5
-10988	-4560	10516	-82	160	-190	-13960	2400	-8264	-56	-28	-55	-1848	-872	16996	217	-52	21	-11912	1764	11604	130	-7	-171	-15260	792	-6632	59	-63	134	-2384	-596	16572	45	-144	215	125	126	5
-11060	-4592	10608	-109	203	-184	-13960	2432	-8244	-14	-41	-55	-1880	-772	16912	193	-7	8	-11920	1744	11504	93	-14	-146	-15280	792	-6556	36	-14	155	-2440	-652	16680	6	-123	212	125	127	5
-11024	-4504	10604	-80	148	-192	-13916	2292	-8184	-41	-40	-69	-1924	-832	17092	193	-3	29	-11980	1720	11532	129	10	-134	-15204	848	-6596	71	-14	169	-2492	-536	16748	34	-149	230	125	126	5
-11012	-4536	10620	-105	146	-181	-13916	2360	-8316	-32	-71	-62	-1840	-840	16944	173	-15	23	-11872	1776	11564	104	-7	-131	-15264	844	-6576	46	-54	157	-2476	-588	16640	-1	-125	201	125	126	5
-10992	-4520	10564	-97	166	-170	-13920	2352	-8268	-1	-25	-37	-1900	-832	17020	200	-29	31	-11924	1740	11480	109	-39	-172	-15260	824	-6476	55	-27	142	-2420	-576	16700	70	-130	234	125	127	5
-10948	-4644	10608	-102	130	-134	-13964	2272	-8156	18	-30	-20	-1848	-900	17072	170	-21	33	-11984	1692	11612	116	-69	-170	-15236	804	-6600	46	-21	144	-2404	-564	16720	24	-120	244	125	126	5
-11012	-4592	10556	-88	144	-181	-13972	2340	-8200	23	-30	-30	-1892	-916	16888	189	-5	13	-11964	1764	11608	141	-57	-162	-15304	776	-6608	73	-26	175	-2432	-536	16708	34	-95	240	125	126	5
-10980	-4564	10564	-107	172	-148	-13964	2312	-8200	-18	-83	-46	-1864	-804	16924	214	-21	28	-11908	1740	11484	127	-47	-157	-15216	848	-6580	72	-13	161	-2432	-576	16684	-4	-128	220	125	127	5
-11000	-4580	10624	-147	193	-140	-14016	2388	-8268	-24	-53	-65	-1832	-752	17044	190	0	7	-11924	1712	11668	118	-38	-151	-15320	800	-6620	47	-4	140	-2396	-668	16732	-45	-140	209	125	127	5
-11048	-4532	10524	-150	163	-204	-13940	2336	-8124	10	-42	-29	-1912	-804	16876	182	-40	30	-11908	1708	11604	149	-68	-154	-15232	780	-6556	32	-24	167	-2428	-676	16608	36	-150	186	125	127	5
-11012	-4564	10612	-173	157	-177	-13944	2296	-8232	-13	-2	-73	-1908	-776	17048	162	1	64	-11960	1744	11532	161	-54	-135	-15260	820	-6596	39	-16	136	-2448	-584	16656	39	-128	195	125	126	5
-11020	-4604	10564	-157	155	-188	-13980	2404	-8148	-37	-8	-58	-1904	-892	17028	192	-1	22	-11888	1728	11540	132	-55	-164	-15300	800	-6584	25	-64	168	-2464	-600	16692	25	-103	232	125	127	5
-10952	-4508	10580	-97	143	-199	-13924	2300	-8160	-40	-22	-77	-1896	-876	16952	163	-7	25	-11936	1760	11584	109	-21	-170	-15256	816	-6496	54	-15	155	-2480	-552	16640	46	-122	216	125	127	5
-11004	-4568	10520	-99	166	-167	-13956	2376	-8240	-8	-62	-51	-1864	-828	16968	197	14	54	-11960	1768	11572	130	-25	-148	-15260	804	-6496	81	-31	162	-2476	-524	16568	14	-128	231	125	127	5
-10960	-4580	10560	-114	162	-154	-13892	2360	-8204	-25	-78	-37	-1900	-904	16988	187	-32	19	-11984	1752	11552	105	-60	-146	-15316	816	-6636	41	-40	172	-2476	-576	16644	-34	-117	188	125	127	5
-11012	-4580	10548	-85	161	-168	-13912	2336	-8272	-14	-52	-67	-1948	-908	16892	212	9	-14	-11892	1744	11552	115	-3	-178	-15224	812	-6556	80	-45	144	-2388	-612	16704	-14	-137	238	125	127	5
-10972	-4536	10628	-68	157	-161	-13932	2364	-8196	9	-48	-42	-1892	-788	16796	203	-18	-7	-11908	1672	11568	105	-55	-172	-15260	852	-6504	64	-61	137	-2432	-600	16664	4	-131	256	125	127	5
-11012	-4616	10608	-91	171	-131	-13892	2340	-8220	-24	-65	-58	-1884	-840	17004	203	-8	18	-11908	1708	11608	123	-70	-163	-15204	812	-6564	61	40	144	-2416	-720	16704	19	-136	215	125	127	5
-10996	-4564	10632	-74	146	-171	-13936	2372	-8276	-7	-52	-39	-1908	-836	16992	193	-46	7	-11940	1768	11584	138	-5	-145	-15208	780	-6524	57	-21	163	-2388	-580	16704	35	-141	231	125	127	5
-11048	-4588	10536	-78	201	-170	-14008	2360	-8256	-34	-28	-63	-1904	-892	16932	186	-29	27	-11876	1764	11696	114	-47	-145	-15312	772	-6436	48	-18	229	-2388	-556	16716	56	-149	228	125	126	5
-11052	-4556	10552	-76	175	-167	-13972	2368	-8300	-5	-65	-50	-1832	-888	17016	203	-13	17	-11924	1720	11664	99	-82	-146	-15268	780	-6436	26	-34	168	-2448	-608	16660	43	-145	191	125	127	5
-11044	-4584	10560	-97	162	-195	-13924	2340	-8248	-4	-55	-49	-1840	-896	17076	191	-20	23	-11956	1764	11516	137	-41	-162	-15264	788	-6452	41	-12	149	-2460	-524	16676	6	-142	232	125	126	5
-10996	-4516	10628	-96	150	-154	-13956	2280	-8172	5	-62	-34	-1848	-880	16996	177	0	23	-11884	1824	11516	119	-16	-158	-15292	864	-6388	46	8	198	-2396	-608	16784	18	-143	217	125	126	5
-11044	-4568	10536	-93	164	-125	-13984	2332	-8072	-49	-30	-43	-1904	-848	16992	198	-8	43	-11964	1672	11524	117	-86	-151	-15252	836	-6476	46	-14	163	-2376	-508	16840	15	-145	210	125	126	5
-11056	-4548	10568	-101	144	-184	-13988	2320	-8240	-26	-37	-39	-1884	-864	17004	197	3	8	-11896	1796	11604	104	-26	-126	-15256	816	-6608	66	6	149	-2428	-536	16580	22	-126	223	125	127	5
-11028	-4548	10588	-105	187	-153	-13976	2336	-8264	15	-63	-1	-1876	-840	16960	190	19	3	-11940	1756	11568	107	-13	-175	-15252	844	-6556	66	33	151	-2484	-576	16652	24	-125	258	125	126	5
-11032	-4548	10592	-129	159	-163	-14016	2380	-8124	-30	-33	-28	-1860	-876	17068	192	-11	12	-11892	1752	11540	136	-66	-180	-15204	704	-6504	35	-60	157	-2488	-556	16720	26	-132	237	125	127	5
-11032	-4540	10640	-125	141	-191	-13984	2356	-8228	4	-24	-22	-1940	-788	16988	190	-35	16	-11896	1740	11628	114	-76	-204	-15284	820	-6584	53	-11	146	-2388	-576	16624	41	-137	222	125	127	5
-10996	-4588	10624	-115	179	-193	-13952	2400	-8180	-7	-32	-49	-1924	-816	16980	198	-11	45	-11960	1720	11636	120	-34	-181	-15268	716	-6552	83	-37	145	-2440	-640	16780	-4	-143	221	125	127	5
-11060	-4548	10704	-108	128	-172	-13888	2308	-8240	-22	-42	-40	-1900	-824	16956	153	-34	42	-11964	1736	11648	128	-83	-164	-15284	820	-6616	88	-5	164	-2440	-640	16592	19	-137	209	125	127	5
-10964	-4608	10516	-120	143	-165	-13960	2280	-8148	-21	-33	-72	-1896	-864	17052	189	15	63	-11892	1756	11552	111	-12	-176	-15232	760	-6480	53	-16	188	-2464	-600	16704	21	-103	229	125	127	5
-11024	-4552	10520	-74	179	-176	-13932	2348	-8216	-44	-84	-55	-1944	-900	17020	187	-7	36	-11932	1720	11556	72	-80	-154	-15184	744	-6508	50	-15	147	-2408	-600	16664	8	-128	216	125	127	5
-11000	-4536	10536	-94	166	-194	-13912	2384	-8312	-4	-46	-67	-1904	-824	16996	204	-36	32	-11984	1700	11496	99	-39	-164	-15304	788	-6424	62	-3	100	-2508	-588	16676	1	-138	215	125	127	5
-11016	-4560	10636	-83	157	-154	-13968	2352	-8196	-22	-49	-62	-1856	-916	16948	202	2	10	-11988	1752	11496	82	-5	-197	-15280	864	-6544	68	-25	145	-2392	-584	16708	42	-145	238	125	127	5
-11052	-4560	10568	-126	147	-155	-13932	2352	-8200	3	-52	-21	-1860	-840	17024	198	-26	-13	-11948	1708	11584	87	-26	-170	-15232	752	-6584	44	15	160	-2424	-588	16692	-24	-115	233	125	126	5
-11068	-4480	10516	-79	198	-171	-13892	2392	-8276	-32	-9	-25	-1892	-848	17024	190	-6	13	-11960	1740	11536	132	-31	-164	-15228	856	-6516	55	2	182	-2388	-660	16656	-5	-107	210	125	126	5
-11064	-4572	10616	-80	157	-151	-14000	2340	-8216	-17	-21	-47	-1832	-788	17004	178	6	7	-11992	1716	11572	103	-34	-153	-15248	808	-6492	88	-12	156	-2400	-648	16744	10	-128	191	125	127	5
-11012	-4500	10572	-91	147	-189	-13984	2324	-8176	-9	-60	-33	-1868	-836	16952	197	-33	7	-11904	1740	11568	102	-37	-184	-15320	772	-6488	26	12	161	-2420	-568	16608	26	-154	217	125	127	5
-11032	-4580	10648	-111	180	-160	-13980	2356	-8248	-25	-7	-19	-1828	-792	17000	193	-36	30	-11960	1740	11576	92	-22	-152	-15284	820	-6552	58	-40	152	-2428	-616	16700	32	-118	217	125	127	5
-11028	-4536	10664	-118	160	-197	-14016	2316	-8260	-2	-40	-64	-1904	-812	16980	178	-10	56	-11888	1712	11552	108	-36	-173	-15248	796	-6452	87	-23	201	-2456	-628	16676	-3	-122	225	125	127	5
-11056	-4596	10616	-94	158	-161	-13940	2312	-8132	-37	-8	-52	-1924	-836	16960	187	3	32	-11900	1664	11556	152	-40	-187	-15256	844	-6536	55	2	190	-2448	-584	16684	33	-127	187	125	127	5
-11040	-4576	10528	-92	159	-177	-13964	2340	-8260	-52	-28	-46	-1896	-852	17104	189	18	42	-11900	1748	11624	128	-54	-139	-15272	776	-6580	31	-21	178	-2336	-600	16728	-6	-138	226	125	127	5
-11004	-4552	10508	-90	174	-170	-13912	2316	-8208	5	-25	-53	-1908	-884	17024	162	-4	34	-12016	1744	11576	84	-37	-196	-15268	804	-6468	37	-20	111	-2416	-576	16592	24	-120	231	125	127	5
-11052	-4596	10632	-115	186	-178	-13932	2276	-8192	-18	-40	-63	-1884	-800	17004	186	-11	9	-11924	1784	11604	148	-56	-150	-15240	784	-6588	58	7	169	-2388	-584	16680	13	-149	199	125	127	5
-11012	-4596	10532	-119	189	-151	-13928	2360	-8224	-9	-38	-57	-1844	-844	17040	172	-32	34	-11916	1728	11520	103	-54	-163	-15300	836	-6508	71	-28	143	-2460	-628	16652	16	-143	240	125	126	5
-11052	-4532	10624	-104	165	-151	-13956	2376	-8196	3	-76	-56	-1868	-836	16996	177	8	21	-11976	1692	11572	98	-21	-176	-15256	776	-6568	77	-29	161	-2420	-604	16676	17	-125	253	125	126	5
-11044	-4608	10580	-101	148	-187	-13940	2348	-8236	-46	-62	-36	-1868	-820	16908	192	-8	30	-11924	1668	11508	121	-28	-205	-15316	844	-6496	61	-7	137	-2468	-552	16648	23	-88	222	125	127	5
-10988	-4576	10660	-89	167	-154	-13936	2380	-8252	0	-48	-19	-1880	-844	17092	162	-6	21	-11896	1764	11472	101	-18	-141	-15256	788	-6556	27	12	147	-2432	-616	16736	13	-147	199	125	127	5
-11004	-4556	10544	-95	158	-150	-13872	2344	-8168	9	-17	-23	-1920	-860	17004	168	-26	43	-11964	1768	11576	107	-22	-140	-15284	816	-6492	53	-6	165	-2464	-600	16728	26	-143	205	125	126	5
-10952	-4552	10516	-129	137	-181	-13972	2368	-8180	5	-40	-52	-1928	-852	16988	198	-64	38	-11948	1724	11592	128	-32	-181	-15224	836	-6612	24	-16	121	-2384	-596	16652	20	-135	217	125	126	5
-10988	-4596	10652	-175	145	-173	-13976	2372	-8196	-25	-50	-44	-1892	-860	17028	197	10	60	-11944	1716	11524	122	-101	-178	-15316	860	-6460	43	-12	139	-2412	-596	16748	9	-158	250	125	127	5
-11004	-4496	10540	-158	145	-219	-13956	2380	-8196	-25	-35	-60	-1924	-848	17072	206	-35	37	-11956	1720	11536	148	-50	-174	-15240	828	-6596	17	-63	153	-2368	-652	16612	49	-113	203	125	127	5
-10984	-4540	10572	-170	145	-190	-13972	2364	-8316	-4	-61	-41	-1876	-840	17020	200	-21	34	-11860	1728	11556	110	-45	-138	-15296	840	-6584	65	-29	155	-2412	-584	16704	26	-139	216	125	126	5
-11028	-4576	10612	-134	164	-177	-13912	2332	-8120	14	-19	-61	-1948	-860	16996	215	-17	42	-11920	1656	11600	113	-66	-168	-15184	748	-6584	90	4	151	-2424	-520	16648	39	-127	204	125	127	5
-11016	-4600	10536	-119	148	-166	-13940	2384	-8148	-34	-36	-65	-1872	-744	17096	208	8	22	-11932	1760	11536	93	-34	-155	-15276	836	-6448	50	-14	151	-2416	-560	16724	42	-141	239	125	127	5
-11000	-4528	10520	-115	190	-179	-13940	2364	-8264	2	-44	-64	-1848	-820	16932	162	-28	41	-11964	1784	11556	109	-19	-149	-15280	792	-6584	45	-49	129	-2436	-572	16664	29	-161	234	125	127	5
-11028	-4556	10548	-118	175	-134	-13928	2320	-8132	-5	-45	-30	-1820	-864	16920	154	-4	11	-11956	1688	11644	116	-73	-162	-15288	844	-6536	77	-30	167	-2472	-568	16784	7	-133	211	125	127	5
-11020	-4544	10536	-81	174	-189	-13960	2372	-8216	-16	-22	-38	-1904	-900	17008	197	-20	34	-11852	1696	11480	115	-35	-179	-15332	824	-6632	72	2	130	-2404	-604	16632	-8	-149	209	125	126	5
-11056	-4596	10496	-79	166	-177	-13948	2416	-8264	9	-72	-38	-1936	-820	17084	187	24	43	-11924	1736	11544	101	-57	-144	-15364	848	-6560	51	-28	172	-2424	-620	16740	12	-148	250	125	126	5
-11036	-4572	10612	-83	164	-175	-13924	2332	-8180	-17	-29	-61	-1888	-776	16932	193	-17	54	-11888	1720	11548	98	9	-160	-15196	828	-6532	40	-13	135	-2412	-540	16632	28	-125	222	125	127	5
-10960	-4504	10660	-26	168	-183	-13988	2428	-8256	-7	-66	-66	-1884	-852	17092	145	-19	16	-11948	1748	11620	96	-42	-135	-15260	836	-6592	40	-27	156	-2440	-516	16660	18	-147	263	125	126	5
-11056	-4544	10600	-78	175	-165	-13952	2408	-8128	11	-13	-33	-1844	-820	17000	167	-38	40	-11916	1724	11556	110	-47	-152	-15288	796	-6552	40	-28	163	-2440	-596	16604	0	-138	224	125	127	5
-11040	-4488	10544	-94	156	-179	-13940	2324	-8188	-2	-59	-49	-1868	-784	17016	213	-58	33	-11900	1744	11572	89	-9	-159	-15260	812	-6504	91	-19	175	-2492	-592	16768	2	-131	208	125	126	5
-11044	-4568	10544	-100	180	-135	-13940	2364	-8228	-20	-33	-43	-1896	-808	16972	157	-14	22	-11872	1708	11668	111	-35	-152	-15264	824	-6592	73	-18	166	-2404	-552	16700	20	-168	231	125	127	5
-11048	-4524	10548	-98	160	-201	-13956	2340	-8148	-13	-62	-62	-1840	-816	16864	186	-17	32	-11856	1760	11472	97	-10	-191	-15308	872	-6340	41	-46	162	-2424	-548	16740	5	-125	213	125	127	5
-11072	-4560	10528	-97	186	-175	-13916	2348	-8224	35	-37	-13	-1924	-856	17016	170	9	30	-11888	1756	11600	110	-94	-175	-15264	884	-6612	63	-38	164	-2504	-572	16728	36	-121	252	125	127	5
-11032	-4548	10568	-131	151	-170	-13892	2384	-8160	16	-10	-37	-1876	-816	16972	176	-29	-7	-11920	1708	11524	137	-42	-151	-15248	764	-6560	64	-40	159	-2412	-556	16668	18	-137	210	125	127	5
-11024	-4560	10524	-95	152	-156	-13924	2384	-8200	-43	-8	-19	-1852	-880	17028	185	-11	9	-11968	1752	11552	112	-54	-165	-15280	780	-6440	100	15	188	-2444	-544	16652	9	-144	214	125	127	5
-10992	-4532	10584	-131	121	-185	-13976	2356	-8284	19	-27	-56	-1896	-864	17064	201	-6	25	-11952	1736	11580	113	-83	-133	-15272	812	-6508	72	4	126	-2492	-568	16760	15	-131	230	125	127	5
-10988	-4584	10600	-88	181	-128	-13884	2380	-8232	-22	-60	-34	-1872	-856	17072	169	2	8	-11952	1760	11660	90	15	-172	-15236	848	-6688	71	-9	140	-2368	-580	16684	23	-161	226	125	127	5
-11016	-4504	10508	-115	189	-184	-13964	2408	-8220	-31	-9	-47	-1860	-792	17008	187	6	-5	-11940	1708	11584	129	-17	-146	-15232	764	-6520	76	6	141	-2436	-584	16744	3	-153	233	125	127	5
-10980	-4532	10476	-64	173	-178	-13900	2364	-8148	-34	-31	-32	-1900	-912	16948	182	-16	17	-11916	1744	11572	100	-49	-197	-15244	816	-6596	77	-56	161	-2432	-684	16668	1	-114	217	125	126	5
-10996	-4540	10532	-127	169	-173	-13996	2408	-8072	-25	-46	-48	-1856	-856	17000	193	-32	14	-11924	1712	11596	126	-47	-147	-15248	748	-6444	44	-24	142	-2456	-520	16608	70	-134	182	125	126	5
-11068	-4548	10596	-117	115	-185	-13936	2336	-8196	-9	-55	-67	-1824	-884	16992	168	-31	14	-11960	1772	11588	104	-89	-150	-15264	800	-6516	62	-45	165	-2436	-576	16772	21	-131	199	125	127	5
-11044	-4568	10572	-92	124	-178	-13988	2340	-8304	12	-77	-26	-1876	-868	17036	166	-10	20	-11944	1748	11644	134	-35	-162	-15276	772	-6564	30	1	159	-2416	-580	16692	-2	-131	216	125	126	5
-11084	-4628	10560	-75	181	-153	-13924	2324	-8280	-44	-34	-47	-1916	-872	16944	165	-29	13	-11904	1772	11600	98	-32	-190	-15268	860	-6552	72	-35	129	-2488	-576	16652	-20	-136	253	125	126	5
-10968	-4512	10632	-98	137	-199	-13968	2372	-8100	10	-67	-64	-1800	-872	17104	176	-12	44	-11932	1752	11476	149	-66	-140	-15308	804	-6564	45	-16	135	-2348	-580	16716	61	-131	192	125	127	5
-11008	-4492	10564	-84	195	-144	-13944	2392	-8200	29	-59	-72	-1864	-808	17008	208	-45	15	-11892	1704	11472	108	-11	-179	-15284	828	-6504	67	-31	143	-2392	-580	16632	14	-123	193	125	126	5
-11032	-4508	10548	-116	157	-142	-14000	2344	-8200	-44	-71	-49	-1860	-836	17036	165	-30	19	-11932	1724	11624	109	-10	-125	-15296	852	-6552	46	-6	141	-2476	-492	16712	17	-132	235	125	127	5
-10996	-4532	10600	-101	170	-164	-13940	2356	-8144	-11	-39	-62	-1876	-824	16888	152	-6	2	-11920	1764	11636	119	-72	-144	-15232	820	-6508	76	-16	150	-2440	-588	16628	19	-128	245	125	126	5
-10948	-4504	10656	-76	176	-171	-13964	2392	-8364	-18	0	-28	-1880	-900	17036	179	-9	20	-11976	1776	11516	125	-31	-151	-15256	776	-6480	74	-19	158	-2432	-556	16752	19	-168	210	125	127	5
-10980	-4540	10536	-90	163	-173	-13944	2436	-8208	13	-5	-5	-1884	-824	16892	227	-2	27	-11904	1724	11564	114	-22	-177	-15284	788	-6528	98	-17	112	-2416	-644	16688	-17	-168	200	125	126	5
-10980	-4544	10544	-88	152	-150	-13952	2324	-8164	-5	-39	-53	-1888	-832	17056	193	8	16	-11912	1756	11624	120	-36	-161	-15256	780	-6532	43	0	171	-2472	-648	16736	16	-149	215	125	127	5
-10988	-4576	10576	-108	151	-151	-13924	2384	-8312	-7	-49	-66	-1792	-836	16876	181	-20	47	-11892	1732	11436	98	-49	-147	-15200	764	-6496	31	-62	121	-2396	-656	16716	-7	-127	207	125	127	5
-11012	-4540	10700	-113	168	-163	-13928	2352	-8284	-11	-43	-61	-1880	-832	17100	155	-18	48	-11996	1736	11596	142	-74	-177	-15212	780	-6516	63	-28	167	-2396	-560	16768	44	-116	225	125	126	5
-10988	-4588	10540	-127	192	-171	-13964	2380	-8100	-38	-35	-57	-1880	-824	17020	202	-25	34	-11948	1716	11608	114	-76	-153	-15264	776	-6536	45	-3	164	-2396	-568	16600	43	-123	229	125	126	5
-11008	-4572	10504	-99	178	-145	-13944	2324	-8296	0	-54	-64	-1876	-892	16928	227	-19	27	-11912	1716	11632	109	-54	-153	-15256	848	-6564	56	-2	143	-2440	-548	16660	43	-149	231	125	126	5
-11060	-4536	10616	-77	194	-160	-13932	2328	-8196	6	-39	-17	-1816	-936	17052	182	-40	20	-11948	1752	11508	128	-50	-181	-15224	812	-6660	63	13	164	-2476	-664	16740	42	-126	197	125	126	5
-10968	-4560	10524	-97	186	-128	-13916	2336	-8264	13	-61	-9	-1868	-828	16988	176	-8	17	-11908	1688	11612	118	-5	-157	-15212	820	-6504	53	-21	148	-2480	-620	16640	-1	-128	197	125	126	5
-10988	-4592	10548	-109	185	-146	-13920	2356	-8280	33	-35	-13	-1940	-860	16960	205	-8	15	-11924	1728	11600	98	-46	-172	-15244	796	-6536	55	-5	192	-2460	-644	16604	-11	-128	215	125	126	5
-10980	-4608	10576	-123	163	-169	-13928	2364	-8156	-55	-73	-77	-1876	-820	17052	217	-33	33	-11868	1748	11604	141	-44	-185	-15300	752	-6528	62	-33	143	-2412	-596	16640	16	-140	239	125	126	5
-11020	-4536	10500	-155	162	-168	-13976	2316	-8228	-3	-38	-32	-1896	-876	16920	188	-25	27	-11896	1772	11496	163	-52	-164	-15324	780	-6488	18	7	174	-2384	-616	16680	53	-128	247	125	126	5
-10976	-4564	10512	-160	133	-158	-13944	2352	-8200	-4	-59	-41	-1856	-824	16956	171	-9	23	-11908	1684	11572	135	-61	-166	-15232	812	-6616	58	-35	169	-2452	-552	16784	4	-157	225	125	126	5
-11068	-4644	10588	-138	131	-185	-13952	2344	-8168	-24	-40	-34	-1872	-832	16960	201	-45	16	-11944	1720	11552	111	-45	-159	-15248	800	-6592	62	-15	168	-2480	-552	16672	10	-128	198	125	126	5
-11004	-4560	10624	-141	145	-190	-13924	2364	-8260	-25	-65	-5	-1872	-904	17024	223	-43	18	-11932	1748	11552	96	-64	-178	-15220	828	-6504	67	-32	146	-2448	-528	16604	20	-121	189	125	126	5
-11028	-4600	10560	-95	139	-181	-13984	2352	-8228	-5	-64	-54	-1888	-820	17064	204	5	33	-11936	1776	11536	94	-54	-181	-15228	844	-6540	54	-30	154	-2440	-540	16636	35	-142	202	125	126	5
-11048	-4532	10524	-127	150	-170	-13972	2320	-8296	0	-59	-6	-1872	-896	17024	176	-33	-3	-11936	1724	11488	113	-37	-155	-15212	772	-6588	50	-46	156	-2472	-592	16660	26	-117	224	125	126	5
-11016	-4524	10444	-93	167	-155	-13936	2284	-8304	6	-41	-18	-1888	-808	17144	169	-5	16	-11872	1720	11544	96	-37	-151	-15236	800	-6624	96	-65	158	-2424	-576	16712	36	-153	215	125	126	5
-11000	-4572	10508	-87	173	-140	-13916	2404	-8224	-13	-50	-71	-1872	-776	16916	202	-43	23	-11868	1752	11604	115	-61	-167	-15264	828	-6572	88	-55	128	-2428	-620	16636	19	-144	247	125	126	5
-10928	-4532	10652	-64	176	-173	-13940	2276	-8132	-7	-61	-31	-1868	-760	17028	204	-32	24	-11964	1716	11524	102	-47	-187	-15256	764	-6580	17	-20	121	-2396	-584	16720	22	-148	221	125	126	5
-10972	-4552	10548	-66	169	-175	-13936	2384	-8168	-27	-44	-44	-1912	-920	16872	178	-37	47	-11936	1764	11584	106	-47	-152	-15232	764	-6460	41	-28	146	-2424	-648	16832	9	-129	206	125	126	5
-11036	-4572	10512	-93	166	-166	-13960	2368	-8176	20	-52	-61	-1872	-888	16992	180	-31	25	-11936	1672	11544	100	-36	-154	-15232	852	-6652	44	20	172	-2360	-632	16608	-8	-161	200	125	126	5
-11008	-4604	10552	-104	138	-137	-13924	2368	-8248	-5	-54	-88	-1832	-792	16908	186	2	24	-11864	1784	11540	141	-51	-172	-15256	780	-6568	58	-16	138	-2436	-572	16632	53	-128	202	125	126	5
-10980	-4556	10560	-102	187	-156	-13984	2356	-8296	-2	-41	-19	-1896	-820	17040	185	6	22	-11872	1704	11592	110	-53	-169	-15276	804	-6552	74	-28	185	-2464	-592	16660	45	-129	227	125	126	5
-11048	-4624	10588	-117	175	-166	-13892	2276	-8184	-12	-40	-63	-1768	-868	16864	189	-23	27	-11868	1680	11576	101	-69	-151	-15276	812	-6520	50	-13	196	-2452	-556	16680	33	-133	208	125	126	5
-11008	-4584	10604	-158	157	-127	-13992	2344	-8192	23	-40	-77	-1888	-944	17068	199	-15	32	-11868	1784	11592	137	-35	-182	-15260	796	-6604	51	-46	120	-2432	-624	16624	20	-140	227	125	126	5
-11072	-4540	10604	-102	161	-178	-13964	2384	-8308	-12	-38	-22	-1856	-892	16988	192	-21	9	-11904	1672	11592	95	-68	-145	-15272	816	-6492	85	-9	154	-2352	-656	16688	-33	-129	196	125	126	5
-11080	-4576	10516	-115	141	-184	-13968	2308	-8152	-18	-64	-24	-1912	-904	16928	218	9	32	-11956	1760	11476	126	-39	-143	-15308	744	-6500	96	-13	155	-2452	-584	16676	24	-132	216	125	126	5
-10980	-4580	10576	-85	155	-164	-13904	2376	-8264	-29	-41	-46	-1848	-780	16876	194	-10	40	-11840	1740	11624	113	-66	-160	-15276	784	-6540	73	-29	169	-2456	-636	16624	-13	-179	213	124	126	5
-11040	-4608	10532	-127	187	-153	-13888	2364	-8192	-19	-59	-32	-1868	-808	17028	214	-54	38	-11940	1720	11640	132	-56	-166	-15268	808	-6552	52	-47	168	-2396	-500	16748	-4	-155	204	125	126	5
-11008	-4548	10664	-116	173	-161	-13956	2308	-8256	10	-25	-85	-1840	-884	17036	159	-63	34	-11884	1716	11592	128	-99	-168	-15308	804	-6568	68	-27	115	-2444	-532	16840	31	-136	217	125	126	5
-11028	-4576	10504	-92	168	-163	-13992	2344	-8228	-15	-18	-34	-1872	-892	16984	178	-16	30	-11928	1736	11576	98	-4	-186	-15264	800	-6608	29	-27	156	-2400	-640	16604	25	-136	235	125	126	5
-11016	-4540	10556	-81	174	-180	-13976	2308	-8216	-31	-45	-73	-1884	-888	16908	208	-32	33	-12016	1724	11620	100	-43	-182	-15292	784	-6500	97	-16	186	-2452	-648	16608	5	-110	238	125	126	5
-11000	-4492	10628	-122	158	-163	-13972	2400	-8224	-22	-41	-46	-1896	-868	17096	185	-49	41	-11944	1700	11508	143	-77	-171	-15220	776	-6620	103	-16	160	-2436	-616	16708	5	-124	225	125	125	5
-11068	-4580	10560	-119	157	-160	-14020	2356	-8260	9	-36	-37	-1856	-876	17060	158	49	22	-11940	1736	11532	102	-52	-171	-15256	768	-6528	70	-29	169	-2464	-576	16708	-10	-156	212	125	126	5
-11028	-4528	10520	-120	163	-172	-13940	2332	-8180	-20	-14	-52	-1896	-848	16952	186	2	0	-11864	1720	11552	107	-53	-166	-15240	832	-6456	33	11	161	-2428	-624	16592	14	-106	210	125	126	5
-11056	-4540	10488	-83	158	-150	-13988	2396	-8208	-5	-23	-28	-1848	-860	16988	173	-1	43	-11976	1716	11648	112	-83	-175	-15216	832	-6560	40	31	147	-2456	-632	16788	23	-148	222	124	125	5
-10996	-4632	10592	-147	136	-153	-13996	2396	-8252	3	-13	-46	-1820	-860	16952	183	-7	28	-11976	1728	11620	123	-52	-148	-15240	756	-6508	23	-27	161	-2404	-584	16700	47	-117	211	124	126	5
-11064	-4560	10528	-149	150	-138	-13916	2344	-8288	-6	-35	-50	-1852	-840	16948	206	7	19	-11896	1712	11492	140	-17	-133	-15324	760	-6492	25	-17	140	-2460	-668	16736	19	-139	222	125	126	5
-10988	-4596	10540	-104	179	-178	-13940	2368	-8172	-15	-13	8	-1852	-784	16904	192	-15	40	-11928	1712	11692	119	-47	-162	-15292	776	-6640	89	-17	173	-2432	-584	16612	1	-134	208	125	125	5
-11020	-4528	10576	-100	179	-177	-13956	2340	-8320	-31	-50	-37	-1880	-816	17104	183	-11	25	-11956	1720	11480	147	-85	-154	-15336	804	-6496	39	-8	183	-2420	-580	16696	-3	-143	205	125	125	5
-10996	-4576	10600	-98	166	-165	-13964	2356	-8180	23	-38	-76	-1900	-828	16920	187	-9	15	-11964	1692	11596	82	-43	-142	-15256	804	-6516	65	-31	138	-2448	-636	16624	-21	-143	196	125	126	5
-10980	-4584	10516	-105	177	-174	-13864	2352	-8156	-23	-50	-57	-1896	-824	16848	184	-19	32	-11876	1772	11528	110	-41	-146	-15276	732	-6520	38	-48	131	-2448	-600	16700	59	-137	233	125	125	5
-11052	-4616	10632	-113	176	-160	-13968	2400	-8176	-37	-46	-68	-1876	-908	17036	169	-19	52	-11908	1732	11532	91	-53	-171	-15224	832	-6464	64	1	146	-2464	-636	16736	50	-115	191	124	125	5
-11000	-4544	10600	-86	162	-167	-14008	2304	-8344	-31	-26	-24	-1848	-832	16984	188	-16	33	-11912	1752	11580	105	-67	-165	-15268	824	-6576	63	8	129	-2500	-552	16724	14	-140	260	124	125	5
-11024	-4540	10572	-112	198	-162	-13952	2364	-8104	-45	-46	-56	-1848	-872	16940	183	-28	42	-11976	1696	11580	116	-41	-189	-15228	820	-6560	69	-1	173	-2440	-580	16680	-11	-158	241	124	125	5
-11048	-4592	10560	-84	165	-155	-14028	2312	-8176	-17	-61	-40	-1896	-920	16900	158	-3	26	-11964	1752	11612	88	-21	-170	-15308	788	-6504	76	-16	122	-2420	-528	16552	-4	-125	230	125	125	5
-10976	-4508	10640	-94	157	-139	-13908	2316	-8200	12	-82	-39	-1844	-820	16988	191	-22	37	-11952	1684	11560	113	-37	-167	-15220	828	-6464	32	14	125	-2460	-576	16728	41	-140	184	125	126	5
-10996	-4560	10556	-96	161	-157	-13956	2392	-8160	-17	-34	-59	-1824	-836	16932	229	-18	-1	-11904	1716	11608	148	-28	-171	-15240	740	-6464	32	-11	146	-2436	-616	16692	5	-147	225	124	126	5
-11012	-4552	10480	-142	149	-157	-13932	2324	-8320	-51	-34	-9	-1876	-848	17012	213	14	22	-11916	1692	11636	129	-23	-157	-15276	772	-6636	50	0	164	-2408	-644	16784	-25	-150	227	124	126	5
-10996	-4612	10588	-151	131	-193	-13968	2412	-8160	-17	-39	-80	-1928	-780	16944	165	-27	28	-11988	1708	11576	147	-68	-190	-15296	804	-6556	85	22	148	-2500	-656	16656	48	-126	235	124	125	5
-10992	-4580	10580	-158	149	-171	-13932	2376	-8136	-20	-23	-50	-1864	-852	16960	174	20	56	-11940	1716	11540	151	-91	-166	-15236	828	-6556	57	22	181	-2472	-608	16776	9	-132	205	125	126	5
-10980	-4520	10644	-145	164	-177	-13996	2396	-8184	1	-13	-42	-1908	-804	16904	165	8	53	-11892	1760	11548	123	-52	-168	-15304	840	-6560	31	-37	184	-2428	-624	16768	50	-121	232	124	126	5
-10992	-4568	10556	-106	155	-170	-13956	2324	-8144	-15	-54	-31	-1912	-864	17124	185	-31	13	-11900	1748	11568	79	-54	-166	-15236	824	-6416	44	-32	180	-2476	-564	16656	30	-134	235	124	126	5
-10964	-4552	10552	-114	132	-153	-13948	2304	-8292	14	-37	-58	-1892	-868	17036	187	-32	14	-11944	1748	11620	130	-71	-147	-15184	820	-6480	44	-63	175	-2444	-536	16676	59	-118	232	125	126	5
-10984	-4592	10580	-102	197	-144	-13960	2304	-8264	-18	-23	-30	-1864	-884	17048	163	-10	55	-11980	1800	11588	119	-54	-142	-15272	832	-6652	102	-27	174	-2492	-604	16600	9	-91	227	125	126	5
-11036	-4572	10500	-78	179	-173	-13916	2344	-8244	-22	-72	-38	-1840	-872	17016	199	-26	7	-11920	1712	11512	107	-65	-161	-15232	724	-6560	85	-35	142	-2420	-632	16672	6	-116	255	125	125	5
-11056	-4532	10532	-104	169	-126	-13972	2368	-8204	-13	-69	-36	-1864	-828	17016	231	-18	25	-11872	1804	11616	115	-18	-155	-15272	724	-6500	71	-22	148	-2356	-612	16680	45	-137	231	125	126	5
-10988	-4596	10568	-95	146	-168	-13976	2324	-8180	-33	-72	-42	-1856	-840	16992	175	-31	12	-11892	1732	11648	122	-40	-160	-15252	840	-6584	55	-58	126	-2396	-620	16692	29	-108	234	124	126	5
-10952	-4564	10608	-71	158	-148	-13968	2296	-8268	-23	-61	-29	-1892	-820	17108	187	5	10	-11960	1712	11636	95	-43	-142	-15292	808	-6532	52	-22	136	-2372	-596	16596	0	-145	218	125	126	5
-11028	-4544	10580	-78	158	-185	-13960	2376	-8268	-19	-35	-50	-1880	-788	17044	169	-18	21	-11892	1720	11512	126	-70	-160	-15212	788	-6580	30	-3	199	-2420	-616	16652	38	-134	200	124	126	5
-10956	-4624	10616	-108	155	-169	-13916	2336	-8300	17	-38	-75	-1852	-864	16940	186	-9	38	-11868	1712	11548	148	-63	-201	-15260	728	-6536	82	15	155	-2356	-640	16568	35	-112	200	124	126	5
-11004	-4596	10544	-124	167	-162	-13972	2408	-8164	-10	-26	-10	-1912	-860	17064	162	-21	12	-11944	1712	11580	119	-13	-151	-15300	740	-6468	67	16	181	-2376	-648	16620	24	-121	171	125	126	5
-10988	-4516	10576	-125	173	-161	-13924	2272	-8176	-20	-44	-54	-1872	-848	17068	261	-14	31	-12000	1732	11468	140	-20	-166	-15252	868	-6544	40	-26	195	-2476	-624	16744	14	-140	187	124	126	5
-10988	-4544	10620	-110	180	-146	-13996	2340	-8344	-24	-44	-41	-1840	-904	17076	205	-27	34	-11856	1700	11560	98	0	-177	-15288	800	-6572	36	-40	181	-2496	-584	16696	22	-112	214	125	126	5
-11008	-4532	10676	-102	169	-182	-13960	2292	-8208	-5	-15	-50	-1808	-920	16984	208	-42	24	-11912	1712	11572	92	-8	-160	-15196	844	-6616	33	0	163	-2436	-608	16628	36	-120	229	125	126	5
-10992	-4544	10616	-97	181	-145	-13988	2276	-8268	-29	-54	-20	-1888	-892	17012	210	-13	22	-11956	1712	11536	114	-74	-190	-15216	796	-6400	63	-1	143	-2424	-612	16680	-8	-104	215	124	126	5
-11004	-4516	10600	-79	159	-160	-13984	2388	-8300	-40	-52	-35	-1900	-840	16992	182	-2	17	-12000	1736	11548	105	-74	-163	-15232	804	-6604	110	-25	170	-2400	-692	16688	17	-128	214	124	126	5
-11016	-4544	10536	-118	173	-182	-13916	2332	-8184	-31	-33	-36	-1888	-792	17008	200	-26	26	-11964	1760	11600	85	-24	-156	-15236	784	-6540	66	10	141	-2464	-644	16568	-1	-144	264	125	126	5
-11052	-4520	10632	-107	128	-147	-14004	2416	-8308	-15	-43	-42	-1836	-840	16928	164	11	9	-11956	1756	11640	127	-43	-154	-15272	756	-6540	46	-35	163	-2324	-624	16748	9	-135	223	125	126	5
-10988	-4628	10560	-116	163	-167	-13928	2328	-8156	20	-94	-43	-1836	-764	17080	160	-31	23	-11900	1736	11672	112	-74	-153	-15244	760	-6520	50	11	142	-2452	-624	16764	35	-118	216	125	126	5
-10924	-4576	10524	-70	142	-174	-13940	2364	-8324	-3	-55	-55	-1896	-832	16988	162	-14	36	-11928	1740	11544	126	-29	-144	-15204	744	-6556	66	-15	179	-2456	-588	16668	34	-140	187	124	126	5
-11128	-4564	10636	-128	191	-145	-13996	2412	-8172	-26	-99	-65	-1796	-852	17048	193	14	19	-12004	1760	11592	133	-25	-161	-15252	812	-6480	61	-8	159	-2368	-584	16652	21	-133	213	124	126	5
-11012	-4576	10572	-110	154	-181	-14032	2372	-8208	-1	-61	-86	-1852	-892	16940	186	-17	38	-11920	1716	11588	132	-44	-188	-15284	888	-6620	46	-11	178	-2440	-568	16716	1	-120	230	125	126	5
-11016	-4628	10560	-88	167	-180	-13996	2288	-8240	18	-44	-34	-1800	-848	17004	211	34	28	-11936	1704	11528	138	-8	-187	-15248	812	-6464	72	-8	129	-2420	-572	16720	21	-117	218	125	127	5
-10956	-4560	10516	-104	135	-167	-13996	2400	-8284	10	-80	-16	-1828	-928	16956	165	-23	13	-11916	1680	11580	104	-7	-178	-15280	836	-6436	32	0	150	-2480	-568	16716	7	-117	248	124	127	5
-11024	-4636	10680	-119	152	-172	-13964	2280	-8188	32	-35	-38	-1860	-888	16980	207	-16	7	-11944	1656	11560	95	-52	-154	-15248	856	-6572	77	-5	155	-2456	-656	16688	43	-136	216	124	127	5
-10964	-4560	10524	-76	156	-152	-14004	2256	-8196	-19	-62	-7	-1880	-844	17036	209	-1	38	-11952	1712	11692	133	-50	-141	-15172	796	-6592	54	-22	156	-2420	-600	16704	-25	-157	257	124	127	5
-11004	-4532	10516	-86	180	-155	-13988	2316	-8332	-9	-19	-9	-1796	-820	16924	193	-38	7	-11964	1764	11576	81	-25	-206	-15236	800	-6548	76	12	147	-2404	-572	16688	5	-125	213	125	127	5
-11048	-4560	10500	-121	132	-185	-13960	2380	-8064	-4	-52	-44	-1908	-872	17012	149	6	16	-11912	1784	11628	111	-48	-198	-15268	756	-6576	49	-47	143	-2432	-612	16644	32	-150	213	125	127	5
-10984	-4580	10628	-87	181	-166	-13988	2352	-8200	9	-43	-62	-1892	-816	16980	199	2	35	-11844	1728	11600	144	-39	-149	-15284	716	-6512	55	-11	177	-2412	-564	16696	11	-141	206	125	127	5
-11048	-4556	10592	-122	141	-151	-14004	2360	-8232	14	-40	-50	-1924	-896	17080	145	18	28	-11952	1756	11392	111	-22	-178	-15244	868	-6548	57	-21	167	-2428	-652	16576	23	-141	218	125	127	5
-11056	-4620	10592	-119	167	-188	-14032	2428	-8276	-3	-36	-68	-1840	-864	16992	157	-18	36	-11884	1772	11648	119	-53	-157	-15284	824	-6468	65	-24	182	-2400	-608	16700	39	-131	203	125	127	5
-11056	-4508	10656	-95	142	-175	-13984	2292	-8208	7	-18	-13	-1796	-840	16988	214	-17	3	-11848	1744	11536	107	-34	-175	-15252	808	-6568	41	-10	168	-2436	-564	16700	11	-121	222	124	127	5
-11028	-4560	10620	-108	150	-155	-13912	2320	-8140	-10	-33	-51	-1896	-888	16968	204	-31	4	-11968	1720	11588	130	-87	-169	-15236	840	-6536	25	-2	163	-2416	-580	16652	14	-164	252	125	127	5
-11076	-4568	10612	-102	186	-170	-13992	2336	-8336	4	-45	-9	-1876	-892	16992	185	-8	34	-11960	1808	11612	145	-95	-174	-15288	784	-6544	41	-19	168	-2444	-584	16640	10	-111	196	125	127	5
-11056	-4616	10536	-125	142	-159	-13944	2348	-8240	0	-25	7	-1848	-908	16900	188	-44	42	-11968	1672	11604	125	-31	-142	-15308	820	-6484	36	17	181	-2408	-600	16736	29	-145	226	125	127	5
-11040	-4512	10560	-139	173	-192	-13972	2304	-8236	24	-18	-38	-1828	-856	16924	210	-51	41	-11928	1716	11624	131	-66	-167	-15292	804	-6676	17	-10	120	-2432	-676	16596	29	-100	211	124	127	5
-10988	-4552	10548	-115	172	-172	-13920	2288	-8224	-22	-30	-72	-1912	-912	16984	185	-11	26	-11944	1768	11500	118	-56	-152	-15204	740	-6496	27	-38	157	-2492	-644	16648	67	-115	224	125	127	5
-11040	-4568	10536	-107	143	-181	-13992	2324	-8156	-15	-21	-36	-1964	-880	16944	179	5	22	-11984	1736	11640	111	-58	-163	-15208	816	-6536	65	0	156	-2444	-596	16636	1	-111	269	125	127	5
-11028	-4528	10532	-85	143	-209	-13920	2244	-8124	-15	-74	-40	-1868	-908	16960	181	-11	20	-11816	1736	11548	129	-47	-177	-15204	780	-6584	58	-55	196	-2452	-608	16680	37	-154	206	125	127	5
-11012	-4604	10476	-92	148	-172	-13980	2340	-8268	-8	-9	-15	-1944	-820	16924	168	14	48	-11928	1708	11564	143	-51	-132	-15308	788	-6456	69	-8	164	-2416	-572	16716	-3	-134	218	125	127	5
-11052	-4580	10560	-74	154	-135	-13892	2352	-8336	1	-69	-38	-1820	-824	17076	189	9	13	-11912	1656	11560	77	-25	-146	-15252	836	-6648	37	-42	181	-2436	-568	16716	8	-143	213	124	127	5
-11036	-4588	10544	-100	164	-158	-13984	2304	-8240	-26	-51	-54	-1828	-828	16948	211	2	11	-11888	1752	11512	116	-48	-113	-15216	792	-6520	37	-11	170	-2420	-648	16748	31	-126	216	125	127	5
-11004	-4552	10660	-98	150	-180	-13916	2320	-8120	-35	-36	-36	-1876	-828	17056	194	4	41	-11908	1748	11552	114	-42	-143	-15312	752	-6568	33	-18	178	-2332	-640	16688	19	-138	237	124	127	5
-11044	-4588	10576	-99	170	-156	-13948	2380	-8208	22	-68	-26	-1912	-892	17012	173	-6	33	-11968	1736	11572	105	-13	-146	-15248	784	-6476	69	-30	183	-2416	-640	16660	52	-144	244	125	127	5
-11000	-4520	10616	-87	152	-170	-14004	2324	-8176	28	-39	-33	-1808	-812	17004	209	-17	7	-11872	1744	11600	121	-7	-172	-15252	784	-6544	81	-21	191	-2444	-592	16668	5	-125	205	124	127	5
-11084	-4564	10588	-112	149	-171	-13892	2372	-8228	-12	-37	-31	-1856	-860	16980	217	-14	45	-11896	1716	11552	141	-67	-170	-15220	816	-6560	58	-12	182	-2448	-596	16764	31	-169	218	125	127	5
-11048	-4572	10568	-93	182	-158	-13912	2384	-8244	-10	-36	-50	-1860	-844	17088	174	0	33	-11912	1760	11552	91	-51	-157	-15284	808	-6580	15	-7	144	-2460	-552	16780	2	-120	231	125	127	5
-11024	-4476	10624	-123	184	-161	-13928	2368	-8180	20	-49	-61	-1820	-832	16932	179	-28	40	-11940	1704	11568	81	-18	-144	-15288	856	-6532	30	-27	179	-2376	-668	16712	-6	-134	191	125	127	5
-11100	-4548	10636	-97	187	-171	-13976	2364	-8260	-5	-36	-51	-1848	-892	16900	201	-7	2	-11944	1736	11640	139	-59	-142	-15316	812	-6384	68	-41	161	-2424	-588	16704	34	-127	177	124	127	5
-10988	-4604	10544	-78	171	-139	-14016	2320	-8280	-3	1	-37	-1880	-808	17004	253	6	36	-11972	1716	11588	127	-42	-155	-15252	796	-6572	66	-20	169	-2464	-576	16688	40	-112	220	125	127	5
-11024	-4488	10644	-83	179	-185	-13972	2340	-8292	-7	-40	-19	-1956	-808	16936	158	-7	-9	-11932	1768	11652	111	-22	-166	-15236	792	-6568	80	2	148	-2428	-644	16688	25	-147	234	125	127	5
-11012	-4520	10536	-136	153	-148	-13984	2392	-8148	6	-36	-24	-1892	-804	17060	159	5	30	-11924	1680	11660	90	-20	-169	-15240	776	-6508	58	23	147	-2428	-620	16648	-29	-169	210	125	127	5
-11072	-4528	10632	-113	162	-184	-13892	2448	-8068	-41	-42	-34	-1904	-776	17056	185	0	31	-12012	1728	11532	135	-31	-156	-15208	772	-6608	38	39	166	-2444	-580	16688	8	-181	210	125	127	5
-10992	-4636	10552	-103	151	-211	-13948	2388	-8228	-5	-29	-32	-1860	-828	16992	190	-9	32	-11912	1724	11548	106	-80	-165	-15280	804	-6472	25	-28	148	-2384	-648	16708	39	-124	212	125	127	5
-11024	-4576	10572	-119	159	-165	-13912	2328	-8108	49	-47	-57	-1860	-852	17088	165	-11	23	-11884	1768	11652	131	-28	-148	-15316	744	-6604	43	-15	150	-2416	-560	16696	34	-111	217	125	127	5
-11024	-4536	10592	-117	186	-166	-13936	2324	-8232	0	-26	-33	-1820	-876	17012	163	7	32	-11888	1780	11636	125	-50	-123	-15288	808	-6508	65	-4	172	-2508	-632	16664	20	-145	231	125	127	5
-11004	-4532	10624	-83	186	-159	-13956	2352	-8172	-6	-48	-46	-1868	-860	17084	177	-23	40	-11920	1704	11524	106	-45	-145	-15296	768	-6616	86	-30	140	-2392	-536	16700	19	-131	208	125	127	5
-11020	-4520	10492	-81	145	-174	-13924	2328	-8216	-24	-42	-52	-1904	-852	17092	182	16	37	-11984	1756	11588	118	-23	-147	-15208	812	-6504	59	-1	143	-2456	-592	16628	-10	-151	212	125	127	5
-11044	-4464	10464	-133	162	-201	-13932	2352	-8268	-19	-31	-62	-1876	-832	16980	216	-2	11	-11968	1748	11588	91	-23	-157	-15252	796	-6608	64	-29	179	-2424	-632	16672	-17	-137	176	125	127	5
-11016	-4604	10560	-89	153	-135	-13948	2364	-8372	9	-84	-15	-1896	-844	16912	206	-30	16	-11972	1696	11616	113	-46	-132	-15276	816	-6576	64	-22	158	-2436	-644	16656	-2	-136	212	125	127	5
-11056	-4580	10536	-90	158	-164	-13920	2400	-8184	-17	-33	-79	-1824	-796	16992	172	16	41	-11956	1784	11552	154	-63	-167	-15244	808	-6548	78	-23	159	-2372	-592	16708	18	-133	193	125	127	5
-10968	-4560	10592	-97	144	-150	-13964	2404	-8216	-19	-28	-31	-1808	-836	17084	178	-5	50	-11880	1756	11520	112	-37	-182	-15276	776	-6564	80	-35	190	-2464	-636	16704	22	-117	228	125	127	5
-11064	-4512	10528	-94	167	-194	-13996	2344	-8232	-3	-33	-40	-1900	-832	16940	194	-6	0	-11892	1724	11612	153	-36	-141	-15260	824	-6520	64	-28	192	-2472	-564	16612	70	-153	205	125	127	5
-10976	-4560	10584	-84	174	-172	-13992	2312	-8096	-2	-36	-39	-1872	-860	17032	188	-3	37	-11904	1736	11724	123	-21	-156	-15220	848	-6616	62	-40	154	-2476	-552	16708	82	-113	211	125	127	5
-10996	-4584	10528	-123	163	-160	-13972	2368	-8228	-15	-18	-65	-1844	-888	17028	150	-6	13	-11880	1712	11504	125	-36	-135	-15248	840	-6504	55	-2	153	-2412	-576	16708	24	-112	222	125	127	5
-11000	-4500	10460	-89	167	-146	-13968	2280	-8160	-31	-45	-33	-1892	-836	17120	177	26	16	-11928	1784	11472	104	-66	-169	-15188	856	-6528	45	22	155	-2416	-496	16648	12	-156	235	125	127	5
-11080	-4592	10552	-116	161	-149	-13916	2344	-8144	-23	-15	-57	-1896	-828	17056	214	-36	-17	-11920	1724	11684	144	-25	-157	-15280	788	-6600	90	-35	157	-2456	-592	16700	-7	-151	206	125	127	5
-11076	-4560	10500	-124	125	-183	-14000	2368	-8268	-30	3	-26	-1904	-796	16968	192	35	15	-11924	1728	11604	104	-44	-156	-15284	816	-6548	8	7	169	-2468	-588	16700	18	-154	212	125	126	5
-11024	-4604	10512	-162	138	-151	-13972	2332	-8316	14	-15	-45	-1912	-796	16924	211	-39	30	-11932	1748	11632	144	-54	-191	-15232	776	-6588	58	-14	167	-2392	-608	16680	28	-114	212	125	126	5
-11076	-4572	10572	-139	148	-192	-14040	2400	-8200	0	-33	-50	-1892	-876	17068	203	-6	7	-11920	1784	11592	121	-70	-165	-15228	836	-6540	56	-33	137	-2464	-584	16708	56	-100	218	125	127	5
-11036	-4560	10600	-132	178	-157	-13968	2372	-8156	-24	-48	-28	-1884	-812	17008	221	-14	49	-11908	1744	11580	104	-52	-189	-15224	768	-6672	69	-14	150	-2428	-592	16612	54	-104	204	125	127	5
-11060	-4640	10540	-112	162	-193	-13996	2396	-8244	-40	-29	-40	-1796	-848	16956	199	-26	22	-11848	1688	11492	121	-82	-161	-15208	804	-6636	61	6	129	-2428	-592	16680	46	-126	236	125	126	5
-10996	-4588	10636	-107	143	-178	-13960	2332	-8408	-15	-86	-62	-1864	-828	17016	185	-23	32	-11920	1712	11452	99	1	-181	-15276	740	-6544	75	-38	181	-2428	-624	16608	17	-161	226	125	126	5
-10944	-4504	10560	-119	166	-144	-13900	2324	-8300	27	-74	-47	-1912	-876	17112	173	-29	62	-12004	1748	11524	118	-20	-144	-15316	788	-6532	66	-9	185	-2456	-616	16700	18	-138	252	125	126	5
-10996	-4504	10644	-87	143	-175	-13996	2412	-8260	21	-51	-49	-1908	-816	16964	171	-30	28	-11860	1824	11604	76	-63	-149	-15256	696	-6412	41	-40	164	-2408	-600	16720	29	-149	203	125	127	5
-11064	-4552	10512	-86	187	-145	-13888	2348	-8208	-30	-68	-54	-1860	-884	17060	206	-38	11	-11936	1804	11604	132	-67	-157	-15312	772	-6508	55	-70	170	-2344	-604	16736	23	-114	225	125	126	5
-10988	-4600	10456	-89	161	-158	-13924	2336	-8332	3	-20	-17	-1808	-912	16944	216	-16	13	-11932	1700	11540	128	-49	-175	-15236	744	-6480	81	-56	164	-2388	-624	16712	89	-116	205	125	127	5
-11024	-4544	10544	-86	157	-166	-13960	2340	-8152	-1	-61	-27	-1836	-844	16988	165	24	33	-11916	1712	11520	119	-57	-138	-15236	792	-6532	77	-41	139	-2380	-580	16740	37	-131	196	125	126	5
-11020	-4620	10500	-84	190	-172	-13964	2308	-8304	23	-31	-40	-1876	-872	17092	200	-37	36	-11960	1772	11628	111	-64	-151	-15236	796	-6516	84	-21	160	-2472	-572	16732	23	-120	212	125	126	5
-11092	-4532	10620	-73	145	-186	-13916	2372	-8228	-20	-40	-18	-1908	-852	17052	188	-11	8	-11960	1716	11600	108	-61	-148	-15208	800	-6548	33	-12	164	-2444	-596	16708	22	-145	193	125	126	5
-10988	-4604	10556	-89	146	-158	-13928	2344	-8200	-4	-24	2	-1896	-860	16944	180	-47	12	-11936	1784	11508	115	-86	-165	-15260	836	-6460	37	-64	163	-2464	-592	16592	-44	-132	209	125	126	5
-10996	-4584	10496	-95	157	-181	-13956	2324	-8204	-18	-21	-7	-1856	-836	17012	194	-13	49	-11988	1720	11624	115	-31	-170	-15276	764	-6596	35	-5	175	-2484	-608	16720	37	-149	238	125	127	5
-11036	-4584	10620	-102	202	-177	-13988	2376	-8208	-11	-26	-10	-1884	-804	16976	211	-5	31	-11920	1656	11580	127	-93	-126	-15192	768	-6604	52	12	171	-2372	-620	16720	18	-134	222	125	126	5
-10996	-4536	10708	-99	148	-169	-13944	2416	-8088	-19	-14	-48	-1900	-816	17000	184	-50	50	-11912	1720	11696	110	3	-131	-15232	748	-6564	37	-2	175	-2412	-608	16708	63	-135	195	125	126	5
-11020	-4568	10644	-108	152	-162	-14024	2324	-8224	-42	-30	-38	-1856	-836	17020	183	-46	15	-11932	1728	11568	136	-72	-148	-15280	744	-6612	44	3	160	-2468	-568	16692	22	-129	202	125	127	5
-11012	-4616	10612	-111	188	-158	-13940	2344	-8248	14	-47	-23	-1872	-852	16924	171	-30	22	-11952	1672	11608	113	-90	-149	-15280	812	-6484	69	-25	163	-2488	-552	16708	-1	-133	224	125	127	5
-10996	-4600	10536	-122	163	-194	-13924	2276	-8288	4	-45	-24	-1872	-860	17096	190	-15	6	-11888	1736	11508	111	-12	-167	-15292	836	-6640	38	-43	152	-2456	-628	16700	-13	-123	245	125	126	5
-10996	-4560	10624	-91	155	-161	-13964	2316	-8256	-9	-54	-15	-1928	-888	16968	188	-35	-6	-11936	1812	11672	118	-52	-151	-15304	764	-6596	51	-36	124	-2456	-640	16680	-14	-153	209	125	126	5
-11004	-4536	10548	-76	159	-188	-13992	2392	-8192	-7	-36	-57	-1836	-856	17060	189	-12	19	-11968	1712	11624	95	-48	-157	-15256	784	-6508	75	-33	134	-2392	-640	16556	17	-110	231	125	127	5
-10996	-4568	10532	-111	174	-125	-13936	2284	-8260	-4	-25	-58	-1912	-896	16964	183	6	30	-11940	1752	11564	133	-82	-209	-15232	796	-6520	49	-17	159	-2456	-648	16624	26	-131	254	125	126	5
-11024	-4572	10584	-125	137	-139	-13984	2312	-8220	9	-45	-42	-1904	-784	16960	189	-7	36	-11928	1732	11512	134	-27	-171	-15232	760	-6712	38	-17	110	-2444	-648	16740	36	-146	229	125	126	5
-10996	-4580	10576	-110	169	-157	-13904	2328	-8276	24	-25	-41	-1824	-872	16904	183	-11	11	-11912	1748	11604	110	-46	-137	-15272	788	-6500	48	-43	168	-2452	-632	16712	11	-153	205	125	127	5
-11032	-4572	10564	-66	163	-157	-13940	2360	-8184	-3	-47	-41	-1840	-884	16932	191	-10	41	-11916	1784	11560	115	-56	-128	-15244	776	-6628	74	-20	178	-2384	-624	16744	4	-160	238	125	127	5
-11020	-4608	10564	-81	173	-214	-14008	2348	-8168	-31	-27	-23	-1900	-900	17048	162	-11	20	-11940	1732	11504	93	-51	-171	-15292	836	-6500	65	-18	189	-2372	-584	16640	2	-153	202	125	127	5
-11000	-4512	10716	-78	185	-156	-13972	2344	-8208	-31	-66	-49	-1812	-892	17000	184	4	49	-11892	1716	11616	96	-17	-170	-15308	776	-6428	42	-12	193	-2420	-620	16712	47	-129	175	125	126	5
-11028	-4592	10576	-100	170	-172	-13924	2360	-8196	-33	-53	-34	-1884	-852	17044	205	3	21	-11924	1720	11604	99	-6	-153	-15312	852	-6500	53	-9	114	-2432	-600	16684	18	-100	235	125	127	5
-11052	-4488	10500	-81	165	-150	-13960	2404	-8256	-6	-16	-51	-1840	-896	16936	195	-26	5	-11944	1720	11544	123	-49	-152	-15284	792	-6504	69	2	163	-2396	-516	16716	48	-94	225	125	127	5
-10988	-4568	10596	-114	121	-198	-13960	2388	-8232	-14	-41	-30	-1836	-848	16976	216	9	25	-11960	1740	11560	105	-1	-179	-15292	776	-6536	70	-11	168	-2444	-592	16776	20	-115	247	125	126	5
-11044	-4572	10564	-111	139	-167	-13928	2364	-8184	-18	-8	-19	-1876	-856	17056	159	24	17	-11964	1724	11572	98	-23	-171	-15272	820	-6556	49	-16	110	-2456	-560	16632	13	-149	246	125	127	5
-10944	-4584	10544	-114	125	-137	-13928	2336	-8112	17	-40	-21	-1892	-812	16956	175	-27	7	-11932	1716	11628	122	-92	-153	-15212	756	-6652	52	16	166	-2472	-668	16552	5	-129	226	125	127	5
-11004	-4592	10632	-131	144	-122	-13948	2340	-8260	4	-58	1	-1928	-820	16928	216	-14	3	-11872	1696	11532	121	-58	-161	-15216	764	-6592	66	-25	167	-2464	-644	16756	23	-136	246	125	126	5
-10988	-4632	10604	-125	165	-165	-13952	2256	-8220	-10	-31	-23	-1904	-804	17064	220	-39	48	-11972	1748	11644	109	-39	-154	-15272	828	-6632	53	-15	175	-2444	-608	16776	47	-133	211	125	127	5
-11048	-4532	10600	-160	167	-198	-13956	2316	-8140	6	-29	-68	-1900	-816	17028	167	-26	10	-11956	1720	11624	153	-90	-142	-15288	856	-6408	79	-34	173	-2448	-600	16740	56	-137	210	125	127	5
-11004	-4548	10396	-103	157	-194	-13996	2300	-8216	9	-42	-70	-1948	-828	16908	159	-16	26	-11980	1732	11544	108	-18	-168	-15268	772	-6520	24	-17	183	-2472	-556	16748	10	-136	217	125	127	5
-11024	-4576	10676	-117	142	-161	-13948	2308	-8112	14	-42	-71	-1880	-880	17060	173	-23	33	-11936	1760	11496	128	-23	-159	-15288	884	-6532	26	-31	157	-2424	-572	16720	37	-120	213	125	127	5
-11048	-4536	10540	-83	146	-191	-13984	2348	-8144	-18	-15	-13	-1848	-904	16908	210	-16	21	-11908	1696	11584	112	-111	-206	-15292	792	-6524	41	-16	125	-2408	-492	16624	22	-129	234	125	127	5
-11016	-4600	10508	-73	141	-148	-13956	2324	-8204	0	-51	-6	-1912	-904	17024	234	-12	21	-11912	1796	11520	96	-55	-163	-15228	848	-6604	68	1	132	-2372	-596	16652	19	-138	243	125	127	5
-11028	-4564	10572	-69	144	-140	-13992	2368	-8340	-21	-58	-19	-1824	-876	16928	170	27	16	-11916	1744	11644	99	-50	-152	-15256	728	-6528	96	-74	140	-2460	-696	16612	-21	-131	222	125	127	5
-10992	-4504	10516	-84	164	-154	-13988	2320	-8320	-10	-46	-64	-1856	-796	17048	186	5	27	-11892	1704	11472	109	-55	-159	-15204	768	-6544	79	-13	162	-2420	-716	16644	12	-154	207	125	127	5
-11032	-4568	10640	-89	180	-148	-13956	2352	-8268	-34	-44	-37	-1844	-784	16860	148	-18	37	-12000	1760	11612	112	-50	-173	-15240	768	-6572	82	-4	172	-2516	-700	16656	-14	-138	219	124	127	5
-10968	-4504	10604	-90	147	-197	-13972	2360	-8224	5	-47	-59	-1900	-900	17060	216	-18	13	-11920	1724	11608	85	-70	-176	-15260	728	-6568	49	-31	154	-2408	-652	16704	23	-144	185	125	127	5
-11024	-4576	10572	-112	164	-137	-13960	2340	-8176	-25	-36	-73	-1800	-872	16908	199	-13	23	-11912	1744	11532	138	-53	-149	-15296	856	-6620	39	-5	198	-2420	-652	16648	39	-136	209	125	127	5
-11008	-4572	10588	-109	168	-147	-13944	2348	-8276	38	-61	-57	-1880	-928	16952	166	-31	28	-11952	1724	11620	118	-66	-156	-15288	796	-6532	34	-39	197	-2388	-600	16724	64	-109	243	125	127	5
-11072	-4552	10532	-93	157	-158	-13984	2360	-8332	-15	-61	-44	-1768	-940	16992	177	-52	10	-11956	1760	11612	120	-18	-177	-15188	832	-6476	94	-16	183	-2480	-560	16640	38	-134	208	125	127	5
-10996	-4532	10588	-87	152	-151	-14032	2284	-8180	-50	-46	-89	-1880	-872	17020	214	24	26	-11936	1792	11616	123	-46	-146	-15252	840	-6552	72	8	190	-2452	-568	16772	25	-131	216	125	127	5
-11040	-4596	10516	-105	174	-150	-14004	2312	-8140	-19	-30	-15	-1868	-888	16928	189	-10	21	-11948	1756	11624	123	-24	-176	-15236	836	-6560	67	6	193	-2460	-576	16712	-35	-143	198	125	127	5
-11064	-4588	10480	-89	168	-140	-13944	2364	-8032	-25	-12	-51	-1872	-860	16904	196	-27	24	-11932	1672	11608	126	-69	-131	-15192	792	-6512	31	-37	156	-2448	-596	16632	-17	-116	200	125	127	5
-11020	-4536	10588	-107	174	-152	-13940	2360	-8204	-33	-22	2	-1872	-832	16968	197	21	15	-11952	1780	11584	102	-27	-170	-15204	836	-6552	18	-2	162	-2412	-592	16708	-12	-128	232	125	126	5
-11052	-4572	10612	-90	171	-164	-14052	2332	-8180	-9	-6	-8	-1852	-856	16972	193	-7	25	-11908	1716	11612	107	-59	-189	-15260	792	-6540	42	5	166	-2484	-576	16640	55	-114	210	125	127	5
-11000	-4536	10564	-77	183	-151	-13988	2384	-8284	-15	-18	-45	-1932	-772	16996	214	7	15	-11896	1756	11584	139	-19	-150	-15240	716	-6528	85	48	155	-2480	-640	16804	53	-132	221	125	127	5
-11012	-4568	10612	-138	171	-178	-13932	2352	-8292	-21	-55	-20	-1888	-804	16964	209	-38	47	-11912	1728	11484	149	-60	-166	-15268	848	-6584	106	-7	148	-2444	-588	16836	26	-150	245	125	126	5
-11000	-4476	10456	-113	161	-157	-13932	2420	-8252	-4	-36	-49	-1852	-852	16972	151	-1	28	-11944	1792	11560	137	-48	-174	-15236	816	-6484	56	-56	148	-2428	-584	16644	33	-130	202	125	127	5
-10984	-4496	10572	-112	168	-182	-13988	2324	-8156	-3	-65	-80	-1848	-860	16988	170	3	43	-11924	1764	11544	109	-60	-134	-15252	808	-6456	35	-51	144	-2440	-556	16600	6	-119	204	125	127	5
-11004	-4536	10540	-100	188	-175	-13968	2312	-8236	24	-71	-83	-1836	-908	17004	167	-12	43	-11924	1708	11608	119	-16	-164	-15292	804	-6524	60	-12	137	-2388	-568	16664	53	-130	233	125	127	5
-11000	-4608	10524	-102	153	-166	-13952	2272	-8200	-20	-42	-85	-1848	-860	17048	181	-36	19	-11928	1716	11676	96	-76	-167	-15220	820	-6528	64	-41	151	-2348	-632	16788	12	-138	223	125	127	5
-11060	-4584	10496	-109	177	-137	-13968	2336	-8244	-40	-54	-56	-1816	-828	17036	172	-4	41	-11948	1668	11596	110	8	-206	-15252	744	-6536	79	-16	165	-2384	-600	16680	12	-173	219	125	127	5
-11024	-4604	10528	-90	140	-181	-13908	2292	-8208	18	-44	-43	-1848	-868	17012	199	-20	35	-12016	1748	11556	123	-20	-162	-15276	828	-6504	47	-32	167	-2420	-644	16612	-17	-120	208	125	126	5
-11016	-4564	10660	-70	136	-189	-13928	2344	-8224	16	-61	9	-1848	-824	17060	194	-16	30	-11904	1708	11536	113	-23	-151	-15256	768	-6604	74	-9	177	-2356	-560	16720	43	-165	205	125	126	5
-11012	-4532	10568	-106	171	-161	-14008	2340	-8152	-12	-29	-59	-1908	-872	16992	187	-11	41	-11884	1764	11492	109	-45	-169	-15264	824	-6520	22	-27	146	-2480	-592	16592	32	-135	181	125	126	5
-10964	-4532	10660	-96	169	-154	-13968	2368	-8304	-2	-60	-36	-1884	-872	16932	178	-21	40	-11900	1712	11552	105	-33	-115	-15272	736	-6512	54	16	159	-2416	-636	16648	13	-132	213	125	127	5
-11100	-4584	10492	-87	178	-181	-13960	2344	-8188	-27	-32	-39	-1840	-872	17172	188	-4	36	-11908	1668	11600	117	-80	-154	-15220	784	-6520	81	-56	154	-2452	-544	16680	54	-137	272	125	127	5
-10992	-4600	10608	-129	155	-155	-13948	2364	-8220	-20	-69	-10	-1872	-888	17128	148	-25	30	-11888	1728	11576	111	-52	-154	-15252	832	-6560	67	-21	177	-2476	-608	16660	8	-148	233	125	126	5
-10988	-4548	10556	-95	164	-189	-13952	2360	-8264	-14	-50	-14	-1880	-916	17044	241	-41	4	-11924	1728	11620	140	-30	-137	-15208	828	-6468	83	5	158	-2440	-580	16716	0	-109	218	125	126	5
-10988	-4624	10592	-90	162	-160	-13976	2456	-8204	-34	-54	-56	-1872	-840	16972	224	-19	21	-11956	1740	11536	149	-46	-114	-15276	884	-6488	45	-25	139	-2444	-544	16720	26	-125	205	125	126	5
-11004	-4560	10580	-59	166	-143	-13976	2364	-8168	-13	-61	-44	-1844	-884	16984	152	-19	19	-11932	1764	11588	138	-93	-166	-15300	796	-6480	9	-18	157	-2464	-600	16768	25	-113	204	125	126	5
-11048	-4532	10536	-122	162	-192	-13968	2400	-8280	4	-40	-56	-1920	-836	16992	174	-38	30	-11900	1716	11552	127	-60	-186	-15248	812	-6432	43	-61	133	-2368	-592	16700	20	-148	209	125	126	5
-11036	-4504	10644	-104	146	-172	-13948	2352	-8216	-40	-43	-35	-1872	-848	17068	213	-3	4	-11972	1744	11520	151	-41	-189	-15252	808	-6612	84	-31	186	-2376	-580	16676	39	-127	235	125	127	5
-10972	-4488	10528	-120	178	-157	-13948	2328	-8196	-7	-17	-49	-1864	-764	16956	218	-23	8	-11980	1744	11616	116	-32	-165	-15288	876	-6456	58	-26	161	-2488	-560	16592	61	-136	226	125	126	5
-10992	-4504	10584	-159	158	-170	-13976	2368	-8120	13	-24	-31	-1900	-856	17060	172	-11	18	-11924	1752	11532	132	-69	-170	-15300	816	-6448	48	15	154	-2424	-628	16648	-29	-114	216	125	126	5
-11044	-4556	10528	-125	157	-182	-13916	2368	-8252	-8	-39	-28	-1924	-828	16992	174	16	30	-11896	1732	11584	142	-72	-172	-15256	804	-6612	39	-38	135	-2380	-604	16684	23	-102	224	125	126	5
-11104	-4564	10540	-132	162	-158	-13944	2376	-8192	-10	-52	-66	-1912	-912	17112	165	-50	53	-11948	1700	11544	103	-105	-155	-15280	780	-6484	53	-21	151	-2444	-596	16600	-3	-101	248	125	126	5
-11036	-4544	10560	-90	106	-172	-13904	2312	-8240	-24	-73	-58	-1832	-900	16940	203	10	38	-11956	1756	11652	126	-102	-193	-15264	760	-6564	37	-1	149	-2464	-588	16708	22	-140	232	125	127	5
-11020	-4552	10544	-93	191	-179	-13960	2388	-8172	-15	-55	-56	-1872	-852	16988	191	-2	42	-11892	1724	11604	82	-31	-158	-15304	784	-6428	60	-31	183	-2384	-600	16716	-11	-142	197	125	126	5
-10960	-4540	10616	-83	179	-163	-13964	2292	-8168	18	-44	-22	-1816	-832	17000	170	1	4	-11960	1728	11608	106	5	-173	-15256	772	-6552	61	-5	192	-2376	-672	16688	30	-147	203	125	127	5
-10940	-4584	10556	-58	176	-172	-13912	2308	-8292	-6	-46	-55	-1884	-828	16932	171	-3	26	-11964	1708	11428	74	-47	-176	-15292	760	-6536	29	1	161	-2432	-540	16612	18	-144	227	125	126	5
-11012	-4572	10596	-46	178	-153	-13928	2352	-8244	-8	-32	-59	-1864	-804	16940	171	-5	26	-11924	1760	11624	130	-44	-201	-15248	804	-6428	28	-30	152	-2364	-636	16628	46	-113	220	125	127	5
-11092	-4552	10660	-99	163	-154	-13940	2340	-8252	-14	-75	-15	-1852	-908	16984	192	-33	26	-11888	1828	11572	131	-69	-178	-15272	768	-6592	51	-17	159	-2396	-624	16604	44	-119	230	125	127	5
-10976	-4560	10584	-80	159	-148	-13924	2264	-8228	-36	-28	-38	-1828	-916	16952	168	-15	18	-11856	1712	11704	134	-37	-143	-15312	800	-6520	78	10	198	-2440	-524	16656	21	-131	239	125	127	5
-11040	-4568	10564	-42	159	-125	-13964	2316	-8188	-4	-27	-18	-1868	-840	16924	203	0	14	-11912	1724	11648	112	-82	-126	-15252	832	-6504	71	5	139	-2500	-600	16664	12	-121	218	125	126	5
-10952	-4568	10572	-73	176	-183	-13964	2368	-8288	-17	-45	-6	-1888	-920	17024	199	-35	45	-11888	1724	11456	97	-33	-170	-15296	800	-6572	27	-18	131	-2436	-520	16736	7	-120	202	125	126	5
-10976	-4564	10516	-90	165	-177	-13976	2432	-8120	-28	-10	-43	-1824	-844	17004	186	-35	18	-11904	1780	11492	117	-15	-144	-15276	836	-6508	37	9	128	-2440	-540	16716	-16	-152	244	125	126	5
-10988	-4536	10504	-78	149	-198	-13980	2352	-8196	13	-38	-35	-1876	-848	16948	201	-21	3	-11940	1696	11580	103	-9	-159	-15288	760	-6528	42	-1	154	-2392	-680	16704	5	-138	178	125	126	5
-10988	-4596	10600	-131	159	-168	-13960	2328	-8244	5	-15	-34	-1860	-820	16952	227	-10	9	-11964	1716	11548	124	-28	-164	-15288	752	-6716	69	-35	175	-2428	-628	16612	31	-138	193	125	126	5
-11008	-4568	10456	-111	130	-182	-13916	2316	-8272	14	-28	-36	-1880	-860	16916	231	28	-10	-11968	1728	11612	152	-76	-138	-15264	768	-6640	64	2	166	-2444	-636	16696	25	-120	221	125	126	5
-11040	-4544	10528	-111	180	-173	-13988	2380	-8216	-24	-11	-85	-1868	-796	16908	188	-10	-5	-11940	1764	11608	141	-61	-153	-15244	796	-6500	69	-21	206	-2476	-492	16780	24	-124	198	125	127	5
-11000	-4540	10540	-112	184	-185	-13960	2324	-8148	-10	-64	-57	-1892	-892	17000	196	4	60	-11920	1688	11500	101	-80	-149	-15308	840	-6432	0	-48	206	-2436	-528	16684	18	-142	225	125	126	5
-11084	-4548	10592	-80	137	-163	-13948	2300	-8208	29	-62	-50	-1916	-860	16932	173	-20	8	-11896	1688	11596	124	-58	-160	-15240	820	-6396	48	-8	160	-2440	-536	16676	33	-110	224	125	126	5
-10972	-4556	10528	-100	150	-187	-13928	2328	-8120	4	-46	-82	-1820	-904	16916	219	-6	37	-11852	1776	11668	166	-75	-165	-15228	780	-6540	21	-16	127	-2476	-588	16680	-13	-151	235	125	126	5
-11000	-4536	10544	-89	160	-193	-13956	2360	-8296	0	-33	-15	-1848	-984	16952	176	-20	17	-11880	1752	11696	118	-68	-167	-15276	796	-6516	76	39	174	-2396	-596	16696	38	-145	229	125	126	5
-11004	-4592	10572	-82	182	-192	-13940	2364	-8244	-45	-23	-54	-1912	-828	17036	201	-12	38	-11924	1704	11560	124	-59	-179	-15252	852	-6536	86	16	125	-2444	-600	16712	-4	-145	240	125	126	5
-11028	-4628	10604	-115	169	-159	-13984	2424	-8220	-1	-67	-36	-1888	-804	16932	220	21	-1	-11908	1716	11552	131	-74	-181	-15300	776	-6568	76	19	151	-2460	-636	16640	22	-152	228	125	126	5
-10980	-4568	10548	-122	175	-136	-13960	2344	-8240	-28	-56	-68	-1812	-800	16928	158	-17	-3	-11924	1680	11668	105	-44	-146	-15216	876	-6572	57	-4	162	-2328	-644	16796	42	-114	200	125	127	5
-11044	-4560	10564	-82	167	-160	-13936	2356	-8068	7	-49	-35	-1828	-876	16896	178	-10	35	-11920	1700	11668	92	-27	-141	-15228	728	-6608	33	-13	161	-2376	-596	16632	55	-152	210	125	126	5
-11044	-4520	10572	-70	152	-168	-13936	2376	-8196	-13	-13	-46	-1812	-876	17000	202	-19	34	-11912	1728	11532	89	-79	-167	-15244	832	-6504	53	-25	139	-2416	-580	16804	30	-130	205	125	126	5
-11040	-4560	10556	-81	186	-167	-13936	2356	-8268	-7	-21	-34	-1892	-948	16988	210	11	28	-11944	1736	11516	98	-56	-144	-15216	844	-6516	41	-2	183	-2400	-504	16624	41	-135	246	125	126	5
-10980	-4544	10524	-103	146	-170	-13952	2324	-8224	-43	-59	-77	-1856	-908	17004	182	3	40	-11924	1756	11684	115	-60	-162	-15280	788	-6516	65	23	170	-2420	-556	16652	-4	-149	210	125	126	5
-11032	-4556	10560	-88	161	-182	-13944	2444	-8268	-16	-63	-47	-1908	-892	16864	190	-4	27	-11948	1712	11560	106	-27	-162	-15200	820	-6536	67	-2	132	-2424	-584	16708	-17	-123	212	125	126	5
-10984	-4520	10576	-78	172	-188	-13944	2348	-8144	-37	-24	-48	-1864	-864	17068	198	-47	28	-11932	1796	11484	122	-35	-172	-15264	820	-6604	43	-19	136	-2364	-536	16772	-25	-157	230	125	126	5
-11012	-4536	10600	-108	159	-114	-13892	2376	-8244	0	-21	-34	-1848	-836	16936	188	21	17	-11916	1764	11552	121	-49	-147	-15272	776	-6560	38	-10	171	-2404	-604	16656	26	-139	212	125	126	5
-10940	-4564	10592	-108	161	-153	-13976	2416	-8220	-22	-20	-38	-1912	-804	17044	185	3	28	-11936	1740	11648	133	-44	-174	-15316	832	-6316	57	-32	167	-2448	-664	16708	56	-103	204	125	126	5
-10988	-4556	10604	-139	194	-169	-13896	2364	-8160	0	-63	-43	-1860	-836	17000	203	-20	22	-11976	1720	11496	106	-72	-149	-15244	792	-6624	53	-30	151	-2376	-612	16664	38	-151	191	125	126	5
-11012	-4552	10712	-149	149	-149	-13956	2360	-8180	11	-69	-55	-1868	-860	17020	190	-5	40	-11928	1748	11672	116	-46	-166	-15220	792	-6688	54	12	151	-2440	-568	16624	40	-164	225	125	126	5
-11004	-4560	10608	-122	165	-172	-13936	2328	-8124	30	-36	-85	-1904	-844	16984	166	-26	11	-11928	1804	11580	109	-59	-151	-15248	900	-6436	55	-16	145	-2440	-600	16684	47	-95	236	125	126	5
-11028	-4524	10704	-80	149	-164	-13964	2300	-8216	-24	-45	-37	-1932	-884	17012	194	11	35	-11888	1748	11604	109	-15	-174	-15292	816	-6596	18	7	196	-2420	-572	16716	18	-130	222	125	126	5
-10956	-4572	10564	-67	164	-160	-13888	2332	-8140	8	-60	-31	-1832	-852	16884	181	2	12	-11936	1744	11620	121	-41	-173	-15240	744	-6472	68	3	157	-2412	-564	16704	23	-127	228	125	126	5
-11140	-4564	10580	-99	169	-150	-13960	2288	-8288	-22	-8	5	-1876	-860	17036	181	-25	14	-11912	1760	11652	119	-58	-185	-15260	732	-6520	64	-10	154	-2424	-624	16628	22	-120	205	125	126	5
-11004	-4528	10576	-116	144	-187	-13904	2404	-8216	-22	-41	-41	-1872	-832	16984	228	-18	20	-11928	1672	11460	105	-64	-177	-15228	804	-6588	78	-9	162	-2412	-620	16728	-17	-147	216	125	126	5
-10992	-4500	10656	-132	164	-186	-13908	2316	-8316	-30	-27	-37	-1936	-832	16980	210	-13	20	-11956	1800	11496	130	-61	-156	-15260	752	-6496	55	-17	169	-2420	-708	16604	14	-164	220	125	126	5
-10980	-4560	10536	-146	108	-187	-13932	2360	-8268	-4	-35	-68	-1880	-836	16964	192	-18	40	-11924	1748	11504	176	-85	-168	-15320	840	-6532	39	-26	113	-2424	-596	16700	35	-139	188	125	126	5
-10984	-4548	10736	-103	137	-171	-13940	2348	-8296	-1	-44	-65	-1912	-908	16996	176	5	62	-12000	1732	11604	134	-31	-146	-15300	760	-6612	26	13	196	-2404	-584	16624	47	-104	233	125	126	5
-11020	-4544	10512	-134	162	-147	-13952	2356	-8368	3	-79	-26	-1860	-888	16904	211	-10	61	-11948	1724	11576	130	-60	-183	-15272	788	-6648	60	-33	138	-2404	-548	16688	26	-116	238	125	127	5
-11040	-4544	10628	-121	171	-180	-13932	2344	-8320	6	-20	-37	-1832	-856	16976	197	-25	13	-12016	1732	11580	129	-62	-145	-15256	792	-6560	59	-11	147	-2416	-568	16756	42	-137	222	125	126	5
-10980	-4576	10576	-132	189	-144	-13980	2324	-8220	-1	-52	-59	-1872	-864	16988	181	17	27	-11896	1732	11516	122	-58	-181	-15256	792	-6412	47	-6	159	-2440	-584	16744	4	-147	193	125	126	5
-11032	-4504	10624	-77	160	-161	-13948	2384	-8180	-32	-69	-48	-1872	-864	16976	172	-25	23	-11952	1704	11484	104	-47	-147	-15268	792	-6548	66	-5	144	-2472	-548	16704	9	-130	242	125	126	5
-11004	-4536	10504	-82	206	-150	-13944	2376	-8240	-20	-82	-28	-1908	-872	17008	174	21	45	-11920	1672	11552	111	-59	-165	-15220	844	-6396	53	-22	167	-2484	-568	16728	3	-142	213	125	126	5
-11044	-4492	10620	-73	164	-164	-13900	2312	-8264	-28	-59	-64	-1804	-860	17016	193	-18	36	-11948	1752	11552	88	-50	-201	-15244	836	-6468	77	-62	163	-2376	-624	16652	1	-114	218	125	126	5
-11028	-4536	10608	-90	159	-175	-13892	2384	-8248	-3	-34	-27	-1884	-832	16892	181	5	20	-11984	1768	11500	104	-12	-152	-15244	832	-6512	58	-21	183	-2416	-636	16660	11	-138	246	125	126	5
-10972	-4576	10600	-75	187	-169	-13952	2340	-8068	-12	-45	-29	-1856	-860	16956	202	0	33	-11916	1760	11524	107	-51	-160	-15280	776	-6444	80	9	143	-2424	-652	16648	6	-135	220	125	126	5
-11072	-4556	10568	-74	170	-185	-13968	2304	-8200	-5	-21	-37	-1804	-804	17088	202	-19	21	-11904	1736	11608	74	3	-148	-15280	784	-6496	56	-32	211	-2352	-632	16640	9	-126	197	125	126	5
-11056	-4564	10616	-92	168	-118	-13944	2348	-8208	3	-43	-21	-1904	-864	17032	198	-11	16	-11836	1724	11712	117	-13	-155	-15316	816	-6620	37	-46	170	-2424	-552	16624	42	-149	222	125	126	5
-11020	-4588	10612	-105	159	-149	-13988	2380	-8244	-8	-44	-40	-1864	-880	16960	176	-38	27	-11952	1768	11592	149	-51	-158	-15288	812	-6528	60	-33	176	-2456	-576	16696	27	-138	215	125	126	5
-11024	-4536	10504	-108	144	-148	-13928	2300	-8196	-25	-38	-49	-1880	-916	16988	206	-35	58	-11940	1696	11560	96	-36	-162	-15272	896	-6464	49	-38	132	-2460	-608	16708	41	-134	251	125	126	5
-10996	-4564	10580	-114	140	-182	-13988	2336	-8176	4	-64	-39	-1880	-792	17148	189	-17	32	-11908	1764	11672	113	-92	-179	-15252	860	-6712	51	-15	147	-2412	-588	16708	11	-145	211	125	126	5
-11016	-4580	10612	-114	170	-176	-13940	2280	-8184	-23	-10	-70	-1848	-852	16992	201	-27	9	-11940	1700	11560	138	-27	-162	-15316	772	-6496	61	-6	156	-2456	-612	16708	53	-147	210	125	126	5
-10996	-4592	10516	-94	173	-177	-13932	2400	-8280	-18	-31	2	-1812	-848	16920	186	-24	53	-11924	1732	11664	99	-48	-145	-15220	780	-6548	53	-24	162	-2448	-568	16720	34	-136	225	125	126	5
-11008	-4480	10612	-102	137	-184	-14000	2372	-8188	0	-62	-12	-1816	-856	16976	180	-5	2	-11956	1748	11524	119	-36	-154	-15184	812	-6696	16	-13	157	-2468	-580	16600	6	-154	222	125	126	5
-10984	-4580	10536	-124	140	-164	-13884	2316	-8252	-13	-38	-42	-1912	-900	16964	187	7	7	-11920	1700	11588	118	-10	-166	-15208	756	-6456	84	-40	153	-2428	-620	16724	2	-134	249	125	126	5
-11024	-4568	10640	-89	131	-177	-13904	2272	-8132	-17	-44	-67	-1828	-832	17068	174	7	25	-11984	1696	11624	114	-77	-148	-15264	776	-6608	65	-24	176	-2428	-612	16756	73	-139	209	125	126	5
-11012	-4544	10608	-118	153	-185	-13948	2364	-8312	-26	-15	-48	-1788	-804	16964	189	-58	23	-11984	1764	11632	117	-45	-193	-15252	868	-6660	33	2	132	-2468	-652	16696	55	-144	217	125	126	5
-11020	-4536	10620	-111	201	-169	-13988	2336	-8156	3	-53	-20	-1872	-892	17032	176	-12	28	-12016	1712	11564	98	-30	-166	-15232	824	-6536	39	-21	152	-2448	-628	16712	5	-87	230	125	126	5
-11064	-4556	10544	-96	165	-170	-13984	2352	-8260	10	-47	-59	-1876	-916	17000	186	-20	10	-11904	1680	11592	163	-54	-176	-15248	832	-6556	86	-14	173	-2440	-600	16760	21	-133	195	125	126	5
-11012	-4560	10628	-110	154	-175	-13884	2380	-8328	-25	-27	-32	-1880	-796	17136	199	-45	8	-11908	1796	11520	102	-48	-157	-15260	764	-6584	49	9	160	-2436	-696	16752	5	-135	191	125	126	5
-10996	-4612	10520	-80	166	-173	-13956	2384	-8352	-44	-42	-66	-1844	-816	16940	180	-2	48	-11932	1668	11604	139	-76	-158	-15216	788	-6548	52	-18	193	-2448	-576	16668	20	-148	226	125	126	5
-11048	-4556	10544	-82	142	-142	-13932	2396	-8228	14	-95	-8	-1868	-792	16992	170	14	39	-11904	1728	11632	114	9	-176	-15308	776	-6684	26	-20	125	-2404	-580	16640	39	-125	226	125	127	5
-11044	-4572	10548	-105	188	-192	-13968	2304	-8156	26	-7	-58	-1840	-820	17040	182	-7	55	-11912	1768	11644	106	-43	-162	-15240	788	-6452	48	24	135	-2416	-624	16692	33	-100	218	125	126	5
-11000	-4536	10596	-114	159	-191	-13928	2316	-8248	-21	-78	-31	-1816	-884	16912	198	-18	26	-11976	1732	11532	142	-61	-169	-15228	788	-6368	32	-34	157	-2412	-608	16800	15	-120	228	125	126	5
-11052	-4540	10580	-93	161	-161	-13884	2380	-8288	-25	-42	-70	-1904	-860	17032	208	-53	25	-11916	1748	11532	151	-88	-152	-15296	804	-6500	65	-31	166	-2440	-604	16776	31	-134	217	125	126	5
-11052	-4536	10560	-87	197	-162	-13936	2356	-8300	-47	-75	-26	-1836	-856	17044	196	11	19	-11924	1784	11512	98	-43	-153	-15268	840	-6456	52	-46	140	-2388	-548	16660	6	-134	215	125	126	5
-11028	-4552	10608	-114	183	-153	-13980	2304	-8252	2	-29	-44	-1844	-828	16972	176	-42	4	-11892	1744	11588	102	-17	-150	-15312	828	-6468	30	-41	169	-2360	-604	16728	3	-148	207	125	126	5
-11016	-4604	10504	-99	137	-180	-13968	2372	-8216	-2	-65	-66	-1904	-900	17024	190	-2	16	-11916	1788	11472	116	-15	-155	-15280	872	-6512	52	9	149	-2460	-644	16696	18	-141	252	125	126	5
-11056	-4496	10584	-122	139	-139	-13956	2324	-8280	-20	-51	-21	-1816	-884	17028	178	-2	41	-12000	1736	11632	123	-44	-166	-15248	792	-6476	60	-36	117	-2436	-616	16600	-24	-149	192	125	126	5
-11012	-4548	10580	-121	160	-182	-13944	2344	-8224	-26	-7	2	-1824	-816	17068	199	-4	26	-11928	1740	11624	119	-41	-150	-15272	772	-6528	58	-6	162	-2404	-616	16560	16	-165	199	125	127	5
-10960	-4552	10668	-144	182	-140	-13952	2352	-8120	-8	-75	-16	-1824	-852	16932	234	8	48	-11956	1692	11544	116	-21	-178	-15224	836	-6516	85	-10	177	-2412	-684	16768	30	-149	204	124	126	5
-10956	-4560	10508	-105	170	-152	-13932	2396	-8236	12	-32	-54	-1916	-840	16924	192	-16	32	-11916	1764	11628	150	-24	-164	-15212	792	-6596	30	13	196	-2456	-628	16672	36	-114	250	125	126	5
