#Activity	sitting in car 
#ActivityID	12 
#Date 09-19-16-04
acc_rf_x	acc_rf_y	acc_rf_z	gyro_rf_x	gyro_rf_y	gyro_rf_z	acc_rs_x	acc_rs_y	acc_rs_z	gyro_rs_x	gyro_rs_y	gyro_rs_z	acc_rt_x	acc_rt_y	acc_rt_z	gyro_rt_x	gyro_rt_y	gyro_rt_z	acc_lf_x	acc_lf_y	acc_lf_z	gyro_lf_x	gyro_lf_y	gyro_lf_z	acc_ls_x	acc_ls_y	acc_ls_z	gyro_ls_x	gyro_ls_y	gyro_ls_z	acc_lt_x	acc_lt_y	acc_lt_z	gyro_lt_x	gyro_lt_y	gyro_lt_z	EMG_r	EMG_l	act
-6440	-5636	14180	13	-12	-15	-15248	-4704	1920	-6	5	-7	4064	-3720	15888	18	1	12	-4360	6480	14304	-9	16	-28	-14112	9032	360	-6	4	36	688	3944	16376	11	1	6	122	135	12
-6548	-5276	14516	10	-14	-13	-15824	-4784	1520	26	11	-8	3968	-3872	16432	18	-2	-3	-4088	6144	14616	-26	13	-25	-14608	9168	32	-22	5	25	496	4056	16688	7	-14	6	121	136	12
-6528	-5952	14716	-1	-7	-29	-15672	-4656	1656	10	-4	-11	3696	-3608	16416	18	-8	-6	-4296	6152	14336	-5	9	-20	-14888	8968	-32	8	-13	10	680	3960	16528	-15	-27	6	121	137	12
-6896	-4624	14368	16	-6	-9	-15680	-4112	1696	13	-11	-23	4120	-3456	16536	14	-7	-12	-4432	6448	14408	-3	9	-18	-14184	9144	144	51	-24	16	1008	3760	16664	-24	-35	0	121	139	12
-6632	-4692	14920	8	-32	-23	-15664	-4240	1944	2	-3	-5	4288	-3744	16400	12	-5	-3	-3816	6576	14224	-5	13	-17	-14352	9448	328	53	-25	20	1272	3736	16392	-10	-21	-3	121	138	12
-6376	-5156	14852	2	-17	-26	-15960	-4472	2224	0	-13	-16	4336	-3664	16320	16	-6	5	-4168	6840	14344	-12	7	-17	-14440	9536	416	43	-30	28	1184	3904	16712	3	-9	4	121	135	12
-6752	-4716	14420	8	-5	-16	-15760	-4352	1680	-15	-23	-10	4328	-3632	16128	0	5	3	-4048	6512	14000	9	11	-2	-13888	9128	200	17	-5	14	1448	4064	16040	24	-1	12	121	134	12
-6236	-4560	14376	3	-18	-17	-15192	-4136	2136	-9	-12	3	4320	-3520	16200	18	11	2	-4216	5984	13664	-3	30	-17	-13760	9016	448	20	-8	17	1296	3904	15712	23	7	23	121	136	12
-6724	-5352	14084	6	-22	-20	-15048	-4176	1664	2	4	-7	4328	-3440	15784	17	6	8	-4176	5592	13664	-4	14	-23	-13768	8880	480	-7	3	21	1160	3872	15816	22	8	24	120	138	12
-6572	-4948	14144	22	-18	-2	-15232	-4392	1656	-17	-11	-10	3864	-3832	15808	27	-2	16	-4160	5704	13632	-32	10	-18	-13952	9136	336	-23	10	23	880	3856	16104	10	-10	23	120	137	12
-6932	-4972	14528	17	-25	-13	-15376	-4552	1848	10	-6	-2	3880	-3872	16320	41	-9	2	-4232	5928	14560	-24	-5	-18	-14920	9168	-40	-21	10	26	608	3744	16768	-13	-28	25	121	137	12
-6964	-5544	14664	24	-21	-10	-15896	-4512	1752	1	-18	-6	3904	-3856	16440	45	-24	-6	-4088	5544	14808	-1	10	-27	-14928	9072	8	-16	-4	27	488	3488	16848	-9	-49	21	120	140	12
-6624	-4980	14780	16	-26	-11	-15688	-4008	1768	-3	-20	-3	4264	-3872	16432	47	-25	4	-4208	6064	14448	0	18	-15	-14512	9096	-176	-4	-15	29	1088	3464	16656	9	-53	17	120	137	12
-6852	-5068	14424	-4	-19	-19	-15528	-4440	1752	-17	-19	7	4440	-3448	16088	42	-18	20	-4168	5952	14280	3	12	-13	-14352	9008	40	10	-9	36	1160	3704	16648	27	-30	14	121	137	12
-6360	-4940	14320	12	-14	-9	-15472	-4568	2160	-44	-19	0	4400	-3592	15912	34	0	27	-3776	6464	13784	16	35	-1	-14184	8856	232	-9	-19	42	1312	3792	16120	34	1	11	122	136	12
-6728	-3680	14288	0	-12	-14	-14848	-4336	1968	11	1	3	4400	-3304	15520	25	14	16	-3720	6032	13576	2	25	-15	-13536	8944	240	37	-6	47	1296	4016	16168	41	22	10	123	137	12
-6584	-5400	14296	16	-18	-16	-15320	-4592	1952	-19	4	7	4072	-3360	16032	15	25	4	-3992	6272	13880	12	21	-16	-14048	9384	160	11	-6	43	640	3880	16256	32	25	13	123	136	12
-6708	-4484	14452	38	-17	3	-15752	-4240	1736	25	11	-6	3784	-3632	16120	12	25	-13	-4216	6400	13584	-2	23	-15	-13832	9200	376	-2	-6	49	760	4312	15824	28	10	9	122	137	12
-6580	-4004	14192	12	-6	-4	-15272	-3872	1720	25	8	25	3992	-3384	15840	25	8	-14	-4648	5744	13688	15	32	-13	-13440	9040	-8	3	0	34	928	4280	15760	12	-2	7	121	136	12
-6796	-5068	14140	25	-20	-12	-14816	-3912	1704	-29	5	20	4048	-3304	15688	28	14	-10	-3936	6336	13872	13	21	-16	-13392	9096	320	28	-8	35	936	4200	15728	4	-5	3	120	137	12
-6580	-5208	14444	20	-18	-8	-15216	-4136	1816	-4	2	18	3728	-3096	15680	42	16	-9	-3944	6168	13696	-13	23	-21	-13736	9120	416	-14	-6	42	648	4288	15888	6	-6	2	120	138	12
-6684	-4636	13892	13	0	-6	-15168	-3624	1336	29	-2	5	3776	-2840	15696	33	14	-8	-4392	5848	14096	-20	24	-28	-13728	8992	-128	-19	13	26	984	4320	16168	8	-10	16	120	134	12
-6464	-5220	14156	13	-12	-7	-15056	-4056	1848	-32	8	6	3856	-3016	15816	19	3	2	-4072	7040	14016	-8	22	-17	-14224	9352	232	32	11	4	912	4000	16392	-7	-17	20	120	137	12
-7040	-4400	14836	15	-19	-3	-15952	-3976	1696	11	6	-15	3544	-3224	16664	12	-5	4	-4200	6880	14248	-25	31	-16	-14224	9440	440	5	1	26	600	3984	16784	-10	-31	19	119	137	12
-6868	-4556	15204	1	-19	-17	-16496	-4016	1432	9	7	-12	3728	-3424	17056	25	-17	11	-4656	6672	14536	-25	22	-19	-14584	9528	88	-27	16	15	888	4104	16952	-11	-43	28	117	136	12
-6920	-4492	14696	-9	8	-11	-16216	-4144	1456	-40	-16	-26	4056	-3408	16672	17	-18	23	-5272	5544	14848	-21	35	-27	-14584	9392	-208	-30	26	14	920	4048	17104	-10	-36	29	118	136	12
-7068	-5732	14788	-22	-2	-26	-15840	-4480	1608	-43	2	-18	4208	-3568	16688	16	-15	24	-4456	6040	14464	-13	39	-20	-14704	9336	-32	23	17	12	928	3784	17208	-8	-14	24	118	140	12
-7072	-5748	14692	-19	7	-20	-15848	-4256	2304	-34	7	-39	4440	-3600	16448	4	5	60	-4640	5704	14784	-27	28	-21	-14656	9168	128	10	11	21	920	3840	16920	-2	14	16	120	137	12
-6412	-4484	14416	-18	15	-16	-15512	-4496	1656	-59	7	-52	4328	-3840	16384	-12	14	55	-4568	5992	14568	-15	33	-24	-14376	9224	56	39	10	6	680	3912	16648	9	18	21	121	137	12
-6512	-5464	14328	-27	9	-30	-15280	-4736	1504	-11	20	-38	4168	-3680	15736	-17	23	45	-3952	5696	13944	10	38	-19	-14032	9048	0	8	16	3	1016	3920	16016	7	23	23	122	136	12
-6292	-4792	14272	0	7	-10	-14992	-4264	1872	-33	16	-29	4008	-3856	15344	-10	40	29	-4264	5864	13080	21	44	-17	-13200	8776	184	52	2	10	1160	3904	15328	21	31	21	123	135	12
-6440	-4344	13800	11	3	5	-14560	-4040	1624	6	19	-5	3984	-4096	15392	5	48	18	-4272	6920	12880	14	43	-11	-12464	8888	-72	58	19	17	992	3632	14992	30	37	21	124	140	12
-6400	-4396	13584	13	-8	-5	-14960	-4128	1544	2	16	18	3544	-3912	15440	37	32	9	-4488	6688	13080	-13	47	-21	-12872	8984	-232	-22	34	39	704	3712	15632	31	38	29	122	137	12
-7152	-4812	14320	17	-16	0	-15424	-4464	1512	-3	19	29	3056	-3672	16328	48	10	-8	-5056	6192	14064	-58	14	-32	-14384	9320	-656	-72	43	44	-408	3848	16816	12	-8	25	121	137	12
-7416	-5548	14644	31	-13	5	-16184	-4512	1080	32	13	20	2928	-3432	16224	42	-17	-25	-4736	5552	14960	-51	8	-31	-15528	8864	-488	-39	27	29	-480	3936	17168	-24	-70	17	118	137	12
-7448	-5076	14648	22	-9	6	-16048	-4224	1080	-1	-2	6	3248	-3272	16744	23	-41	-29	-4976	5976	14784	-19	23	-19	-15432	9272	-560	24	-9	10	112	3816	17136	-48	-109	-5	117	136	12
-7472	-4996	14800	15	-6	6	-15704	-3880	1104	13	-4	1	3720	-3048	16200	0	-38	-10	-5072	6176	14120	16	41	-7	-14432	9088	-760	50	-23	6	872	3616	16720	-46	-82	-23	118	136	12
-7408	-4328	14364	16	0	-8	-15320	-3744	1296	-31	12	-10	3840	-3520	16224	-3	-24	31	-4816	6216	13616	8	34	-9	-13336	9376	-200	64	-6	19	1064	3568	16528	-12	-15	-1	120	136	12
-7560	-5232	14316	10	-13	-13	-15560	-3992	1224	-25	8	-20	3424	-3808	16472	2	-7	53	-4992	6896	13840	2	21	-13	-13952	9664	-616	-37	29	26	408	3504	16688	27	42	40	123	134	12
-7776	-4736	14436	9	-12	-3	-16368	-4432	792	-16	0	-18	2880	-4128	16888	28	-8	58	-5816	6056	14568	-40	20	-29	-14656	9792	-1104	-95	51	43	-608	3976	17184	41	42	76	124	132	12
-8172	-5020	14304	1	-5	-8	-16568	-4464	440	-6	0	-11	2784	-3944	16736	40	-20	52	-5968	5872	14456	-34	29	-26	-14984	9352	-1592	-62	44	13	-848	4080	17032	25	4	86	123	132	12
-8000	-4588	13988	1	2	-14	-15704	-3960	344	-23	7	-4	3200	-3712	16552	45	-18	51	-5704	6048	14008	-8	33	-19	-14184	9112	-1416	55	20	10	-568	3952	16592	1	-24	61	122	132	12
-8044	-4348	13456	6	-2	1	-15344	-3872	424	-30	1	7	3080	-3808	16296	46	-9	60	-5656	6704	13552	-14	38	-18	-13408	9264	-1256	45	3	22	-424	3816	16008	-7	-5	29	123	133	12
-8176	-4556	13884	12	-15	-7	-15808	-4176	528	4	27	12	2504	-3464	16792	36	4	28	-5824	6624	13704	-32	27	-23	-13888	9584	-1496	-2	20	33	-952	3664	16992	-3	6	23	123	134	12
-8552	-4928	14644	24	-14	-2	-16704	-4384	264	31	24	10	2152	-3688	17280	23	6	-10	-6056	6064	14544	-55	9	-32	-15264	9856	-1528	-58	20	36	-1600	3880	17728	-4	-2	22	123	134	12
-8732	-5164	14588	26	-8	0	-16736	-4184	-288	32	13	1	2272	-3440	17088	13	-1	-24	-5680	5624	14560	-22	32	-20	-15456	9536	-1744	-23	8	12	-1128	4168	17248	-11	-17	18	122	137	12
-8224	-4376	14260	-1	10	-17	-15888	-3272	192	-4	4	5	2928	-3080	16688	11	14	-14	-5896	5744	14160	8	36	-21	-14256	9128	-1608	63	-19	2	-496	3832	16472	-13	-19	12	121	138	12
-7988	-4128	14236	-4	-3	-20	-15472	-3456	480	-41	4	-3	2904	-2984	16240	10	23	13	-5064	6304	13184	6	24	-6	-13416	9496	-696	88	-34	8	-104	3920	16152	-3	12	3	123	137	12
-7600	-3432	13896	10	0	-11	-15480	-3440	616	-28	2	-12	2520	-3168	16184	-1	42	18	-5752	6736	12384	23	34	-1	-12568	9720	-792	43	-10	25	-256	3912	15336	11	33	3	123	135	12
-7784	-3292	13312	6	3	-2	-15320	-3232	368	25	9	0	2240	-3168	15808	8	36	18	-5664	6912	12248	-2	36	-7	-12072	9336	-1496	-20	18	24	-464	3960	14640	36	38	27	123	135	12
-7632	-3808	13000	2	-13	-18	-14768	-3304	184	8	19	20	2008	-3120	15400	21	29	12	-5624	6504	12072	-20	33	-16	-12112	9048	-1512	-17	34	12	-1072	4000	14688	38	20	53	122	134	12
-8200	-3948	13436	20	-22	-8	-14392	-3328	-152	-2	17	15	1872	-2896	15368	41	13	14	-5496	6392	13288	-70	-1	-26	-13072	9312	-1416	1	25	16	-1264	3776	16040	24	-6	66	122	135	12
-8480	-5268	13940	1	-38	-15	-15976	-3976	-16	10	-12	-12	1272	-2952	17048	45	-30	1	-6360	5952	14824	-128	-30	-40	-15368	9648	-1960	-96	20	13	-2064	4136	17776	-23	-60	68	119	137	12
-9008	-5544	14380	-14	-29	-20	-17176	-4352	-424	11	-29	-54	1368	-3128	17728	28	-74	-5	-6376	5160	15520	-89	-15	-31	-16728	9176	-2304	-67	1	-36	-1576	4032	18464	-81	-126	52	116	141	12
-8476	-4688	14356	-31	-21	-27	-16688	-3696	8	-5	-24	-68	2760	-3360	17152	-10	-82	14	-5904	5432	14576	-10	14	-17	-15376	8792	-1704	36	-41	-53	80	3584	17000	-106	-115	19	112	145	12
-7636	-4208	13888	-52	-1	-38	-15264	-3296	632	-50	-23	-64	3880	-3184	16152	-10	-50	50	-5584	6592	13288	36	46	-2	-13400	8432	-1232	125	-42	-50	1120	2856	16304	-63	-30	3	118	144	12
-8068	-4180	13732	-44	-2	-24	-15016	-3672	912	-93	-30	-71	3576	-3696	16064	-26	0	84	-5656	7432	12720	15	41	-2	-13008	9760	-784	28	5	-17	680	2912	15840	14	53	24	123	137	12
-8164	-3944	13628	-21	-2	-13	-15632	-4472	264	-31	-6	-57	2976	-4760	16216	-20	29	84	-5864	6936	13448	-27	37	-16	-13024	9624	-1168	-56	60	11	-224	3368	16120	76	71	66	125	131	12
-8084	-4252	14204	-13	-14	-21	-16168	-4800	168	-25	4	-19	2560	-4968	16360	16	32	62	-5896	6104	13528	-62	32	-28	-14080	9536	-1344	-116	75	9	-1176	3760	16320	61	35	100	125	129	12
-8256	-4588	13784	4	-3	-1	-15624	-4520	56	-24	-5	-3	2536	-4512	15848	52	23	29	-6104	6104	13800	-48	31	-27	-13992	8448	-2000	-39	46	2	-1120	3600	15992	24	-6	93	123	132	12
-8220	-5000	13748	0	-13	-18	-15184	-4448	-152	-19	0	29	2544	-3600	15872	67	10	9	-5952	5864	13728	-43	8	-25	-14104	8640	-1520	78	3	11	-1104	3288	16480	-22	-44	52	121	138	12
-8172	-4984	13432	30	-34	2	-15440	-4568	480	16	8	20	2024	-3736	15968	50	6	-11	-5504	5600	13584	-50	5	-19	-14000	8568	-1896	30	-12	20	-960	3072	16200	-29	-29	18	122	137	12
-8072	-4424	13684	45	-19	1	-15160	-4248	-96	48	20	27	2200	-3696	16096	31	5	-39	-5664	5584	13488	-2	23	-14	-14088	8832	-1848	26	-5	24	-816	2880	16536	-11	-16	2	124	137	12
-8020	-4944	13812	36	-22	-2	-15400	-3872	-112	40	11	38	2408	-3352	16040	25	8	-44	-5472	6136	13768	14	9	-1	-14408	9008	-1496	-6	-4	28	-912	2952	16544	16	1	8	124	136	12
-7908	-4528	13960	53	-18	19	-15752	-3440	40	13	-11	21	2280	-3416	16552	26	5	-32	-5840	6552	14064	16	24	-3	-14168	9064	-1376	-17	-10	41	-592	3112	16592	23	-1	9	123	136	12
-8176	-3832	14256	33	-31	3	-16160	-3376	320	-10	-19	18	2368	-3312	16656	31	-2	-5	-5912	6640	13672	20	28	4	-13992	9080	-1224	-9	-12	54	-376	3408	16312	32	-11	5	122	137	12
-7920	-3972	14180	3	-16	-13	-15832	-3528	512	-50	-24	25	2776	-3392	16440	56	-3	28	-5552	5728	13256	14	31	-2	-13960	9080	-1240	-2	-19	63	-160	3808	16168	30	-11	8	121	137	12
-7900	-4532	13312	0	6	-9	-15008	-3520	528	-38	-22	19	3160	-3072	15848	60	8	40	-5456	6184	13128	21	26	2	-13352	8896	-1152	25	-13	53	96	4016	16056	30	-1	8	120	136	12
-7804	-4620	12992	-11	8	-14	-14672	-3872	592	-17	-5	16	3096	-2984	15608	49	18	43	-5744	6360	13232	-3	30	-18	-13440	9160	-1568	21	7	45	-256	4328	16096	15	9	14	121	134	12
-8128	-4828	13516	13	-14	-11	-15064	-4160	336	16	24	-8	3048	-2928	15608	47	21	44	-5640	5656	13368	-25	31	-20	-14152	9544	-1264	16	18	30	-720	4512	16696	-2	5	19	121	133	12
-8200	-4580	13808	25	-3	4	-15960	-3984	448	31	33	-15	2248	-3216	16448	13	8	11	-6104	5848	13600	-30	40	-29	-13912	9680	-1688	-26	25	17	-864	4312	16568	-12	-16	18	120	139	12
-8232	-4332	14176	15	-5	0	-15936	-3584	72	23	39	-7	2488	-3176	16432	15	0	-1	-5416	6400	13888	-22	21	-21	-14024	9464	-1344	26	25	-6	-752	4024	16504	-16	-15	26	121	141	12
-7824	-4220	14284	1	4	-16	-16088	-3440	264	-46	1	-4	2472	-3408	16440	24	0	4	-5600	6200	13288	-37	28	-27	-14016	9512	-1296	-1	7	-2	-904	3920	16480	-28	-10	28	121	139	12
-8020	-4020	13744	-3	11	-8	-15824	-3456	144	-13	-1	-19	2520	-3176	16120	15	10	11	-5728	6216	13240	-31	36	-19	-13440	9360	-1336	25	13	-6	-392	3816	16080	-11	-10	30	121	139	12
-7964	-4724	13876	-7	3	-16	-15360	-3712	496	-32	13	1	2432	-3224	16240	13	16	18	-5536	6400	13008	-26	33	-30	-13576	9336	-1272	50	17	-6	-656	3624	16200	-3	3	35	121	138	12
-8348	-4152	13904	-1	-10	-8	-15696	-3672	384	17	10	-21	2296	-3128	16592	1	17	16	-5616	6240	13272	-44	21	-16	-13928	9664	-1256	-11	16	1	-976	3624	16560	4	2	40	121	136	12
-7868	-3684	14472	1	-12	-8	-16024	-3544	208	-1	4	-20	2352	-3392	16600	7	11	20	-5904	6208	14008	-43	15	-22	-14304	9568	-1592	-3	16	-1	-896	3696	16760	8	-12	38	121	136	12
-8164	-4528	14044	-12	-10	-13	-16288	-3808	400	-10	-17	-24	2296	-3208	16736	12	-13	25	-5800	6072	14176	-32	22	-19	-14440	9328	-1688	-34	12	-7	-800	3632	16800	-6	-28	33	120	132	12
-8500	-4268	13980	-14	-13	-15	-16160	-4048	136	-40	-20	-29	2416	-3624	16616	9	-13	27	-5912	6064	14000	-16	28	-12	-14528	9360	-1448	-21	7	-8	-360	3456	16576	-14	-40	22	118	138	12
-8420	-4652	14164	-21	-22	-20	-16024	-4096	264	-25	-3	-21	2688	-3896	16992	22	-27	28	-6000	6392	14024	-34	22	-16	-14392	9328	-1224	11	-2	11	-568	3648	17184	-21	-36	21	118	139	12
-8448	-4572	14436	-15	-12	-20	-16200	-4432	304	-31	-8	-32	2808	-3960	16784	18	-22	31	-5936	6232	14344	-32	28	-20	-14832	9480	-1304	-25	8	8	-552	3616	17160	-7	-32	29	119	139	12
-8264	-4948	14276	-18	-13	-16	-16248	-4560	480	-10	-8	-24	2904	-3984	16728	17	-19	27	-5600	6192	14168	-21	30	-11	-14776	9312	-1304	-14	6	2	-472	3376	16944	1	-26	35	121	137	12
-8220	-4252	13852	-29	-5	-13	-15568	-4296	240	-13	-6	-18	2856	-3952	16136	19	-9	33	-6016	5800	13744	-7	36	-11	-14152	8904	-1344	15	1	-1	-376	3480	16696	1	-21	35	122	138	12
-7936	-4656	13984	-12	-16	-12	-15128	-4272	80	-16	0	-6	2936	-4024	16320	23	3	34	-5680	6224	13744	-10	17	-6	-13648	8976	-1144	35	2	9	-320	3336	16288	26	-2	48	123	136	12
-7940	-4476	13808	9	-26	2	-15840	-4416	240	-11	-16	-1	2424	-4232	16264	27	6	23	-5576	6344	13712	-24	17	-3	-13728	9328	-1432	-7	7	26	-744	3408	16336	43	7	50	124	133	12
-8024	-4364	13912	18	-41	4	-15712	-4360	232	-4	-17	19	2184	-4232	16488	34	5	7	-5776	6456	13832	-26	8	-1	-13960	9192	-1640	-40	13	26	-968	3208	16280	39	-7	55	124	132	12
-8136	-4600	13936	21	-39	-6	-15752	-4096	72	6	-25	26	2304	-3840	16440	44	-5	-9	-6128	5760	13944	-30	4	-12	-14456	8888	-1952	-48	-4	38	-1192	3320	16632	27	-27	50	123	132	12
-8544	-4672	13848	20	-34	-11	-15720	-4120	-8	1	-26	19	2144	-3400	16504	43	-20	-18	-5992	5984	14384	-26	-10	-3	-14664	9008	-1848	-5	-20	36	-1128	3280	17096	15	-56	31	122	136	12
-8228	-4748	14084	24	-36	-9	-15920	-3784	312	3	-25	6	2360	-3304	16632	34	-34	-9	-5936	5568	14248	0	-12	-5	-14704	9104	-1520	23	-42	35	-720	3368	17024	-3	-59	10	122	137	12
-8172	-4624	14080	15	-38	-15	-16160	-3720	168	14	-29	-4	2448	-3336	16792	32	-40	1	-5808	6480	14120	-3	-5	4	-14176	9072	-1344	7	-51	41	-536	3624	16424	6	-48	-6	122	136	12
-7924	-4044	14168	23	-42	-10	-15744	-3560	408	-3	-37	2	2720	-3416	16472	33	-26	11	-5168	6448	12888	44	15	17	-13224	9344	-1056	26	-44	44	-144	3816	15728	26	-23	-2	123	137	12
-7904	-4436	13648	9	-31	-21	-15048	-3336	192	-15	-36	20	3072	-3112	15784	42	-7	16	-5640	6696	12944	26	-1	14	-12856	9528	-904	0	-24	39	-272	3968	15680	44	-7	20	123	135	12
-8132	-4344	13084	28	-31	0	-15224	-3696	32	-33	-42	5	2528	-3264	16136	37	2	15	-6096	6048	13256	-19	8	-6	-13024	9624	-1616	-52	-1	47	-592	4272	15824	56	-2	42	123	133	12
-8380	-4468	13912	28	-60	-15	-15624	-4224	464	4	-14	13	2376	-3400	16736	39	-11	2	-5784	6824	13960	-28	-12	-10	-14384	9936	-1512	-46	2	35	-1312	4216	16800	30	-38	52	121	134	12
-8240	-4368	14624	17	-49	-11	-16848	-3936	160	41	-16	1	2104	-3400	17136	41	-39	-13	-6064	5544	14072	-50	-3	-23	-14912	9472	-1840	-66	-8	31	-1168	4248	17096	1	-72	48	119	136	12
-8472	-4936	13984	7	-21	-15	-16280	-3448	-88	7	-30	-2	2736	-2976	16720	37	-44	-15	-5592	5408	14104	-19	-2	-5	-14504	8992	-1488	36	-11	-6	-384	4080	16688	-17	-82	33	118	140	12
-7944	-4620	13488	-6	-9	-21	-15288	-3600	544	-44	-30	-6	2904	-2792	16312	24	-30	7	-5824	6024	13544	-5	24	-11	-13848	8952	-1440	50	-24	-6	48	3600	16536	-18	-42	18	119	140	12
-8048	-4092	13944	3	-28	-22	-15264	-3696	472	-18	-7	-31	2976	-3408	16360	2	-2	28	-5952	6224	13616	-4	24	-14	-13720	9352	-1168	35	-12	1	-104	3584	16696	3	-2	18	120	136	12
-8536	-4976	13796	-9	-11	-16	-16224	-3912	288	8	-13	-30	2464	-3616	16920	3	-10	31	-6104	6176	13776	-22	21	-13	-14032	9536	-1456	-74	33	11	-520	3656	16776	18	1	36	120	134	12
-8196	-4436	14344	0	-29	-17	-16096	-4072	-72	-26	-11	-33	2544	-4088	16768	18	-14	33	-5272	6264	14288	-32	4	-20	-14720	9448	-1376	-20	25	-5	-760	3576	17096	22	-15	54	120	135	12
-8000	-4896	14180	-7	-16	-17	-16160	-4096	472	-42	-27	-26	2584	-4072	16472	39	-10	37	-5808	5704	13984	-27	30	-24	-14248	9200	-1552	-39	0	8	-576	3360	16448	1	-24	46	119	140	12
-8024	-4656	13532	-22	-5	-20	-15208	-4008	-208	-37	-18	-12	3064	-3768	15840	41	-5	35	-5920	5952	13816	-14	18	-9	-13720	8752	-1512	71	1	9	-248	3352	16328	1	-21	41	121	139	12
-7980	-4204	13596	-24	-9	-24	-15304	-4568	592	-39	-8	1	2720	-3888	15952	35	15	28	-5280	6232	13672	-20	18	-15	-13928	9016	-1064	25	-8	20	-496	3328	16328	9	5	29	122	134	12
-8192	-4540	13472	10	-17	-2	-15416	-4304	256	42	-4	0	2640	-3832	16128	17	16	1	-5944	5680	13416	-13	22	-12	-13696	8992	-1712	-29	17	25	-496	3472	16152	18	1	25	123	133	12
-7596	-4104	13832	30	-25	7	-15360	-3984	336	-1	5	20	2800	-3872	15848	18	17	-11	-5936	5648	13384	-12	26	-14	-13800	9144	-1344	14	9	25	-648	3344	16336	26	-3	31	124	130	12
-8420	-5276	13688	21	-16	2	-15616	-3672	-56	23	5	20	2712	-3808	16224	23	16	-8	-5832	6352	13912	-10	21	-10	-14096	9192	-1960	-29	16	31	-864	3248	16552	14	-17	32	123	134	12
-8340	-4612	14040	24	-25	3	-16008	-3832	112	-21	-4	12	2192	-3632	16728	30	-11	-6	-6112	6296	13808	3	21	-9	-14216	9160	-1936	-29	4	41	-888	3568	16600	9	-39	24	122	136	12
-8468	-4324	14420	20	-31	-3	-16184	-3696	24	4	-3	16	2376	-3552	16824	52	-27	7	-6056	5976	14088	-8	6	-8	-14360	9304	-1752	22	-9	51	-784	3640	17008	3	-39	14	121	136	12
-8248	-4692	14416	13	-17	-6	-16320	-3728	304	-12	-14	11	2416	-3448	16904	62	-22	21	-5824	5912	13696	2	21	-6	-14456	9600	-1560	-2	-22	44	-832	3752	17016	2	-25	7	122	138	12
-8356	-4360	14004	10	-5	-11	-15840	-3688	208	3	-18	5	2824	-3040	16744	49	-15	23	-5472	6440	13800	34	15	4	-13976	9400	-1464	24	-11	45	-472	4032	16664	18	-11	7	121	136	12
-7508	-3916	13916	2	-15	-7	-15624	-3584	600	-31	-14	12	2936	-3120	16384	42	4	30	-5912	6824	13536	3	28	7	-13768	9704	-1240	26	-22	37	-672	4160	16528	30	2	15	122	136	12
-8568	-5156	13840	3	-25	-19	-15808	-3976	384	4	-6	-4	2544	-3064	16560	24	6	20	-5872	6376	13584	-7	17	-13	-13920	9720	-1432	-32	4	27	-912	4552	16456	36	-2	26	121	133	12
-8380	-4640	14120	22	-23	-7	-16080	-4072	144	-10	-9	-8	2344	-3504	16896	12	-2	11	-5888	5968	14000	-25	8	-12	-14304	9776	-1608	-25	-2	21	-992	4432	16696	21	-22	34	121	135	12
-8644	-4544	14352	9	-30	-13	-16376	-4016	40	17	-7	-4	2224	-3368	17064	16	-12	-7	-6144	6000	14216	-25	1	-12	-14576	9632	-1528	-9	-2	2	-784	4200	16712	-2	-36	37	120	138	12
-8184	-4920	14260	10	-29	-9	-16280	-3672	248	-4	-20	-7	2424	-3488	16888	26	-12	-7	-6048	6504	13976	-29	15	-20	-14216	9232	-1344	4	-18	-4	-560	3944	16856	-15	-42	35	119	141	12
-8184	-4580	14120	-4	-25	-25	-15576	-3672	160	-22	-23	-13	2776	-3256	16488	23	-14	2	-5656	6336	13800	-20	5	-14	-14040	9272	-1344	34	-6	-16	-272	3640	16680	-11	-32	43	119	141	12
-8456	-4332	14096	-6	-29	-15	-15944	-3864	392	-26	-21	-23	2424	-3296	16648	13	-15	16	-5736	5880	13808	-27	10	-11	-14232	9312	-1432	-27	0	-6	-584	3544	16784	9	-21	48	119	137	12
-8016	-4588	13932	-2	-31	-12	-16064	-3912	304	-6	-18	-34	2480	-3784	16720	10	-19	26	-5936	6024	13952	-34	14	-12	-14528	9096	-1632	-37	11	-8	-616	3544	16744	19	-26	49	119	139	12
-8340	-4864	13992	6	-25	-13	-15912	-4208	184	-8	-23	-34	2688	-3920	16504	17	-26	33	-5640	6080	14112	-12	20	-11	-14168	9224	-1136	-10	11	-5	-528	3136	16648	19	-30	52	120	137	12
-7968	-4268	13920	-28	-28	-23	-15744	-4048	72	-30	-28	-18	2656	-4016	16272	35	-21	39	-6024	5472	13808	-32	13	-12	-14192	8760	-1584	-31	-7	9	-600	3360	16704	5	-35	43	120	140	12
-8428	-4980	13664	-8	-31	-18	-15440	-4368	136	-49	-31	-20	2568	-4168	16160	34	-19	36	-5784	5920	13440	-17	12	-5	-14000	8936	-1576	-2	-9	10	-720	3152	16432	5	-27	38	122	139	12
-7956	-4824	14008	7	-35	-12	-15600	-4552	-16	-11	-17	2	2792	-4216	16224	39	-14	20	-5544	6632	13528	-1	-2	8	-14056	9264	-1416	19	-8	31	-688	3056	16800	13	-24	40	123	136	12
-8044	-4440	14032	24	-39	0	-16104	-4240	328	23	-29	7	2744	-4056	16544	51	-16	8	-5696	5896	13632	-2	11	-1	-13984	9360	-1520	-46	-8	48	-904	3224	16504	33	-12	36	124	133	12
-8108	-4568	13700	24	-31	-8	-15576	-3792	240	10	-26	33	2744	-3480	16200	50	-8	-4	-5832	5456	13448	13	8	5	-13760	8904	-1368	-11	-10	50	-616	3440	16136	45	-14	36	125	134	12
-7748	-4108	13464	16	-35	-5	-14936	-3592	416	-41	-30	45	2896	-3440	15992	53	2	0	-5952	5744	13032	16	17	2	-13408	8928	-1456	9	-22	54	-624	3592	15928	44	-8	22	125	134	12
-8028	-5024	13168	29	-35	-4	-15120	-3928	424	7	-9	32	2544	-2944	15744	38	8	-8	-5600	5824	13096	11	-2	-2	-13520	9056	-1456	20	-19	57	-592	3904	16000	36	-12	10	123	135	12
-7952	-4552	13384	46	-25	9	-15480	-3752	64	19	-6	27	2248	-3032	16144	29	3	-19	-6080	6504	13384	7	14	5	-13672	9440	-1480	7	-19	54	-912	4072	16376	21	-19	5	123	136	12
-8308	-3976	13896	26	-31	3	-15888	-3304	-136	55	7	25	2160	-3080	16664	31	-4	-25	-5816	6144	14032	-16	3	-6	-14048	9664	-1680	-22	-9	54	-992	4376	16728	6	-34	3	121	138	12
-8140	-4664	14300	23	-27	2	-16256	-3432	600	-5	-11	15	2376	-2768	17152	32	-15	-14	-6000	6528	14024	-7	13	-8	-14720	9984	-1560	-17	-20	33	-1000	4200	17048	-12	-46	1	120	137	12
-8408	-3940	14544	0	-21	-10	-16400	-3272	192	13	-11	-9	2536	-2720	17032	29	-27	4	-6264	6000	13944	-10	20	-14	-14232	9712	-1440	-5	-20	30	-536	4512	16816	-14	-46	3	119	141	12
-8072	-4348	14056	-25	-5	-18	-15792	-3144	448	-25	-12	-19	2888	-2624	16224	16	-14	26	-5984	6480	13480	2	34	-10	-13960	9656	-1344	19	-18	2	-104	4296	16312	5	-44	15	118	139	12
-8512	-4044	13492	-39	-1	-22	-15272	-3536	112	-32	0	-35	2904	-2808	16376	-4	-1	45	-5688	6184	13512	-13	28	-11	-13176	9640	-1040	39	4	-8	-120	4416	16144	-2	-13	24	119	132	12
-7988	-4628	13932	-20	-16	-15	-15616	-3736	536	-29	6	-39	2488	-3224	16448	-12	6	39	-5384	7072	13224	-25	34	-18	-13328	10024	-1240	13	7	-18	-264	4320	15984	3	-5	28	120	136	12
-8440	-3844	14172	-17	-10	-11	-15904	-3632	-88	17	12	-43	2160	-3416	16744	-6	8	31	-5824	6504	13536	-61	15	-29	-13696	9912	-1544	-30	37	-11	-904	4264	16536	-5	-4	58	120	135	12
-8304	-5128	14488	-11	-19	-22	-16432	-3856	248	-28	-2	-31	2184	-3520	17064	4	-5	20	-5608	6080	13440	-61	11	-28	-14480	9576	-1344	-33	29	-29	-1128	3728	16528	-15	-24	68	119	134	12
-8460	-4236	14144	-9	-11	-8	-16144	-3576	96	-17	-12	-36	2264	-3680	16496	25	-16	20	-5952	6040	13808	-55	20	-24	-13936	9112	-1752	-9	23	-21	-680	3352	16528	-16	-41	62	118	139	12
-7964	-4488	13924	-20	-20	-26	-15768	-3808	488	-49	-22	-16	2488	-3504	16280	30	-22	29	-5872	5744	14000	-46	14	-29	-14144	8888	-1424	21	-1	-23	-488	3168	16616	-7	-30	61	118	138	12
-8372	-4672	13632	-13	-21	-15	-15496	-4248	264	-33	-19	-40	2512	-3712	16336	20	-20	28	-6056	6360	13944	-45	20	-23	-14416	9096	-1928	-29	9	-12	-808	3056	16936	-4	-29	50	118	136	12
-8648	-4804	14508	-16	-31	-23	-16144	-4720	-80	3	-8	-29	2344	-3976	16848	13	-29	25	-5944	5464	14576	-55	-9	-19	-15504	9224	-1360	-11	11	-6	-1032	3016	17816	-6	-41	43	118	135	12
-8580	-5752	14220	-7	-18	-17	-16824	-4504	168	-1	-27	-44	2392	-4104	17552	9	-38	26	-6368	5560	14960	-37	9	-25	-15560	9272	-2080	-71	3	5	-976	2960	17760	-20	-54	31	118	137	12
-8316	-5220	14636	-7	-30	-28	-16464	-4496	-192	-22	-24	-36	2816	-4368	16936	15	-42	33	-5568	6360	14360	11	10	0	-15192	9080	-1456	37	-23	1	-368	3064	17240	-20	-49	19	120	137	12
-8228	-3648	14112	-8	-8	-11	-15816	-3904	952	-28	-34	-12	3296	-4408	16248	33	-10	43	-6032	6216	13472	18	38	0	-13592	8968	-1152	49	-28	30	208	3208	16168	4	-3	12	124	136	12
-7972	-4580	13696	-16	-18	-25	-15208	-4352	528	-57	-21	15	3168	-4128	15784	39	19	36	-6064	5880	13288	22	36	-5	-13352	8984	-912	36	-8	33	-144	3416	15968	43	34	24	126	131	12
-7900	-4732	13540	27	-22	-2	-15048	-4736	840	-35	-19	25	2912	-4232	15856	36	43	10	-5848	6504	12816	-8	29	-7	-13288	9520	-1464	-46	-1	50	-744	3688	15816	71	39	40	129	129	12
-8632	-4896	13568	27	-30	-3	-15352	-4376	-160	66	18	31	2464	-3584	16392	34	34	-19	-5752	5912	13808	-32	-4	-17	-14136	9248	-1368	-45	22	46	-1200	3800	16464	56	3	47	126	130	12
-7832	-4992	13984	42	-32	1	-15848	-4000	288	27	6	36	2168	-3248	16216	29	16	-36	-5864	5720	13832	-31	-2	-17	-14672	9032	-1336	-8	-10	31	-1200	3912	16616	11	-39	33	124	135	12
-8268	-4652	13692	36	-26	0	-15696	-3504	-264	34	-9	14	1984	-2872	16320	26	-9	-46	-5640	5792	13304	-4	5	-3	-14112	8832	-1568	36	-34	23	-768	3760	16008	-16	-63	7	123	137	12
-7556	-4148	13660	30	-29	-8	-14984	-2952	336	6	-12	31	2320	-2680	15744	26	-10	-29	-5264	6376	12824	14	17	0	-13176	8824	-1272	88	-46	23	-168	3784	15544	-23	-42	-10	122	138	12
-7968	-4048	13324	-2	-25	-11	-14848	-3208	184	3	-13	15	2360	-2640	16192	16	-9	-10	-5568	6488	13288	-6	-7	-4	-12976	9104	-1096	78	-48	30	-496	3880	15968	-7	-15	-1	122	135	12
-7892	-4420	13664	10	-34	-8	-15656	-3632	336	-21	-26	-11	2432	-2840	16552	9	-13	2	-5728	6608	13384	-19	12	-7	-14096	9864	-1384	-76	0	24	-1096	4008	16728	6	-21	23	122	134	12
-8532	-4112	14488	12	-35	-12	-16376	-3288	152	31	-9	-30	2432	-3080	16936	17	-29	19	-5504	6576	13888	-18	12	-10	-14136	9848	-1392	-53	7	11	-792	4168	16536	8	-47	38	119	136	12
-8208	-4060	14596	-19	-15	-25	-16672	-3024	496	-23	-25	-30	2480	-2920	17256	39	-46	44	-6184	6224	13544	-29	13	-12	-13992	9416	-1544	-31	-10	11	-448	4120	16688	-2	-54	39	117	137	12
-8116	-4584	13840	-35	-12	-29	-15744	-3632	208	-62	-31	-31	2888	-3008	16736	33	-46	60	-5704	5824	13704	-20	9	-16	-13928	8944	-1352	50	-2	-5	-368	4368	16400	-7	-52	29	117	140	12
-7756	-4800	13784	-38	-2	-32	-15208	-4056	728	-60	-18	-38	3144	-3312	16688	20	-19	60	-5800	6296	13616	-42	14	-23	-13824	9496	-1360	35	-11	-4	-336	4200	16592	-15	-30	28	118	138	12
-8144	-4772	13536	-19	-10	-23	-15488	-4496	0	15	0	-55	2456	-3552	16416	-5	-13	41	-5632	6112	13792	-47	19	-16	-13944	9400	-1488	-3	11	-22	-584	3776	16680	-10	-17	38	118	136	12
-8348	-4768	14292	-12	-26	-18	-15920	-4520	-88	15	12	-41	2448	-3864	16712	-11	-7	10	-5472	5808	14304	-63	10	-32	-14480	9504	-1200	-30	21	-38	-664	3640	16816	-18	-24	51	117	138	12
-8064	-4780	14032	-18	-16	-25	-16304	-4240	-72	1	-12	-51	2432	-4056	16816	-12	-13	1	-5704	5568	14352	-63	13	-31	-14760	8776	-1536	-27	9	-37	-632	3312	17232	-30	-31	49	117	139	12
-8160	-4896	14132	-19	-24	-25	-15808	-4304	208	-50	-20	-47	2760	-4040	16664	-5	-15	13	-5656	5848	14104	-42	12	-23	-14552	8584	-1280	15	-5	-36	-200	3120	16568	-40	-31	45	119	137	12
-7784	-4336	13536	-25	-4	-27	-15240	-4080	176	-37	-23	-39	3000	-4144	15968	0	-2	26	-6224	6024	13720	-32	26	-17	-14144	8784	-1296	32	-7	-28	40	2688	16488	-27	-17	41	121	137	12
-8132	-4936	13488	-21	-9	-28	-15408	-4584	312	-13	-6	-32	3008	-4200	16080	8	6	37	-5600	5752	13784	-48	11	-24	-14368	8864	-1296	15	11	-4	0	2696	16776	-10	-2	42	123	134	12
-8056	-4904	14024	-12	-3	-21	-15448	-4640	56	-23	-4	-33	2936	-4096	16552	14	8	35	-5248	5576	13984	-43	16	-17	-14720	9152	-1160	-16	15	8	-456	3112	16760	9	0	39	124	134	12
-7568	-4248	13968	-11	2	-12	-15488	-4224	744	-18	-7	-26	3280	-4072	15960	18	23	32	-5448	5608	13640	1	39	-13	-14016	8688	-1208	6	8	11	-64	3208	15824	8	4	29	125	134	12
-7320	-3904	13680	-1	-8	-5	-15088	-3864	848	-27	2	6	3664	-3680	15376	30	30	31	-4904	6328	12912	15	40	-2	-12880	8656	-920	72	-7	22	240	3216	15096	21	25	20	126	133	12
-7508	-4448	13692	-5	-1	-10	-14664	-3944	1024	-33	5	25	3240	-3536	15840	39	38	21	-5464	6592	12688	-2	25	-7	-13032	8952	-696	7	5	47	-264	3352	15640	32	38	13	127	130	12
-7912	-4420	12880	34	-3	14	-15272	-4144	624	18	9	14	2640	-3648	15512	33	29	1	-5936	6168	12720	-6	39	-18	-12912	8960	-1536	-41	24	53	-680	3656	15184	40	15	11	126	133	12
-7896	-3980	13700	42	-16	9	-15192	-3824	-56	44	47	54	2552	-3616	15864	42	14	-25	-5592	6056	13504	-22	17	-21	-13416	9136	-1248	16	24	51	-912	3912	16240	25	-26	16	124	135	12
-7800	-5092	14244	35	-31	0	-15648	-3824	480	30	31	51	2240	-3128	16392	46	0	-40	-5272	6432	14184	-31	9	-24	-14560	9488	-1680	-20	-2	58	-1336	3968	16832	-3	-42	12	121	137	12
-7896	-4744	14412	39	-22	7	-16336	-3440	120	19	-4	22	1816	-2808	16800	38	-16	-39	-5304	5712	14672	-22	10	-17	-14808	9336	-1328	-1	-28	43	-864	4224	17048	-20	-62	-4	119	141	12
-7828	-4800	14444	7	-17	-17	-16096	-3616	248	9	-11	2	2480	-2624	17408	23	-24	-19	-5408	6056	14432	-8	5	-3	-14760	9480	-1384	31	-45	15	-504	4176	17280	-31	-61	-11	117	141	12
-7840	-4624	14284	-6	-19	-25	-15896	-3448	640	-9	-21	-29	2656	-2744	16496	3	-20	11	-5568	5712	14248	-1	14	-11	-14328	9256	-888	31	-46	8	88	4064	16840	-20	-31	-14	117	138	12
-7772	-4636	13736	-24	-7	-34	-15520	-3552	520	-32	-27	-43	2888	-2888	16160	-19	-16	35	-5432	5760	13576	15	30	-10	-13656	9528	-968	15	-21	-8	352	4288	16200	-4	-7	7	118	137	12
-8252	-4440	13980	-24	-5	-32	-15424	-3808	368	-22	-17	-53	2960	-3464	16712	-15	-12	49	-5592	6680	13600	-26	11	-18	-13688	9968	-976	-11	9	-17	-120	4232	16376	2	-8	39	119	134	12
-8132	-5532	14396	-22	-22	-29	-16424	-4168	248	-19	-14	-63	2616	-4008	16952	-3	-21	48	-5640	6264	14048	-65	13	-36	-13824	10024	-960	-14	13	-14	-432	4136	17032	-5	-27	57	118	136	12
-8120	-4544	14152	-31	3	-28	-16304	-4432	400	-33	-17	-60	2912	-4040	16656	10	-24	48	-5432	5936	14024	-65	21	-38	-14536	9152	-992	-32	29	-32	-8	3776	16848	-21	-42	69	117	138	12
-7852	-4712	13968	-43	-3	-37	-15400	-4392	664	-56	-12	-45	3320	-4048	16304	21	-10	42	-5416	5880	13984	-49	23	-34	-14264	8648	-912	47	12	-50	232	3256	16768	-37	-32	61	118	142	12
-7940	-5288	13744	-24	-7	-21	-15640	-4768	648	-23	-7	-46	3192	-3960	16440	7	-3	34	-5968	5848	14056	-56	30	-37	-14200	8760	-1352	12	24	-30	40	2952	16568	-27	-13	49	119	138	12
-7936	-4896	14064	2	-14	-13	-15824	-4880	464	4	15	-40	2880	-4384	16312	-7	-5	20	-5400	5904	14016	-34	20	-28	-14352	8872	-1416	17	23	-24	-352	2824	16560	-1	3	51	121	137	12
-7716	-4328	13920	-7	-4	-10	-15720	-4424	408	1	8	-19	2744	-4496	16152	-7	-1	13	-5648	5824	13704	-24	34	-24	-14248	8584	-1072	-19	28	-14	-408	2688	16376	14	-4	49	123	137	12
-7832	-4856	13580	8	-7	-6	-15128	-4432	24	-24	-2	-8	2784	-4456	15672	15	8	13	-5376	5824	13480	-4	36	-15	-13904	8520	-1352	-9	25	0	-408	2440	15952	29	-4	49	124	137	12
-7912	-4348	13552	10	-17	-7	-14936	-4336	336	-23	-8	12	2360	-4448	15896	39	7	21	-6088	6376	13536	2	38	-16	-13616	8512	-1552	-3	10	35	-608	2144	16120	35	-8	42	125	134	12
-8212	-4696	13884	21	-43	0	-15784	-4584	-88	21	-5	21	2304	-4464	16584	60	-8	20	-5960	6224	14272	-18	11	-9	-14528	8968	-1648	-38	4	65	-1032	2560	16960	43	-17	37	125	129	12
-8048	-5124	14520	17	-33	-8	-16392	-4712	216	-10	-24	32	2272	-4376	17072	80	-23	1	-5688	5376	14424	-11	-1	-11	-15496	8976	-1712	-53	-20	78	-1328	3072	17248	30	-40	17	125	131	12
-7848	-4624	14228	17	-28	-10	-15888	-4232	408	13	-33	36	2912	-3856	16376	85	-22	-9	-5576	4984	13952	30	8	3	-15344	8824	-1872	-54	-15	76	-432	3384	16776	30	-45	-9	125	134	12
-7948	-4572	13096	5	-11	-14	-14720	-3800	536	-4	-32	50	3352	-3008	15776	64	-1	-2	-5808	5336	13384	64	18	11	-13560	8680	-1344	54	-61	74	104	3640	16024	30	-25	-32	125	135	12
-7752	-4340	13044	38	-27	3	-14632	-3776	600	5	-3	33	3208	-3152	15576	34	11	-4	-5704	6760	13224	57	12	15	-13024	9136	-1048	59	-28	77	-208	3776	15776	41	11	-36	125	134	12
-8008	-3932	14164	47	-44	6	-15856	-4072	368	48	18	50	2288	-3400	16816	24	17	-30	-5648	6464	13392	20	3	1	-13616	9984	-1136	-29	-28	96	-984	4432	16056	44	7	-28	125	131	12
-8108	-4592	14436	49	-29	-4	-16680	-3568	-88	54	3	43	1976	-3424	16888	26	9	-45	-5608	6016	13584	13	4	-8	-14064	9656	-1368	-58	-3	80	-952	4744	16248	37	-19	-9	123	134	12
-8128	-4760	14384	36	-28	-4	-15808	-3408	192	-13	-11	52	2480	-2992	16448	42	3	-47	-5336	6520	13448	0	6	-7	-13792	9600	-1104	5	-24	44	-720	4672	16240	13	-44	-3	120	137	12
-7952	-4396	13264	5	-1	-20	-15024	-3136	680	0	-25	28	2688	-2192	15912	39	7	-21	-6064	5248	13456	-20	10	-27	-13616	9200	-1456	39	-31	22	-272	4632	15984	-8	-42	9	118	139	12
-7832	-5008	13152	7	-9	-20	-14824	-3624	72	-21	-7	-15	2360	-2160	16104	3	4	-4	-5528	5696	13360	-40	-3	-24	-13984	9344	-920	83	-20	-9	-264	4464	16624	-20	-33	16	117	141	12
-7896	-5092	13764	-3	-20	-21	-15640	-3856	208	16	12	-49	2280	-2760	16552	-25	2	3	-5808	6048	13568	-52	15	-32	-14640	9760	-1456	-5	-2	-28	-512	4352	16888	-41	-28	22	116	139	12
-8596	-4572	13808	-1	-16	-18	-16336	-3528	-8	45	6	-73	2080	-3064	16712	-39	-17	16	-5872	5992	13440	-36	32	-32	-13952	9384	-1416	-34	29	-44	-264	4056	16496	-40	-30	36	115	138	12
-8052	-4104	13792	-31	12	-33	-15304	-2912	-72	-43	13	-54	2928	-3424	16168	-19	-14	47	-5536	6448	13336	-42	33	-33	-13568	8944	-1136	39	34	-59	56	3592	16312	-39	-16	53	117	135	12
-7680	-4652	13700	-43	7	-36	-15296	-3808	328	-97	-11	-70	2920	-3904	16008	6	-2	89	-5040	5928	12816	-42	36	-32	-13264	8768	-904	14	32	-46	-48	3256	15592	-21	14	69	119	139	12
-7544	-3808	13264	-47	21	-25	-14944	-4008	440	-92	-18	-70	2584	-4328	15760	17	15	85	-5104	5872	12960	-47	40	-33	-12776	8760	-1728	-24	47	-33	-288	3080	15656	-4	32	81	120	138	12
-8060	-4988	13328	-29	1	-26	-14840	-4824	8	-28	5	-44	2752	-4248	15632	23	13	67	-5656	6136	13200	-56	28	-43	-13512	8480	-1584	8	61	-31	-728	2824	16032	9	16	87	121	135	12
-8216	-5216	13572	-8	4	-19	-15416	-4704	224	6	17	-26	2376	-4384	16184	30	2	39	-5832	5984	13760	-80	23	-44	-14672	8720	-1688	-44	47	-11	-1272	2712	16552	-3	-8	75	120	134	12
-8284	-5080	13516	6	5	-13	-15832	-4472	-216	40	13	-27	2672	-4024	16512	27	-10	7	-5712	5144	13976	-55	31	-35	-14744	8232	-1960	-1	29	0	-904	2744	16808	-16	-40	41	119	137	12
-8120	-4236	13508	5	8	-5	-15536	-4352	-88	-22	16	-1	2752	-4064	16224	18	-6	0	-6264	5208	14176	-14	40	-31	-14440	8240	-1592	68	3	-5	-296	2512	16760	-35	-38	8	120	139	12
-8204	-4840	13796	20	-9	-9	-15408	-4592	56	-7	20	3	2584	-4248	16024	12	2	4	-5536	5568	13800	15	35	-19	-14184	8472	-1160	67	-9	25	-360	2240	16256	-16	-11	-14	121	138	12
-8076	-5052	13956	15	-3	-4	-15816	-4456	16	5	14	15	2464	-4512	16656	15	10	-3	-6072	5736	13920	3	37	-21	-14248	8960	-1720	-17	-7	58	-528	2624	16672	14	7	-19	123	135	12
-8124	-4900	13980	27	-14	-7	-15904	-4632	-56	8	6	12	2360	-4392	16744	22	17	-4	-5808	5704	13984	23	29	-10	-14600	8968	-1392	-8	7	51	-760	2984	16776	37	5	-2	124	133	12
-8332	-4752	14136	22	-11	-4	-16000	-4392	184	-8	-9	21	2272	-4280	16736	40	14	-1	-5928	5704	14464	7	14	-11	-14944	9352	-1488	-28	-4	58	-680	3368	17128	29	-10	7	123	133	12
-8064	-5156	14072	26	-16	-9	-16104	-4440	296	-2	-18	18	2496	-3944	16392	54	11	2	-5568	6072	14184	20	29	-13	-14664	8688	-1808	18	-22	51	-344	3432	16792	25	-13	6	123	136	12
-8328	-4472	13892	14	-11	-6	-15632	-4168	-16	-1	-6	29	2944	-3792	16368	54	7	4	-6008	6144	14256	12	14	-9	-14288	9168	-1536	55	-21	53	-360	3616	17040	13	-16	-1	124	136	12
-8184	-4928	13864	30	-11	-7	-15744	-4456	160	14	-3	17	2616	-3600	16712	41	8	5	-5888	6144	14176	10	11	-10	-14344	9488	-1352	22	-14	51	-536	3728	16840	16	-11	-5	125	134	12
-8464	-4748	14048	31	-20	-2	-16192	-4192	176	32	8	17	2680	-3752	17080	35	6	-12	-6032	6296	14304	3	19	-22	-14480	9520	-1392	-14	-2	48	-672	3880	16984	11	-10	6	125	134	12
-8268	-4420	14528	38	-20	-4	-16352	-3984	296	20	2	23	2536	-3736	16792	32	13	-13	-5344	6112	13776	22	26	-12	-14408	9296	-1280	18	-11	37	-624	4024	16416	19	-5	8	123	135	12
-7772	-4760	13796	8	0	-16	-15664	-3280	312	-14	-6	29	2768	-3136	15968	32	23	-5	-5696	5992	13264	22	28	-14	-13352	8976	-1176	16	-2	30	-272	3952	15760	24	5	16	122	133	12
-7752	-4296	12900	5	12	-14	-14736	-3688	416	-47	-17	22	2776	-2944	15640	21	40	5	-6064	5848	12896	4	38	-17	-12872	8904	-1176	29	-4	19	-176	3848	15192	23	16	19	122	136	12
-7820	-4456	13292	9	-10	-15	-14552	-3928	368	-3	22	8	2552	-3048	15952	17	35	10	-5368	6520	13336	-29	10	-20	-13360	9224	-984	56	7	17	-584	3752	16200	23	9	29	121	136	12
-7964	-4828	13708	14	-16	-13	-15960	-4016	144	34	10	-7	1760	-3408	16496	8	19	-1	-5896	5848	13472	-55	22	-42	-14208	9240	-1656	-74	18	17	-1184	3952	16352	0	-9	32	120	133	12
-8332	-3840	13680	10	-7	-10	-15840	-3464	-368	42	14	-17	2144	-3280	16608	11	-4	-10	-5656	5792	14136	-40	14	-29	-14336	8864	-1664	6	26	-7	-984	3816	16448	-20	-45	30	119	137	12
-7540	-4616	14124	-5	-15	-26	-15472	-3368	416	-40	1	-1	2568	-2976	16144	27	-10	14	-5280	5800	13472	-33	29	-26	-14168	9040	-1272	51	-14	-10	-616	3416	16304	-37	-30	19	119	140	12
-8256	-4672	13308	-11	1	-25	-15240	-3584	312	-9	-10	-40	2584	-3168	16136	26	-11	18	-5704	5864	13576	-9	10	-19	-13520	8872	-1456	20	-3	0	-496	3264	16144	-23	-18	15	118	139	12
-7364	-4156	13928	-11	-8	-31	-15584	-3960	336	-55	-5	-35	2688	-3744	16456	10	-8	45	-5648	6552	13376	-20	20	-25	-13824	9304	-1112	24	-4	5	-512	3552	16216	0	-2	17	120	136	12
-8640	-4192	13592	-12	-6	-19	-15960	-4248	208	43	1	-42	2256	-3736	16472	3	-19	28	-6080	5808	13704	-37	20	-26	-13944	9240	-1640	-40	17	14	-880	3432	16472	10	-22	25	120	135	12
-7904	-5056	14116	-7	-19	-33	-15688	-4304	192	-26	1	-19	2536	-3920	16552	10	-23	16	-5384	6344	13944	-19	15	-28	-14464	9208	-1344	5	1	-2	-976	3512	16648	-1	-43	26	119	141	12
-8388	-4508	13996	-1	-15	-26	-15888	-4416	-88	12	-14	-24	2304	-3896	16704	14	-24	4	-5840	5088	13856	-38	11	-32	-14296	8768	-1584	-11	-13	-1	-760	3392	16672	-8	-50	25	118	138	12
-8000	-5192	13624	-9	-11	-29	-15336	-4392	-272	-13	-12	-26	2552	-4000	16400	7	-13	0	-5816	5616	13528	-18	6	-23	-14336	8648	-1544	47	-22	-13	-352	3152	16432	-17	-43	22	118	139	12
-8408	-5004	13676	-5	-18	-28	-15328	-4512	-16	7	-11	-23	2464	-3976	16248	-1	-12	-4	-5976	5840	14080	-28	2	-25	-14352	8928	-1392	2	-10	-1	-448	3184	17040	-14	-32	15	120	137	12
-8064	-5544	13912	3	-27	-26	-15920	-4640	-56	11	-13	-36	2344	-4296	16552	-4	-10	-10	-5520	5576	14272	-19	5	-19	-14872	8888	-1552	-2	-13	-12	-488	3208	17000	-6	-28	24	121	138	12
-8084	-4740	14068	-1	-14	-24	-15800	-4192	112	-5	-30	-31	2752	-4280	16248	0	-3	-2	-5720	5536	14208	-13	16	-20	-14368	8832	-1424	-14	-11	-1	8	3080	16776	-4	-28	33	122	136	12
-7776	-4668	13272	-9	-16	-27	-15288	-4136	496	-37	-25	-14	3120	-4248	16048	15	4	16	-5600	5712	13336	-3	29	-13	-13800	8528	-1304	22	-11	-2	400	2744	16136	4	-5	37	122	135	12
-8032	-4472	13048	-8	-15	-19	-14736	-4328	464	-31	-10	-7	3288	-4152	15816	26	11	31	-5896	5592	13352	-13	20	-21	-13720	8424	-1336	15	13	17	0	2840	15952	20	3	33	124	136	12
-8136	-5128	13364	9	-14	-12	-15272	-4552	320	-4	8	-5	3128	-4128	15912	28	8	32	-5696	5976	13848	-24	23	-28	-14104	8872	-1448	-1	19	33	-568	3048	16608	25	8	35	124	133	12
-8240	-4920	13776	21	-10	-3	-16112	-4552	256	18	15	-1	2544	-4176	16400	46	7	23	-6200	6088	14232	-38	25	-25	-14560	9352	-1680	-25	24	37	-840	3416	17136	19	-9	30	124	129	12
-8396	-4688	13872	12	-2	-10	-16000	-4528	184	20	19	17	2648	-4112	16480	49	6	18	-6016	5400	13928	-20	33	-28	-14584	8776	-1992	-12	13	40	-792	3464	17112	3	-21	12	124	134	12
-8292	-4456	13840	22	-1	-1	-15424	-3912	232	6	25	27	2752	-3560	16384	48	7	-1	-5832	6136	13792	17	30	-17	-14136	8920	-1464	80	-7	42	-688	3384	16552	0	-18	-14	123	135	12
-7888	-4368	13948	17	0	-11	-15688	-3840	496	-5	18	32	2720	-3240	16256	34	20	-5	-5736	5776	13336	19	45	-21	-13824	9168	-1192	42	-19	56	-736	3568	16232	10	12	-27	123	134	12
-8296	-4524	13640	25	8	-1	-15480	-3712	112	17	21	20	2368	-3152	16240	12	34	-11	-5512	6192	13552	25	38	-16	-13272	9264	-1376	26	-5	56	-760	3968	15496	32	22	-23	123	135	12
-7540	-4216	13868	13	-5	-17	-15328	-3632	264	4	30	41	2280	-3192	16104	6	44	-18	-5624	5904	12824	15	37	-19	-13304	9168	-1272	22	-5	42	-1064	4208	15888	32	13	-9	122	134	12
-8240	-4568	13436	16	4	-9	-15104	-3448	24	42	17	20	1984	-3008	15960	4	37	-25	-5704	6200	13400	-16	21	-29	-13096	9416	-1712	7	-4	32	-1272	4104	15904	27	-4	5	121	133	12
-8064	-4860	13848	13	-21	-20	-15600	-3520	-384	16	9	9	1536	-2736	16632	8	17	-31	-5480	5904	13864	-44	-6	-36	-14240	9432	-1224	24	-15	9	-1256	4304	16376	-6	-31	17	120	137	12
-8312	-4856	14216	9	-24	-21	-16256	-3656	248	23	-9	-23	1704	-2912	17024	6	-12	-29	-5704	5808	13912	-54	-2	-38	-14640	9360	-1496	-37	-26	0	-992	4152	16952	-31	-56	15	119	138	12
-8384	-4820	13904	-16	-21	-41	-15864	-3568	-128	8	-17	-41	2192	-2920	16528	2	-30	-8	-5624	5472	13616	-41	-10	-23	-14632	9008	-1056	33	-27	-36	-240	4032	16832	-52	-74	15	117	139	12
-8080	-4384	13772	-24	-10	-39	-15720	-3568	568	-33	-33	-62	2640	-3168	16312	-14	-37	15	-5976	5112	14032	-30	10	-34	-14048	9104	-1264	33	-25	-35	200	3592	16504	-55	-54	9	116	139	12
-8252	-5300	13792	-34	-17	-48	-15760	-4064	448	-21	-10	-76	2800	-3448	16800	-27	-42	37	-5560	6176	14200	-36	10	-25	-14464	9408	-832	11	5	-48	-48	3376	16848	-35	-33	29	115	139	12
-8224	-4812	13976	-39	-8	-42	-16168	-4360	664	-47	-16	-87	2736	-4248	16560	-24	-38	55	-5864	6056	13928	-51	29	-42	-14384	9128	-1160	-59	22	-44	-64	3280	16880	-18	-27	53	117	137	12
-8528	-5260	13964	-47	3	-38	-15784	-4560	-216	-36	-14	-84	3016	-4512	16680	-8	-33	76	-6016	5808	13752	-52	29	-40	-14560	8768	-1416	-24	40	-52	-64	3184	16800	-18	-30	68	118	136	12
-8208	-5264	13752	-38	-2	-31	-15824	-5032	480	-49	-9	-73	2928	-4840	16392	5	-22	74	-5832	5400	13904	-66	31	-37	-14728	8448	-1568	14	30	-44	-392	2712	17040	-22	-25	77	120	138	12
-8396	-5372	13752	-13	5	-25	-15656	-5168	112	-16	1	-64	2872	-5080	16400	16	-13	62	-6032	5856	14328	-50	21	-32	-14352	8640	-1584	24	32	-29	-432	2488	16712	-15	-10	68	122	137	12
-7884	-5144	13852	-13	-6	-18	-15624	-5104	8	-13	5	-27	2848	-5200	16336	20	-9	59	-5816	5928	14232	-46	24	-29	-14744	8448	-1736	9	28	-9	-600	2320	16832	0	9	59	124	135	12
-8380	-4776	13592	5	-10	-13	-15600	-5272	328	-4	-5	-7	2768	-5048	16144	30	5	43	-6104	5544	14048	-29	24	-24	-14648	8584	-2104	-22	22	4	-784	2192	16776	10	3	50	126	134	12
-7940	-4960	13760	29	-20	-11	-15168	-4904	-112	-5	0	19	2736	-4728	15856	38	21	-6	-5704	5864	13768	5	18	-13	-14224	8304	-1872	34	1	22	-832	2104	16632	22	1	46	127	133	12
-8180	-4864	13516	34	-19	-5	-15480	-4560	112	22	-7	36	2472	-4288	16392	45	16	-25	-6128	5976	14016	-7	5	-10	-14160	8720	-1928	-18	-9	55	-1000	2288	16616	34	-6	16	127	134	12
-8144	-4844	13756	52	-36	-5	-15696	-4432	-168	17	-4	46	2256	-4128	16136	41	14	-39	-5680	5888	14008	6	0	-1	-14608	8728	-1632	11	-26	71	-1120	2760	16912	37	-14	-5	127	134	12
-8104	-4364	13884	44	-38	-8	-15936	-4224	456	32	-11	48	2360	-3768	16264	45	6	-47	-5928	5544	13928	22	11	-11	-14480	8736	-1672	8	-58	85	-1040	3280	16560	23	-33	-28	126	134	12
-7820	-4756	13684	34	-28	-17	-15408	-3696	144	27	-9	63	2736	-3192	16256	49	10	-46	-5776	5728	13512	47	3	2	-13968	8816	-1488	48	-57	77	-552	3736	16064	18	-29	-41	125	137	12
-7940	-4540	13636	42	-21	-9	-15152	-3552	592	21	-5	51	2672	-2792	16104	38	15	-41	-5544	6264	13208	42	10	5	-13536	9288	-1224	41	-60	79	-448	3960	16216	22	-22	-45	123	134	12
-7912	-4348	13588	28	-19	-13	-15560	-3504	288	53	1	36	2592	-2568	16160	26	14	-33	-5584	5848	13368	19	4	-10	-13504	9240	-1376	2	-42	67	-472	4368	16208	35	-22	-41	122	134	12
-7984	-4324	13352	20	-13	-12	-15424	-3424	288	21	6	17	2464	-2544	16360	9	7	-22	-5776	5776	13152	5	20	-21	-13488	9320	-1432	-1	-23	43	-560	4632	16256	15	-28	-29	121	138	12
-8200	-4556	13752	19	-16	-26	-15368	-3472	-72	11	19	-1	2408	-2592	16368	-2	4	-20	-5440	6176	13272	-9	4	-19	-13760	9440	-1056	47	-24	18	-360	4760	16344	-12	-36	-19	119	133	12
-7720	-4024	13908	0	-9	-18	-15632	-3136	416	10	10	-22	2320	-2632	16392	-2	0	-15	-5440	5912	13176	-14	22	-26	-13296	9408	-768	33	-24	1	-304	4760	15728	-26	-33	0	118	139	12
-7956	-4424	13388	-16	1	-30	-15216	-3224	104	-7	0	-38	2336	-2928	16096	-12	0	10	-5696	5888	13072	-36	22	-36	-13064	9272	-1112	20	3	-25	-40	4328	15728	-31	-28	18	117	139	12
-7904	-4724	13264	-25	-6	-32	-15128	-3712	-16	-34	-2	-49	2496	-3104	15872	-14	-5	27	-5592	5648	13736	-66	14	-48	-13512	9176	-1144	-2	25	-50	-464	4032	16344	-25	-24	57	115	139	12
-8008	-5652	13636	-39	-11	-43	-15616	-4160	24	-9	3	-75	1952	-3352	16560	-15	-22	36	-5816	5608	13952	-94	12	-56	-14520	9088	-1552	-51	36	-62	-720	3744	16656	-28	-34	78	113	139	12
-8252	-4856	13872	-25	-8	-31	-15768	-4240	-232	-18	-9	-95	2104	-3848	16488	-18	-33	45	-6128	5616	13936	-81	21	-46	-14528	8744	-1632	-10	37	-80	-560	3336	16840	-43	-51	79	114	139	12
-8416	-4936	14020	-25	-8	-34	-15920	-4384	-192	-21	-7	-90	2456	-4184	16672	-17	-44	56	-5664	5536	14256	-76	13	-44	-14624	8944	-1720	-4	31	-80	-424	2720	17240	-52	-45	75	114	140	12
-8260	-5352	13984	-51	5	-49	-15888	-4608	232	-64	-25	-84	2712	-4464	16728	-5	-42	70	-6176	5400	14664	-77	22	-54	-15072	8528	-1736	-11	28	-60	-536	2264	17440	-50	-27	70	117	139	12
-8612	-5444	13892	-57	-2	-48	-15952	-5136	168	-49	-20	-92	2728	-4976	16392	-4	-36	73	-6072	5360	14232	-59	23	-44	-15008	8392	-1728	-21	28	-49	-480	2352	17208	-33	-23	61	119	138	12
-8104	-4940	13828	-34	6	-38	-15400	-5168	152	-30	-6	-71	3200	-5192	16328	0	-17	68	-6000	5592	14048	-24	22	-29	-14520	8432	-1576	23	19	-38	-360	2096	16696	-8	-6	52	123	137	12
-8144	-4936	13636	-11	2	-26	-15360	-5016	376	-3	-1	-39	3168	-5104	15904	18	7	53	-6128	5768	13648	-20	29	-26	-14112	8472	-1560	24	18	0	-272	1920	16456	12	7	35	125	135	12
-8196	-4756	13472	14	-1	-16	-15448	-4912	168	9	5	-6	2768	-5256	15840	28	13	23	-6064	5928	13760	-5	26	-20	-14064	8424	-1552	23	14	30	-528	2112	16288	38	18	23	126	132	12
-8208	-5280	13964	13	-11	-17	-15760	-5296	112	-11	5	26	2696	-5032	16600	50	19	-10	-6016	5792	14240	-19	15	-27	-14624	8616	-1688	-30	2	53	-1256	2560	17016	34	8	8	127	132	12
-8540	-5308	14120	48	-26	-5	-16128	-5384	192	27	4	33	2552	-5048	16440	44	23	-14	-6104	5112	14048	0	9	-19	-15112	8384	-1960	9	-19	63	-1080	2760	16792	18	-27	-10	126	135	12
-8184	-4932	13864	62	-19	-3	-15656	-4528	64	46	12	58	2592	-4304	16152	38	23	-61	-5696	5736	13592	35	22	-13	-14360	8352	-1856	78	-43	67	-608	2752	16616	17	-35	-30	127	137	12
-8144	-5248	13328	48	-16	-9	-15112	-4032	-16	51	8	63	2624	-3720	16096	32	25	-61	-5520	4832	13704	41	3	-12	-13912	8640	-1648	61	-38	76	-592	2944	16424	28	-19	-36	126	137	12
-7788	-5144	13692	64	-29	-1	-15096	-4136	256	-3	-3	57	2416	-3768	16200	34	31	-55	-5576	6008	14200	27	10	-8	-14352	9176	-1376	16	-38	77	-824	3352	16600	37	-3	-38	125	133	12
-8352	-4800	13940	48	-26	-3	-15848	-3864	192	60	-4	40	2072	-3560	16416	30	16	-45	-5608	5936	14016	31	2	-5	-14432	9248	-1536	-12	-35	74	-656	3624	16624	38	-20	-26	124	132	12
-7912	-4308	14124	47	-31	-9	-16096	-3912	232	14	-17	32	2336	-3512	16552	39	4	-33	-5560	6144	13640	34	22	-7	-13976	9192	-816	7	-41	57	-264	3856	16216	33	-29	-13	123	134	12
-8360	-4384	13712	16	-16	-19	-15328	-3480	-80	14	-18	30	2696	-3224	16240	53	-2	-13	-5536	5728	13384	21	7	-5	-13712	9024	-1208	16	-27	51	-88	4048	16112	27	-27	-2	121	137	12
-7608	-4796	13492	14	-14	-26	-15232	-3664	448	-40	-24	14	2744	-3032	16144	49	0	-8	-5568	5872	13128	5	17	-19	-13528	9216	-1112	30	-25	36	-144	4080	16040	14	-11	9	122	137	12
-8008	-4980	13208	3	-4	-26	-15192	-3840	544	4	-3	-14	2608	-3056	16032	31	4	25	-5896	5568	13608	-18	12	-25	-13760	9160	-1384	16	5	20	-408	4272	16416	7	-22	20	120	137	12
-7908	-5464	13356	-1	-11	-22	-15528	-4200	296	6	3	-26	2240	-3168	16256	16	-2	22	-5536	5616	13688	-36	10	-34	-14120	9304	-1384	-9	12	-2	-712	4112	16456	-6	-31	35	120	133	12
-7920	-4440	13584	2	-15	-21	-15496	-3984	72	21	8	-31	2408	-3488	16184	9	-11	16	-5768	5336	13504	-43	29	-40	-13936	9112	-1528	1	6	-13	-568	3824	16376	-14	-32	34	118	138	12
-8308	-5264	13824	-10	-3	-36	-15616	-3744	-16	5	14	-30	2424	-3576	16560	5	-15	13	-5824	5576	13952	-38	2	-34	-14192	9104	-1320	27	14	-20	-488	3560	16616	-22	-36	36	117	137	12
-7876	-4700	13624	-12	5	-26	-15800	-4080	400	-24	-9	-38	2344	-3760	16368	-2	-15	18	-6160	5656	14112	-50	16	-37	-14216	8880	-1736	-8	13	-21	-840	3256	17000	-17	-26	33	117	139	12
-7960	-4800	13576	-19	-12	-32	-15576	-4368	-96	-11	-1	-40	2480	-3952	16416	-3	-10	21	-5728	5856	13632	-33	26	-29	-14160	8720	-1560	15	10	-26	-432	3016	16456	-10	-23	32	118	134	12
-7896	-4164	13320	-26	8	-31	-15152	-3920	112	-2	3	-28	2752	-3840	15760	-4	0	24	-5952	5584	13528	-28	38	-38	-13640	8472	-1544	37	4	-9	-504	2888	16192	-3	-13	29	119	137	12
-8056	-4996	13384	-30	-5	-32	-15064	-4064	-32	1	1	-28	2688	-4024	16168	4	11	21	-6080	5584	13832	-32	8	-34	-14272	8720	-1520	18	4	-9	-680	2944	16552	2	-6	27	120	137	12
-8248	-4972	13964	2	-13	-15	-15920	-4864	-64	3	1	-33	2192	-4256	16496	8	0	13	-5720	6464	14256	-40	8	-37	-14704	8952	-1672	-8	3	6	-976	2928	17032	-2	-20	21	120	135	12
-8100	-4644	14048	9	-19	-15	-16384	-4480	64	44	4	-25	2304	-4224	16864	13	-12	1	-5984	4976	14296	-42	3	-33	-15064	8592	-1936	-38	6	8	-752	3128	16872	-16	-47	15	119	136	12
-8280	-4888	13780	5	-4	-25	-15880	-4440	288	-23	-7	-17	2752	-4352	16192	13	-16	1	-5872	5600	13904	1	17	-16	-14480	8416	-1352	51	-16	-2	-152	3032	16432	-20	-39	-1	120	139	12
-8148	-4340	13572	3	-6	-18	-15136	-4320	368	-10	-4	-6	2976	-4128	16208	23	-2	4	-5864	6296	13720	8	23	-13	-13672	8696	-1160	71	-22	21	-136	2816	16352	-2	-15	-9	122	138	12
-8048	-5084	13636	12	-13	-25	-15520	-4488	328	7	-1	-1	2392	-4280	16192	21	11	6	-5696	5464	13856	-6	12	-18	-14016	8792	-1136	29	-1	34	-552	3072	16488	31	7	9	124	135	12
-8112	-5332	13524	28	-14	-10	-15648	-4760	360	-1	-6	5	2320	-4408	16416	22	10	-6	-6080	5920	13752	-5	18	-25	-14256	9016	-1856	-41	1	27	-872	3144	16584	37	-4	20	124	132	12
-8432	-4644	13668	32	-23	-12	-15608	-4608	-472	41	5	18	2352	-4176	16600	30	-2	-16	-5896	5664	14448	-25	4	-20	-14704	8912	-1848	-4	14	27	-720	3256	17000	29	-32	35	122	139	12
-8148	-5568	14108	37	-27	-12	-15976	-4440	80	-8	-10	14	2520	-4008	16432	41	-5	-11	-5512	5888	14288	-25	13	-25	-14960	8696	-1384	6	-21	26	-728	3120	17072	21	-32	33	122	137	12
-8696	-4880	13612	18	-10	-15	-15968	-4416	456	-13	-18	10	2632	-3880	16528	35	-14	-2	-6104	5512	14104	3	9	-16	-14408	8688	-1672	10	-17	27	-288	3008	16968	-4	-34	10	121	139	12
-7840	-4656	14096	21	-17	-23	-15728	-4264	336	-22	-11	13	2928	-3984	16560	40	2	9	-5864	5544	14144	-1	7	-19	-14624	8864	-1064	56	-20	33	-320	3232	17040	3	-9	7	123	137	12
-8248	-5416	13620	14	-13	-19	-16104	-4520	376	18	-15	-5	2640	-3808	16552	34	0	7	-5816	5752	14024	0	16	-18	-14632	9056	-1464	-25	-12	36	-552	3272	16792	24	-5	4	123	131	12
-7796	-4244	13720	16	-7	-17	-15272	-4216	32	-10	-8	0	2936	-3848	16064	27	12	10	-5520	5704	13312	15	27	-5	-13856	8760	-1072	39	-6	21	-160	3464	16024	26	-4	16	124	134	12
-7972	-4064	13304	-5	-3	-19	-14848	-4040	368	-13	-7	11	2864	-3544	15728	27	19	16	-6048	5400	13360	-4	29	-30	-13408	8728	-1416	-7	0	29	-432	3640	15984	31	4	17	125	133	12
-8028	-5620	13064	17	-16	-22	-14840	-4344	192	2	11	-2	2632	-3520	15904	20	18	14	-5416	6216	13424	-19	2	-29	-13816	8912	-1192	33	0	18	-864	3408	16264	23	-3	20	124	135	12
-8008	-4432	13880	30	-18	-7	-15624	-4440	456	13	13	2	2256	-3672	16336	24	15	-6	-5984	5880	13800	-40	12	-37	-14288	9320	-1712	4	-9	28	-968	3752	16648	-3	-21	13	124	136	12
-8372	-5256	13860	19	-17	-18	-16232	-4016	-216	63	13	1	2216	-3544	16552	21	0	-28	-5880	5768	13872	-21	7	-31	-14592	9144	-1800	4	2	16	-888	3680	16840	-20	-34	6	122	137	12
-7956	-4664	14084	16	-9	-17	-15792	-3584	80	-5	3	0	2584	-3272	16368	19	-6	-21	-5680	5640	13904	-12	22	-29	-14272	8856	-1280	39	-24	10	-520	3664	16200	-22	-37	0	120	138	12
-8156	-4416	13528	-2	0	-25	-15336	-3528	368	5	-7	-7	2480	-3120	15936	4	-1	-11	-5800	5528	13240	-10	25	-26	-13376	8968	-1592	31	-20	10	-440	3576	15896	-7	-26	-1	120	137	12
-7908	-5108	13464	-4	-11	-33	-15200	-3728	144	-18	8	-14	2560	-3232	16088	-4	5	6	-5584	6136	13216	-10	17	-29	-13808	8872	-1256	27	-4	-1	-536	3568	16232	6	-12	4	120	137	12
-8344	-4752	13804	-5	-4	-26	-15680	-4088	40	19	1	-39	2096	-3744	16672	-8	-6	10	-5992	5912	14352	-52	3	-36	-14400	9248	-1648	-30	5	7	-984	3760	16944	-5	-24	18	119	136	12
-8192	-5220	14168	-6	-15	-37	-16368	-4488	136	0	3	-48	2080	-3784	16816	-8	-18	8	-5680	5512	14184	-33	8	-37	-14856	9144	-1344	8	-6	-15	-656	3768	16816	-23	-47	21	117	135	12
-8352	-5304	14084	-20	-12	-38	-15912	-4096	176	1	-9	-41	2432	-3848	16656	10	-21	9	-5432	5992	14112	-25	11	-37	-14328	8928	-1440	23	-18	-20	-448	3416	16512	-38	-49	17	116	140	12
-8084	-4608	13964	-21	-14	-35	-15464	-4216	144	-28	-22	-45	2776	-3808	16448	7	-12	19	-5448	6056	13424	-26	11	-27	-14240	9008	-1256	35	-22	-19	-112	3280	16464	-26	-30	21	118	140	12
-8212	-4800	13636	-27	-8	-38	-15288	-4392	184	-8	-15	-41	2744	-4096	16168	-2	-8	17	-5912	5320	14048	-41	-7	-34	-14080	8856	-1384	-3	2	-18	-432	3136	16840	-2	-19	32	119	135	12
-7888	-5552	13380	-14	-15	-35	-15640	-4912	528	-21	-11	-40	2624	-4256	16192	-7	-6	19	-5896	5160	13576	-38	18	-30	-14480	8480	-1520	-23	10	-27	-368	2856	16440	0	-22	43	120	134	12
-8352	-4768	13792	-2	-11	-22	-15464	-4504	224	17	-4	-38	2512	-4496	16368	0	-5	11	-6000	5432	13880	-39	11	-33	-14040	8568	-1512	-2	13	-11	-416	2656	16800	9	-28	44	120	135	12
-8172	-5564	13968	1	-20	-28	-16008	-4720	72	2	-2	-20	2568	-4464	16800	18	-18	10	-5872	5808	14184	-32	-1	-27	-14912	8536	-1464	5	6	-2	-432	2488	17120	2	-30	42	120	136	12
-8232	-5136	13940	4	-8	-19	-16176	-4736	104	-18	-17	-21	2456	-4456	16960	20	-19	13	-6240	4992	14240	-27	15	-32	-14912	8520	-1776	-11	-3	12	-576	2472	16736	-4	-40	28	121	138	12
-8388	-5564	13920	4	-19	-22	-15688	-4776	-48	-6	-13	-7	2856	-4640	16136	39	-21	14	-5608	5232	14448	-12	7	-16	-14800	8368	-1272	51	-8	15	-464	2552	16912	1	-30	13	122	136	12
-7988	-5368	13508	3	-6	-23	-15360	-4864	440	-14	-14	2	2712	-4288	16128	45	0	18	-6024	5192	14040	9	25	-22	-14352	8544	-1760	14	-18	31	-392	2424	16544	19	-15	10	124	135	12
-7896	-4956	13336	14	-13	-21	-15192	-4816	8	20	4	2	2856	-4344	16120	29	11	12	-5688	5536	13888	18	16	-9	-14120	8544	-1368	28	-11	37	-344	2848	16528	34	1	14	125	133	12
-8012	-4948	13472	28	-21	-12	-15248	-4480	520	0	-6	17	2624	-4400	16152	29	18	-3	-6184	6104	13784	8	25	-21	-14032	8888	-1728	-20	-17	51	-800	3144	16328	35	3	3	126	134	12
-8412	-5256	13740	27	-22	-15	-15672	-4488	-160	37	8	18	2352	-4080	16496	28	14	-17	-5608	5920	13896	0	6	-17	-14600	8792	-1520	4	0	51	-824	3312	16704	26	-10	3	125	137	12
-8028	-5104	13996	46	-19	-9	-15992	-4544	112	-6	-7	25	2328	-3960	16456	35	17	-26	-5696	6448	13872	9	8	-16	-14616	9128	-1656	22	-32	43	-848	3328	16848	5	-21	-4	125	135	12
-8304	-4604	13780	29	-16	-16	-15856	-4432	176	-2	-9	24	2656	-3752	16352	39	19	-30	-5640	5736	13792	10	18	-20	-13792	8728	-1528	40	-31	50	-424	3528	16360	10	-20	-12	124	138	12
-7688	-4820	13360	22	-13	-29	-15144	-3856	536	-3	-6	35	2880	-3216	15896	35	23	-27	-5512	5104	13480	6	9	-18	-13672	8744	-1360	44	-26	40	-352	3864	15864	14	-7	-10	123	136	12
-7876	-4648	13176	23	-10	-17	-14744	-3856	328	15	8	7	2696	-3048	15968	16	26	-19	-5688	5528	13288	-6	10	-22	-13688	9024	-1488	27	-17	26	-528	4024	16080	11	-6	-4	123	135	12
-7808	-4992	13156	14	-5	-21	-15264	-3696	176	39	15	-8	2656	-2944	15848	4	24	-23	-5608	5664	13480	-2	16	-32	-13808	8904	-1552	-9	-8	10	-608	4048	16080	5	-15	4	122	132	12
-7960	-4108	13728	23	-18	-17	-15520	-3552	264	22	15	-20	2128	-3352	16376	-6	4	-9	-5664	5592	13376	-14	19	-29	-13664	9096	-1168	15	-7	4	-432	3936	16240	-10	-26	6	120	133	12
-8068	-4476	14128	3	-12	-23	-15576	-3432	-8	5	6	-21	2336	-3416	16496	8	-12	2	-5344	5936	13424	-29	5	-26	-13752	9168	-1320	20	-15	2	-392	3736	16256	-19	-28	6	118	137	12
-7768	-4792	13532	-10	4	-36	-15472	-3648	232	-24	-19	-28	2432	-3344	16072	16	-9	17	-5720	5816	13392	-30	21	-34	-13592	8728	-1384	-3	-8	-7	-504	3744	15896	-25	-34	16	117	139	12
-7868	-4296	13452	-22	-9	-40	-15008	-4008	192	-34	-1	-42	2656	-3288	16008	8	-5	26	-6104	5472	13424	-51	12	-34	-13912	8992	-1224	26	1	-24	-248	3512	16448	-23	-34	27	117	138	12
-8188	-5000	13552	-19	-8	-37	-15464	-4320	392	3	1	-52	2288	-3776	16256	0	-12	31	-5616	5704	13928	-51	11	-38	-14368	9104	-1360	14	14	-25	-488	3440	16912	-19	-33	37	116	142	12
-8164	-5372	13860	-16	-4	-31	-16248	-4472	88	0	-3	-60	2360	-4040	16856	-8	-24	24	-5760	5912	14368	-58	9	-34	-14944	9048	-1544	-26	17	-27	-392	3176	16992	-21	-38	37	115	135	12
-8336	-4736	13924	-22	-6	-32	-16088	-4336	-48	-7	-11	-59	2672	-4328	16448	-6	-28	21	-6128	5048	14472	-52	29	-48	-14712	8528	-1704	-8	11	-30	-232	3240	17056	-27	-43	34	116	139	12
-8336	-5532	13752	-28	2	-42	-15544	-4808	192	-43	-3	-47	3128	-4216	16200	-3	-21	31	-5656	5856	14144	-30	22	-35	-14696	8544	-1304	37	4	-38	80	2768	16712	-33	-30	29	118	140	12
-8316	-5452	13532	-39	4	-41	-15576	-4936	264	-23	0	-53	3072	-4712	16392	-8	-12	36	-5960	5304	14664	-47	17	-40	-14592	8504	-1488	15	4	-21	-320	2552	17120	-26	-15	27	120	139	12
-7696	-5248	13948	-23	-5	-31	-15696	-5216	304	-21	4	-50	2888	-4840	16224	-5	5	36	-5520	5288	14048	-25	24	-28	-14640	8552	-1680	17	10	-22	-360	2440	16632	-10	-5	29	122	137	12
-8020	-5148	13808	-18	-4	-25	-15584	-4856	368	18	4	-32	3064	-5104	15792	7	19	28	-5416	5568	14160	-9	21	-26	-14624	8568	-1160	17	2	-17	-64	2392	16568	9	2	25	124	132	12
-7496	-5388	14264	-10	-16	-29	-15384	-4840	544	-30	-9	2	3136	-4832	16368	30	23	17	-5328	5984	14416	-27	6	-24	-14704	8744	-1240	30	-10	20	-336	2520	16992	23	3	27	124	132	12
-8696	-6044	14124	7	-21	-19	-16248	-5576	520	9	-15	-12	2632	-4672	17032	34	6	0	-6024	6216	14440	-21	4	-26	-15256	9072	-1664	-67	-7	36	-688	2624	17256	18	-18	20	124	132	12
-8296	-4700	14196	28	-16	-13	-16392	-5040	120	45	2	4	2904	-4792	16512	27	-9	-22	-6192	5248	14512	-13	10	-24	-15168	8392	-1488	34	-7	43	-304	3000	17104	11	-50	6	123	134	12
-8068	-5736	14104	13	-18	-29	-15960	-4984	512	10	0	34	3040	-4256	16784	35	-16	-23	-5304	5624	14736	4	-3	-15	-15320	8728	-976	50	-34	36	-392	2984	17528	-5	-46	-17	124	138	12
-7548	-5484	13904	27	-7	-15	-15600	-4784	664	-11	-18	18	3072	-4000	16240	28	6	-19	-5392	5904	14304	27	14	-16	-14744	8720	-1352	34	-45	41	128	3344	16824	4	-21	-21	125	138	12
-7772	-4492	13876	30	-20	-14	-15296	-4288	304	24	-6	14	3160	-3752	15984	14	21	-20	-5256	5696	13640	42	20	-4	-13688	8840	-1064	50	-47	41	280	3488	16048	23	8	-17	126	134	12
-7720	-5116	14052	29	-24	-17	-15368	-4208	744	13	2	29	3000	-3896	16168	17	25	-17	-4816	6344	13376	38	5	2	-13400	9040	-488	31	-25	43	272	3512	15968	35	22	1	127	131	12
-7504	-4700	13996	38	-24	-12	-15696	-4040	1032	4	-18	15	2672	-3872	15720	26	29	-20	-5232	5760	13080	7	10	-13	-13480	9168	-712	-37	-21	56	-360	3656	15480	54	9	17	125	133	12
-7888	-4716	13544	23	-27	-19	-15256	-4064	712	17	-18	30	2624	-3568	16080	43	16	-15	-5128	5624	13480	-9	2	-19	-13648	8976	-1048	-35	-1	37	-192	3824	15864	51	-24	33	123	136	12
-7292	-5052	13596	21	-24	-23	-15088	-3952	648	-10	-15	21	2800	-3232	15936	45	1	-8	-5384	5456	13440	-25	0	-24	-14016	8504	-1104	7	-13	19	-440	3824	16168	17	-48	31	120	135	12
-7764	-4844	13224	26	-14	-19	-15056	-3960	456	24	-15	-5	2760	-3232	15928	36	-18	-13	-5688	5104	13920	-30	-7	-21	-14032	8600	-1264	32	-15	15	-32	3536	16352	-7	-63	17	119	139	12
-7340	-5348	13924	8	-25	-24	-15576	-4296	440	0	-9	-5	2632	-3224	16280	27	-33	-5	-5288	5864	14256	-39	0	-25	-14680	8992	-880	27	-22	10	-168	3440	16944	-26	-55	9	117	141	12
-7948	-5544	13820	-7	-19	-33	-15952	-4216	336	20	-20	-41	2624	-3424	16584	8	-39	6	-5552	4984	14400	-24	12	-33	-14960	8744	-1344	-50	-2	-4	-72	3552	16784	-26	-46	13	116	140	12
-7672	-4756	13968	-18	-17	-35	-15384	-4216	312	-33	-12	-47	3112	-3840	16048	-5	-34	24	-5088	5560	13888	-5	15	-22	-14808	8632	-1112	-40	0	-9	280	3464	16280	-22	-39	13	117	142	12
-7704	-4684	13252	-28	6	-39	-14944	-4264	792	-27	-13	-55	3272	-4184	15448	-3	-22	45	-5440	5648	13560	-3	29	-26	-13416	8480	-912	23	-3	-20	512	3056	15920	-5	-10	30	119	137	12
-7312	-5152	13724	-21	-19	-40	-15056	-4680	728	-31	-6	-49	3176	-4552	15736	1	-4	51	-4800	5688	13696	-21	16	-34	-13672	8552	-768	10	11	-8	40	2832	15976	18	6	50	121	135	12
-7872	-5372	13608	-12	-16	-30	-15448	-5152	720	-7	-13	-39	2856	-4744	15896	13	-1	36	-5288	5888	13320	-41	21	-38	-13944	8824	-1080	-64	17	3	-320	3056	16064	17	-2	59	122	134	12
-7736	-4548	13680	-2	-4	-27	-15208	-4816	216	8	1	-16	3160	-4672	15960	26	7	13	-5528	5184	13856	-43	10	-35	-14200	8216	-1160	21	12	1	-264	2896	16240	17	-9	54	122	135	12
-7508	-5264	13524	7	-8	-26	-15256	-5024	784	-8	-5	2	3208	-4344	15872	32	3	-3	-4984	5240	13664	-25	21	-36	-14368	8088	-1048	30	-1	7	-40	2680	16248	2	-21	24	121	137	12
-7624	-5024	13692	17	-13	-20	-15152	-4648	472	1	6	2	3088	-4152	15728	29	11	-18	-5376	5864	14280	-11	8	-24	-14288	8456	-944	49	-12	19	-32	2536	16600	-2	-19	4	122	137	12
-7800	-5192	13872	31	-15	-10	-15640	-5016	696	17	1	10	2984	-4216	16128	21	6	-22	-5264	5440	14088	-18	4	-25	-14680	8552	-1096	15	-16	40	-296	2840	16824	2	-19	-11	122	138	12
-8032	-5364	14208	36	-24	-12	-16032	-4880	616	39	7	10	2768	-4368	16568	21	-10	-28	-5312	5392	14424	9	14	-22	-15064	8616	-960	2	-19	43	-144	2824	16888	2	-32	-17	121	134	12
-7884	-5180	13960	20	-15	-16	-15720	-4440	424	20	-8	12	3048	-4224	16400	24	-13	-16	-5608	5456	14144	22	17	-18	-14416	8584	-1048	7	-21	39	128	3144	16664	9	-37	-11	121	137	12
-7612	-4868	14084	22	-19	-13	-15224	-4272	496	-20	-7	17	3336	-3968	16192	32	1	10	-4912	6088	13968	28	20	-7	-14016	8704	-528	63	-19	45	360	3104	16648	22	-14	-4	122	136	12
-7748	-5348	14000	14	-19	-15	-15480	-4560	1056	-15	-14	9	3032	-4064	16688	44	4	17	-5512	5616	13848	-6	17	-21	-14376	9136	-920	-27	-16	56	8	3416	16768	23	-4	6	123	135	12
-8064	-5264	13860	22	-10	-14	-15800	-4760	240	14	-9	0	3080	-3880	16448	40	5	14	-5752	5656	14632	-14	7	-24	-14664	9192	-1016	-10	3	40	-104	3840	17064	24	-12	19	122	133	12
-7760	-5280	14308	13	-17	-16	-16216	-4808	752	-6	3	6	3080	-4088	16680	36	-5	5	-5368	5576	14496	-12	19	-21	-15272	9248	-592	6	-4	25	-216	3920	17232	8	-25	21	122	135	12
-8244	-5280	14068	25	-3	-12	-16088	-4448	632	30	-1	-6	3176	-3744	16600	33	3	-4	-5576	5760	14664	-8	23	-29	-14488	9136	-1144	18	3	23	312	3728	16912	-5	-29	14	122	137	12
-7276	-5048	14400	7	-11	-27	-15800	-4240	960	-24	9	12	3528	-3744	16248	24	12	8	-5064	5728	13912	-5	26	-29	-14400	8936	-680	51	-4	14	264	3680	16400	-2	-2	8	122	137	12
-7908	-5220	13880	12	11	-14	-15512	-4360	1096	-2	7	-4	3296	-3696	16040	13	23	8	-5232	5904	13880	1	30	-27	-13816	8920	-704	20	7	18	32	3624	16400	12	11	6	123	133	12
-7376	-4632	13844	10	-5	-19	-15072	-4096	640	-1	19	6	2928	-3832	15936	13	31	2	-5544	6040	13664	-12	24	-38	-13792	8896	-920	33	8	18	-224	3480	16128	24	15	23	123	135	12
-7768	-5236	13820	11	-10	-21	-15648	-4592	616	22	12	2	2712	-3760	16376	18	20	-6	-5192	5648	14208	-46	13	-36	-14200	9048	-952	-8	10	17	-640	3424	16400	17	0	23	122	135	12
-7852	-5904	14332	12	-21	-28	-15936	-4488	136	11	8	-10	2376	-3696	16880	10	13	-17	-5192	5920	14328	-42	-9	-34	-15256	9080	-1048	-1	-3	2	-712	3392	16960	-7	-35	22	120	137	12
-7496	-4820	14272	5	-7	-22	-16080	-4232	488	22	-13	-23	2520	-3712	16184	12	-4	-16	-5496	5448	14352	-34	5	-31	-14760	8560	-1048	0	-24	4	-360	3544	16768	-30	-52	9	118	138	12
-7572	-4724	13904	-4	-13	-33	-15472	-4016	680	-4	-16	-24	3152	-3504	16240	3	-14	-5	-4848	5432	13424	-2	19	-15	-14048	8376	-608	86	-38	-12	648	3160	16160	-33	-36	-11	118	139	12
-7364	-4952	13704	-18	-11	-35	-15160	-4304	1024	-25	-16	-25	3208	-3800	15856	-2	-6	9	-4856	5952	13576	2	18	-17	-13800	8768	-376	43	-24	3	616	2992	16192	-14	-10	-7	119	137	12
-7400	-5176	13680	-10	-14	-33	-15160	-4584	608	-18	-11	-37	3216	-4088	15912	-1	1	20	-4872	5704	14352	-25	6	-29	-14144	8696	-384	1	-5	4	288	3312	16528	9	-2	18	120	135	12
-7640	-5260	13832	-10	-17	-32	-15688	-5088	872	-24	-21	-49	2992	-4336	16200	-2	-11	19	-5496	5008	13944	-44	23	-38	-14560	8728	-872	-80	15	-5	-32	3448	16480	3	-30	39	120	135	12
-7916	-5764	13592	-8	-12	-36	-15160	-4728	176	20	3	-37	3240	-4504	16104	9	-17	14	-4944	5728	14456	-24	-7	-26	-14536	8120	-616	12	19	-23	280	2984	16528	-5	-52	49	119	137	12
-7196	-5156	13912	-5	-16	-26	-15360	-4776	872	-34	-12	-24	3248	-4616	15928	27	-21	24	-5072	5680	13936	-44	19	-35	-14280	8264	-672	20	-5	-5	448	2664	16472	-14	-39	38	120	135	12
-7616	-5352	13640	-3	-15	-29	-15120	-5056	664	0	-15	-27	3272	-4456	15784	32	-15	22	-5040	5424	13976	-28	10	-21	-14064	8128	-872	38	-3	1	416	2496	16440	-5	-22	31	121	137	12
-7348	-5020	13716	1	-24	-25	-15112	-5096	1176	-17	-13	-9	3304	-4648	15936	31	-1	12	-4864	5424	13488	-14	20	-17	-14224	8376	-920	-15	-4	23	96	2640	16104	11	-3	30	123	133	12
-7740	-4728	13356	12	-18	-14	-14784	-4760	368	37	1	3	3456	-4448	15840	28	3	0	-5528	5600	13976	-2	14	-15	-14168	8336	-1056	0	12	23	72	2512	16360	28	-5	32	124	129	12
-7288	-5376	13932	39	-36	-11	-15608	-4744	568	-2	-7	14	3048	-4432	16072	36	-4	-2	-4952	5544	13816	1	18	-17	-14424	8576	-784	4	-6	42	-72	2560	16208	35	-8	29	124	131	12
-7844	-5096	13964	40	-24	-5	-15672	-4880	672	23	-5	19	2808	-4192	16328	38	-12	-12	-5552	5712	14344	13	19	-13	-14328	8664	-1464	-32	-6	58	-160	2640	16648	39	-30	13	123	135	12
-7588	-5620	14388	19	-30	-21	-15984	-4608	728	3	-7	41	3064	-4192	16632	57	-13	-11	-4960	5040	14744	9	-2	-19	-15048	8464	-736	-9	-26	76	-360	3248	17064	33	-36	-5	123	136	12
-7560	-5572	14108	40	-21	-10	-15856	-4872	864	0	-25	29	3176	-4144	16456	55	-9	-13	-5544	5432	14248	20	19	-16	-14864	8824	-1040	16	-47	66	216	3336	17048	18	-42	-23	122	137	12
-7772	-5628	13892	15	-12	-19	-15088	-4696	608	20	-2	31	3568	-3616	16152	42	1	-17	-4984	5888	14304	39	11	-11	-14680	9040	-784	65	-37	49	472	3520	16672	15	-32	-29	122	138	12
-7272	-5284	13888	15	-18	-21	-15224	-4736	912	22	-1	34	3504	-3696	16376	30	15	-7	-5088	5896	14088	31	15	-12	-14232	9256	-480	40	-39	50	744	3720	16840	14	-24	-28	123	136	12
-7892	-5144	14088	38	-19	-5	-15792	-4328	776	44	0	-2	3072	-3752	16472	9	7	-13	-4952	6600	13960	21	7	-4	-14088	9560	-432	1	-10	48	312	3768	16552	34	-4	-5	123	135	12
-7372	-4648	14456	27	-22	-9	-16136	-4056	1008	31	6	21	3088	-3672	16456	17	11	-12	-4960	6184	13712	0	19	-17	-14032	9088	-616	-9	-8	38	288	4088	16208	42	-11	14	123	134	12
-7672	-4740	14004	4	-14	-19	-15248	-4176	792	-11	-4	19	3040	-3672	16224	29	7	-8	-5048	6120	13832	-3	5	-18	-13904	9080	-640	-5	-5	19	160	4016	16272	25	-15	24	121	135	12
-7560	-5056	14040	13	-20	-25	-15416	-4432	760	-23	-12	6	3080	-3616	16184	29	6	-5	-4864	5712	14128	-28	3	-31	-14272	8904	-528	29	-11	17	48	3896	16392	11	-24	27	121	137	12
-7556	-5464	14036	13	-15	-24	-15744	-4592	1008	26	-13	-17	2960	-3448	16456	20	-6	-9	-5024	5696	14288	-49	1	-37	-14720	9088	-1008	5	-13	0	48	3744	16832	-2	-40	32	118	138	12
-7600	-5180	14200	2	-13	-31	-15656	-4288	936	25	-4	-28	3200	-3488	16512	9	-14	-8	-5288	5424	14328	-38	6	-34	-14752	8872	-904	-12	0	-17	168	3616	16984	-13	-53	31	118	139	12
-7708	-4860	14028	-9	1	-33	-15464	-4128	480	7	-8	-34	3304	-3560	16376	6	-22	8	-5064	5760	14600	-20	10	-34	-14624	8792	-688	19	-2	-17	488	3352	16776	-24	-38	22	118	138	12
-7412	-5296	14208	-7	-11	-34	-15768	-4240	1064	-23	-6	-47	3528	-3896	16480	1	-18	27	-5080	5880	14392	-25	15	-25	-14800	8960	-416	22	-6	-17	440	3304	17032	-22	-20	20	118	137	12
-7596	-4852	14236	-8	-10	-30	-15968	-4768	896	-24	-16	-54	3424	-4296	16560	5	-15	42	-4936	5760	14144	-8	18	-24	-14184	8800	-416	8	5	-7	496	3024	16560	-6	-11	25	119	136	12
-7052	-4844	14464	-16	-17	-35	-15376	-4712	1264	-38	-14	-35	3608	-4584	15888	20	-2	39	-4360	6128	13560	-8	30	-19	-13816	8552	-344	-1	1	1	504	3280	15776	12	-1	34	120	136	12
-7192	-4552	13316	-17	4	-32	-14696	-4640	984	-16	-16	-15	3688	-4248	15296	22	19	30	-4696	5992	13112	-9	25	-21	-13216	8072	-488	13	8	4	600	3072	15432	28	5	48	122	137	12
-7036	-5268	13252	-11	-10	-26	-14368	-4960	912	-32	-5	6	3440	-4136	15368	24	25	20	-4832	5464	13400	-40	10	-29	-13720	8400	-248	24	12	6	184	3080	15696	26	-1	51	122	132	12
-7444	-5836	13352	26	-18	-18	-14864	-5304	856	23	4	-13	2800	-4280	15728	13	9	-9	-5312	5344	13896	-51	8	-37	-14360	8648	-1192	-38	15	12	120	3032	16352	27	-6	42	122	134	12
-7748	-5564	14084	45	-34	-9	-15600	-4744	152	66	16	-9	2856	-4296	16360	18	-11	-29	-5216	4944	14640	-40	-5	-34	-15192	8504	-1304	16	-1	10	-192	2856	17208	-7	-53	28	121	136	12
-7496	-5796	14224	28	-25	-5	-16184	-4560	696	28	-10	7	2976	-4288	16536	33	-25	-31	-5096	5496	14768	-12	7	-23	-15136	8576	-904	16	-1	12	-8	2760	17016	-23	-62	6	121	138	12
-7388	-5020	14068	15	-15	-15	-15424	-4304	784	-27	-21	5	3672	-4032	15952	42	-22	-14	-5208	5528	14072	29	31	-8	-14480	8152	-608	50	-32	24	880	2616	16248	-13	-36	-14	122	140	12
-7272	-4632	13824	-4	-11	-21	-14824	-4176	1072	-39	-20	11	4016	-3960	15552	38	-4	17	-5184	5496	13976	27	15	-8	-13872	8584	-368	48	-30	45	808	3064	16400	20	-1	-14	124	136	12
-7300	-5200	13812	5	-11	-29	-15408	-4848	1472	-16	-4	-5	3576	-4104	16208	32	0	29	-5416	5672	13904	9	23	-18	-14104	8824	-608	-15	-11	54	328	3416	16424	49	7	1	124	132	12
-7520	-5416	14040	25	-13	-8	-15704	-5064	976	24	14	0	3336	-4272	16568	24	6	22	-4920	5960	14160	10	25	-18	-14448	9032	-624	-18	7	48	32	3680	16440	51	-3	13	123	132	12
-7844	-4880	14220	12	-12	-14	-15632	-4608	576	33	16	14	3288	-4120	16536	35	6	4	-5344	5864	14384	-4	17	-24	-14480	9080	-1112	-4	-2	48	-96	3968	16528	31	-22	10	122	133	12
-7524	-5552	14288	13	-12	-22	-15880	-4624	600	3	4	15	3080	-4080	16440	38	3	-7	-5080	5256	14624	-20	2	-29	-14920	9024	-704	27	-8	34	-200	3912	17072	4	-35	8	121	137	12
-7856	-5604	14276	24	-14	-14	-16048	-4776	792	9	-3	2	2944	-3856	16632	30	-5	-24	-5208	5768	14688	-15	9	-32	-14896	9272	-1144	12	-20	18	8	3880	17264	-23	-41	-6	121	139	12
-7608	-5416	14736	23	-21	-26	-15984	-4616	696	31	3	3	3216	-3776	16504	20	-2	-34	-4640	5968	14384	-4	9	-22	-14656	9024	-704	58	-31	7	280	3776	16784	-17	-33	-4	121	138	12
-7320	-4848	14164	18	-6	-21	-15672	-4040	704	17	-11	2	3336	-3728	16104	10	14	-29	-5264	6032	13752	15	17	-22	-14032	9152	-592	24	-28	9	520	3440	16240	6	-12	8	122	137	12
-7188	-4424	14144	15	-12	-24	-15440	-3880	976	1	-13	-2	3472	-3632	15832	3	19	-12	-4992	6256	13800	7	11	-17	-13760	9032	-208	35	-10	8	600	3432	16312	35	3	29	121	133	12
-7464	-4832	14212	6	-22	-19	-15624	-4256	1000	-18	-17	-2	3128	-3744	16688	14	4	10	-5360	6280	13952	-32	9	-27	-14128	9112	-808	-39	-2	18	96	3584	16440	30	-4	38	120	137	12
-7764	-5376	14204	2	-24	-29	-15896	-4600	808	-1	-14	-20	3112	-3896	16608	22	-13	20	-4664	5800	14168	-28	4	-27	-14760	8704	-520	-17	5	6	232	3424	16648	16	-26	42	118	138	12
-7488	-5392	14204	-9	-7	-32	-15480	-4632	856	-23	-20	-24	3216	-4056	16216	31	-16	24	-4888	5136	14280	-33	9	-28	-14600	8608	-368	14	-12	-4	392	3568	16648	-10	-46	36	117	139	12
-7160	-5180	13584	-25	-5	-36	-14960	-4640	1112	-5	-16	-29	3560	-3800	15680	24	-11	29	-5264	4712	13936	-24	20	-27	-14336	8312	-728	41	-16	-10	928	3312	16360	-19	-36	20	117	139	12
-7392	-5820	13432	-8	-12	-32	-14760	-4728	944	-19	-4	-38	3408	-3744	16024	8	-6	26	-4968	5728	14000	-12	18	-30	-14088	8528	-472	26	-4	-6	672	3040	16160	-12	-16	16	120	133	12
-7416	-5296	13796	5	-12	-19	-15264	-4856	568	16	3	-33	3376	-4288	15968	0	-11	16	-4888	6056	14168	-16	12	-30	-14272	8840	-752	-18	17	1	184	2824	16496	-6	-13	23	121	136	12
-7592	-5152	14244	3	-22	-22	-15928	-4816	648	7	1	-21	3120	-4912	16264	21	-19	11	-5208	6040	14536	-40	6	-27	-14808	9040	-736	-33	18	16	-304	2880	17064	8	-23	35	123	134	12
-7536	-4568	14596	20	-21	-13	-16056	-4992	760	-17	-15	-6	3312	-5024	16440	40	-27	10	-5288	5904	14456	-21	21	-26	-14808	8640	-1176	-28	3	25	72	2856	16848	16	-34	34	123	134	12
-7704	-5060	14288	15	-9	-14	-15904	-4856	808	-8	-16	16	3600	-4464	16264	58	-17	12	-5208	5648	14368	-23	14	-26	-14432	8432	-872	22	-9	33	248	2768	16368	22	-27	30	123	136	12
-7088	-5140	13696	7	-10	-14	-14984	-4520	1080	-33	-19	33	3728	-4008	15560	56	4	5	-5080	5472	13880	25	20	-14	-13936	8224	-856	50	-30	45	568	3040	16064	37	-5	13	124	135	12
-7520	-5380	13300	27	-15	-10	-14736	-4824	984	8	-10	26	3488	-3800	15624	38	19	-3	-4904	5432	13696	19	21	-17	-13736	8552	-888	29	-20	56	168	3304	15888	52	11	4	125	133	12
-7380	-5704	13844	36	-31	-10	-15056	-4816	856	44	8	27	3056	-3528	15960	25	23	-22	-4800	6232	14128	4	3	-11	-14296	8912	-544	16	-20	50	-200	3480	16720	46	-8	0	124	131	12
-7404	-5696	14156	40	-30	-14	-15944	-4656	464	59	-1	12	2696	-3768	16656	16	6	-34	-5024	5936	14336	-12	-11	-17	-15096	8984	-1016	-35	-23	55	-376	3744	16824	22	-39	-2	121	134	12
-7312	-5056	14032	32	-18	-19	-15864	-4304	680	22	-21	5	2936	-3672	16440	16	-12	-40	-5416	5088	14280	10	-2	-15	-14568	8520	-672	-2	-27	23	168	3640	16424	-12	-62	-10	119	139	12
-7080	-5060	13964	23	-29	-24	-15248	-3952	1136	-13	-25	7	3440	-3712	15760	30	-16	-18	-4864	5712	13960	23	3	-12	-13752	8664	-232	72	-48	25	880	3536	16240	-14	-47	-14	119	139	12
-7276	-5068	13700	15	-27	-23	-15064	-4104	1176	-5	-26	-1	3464	-3664	15856	29	-15	2	-4976	6240	13480	9	8	-6	-13536	8872	-472	41	-43	37	648	3288	15904	8	-12	-4	121	136	12
-7468	-4724	14180	20	-29	-18	-15240	-4376	1112	2	-17	-9	3392	-3808	15992	38	-11	9	-4712	6080	13816	-2	4	-15	-14192	9136	-136	-10	-7	31	336	3576	16416	35	-5	27	121	135	12
-7676	-5076	14140	2	-25	-26	-15768	-4432	936	21	-24	-6	3224	-4048	16368	39	-17	12	-5432	5320	14208	-29	9	-28	-14432	8912	-760	-59	7	20	256	3920	16784	37	-29	46	119	133	12
-7404	-5804	13864	1	-19	-24	-15472	-4448	848	-13	-18	-10	3512	-3608	16304	30	-23	17	-5312	4912	14232	-37	14	-32	-14744	8728	-616	-5	8	-2	680	3768	16728	14	-48	46	117	137	12
-7688	-5844	13832	-6	-7	-26	-15256	-4760	984	-19	-10	-20	3592	-3704	16120	18	-18	19	-5088	5968	14696	-21	25	-28	-14648	8712	-616	13	2	2	624	3368	16760	-13	-45	25	117	140	12
-7328	-5184	14032	-17	-8	-22	-15760	-4744	976	-2	9	-28	3504	-4200	16528	7	-18	23	-4912	5592	14520	-29	27	-32	-14896	8696	-912	11	-1	6	528	3336	17024	-29	-29	10	119	139	12
-7832	-5716	14300	-6	-10	-22	-15840	-5080	1136	0	10	-33	3464	-4496	16184	0	-6	18	-4832	5968	14096	-2	34	-24	-14728	8712	-872	11	6	-1	472	3080	16616	-18	-11	9	121	133	12
-7384	-4128	14088	1	0	-10	-15320	-4480	872	-3	9	-9	3696	-4448	16016	17	12	17	-4976	6200	13776	8	43	-21	-13856	8912	-816	35	6	14	552	2792	16448	12	6	20	123	135	12
-7432	-5008	13968	6	-12	-9	-15264	-4416	960	-5	4	14	3672	-4440	15936	35	23	23	-4704	6544	13736	-3	27	-19	-13736	9016	-448	2	26	28	8	2752	16112	47	21	40	124	132	12
-7408	-4944	14172	13	-10	-12	-15608	-4840	952	-19	-1	17	3152	-4568	16216	52	17	17	-5072	6048	14240	-31	14	-33	-14344	8776	-848	-56	19	49	-320	3224	16808	63	10	49	123	133	12
-7688	-5132	14376	28	-23	-9	-15992	-5032	752	5	-6	20	3056	-4288	16320	54	10	3	-5096	5424	14544	-26	4	-25	-14984	8616	-1000	-17	12	43	-376	3304	16808	40	-17	37	122	134	12
-7580	-5788	13996	24	-11	-17	-15552	-4912	976	16	-6	28	3280	-3856	16400	49	-1	-17	-5568	4992	14344	-6	12	-26	-15104	8464	-904	24	-25	36	-168	3384	17176	2	-42	4	122	137	12
-7428	-5732	13968	31	-14	-14	-15200	-4512	824	25	-1	21	3376	-3528	16048	37	5	-27	-4920	5712	14360	12	-2	-12	-14824	8712	-600	95	-48	39	320	3528	16848	-17	-38	-23	122	139	12
-7188	-5216	14040	30	-15	-10	-15392	-4248	992	25	-1	9	3304	-3432	16264	15	11	-27	-4904	5544	14272	15	3	-16	-14480	9008	-320	51	-49	41	592	3584	16616	-2	-15	-35	122	141	12
-7212	-4700	13848	21	-14	-16	-15640	-4056	1216	15	-2	0	3272	-3432	16128	0	13	-21	-5048	5928	13856	38	23	-16	-13824	9088	-504	8	-29	37	720	3864	16288	10	-4	-26	123	136	12
-7376	-4824	14124	27	-16	-19	-15392	-4000	1136	-4	3	5	3552	-3632	16296	3	13	-8	-4696	6144	13064	27	28	-15	-13416	9120	-248	-9	-4	30	512	3872	15672	22	3	-1	123	133	12
-7236	-4452	13924	22	-4	-11	-15192	-3888	992	11	2	13	3328	-3680	15776	22	15	5	-4832	6272	13264	16	17	-15	-13160	8848	-416	10	9	22	520	3760	15536	34	4	25	121	136	12
-6976	-4456	13676	13	0	-19	-15096	-3992	984	-25	2	1	3336	-3792	15848	41	11	17	-4720	5104	12984	-20	29	-33	-13296	8520	32	15	6	30	456	3728	15592	35	4	34	120	137	12
-7144	-5184	13532	18	-8	-19	-14792	-4472	1072	-16	-7	9	3256	-3576	15208	47	13	14	-4496	5368	13128	-37	29	-41	-13776	8408	-624	11	9	16	504	3632	15728	22	-7	39	119	139	12
-7324	-5628	13128	9	2	-26	-14504	-4696	904	-1	2	1	3176	-3488	15544	40	13	7	-5264	5072	13648	-48	13	-35	-14168	8528	-816	25	17	-2	376	3680	16288	-4	-25	39	118	139	12
-7312	-5600	13444	15	2	-18	-15088	-4760	920	16	5	-20	3064	-3608	15760	21	2	-1	-5032	5144	14888	-48	12	-44	-14800	8368	-544	21	21	-11	152	3392	17120	-23	-29	34	117	139	12
-7224	-5720	13812	20	-8	-7	-15720	-4624	600	15	11	-40	3016	-3928	16256	1	-15	-1	-5176	5776	14712	-38	31	-35	-15048	8520	-696	4	12	-16	432	3120	16960	-39	-37	23	117	140	12
-7344	-4704	14124	13	0	-8	-15688	-4456	952	-10	1	-32	3304	-4352	16200	5	-18	17	-4720	5544	14040	-12	42	-18	-14440	8304	-272	26	7	-9	840	2584	16448	-27	-23	16	119	143	12
-7368	-4996	13900	-10	3	-22	-15120	-4608	1032	-48	-12	-14	3704	-4504	15704	18	-1	37	-4752	6008	13424	8	48	-20	-13928	8096	-656	-3	17	9	800	2336	16032	8	10	22	121	137	12
-7372	-4632	13700	1	5	-12	-14944	-4808	984	-40	5	-10	3800	-4824	15552	35	7	53	-4952	6264	13712	11	35	-20	-13728	8368	-520	0	33	34	576	2416	16144	41	27	40	123	136	12
-7396	-5300	14164	16	-5	-12	-15608	-5432	784	-22	7	10	3384	-5032	16104	58	9	49	-5336	5872	14304	-13	25	-29	-14728	8848	-696	-23	33	54	-256	2720	16784	56	13	56	123	133	12
-7996	-5984	14576	31	-13	-6	-16312	-5464	824	19	1	13	3160	-5056	16632	73	-5	30	-5168	5600	15120	-33	19	-26	-15448	8936	-1320	-43	25	55	-504	3112	17528	54	-17	50	123	134	12
-7764	-5844	14504	28	-10	-11	-16240	-5384	688	13	-6	40	3224	-4512	16760	80	-12	0	-5496	5568	15104	3	13	-15	-15968	8688	-1208	6	0	55	-448	3016	17872	31	-43	15	123	135	12
-7616	-5564	14380	38	-15	-5	-15768	-5120	872	14	-6	46	3624	-4328	16320	75	-2	-19	-5360	5232	14808	35	20	-12	-15304	8528	-1008	50	-32	67	168	3128	17360	15	-42	-19	124	137	12
-7724	-5676	14408	60	-25	2	-15752	-4768	696	25	1	54	3584	-3984	16600	51	10	-31	-5336	6424	14608	55	21	-2	-14432	9056	-888	72	-44	89	232	3184	17144	29	-8	-40	127	136	12
-7512	-4892	14936	68	-37	6	-16320	-4712	1056	45	10	66	3216	-4128	16960	46	12	-42	-5088	6792	14752	53	5	12	-14664	9752	-560	18	-57	97	-192	3504	17376	47	9	-36	128	133	12
-7832	-4720	15152	71	-38	5	-16816	-4496	1032	42	-13	56	2856	-3928	17264	43	12	-47	-5192	6632	14680	50	12	4	-14880	9864	-904	-55	-42	102	-320	3944	17176	71	-4	-23	126	132	12
-7736	-4456	14888	48	-39	-11	-16320	-3952	832	32	-17	70	3280	-3672	16688	59	13	-43	-5168	5696	14608	37	-2	0	-14520	9416	-528	-5	-31	87	32	4248	16928	78	-31	-7	123	134	12
-7476	-5136	14496	40	-36	-20	-15848	-4200	1224	-25	-32	57	3384	-3072	16824	63	7	-26	-5368	6256	14416	24	-3	-6	-14448	9576	-752	13	-52	64	-56	4408	16936	56	-34	1	121	136	12
-8024	-5620	14452	42	-45	-15	-16008	-4192	808	36	-15	23	3008	-2888	17032	49	-9	-21	-5040	6848	14704	-6	-22	-5	-14936	9792	-528	30	-48	55	64	4712	17456	37	-52	-5	119	137	12
-7668	-5188	14904	24	-37	-28	-16752	-4384	1104	47	-22	-1	2992	-2912	17184	27	-21	-27	-4984	5720	14968	-11	-20	-15	-15432	9944	-448	12	-52	33	48	4928	17616	7	-63	-5	119	136	12
-7452	-5196	14752	12	-37	-33	-16400	-3928	1000	30	-22	-27	3408	-2840	16816	5	-24	-25	-4872	5600	14592	4	0	-25	-14712	9568	-632	13	-40	-10	696	4912	16968	-15	-58	0	118	138	12
-7152	-5324	14284	-4	-27	-37	-15552	-3576	1224	-8	-26	-29	3904	-2984	16136	-9	-13	3	-4136	6624	13744	16	0	-13	-13768	9208	184	41	-32	-28	992	4360	16120	-10	-19	17	118	138	12
-6752	-4664	13816	-18	-27	-41	-14984	-3744	1712	-42	-29	-45	3680	-3176	15784	-13	2	26	-4904	6400	12880	-14	20	-20	-12848	9240	192	8	-19	-34	848	3912	15256	-5	-7	37	119	139	12
-7452	-4504	13724	-15	-28	-37	-14952	-4104	792	-16	-26	-54	3248	-3616	15640	-11	-1	32	-4400	6144	13240	-52	-2	-31	-12856	8984	-296	-27	15	-30	432	3704	15560	16	-3	63	119	136	12
-7008	-5008	14108	-21	-35	-48	-15304	-4336	720	-16	-20	-42	2872	-3952	16088	5	-19	27	-4456	5680	13408	-78	-13	-38	-13896	8736	-248	-54	16	-27	0	3552	16080	13	-26	88	118	137	12
-7228	-5160	13696	-17	-29	-38	-15104	-4440	856	-9	-31	-54	3008	-3904	15448	18	-33	20	-4968	4760	13608	-80	-6	-47	-14360	8312	-888	-51	11	-43	-192	3288	15912	-11	-56	82	116	141	12
-7144	-5360	13468	-24	-27	-46	-14696	-4432	784	-13	-32	-44	3480	-3776	15528	20	-43	22	-4624	5952	13848	-57	-16	-23	-14336	8056	-520	44	-4	-50	296	2992	16104	-34	-80	60	116	140	12
-7288	-5076	13524	-21	-31	-41	-14904	-4744	960	-9	-35	-50	3296	-3936	15624	10	-52	20	-4960	5248	14000	-50	-16	-25	-14288	8264	-712	14	-19	-25	448	2512	16328	-38	-62	41	118	139	12
-7056	-5380	13492	-1	-28	-25	-15248	-4632	664	5	-39	-63	3288	-4400	15584	-3	-51	15	-4680	5856	13888	-21	0	-11	-14344	8160	-624	-20	-11	-18	488	2472	16224	-17	-46	31	120	137	12
-7160	-4144	13540	-16	-28	-34	-14912	-4688	1208	-10	-34	-32	3608	-4608	15528	2	-38	14	-4904	5056	13552	-4	11	-19	-13808	8160	-696	-31	-12	-4	600	2488	15824	7	-24	28	122	135	12
-7144	-5204	13500	-4	-27	-33	-14688	-4704	984	-37	-32	-21	3816	-4536	15600	22	-29	28	-4752	5488	13560	-2	5	-14	-13784	8272	-712	-9	-14	19	696	2464	15920	27	-21	32	123	135	12
-7588	-5092	13600	7	-33	-25	-14920	-5024	872	-13	-27	2	3568	-4728	15744	41	-30	28	-5128	5424	13760	-17	3	-18	-14232	8416	-784	-35	-1	39	272	2712	16080	36	-25	30	123	134	12
-7620	-5848	13608	14	-28	-19	-15376	-5256	1008	7	-18	1	3400	-4680	16104	52	-21	13	-5568	5472	14296	-13	-8	-19	-14760	8520	-1032	-16	-10	47	128	3016	16880	22	-36	19	124	135	12
-7436	-5720	14060	36	-25	-13	-15800	-5256	720	25	-6	19	3584	-4664	16280	55	-19	-9	-5008	5464	14560	19	1	-16	-15064	8600	-808	30	-23	55	232	3104	16616	12	-37	-2	123	137	12
-7116	-5104	13960	41	-15	-4	-15288	-4608	1208	32	-8	42	3904	-4232	15720	56	4	-26	-4880	5464	13880	36	28	-15	-14032	8360	-488	67	-42	61	640	3208	16208	18	-18	-27	125	136	12
-7428	-4892	13492	39	-10	-7	-14552	-4328	1240	7	3	52	3960	-3704	15776	40	35	-28	-5008	6136	13472	56	36	-12	-13536	8792	-664	49	-20	65	848	3416	15992	34	10	-37	126	135	12
-7484	-4924	13500	48	-4	2	-14864	-4192	776	28	26	48	3456	-3672	15928	23	45	-32	-5320	6064	13776	31	22	-12	-13680	9288	-624	13	-3	74	328	3616	16328	48	24	-24	126	132	12
-7516	-5500	14424	68	-15	6	-16168	-4432	1008	36	30	44	2864	-3912	16760	25	35	-37	-5144	5800	14208	12	38	-28	-14680	9416	-816	-34	7	76	-160	3928	16632	44	10	-16	123	133	12
-7680	-5392	14560	47	-4	3	-16128	-4192	944	41	24	44	2984	-3696	16936	26	33	-40	-4688	5712	14360	11	36	-27	-14824	9096	-544	5	6	67	176	4056	16704	25	-17	-16	120	136	12
-7180	-4680	14288	19	4	-5	-15448	-3832	912	-29	5	43	3584	-3288	16016	51	28	-13	-4888	5656	14120	17	39	-22	-14232	8912	-416	75	-18	47	552	4304	16600	6	-15	-12	119	138	12
-7168	-4736	13704	11	9	-3	-14992	-3872	1288	-6	11	19	3440	-2968	15848	42	33	7	-5168	5800	13880	6	41	-24	-13800	9024	-328	71	-14	42	760	4288	16392	2	-4	-7	119	139	12
-7428	-5448	14028	16	-2	-9	-15400	-4208	976	9	26	6	3248	-3288	16160	25	31	20	-5040	5864	13784	-2	32	-27	-14152	9200	40	49	17	22	576	4296	16600	4	19	3	119	136	12
-7544	-5088	13968	14	20	-1	-15752	-4120	960	5	20	-16	3112	-3472	16368	15	24	21	-5072	6696	14160	-13	44	-25	-13968	9600	-416	-13	32	9	384	3968	16776	8	17	30	120	133	12
-7608	-4996	14460	10	3	-14	-15880	-4224	720	3	24	-12	3304	-3768	16544	26	13	31	-5016	5464	14880	-26	37	-47	-14656	9472	-448	-14	48	1	288	4064	16816	12	12	48	119	134	12
-7196	-5456	14348	-8	21	-19	-16096	-4296	1064	-52	1	-13	3248	-3808	16424	37	7	39	-5048	5568	14384	-33	48	-43	-14608	8608	-688	-37	39	-2	168	3744	16704	-2	-5	55	118	137	12
-7668	-5680	13900	-7	20	-19	-15288	-4712	992	-47	7	-21	3608	-3768	16264	30	10	39	-4824	6584	14296	-34	33	-31	-14408	8744	-544	46	39	-14	448	3408	16744	-13	-8	44	119	139	12
-7432	-4904	14036	-10	11	-21	-15336	-4960	1328	-35	18	-16	3400	-4032	16032	26	20	36	-5008	5568	14272	-44	36	-45	-14552	8744	-712	36	23	-1	72	3208	16968	-13	7	33	121	136	12
-7152	-5532	13984	12	12	-14	-15528	-4856	960	26	20	-30	3336	-4128	16256	13	19	21	-5000	6008	13968	-19	31	-33	-14648	8848	-680	31	21	-1	-152	3080	16824	-3	9	20	122	136	12
-7312	-4572	14244	27	6	-3	-15792	-4528	880	20	20	-9	3168	-4216	16528	9	19	10	-5152	5832	13736	-2	37	-24	-14200	8920	-960	31	16	9	-32	3184	16120	6	4	20	124	135	12
-7596	-5140	14036	19	2	-9	-15560	-4304	800	26	23	10	3160	-4104	16272	22	11	-1	-5224	6000	14272	-9	28	-28	-13976	9064	-1048	-10	23	25	-136	2928	16624	15	1	18	123	136	12
-7468	-5608	14460	19	-10	-20	-15808	-4704	808	-21	11	12	3016	-4032	16536	29	0	2	-4920	6232	14672	-10	9	-24	-14896	8744	-944	-14	8	33	-384	3256	16800	19	-12	11	121	134	12
-7556	-4896	14616	32	-15	-9	-16304	-4584	848	-9	-9	5	2976	-4088	16688	28	5	-2	-5264	5888	14896	-8	18	-26	-14904	8872	-800	-6	0	32	-272	3256	16920	9	-32	-2	121	138	12
-7792	-5092	14440	18	-11	-26	-15896	-4752	984	23	-8	11	3280	-3784	16688	36	-5	-11	-4960	5832	14400	8	13	-12	-14688	8816	-872	34	-33	40	104	3296	16688	3	-37	-8	120	140	12
-7548	-5492	14300	23	-18	-29	-15304	-4384	992	6	-13	14	3328	-3648	16128	30	-5	-15	-5056	5928	14224	20	14	-14	-14296	8992	-544	52	-37	36	304	3648	16808	9	-27	-17	121	139	12
-7536	-5020	14320	25	-28	-22	-15608	-4384	936	15	-11	0	3280	-3680	16584	23	-3	-12	-5328	6072	14192	7	7	-13	-14416	9344	-784	0	-29	38	288	3848	16624	18	-24	-7	121	134	12
-7628	-5132	14344	31	-35	-15	-16184	-4592	728	21	-17	-2	3080	-3808	16720	15	-9	-7	-4560	6160	14688	-5	-3	-2	-14744	9408	-200	11	-16	24	256	3688	17016	23	-25	14	122	139	12
-7644	-5020	14860	11	-34	-24	-16264	-4696	1064	-5	-20	-9	3152	-4008	16704	24	-14	1	-5104	5496	14328	-5	15	-21	-14736	9296	-520	-47	-25	24	368	3808	16568	19	-36	23	121	136	12
-7464	-4812	14136	-2	-24	-30	-15272	-4120	712	6	-30	-7	3472	-3960	15848	31	-14	5	-4952	5352	13640	9	8	-7	-13872	8560	-584	14	-25	14	664	3912	16080	17	-33	33	121	135	12
-7144	-4748	13620	-9	-15	-29	-14688	-4112	1416	-58	-35	3	3528	-3632	15416	28	-5	16	-4904	5728	13368	-9	8	-11	-13552	8760	-56	48	-26	8	688	3576	15864	20	-20	42	122	139	12
-7624	-5000	13404	3	-26	-18	-15080	-4752	1200	-8	-25	-16	3216	-3680	15792	21	-9	15	-5312	5824	13600	-31	3	-16	-13952	9096	-920	-42	9	13	112	3360	16336	18	-22	48	122	139	12
-7496	-5516	14304	22	-45	-21	-15672	-4696	760	34	0	-12	3024	-3984	16280	25	-21	8	-4944	6272	14416	-39	-9	-28	-14904	9240	-928	-33	15	12	-320	3504	17040	17	-41	48	121	132	12
-7988	-5284	14508	11	-34	-22	-16504	-4488	864	48	-11	-14	3096	-4048	16904	39	-38	2	-5328	5112	14536	-38	-2	-27	-15176	8864	-904	-56	-2	19	-208	3472	16920	6	-56	40	120	135	12
-7328	-4972	14172	2	-21	-27	-15536	-4056	752	-20	-32	-5	3752	-3792	16208	38	-34	6	-5040	5248	14416	9	13	-18	-14288	8336	-912	34	-21	-1	456	3152	16304	-8	-53	21	120	138	12
-7324	-4532	14108	1	-15	-23	-14968	-4296	1032	-43	-22	5	3776	-3776	15904	33	-24	22	-4896	6312	14072	11	1	-12	-13712	8912	-616	57	-34	20	576	3096	16232	6	-23	0	121	140	12
-7136	-5128	13992	0	-23	-28	-15304	-4680	1200	-6	-19	-12	3144	-3792	16200	20	-7	15	-4976	5768	13648	-2	5	-14	-13944	9056	-808	-15	-33	38	176	3560	16232	19	-2	-2	123	134	12
-7512	-5268	13880	7	-22	-23	-15336	-4672	1352	1	-17	-13	3184	-3936	16136	10	0	-1	-4872	5736	13880	4	0	-11	-13992	9088	-600	2	-17	32	-24	3816	16200	37	-7	10	123	135	12
-7084	-4948	13976	10	-26	-26	-15528	-4240	1072	17	-13	12	3304	-3632	15968	16	5	-14	-4920	6056	13488	-12	1	-15	-13928	9280	-776	-15	-17	26	64	3856	16328	25	-27	21	122	133	12
-7632	-5068	13900	12	-26	-24	-15328	-4264	664	13	-15	2	3304	-3256	16080	19	-3	-17	-4992	6000	14248	-30	-12	-17	-14504	9096	-608	17	-20	19	-32	3968	16928	8	-41	21	121	137	12
-7488	-5216	14244	13	-31	-26	-15856	-4464	1112	-8	-20	-13	3016	-3568	16384	16	-17	-20	-5384	5752	14584	-41	-20	-26	-14832	9272	-872	-8	-49	17	-288	4112	17248	-26	-62	3	120	138	12
-7276	-4484	14116	4	-30	-30	-16064	-4328	896	55	-13	-30	3120	-3488	16560	6	-25	-25	-5224	6144	14560	-17	-5	-15	-14736	9208	-712	37	-41	5	400	4072	16696	-32	-63	-1	120	138	12
-7084	-4932	14148	-11	-19	-33	-15840	-4056	680	50	-17	-25	3688	-3200	15792	0	-14	-9	-4800	6120	13600	3	12	-13	-13768	9096	-560	29	-36	-8	792	3896	16096	-23	-35	2	121	138	12
-7612	-4172	13856	-9	-18	-31	-14888	-3632	1256	-11	-16	-31	3672	-3224	15912	-15	-6	8	-5000	6664	13568	1	11	-15	-13256	9440	-448	34	-26	-6	872	3776	16048	-2	-10	15	122	136	12
-7236	-4648	14288	-4	-26	-31	-15584	-3936	1144	-18	0	-33	3432	-3624	16256	-4	-8	25	-4712	6272	13608	-25	1	-18	-13648	9224	-136	-1	0	2	304	3832	16064	20	-14	33	121	133	12
-7204	-4852	14092	-13	-7	-31	-16104	-4376	1080	-8	-17	-47	3000	-3864	16008	4	-11	27	-4952	5872	13680	-50	14	-36	-13936	9048	-600	-70	14	-5	184	3928	16344	15	-30	45	119	134	12
-7428	-4624	13824	-29	-4	-36	-15248	-4592	616	-15	-10	-27	3336	-3648	15888	8	-18	21	-4968	5904	13848	-60	6	-34	-14384	8536	-608	-8	21	-29	448	3840	16368	-8	-52	50	118	139	12
-7156	-5196	13616	-26	-5	-32	-14920	-4496	920	-24	-6	-36	3392	-3696	15728	8	-10	21	-4968	5424	13624	-40	10	-31	-14304	8248	-816	44	-3	-31	688	3480	16360	-40	-49	35	117	141	12
-7200	-4744	13420	-9	2	-13	-15128	-4584	552	8	-4	-54	3384	-3912	15720	-4	-10	18	-5168	5584	13960	-47	13	-25	-13952	8720	-656	41	0	-16	600	3040	16480	-39	-25	20	119	141	12
-7276	-4932	13988	-14	-10	-27	-15560	-4688	768	-1	7	-40	3216	-4328	16200	-5	-9	19	-5080	5616	14128	-41	23	-37	-14456	8704	-792	2	23	-15	432	2960	16776	-24	-11	28	120	137	12
-7640	-5076	14176	-8	-9	-20	-15752	-4808	632	-18	-5	-37	3376	-4552	16216	6	-9	26	-4832	5568	14376	-41	26	-29	-14920	8800	-688	-22	26	-6	296	2832	16896	-5	-9	33	121	135	12
-7368	-5308	14084	-14	-2	-31	-15384	-4760	1064	-43	-8	-23	3680	-4568	16192	32	0	35	-4856	5184	14104	-17	31	-32	-14688	8136	-672	-17	20	-8	432	2696	16544	3	-7	42	121	132	12
-7052	-5116	13704	-23	7	-25	-14904	-4776	928	-44	-6	-17	3912	-4480	15720	32	17	42	-5280	5920	14000	-13	26	-25	-14152	8208	-848	31	13	11	448	2872	16280	12	3	35	122	137	12
-7440	-4836	13704	2	2	-14	-14984	-5112	1256	-28	-1	-7	3728	-4544	15688	25	23	35	-5232	5544	13792	-24	31	-29	-14040	8576	-808	22	9	31	368	2944	16392	13	11	12	124	138	12
-7568	-5384	13984	23	-2	-6	-15272	-5040	840	43	23	8	3312	-4400	16016	31	20	12	-4816	5584	14056	-20	20	-25	-14432	8704	-872	31	13	41	-248	3152	16840	20	7	9	126	135	12
-7428	-5168	14172	31	-4	-5	-15496	-4856	1000	22	17	22	3280	-4120	16120	33	20	-15	-5256	5584	14288	-10	23	-27	-14728	8992	-1088	15	-8	40	-208	3280	16784	12	-1	-2	126	132	12
-7672	-5428	14208	39	-13	-6	-15696	-4568	944	29	12	26	3160	-3872	16360	27	16	-36	-5208	5648	14680	6	18	-30	-14528	8944	-952	28	-8	42	-128	3496	16824	12	-16	-9	124	134	12
-7264	-5452	14244	35	-11	-8	-15672	-4472	928	15	15	31	3312	-3688	16392	21	16	-36	-4944	6520	13984	13	17	-17	-14504	8864	-544	27	-13	40	96	3448	16656	6	-25	-17	123	138	12
-7276	-4404	14004	34	-7	3	-15600	-4200	1008	22	5	30	3064	-3704	16208	21	11	-34	-5024	5984	14048	4	21	-17	-14136	8888	-832	24	-31	44	160	3728	16320	4	-25	-22	123	137	12
-7516	-4696	14304	20	-7	-15	-15384	-4016	832	7	8	32	3224	-3424	16160	11	13	-24	-4648	6304	14704	13	8	-14	-14384	9112	-424	53	-21	38	288	3872	16720	16	-12	-20	123	137	12
-7156	-4848	14328	13	-11	-19	-16128	-4168	1224	2	-8	4	3112	-3280	16600	15	13	-10	-4888	6416	14272	7	7	-7	-14424	9408	-320	-3	-29	40	40	4096	16856	9	-13	-5	122	137	12
-7604	-5044	14304	12	-8	-8	-15688	-4088	760	21	2	-9	3376	-3296	16456	16	9	4	-4768	6376	14104	-9	25	-22	-14384	9128	-440	10	-12	14	360	4376	16824	5	-21	5	120	137	12
-7620	-5460	13836	-23	12	-33	-15416	-3936	1088	-8	-2	-14	3384	-3096	16048	14	3	23	-5080	6040	14056	-10	22	-25	-14088	9088	-488	28	-2	-5	720	4120	16128	-10	-20	21	120	137	12
-7196	-5220	13768	-30	5	-34	-15344	-4216	992	-20	4	-34	3384	-3464	16336	5	3	34	-5392	5728	14352	-36	14	-31	-14056	9208	-432	25	7	-13	600	4104	16760	-19	-14	31	120	136	12
-6920	-4892	13980	-16	-9	-26	-15568	-4312	1296	-12	4	-49	3480	-3720	15984	1	5	34	-4512	6088	13936	-49	33	-36	-14008	9032	-408	4	12	-23	552	3880	16344	-20	-5	39	120	136	12
-7608	-4320	13952	-20	9	-19	-15352	-4400	1088	-8	9	-43	3392	-3896	16072	-1	3	31	-5056	6592	13368	-35	39	-35	-13744	8904	-896	-6	27	-28	424	3400	16144	-23	-4	43	120	137	12
-7384	-5008	13876	-16	3	-27	-15224	-4248	608	-8	20	-23	3456	-3760	15808	3	7	32	-5200	5496	13912	-45	16	-42	-14104	8896	-656	28	39	-21	168	3280	16560	-15	-1	49	121	137	12
-7336	-5820	13988	-6	4	-23	-15600	-4496	1024	-30	13	-33	3136	-4432	16384	17	2	30	-4960	5768	14336	-67	24	-50	-14568	8928	-672	-13	23	-9	-224	3032	16656	-14	-6	47	121	138	12
-7592	-5168	14212	1	-3	-21	-15752	-4888	800	-12	6	-36	3128	-4288	16128	14	-1	17	-4872	5424	14136	-42	29	-39	-14600	8648	-888	-1	16	-14	-48	2952	16504	-12	-22	41	120	138	12
-7400	-5692	14024	-13	4	-34	-15376	-4672	696	-1	6	-11	3272	-4000	16136	17	2	9	-4720	5840	13880	-24	26	-32	-14416	8328	-848	18	4	-13	384	2928	16224	-16	-21	25	120	135	12
-7264	-4824	13548	-2	5	-24	-15088	-4568	720	-6	-2	-22	3408	-3864	15832	8	13	10	-5144	5568	13728	-16	30	-25	-13936	8232	-784	35	-7	6	408	2920	16208	-9	-8	12	121	136	12
-7340	-4604	13944	9	-9	-13	-14936	-4672	848	-11	2	-13	3152	-4120	15688	2	15	4	-4768	5440	13936	-9	10	-25	-14144	8632	-496	49	-13	15	256	2944	16160	9	-1	4	123	135	12
-7012	-5948	14088	8	-15	-22	-15648	-4832	832	2	-1	-11	2824	-4288	16376	4	12	2	-4792	5688	14376	-20	10	-22	-14496	8696	-520	-21	-9	22	-112	3160	16576	11	-6	10	122	134	12
-7380	-5788	14228	13	-21	-20	-15824	-5024	592	12	-10	-15	3008	-4456	16448	11	-5	-6	-5048	6320	14328	-7	0	-18	-15008	8656	-1016	-34	-18	19	-120	3280	16648	2	-42	11	121	136	12
-7436	-4768	14232	15	-13	-23	-15520	-4432	696	11	-17	-5	3424	-4408	15992	25	-12	-9	-5000	5376	14112	-2	7	-22	-14416	8472	-328	33	-30	20	504	3312	16440	-5	-49	7	121	138	12
-7364	-5324	13880	9	-27	-26	-15136	-4488	1136	-7	-18	3	3464	-4016	15904	33	-16	-3	-5160	5712	13904	3	13	-16	-14016	8496	-408	26	-25	22	696	3248	16120	3	-34	9	122	139	12
-7008	-5240	13620	12	-19	-24	-14992	-4616	1056	-8	-10	6	3448	-3848	15792	28	-10	2	-4856	5720	14000	4	7	-13	-14128	8648	-728	13	-20	30	520	3288	16416	13	-18	16	123	140	12
-7552	-5204	14040	13	-31	-16	-15352	-4744	872	18	-2	1	3216	-4080	16272	29	-6	5	-4832	5272	14136	-11	7	-21	-14496	8952	-472	-19	2	34	40	3584	16600	27	-14	19	123	133	12
-7196	-5344	14044	23	-24	-11	-15464	-4504	1032	24	-12	-3	3344	-4112	15896	25	-8	2	-4880	5448	13808	2	19	-16	-14200	8480	-352	8	-12	16	488	3392	16064	24	-24	30	123	130	12
-7244	-4624	13688	10	-14	-11	-15040	-4064	1112	-6	-14	12	3552	-3792	15800	31	1	5	-5224	6008	13760	-10	21	-23	-13760	8416	-488	16	-6	21	640	3480	15944	20	-22	26	121	136	12
-7164	-5144	13688	8	-22	-19	-14904	-4576	928	-22	2	7	3448	-3560	15784	28	8	9	-4760	6152	13856	-23	6	-21	-14208	8696	-392	15	2	23	504	3448	16192	4	-19	21	120	137	12
-7328	-4848	13988	12	-11	-15	-15408	-4576	1128	-7	-5	-8	3200	-3768	15968	23	8	6	-4872	5296	13976	-23	11	-24	-14392	8640	-760	-27	0	21	296	3632	16256	-5	-18	8	121	138	12
-7736	-4368	13888	21	-7	-5	-15520	-4264	872	38	6	-9	3200	-3968	16200	20	1	2	-5024	5888	14232	-11	22	-24	-13952	8912	-632	29	2	21	352	3264	16440	0	-24	7	122	137	12
-7556	-5436	14140	11	-18	-22	-15720	-4312	920	3	13	10	3400	-3776	16224	27	-6	9	-4800	5872	14168	-3	22	-20	-14360	8984	-600	25	5	26	368	3296	16656	9	-13	16	121	135	12
-7456	-4796	14216	13	-11	-15	-15616	-4352	992	-12	1	-5	3296	-3984	16664	39	-2	17	-5032	5528	14232	-11	22	-25	-14408	8848	-608	-18	-2	31	176	3464	16552	17	-12	21	120	138	12
-7360	-5048	14176	5	-4	-21	-15304	-4480	1096	-31	-10	3	3464	-3984	16080	35	5	21	-4776	5816	13984	0	22	-25	-14240	8744	-424	15	6	19	264	3480	16512	21	-4	19	121	136	12
-7180	-5552	13904	-4	-7	-31	-15280	-4944	992	-17	0	1	3288	-3864	16336	30	8	11	-5240	5696	13912	-20	14	-32	-14560	8744	-664	9	-2	19	-80	3512	16424	14	-9	18	121	136	12
-7456	-5012	13680	12	1	-18	-15224	-4672	664	10	-2	-9	3248	-3776	15920	13	12	3	-4984	6216	13744	-8	27	-19	-14344	8688	-1256	28	-12	12	160	3352	16336	1	-12	12	122	133	12
-7408	-4768	14236	13	-16	-21	-15352	-4312	896	19	7	-3	3240	-3864	16152	11	13	-7	-5328	6128	14304	-13	10	-27	-14320	9024	-408	48	-10	18	224	3440	16544	-4	-16	9	122	137	12
-7760	-6088	14084	15	-17	-15	-15400	-4440	832	17	11	8	3040	-3864	16744	9	-4	-13	-5072	5528	14824	-33	-1	-34	-14856	9120	-624	-35	0	19	56	3472	16904	-6	-27	9	121	134	12
-7172	-5508	14440	11	-11	-24	-16024	-4656	1104	-4	-4	-11	3256	-3856	16144	13	-2	-12	-4640	5360	14264	-21	21	-30	-14904	8568	-600	10	-11	-1	368	3536	16528	-8	-40	10	120	138	12
-7416	-4284	13748	-7	1	-24	-14808	-4400	1224	-8	-6	-7	3712	-3680	15832	14	1	1	-5168	5656	13440	2	33	-24	-13696	8600	-784	41	-21	-2	920	3296	15976	-10	-26	6	120	135	12
-7220	-4908	13412	2	0	-25	-14592	-4104	1152	-11	10	-7	3576	-3584	15504	9	8	16	-5152	6296	13608	-3	18	-18	-13376	8672	-128	81	-5	8	744	3440	15968	7	-2	12	121	135	12
-7132	-5108	13896	11	-12	-19	-15696	-4680	1152	-2	7	-16	3016	-3944	16168	10	2	14	-5128	6136	13744	-25	21	-34	-14064	9264	-512	-31	13	20	64	3328	16488	9	-3	21	122	135	12
-7812	-5136	14452	16	-19	-15	-16048	-4640	544	30	11	-24	2864	-4136	16480	17	-7	5	-4760	5656	13928	-30	18	-35	-14608	8792	-776	-37	14	18	-72	3560	16432	8	-20	27	121	134	12
-7596	-5360	14224	-2	2	-28	-15400	-4256	472	-13	-2	-3	3376	-4032	16024	31	-3	8	-4720	4680	13744	-19	16	-28	-14552	8824	-640	-30	9	11	344	3520	16112	-5	-31	23	119	139	12
-7100	-4984	13328	-4	16	-29	-14416	-4488	936	-38	-13	-7	3672	-3832	15416	31	10	9	-5384	5096	13680	-16	27	-30	-13792	8312	-528	61	-10	1	680	3056	15928	-10	-19	17	119	141	12
-7340	-5196	13396	7	-6	-14	-15008	-5000	792	-6	8	-15	3424	-3896	16024	16	8	11	-4760	5664	14160	-34	13	-34	-14160	8912	-472	18	8	20	304	3016	16680	-3	-6	15	121	137	12
-7268	-5108	14252	18	-14	-7	-15920	-5200	1168	2	10	-22	3032	-4408	16480	10	1	4	-5064	6360	14392	-29	24	-29	-15072	8872	-192	-26	9	14	-56	3224	16984	-3	-12	12	121	134	12
-7928	-5008	14352	17	-4	-10	-16248	-4752	600	41	10	-18	3200	-4336	16736	18	-9	1	-5160	6072	14560	-7	26	-19	-14848	8784	-760	-15	7	15	368	3168	16896	-7	-25	13	120	135	12
-7344	-4856	14484	-1	-3	-27	-15608	-4328	1032	-23	2	13	3544	-4224	16416	34	-3	10	-5160	5688	14328	10	36	-23	-14392	8816	-584	42	-4	20	344	3032	16576	6	-12	19	120	136	12
-7648	-6076	14112	14	-5	-14	-15480	-4624	1136	-37	-15	-6	3536	-4232	16144	40	10	24	-4712	6208	13704	2	29	-21	-14088	8648	-584	18	-1	34	568	2936	16272	26	2	16	121	136	12
-7444	-4812	14204	13	-4	-16	-15384	-4928	744	-23	-6	11	3312	-4216	15816	42	15	24	-5048	5768	13784	-5	22	-18	-14176	8800	-800	16	0	35	160	3304	16320	37	3	17	123	134	12
-7652	-6088	13544	6	-3	-27	-15304	-5056	952	29	-5	10	3032	-4072	16040	39	10	2	-5496	4592	14552	-13	13	-30	-14448	8656	-992	-26	12	34	-224	3376	16672	31	-13	26	123	132	12
-7220	-5780	14160	49	-27	-9	-15520	-4944	776	18	4	13	3136	-4064	16496	28	5	-18	-4648	5960	14528	-6	7	-23	-14904	8976	-752	20	-10	29	-224	3192	16880	25	-30	17	122	135	12
-7832	-5408	14272	34	-33	-6	-15968	-4496	544	54	-1	13	2944	-3632	16720	31	-10	-30	-5520	5856	14880	-8	4	-25	-14992	8976	-856	-13	-18	43	-216	3424	16904	5	-41	3	121	137	12
-7576	-5300	14524	30	-27	-15	-16232	-4360	1008	0	-14	4	3136	-3912	16800	31	-12	-24	-5256	5272	14440	5	3	-20	-14800	8760	-872	9	-36	29	-40	3432	17128	-5	-42	-3	121	139	12
-7860	-5028	14332	27	-26	-14	-15880	-4336	696	-4	-25	3	3328	-3808	16600	26	-16	-18	-5192	6208	14336	16	6	-11	-14440	8952	-592	34	-36	31	496	3480	16736	0	-30	-8	120	138	12
-7036	-4792	14388	15	-22	-18	-15896	-4560	808	-1	-26	6	3608	-3856	15984	32	-3	-1	-4968	6040	14072	30	13	-12	-14048	8776	-440	58	-37	37	744	3616	16368	24	-15	-4	121	137	12
-7700	-4976	13936	12	-9	-18	-15304	-4472	1296	-6	-17	1	3552	-3640	16096	21	1	10	-4880	6128	13760	4	17	-12	-13896	9136	-400	-2	-8	27	464	3624	16312	37	-7	11	121	135	12
-7424	-5192	14204	13	-21	-24	-15448	-4336	792	5	-4	-6	3328	-3880	16120	15	3	11	-5040	6016	14376	-2	5	-20	-14408	8984	-528	-3	1	21	184	3840	16600	38	-18	28	120	134	12
-7556	-4944	13916	2	-18	-17	-16024	-4656	920	19	-11	-16	2952	-4064	16720	17	-13	9	-5216	5128	14256	-29	17	-30	-14568	8936	-600	-51	4	17	-48	3752	16792	18	-36	32	120	135	12
-7228	-5180	14300	2	-26	-27	-15352	-4616	712	-4	0	-6	3416	-4008	15664	29	-16	6	-4344	5848	13944	-7	7	-22	-14520	8496	-408	44	-6	-6	520	3368	16312	2	-37	30	120	139	12
-7252	-5480	13900	-8	-19	-24	-15232	-4568	1064	-14	-23	-12	3272	-3968	16216	33	-7	8	-4880	5648	13888	-23	8	-18	-14200	8680	-592	9	-16	12	440	3328	16176	-5	-21	24	120	139	12
-7088	-5204	13712	6	-28	-27	-14952	-4736	712	0	-20	-16	3304	-4208	15832	23	-5	6	-5120	6192	14024	-9	11	-12	-14248	8584	-672	15	-12	7	384	3056	16480	10	-18	26	122	136	12
-7260	-4340	13788	9	-28	-18	-15368	-4576	712	16	-11	-9	3208	-4184	15776	18	-10	0	-4912	5224	13552	-15	9	-19	-14040	8648	-424	-18	3	10	312	2936	16376	26	-18	31	123	135	12
-7284	-4656	14120	24	-24	-13	-15368	-4464	896	2	-8	-1	3288	-4280	15928	33	-13	2	-4864	6008	14024	-12	1	-15	-14176	8672	-608	3	3	22	152	2912	16456	36	-19	38	123	135	12
-7316	-5412	14132	21	-32	-23	-15808	-4784	1016	-5	-15	8	3240	-4064	16544	48	-22	12	-5368	6360	14504	-22	-5	-19	-14888	8776	-944	-40	1	43	-16	3064	16832	31	-38	33	121	138	12
-7320	-4980	14132	11	-24	-19	-15888	-4624	952	-4	-23	3	3336	-4192	16216	48	-24	9	-5096	5248	14440	-11	9	-17	-14840	8176	-608	7	-26	38	264	3552	17024	16	-48	11	121	137	12
-7148	-4736	14008	18	-19	-19	-15024	-4648	1448	-26	-25	10	3672	-3984	15840	48	-10	5	-4856	5912	13888	13	13	-10	-14192	8600	-736	58	-36	36	616	3288	16248	9	-31	-7	122	138	12
-7252	-5040	13424	9	-15	-31	-14664	-4592	1216	14	-8	15	3608	-3664	15616	31	7	-3	-5008	5296	13576	20	10	-19	-13752	8688	-752	36	-31	42	448	3552	16104	16	-11	-10	123	134	12
-7172	-5744	13736	40	-32	-18	-14912	-4496	808	25	2	9	3552	-3688	15904	12	10	-12	-4952	6872	13680	10	-3	-5	-14144	9536	-424	9	-24	36	-24	3728	16600	24	-4	-2	125	134	12
-7540	-4608	14256	45	-34	-6	-16368	-4368	680	70	7	2	2760	-3800	16768	14	-2	-24	-5000	6104	14112	-8	1	-19	-14336	9384	-904	-42	-15	54	-368	3912	16672	22	-20	5	123	137	12
-7564	-4436	14516	36	-32	-12	-16240	-4040	712	23	-12	24	3048	-3720	16360	33	-9	-31	-5152	5456	13920	-4	14	-21	-14104	9136	-624	6	-17	32	192	3928	16176	18	-38	12	121	135	12
-7360	-5080	13696	17	-13	-21	-15168	-4088	1064	-26	-18	24	3416	-3296	15784	42	-2	-19	-4896	6504	13424	9	10	-20	-13656	8768	-944	37	-23	19	592	3856	16128	5	-33	13	121	139	12
-7328	-4764	13844	13	-14	-23	-14848	-4032	1080	-15	-9	8	3504	-3208	16072	33	4	-7	-5040	6584	13952	-13	3	-25	-14160	9160	-560	49	-29	27	344	4048	16560	-1	-24	7	121	139	12
-7644	-4852	13992	15	-18	-17	-15656	-4472	1136	30	-8	-15	3080	-3272	16528	12	-4	-3	-5192	5664	14632	-42	2	-30	-14672	9224	-424	2	2	15	200	3992	16952	-2	-26	12	119	137	12
-7708	-5000	14416	7	-20	-22	-16208	-4392	776	31	8	-27	3048	-3440	16208	6	-3	-4	-4992	5720	14496	-27	14	-26	-15064	9128	-632	-6	1	-14	272	3912	17080	-17	-41	18	117	136	12
-7400	-4808	14208	-10	1	-31	-15608	-4032	856	0	-3	-40	3408	-3736	16144	5	-13	15	-5072	5640	14272	-15	25	-29	-14296	8704	-536	14	0	-8	792	3640	16720	-19	-33	20	116	141	12
-7448	-5388	13928	-26	-3	-42	-15248	-4376	1008	-48	-9	-40	3640	-3816	16040	3	-11	45	-4752	5712	13952	-15	21	-29	-14136	8680	-232	24	-2	-13	744	3328	16392	-15	-10	29	118	138	12
-7416	-5416	13828	-18	-6	-27	-15328	-4888	992	-39	-8	-47	3488	-4296	16200	7	-5	51	-5016	6240	13832	-30	24	-28	-14096	8896	-464	0	19	-8	592	3296	16232	-6	-3	41	120	134	12
-7508	-5200	14116	-6	-11	-22	-15552	-5088	1080	1	4	-35	3216	-4712	16104	17	-1	34	-4760	6448	13944	-33	24	-24	-14256	8896	-432	-13	30	-3	216	3112	16160	9	-4	49	121	134	12
-7264	-4416	13960	-5	-5	-24	-15552	-4992	1232	3	1	-30	3424	-4592	15992	32	4	17	-5008	5840	13680	-28	31	-29	-14120	8704	-912	-4	21	-2	104	2856	16488	17	-7	54	122	136	12
-7820	-4960	14188	6	-10	-20	-15400	-4712	456	-5	-5	5	3352	-4424	16384	41	2	4	-5248	5408	14328	-44	9	-32	-14704	8608	-856	2	20	21	-144	2896	17056	21	-17	50	122	136	12
-7616	-5640	14416	22	-19	-14	-15928	-4960	752	-5	0	6	3184	-4336	16704	41	-5	0	-5384	5216	14584	-29	13	-32	-15120	8408	-1032	-11	4	25	-96	2848	17144	10	-23	32	122	136	12
-7708	-5524	14104	17	-9	-12	-15848	-4856	648	12	-2	4	3224	-4248	16304	36	-8	-8	-5248	5056	14360	6	26	-22	-14920	8328	-984	8	-4	31	160	2896	16824	5	-34	3	122	133	12
-7432	-5300	13980	17	-2	-15	-15256	-4648	760	-2	-6	22	3656	-4120	15888	27	2	-7	-5216	5512	14528	5	27	-16	-14128	8192	-984	67	-23	35	568	2952	16728	11	-20	-15	122	137	12
-7488	-4984	13884	9	-5	-17	-15008	-4800	1048	3	-2	15	3424	-4024	16048	23	19	-3	-5040	5752	13680	16	26	-10	-14152	8800	-624	42	-29	50	216	3064	16328	24	0	-20	124	136	12
-7568	-5244	13916	33	-7	-9	-15216	-4592	928	18	0	11	3304	-3984	16104	17	20	-6	-5056	5640	13952	9	20	-13	-14280	8976	-824	2	-17	60	160	3472	16400	34	2	-8	124	138	12
-7084	-5272	14020	30	-11	-13	-15704	-4272	576	17	-3	20	2984	-3928	15952	28	17	-4	-5232	5648	14264	10	16	-19	-14376	8928	-432	1	-13	56	0	3800	16568	27	-10	2	123	134	12
-7660	-5032	13940	26	-12	-5	-15688	-4600	944	6	-5	14	3408	-3936	16280	41	6	-3	-5248	5400	14352	-15	11	-21	-14520	9040	-672	-11	-11	43	0	3800	16880	18	-23	8	122	135	12
-7520	-5596	14240	29	-26	-14	-15720	-4520	784	5	-2	15	3256	-3744	16304	46	-5	-4	-4584	6176	14032	-4	11	-13	-14496	8976	-512	39	-17	30	272	3808	16656	8	-30	12	121	138	12
-7388	-4592	14020	12	-6	-18	-15416	-4216	1336	6	-6	10	3520	-3568	16120	39	-3	-10	-4976	5952	13624	1	25	-24	-13936	8872	-832	23	-29	29	472	3896	16432	1	-22	4	122	138	12
-7516	-4468	13612	14	-5	-18	-15096	-4200	984	1	3	1	3584	-3304	15848	27	13	-4	-5080	5584	13584	1	28	-28	-13688	8784	-616	32	6	18	592	3952	16088	12	-2	8	122	136	12
-7328	-4824	13880	16	-11	-17	-15088	-4312	1056	-9	17	10	3352	-3384	15872	15	10	1	-4600	6232	13608	-10	30	-25	-13864	9112	-584	19	7	15	144	3672	16112	15	0	18	122	135	12
-7724	-5068	14152	16	-5	-18	-15656	-4096	976	25	18	-9	2896	-3448	16504	12	6	5	-4576	6216	13936	-14	15	-25	-14336	9096	-672	-10	12	12	-240	3696	16232	13	-6	27	121	138	12
-6988	-4256	14240	8	-1	-17	-15720	-3976	824	-13	-4	-7	3160	-3672	16120	16	7	6	-5168	5792	14128	-31	24	-33	-13944	8728	-480	6	-1	10	256	3728	16152	7	-15	25	119	137	12
-7560	-4948	13656	-6	-2	-23	-15096	-4144	1232	-16	-10	-11	3328	-3488	15760	18	7	9	-5192	5408	13464	-22	29	-28	-13776	8616	-808	14	2	-7	368	3392	15920	-8	-23	19	119	139	12
-7312	-5176	13580	-7	1	-30	-14800	-4032	856	-25	4	-10	3176	-3504	15816	20	7	12	-4848	5696	13552	-20	19	-29	-13768	8584	-616	48	-3	2	352	3336	15952	-14	-17	15	119	138	12
-7268	-4988	13692	-4	-4	-19	-15160	-4432	1000	2	4	-23	3224	-3784	16008	15	2	16	-5200	5992	14112	-26	17	-28	-13784	8592	-408	43	0	7	88	3360	16240	-11	-12	13	120	141	12
-7664	-4956	14008	8	-9	-14	-15704	-4544	640	22	8	-32	2888	-3880	16216	11	-9	11	-5192	5800	14512	-40	21	-30	-14456	9176	-704	4	16	15	48	3376	16800	0	-25	24	118	136	12
-7724	-4940	14532	-1	-13	-25	-16216	-4648	848	-5	-3	-18	3128	-4200	16664	25	-22	16	-5240	5504	14432	-37	29	-35	-15088	9096	-872	-38	8	10	-24	3360	17064	-7	-37	25	118	136	12
-7784	-5336	14016	-4	-6	-28	-15720	-4680	808	-26	-12	-20	3352	-4120	16296	28	-24	20	-5352	5904	14016	1	24	-27	-14808	8504	-928	0	8	5	328	3448	16760	-6	-37	25	119	138	12
-7448	-5212	14128	-12	1	-33	-15280	-4528	920	-39	-6	-6	3600	-4144	15856	28	-11	24	-4760	5312	14272	-11	17	-31	-14392	8576	-784	46	-10	15	568	3288	17000	1	-17	20	121	136	12
-7440	-5024	13832	8	-7	-19	-15304	-5016	1256	-11	-2	-15	3344	-4376	16136	16	8	20	-5344	6496	13872	-3	36	-22	-14272	8840	-776	14	-4	16	336	3000	16224	9	3	11	122	137	12
-7824	-5612	14084	19	-7	-19	-15624	-4704	664	40	10	1	3248	-4352	16272	18	17	2	-5024	5888	13864	-2	20	-26	-14152	8960	-712	21	4	22	-80	3304	16376	25	-1	16	124	134	12
-7752	-4608	14200	19	-9	-11	-15608	-4376	592	29	1	14	3168	-4152	16088	21	14	-11	-5360	5544	14000	-28	25	-32	-14248	9024	-1008	-8	2	34	-192	3336	16672	28	-5	19	124	133	12
-7812	-5684	13960	23	-10	-16	-15576	-4648	664	-3	4	8	3032	-3784	16272	24	10	-10	-5232	5304	14280	-8	15	-29	-14672	8576	-904	11	5	18	-8	3344	16680	13	-21	16	123	137	12
-7536	-5004	14076	19	-10	-14	-15552	-4632	1152	-17	-4	12	3248	-3968	15912	26	9	-16	-5024	5216	14200	-8	16	-22	-14568	8648	-896	27	-18	28	144	3368	16736	-7	-24	2	121	138	12
-7328	-5200	14004	14	-11	-21	-15344	-4400	696	23	-7	-1	3136	-3856	16272	25	11	-11	-5304	5200	14112	9	14	-30	-14296	8672	-696	39	-29	27	464	3416	16312	-5	-21	-9	121	139	12
-7692	-5020	13772	13	-13	-18	-15408	-4488	872	10	-3	0	3192	-3744	16432	19	3	-10	-5248	5808	14400	-8	10	-24	-14336	9080	-408	22	-13	30	384	3496	16800	6	-21	-3	121	137	12
-7708	-5748	14180	14	-16	-23	-15784	-4528	760	5	1	-8	3256	-3776	16320	16	-2	0	-4832	6304	14408	-12	6	-22	-15096	9088	-696	-5	-3	24	-80	3616	17008	4	-24	11	121	138	12
-7532	-5520	14300	8	-7	-20	-15896	-4488	1016	13	-5	-22	3120	-3864	16296	17	-10	10	-4864	5392	14400	-7	6	-23	-14816	8856	-632	4	-5	7	272	3568	16776	5	-36	19	120	139	12
-7060	-4836	14096	3	-9	-21	-15528	-4392	1080	-25	-20	-15	3584	-4080	16016	20	-2	23	-4832	5856	13592	0	33	-17	-13984	8888	-712	27	-18	1	616	3416	15936	6	-24	25	121	137	12
-7552	-4980	13492	-7	-10	-25	-15040	-4512	848	9	-5	-14	3304	-3800	15952	18	8	25	-5016	5976	13448	2	30	-17	-13488	8608	-640	13	-2	12	680	3368	15704	15	-7	22	123	135	12
-7216	-4856	13844	-1	-14	-17	-15048	-4392	824	-29	7	4	3296	-3984	16016	24	15	22	-4912	6056	13392	-12	14	-22	-13928	8952	-568	4	13	26	288	3368	16240	21	4	27	124	133	12
-7560	-5148	14080	11	-11	-13	-15672	-4456	1176	6	-1	-8	3040	-3888	16080	29	6	7	-5480	6016	14296	-30	14	-30	-14320	9152	-784	-36	16	21	-424	3296	16648	16	-15	31	124	134	12
-7828	-5088	14184	4	-24	-16	-16104	-4560	768	28	-3	-2	2880	-3896	16528	27	-13	-2	-5104	5792	14240	-32	3	-25	-14832	8976	-1104	-19	15	28	-288	3424	16960	9	-48	26	121	132	12
-7624	-5024	14436	4	-28	-21	-16032	-4440	1048	9	-4	4	2960	-3888	16456	38	-26	-3	-4920	5752	14120	-10	15	-24	-14872	8560	-1000	0	-19	22	-24	3400	16760	-6	-60	11	120	138	12
-7612	-4912	13956	3	-10	-24	-15488	-4160	632	16	-11	-3	3552	-3616	16072	30	-23	-3	-5064	5496	13904	7	3	-9	-14320	8536	-696	56	-30	21	-8	3416	16728	-4	-53	4	120	139	12
-7096	-5196	13688	1	-11	-28	-15168	-4344	984	-33	-15	0	3416	-3544	15912	18	-6	9	-4888	5728	13904	15	8	-19	-13848	8648	-184	74	-36	24	328	3520	16320	10	-7	-12	122	137	12
-7280	-5228	13620	8	-14	-20	-14992	-4640	1032	2	-11	-10	2984	-3704	15856	5	11	3	-5208	6328	13408	17	14	-19	-13824	9048	-720	-4	-24	23	224	3520	16208	24	5	4	123	135	12
-7492	-5060	13892	20	-22	-19	-15384	-4368	464	42	-2	-8	2960	-4016	16120	9	16	-8	-4896	6296	13744	-11	-2	-16	-13912	9192	-672	1	-8	20	-80	3808	16344	30	-9	24	122	134	12
-7548	-5128	13900	19	-28	-21	-16144	-4496	528	18	-11	-4	2944	-3928	16376	18	-3	-9	-5408	5728	14256	-40	2	-29	-14472	8944	-736	-30	-3	19	8	3688	16592	18	-31	33	120	135	12
-7848	-5376	14200	6	-19	-29	-15832	-4560	496	-16	-17	-14	3056	-3920	16648	33	-21	-10	-5080	5600	14272	-34	2	-28	-14992	8720	-944	-36	-3	-4	64	3520	16952	-5	-54	34	118	139	12
-7416	-5128	14148	1	-14	-37	-15304	-4472	872	-20	-20	-12	3440	-3792	16280	27	-18	1	-5232	5312	14136	-19	4	-27	-14872	8608	-568	43	-25	0	664	3464	16624	-22	-56	19	119	139	12
-7580	-5636	13848	5	-9	-29	-15344	-4568	856	8	-14	-26	3576	-3832	16024	18	-13	8	-4872	5432	13896	-7	20	-25	-14296	8656	-672	38	-25	6	800	3224	16416	-19	-23	7	121	139	12
-7656	-4724	13924	-2	-14	-29	-15368	-4496	824	13	2	-19	3464	-3792	15968	3	-6	10	-4856	5872	13672	13	25	-15	-13904	8616	-584	45	7	5	744	3136	16352	6	-3	9	123	136	12
-7424	-4772	13992	7	-14	-20	-15320	-4448	872	-11	4	-17	3376	-4168	16248	9	8	15	-4776	6064	13712	-14	20	-24	-13816	8776	-432	-6	14	4	336	3008	16152	22	4	24	123	136	12
-7432	-4932	14048	16	-12	-26	-15480	-4648	912	-19	-7	-16	2984	-4328	15920	27	9	15	-4800	5184	13728	-19	24	-30	-13920	8576	-728	-20	13	18	32	3144	16064	38	3	39	122	136	12
-7208	-4904	13516	-2	-3	-26	-15184	-4640	840	-35	-16	2	3224	-4312	15632	40	14	13	-4960	5520	13512	-17	26	-25	-13792	8200	-808	-26	7	15	128	3000	15968	28	-16	38	121	134	12
-7528	-4680	13464	19	-19	-19	-14736	-4832	696	-3	-1	1	3136	-4240	15432	45	11	6	-4936	5072	13440	-24	13	-24	-14056	8224	-960	18	7	18	208	2928	15992	16	-21	29	122	137	12
-7156	-5948	13516	19	-16	-19	-14640	-4760	600	-2	-3	10	2960	-4096	15608	42	7	6	-5072	5216	14088	-12	5	-26	-14488	8272	-736	22	-10	32	256	2776	16568	5	-21	12	122	141	12
-7412	-5080	13640	27	-18	-4	-15496	-4704	880	20	-12	-1	2944	-4016	16016	33	-1	-14	-5312	5648	14408	-12	17	-23	-14696	8592	-1088	6	-11	42	-40	2984	17144	4	-26	4	122	136	12
-7704	-5384	14148	26	-28	-16	-15824	-4552	632	33	6	7	3144	-4120	16920	34	-16	-12	-5392	5752	14560	0	20	-10	-14944	9024	-856	1	-21	35	8	2896	17104	3	-36	-1	122	135	12
-7696	-5020	14616	19	-17	-16	-16408	-4392	672	20	-1	9	3432	-4304	16968	44	-21	3	-5272	5208	14552	10	17	-14	-15088	8840	-992	-3	-16	54	216	3408	16920	12	-38	-7	121	136	12
-7652	-5068	14272	16	1	-12	-15976	-4416	800	-32	-17	13	3656	-4200	16432	46	-19	15	-5216	5152	14384	38	27	-15	-14288	8728	-688	20	-10	48	640	3392	16656	28	-19	-7	122	136	12
-7428	-5396	14040	20	-10	-20	-15352	-4648	1352	-44	-7	25	3808	-3896	16160	50	5	22	-4824	6608	13960	40	33	-9	-13744	9152	-712	42	-17	55	256	3488	16224	42	3	-3	124	139	12
-7608	-5252	13972	20	-13	-17	-15480	-4816	896	27	9	30	3432	-3928	16376	46	24	9	-5312	6216	13608	8	15	-18	-14192	9272	-1256	-9	-8	67	-152	3752	16608	51	10	13	125	135	12
-7880	-5100	14084	39	-14	-8	-15760	-4688	312	51	9	22	2920	-3936	16456	37	21	-12	-5448	5928	14672	-11	3	-25	-14600	9264	-808	-7	3	56	-432	4200	17280	49	-7	15	124	133	12
-7684	-5328	14660	39	-32	-12	-16536	-4784	472	30	5	23	2752	-3680	17224	28	7	-36	-5224	5728	15176	-26	0	-25	-15192	9872	-1048	-7	-16	34	-872	4168	17384	13	-39	11	121	135	12
-8088	-5548	14768	39	-27	-20	-16368	-4464	552	30	-6	13	2712	-3408	17080	28	-5	-45	-5288	5392	14832	-1	4	-31	-15064	9272	-984	17	-27	20	-136	3936	17256	-11	-55	-1	119	139	12
-7668	-5248	14684	17	-20	-28	-16144	-3992	472	4	-15	7	3168	-3152	16840	17	-9	-41	-5168	5224	14720	8	-3	-24	-14424	9064	-680	57	-50	10	400	3896	16952	-13	-42	-4	119	140	12
-7504	-4900	14088	7	-10	-31	-15848	-4000	904	0	-24	-14	3344	-3312	16528	4	1	-17	-5064	6264	14192	12	17	-17	-14064	8888	-328	33	-37	10	848	3696	16448	2	-7	-5	120	138	12
-7596	-4860	14072	-2	-18	-31	-15384	-4192	776	-21	-14	-22	3656	-3552	16296	-6	9	5	-4888	6856	13856	-5	11	-13	-13904	9160	-320	20	-15	-2	544	3760	16152	13	-7	8	120	136	12
-7744	-4900	14128	-16	-11	-36	-15504	-4168	1160	-6	-11	-30	3288	-3736	16048	-1	2	25	-5088	6080	13936	-28	4	-34	-14144	9080	-624	-25	5	-2	280	3824	16608	17	-17	42	119	136	12
-7428	-4928	14296	-2	-17	-31	-15696	-4440	984	-7	-12	-50	3056	-4056	16128	6	-11	31	-4960	5656	14120	-38	2	-33	-14576	9016	-352	-7	5	-14	88	3728	16992	7	-33	48	119	137	12
-7600	-5316	14052	-17	-13	-35	-15936	-4592	856	6	-18	-44	3096	-4136	16128	18	-24	27	-5128	5440	14224	-46	14	-37	-14608	8728	-808	-22	3	-14	352	3416	16352	-16	-46	42	118	139	12
-7304	-5672	13908	-27	-9	-44	-15128	-4712	672	-20	-6	-29	3352	-4064	15928	29	-22	26	-4856	5504	13912	-36	4	-30	-14336	8328	-808	23	2	-21	440	3240	16616	-26	-40	35	119	134	12
-7288	-5036	13692	-3	-14	-26	-15096	-4768	1128	-34	-13	-39	3552	-4120	15912	12	-12	17	-4904	6224	13872	-32	19	-28	-13920	8632	-760	16	3	-8	568	3016	16392	-16	-19	25	122	137	12
-7572	-4188	13620	8	-12	-15	-15184	-4696	720	18	-2	-25	3312	-4312	15760	8	-3	10	-5560	5256	13680	-31	19	-30	-13752	8696	-560	17	7	3	192	2776	16240	5	-9	30	123	135	12
-7624	-5172	14044	15	-16	-21	-15392	-4480	776	9	9	-3	3056	-4288	16384	15	0	6	-4960	5952	13944	-20	10	-23	-14448	8920	-856	-17	16	14	-128	2824	16624	22	-7	35	124	132	12
-7604	-5016	14120	26	-15	-14	-15768	-4336	520	3	-7	-4	3008	-4240	16224	26	-7	2	-5352	5464	14016	-16	8	-25	-14528	8552	-928	-30	6	31	-312	2984	16592	26	-23	33	123	134	12
-7188	-5104	13996	15	-12	-22	-15360	-4336	832	-22	-15	19	3272	-4096	15928	44	-6	0	-4688	6048	14008	2	12	-12	-14184	8328	-712	37	-13	29	72	3136	16192	26	-31	15	123	137	12
-7256	-5416	13664	15	-16	-22	-15088	-4616	1432	-1	-22	21	3464	-3784	15528	44	9	-4	-5016	5816	13288	-1	13	-12	-13992	8448	-1160	19	-35	39	64	3232	15920	6	-31	-6	122	136	12
-7544	-4676	13536	26	-20	-16	-14584	-4312	592	37	-3	13	3216	-3560	15704	23	17	-13	-4824	5760	14000	9	-8	-6	-13872	8704	-904	57	-34	46	152	3520	16312	16	-22	-13	123	135	12
-7236	-4996	13860	23	-31	-19	-15504	-4360	768	39	-1	8	2888	-3480	16072	14	4	-24	-5224	6232	13856	-5	-1	-16	-14528	8912	-432	-1	-30	41	-232	3696	16664	8	-24	-13	122	136	12
-7724	-5076	13848	19	-24	-20	-15632	-4208	688	36	-10	-11	2848	-3344	16296	11	-15	-27	-5216	5704	14184	7	1	-21	-14472	9056	-872	-9	-23	33	-88	3920	16608	-1	-45	-9	120	139	12
-7512	-4776	14376	12	-25	-27	-15672	-4088	616	-7	-4	2	3160	-3624	16832	17	-18	-11	-5064	5840	14168	-5	1	-15	-14368	9232	-656	7	-24	19	240	3768	16584	-5	-40	4	119	136	12
-7660	-4860	14000	7	-21	-30	-15816	-3968	640	8	-11	-14	3312	-3608	16368	24	-16	4	-5360	5904	14064	-3	15	-28	-13952	8696	-664	18	-22	16	792	3872	16240	-6	-32	6	119	138	12
-7692	-4888	13676	-7	-3	-26	-15416	-4320	728	-37	-14	-15	3504	-3608	16024	20	-10	14	-5328	5976	13672	-22	22	-28	-13928	9008	-536	36	-12	5	672	3984	16304	-6	-26	14	120	136	12
-7608	-5216	13932	-13	-8	-35	-15256	-4504	1000	-16	6	-22	3472	-3624	16280	16	-2	25	-5064	5816	14248	-34	13	-30	-14616	9152	-400	11	8	-2	464	3848	16648	-4	-16	31	121	136	12
-7620	-5156	13888	-7	7	-24	-15816	-4512	976	10	5	-40	3416	-3800	16392	9	-1	24	-5568	5224	14464	-49	29	-40	-14632	9104	-792	-12	16	-11	280	3824	16904	-8	-17	34	119	136	12
-7828	-4984	14076	-12	5	-27	-15776	-4480	488	5	11	-44	3328	-3720	16072	-4	5	24	-5248	5464	13936	-32	35	-34	-14208	8832	-696	19	21	-18	512	3464	16320	-17	-8	37	120	134	12
-7620	-5384	13992	-6	14	-25	-15352	-4472	824	-28	23	-25	3472	-4008	15912	5	15	25	-4800	6072	13800	-26	26	-32	-14048	8704	-728	38	18	-14	392	3184	16096	-21	4	24	120	136	12
-7180	-4932	13780	-8	6	-20	-15480	-4520	920	-19	9	-26	3256	-4248	15976	7	20	25	-4848	5792	13856	-29	30	-36	-13968	8544	-640	14	20	-5	152	3008	16336	-10	11	23	121	136	12
-7332	-4568	14008	6	-4	-18	-15528	-4736	904	-19	12	-15	3096	-4368	15816	9	27	15	-5128	5840	13696	-46	31	-38	-14000	8760	-616	15	16	9	-32	2912	16360	2	6	25	122	135	12
-7732	-5260	13980	2	-2	-19	-15488	-4840	784	12	14	-7	2944	-4080	16072	15	21	5	-5120	5752	14080	-32	26	-29	-14448	8560	-928	-19	19	10	-184	2912	16616	11	-12	29	122	136	12
-7580	-5048	14256	14	-4	-13	-15616	-4576	536	13	12	-2	3424	-4376	16480	22	10	-2	-5192	5824	14264	-21	15	-29	-14656	8576	-784	18	0	21	-160	2976	16696	7	-27	19	121	137	12
-7520	-5060	14220	13	-6	-14	-15848	-4400	840	9	-4	1	3184	-3920	16496	32	-9	-4	-5368	5712	14472	-18	27	-30	-14640	8712	-760	11	-14	32	-104	2984	16824	8	-32	18	120	138	12
-7768	-5348	14256	0	-13	-22	-15920	-4624	648	-1	-4	2	3184	-3928	16496	33	-12	4	-4792	5616	14408	-2	21	-21	-14816	8704	-696	30	-16	29	336	3176	16840	8	-24	-3	120	137	12
-7236	-4960	14136	-6	-10	-19	-15472	-4648	1152	-15	-9	7	3312	-3984	16304	27	-8	6	-5080	5152	13880	18	31	-14	-14304	8512	-640	20	-24	32	384	3408	16328	8	-15	-5	122	135	12
-7584	-5280	13560	3	-9	-18	-14976	-4544	920	14	-1	2	3600	-4048	15856	21	10	8	-5072	5544	14072	16	17	-22	-13688	8824	-656	37	-3	35	528	3488	16264	23	-3	-2	123	134	12
-7300	-5732	13884	12	-18	-19	-15232	-4736	1248	-10	3	6	3240	-3808	16032	16	14	7	-4696	6088	13752	-4	17	-23	-14048	9016	-440	1	-7	26	392	3560	16272	28	1	3	123	138	12
-7660	-5464	13716	23	5	-14	-15344	-4696	768	36	6	-9	3112	-3888	16008	17	9	-3	-5160	5928	13944	-17	14	-27	-14112	8872	-912	-22	5	26	-72	3744	16472	17	-16	20	122	137	12
-7260	-4544	14004	23	-7	-17	-15152	-4312	640	9	6	6	3168	-3976	15840	24	8	-10	-4784	5736	14064	-13	9	-32	-14240	8648	-696	59	-5	13	400	3744	16304	9	-14	18	121	137	12
-7192	-4708	13692	22	-6	-20	-15248	-4352	912	-3	4	6	3288	-3624	15888	27	11	-14	-5408	5552	13536	-15	29	-32	-13856	8416	-752	30	-8	12	528	3344	16000	-8	-9	6	121	139	12
-7700	-5024	13624	26	-6	-12	-14808	-4368	984	7	9	0	3160	-3680	15704	18	21	-12	-4752	5912	13696	-10	20	-24	-13832	8560	-680	50	1	17	480	3264	15944	-3	-4	4	121	138	12
-7260	-5220	13708	6	0	-24	-14936	-4136	960	10	14	9	3264	-3568	15720	15	15	-7	-5392	5600	13960	-27	18	-35	-14192	8616	-616	-3	7	15	208	3440	16216	9	-1	11	121	133	12
-7424	-5324	13476	15	9	-15	-15408	-4416	744	1	6	-20	3088	-3728	16120	7	15	7	-5048	5520	14000	-18	27	-37	-14520	8632	-952	-11	10	7	248	3152	16232	-3	-11	16	119	137	12
-7136	-5132	13924	5	6	-24	-15368	-4392	784	0	4	-23	3112	-3792	16080	10	11	16	-4544	5536	13888	-20	32	-30	-14360	8408	-408	28	5	2	392	3304	16344	-12	-12	12	119	136	12
-7540	-5028	13548	-9	15	-26	-15104	-4328	856	-13	3	-24	3280	-3896	15528	15	8	31	-4936	5752	13648	-16	28	-29	-14024	8424	-520	36	9	-1	704	3144	16232	-15	-10	14	119	137	12
-7320	-5060	13876	-1	1	-19	-15096	-4848	808	-43	4	-24	3416	-4432	16024	22	8	35	-4856	5880	13984	-12	22	-32	-14040	8816	-344	20	10	15	360	3152	16288	-8	-4	16	121	136	12
-7364	-5012	14080	17	-13	-14	-15688	-5016	1160	11	6	-18	3184	-4376	16160	33	5	21	-5040	6008	13896	-18	36	-31	-13992	8816	-656	-8	16	28	16	3160	16120	6	-2	23	122	134	12
-7612	-5200	13940	8	5	-20	-15488	-4592	424	24	11	5	3320	-4384	16104	37	8	11	-5048	6200	14216	-4	22	-20	-14208	8848	-880	5	18	26	64	3080	16424	24	-6	27	123	136	12
-7296	-5332	14036	15	-6	-12	-15248	-4552	1336	-10	8	19	3424	-4200	16032	49	12	3	-5152	5728	14344	-18	20	-36	-14552	8816	-608	8	13	39	-192	3168	16936	21	-9	25	123	134	12
