#Activity	standing 
#ActivityID	8 
#Date 10-07-17-28
acc_rf_x	acc_rf_y	acc_rf_z	gyro_rf_x	gyro_rf_y	gyro_rf_z	acc_rs_x	acc_rs_y	acc_rs_z	gyro_rs_x	gyro_rs_y	gyro_rs_z	acc_rt_x	acc_rt_y	acc_rt_z	gyro_rt_x	gyro_rt_y	gyro_rt_z	acc_lf_x	acc_lf_y	acc_lf_z	gyro_lf_x	gyro_lf_y	gyro_lf_z	acc_ls_x	acc_ls_y	acc_ls_z	gyro_ls_x	gyro_ls_y	gyro_ls_z	acc_lt_x	acc_lt_y	acc_lt_z	gyro_lt_x	gyro_lt_y	gyro_lt_z	EMG_r	EMG_l	act
-11028	-2872	11184	-58	123	-128	-16420	1516	-2668	297	273	184	-15888	1088	-3228	314	-4	199	-10460	2472	12956	104	-36	-187	-15800	-1308	-3360	100	115	-142	-16184	2400	-1084	439	19	44	123	114	8
-11084	-2808	11212	-80	123	-125	-16372	1612	-2856	322	195	189	-15804	1056	-3332	259	41	247	-10420	2544	12920	138	-60	-168	-15788	-1440	-3564	109	158	-191	-16136	2292	-1288	445	30	62	123	114	8
-11100	-2840	11236	-87	146	-108	-16372	1584	-2860	279	120	139	-15868	1080	-3348	287	96	245	-10384	2496	13016	114	26	-195	-15720	-1444	-3632	115	111	-150	-16184	2300	-1368	445	27	86	123	114	8
-11072	-2884	11164	-77	148	-155	-16372	1636	-2792	323	78	116	-15908	1140	-3352	311	125	244	-10400	2500	12992	93	-54	-191	-15760	-1452	-3552	109	60	-119	-16208	2276	-1304	421	83	103	123	114	8
-11004	-2828	11148	-112	127	-151	-16404	1644	-2964	278	7	75	-15884	1180	-3296	341	157	254	-10404	2484	12960	112	-17	-179	-15760	-1468	-3616	112	70	-139	-16116	2332	-1260	347	79	83	123	114	8
-11060	-2828	11140	-104	145	-167	-16388	1624	-2876	277	-55	86	-15812	1088	-3316	407	186	212	-10456	2500	12964	139	-17	-179	-15748	-1372	-3516	11	37	-105	-16168	2376	-1400	289	83	44	123	114	8
-11096	-2816	11196	-99	149	-161	-16416	1592	-2972	210	-137	21	-15864	988	-3276	421	228	241	-10384	2572	13004	90	17	-175	-15792	-1452	-3528	13	67	-134	-16148	2400	-1136	176	90	72	123	114	8
-11040	-2780	11136	-91	151	-144	-16452	1560	-2932	226	-240	-16	-15916	972	-3420	440	215	297	-10384	2492	12956	113	-16	-180	-15796	-1428	-3456	17	48	-113	-16224	2308	-1236	154	127	63	123	114	8
-11148	-2864	11176	-153	180	-126	-16448	1552	-2868	227	-253	-16	-15848	1040	-3432	474	273	306	-10452	2516	13060	121	-34	-161	-15820	-1388	-3500	35	36	-97	-16180	2260	-1220	158	138	58	122	114	8
-11132	-2848	11252	-154	169	-179	-16488	1544	-2856	152	-312	-40	-15840	1064	-3280	504	329	327	-10384	2488	12976	135	-16	-153	-15792	-1444	-3492	5	77	-131	-16200	2260	-1324	180	133	89	123	114	8
-11112	-2804	11008	-135	169	-146	-16432	1504	-2832	174	-376	-82	-15832	1068	-3480	516	278	332	-10396	2536	12980	118	-29	-164	-15820	-1388	-3484	-34	58	-112	-16152	2292	-1256	178	168	72	122	114	8
-11108	-2804	11292	-142	179	-166	-16432	1492	-2840	126	-437	-75	-15900	980	-3336	617	321	377	-10368	2492	12968	124	-5	-183	-15792	-1420	-3424	-13	29	-118	-16164	2316	-1332	176	132	74	123	114	8
-11028	-2844	11212	-139	191	-198	-16432	1456	-2708	5	-466	-79	-15860	920	-3160	568	256	349	-10352	2500	13044	108	-21	-171	-15784	-1500	-3608	-64	17	-125	-16148	2356	-1340	177	145	69	122	114	8
-11088	-2792	11304	-171	193	-195	-16412	1436	-2612	108	-448	-60	-15924	840	-3232	586	301	397	-10372	2492	13016	93	28	-187	-15816	-1368	-3600	-9	40	-98	-16184	2356	-1444	156	155	39	123	114	8
-11072	-2872	11176	-120	182	-147	-16360	1336	-2512	126	-413	-101	-16020	944	-3044	533	197	355	-10380	2484	13060	99	13	-176	-15748	-1368	-3600	-10	40	-79	-16248	2348	-1312	73	180	64	123	114	8
-11128	-2876	11240	-145	169	-144	-16492	1316	-2612	173	-406	-22	-15968	964	-2988	528	269	337	-10388	2500	13008	126	-68	-146	-15804	-1408	-3568	-137	-13	-108	-16240	2396	-1364	22	185	59	123	114	8
-11120	-2852	11212	-130	142	-159	-16392	1320	-2444	195	-315	-45	-15980	976	-3040	387	161	263	-10492	2524	12972	93	2	-174	-15796	-1444	-3480	-68	5	-72	-16196	2292	-1168	-24	192	36	123	114	8
-11116	-2844	11204	-121	149	-143	-16444	1280	-2352	232	-277	-10	-16004	900	-3064	390	186	257	-10424	2540	13044	125	-35	-177	-15808	-1408	-3568	-63	34	-71	-16232	2384	-1300	-39	182	41	123	114	8
-11032	-2900	11172	-107	207	-193	-16400	1284	-2400	243	-204	47	-16036	928	-3060	270	83	191	-10416	2476	13056	111	-41	-154	-15772	-1432	-3540	-106	-3	-78	-16112	2396	-1384	-63	225	45	122	114	8
-11128	-2888	11144	-86	133	-138	-16472	1264	-2308	381	-191	46	-15960	1000	-3028	219	35	161	-10400	2492	12924	86	-82	-191	-15772	-1456	-3556	-73	-15	-111	-16196	2416	-1312	-51	227	24	122	114	8
-11044	-2812	11264	-97	123	-91	-16376	1264	-2344	401	-151	75	-15908	916	-3192	174	26	170	-10460	2516	12884	90	38	-174	-15824	-1480	-3664	-95	-8	-70	-16188	2288	-1440	15	207	-20	123	114	8
-11092	-2856	11152	-67	114	-117	-16404	1412	-2424	340	-85	92	-15948	984	-3256	83	-6	107	-10440	2552	12924	85	-53	-192	-15772	-1516	-3624	-47	-34	-96	-16164	2340	-1392	-4	174	10	123	114	8
-11080	-2876	11140	-89	128	-68	-16380	1380	-2664	207	-9	95	-15976	1080	-3292	-30	-20	86	-10436	2472	13020	112	-21	-187	-15704	-1504	-3556	-4	-41	-75	-16116	2276	-1436	55	188	-27	123	114	8
-11056	-2808	11116	-69	131	-122	-16424	1284	-2440	208	-19	140	-15948	1084	-3372	-17	-69	114	-10412	2492	12940	138	19	-127	-15776	-1428	-3712	16	-37	-69	-16188	2292	-1292	73	191	-5	123	114	8
-10996	-2840	11176	-111	173	-154	-16428	1288	-2612	142	9	83	-15916	940	-3348	-59	-80	94	-10368	2440	12952	123	-26	-149	-15776	-1420	-3564	14	-40	-54	-16244	2292	-1288	63	170	-11	123	114	8
-11088	-2804	11152	-93	153	-137	-16408	1372	-2716	130	24	103	-15892	976	-3296	-79	-96	45	-10404	2520	12928	114	4	-176	-15720	-1400	-3492	18	-57	-45	-16172	2340	-1260	62	159	5	123	114	8
-11136	-2840	11096	-119	168	-137	-16392	1388	-2536	44	-6	88	-15928	1068	-3432	-57	-92	72	-10440	2492	12964	111	-15	-179	-15792	-1500	-3520	58	-45	-82	-16176	2308	-1248	56	166	-12	123	114	8
-11080	-2780	11196	-105	181	-170	-16436	1300	-2512	72	-16	115	-15948	916	-3436	-9	-127	91	-10448	2508	13020	130	-35	-152	-15780	-1428	-3540	39	9	-29	-16224	2288	-1392	97	121	-27	123	114	8
-11104	-2824	11204	-94	163	-118	-16388	1344	-2572	155	-9	89	-15892	896	-3280	-53	-139	118	-10392	2460	13004	105	-43	-142	-15740	-1472	-3480	-9	-13	-78	-16236	2308	-1404	115	91	-32	123	114	8
-11112	-2828	11152	-113	171	-167	-16432	1412	-2508	69	-33	94	-15872	984	-3256	-64	-139	88	-10436	2480	13004	104	-12	-150	-15800	-1424	-3580	31	-31	-84	-16192	2372	-1268	96	81	-36	123	114	8
-11096	-2876	11108	-133	147	-119	-16424	1312	-2640	64	-39	108	-15944	928	-3404	-69	-169	55	-10472	2436	13000	147	-73	-151	-15788	-1400	-3600	-53	-9	-132	-16148	2304	-1400	29	135	-25	123	114	8
-11092	-2740	11064	-86	103	-161	-16436	1316	-2556	6	-26	97	-15924	948	-3312	-91	-144	88	-10424	2496	13000	121	-57	-180	-15792	-1456	-3548	-58	-21	-75	-16204	2372	-1428	26	125	-58	123	114	8
-11060	-2832	11172	-79	164	-170	-16384	1292	-2584	-10	-57	84	-15948	1004	-3252	-149	-202	45	-10420	2448	12968	123	39	-160	-15772	-1448	-3596	-46	-39	-128	-16148	2324	-1468	-16	68	-73	122	114	8
-11132	-2848	11160	-125	118	-155	-16408	1344	-2436	-9	-12	60	-15948	944	-3336	-185	-229	49	-10396	2456	12896	122	-29	-154	-15744	-1472	-3608	-71	-32	-130	-16124	2256	-1460	-19	58	-42	122	114	8
-11104	-2844	11172	-101	158	-132	-16448	1444	-2544	-60	-60	73	-15852	960	-3320	-174	-210	56	-10416	2508	12964	104	-27	-123	-15684	-1444	-3600	-89	-75	-71	-16160	2316	-1540	-26	10	-25	122	114	8
-11116	-2896	11204	-78	147	-155	-16404	1356	-2588	-26	-69	134	-15884	936	-3376	-141	-243	33	-10448	2524	13024	116	19	-184	-15784	-1424	-3736	-78	-54	-116	-16164	2248	-1432	-13	-1	-59	122	114	8
-11064	-2816	11196	-103	136	-151	-16444	1352	-2532	-54	-57	126	-15876	924	-3276	-140	-213	54	-10464	2468	12992	93	22	-188	-15780	-1484	-3696	-57	-89	-75	-16180	2308	-1628	-6	6	-12	122	114	8
-11128	-2908	11176	-108	139	-182	-16404	1352	-2596	-32	-91	104	-15836	936	-3416	-168	-271	97	-10400	2484	12960	125	-16	-126	-15744	-1440	-3644	3	-99	-42	-16172	2236	-1496	120	-41	-1	122	114	8
-11124	-2872	11180	-121	122	-190	-16384	1348	-2640	6	-106	109	-15840	948	-3380	-145	-234	77	-10496	2500	12984	101	-15	-143	-15800	-1436	-3672	-27	-174	-60	-16204	2252	-1632	164	-120	-3	122	114	8
-11076	-2880	11232	-117	132	-153	-16480	1308	-2568	51	-138	107	-15912	884	-3452	-62	-270	50	-10448	2528	12956	108	-65	-159	-15816	-1432	-3564	-73	-163	-57	-16152	2356	-1600	118	-137	-18	122	114	8
-11072	-2824	11156	-124	125	-172	-16464	1288	-2632	73	-182	110	-15816	992	-3456	-46	-294	89	-10460	2484	12968	134	-78	-134	-15756	-1500	-3688	-29	-200	-62	-16204	2352	-1464	141	-127	-8	123	114	8
-11072	-2908	11172	-111	104	-140	-16404	1400	-2640	28	-197	87	-15828	960	-3484	-40	-321	65	-10400	2520	12900	108	-73	-163	-15740	-1444	-3672	6	-233	-34	-16136	2260	-1632	225	-205	25	122	114	8
-11088	-2828	11248	-80	119	-159	-16436	1360	-2616	-9	-249	93	-15856	1104	-3508	-32	-321	49	-10492	2472	12944	98	-67	-163	-15856	-1456	-3616	-1	-301	-42	-16180	2336	-1548	216	-261	31	122	114	8
-11080	-2876	11224	-120	93	-152	-16444	1352	-2612	71	-318	51	-15864	1080	-3432	9	-311	55	-10520	2484	12960	110	-52	-123	-15780	-1548	-3528	-83	-344	-6	-16132	2300	-1516	178	-295	46	122	114	8
-11060	-2832	11164	-104	98	-189	-16424	1448	-2540	89	-369	29	-15864	1008	-3332	96	-336	36	-10364	2468	13004	123	-3	-167	-15720	-1460	-3612	-63	-397	3	-16064	2352	-1516	142	-280	20	122	114	8
-11072	-2804	11176	-134	109	-198	-16540	1428	-2552	68	-391	40	-15924	1040	-3336	140	-279	53	-10448	2540	12988	108	-17	-106	-15900	-1452	-3496	18	-429	0	-16256	2276	-1340	183	-273	47	122	114	8
-11112	-2944	11220	-153	159	-199	-16488	1392	-2592	-4	-408	22	-15980	1020	-3244	136	-283	29	-10432	2528	13004	123	-16	-160	-15788	-1424	-3448	32	-432	-13	-16196	2216	-1272	141	-344	10	122	114	8
-11100	-2840	11224	-95	182	-200	-16372	1428	-2560	-17	-431	35	-15852	980	-3208	172	-321	31	-10440	2504	12928	117	-24	-161	-15784	-1436	-3444	10	-425	40	-16092	2268	-1212	109	-241	-4	122	113	8
-11076	-2820	11228	-160	141	-192	-16468	1364	-2492	-120	-384	-12	-15892	820	-3136	165	-273	25	-10504	2612	12936	109	-56	-141	-15852	-1484	-3444	-11	-409	-11	-16332	2324	-1124	129	-223	3	122	114	8
-11048	-2804	11176	-123	155	-219	-16404	1304	-2416	-99	-380	-11	-15928	760	-2900	214	-247	38	-10460	2500	12892	112	-10	-150	-15816	-1400	-3304	11	-405	6	-16172	2208	-1112	133	-247	-48	122	114	8
-11068	-2852	11216	-150	163	-245	-16420	1276	-2312	-63	-339	26	-15956	792	-3000	320	-217	126	-10400	2512	12856	138	-87	-155	-15716	-1304	-3300	-15	-303	-40	-16128	2184	-1048	145	-224	12	122	114	8
-11088	-2892	11320	-137	148	-223	-16492	1188	-2164	-37	-339	14	-15924	804	-2972	325	-176	188	-10404	2540	12944	121	-56	-134	-15852	-1388	-3304	36	-248	-22	-16228	2160	-964	206	-240	29	122	113	8
-11072	-2828	11088	-110	140	-194	-16488	1196	-2024	32	-300	45	-16128	772	-2708	242	-181	165	-10440	2448	12896	103	-87	-151	-15832	-1388	-3284	65	-232	-36	-16308	2184	-956	282	-243	12	122	114	8
-11124	-2824	11172	-146	105	-189	-16384	1140	-2052	5	-142	83	-16012	700	-2824	158	-253	129	-10400	2508	13016	99	-57	-114	-15820	-1392	-3392	71	-163	-72	-16252	2240	-1092	346	-179	16	122	114	8
-11080	-2876	11144	-143	134	-174	-16440	1204	-2088	7	-158	97	-16104	736	-2864	43	-281	141	-10408	2536	12972	91	-57	-166	-15856	-1436	-3304	62	-122	-71	-16304	2248	-1112	348	-194	-14	122	114	8
-11040	-2904	11316	-91	110	-127	-16500	1144	-2148	62	7	162	-16032	812	-2988	8	-304	106	-10452	2516	12936	79	-64	-152	-15808	-1344	-3380	12	-69	-120	-16300	2324	-1052	314	-175	28	122	114	8
-11044	-2856	11268	-73	102	-177	-16508	1244	-2304	50	34	189	-16016	788	-3040	-36	-317	128	-10452	2568	13024	101	-71	-151	-15816	-1348	-3300	-2	-45	-137	-16256	2304	-932	309	-217	38	122	114	8
-11036	-2828	11188	-102	103	-165	-16440	1284	-2376	0	67	215	-15988	852	-3096	-98	-299	121	-10420	2536	12900	71	-61	-186	-15820	-1408	-3284	7	-29	-140	-16232	2220	-1048	318	-226	76	122	113	8
-11108	-2832	11276	-74	108	-146	-16484	1304	-2412	17	102	220	-15944	908	-3132	-179	-313	140	-10352	2528	13004	82	-58	-149	-15840	-1380	-3312	-14	21	-124	-16160	2312	-1184	298	-204	61	122	113	8
-11088	-2852	11268	-80	111	-140	-16436	1316	-2448	-79	96	215	-15912	908	-3188	-172	-306	121	-10368	2528	13028	85	-53	-132	-15772	-1468	-3444	6	9	-109	-16208	2296	-1172	288	-235	59	122	114	8
-11124	-2864	11140	-91	120	-181	-16516	1280	-2360	-59	77	165	-15892	960	-3248	-139	-285	102	-10368	2444	13100	56	-46	-190	-15784	-1524	-3440	-24	27	-126	-16148	2224	-1332	249	-204	20	122	114	8
-11036	-2844	11204	-111	137	-138	-16512	1364	-2460	49	25	138	-15904	952	-3240	-81	-262	133	-10440	2532	12980	87	-9	-159	-15828	-1404	-3432	-19	-28	-110	-16088	2312	-1308	288	-171	22	123	114	8
-11076	-2864	11196	-113	158	-164	-16436	1392	-2576	21	-25	148	-15892	916	-3260	-15	-242	157	-10408	2440	12968	104	-8	-145	-15780	-1516	-3572	42	-87	-56	-16144	2212	-1304	259	-129	24	123	114	8
-11080	-2844	11184	-120	161	-174	-16372	1364	-2496	-36	-60	147	-15900	996	-3192	85	-255	152	-10424	2392	12960	94	-26	-158	-15768	-1396	-3396	6	-136	-19	-16156	2216	-1264	235	-133	1	123	114	8
-11052	-2836	11176	-138	108	-161	-16508	1284	-2492	11	-101	114	-15928	924	-3104	152	-234	177	-10452	2452	12920	127	-43	-114	-15768	-1416	-3496	39	-161	-21	-16180	2260	-1312	286	-177	-3	123	114	8
-11048	-2896	11220	-149	118	-188	-16452	1312	-2444	20	-98	129	-15988	916	-3152	202	-227	156	-10368	2528	12996	108	-30	-128	-15848	-1404	-3368	43	-201	-86	-16244	2248	-1196	240	-181	20	123	114	8
-11060	-2848	11272	-131	135	-177	-16512	1284	-2412	46	-147	101	-15916	972	-3088	188	-202	159	-10460	2516	13020	82	34	-142	-15840	-1376	-3424	88	-154	-87	-16188	2304	-1120	321	-236	15	123	114	8
-11068	-2864	11200	-136	130	-172	-16508	1348	-2464	19	-35	97	-15968	872	-3024	170	-222	126	-10448	2548	12840	120	-39	-119	-15768	-1416	-3368	139	-181	-83	-16184	2204	-1044	443	-283	10	123	114	8
-11076	-2864	11264	-114	130	-209	-16396	1344	-2308	6	-83	97	-15948	888	-3052	94	-208	175	-10384	2484	12992	86	-35	-139	-15812	-1420	-3352	147	-150	-76	-16152	2304	-1012	485	-315	25	123	114	8
-11048	-2884	11180	-140	121	-205	-16472	1344	-2416	16	-74	86	-15988	892	-3112	98	-223	159	-10396	2536	12940	101	-58	-140	-15848	-1408	-3384	152	-123	-83	-16296	2240	-1080	512	-374	18	123	114	8
-11116	-2852	11236	-143	138	-226	-16496	1320	-2280	20	-97	99	-16008	896	-2960	94	-205	170	-10384	2496	13096	40	-53	-132	-15832	-1388	-3272	138	-156	-68	-16296	2256	-1096	586	-404	21	123	114	8
-11076	-2904	11144	-99	127	-185	-16396	1396	-2252	17	-61	86	-15980	916	-2976	48	-239	178	-10460	2468	13064	96	-85	-151	-15800	-1372	-3356	174	-107	-85	-16256	2260	-1084	631	-381	-7	123	114	8
-11060	-2868	11204	-128	120	-219	-16512	1332	-2284	-97	-79	108	-15940	952	-3028	16	-195	136	-10428	2532	13040	101	-36	-136	-15796	-1384	-3336	174	-81	-123	-16268	2264	-888	693	-423	17	123	114	8
-11040	-2904	11212	-155	116	-224	-16436	1256	-2244	-106	-28	108	-15960	884	-3012	39	-227	159	-10324	2528	12928	137	-47	-124	-15768	-1424	-3256	142	-35	-149	-16252	2272	-972	691	-413	22	123	114	8
-11064	-2872	11172	-148	145	-202	-16508	1292	-2304	-68	-50	119	-15976	804	-3092	107	-220	144	-10408	2524	13024	109	4	-165	-15848	-1408	-3316	223	-69	-122	-16276	2312	-1024	720	-458	40	123	114	8
-11092	-2944	11264	-113	108	-211	-16428	1308	-2208	-102	-44	75	-16016	708	-2916	81	-202	180	-10388	2504	13072	133	-41	-148	-15844	-1516	-3496	200	-71	-122	-16148	2268	-1004	778	-395	36	123	114	8
-11020	-2860	11180	-98	106	-199	-16404	1272	-2252	16	22	71	-15896	852	-2940	204	-272	190	-10428	2480	12972	90	-23	-137	-15852	-1496	-3480	309	-61	-126	-16200	2208	-1120	855	-440	8	123	114	8
-11116	-2852	11180	-99	72	-213	-16416	1232	-2308	109	4	131	-15908	752	-3068	308	-225	256	-10344	2524	12980	95	-10	-158	-15796	-1460	-3612	334	-181	-76	-16188	2132	-1124	922	-472	9	123	114	8
-11084	-2900	11184	-107	112	-172	-16424	1344	-2284	259	-10	123	-15868	876	-3104	306	-284	241	-10428	2424	12984	117	17	-149	-15836	-1580	-3380	321	-193	-67	-16192	2104	-1320	959	-512	55	123	114	8
-10996	-2856	11204	-123	53	-235	-16464	1324	-2500	378	-46	109	-15860	896	-3108	463	-298	222	-10376	2496	13048	119	23	-153	-15820	-1688	-3480	412	-218	-60	-16140	2172	-1260	919	-417	50	123	114	8
-11100	-2812	11208	-68	55	-205	-16456	1268	-2396	491	-72	84	-15916	860	-3192	618	-225	285	-10400	2468	12948	138	71	-89	-15784	-1600	-3508	410	-294	72	-16172	2164	-1348	825	-439	55	123	114	8
-10956	-2776	11156	-108	67	-216	-16584	1312	-2468	467	-175	136	-15876	860	-3280	633	-188	284	-10432	2484	12956	159	77	-89	-15812	-1588	-3412	381	-333	42	-16216	2168	-1168	788	-404	28	123	114	8
-11036	-2872	11184	-104	109	-204	-16468	1424	-2532	245	-227	58	-15920	1016	-3216	659	-108	239	-10424	2520	13088	172	33	-114	-15820	-1536	-3300	417	-374	59	-16208	2232	-996	706	-384	81	122	114	8
-11100	-2904	11212	-98	86	-222	-16476	1312	-2412	107	-216	38	-15860	1008	-3056	600	-138	324	-10432	2532	12976	159	64	-72	-15796	-1492	-3212	479	-354	64	-16212	2288	-832	678	-367	63	122	114	8
-11028	-2872	11160	-137	90	-241	-16464	1304	-2476	175	-226	31	-15952	924	-3004	501	-172	282	-10380	2488	12876	123	34	-107	-15820	-1336	-3244	429	-344	58	-16280	2228	-928	651	-382	72	122	114	8
-11020	-2972	11256	-147	143	-200	-16520	1196	-2280	154	-295	38	-16012	844	-2920	465	-90	272	-10384	2576	13076	137	46	-99	-15872	-1412	-3208	317	-305	15	-16308	2164	-708	647	-391	79	122	113	8
-11036	-2892	11324	-110	135	-187	-16548	1196	-2328	97	-292	57	-15988	884	-3024	447	-114	278	-10416	2476	12884	146	17	-145	-15840	-1356	-3180	312	-277	-13	-16300	2144	-804	750	-452	67	122	114	8
-11120	-2912	11224	-165	156	-216	-16500	1168	-2308	18	-265	64	-16012	820	-2944	329	-78	275	-10412	2516	12892	121	34	-124	-15924	-1404	-3020	383	-278	1	-16184	2232	-700	803	-436	81	122	113	8
-11032	-2924	11208	-102	117	-187	-16472	1208	-2256	-23	-252	75	-15936	908	-3160	288	-135	268	-10368	2560	13008	106	43	-145	-15840	-1444	-3104	360	-199	-29	-16176	2192	-752	926	-433	75	122	113	8
-11096	-2876	11204	-147	130	-165	-16500	1284	-2236	52	-244	34	-15944	912	-2940	280	-137	236	-10372	2488	12992	103	29	-117	-15840	-1508	-3052	306	-185	-49	-16216	2216	-712	933	-470	85	122	113	8
-11068	-2916	11208	-166	110	-170	-16556	1252	-2300	123	-260	78	-16004	1136	-3072	397	-100	271	-10364	2540	12988	130	-18	-137	-15796	-1556	-3168	305	-225	-14	-16280	2192	-824	758	-328	54	122	114	8
-11060	-2828	11208	-110	138	-185	-16488	1344	-2228	60	-259	68	-15892	820	-3012	235	-116	246	-10440	2548	13008	153	31	-110	-15840	-1488	-3184	255	-215	0	-16248	2316	-852	644	-304	63	122	113	8
-11076	-2904	11144	-135	129	-197	-16456	1196	-2268	80	-269	39	-15900	940	-3024	399	-82	291	-10496	2568	12984	114	17	-132	-15860	-1408	-3252	214	-217	-40	-16200	2256	-860	526	-250	66	122	113	8
-11060	-2904	11256	-107	145	-174	-16496	1272	-2204	160	-264	32	-15940	896	-2940	488	-101	287	-10372	2528	12988	99	7	-127	-15824	-1500	-3224	143	-230	-20	-16304	2212	-840	408	-236	70	122	113	8
-11024	-2956	11224	-140	83	-200	-16432	1176	-2112	216	-247	65	-16040	812	-2952	566	-63	294	-10388	2492	12984	125	60	-99	-15844	-1508	-3180	195	-232	8	-16204	2176	-668	342	-159	71	121	113	8
-11016	-2916	11192	-135	102	-193	-16504	1224	-2008	204	-196	70	-16020	824	-2900	546	-131	258	-10404	2548	13036	119	2	-97	-15896	-1420	-3120	159	-225	-39	-16308	2192	-660	349	-197	72	121	113	8
-11064	-2936	11208	-120	130	-196	-16484	1136	-2076	170	-163	91	-16008	876	-2760	492	-84	238	-10456	2508	12996	98	-16	-159	-15888	-1472	-3036	118	-206	-5	-16236	2212	-648	395	-180	27	121	113	8
-11056	-2876	11208	-105	102	-170	-16456	1120	-2128	157	-68	149	-15964	928	-2888	333	-166	241	-10456	2544	12876	93	-5	-156	-15808	-1428	-3168	162	-186	-37	-16272	2208	-628	420	-205	45	122	113	8
-11020	-2892	11236	-120	99	-140	-16524	1220	-2156	178	-16	130	-16080	916	-2900	198	-230	188	-10472	2584	12932	115	-35	-136	-15892	-1340	-3016	172	-171	-41	-16260	2208	-680	471	-253	48	122	113	8
-11064	-2956	11232	-89	83	-159	-16476	1192	-2132	134	40	114	-15972	904	-3036	25	-185	156	-10372	2532	13004	131	-27	-158	-15896	-1360	-2992	84	-170	-79	-16304	2176	-532	451	-250	43	122	114	8
-11028	-2888	11088	-104	59	-146	-16460	1232	-2236	86	36	157	-15960	972	-3056	4	-148	159	-10412	2500	12968	101	-68	-160	-15808	-1444	-3000	63	-105	-109	-16284	2228	-612	426	-191	31	122	114	8
-11060	-2876	11184	-64	124	-171	-16556	1212	-2208	103	-44	146	-15992	876	-2964	5	-182	153	-10376	2516	12916	91	-69	-173	-15940	-1440	-2984	62	-51	-67	-16116	2200	-604	441	-242	76	122	114	8
-11032	-2892	11136	-78	105	-151	-16484	1236	-2244	101	-23	188	-15932	864	-3080	40	-188	159	-10448	2544	12912	83	-72	-147	-15864	-1396	-3192	20	-30	-136	-16308	2160	-608	316	-163	56	122	114	8
-11040	-2896	11160	-117	123	-153	-16592	1240	-2292	58	41	144	-15940	880	-3148	155	-185	171	-10456	2496	13008	70	-33	-156	-15836	-1580	-3032	19	-29	-81	-16200	2224	-708	264	-138	86	122	114	8
-11120	-2896	11204	-132	88	-143	-16492	1252	-2288	40	-21	157	-16028	872	-3080	115	-173	160	-10364	2536	13020	64	-40	-137	-15864	-1492	-3164	5	-29	-61	-16184	2176	-792	227	-59	57	122	114	8
-11048	-2904	11344	-109	128	-156	-16520	1192	-2252	72	-28	197	-16016	944	-3040	142	-155	189	-10436	2572	12960	100	-49	-149	-15856	-1504	-3100	-18	-48	-39	-16212	2152	-836	126	-28	21	122	114	8
-11000	-2860	11304	-122	110	-133	-16512	1180	-2232	22	-36	154	-15964	1024	-2972	100	-160	172	-10368	2548	12844	117	-62	-169	-15904	-1480	-3184	-86	-25	-106	-16300	2184	-632	63	4	46	122	114	8
-11056	-2884	11204	-114	111	-143	-16592	1256	-2144	28	15	153	-16008	1016	-3024	-18	-158	139	-10400	2464	13008	97	-30	-192	-15860	-1492	-3224	-87	-65	-94	-16220	2176	-680	-16	35	73	123	114	8
-11024	-2932	11220	-94	110	-128	-16516	1176	-2200	-15	-42	176	-15940	968	-2956	-75	-136	90	-10420	2568	13044	65	-9	-151	-15848	-1468	-3104	-60	-57	-37	-16248	2208	-552	4	43	61	123	114	8
-11012	-2904	11320	-150	129	-137	-16512	1160	-2212	-23	-22	136	-15976	876	-2944	-155	-182	98	-10392	2504	12964	112	-54	-138	-15792	-1488	-3144	-100	3	-83	-16220	2096	-636	32	34	67	123	114	8
-11020	-2876	11248	-70	129	-128	-16532	1116	-2172	-17	-26	172	-16000	788	-2964	-172	-150	115	-10392	2560	13052	85	-57	-143	-15812	-1468	-3108	-184	-23	-61	-16232	2132	-748	-31	14	76	123	114	8
-10984	-2956	11244	-77	143	-130	-16512	1188	-2228	-12	-56	172	-15960	856	-2936	-159	-152	111	-10416	2528	12892	108	-51	-156	-15816	-1544	-3128	-158	-31	-38	-16208	2116	-716	3	28	79	122	114	8
-11020	-2908	11172	-91	143	-92	-16496	1204	-2324	-77	-10	184	-15932	804	-3016	-199	-174	107	-10412	2548	12944	111	-40	-160	-15824	-1520	-3156	-59	-27	-52	-16148	2132	-760	-10	121	78	123	114	8
-10988	-2912	11208	-95	148	-130	-16488	1240	-2252	-26	-8	229	-15936	952	-2944	-203	-158	104	-10428	2524	12968	110	-39	-155	-15900	-1464	-3096	-83	-3	10	-16240	2208	-708	38	112	71	122	114	8
-11052	-2836	11264	-101	165	-122	-16448	1272	-2172	-85	15	208	-15936	976	-2984	-236	-119	113	-10436	2556	13000	113	-34	-150	-15848	-1488	-3180	-123	6	-32	-16160	2136	-740	-20	124	84	122	114	8
-11092	-2880	11200	-111	156	-136	-16456	1236	-2240	-132	17	221	-15932	944	-2932	-296	-125	101	-10420	2552	13000	111	-9	-160	-15816	-1424	-3232	-103	4	-30	-16232	2204	-736	-55	159	114	123	114	8
-11060	-2860	11236	-101	157	-170	-16472	1268	-2184	-127	21	211	-16020	996	-2932	-314	-98	130	-10364	2544	13008	118	-36	-152	-15868	-1400	-3172	-89	-2	-7	-16256	2196	-620	-103	180	103	122	114	8
-11036	-2872	11192	-93	166	-139	-16420	1232	-2120	-129	18	203	-15992	920	-2856	-284	-94	128	-10404	2560	12936	93	-22	-145	-15840	-1452	-3112	-131	15	-24	-16240	2224	-640	-125	262	63	122	114	8
-11076	-2856	11196	-101	151	-152	-16552	1260	-2020	-53	57	191	-16008	876	-2888	-305	-43	112	-10384	2520	13088	117	8	-159	-15864	-1416	-3116	-136	62	-14	-16296	2240	-616	-175	236	52	122	114	8
-11036	-2924	11108	-116	200	-169	-16492	1228	-2160	-83	61	221	-15948	832	-2908	-338	-50	119	-10416	2540	12996	108	-34	-160	-15844	-1356	-3076	-132	104	-56	-16260	2260	-656	-137	241	75	122	114	8
-10996	-2916	11272	-103	180	-103	-16496	1304	-2168	-88	84	206	-15988	904	-2988	-296	-60	123	-10432	2488	13004	113	-15	-174	-15876	-1448	-3232	-80	121	-84	-16256	2200	-640	-52	242	82	123	114	8
-11032	-2948	11256	-122	171	-143	-16472	1240	-2132	-83	65	225	-15976	928	-2964	-246	-12	147	-10424	2552	12980	99	-5	-155	-15912	-1448	-3188	-91	131	-93	-16256	2204	-624	-42	236	88	122	114	8
-11020	-2852	11204	-81	162	-124	-16524	1256	-2112	-76	122	186	-15916	928	-2992	-200	-18	181	-10372	2576	12964	104	-12	-197	-15804	-1432	-3152	-55	138	-100	-16236	2164	-776	79	267	93	122	114	8
-11020	-2896	11164	-111	136	-129	-16480	1216	-2144	-45	128	185	-15940	960	-2868	-192	-17	186	-10444	2520	12948	65	-17	-189	-15888	-1444	-3200	-37	161	-119	-16260	2204	-668	65	240	67	122	114	8
-11052	-2896	11172	-83	147	-95	-16464	1308	-2084	-28	123	193	-15928	880	-2888	-142	18	169	-10480	2560	12996	102	1	-152	-15816	-1412	-3180	-39	201	-109	-16220	2216	-764	39	264	67	122	114	8
-11080	-2904	11104	-109	174	-116	-16468	1228	-2192	22	120	207	-15960	972	-2976	-150	4	179	-10432	2572	12964	97	-43	-128	-15876	-1392	-3080	-11	211	-149	-16192	2328	-724	28	310	55	122	114	8
-10984	-2920	11200	-87	138	-134	-16396	1340	-2204	-20	166	214	-15996	976	-3064	-152	-23	152	-10404	2544	12936	118	-34	-182	-15856	-1368	-3188	-98	240	-134	-16240	2392	-660	-43	287	38	122	114	8
-11108	-2804	11204	-114	127	-120	-16568	1292	-2252	39	162	191	-16036	1036	-2840	-69	11	224	-10436	2548	13024	98	-38	-191	-15888	-1356	-3168	-130	230	-145	-16212	2352	-812	-67	334	0	122	114	8
-11024	-2888	11280	-75	121	-125	-16496	1272	-2284	99	189	191	-15964	1072	-2956	-120	-31	177	-10464	2552	13000	97	-39	-147	-15896	-1504	-3276	-120	219	-168	-16168	2220	-976	-15	286	-31	122	114	8
-11064	-2868	11208	-102	194	-114	-16516	1264	-2264	219	237	200	-16012	1076	-3104	-285	-105	83	-10464	2588	13052	110	-12	-183	-15892	-1508	-3380	-110	202	-172	-16192	2100	-1168	106	214	1	122	114	8
-11080	-2852	11204	-104	143	-103	-16476	1312	-2272	70	169	211	-15880	1020	-3196	-407	-152	25	-10412	2480	12992	83	27	-174	-15860	-1628	-3364	-17	152	-115	-16216	2112	-1120	177	194	-7	122	114	8
-10980	-2760	11108	-93	198	-122	-16456	1392	-2424	-108	143	200	-15860	900	-3464	-439	-100	-54	-10372	2516	12964	77	57	-148	-15748	-1608	-3460	-34	61	-99	-16120	2120	-1132	194	168	8	123	114	8
-11072	-2868	11248	-120	188	-133	-16500	1384	-2548	-84	100	154	-15824	948	-3384	-434	-63	57	-10412	2516	12932	110	-3	-173	-15852	-1540	-3356	-31	13	-61	-16224	2212	-1232	113	164	37	122	114	8
-11108	-2852	11212	-113	193	-189	-16484	1420	-2552	-64	-12	167	-15772	1008	-3352	-224	-13	157	-10412	2556	12924	121	-15	-170	-15812	-1536	-3256	-85	-42	-41	-16212	2208	-1024	-25	185	70	122	114	8
-11184	-2840	11208	-116	190	-167	-16412	1324	-2472	-42	-92	146	-15780	956	-3412	-162	7	180	-10420	2564	12896	124	-3	-161	-15812	-1628	-3424	-2	-47	-6	-16080	2144	-1040	-157	254	68	122	114	8
-11036	-2900	11208	-112	176	-168	-16480	1348	-2384	-8	-108	89	-15884	856	-3124	12	38	191	-10428	2404	12960	143	-31	-159	-15868	-1472	-3304	-57	-95	71	-16164	2264	-992	-254	356	99	122	114	8
-11040	-2836	11176	-88	113	-157	-16476	1348	-2272	26	-117	103	-16000	836	-2992	125	57	201	-10404	2448	13112	129	16	-120	-15812	-1460	-3188	-168	-119	41	-16224	2204	-976	-315	368	66	122	114	8
-11084	-2888	11252	-117	123	-153	-16460	1264	-2152	67	-64	103	-15996	812	-2932	120	31	196	-10396	2516	12964	145	-20	-128	-15824	-1436	-3108	-150	-101	39	-16248	2232	-728	-416	362	48	122	114	8
-11012	-2868	11232	-72	153	-151	-16532	1224	-2148	159	-16	113	-16124	948	-2816	184	58	207	-10448	2592	13112	91	7	-91	-15788	-1396	-3068	-106	-69	20	-16272	2172	-636	-319	321	103	122	114	8
-11072	-2940	11240	-86	180	-135	-16492	1152	-2076	214	30	175	-16092	852	-2788	84	17	199	-10396	2568	13120	140	9	-127	-15868	-1328	-3116	-51	16	-44	-16348	2144	-684	-134	261	47	122	113	8
-11080	-2940	11020	-141	136	-124	-16492	1228	-2208	190	67	200	-16012	844	-2836	-47	1	133	-10448	2516	12980	145	-20	-184	-15896	-1320	-3152	-84	64	-62	-16328	2220	-688	18	254	31	122	113	8
-11076	-2912	11232	-54	169	-109	-16492	1212	-2280	172	95	183	-16020	920	-2868	-219	-34	142	-10424	2576	12968	118	27	-170	-15824	-1384	-3160	-74	108	-77	-16220	2272	-920	143	208	63	122	114	8
-11004	-2856	11300	-69	154	-107	-16504	1240	-2356	106	143	190	-15976	936	-3072	-231	-5	156	-10424	2536	12972	93	-13	-168	-15876	-1392	-3192	41	169	-96	-16228	2216	-880	162	222	45	122	113	8
-11088	-2888	11220	-95	100	-113	-16472	1384	-2324	146	149	198	-15888	908	-3156	-207	-44	161	-10452	2544	13024	101	-12	-204	-15872	-1396	-3436	-4	179	-100	-16260	2248	-964	172	211	90	122	113	8
-11140	-2860	11184	-68	158	-90	-16496	1328	-2300	156	128	191	-15976	968	-3176	-105	-43	185	-10412	2468	12944	89	-10	-199	-15812	-1472	-3244	-60	172	-138	-16204	2228	-1060	103	236	73	122	113	8
-11104	-2860	11224	-67	163	-146	-16452	1260	-2404	152	109	211	-15940	980	-3208	-17	8	174	-10444	2520	13024	100	8	-211	-15804	-1456	-3328	-105	128	-109	-16128	2240	-1108	58	219	86	122	113	8
-11096	-2916	11212	-81	176	-106	-16536	1360	-2324	136	96	196	-15912	952	-3204	53	-16	220	-10416	2556	12936	115	-33	-175	-15796	-1560	-3388	-72	120	-79	-16188	2280	-1056	-44	250	84	122	113	8
-11048	-2888	11212	-136	144	-108	-16456	1344	-2364	148	118	189	-15956	916	-3208	122	-2	196	-10420	2564	12960	78	-33	-159	-15760	-1468	-3360	-72	92	-77	-16224	2288	-1112	-61	224	88	122	114	8
-11052	-2840	11236	-110	123	-145	-16424	1372	-2484	112	86	217	-15920	1012	-3088	135	-27	198	-10436	2548	12996	115	-21	-160	-15892	-1508	-3416	-115	84	-67	-16188	2264	-1176	-124	251	55	122	114	8
-11124	-2864	11188	-118	132	-161	-16468	1316	-2336	91	71	165	-15900	1012	-3208	73	-28	220	-10464	2604	12984	102	23	-185	-15772	-1428	-3400	-145	44	-80	-16236	2244	-1104	-68	231	46	122	114	8
-11024	-2836	11196	-72	163	-163	-16488	1304	-2348	105	42	174	-15956	920	-3176	63	-20	192	-10364	2552	13104	106	-11	-151	-15832	-1440	-3324	-37	14	-40	-16204	2248	-1040	-24	190	91	122	114	8
-11028	-2908	11280	-83	158	-139	-16480	1312	-2444	119	21	162	-15900	960	-3160	4	-3	181	-10412	2520	12952	101	6	-166	-15840	-1452	-3304	-10	33	-45	-16204	2236	-1044	5	191	88	122	114	8
-11052	-2916	11160	-64	146	-127	-16448	1336	-2384	115	7	187	-15880	928	-3180	0	-36	185	-10412	2584	12964	110	28	-159	-15828	-1452	-3396	-34	41	-34	-16256	2236	-1072	98	142	84	123	114	8
-11080	-2836	11136	-76	79	-130	-16452	1368	-2416	142	31	156	-15940	924	-3056	-10	-24	174	-10344	2584	13008	115	11	-141	-15788	-1416	-3320	4	36	-53	-16244	2260	-1136	106	128	51	122	114	8
-11040	-2900	11228	-98	166	-139	-16476	1288	-2288	106	26	176	-15956	968	-3224	26	-25	171	-10500	2468	12968	122	-30	-163	-15780	-1432	-3316	-25	26	-51	-16208	2340	-1048	136	116	65	122	114	8
-11048	-2856	11240	-72	146	-130	-16460	1348	-2272	82	77	207	-15904	984	-3132	83	-26	196	-10440	2552	13004	89	-63	-162	-15808	-1396	-3388	5	69	-57	-16208	2276	-1136	175	76	96	122	114	8
-11080	-2896	11172	-91	160	-132	-16484	1304	-2376	138	82	162	-15976	916	-3100	90	-45	204	-10452	2496	13008	112	-24	-175	-15804	-1476	-3244	5	61	-81	-16212	2312	-1096	189	40	91	123	114	8
-11100	-2808	11168	-91	145	-140	-16392	1288	-2412	117	54	187	-15912	980	-3148	131	-79	223	-10356	2480	12944	116	29	-161	-15808	-1468	-3396	-15	42	-20	-16212	2336	-1132	133	80	65	122	114	8
-11092	-2780	11188	-133	143	-138	-16448	1312	-2344	98	4	176	-15912	1028	-3192	131	-45	220	-10412	2516	13004	94	8	-184	-15796	-1412	-3424	-22	2	-70	-16184	2284	-1244	180	67	78	122	114	8
-11064	-2872	11196	-101	143	-121	-16472	1360	-2428	109	43	170	-15924	1036	-3152	86	-64	218	-10408	2512	13052	109	-34	-183	-15868	-1440	-3292	3	10	-41	-16176	2264	-1164	182	50	83	122	114	8
-11096	-2856	11204	-55	136	-166	-16476	1344	-2444	99	4	196	-15916	1012	-3160	52	-60	198	-10372	2516	13052	101	-29	-151	-15856	-1400	-3468	40	-4	-61	-16188	2288	-1136	161	44	101	122	114	8
-11032	-2872	11232	-83	118	-143	-16480	1332	-2348	69	13	169	-15916	988	-3240	53	-52	192	-10456	2568	12952	112	-17	-122	-15872	-1424	-3400	17	-18	-25	-16240	2292	-1148	217	28	116	122	114	8
-11080	-2844	11204	-94	117	-153	-16448	1364	-2348	41	11	170	-15936	1012	-3124	8	-91	166	-10336	2540	12932	124	15	-162	-15832	-1400	-3376	8	-21	-52	-16176	2324	-1136	179	60	86	122	114	8
-11072	-2804	11260	-91	161	-149	-16488	1336	-2376	65	-27	154	-15944	948	-3308	-52	-88	197	-10424	2424	13032	100	-22	-200	-15828	-1504	-3336	-43	-2	-84	-16216	2272	-1004	155	33	53	122	114	8
-11092	-2860	11116	-116	138	-168	-16432	1360	-2396	56	-13	162	-15916	972	-3148	15	-108	179	-10456	2520	13044	109	-32	-141	-15860	-1472	-3404	11	-27	-49	-16192	2280	-1108	149	21	89	122	114	8
-11088	-2860	11204	-76	145	-165	-16504	1364	-2408	22	-40	220	-15936	964	-3200	50	-116	148	-10444	2576	12988	119	-42	-181	-15804	-1416	-3364	14	-30	-50	-16236	2260	-1112	147	40	94	122	114	8
-11044	-2836	11168	-126	132	-140	-16420	1316	-2356	67	-41	166	-15868	1000	-3204	115	-107	210	-10384	2556	13072	94	-42	-155	-15788	-1412	-3300	-55	-67	-38	-16180	2340	-1044	128	42	57	122	114	8
-11044	-2860	11152	-80	134	-178	-16424	1344	-2360	119	-21	125	-15932	992	-3104	96	-114	192	-10460	2484	13000	145	-19	-170	-15816	-1452	-3396	6	-36	-27	-16232	2224	-1124	138	-2	72	122	114	8
-11088	-2860	11096	-99	146	-142	-16536	1324	-2376	99	-40	187	-15924	1008	-3212	41	-117	177	-10448	2504	12864	116	-49	-150	-15784	-1452	-3244	44	-41	-42	-16188	2256	-1088	135	0	83	122	114	8
-11064	-2868	11272	-118	130	-142	-16460	1316	-2324	41	-51	153	-15944	932	-3112	14	-136	174	-10436	2456	12952	84	10	-153	-15788	-1404	-3436	-28	-48	-32	-16204	2288	-1040	146	-11	79	122	114	8
-11064	-2884	11312	-84	135	-144	-16488	1324	-2268	68	-20	174	-15916	980	-3104	5	-143	193	-10420	2492	12980	132	-32	-141	-15860	-1388	-3300	-29	-26	-41	-16220	2332	-1168	157	-40	42	122	114	8
-11072	-2800	11212	-50	88	-119	-16496	1364	-2292	80	-15	139	-15884	1040	-3288	-7	-149	169	-10440	2520	12992	94	-33	-154	-15864	-1384	-3436	8	-47	-54	-16184	2320	-1032	128	18	53	122	113	8
-11040	-2856	11160	-76	110	-148	-16476	1392	-2500	88	-20	158	-15888	1068	-3188	-16	-168	176	-10408	2544	12952	76	-28	-142	-15804	-1372	-3348	-22	-9	-70	-16132	2332	-1112	126	-16	50	122	114	8
-11120	-2828	11232	-119	105	-133	-16532	1392	-2432	53	-22	125	-15896	1008	-3204	3	-132	181	-10424	2536	13092	87	-35	-149	-15796	-1484	-3468	-7	-44	-92	-16236	2260	-1112	181	-50	20	122	114	8
-11124	-2884	11120	-86	144	-150	-16408	1336	-2316	26	-35	131	-15912	980	-3248	3	-148	111	-10412	2516	12968	115	-36	-183	-15820	-1400	-3408	-11	-53	-107	-16304	2296	-1108	138	-22	11	122	114	8
-11080	-2856	11228	-102	148	-191	-16460	1328	-2364	53	-21	112	-15956	1004	-3148	3	-149	127	-10452	2464	13088	123	-42	-161	-15868	-1372	-3232	35	-60	-47	-16156	2312	-1152	131	-60	34	122	114	8
-11068	-2832	11192	-100	143	-152	-16412	1360	-2392	56	-78	165	-15920	964	-3204	35	-181	159	-10352	2516	13012	104	-12	-176	-15788	-1388	-3376	-41	-114	-84	-16156	2312	-1080	148	-55	24	122	114	8
-11068	-2864	11200	-81	164	-145	-16472	1312	-2516	24	-34	115	-15904	984	-3204	-3	-188	125	-10412	2588	12980	122	-8	-147	-15820	-1404	-3404	-11	-91	-52	-16200	2296	-1276	163	-69	26	122	114	8
-11108	-2820	11256	-111	115	-162	-16468	1340	-2436	28	-42	145	-15956	1048	-3152	28	-191	161	-10428	2488	13004	100	-20	-182	-15812	-1404	-3388	3	-93	-51	-16228	2332	-1208	174	-90	27	122	114	8
-11052	-2872	11204	-134	117	-145	-16472	1324	-2380	22	-67	164	-15904	1064	-3076	22	-197	130	-10436	2500	12964	121	-59	-135	-15848	-1444	-3336	16	-99	-46	-16220	2256	-1088	189	-92	39	122	114	8
-11016	-2844	11148	-106	119	-185	-16484	1304	-2420	37	-52	94	-15952	1012	-3204	63	-202	165	-10440	2568	13024	88	-27	-151	-15788	-1428	-3492	-41	-105	-102	-16228	2276	-1064	170	-113	28	122	114	8
-11096	-2916	11244	-90	110	-187	-16420	1344	-2356	41	-71	123	-15928	1012	-3020	67	-188	132	-10424	2520	13060	90	-7	-160	-15792	-1496	-3432	-48	-116	-32	-16228	2412	-1016	171	-102	8	122	114	8
-11084	-2872	11256	-124	120	-225	-16464	1340	-2504	70	-88	127	-15976	976	-3164	12	-224	129	-10400	2508	12928	83	19	-141	-15844	-1456	-3356	-35	-85	-23	-16228	2268	-1172	167	-136	31	122	114	8
-11016	-2872	11196	-55	105	-160	-16488	1360	-2380	46	-59	154	-16004	1036	-3148	33	-227	139	-10404	2504	13072	91	3	-144	-15852	-1428	-3440	-24	-111	-41	-16192	2228	-1040	164	-127	14	122	114	8
-11000	-2840	11312	-87	103	-153	-16496	1300	-2296	54	-76	147	-15948	940	-3228	51	-231	124	-10416	2568	12960	136	-1	-162	-15848	-1396	-3248	-29	-120	-34	-16232	2300	-1180	202	-130	11	122	114	8
-10972	-2880	11212	-129	84	-149	-16444	1260	-2312	46	-64	148	-15900	916	-3156	51	-223	109	-10440	2568	12912	131	-34	-193	-15916	-1468	-3432	-32	-103	-68	-16180	2376	-1020	198	-191	50	122	113	8
-11028	-2812	11212	-90	166	-172	-16476	1372	-2404	44	-66	137	-15920	992	-3148	26	-266	127	-10392	2532	12968	96	-39	-166	-15784	-1444	-3452	34	-127	-36	-16152	2260	-1136	217	-191	46	122	114	8
-10968	-2808	11120	-100	102	-148	-16484	1344	-2524	20	-105	121	-15832	1008	-3128	39	-223	150	-10392	2536	13112	101	-18	-164	-15808	-1380	-3424	8	-145	-47	-16160	2304	-1132	206	-139	13	123	114	8
-11016	-2860	11192	-134	126	-161	-16468	1404	-2364	14	-109	116	-15960	976	-3132	-23	-208	160	-10452	2524	12968	110	-10	-178	-15784	-1456	-3300	-26	-179	-42	-16284	2332	-1040	199	-149	27	122	114	8
-11036	-2856	11204	-123	113	-180	-16516	1404	-2288	-22	-129	160	-15888	1016	-3100	73	-224	138	-10400	2536	12928	97	20	-151	-15804	-1448	-3296	-34	-166	-65	-16200	2312	-948	123	-141	10	122	114	8
-11084	-2792	11232	-115	143	-180	-16420	1336	-2344	19	-103	103	-15940	1044	-3036	84	-208	138	-10436	2516	13040	107	-73	-140	-15816	-1424	-3276	34	-192	-24	-16236	2288	-1024	157	-157	30	122	114	8
-11088	-2784	11184	-132	159	-183	-16432	1392	-2344	-42	-120	94	-16004	1028	-3080	99	-217	136	-10412	2588	12928	105	-59	-139	-15876	-1404	-3328	-4	-143	-45	-16208	2216	-1064	206	-154	46	122	114	8
-11100	-2976	11232	-130	136	-193	-16444	1324	-2316	2	-72	136	-15944	912	-3048	80	-219	125	-10356	2516	12964	70	-45	-172	-15800	-1440	-3316	16	-110	-88	-16188	2280	-972	217	-121	40	122	113	8
-11084	-2900	11272	-99	146	-189	-16504	1348	-2440	47	-65	106	-15980	924	-3004	63	-222	131	-10456	2528	12916	126	-76	-173	-15852	-1428	-3260	7	-153	-91	-16244	2280	-916	244	-142	18	122	113	8
-11108	-2840	11228	-136	157	-190	-16456	1356	-2356	6	-79	79	-15948	1016	-2952	47	-223	123	-10404	2464	12936	121	-63	-158	-15860	-1420	-3360	23	-110	-45	-16180	2232	-1016	277	-142	14	122	114	8
-11064	-2856	11220	-122	140	-195	-16492	1340	-2304	25	-70	105	-15900	1012	-3124	34	-230	134	-10424	2584	13004	104	-50	-124	-15848	-1424	-3392	30	-105	-108	-16252	2292	-952	256	-129	-7	122	113	8
-11072	-2820	11208	-132	148	-172	-16420	1312	-2404	31	-46	67	-15980	1032	-3080	19	-201	77	-10420	2500	13020	78	-19	-131	-15784	-1492	-3380	36	-85	-85	-16216	2288	-1044	284	-150	-22	122	113	8
-11084	-2844	11220	-107	145	-183	-16448	1308	-2336	65	-74	93	-15952	904	-3016	-2	-251	100	-10404	2552	12992	138	-18	-149	-15796	-1480	-3380	39	-109	-52	-16196	2212	-984	264	-121	-11	122	113	8
-11040	-2856	11180	-101	144	-198	-16452	1288	-2248	99	-97	105	-15904	944	-3088	28	-228	100	-10412	2536	12984	117	-25	-158	-15804	-1440	-3296	-12	-122	-90	-16196	2272	-1152	209	-105	-13	122	114	8
-11076	-2856	11156	-123	125	-182	-16456	1316	-2392	76	-96	125	-15880	912	-2984	105	-246	77	-10452	2532	12972	115	-57	-153	-15816	-1460	-3360	-30	-153	-94	-16256	2288	-1016	161	-89	2	122	114	8
-11036	-2872	11252	-99	146	-169	-16408	1304	-2268	114	-93	83	-16008	928	-2952	49	-251	76	-10428	2532	12924	69	-16	-139	-15904	-1472	-3248	-4	-151	-70	-16208	2272	-1052	158	-139	-7	122	114	8
-11040	-2908	11168	-119	127	-183	-16448	1368	-2288	69	-45	74	-15952	980	-3040	61	-227	83	-10400	2516	13056	102	-58	-137	-15828	-1412	-3284	-38	-154	-115	-16168	2240	-1028	107	-129	13	122	113	8
-11060	-2908	11232	-155	147	-150	-16440	1296	-2268	130	-96	88	-15968	936	-2996	78	-255	102	-10460	2516	12976	91	-20	-165	-15956	-1356	-3344	-42	-142	-95	-16204	2288	-988	83	-120	-24	122	114	8
-11104	-2928	11200	-134	119	-202	-16476	1320	-2316	109	-74	102	-15904	924	-2984	95	-229	62	-10388	2548	13072	116	-43	-183	-15864	-1408	-3312	-73	-203	-64	-16280	2236	-992	131	-160	-52	122	114	8
-11044	-2848	11092	-96	110	-177	-16460	1352	-2244	73	-49	78	-15988	932	-3016	87	-196	109	-10400	2548	13044	83	-55	-169	-15840	-1424	-3344	-10	-138	-99	-16188	2248	-1044	182	-118	-22	122	114	8
-11048	-2888	11092	-128	112	-173	-16436	1376	-2320	71	-81	83	-15940	964	-3036	48	-240	80	-10408	2588	12912	104	-85	-155	-15924	-1388	-3260	25	-132	-119	-16224	2276	-956	225	-148	-25	122	114	8
-11008	-2912	11176	-120	125	-180	-16504	1264	-2228	94	-58	81	-15984	948	-2984	103	-246	91	-10448	2532	12956	55	-61	-163	-15848	-1448	-3120	24	-143	-69	-16232	2244	-880	273	-178	-5	122	114	8
-11120	-2880	11296	-145	130	-197	-16488	1328	-2180	84	-88	79	-15956	920	-3072	107	-222	48	-10332	2552	12928	90	-44	-148	-15824	-1360	-3140	62	-127	-141	-16340	2268	-828	251	-195	-33	122	114	8
-11052	-2808	11208	-93	114	-188	-16468	1332	-2312	98	-97	62	-15944	996	-2980	109	-201	75	-10404	2592	12984	103	-40	-161	-15768	-1368	-3176	2	-69	-139	-16284	2228	-804	259	-246	-16	122	114	8
-11036	-2864	11164	-77	92	-232	-16452	1348	-2236	125	-74	57	-16008	876	-3036	158	-209	82	-10368	2592	12984	100	-42	-143	-15876	-1500	-3084	20	-69	-149	-16220	2184	-860	301	-239	-17	122	114	8
-11072	-2892	11252	-111	100	-195	-16476	1344	-2160	128	-39	88	-15956	896	-3016	140	-228	132	-10400	2536	12996	67	-27	-159	-15868	-1432	-3272	4	-40	-180	-16260	2252	-924	312	-241	8	122	114	8
-11076	-2880	11132	-121	97	-174	-16372	1340	-2300	144	-42	30	-15932	940	-2988	190	-234	152	-10408	2504	13008	87	-11	-164	-15828	-1492	-3328	-24	-26	-183	-16236	2144	-820	363	-287	-38	122	113	8
-11080	-2864	11092	-116	80	-259	-16456	1272	-2276	197	-47	30	-15928	932	-2996	184	-270	163	-10420	2548	13032	93	-69	-160	-15856	-1472	-3368	4	-27	-170	-16240	2080	-880	458	-301	-35	122	114	8
-11020	-2872	11204	-145	65	-223	-16468	1288	-2212	178	-58	35	-15884	872	-2976	233	-240	123	-10444	2488	13020	87	-32	-162	-15832	-1552	-3256	128	-21	-122	-16208	2096	-900	492	-283	17	122	113	8
-11092	-2916	11240	-85	66	-232	-16428	1260	-2256	214	-14	57	-15944	760	-3008	347	-266	174	-10468	2484	12952	72	-34	-163	-15832	-1468	-3240	125	-79	-122	-16248	2220	-1016	500	-311	50	122	114	8
-11044	-2904	11176	-126	85	-214	-16488	1228	-2280	285	-16	66	-16028	772	-2920	350	-248	154	-10356	2468	13176	61	-21	-154	-15784	-1484	-3284	92	-88	-108	-16232	2248	-980	490	-257	21	122	114	8
-11100	-2864	11256	-130	54	-180	-16444	1248	-2240	242	-7	70	-16004	828	-2916	307	-303	120	-10416	2560	12988	113	-28	-147	-15808	-1520	-3400	72	-102	-102	-16224	2256	-868	410	-260	8	122	113	8
-11044	-2848	11204	-133	81	-176	-16508	1296	-2320	170	22	95	-15972	868	-2860	273	-276	155	-10440	2548	12896	89	13	-181	-15840	-1496	-3360	88	-133	-104	-16188	2136	-968	355	-251	-25	122	114	8
-10980	-2900	11140	-89	58	-185	-16496	1180	-2356	168	-24	83	-16004	916	-2960	171	-302	102	-10352	2508	13072	131	-44	-103	-15868	-1428	-3236	58	-146	-90	-16216	2256	-984	282	-254	-15	122	113	8
-11048	-2904	11200	-90	87	-144	-16512	1120	-2372	241	-34	134	-15976	880	-3108	148	-295	139	-10348	2452	13044	135	2	-160	-15868	-1488	-3216	36	-152	-69	-16240	2220	-880	268	-238	-12	122	114	8
-11024	-2860	11164	-79	106	-175	-16436	1292	-2436	128	-63	134	-15892	868	-3100	143	-254	122	-10424	2552	12964	111	-63	-103	-15848	-1440	-3364	79	-165	-63	-16172	2164	-936	297	-228	31	122	114	8
-11028	-2880	11164	-96	123	-198	-16424	1280	-2372	50	-125	131	-15952	892	-3108	50	-266	77	-10408	2528	12916	118	-7	-159	-15856	-1484	-3288	94	-205	-46	-16212	2152	-852	339	-222	37	122	114	8
-10972	-2900	11136	-139	104	-171	-16552	1284	-2280	47	-93	131	-15968	1036	-3056	157	-259	155	-10408	2512	13036	93	-26	-150	-15796	-1468	-3212	83	-197	-41	-16216	2192	-860	373	-264	3	122	114	8
-11024	-2888	11284	-101	102	-204	-16436	1300	-2296	50	-137	125	-15912	880	-2964	163	-308	79	-10376	2508	13096	111	-28	-138	-15800	-1564	-3276	101	-203	7	-16180	2204	-828	358	-224	8	122	114	8
-11080	-2916	11236	-93	105	-181	-16496	1248	-2376	55	-132	88	-15988	776	-2916	156	-254	98	-10428	2544	12948	99	-68	-100	-15852	-1468	-3160	46	-171	-37	-16232	2280	-688	277	-224	-12	122	114	8
-11128	-2852	11176	-125	103	-145	-16460	1308	-2340	54	-148	51	-15924	840	-2908	124	-258	94	-10408	2536	13060	120	-61	-128	-15908	-1432	-3220	47	-183	-69	-16256	2344	-612	212	-228	-1	122	114	8
-11076	-2916	11232	-114	115	-227	-16480	1216	-2192	-17	-135	106	-16024	956	-2888	77	-249	76	-10348	2576	12900	111	-40	-155	-15792	-1420	-3084	54	-170	-82	-16348	2172	-628	214	-175	17	122	114	8
-11072	-2916	11252	-118	151	-189	-16460	1260	-2140	-42	-143	92	-15972	944	-2788	-13	-240	100	-10444	2536	12920	131	-80	-108	-15884	-1472	-3084	39	-81	-90	-16316	2200	-668	197	-228	3	122	114	8
-11000	-2952	11288	-108	131	-176	-16436	1292	-2172	-40	-122	53	-15948	900	-2824	-89	-223	64	-10400	2492	12972	98	-38	-152	-15884	-1416	-3168	-7	-55	-130	-16296	2136	-552	241	-251	47	122	114	8
-11032	-2856	11100	-149	116	-209	-16520	1276	-2220	-27	-128	90	-15976	880	-2848	-105	-253	102	-10364	2560	13020	103	-44	-143	-15916	-1524	-3300	13	-53	-117	-16216	2244	-676	335	-264	68	122	114	8
-11032	-2940	11232	-139	137	-196	-16492	1204	-2272	-1	-94	125	-16008	832	-2804	-43	-207	126	-10384	2492	13080	93	-94	-163	-15860	-1532	-3196	61	-41	-110	-16228	2164	-748	372	-197	7	122	114	8
-11020	-2856	11212	-139	135	-215	-16464	1184	-2148	36	-85	91	-16028	832	-2868	-16	-220	152	-10432	2608	13068	97	-28	-151	-15872	-1496	-3228	130	-9	-85	-16272	2144	-784	414	-163	39	122	114	8
-10992	-2904	11228	-103	146	-164	-16472	1248	-2192	14	-76	114	-15940	804	-2808	-24	-227	136	-10356	2548	12988	79	-51	-168	-15856	-1516	-3204	42	-89	-91	-16224	2180	-860	338	-149	51	122	114	8
-11048	-2964	11192	-132	141	-195	-16448	1236	-2156	29	-108	115	-16016	880	-2900	38	-234	178	-10324	2500	13024	104	-31	-136	-15812	-1516	-3212	21	-113	-48	-16148	2164	-944	271	-132	35	122	114	8
-11056	-2920	11168	-125	130	-182	-16416	1248	-2136	68	-102	103	-15980	872	-2876	41	-206	143	-10400	2488	12924	125	-14	-167	-15804	-1536	-3236	55	-127	-59	-16168	2188	-780	259	-131	27	122	114	8
-11028	-2920	11276	-158	110	-176	-16456	1296	-2248	99	-88	136	-15976	860	-2832	41	-193	140	-10380	2536	13040	124	-75	-140	-15820	-1516	-3208	64	-156	-14	-16208	2184	-704	148	-109	27	122	113	8
-11044	-2872	11192	-140	135	-161	-16456	1248	-2260	80	-49	129	-16004	884	-2860	57	-215	151	-10416	2540	13004	129	-22	-132	-15892	-1504	-3192	-19	-138	-13	-16248	2184	-708	106	-100	35	122	114	8
-11040	-2848	11128	-125	127	-165	-16472	1156	-2308	102	-60	116	-15992	780	-2888	51	-203	150	-10420	2560	12980	116	-42	-157	-15804	-1480	-3248	-32	-123	-39	-16268	2148	-720	66	-99	44	122	114	8
-11044	-2920	11196	-129	130	-193	-16504	1136	-2232	124	-24	152	-15960	784	-2876	58	-225	159	-10412	2476	12992	109	0	-160	-15876	-1440	-3172	23	-148	-4	-16264	2164	-744	113	-65	34	122	113	8
-11048	-2952	11208	-77	101	-170	-16488	1204	-2096	63	-47	150	-16076	808	-2912	98	-261	144	-10352	2540	13012	122	-33	-156	-15812	-1432	-3204	46	-139	12	-16268	2148	-664	160	-130	53	122	113	8
-11008	-2956	11332	-116	85	-154	-16464	1192	-2312	37	-16	203	-15972	860	-2796	87	-255	145	-10432	2464	13028	90	-33	-163	-15836	-1428	-3136	19	-125	-38	-16252	2152	-584	190	-108	17	122	113	8
-11056	-2872	11168	-64	107	-152	-16496	1156	-2216	88	-22	173	-16028	908	-2832	88	-244	168	-10436	2552	12944	72	-28	-123	-15872	-1424	-3300	3	-91	-40	-16252	2152	-588	197	-105	17	122	113	8
-11004	-2884	11204	-75	140	-124	-16488	1280	-2436	9	1	185	-16020	856	-2764	103	-305	109	-10336	2564	13048	100	-10	-169	-15816	-1388	-3116	14	-79	-99	-16272	2200	-532	214	-130	80	122	114	8
-11096	-2924	11240	-99	102	-97	-16464	1320	-2184	228	46	156	-16032	916	-2880	4	-280	104	-10328	2544	12972	102	-53	-148	-15856	-1424	-3120	-8	-72	-112	-16304	2200	-588	153	-188	107	122	114	8
-10988	-2884	11188	-61	107	-149	-16476	1232	-2304	236	29	197	-15972	984	-2768	-34	-228	108	-10396	2496	13128	94	-75	-146	-15816	-1472	-3084	12	-27	-125	-16316	2148	-512	206	-189	70	122	114	8
-11056	-2864	11208	-78	108	-177	-16504	1236	-2148	94	92	192	-15972	1040	-2892	-138	-325	93	-10476	2524	12908	77	-34	-172	-15864	-1392	-3128	35	-2	-107	-16256	2192	-516	197	-227	68	122	114	8
-11060	-2852	11196	-79	99	-136	-16504	1256	-2144	88	24	185	-15976	996	-2880	-129	-269	93	-10444	2540	13004	110	-53	-139	-15788	-1540	-3172	11	23	-145	-16252	2156	-584	227	-282	71	122	114	8
-11016	-2880	11236	-101	145	-165	-16488	1328	-2368	4	3	167	-16000	1016	-2944	-94	-234	98	-10360	2464	13052	83	-72	-177	-15844	-1460	-3144	-33	23	-146	-16224	2224	-564	215	-303	66	122	114	8
-10996	-2896	11284	-98	120	-173	-16512	1292	-2360	41	-31	149	-15936	868	-2916	-48	-242	118	-10392	2544	13092	118	-67	-157	-15796	-1440	-3212	-73	93	-140	-16248	2212	-612	284	-227	47	122	114	8
-11044	-2884	11224	-106	139	-159	-16492	1332	-2280	14	-56	128	-16000	908	-2956	-75	-249	146	-10376	2480	13076	102	-100	-158	-15848	-1368	-3208	78	96	-207	-16276	2092	-628	430	-248	37	122	114	8
-11048	-2928	11256	-93	140	-171	-16472	1284	-2272	9	-62	127	-15932	912	-2844	-24	-212	127	-10396	2552	12940	62	-37	-153	-15900	-1472	-3236	27	68	-162	-16300	2164	-640	355	-244	7	122	114	8
-11056	-2872	11128	-136	144	-183	-16440	1356	-2276	-38	-79	130	-16056	912	-2796	-30	-245	138	-10392	2552	13072	104	-75	-155	-15892	-1500	-3248	59	80	-179	-16300	2240	-684	332	-200	67	122	114	8
-11052	-2832	11288	-140	163	-150	-16428	1264	-2312	-25	-56	125	-15988	892	-2712	-2	-179	125	-10384	2524	13060	91	-41	-128	-15764	-1440	-3228	7	110	-121	-16264	2196	-696	274	-153	53	122	114	8
-11060	-2928	11228	-134	168	-153	-16528	1328	-2296	21	-76	108	-16020	952	-2888	-21	-190	155	-10360	2504	13060	97	-22	-164	-15816	-1512	-3300	-64	77	-154	-16160	2268	-692	304	-168	67	122	114	8
-11036	-2908	11156	-141	170	-187	-16444	1328	-2332	-32	-47	93	-16040	900	-2692	-35	-156	111	-10344	2552	13040	106	-11	-178	-15852	-1580	-3232	-4	23	-114	-16168	2148	-696	172	-96	3	122	113	8
-10992	-2868	11328	-137	177	-172	-16456	1196	-2208	-3	-87	126	-15980	896	-2640	-37	-146	106	-10368	2512	12948	86	4	-153	-15844	-1600	-3284	-11	18	-102	-16228	2208	-780	133	-37	38	122	114	8
-11028	-2848	11140	-127	141	-158	-16448	1196	-2244	34	-61	133	-16008	760	-2800	-20	-138	121	-10384	2560	12896	81	-35	-146	-15828	-1572	-3464	-21	-27	-80	-16228	2212	-668	125	24	28	122	113	8
-11036	-2876	11200	-124	153	-161	-16472	1224	-2160	57	-54	115	-15968	776	-2780	-7	-125	124	-10384	2568	12904	106	-47	-135	-15948	-1532	-3296	30	-62	-70	-16284	2176	-748	94	17	21	122	114	8
-11092	-2968	11248	-72	150	-157	-16412	1224	-2204	22	-39	137	-16020	864	-2744	22	-119	151	-10380	2496	13100	102	18	-154	-15852	-1512	-3296	0	-67	-59	-16236	2148	-536	115	33	54	122	114	8
-11016	-2896	11164	-138	150	-151	-16500	1216	-2292	77	-53	118	-16016	900	-2784	38	-114	176	-10404	2500	13024	115	-3	-163	-15860	-1452	-3176	-4	-111	-20	-16260	2164	-680	133	36	31	122	114	8
-11032	-2948	11196	-123	110	-141	-16540	1156	-2216	107	-25	154	-16020	808	-2736	50	-116	186	-10336	2516	12972	121	22	-168	-15860	-1452	-3104	-18	-47	-45	-16244	2108	-524	200	15	58	122	114	8
-11040	-2916	11132	-95	143	-155	-16528	1320	-2164	131	-36	126	-16000	828	-2796	68	-106	120	-10448	2560	12952	121	-48	-154	-15868	-1536	-3156	16	-61	-13	-16272	2096	-584	213	10	47	122	114	8
-11056	-2860	11196	-104	122	-171	-16440	1236	-2272	115	-26	105	-15992	812	-2920	88	-89	155	-10432	2480	12992	101	-6	-161	-15828	-1524	-3264	36	-41	-43	-16244	2156	-576	214	5	47	122	114	8
-11056	-2924	11244	-114	101	-155	-16504	1228	-2304	112	-11	161	-15968	856	-2816	93	-129	200	-10344	2584	12956	100	-4	-137	-15808	-1524	-3284	60	-17	-65	-16264	2132	-656	247	28	46	122	114	8
-11048	-2932	11212	-116	135	-146	-16440	1276	-2160	100	5	148	-16020	848	-2792	88	-110	177	-10376	2552	13076	145	26	-187	-15880	-1524	-3284	14	-48	-80	-16260	2160	-460	288	15	64	122	113	8
-11028	-2884	11208	-120	141	-161	-16488	1284	-2224	96	-23	153	-15984	928	-2820	106	-90	184	-10364	2512	13012	111	-7	-153	-15844	-1520	-3164	81	-52	-86	-16260	2168	-652	261	15	58	122	114	8
-11040	-2920	11272	-115	150	-148	-16476	1216	-2192	89	-27	166	-15972	900	-2724	131	-80	168	-10392	2500	12948	98	29	-173	-15932	-1500	-3256	59	-2	-75	-16260	2140	-544	231	-17	51	122	113	8
-11004	-2888	11296	-105	132	-179	-16440	1252	-2136	97	23	146	-15976	844	-2744	103	-98	149	-10376	2604	13016	106	-17	-147	-15808	-1492	-3200	31	-35	-53	-16192	2248	-524	180	34	57	122	114	8
-10980	-2876	11292	-86	93	-131	-16428	1212	-2144	81	33	153	-16036	804	-2696	59	-108	148	-10320	2516	13024	92	-17	-159	-15876	-1488	-3228	-51	-17	-82	-16304	2220	-420	188	33	15	122	113	8
-11008	-2940	11268	-57	123	-151	-16572	1260	-2228	132	-7	142	-15984	860	-2868	59	-106	150	-10336	2576	12988	114	-6	-138	-15884	-1460	-3220	2	3	-84	-16240	2172	-544	129	42	34	122	114	8
-10964	-2888	11236	-77	118	-207	-16472	1276	-2216	104	27	134	-15976	864	-2808	63	-71	170	-10400	2476	13048	121	-65	-157	-15852	-1576	-3236	-21	10	-115	-16252	2136	-448	147	49	67	122	114	8
-11100	-2904	11300	-110	137	-180	-16484	1212	-2216	94	14	167	-15976	896	-2904	43	-89	147	-10428	2544	13004	97	-41	-147	-15872	-1448	-3216	13	27	-87	-16252	2152	-648	147	49	49	122	114	8
-11056	-2916	11244	-98	126	-172	-16416	1252	-2296	113	-37	119	-15992	852	-2928	-12	-94	130	-10376	2504	13056	90	-46	-158	-15848	-1584	-3288	-14	36	-115	-16176	2080	-516	230	45	43	122	114	8
-11008	-2944	11252	-141	140	-167	-16496	1268	-2332	43	11	126	-15972	896	-2832	-34	-78	169	-10372	2500	13056	107	-33	-160	-15860	-1524	-3144	-44	-8	-71	-16228	2152	-676	206	55	45	122	114	8
-10996	-2920	11124	-115	132	-160	-16516	1264	-2396	12	-14	121	-15976	868	-2760	-10	-95	164	-10404	2488	13128	124	-38	-182	-15824	-1540	-3320	-34	5	-90	-16204	2232	-592	219	86	1	122	114	8
-11024	-2916	11264	-114	148	-181	-16476	1204	-2224	7	-5	132	-15968	808	-2832	2	-63	184	-10396	2496	12932	83	8	-171	-15848	-1540	-3284	52	-6	-45	-16228	2196	-648	156	91	22	122	114	8
-11012	-2884	11248	-115	150	-144	-16488	1272	-2236	66	-51	127	-16040	852	-2780	-35	-25	171	-10344	2516	13012	124	-5	-160	-15820	-1532	-3192	-97	-20	-70	-16248	2224	-668	102	62	33	122	114	8
-11012	-2868	11184	-97	133	-149	-16488	1228	-2224	53	-7	133	-16028	872	-2732	-1	-81	137	-10332	2560	13108	120	-22	-175	-15880	-1576	-3248	-80	-19	-75	-16280	2092	-580	79	64	17	122	114	8
-11088	-2936	11148	-133	144	-140	-16516	1176	-2336	19	-21	129	-16024	832	-2768	-1	-68	117	-10332	2540	12988	149	-56	-172	-15824	-1504	-3352	16	7	-90	-16268	2156	-620	115	72	66	122	114	8
-11044	-2932	11168	-97	117	-148	-16524	1208	-2224	95	-8	136	-16040	792	-2828	45	-44	173	-10436	2532	13008	113	-2	-160	-15880	-1544	-3184	12	15	-86	-16252	2124	-652	169	90	76	122	114	8
-10984	-2896	11208	-88	149	-142	-16552	1240	-2200	65	-43	162	-16004	844	-2840	56	-60	167	-10364	2512	13052	95	2	-173	-15816	-1556	-3252	34	23	-16	-16176	2176	-612	208	72	68	122	114	8
-11076	-2900	11232	-118	146	-141	-16452	1200	-2280	31	24	149	-15964	780	-2896	68	-54	177	-10432	2472	12980	105	-33	-171	-15868	-1516	-3320	55	-19	-41	-16228	2180	-680	219	35	60	122	114	8
-11028	-2988	11196	-81	180	-137	-16496	1228	-2308	22	-39	167	-15972	832	-2948	30	-46	157	-10372	2500	13072	100	-25	-140	-15828	-1512	-3336	14	-44	-28	-16236	2212	-712	277	88	60	122	114	8
-11048	-2968	11272	-85	144	-124	-16488	1324	-2124	9	17	168	-16040	912	-2776	44	-36	163	-10320	2536	13124	112	-1	-182	-15892	-1496	-3344	60	-80	-55	-16288	2188	-628	269	59	75	122	114	8
-11004	-2916	11168	-110	151	-98	-16528	1308	-2204	10	15	139	-16028	944	-2768	6	-16	146	-10364	2412	13072	133	-68	-148	-15840	-1504	-3176	43	-29	-29	-16236	2228	-648	240	58	53	122	114	8
-11024	-2848	11192	-124	158	-121	-16496	1272	-2212	46	11	161	-15964	976	-2768	36	-17	159	-10360	2516	13096	88	10	-167	-15884	-1428	-3132	87	-24	-68	-16260	2204	-660	249	74	22	122	114	8
-11012	-2868	11272	-126	146	-177	-16448	1324	-2276	65	36	166	-15960	884	-2760	37	10	149	-10396	2544	12988	122	-25	-173	-15856	-1480	-3236	45	-41	-106	-16196	2148	-604	253	72	24	122	114	8
-11032	-2880	11244	-103	159	-171	-16552	1320	-2244	-13	62	115	-16032	840	-2848	10	11	134	-10456	2484	12968	139	-12	-190	-15808	-1520	-3188	65	-26	-94	-16316	2184	-596	242	52	35	122	114	8
-11068	-2884	11220	-109	91	-123	-16460	1252	-2216	48	24	125	-16080	828	-2808	62	9	167	-10308	2556	12992	120	-19	-163	-15844	-1512	-3204	84	7	-68	-16288	2180	-600	272	26	43	122	114	8
-11020	-2900	11332	-157	148	-175	-16444	1264	-2204	135	52	115	-16000	856	-2872	92	-25	181	-10332	2520	12956	105	-6	-220	-15888	-1436	-3160	58	43	-66	-16296	2156	-616	286	48	38	122	113	8
-11076	-2852	11212	-114	152	-144	-16484	1204	-2304	90	61	144	-15940	764	-2896	99	-19	178	-10384	2580	13020	104	5	-152	-15824	-1476	-3284	38	15	-111	-16184	2200	-636	286	43	32	122	113	8
-11064	-2844	11232	-88	152	-139	-16528	1232	-2284	83	87	151	-16004	908	-2900	99	-4	183	-10416	2528	13040	111	4	-169	-15888	-1532	-3068	48	50	-120	-16296	2128	-604	276	51	74	122	114	8
-11020	-2896	11192	-113	146	-145	-16420	1300	-2268	58	74	110	-15976	880	-2868	63	-25	179	-10432	2516	12932	110	-18	-187	-15864	-1524	-3304	25	60	-113	-16236	2124	-688	205	97	60	122	113	8
-11048	-2916	11144	-107	140	-172	-16504	1280	-2276	79	34	110	-15984	960	-3060	7	-25	175	-10384	2500	12996	103	-36	-158	-15860	-1560	-3260	-52	70	-131	-16312	2144	-644	184	68	55	122	114	8
-10992	-2928	11164	-132	132	-131	-16516	1288	-2284	34	16	131	-15996	936	-2844	-64	-52	148	-10372	2540	13004	85	24	-153	-15876	-1588	-3288	-125	91	-98	-16232	2196	-592	113	110	62	122	114	8
-11028	-2824	11204	-102	169	-167	-16508	1272	-2264	26	41	121	-15980	792	-2996	-87	-64	97	-10380	2448	13028	92	-26	-179	-15852	-1572	-3296	-50	22	-84	-16292	2236	-704	-1	104	64	123	114	8
-11048	-2884	11204	-118	110	-167	-16496	1216	-2316	14	26	154	-15952	872	-2912	-63	-56	115	-10336	2516	13040	121	-40	-194	-15832	-1564	-3308	-84	53	-103	-16280	2172	-776	-17	147	55	123	114	8
-11040	-2896	11236	-141	158	-134	-16460	1224	-2248	10	12	166	-16000	864	-2820	-102	-64	154	-10376	2544	13088	85	0	-201	-15804	-1544	-3388	-57	50	-99	-16252	2124	-796	27	115	85	123	114	8
-11036	-2956	11176	-115	116	-115	-16476	1244	-2324	18	6	138	-15984	800	-2864	-74	-76	187	-10376	2536	12988	115	2	-188	-15832	-1584	-3308	-31	31	-76	-16192	2116	-668	26	101	48	123	114	8
-11100	-2916	11268	-85	147	-137	-16484	1292	-2340	52	8	191	-16036	812	-2952	-44	-90	150	-10404	2500	13028	144	17	-191	-15784	-1540	-3248	-53	19	-60	-16264	2180	-744	61	154	52	123	114	8
-11116	-2828	11360	-112	125	-149	-16476	1292	-2440	25	-16	127	-15996	884	-2888	-28	-52	182	-10420	2508	13028	93	48	-180	-15872	-1612	-3300	-40	25	-71	-16220	2092	-852	59	148	61	123	114	8
-11052	-2876	11252	-96	148	-149	-16472	1240	-2184	27	-42	206	-15996	840	-2920	1	-39	175	-10380	2528	13032	125	42	-147	-15820	-1576	-3256	4	31	-47	-16276	2148	-768	78	127	38	123	114	8
-11084	-2908	11340	-109	124	-142	-16456	1212	-2276	58	-3	155	-15944	880	-2872	-43	-61	158	-10304	2484	13012	100	-31	-140	-15832	-1532	-3296	-26	-25	-45	-16212	2164	-684	93	99	96	123	114	8
-11044	-2884	11244	-167	160	-139	-16516	1268	-2340	21	-39	135	-16000	824	-2900	-12	-62	172	-10404	2532	12996	120	0	-142	-15812	-1528	-3332	-35	35	-37	-16252	2172	-684	111	97	110	123	114	8
-11028	-2840	11236	-96	155	-154	-16428	1292	-2316	17	9	171	-15992	820	-2892	-7	-100	170	-10436	2556	13092	124	-19	-136	-15804	-1520	-3348	-9	14	-58	-16184	2204	-592	158	86	104	122	114	8
-11012	-2896	11164	-91	143	-156	-16488	1248	-2348	33	-13	155	-15952	840	-2924	-58	-63	185	-10348	2504	12804	137	-9	-176	-15800	-1560	-3336	-26	20	-42	-16180	2188	-760	153	115	98	122	114	8
-11044	-2924	11236	-114	160	-143	-16492	1284	-2204	27	7	191	-15976	872	-2964	-27	-68	148	-10428	2428	13068	80	17	-165	-15808	-1544	-3348	-80	-6	-50	-16292	2228	-728	95	139	83	122	114	8
-11072	-2860	11256	-71	126	-140	-16508	1284	-2424	34	-6	186	-15964	824	-2936	-71	-55	141	-10380	2420	12948	126	-25	-161	-15824	-1564	-3320	-26	14	-55	-16224	2152	-876	131	89	75	123	114	8
-11056	-2852	11264	-108	155	-152	-16504	1272	-2364	34	14	165	-15928	916	-2928	-19	-43	123	-10380	2508	13040	91	-14	-189	-15844	-1500	-3372	-30	-55	-19	-16256	2116	-828	162	64	55	123	114	8
-11052	-2884	11196	-118	123	-145	-16440	1320	-2252	16	-17	159	-15988	868	-2940	-15	-37	166	-10420	2524	12984	137	-18	-125	-15840	-1548	-3292	54	-59	-29	-16248	2164	-876	182	62	55	122	114	8
-11056	-2860	11232	-164	153	-181	-16492	1268	-2372	76	-3	164	-16000	908	-2940	88	-12	202	-10356	2504	13092	123	-20	-158	-15764	-1532	-3316	32	-43	-49	-16208	2188	-776	182	42	89	122	114	8
-11028	-2896	11224	-109	165	-174	-16408	1236	-2212	104	-25	175	-15956	832	-2924	132	-6	224	-10376	2476	13076	109	7	-178	-15836	-1460	-3268	43	-9	-28	-16296	2244	-712	192	44	59	122	114	8
-11028	-2916	11196	-122	127	-163	-16440	1268	-2376	133	21	154	-16000	872	-2712	136	-35	220	-10380	2556	12932	153	-27	-154	-15832	-1436	-3376	-8	-41	-35	-16296	2260	-752	221	74	61	122	114	8
-11028	-2872	11216	-109	119	-157	-16468	1296	-2260	132	-6	133	-16024	856	-2920	147	-55	198	-10376	2440	13000	127	-14	-162	-15832	-1548	-3368	39	-54	-44	-16256	2232	-680	243	45	49	122	114	8
-11000	-2880	11292	-100	145	-149	-16444	1316	-2260	101	-35	142	-15908	908	-2880	161	-42	229	-10440	2560	12992	101	-14	-163	-15872	-1456	-3308	20	11	-40	-16268	2204	-712	217	87	56	122	114	8
-11020	-2884	11188	-73	128	-185	-16512	1276	-2368	118	-22	129	-15996	1044	-2960	143	-29	204	-10360	2540	13036	108	9	-206	-15868	-1500	-3376	45	-4	-62	-16308	2232	-748	261	48	44	122	114	8
-11032	-2860	11260	-96	122	-181	-16480	1232	-2320	93	-11	149	-15932	976	-2912	60	-49	178	-10384	2508	12896	136	19	-168	-15844	-1544	-3324	20	10	-44	-16260	2192	-676	289	39	15	122	114	8
-11040	-2892	11152	-145	137	-167	-16476	1320	-2412	91	-11	107	-15964	836	-2976	48	-33	167	-10380	2512	12964	96	-40	-186	-15804	-1528	-3232	9	24	-64	-16224	2256	-776	302	4	40	122	114	8
-11036	-2828	11244	-133	128	-165	-16464	1296	-2348	53	-24	141	-15972	896	-2968	32	-50	154	-10404	2444	12992	100	-37	-172	-15868	-1572	-3332	58	20	-75	-16224	2212	-840	322	14	37	122	113	8
-11020	-2908	11172	-110	140	-162	-16500	1280	-2332	38	-73	121	-16012	852	-2992	-23	-52	175	-10332	2508	13044	103	0	-191	-15792	-1540	-3288	63	11	-85	-16256	2188	-812	309	8	35	122	113	8
-11028	-2876	11128	-106	153	-147	-16472	1264	-2300	21	-22	123	-15956	960	-2916	12	-96	184	-10416	2496	12984	98	-7	-165	-15792	-1512	-3356	32	-58	-61	-16216	2304	-868	198	79	31	122	114	8
-11000	-2896	11136	-101	173	-141	-16512	1272	-2292	22	-42	125	-15944	920	-2984	-4	-81	165	-10328	2532	12992	122	-7	-174	-15836	-1592	-3376	-8	-10	-85	-16260	2096	-852	212	61	33	122	114	8
-11032	-2860	11340	-104	166	-142	-16500	1248	-2344	43	-90	100	-15964	860	-2976	-11	-87	130	-10356	2520	13012	117	-18	-163	-15832	-1568	-3400	5	-87	-71	-16276	2172	-692	184	23	60	122	114	8
-11036	-2844	11240	-177	147	-183	-16508	1252	-2400	-1	-70	121	-15976	900	-3016	73	-95	178	-10408	2540	13004	117	-1	-146	-15876	-1584	-3440	-3	-58	-37	-16264	2212	-812	200	11	63	122	114	8
-10984	-2888	11168	-148	162	-147	-16508	1316	-2344	44	-96	112	-15920	876	-2972	78	-56	171	-10416	2484	12964	126	-25	-159	-15720	-1528	-3408	14	-69	-33	-16224	2200	-928	193	50	71	122	114	8
-11024	-2896	11240	-86	153	-175	-16472	1256	-2300	45	-95	121	-16028	872	-3060	128	-60	180	-10456	2460	13032	99	17	-164	-15864	-1568	-3376	8	-60	-30	-16236	2160	-936	209	77	17	122	114	8
-11060	-2856	11236	-133	147	-155	-16448	1284	-2288	74	-115	113	-15940	848	-2960	108	-51	166	-10400	2476	13056	106	-11	-174	-15844	-1544	-3296	60	-148	12	-16240	2124	-868	205	98	27	122	114	8
-11032	-2876	11060	-112	170	-130	-16464	1268	-2280	24	-106	100	-16000	848	-2912	134	-42	188	-10432	2480	13036	133	12	-171	-15776	-1516	-3244	107	-142	12	-16248	2136	-740	215	76	34	122	113	8
-11080	-2908	11192	-92	164	-160	-16484	1224	-2272	50	-92	95	-16032	836	-2944	78	-51	167	-10340	2468	13044	145	-40	-106	-15852	-1528	-3256	54	-110	1	-16316	2212	-740	242	46	12	122	114	8
-11088	-2940	11192	-112	159	-172	-16588	1216	-2400	20	-77	117	-16024	880	-2936	107	-34	172	-10400	2492	13072	109	-39	-146	-15784	-1572	-3236	64	-81	1	-16252	2128	-696	246	83	58	122	113	8
-11036	-2944	11248	-127	143	-113	-16400	1132	-2192	-4	-80	93	-16008	864	-2804	35	-18	173	-10404	2508	13048	117	-49	-114	-15788	-1424	-3112	81	-111	-32	-16252	2228	-584	233	50	59	122	114	8
-11068	-2936	11144	-111	143	-172	-16436	1184	-2080	44	-26	140	-15976	820	-2828	107	-38	190	-10364	2532	12916	142	19	-142	-15848	-1428	-3256	43	-74	-53	-16272	2192	-636	221	56	71	122	114	8
-11060	-2868	11220	-91	141	-141	-16496	1208	-2260	59	-21	146	-16064	796	-2752	20	-56	175	-10420	2504	12992	112	3	-182	-15792	-1524	-3376	10	-32	-86	-16252	2300	-740	229	29	55	122	113	8
-11076	-2884	11176	-80	146	-130	-16488	1252	-2236	60	30	144	-15964	840	-2888	12	-53	165	-10360	2536	12992	84	-20	-166	-15828	-1472	-3220	-5	-63	-64	-16256	2184	-692	212	48	42	122	113	8
-11076	-2872	11208	-116	157	-135	-16492	1248	-2208	29	13	172	-15980	856	-2916	3	-68	181	-10372	2472	12908	96	-20	-182	-15856	-1460	-3212	73	1	-106	-16268	2152	-604	239	33	59	122	114	8
-11076	-2884	11244	-110	142	-150	-16508	1268	-2176	38	86	203	-15944	876	-2840	-20	-74	132	-10392	2580	13000	130	0	-160	-15888	-1468	-3272	34	57	-61	-16256	2268	-728	265	61	39	122	114	8
-11052	-2900	11208	-100	129	-102	-16436	1260	-2268	104	40	188	-15968	932	-2932	-75	-80	158	-10416	2544	13028	120	-24	-169	-15836	-1548	-3256	11	81	-84	-16192	2112	-772	251	43	78	122	114	8
-11024	-2892	11204	-103	137	-149	-16456	1280	-2248	21	46	162	-15960	944	-2968	-36	2	208	-10396	2512	13032	91	-33	-173	-15836	-1556	-3392	42	46	-65	-16236	2252	-776	280	61	67	122	114	8
-11056	-2912	11248	-86	148	-141	-16460	1264	-2408	4	59	161	-15996	920	-2984	-46	-31	190	-10400	2448	13012	103	-12	-177	-15772	-1452	-3340	39	50	-123	-16264	2260	-884	289	70	43	123	114	8
-10972	-2832	11248	-135	151	-172	-16504	1252	-2288	21	27	167	-15964	928	-2952	25	-54	176	-10408	2512	13040	131	-11	-177	-15836	-1580	-3336	45	6	-113	-16240	2244	-868	247	47	69	122	114	8
-11020	-2812	11208	-95	116	-160	-16420	1232	-2412	57	17	144	-15984	904	-2968	41	-20	209	-10400	2528	12980	99	-9	-178	-15816	-1568	-3356	18	30	-99	-16224	2240	-860	244	120	73	122	114	8
-11084	-2868	11076	-81	164	-156	-16472	1204	-2124	40	31	160	-15956	840	-2912	37	-48	171	-10424	2512	12988	117	31	-186	-15848	-1540	-3416	30	47	-78	-16288	2200	-820	213	115	43	122	114	8
-11044	-2840	11244	-114	124	-140	-16476	1236	-2284	19	42	133	-16012	896	-2900	50	-53	187	-10384	2544	13024	142	-30	-165	-15776	-1560	-3300	13	23	-89	-16228	2116	-752	153	108	66	122	114	8
-11076	-2920	11176	-102	156	-120	-16484	1220	-2384	41	41	163	-15948	928	-3012	14	10	191	-10384	2524	12988	128	-9	-191	-15832	-1516	-3228	23	57	-30	-16256	2172	-812	139	91	63	122	114	8
-11084	-2908	11100	-147	169	-140	-16476	1316	-2284	26	61	154	-15944	912	-3176	-50	-27	212	-10384	2496	13012	115	-50	-159	-15832	-1588	-3284	19	110	-33	-16204	2180	-800	162	111	64	122	114	8
-10960	-2880	11176	-105	183	-160	-16464	1268	-2392	-32	33	170	-15980	940	-2936	-101	-10	190	-10416	2548	13056	126	-31	-138	-15844	-1492	-3340	53	73	-78	-16296	2164	-848	148	126	72	122	114	8
-11088	-2904	11252	-102	171	-142	-16396	1268	-2220	-41	47	134	-16008	908	-3060	-159	-24	207	-10324	2488	12956	105	2	-179	-15840	-1476	-3288	-32	71	-96	-16224	2172	-908	109	163	43	122	113	8
-11072	-2884	11200	-90	157	-136	-16492	1220	-2268	-45	63	171	-15916	952	-2976	-152	-4	174	-10392	2520	12976	107	-27	-181	-15836	-1488	-3348	-72	75	-74	-16164	2212	-792	163	144	55	122	114	8
-11028	-2968	11208	-100	137	-131	-16420	1336	-2368	4	85	186	-15972	888	-2932	-157	-69	181	-10440	2516	13128	97	-72	-136	-15756	-1496	-3320	-18	84	-104	-16216	2228	-804	131	174	55	123	114	8
-11008	-2880	11140	-106	146	-145	-16460	1320	-2188	1	75	162	-15952	920	-3132	-181	-80	140	-10380	2480	12980	100	20	-194	-15920	-1504	-3364	-38	108	-124	-16220	2212	-852	98	132	82	122	114	8
-11040	-2904	11256	-111	175	-137	-16460	1264	-2420	-4	66	170	-15924	892	-3076	-131	-75	130	-10372	2480	13024	133	-3	-166	-15840	-1452	-3432	-78	56	-110	-16308	2196	-780	70	109	41	122	114	8
-11068	-2892	11216	-97	106	-146	-16480	1300	-2432	7	58	165	-15956	988	-3056	-64	-90	150	-10284	2528	12936	89	0	-159	-15752	-1608	-3340	-66	92	-90	-16144	2260	-940	66	111	63	122	114	8
-11016	-2860	11132	-112	164	-142	-16460	1308	-2292	-4	16	166	-15900	900	-3040	-59	-46	156	-10384	2548	13016	142	-6	-169	-15776	-1576	-3376	-38	71	-63	-16216	2236	-872	86	96	54	123	114	8
-11016	-2876	11100	-137	141	-151	-16464	1340	-2256	-3	65	159	-15976	888	-3024	59	-29	171	-10444	2496	13008	101	-37	-154	-15732	-1592	-3392	-64	58	-66	-16276	2196	-1064	104	96	64	122	114	8
-11100	-2852	11172	-108	156	-165	-16412	1252	-2300	32	10	146	-15944	1012	-3076	118	-13	189	-10432	2464	13076	133	1	-182	-15748	-1508	-3528	-67	61	-103	-16232	2184	-828	49	60	56	122	114	8
-11068	-2904	11208	-117	151	-142	-16456	1268	-2276	105	29	175	-15944	820	-2984	158	-10	180	-10408	2512	13028	113	-12	-142	-15856	-1596	-3400	-29	26	-59	-16184	2180	-900	61	119	60	122	114	8
-11044	-2896	11268	-82	138	-161	-16432	1276	-2248	126	51	131	-16000	804	-2944	141	-19	179	-10400	2544	13016	118	-25	-162	-15796	-1528	-3396	-51	24	-57	-16292	2208	-952	80	94	37	122	114	8
-11088	-2900	11144	-70	119	-148	-16476	1284	-2280	161	64	163	-16016	872	-3032	150	-50	220	-10416	2472	12956	103	-25	-161	-15816	-1520	-3352	-48	34	-104	-16252	2200	-880	125	129	47	122	114	8
-11076	-2844	11240	-62	122	-144	-16468	1284	-2296	151	76	203	-15960	860	-2984	160	-53	209	-10352	2564	13064	109	-29	-187	-15836	-1512	-3316	50	59	-71	-16232	2140	-1052	96	122	76	122	114	8
-11040	-2932	11148	-87	139	-137	-16444	1204	-2252	156	87	189	-15968	844	-2980	158	-42	173	-10344	2512	13040	111	-16	-155	-15888	-1496	-3352	-39	31	-88	-16236	2196	-868	151	70	96	122	114	8
-11024	-2860	11236	-59	169	-138	-16484	1224	-2364	130	89	207	-15904	892	-3004	116	-26	163	-10384	2460	13004	82	-45	-116	-15796	-1588	-3352	-16	67	-84	-16224	2144	-872	197	62	98	122	114	8
-11076	-2840	11192	-81	105	-166	-16440	1308	-2356	118	128	174	-15976	896	-3068	80	-87	164	-10360	2484	13004	116	-51	-200	-15776	-1552	-3348	20	35	-71	-16236	2196	-956	227	36	117	122	114	8
-11060	-2856	11268	-94	157	-143	-16380	1328	-2396	96	70	196	-15904	976	-3196	34	-103	170	-10380	2516	13016	121	-22	-175	-15772	-1600	-3348	69	28	-74	-16220	2204	-824	210	34	85	122	114	8
-11072	-2808	11220	-96	151	-109	-16496	1320	-2424	121	57	185	-15956	928	-3208	23	-90	176	-10404	2504	13096	89	-6	-186	-15780	-1540	-3480	32	-1	-93	-16240	2260	-956	174	49	98	122	114	8
-11084	-2836	11232	-92	127	-160	-16504	1344	-2440	90	84	161	-15984	972	-3204	55	-94	184	-10412	2460	13028	109	-40	-124	-15820	-1528	-3476	-13	36	-98	-16164	2224	-1068	101	32	73	122	114	8
-11068	-2848	11200	-113	162	-148	-16464	1356	-2524	67	49	173	-15928	948	-3228	42	-80	193	-10400	2544	12988	109	10	-148	-15804	-1556	-3404	-8	16	-88	-16236	2260	-948	124	51	54	122	114	8
-10996	-2856	11228	-110	151	-183	-16484	1336	-2336	90	46	116	-15948	976	-3180	56	-92	148	-10392	2504	13052	103	-5	-173	-15816	-1508	-3448	54	-15	-75	-16236	2196	-1040	170	27	43	122	114	8
-11040	-2880	11192	-87	156	-144	-16396	1392	-2424	82	42	114	-15924	940	-3248	61	-90	150	-10368	2504	13060	94	1	-173	-15712	-1520	-3496	-1	-55	-78	-16200	2300	-1072	174	-5	30	122	114	8
-11052	-2872	11148	-109	101	-171	-16404	1324	-2440	63	-37	135	-15928	1024	-3104	30	-124	158	-10376	2500	13012	128	-32	-164	-15824	-1556	-3424	21	-34	-66	-16200	2252	-1024	180	5	57	122	114	8
-10956	-2856	11176	-110	145	-179	-16460	1280	-2544	73	-13	128	-15952	1084	-3164	40	-95	176	-10352	2488	13000	105	3	-140	-15820	-1504	-3476	49	-57	-62	-16304	2284	-860	155	-9	69	122	114	8
-11064	-2864	11156	-131	158	-156	-16428	1308	-2424	49	-16	91	-15964	1084	-3068	75	-131	103	-10324	2476	12960	108	-42	-163	-15760	-1492	-3432	5	-49	-62	-16220	2284	-872	159	2	36	122	114	8
-11108	-2856	11224	-123	155	-163	-16416	1300	-2404	92	-50	100	-15980	944	-3192	49	-100	116	-10424	2492	13008	93	26	-158	-15768	-1548	-3436	25	-103	-108	-16224	2244	-920	198	-47	8	122	114	8
-10988	-2812	11220	-97	143	-169	-16520	1340	-2348	73	-101	79	-15996	896	-3056	91	-94	100	-10332	2536	13056	104	-36	-167	-15796	-1584	-3460	41	-95	-54	-16228	2272	-900	175	-37	2	122	114	8
-11016	-2824	11100	-106	162	-211	-16484	1336	-2396	92	-77	96	-16020	892	-3092	65	-116	128	-10396	2496	13084	110	-10	-166	-15824	-1568	-3472	0	-75	-101	-16216	2232	-784	133	-2	7	122	114	8
-11060	-2844	11240	-98	142	-165	-16504	1232	-2332	84	-21	119	-15964	908	-2952	93	-156	113	-10400	2504	13020	98	-47	-160	-15832	-1476	-3356	-7	-54	-54	-16300	2212	-864	163	-25	-6	122	113	8
-11036	-2860	11164	-136	151	-198	-16412	1264	-2320	109	-46	141	-15968	884	-2988	104	-136	116	-10440	2484	13132	81	-18	-155	-15808	-1540	-3396	46	-41	-104	-16240	2180	-972	163	-23	-21	122	113	8
-11124	-2856	11248	-116	133	-187	-16484	1276	-2360	108	-39	101	-15956	908	-3076	66	-117	127	-10384	2484	13076	91	-29	-148	-15820	-1544	-3456	49	-65	-83	-16216	2180	-980	205	-40	14	122	114	8
-11104	-2904	11092	-113	137	-181	-16404	1364	-2280	79	-12	99	-15936	896	-3152	25	-155	100	-10508	2512	12816	131	-26	-106	-15760	-1528	-3352	20	-105	-70	-16228	2172	-932	238	-56	17	122	114	8
-11072	-2900	11300	-135	139	-156	-16496	1288	-2372	91	-3	105	-15948	904	-3108	25	-147	109	-10448	2472	13060	139	8	-139	-15780	-1640	-3408	11	-87	-127	-16248	2200	-1012	194	-50	24	122	114	8
-11032	-2864	11292	-144	154	-167	-16480	1276	-2468	47	-34	114	-15892	924	-3064	67	-150	94	-10444	2564	13016	121	18	-150	-15808	-1504	-3360	46	-136	-86	-16208	2228	-956	180	-34	-4	122	114	8
-11048	-2924	11172	-102	127	-171	-16488	1292	-2320	73	-23	110	-15872	880	-3036	72	-107	102	-10420	2548	13124	124	-5	-176	-15780	-1496	-3372	58	-108	-74	-16220	2264	-892	198	-53	6	122	114	8
-11020	-2836	11256	-142	145	-142	-16456	1344	-2432	89	-73	81	-15948	980	-3100	70	-166	131	-10360	2524	12944	107	-20	-171	-15828	-1540	-3388	-5	-82	-93	-16180	2216	-892	206	-35	20	122	114	8
-11032	-2956	11200	-107	126	-198	-16428	1332	-2376	108	-78	66	-15912	908	-3124	129	-137	148	-10444	2528	13020	119	-48	-155	-15828	-1492	-3344	-1	-92	-72	-16256	2176	-976	224	-64	1	122	114	8
-11084	-2852	11228	-128	127	-169	-16464	1296	-2352	102	-79	102	-15932	916	-3052	142	-146	108	-10400	2500	13092	113	-27	-150	-15800	-1524	-3384	48	-105	-78	-16208	2212	-932	222	-39	3	122	114	8
-11008	-2792	11176	-149	165	-180	-16432	1272	-2184	62	-78	77	-15932	984	-3004	137	-141	133	-10448	2512	12984	84	18	-194	-15736	-1568	-3376	23	-83	-111	-16256	2272	-892	228	-76	15	122	114	8
-11044	-2800	11208	-96	131	-151	-16456	1172	-2396	57	-79	67	-15888	904	-3000	105	-169	95	-10372	2516	13004	122	-9	-172	-15760	-1504	-3424	54	-90	-96	-16204	2216	-852	257	-86	-31	122	114	8
-11100	-2848	11168	-101	132	-139	-16468	1300	-2408	76	-62	82	-15964	876	-3064	86	-123	103	-10380	2520	12992	83	-72	-120	-15776	-1540	-3380	2	-94	-53	-16280	2228	-752	236	-104	-1	122	114	8
-10952	-2852	11220	-123	129	-157	-16488	1220	-2360	60	-71	39	-16024	944	-3012	32	-145	102	-10372	2500	12968	89	-42	-142	-15784	-1540	-3392	2	-52	-137	-16184	2260	-824	192	-102	2	122	114	8
-11048	-2912	11288	-87	148	-181	-16444	1276	-2404	47	-46	67	-16004	1004	-3000	-32	-151	64	-10356	2464	13072	86	-34	-153	-15800	-1604	-3396	-65	-79	-167	-16204	2260	-844	177	-47	-27	122	114	8
-10940	-2968	11216	-114	133	-172	-16468	1296	-2292	16	-70	46	-15880	1004	-3176	-53	-174	43	-10308	2444	13020	84	-66	-164	-15748	-1576	-3352	9	-95	-112	-16268	2236	-972	131	-20	-44	122	114	8
-11088	-2876	11184	-120	136	-188	-16496	1248	-2424	0	-45	60	-15896	984	-3056	-41	-124	32	-10428	2528	12992	87	-29	-138	-15800	-1556	-3336	-3	-72	-139	-16196	2160	-860	104	-17	-78	122	114	8
-11032	-2844	11140	-135	159	-202	-16492	1232	-2416	57	-66	33	-15956	860	-3068	-20	-146	9	-10412	2444	12992	69	-72	-168	-15852	-1536	-3296	-53	-105	-122	-16244	2132	-952	79	-47	-53	122	114	8
-11052	-2772	11240	-131	119	-172	-16428	1252	-2384	4	-82	12	-15908	784	-3084	-28	-158	4	-10440	2520	13064	93	0	-176	-15788	-1592	-3448	-39	-93	-119	-16296	2128	-820	87	-43	-54	122	114	8
-11032	-2844	11228	-160	159	-178	-16432	1192	-2408	9	-87	51	-15968	736	-3036	27	-137	48	-10432	2456	12972	124	-30	-151	-15788	-1676	-3340	-35	-116	-148	-16236	2056	-916	165	-37	-54	122	114	8
-11020	-2864	11240	-132	177	-199	-16512	1192	-2300	114	-107	41	-15916	784	-2948	122	-155	75	-10448	2508	13012	98	-36	-184	-15852	-1616	-3384	58	-117	-121	-16308	2140	-996	234	-62	22	122	114	8
-11012	-2892	11220	-119	164	-196	-16476	1192	-2316	102	-87	47	-16048	704	-2872	165	-121	129	-10392	2512	12996	101	-35	-146	-15816	-1640	-3348	41	-125	-118	-16260	2112	-912	270	-69	-3	122	114	8
-11044	-2892	11068	-129	158	-181	-16440	1152	-2264	151	-22	68	-15956	768	-3020	257	-106	153	-10420	2516	13052	87	-7	-171	-15768	-1624	-3420	46	-131	-82	-16216	2128	-876	290	-63	-6	122	114	8
-11016	-2916	11220	-111	138	-156	-16512	1184	-2288	192	-23	67	-16060	728	-2864	246	-63	172	-10404	2508	12968	69	-34	-137	-15844	-1540	-3340	65	-124	-77	-16304	2156	-864	305	-81	-9	122	114	8
-11072	-2900	11172	-69	112	-200	-16432	1104	-2264	257	4	110	-15992	676	-3004	267	-108	194	-10356	2488	13076	87	15	-162	-15784	-1600	-3380	71	-71	-94	-16232	2132	-892	311	-121	12	122	114	8
-11076	-2928	11164	-75	87	-144	-16472	1164	-2272	298	18	109	-15944	840	-2944	323	-138	199	-10444	2432	13032	102	-22	-131	-15804	-1596	-3328	104	-95	-106	-16288	2144	-784	359	-129	22	122	114	8
-11068	-2944	11192	-69	91	-130	-16488	1144	-2332	314	55	116	-16004	768	-2996	285	-172	152	-10332	2540	13148	129	-69	-130	-15856	-1568	-3388	102	-58	-111	-16300	2164	-964	395	-114	56	122	114	8
-11012	-2868	11240	-65	94	-155	-16424	1188	-2224	325	37	161	-15988	832	-3004	273	-141	174	-10440	2528	13072	111	-29	-159	-15792	-1632	-3380	103	-92	-68	-16156	2064	-996	407	-150	44	122	114	8
-11008	-2932	11120	-94	56	-164	-16428	1212	-2412	321	105	156	-15936	836	-3136	253	-214	145	-10412	2408	12992	101	21	-129	-15872	-1580	-3452	89	-96	-55	-16204	2152	-892	448	-184	20	122	113	8
-11116	-2848	11248	-126	84	-162	-16464	1184	-2336	330	67	124	-15940	956	-3304	229	-201	185	-10388	2488	12980	100	-9	-181	-15816	-1588	-3392	97	-112	-70	-16244	2216	-948	363	-194	-2	122	113	8
-11060	-2856	11196	-109	99	-154	-16472	1296	-2468	257	-13	117	-15960	868	-3148	223	-192	155	-10304	2528	12980	111	-14	-155	-15764	-1624	-3356	71	-96	-85	-16176	2152	-832	297	-127	46	122	114	8
-11044	-2896	11284	-120	118	-168	-16488	1260	-2572	191	-21	71	-15928	932	-3160	237	-144	166	-10408	2520	13096	101	-30	-114	-15816	-1628	-3316	66	-141	-62	-16280	2176	-772	228	-145	20	122	114	8
-11016	-2864	11256	-100	126	-169	-16480	1192	-2464	155	-47	90	-15984	876	-3196	204	-203	162	-10372	2460	13028	111	-64	-137	-15872	-1512	-3412	-28	-124	-104	-16244	2228	-852	140	-133	14	122	114	8
-11040	-2896	11240	-129	114	-220	-16424	1136	-2364	141	-53	97	-15952	872	-3204	153	-201	91	-10448	2460	12820	137	-51	-163	-15848	-1636	-3272	-12	-109	-73	-16268	2108	-760	131	-102	8	122	114	8
-11020	-2900	11292	-111	140	-192	-16460	1160	-2320	74	-101	124	-15992	828	-3048	131	-242	82	-10384	2488	13012	123	-37	-135	-15780	-1636	-3184	-16	-103	-76	-16164	2084	-840	157	-107	9	122	114	8
-11020	-2828	11116	-155	136	-183	-16540	1184	-2392	82	-108	97	-15936	796	-3132	41	-242	114	-10360	2488	12972	91	17	-174	-15812	-1664	-3372	-23	-114	-44	-16288	2004	-1028	181	-121	20	122	114	8
-11060	-2920	11120	-126	146	-185	-16500	1208	-2424	98	-107	119	-15904	812	-3076	30	-226	129	-10384	2472	13000	100	-33	-149	-15788	-1624	-3380	-32	-128	-31	-16256	2048	-996	226	-138	23	122	114	8
-11048	-2852	11276	-121	133	-163	-16512	1148	-2304	87	-118	93	-15984	836	-3176	-2	-272	145	-10368	2504	12960	139	-18	-151	-15744	-1632	-3312	-16	-141	-45	-16260	2104	-860	215	-122	72	122	114	8
-11036	-2828	11188	-83	128	-136	-16464	1192	-2452	50	-117	134	-15912	748	-3056	-33	-249	149	-10368	2448	13060	84	13	-189	-15884	-1660	-3448	-22	-168	8	-16204	2040	-852	203	-175	67	122	114	8
-11056	-2824	11196	-122	116	-156	-16452	1268	-2436	64	-140	164	-15952	780	-3056	-45	-203	134	-10428	2540	13024	114	-27	-151	-15800	-1624	-3384	-31	-210	16	-16240	2088	-864	120	-152	66	123	114	8
-11020	-2892	11228	-124	112	-165	-16528	1184	-2360	45	-140	129	-15960	848	-3172	-25	-236	160	-10344	2492	12940	141	-15	-153	-15788	-1640	-3304	-28	-211	29	-16328	2112	-772	67	-133	109	122	114	8
-10980	-2868	11148	-124	111	-173	-16448	1192	-2444	28	-193	150	-15900	776	-3172	-22	-234	144	-10340	2508	13072	141	-26	-119	-15856	-1632	-3360	40	-212	57	-16276	2100	-776	115	-163	81	122	114	8
-11108	-2856	11288	-117	120	-173	-16484	1232	-2520	30	-198	124	-15904	760	-2996	29	-194	183	-10436	2456	13044	107	-20	-125	-15812	-1568	-3304	-70	-224	45	-16200	2188	-836	113	-107	79	123	114	8
-11048	-2860	11140	-125	126	-195	-16464	1160	-2432	21	-196	149	-16004	844	-2960	27	-212	155	-10384	2496	13008	157	32	-155	-15780	-1612	-3176	16	-219	61	-16200	2156	-780	64	-75	85	122	114	8
-11084	-2928	11132	-92	118	-171	-16500	1204	-2408	-19	-209	149	-15976	852	-2992	17	-223	190	-10396	2528	13076	130	-17	-141	-15776	-1600	-3248	-32	-233	4	-16304	2144	-632	70	-56	35	122	114	8
-11040	-2916	11236	-165	143	-169	-16504	1148	-2328	-15	-165	140	-16032	812	-2964	-23	-227	163	-10416	2480	12988	120	14	-128	-15788	-1528	-3212	-13	-191	57	-16232	2140	-668	46	-49	58	122	114	8
-11052	-2856	11108	-134	161	-157	-16492	1160	-2224	-22	-162	138	-16052	840	-2840	-36	-182	155	-10436	2544	12920	144	10	-151	-15812	-1476	-3064	5	-149	-3	-16256	2112	-636	65	-38	91	122	114	8
-11012	-2908	11168	-91	123	-130	-16488	1240	-2196	-57	-149	142	-16064	784	-2928	-102	-197	145	-10300	2496	12900	116	-2	-149	-15840	-1556	-3036	-63	-136	-30	-16288	2180	-572	48	-24	44	122	114	8
-10956	-2912	11236	-118	133	-165	-16412	1104	-2104	-19	-117	190	-15964	776	-2948	-135	-192	126	-10472	2416	12984	50	2	-144	-15800	-1480	-3232	-53	-58	-20	-16220	2088	-508	26	-27	42	122	114	8
-11012	-2908	11188	-116	139	-155	-16504	1128	-2260	-11	-78	208	-15952	828	-3020	-177	-225	95	-10480	2528	13064	114	-8	-144	-15840	-1484	-3292	-90	-30	-9	-16252	2136	-604	47	-45	73	122	114	8
-10972	-2924	11304	-81	151	-109	-16456	1188	-2180	-67	-36	199	-15984	792	-2952	-183	-203	163	-10460	2524	12988	89	-8	-187	-15896	-1588	-3304	-98	-7	-28	-16288	2096	-720	58	-54	63	122	114	8
-11092	-2824	11204	-86	149	-149	-16400	1188	-2228	-57	-39	173	-15992	792	-2948	-135	-230	167	-10348	2496	13108	112	-62	-135	-15792	-1620	-3252	-82	-33	-25	-16308	2116	-760	63	-5	108	123	114	8
-11032	-2880	11224	-99	90	-157	-16512	1188	-2264	-69	-53	197	-15952	784	-2888	-147	-248	188	-10464	2476	13064	127	-10	-150	-15836	-1596	-3364	-89	-41	-37	-16188	2112	-828	55	-35	93	123	114	8
-11076	-2940	11184	-147	120	-138	-16472	1240	-2248	-79	-53	213	-15896	784	-2824	-142	-234	160	-10396	2492	13040	112	-69	-165	-15836	-1592	-3272	-60	-67	20	-16212	2132	-788	80	-72	76	122	114	8
-11024	-2884	11236	-115	143	-169	-16476	1144	-2236	3	-79	205	-15996	896	-2824	-115	-219	179	-10372	2520	12984	115	-45	-140	-15756	-1520	-3288	-57	-29	-11	-16280	2104	-716	40	-46	99	122	114	8
-10964	-2924	11180	-105	142	-149	-16520	1212	-2364	-10	-72	255	-15992	824	-2920	-119	-201	202	-10328	2488	13028	128	-36	-157	-15816	-1520	-3312	-46	-66	7	-16280	2188	-944	74	-58	104	122	114	8
-11076	-2928	11264	-123	117	-138	-16520	1220	-2244	-20	-42	267	-15928	772	-3088	-131	-232	195	-10444	2552	13052	111	-74	-146	-15780	-1552	-3300	-58	-46	-11	-16264	2240	-764	104	-55	122	122	114	8
-11080	-2856	11188	-104	140	-124	-16500	1300	-2256	-22	-30	235	-15964	900	-2920	-92	-227	201	-10360	2492	12920	107	-54	-120	-15804	-1504	-3376	-42	-65	-21	-16276	2152	-768	57	-87	110	122	114	8
-11064	-2856	11160	-114	162	-119	-16476	1208	-2340	-17	-67	247	-15976	908	-3004	-77	-245	207	-10388	2548	12944	98	-14	-136	-15848	-1532	-3308	-79	-78	1	-16224	2120	-684	78	-84	85	122	114	8
-11052	-2904	11232	-98	179	-149	-16528	1324	-2332	1	-68	233	-16100	892	-2976	-96	-230	208	-10360	2540	13192	90	-12	-139	-15748	-1508	-3156	-49	-99	25	-16236	2140	-640	77	-83	72	122	114	8
-11084	-2868	11180	-112	156	-192	-16448	1252	-2228	8	-63	214	-16060	860	-2988	-106	-202	224	-10452	2464	12976	117	-25	-140	-15824	-1500	-3244	-88	-77	11	-16252	2172	-704	159	-61	86	122	114	8
-11036	-2896	11192	-96	161	-145	-16520	1292	-2308	-27	-96	255	-16056	912	-2892	-81	-217	147	-10412	2540	12956	132	-21	-136	-15872	-1556	-3200	-45	-64	10	-16272	2132	-808	197	-93	127	122	114	8
-11044	-2912	11260	-103	165	-171	-16492	1308	-2328	12	-88	252	-16016	940	-2828	-21	-233	184	-10404	2508	12972	125	21	-118	-15776	-1504	-3216	-90	-79	31	-16200	2172	-692	146	-77	103	122	114	8
-11032	-2848	11208	-107	170	-156	-16380	1228	-2292	-30	-32	209	-15948	856	-2804	-33	-210	202	-10400	2548	12972	118	-4	-153	-15856	-1480	-3324	-186	-73	11	-16192	2224	-820	173	-40	100	122	114	8
-11024	-2832	11136	-104	158	-168	-16476	1228	-2356	1	-34	169	-16004	852	-2896	-94	-220	153	-10388	2484	13024	126	-25	-127	-15868	-1544	-3472	-122	-140	36	-16276	2280	-776	59	51	44	122	114	8
-11116	-2904	11284	-89	141	-181	-16464	1264	-2352	7	-64	192	-15944	888	-2884	-109	-204	154	-10400	2520	12976	114	-12	-165	-15840	-1464	-3364	-88	-135	27	-16228	2356	-892	10	50	47	122	114	8
-11160	-2852	11096	-116	139	-189	-16428	1320	-2176	-39	-50	204	-15892	952	-2880	-50	-196	139	-10356	2508	12972	109	-36	-145	-15836	-1536	-3212	-104	-141	-35	-16260	2156	-704	-107	21	43	122	114	8
-11032	-2896	11212	-100	119	-154	-16428	1220	-2276	-70	-44	196	-15932	852	-2828	-36	-166	154	-10352	2492	13024	126	-6	-148	-15864	-1432	-3216	-38	-112	36	-16264	2196	-716	-30	-43	71	122	114	8
-11044	-2880	11216	-136	145	-176	-16480	1252	-2248	56	-77	210	-15912	840	-2876	-47	-164	187	-10396	2512	12944	109	-63	-108	-15824	-1432	-3248	-94	-94	-27	-16340	2084	-668	46	-24	72	122	114	8
-11056	-2896	11236	-133	156	-172	-16468	1196	-2192	34	-55	223	-15980	868	-2960	-32	-199	205	-10420	2500	13040	122	-49	-123	-15792	-1448	-3152	-19	-70	-16	-16180	2144	-572	182	-95	96	122	114	8
-11068	-2940	11108	-130	160	-142	-16472	1224	-2156	14	-62	214	-15964	860	-2812	6	-169	188	-10372	2492	12944	92	-50	-134	-15848	-1528	-3304	55	-36	-3	-16216	2144	-620	269	-79	87	122	113	8
-10984	-2884	11104	-127	152	-197	-16480	1292	-2192	-3	-35	211	-16052	932	-2924	-2	-215	188	-10340	2536	12968	78	-32	-143	-15864	-1528	-3312	36	-38	-30	-16216	2176	-592	245	-77	87	122	114	8
-11120	-2872	11260	-93	131	-150	-16504	1280	-2192	19	-34	201	-15996	868	-2816	-14	-186	218	-10476	2572	13084	84	-57	-172	-15824	-1476	-3332	-29	3	-54	-16308	2224	-624	220	-106	73	122	114	8
-11124	-2892	11284	-102	107	-158	-16500	1288	-2320	52	-5	213	-15972	936	-2900	-80	-196	208	-10416	2540	13060	127	-9	-172	-15864	-1460	-3220	-98	-42	-22	-16304	2180	-696	213	-82	101	122	114	8
-11040	-2900	11276	-126	116	-178	-16444	1320	-2292	18	-54	204	-15956	940	-2892	-79	-197	191	-10380	2544	13080	100	-19	-147	-15768	-1540	-3208	23	-54	13	-16216	2256	-732	191	-76	103	122	114	8
-11056	-2880	11192	-100	162	-158	-16452	1296	-2256	15	17	198	-15944	836	-2920	-85	-169	176	-10260	2596	13096	100	-27	-182	-15828	-1556	-3312	18	-45	-15	-16268	2244	-672	149	-31	91	122	114	8
-10976	-2864	11220	-95	134	-155	-16532	1240	-2264	23	-25	195	-15976	900	-2756	-92	-178	186	-10324	2484	13080	144	-26	-155	-15876	-1508	-3208	-97	-56	17	-16304	2228	-688	70	-53	77	122	114	8
-11000	-2844	11180	-114	148	-182	-16500	1332	-2144	26	7	178	-15912	888	-2912	-49	-178	206	-10400	2456	13080	111	-12	-132	-15872	-1516	-3384	-87	-84	-25	-16260	2228	-704	41	2	50	122	113	8
-11052	-2864	11080	-124	127	-211	-16488	1244	-2228	51	-23	182	-16016	848	-2988	10	-174	180	-10396	2476	13008	91	7	-165	-15868	-1472	-3288	6	-78	23	-16196	2180	-768	111	-10	89	122	114	8
-11052	-2872	11308	-72	120	-158	-16416	1268	-2256	10	-2	199	-15984	820	-2856	-7	-172	240	-10392	2596	13000	124	-21	-142	-15844	-1428	-3212	-10	-77	-7	-16192	2184	-632	167	-37	66	122	113	8
-11004	-2980	11136	-103	143	-170	-16532	1300	-2312	53	-27	205	-16004	928	-2836	4	-155	187	-10376	2524	13012	121	-29	-152	-15816	-1480	-3188	-51	-55	-34	-16276	2212	-712	173	-33	82	122	114	8
-11012	-2884	11208	-58	129	-151	-16480	1232	-2196	34	-14	182	-15976	912	-2848	6	-161	190	-10400	2520	12980	119	-14	-131	-15824	-1476	-3104	-34	-89	8	-16224	2224	-680	187	-8	101	122	114	8
-11044	-2880	11252	-113	142	-164	-16508	1312	-2264	30	-3	201	-15908	996	-2824	-22	-175	186	-10352	2532	13012	125	-2	-154	-15856	-1468	-3256	16	-32	-15	-16244	2176	-720	197	-40	79	122	114	8
-11056	-2892	11264	-104	148	-159	-16468	1328	-2280	14	-5	198	-16040	924	-2876	-47	-160	199	-10404	2504	13060	106	-10	-161	-15824	-1452	-3188	-7	-50	-44	-16212	2196	-676	194	-20	107	122	114	8
-11044	-2948	11124	-70	144	-138	-16428	1240	-2228	-39	-22	195	-15944	868	-2776	-76	-170	161	-10356	2504	13100	128	-25	-144	-15836	-1416	-3240	-73	-100	-8	-16248	2284	-780	139	-24	105	122	114	8
-11020	-2908	11216	-157	136	-188	-16456	1244	-2148	-10	-25	202	-16028	908	-2968	-112	-177	163	-10352	2444	12896	125	-74	-146	-15852	-1468	-3208	-67	-105	-9	-16244	2324	-684	74	9	105	122	113	8
-10976	-2904	11236	-130	141	-146	-16416	1356	-2260	-1	17	194	-15996	884	-2808	-61	-164	148	-10324	2548	12976	114	-48	-134	-15840	-1516	-3160	-105	-84	-29	-16232	2272	-684	-1	11	46	122	114	8
-11048	-2848	11328	-89	151	-131	-16544	1276	-2252	17	3	173	-16012	984	-2852	-139	-158	174	-10376	2544	13028	117	-12	-118	-15780	-1440	-3184	-29	-55	-23	-16216	2148	-584	32	20	77	122	114	8
-11020	-2912	11160	-122	165	-157	-16448	1332	-2224	0	-20	174	-15952	944	-2932	-91	-132	173	-10380	2568	12992	116	-59	-124	-15844	-1472	-3264	-98	-22	13	-16284	2196	-700	30	13	56	122	114	8
-11112	-2904	11200	-104	178	-165	-16512	1268	-2300	-37	-8	177	-15992	964	-2896	-81	-122	155	-10352	2568	12964	120	-7	-119	-15788	-1428	-3240	-80	-37	-51	-16296	2272	-632	82	28	45	122	114	8
-10992	-2916	11140	-129	166	-161	-16448	1408	-2224	-17	8	156	-15984	1052	-2816	-61	-114	118	-10372	2488	13008	128	-55	-168	-15888	-1420	-3224	-60	-91	-74	-16208	2240	-712	68	49	81	122	114	8
-11032	-2892	11208	-102	154	-167	-16472	1288	-2252	-42	-40	158	-16000	884	-2836	-79	-103	135	-10448	2448	13064	107	24	-182	-15800	-1404	-3272	10	-31	-1	-16240	2272	-640	139	37	68	122	114	8
-11012	-2880	11060	-113	130	-169	-16456	1344	-2184	-39	-28	170	-16004	932	-2944	-77	-134	149	-10424	2512	13032	137	-58	-137	-15848	-1324	-3084	31	-2	-41	-16264	2252	-564	177	22	87	122	114	8
-11120	-2904	11212	-118	180	-170	-16472	1352	-2280	-5	-15	168	-15992	928	-2764	-89	-114	113	-10356	2508	12924	97	-29	-140	-15804	-1468	-3252	-67	-59	-12	-16292	2220	-744	198	10	47	122	114	8
-11032	-2916	11184	-122	169	-126	-16512	1340	-2248	-1	-24	167	-15996	956	-2836	-86	-106	156	-10336	2476	13060	121	-38	-172	-15828	-1420	-3204	18	-45	-20	-16180	2284	-640	169	37	70	122	113	8
-11048	-2880	11172	-119	156	-143	-16480	1364	-2312	-36	-14	164	-16004	960	-2816	-95	-89	135	-10380	2532	13016	133	-32	-149	-15856	-1460	-3200	-7	-42	-41	-16236	2236	-704	124	73	76	122	114	8
-11052	-2880	11184	-116	164	-138	-16492	1312	-2172	-27	-35	182	-16008	892	-2892	-67	-106	160	-10420	2568	13032	98	-24	-152	-15856	-1480	-3104	16	-26	-31	-16264	2172	-544	106	65	64	122	114	8
-11036	-2920	11252	-125	149	-169	-16488	1284	-2216	-29	-22	152	-15992	904	-2784	-77	-68	141	-10400	2464	13116	132	18	-147	-15852	-1376	-3296	-18	-12	-57	-16228	2192	-736	123	88	52	122	114	8
-11012	-2872	11264	-98	165	-166	-16436	1292	-2216	4	-18	186	-16028	892	-2852	-80	-50	166	-10384	2540	12980	134	-41	-180	-15848	-1380	-3220	-14	23	-45	-16108	2148	-620	174	67	108	122	114	8
-11072	-2872	11104	-115	152	-149	-16488	1344	-2264	-19	-22	181	-15996	908	-2788	-130	-41	180	-10316	2512	13148	128	-23	-159	-15860	-1460	-3164	14	30	-23	-16184	2156	-556	116	60	140	122	114	8
-11036	-2828	11188	-140	152	-185	-16448	1264	-2284	-102	-35	179	-15924	776	-2960	-190	-27	191	-10368	2524	13044	125	-27	-165	-15856	-1452	-3244	8	42	-10	-16312	2044	-640	101	82	137	122	113	8
-11092	-2928	11144	-117	161	-162	-16528	1228	-2216	-107	-7	197	-16036	740	-2908	-135	-26	195	-10320	2532	13060	118	-14	-166	-15872	-1460	-3232	-26	32	-7	-16316	2020	-660	117	115	150	122	114	8
-11060	-2948	11172	-94	142	-130	-16472	1208	-2144	-135	-12	259	-15980	620	-2808	-51	2	229	-10304	2540	12980	86	9	-164	-15780	-1484	-3236	-107	67	18	-16220	2108	-724	132	137	193	122	114	8
-11092	-2936	11080	-62	146	-150	-16484	1188	-2124	-65	6	260	-16076	696	-2652	18	-42	312	-10324	2592	13024	98	-2	-165	-15824	-1544	-3236	-107	111	40	-16220	2100	-648	139	162	246	122	114	8
-11092	-2828	11172	-119	146	-115	-16468	1296	-2100	17	47	298	-16064	776	-2648	62	-33	369	-10376	2488	12996	108	-27	-139	-15792	-1520	-3148	-52	140	86	-16296	2204	-700	62	151	227	122	113	8
-11056	-2928	11132	-86	153	-139	-16504	1288	-2076	-31	61	325	-15964	896	-2744	-7	-7	359	-10336	2576	13004	148	-3	-152	-15812	-1396	-3372	-217	123	27	-16260	2268	-644	-30	185	241	122	113	8
-11012	-2840	11208	-60	126	-91	-16400	1248	-2076	78	199	373	-16012	860	-2516	-45	-18	350	-10376	2564	13016	138	42	-108	-15832	-1408	-3196	-262	141	60	-16236	2400	-756	-83	251	203	122	114	8
-11024	-2888	11212	-52	112	-100	-16436	1328	-2100	99	199	386	-16000	988	-2824	-122	7	317	-10384	2484	13116	149	27	-151	-15844	-1612	-3328	-260	112	64	-16156	2288	-908	-149	270	202	122	114	8
-11068	-2876	11200	-61	84	-84	-16484	1436	-2292	148	187	374	-15988	1052	-2900	-101	-4	305	-10456	2564	13000	150	5	-103	-15856	-1452	-3256	-160	104	99	-16212	2200	-720	-176	314	185	122	114	8
-11080	-2852	11140	-62	145	-117	-16460	1420	-2396	84	241	356	-15912	964	-2856	-67	43	336	-10384	2516	13044	155	83	-115	-15880	-1244	-3372	-253	112	94	-16284	2352	-804	-75	226	162	122	114	8
-11044	-2796	11256	-63	121	-89	-16420	1480	-2324	59	232	354	-15928	900	-3016	-10	11	311	-10492	2604	12956	154	10	-131	-15876	-1316	-3420	-203	98	53	-16276	2336	-912	-56	221	173	123	114	8
-11008	-2800	11120	-115	97	-145	-16448	1416	-2444	68	174	368	-16032	1008	-3072	90	39	398	-10396	2536	12884	134	45	-147	-15816	-1324	-3344	12	118	62	-16300	2392	-732	129	180	232	123	114	8
-11152	-2888	11224	-59	97	-130	-16456	1432	-2324	141	192	364	-15940	1004	-2992	237	63	426	-10372	2540	13028	125	18	-140	-15860	-1332	-3308	117	119	74	-16192	2332	-896	260	83	224	123	114	8
-11076	-2892	11220	-73	85	-88	-16432	1480	-2496	133	166	335	-15940	1064	-3072	235	57	416	-10424	2532	12996	136	58	-156	-15888	-1300	-3356	77	133	27	-16188	2400	-828	347	94	224	123	114	8
-11068	-2896	11276	-85	109	-133	-16476	1504	-2256	133	207	344	-15908	1196	-2864	206	34	366	-10348	2556	12960	152	19	-169	-15816	-1280	-3332	63	99	18	-16188	2484	-788	331	94	176	123	114	8
-11080	-2848	11204	-77	92	-134	-16452	1512	-2440	123	182	278	-15972	1192	-2924	198	8	329	-10364	2568	13056	124	35	-162	-15800	-1256	-3280	19	109	-16	-16228	2524	-652	310	87	141	123	114	8
-11028	-2804	11300	-63	136	-61	-16364	1544	-2484	161	132	299	-16016	1224	-3100	116	29	252	-10436	2576	13068	118	5	-151	-15796	-1312	-3332	105	120	-12	-16252	2452	-692	236	99	134	123	114	8
-11092	-2820	11176	-87	127	-133	-16492	1516	-2312	101	185	227	-15956	1220	-3104	35	24	242	-10360	2504	12936	131	-18	-216	-15900	-1268	-3384	37	117	-45	-16240	2496	-756	173	101	143	123	114	8
-11048	-2848	11172	-81	130	-124	-16420	1492	-2328	6	147	223	-15928	1184	-3160	-40	19	229	-10408	2564	13072	117	26	-173	-15860	-1300	-3300	18	161	-80	-16280	2464	-612	169	110	95	122	113	8
-11000	-2876	11188	-100	83	-148	-16352	1500	-2284	17	170	198	-15992	1096	-2980	-4	17	251	-10416	2564	12992	44	-8	-173	-15872	-1252	-3376	44	185	-121	-16272	2408	-824	56	179	90	122	114	8
-11040	-2816	11212	-133	100	-133	-16428	1456	-2396	71	116	168	-15948	1032	-2944	59	26	218	-10308	2544	13020	108	-43	-197	-15812	-1292	-3444	21	192	-128	-16240	2540	-872	165	99	68	122	113	8
-11060	-2812	11192	-124	115	-141	-16444	1452	-2384	91	120	192	-15996	1000	-2960	151	-35	219	-10344	2512	13020	127	21	-175	-15876	-1332	-3380	87	205	-144	-16304	2328	-868	251	116	46	122	113	8
-11040	-2804	11172	-100	128	-148	-16436	1496	-2372	127	119	164	-16012	1028	-3020	158	-21	275	-10316	2560	12980	95	-18	-203	-15824	-1336	-3300	92	183	-202	-16160	2372	-796	316	60	10	122	114	8
-10984	-2860	11176	-82	98	-150	-16464	1476	-2352	132	172	198	-15896	1036	-2980	222	-25	230	-10432	2508	12884	72	19	-163	-15764	-1360	-3440	239	222	-122	-16160	2300	-832	422	-2	23	122	114	8
-11036	-2884	11224	-65	90	-164	-16468	1452	-2412	166	159	164	-15976	1048	-2980	180	-55	212	-10404	2528	13004	94	53	-218	-15840	-1308	-3536	197	198	-186	-16296	2276	-992	495	-10	27	122	113	8
-11008	-2876	11316	-111	105	-125	-16408	1488	-2340	163	133	165	-15976	1084	-3160	146	-45	196	-10428	2376	13016	105	67	-209	-15804	-1340	-3348	190	166	-164	-16216	2440	-800	594	-55	47	122	114	8
-10984	-2792	11212	-85	85	-154	-16480	1416	-2508	206	137	162	-15856	1092	-3156	115	-68	210	-10376	2584	13080	108	33	-175	-15852	-1356	-3452	136	153	-164	-16208	2392	-1016	643	-72	29	122	114	8
-11040	-2812	11208	-110	89	-164	-16472	1456	-2520	161	147	169	-15900	1200	-3176	79	-79	196	-10456	2484	12992	69	-1	-177	-15800	-1364	-3432	172	137	-149	-16160	2428	-1064	565	-100	24	122	114	8
-11052	-2824	11160	-69	130	-181	-16472	1420	-2444	179	96	158	-15936	1172	-3140	125	-121	198	-10448	2556	12932	91	-36	-188	-15744	-1492	-3560	153	78	-151	-16172	2444	-1140	464	-106	36	122	114	8
-11032	-2924	11260	-102	113	-168	-16404	1408	-2512	157	80	133	-15940	1140	-3056	88	-180	145	-10440	2508	13020	72	19	-188	-15788	-1448	-3508	133	61	-124	-16124	2500	-1276	378	-94	50	122	113	8
-11016	-2888	11156	-80	85	-133	-16424	1524	-2540	180	37	127	-15948	1160	-3092	114	-190	117	-10408	2532	13020	134	-8	-157	-15812	-1472	-3572	28	-29	-119	-16216	2444	-1200	271	-81	9	122	113	8
-11072	-2844	11224	-129	86	-146	-16396	1612	-2480	115	-9	119	-15860	1264	-3072	113	-157	98	-10396	2548	13044	99	9	-172	-15836	-1472	-3536	32	-86	-136	-16180	2404	-1036	151	-6	-39	123	114	8
-11072	-2852	11316	-147	146	-151	-16452	1552	-2592	77	38	30	-15868	1224	-3136	60	-164	90	-10416	2516	12916	101	-45	-168	-15740	-1444	-3488	71	-92	-86	-16224	2416	-996	125	-58	-63	123	114	8
-11056	-2860	11232	-131	118	-172	-16340	1508	-2484	115	-46	60	-15908	1188	-3104	88	-177	81	-10412	2488	12924	119	-6	-120	-15772	-1420	-3372	29	-108	-112	-16156	2388	-884	135	-89	-58	122	114	8
-11048	-2920	11172	-149	142	-159	-16464	1516	-2572	111	-62	-6	-15932	1080	-3048	153	-170	81	-10420	2532	12980	111	-11	-178	-15836	-1380	-3508	8	-145	-115	-16176	2364	-816	135	-94	-32	122	114	8
-10984	-2904	11200	-94	132	-194	-16432	1472	-2380	91	-112	-7	-16028	1080	-3068	111	-172	38	-10388	2560	13040	70	-58	-136	-15800	-1316	-3388	57	-109	-156	-16256	2356	-956	196	-126	-26	122	114	8
-11052	-2820	11164	-129	130	-165	-16492	1472	-2360	80	-87	9	-16024	1000	-3072	124	-156	67	-10388	2532	12908	119	-20	-153	-15848	-1388	-3520	49	-131	-132	-16276	2416	-852	230	-118	-63	122	114	8
-11008	-2936	11252	-163	146	-186	-16428	1472	-2696	118	-96	35	-15964	1084	-2992	151	-211	45	-10412	2528	13048	94	-52	-156	-15816	-1452	-3364	36	-148	-147	-16224	2348	-852	279	-152	-114	122	114	8
-10968	-2856	11336	-165	154	-239	-16440	1456	-2392	145	-99	-9	-15980	1092	-2940	149	-213	20	-10472	2496	12912	116	-59	-139	-15804	-1472	-3348	68	-161	-152	-16236	2308	-864	322	-177	-130	122	114	8
-11044	-2868	11360	-127	177	-171	-16516	1468	-2476	73	-102	-10	-15880	1232	-2932	70	-205	-3	-10364	2544	13008	81	20	-209	-15840	-1368	-3352	61	-127	-131	-16280	2348	-800	350	-217	-107	122	114	8
-11080	-2856	11240	-154	165	-198	-16404	1448	-2552	51	-130	-34	-15912	1140	-2932	35	-210	-22	-10360	2480	12976	91	-99	-163	-15832	-1472	-3432	111	-103	-239	-16212	2364	-704	355	-222	-107	122	114	8
-11020	-2872	11260	-131	105	-208	-16452	1384	-2404	79	-103	-50	-15984	1004	-3036	32	-239	-38	-10376	2456	12916	73	-98	-172	-15800	-1360	-3372	120	-96	-232	-16208	2408	-760	325	-190	-121	122	114	8
-11040	-2860	11136	-133	141	-182	-16496	1328	-2344	106	-119	-39	-15972	980	-3020	53	-246	-47	-10388	2536	13012	71	-38	-174	-15764	-1440	-3380	32	-111	-226	-16288	2316	-864	357	-247	-122	122	114	8
-11048	-2844	11224	-95	179	-191	-16488	1324	-2492	101	-130	-58	-15996	992	-2952	71	-248	-30	-10484	2548	13112	66	-60	-187	-15812	-1524	-3592	135	-114	-229	-16224	2272	-1000	385	-248	-146	122	114	8
-11016	-2856	11212	-131	124	-206	-16456	1408	-2540	85	-149	-32	-15976	960	-3012	85	-278	-32	-10412	2500	13064	104	-7	-164	-15836	-1484	-3408	128	-181	-187	-16220	2260	-956	491	-296	-163	122	114	8
-11028	-2852	11208	-146	133	-205	-16524	1376	-2516	142	-165	-77	-15932	992	-3068	103	-304	-15	-10380	2480	13000	116	-36	-141	-15852	-1580	-3460	205	-217	-188	-16184	2208	-1040	567	-318	-137	122	114	8
-11068	-2816	11244	-171	135	-196	-16472	1424	-2432	125	-172	-61	-15984	1076	-3156	145	-239	-38	-10384	2544	13148	113	-44	-174	-15844	-1576	-3620	325	-271	-142	-16276	2300	-832	590	-333	-142	122	114	8
-11040	-2876	11324	-123	140	-207	-16436	1424	-2468	156	-217	-50	-16000	1072	-3048	164	-274	-29	-10408	2504	13048	135	-25	-146	-15816	-1552	-3336	249	-311	-129	-16200	2280	-820	551	-320	-130	123	114	8
-11084	-2820	11256	-123	98	-200	-16468	1396	-2536	118	-235	-76	-15916	960	-3100	185	-274	-15	-10408	2512	13064	111	-48	-135	-15832	-1488	-3452	227	-333	-112	-16224	2356	-836	469	-273	-168	123	114	8
-11004	-2804	11204	-139	151	-234	-16420	1384	-2476	132	-236	-110	-15984	948	-3100	89	-317	-62	-10364	2552	12908	102	-54	-142	-15804	-1376	-3360	185	-369	-164	-16264	2336	-728	416	-287	-187	122	114	8
-11068	-2808	11232	-127	85	-203	-16412	1420	-2448	103	-280	-115	-15940	1032	-3068	91	-324	-50	-10420	2520	12996	68	-44	-157	-15732	-1416	-3272	188	-387	-130	-16260	2288	-668	334	-290	-176	122	114	8
-11076	-2864	11244	-99	136	-226	-16500	1328	-2508	103	-311	-159	-15944	1076	-2988	86	-288	-119	-10392	2608	13128	105	-55	-139	-15856	-1508	-3344	212	-384	-145	-16248	2176	-752	377	-276	-134	122	113	8
-11056	-2856	11248	-158	132	-214	-16460	1332	-2412	104	-319	-155	-15972	1008	-2924	62	-276	-158	-10404	2496	13012	35	-59	-124	-15832	-1452	-3312	169	-399	-187	-16300	2048	-680	419	-321	-196	122	113	8
-11032	-2864	11144	-149	148	-233	-16444	1388	-2344	48	-327	-154	-15928	888	-2944	92	-295	-82	-10324	2532	13056	96	-17	-148	-15864	-1524	-3232	143	-362	-180	-16256	2212	-744	375	-354	-212	122	113	8
-11028	-2832	11224	-158	153	-221	-16460	1252	-2416	81	-331	-209	-16004	916	-2988	200	-300	-90	-10412	2564	13060	59	-42	-117	-15792	-1556	-3212	190	-386	-155	-16116	2196	-612	326	-263	-162	122	113	8
-11096	-2876	11288	-148	140	-228	-16480	1288	-2392	172	-344	-210	-16068	860	-2772	276	-297	-47	-10416	2564	13052	90	-84	-128	-15844	-1488	-3228	176	-405	-193	-16328	2168	-660	335	-291	-180	122	114	8
-11012	-2880	11240	-169	138	-236	-16512	1284	-2344	156	-356	-172	-16028	812	-2760	295	-275	-28	-10380	2556	12964	91	-42	-173	-15872	-1592	-3220	141	-345	-171	-16280	2140	-520	314	-310	-186	122	113	8
-10908	-2800	11164	-141	124	-280	-16488	1148	-2192	178	-356	-163	-16092	800	-2896	302	-246	-47	-10388	2560	13036	84	-44	-119	-15824	-1464	-3172	141	-314	-199	-16244	2212	-452	307	-336	-141	122	113	8
-11000	-2892	11224	-147	116	-217	-16420	1180	-2220	178	-295	-169	-16004	780	-2716	319	-277	-62	-10380	2528	13104	89	-86	-148	-15880	-1504	-3084	159	-268	-229	-16280	2048	-344	369	-324	-87	122	114	8
-11004	-2952	11268	-172	144	-208	-16456	1212	-2232	130	-268	-173	-16040	784	-2736	346	-269	-36	-10384	2516	13064	90	-50	-145	-15804	-1568	-3072	129	-249	-232	-16292	2004	-468	396	-350	-155	123	114	8
-11084	-2968	11184	-139	114	-208	-16520	1100	-2260	236	-229	-140	-16028	788	-2820	356	-244	-29	-10376	2560	12912	80	-56	-143	-15868	-1596	-3112	184	-239	-221	-16312	2160	-368	451	-378	-100	122	113	8
-11008	-2920	11228	-152	123	-237	-16532	1140	-2028	264	-185	-89	-16104	688	-2692	352	-282	-14	-10360	2572	13028	98	-42	-170	-15776	-1596	-3240	218	-232	-201	-16224	2048	-564	661	-335	-103	122	114	8
-11084	-2872	11188	-155	100	-202	-16504	1132	-2184	298	-198	-100	-15996	696	-2704	389	-252	-21	-10360	2436	13036	58	-33	-139	-15792	-1616	-3092	197	-195	-215	-16292	2024	-672	606	-346	-145	121	113	8
-11000	-2892	11200	-119	91	-188	-16520	1164	-2204	237	-165	-96	-16020	716	-2720	340	-261	34	-10404	2484	12984	77	-52	-153	-15816	-1640	-3124	250	-234	-234	-16272	1996	-508	601	-367	-147	122	114	8
-11044	-2928	11216	-142	72	-197	-16528	1160	-2140	256	-97	-131	-15952	752	-2904	347	-257	42	-10376	2520	13080	62	-51	-134	-15820	-1660	-3096	278	-192	-187	-16272	2044	-512	559	-272	-135	122	113	8
-11024	-2956	11168	-150	81	-201	-16500	1184	-2164	318	-130	-104	-15988	884	-2820	381	-239	47	-10404	2500	13060	100	-48	-157	-15836	-1608	-3104	227	-217	-175	-16308	2184	-516	540	-241	-111	121	113	8
-10952	-2896	11200	-107	119	-213	-16532	1172	-2324	257	-122	-93	-16048	760	-2844	380	-184	61	-10296	2532	12904	102	-19	-134	-15816	-1588	-3240	188	-238	-179	-16336	2064	-536	417	-230	-127	122	114	8
-11080	-2920	11280	-118	108	-182	-16536	1052	-2244	227	-100	-68	-16032	732	-2860	376	-183	54	-10312	2532	13092	105	-65	-134	-15828	-1636	-3108	235	-231	-161	-16224	2088	-516	328	-198	-140	122	114	8
-10992	-2920	11240	-93	115	-242	-16532	1092	-2248	152	-139	-53	-16016	748	-2692	344	-228	49	-10412	2516	13048	78	-6	-171	-15844	-1648	-3156	185	-216	-117	-16276	2028	-420	293	-153	-133	122	114	8
-11020	-2912	11208	-112	144	-206	-16528	1080	-2192	75	-92	-49	-16100	752	-2868	252	-176	64	-10320	2552	12908	96	-72	-147	-15836	-1660	-3108	197	-197	-177	-16252	2040	-384	291	-140	-137	123	114	8
-10980	-2924	11120	-138	113	-184	-16520	1084	-2212	35	-114	-57	-16024	732	-2732	205	-156	46	-10348	2492	12956	86	-65	-156	-15804	-1576	-3016	168	-188	-128	-16248	1968	-424	318	-134	-114	123	114	8
-11032	-2976	11244	-106	138	-241	-16552	1036	-2140	55	-88	-19	-16104	728	-2716	123	-153	45	-10392	2504	12936	75	-45	-164	-15796	-1608	-2984	135	-124	-164	-16188	1976	-436	313	-110	-88	123	114	8
-11020	-2860	11228	-151	109	-215	-16468	1124	-2104	83	-21	3	-15984	728	-2800	104	-201	15	-10340	2488	13004	93	-88	-173	-15792	-1520	-3084	82	-142	-231	-16376	1988	-352	386	-190	-41	123	114	8
-11004	-2924	11124	-124	134	-236	-16440	1048	-2244	158	-110	-27	-16032	696	-2740	104	-124	37	-10352	2564	13044	89	-69	-178	-15836	-1672	-3012	90	-81	-182	-16316	1936	-392	411	-154	-85	123	114	8
-10992	-2924	11184	-154	134	-193	-16504	1108	-2216	94	-42	-22	-16076	616	-2716	135	-134	66	-10280	2524	13080	92	-34	-162	-15844	-1644	-3020	126	-73	-175	-16252	1968	-472	406	-149	-14	123	114	8
-11064	-2936	11176	-136	144	-170	-16468	1016	-2272	139	-94	3	-15996	604	-2708	184	-130	69	-10392	2528	12944	103	-49	-174	-15824	-1696	-3024	76	-44	-150	-16252	1928	-384	434	-141	24	123	114	8
-10968	-2960	11260	-141	137	-190	-16552	1044	-2244	167	-25	-3	-15976	664	-2820	174	-72	127	-10360	2576	12928	88	0	-187	-15812	-1664	-3024	102	-46	-165	-16268	2008	-484	404	-102	10	123	114	8
-10992	-2960	11240	-122	129	-195	-16512	1004	-2272	165	-81	-11	-16032	668	-2728	222	-42	129	-10364	2524	13012	73	-19	-154	-15876	-1744	-3020	48	-51	-87	-16248	2048	-436	364	-36	15	123	114	8
-11000	-2944	11300	-126	145	-186	-16536	1008	-2200	159	-81	29	-16008	660	-2884	256	-21	149	-10424	2520	12976	71	3	-158	-15808	-1708	-3256	125	-56	-98	-16288	1940	-588	352	-3	-6	123	114	8
-11056	-3020	11228	-126	155	-202	-16524	1000	-2156	56	-70	67	-16020	680	-2708	244	-18	145	-10376	2508	13004	107	-17	-148	-15828	-1708	-3092	56	-54	-94	-16280	1964	-480	314	38	-21	123	114	8
-10976	-2892	11200	-127	129	-159	-16524	932	-2044	154	-56	79	-16036	632	-2744	200	-1	124	-10332	2488	12992	101	-6	-174	-15836	-1700	-3152	38	-41	-112	-16356	2092	-452	240	93	19	123	114	8
-10996	-2924	11244	-104	123	-202	-16484	1004	-2132	153	-4	77	-16068	696	-2736	162	-11	165	-10376	2540	13020	112	-12	-130	-15852	-1696	-3040	61	-13	-120	-16320	1984	-512	226	33	7	122	114	8
-10988	-2944	11160	-125	144	-166	-16524	1084	-2140	98	-32	86	-15940	640	-2756	94	-23	182	-10368	2504	13048	124	-34	-154	-15788	-1728	-3096	57	-10	-86	-16260	1940	-544	226	59	23	122	114	8
-10968	-2992	11284	-129	144	-149	-16520	928	-2120	110	-23	119	-15972	588	-2788	67	3	169	-10420	2528	13000	105	-23	-158	-15904	-1720	-3068	-8	-25	-111	-16292	1924	-580	218	47	32	122	114	8
-11052	-2956	11264	-147	195	-146	-16556	976	-2116	179	-59	91	-16028	616	-2968	67	28	153	-10364	2492	12988	114	-6	-161	-15820	-1760	-3180	5	-6	-66	-16268	1976	-500	255	65	31	122	114	8
-11024	-2880	11244	-78	144	-137	-16548	1056	-2316	118	-93	109	-15936	632	-2992	58	3	196	-10444	2436	12984	87	-12	-172	-15840	-1748	-3072	-7	-12	-60	-16308	1848	-460	225	67	64	122	114	8
-11044	-2956	11228	-111	164	-123	-16436	1088	-2220	8	-118	104	-15908	696	-3156	141	19	207	-10380	2560	12972	105	-13	-159	-15720	-1760	-3164	24	-26	5	-16236	1960	-644	325	62	123	123	114	8
-10996	-2864	11388	-118	137	-172	-16480	1112	-2248	39	-118	129	-15972	752	-3000	189	48	293	-10368	2484	13024	105	0	-145	-15884	-1664	-3132	14	-60	-15	-16308	1940	-516	331	55	84	123	114	8
-11056	-2964	11268	-135	152	-180	-16512	1032	-2220	130	-151	111	-16000	692	-2788	295	96	292	-10396	2508	13084	105	-7	-159	-15804	-1756	-3064	70	-39	24	-16344	1924	-356	271	48	148	123	114	8
-11048	-2968	11184	-108	188	-152	-16516	988	-2108	57	-168	149	-16048	580	-2784	422	92	303	-10360	2564	13064	145	52	-120	-15824	-1616	-3144	63	-47	66	-16208	2052	-424	193	98	152	123	114	8
-11028	-2892	11288	-106	147	-217	-16528	972	-2040	78	-120	158	-16056	632	-2760	379	97	269	-10340	2500	12996	140	-3	-78	-15816	-1664	-3232	-13	20	-19	-16332	2048	-424	137	147	100	123	114	8
-10956	-2996	11236	-88	122	-186	-16572	896	-2008	92	-94	160	-16152	660	-2728	235	36	267	-10396	2480	13104	111	8	-154	-15912	-1600	-3116	-54	11	36	-16300	2080	-428	147	134	124	122	114	8
-10956	-2936	11192	-92	157	-139	-16428	932	-2084	167	-2	197	-16104	752	-2740	82	-11	209	-10404	2480	12896	115	25	-161	-15824	-1676	-3092	-6	-21	-37	-16260	2000	-484	171	140	112	122	114	8
-11008	-2992	11092	-86	134	-147	-16544	1016	-2104	40	27	189	-16000	808	-2752	-47	-8	203	-10372	2524	13000	124	-7	-158	-15788	-1596	-3004	8	-8	-30	-16296	1956	-488	131	95	113	122	114	8
-10988	-2980	11276	-85	134	-135	-16512	984	-2180	59	20	230	-15964	756	-2916	-143	-45	187	-10396	2524	13072	107	-12	-136	-15848	-1656	-2972	-43	8	-50	-16292	1980	-560	105	113	134	122	114	8
-11028	-2972	11120	-60	114	-122	-16532	1056	-2332	70	15	197	-15948	744	-3056	-239	-37	162	-10408	2516	12968	148	21	-175	-15892	-1648	-3116	-20	16	25	-16288	2012	-320	138	125	133	122	114	8
-10992	-2872	11300	-89	126	-98	-16524	1032	-2320	-5	6	217	-15900	728	-2944	-215	-39	192	-10380	2508	13040	140	15	-123	-15852	-1648	-3164	-37	32	-3	-16280	2020	-480	106	103	140	122	114	8
-10888	-2992	11272	-135	145	-115	-16504	1056	-2268	-30	9	202	-16016	832	-3000	-204	-1	209	-10396	2436	12992	136	11	-154	-15840	-1696	-3220	-77	43	-20	-16268	1992	-584	120	187	150	122	114	8
-11008	-2940	11124	-93	144	-125	-16500	1056	-2216	50	-90	232	-15956	720	-2944	-106	21	237	-10368	2456	13020	161	-21	-127	-15816	-1636	-3172	-83	26	32	-16276	2000	-556	51	186	142	122	114	8
-11004	-2956	11152	-125	174	-128	-16392	1152	-2272	-66	-114	243	-15952	772	-2944	-33	42	270	-10324	2500	13076	127	27	-167	-15888	-1656	-3188	-81	-19	34	-16232	2000	-552	-20	240	153	122	113	8
-11028	-2988	11236	-121	202	-141	-16540	1100	-2268	-53	-125	223	-15996	788	-2968	8	40	271	-10436	2568	13040	135	24	-142	-15856	-1644	-3184	-124	-17	28	-16232	2016	-568	-70	262	134	122	114	8
-10964	-2900	11224	-98	192	-116	-16492	1080	-2288	-62	-110	205	-15912	816	-2964	-3	70	255	-10344	2500	13052	149	60	-154	-15832	-1720	-3216	-52	-66	48	-16292	2076	-568	-95	297	172	122	113	8
-10948	-2872	11224	-109	197	-117	-16532	1096	-2140	-54	-135	211	-15964	828	-2944	-101	77	251	-10356	2576	13020	145	-24	-128	-15808	-1632	-3100	-97	-25	35	-16284	2112	-400	-118	312	159	122	114	8
-11052	-2900	11284	-115	202	-126	-16480	1096	-2132	-105	-98	199	-16000	804	-2876	-161	98	234	-10432	2492	12892	132	-6	-155	-15852	-1584	-2988	-179	-21	67	-16248	2076	-588	-151	305	121	122	114	8
-11000	-2920	11328	-101	205	-143	-16468	1068	-2012	-182	-75	205	-15980	792	-2852	-176	127	226	-10432	2568	12992	153	-39	-147	-15860	-1584	-3112	-175	33	62	-16232	2108	-584	-191	332	135	122	114	8
-10992	-2860	11168	-133	220	-133	-16480	1052	-2012	-161	-124	208	-16000	800	-2820	-240	82	203	-10380	2616	12980	134	12	-150	-15772	-1612	-3120	-86	20	36	-16260	2096	-592	-130	300	185	122	114	8
-10972	-2956	11288	-88	206	-159	-16620	1052	-1948	-93	-44	199	-16024	768	-2832	-223	81	182	-10392	2608	12984	154	5	-175	-15808	-1648	-3164	-119	11	13	-16320	1980	-640	-77	300	166	122	114	8
-11016	-2888	11192	-135	185	-125	-16472	1116	-2048	-84	3	231	-15976	768	-2688	-164	114	196	-10404	2540	13072	159	-19	-140	-15820	-1536	-3108	-161	19	16	-16292	2048	-584	-64	335	115	123	114	8
-10984	-2932	11160	-96	198	-127	-16480	1092	-1936	-123	48	207	-16016	756	-2728	-108	26	198	-10416	2548	13064	112	7	-177	-15832	-1596	-3184	-134	71	10	-16348	2100	-588	-47	321	124	122	114	8
-11012	-2960	11196	-127	210	-124	-16536	1084	-1892	-67	70	208	-15948	668	-2968	-71	123	184	-10520	2476	12944	148	-20	-159	-15880	-1560	-3160	-61	63	7	-16224	2132	-572	-40	344	101	122	114	8
-11044	-2956	11264	-120	162	-123	-16448	1076	-2120	40	122	253	-16036	856	-2824	-50	61	237	-10416	2540	13024	141	-39	-119	-15740	-1528	-3224	-73	127	-20	-16248	2112	-468	-14	351	169	122	114	8
-11016	-2960	11124	-88	183	-115	-16536	1048	-2120	47	117	250	-15968	816	-2936	-7	89	237	-10388	2512	13032	108	31	-164	-15804	-1576	-3144	-134	126	-41	-16232	2092	-492	2	341	134	122	114	8
-10972	-2960	11216	-102	170	-162	-16520	1080	-2020	-18	173	258	-15932	776	-2912	-48	125	221	-10332	2520	13032	113	-30	-175	-15864	-1580	-3124	-86	181	-56	-16316	2140	-548	31	327	149	122	114	8
-10948	-2840	11132	-66	151	-92	-16540	1092	-2116	-22	231	255	-16020	844	-2908	-59	103	226	-10428	2480	13060	84	10	-172	-15776	-1500	-3116	-104	210	-73	-16292	2136	-604	55	359	139	122	114	8
-11036	-2936	11184	-60	128	-135	-16500	1072	-2100	38	225	258	-15988	828	-2936	-71	57	239	-10344	2540	13068	68	-29	-161	-15812	-1556	-3124	-117	196	-88	-16316	2152	-628	40	345	124	122	114	8
-11072	-2876	11188	-75	157	-124	-16460	1088	-2140	84	276	284	-16056	756	-2908	-49	76	218	-10364	2528	12948	96	-24	-163	-15912	-1628	-3204	-141	269	-100	-16200	2240	-680	-16	319	140	122	114	8
-10984	-2896	11248	-64	189	-120	-16480	1096	-2184	35	248	261	-15976	804	-3120	-87	62	215	-10388	2484	13032	93	-50	-179	-15796	-1624	-3300	-136	282	-116	-16212	2168	-644	32	322	163	122	114	8
-11036	-2916	11152	-83	179	-107	-16516	1152	-2220	37	282	278	-15936	872	-3008	-79	92	225	-10444	2516	12996	87	-52	-153	-15820	-1600	-3196	-124	278	-121	-16292	2124	-740	96	311	115	122	114	8
-11016	-2904	11152	-63	169	-107	-16448	1180	-2204	33	317	264	-15912	876	-3060	-38	103	226	-10416	2556	12992	103	-13	-179	-15856	-1564	-3228	-77	313	-107	-16264	2128	-812	27	355	124	122	114	8
-11012	-2836	11328	-48	190	-122	-16488	1148	-2340	74	294	253	-15992	856	-3108	-67	118	226	-10408	2532	13084	94	2	-185	-15836	-1628	-3400	-96	274	-122	-16212	2104	-888	37	333	114	122	114	8
-11060	-2872	11208	-120	173	-95	-16500	1164	-2304	46	245	261	-15920	932	-3300	-14	95	255	-10376	2488	13056	122	0	-174	-15876	-1620	-3340	-69	254	-91	-16292	2064	-804	95	357	107	122	114	8
-11036	-2864	11176	-46	182	-110	-16468	1192	-2412	80	220	286	-15960	840	-3120	4	122	244	-10428	2496	12956	115	54	-174	-15780	-1660	-3420	-69	240	-71	-16228	2080	-868	58	376	118	122	114	8
-11000	-2868	11248	-82	167	-120	-16504	1144	-2324	54	241	226	-15932	916	-3052	-41	119	247	-10432	2496	12976	128	0	-184	-15800	-1644	-3348	-58	267	-107	-16224	2104	-896	-38	356	68	122	114	8
-11044	-2924	11244	-108	182	-130	-16460	1208	-2312	61	233	226	-15932	884	-3120	-48	108	210	-10396	2456	12988	115	8	-169	-15824	-1532	-3256	-31	191	-71	-16204	2228	-936	50	437	109	122	114	8
-11148	-2936	11284	-84	177	-131	-16576	1228	-2292	73	222	258	-15920	920	-3260	-75	120	199	-10340	2480	13000	106	-14	-183	-15872	-1660	-3388	-20	221	-59	-16224	2132	-860	-23	404	85	122	114	8
-11056	-2984	11208	-44	165	-105	-16472	1224	-2252	63	242	238	-15948	884	-3204	-122	125	169	-10508	2560	13084	145	-22	-143	-15828	-1620	-3436	-60	174	-65	-16180	2188	-928	-93	406	91	122	114	8
-11092	-2880	11232	-116	169	-133	-16436	1244	-2348	36	216	241	-15968	940	-3128	-70	157	204	-10420	2556	12988	122	28	-145	-15776	-1628	-3364	-13	190	-65	-16280	2132	-912	-27	402	97	122	114	8
-11024	-2940	11268	-114	136	-143	-16448	1188	-2488	30	206	203	-15964	848	-3100	-33	139	235	-10344	2524	12884	108	-25	-147	-15840	-1540	-3336	-27	166	-44	-16160	2092	-944	-107	470	64	122	114	8
-11024	-2940	11148	-51	177	-104	-16476	1180	-2320	54	189	221	-15884	828	-3228	39	127	229	-10476	2532	12952	133	12	-183	-15764	-1548	-3304	-41	176	-46	-16264	2264	-800	16	393	144	123	114	8
-11100	-2872	11092	-91	212	-122	-16404	1244	-2340	52	217	243	-15952	840	-3116	55	119	231	-10384	2496	12924	117	-2	-171	-15776	-1536	-3264	-68	214	-125	-16300	2192	-868	-35	386	88	122	114	8
-11064	-2928	11220	-85	169	-127	-16428	1172	-2344	81	207	220	-15960	852	-3164	91	111	239	-10416	2536	13040	121	29	-168	-15844	-1536	-3208	-164	198	-117	-16208	2148	-912	-33	325	67	122	114	8
-11024	-2888	11260	-48	111	-146	-16444	1180	-2392	97	253	186	-15972	844	-3280	22	67	238	-10412	2520	13048	105	4	-192	-15800	-1456	-3316	-133	235	-141	-16308	2204	-932	-39	308	85	122	113	8
-11020	-2952	11164	-52	164	-121	-16516	1200	-2392	80	218	244	-16044	1068	-3184	96	40	276	-10348	2464	13040	108	-28	-156	-15800	-1548	-3268	-130	293	-153	-16324	2188	-924	-19	275	66	122	113	8
-11060	-2856	11148	-61	138	-175	-16392	1248	-2328	74	235	231	-15824	844	-3108	-106	-6	218	-10416	2516	13028	81	1	-149	-15848	-1612	-3376	-134	283	-146	-16180	2112	-1032	1	302	33	122	114	8
-11096	-2968	11192	-90	159	-123	-16504	1188	-2368	103	223	264	-15972	992	-3248	-59	53	243	-10392	2492	13148	71	-31	-193	-15744	-1588	-3512	-126	291	-139	-16236	2236	-1220	87	259	91	122	114	8
-11084	-2864	11228	-105	164	-142	-16516	1228	-2504	109	252	246	-15884	948	-3316	-84	-7	186	-10396	2564	12992	78	-26	-147	-15888	-1672	-3600	-101	249	-130	-16184	2136	-1116	121	193	60	122	114	8
-11128	-2864	11200	-87	164	-132	-16492	1284	-2428	-50	212	227	-15916	864	-3464	-113	-7	224	-10364	2480	13060	111	5	-154	-15764	-1684	-3588	-87	191	-97	-16184	2180	-1248	181	165	116	123	114	8
-11020	-2816	11148	-59	201	-150	-16452	1216	-2500	-4	227	243	-15896	932	-3364	-120	-41	183	-10440	2536	12976	91	-34	-187	-15748	-1676	-3644	-33	195	-69	-16164	2208	-1168	170	160	96	123	114	8
-11032	-2840	11188	-92	179	-151	-16456	1172	-2536	-6	212	198	-15856	904	-3392	-94	-46	199	-10400	2536	12976	86	-18	-181	-15852	-1640	-3468	-29	159	-111	-16252	2204	-1292	57	194	90	123	114	8
-11068	-2824	11276	-137	189	-160	-16460	1208	-2588	49	180	234	-15932	888	-3356	-77	-63	230	-10372	2532	12908	112	-9	-149	-15776	-1640	-3532	-64	114	-116	-16248	2200	-1232	5	175	79	123	114	8
-11092	-2856	11216	-111	164	-148	-16428	1180	-2432	51	102	245	-15944	868	-3448	-44	-76	181	-10396	2560	13032	114	0	-152	-15736	-1628	-3584	-59	88	-84	-16156	2172	-1116	-37	128	89	123	114	8
-11036	-2900	11140	-94	144	-131	-16436	1248	-2564	84	91	204	-15832	924	-3368	-40	-122	197	-10460	2516	12996	76	-28	-153	-15752	-1608	-3456	-57	57	-60	-16144	2208	-1176	-46	133	101	123	114	8
-11100	-2852	11204	-121	162	-146	-16448	1316	-2580	44	111	237	-15928	908	-3472	-92	-107	176	-10432	2524	13048	101	-24	-172	-15872	-1608	-3548	-61	26	-58	-16296	2084	-1148	-71	118	109	123	114	8
-11044	-2876	11180	-119	136	-146	-16512	1276	-2524	97	96	250	-15900	896	-3436	-126	-134	167	-10380	2500	12932	126	-18	-108	-15792	-1636	-3608	-28	28	-19	-16260	2232	-1100	15	51	123	123	114	8
-11064	-2868	11212	-89	119	-99	-16436	1200	-2636	142	-13	202	-15856	900	-3448	-72	-148	133	-10364	2540	13012	111	-26	-147	-15740	-1676	-3508	-94	-19	-35	-16216	2128	-1192	40	46	102	123	114	8
-11116	-2836	11268	-64	79	-155	-16436	1300	-2512	184	-20	219	-15864	912	-3468	-112	-162	162	-10416	2508	12972	104	-31	-175	-15788	-1620	-3556	-80	9	-5	-16256	2160	-1112	43	-20	104	123	114	8
-11060	-2832	11200	-95	76	-156	-16452	1336	-2540	209	-85	216	-15864	868	-3464	-89	-142	185	-10360	2456	13072	103	-1	-148	-15828	-1660	-3588	-107	-22	10	-16212	2224	-1256	20	-43	151	123	114	8
-11072	-2872	11076	-43	90	-123	-16436	1240	-2544	151	-82	198	-15876	932	-3324	-83	-180	198	-10464	2516	13060	123	-32	-110	-15724	-1704	-3556	-81	-56	-5	-16248	2180	-1188	36	-14	107	123	114	8
-11040	-2880	11160	-95	120	-138	-16428	1284	-2540	152	-119	187	-15892	888	-3480	-105	-176	175	-10400	2500	13016	147	54	-128	-15772	-1596	-3544	-81	-106	38	-16216	2176	-1192	15	11	101	123	114	8
-11044	-2868	11268	-92	102	-152	-16440	1280	-2492	47	-115	209	-15924	976	-3272	-67	-198	159	-10420	2512	13000	118	-62	-149	-15780	-1636	-3608	-75	-107	-16	-16160	2172	-1120	12	-34	132	123	114	8
-11068	-2856	11268	-126	137	-172	-16496	1240	-2380	72	-115	186	-15948	900	-3288	-51	-186	189	-10416	2504	12988	90	13	-106	-15780	-1576	-3532	-85	-141	55	-16172	2208	-1180	24	-48	128	123	114	8
-11040	-2888	11120	-115	134	-190	-16476	1292	-2436	64	-139	204	-15976	876	-3192	-20	-193	163	-10412	2464	12916	127	-24	-116	-15784	-1528	-3516	-15	-147	60	-16164	2176	-1104	91	-81	124	122	114	8
-11072	-2868	11224	-97	113	-157	-16496	1292	-2472	62	-123	236	-15892	928	-3128	-4	-187	185	-10420	2548	13024	115	-27	-117	-15792	-1484	-3516	-18	-153	42	-16200	2268	-1068	75	-50	139	123	114	8
-11028	-2848	11216	-104	139	-161	-16448	1316	-2396	50	-146	235	-15960	920	-3240	-37	-219	189	-10404	2516	13080	129	1	-130	-15764	-1580	-3368	-55	-185	-5	-16180	2204	-1160	109	-38	83	123	114	8
