#Activity	standing 
#ActivityID	8 
#Date 08-27-18-29
acc_rf_x	acc_rf_y	acc_rf_z	gyro_rf_x	gyro_rf_y	gyro_rf_z	acc_rs_x	acc_rs_y	acc_rs_z	gyro_rs_x	gyro_rs_y	gyro_rs_z	acc_rt_x	acc_rt_y	acc_rt_z	gyro_rt_x	gyro_rt_y	gyro_rt_z	acc_lf_x	acc_lf_y	acc_lf_z	gyro_lf_x	gyro_lf_y	gyro_lf_z	acc_ls_x	acc_ls_y	acc_ls_z	gyro_ls_x	gyro_ls_y	gyro_ls_z	acc_lt_x	acc_lt_y	acc_lt_z	gyro_lt_x	gyro_lt_y	gyro_lt_z	EMG_r	EMG_l	act
-8652	-6688	11716	-22	51	13	-16008	800	-3568	-34	37	4	-15208	4520	-3632	-45	21	20	-9056	6280	12528	20	7	-15	-15968	3104	-3920	-14	62	24	-15736	4016	-3336	-62	88	6	122	129	8
-8656	-6896	11660	-24	45	7	-15928	744	-3408	-42	33	13	-15072	4640	-3696	1	34	15	-9448	6080	12184	19	17	-17	-15784	3064	-4152	-50	64	19	-15728	3744	-3568	-69	77	-3	123	128	8
-8676	-6948	11604	-23	54	7	-15984	680	-3200	-23	27	5	-15016	4816	-3352	-7	24	28	-8936	6552	12592	20	15	-11	-15904	3184	-4240	-31	72	18	-15544	3520	-3592	-60	61	-7	121	129	8
-8612	-6864	11572	-24	45	2	-15936	760	-3104	-23	26	8	-15288	4872	-3448	-21	3	44	-9296	6240	12440	5	17	-17	-15920	3328	-4512	-55	58	18	-15472	3672	-3768	-27	66	-5	122	129	8
-8668	-6736	11604	-31	32	2	-15864	752	-3224	-15	29	4	-15336	4728	-3408	-34	-6	43	-9216	6352	12584	4	11	-13	-15800	3000	-4472	-45	51	13	-15240	3920	-3952	-42	73	0	123	129	8
-8732	-6808	11568	-13	14	-9	-15912	672	-3352	-7	28	1	-15200	4768	-3176	-37	-22	18	-9312	6192	12320	9	6	-15	-15904	2832	-4344	-22	42	20	-15568	3736	-3920	-63	66	-2	122	129	8
-8460	-7040	11640	-23	15	-8	-16032	760	-3088	2	38	7	-15400	4960	-3648	-25	-6	1	-9168	6328	12664	6	-3	-16	-15880	2984	-4440	-4	43	21	-15520	3544	-4000	-62	59	-11	123	128	8
-8640	-6884	11608	-21	37	3	-15984	784	-3272	9	28	1	-15248	4904	-3344	-38	1	-5	-9392	6288	12528	10	-2	-13	-15768	2968	-4320	-19	34	21	-15712	3288	-3904	-47	46	-14	123	129	8
-8672	-6872	11620	-20	51	1	-16136	720	-3480	9	21	5	-15368	4904	-3472	-38	-1	-5	-9232	6368	12480	15	9	-14	-15792	2816	-4144	-18	29	20	-15608	3392	-3656	-35	41	1	123	129	8
-8664	-6896	11524	-22	71	5	-15688	680	-3648	2	19	7	-15152	4488	-3696	-82	22	6	-9152	6344	12768	14	13	-10	-15976	2952	-4424	-24	23	26	-15560	3528	-3696	-9	42	16	122	129	8
-8788	-6792	11504	-16	61	-4	-15936	800	-3424	-15	7	8	-14880	4472	-3576	-85	23	22	-9224	6272	12504	15	6	-16	-15840	2912	-4504	-34	20	22	-15448	3528	-3784	-9	43	23	123	129	8
-8752	-6912	11376	-22	42	-9	-15784	568	-3424	-37	8	2	-14904	4384	-3536	-82	24	32	-9272	6000	12456	20	-1	-13	-15840	2736	-4376	-11	17	33	-15480	3344	-3712	-14	30	17	121	129	8
-8732	-6920	11552	-13	28	-6	-16024	424	-3256	-24	-2	10	-15152	4408	-3376	-1	-5	39	-9216	6200	12584	23	5	-16	-15816	3064	-4368	10	19	32	-15568	3360	-3560	-1	22	13	123	129	8
-8732	-6924	11528	-11	15	-8	-15880	448	-3432	-23	6	3	-15216	4328	-3432	16	-16	46	-8960	6352	12608	23	-1	-10	-15856	3080	-4208	-6	9	40	-15632	3760	-3752	23	18	17	123	129	8
-8772	-7020	11488	1	-15	-11	-15808	544	-3448	-19	12	17	-15096	4232	-3392	8	-37	39	-9216	6336	12728	30	4	-9	-15848	3088	-4416	-5	11	37	-15544	3848	-3848	14	22	22	121	129	8
-8668	-6788	11588	8	-32	-9	-15984	584	-3208	-2	10	12	-15096	4424	-3096	4	-37	39	-9240	6392	12584	24	0	-13	-15808	2992	-4248	-11	-1	40	-15584	3840	-3960	-14	33	31	123	129	8
-8628	-6860	11628	2	-33	-15	-15968	680	-3288	22	5	8	-15248	4752	-3408	22	-28	46	-9200	6176	12456	25	2	-14	-15880	3072	-4480	-11	-12	42	-15424	3568	-3848	-16	26	21	123	129	8
-8792	-6660	11676	4	-7	-11	-15936	992	-3520	26	1	17	-15400	5080	-3432	34	-21	47	-9296	6216	12440	25	0	-8	-15800	3064	-4448	-4	-13	39	-15368	3576	-3864	-16	25	8	123	129	8
-8700	-6724	11668	-1	5	-14	-15984	1056	-3640	1	1	9	-15280	5440	-3264	28	-25	45	-9080	6360	12600	27	-3	-4	-15848	3352	-4240	-3	-11	38	-15432	3776	-3728	-14	15	4	125	129	8
-8648	-6712	11556	-4	11	-19	-15936	904	-3312	-18	-2	-1	-15072	5192	-3392	-10	-18	31	-9216	6232	12360	18	-2	-10	-15896	3304	-4400	-10	-12	39	-15536	3808	-3544	-15	14	10	123	129	8
-8680	-6744	11644	-4	19	-23	-15952	896	-3200	-3	1	11	-15168	5000	-3304	-53	-17	13	-9280	6392	12384	24	1	-7	-15848	3320	-4176	-21	-8	23	-15504	3856	-3696	-28	23	13	124	129	8
-8612	-6836	11596	-9	15	-16	-16032	672	-3120	6	-3	4	-15168	4904	-3280	-63	-15	14	-9192	6312	12392	13	10	-11	-15776	3136	-4344	-13	-15	34	-15376	3688	-3720	-25	19	6	123	129	8
-8696	-6836	11684	-7	20	-13	-16000	688	-3200	22	-7	10	-15104	4672	-3272	-55	-13	2	-9312	6184	12504	18	4	-12	-15880	3088	-4512	-1	-10	28	-15608	3496	-3864	-19	12	-4	123	129	8
-8676	-6808	11608	-7	31	-15	-15904	896	-3512	11	-15	3	-15168	4720	-3440	-41	-12	8	-9064	6344	12432	20	-5	-9	-15816	3264	-4288	-2	-13	27	-15600	3656	-3672	1	5	-9	123	129	8
-8760	-6820	11608	-9	32	-15	-15896	912	-3336	-15	-12	-3	-15184	4568	-3872	-27	-14	19	-9144	6360	12504	21	-9	-16	-15768	3336	-4176	-16	-10	28	-15568	3752	-3656	31	-7	4	122	129	8
-8628	-6812	11520	-7	25	-17	-15912	744	-3296	-24	-19	-10	-15136	4536	-3432	-5	-17	27	-9088	6440	12496	14	-7	-16	-15704	3296	-4120	3	-12	23	-15328	3856	-3520	27	-6	17	124	129	8
-8720	-6756	11532	-9	18	-22	-15744	776	-3200	-7	-12	-7	-15144	4352	-3288	25	-25	30	-9376	6560	12464	5	-16	-29	-15784	2864	-3984	16	-21	41	-15432	3784	-3688	24	-14	22	121	129	8
-8696	-6836	11516	-10	5	-22	-15864	808	-3328	2	-13	-2	-15064	4712	-3376	51	-37	30	-9072	6808	12624	14	-8	-14	-15880	3504	-4616	-1	-15	23	-15376	3648	-3848	38	-12	-3	123	129	8
-8696	-6740	11588	-9	3	-25	-16120	720	-3240	15	-16	-4	-15088	4760	-3328	42	-36	33	-9312	5984	12672	11	-14	-21	-15784	3056	-4312	-4	-25	30	-15512	3576	-4192	22	-12	-11	122	129	8
-8772	-6732	11632	-10	16	-23	-16072	880	-3168	13	-18	6	-15440	5096	-3608	35	-30	30	-9160	6376	12408	14	-12	-8	-15976	3184	-4392	0	-28	27	-15400	3768	-4104	20	2	-5	121	129	8
-8684	-6808	11664	-9	26	-24	-16112	832	-3264	5	-18	-8	-15112	5064	-3304	8	-22	18	-9416	6352	12488	18	-9	-19	-15736	3216	-4504	14	-41	38	-15376	3688	-3872	18	2	19	123	129	8
-8728	-6844	11556	-16	34	-27	-15952	776	-3248	5	-16	-6	-15296	4864	-3688	-18	-10	8	-9144	6280	12432	25	-9	-21	-15808	3032	-4224	17	-53	38	-15488	3592	-3848	19	13	21	123	129	8
-8744	-6872	11648	-17	40	-21	-15968	688	-3048	-8	-20	-6	-15176	4592	-3272	-29	-15	14	-9280	6168	12544	22	-9	-13	-15888	3216	-4128	22	-43	37	-15768	3736	-3512	26	9	9	122	129	8
-8612	-6892	11616	-17	39	-19	-15904	608	-3048	-5	-14	-2	-15304	4424	-3392	-22	-30	5	-9200	6344	12360	18	-3	-14	-15936	3352	-4048	-20	-45	29	-15520	3968	-3608	15	12	7	124	129	8
-8632	-6908	11596	-15	39	-25	-16088	688	-3528	12	-20	-3	-15328	4480	-3680	-10	-30	-3	-9104	6360	12488	16	-1	-14	-15712	3160	-4432	-46	-32	32	-15472	3856	-3568	-11	15	10	122	129	8
-8776	-6820	11520	-18	37	-17	-16072	808	-3368	11	-23	-6	-15152	4824	-3224	-24	-29	-2	-8984	6536	12688	16	-2	-3	-15928	3184	-3944	-14	-26	21	-15608	3720	-3640	-35	16	2	122	129	8
-8684	-6808	11668	-14	29	-21	-15912	800	-3472	-8	-25	-2	-15104	4944	-3448	-48	-24	12	-9328	6120	12568	13	7	-14	-15816	3112	-4176	-30	-27	27	-15648	3568	-3624	-32	9	-8	123	129	8
-8732	-7196	11828	-22	14	-6	-16176	752	-3512	-11	-32	-8	-15248	4952	-3760	-68	-23	13	-9432	5464	12616	20	-1	-22	-15776	3096	-4192	9	-23	32	-15616	3640	-3496	-33	10	-9	123	129	8
-8180	-6472	11916	-10	66	-24	-16032	824	-3400	-32	-28	-8	-15440	4520	-3640	-66	-24	20	-9136	6224	12600	26	-15	-19	-15768	3296	-4016	55	-19	36	-15544	3248	-3368	38	-1	-23	124	129	8
-8832	-6884	11396	-25	18	-18	-15744	752	-3176	-48	-40	-7	-15392	4696	-3448	-58	-29	20	-8960	6368	12592	22	-14	-25	-15976	3328	-3968	43	-32	45	-15544	3344	-3536	47	-3	-13	125	129	8
-8600	-6972	11652	-19	19	-19	-16160	568	-3144	-35	-44	-12	-15296	4680	-3120	-18	-35	1	-9280	6208	12504	21	-9	-25	-15976	3000	-3968	32	-20	34	-15680	3800	-3496	68	-4	29	123	129	8
-8808	-6768	11364	-21	28	-7	-15920	776	-3160	-29	-46	-3	-15376	5000	-3128	-33	-29	6	-9224	6392	12392	23	-7	-18	-15808	3144	-4104	10	-11	26	-15456	3648	-3616	35	-8	7	122	129	8
-8836	-6652	11512	-28	17	-19	-15680	848	-2880	-45	-34	-3	-15144	4696	-3240	-48	-35	1	-9160	6304	12712	18	-5	-11	-15600	3288	-3912	-23	-14	23	-15480	4000	-3776	10	-15	-1	121	129	8
-8620	-6976	11612	-19	15	-18	-16000	712	-3192	-45	-39	-5	-15008	4608	-3248	-61	-46	4	-9208	6480	12616	14	-11	-6	-15784	3368	-4088	-35	-14	23	-15376	3752	-3616	-11	-19	-5	124	129	8
-8780	-6812	11532	-15	14	-18	-15912	656	-3376	-38	-37	-8	-15232	4488	-3160	-59	-42	1	-9184	6368	12504	9	-4	-13	-15752	3240	-4560	-23	-20	31	-15384	3744	-3768	-17	-17	-7	123	129	8
-8780	-6748	11512	-8	18	-22	-16064	736	-3048	-10	-26	-1	-15408	4408	-3360	-41	-38	5	-9280	6448	12512	18	-12	-14	-15824	3136	-4320	-9	-34	41	-15432	3688	-3944	-9	1	0	125	129	8
-8724	-6872	11624	-4	7	-25	-16024	840	-3096	9	-24	6	-15344	4568	-3280	-9	-51	2	-9056	6456	12808	24	-6	-15	-15856	3152	-4200	22	-52	46	-15464	3616	-3696	-13	-1	2	123	129	8
-8684	-6836	11540	-9	29	-17	-16200	744	-3328	19	-29	4	-15336	4792	-3376	-5	-53	6	-8968	6376	12744	26	6	-18	-15904	3088	-4064	4	-61	51	-15304	3616	-4176	0	20	8	123	129	8
-8800	-6640	11584	-7	23	-15	-15896	816	-3200	5	-25	5	-15264	4720	-3280	-21	-51	15	-9272	6168	12584	22	-2	-2	-15888	3184	-4048	-11	-60	52	-15504	3544	-4144	-7	18	5	124	129	8
-8732	-6800	11456	-6	13	-24	-15808	760	-3224	-9	-30	7	-15232	4632	-3096	-26	-49	18	-9064	6584	12872	26	6	3	-15760	3360	-4024	-32	-68	40	-15640	3760	-3640	-34	11	20	121	129	8
-8836	-6844	11508	-4	20	-17	-16024	768	-3200	-14	-30	6	-15264	4488	-3280	-12	-48	13	-9160	6312	12352	19	2	-5	-15816	3456	-3728	-13	-64	52	-15648	3856	-3352	-20	7	21	124	129	8
-8708	-6864	11644	1	13	-18	-15904	608	-3056	-12	-23	10	-15264	4616	-3240	-2	-45	11	-9160	6464	12528	18	-2	-10	-15808	3280	-3816	-6	-61	47	-15456	4000	-3256	-8	1	12	123	129	8
-8672	-6928	11496	4	6	-19	-15944	648	-3088	6	-22	9	-15288	4768	-3280	-2	-56	0	-9328	6416	12488	16	-6	-15	-15832	3256	-3792	6	-56	47	-15544	3704	-3048	-18	-4	6	123	129	8
-8792	-6784	11464	10	11	-11	-15912	784	-3144	11	-25	12	-15416	4760	-3048	-19	-66	-1	-9264	6368	12840	19	-12	-10	-15864	3488	-3864	15	-34	41	-15824	3656	-2992	-24	-24	5	124	129	8
-8656	-6792	11556	3	20	-17	-16208	752	-3032	20	-18	19	-15456	4768	-3128	-34	-65	3	-9048	6568	12592	18	-7	-13	-16008	3472	-3800	-14	-19	38	-15712	3776	-3368	-20	-42	2	123	129	8
-8564	-7064	11664	-2	26	-8	-16120	816	-3320	28	-28	21	-15408	4688	-2976	-43	-72	7	-9232	6408	12296	20	-4	-12	-15880	3344	-3664	-48	-5	37	-15760	3608	-3408	7	-40	15	124	129	8
-8788	-6804	11644	2	38	-3	-16040	664	-3072	15	-16	15	-15408	4712	-2984	-35	-79	15	-9040	6408	12312	29	2	-15	-15848	3272	-4048	-43	-10	33	-15616	3744	-3712	13	-30	30	125	129	8
-8768	-6892	11552	-4	51	-2	-16232	584	-3216	1	-22	16	-15400	4576	-3456	-9	-83	6	-9192	6248	12664	19	6	-11	-15912	3160	-4312	-28	-17	41	-15512	3656	-3656	8	-27	30	123	129	8
-8972	-6780	11572	8	41	5	-15976	704	-3336	3	-14	27	-15360	4712	-3152	-16	-81	0	-9192	6312	12552	24	2	-4	-15736	3328	-3968	-5	-19	42	-15504	3632	-3792	-4	-37	31	126	129	8
-8892	-6608	11484	7	41	5	-15824	832	-2800	-14	-8	26	-15448	4656	-2984	-41	-91	-12	-9208	6568	12728	31	3	-5	-15776	3400	-4296	-41	-13	41	-15456	3480	-3464	7	-33	9	121	129	8
-8820	-6732	11484	-5	36	6	-15832	896	-2936	-15	-10	24	-15432	4792	-2928	-54	-116	-27	-9312	6280	12352	31	-1	-12	-15992	3056	-4136	6	-29	53	-15400	3616	-3688	24	-34	0	122	129	8
-8808	-6752	11444	-1	23	3	-15752	816	-2976	-27	14	28	-15280	4816	-2624	-86	-131	-48	-9120	6416	12736	35	-1	-12	-15928	3448	-3848	32	-33	49	-15544	4088	-3848	31	-33	9	124	129	8
-8796	-6656	11460	20	-2	-6	-15808	760	-2952	-8	36	35	-15144	4824	-2248	-136	-141	-73	-9272	6352	12344	33	-14	-9	-15520	3520	-4024	30	-41	58	-15376	4048	-3552	4	-32	14	122	129	8
-8716	-6704	11508	18	-16	-11	-15848	864	-2632	31	50	37	-15288	4664	-2448	-189	-157	-89	-9272	6392	12400	35	-12	-7	-15608	3424	-3904	16	-25	53	-15432	3592	-3200	-26	-41	-1	125	129	8
-8724	-6752	11732	31	-26	-7	-16096	832	-3312	90	35	27	-15440	4656	-2912	-213	-155	-79	-9224	6336	12312	34	-14	-14	-15824	3560	-3992	7	-17	47	-15544	3592	-3264	-5	-47	2	123	130	8
-8952	-6564	11608	31	-14	-5	-16024	976	-3736	111	26	32	-15280	4792	-3064	-218	-117	-59	-9176	6568	12304	34	-29	-16	-15888	3448	-3888	31	-24	53	-15520	3712	-3576	9	-49	-5	123	127	8
-8936	-6508	11632	23	-3	-14	-16136	1136	-3808	70	4	35	-15344	4944	-3664	-177	-94	-34	-9256	6672	12416	35	-27	-34	-15904	3336	-4184	91	-39	65	-15632	3816	-3656	93	-36	-4	125	128	8
-8816	-6584	11752	5	10	-17	-16216	1416	-3704	-1	-19	18	-15248	4984	-3336	-126	-83	-24	-9192	6256	12432	39	-24	-39	-15896	3592	-3888	108	-47	65	-15480	4048	-3840	99	-35	13	125	128	8
-8764	-6748	11684	1	27	-14	-16008	1056	-3360	-64	-33	1	-15392	4720	-3240	-61	-65	-13	-9128	6272	12680	35	-19	-30	-15816	3488	-4024	71	-44	56	-15488	3824	-3336	80	-37	8	123	129	8
-8700	-6824	11708	-7	28	-14	-16056	696	-3160	-54	-52	-9	-15400	4336	-2952	-18	-56	-7	-9192	6304	12392	38	-13	-28	-15872	3512	-3840	32	-35	44	-15400	3584	-3608	41	-37	6	124	128	8
-9012	-6824	11544	-14	0	-4	-15880	760	-3320	-38	-59	1	-15432	4448	-2696	-11	-47	-3	-9288	6352	12392	39	-18	-16	-15792	3432	-3928	20	-27	40	-15584	3368	-3344	42	-52	11	123	128	8
-8976	-6592	11600	-3	33	-10	-15904	992	-3040	-31	-51	9	-15400	4344	-2696	-5	-60	18	-9224	6640	12472	34	-22	-14	-15704	3408	-4144	26	-30	41	-15400	3944	-3440	77	-49	19	122	129	8
-8828	-6680	11608	-5	26	-15	-16032	1072	-3088	-33	-52	6	-15520	4352	-2512	22	-80	30	-9048	6688	12368	33	-20	-28	-15920	3592	-3944	48	-35	52	-15592	4080	-3096	82	-49	17	121	129	8
-8716	-6760	11712	-9	40	-16	-16136	960	-2672	-33	-40	4	-15768	4312	-2336	61	-102	37	-9264	6232	12528	40	-30	-36	-15952	3432	-3872	72	-38	56	-15592	3920	-3664	74	-46	9	123	129	8
-8776	-6700	11600	-7	65	-11	-16064	824	-2904	-12	-28	10	-15928	4496	-2296	98	-111	24	-9088	6504	12280	39	-24	-31	-15824	3464	-3912	86	-40	48	-15504	3608	-3576	73	-50	10	125	128	8
-8936	-6612	11548	6	64	-22	-15920	896	-2880	21	-8	23	-15768	4416	-1944	95	-135	-5	-9208	6280	12600	29	-21	-23	-15800	3616	-3992	49	-51	50	-15384	3672	-3616	89	-47	20	124	129	8
-8816	-6736	11524	0	38	-16	-15784	744	-2416	25	23	38	-15608	4320	-1960	57	-176	-23	-9168	6520	12624	22	-25	-12	-15944	3616	-3664	21	-47	43	-15536	4056	-3464	65	-32	14	125	129	8
-8656	-6656	11780	1	50	-5	-16136	864	-2448	47	42	26	-15864	4352	-1792	7	-213	-40	-9024	6248	12560	18	-5	-15	-16168	3384	-3968	-10	-49	36	-15968	4280	-3544	33	-19	5	125	129	8
-8636	-6704	11716	-2	98	13	-16304	1008	-2576	62	63	26	-16408	4768	-1488	-20	-215	-64	-9032	6776	12448	27	-5	-14	-15640	3568	-4144	8	-38	27	-15432	4072	-2968	-2	-17	-6	122	129	8
-8980	-6388	11596	-11	105	21	-15632	1200	-3224	56	99	22	-15792	5280	-1360	-57	-209	-112	-9088	6568	12296	21	-22	-14	-15480	3728	-3776	2	-42	37	-15536	4184	-3192	-13	-19	-31	125	129	8
-9024	-6380	11540	-21	67	3	-15536	1360	-2944	7	115	18	-15032	5128	-1752	-187	-209	-157	-9208	6464	12504	20	-13	-25	-16216	3304	-3960	3	-40	42	-15896	3936	-3088	-33	-20	-55	125	128	8
-8788	-6660	11660	-34	69	-6	-16216	1344	-3344	-14	108	15	-15160	5280	-2048	-323	-195	-154	-9192	6392	12600	25	-13	-28	-16112	3432	-4016	12	-29	34	-15744	3720	-3192	-39	-22	-50	126	128	8
-8980	-6608	11792	-33	94	0	-16200	1192	-3416	-25	111	15	-15704	5080	-2592	-387	-172	-127	-9312	6424	12360	21	3	-17	-15880	3704	-3960	-11	-23	25	-15384	3400	-3624	-24	-27	-27	126	129	8
-8920	-6608	11456	-43	117	-2	-15752	1104	-3592	-18	114	29	-15224	4400	-2568	-368	-163	-75	-9264	6328	12160	17	-3	-9	-15680	3648	-3928	-41	-24	24	-15432	3488	-3512	-15	-20	-7	125	129	8
-9024	-6540	11348	-46	85	-15	-15744	992	-3440	-19	113	23	-15024	3872	-2280	-297	-198	-140	-9072	6680	12640	7	-9	-7	-16016	3448	-3856	-37	-18	25	-15512	3728	-3336	4	-23	-10	124	129	8
-9000	-6620	11560	-38	46	-33	-15752	1080	-3464	-48	101	14	-15008	3640	-2104	-207	-189	-130	-9312	6408	12432	10	-4	-17	-15952	3384	-4032	-53	-34	37	-15696	3640	-3616	-2	-38	-14	127	129	8
-9056	-6840	11412	-31	37	-32	-15832	752	-3336	-34	93	17	-15504	3424	-2208	-141	-161	-100	-9232	6368	12272	20	-8	-11	-15968	3320	-3704	-20	-33	33	-15312	3560	-3632	0	-44	-16	124	128	8
-9040	-6952	11528	-20	76	-27	-16512	736	-3264	23	77	29	-16112	3400	-2024	-71	-164	-55	-9136	6416	12464	20	-9	-5	-15792	3488	-3960	-8	-39	38	-15336	3672	-3568	16	-44	-2	124	129	8
-9068	-6888	11576	-21	121	-10	-16360	1008	-3064	71	78	32	-16312	3536	-1960	40	-211	-6	-8992	6536	12264	18	-7	2	-15872	3792	-4032	-44	-57	40	-15440	4056	-3904	4	-34	32	123	129	8
-9036	-6956	11560	-5	163	2	-16136	1088	-3176	77	93	28	-16136	3408	-1832	160	-250	21	-9096	6504	12336	7	-1	-3	-15824	3680	-3680	-65	-53	33	-15520	3928	-3408	-18	-30	35	124	128	8
-8948	-6900	11736	9	186	6	-16144	888	-2904	102	114	31	-16184	3168	-1256	270	-282	21	-9120	6456	12264	12	-1	0	-16056	3696	-3616	-81	-51	23	-15688	3768	-3440	-55	-34	29	121	129	8
-8948	-7244	11572	4	205	7	-16240	1160	-3392	151	130	38	-16504	3264	-872	370	-283	3	-9120	6384	12480	6	4	7	-15856	3464	-3720	-66	-59	29	-15560	3872	-3336	-39	-41	22	123	128	8
-9008	-6592	11452	25	290	12	-16488	1184	-2704	215	144	61	-16720	3456	-744	469	-307	-2	-9016	6528	12448	5	3	9	-15800	3672	-3568	-52	-58	24	-15568	4040	-3112	-28	-49	10	123	129	8
-9080	-6428	11792	67	321	4	-16240	1176	-3040	272	181	93	-16200	3824	-744	527	-335	-38	-9168	6624	12376	0	-2	5	-15752	4008	-3296	-76	-61	16	-15752	4152	-2840	-66	-56	5	122	129	8
-9312	-6388	11616	116	334	-35	-15976	1056	-2920	316	184	137	-15952	3744	-792	544	-355	-57	-9208	6472	12584	-9	4	-11	-15824	3664	-3576	-114	-45	15	-15872	3664	-2872	-80	-60	8	123	128	8
-9352	-6724	11208	233	447	-32	-16064	816	-3136	329	151	123	-15792	3904	-680	524	-370	-63	-9136	6304	12504	4	4	-8	-15896	3056	-3800	-73	-42	13	-15640	3240	-2872	-47	-60	11	123	128	8
-9564	-6692	11660	323	540	-31	-15960	912	-3112	328	143	128	-16152	3968	-368	497	-385	-69	-9136	6336	12480	3	-10	0	-15776	3504	-3648	-29	-45	17	-15608	3120	-3264	11	-68	11	120	128	8
-9448	-6772	11256	371	590	-84	-15856	1216	-3288	379	185	166	-16288	4152	-552	487	-410	-91	-8968	6592	12384	5	-5	5	-15760	3712	-3104	-28	-39	23	-15816	3496	-2880	45	-81	10	124	128	8
-9404	-6328	11596	362	602	-116	-15944	1680	-3144	342	202	171	-15904	4080	-304	473	-447	-114	-9016	6776	12584	-2	-5	-1	-16008	3944	-3168	-65	-18	11	-15928	4152	-2680	25	-85	29	122	129	8
-9884	-6072	11368	353	698	-198	-15448	1872	-4056	407	263	200	-15696	4032	-136	437	-470	-128	-8952	6560	12624	-14	11	-6	-15904	3752	-3568	-119	-7	-2	-15744	4264	-2736	-20	-87	42	124	128	8
-10320	-6860	10860	316	604	-330	-15584	1616	-4176	449	318	229	-15632	3880	-328	381	-456	-138	-9296	6296	12696	-12	14	-5	-15896	3296	-3704	-106	-2	10	-15576	3592	-3080	-40	-94	43	122	128	8
-9304	-5048	12508	452	851	-336	-15696	1672	-4216	471	329	232	-15880	3496	-512	352	-421	-133	-9200	6296	12448	-4	20	12	-16040	3640	-3536	-110	-7	8	-15688	3216	-3280	-57	-91	6	121	128	8
-10080	-5040	11392	255	478	-434	-16104	2112	-4056	654	332	299	-16032	3456	-824	314	-376	-106	-9128	6720	12360	13	19	16	-15928	3704	-3680	-110	-17	7	-15672	3576	-2960	-35	-104	0	125	128	8
-9984	-5752	11388	446	631	-546	-15640	2232	-4128	709	311	309	-16080	3104	-936	286	-341	-52	-9128	6376	12504	8	19	0	-15880	3640	-3664	-86	-15	14	-15776	3744	-2696	1	-100	38	125	129	8
-9544	-5900	11308	515	643	-650	-14280	1624	-4760	805	272	232	-15856	3096	-1088	346	-330	-8	-9264	6376	12472	13	18	-5	-15984	3376	-3760	-57	-17	24	-15776	3560	-3000	-7	-110	53	125	129	8
-9492	-6248	11268	595	527	-744	-15968	1840	-3752	884	209	363	-15616	2976	-1512	524	-311	11	-9040	6696	12440	12	5	-3	-15944	3768	-3496	-5	-25	27	-15688	3384	-3048	13	-113	56	126	129	8
-8288	-6100	12280	664	528	-777	-15568	1608	-3424	974	113	388	-15360	2984	-1408	696	-302	36	-9088	6504	12472	11	16	-7	-16160	3832	-3496	-26	-36	38	-15936	3720	-2840	109	-123	51	128	129	8
-7752	-6284	12512	691	384	-799	-15864	1800	-2688	1034	11	403	-15424	3552	-1280	843	-310	69	-9176	6464	12472	11	17	-11	-15912	3512	-3848	-59	-40	15	-15688	3680	-3112	149	-143	45	132	129	8
-8360	-7368	12148	738	332	-883	-15792	1816	-3040	1091	-86	398	-15584	3976	-848	931	-332	123	-9200	6368	12776	29	4	-11	-16000	3408	-3808	15	-44	19	-15680	3704	-2928	205	-153	62	132	129	8
-7824	-7644	11480	779	346	-1013	-15696	1248	-3256	1120	-150	375	-15592	4096	-608	966	-326	144	-9328	6296	12536	22	-2	-19	-15856	3704	-3232	73	-56	29	-15672	3936	-2800	294	-176	85	133	129	8
-7920	-7148	10844	819	385	-1128	-15840	976	-3336	1227	-233	353	-15888	3760	240	1016	-312	132	-9272	6624	12432	25	-14	-26	-15696	3832	-3288	110	-59	25	-15688	4248	-2744	350	-203	93	131	127	8
-8848	-7056	10680	861	439	-1219	-15760	1048	-3192	1368	-275	384	-15864	3392	168	1077	-287	82	-9088	6632	12512	25	-19	-39	-15792	3968	-3664	69	-47	5	-15632	4384	-2736	366	-217	100	129	129	8
-9544	-6940	11040	914	492	-1250	-15728	1080	-4000	1494	-296	431	-15720	2872	144	1144	-252	17	-9136	6328	12464	15	-22	-38	-15984	3696	-3656	70	-54	-11	-15560	4064	-2728	416	-221	91	128	128	8
-10000	-7452	11164	921	501	-1287	-15504	1080	-3984	1592	-290	444	-15824	2456	-280	1248	-237	-31	-9168	6352	12432	17	-24	-44	-16072	3480	-3560	110	-65	-17	-15840	4456	-2920	422	-220	59	127	129	8
-9524	-7500	9876	1053	681	-1375	-15528	1032	-4392	1689	-273	458	-16160	2520	-424	1380	-230	-44	-9152	6416	12672	24	-36	-41	-15928	3872	-3432	146	-79	-18	-15080	4048	-2552	452	-235	29	126	129	8
-10640	-7180	10124	1126	736	-1480	-15496	1008	-4720	1806	-239	473	-16200	2504	-472	1504	-219	-4	-9120	6352	12600	17	-49	-47	-15744	3904	-3608	167	-80	-36	-15880	4544	-2176	401	-242	37	124	128	8
-10408	-6740	9364	1153	771	-1550	-15232	1304	-4864	1945	-186	497	-16056	2472	-328	1676	-265	8	-9136	6432	12608	17	-57	-60	-15848	3544	-3440	176	-72	-51	-15944	4232	-1816	417	-233	21	122	128	8
-11136	-6576	9260	1156	890	-1617	-15112	1448	-4888	2060	-139	518	-15952	2656	-280	1824	-308	11	-9160	6464	12544	18	-72	-66	-15968	3864	-3376	184	-62	-52	-15896	4168	-1856	454	-232	11	124	128	8
-11260	-6712	8884	1197	1028	-1675	-15168	1320	-5328	2184	-88	552	-15568	2872	-824	1952	-338	-19	-9096	6512	12440	32	-60	-70	-16024	3872	-3304	214	-58	-67	-15784	4096	-2016	505	-203	3	124	129	8
-11536	-6652	9304	1257	1086	-1660	-15040	1400	-5608	2262	-34	575	-15584	3184	-1232	2013	-289	-14	-9104	6432	12696	13	-62	-76	-16016	3544	-3576	199	-64	-78	-15688	4488	-2032	523	-179	7	127	128	8
-10860	-6348	9300	1318	1135	-1686	-14720	1776	-5584	2285	-6	578	-15568	3592	-1824	2000	-221	-37	-9176	6392	12632	16	-59	-68	-16240	3680	-3320	212	-50	-92	-15640	4736	-2096	482	-162	-8	125	128	8
-10192	-6140	8732	1403	1241	-1711	-14656	1496	-5664	2351	3	575	-15136	3872	-2136	1990	-129	-73	-9016	6552	12608	4	-57	-73	-16000	3872	-3512	174	-51	-110	-15640	4552	-2168	405	-143	-16	129	128	8
-10788	-5860	8916	1469	1363	-1668	-14768	1096	-6016	2464	-11	598	-14936	4624	-2704	1973	-59	-64	-8912	6600	12456	1	-63	-69	-16040	3680	-3496	136	-43	-135	-15576	4384	-2384	361	-124	-25	130	128	8
-11560	-5388	8608	1402	1360	-1474	-14296	1440	-6256	2480	9	587	-14544	5624	-2192	1906	-72	-34	-9216	6328	12680	4	-83	-96	-16032	3144	-3480	204	-48	-135	-15696	4024	-1912	387	-123	-85	131	128	8
-11364	-5008	9948	1334	1175	-1202	-14208	1816	-6896	2251	28	499	-14408	6584	-1816	1794	-87	21	-8984	6400	12640	27	-104	-100	-16272	3256	-3456	313	-57	-137	-15944	4152	-1744	426	-123	-113	127	128	8
-9420	-5132	11924	1169	577	-860	-15104	1920	-5384	1784	2	360	-14640	7672	-1632	1459	-23	58	-8984	6272	12392	2	-95	-116	-16216	3496	-3304	352	-77	-141	-15880	4432	-2040	476	-106	-100	129	129	8
-8924	-7924	11464	959	159	-593	-15360	1848	-4968	1242	-78	88	-15104	8744	-1808	973	99	124	-8832	6744	12408	6	-79	-117	-15944	3376	-3392	294	-78	-168	-15824	4432	-2048	443	-81	-82	128	129	8
-8936	-9164	10628	573	-200	-505	-15536	936	-5432	681	-184	-188	-15272	8992	-1704	552	193	162	-9008	6416	12464	0	-83	-115	-16096	3200	-3616	234	-68	-192	-15800	4072	-2096	412	-79	-64	127	129	8
-12184	-8356	8932	67	-401	-332	-15368	-336	-7128	336	-223	-375	-15472	7688	-1920	218	272	108	-9056	6424	12768	-11	-71	-125	-16224	3296	-3392	220	-66	-214	-15664	4184	-2112	434	-59	-62	127	129	8
-12356	-7852	8788	-223	-533	-253	-15224	-520	-7968	90	-167	-407	-15680	6008	-2056	-55	341	34	-9120	6560	12496	-28	-68	-131	-16088	3144	-3536	247	-74	-224	-15680	4360	-2160	441	-59	-93	124	129	8
-10348	-7164	10420	-315	-704	-208	-15264	288	-5872	-191	-162	-436	-15656	5032	-2248	-318	452	-57	-8944	6312	12608	-26	-87	-149	-16160	3096	-3112	304	-76	-234	-15808	4360	-1696	412	-66	-137	125	129	8
-8680	-7744	11384	-344	-852	-180	-15600	360	-4856	-419	-293	-527	-15192	4256	-3296	-562	580	-63	-9072	6224	12360	-40	-88	-166	-15864	3032	-2944	329	-62	-246	-15760	3728	-1408	408	-83	-166	120	129	8
-8804	-8588	11388	-319	-853	-78	-16392	-1336	-5088	-564	-421	-597	-15816	2824	-4632	-677	668	-18	-9048	6208	12744	-44	-94	-173	-16152	2824	-2952	322	-40	-275	-15608	3096	-1592	484	-118	-168	108	129	8
-9032	-9000	10904	-183	-792	-12	-16424	-584	-5016	-421	-513	-617	-16696	1736	-5936	-367	676	-44	-8872	6128	12616	-42	-89	-168	-16400	2584	-3064	319	-19	-305	-16008	3216	-1832	631	-142	-167	104	129	8
-8832	-6856	11684	-31	-591	-69	-16328	1024	-4960	-287	-571	-478	-16504	1504	-4880	139	651	-16	-8968	6232	12576	-41	-73	-173	-16168	2320	-3296	334	-17	-326	-15872	3696	-2016	709	-184	-176	107	129	8
-8608	-5472	12484	-8	-434	-125	-17264	2264	-4160	-134	-599	-387	-16360	2720	-2856	429	503	41	-8896	6224	12568	-55	-56	-166	-16048	2320	-3136	320	6	-344	-15800	3632	-1816	697	-224	-174	108	129	8
-7648	-5464	12740	-34	-242	-248	-16496	2288	-3344	-56	-599	-362	-15688	3744	-2032	547	332	163	-8912	6016	13040	-63	-40	-175	-16312	2416	-3176	274	17	-358	-15712	3168	-2240	673	-262	-171	112	130	8
-8176	-6144	12316	-102	-278	-318	-19528	4624	-3352	66	-558	-235	-15544	4512	-1256	612	249	203	-9232	6032	12840	-78	-30	-175	-16088	2208	-3048	243	47	-395	-16080	3040	-1656	691	-308	-192	112	128	8
-7672	-7840	11580	-93	-30	-351	-16248	-1048	-2328	279	-534	-270	-16040	4152	-504	682	164	169	-8968	6016	12760	-65	-27	-176	-16168	2048	-2888	251	88	-418	-16208	3224	-1512	670	-373	-217	115	129	8
-7428	-7848	11872	-99	-81	-280	-16000	-888	-2408	242	-485	-291	-16640	2720	-1416	625	174	-6	-8920	6040	12840	-80	-8	-208	-16088	1752	-2920	270	127	-429	-16400	3168	-1400	646	-455	-232	116	128	8
-8028	-7712	11692	-101	-148	-205	-15600	120	-2536	113	-435	-355	-15952	1784	-2648	472	212	-165	-8984	6216	13424	-54	41	-256	-16864	1264	-3352	321	154	-424	-17008	2536	-1232	616	-515	-262	116	128	8
-8208	-7004	11772	-120	-167	-224	-15504	1216	-2808	-123	-399	-425	-15656	2472	-2936	338	240	-134	-9312	6464	13320	-16	94	-321	-17152	576	-3480	425	143	-388	-16992	1656	-1720	645	-553	-313	117	129	8
-7592	-7384	12164	-128	-77	-272	-16664	-1088	-1792	-142	-357	-396	-16368	2440	-2928	382	192	53	-8992	5776	13320	-2	141	-411	-16816	528	-4448	527	133	-319	-16528	936	-2400	687	-622	-367	117	128	8
-7692	-7852	11740	-113	15	-248	-16392	-2088	-1888	163	-344	-315	-16776	1536	-2912	450	55	198	-9144	5592	13168	29	273	-539	-17048	792	-3696	587	90	-142	-16688	760	-2528	704	-663	-363	118	128	8
-7680	-7936	11628	-93	52	-223	-15728	-2264	-2104	300	-323	-184	-16384	216	-2944	481	-18	159	-9736	4800	12952	-65	372	-610	-16760	584	-4608	599	45	-128	-16920	296	-2272	735	-677	-322	120	128	8
-6968	-8136	11820	-87	128	-152	-15912	-1648	-1752	294	-292	-217	-16368	56	-3576	687	-48	143	-10112	5040	13208	54	348	-777	-16536	208	-4384	850	-10	-36	-17088	232	-2096	680	-666	-259	122	129	8
-7848	-7860	11692	-92	43	-126	-15704	-984	-2000	154	-260	-238	-16440	616	-3648	882	-61	147	-10568	8424	12808	380	219	-1102	-16168	2824	-5000	1231	-46	143	-17176	-168	-1960	756	-610	-210	122	128	8
-7724	-7964	11656	-75	31	-109	-16168	-1280	-1640	55	-233	-248	-16064	1552	-3280	877	-85	152	-10272	3408	12280	744	6	-1536	-15520	-440	-5672	1415	-111	385	-16672	-824	-1712	934	-586	-218	121	128	8
-7684	-7920	11688	-57	67	-75	-16256	-1896	-1992	142	-225	-223	-15616	2928	-3024	746	-104	160	-11784	2536	12448	1557	-595	-1815	-15856	-192	-6056	2105	-162	432	-16352	-1208	-1064	1064	-559	-187	123	127	8
-7936	-7540	11716	-63	62	-56	-16176	-912	-2376	145	-211	-171	-15544	3944	-3056	601	-107	149	-11896	5872	10880	1751	-752	-1864	-15736	104	-6064	2590	-217	630	-16144	-1240	-1584	1357	-447	-131	124	128	8
-7892	-7716	11620	-86	73	-57	-16272	-1080	-2136	53	-217	-169	-15480	3736	-2848	485	-25	157	-11264	1896	12568	2088	-1012	-2137	-14888	896	-4920	2796	-327	693	-15376	-432	-2144	1719	-329	-68	120	128	8
-8048	-7792	11472	-53	84	-92	-16128	-1904	-1584	58	-187	-152	-15600	3408	-2848	475	-6	151	-12632	5896	10696	2140	-1227	-2307	-14912	-920	-5536	2728	-320	713	-15072	-256	-2240	1937	-282	-72	122	128	8
-7628	-7876	11684	-53	67	-73	-15808	-1608	-1448	100	-161	-131	-15968	1968	-2720	407	-5	116	-12464	6888	8504	1797	-1163	-2036	-15024	0	-5960	2711	-240	720	-15408	208	-1424	1981	-315	-123	121	128	8
-7952	-7868	11420	-65	43	-53	-15952	-1376	-1536	-19	-123	-140	-15576	2200	-2600	323	-66	49	-11392	6056	8744	1497	-855	-1591	-15448	632	-5672	2349	-153	631	-16360	1632	-360	1909	-389	-122	122	127	8
-8272	-7776	11812	-51	55	-67	-15792	-2008	-1008	1	-71	-110	-15528	2416	-2328	160	-49	2	-11296	6064	9936	1107	-531	-1256	-15480	1080	-4704	1814	-90	493	-16208	3600	-584	1707	-350	-87	119	127	8
-7692	-7728	11568	-36	-2	-60	-15880	-1560	-1304	106	-40	-89	-16048	2200	-2408	189	-32	-6	-12728	5360	12080	797	-360	-912	-15648	824	-4568	1218	-40	308	-15968	4480	-1608	1392	-24	29	121	127	8
-8064	-7856	11484	-33	26	-64	-16040	-1728	-1176	96	2	-70	-16584	1240	-2736	298	-36	33	-10904	4688	11000	639	-388	-731	-16032	352	-3816	778	80	162	-16248	4840	-1192	982	104	96	123	127	8
-7868	-8012	11456	-9	48	-64	-16072	-2256	-1152	160	27	-37	-16344	816	-2552	225	-45	45	-11168	4592	11232	584	-203	-636	-16352	-528	-3912	569	177	120	-16360	3328	248	420	83	-52	122	127	8
-7736	-7956	11476	6	45	-45	-16072	-1912	-1640	243	48	-4	-16216	1120	-3488	291	-81	49	-10400	4368	11616	493	-79	-559	-16280	-1096	-3392	567	225	92	-15928	1880	1360	108	65	-138	123	127	8
-7744	-8092	11428	13	26	-35	-15864	-1672	-1512	228	64	6	-15824	1928	-3544	368	-129	39	-10208	4472	11464	467	-57	-533	-16256	-664	-3544	600	235	63	-15744	1384	1312	74	92	-132	123	127	8
-7888	-8120	11408	39	45	-42	-16064	-1664	-1664	238	69	-3	-15536	2392	-3736	364	-116	35	-10240	5224	11688	125	114	-293	-15768	240	-3056	473	260	8	-15680	8	-256	192	207	-84	123	126	8
-7980	-8156	11276	47	46	-42	-16096	-2288	-1680	339	81	28	-15456	2168	-3568	344	-109	77	-8216	5704	11776	-20	260	-196	-15696	456	-2752	169	291	-27	-15776	-144	-96	269	149	-111	124	127	8
-7856	-7940	11512	90	66	-55	-16200	-1704	-2136	467	66	65	-15736	2208	-3896	408	-123	81	-7896	5792	12112	-174	436	4	-15752	432	-2400	-155	310	-110	-15640	176	24	208	153	-62	125	127	8
-8000	-7980	11392	105	75	-57	-16216	-1832	-2048	473	68	79	-15488	2448	-4072	440	-115	38	-6656	4616	12536	-267	532	159	-15944	152	-1680	-427	259	-167	-14672	120	360	80	257	74	124	127	8
-7944	-7596	11648	110	62	-29	-16000	-1152	-2344	516	45	77	-15568	3352	-4144	410	-94	-8	-6192	6408	15688	-271	548	270	-16952	-568	-416	-582	123	-157	-14872	-32	-1104	60	477	156	125	128	8
-8056	-7184	11744	83	29	-41	-16008	-384	-2504	339	36	56	-15648	4208	-3800	359	-49	25	-2496	6000	18664	-324	86	452	-18032	-560	2328	-491	-147	-165	-15712	-392	-2224	182	612	73	123	127	8
-8040	-7516	11592	56	34	-52	-16288	-1192	-2600	133	30	28	-15248	4176	-3920	240	-36	82	-2456	6808	18728	84	-70	479	-19032	40	2960	-335	-529	-35	-16464	-1144	-1952	237	702	-82	123	127	8
-7844	-7952	11600	52	63	-43	-16320	-1656	-2232	48	-12	35	-15088	3168	-3736	50	-15	56	-8744	7216	14352	172	16	76	-16616	1464	-2112	-322	-726	166	-16744	-1064	112	66	511	-184	124	128	8
-8020	-7728	11492	88	82	-28	-15936	-1864	-1872	95	-11	46	-15240	2928	-3952	20	-11	43	-12640	6968	10696	135	-33	188	-15224	1808	-4720	-265	-650	176	-16536	1056	2736	-270	220	-119	124	128	8
-7820	-7236	11868	61	42	-15	-15920	-496	-1816	112	-15	66	-15840	2744	-3440	49	-8	-47	-14760	5928	9112	147	-120	284	-16088	2424	-6192	-237	-364	79	-17184	3048	3440	-373	186	63	125	129	8
-7928	-7448	11688	21	24	-25	-16256	-856	-1808	-31	12	56	-15896	3496	-2632	-52	-46	-33	-11688	6528	11072	174	-249	332	-16720	1848	-4144	-144	-162	-33	-18096	3320	2104	-96	372	222	122	128	8
-7944	-7552	11600	24	25	-20	-16344	-1696	-1896	-53	14	48	-15744	3000	-3184	-257	-29	-52	-8960	6992	12944	194	-331	247	-16856	1400	-1616	40	-158	50	-17224	2120	-880	241	611	174	124	129	8
-7836	-7840	11572	34	28	-11	-16080	-1976	-1832	-19	1	76	-15440	2184	-3800	-374	-16	-89	-8664	6904	13192	204	-335	218	-16136	1264	-992	104	-202	136	-15872	816	-1288	271	556	83	123	129	8
-7864	-7684	11652	36	2	6	-16056	-1432	-1920	-26	-1	83	-15904	1792	-3736	-277	-6	-93	-9776	6264	12440	143	-229	-43	-15656	1112	-2144	122	-154	188	-16064	1424	0	-39	274	2	122	130	8
-8144	-7392	11816	37	27	38	-16408	-1320	-1504	-152	-40	74	-15984	2128	-3768	-224	2	-88	-10320	5864	12000	51	-191	-22	-15912	1104	-2464	136	-54	153	-16752	1936	880	-235	74	41	122	130	8
-8156	-7580	11408	33	90	40	-15832	-1192	-1880	-140	-28	72	-15920	2608	-3352	-225	-15	-56	-9936	5808	12208	1	-244	1	-15832	1336	-2000	129	33	98	-16560	1520	464	-75	6	84	121	129	8
-7920	-7352	11796	16	37	37	-15984	-584	-1872	-111	-7	63	-15976	3120	-2880	-234	-60	-10	-9504	6304	12512	-16	-309	-8	-15984	1624	-1944	47	55	93	-15848	552	-488	96	37	96	124	129	8
-7960	-7424	11708	-12	-3	12	-15952	-632	-1656	-161	28	50	-15752	3032	-2672	-263	-84	34	-9560	6344	12312	-28	-328	-23	-16344	1560	-2576	-102	74	96	-15832	800	-1528	9	38	99	123	130	8
-7956	-7484	11636	-27	-17	1	-16080	-1032	-1776	-175	33	53	-15568	2736	-3064	-313	-52	42	-9608	6024	12552	-78	-278	-31	-16568	1448	-2640	-129	84	98	-16792	1416	-1752	-154	70	118	124	130	8
-7916	-7596	11604	-25	-15	5	-16272	-1544	-2128	-150	39	66	-15592	2504	-3280	-330	14	23	-9576	5136	12728	-99	-229	8	-16704	16	-3440	-284	104	74	-16784	1280	-2160	-248	131	161	123	131	8
-7816	-7860	11692	-30	-8	13	-16104	-1160	-2184	-140	40	83	-15896	2288	-3528	-270	48	-4	-9440	5120	12880	-95	-224	16	-16896	96	-4120	-247	49	75	-16360	752	-2680	-184	230	183	124	129	8
-7960	-7812	11568	-30	-21	22	-16024	-832	-1912	-210	42	60	-16088	2208	-3888	-232	40	-13	-9920	5720	12624	-68	-192	55	-16864	280	-3960	-173	-5	122	-15600	304	-2880	-49	322	161	124	129	8
-7892	-7808	11688	-27	-27	26	-16136	-1376	-1904	-224	48	63	-15768	2112	-3600	-220	29	-1	-9688	5056	12752	-21	-191	80	-16208	72	-3872	-121	-33	134	-15632	272	-3304	-43	336	157	122	130	8
-7944	-7672	11720	-9	-28	37	-16200	-1120	-2072	-138	41	79	-15624	2392	-3680	-181	27	19	-9704	5680	12664	14	-193	111	-16544	464	-3704	-81	-59	133	-15928	1672	-3272	-172	282	87	123	129	8
-8148	-7328	11700	-2	-52	26	-16064	-544	-1968	-147	45	94	-15416	3080	-3416	-164	5	62	-9256	5840	12856	14	-168	116	-16504	1136	-3448	-83	-83	151	-16016	1920	-2936	-231	268	110	122	127	8
-7956	-7500	11576	-1	-48	17	-16208	-1184	-1664	-190	47	85	-15544	2672	-3072	-154	-4	106	-9120	6000	12672	-12	-150	125	-16480	1616	-3152	-176	-92	145	-16120	2088	-2328	-299	285	105	123	129	8
-7864	-7496	11824	15	-27	40	-16224	-1312	-2024	-92	23	91	-15776	2712	-3176	-169	13	80	-9168	6352	12592	-26	-118	104	-16560	1488	-3208	-227	-115	154	-16392	2032	-2648	-358	303	81	124	129	8
-8072	-7512	11744	18	-32	44	-15808	-696	-2248	-94	18	106	-15608	3280	-3040	-213	44	60	-9176	5848	12696	-19	-97	75	-16760	952	-3152	-189	-106	156	-16440	1776	-2568	-373	308	90	123	130	8
-7936	-7436	11704	16	-30	37	-16216	-704	-2032	-164	17	88	-15464	3104	-3232	-245	56	55	-8984	5856	12960	4	-83	62	-16784	848	-2624	-68	-119	167	-16408	1584	-2088	-337	290	90	122	129	8
-7964	-7584	11700	17	-10	45	-16128	-904	-2056	-192	17	78	-15696	2960	-3576	-251	52	47	-9008	5952	12784	28	-72	48	-16304	1400	-2808	1	-119	183	-16216	1248	-2240	-234	245	73	121	131	8
-7908	-7604	11584	21	-1	46	-16128	-912	-1768	-149	13	99	-15816	2560	-3432	-219	45	39	-8872	6128	13048	26	-69	48	-16272	1720	-2560	3	-123	174	-16088	1408	-2152	-124	206	59	124	129	8
-7808	-7664	11712	29	1	48	-15992	-1056	-1920	-68	5	93	-15752	2608	-3392	-145	25	45	-9088	5904	12672	27	-56	28	-16416	2000	-2752	-45	-100	158	-16272	1840	-2160	-85	176	71	120	130	8
-7972	-7204	11760	35	15	61	-16184	-360	-2072	-14	-10	97	-15296	3152	-3440	-110	17	65	-9104	5920	12712	26	-37	31	-16592	1656	-2592	-51	-64	134	-16400	2104	-2232	-73	157	99	123	130	8
-8080	-7196	11764	14	14	46	-16000	-24	-2568	-55	-4	91	-15384	3424	-3320	-77	-9	79	-9048	5928	12920	32	-28	22	-16520	1536	-2448	-25	-50	123	-16304	2272	-2240	-72	144	105	122	130	8
-8008	-7408	11660	8	17	24	-16096	-352	-2056	-98	-9	70	-15656	3616	-3400	-80	-10	126	-9048	5960	12968	42	-18	11	-16320	1624	-2560	4	-36	120	-16000	2320	-2224	-54	107	98	124	130	8
-7844	-7536	11664	3	16	26	-16240	-696	-1904	-79	-20	57	-15392	3448	-3656	-86	9	121	-9032	6008	12816	39	-16	10	-16184	1784	-2592	25	-30	108	-16128	2408	-2208	-50	82	67	124	129	8
-7976	-7200	11888	-11	38	39	-16248	-392	-2280	-52	-44	60	-15512	3504	-3640	-95	26	96	-8984	6040	12688	31	-21	3	-16296	2016	-2352	20	-10	95	-15992	2672	-1992	-48	61	50	124	129	8
-8004	-7340	11656	-22	29	26	-16120	-160	-2208	-94	-43	61	-15376	3856	-3680	-95	36	69	-9120	6128	12728	34	-15	1	-16560	1944	-2624	8	6	98	-16040	2824	-2560	-48	38	50	122	129	8
-8184	-7140	11732	-27	45	19	-15888	-256	-2176	-113	-51	46	-15392	4088	-3424	-106	40	60	-9128	5784	12816	15	-12	-30	-16248	1800	-2840	-19	11	89	-16080	2200	-2840	-71	51	61	125	129	8
-8088	-7268	11756	-30	18	12	-15920	-432	-2128	-117	-47	40	-15552	3744	-3208	-123	25	75	-9048	5896	12864	23	-17	-17	-16344	1568	-2864	6	18	63	-15896	2240	-3192	-61	50	48	122	128	8
-8096	-7308	11744	-37	14	10	-16088	-432	-2128	-140	-43	33	-15600	3520	-2968	-150	4	63	-8960	5832	12872	19	-18	-17	-16520	1664	-2768	26	8	74	-15992	2304	-2656	-51	54	34	124	130	8
-8096	-7432	11652	-38	13	11	-16208	-672	-1968	-139	-36	33	-15664	3264	-3208	-159	-4	30	-9200	5920	12920	25	-7	-27	-16296	1584	-3048	8	-6	79	-15936	2352	-3072	-20	56	27	121	130	8
-8044	-7440	11676	-35	1	19	-16000	-304	-1808	-134	-36	31	-15600	3320	-3360	-152	-1	5	-9264	5920	12840	25	-6	-11	-16352	1512	-2904	12	6	63	-15768	2120	-3080	-69	50	20	124	130	8
-8044	-7404	11616	-36	4	17	-16008	-288	-1904	-151	-33	16	-15664	3208	-3112	-156	14	12	-8872	6112	12888	29	6	-8	-16536	1864	-2904	-31	2	54	-16088	2312	-3072	-93	55	25	124	128	8
-8192	-7128	11864	-30	-8	5	-16024	-376	-1968	-138	-30	12	-15560	3560	-3104	-154	16	40	-9136	5904	12704	21	8	-6	-16256	1768	-2808	-43	1	55	-16088	2352	-2848	-94	54	20	122	128	8
-8068	-7292	11836	-28	-4	0	-16064	-368	-1952	-99	-28	21	-15376	3424	-3512	-161	0	45	-9088	5952	12656	21	0	2	-16152	1672	-2856	-4	10	42	-15888	2352	-3168	-111	37	12	124	129	8
-8164	-7316	11696	-32	16	-5	-16120	-416	-1760	-58	-24	26	-15672	3288	-3240	-148	-8	42	-8904	6016	12800	18	-12	-4	-16344	1776	-2528	11	-2	57	-15992	2392	-2880	-67	23	14	122	130	8
-8076	-7268	11800	-25	12	-8	-15992	-408	-2272	-44	-15	36	-15712	3128	-3168	-122	-13	20	-8944	6136	12792	22	-6	-10	-16472	1856	-2448	5	-3	63	-16208	2144	-2520	-54	8	15	124	129	8
-8072	-7324	11748	-21	10	-11	-15984	-360	-2144	-52	-10	21	-15472	3040	-2984	-118	-12	5	-9216	5912	12832	16	-7	-13	-16280	1992	-3056	-4	14	48	-15976	2104	-2672	-44	-1	13	124	128	8
-8128	-7324	11680	-16	-2	-11	-16080	-312	-1992	-49	4	24	-15680	2872	-3152	-90	-14	13	-8928	5960	12624	16	-11	-11	-16224	1936	-2784	-29	25	43	-15872	2088	-2712	-27	-1	21	123	129	8
-8072	-7232	11804	-3	-6	-12	-16144	-400	-1928	-24	11	26	-15720	3136	-3088	-47	-32	27	-8952	5888	12856	10	1	-16	-16328	1712	-2784	-29	16	50	-15872	2080	-3088	-24	2	38	125	129	8
-8092	-7216	11744	-6	5	-20	-16208	-240	-1728	-18	9	23	-15776	3136	-3192	-6	-50	46	-9024	5752	12768	17	-7	-10	-16304	1760	-2800	-8	18	45	-15856	2304	-2976	1	-7	40	121	128	8
-8160	-7148	11764	-3	15	-24	-16160	-344	-2104	26	28	38	-15600	3472	-3016	21	-60	48	-8928	6136	12984	28	-7	-5	-16456	1816	-2568	-8	17	44	-16080	2336	-3016	-5	-12	23	123	127	8
-7924	-7192	11860	-5	13	-24	-16248	-264	-2168	38	22	34	-15496	3688	-3320	19	-54	43	-8984	5912	12784	22	1	-9	-16272	1896	-3056	-17	10	49	-15888	2440	-3176	-17	-15	15	125	128	8
-8248	-7320	11644	-12	10	-22	-15968	-272	-2224	7	27	30	-15512	3408	-3232	-9	-39	36	-9048	5856	12800	18	-8	-3	-16256	1816	-2944	-13	7	32	-15808	2328	-3048	-18	-13	28	122	128	8
-8112	-7360	11820	-4	9	-30	-15968	-416	-2048	-3	29	29	-15520	3248	-3168	-13	-30	16	-8944	6016	12792	24	-8	-3	-16256	1848	-2872	9	4	35	-15936	2088	-2592	-7	-9	32	124	129	8
-7956	-7292	11900	-1	1	-22	-16224	-272	-1840	6	25	14	-15528	3472	-3200	-13	-38	14	-8872	6144	12752	22	-7	-6	-16392	1888	-2896	4	-1	36	-16104	2200	-2392	9	-8	33	123	128	8
-8164	-7292	11684	-1	6	-25	-16112	-264	-2000	1	33	22	-15624	3504	-3112	-30	-35	25	-8992	6040	12816	20	-11	-9	-16232	1840	-2664	-8	2	41	-16120	2376	-2768	1	-9	16	123	128	8
-8112	-7256	11872	1	2	-24	-16168	-320	-1984	24	32	28	-15624	3528	-3264	-36	-34	23	-9016	6056	12928	20	-9	-6	-16256	1832	-2800	-9	11	31	-15984	2264	-2752	13	-12	16	126	128	8
-8068	-7216	11856	6	9	-27	-16200	-48	-1824	44	24	27	-15480	3416	-3504	-34	-38	16	-9048	6024	12872	18	-2	-4	-16368	2000	-2536	-8	18	26	-16072	2376	-2912	15	-2	24	123	128	8
-8220	-7188	11660	5	10	-34	-16144	-184	-2048	37	24	19	-15480	3360	-3280	-5	-46	18	-9000	5920	12784	15	4	-14	-16536	1920	-3056	-39	15	33	-15992	2344	-2520	-1	3	24	125	127	8
-8016	-7388	11776	1	-2	-38	-16136	-344	-2072	27	20	21	-15584	3400	-3168	19	-49	24	-9096	6152	12888	15	1	-10	-16208	1864	-2816	-42	23	26	-15824	2376	-2992	-38	0	19	124	128	8
-8084	-7432	11736	2	12	-31	-16232	-288	-2040	39	15	22	-15568	3656	-3272	19	-42	25	-9008	6184	12776	16	-1	-4	-16256	1920	-2856	-37	19	26	-15832	2472	-2784	-71	8	13	124	130	8
-8120	-7348	11708	3	10	-29	-16080	-320	-2080	13	16	25	-15512	3392	-3288	-1	-32	10	-8968	6136	12456	10	-4	-2	-16456	1888	-2984	-39	20	26	-15808	2392	-3000	-61	8	13	123	128	8
-7712	-7376	11876	-2	-7	-17	-16080	-328	-2048	8	-2	8	-15488	3440	-3344	-19	-23	5	-8944	5944	13048	9	4	-9	-16464	1984	-3000	-44	14	26	-15768	2496	-3000	-28	12	0	121	128	8
-8268	-7240	11656	-11	21	-7	-16224	-120	-2208	-6	-10	-1	-15528	3616	-3568	-43	-8	17	-9040	6000	12792	10	-6	-7	-16312	1784	-2912	-12	5	29	-15896	2360	-2992	-28	15	-2	122	128	8
-8032	-7240	11804	-19	23	-12	-16128	-8	-2328	-30	-10	6	-15488	3568	-3280	-36	2	33	-9072	6184	12776	14	-2	-8	-16336	1984	-2816	5	6	30	-15992	2352	-2824	-31	19	5	123	128	8
-8116	-7164	11708	-14	20	-20	-16248	-64	-2440	-33	-19	7	-15288	3712	-3200	-55	-6	37	-8800	6080	12872	13	-6	-10	-16384	1968	-3248	-17	10	35	-15880	2048	-3040	-28	19	17	121	127	8
-8028	-7308	11836	-16	9	-22	-16120	-216	-2112	-42	-10	2	-15544	3208	-3024	-41	-12	34	-9000	5944	12784	11	1	-12	-16384	1880	-3088	-20	13	30	-15864	2032	-2728	-9	-1	19	122	127	8
-8048	-7280	11816	-7	14	-23	-16184	-352	-2208	5	-6	13	-15808	3136	-3016	-23	-12	29	-9032	6056	12776	14	0	-8	-16320	2024	-2968	-15	12	29	-15824	2248	-2904	4	-9	19	122	128	8
-7972	-7356	11784	-6	13	-11	-16280	-336	-1992	13	-2	18	-15776	3008	-2904	-18	-9	19	-9016	6048	12944	12	-12	-5	-16392	1664	-2880	-9	10	33	-15888	2528	-2624	0	-3	29	125	127	8
-8060	-7288	11800	-1	12	-11	-15992	-136	-2104	4	5	16	-15712	3176	-3352	0	-8	13	-8952	5976	12784	17	-12	-4	-16344	2008	-2656	2	9	35	-15872	2488	-2672	-3	-1	29	124	128	8
-8064	-7148	11748	-1	7	-19	-15976	104	-1952	-22	12	8	-15544	3272	-3264	10	-15	28	-9008	6040	12712	22	-7	-5	-16496	2000	-2856	-10	12	33	-16032	2368	-2752	7	6	26	123	126	8
-8024	-7384	11716	-4	6	-25	-16096	-408	-1904	-26	17	9	-15520	3280	-3160	21	-24	47	-8992	6128	12928	24	-3	-7	-16312	2096	-3048	-21	9	28	-15880	2352	-2928	5	5	20	122	127	8
-7904	-7248	11948	-8	8	-13	-16176	-416	-1872	25	8	10	-15600	3408	-3056	15	-27	42	-9000	6000	12880	17	1	-12	-16320	1912	-2696	-18	9	29	-15896	2368	-2840	4	4	16	122	127	8
-8108	-7252	11784	-9	18	-8	-16184	-312	-2040	58	6	18	-15664	3544	-3344	14	-21	33	-8896	6024	12904	14	-1	-13	-16304	1896	-3232	-14	10	26	-15944	2440	-2880	0	12	21	124	127	8
-8088	-7236	11792	-10	14	-12	-15968	144	-2192	24	8	11	-15416	3896	-3312	-6	-7	28	-8952	5952	12832	15	1	-14	-16408	1720	-2912	6	1	33	-15944	2504	-2672	0	12	18	123	127	8
-8140	-7252	11864	-14	13	-14	-16064	0	-2440	-44	3	-4	-15488	3912	-3192	-48	1	35	-9008	5952	12632	23	-1	-13	-16320	1912	-2608	27	2	28	-15976	2544	-2792	-4	11	13	124	126	8
-8040	-7340	11784	-13	8	-17	-16208	-288	-2248	-58	6	-10	-15304	3528	-3160	-67	7	35	-8904	6072	12872	18	-3	-16	-16456	2064	-2440	1	7	28	-15840	2472	-2656	5	11	8	125	128	8
-7992	-7244	11776	-17	11	-18	-16176	-536	-2016	-37	1	-5	-15584	3376	-3320	-56	8	22	-8984	6096	12840	16	5	-17	-16376	2032	-2824	-26	7	30	-15808	2336	-2928	1	15	6	123	127	8
-8048	-7340	11752	-15	16	-17	-16384	-312	-2016	-10	-1	9	-15688	3368	-3168	-43	2	13	-9000	5896	12864	18	-1	-6	-16280	1840	-2960	-19	12	16	-15824	2504	-2840	-15	26	20	124	127	8
-7972	-7296	11844	-8	5	-14	-16160	-80	-2280	-15	-1	10	-15664	3504	-3312	-31	-2	8	-9040	6040	12928	11	-6	-10	-16256	2008	-2960	-2	12	24	-15968	2448	-3080	-12	23	16	122	127	8
-8044	-7188	11828	-16	10	-16	-15952	56	-2136	-29	3	3	-15664	3416	-3280	-37	-10	10	-8992	6112	12656	13	-4	-12	-16248	1936	-2936	2	18	23	-15912	2696	-2568	-8	17	8	124	128	8
-7956	-7176	11792	-17	7	-19	-16112	-104	-2072	-52	7	-7	-15688	3512	-3152	-41	-10	25	-8920	6096	12808	14	-7	-16	-16424	1952	-2640	-9	16	23	-16136	2472	-2784	-20	11	2	123	127	8
-8020	-7320	11832	-17	9	-16	-16096	-256	-2264	-36	4	-3	-15560	3544	-3248	-27	-5	38	-9000	6136	12840	10	-7	-15	-16184	2040	-2880	-22	19	22	-15976	2544	-2864	-24	14	0	125	128	8
-8020	-7264	11820	-9	12	-22	-16008	-288	-1744	-1	3	10	-15584	3432	-3208	-28	-5	31	-9056	6032	12792	6	-4	-17	-16336	1840	-2808	-13	23	22	-15816	2384	-2904	-24	20	11	126	127	8
-8052	-7300	11712	-19	21	-18	-16136	-264	-2056	10	3	14	-15640	3464	-3184	-32	-2	24	-8952	6168	12896	14	-6	-14	-16288	1880	-2952	-2	23	25	-15880	2360	-3016	-24	24	16	124	126	8
-8016	-7320	11852	-11	14	-21	-15952	-64	-2280	-6	7	5	-15688	3216	-3312	-23	-5	31	-9064	5944	12608	19	-7	-12	-16256	1968	-3008	-15	16	32	-15880	2248	-3096	-7	18	14	123	127	8
-8108	-7304	11676	-14	15	-22	-16032	-72	-1888	-9	8	2	-15584	3288	-2960	-11	-10	31	-9048	6040	12848	15	-3	-8	-16456	2040	-3056	-21	17	32	-15896	2352	-3016	-6	22	12	125	126	8
-8024	-7352	11784	-16	11	-26	-16144	-88	-2040	-16	16	-1	-15536	3192	-2928	10	-10	24	-8920	6264	12672	23	-6	-3	-16352	1936	-3008	-11	15	28	-16032	2336	-2960	11	7	21	123	127	8
-8012	-7204	11804	-9	7	-22	-16192	-192	-2112	9	14	3	-15456	3368	-3160	18	-12	34	-9024	6096	12792	20	-1	-16	-16360	2048	-3032	-4	6	32	-15976	2432	-2920	16	14	32	123	127	8
-7956	-7332	11796	-18	26	-13	-16272	-328	-2320	35	10	14	-15608	3408	-3072	17	-7	35	-9008	6040	12672	24	1	-16	-16184	2000	-2848	20	7	31	-15848	2600	-2760	25	7	31	123	126	8
-8124	-7236	11736	-15	33	-9	-16024	-120	-1992	49	17	17	-15680	3416	-3304	9	-2	43	-9048	6064	12752	25	-3	-16	-16224	2080	-2824	15	12	32	-15800	2600	-2920	33	15	22	123	127	8
-7996	-7224	11848	-14	23	-21	-15976	-32	-2520	19	17	14	-15624	3536	-3136	29	-8	42	-9080	6016	12712	27	-6	-19	-16240	2120	-2880	10	8	28	-15872	2624	-2736	27	10	16	126	128	8
-8160	-7264	11644	-12	19	-22	-16064	-80	-2280	-4	21	6	-15400	3656	-3120	24	-10	42	-8936	6120	12792	23	-7	-15	-16200	2128	-2872	15	15	24	-15832	2592	-2688	25	13	11	123	127	8
-7968	-7308	11780	-6	17	-21	-16144	-312	-2288	-4	16	7	-15448	3536	-3360	1	-7	34	-8920	6096	12808	14	-7	-19	-16304	2056	-3080	9	10	31	-15768	2408	-3056	31	7	14	123	129	8
-8044	-7252	11780	-12	23	-19	-16064	104	-2232	6	10	7	-15408	3656	-3384	-6	-8	34	-8832	6080	12768	15	-14	-21	-16328	1976	-3208	17	4	37	-15640	2288	-3312	53	8	24	123	127	8
-8120	-7196	11684	-16	29	-19	-16192	-216	-2296	7	6	8	-15608	3768	-3304	0	-7	43	-9208	5904	12792	22	-12	-19	-16376	2024	-2952	41	1	26	-15928	2328	-2840	62	7	29	122	127	8
-8004	-7264	11772	-18	23	-17	-16160	-224	-2184	13	7	8	-15528	3560	-3152	-5	-1	47	-9040	6120	12904	17	-17	-14	-16456	2024	-3152	53	-3	31	-15936	2480	-2640	63	7	32	125	128	8
-8048	-7056	11704	-18	20	-20	-15928	120	-2280	14	1	5	-15496	3696	-3208	-1	-1	38	-8936	6112	12992	26	-10	-19	-16384	2152	-2872	44	-1	35	-16096	2736	-2800	67	10	22	123	127	8
-8100	-7228	11840	-23	21	-34	-16208	-256	-2232	-30	9	2	-15528	3512	-3080	4	-4	46	-8992	6128	12768	20	-9	-21	-16360	1896	-3064	39	-2	35	-15912	2616	-2888	43	10	16	122	128	8
-7996	-7248	11860	-25	19	-27	-16216	-240	-2016	-3	11	3	-15776	3424	-3232	13	-10	49	-9024	6024	12704	25	-9	-21	-16176	2240	-3080	42	-3	35	-15784	2520	-3016	35	5	18	125	127	8
-8068	-7412	11780	-24	37	-19	-16160	-144	-2072	-10	8	7	-15696	3472	-3320	6	-12	40	-8960	6064	12984	26	-13	-19	-16232	1912	-2936	46	0	29	-15952	2728	-2792	47	8	20	123	127	8
-8108	-7172	11768	-25	34	-21	-15984	-208	-2280	-13	14	9	-15592	3552	-3232	-9	-13	38	-8952	6032	12784	26	-9	-18	-16256	2008	-2936	37	3	31	-15976	2336	-2968	34	9	13	124	128	8
-8036	-7288	11780	-19	28	-15	-16128	-208	-2096	-11	14	8	-15536	3568	-3192	-17	-15	35	-8880	6152	12832	25	-3	-18	-16016	2160	-3160	35	6	29	-15960	2480	-2984	37	-1	7	123	129	8
-8112	-7344	11848	-23	21	-18	-16280	-32	-2216	-2	12	12	-15512	3576	-3424	0	-19	34	-9000	6080	12640	20	-14	-21	-16216	1752	-3440	43	-2	30	-15944	2360	-3160	48	5	16	125	129	8
-8080	-7224	11684	-18	28	-21	-16144	-160	-2136	-5	17	16	-15624	3552	-3224	2	-30	30	-9024	6072	12864	24	-24	-18	-16368	1832	-3208	49	-2	33	-15824	2328	-3024	87	2	24	124	128	8
-7988	-7332	11720	-24	29	-12	-16080	-8	-2144	2	19	17	-15600	3656	-3296	1	-28	27	-9096	6096	12928	32	-25	-21	-16320	1968	-3112	92	-15	40	-15936	2432	-2856	116	4	23	125	129	8
-8132	-7220	11740	-25	33	-9	-16040	-32	-2248	-6	15	10	-15464	3680	-3296	-15	-32	29	-8832	6048	12968	27	-27	-21	-16200	2192	-2880	51	-8	42	-16048	2752	-2992	102	-13	20	122	128	8
-8120	-7252	11736	-17	24	-17	-16080	-80	-2424	-19	19	7	-15304	3712	-3216	-31	-23	22	-8944	6032	12760	23	-14	-21	-16336	2200	-2920	15	-2	35	-15944	2816	-3000	70	-14	35	122	129	8
-8076	-7152	11752	-4	26	-12	-16112	-72	-2064	-2	19	9	-15424	3600	-3088	-28	-20	15	-8960	6096	12744	20	-18	-12	-16304	2024	-3072	-7	2	21	-15872	2744	-3016	28	-16	41	124	129	8
-8096	-7192	11740	-7	19	-13	-15992	-88	-2112	5	21	14	-15584	3592	-3048	-10	-36	4	-8896	6112	13000	15	-11	-17	-16288	2224	-3224	-25	-2	23	-15808	2664	-3216	15	-16	22	125	129	8
-8104	-7280	11668	-10	7	-20	-16208	96	-2248	4	20	12	-15536	3624	-3416	-1	-52	6	-8960	6144	12792	13	-3	-22	-16304	1968	-3432	-18	-10	30	-15832	2976	-3248	20	-12	-2	123	129	8
-8124	-7220	11836	-10	14	-15	-16144	128	-2184	11	19	12	-15568	3824	-3352	-14	-47	1	-9168	6072	12784	17	-13	-14	-16176	2064	-3336	18	-23	31	-15896	2576	-3352	18	-4	-13	123	129	8
-8068	-7040	11892	-15	12	-11	-16336	136	-2560	10	19	9	-15464	4000	-3536	-35	-32	2	-8856	6176	12976	20	-22	-20	-16368	2056	-3128	35	-32	32	-15896	2544	-3088	22	5	-1	126	129	8
-8184	-7112	11676	-20	14	-10	-15952	272	-2320	-37	9	10	-15448	4072	-3288	-39	-33	11	-8904	6056	12704	17	-5	-21	-16264	2144	-3080	16	-40	39	-15752	2424	-2968	46	8	12	130	130	8
-8004	-7224	11928	-31	4	-9	-16424	96	-2272	-83	-2	-7	-15536	4024	-3584	-63	-38	16	-8992	6200	12736	15	7	-18	-16440	2144	-3272	-2	-41	30	-15984	2400	-2968	43	0	5	127	130	8
-8188	-7332	11560	-26	31	-15	-15984	-208	-2296	-74	0	-5	-15736	3920	-3328	-100	-31	-3	-9008	6152	12752	12	-9	-11	-15872	2072	-3136	-24	-22	16	-15568	2424	-2904	6	3	14	127	130	8
-8148	-7296	11588	-14	-7	-14	-15904	-176	-2136	-68	-4	-2	-15152	3752	-3528	-127	-20	-28	-8968	6120	12744	3	-12	-2	-16216	2080	-2632	-34	-26	34	-15736	2680	-2632	-19	5	12	128	128	8
-8120	-7340	11724	-11	-23	-11	-16320	-352	-2560	-66	-17	3	-15288	3432	-3488	-155	-15	-39	-8816	6144	13144	4	-9	-8	-16552	1976	-2960	-51	-18	35	-15976	2592	-3016	-31	6	1	126	128	8
-7984	-7380	11756	-10	-9	0	-16328	-48	-2256	-86	-18	12	-15832	3520	-3400	-136	-13	-32	-9040	6248	12816	6	-3	-10	-16296	2056	-2768	-49	-13	23	-16072	2520	-2904	-53	4	-5	124	131	8
-8036	-7292	11836	-21	12	11	-16176	240	-2752	-114	-25	-2	-15840	3664	-3328	-140	-23	-26	-8896	6296	12672	6	-5	-10	-16344	2232	-3088	-61	-14	30	-15800	2776	-2728	-63	18	7	125	131	8
-8092	-7168	11844	-29	-6	12	-16024	240	-2320	-160	-28	-5	-15512	3536	-3296	-157	-44	-22	-9040	5944	12920	-3	6	-1	-16168	2000	-3096	-63	-10	30	-15776	2696	-2464	-101	45	10	125	130	8
-8120	-7288	11708	-33	-3	8	-16080	-96	-2360	-164	-33	-10	-15264	3496	-3336	-166	-43	-19	-8856	6080	12920	3	-2	3	-16424	2072	-2856	-58	-5	20	-16000	2520	-2864	-130	50	-19	124	130	8
-8108	-7176	11880	-31	1	11	-16104	-112	-2384	-120	-33	9	-15328	3552	-3112	-169	-46	-32	-9024	6224	13008	7	5	0	-16232	2024	-2816	-68	4	31	-15976	2312	-2808	-111	46	-43	125	129	8
-8120	-7232	11720	-29	3	13	-16200	104	-2080	-91	-40	13	-15456	3536	-3152	-159	-41	-46	-9048	6000	12576	3	6	-7	-16208	2152	-3016	-67	17	22	-16008	2408	-2856	-96	32	-34	127	130	8
-8044	-7256	11880	-21	12	4	-16280	96	-2352	-84	-39	18	-15584	3664	-3128	-155	-42	-38	-8832	6136	12656	7	3	1	-16296	2144	-2984	-61	18	25	-15992	2408	-2704	-101	33	-18	124	129	8
-8092	-7264	11724	-22	15	0	-15968	96	-2112	-90	-32	23	-15856	3464	-2760	-171	-41	-35	-8992	6120	12888	4	4	-4	-16264	2128	-2960	-70	23	35	-16008	2416	-2768	-89	35	4	123	131	8
-8024	-7164	11756	-26	4	9	-16072	208	-2288	-100	-33	14	-15592	3632	-2592	-205	-37	-37	-9008	5912	12800	3	3	4	-16240	2200	-2952	-82	26	25	-15944	2616	-3104	-97	40	3	122	130	8
-8036	-7272	11804	-26	0	4	-16160	160	-1992	-121	-31	4	-15432	3496	-2816	-233	-39	-35	-8992	6048	12824	7	8	0	-16296	2048	-3048	-70	31	22	-15896	2560	-3016	-97	36	-2	123	130	8
-8180	-7328	11696	-26	0	7	-16024	-56	-2032	-113	-24	13	-15648	3584	-2960	-228	-28	-41	-9000	6168	12768	-3	4	5	-16200	2216	-3056	-50	24	29	-15704	2664	-2712	-75	25	-8	125	130	8
-8040	-7288	11892	-13	-8	9	-16048	-152	-1952	-80	-26	26	-15656	3472	-3080	-209	-40	-49	-8856	6056	12752	1	-7	2	-16248	2328	-3016	-39	25	34	-15720	2648	-2840	-75	27	-8	124	131	8
-8124	-7264	11836	-15	2	9	-16168	320	-2416	-63	-24	27	-15608	3376	-3016	-201	-41	-43	-8832	6080	13016	1	-7	-6	-16344	2336	-3088	-51	26	26	-15856	2480	-3032	-80	27	-4	124	132	8
-8060	-7228	11824	-22	15	5	-16168	264	-2072	-74	-20	30	-15856	3384	-3064	-191	-41	-35	-8904	6104	13008	4	-3	-13	-16312	2096	-3272	-65	25	30	-15832	2552	-3152	-69	21	-3	122	129	8
-8176	-7244	11860	-14	20	5	-16192	144	-2192	-51	-30	23	-15560	3304	-3000	-175	-39	-23	-9024	6152	12768	-3	-3	-2	-16296	2136	-3064	-51	24	26	-15800	2712	-3312	-79	15	-4	122	131	8
-8124	-7296	11668	-4	9	-3	-15984	0	-2272	-36	-30	25	-15424	3200	-3240	-149	-35	-16	-8904	6120	12896	3	3	-11	-16336	2264	-3368	-39	10	39	-15736	2512	-3336	-68	22	-5	123	130	8
-8080	-7208	11804	-5	10	-9	-16192	96	-2104	-30	-38	28	-15536	3184	-3016	-102	-36	6	-8936	5904	12968	9	5	-8	-16368	2056	-3240	-29	-13	43	-15808	2544	-3328	-37	31	0	121	131	8
-8040	-7292	11860	-6	12	-6	-16368	64	-2024	-26	-35	27	-15832	3152	-2856	-50	-43	25	-8968	5840	12968	17	0	-11	-16448	2024	-3336	13	-13	35	-15864	2304	-3560	-20	25	8	122	131	8
-8124	-7220	11760	-2	30	3	-15880	192	-2152	-20	-39	29	-15712	3416	-3008	-7	-38	27	-8872	6168	12744	23	-11	-5	-16136	2056	-3248	54	-19	34	-15624	2280	-3304	10	15	19	123	132	8
-8232	-7180	11748	4	-3	-9	-15952	128	-2504	-39	-37	23	-15248	3504	-2792	-6	-38	20	-8824	6264	12952	21	-19	-9	-16296	2216	-3080	65	-43	56	-15728	2472	-3264	51	-10	30	124	132	8
-8056	-7232	11804	3	1	-7	-16352	360	-1896	-40	-32	26	-15432	3376	-2712	-35	-34	31	-8944	5976	12808	24	-11	-22	-16376	2024	-2960	76	-40	55	-16064	2680	-3328	92	-21	22	123	131	8
-7940	-7116	11936	-5	32	-6	-16520	288	-1648	-20	-32	35	-15968	3552	-2488	-20	-39	46	-9000	5976	12768	36	-10	-19	-16536	2216	-2888	94	-45	51	-15816	2416	-3080	95	-19	36	124	130	8
-8140	-7216	11776	-9	41	-6	-15920	200	-1976	10	-20	35	-16056	3648	-2584	13	-45	48	-9024	6264	12680	30	-13	-14	-15984	2344	-3352	85	-45	51	-15608	2544	-3336	75	1	58	123	131	8
-8224	-7252	11648	9	17	-13	-15880	80	-2208	38	-24	32	-15256	3440	-2712	38	-50	42	-8928	5896	12832	27	-13	-14	-16304	2288	-3008	64	-60	57	-15728	2752	-3032	81	13	53	123	131	8
-8004	-7196	11916	3	2	-12	-16376	384	-2032	42	-25	34	-15288	3408	-2448	32	-50	44	-8984	6072	12704	36	-11	-11	-16632	2080	-3000	70	-56	54	-15912	2848	-3056	71	18	30	125	130	8
-8072	-7164	11868	-3	29	-4	-16360	552	-2296	31	-21	31	-15600	3768	-2656	-6	-25	54	-8680	6200	13120	51	4	-12	-16496	2248	-2856	77	-71	53	-15944	2816	-3224	68	15	20	123	131	8
-8132	-7064	11800	-16	42	-6	-16200	368	-2000	3	-23	38	-15880	3936	-2632	28	-34	35	-8824	6208	12872	39	14	-29	-16200	2464	-2848	11	-80	72	-15856	2720	-3264	56	36	31	124	132	8
-8240	-7020	11700	-15	30	-8	-15824	320	-2272	-17	-14	19	-15656	3872	-2720	20	-16	62	-9152	6048	12712	26	7	-11	-15888	2056	-2784	-19	-79	75	-15432	2576	-3032	8	34	36	124	131	8
-8328	-7164	11688	-5	-5	-21	-16112	304	-2256	-23	-16	17	-15080	3712	-2824	-4	-9	48	-8896	5936	13048	23	4	1	-16296	2176	-2696	-45	-62	58	-15872	2888	-2944	-52	2	19	122	134	8
-8068	-7132	12000	-7	11	-15	-16592	232	-1928	-30	-18	19	-15592	3408	-2624	-24	3	51	-8912	6200	12616	32	12	7	-16352	2368	-2568	-54	-41	59	-16280	2720	-2944	-77	-19	9	122	130	8
-8180	-7112	11764	-13	34	-11	-16136	376	-2056	-37	-5	31	-15992	3592	-2472	1	6	59	-9008	6072	12768	27	12	11	-16048	2360	-2624	-60	-20	39	-16008	2768	-2376	-82	-54	23	122	131	8
-8212	-7228	11660	-15	11	-13	-15904	128	-2080	-46	10	30	-15776	3648	-2520	31	-19	30	-8904	6208	12672	27	15	8	-16224	2384	-2736	-42	0	35	-16024	2576	-2288	-50	-58	45	123	131	8
-8104	-7348	11796	-3	1	-13	-16232	176	-1968	-27	2	27	-15616	3568	-2488	13	-16	17	-8816	6264	12768	23	10	-7	-16320	2488	-2704	-38	-7	45	-15776	2616	-2568	7	-50	60	120	130	8
-8084	-7144	11880	2	5	-4	-16280	456	-2064	-22	3	29	-15560	3616	-2736	-19	-10	31	-8880	6304	12880	22	11	-10	-16312	2368	-2888	-26	-6	56	-15848	2608	-2576	66	-31	55	123	131	8
-8196	-7136	11732	-4	12	-6	-16128	440	-2128	-43	5	23	-15680	3768	-2824	-37	-15	53	-8928	6120	12584	22	-13	-5	-16200	2344	-3000	-3	-1	39	-15720	2840	-2800	77	-24	48	122	132	8
-8176	-7068	11904	-1	3	-9	-16024	368	-2232	-23	2	14	-15656	3576	-2992	-19	-22	69	-8960	6240	12984	17	-1	-6	-16400	2280	-2800	-14	-8	51	-15736	2992	-2944	63	-19	47	125	131	8
-8236	-7120	11736	0	6	-13	-16208	632	-2040	-14	3	15	-15432	3800	-2808	24	-17	74	-8952	6080	12952	27	17	-6	-16448	2440	-2664	-39	3	36	-15944	3048	-3040	17	-17	47	125	130	8
-8128	-7088	11800	4	13	-14	-16216	480	-1904	-6	2	17	-15632	3832	-2728	48	0	76	-8880	6304	12784	28	6	6	-16232	2504	-2736	-40	6	22	-15840	2808	-2680	6	-5	59	126	131	8
-8196	-7088	11780	-3	11	-16	-16120	520	-1928	-1	3	11	-15832	3920	-2280	48	11	62	-8784	6432	12744	17	13	0	-16144	2624	-2728	-69	8	39	-15752	3016	-3016	2	-2	47	125	130	8
-8096	-7208	11792	-6	20	-17	-16200	512	-2120	-11	9	7	-15640	3920	-2320	27	14	40	-8792	6136	12936	14	15	-10	-16176	2496	-3080	-93	6	39	-15664	3264	-2824	-25	-10	36	125	130	8
-8116	-7188	11896	-12	14	-19	-16104	432	-2080	-11	13	1	-15800	3920	-2456	3	25	21	-9104	6064	12752	15	7	-9	-16376	2408	-3072	-72	15	23	-15768	3280	-2616	-49	-9	15	124	131	8
-8204	-7164	11828	-11	17	-14	-16192	328	-2192	-10	12	-3	-15568	3992	-2416	-27	41	24	-9048	5960	12640	14	0	-4	-16264	2456	-3080	-35	24	8	-15880	2992	-2648	-44	6	10	126	130	8
-8212	-7092	11836	-9	20	-18	-16072	648	-2000	-5	17	4	-15664	3912	-2712	-21	36	29	-9008	6120	12728	10	1	-9	-16272	2736	-2944	-14	14	15	-15808	2744	-2960	-13	13	19	125	131	8
-8176	-7144	11844	-13	13	-23	-16072	296	-2080	-9	21	-6	-15680	3832	-2632	6	14	24	-8944	6232	12664	8	-8	-23	-16168	2424	-2704	22	13	21	-15624	2792	-2704	29	11	23	126	130	8
-8156	-7176	11712	-14	8	-28	-15992	312	-1800	-1	25	-8	-15480	3808	-2584	21	6	13	-8792	6432	12848	13	-14	-14	-16160	2464	-2440	33	18	19	-15768	2848	-2672	55	-4	20	125	132	8
-8084	-7104	11884	-11	-4	-24	-16184	528	-2120	33	15	-15	-15416	4000	-2896	14	8	4	-9088	6144	12824	9	-10	-24	-16496	2560	-2952	-8	18	15	-15848	2720	-2704	57	8	14	124	132	8
-8272	-7012	11772	-12	24	-24	-16328	632	-2176	34	15	-11	-15472	4112	-2952	7	13	25	-9128	6120	12432	10	-8	-14	-16232	2216	-2784	-21	28	-5	-15944	2848	-2928	52	20	14	127	130	8
-8336	-7008	11844	-14	22	-30	-16224	592	-2168	16	7	-8	-15696	4048	-3088	25	14	43	-8864	6368	12880	7	-7	-11	-16176	2360	-2888	8	30	-9	-15712	3000	-3024	30	16	19	123	131	8
-8080	-7116	12036	-21	27	-23	-16232	312	-2296	24	-4	-23	-15408	3840	-2896	49	19	41	-8712	6416	12760	4	-6	-17	-16256	2640	-2856	9	17	13	-15768	3168	-2648	23	21	21	126	131	8
-8212	-7268	11764	-30	26	-21	-16112	464	-2192	2	-3	-27	-15328	3768	-2880	54	31	32	-9104	6168	12792	6	0	-24	-16368	2680	-2936	-26	18	16	-15864	3040	-2960	38	33	13	126	130	8
-8260	-7128	11728	-25	20	-26	-16064	376	-2144	-26	3	-28	-15568	3808	-2992	51	42	30	-8968	6056	12888	2	-3	-19	-16216	2192	-3048	-11	24	-5	-15800	2944	-3024	14	48	1	121	130	8
-8036	-7200	11752	-25	24	-28	-16168	352	-2096	-22	-4	-26	-15552	3896	-2752	45	43	28	-8904	6152	12552	-3	0	-18	-16056	2584	-2680	-3	19	-2	-15688	3040	-2800	-9	54	-8	123	131	8
-8132	-7228	11740	-27	15	-29	-16400	136	-2000	-15	4	-33	-15720	4088	-2856	-4	43	6	-8968	6064	12896	-6	-1	-13	-16224	2432	-3000	-16	23	0	-15712	2968	-2552	-26	62	-11	125	131	8
-8104	-7068	11896	-23	24	-20	-16128	488	-1832	5	8	-30	-15800	4064	-2896	-21	29	-10	-9024	6096	12752	-1	-12	-6	-16296	2416	-2656	-10	45	-11	-15896	2832	-2528	-37	62	-25	122	131	8
-8160	-7084	11872	-30	21	-20	-16136	464	-2280	-9	15	-26	-15680	3904	-2816	-28	24	-30	-8936	6280	12832	-8	-9	-8	-16184	2720	-2608	-38	51	-6	-16048	2872	-2704	-31	64	-35	121	131	8
-8036	-7136	11852	-28	17	-16	-16200	232	-2000	9	8	-30	-15592	3816	-3248	-42	25	-43	-8832	6176	12952	-10	-5	-14	-16144	2560	-2656	-64	63	-9	-15856	3024	-2688	-31	70	-36	124	131	8
-8248	-7108	11676	-31	26	-14	-16088	280	-2448	-6	4	-31	-15328	4000	-3504	-79	33	-49	-8944	6112	12768	-15	-2	-16	-16232	2336	-2896	-67	75	-19	-15696	3040	-2856	-46	75	-35	123	129	8
-8220	-7160	11672	-27	26	-17	-16128	392	-2456	-28	2	-27	-15392	3880	-3400	-97	33	-47	-8912	6104	12792	-14	-1	-12	-16216	2232	-2952	-72	83	-21	-15824	2744	-2912	-57	87	-36	124	130	8
-8104	-7144	11740	-33	12	-17	-16088	400	-2128	-49	-6	-30	-15464	3776	-3168	-109	26	-48	-8904	6104	12848	-13	6	-20	-16280	2400	-3168	-65	83	-16	-15856	2704	-3160	-58	90	-27	120	131	8
-8192	-7208	11764	-32	19	-15	-16304	304	-2184	-59	-12	-34	-15544	3952	-3328	-108	28	-41	-8768	6216	12952	-11	5	-19	-16264	2288	-2888	-61	77	-13	-15704	2752	-3192	-56	85	-36	120	130	8
-8104	-7176	11724	-36	23	-11	-16168	272	-1672	-63	-12	-35	-15496	3640	-3344	-138	42	-42	-9064	6104	12856	-8	9	-27	-16176	2288	-3248	-68	75	-10	-15800	2784	-3512	-75	84	-45	122	130	8
-8180	-7148	11832	-34	21	-12	-16080	376	-2256	-60	-19	-35	-15384	3488	-3096	-139	38	-45	-9016	6000	12696	-7	9	-14	-16168	2192	-2896	-64	73	-10	-15728	2824	-3272	-77	84	-43	120	130	8
-8228	-7080	11644	-31	4	-15	-15912	376	-1920	-60	-11	-32	-15552	3368	-3040	-102	26	-38	-9048	5944	12840	-1	11	-10	-16128	2176	-3056	-70	76	-15	-15688	2912	-3320	-87	81	-50	118	130	8
-8188	-7116	11696	-26	4	-20	-16096	360	-1760	-46	-4	-34	-15664	3112	-2912	-65	18	-19	-8992	6096	12952	-4	7	-9	-16080	2408	-3096	-68	78	-11	-15984	2640	-3000	-106	61	-48	119	130	8
-8032	-7044	11872	-27	7	-27	-16136	400	-1944	-4	1	-30	-15768	3128	-2752	-56	17	-21	-8872	5968	12736	5	5	-7	-16216	2472	-3032	-53	81	-15	-15880	2680	-3200	-89	56	-41	117	130	8
-8208	-7072	11812	-20	10	-30	-15936	304	-1968	22	9	-27	-15752	3560	-2704	10	3	1	-8896	6248	12792	3	3	-18	-16312	2304	-3056	-53	73	-10	-15800	2592	-3248	-51	57	-33	115	130	8
-8168	-7152	11684	-18	13	-35	-16048	248	-1952	46	15	-20	-15648	3416	-2752	17	2	6	-9008	5904	12880	-9	10	-27	-16280	2304	-3272	-33	70	-8	-15768	2696	-3592	-12	58	-18	117	129	8
-8016	-7228	11864	-19	21	-32	-16176	144	-1824	65	21	-19	-15648	3440	-2928	29	-2	8	-9136	5968	12760	8	4	-28	-16176	2232	-3568	-10	63	-11	-15832	2784	-3432	14	40	-14	119	131	8
-8224	-7244	11688	-16	22	-30	-16216	296	-1840	75	27	-30	-15816	3328	-2632	58	5	13	-8944	6280	12816	12	1	-23	-16288	2552	-3240	21	69	-21	-15848	2760	-3640	10	28	-17	117	130	8
-8212	-7196	11632	-15	22	-32	-16080	416	-1976	69	36	-23	-15720	3432	-2744	77	5	13	-8904	6168	12752	13	0	-35	-16040	2256	-3360	44	57	-9	-15816	2584	-3392	39	15	-14	122	130	8
-8188	-7168	11716	-15	19	-36	-15936	296	-1960	67	38	-23	-15624	3520	-3048	86	4	24	-8808	6136	12920	12	-6	-40	-16344	2584	-3168	31	37	2	-15696	2808	-3400	85	14	-6	120	131	8
-8160	-7168	11720	-10	21	-35	-16168	24	-2104	92	44	-28	-15496	3504	-3024	82	0	27	-9056	5936	12688	5	-6	-43	-16256	2136	-3456	39	29	3	-15624	2696	-3688	106	20	6	121	130	8
-8208	-7068	11736	-11	25	-44	-16248	264	-2336	111	43	-20	-15616	3640	-3408	90	-6	24	-9136	5960	12776	9	-9	-37	-16016	2264	-3576	43	28	-5	-15544	2824	-3656	80	23	6	125	131	8
-8124	-7112	11764	-11	28	-43	-16112	304	-2184	114	42	-15	-15480	3672	-3200	111	0	16	-8872	6008	12704	8	-14	-33	-16064	2176	-3576	38	25	3	-15568	2880	-3464	49	9	0	124	130	8
-8176	-7216	11728	-15	26	-43	-16144	104	-2288	130	44	-15	-15720	3872	-3224	115	-2	16	-9120	6032	12648	14	-14	-28	-16352	2408	-3272	20	29	-6	-15872	2776	-3616	30	-9	-12	127	130	8
-8276	-7088	11636	-20	34	-44	-16120	336	-2736	104	37	-5	-15384	3688	-3552	102	-9	22	-9128	6176	12928	13	-7	-29	-16224	2312	-3376	20	27	-8	-15832	2544	-3248	46	-24	-16	126	130	8
-8184	-7140	11776	-13	21	-45	-16280	264	-2416	63	32	-23	-15520	3552	-3656	92	-15	29	-8688	6256	12752	12	-4	-32	-16368	2224	-3552	27	15	0	-15712	2832	-3504	54	-26	-5	124	130	8
-8156	-7392	11648	-18	21	-40	-16144	40	-2448	56	23	-21	-15408	3728	-3512	99	-12	33	-8984	6072	12960	11	-7	-39	-16144	2224	-3464	20	5	12	-15584	2672	-3848	57	1	6	125	130	8
-8184	-7228	11644	-16	28	-29	-16200	56	-2504	57	10	-19	-15504	3760	-3536	76	-5	26	-9224	5968	12872	13	-5	-35	-16200	2144	-3544	30	1	12	-15480	2496	-3672	52	9	9	125	131	8
-8196	-7116	11712	-12	12	-29	-16184	184	-2456	29	3	-13	-15392	3784	-3472	43	-2	22	-9184	5976	12888	13	-3	-27	-16104	2176	-3336	35	-1	7	-15608	2616	-3552	38	13	6	124	131	8
-8280	-7248	11688	-15	5	-28	-16024	208	-2624	-18	-5	-22	-15440	3816	-3392	31	-7	18	-9000	6088	12896	8	-13	-20	-16184	2136	-3376	21	-4	5	-15696	2744	-2976	42	1	-6	125	129	8
-8180	-7192	11808	-16	8	-29	-16136	160	-2224	-39	-8	-25	-15504	3680	-3336	8	-10	9	-9016	6048	12768	12	-11	-16	-16104	2328	-3056	11	4	9	-15848	2704	-3088	28	-15	-8	122	129	8
-8168	-7116	11644	-10	-2	-30	-16256	120	-2408	-44	-11	-26	-15616	3464	-2960	-23	-12	8	-8856	6032	12984	16	-6	-20	-16304	2256	-3096	0	5	8	-15992	2824	-3120	14	-14	-8	122	131	8
-8128	-7176	11764	-14	-2	-30	-16184	160	-2056	-18	-8	-20	-15808	3464	-3008	-29	-12	5	-9016	6080	12768	15	0	-25	-16280	2280	-3440	-4	4	8	-15896	2912	-3600	-11	1	-3	117	129	8
-8112	-7188	11772	-12	8	-25	-16144	208	-2120	9	-11	-11	-15680	3488	-3104	-17	-13	-1	-8920	5904	12904	16	4	-24	-16224	2232	-3680	7	-5	9	-15616	2704	-3480	-17	11	-5	118	130	8
-8184	-7256	11708	-11	2	-22	-16056	64	-2144	12	-1	-4	-15784	3416	-3152	-23	-12	-6	-8880	6064	12784	16	-4	-20	-16208	2288	-3632	7	-4	10	-15704	2824	-3624	-6	8	-16	118	129	8
-8116	-7188	11816	-12	5	-25	-16040	264	-2168	7	-8	-10	-15448	3368	-3200	-20	-20	5	-9040	6192	12752	19	-6	-17	-16184	2208	-3328	6	-3	8	-15776	2688	-3512	-12	-8	-18	120	129	8
-8120	-7252	11756	-8	12	-22	-16104	328	-2264	-16	-7	-9	-15656	3584	-3288	-1	-30	17	-8928	6144	12800	11	-2	-21	-16112	2376	-3368	-1	2	5	-15928	2688	-3320	-10	-13	-10	119	130	8
-8108	-7228	11816	-15	13	-23	-16104	224	-2320	-5	-6	-16	-15704	3504	-3120	25	-29	17	-8928	6080	12616	13	0	-21	-16152	2400	-3168	-4	8	9	-15888	2544	-3536	3	-24	-5	122	129	8
-8232	-7164	11752	-12	14	-24	-16024	136	-2448	14	-6	-8	-15448	3600	-3264	21	-24	8	-9032	6104	12760	14	-4	-24	-16208	2168	-3360	3	7	8	-15824	2696	-3120	25	-32	-5	121	130	8
-8104	-7236	11744	-5	6	-32	-16256	144	-2208	37	-10	-4	-15336	3664	-3232	14	-26	7	-9096	5912	12880	14	-6	-23	-16056	2216	-3456	16	1	11	-15560	2672	-3392	34	-37	-2	123	130	8
-8172	-7164	11796	-1	15	-29	-16056	240	-2440	46	-14	1	-15528	3768	-3048	6	-25	13	-9040	5968	12808	15	-10	-23	-16248	2248	-3448	19	-7	13	-15736	2536	-3424	50	-26	2	122	130	8
-8176	-7120	11796	-6	8	-37	-15984	272	-2144	20	-8	-4	-15576	3448	-3320	25	-38	21	-9152	5952	12704	15	-11	-22	-16232	2224	-3480	30	-5	11	-15816	2752	-3520	50	-28	2	124	130	8
-8176	-7132	11840	-11	8	-42	-16144	160	-1952	8	-11	-12	-15792	3432	-3272	38	-47	15	-8944	6200	13040	18	-15	-23	-16224	2168	-3496	17	-11	14	-15688	2720	-3120	46	-34	8	122	129	8
-8216	-7196	11832	-8	13	-37	-16248	64	-2040	21	-12	-1	-15616	3440	-3104	44	-41	17	-8920	6112	12752	17	-5	-15	-16016	2120	-3192	10	-17	13	-15736	2616	-3272	43	-39	12	120	128	8
-8104	-7352	11868	-14	18	-31	-16336	112	-2216	39	-13	4	-15672	3560	-3400	43	-36	13	-9032	6040	12568	16	-13	-21	-16264	2200	-3776	15	-20	15	-15784	2656	-3640	49	-37	10	122	130	8
-8152	-7192	11768	-5	22	-25	-16104	232	-2144	29	-17	1	-15464	3456	-3192	38	-39	18	-9096	6096	12768	23	-8	-19	-15952	2352	-3536	24	-26	8	-15608	2720	-3456	45	-33	5	121	130	8
-8140	-7252	11688	-7	15	-26	-16088	240	-2080	10	-14	1	-15648	3416	-3344	41	-42	24	-8968	6080	12792	19	-16	-20	-16096	2272	-3480	43	-40	17	-15832	2896	-3408	43	-31	-5	122	129	8
-8140	-7256	11716	-11	15	-26	-16072	80	-2184	-5	-16	-7	-15584	3680	-2864	34	-40	26	-8896	5912	12944	19	-17	-25	-16232	2352	-3416	51	-36	29	-15664	2856	-3280	39	-30	-3	123	129	8
-8204	-7088	11820	-9	12	-26	-16160	384	-2248	-5	-17	-7	-15576	3728	-2880	12	-34	21	-8856	6136	12904	12	-10	-26	-16320	2472	-3240	27	-36	26	-15864	2552	-2816	30	-33	-6	122	129	8
-8104	-7288	11852	-9	12	-31	-16256	232	-2144	12	-17	-3	-15496	3688	-3248	4	-38	12	-8888	5976	12904	15	-3	-30	-16120	2264	-3304	18	-31	18	-15944	2424	-3104	27	-34	-2	123	129	8
-8124	-7196	11788	-9	25	-26	-16136	240	-2120	28	-20	2	-15584	3600	-2856	11	-34	17	-8864	6104	12864	16	-9	-13	-16304	2216	-3088	8	-25	17	-15800	2568	-3072	33	-39	3	124	130	8
-8156	-7132	11628	-7	21	-21	-16048	48	-2000	18	-14	5	-15672	3448	-3088	18	-31	20	-8960	5976	13224	18	-6	-25	-16288	2072	-3200	-4	-33	28	-15840	2576	-2936	46	-31	7	122	130	8
-8156	-7192	11772	-8	13	-27	-16168	104	-2096	3	-21	4	-15576	3464	-3280	9	-37	12	-9072	5896	12672	20	-7	-20	-16248	2152	-3336	22	-30	21	-15824	2584	-3104	45	-26	13	124	129	8
-8116	-7228	11752	-3	17	-19	-16048	288	-2000	-6	-17	-1	-15560	3616	-3112	7	-37	10	-8944	6184	12928	21	-12	-15	-16264	2280	-3144	25	-26	19	-15896	2696	-3200	42	-29	22	124	129	8
-8168	-7216	11696	-8	13	-19	-16032	48	-1992	-28	-14	0	-15680	3496	-3192	7	-37	18	-8952	6128	12664	15	-7	-24	-16152	2264	-3296	19	-32	27	-15760	2736	-3448	51	-27	16	122	129	8
-8108	-7188	11744	-12	-1	-25	-16136	256	-2096	-19	-18	-5	-15512	3488	-3112	-3	-41	12	-8984	5976	12848	14	-10	-20	-16072	2232	-3336	31	-26	22	-15816	2888	-3056	39	-34	1	121	131	8
-8136	-7184	11712	-6	12	-21	-16096	208	-2096	0	-15	-2	-15504	3440	-3024	-4	-39	12	-8920	6120	12864	15	-13	-20	-16232	2320	-3136	5	-26	19	-15848	2704	-3136	27	-35	-10	122	129	8
-8116	-7148	11868	-9	15	-23	-16128	200	-2120	13	-17	11	-15704	3512	-2976	19	-37	28	-9016	5920	12952	20	-8	-22	-16288	1992	-3480	14	-21	26	-15880	2560	-3352	18	-33	-7	123	128	8
-8120	-7168	11792	-7	17	-23	-16192	256	-1984	5	-14	8	-15640	3560	-3152	14	-44	20	-9000	6128	12872	28	-16	-18	-16344	2096	-3272	25	-23	23	-15704	2496	-3152	15	-27	0	124	129	8
-8128	-7168	11692	-10	17	-21	-16112	144	-2120	-4	-14	4	-15448	3488	-2968	3	-45	8	-8872	6048	12824	21	-7	-17	-16280	2440	-3384	7	-26	25	-15848	2552	-2960	15	-24	6	122	130	8
-8000	-7228	11800	-10	11	-24	-16160	184	-2120	-6	-19	1	-15520	3424	-3176	0	-36	10	-8864	6040	13016	24	-11	-15	-16176	2216	-3184	13	-24	21	-15880	2376	-3000	23	-24	15	121	129	8
-8160	-7200	11752	-8	10	-16	-16232	168	-2040	-2	-14	0	-15608	3488	-2736	-10	-33	14	-8904	6192	12752	21	-9	-17	-16320	2368	-3080	22	-24	17	-15736	2504	-3152	51	-32	17	122	129	8
-8180	-7140	11712	-4	10	-20	-16128	208	-2472	-1	-9	4	-15560	3672	-3128	-8	-29	20	-8848	6024	12672	16	-6	-24	-16160	2360	-3208	27	-27	24	-15960	2744	-3016	68	-36	20	123	129	8
-8120	-7176	11736	-5	12	-16	-16104	360	-1976	6	-15	3	-15584	3496	-2992	5	-34	25	-8808	6120	12760	22	-13	-23	-16352	2400	-3152	14	-31	30	-15824	2696	-3320	76	-33	12	125	129	8
-8148	-7164	11788	-5	21	-21	-16056	184	-2224	6	-10	4	-15504	3440	-3192	15	-40	31	-9080	6048	12904	17	-2	-22	-16224	2016	-3344	-1	-31	28	-15880	2680	-3040	69	-18	12	122	129	8
-8204	-7112	11756	-6	15	-25	-16080	320	-2152	0	-10	7	-15752	3360	-2936	29	-43	32	-9008	6024	12816	25	-8	-20	-16224	2280	-3560	16	-33	26	-15576	2816	-3392	30	-7	12	124	128	8
-8088	-7204	11728	-7	13	-23	-16344	208	-2016	7	-6	4	-15624	3408	-3392	29	-36	23	-9032	6136	12968	24	-7	-13	-16176	2248	-3240	16	-38	34	-15728	3000	-3280	10	-17	15	122	129	8
-8220	-7208	11788	-2	16	-19	-16136	240	-2128	11	-9	6	-15608	3720	-3064	31	-32	21	-8944	6000	12968	26	-3	-10	-16168	2384	-3104	2	-40	35	-15904	2712	-2816	-12	-24	7	125	130	8
-8148	-7124	11832	-2	22	-21	-16144	136	-1880	15	-10	2	-15640	3664	-3000	20	-31	20	-8952	6024	12688	22	-3	-19	-16072	2240	-3200	1	-33	30	-15752	2792	-2552	-5	-33	6	123	129	8
-8188	-7064	11804	-4	11	-16	-15960	360	-2216	2	-11	4	-15352	3584	-2904	1	-24	22	-8816	5880	12840	19	-2	-17	-16096	2152	-3304	15	-26	25	-15760	2496	-2912	-6	-25	6	126	129	8
-8184	-7144	11824	-6	7	-20	-16096	408	-2192	-17	-11	1	-15592	3544	-3104	-15	-27	30	-9048	6120	12872	21	-12	-12	-16176	2264	-3056	33	-19	24	-15832	2592	-2880	21	-16	5	127	129	8
-8140	-7168	11800	-2	13	-18	-16144	200	-2048	-11	-11	4	-15568	3536	-2984	-14	-32	36	-8952	6192	12872	21	-17	-16	-16120	2320	-3032	29	-21	31	-15984	2784	-2752	64	-14	7	128	129	8
-8192	-7192	11764	-12	10	-21	-16216	144	-1864	-14	-10	3	-15752	3576	-2912	-4	-35	27	-8808	6024	12896	18	-14	-22	-16064	2448	-3064	15	-13	31	-15944	2824	-2928	73	-17	12	128	128	8
-8104	-7172	11892	-7	7	-18	-16088	328	-1960	3	-9	6	-15552	3584	-3024	1	-41	11	-8968	6080	12640	18	-7	-16	-16216	2384	-3040	6	-4	24	-15864	2784	-2976	53	-10	18	127	129	8
-8076	-7228	11832	-6	6	-24	-16056	384	-2112	-8	-6	1	-15576	3712	-2888	-8	-39	10	-8808	6056	13008	19	-3	-18	-16200	2272	-3192	-9	-5	24	-16000	3008	-3040	19	-5	21	125	129	8
-8084	-7220	11820	-6	14	-19	-16272	240	-2256	4	-11	7	-15488	3616	-2848	-20	-34	12	-8920	6248	12920	19	-1	-16	-16328	2280	-3208	-9	-2	17	-15720	2832	-3088	2	-9	11	127	129	8
-8148	-7096	11736	-6	7	-24	-16056	320	-2112	12	-4	7	-15680	3488	-3128	-17	-28	18	-9104	6088	12992	15	-4	-17	-16152	2288	-3320	-10	-1	18	-15760	2648	-2824	-11	-12	2	124	127	8
-8096	-7148	11800	-7	11	-19	-16240	120	-1832	4	-10	-1	-15592	3496	-3024	-12	-27	22	-9064	6008	12808	17	-2	-21	-16368	2368	-3192	-4	-4	23	-15752	2696	-3152	-3	-18	-4	126	129	8
-8084	-7032	11840	-8	12	-19	-16328	240	-2064	18	-7	-1	-15744	3688	-3008	-11	-24	19	-9048	6104	13040	23	-13	-13	-16304	2320	-3392	26	-4	13	-15984	2752	-3168	3	-10	-10	126	128	8
-8180	-7084	11736	-10	26	-24	-16112	360	-2408	9	-6	-4	-15672	3760	-3072	-2	-23	23	-8912	6112	12848	22	-4	-15	-16256	2208	-3248	39	-11	12	-15856	2840	-3032	25	-2	-4	127	128	8
-8112	-7072	11812	-9	18	-23	-16000	352	-2200	7	-6	3	-15600	3680	-2864	3	-22	26	-9144	6008	12792	18	-14	-24	-16160	2264	-3464	47	-21	29	-15848	2528	-3224	38	-1	5	125	129	8
-8168	-7164	11896	-15	14	-29	-16112	304	-2208	13	-10	-3	-15744	3496	-2888	18	-28	23	-8784	6088	13024	20	-15	-25	-16152	2128	-3104	47	-17	26	-15808	2480	-3104	68	-7	8	125	129	8
-8120	-7216	11876	-9	27	-28	-16336	192	-2056	10	-5	2	-15576	3440	-2936	21	-27	19	-9016	6104	12800	26	-8	-23	-16128	2280	-3280	42	-19	24	-15752	2624	-3000	79	-12	12	126	130	8
-8148	-7116	11832	-9	23	-26	-16000	264	-2216	18	-3	0	-15584	3520	-2856	9	-19	20	-8864	6176	12952	25	-3	-23	-16176	2384	-3016	27	-29	23	-15904	2600	-3152	94	-12	8	125	129	8
-8088	-7116	11820	-10	17	-28	-16056	240	-1984	6	-7	-1	-15624	3624	-2744	26	-23	22	-9096	6088	12952	25	-2	-24	-16256	2224	-3376	29	-27	32	-15768	2776	-2992	91	-9	26	126	129	8
-8104	-7084	11920	-13	16	-27	-16160	192	-2096	4	-2	-8	-15680	3640	-2776	27	-23	21	-9024	6088	12848	26	-9	-17	-16328	2352	-3200	52	-25	13	-15840	2896	-3160	62	-9	31	122	128	8
-8196	-7168	11820	-11	16	-26	-16128	224	-2096	12	-1	-2	-15600	3552	-2784	25	-18	32	-8880	6248	13072	21	-1	-28	-16200	2256	-3240	52	-44	31	-15816	3064	-3424	77	-13	23	123	129	8
-8100	-7180	11904	-12	24	-24	-16288	240	-2064	19	-6	-13	-15552	3480	-2632	37	-26	35	-9080	6040	12696	22	-6	-27	-16032	2368	-3472	61	-42	26	-15664	2992	-3104	89	-5	3	124	129	8
-8204	-7172	11828	-18	26	-19	-15992	224	-2232	28	-4	-6	-15560	3688	-3008	41	-23	32	-8944	6136	12808	25	-14	-23	-16232	2392	-3072	43	-42	19	-15584	2696	-3304	61	-1	-11	123	127	8
-8108	-7156	11776	-13	20	-23	-16144	312	-2184	30	0	-8	-15624	3552	-2968	52	-18	36	-9008	5960	12632	12	-7	-28	-16056	2344	-3144	28	-41	32	-15736	2680	-3136	57	-1	-5	125	129	8
-8136	-7144	11836	-15	15	-27	-16088	352	-2136	8	-2	-6	-15536	3640	-2976	57	-15	38	-8920	6168	12928	17	-13	-19	-16360	2336	-2880	27	-45	19	-15928	2520	-2736	51	3	6	122	129	8
-8152	-7256	11764	-17	23	-28	-16056	280	-2040	5	-10	-14	-15616	3688	-2856	32	-16	30	-8968	6296	12840	18	-2	-23	-16472	2232	-3176	19	-48	15	-15992	2600	-2872	64	7	14	124	129	8
-8124	-7132	11760	-18	22	-23	-16192	200	-2400	10	-2	-12	-15616	3808	-2936	16	-9	19	-9056	6024	12816	17	2	-24	-16112	2328	-3056	26	-52	16	-16000	2656	-2848	74	9	11	124	128	8
-8140	-7176	11756	-20	16	-21	-16200	224	-2280	3	-8	-7	-15712	3760	-3184	21	-7	10	-8984	6224	12880	12	-7	-16	-16024	2168	-2960	50	-44	20	-15640	2936	-3000	75	22	18	123	128	8
-8168	-7140	11828	-17	24	-24	-16136	288	-2136	-11	-9	-10	-15568	3656	-2944	-3	-12	1	-9016	6096	12792	13	-10	-22	-16032	2464	-2544	39	-40	25	-15704	2768	-2560	46	14	8	123	129	8
-8124	-7220	11812	-20	13	-19	-16256	208	-2104	-17	-9	-10	-15600	3584	-2904	-24	-5	8	-8832	6152	12888	13	-13	-21	-16288	2456	-2680	7	-18	17	-15800	2760	-2504	38	8	4	124	128	8
-8180	-7116	11796	-21	15	-13	-16264	288	-2016	-25	-6	-18	-15568	3640	-3184	-43	-4	6	-9008	6040	12824	9	-4	-18	-16336	2392	-2896	-35	-2	11	-15912	2768	-2624	10	3	-11	124	130	8
-8216	-7084	11808	-14	8	-20	-16136	400	-2056	-42	-11	-14	-15608	3600	-2968	-45	-4	6	-9056	6120	12704	10	4	-18	-16216	2176	-2944	-33	11	5	-15880	2760	-2728	-26	6	-16	122	129	8
-8036	-7180	11728	-18	8	-25	-16040	360	-1960	-44	-8	-12	-15552	3584	-3064	-32	-15	6	-8920	6104	12864	10	0	-13	-16224	2352	-2952	-21	11	7	-15856	2688	-2968	-44	15	-10	124	128	8
-8128	-7156	11728	-14	2	-21	-16128	272	-1808	-14	-10	-16	-15640	3512	-2880	-25	-16	4	-8904	6144	12664	5	-7	-14	-16216	2520	-3136	-18	15	12	-15744	2784	-2960	-29	14	-16	123	129	8
-8148	-7132	11752	-18	11	-24	-16184	200	-1992	-8	-6	-7	-15584	3528	-3000	-22	-21	4	-8856	6128	12448	10	-3	-18	-16296	2336	-3128	-41	16	18	-15968	2496	-2976	-20	10	-22	124	129	8
-8228	-7168	11800	-13	9	-25	-16176	208	-2056	-11	-5	-9	-15600	3544	-2856	-32	-16	3	-9000	6088	12920	5	3	-23	-16320	2248	-3240	-48	16	1	-15896	2376	-3032	-16	15	-11	122	129	8
-8080	-7200	11780	-16	12	-15	-16224	240	-2216	-10	-10	-12	-15528	3648	-3112	-20	-19	5	-8880	6136	12752	6	2	-18	-16240	2192	-2952	-18	14	3	-15632	2600	-3168	-6	4	6	123	129	8
-8204	-7112	11748	-16	9	-21	-15912	368	-2256	-25	-7	-14	-15592	3648	-2944	-25	-11	-1	-8968	6120	12680	11	0	-19	-16128	2136	-3192	-18	5	17	-15664	2768	-3096	9	-3	2	121	129	8
-8104	-7172	11888	-22	5	-25	-16264	336	-1960	-36	-5	-14	-15592	3648	-3080	-28	-7	1	-8880	6080	12712	11	-6	-20	-16296	2256	-3128	3	6	18	-15904	2576	-3192	0	-7	-11	125	129	8
-8168	-7256	11812	-14	17	-23	-16288	224	-2032	-14	-10	-14	-15568	3656	-2944	-44	-6	2	-8856	6288	12728	17	-8	-15	-16264	2256	-3192	6	3	2	-15984	2704	-3280	0	-15	-17	122	128	8
-8176	-7116	11780	-14	25	-23	-16040	304	-1848	3	-6	-4	-15680	3584	-2952	-30	-11	9	-8936	6136	12760	14	-3	-19	-16072	2320	-3160	3	-3	12	-15624	2928	-3112	20	-18	-4	124	130	8
-8076	-7148	11880	-17	11	-26	-16184	144	-2144	23	-8	-6	-15584	3328	-3112	5	-20	4	-9008	6136	12760	16	-2	-20	-16200	2352	-3200	14	-11	16	-15824	2824	-3072	38	-5	2	121	129	8
-8136	-7248	11724	-13	26	-23	-16184	184	-2336	17	-12	-6	-15584	3448	-2944	12	-14	7	-8936	6200	12664	13	-10	-20	-16264	2384	-3232	20	-3	3	-15816	2576	-2752	30	1	7	124	129	8
-8108	-7236	11860	-12	23	-26	-16080	248	-2048	2	-10	-6	-15528	3544	-3024	26	-11	18	-8928	6048	12728	12	-10	-23	-16072	2176	-2872	41	-12	18	-15928	2416	-3216	27	1	7	122	128	8
-8056	-7236	11908	-14	14	-20	-16056	224	-1872	-7	-13	-13	-15744	3528	-2896	42	-18	19	-8896	6056	12704	14	-21	-18	-16216	2336	-2904	40	-10	22	-15720	2616	-2856	24	-8	5	121	129	8
-8200	-7152	11820	-21	17	-19	-15952	184	-2200	-23	-10	-13	-15672	3400	-2944	32	-22	27	-8960	6184	12728	8	-8	-22	-16168	2344	-3008	0	-6	23	-15896	2752	-3096	20	-12	-5	124	128	8
-8240	-7176	11808	-14	12	-26	-16120	184	-1848	-18	-11	-10	-15640	3472	-3040	24	-23	26	-9000	5944	12856	11	-8	-18	-16120	2184	-3304	-13	1	16	-16000	2512	-2728	14	-2	-5	122	128	8
-8164	-7148	11764	-18	3	-23	-16144	336	-2032	-3	-6	-3	-15688	3712	-2736	5	-18	17	-8832	6072	12816	12	-6	-15	-16360	2368	-3056	-20	2	9	-15856	2720	-2840	9	20	-1	123	129	8
-8060	-7240	11712	-14	14	-21	-16168	328	-1952	-5	-5	-10	-15624	3600	-2912	-18	-15	10	-8776	6088	12808	12	-2	-12	-16112	2264	-3232	-15	3	15	-15840	2808	-3056	-4	22	2	122	128	8
-8128	-7200	11776	-10	19	-15	-16176	152	-2224	3	-5	-10	-15600	3632	-3088	-47	-6	5	-9024	6040	12832	16	-4	-16	-16184	2144	-2952	-4	6	15	-15720	2640	-3120	-3	9	1	123	129	8
-8172	-7136	11740	-16	10	-19	-16056	264	-2072	5	-5	5	-15648	3544	-2880	-55	-6	6	-9000	6008	12760	14	-7	-14	-16368	2208	-3008	16	17	13	-15816	2616	-2976	-8	0	-2	125	128	8
-8156	-7168	11804	-6	12	-23	-16024	352	-1808	-11	-8	-8	-15720	3320	-3008	-43	-6	9	-8920	6040	13064	16	-6	-20	-16112	2264	-3384	9	10	14	-15816	2672	-2824	2	-1	-3	123	127	8
-8068	-7172	11916	-10	7	-22	-16216	24	-1928	-13	-3	-7	-15656	3400	-2928	-27	-4	16	-9104	5952	12832	16	-6	-25	-16248	2216	-3248	12	10	17	-15936	2536	-2992	23	4	-1	121	129	8
-8164	-7116	11748	-7	11	-22	-16168	288	-1968	-4	0	-8	-15744	3360	-2880	-16	-13	21	-8856	6176	12904	21	0	-21	-16288	2312	-3016	31	7	15	-15760	2656	-3136	46	8	0	121	129	8
-8112	-7156	11820	-12	11	-24	-16216	328	-2016	-2	7	-3	-15832	3584	-2912	5	-18	23	-8984	6104	12968	18	-5	-25	-16272	2312	-3264	19	5	22	-15864	2696	-3392	43	17	9	123	130	8
-8204	-7160	11884	-11	11	-27	-16144	296	-1912	8	5	-6	-15568	3576	-3000	18	-19	32	-8928	6008	12872	22	-6	-21	-16096	2320	-3128	27	7	25	-15768	2832	-3336	40	19	14	124	128	8
-8136	-7172	11792	-11	19	-20	-16216	72	-1864	26	5	-6	-15712	3624	-2720	26	-14	31	-8968	6216	12800	24	-7	-15	-16152	2256	-3096	10	9	24	-15896	2744	-3120	27	4	13	124	128	8
-8248	-7092	11708	-7	15	-21	-16216	304	-2120	26	8	4	-15712	3584	-2728	32	-14	31	-9104	6144	12760	22	-7	-20	-16368	2400	-3160	5	8	22	-15960	2688	-3048	13	-4	3	125	129	8
-8124	-7180	11852	-11	16	-23	-16088	360	-2192	10	5	-2	-15680	3648	-2888	40	-5	26	-8936	6136	12896	21	-8	-18	-16296	2288	-3384	3	5	11	-16040	2744	-3192	12	1	-3	123	128	8
-8164	-7168	11828	-13	19	-25	-16232	184	-1752	-2	5	-9	-15544	3712	-3040	17	0	19	-8936	6224	12888	21	-8	-19	-16240	2304	-3328	20	1	19	-15776	2776	-3280	29	7	7	123	129	8
-8156	-7104	11716	-12	16	-28	-16096	376	-2000	0	11	-5	-15600	3592	-2872	-6	-6	16	-8960	6144	12800	22	-2	-28	-16288	2216	-3248	35	-11	28	-15696	2864	-3216	59	12	13	123	129	8
-8096	-7180	11740	-12	15	-33	-16304	160	-1904	4	13	-6	-15696	3472	-3112	-8	-16	21	-8936	5952	12808	19	-14	-21	-16128	2248	-3368	44	-10	27	-15640	2616	-3192	67	0	9	125	128	8
-8176	-7180	11852	-8	27	-23	-16032	184	-1848	38	13	1	-15656	3568	-2904	6	-14	24	-9016	6064	12760	23	-13	-21	-16240	2424	-3040	25	-5	21	-15864	2544	-3048	50	-8	4	123	129	8
-8204	-7160	11748	-14	18	-22	-16040	200	-1952	45	7	3	-15632	3288	-3008	29	-14	22	-9016	6056	12880	21	-7	-18	-16128	2416	-3208	12	-3	13	-15912	2408	-2968	44	-9	6	123	129	8
-8092	-7156	11764	-13	15	-27	-16192	392	-2120	41	11	0	-15544	3512	-3048	56	-16	29	-8864	6272	12840	16	-8	-23	-16168	2160	-3320	24	-6	22	-15816	2648	-3224	45	-18	20	125	127	8
-8088	-7164	11876	-12	18	-25	-16192	224	-1872	27	7	-9	-15656	3520	-3208	54	-18	33	-8888	6104	12624	23	-14	-23	-16288	2160	-3160	39	-9	29	-15824	2904	-3024	65	-23	22	125	128	8
-8180	-7132	11888	-8	20	-25	-16232	184	-2304	15	7	-1	-15552	3672	-3088	47	-17	38	-8816	6184	12760	21	-7	-27	-16424	2416	-3304	26	-12	25	-15760	2952	-3312	39	-15	13	125	129	8
-8076	-7172	11768	-7	18	-25	-16112	280	-2408	24	6	0	-15616	3656	-3008	45	-25	40	-9072	6096	12920	15	-7	-23	-16312	2176	-2992	4	-18	27	-15680	2912	-3168	46	-14	7	122	127	8
-8084	-7192	11780	-9	16	-20	-16160	360	-2184	19	1	-6	-15664	3680	-2896	56	-27	36	-9000	6024	12744	15	-4	-20	-16208	2264	-3160	-2	-10	23	-15760	2992	-2904	40	-17	8	124	129	8
-8176	-7112	11908	-11	25	-20	-16224	240	-2072	11	-5	-1	-15504	3672	-3112	35	-15	28	-8832	6096	12696	12	-2	-16	-16264	2360	-3176	-18	-11	20	-15752	2808	-2920	35	-10	10	124	129	8
-8140	-7116	11788	-12	14	-18	-16072	456	-2352	-8	-4	-3	-15576	3880	-3008	11	-7	30	-9008	6048	12808	14	1	-18	-16144	2128	-3128	-26	-19	19	-15848	2480	-2760	18	-4	11	122	129	8
-8128	-7076	11844	-16	17	-15	-16272	200	-2096	-23	-9	-11	-15624	3704	-3240	-2	-14	26	-8952	5976	12952	17	-1	-16	-16256	2144	-3208	2	-20	23	-15776	2792	-2840	30	-2	13	124	128	8
-8104	-7164	11768	-17	19	-21	-16192	312	-2128	-18	-9	-6	-15552	3768	-2976	-30	-11	15	-8936	6016	12456	16	1	-11	-16200	2336	-3272	4	-17	22	-15760	2872	-3152	15	-4	12	122	128	8
-8160	-7136	11864	-13	13	-18	-16104	352	-2384	-15	-11	-7	-15416	3720	-3304	-42	-8	12	-8952	6184	12832	17	-7	-11	-16176	2280	-3048	5	-11	17	-15864	2928	-2880	12	6	4	123	128	8
-8060	-7120	11896	-15	6	-17	-16208	352	-2176	-14	-12	-4	-15616	3448	-2992	-41	-16	8	-8864	6096	12784	8	-2	-19	-16200	2224	-2944	-14	-9	21	-15760	2920	-3072	6	12	-4	124	129	8
-8172	-7196	11860	-17	2	-20	-16304	136	-2152	-32	-15	-6	-15696	3664	-3040	-43	-15	6	-9104	5952	12800	13	-5	-18	-16184	2232	-3168	-16	-8	18	-15888	2744	-3024	-16	20	-5	125	129	8
-8124	-7112	11820	-14	12	-15	-16192	280	-2144	-37	-16	-7	-15736	3688	-3024	-46	-10	4	-8920	6040	12880	7	-6	-9	-16232	2264	-2720	-15	2	14	-15816	2768	-2768	-38	15	-9	125	128	8
-8116	-7184	11820	-16	8	-19	-16064	400	-2024	-38	-13	-5	-15600	3672	-3040	-45	-12	4	-8928	6128	12888	11	-2	-15	-16128	2256	-2920	-27	9	19	-15896	2640	-2872	-37	15	-20	125	127	8
-8160	-7236	11844	-20	14	-14	-16008	152	-2200	-41	-13	-10	-15752	3400	-2976	-40	-21	2	-8888	6040	12824	9	1	-13	-16312	2416	-2952	-47	9	20	-15904	2624	-2736	-36	12	-17	124	127	8
-8072	-7228	11848	-10	11	-19	-16224	312	-1800	-28	-14	-3	-15624	3448	-2960	-37	-21	1	-8936	6072	12808	11	4	-10	-16256	2264	-2920	-40	13	13	-15904	2576	-3032	-34	16	-5	123	128	8
-8116	-7176	11848	-11	6	-18	-16160	224	-1968	-12	-6	-2	-15568	3456	-2912	-37	-16	7	-9048	6176	12848	10	0	-12	-16136	2192	-3064	-11	16	10	-15888	2480	-3088	-17	21	3	124	128	8
-8112	-7108	11784	-11	6	-22	-16240	320	-1712	-8	-6	4	-15576	3432	-2728	-26	-14	17	-8992	6240	12824	11	1	-18	-16064	2272	-3328	9	2	17	-15848	2456	-3232	14	10	8	122	129	8
-8180	-7196	11820	-11	12	-19	-16264	256	-2168	-14	-6	-3	-15640	3416	-3152	-23	-17	17	-8880	6040	12712	19	-11	-23	-16168	2256	-3328	30	3	25	-15864	2696	-3040	34	-4	9	121	129	8
-8060	-7068	11696	-12	17	-15	-16040	224	-2080	-5	-2	-3	-15824	3416	-2864	-24	-14	22	-9024	6040	12944	18	-14	-22	-16176	2360	-3232	27	0	22	-15968	2808	-3096	49	-8	5	124	127	8
-8204	-7120	11792	-11	20	-18	-16096	312	-1928	-3	1	-4	-15712	3448	-2888	-10	-12	23	-8848	6248	12768	21	-3	-22	-16216	2264	-3416	12	-1	30	-15736	2784	-2864	46	-3	7	125	129	8
-8108	-7116	11860	-10	15	-17	-16280	264	-2184	16	4	-3	-15552	3568	-3096	9	-14	26	-9016	5864	12752	23	-13	-22	-16264	2304	-3464	0	-4	28	-15600	2624	-3104	31	0	9	125	128	8
-8156	-7128	11764	-14	16	-21	-16024	256	-2024	23	4	3	-15432	3632	-2944	15	-13	23	-8960	6072	12784	20	-7	-14	-16264	2336	-3088	5	-1	15	-15864	2568	-3448	35	-4	12	124	129	8
-8136	-7060	11808	-14	16	-21	-16048	368	-1832	14	3	1	-15552	3536	-2952	17	-19	26	-8928	6192	12536	21	-9	-22	-16344	2304	-3288	15	-13	27	-15776	2744	-3424	36	-12	18	125	128	8
-8148	-7220	11788	-13	17	-20	-16200	456	-2128	3	6	0	-15608	3576	-3000	11	-25	29	-9096	6104	12920	23	-12	-21	-16296	2384	-3296	20	-22	28	-15800	2816	-3016	40	-11	18	123	129	8
-8156	-7220	11848	-7	16	-21	-15984	312	-2320	12	4	0	-15816	3672	-3048	26	-23	29	-8992	6232	12848	21	-4	-20	-16304	2456	-3152	32	-9	21	-15848	2832	-2840	45	-12	12	124	129	8
-8108	-7152	11908	-10	10	-22	-16160	128	-1864	13	1	3	-15672	3744	-3176	39	-18	22	-8872	6096	12776	18	-9	-19	-16384	2288	-3056	21	-24	24	-15840	2752	-2864	44	-3	17	123	129	8
-8116	-7096	11972	-4	21	-19	-16128	376	-2104	15	-7	-2	-15560	3696	-2888	27	-21	20	-8896	6024	12760	17	-8	-26	-16216	2192	-3056	33	-19	28	-15968	2816	-3352	47	-9	6	123	129	8
-8160	-7168	11812	-7	16	-22	-16024	336	-2184	6	-4	-1	-15584	3544	-3048	16	-26	25	-8920	6000	12904	20	-16	-18	-16376	2384	-3048	23	-12	22	-15776	2864	-2872	42	-17	-3	125	129	8
-8164	-7156	11776	-7	15	-25	-16040	288	-2096	3	-7	-3	-15600	3744	-2984	20	-32	29	-9080	6080	12776	17	-8	-17	-16216	2336	-3296	3	-10	20	-15768	2848	-2824	44	-11	-3	125	130	8
-8168	-7064	11744	-6	12	-21	-16088	328	-2232	-2	-10	-9	-15632	3792	-3016	12	-27	19	-8960	6104	12968	20	-7	-14	-16168	2432	-3176	3	-10	14	-15704	2696	-2880	23	-2	1	125	127	8
-8172	-7136	11764	-13	6	-24	-16200	336	-1984	-9	-9	-4	-15616	3648	-3000	-4	-16	12	-8872	6248	12792	16	-8	-13	-16216	2240	-3248	12	-12	14	-15864	2856	-3152	2	-10	10	122	128	8
-8148	-7200	11756	-14	12	-18	-16120	416	-2016	-12	-11	-5	-15800	3704	-3048	-25	-21	7	-8848	6152	12824	13	-9	-21	-16152	2240	-3016	22	-13	16	-15904	2904	-3024	1	-6	13	122	128	8
-8136	-7124	11716	-12	13	-21	-16128	312	-1920	-18	-6	-12	-15704	3552	-2944	-33	-23	11	-8864	6216	12864	15	-12	-18	-16296	2384	-3016	16	-9	20	-15752	2968	-2936	4	-14	0	122	128	8
-8136	-7104	11744	-14	9	-22	-16168	328	-1992	-18	-11	-6	-15792	3480	-2680	-22	-22	10	-8888	6256	12792	17	-9	-16	-16280	2504	-3048	-5	-1	15	-15752	2720	-3032	0	-8	-16	121	128	8
-8144	-7184	11892	-12	9	-21	-16056	296	-1992	-4	-12	-5	-15688	3664	-2928	-16	-22	7	-8824	6064	13080	18	2	-19	-16200	2320	-3080	-50	-4	18	-15880	2696	-2928	-1	8	-20	125	129	8
-8056	-7216	11720	-15	13	-19	-16192	152	-2192	-8	-14	-2	-15592	3568	-2880	-20	-15	6	-9160	6048	12776	7	7	-16	-16224	2128	-3464	-37	-3	12	-15816	2592	-3120	9	19	-15	124	129	8
-8192	-7160	11796	-14	19	-21	-16088	240	-1944	0	-10	-2	-15520	3832	-3240	-27	-12	11	-8984	6168	12792	12	1	-11	-16200	2336	-3056	-3	-3	8	-15808	2616	-3264	-2	12	8	124	129	8
-8092	-7116	11804	-14	11	-19	-16160	416	-1872	-13	-7	-7	-15608	3624	-3192	-30	-22	12	-8928	6232	12752	16	-2	-19	-16096	2336	-3240	11	-4	26	-15880	2784	-3256	0	-2	13	123	129	8
-8216	-7088	11852	-14	11	-22	-16096	432	-2104	-26	-7	-15	-15672	3576	-2848	-22	-30	15	-9000	6016	12752	17	-11	-20	-16248	2328	-3112	5	1	21	-15872	2720	-2992	-14	-16	4	124	128	8
-8164	-7144	11772	-13	7	-25	-16200	288	-1992	-11	-6	-2	-15592	3432	-3016	0	-23	11	-9096	6128	12944	18	-1	-22	-16360	2408	-3256	2	-5	20	-15880	2728	-3280	-13	-6	-9	121	128	8
-8144	-7124	11852	-11	9	-27	-16192	248	-2192	-6	-9	-7	-15600	3680	-2896	-3	-23	8	-9088	6112	12832	13	4	-21	-16216	2288	-3144	-13	-1	19	-15784	2624	-3056	-2	-2	-10	125	128	8
-8116	-7044	11880	-7	14	-27	-16264	312	-2112	7	-6	1	-15568	3656	-2784	-7	-18	3	-9072	6176	12808	15	-4	-17	-16176	2240	-3064	5	-8	12	-15728	2840	-3176	24	1	-2	124	129	8
-8108	-7084	11804	-11	23	-18	-16328	280	-2112	16	-10	0	-15680	3784	-2960	-5	-22	15	-9032	6176	12752	10	-1	-19	-16232	2368	-2792	12	-9	23	-15880	2736	-3232	25	5	2	122	129	8
-8172	-7128	11852	-14	15	-22	-15976	408	-1904	-3	-10	2	-15640	3560	-3088	-13	-21	25	-9008	6168	12904	12	-10	-19	-16184	2312	-3032	10	-7	20	-16000	2680	-2848	11	-3	3	125	129	8
-8156	-7096	11848	-12	18	-27	-16136	376	-2104	-19	-5	-14	-15480	3456	-2784	3	-21	18	-8960	6088	12944	16	-8	-21	-16256	2328	-3248	16	-1	20	-15872	2448	-3072	10	-13	1	125	129	8
-8092	-7120	11760	-18	16	-21	-16128	208	-2120	-10	-4	-9	-15504	3536	-2760	13	-19	12	-8880	6064	12864	18	-6	-19	-16264	2384	-3528	3	1	11	-15688	2704	-3048	20	-14	0	126	129	8
-8148	-7016	11764	-15	9	-20	-16112	400	-1920	7	-6	-8	-15552	3432	-2856	12	-26	13	-8920	6048	12920	14	1	-24	-16160	2184	-3456	-3	-3	16	-15736	2704	-3152	24	-17	0	125	129	8
-8192	-7060	11808	-11	10	-25	-16216	488	-2064	13	-3	0	-15568	3824	-3024	6	-22	18	-8864	6304	12872	16	-9	-13	-16216	2336	-3056	13	-4	15	-15768	2968	-3096	29	3	5	124	128	8
-8132	-7120	11848	-16	20	-30	-16200	240	-2056	13	-2	-6	-15680	3592	-2600	-8	-21	22	-9120	6112	12816	13	-9	-19	-16136	2328	-3264	13	-12	26	-15856	3008	-3248	15	11	10	122	129	8
-8088	-7140	11836	-15	13	-28	-16232	312	-2128	3	-2	-4	-15832	3528	-2832	-15	-18	19	-9104	6240	12576	20	-12	-18	-16280	2216	-3352	16	-11	18	-15928	2760	-3176	1	5	5	123	129	8
-8184	-7300	11672	-13	11	-24	-16176	256	-2192	1	-2	-9	-15680	3472	-3072	-3	-18	15	-8920	6168	12816	18	-4	-13	-16200	2368	-3032	6	-7	15	-15888	2760	-3024	7	-7	-6	121	130	8
-8104	-7180	11840	-9	19	-24	-16208	384	-1896	-2	1	-6	-15608	3528	-2984	5	-14	11	-8832	6288	13000	17	0	-21	-16272	2376	-3080	10	-5	19	-15936	2640	-2824	27	-10	-12	123	129	8
-8168	-7088	11844	-8	8	-22	-16264	272	-2128	0	-2	-2	-15752	3480	-2824	13	-14	15	-8824	6304	12816	17	-8	-22	-16168	2520	-2944	12	-4	15	-15712	2672	-2920	27	3	-9	123	128	8
-7996	-7188	11792	-14	15	-20	-16216	376	-2032	10	1	-4	-15624	3600	-2752	4	-19	20	-8872	6208	12944	18	-7	-19	-16328	2352	-3016	18	-2	22	-15736	2792	-3280	36	-3	8	125	132	8
-8128	-7064	11904	-12	22	-24	-16256	408	-2168	14	-9	-8	-15672	3696	-2912	-10	-12	23	-9040	6136	12560	17	-7	-22	-16136	2392	-3144	31	2	10	-16096	2744	-3320	43	-1	13	125	129	8
-8204	-7012	11896	-14	18	-22	-16128	272	-2048	18	1	0	-15368	3680	-2936	-5	-14	29	-9000	6152	12728	24	-15	-21	-16152	2360	-3208	39	-4	17	-15928	2656	-3080	39	-4	15	122	129	8
-8140	-7160	11712	-13	22	-22	-16184	288	-2232	19	-2	0	-15784	3432	-2768	19	-22	27	-8856	6120	12744	17	-16	-29	-16280	2328	-3040	33	-4	27	-15816	2840	-2976	75	-11	9	124	129	8
-8116	-7164	11820	-12	12	-28	-16024	360	-2216	-2	-1	-8	-15632	3400	-2848	35	-19	15	-9072	6136	12872	23	-7	-28	-16256	2376	-3272	45	-11	24	-15768	2768	-3208	81	-11	2	125	129	8
-8148	-7132	11784	-15	19	-26	-16136	304	-1904	6	2	-8	-15584	3560	-2856	27	-13	13	-8888	6048	12920	19	-11	-24	-16312	2312	-3072	26	-8	21	-15776	2728	-3264	55	0	7	123	130	8
-8152	-7120	11848	-10	14	-21	-16048	272	-2128	14	-4	-1	-15720	3640	-2736	21	-10	16	-8856	6096	12672	20	-17	-22	-16264	2264	-3008	22	-12	16	-15952	2864	-3120	38	-4	6	124	129	8
-8156	-7044	11940	-13	15	-24	-16208	320	-2056	-2	-6	-6	-15640	3664	-2888	14	-10	17	-9040	6176	12600	22	-10	-21	-16232	2408	-3360	17	-12	16	-15744	2864	-3176	24	-2	8	123	129	8
-8104	-7112	11872	-12	17	-23	-16120	360	-2224	-1	-1	-6	-15536	3576	-3176	-1	-13	15	-8904	6128	12944	18	-17	-18	-16304	2264	-3256	10	-8	16	-15728	2768	-2936	17	-15	10	124	129	8
-8104	-7136	11920	-16	12	-23	-16104	336	-1904	-1	1	-7	-15488	3432	-2896	-2	-15	12	-8896	5952	12800	22	-10	-20	-16264	2352	-3368	21	-8	23	-15848	2696	-2960	19	-16	1	122	129	8
-8140	-7104	11676	-11	18	-19	-16136	360	-2200	3	0	-6	-15632	3512	-2928	14	-10	13	-9032	6112	12952	18	-11	-23	-16312	2120	-3056	13	-16	21	-15928	2360	-3104	22	-7	-1	125	129	8
-8164	-7220	11872	-10	13	-24	-16208	160	-2352	0	1	0	-15432	3384	-2752	18	-13	10	-8928	6080	12888	21	-8	-22	-16312	2232	-3248	16	-16	22	-15976	2584	-2848	35	-1	6	121	129	8
-8024	-7076	11884	-7	8	-22	-16096	296	-1928	13	-5	-7	-15832	3544	-3040	10	-17	22	-9072	6168	12832	21	-1	-26	-16144	2304	-3040	20	-18	23	-15856	2712	-2912	43	4	12	123	127	8
-8200	-7116	11716	-10	25	-16	-16120	376	-2424	1	-5	-4	-15664	3672	-2824	10	-20	35	-8872	6032	12856	21	-1	-17	-16296	2368	-2808	4	-12	24	-15936	2704	-2912	31	3	18	122	128	8
-8084	-7128	11860	-14	20	-21	-16128	328	-2032	-7	-7	4	-15688	3736	-3056	13	-14	42	-8904	6192	12936	14	1	-13	-16176	2336	-3304	-10	-5	14	-15848	2904	-2816	15	5	19	121	128	8
-8164	-7104	11948	-11	14	-22	-16128	408	-1912	-5	-3	-5	-15600	3512	-2984	25	-23	36	-8792	6216	12736	17	1	-14	-16160	2440	-2792	-10	-5	19	-15944	2904	-2904	3	7	17	125	129	8
-8140	-7104	11684	-14	14	-19	-16224	392	-2288	-13	-3	-5	-15560	3504	-2816	18	-20	19	-8856	6344	12880	15	1	-18	-16240	2352	-3056	-15	1	22	-15824	2976	-2880	-8	10	8	122	128	8
-8124	-7124	11756	-14	7	-20	-16040	224	-1904	-22	-2	-4	-15568	3760	-2768	-5	-17	5	-9096	6176	12752	16	2	-19	-16392	2416	-3136	-26	4	24	-15784	2904	-3120	-18	10	-2	124	128	8
-8120	-7108	11908	-13	6	-16	-16248	328	-2256	-19	-7	-3	-15520	3808	-2880	-37	-13	2	-9072	6232	12960	13	1	-16	-16176	2216	-3088	-28	3	21	-15912	2752	-3016	-20	19	-9	121	128	8
-8140	-7156	11760	-12	5	-10	-16248	464	-2128	-22	-5	-5	-15664	3776	-3160	-68	0	2	-8968	6184	12640	14	2	-12	-16184	2208	-3440	-25	6	25	-15880	2784	-2688	-34	19	-10	123	128	8
-8152	-7164	11832	-15	14	-17	-16048	312	-2120	-24	-12	4	-15696	3464	-3024	-80	0	11	-8944	6152	12792	14	-2	-6	-16224	2280	-3096	-24	8	11	-15872	2448	-3192	-37	10	-5	126	128	8
-8160	-7120	11836	-13	10	-19	-16064	384	-2120	-23	-5	-1	-15496	3400	-2960	-66	-7	10	-8880	6136	12808	9	7	-12	-16136	2400	-3088	-23	9	15	-15840	2608	-2792	-10	8	0	122	128	8
-8144	-7076	11844	-10	6	-17	-16048	352	-1968	-38	-6	-3	-15616	3312	-2872	-38	-15	18	-8896	6104	12656	13	2	-17	-16344	2384	-2904	-22	11	21	-15880	2696	-3096	0	6	11	124	129	8
-8124	-7156	11832	-12	5	-17	-16288	392	-2000	-35	-2	-4	-15752	3424	-2936	-25	-18	17	-9096	6088	12704	15	-3	-16	-16200	2224	-3248	-22	15	22	-15800	2864	-3288	9	16	12	121	129	8
-8052	-7132	11756	-9	9	-15	-16176	264	-1872	-12	-2	1	-15792	3576	-2808	-12	-16	21	-9128	6008	12840	20	1	-14	-16304	2376	-3232	-23	12	20	-15688	2656	-3272	8	17	14	123	127	8
-8148	-7176	11744	-8	11	-16	-16144	280	-1840	2	5	2	-15640	3496	-2616	-11	-18	22	-8872	6128	12888	15	3	-14	-16152	2512	-3160	-9	5	23	-15760	2536	-3208	2	13	9	123	129	8
-8056	-7160	11824	-11	8	-18	-16320	392	-2176	17	-1	6	-15672	3448	-3088	-3	-17	25	-8896	6264	12784	21	-2	-12	-16160	2560	-3080	-9	6	19	-15760	2840	-3000	6	-1	11	124	129	8
-8192	-7108	11720	-12	19	-12	-16080	312	-2128	14	6	2	-15576	3480	-2912	13	-17	38	-8864	6168	12728	21	-2	-15	-16184	2392	-3056	-7	6	18	-15928	2832	-2904	17	6	9	124	128	8
-8096	-7100	11780	-9	18	-21	-16056	448	-2072	4	6	3	-15648	3576	-2792	23	-20	38	-9040	6168	12800	21	0	-20	-16224	2400	-3184	15	5	25	-15872	2856	-3120	10	4	7	123	128	8
-8092	-7144	11828	-11	12	-15	-16104	368	-2080	6	5	0	-15672	3576	-3112	25	-19	37	-8848	6120	12712	22	-2	-19	-16168	2408	-3272	14	4	29	-15744	2872	-3072	13	11	11	123	129	8
-8212	-7080	11896	-14	20	-11	-16176	328	-2320	7	7	-2	-15680	3752	-2776	7	-12	28	-8808	6192	12944	17	-11	-21	-16336	2464	-3032	-4	2	21	-15832	2832	-2800	22	11	6	126	128	8
-8096	-7148	11928	-11	15	-15	-16048	304	-1952	14	5	2	-15600	3656	-2968	-3	-12	28	-9024	6216	13000	20	-4	-19	-16256	2344	-3072	-6	-1	17	-15832	2832	-2904	33	11	6	127	128	8
-8196	-7124	11780	-5	18	-16	-16224	312	-2136	15	7	-1	-15576	3792	-2768	-16	-16	24	-8824	6128	12792	14	2	-21	-16184	2424	-3160	18	0	16	-15856	2904	-3088	44	7	10	125	128	8
-8208	-7140	11788	-15	14	-19	-16128	408	-2296	-10	9	-3	-15736	3872	-2784	-5	-10	20	-9032	6256	12784	21	-12	-20	-16256	2320	-3128	40	-5	22	-15952	2784	-2936	41	5	10	123	129	8
-8100	-7096	11868	-14	13	-23	-16120	376	-2032	2	7	-7	-15584	3752	-2896	-10	-7	10	-8992	6176	12680	21	-10	-25	-16096	2536	-3088	40	-2	25	-15960	2704	-3072	57	-2	8	126	128	8
-8124	-7136	11840	-13	16	-21	-16104	512	-2024	15	6	-3	-15584	3688	-2712	-8	-11	9	-8920	6216	12840	20	-9	-24	-16288	2464	-3272	20	1	19	-15832	2856	-3232	46	-6	4	124	127	8
-8120	-7104	11868	-14	16	-23	-16136	160	-1880	28	12	-3	-15552	3656	-3056	4	-18	18	-9000	6088	12920	18	-6	-24	-16328	2264	-3280	8	5	9	-15760	2776	-3112	41	-3	2	124	129	8
-8184	-7168	11748	-9	20	-23	-16104	392	-2176	30	5	-4	-15712	3576	-2704	23	-20	21	-8904	6008	12744	14	-4	-20	-16136	2368	-3288	8	2	8	-15752	2992	-3216	31	0	5	125	129	8
-8100	-7104	11840	-10	14	-29	-16224	616	-1944	8	8	-12	-15464	3656	-3048	32	-12	18	-8888	6344	12752	14	-16	-18	-16184	2248	-3208	22	5	8	-15816	3048	-3376	31	-3	5	125	129	8
-8124	-7132	11784	-13	15	-27	-16080	576	-2224	8	9	-6	-15616	3872	-2712	23	-11	18	-8888	6112	12568	21	-12	-25	-16176	2424	-3208	42	-6	15	-15744	2816	-2864	46	-6	0	123	129	8
-8136	-7092	11824	-15	18	-30	-16176	312	-2040	11	9	-8	-15672	3808	-2840	29	-13	17	-9000	6168	12560	18	-8	-26	-16224	2336	-3232	37	-9	19	-15816	2784	-3088	50	-11	-3	123	128	8
-8096	-7044	11808	-15	13	-24	-16064	240	-2096	23	4	-10	-15528	3656	-2840	34	-21	21	-8896	6136	12768	17	-11	-29	-16328	2376	-3104	23	-17	17	-15816	2712	-3144	43	-12	0	125	129	8
-8120	-6996	11772	-13	16	-30	-16088	528	-2208	28	8	-11	-15736	3536	-2792	41	-15	19	-9016	6144	12872	19	-7	-29	-16128	2224	-3456	7	-13	12	-15808	2776	-3192	48	-7	2	126	128	8
-8148	-7124	11892	-13	15	-29	-16144	512	-2224	35	4	-16	-15624	3728	-2856	46	-7	17	-8904	6040	12992	16	-12	-20	-16152	2360	-3224	18	-14	8	-15688	2880	-3272	52	-7	2	125	129	8
-8196	-7120	11824	-17	22	-32	-16312	400	-2200	27	-3	-13	-15528	3896	-2992	35	-4	16	-8928	6288	12800	15	-11	-20	-16080	2144	-2896	37	-20	17	-15832	2984	-3152	60	-11	5	125	129	8
-8132	-7124	11820	-22	17	-29	-16128	392	-1984	14	0	-13	-15448	3840	-3112	20	-4	18	-8960	6088	12624	8	-10	-17	-16296	2392	-2808	33	-26	21	-15848	2936	-2848	56	-14	4	124	129	8
-8124	-7156	11736	-15	21	-27	-16112	400	-1968	9	-8	-17	-15528	3496	-2976	15	-12	14	-8952	6096	12792	15	-11	-24	-16256	2464	-2984	20	-12	7	-15968	2688	-3072	44	-18	2	121	128	8
-8096	-7100	11828	-12	19	-31	-16072	208	-1992	-1	-2	-19	-15488	3448	-3072	21	-18	11	-8888	6176	12616	18	-13	-23	-16088	2320	-3192	3	-13	6	-15800	2752	-3096	25	-11	-1	122	128	8
-8100	-7124	11864	-13	15	-28	-16088	384	-2200	11	-10	-16	-15640	3520	-2880	22	-17	9	-8920	6224	12840	6	-3	-20	-16152	2384	-3336	-2	-10	9	-15832	2808	-3072	27	-5	1	123	129	8
-8140	-7092	11784	-17	18	-25	-16056	272	-2096	16	-4	-20	-15672	3576	-2872	28	-14	19	-9016	6112	12744	12	-2	-24	-16208	2280	-3200	9	-13	5	-15800	2920	-2872	33	2	-6	121	129	8
-8168	-7104	11852	-13	18	-27	-16216	312	-2032	9	-6	-11	-15816	3680	-2888	43	-17	26	-8880	6088	12728	16	-9	-20	-16176	2496	-3112	31	-13	8	-16008	2760	-2712	33	2	-8	123	128	8
-8088	-7108	11828	-18	21	-25	-16136	336	-2208	13	-2	-10	-15648	3584	-2776	41	-25	23	-9072	6144	12728	14	-10	-25	-16160	2424	-2816	36	-14	14	-15984	2592	-3032	35	-9	-3	122	128	8
-8172	-7096	11844	-13	13	-31	-16064	376	-2064	-2	-3	-18	-15568	3624	-2816	35	-14	15	-8880	6144	12840	10	-9	-22	-16320	2368	-3176	9	-10	11	-16000	2640	-2912	35	-11	0	122	128	8
-8168	-7136	11828	-11	10	-29	-16048	408	-2168	6	1	-17	-15600	3504	-2616	18	-9	14	-9032	6128	12680	12	-1	-25	-16208	2352	-2992	0	-4	12	-15992	2664	-2920	34	-14	1	122	128	8
-8132	-7144	11760	-14	13	-29	-16168	176	-2072	18	5	-9	-15640	3592	-2736	16	-9	10	-9024	6224	12584	16	-9	-23	-16144	2336	-3272	5	2	8	-15864	2752	-2912	32	-4	1	122	128	8
-8128	-7140	11836	-15	12	-31	-16120	176	-2104	20	-1	-7	-15840	3648	-2736	14	-7	12	-8888	6128	12568	13	-10	-17	-16168	2336	-3192	12	-2	12	-15872	2776	-3096	35	-5	6	121	128	8
-8080	-7132	11804	-9	9	-25	-16192	288	-2032	17	4	-8	-15624	3680	-2904	9	-8	12	-8816	6184	12944	17	-15	-22	-16208	2368	-3208	17	-4	15	-15880	2736	-2960	29	0	6	124	128	8
-8148	-7156	11844	-11	18	-26	-16248	440	-2272	5	6	-11	-15712	3640	-2904	-1	-7	15	-8936	6072	12920	13	-3	-24	-16232	2360	-3344	11	3	17	-15968	2792	-2752	34	0	2	122	129	8
-8136	-7144	11744	-11	18	-28	-16104	288	-2168	0	6	-11	-15712	3384	-2784	0	-9	15	-8968	6112	12872	15	-5	-24	-16088	2320	-3240	-2	2	12	-15952	2752	-2784	28	3	1	122	128	8
-8132	-7180	11956	-18	13	-25	-16104	272	-2136	11	8	-6	-15504	3384	-3008	14	-14	17	-8936	6064	12784	11	1	-23	-16200	2136	-3360	-2	2	11	-15768	2616	-3112	18	6	2	122	129	8
-8152	-7212	11772	-14	18	-23	-16144	128	-1992	14	4	-8	-15616	3528	-2864	16	-21	17	-9032	6040	12872	10	-8	-22	-16176	2264	-3256	-3	12	10	-15760	2736	-2792	20	2	-3	125	128	8
-8144	-7136	11760	-14	20	-18	-16040	312	-2192	13	4	-6	-15624	3736	-2952	7	-18	21	-9096	6112	12752	14	-9	-18	-16208	2384	-3352	-5	9	10	-15784	2760	-3000	-1	3	-3	123	128	8
-8204	-7036	11748	-14	5	-21	-16160	424	-2200	-7	0	-6	-15656	3840	-2944	-3	-11	15	-8936	6096	12672	12	-12	-17	-16112	2312	-2952	-1	9	11	-15904	2640	-3152	2	-1	-3	125	129	8
-8168	-7124	11780	-18	17	-22	-16272	208	-2072	-17	-4	-9	-15616	3848	-3128	-28	-5	11	-8936	6128	12872	11	-12	-17	-16232	2376	-2920	-10	13	13	-15832	2848	-3112	11	1	-5	126	128	8
-8148	-7176	11904	-16	18	-21	-16072	304	-2120	-25	-4	-3	-15440	3744	-2888	-42	-7	4	-9080	6040	12664	11	-1	-22	-16168	2072	-3240	-4	6	16	-15880	2736	-2968	16	-4	1	126	128	8
-8156	-7120	11796	-15	14	-25	-16024	200	-2328	-25	-3	-2	-15616	3488	-2904	-39	-18	0	-8904	6224	12736	16	-7	-18	-16240	2432	-3208	8	9	20	-15808	2648	-3248	10	1	-1	125	127	8
-8112	-7176	11788	-14	11	-15	-16272	256	-2080	-17	-9	-5	-15520	3360	-2856	-28	-27	5	-9048	5936	12816	14	-5	-21	-16208	2336	-3248	-10	9	22	-15728	2488	-3304	9	-1	4	122	128	8
-8144	-7160	11876	-8	8	-14	-16120	248	-1872	-14	-9	-7	-15696	3560	-2944	-28	-17	12	-8896	6232	12768	16	-4	-11	-16248	2432	-3424	-2	10	11	-15840	2664	-3200	14	-5	6	123	129	8
-8184	-7068	11828	-17	16	-19	-16056	304	-2400	-6	-13	-5	-15704	3760	-3064	-26	-12	27	-8856	6328	12704	18	-9	-14	-16344	2304	-3240	10	2	12	-15800	2896	-3304	27	-12	10	124	129	8
-8140	-7100	11820	-16	23	-13	-16104	248	-2232	-19	-14	-10	-15616	3768	-2960	-24	-7	27	-8848	6056	12952	18	-7	-22	-16088	2216	-3368	29	-10	24	-15896	2904	-3320	35	-3	9	125	129	8
-8112	-7100	11800	-14	17	-20	-16080	192	-2048	-22	-16	-3	-15640	3432	-3008	-5	-17	25	-8880	6144	12568	20	-6	-22	-16256	2240	-3592	38	-10	28	-15800	2648	-3216	35	-3	1	124	128	8
-8112	-7108	11788	-11	18	-20	-16048	296	-1808	-20	-8	-2	-15504	3392	-2864	12	-24	18	-8984	5976	12848	22	-6	-21	-16208	2280	-3352	24	-14	29	-15688	2656	-2792	23	-1	-4	125	129	8
-8128	-7136	11800	-15	13	-24	-15992	456	-2000	-10	-7	-3	-15648	3408	-2616	22	-28	21	-8968	6000	12952	20	-10	-16	-16176	2176	-3296	8	-11	16	-15816	2640	-3216	18	-4	-3	123	128	8
-8172	-7016	11868	-13	16	-23	-16040	304	-1992	6	-6	0	-15712	3720	-2704	27	-21	16	-9016	6224	12576	22	-7	-15	-16152	2344	-3248	6	-11	20	-16088	2720	-3208	19	-5	8	124	128	8
-8060	-7180	11788	-14	17	-22	-16224	448	-1920	11	-3	1	-15576	3648	-2720	5	-17	18	-9072	6008	13136	20	-8	-19	-16256	2248	-3176	31	-6	23	-15856	2808	-2904	37	-12	16	121	128	8
-8088	-7084	11796	-14	24	-23	-16224	296	-2032	21	-5	-3	-15632	3464	-2904	-4	-16	24	-8832	6304	12840	22	-15	-17	-16200	2304	-2960	36	-17	24	-15832	2808	-3080	43	-7	19	123	128	8
-8160	-7068	11796	-8	15	-23	-16176	384	-1976	19	1	2	-15496	3480	-2968	4	-21	34	-8920	6072	12880	19	-1	-30	-16144	2408	-3184	24	-13	31	-15768	2848	-3136	53	2	14	126	128	8
-8128	-7100	11848	-10	14	-24	-16232	432	-2056	9	3	-7	-15608	3448	-3096	32	-20	39	-8864	6056	12792	20	-11	-19	-16208	2392	-3256	23	-14	16	-15928	2792	-3144	47	1	0	124	128	8
-8136	-7160	11808	-13	16	-30	-16080	312	-1744	8	6	-5	-15456	3672	-2808	48	-14	28	-9056	5952	12744	21	-8	-21	-16240	2320	-3128	11	-14	16	-15840	2768	-3168	46	-2	2	122	129	8
-8148	-7060	11916	-15	16	-26	-16120	280	-1752	14	-1	-8	-15616	3792	-2824	33	-18	22	-9048	6248	12744	21	-6	-17	-16216	2432	-3392	27	-19	22	-15800	2752	-3120	50	-8	5	126	129	8
-8136	-7096	11828	-13	16	-24	-16136	384	-2040	22	1	-8	-15592	3840	-2864	14	-14	16	-8888	6216	12648	18	-11	-23	-16256	2400	-3000	26	-7	17	-15848	3008	-2784	44	-12	9	125	128	8
-8136	-7020	11836	-13	19	-27	-16120	424	-1952	25	4	-9	-15720	3704	-2872	14	-13	18	-8992	6128	12840	18	0	-29	-16352	2304	-3128	19	-5	16	-16008	2824	-2656	40	-10	9	124	128	8
-8160	-7176	11808	-17	22	-31	-16160	280	-2040	26	3	-9	-15496	3616	-2520	23	-11	15	-9024	6168	12808	17	-1	-27	-16184	2456	-3112	8	-5	16	-15648	3000	-2816	24	-6	8	125	128	8
-8124	-7168	11740	-15	17	-28	-16184	232	-2216	14	0	-12	-15552	3488	-2968	35	-6	15	-8904	6072	12992	12	-1	-26	-16160	2200	-3256	-11	-5	15	-15720	2984	-3168	18	2	-3	122	129	8
-8160	-7096	11848	-11	16	-25	-16088	296	-2128	8	1	-16	-15624	3832	-2952	35	-7	13	-9120	6168	12712	14	3	-19	-16256	2200	-3144	5	1	1	-15760	2848	-2944	26	1	-14	125	129	8
-8096	-7088	11940	-17	14	-26	-16120	328	-2152	2	-2	-14	-15632	3768	-3008	23	-4	13	-8824	6152	12736	11	-10	-18	-16112	2328	-2912	19	-5	7	-15808	2816	-2848	29	-1	-9	125	128	8
-8040	-7124	11804	-19	14	-26	-16168	304	-2320	-3	1	-20	-15528	3736	-2880	-5	-10	12	-8848	6312	12760	10	-6	-26	-16256	2488	-2608	20	-6	12	-15952	2784	-3040	37	0	-1	126	128	8
-8080	-7136	11776	-19	15	-28	-16040	272	-2064	-5	2	-20	-15632	3640	-2792	-16	-12	10	-9024	6216	12736	10	-3	-29	-16328	2368	-3232	0	-2	11	-15784	2888	-3104	24	13	-5	120	128	8
-8100	-7112	11916	-18	15	-30	-16024	296	-2168	8	-8	-13	-15696	3480	-2992	-9	-8	2	-9000	6040	12864	8	2	-30	-16320	2216	-3256	-22	6	7	-15848	2512	-2904	-5	23	-10	121	128	8
-8052	-7164	11916	-21	10	-25	-16224	280	-2200	10	1	-11	-15528	3736	-2960	3	3	2	-9008	6120	12800	12	5	-14	-16264	2280	-3240	-12	3	-5	-15728	2504	-2944	-7	18	-17	124	128	8
-8088	-7188	11684	-23	19	-23	-16136	480	-2184	-19	-3	-19	-15600	3480	-3128	-15	4	3	-8872	6184	12792	9	2	-19	-16200	2464	-3240	-12	5	0	-15824	2712	-2992	1	17	-11	121	129	8
-8020	-7124	11852	-26	19	-24	-16144	232	-2016	-21	-6	-24	-15624	3616	-3048	-39	-5	0	-9016	6128	12760	3	1	-25	-16072	2432	-3160	-18	5	11	-15800	2848	-2936	13	17	-7	121	128	8
-8132	-7204	11764	-28	11	-19	-16104	248	-1792	-31	0	-21	-15632	3472	-2864	-37	-5	3	-9080	6240	12744	6	-6	-20	-16160	2328	-3136	-19	4	9	-15896	2744	-2976	10	17	1	126	128	8
-8116	-7080	11796	-19	13	-25	-16136	112	-1912	-16	-6	-18	-15712	3344	-3088	-20	-4	-1	-8960	6000	12808	8	-4	-24	-16216	2328	-3176	-11	7	3	-15928	2824	-3040	4	18	-7	121	129	8
-8168	-7120	11856	-19	9	-23	-16192	416	-1992	0	-9	-17	-15632	3424	-2992	-3	-1	-6	-9056	6032	12712	4	1	-22	-16320	2208	-3304	-1	-1	6	-15808	2696	-3016	-2	13	-17	123	127	8
-8196	-7124	11816	-22	15	-28	-16144	320	-2120	-12	-7	-17	-15656	3600	-3216	-5	0	-3	-9048	6048	12824	8	-10	-22	-16144	2240	-3016	9	1	4	-15872	2544	-3024	6	9	-19	120	128	8
-8088	-7060	11820	-22	9	-24	-16072	424	-2024	-5	-4	-16	-15576	3520	-2928	-13	-8	12	-8960	6088	12776	9	-8	-20	-16232	2328	-3208	8	2	5	-16040	2664	-3096	16	3	-13	123	128	8
-8160	-7132	11924	-20	8	-27	-16224	152	-2152	-7	0	-16	-15752	3376	-2848	-5	-15	22	-9048	6152	12840	5	-12	-18	-16200	2328	-3360	10	8	6	-16032	2776	-2872	2	8	0	120	128	8
-8060	-7252	11936	-21	15	-27	-16160	168	-2024	1	3	-13	-15760	3384	-3048	5	-15	17	-8952	6208	13040	9	-9	-25	-16200	2320	-3248	2	8	5	-15824	2784	-2976	6	4	10	122	129	8
-8084	-7208	11896	-20	17	-26	-16112	200	-2152	11	5	-9	-15752	3360	-2792	16	-7	8	-8952	6024	12880	12	-1	-21	-16368	2176	-3424	-10	8	11	-15768	2536	-2912	13	9	-1	121	129	8
-8044	-7172	11856	-15	19	-21	-16248	184	-2368	13	2	-13	-15624	3592	-3200	6	-1	2	-9080	6088	13032	12	4	-23	-16264	2128	-3064	-8	5	11	-15776	2640	-2928	25	13	-4	122	129	8
-8196	-7196	11648	-18	21	-19	-16168	264	-2072	-2	0	-11	-15400	3728	-3224	-17	2	6	-8968	5944	12792	9	0	-23	-16352	2208	-3176	-6	3	15	-15736	2544	-2848	33	12	-7	122	129	8
-8212	-7096	11760	-19	17	-19	-16024	416	-2232	-21	-6	-11	-15488	3472	-3096	-37	-6	13	-9016	5936	12928	12	2	-16	-16120	2256	-3296	2	4	19	-15816	2552	-3080	16	12	2	120	129	8
-8124	-7164	11828	-13	15	-19	-16096	168	-2216	-17	0	-12	-15688	3464	-2944	-32	-9	17	-8912	6040	12776	18	-6	-21	-16232	2184	-3368	5	5	24	-15712	2616	-2992	6	8	7	123	128	8
-8072	-7120	11848	-17	10	-23	-16040	152	-2216	-2	3	-4	-15600	3384	-2896	-15	-8	20	-8928	6000	12864	19	-7	-22	-16208	2192	-2912	2	-4	27	-15864	2424	-3208	6	4	8	123	128	8
-8176	-7180	11716	-12	16	-25	-16256	72	-2208	2	0	-2	-15832	3296	-2896	-4	-6	25	-9056	6024	12896	18	-1	-21	-16232	2192	-3288	1	0	26	-15760	2336	-3448	14	8	3	121	128	8
-8236	-7156	11876	-3	13	-18	-15952	208	-2136	6	8	1	-15680	3304	-2840	10	-12	28	-9056	6152	12856	22	-5	-18	-16176	2136	-3112	6	-4	31	-15856	2584	-2936	25	7	8	122	129	8
-8080	-7144	11956	-6	12	-22	-16216	312	-2152	3	7	-3	-15672	3288	-2824	22	-15	40	-8984	6128	12936	25	-1	-14	-16208	2344	-3360	10	2	29	-15704	2592	-2808	34	9	12	123	128	8
-8116	-7112	11812	-9	8	-21	-16128	224	-1712	7	15	3	-15704	3360	-2736	37	-12	46	-8944	6048	12696	28	-7	-16	-16128	2424	-3136	16	1	29	-15880	2592	-3088	42	4	25	124	127	8
-8092	-7152	11736	-1	9	-17	-16120	120	-1984	19	24	2	-15832	3512	-2952	48	-18	48	-8984	6216	12696	24	-3	-22	-16344	2232	-3008	20	1	31	-15936	2680	-3192	43	-3	30	124	128	8
-8072	-7172	11792	-3	9	-21	-16176	368	-2144	40	16	3	-15672	3536	-2888	44	-17	46	-8904	6264	12880	26	-4	-21	-16216	2424	-3304	22	0	30	-15864	2720	-3056	63	-8	33	126	128	8
-8136	-7148	11836	-2	19	-20	-16248	288	-2192	51	22	8	-15656	3592	-2976	42	-13	51	-9048	6016	12872	25	-1	-21	-16264	2264	-3344	15	-2	24	-15696	2904	-3112	60	4	36	126	129	8
-8096	-7092	11800	-9	20	-20	-16128	416	-2032	41	24	4	-15640	3840	-2952	42	-6	41	-9024	6024	12776	21	-5	-27	-16208	2200	-3112	15	-5	27	-15664	2864	-3088	55	7	26	123	130	8
-8176	-7056	11864	-11	16	-22	-16232	336	-2280	23	20	4	-15552	3896	-3056	28	-10	34	-9080	6136	12752	25	-4	-21	-16232	2272	-3400	22	1	29	-15872	2792	-3144	46	5	17	123	129	8
-8220	-7144	11820	-12	22	-27	-15928	312	-2216	7	27	3	-15560	3744	-2864	16	-13	29	-8952	6048	12576	18	-4	-17	-16232	2328	-3176	17	2	18	-15744	2848	-3000	34	-2	10	127	129	8
-8000	-7204	11848	-10	14	-23	-16256	152	-1976	13	16	1	-15664	3672	-3200	14	-21	20	-8904	6352	12616	19	-8	-21	-16136	2344	-3368	17	-4	28	-15728	2904	-3080	38	-8	13	124	129	8
-8124	-7136	11860	-7	20	-18	-16184	296	-2232	28	15	1	-15560	3592	-3064	0	-17	17	-8816	6064	12952	18	-10	-22	-16288	2328	-3544	18	-3	24	-15824	2936	-3160	40	-9	14	124	129	8
-8156	-7108	11912	-6	17	-24	-16200	352	-2208	30	16	0	-15464	3600	-3072	3	-9	21	-9032	5872	12848	17	-9	-24	-16320	2280	-3416	14	-8	24	-15952	2696	-3352	26	-4	9	125	129	8
-8152	-7088	11812	-10	23	-20	-16168	288	-2480	16	5	4	-15408	3632	-3168	12	-9	27	-9008	6104	12640	16	-9	-19	-16120	2280	-3288	16	-6	21	-15936	2616	-3432	31	-6	8	125	129	8
-8132	-7108	11852	-13	18	-23	-16104	448	-2200	5	0	-3	-15416	3704	-3192	31	-13	39	-8832	6232	12680	23	-8	-19	-16144	2320	-3272	18	-11	28	-15680	2624	-3392	38	-7	5	122	128	8
-8120	-7184	11848	-10	22	-20	-16176	432	-2336	-5	-1	-6	-15464	3632	-3112	40	-24	39	-8792	6000	12864	23	-6	-20	-16264	2344	-3384	13	-17	23	-15600	2744	-3160	53	-19	15	122	129	8
-8092	-7176	11824	-11	15	-27	-16136	336	-2344	6	1	-7	-15592	3544	-2912	42	-23	37	-8936	6112	13008	22	-10	-23	-16112	2376	-3240	22	-21	20	-15712	2608	-3192	62	-24	18	124	129	8
-8084	-7108	11844	-10	13	-25	-16160	360	-2176	9	-1	1	-15464	3624	-3160	39	-24	35	-8920	6216	12752	20	-12	-21	-16288	2328	-3392	31	-26	31	-15784	2744	-3088	60	-22	33	124	128	8
-8072	-7136	11872	-12	14	-21	-16344	360	-2152	20	-6	-5	-15536	3600	-2984	24	-21	37	-9056	5976	12544	19	-12	-22	-16224	2304	-3104	36	-32	34	-15904	2792	-3040	52	-23	31	124	128	8
-8196	-7108	11808	-5	20	-21	-16104	360	-2384	18	-6	4	-15680	3656	-2960	26	-17	39	-8904	6040	12888	24	-12	-18	-16056	2248	-3104	34	-26	28	-15880	2768	-3040	42	-21	21	125	129	8
-8068	-7184	11868	-11	18	-22	-16112	464	-2016	-1	-5	1	-15696	3664	-2784	23	-21	38	-9080	6064	12680	22	-13	-19	-16128	2280	-3352	16	-20	28	-15832	2968	-3144	40	-16	6	125	128	8
-8128	-7216	11756	-12	21	-19	-15984	328	-2016	-13	-2	-5	-15528	3632	-2832	15	-24	31	-8856	6120	12936	23	-8	-10	-16200	2288	-3152	12	-18	29	-15712	2880	-2760	47	-15	6	125	128	8
-8188	-7128	11748	-11	11	-16	-16120	280	-2000	-14	-5	0	-15472	3744	-2936	7	-21	17	-9008	6152	12752	23	-5	-11	-16088	2592	-3208	-8	-20	25	-15880	2928	-3120	26	-18	14	123	129	8
-8088	-7140	11772	-12	5	-15	-16264	264	-2112	-13	-4	-1	-15376	3912	-3000	-11	-20	17	-9008	6120	12840	15	-3	-15	-16032	2352	-3280	-9	-16	19	-15800	2600	-2992	6	-10	10	122	129	8
-8184	-7136	11812	-10	16	-18	-16072	336	-1976	-7	-8	-7	-15512	3960	-2968	-31	-15	17	-8968	5976	12648	18	-6	-14	-16288	2408	-3272	-8	-11	25	-15880	2768	-2976	1	-4	10	124	128	8
-8144	-7068	11904	-9	17	-26	-16256	376	-2272	-3	-7	4	-15584	3504	-3216	-34	-20	21	-9032	6112	12632	21	-14	-15	-16088	2352	-3160	17	-16	26	-15856	2680	-2448	17	-14	2	124	129	8
-8152	-7080	11952	-15	11	-19	-16168	368	-2200	1	-12	5	-15632	3536	-2952	-18	-32	32	-9008	6152	12920	15	-7	-16	-16272	2440	-3144	15	-12	26	-15736	2824	-2840	14	-10	4	124	128	8
-8100	-7092	11744	-13	10	-19	-16120	280	-2272	-12	-11	-2	-15848	3392	-3016	16	-29	26	-8880	6152	12728	17	-5	-16	-16208	2448	-2984	-14	-6	24	-15848	2872	-3080	7	3	5	122	128	8
-8080	-7192	11832	-12	7	-22	-16232	536	-2144	-19	-4	-7	-15600	3600	-2848	18	-20	19	-8776	6216	12848	17	-6	-15	-16312	2360	-3136	-28	-8	13	-15696	2920	-2944	-6	13	3	124	129	8
-8104	-7076	11880	-17	11	-16	-16208	160	-2480	-20	-8	-7	-15720	3848	-2936	-2	-10	11	-8984	6248	12840	9	4	-14	-16200	2344	-3272	-32	0	17	-15784	2760	-3040	-13	14	2	125	129	8
-8124	-7080	11808	-14	11	-20	-16072	488	-1912	-19	-7	-7	-15584	3904	-2992	-18	-12	11	-9104	6088	12784	15	-5	-17	-16304	2328	-3256	-5	-1	9	-15760	2864	-2864	7	16	-12	124	129	8
-8148	-7124	11872	-15	12	-22	-16040	304	-2040	-16	-8	-6	-15520	4000	-2832	-41	-15	10	-8880	6248	12872	9	-3	-14	-16184	2464	-3064	17	2	19	-15816	2904	-2936	13	-1	-15	124	128	8
-8104	-7088	11968	-16	9	-20	-16200	416	-1976	-9	-9	-10	-15568	3656	-2736	-43	-20	10	-8904	6128	12672	10	-8	-23	-16216	2432	-3208	1	-3	17	-15944	2952	-2872	11	1	-8	125	129	8
-8260	-7104	11772	-16	9	-25	-16192	432	-2144	-3	-2	-8	-15848	3432	-2680	-22	-6	2	-9016	5936	12944	12	-7	-23	-16360	2432	-3320	-17	7	9	-15816	2840	-2936	-2	7	-4	124	129	8
-8088	-7148	11836	-18	15	-25	-16208	312	-2104	-6	-3	-8	-15768	3552	-2976	-15	-4	-4	-8952	6200	12640	12	-5	-19	-16272	2400	-3208	-13	5	6	-15888	2808	-3168	3	8	-8	124	128	8
-8156	-7108	11804	-18	22	-23	-16128	376	-2272	-1	-2	-22	-15544	3560	-2848	-20	5	-3	-9024	6152	12680	10	-2	-19	-16248	2144	-3368	-4	-1	8	-15744	2688	-2856	17	10	-7	124	128	8
-8148	-7100	11820	-21	12	-32	-16000	392	-2200	-5	0	-11	-15624	3520	-2856	-16	-6	9	-8928	6152	12896	7	-10	-18	-16096	2328	-3176	19	-4	8	-15664	2688	-2864	29	6	-2	123	128	8
-8100	-7116	11764	-19	9	-26	-16056	264	-2080	-5	-1	-18	-15656	3568	-2832	-1	-15	15	-8864	6232	12744	10	-16	-23	-16096	2320	-3064	14	1	17	-15848	2880	-2976	26	2	1	121	129	8
-8108	-7164	11696	-14	15	-27	-16176	224	-1944	-5	0	-15	-15616	3600	-2888	8	-17	18	-9080	6144	12768	8	-7	-26	-16328	2304	-2952	4	3	13	-15896	2856	-2936	19	-7	-5	121	129	8
-8084	-7088	11860	-19	20	-29	-16072	248	-2200	13	1	-8	-15712	3640	-2960	8	-15	7	-9176	6112	12776	13	-3	-26	-16152	2304	-3272	-8	-1	9	-15864	2712	-3144	8	3	-4	123	129	8
-8104	-7144	11800	-16	19	-24	-16128	320	-2024	21	-5	-12	-15720	3760	-3168	17	-8	9	-9024	5856	12856	12	5	-21	-16296	2376	-3144	-7	1	1	-15752	2592	-3200	14	6	-7	123	129	8
-8152	-7128	11820	-15	17	-25	-15960	360	-2440	9	-2	-10	-15432	3664	-3136	24	-13	11	-9024	6136	12704	10	-6	-21	-16312	2136	-3584	-1	-1	7	-15800	2696	-3072	7	8	-9	122	128	8
-8076	-7116	11864	-15	18	-24	-16120	240	-2048	-9	-4	-12	-15456	3784	-3096	0	-18	9	-8960	6016	12752	10	-6	-26	-16168	2240	-3064	9	-2	14	-15904	2808	-3000	19	0	-7	126	129	8
-8136	-7172	11848	-16	13	-23	-16024	312	-2192	-7	-8	-12	-15504	3800	-2912	-24	-26	9	-9048	6072	12688	17	-10	-22	-16240	2416	-3328	10	-4	9	-15896	2736	-2824	14	3	-10	124	129	8
-8132	-7116	11812	-17	13	-27	-16032	264	-2128	-12	-12	-11	-15624	3824	-2808	-18	-32	3	-9016	6232	12936	9	-5	-22	-16208	2304	-3304	7	-3	8	-15872	3000	-3104	1	11	-7	124	129	8
-8112	-7112	11860	-12	10	-19	-16248	384	-2120	-11	-13	-11	-15552	3632	-3056	-18	-23	-9	-9024	6216	12952	13	-8	-21	-16248	2336	-3088	7	0	10	-15712	2936	-3136	-1	8	-8	126	128	8
-8120	-7100	11884	-19	15	-22	-16280	304	-2432	3	-16	-14	-15688	3856	-2976	-37	-9	-11	-8912	6032	12632	9	-5	-19	-16296	2440	-3112	-19	2	8	-15776	2880	-3120	-18	2	-21	127	129	8
-8224	-7060	11792	-19	14	-19	-16344	432	-2416	-7	-21	-8	-15560	3792	-3192	-46	-11	-14	-8952	6200	12824	5	-1	-24	-16208	2328	-3288	-36	4	7	-15680	3000	-3152	-23	5	-29	126	129	8
-8212	-7132	11800	-18	22	-23	-16080	480	-2376	-22	-27	-14	-15512	3696	-3328	-57	-5	-2	-9064	6072	12744	8	0	-23	-16184	2312	-3488	-35	3	4	-15776	2880	-3200	-21	3	-26	123	128	8
-8100	-7152	11812	-19	12	-29	-16136	280	-2320	-31	-27	-13	-15440	3504	-3096	-40	-16	-5	-8992	6192	12928	11	-3	-22	-16096	2288	-3480	-12	-5	6	-15816	2664	-3176	-25	2	-18	126	128	8
-8120	-7160	11900	-18	11	-23	-16184	152	-2048	-20	-30	-15	-15632	3392	-2856	-26	-26	-3	-8944	6096	13040	18	-8	-19	-16216	2288	-3392	17	-17	10	-15856	2576	-3336	-6	-9	-11	123	128	8
-8196	-7100	11728	-15	12	-27	-16184	432	-2184	-19	-28	-15	-15808	3528	-2984	-3	-22	7	-8952	6136	12800	10	-18	-23	-16240	2448	-3416	33	-20	11	-15624	2592	-3424	16	-16	-7	123	129	8
-8096	-7212	11828	-17	15	-28	-16128	368	-1808	-19	-29	-15	-15600	3416	-2832	18	-18	5	-8864	6144	12744	13	-17	-22	-16320	2384	-3232	41	-22	17	-15864	2544	-3096	37	-18	-1	121	129	8
-8088	-7168	11788	-18	18	-23	-16272	296	-2072	-5	-25	-16	-15688	3360	-2664	25	-16	12	-8968	6224	12808	14	-19	-22	-16296	2272	-3496	42	-23	14	-15928	2664	-3256	64	-22	-5	118	129	8
-8164	-7056	11808	-17	23	-26	-15992	248	-1584	14	-19	-5	-15648	3384	-2696	43	-18	28	-9064	6024	12936	20	-9	-21	-16368	2200	-3096	36	-30	12	-15976	2760	-2760	73	-12	-2	120	128	8
-8108	-7160	11800	-11	16	-29	-16000	208	-1976	29	-4	-8	-15600	3272	-2680	68	-24	33	-8912	6136	12784	17	-14	-21	-16256	2240	-3360	43	-29	13	-15896	2712	-2744	76	-8	6	123	128	8
-8112	-7168	11724	-14	17	-29	-16160	392	-1928	30	0	-6	-15624	3376	-2672	72	-30	25	-8888	6168	12952	15	-19	-23	-16208	2240	-2728	46	-25	15	-15832	2704	-3000	71	-15	14	121	129	8
-8072	-7144	11868	-14	16	-30	-16168	296	-1696	36	9	-7	-15696	3552	-2776	65	-22	21	-8952	6096	12992	17	-15	-24	-16208	2400	-2800	53	-15	18	-16000	2728	-2792	57	-18	11	122	129	8
-8104	-7120	11840	-10	26	-23	-16112	224	-1976	41	9	-13	-15712	3736	-2816	47	-13	18	-8936	6048	12824	20	-16	-24	-16320	2392	-2784	41	-14	11	-15928	2560	-2928	57	-14	13	123	128	8
