#Activity	standing 
#ActivityID	8 
#Date 09-09-18-15
acc_rf_x	acc_rf_y	acc_rf_z	gyro_rf_x	gyro_rf_y	gyro_rf_z	acc_rs_x	acc_rs_y	acc_rs_z	gyro_rs_x	gyro_rs_y	gyro_rs_z	acc_rt_x	acc_rt_y	acc_rt_z	gyro_rt_x	gyro_rt_y	gyro_rt_z	acc_lf_x	acc_lf_y	acc_lf_z	gyro_lf_x	gyro_lf_y	gyro_lf_z	acc_ls_x	acc_ls_y	acc_ls_z	gyro_ls_x	gyro_ls_y	gyro_ls_z	acc_lt_x	acc_lt_y	acc_lt_z	gyro_lt_x	gyro_lt_y	gyro_lt_z	EMG_r	EMG_l	act
-11756	-2056	10660	-11	18	-17	-15640	-3912	-2032	4	14	-2	-15712	-680	-4120	18	-3	24	-12304	4528	10156	138	-38	-136	-16504	-2464	-1012	140	55	129	-16032	1484	-2512	206	101	46	126	127	8
-11788	-2072	10720	-10	17	-23	-15600	-3688	-2064	-2	4	-3	-15720	-656	-4032	20	-2	30	-12284	4528	10204	117	12	-133	-16400	-2460	-1056	99	63	120	-16036	1472	-2408	240	80	18	127	127	8
-11788	-2060	10788	-4	16	-27	-15472	-3736	-2272	-2	7	-2	-15640	-528	-4080	14	-3	26	-12236	4436	10320	121	-35	-137	-16452	-2520	-1112	91	-1	137	-16056	1492	-2564	218	33	5	126	127	8
-11736	-2072	10688	-3	17	-23	-15520	-3784	-2096	1	4	-6	-15600	-624	-4208	10	-7	23	-12284	4528	10324	119	-52	-80	-16468	-2468	-1128	76	7	116	-16012	1428	-2532	142	60	8	125	128	8
-11780	-2064	10612	-9	18	-23	-15560	-3888	-2216	5	0	-7	-15760	-800	-4072	12	-7	17	-12224	4468	10184	113	-61	-140	-16416	-2428	-1144	112	5	93	-16024	1464	-2512	177	1	-8	125	128	8
-11736	-2076	10716	-12	16	-21	-15464	-3816	-2376	5	6	-10	-15688	-520	-4208	10	-13	16	-12248	4532	10204	117	-75	-143	-16452	-2496	-1160	58	15	147	-16064	1424	-2468	172	17	7	126	128	8
-11768	-2064	10656	-7	17	-24	-15680	-3824	-2040	-2	-2	-8	-15680	-680	-4088	0	-9	16	-12304	4540	10268	146	-28	-145	-16464	-2484	-1028	80	6	160	-16108	1408	-2532	187	29	-3	126	127	8
-11788	-2100	10592	-11	13	-25	-15728	-3912	-2056	0	-3	-8	-15696	-672	-4240	-2	-9	15	-12304	4528	10308	111	5	-147	-16412	-2488	-1144	53	-32	116	-16084	1468	-2504	128	31	9	126	127	8
-11788	-2056	10704	-12	20	-25	-15632	-3784	-2016	2	-3	-7	-15704	-672	-4248	-2	-10	16	-12264	4520	10260	91	-23	-127	-16416	-2492	-1112	90	-23	105	-16016	1484	-2544	172	46	-19	127	128	8
-11736	-2088	10640	-15	15	-27	-15544	-3816	-2128	-2	-5	-9	-15696	-656	-4032	-3	-17	16	-12272	4500	10320	121	-33	-132	-16428	-2472	-1040	59	-2	128	-15996	1464	-2532	166	27	17	125	128	8
-11736	-2048	10672	-12	18	-22	-15528	-3832	-2336	-3	-6	-6	-15760	-720	-4088	-6	-11	14	-12316	4476	10272	139	-53	-117	-16436	-2428	-1040	57	5	161	-16120	1444	-2504	192	25	8	125	128	8
-11788	-2040	10616	-13	19	-25	-15504	-3752	-2176	-10	-4	-8	-15712	-688	-4168	-8	-16	14	-12296	4512	10316	141	-34	-132	-16468	-2452	-1040	24	-33	119	-16128	1424	-2496	172	10	24	124	128	8
-11708	-2104	10676	-11	19	-23	-15608	-3952	-2408	-1	4	-8	-15704	-648	-3952	-8	-11	15	-12308	4600	10304	141	26	-109	-16388	-2408	-1080	54	18	127	-16140	1440	-2476	195	6	4	124	128	8
-11740	-2112	10672	-12	14	-26	-15536	-3832	-1880	-2	2	-11	-15736	-728	-3832	-5	-7	18	-12344	4500	10160	132	-33	-159	-16456	-2448	-1100	101	-9	122	-16044	1476	-2464	157	52	19	125	128	8
-11748	-2116	10608	-14	20	-29	-15624	-3856	-2336	10	1	-5	-15848	-696	-4312	-5	-4	19	-12240	4520	10224	140	-37	-132	-16432	-2468	-1028	91	28	117	-16040	1428	-2440	228	58	4	125	128	8
-11812	-2036	10648	-11	18	-24	-15680	-3800	-2256	6	2	-6	-15704	-624	-4312	-6	-8	16	-12284	4540	10364	146	9	-159	-16432	-2472	-1028	85	-5	116	-16048	1468	-2588	190	58	40	124	128	8
-11724	-2084	10776	-9	14	-24	-15648	-3832	-2112	-6	1	-5	-15736	-704	-4232	0	-7	13	-12292	4528	10212	157	-22	-132	-16444	-2484	-1068	83	44	151	-16048	1476	-2540	175	51	36	125	128	8
-11764	-2104	10696	-9	17	-26	-15584	-3800	-1952	-3	2	-6	-15688	-760	-4008	5	-5	20	-12288	4488	10280	138	-25	-151	-16420	-2476	-1012	96	15	118	-16064	1460	-2608	157	32	46	125	128	8
-11776	-2088	10732	-13	18	-23	-15520	-3808	-2264	-1	4	-2	-15704	-752	-3912	16	-3	19	-12312	4564	10436	144	-25	-116	-16452	-2468	-1108	98	55	126	-16012	1440	-2572	166	41	19	124	128	8
-11736	-2024	10636	-12	15	-23	-15480	-3792	-1976	14	9	-2	-15712	-576	-4184	14	-4	19	-12272	4524	10264	140	-51	-109	-16392	-2412	-1036	102	88	108	-16128	1420	-2572	169	79	-1	125	128	8
-11760	-2052	10724	-7	16	-25	-15576	-3808	-2096	12	9	-8	-15656	-696	-4032	11	-2	20	-12272	4528	10212	143	-24	-115	-16408	-2472	-1080	102	41	157	-16024	1456	-2500	213	81	23	125	128	8
-11764	-2108	10652	-11	18	-20	-15584	-3872	-2144	10	9	2	-15688	-672	-4240	16	0	24	-12332	4540	10332	121	5	-174	-16404	-2480	-1044	137	109	117	-16064	1516	-2596	197	81	39	126	128	8
-11716	-2044	10616	-10	19	-21	-15504	-3856	-2256	10	11	-8	-15800	-704	-3992	19	1	22	-12300	4564	10320	131	-45	-157	-16416	-2484	-1048	146	76	108	-16032	1432	-2608	220	105	22	125	128	8
-11748	-2184	10648	-8	14	-24	-15528	-3776	-2096	0	5	-6	-15712	-600	-4080	13	4	23	-12360	4496	10364	151	2	-155	-16376	-2456	-1136	146	137	115	-16056	1396	-2484	237	78	-19	125	128	8
-11772	-2128	10572	-8	14	-25	-15728	-3752	-2256	-4	11	-2	-15744	-600	-4376	11	1	21	-12300	4580	10300	148	-40	-134	-16468	-2492	-972	181	103	118	-16064	1460	-2452	291	77	47	126	128	8
-11732	-2060	10700	-15	13	-25	-15616	-3904	-2048	-7	13	-9	-15720	-728	-4016	12	0	23	-12308	4572	10308	147	16	-144	-16432	-2520	-1140	108	108	103	-16024	1448	-2500	260	112	25	125	128	8
-11952	-1944	10396	-14	20	-24	-15472	-3920	-2224	-6	10	-5	-15768	-760	-4240	10	-6	25	-12352	4492	10220	103	4	-131	-16412	-2612	-1064	110	78	135	-16008	1348	-2684	240	126	55	125	128	8
-11832	-2056	10728	-12	14	-23	-15464	-3776	-1984	7	13	-5	-15696	-696	-4176	6	6	25	-12252	4464	10284	102	58	-118	-16420	-2552	-1108	165	109	125	-15968	1424	-2580	243	111	21	125	128	8
-11720	-2104	10744	-13	18	-24	-15704	-3832	-2152	13	14	-4	-15712	-560	-4328	-3	5	28	-12248	4484	10220	149	-21	-131	-16416	-2480	-1196	134	83	132	-15968	1356	-2668	226	74	23	126	128	8
-11732	-2032	10620	-11	19	-22	-15544	-3752	-2224	-14	5	-7	-15608	-440	-4224	-6	1	26	-12284	4492	10276	147	-35	-80	-16440	-2508	-1140	108	58	159	-16040	1440	-2680	269	36	-1	126	128	8
-11780	-2084	10628	-12	19	-24	-15512	-3824	-1944	-26	7	-12	-15744	-648	-4216	-10	0	17	-12260	4512	10348	131	-35	-126	-16464	-2508	-1168	102	58	158	-16076	1424	-2548	245	34	16	126	128	8
-11768	-2060	10680	-10	13	-22	-15448	-3944	-2352	-6	2	-5	-15696	-696	-4248	-11	-5	14	-12312	4536	10232	147	-28	-154	-16372	-2608	-1256	87	30	160	-16112	1360	-2636	235	80	16	126	128	8
-11736	-2084	10728	-10	17	-20	-15656	-3792	-2144	9	8	0	-15760	-680	-4200	-14	-3	13	-12324	4564	10272	97	-34	-140	-16364	-2544	-1124	97	25	133	-16064	1460	-2568	211	39	61	126	128	8
-11796	-2080	10692	-9	17	-22	-15632	-3864	-2112	-4	6	-7	-15664	-656	-4248	-12	-5	16	-12288	4584	10196	122	13	-149	-16408	-2516	-1156	97	24	147	-15984	1484	-2488	184	96	60	126	128	8
-11792	-2092	10644	-9	20	-23	-15472	-3848	-2040	-7	-5	-2	-15760	-688	-4288	-15	-2	17	-12324	4512	10320	119	10	-146	-16404	-2476	-1084	47	43	139	-16032	1520	-2388	115	66	52	126	128	8
-11736	-2096	10624	-13	13	-25	-15560	-3800	-2264	-6	1	-2	-15664	-680	-4216	-8	-5	22	-12320	4496	10252	155	5	-140	-16436	-2496	-1112	11	70	133	-16044	1524	-2644	119	134	-2	126	128	8
-11768	-2044	10652	-13	16	-21	-15632	-3800	-2440	2	1	-2	-15544	-640	-4304	-5	-3	20	-12268	4500	10200	122	-7	-154	-16392	-2484	-1188	7	87	121	-16012	1472	-2592	42	137	-24	125	128	8
-11756	-2080	10592	-13	16	-25	-15560	-3936	-2024	-13	-1	-3	-15752	-608	-3960	-10	-7	21	-12332	4500	10132	96	28	-111	-16396	-2544	-1100	-52	91	163	-16048	1416	-2600	-40	170	-23	125	128	8
-11780	-2108	10640	-16	16	-26	-15480	-3888	-1912	-16	4	0	-15768	-616	-4144	-11	-4	20	-12268	4484	10296	96	-10	-135	-16408	-2552	-1220	-28	62	151	-15956	1404	-2680	-43	219	-32	125	128	8
-11816	-2156	10720	-10	15	-22	-15648	-3704	-2104	-10	1	-5	-15672	-616	-4240	-9	-6	16	-12308	4508	10352	117	8	-143	-16408	-2480	-1188	-77	60	119	-15948	1404	-2684	-73	225	-26	125	128	8
-11768	-2076	10656	-14	15	-21	-15496	-3776	-2280	-1	1	-1	-15736	-664	-4504	-6	-1	13	-12296	4520	10248	133	8	-134	-16480	-2472	-1156	-53	72	142	-16040	1392	-2768	-69	188	-13	125	128	8
-11744	-2100	10672	-8	17	-22	-15520	-3864	-2104	2	8	-2	-15752	-616	-4264	-4	-2	17	-12256	4560	10228	135	-22	-147	-16352	-2524	-1244	21	15	170	-16020	1440	-2564	32	131	1	125	129	8
-11756	-2076	10696	-15	18	-21	-15504	-3776	-1928	0	5	-6	-15632	-672	-4128	3	-2	22	-12304	4552	10248	139	-36	-127	-16368	-2484	-1256	25	71	134	-16036	1384	-2644	148	129	4	125	128	8
-11716	-2084	10636	-8	14	-23	-15512	-4000	-2264	4	4	-6	-15568	-736	-4256	13	-4	26	-12312	4536	10284	149	-11	-145	-16444	-2516	-1224	96	33	151	-16020	1316	-2636	171	89	12	125	128	8
-11764	-2116	10656	-7	18	-23	-15528	-3712	-2128	14	6	-5	-15616	-880	-4392	22	-3	28	-12324	4504	10280	128	-37	-127	-16416	-2488	-1108	126	10	124	-15988	1376	-2676	290	101	38	126	128	8
-11756	-2128	10628	-8	17	-23	-15496	-3784	-2064	16	10	1	-15632	-760	-4360	34	1	30	-12268	4488	10264	105	-45	-175	-16392	-2580	-1148	107	33	141	-16012	1420	-2628	291	45	69	126	128	8
-11700	-2032	10668	-12	17	-22	-15544	-3960	-2128	21	15	-7	-15712	-896	-4136	40	11	41	-12264	4532	10260	119	-10	-121	-16444	-2516	-1120	103	52	146	-16056	1388	-2704	372	44	60	127	129	8
-11748	-2052	10640	-11	20	-23	-15568	-3744	-2456	22	13	-1	-15584	-520	-4312	27	10	45	-12312	4552	10416	129	35	-137	-16388	-2488	-1152	178	40	140	-16024	1428	-2744	331	29	87	127	129	8
-11668	-2020	10708	-12	19	-21	-15664	-3800	-2384	17	10	0	-15608	-376	-4432	12	3	39	-12328	4504	10228	124	11	-160	-16348	-2588	-1248	189	40	165	-16012	1248	-2688	333	52	53	125	128	8
-11828	-2128	10624	-10	19	-24	-15400	-3816	-2248	8	12	-2	-15648	-536	-4368	-2	-9	29	-12304	4540	10272	171	-12	-135	-16420	-2564	-1168	151	33	156	-16048	1276	-2600	358	37	93	125	129	8
-11736	-2128	10680	-14	15	-21	-15448	-3736	-2096	-1	8	-1	-15584	-720	-4208	6	-17	18	-12320	4452	10244	161	1	-157	-16392	-2556	-1188	141	-14	195	-16012	1300	-2620	343	55	97	124	128	8
-11808	-2092	10688	-13	18	-20	-15520	-3888	-2304	4	11	5	-15560	-936	-4232	39	-9	24	-12320	4508	10344	146	25	-117	-16380	-2488	-1248	185	43	191	-16016	1368	-2752	390	94	123	125	128	8
-11788	-2096	10652	-11	17	-24	-15584	-3840	-2280	11	14	6	-15696	-1064	-4256	67	18	42	-12308	4524	10332	157	9	-86	-16416	-2504	-1276	243	20	254	-16040	1396	-2700	375	71	151	127	128	8
-11744	-2160	10744	-12	15	-22	-15416	-3928	-2232	28	16	8	-15568	-1000	-4528	66	30	52	-12324	4520	10372	160	6	-159	-16432	-2488	-1184	265	63	232	-16012	1456	-2636	372	101	194	122	128	8
-11760	-2092	10764	-7	12	-23	-15472	-3888	-2048	52	25	8	-15552	-952	-4400	59	16	61	-12372	4556	10280	185	19	-129	-16496	-2440	-1284	210	37	253	-16060	1392	-2664	393	89	193	121	128	8
-11884	-1992	10688	-8	12	-22	-15512	-3672	-2168	42	30	14	-15744	-672	-4200	62	-3	63	-12252	4484	10300	202	64	-142	-16440	-2560	-1292	162	0	221	-16060	1352	-2644	412	54	156	123	128	8
-11664	-2252	10708	-9	13	-18	-15584	-3776	-2352	28	26	16	-15720	-520	-4320	72	3	58	-12304	4512	10240	205	28	-139	-16388	-2468	-1220	182	16	245	-15944	1436	-2676	488	85	164	126	128	8
-11716	-2048	10660	-9	14	-21	-15664	-3800	-2328	32	28	14	-15688	-440	-4304	65	13	53	-12320	4516	10232	176	13	-124	-16420	-2444	-1264	197	-22	249	-15940	1388	-2744	589	63	196	122	128	8
-11788	-2100	10684	-7	18	-17	-15632	-3664	-2208	38	23	17	-15528	-424	-4320	55	26	51	-12300	4592	10348	208	51	-118	-16408	-2484	-1236	349	46	214	-15960	1368	-2756	696	22	207	121	128	8
-11780	-2044	10616	-9	14	-19	-15584	-3600	-2168	24	18	17	-15592	-544	-4176	12	14	52	-12388	4484	10188	197	8	-102	-16404	-2612	-1124	469	41	267	-16088	1340	-2728	808	4	212	121	128	8
-11716	-2028	10552	-8	17	-21	-15432	-3752	-2336	13	18	14	-15568	-504	-4240	8	6	52	-12244	4516	10132	238	-20	-128	-16404	-2516	-1120	401	38	296	-16024	1364	-2576	857	-4	260	123	128	8
-11732	-2084	10684	-9	16	-21	-15624	-3792	-2152	6	19	14	-15464	-624	-4296	13	7	50	-12304	4560	10256	218	24	-135	-16392	-2528	-1208	264	-46	272	-15996	1536	-2512	784	-5	281	123	128	8
-11684	-2060	10776	-6	18	-21	-15680	-3776	-2472	20	16	7	-15488	-632	-4584	25	10	45	-12268	4560	10212	199	36	-106	-16476	-2440	-1104	86	-37	267	-15988	1636	-2612	626	35	230	123	128	8
-11728	-1996	10624	-10	16	-20	-15728	-3680	-2344	17	13	7	-15784	-584	-4752	39	5	43	-12272	4596	10188	200	60	-125	-16396	-2476	-1116	62	-11	285	-16012	1640	-2568	479	20	180	127	128	8
-11820	-2104	10760	-14	15	-21	-15512	-3704	-2288	17	13	10	-15696	-408	-4528	53	2	44	-12328	4516	10232	223	26	-155	-16412	-2520	-1164	100	9	267	-16028	1720	-2420	255	131	166	126	128	8
-11824	-2068	10684	-11	16	-21	-15632	-3816	-2600	19	13	11	-15712	-272	-4424	39	2	39	-12248	4464	10352	171	11	-119	-16396	-2344	-1148	-37	52	257	-16012	1652	-2600	-8	154	83	125	128	8
-11724	-2056	10756	-14	17	-17	-15744	-3800	-2144	21	11	6	-15688	-352	-4424	16	1	40	-12340	4612	10352	156	89	-136	-16484	-2368	-1048	-219	67	282	-16008	1692	-2496	-214	196	45	126	128	8
-11728	-2068	10632	-15	14	-27	-15544	-3696	-2296	7	13	6	-15752	-336	-4424	-1	4	32	-12324	4524	10200	143	45	-176	-16436	-2428	-1192	-373	28	234	-16020	1564	-2620	-405	291	-4	128	128	8
-11852	-2128	10724	-8	12	-17	-15520	-3760	-2264	-12	5	1	-15664	-320	-4608	-32	-2	21	-12356	4568	10244	129	3	-155	-16424	-2528	-1212	-380	57	237	-16004	1520	-2628	-384	345	-49	125	128	8
-11772	-2080	10652	-11	14	-25	-15560	-3744	-2232	-23	-4	5	-15688	-368	-4288	-53	-13	10	-12252	4632	10272	93	15	-164	-16484	-2508	-1140	-299	118	258	-16112	1508	-2580	-373	379	-40	125	128	8
-11776	-2092	10644	-13	18	-21	-15424	-3888	-2304	-36	-6	3	-15608	-408	-4568	-68	-15	5	-12304	4540	10272	150	67	-139	-16384	-2352	-1104	-289	146	199	-15996	1476	-2640	-306	376	-42	126	128	8
-11776	-2028	10688	-10	17	-21	-15552	-3776	-2424	-35	2	4	-15584	-464	-4456	-75	-13	2	-12364	4516	10244	109	30	-139	-16484	-2460	-1184	-409	92	218	-16016	1468	-2848	-263	332	-39	127	128	8
-11744	-2084	10736	-15	20	-17	-15552	-3840	-2184	-23	-2	-6	-15632	-512	-4544	-70	-11	5	-12352	4468	10196	121	89	-123	-16436	-2436	-1384	-409	73	197	-16028	1476	-2864	-256	334	-43	128	128	8
-11724	-2132	10704	-9	16	-24	-15584	-3552	-2112	-21	-2	-5	-15752	-664	-4504	-57	-15	6	-12324	4544	10108	120	72	-122	-16408	-2356	-1320	-389	103	185	-15908	1516	-2872	-262	292	-106	128	128	8
-11760	-2084	10792	-7	15	-23	-15432	-3632	-2304	-16	-2	-6	-15744	-472	-4216	-37	-11	13	-12276	4508	10304	137	38	-108	-16436	-2400	-1300	-277	123	236	-16000	1536	-2848	-236	239	-111	128	128	8
-11836	-2132	10684	-11	15	-27	-15496	-3760	-2176	-21	-2	-8	-15720	-592	-4592	-3	-13	8	-12336	4520	10292	126	55	-105	-16440	-2484	-1352	-115	139	174	-16052	1572	-2924	-168	236	-98	127	128	8
-11712	-1980	10624	-10	15	-24	-15488	-3696	-2328	0	4	-9	-15568	-504	-4392	19	-11	11	-12356	4516	10140	110	-2	-99	-16432	-2260	-1192	-37	111	184	-15948	1548	-2876	-113	251	-96	126	128	8
-11804	-2080	10688	-8	16	-22	-15392	-3736	-2328	21	9	-9	-15552	-704	-4416	35	-6	15	-12336	4556	10260	129	6	-133	-16432	-2344	-1432	-44	88	136	-15920	1464	-2964	28	170	-80	126	128	8
-11736	-2036	10672	-10	15	-20	-15544	-3592	-2296	13	1	-6	-15600	-584	-4328	31	-7	19	-12328	4560	10260	120	41	-127	-16436	-2452	-1368	45	73	116	-15988	1404	-2900	190	142	-80	125	128	8
-11736	-2040	10652	-11	17	-27	-15480	-3648	-2256	8	-2	-4	-15752	-304	-4408	13	-13	16	-12268	4516	10264	106	45	-144	-16448	-2376	-1312	81	91	118	-15980	1428	-3004	224	67	-62	125	128	8
-11800	-2032	10660	-12	20	-23	-15424	-3624	-2400	-8	3	-14	-15776	-432	-4280	-1	-20	13	-12324	4544	10264	140	36	-119	-16408	-2344	-1404	30	50	124	-15976	1452	-2800	285	40	-27	125	128	8
-11760	-2064	10696	-15	20	-25	-15400	-3720	-2232	-8	-1	-10	-15664	-520	-4544	-5	-20	10	-12376	4544	10212	114	43	-138	-16408	-2392	-1308	-53	84	115	-15932	1544	-3032	278	17	-41	124	128	8
-11732	-2088	10684	-13	17	-23	-15376	-3800	-2400	-16	0	-9	-15624	-504	-4344	-8	-11	12	-12316	4536	10164	92	-5	-153	-16444	-2448	-1264	96	125	100	-16000	1496	-2992	298	54	20	125	128	8
-11780	-2080	10760	-9	14	-22	-15584	-3688	-2432	-8	-2	-10	-15824	-616	-4080	7	3	17	-12296	4620	10208	120	-26	-154	-16420	-2408	-1292	161	67	66	-16040	1472	-2880	298	39	-19	125	128	8
-11740	-2056	10612	-13	24	-27	-15488	-3712	-2144	4	6	-13	-15584	-704	-4360	30	5	20	-12360	4504	10264	120	-43	-106	-16424	-2436	-1356	196	76	79	-15972	1508	-2896	293	-15	0	125	128	8
-11760	-2044	10736	-11	19	-23	-15664	-3784	-2224	26	23	-9	-15800	-568	-4648	41	11	23	-12396	4584	10280	124	-23	-168	-16412	-2372	-1396	157	52	63	-15924	1496	-2952	221	-7	24	123	129	8
-11752	-2112	10720	-12	22	-24	-15480	-3880	-2256	35	23	-9	-15648	-512	-4528	32	2	30	-12344	4528	10272	114	-9	-140	-16388	-2420	-1516	174	68	75	-15916	1452	-2776	202	23	3	122	129	8
-11776	-2048	10740	-13	19	-28	-15528	-3688	-2200	24	19	-8	-15560	-648	-4568	29	-4	27	-12316	4540	10308	87	-64	-156	-16336	-2528	-1364	171	62	64	-15916	1372	-2804	208	-4	17	124	129	8
-11596	-2104	10724	-10	7	-27	-15440	-3688	-2672	11	16	-12	-15368	-624	-4416	54	-5	22	-12392	4488	10192	102	7	-154	-16468	-2412	-1228	199	43	106	-15976	1380	-2728	260	-23	16	126	129	8
-11744	-2028	10688	-15	19	-25	-15664	-3952	-2472	22	13	-8	-15512	-600	-4576	57	17	27	-12384	4524	10284	85	-91	-149	-16412	-2452	-1436	215	33	77	-16084	1472	-2788	273	16	47	126	129	8
-11756	-2060	10680	-10	17	-23	-15560	-3656	-2456	32	21	-3	-15688	-304	-4304	40	17	25	-12336	4528	10220	127	-58	-152	-16464	-2512	-1208	168	91	74	-16044	1412	-2644	220	82	37	125	128	8
-11764	-2024	10652	-11	17	-22	-15512	-3600	-2144	11	11	-6	-15640	-392	-4672	8	-4	19	-12360	4436	10204	105	-59	-136	-16416	-2440	-1348	138	88	106	-16096	1468	-2776	182	119	-10	123	128	8
-11756	-2096	10652	-11	15	-24	-15600	-3648	-2448	-21	7	-11	-15808	-392	-4376	-5	-13	16	-12328	4564	10276	107	-40	-160	-16416	-2428	-1316	100	50	74	-15972	1576	-2868	72	137	2	125	129	8
-11768	-2048	10684	-10	21	-25	-15624	-3864	-2512	-21	8	-12	-15720	-672	-4608	-7	-9	7	-12304	4492	10240	72	-31	-185	-16316	-2472	-1416	51	131	68	-16048	1532	-2708	41	179	-12	125	128	8
-11752	-2012	10604	-10	20	-25	-15488	-3920	-2248	-10	13	-5	-15696	-576	-4224	-1	17	9	-12300	4448	10308	102	-65	-191	-16436	-2420	-1332	36	145	57	-15972	1444	-2876	-112	202	-52	121	129	8
-11772	-2040	10748	-10	18	-27	-15512	-3664	-2248	3	17	-6	-15504	-632	-4464	-4	21	12	-12304	4544	10320	98	-15	-138	-16404	-2456	-1456	7	93	62	-16044	1396	-2804	-242	223	-97	122	129	8
-11772	-2140	10608	-11	22	-28	-15360	-3856	-2352	-2	18	-4	-15432	-800	-4360	-13	19	20	-12320	4560	10172	101	-43	-192	-16320	-2500	-1316	-41	152	121	-15908	1424	-2832	-331	204	-65	125	129	8
-11784	-2080	10624	-10	15	-27	-15232	-3848	-2440	-4	16	-1	-15448	-712	-4600	-11	18	18	-12360	4536	10292	88	-56	-121	-16440	-2528	-1392	-83	117	124	-16016	1344	-3012	-343	222	-54	124	128	8
-11820	-2068	10624	-13	14	-19	-15536	-3720	-2424	-9	6	0	-15544	-544	-4888	-25	-8	19	-12292	4536	10236	108	16	-155	-16344	-2512	-1420	-83	113	153	-15956	1276	-2984	-348	280	-20	123	127	8
-11800	-2032	10616	-9	12	-17	-15696	-3600	-2256	-31	-3	-2	-15664	-456	-5008	-24	-13	24	-12272	4488	10212	101	-24	-147	-16356	-2456	-1436	-129	57	151	-15920	1296	-2924	-282	293	6	128	128	8
-11760	-1972	10748	-10	13	-21	-15752	-3680	-2256	-45	-12	-9	-15704	-440	-4624	1	-23	20	-12312	4564	10244	106	-35	-127	-16392	-2500	-1448	-159	60	188	-15960	1424	-3008	-229	258	33	131	129	8
-11744	-2024	10720	-15	21	-23	-15496	-3808	-2344	-19	-7	-7	-15680	-544	-4376	44	-18	11	-12352	4480	10280	82	2	-166	-16384	-2488	-1488	-123	24	187	-15980	1412	-3052	-196	232	10	127	128	8
-11816	-1992	10724	-11	20	-24	-15552	-3984	-2136	26	10	-5	-15720	-720	-4280	58	-11	13	-12336	4500	10212	129	-11	-136	-16364	-2556	-1472	-20	46	215	-15972	1416	-2948	-158	165	18	124	128	8
-11748	-2104	10608	-11	16	-26	-15408	-3760	-2104	44	14	-5	-15672	-616	-4056	44	1	24	-12328	4512	10408	99	-53	-127	-16508	-2380	-1304	34	87	184	-15960	1472	-2984	-91	147	-24	122	128	8
-11744	-2084	10680	-12	16	-18	-15696	-3712	-2320	35	23	-4	-15584	-632	-4304	13	5	26	-12272	4508	10276	120	-42	-124	-16432	-2392	-1404	-34	80	195	-15968	1400	-3000	-91	146	44	125	128	8
-11764	-2120	10736	-8	17	-23	-15560	-3728	-2640	-3	12	8	-15664	-600	-4576	16	6	25	-12280	4500	10276	108	26	-109	-16444	-2504	-1632	-35	60	153	-15948	1432	-2892	41	152	68	124	128	8
-11752	-2080	10704	-13	17	-22	-15528	-3784	-2744	-21	0	5	-15544	-696	-4736	9	8	24	-12384	4504	10288	76	-12	-111	-16368	-2524	-1404	41	56	194	-15952	1340	-2940	193	140	78	123	127	8
-11732	-2008	10684	-9	14	-22	-15512	-3688	-2640	-23	6	8	-15456	-632	-4624	-14	6	32	-12340	4476	10156	128	-31	-149	-16388	-2456	-1460	126	81	264	-16008	1440	-3024	246	96	69	125	128	8
-11728	-2036	10656	-6	14	-18	-15416	-3752	-2488	-16	6	7	-15504	-384	-4920	-26	1	34	-12280	4500	10204	135	15	-116	-16380	-2452	-1536	111	62	191	-15936	1456	-3056	173	69	54	125	128	8
-11776	-2080	10680	-8	17	-19	-15528	-3616	-2336	-16	3	6	-15488	-352	-4944	-37	-14	33	-12344	4508	10276	162	-6	-121	-16396	-2512	-1460	52	47	213	-15948	1480	-3028	133	39	64	125	128	8
-11840	-2072	10612	-7	14	-23	-15472	-3792	-2680	-10	-10	5	-15544	-432	-4944	-30	-28	30	-12316	4508	10208	171	-11	-115	-16424	-2500	-1352	42	16	201	-15988	1396	-2916	8	90	59	126	128	8
-11792	-2008	10616	-10	15	-24	-15552	-3584	-2784	-6	-11	0	-15648	-544	-4856	6	-23	28	-12312	4540	10184	138	1	-128	-16408	-2404	-1528	24	-27	276	-15956	1416	-3120	-66	142	51	127	128	8
-11784	-2120	10736	-14	13	-26	-15600	-3808	-2208	11	-12	0	-15568	-656	-4640	50	-14	33	-12372	4500	10368	138	-24	-127	-16372	-2404	-1460	1	-14	249	-15944	1516	-3072	-115	97	59	126	128	8
-11744	-2072	10804	-10	18	-25	-15416	-3744	-2040	15	-8	3	-15520	-656	-4624	69	-14	35	-12340	4476	10360	109	-82	-92	-16316	-2436	-1436	28	-37	262	-15932	1452	-3084	-220	63	96	126	128	8
-11784	-2028	10688	-15	16	-24	-15416	-3736	-2368	18	-4	5	-15584	-624	-4464	61	-18	32	-12316	4468	10240	159	-15	-102	-16336	-2380	-1400	-12	6	252	-15924	1432	-2964	-271	124	54	124	128	8
-11752	-2080	10716	-10	14	-18	-15424	-3648	-2304	18	-5	9	-15480	-584	-4624	39	-27	37	-12328	4500	10236	127	-37	-87	-16396	-2408	-1496	37	-21	229	-15960	1384	-3096	-193	124	54	123	128	8
-11796	-2120	10716	-7	13	-19	-15536	-3680	-2280	3	-8	11	-15512	-384	-4368	10	-26	34	-12372	4500	10256	169	10	-77	-16348	-2444	-1556	6	-17	233	-15892	1444	-3016	-90	96	81	124	128	8
-11804	-2024	10668	-8	12	-19	-15616	-3680	-2512	-10	-9	11	-15600	-360	-4832	-3	-22	31	-12388	4516	10308	176	-8	-146	-16384	-2496	-1484	116	-41	237	-15832	1324	-3172	123	42	130	125	128	8
-11772	-1980	10544	-7	14	-20	-15552	-3560	-2296	-7	-19	6	-15592	-304	-4960	-9	-27	26	-12316	4500	10304	174	3	-83	-16444	-2412	-1472	245	-32	249	-15888	1368	-3152	322	-64	140	125	128	8
-11788	-2088	10660	-9	16	-20	-15528	-3744	-2368	-8	-10	8	-15528	-352	-4584	-17	-32	22	-12348	4480	10188	159	-34	-99	-16408	-2368	-1580	269	-80	257	-15900	1268	-3248	462	-126	175	126	128	8
-11756	-2052	10700	-10	12	-24	-15488	-3608	-2280	-8	-15	9	-15656	-736	-4712	-17	-41	25	-12252	4428	10340	178	-5	-96	-16352	-2524	-1568	311	-80	279	-15884	1340	-3172	627	-201	156	126	128	8
-11788	-2016	10688	-15	12	-25	-15480	-3656	-2280	0	-13	9	-15640	-704	-4336	-14	-38	31	-12332	4524	10268	185	-18	-88	-16504	-2372	-1504	363	-138	295	-15860	1396	-3216	731	-193	242	124	127	8
-11772	-2092	10708	-10	15	-24	-15504	-3648	-2440	0	-11	10	-15512	-672	-4312	-12	-35	30	-12312	4508	10336	192	-63	-64	-16428	-2396	-1552	366	-179	295	-15984	1480	-3188	786	-237	272	124	127	8
-11788	-2100	10616	-7	13	-21	-15600	-3528	-2408	7	-13	9	-15592	-616	-4448	-1	-29	33	-12328	4508	10192	211	-64	-65	-16440	-2412	-1472	426	-184	323	-15968	1500	-3040	763	-233	262	124	127	8
-11820	-2028	10764	-11	15	-24	-15464	-3600	-2328	8	-10	7	-15488	-584	-4704	29	-32	37	-12284	4544	10256	217	-9	-103	-16468	-2304	-1328	467	-189	284	-15996	1532	-3140	792	-294	242	125	127	8
-11800	-2080	10708	-12	16	-16	-15568	-3696	-2360	27	-12	9	-15416	-504	-4536	50	-31	37	-12352	4560	10252	203	-24	-94	-16408	-2352	-1332	396	-241	273	-15920	1580	-2988	787	-275	245	126	127	8
-11728	-2092	10696	-11	15	-22	-15704	-3784	-2432	30	-6	7	-15688	-496	-4440	74	-34	40	-12320	4532	10276	213	-7	-106	-16424	-2392	-1372	378	-254	259	-15916	1504	-2932	776	-238	194	126	127	8
-11740	-2024	10684	-10	17	-22	-15600	-3760	-2368	37	-4	9	-15560	-520	-4680	74	-32	40	-12296	4516	10200	219	25	-111	-16396	-2352	-1372	414	-162	280	-15960	1552	-2892	760	-264	211	125	127	8
-11720	-2036	10676	-11	12	-23	-15624	-3736	-2432	36	-6	8	-15464	-464	-4304	60	-31	43	-12268	4556	10216	190	-30	-84	-16416	-2308	-1416	335	-213	302	-15940	1504	-2856	807	-205	237	125	127	8
-11748	-2092	10748	-16	13	-23	-15536	-3608	-2584	23	-11	7	-15616	-288	-4480	34	-30	45	-12360	4544	10280	194	7	-92	-16416	-2440	-1344	376	-227	274	-15956	1496	-2916	869	-225	245	125	127	8
-11772	-1992	10684	-6	11	-25	-15584	-3560	-2448	8	-7	3	-15568	-344	-4392	15	-29	37	-12320	4548	10284	225	8	-99	-16400	-2320	-1380	395	-152	253	-15952	1580	-2852	821	-222	241	125	127	8
-11784	-2048	10692	-8	21	-21	-15552	-3616	-2592	2	-14	9	-15616	-336	-4552	-3	-28	30	-12364	4456	10332	226	-7	-77	-16380	-2384	-1412	368	-162	276	-15992	1528	-2936	784	-234	213	125	127	8
-11720	-2064	10676	-9	15	-19	-15616	-3664	-2320	-1	-12	14	-15584	-368	-4448	-19	-28	25	-12328	4444	10264	230	53	-85	-16436	-2388	-1340	307	-161	265	-15972	1544	-2892	692	-230	173	125	127	8
-11756	-2072	10624	-6	15	-24	-15552	-3616	-2576	0	-12	7	-15664	-360	-4392	-18	-30	24	-12296	4556	10284	198	87	-55	-16388	-2488	-1336	257	-153	286	-15940	1500	-2804	647	-193	155	125	127	8
-11728	-2028	10648	-14	17	-21	-15624	-3536	-2400	-6	-14	6	-15680	-512	-4552	-8	-34	21	-12276	4532	10268	213	77	-74	-16420	-2360	-1392	289	-173	283	-15976	1560	-2772	623	-116	214	126	127	8
-11760	-2080	10628	-11	15	-27	-15600	-3760	-2096	3	-9	1	-15640	-664	-4624	-3	-38	23	-12272	4568	10112	206	75	-55	-16404	-2288	-1224	252	-133	252	-15976	1604	-2764	645	-89	199	127	127	8
-11788	-2060	10624	-9	16	-26	-15496	-3728	-2344	4	-13	3	-15608	-568	-4504	7	-34	25	-12368	4568	10344	230	18	-84	-16464	-2328	-1140	239	-136	239	-15920	1620	-2752	606	-111	178	127	127	8
-11692	-2016	10712	-11	15	-21	-15584	-3680	-2328	4	-11	11	-15624	-600	-4192	20	-33	33	-12328	4540	10276	190	43	-89	-16404	-2324	-1356	188	-80	300	-15944	1484	-2800	600	-96	117	128	127	8
-11724	-2120	10708	-11	13	-21	-15680	-3664	-2216	13	-7	3	-15584	-416	-4640	16	-36	33	-12288	4580	10212	229	64	-101	-16456	-2420	-1356	199	-108	250	-15976	1516	-2868	545	-56	153	127	127	8
-11784	-2016	10704	-9	25	-22	-15576	-3656	-2136	16	-4	6	-15744	-256	-4528	13	-32	31	-12336	4564	10156	246	54	-57	-16372	-2324	-1460	256	-72	264	-15928	1516	-2932	548	-69	131	126	127	8
-11784	-2024	10688	-9	23	-21	-15552	-3624	-2272	17	0	2	-15648	-272	-4376	1	-27	29	-12312	4528	10292	232	44	-81	-16440	-2384	-1372	358	-58	269	-15924	1560	-2860	685	-86	165	126	127	8
-11796	-1972	10712	-8	20	-24	-15448	-3608	-2216	-3	-5	3	-15632	-176	-4552	-10	-29	28	-12268	4600	10240	200	40	-61	-16380	-2228	-1208	365	-90	308	-15860	1560	-2744	639	-126	151	126	127	8
-11716	-2048	10732	-11	18	-21	-15600	-3592	-2152	-5	-7	7	-15592	-352	-4512	-19	-30	18	-12372	4580	10196	180	42	-71	-16388	-2340	-1296	281	-54	315	-15908	1672	-2808	653	-107	108	128	127	8
-11712	-2008	10640	-9	21	-19	-15712	-3568	-2296	-6	-4	6	-15712	-360	-4640	-30	-33	17	-12420	4600	10148	205	23	-60	-16504	-2204	-1172	196	-57	288	-15904	1576	-2952	487	-107	103	125	127	8
-11784	-2028	10660	-9	22	-21	-15624	-3504	-2408	7	-11	-2	-15520	-168	-4640	-30	-30	16	-12348	4620	10296	195	7	-62	-16436	-2164	-1264	-42	-105	290	-15980	1696	-2928	282	-153	152	124	127	8
-11788	-2016	10644	-7	21	-22	-15552	-3440	-2600	-2	-18	-1	-15584	-496	-4560	-31	-30	18	-12312	4640	10120	151	85	-48	-16392	-2312	-1344	-98	-184	230	-15912	1644	-2888	233	-149	96	124	127	8
-11784	-2056	10648	-10	22	-18	-15424	-3624	-2336	-4	-25	0	-15752	-448	-4808	-22	-42	16	-12340	4596	10248	173	63	-75	-16540	-2280	-1432	56	-113	268	-15912	1552	-2988	244	-99	37	124	127	8
-11752	-2016	10640	-12	15	-23	-15560	-3600	-2496	-9	-27	2	-15584	-456	-4576	-13	-54	18	-12324	4564	10252	207	47	-34	-16460	-2268	-1292	30	-188	258	-15884	1556	-3040	230	-147	74	126	127	8
-11828	-2032	10664	-8	16	-23	-15800	-3664	-2288	6	-22	1	-15624	-424	-4400	-8	-58	15	-12428	4628	10108	148	35	-65	-16384	-2224	-1348	-34	-226	249	-15984	1608	-2868	154	-188	116	123	127	8
-11712	-2048	10700	-11	16	-21	-15656	-3664	-2328	15	-22	-3	-15648	-520	-4400	-11	-56	18	-12352	4512	10252	146	42	-84	-16476	-2408	-1336	-35	-248	262	-15884	1508	-2912	270	-225	97	126	127	8
-11756	-2032	10732	-10	13	-23	-15568	-3432	-2320	14	-20	-2	-15536	-224	-4528	-6	-49	18	-12348	4668	10128	169	106	-75	-16488	-2224	-1280	-1	-232	263	-16044	1524	-2972	417	-254	120	125	124	8
-11704	-2048	10640	-10	16	-24	-15544	-3408	-2376	7	-24	-3	-15536	-272	-4176	-5	-47	16	-12348	4636	10176	193	16	-80	-16416	-2320	-1312	52	-246	224	-15992	1540	-2916	477	-231	144	124	126	8
-11756	-2056	10592	-9	18	-22	-15528	-3616	-2400	11	-23	-8	-15712	-336	-4176	-23	-51	10	-12360	4612	10248	201	26	-93	-16412	-2320	-1280	90	-204	203	-15952	1480	-2836	519	-255	200	122	127	8
-11788	-2000	10640	-11	14	-25	-15488	-3632	-2208	-8	-24	-5	-15696	-368	-3952	-30	-57	7	-12284	4620	10188	198	50	-77	-16392	-2376	-1428	270	-285	257	-15972	1480	-2876	719	-282	171	124	127	8
-11732	-2052	10676	-9	14	-21	-15576	-3696	-2296	-11	-23	0	-15544	-448	-4072	-38	-60	6	-12380	4568	10164	180	52	-40	-16444	-2276	-1320	375	-154	235	-16012	1564	-2864	804	-269	165	126	127	8
-11780	-2020	10656	-10	11	-21	-15704	-3608	-2552	-5	-17	-6	-15688	-472	-4296	-42	-55	4	-12340	4620	10148	188	11	-59	-16528	-2192	-1352	233	-231	244	-16000	1660	-2772	793	-270	145	127	127	8
-11736	-2056	10620	-10	13	-20	-15608	-3584	-2376	8	-21	-5	-15752	-312	-4352	-32	-42	10	-12260	4660	10176	181	62	-78	-16400	-2188	-1168	94	-271	185	-16016	1684	-2796	678	-175	169	128	126	8
-11768	-2132	10616	-10	16	-19	-15640	-3568	-2248	4	-20	-1	-15720	-576	-4288	-24	-38	16	-12352	4612	10128	176	56	-71	-16440	-2284	-1304	103	-242	222	-16084	1572	-2768	590	-155	140	128	127	8
-11800	-2004	10680	-8	17	-19	-15648	-3680	-1920	3	-21	-4	-15560	-448	-4448	-4	-40	19	-12300	4616	10268	193	13	-14	-16436	-2356	-1160	322	-124	214	-15996	1548	-2660	630	-138	121	126	127	8
-11748	-2012	10584	-12	17	-22	-15536	-3632	-2248	13	-15	-6	-15784	-416	-4112	5	-44	23	-12292	4668	10028	171	63	-56	-16564	-2220	-1096	395	-133	223	-15964	1612	-2672	597	-93	99	124	127	8
-11780	-2056	10764	-11	12	-24	-15584	-3680	-2232	9	-10	-4	-15704	-680	-4112	17	-43	21	-12288	4644	10136	162	1	-31	-16436	-2136	-1128	271	-141	207	-15948	1724	-2712	459	-158	129	125	127	8
-11720	-2096	10656	-10	13	-20	-15504	-3568	-2504	2	-8	-3	-15736	-480	-4240	14	-32	20	-12284	4728	10088	129	-49	-76	-16384	-2180	-952	126	-144	163	-15900	1696	-2656	325	-137	69	125	127	8
-11720	-2028	10668	-12	18	-24	-15688	-3552	-2480	6	-10	-6	-15744	-344	-4240	6	-24	19	-12264	4716	10244	146	5	-124	-16468	-2208	-1112	60	-128	192	-16000	1688	-2664	338	-31	19	127	127	8
-11728	-2072	10624	-11	20	-23	-15400	-3496	-2336	19	-7	-13	-15528	-120	-4472	5	-21	18	-12296	4628	10272	159	-33	-106	-16540	-2160	-1300	78	-167	182	-16024	1676	-2712	249	-42	18	127	126	8
-11724	-1988	10712	-9	17	-24	-15560	-3568	-2320	23	-12	-10	-15656	-208	-4304	10	-19	16	-12332	4720	10128	131	-13	-126	-16476	-2168	-1132	41	-133	130	-15940	1756	-2828	126	1	50	127	126	8
-11812	-2012	10644	-15	17	-23	-15616	-3344	-2200	2	-20	-7	-15648	-192	-4192	13	-25	12	-12384	4628	10176	139	-3	-124	-16372	-2180	-1140	23	-135	131	-16020	1760	-2660	45	-82	17	126	126	8
-11788	-2040	10636	-13	17	-28	-15512	-3520	-2376	-13	-18	-10	-15640	-424	-4192	2	-35	7	-12396	4680	10172	113	-24	-174	-16448	-2200	-1084	26	-72	164	-16084	1708	-2636	64	-78	19	124	126	8
-11696	-2080	10644	-12	18	-22	-15528	-3720	-2144	-13	-19	-13	-15496	-368	-4024	-18	-38	2	-12336	4648	10156	107	-78	-113	-16460	-2180	-1052	-51	-93	109	-15912	1724	-2604	57	-79	-24	125	126	8
-11708	-2044	10732	-12	13	-20	-15664	-3504	-2040	-4	-19	-21	-15616	-440	-4448	-30	-27	5	-12344	4680	10116	102	-28	-142	-16496	-2116	-1232	-73	-13	114	-15972	1652	-2836	-40	-14	14	127	126	8
-11748	-2008	10780	-13	16	-24	-15704	-3472	-2488	2	-18	-12	-15616	-280	-4400	-34	-22	4	-12316	4712	10212	105	-57	-157	-16480	-2276	-1200	-5	-48	83	-15880	1548	-2724	-46	34	-9	126	126	8
-11756	-1992	10656	-17	18	-24	-15536	-3520	-2288	-7	-27	-18	-15680	-264	-4336	-19	-20	7	-12388	4608	10148	96	-62	-192	-16456	-2292	-1176	-60	-46	54	-15928	1532	-2820	-72	21	-39	126	126	8
-11732	-2072	10636	-11	14	-26	-15552	-3688	-1976	-23	-22	-16	-15680	-416	-4208	-18	-34	3	-12316	4648	10288	107	-71	-110	-16404	-2236	-1172	-22	-64	123	-15972	1600	-2804	-25	-45	-67	126	126	8
-11800	-2040	10660	-20	17	-27	-15520	-3752	-2440	-21	-16	-14	-15848	-488	-4168	-18	-36	0	-12340	4568	10164	62	-34	-165	-16476	-2164	-1080	-28	-40	104	-16048	1656	-2692	-106	-89	3	123	126	8
-11720	-2068	10656	-17	13	-29	-15672	-3784	-2192	-6	-21	-19	-15864	-656	-4104	-12	-21	3	-12344	4676	10220	69	-43	-137	-16452	-2144	-1116	-283	-97	30	-16000	1708	-2640	-140	-73	-33	124	126	8
-11756	-2072	10764	-17	14	-24	-15560	-3672	-2072	1	-15	-16	-15720	-496	-4328	-8	-15	7	-12352	4668	10160	64	-86	-160	-16432	-2316	-1184	-146	3	66	-16040	1648	-2712	-81	-34	-43	126	126	8
-11744	-1980	10684	-7	16	-27	-15680	-3656	-2400	4	-14	-12	-15664	-472	-4096	-6	-12	9	-12340	4676	10240	34	-91	-194	-16464	-2280	-1128	-31	24	84	-16048	1664	-2624	-52	58	-63	125	126	8
-11824	-1996	10760	-15	16	-28	-15608	-3712	-2264	-3	-17	-11	-15576	-352	-4248	-5	-15	5	-12364	4600	10124	93	-114	-217	-16472	-2252	-1144	-40	-9	63	-16016	1500	-2744	-90	96	-15	125	126	8
-11700	-2060	10704	-11	18	-26	-15600	-3600	-2256	-8	-12	-16	-15648	-400	-4224	-2	-19	4	-12372	4540	10308	67	-55	-214	-16540	-2268	-1168	-174	6	58	-15992	1564	-2780	-121	49	-34	125	126	8
-11744	-2064	10672	-8	14	-24	-15560	-3528	-2192	-6	-9	-14	-15664	-488	-4088	2	-19	5	-12292	4628	10220	46	-141	-182	-16480	-2288	-1188	-182	-42	36	-15992	1572	-2772	-152	77	-29	124	126	8
-11760	-2004	10796	-14	16	-28	-15704	-3752	-2264	7	-4	-16	-15624	-456	-4280	-5	-12	8	-12352	4608	10108	31	-86	-221	-16428	-2244	-1164	-259	-44	28	-16016	1596	-2728	-164	55	-59	124	126	8
-11732	-2068	10636	-10	17	-26	-15688	-3608	-2208	-4	-9	-17	-15680	-432	-4216	-11	-6	12	-12312	4596	10164	53	-80	-168	-16436	-2292	-1336	-235	23	38	-16020	1556	-2712	-186	89	-59	124	126	8
-11760	-2024	10624	-15	18	-24	-15584	-3608	-2248	-11	-9	-16	-15720	-312	-4320	-7	-3	7	-12332	4588	10280	43	-37	-233	-16488	-2376	-1252	-150	9	69	-15960	1492	-2840	-140	103	-61	126	126	8
-11776	-2024	10712	-11	16	-27	-15616	-3608	-2256	-3	-5	-17	-15776	-528	-4304	-6	-11	6	-12292	4580	10188	90	-58	-177	-16404	-2308	-1196	-65	0	71	-15984	1524	-2708	-66	62	-46	126	126	8
-11772	-2072	10760	-7	19	-25	-15544	-3648	-2040	-1	-5	-20	-15736	-464	-4184	-6	-12	3	-12328	4564	10236	90	-43	-177	-16464	-2372	-1276	-5	34	45	-16040	1484	-2716	-5	104	-48	125	126	8
-11736	-1996	10592	-13	19	-25	-15640	-3696	-1944	-3	-1	-18	-15504	-568	-4080	-3	-7	8	-12372	4576	10144	108	-69	-191	-16404	-2312	-1276	-44	-19	44	-15904	1508	-2752	2	86	-33	124	126	8
-11700	-2052	10692	-12	13	-26	-15608	-3720	-2264	8	-3	-16	-15640	-360	-4216	-5	-3	15	-12328	4548	10228	87	-59	-157	-16464	-2280	-1276	-21	25	59	-15980	1552	-2824	41	82	-27	125	126	8
-11792	-2056	10660	-13	23	-25	-15648	-3632	-2176	13	-3	-17	-15688	-392	-4224	2	5	17	-12324	4596	10140	75	-99	-156	-16376	-2308	-1200	35	5	69	-15988	1436	-2652	87	67	-40	126	127	8
-11828	-2048	10668	-13	19	-27	-15576	-3576	-2352	7	-7	-17	-15696	-472	-4568	9	6	18	-12316	4548	10260	92	-55	-161	-16492	-2388	-1168	50	80	70	-16000	1560	-2672	171	91	-26	127	127	8
-11728	-2064	10656	-12	21	-26	-15832	-3776	-2032	7	-10	-16	-15784	-576	-4168	20	-2	20	-12304	4628	10288	128	-77	-154	-16452	-2316	-1248	22	4	53	-16000	1540	-2744	180	93	-39	127	127	8
-11824	-1952	10756	-13	20	-24	-15496	-3496	-2192	11	-5	-17	-15704	-528	-4016	19	-4	17	-12348	4548	10200	125	4	-158	-16372	-2336	-1256	-18	26	72	-15972	1572	-2704	151	97	-18	125	127	8
-11760	-2040	10780	-10	18	-23	-15544	-3624	-1960	16	-1	-12	-15560	-376	-4184	18	-6	15	-12284	4552	10204	94	-22	-178	-16400	-2336	-1216	25	19	80	-16020	1472	-2820	168	55	-29	126	127	8
-11728	-2080	10576	-10	22	-27	-15664	-3648	-2024	16	3	-17	-15720	-376	-4504	12	-1	19	-12368	4580	10156	97	26	-150	-16404	-2312	-1080	106	39	84	-15940	1456	-2660	272	47	-66	126	126	8
-11820	-2056	10700	-8	19	-21	-15536	-3704	-2056	9	10	-15	-15824	-640	-4104	10	8	16	-12340	4600	10156	156	-51	-141	-16420	-2308	-1200	135	96	76	-16060	1520	-2708	276	60	10	127	127	8
-11772	-2040	10732	-10	23	-21	-15544	-3784	-2032	11	4	-18	-15680	-440	-4112	5	17	19	-12320	4540	10228	129	-19	-131	-16404	-2284	-1228	83	47	80	-16036	1548	-2704	272	67	-22	127	127	8
-11760	-2096	10632	-14	16	-26	-15568	-3760	-2264	16	14	-17	-15672	-616	-4152	15	21	21	-12312	4596	10288	141	-33	-165	-16444	-2320	-1140	38	32	81	-15992	1452	-2908	329	98	-13	126	127	8
-11780	-2056	10696	-13	22	-23	-15480	-3712	-1928	13	22	-11	-15784	-512	-4104	22	12	21	-12316	4556	10264	146	-21	-161	-16476	-2412	-1208	121	89	95	-16016	1480	-2704	331	119	-20	125	127	8
-11728	-2016	10680	-12	21	-24	-15640	-3672	-2040	24	17	-9	-15664	-704	-4032	28	6	24	-12396	4596	10132	155	7	-138	-16412	-2284	-1168	164	136	88	-15976	1500	-2780	363	84	14	123	127	8
-11820	-2032	10588	-7	23	-21	-15536	-3608	-2216	20	22	-10	-15720	-664	-4168	30	6	27	-12316	4512	10304	115	-13	-180	-16368	-2304	-1220	84	87	123	-15924	1492	-2708	336	110	15	124	127	8
-11780	-2024	10664	-11	23	-19	-15536	-3760	-2096	23	23	-12	-15664	-608	-4184	36	14	30	-12284	4576	10240	135	33	-146	-16416	-2464	-1256	153	119	119	-15996	1424	-2800	397	110	-17	126	127	8
-11816	-2080	10640	-15	21	-19	-15696	-3736	-2104	24	27	-11	-15776	-616	-4368	38	15	28	-12320	4584	10304	158	11	-143	-16448	-2416	-1224	215	133	121	-16040	1408	-2876	460	181	13	127	127	8
-11768	-2048	10768	-10	26	-21	-15576	-3728	-2112	21	27	-3	-15712	-360	-4424	46	18	34	-12340	4576	10220	188	3	-109	-16456	-2348	-1256	183	167	115	-15980	1452	-2812	470	155	57	126	127	8
-11728	-1980	10720	-13	17	-25	-15400	-3672	-2200	20	28	1	-15648	-424	-4568	46	13	29	-12368	4556	10204	201	50	-174	-16444	-2312	-1328	54	83	108	-15988	1448	-2896	362	82	50	125	127	8
-11736	-1972	10692	-10	19	-25	-15432	-3728	-2224	17	29	-2	-15424	-384	-4400	40	11	33	-12312	4572	10168	160	53	-103	-16388	-2412	-1260	88	62	96	-15992	1440	-2920	424	102	18	125	127	8
-11724	-2028	10708	-13	22	-23	-15688	-3752	-2224	21	24	-1	-15664	-488	-4448	29	10	29	-12236	4616	10196	144	11	-134	-16424	-2412	-1396	239	93	184	-15932	1492	-2800	487	150	55	126	127	8
-11804	-2084	10720	-12	23	-22	-15824	-3704	-2352	18	18	-4	-15608	-328	-4256	27	12	29	-12304	4632	10196	181	-10	-137	-16468	-2272	-1264	210	62	134	-16044	1484	-2876	503	118	61	126	128	8
-11768	-2040	10692	-17	21	-24	-15384	-3648	-2136	6	19	-2	-15624	-456	-4480	25	6	28	-12328	4528	10188	184	-11	-132	-16444	-2352	-1340	176	97	130	-15944	1420	-2924	427	58	92	126	127	8
-11748	-2044	10636	-10	18	-23	-15336	-3816	-2264	4	18	-2	-15584	-528	-4288	29	5	28	-12292	4548	10100	170	3	-134	-16440	-2404	-1316	175	75	122	-15992	1460	-2780	342	108	71	125	128	8
-11756	-2044	10704	-11	16	-22	-15544	-3776	-2368	19	28	-4	-15536	-736	-4448	26	9	32	-12356	4552	10132	181	13	-112	-16372	-2416	-1200	189	77	187	-15952	1492	-2768	444	112	52	126	127	8
-11780	-2052	10588	-13	14	-18	-15688	-3872	-2048	22	20	-3	-15648	-680	-4368	27	15	34	-12320	4572	10180	176	79	-111	-16448	-2364	-1220	200	106	154	-15940	1488	-2868	385	132	50	126	128	8
-11792	-2032	10592	-13	19	-20	-15728	-3632	-2432	19	24	0	-15864	-520	-4424	28	17	38	-12340	4620	10208	184	23	-114	-16420	-2356	-1296	187	97	203	-15964	1408	-2760	432	168	19	125	128	8
-11852	-2012	10624	-12	24	-19	-15480	-3744	-2560	8	21	5	-15776	-416	-4584	22	11	41	-12300	4584	10232	185	2	-117	-16424	-2340	-1264	194	92	205	-15960	1448	-2912	435	153	80	122	128	8
-11744	-2016	10664	-13	20	-22	-15448	-3728	-2432	4	24	1	-15552	-432	-4432	29	4	37	-12320	4588	10208	138	62	-126	-16408	-2420	-1292	145	79	213	-16020	1448	-2816	455	147	92	127	128	8
-11780	-2000	10700	-9	21	-23	-15664	-3784	-2104	15	26	2	-15576	-376	-4336	27	4	30	-12316	4632	10184	170	25	-92	-16428	-2288	-1364	167	109	197	-16020	1440	-2820	425	147	84	128	127	8
-11748	-2028	10760	-7	19	-19	-15616	-3624	-2424	7	24	1	-15576	-416	-4664	27	12	32	-12340	4616	10128	172	42	-90	-16360	-2268	-1384	259	153	248	-15960	1540	-2760	521	144	34	127	127	8
-11756	-2028	10620	-11	17	-27	-15632	-3680	-2288	8	27	7	-15648	-352	-4552	17	9	34	-12324	4644	10244	196	21	-126	-16468	-2280	-1272	236	107	209	-15916	1588	-2928	412	141	55	128	128	8
-11768	-2012	10680	-12	22	-22	-15784	-3680	-2584	-1	17	0	-15656	-216	-4720	20	10	33	-12340	4624	10192	161	21	-124	-16400	-2372	-1444	200	128	237	-15980	1580	-2960	365	142	2	125	127	8
-11776	-1952	10664	-10	17	-25	-15496	-3752	-2448	-2	16	-1	-15664	-464	-4568	15	3	26	-12372	4596	10180	161	40	-137	-16352	-2344	-1268	115	140	145	-15936	1596	-2912	363	144	3	121	128	8
-11688	-2080	10704	-11	20	-21	-15560	-3752	-2376	2	19	-1	-15552	-360	-4296	9	3	29	-12372	4600	10128	170	22	-102	-16380	-2280	-1384	69	96	210	-16012	1584	-3036	249	110	15	122	128	8
-11824	-1980	10684	-8	17	-24	-15488	-3688	-2344	2	18	-4	-15568	-344	-4608	8	4	27	-12332	4636	10116	154	18	-127	-16440	-2248	-1304	12	110	142	-15880	1616	-3020	229	101	24	125	128	8
-11692	-2012	10728	-12	15	-26	-15528	-3688	-2336	-5	17	0	-15688	-584	-4600	8	8	27	-12384	4624	10240	172	14	-107	-16504	-2256	-1420	106	67	157	-15924	1624	-2996	250	74	8	125	128	8
-11792	-2016	10652	-10	17	-23	-15552	-3528	-2376	4	15	-5	-15576	-328	-4648	2	6	24	-12380	4536	10112	166	19	-160	-16436	-2320	-1332	155	71	102	-16020	1604	-2988	228	76	32	126	128	8
-11792	-2056	10688	-15	16	-22	-15600	-3656	-2440	3	6	-1	-15600	-272	-4704	9	4	22	-12384	4616	10068	143	-21	-153	-16384	-2316	-1456	190	82	112	-15928	1496	-2960	269	51	30	125	128	8
-11804	-2000	10616	-10	13	-23	-15472	-3584	-2400	-2	7	-5	-15520	-232	-4712	11	-7	22	-12380	4644	10284	134	29	-150	-16416	-2248	-1352	171	58	121	-15936	1512	-2912	219	60	-22	124	128	8
-11760	-1956	10632	-14	15	-24	-15528	-3688	-2192	-7	5	-9	-15480	-400	-4472	8	-8	14	-12352	4544	10236	121	-28	-118	-16492	-2224	-1456	-26	35	96	-15952	1592	-2896	190	54	7	125	128	8
-11792	-1984	10620	-3	17	-26	-15440	-3664	-2216	6	5	-9	-15616	-408	-4656	7	-5	18	-12344	4640	10164	141	4	-164	-16432	-2260	-1432	-37	15	56	-16012	1604	-2972	175	20	-20	125	128	8
-11744	-2016	10660	-11	16	-22	-15616	-3744	-2344	17	6	-14	-15560	-504	-4736	9	1	18	-12352	4620	10188	120	20	-144	-16468	-2296	-1384	-4	30	94	-15976	1644	-3000	155	39	-20	125	128	8
-11812	-2016	10636	-12	19	-26	-15432	-3504	-2488	4	4	-9	-15688	-304	-4432	14	3	16	-12340	4576	10156	103	-33	-170	-16368	-2364	-1328	144	45	98	-15984	1556	-2944	199	43	-19	125	128	8
-11776	-2012	10640	-12	18	-28	-15536	-3752	-2456	-11	4	-11	-15624	-456	-4432	11	0	13	-12332	4564	10204	94	-41	-175	-16372	-2280	-1348	162	58	104	-16032	1548	-2904	165	59	-37	124	128	8
-11772	-1984	10736	-10	14	-22	-15496	-3648	-2352	-10	4	-10	-15576	-384	-4720	5	-4	14	-12380	4632	10204	142	-65	-159	-16460	-2260	-1376	89	42	42	-15952	1584	-2952	101	0	4	124	128	8
-11816	-1980	10556	-12	14	-27	-15600	-3584	-2104	-1	4	-12	-15704	-392	-4552	8	0	11	-12328	4596	10128	102	-102	-144	-16408	-2216	-1244	-7	18	46	-15928	1584	-2928	-3	24	-3	125	128	8
-11772	-2128	10628	-8	14	-26	-15608	-3632	-2488	-7	10	-14	-15600	-400	-4664	8	2	18	-12344	4612	10128	83	-57	-127	-16464	-2368	-1336	-54	-24	84	-15904	1552	-3008	-19	16	-52	126	128	8
-11768	-2004	10576	-11	17	-23	-15560	-3672	-2568	-1	-2	-18	-15632	-504	-4672	10	2	14	-12336	4548	10188	68	-109	-191	-16440	-2344	-1536	-56	23	29	-15996	1588	-2892	-112	93	-79	126	128	8
-11820	-2008	10576	-12	13	-28	-15656	-3632	-2488	-3	3	-14	-15608	-264	-4576	18	1	16	-12356	4568	10124	48	-61	-213	-16424	-2372	-1420	37	24	34	-15900	1536	-2864	-130	138	-50	124	128	8
-11800	-1988	10692	-14	14	-25	-15472	-3656	-2112	-6	3	-15	-15616	-560	-4408	19	-1	12	-12340	4548	10112	69	-145	-180	-16376	-2232	-1260	74	35	35	-15916	1608	-2856	-149	91	-47	122	128	8
-11756	-2052	10600	-16	11	-26	-15392	-3648	-2400	-1	1	-18	-15584	-320	-4584	17	-1	9	-12400	4520	10140	28	-158	-212	-16424	-2288	-1332	-87	-42	50	-15896	1556	-3012	-185	89	-117	124	128	8
-11816	-2056	10616	-11	14	-24	-15584	-3736	-2608	-1	1	-19	-15736	-592	-4592	22	-6	9	-12332	4564	10280	25	-148	-225	-16468	-2368	-1316	-156	-37	23	-16028	1572	-2988	-245	71	-66	125	129	8
-11764	-2008	10692	-12	15	-24	-15688	-3696	-2376	0	0	-17	-15624	-392	-4544	20	0	12	-12348	4588	10172	15	-137	-228	-16448	-2368	-1424	-169	-60	-1	-16004	1472	-2952	-297	80	-99	127	129	8
-11836	-2012	10692	-9	19	-24	-15520	-3616	-2528	-6	-4	-15	-15688	-440	-4816	17	0	6	-12524	4616	10248	-26	-147	-200	-16376	-2376	-1452	-202	-68	3	-15924	1436	-2976	-312	132	-132	127	129	8
-11788	-2020	10644	-12	17	-29	-15624	-3696	-2352	-8	-3	-23	-15504	-328	-4824	9	-8	7	-12304	4512	10256	21	-129	-185	-16372	-2448	-1520	-126	3	25	-15988	1428	-2980	-272	129	-117	127	128	8
-11800	-2024	10588	-13	15	-22	-15568	-3656	-2432	-13	-7	-20	-15496	-320	-4704	-3	-15	0	-12336	4500	10292	58	-126	-175	-16384	-2440	-1348	-95	-49	25	-15920	1376	-2976	-214	98	-108	127	128	8
-11744	-2020	10728	-14	12	-25	-15480	-3696	-2408	-4	-6	-19	-15448	-376	-4712	-10	-25	-8	-12332	4520	10308	58	-129	-189	-16420	-2408	-1360	-92	-28	31	-15884	1416	-3028	-122	58	-98	128	128	8
-11756	-2032	10588	-11	16	-31	-15560	-3800	-2328	-16	-13	-25	-15408	-312	-4736	-23	-27	-5	-12352	4464	10240	76	-57	-158	-16388	-2404	-1548	-101	-48	25	-15956	1488	-3052	-22	9	-96	127	128	8
-11812	-2056	10720	-17	10	-26	-15432	-3688	-2648	-21	-15	-22	-15616	-304	-4504	-26	-26	-8	-12372	4516	10180	60	-48	-159	-16404	-2396	-1512	1	-54	27	-15952	1420	-3004	-17	-26	-95	127	128	8
-11864	-2052	10696	-15	15	-29	-15536	-3616	-2496	-19	-17	-24	-15656	-560	-4768	-26	-26	-8	-12312	4516	10128	92	-102	-126	-16368	-2416	-1320	-44	-48	24	-16028	1372	-2992	43	0	-91	127	128	8
-11800	-2048	10700	-7	16	-25	-15552	-3696	-2376	-15	-25	-25	-15560	-568	-4744	-23	-24	-6	-12384	4500	10248	117	-82	-166	-16432	-2340	-1312	7	-48	16	-15932	1416	-2988	52	-33	-81	128	128	8
-11764	-2060	10652	-16	18	-25	-15448	-3920	-2416	-6	-14	-21	-15640	-536	-4680	-17	-27	-7	-12324	4524	10276	117	-32	-160	-16392	-2452	-1540	-23	-31	39	-15972	1408	-2984	81	-19	-83	127	128	8
-11756	-2052	10720	-14	18	-24	-15632	-3728	-2224	0	-12	-25	-15528	-720	-4776	-15	-26	-2	-12304	4576	10148	100	-31	-124	-16416	-2372	-1448	-3	-55	17	-16004	1436	-3040	98	-2	-86	126	128	8
-11832	-2048	10580	-10	18	-28	-15528	-3688	-2264	-4	-11	-27	-15448	-568	-4528	-5	-24	-2	-12348	4540	10236	93	-4	-167	-16392	-2424	-1488	33	-55	24	-15932	1436	-3000	80	-33	-76	127	128	8
-11752	-2032	10640	-15	18	-24	-15600	-3840	-2264	-7	-13	-19	-15488	-576	-4880	-7	-22	-1	-12324	4564	10168	126	-79	-131	-16344	-2464	-1384	79	-21	42	-15988	1420	-2904	89	-31	-96	126	128	8
-11820	-2136	10584	-16	17	-29	-15496	-3680	-2480	-9	-13	-23	-15528	-464	-4560	-4	-27	5	-12336	4528	10240	114	-54	-143	-16360	-2432	-1312	-8	-37	44	-15952	1412	-2984	116	-24	-49	127	127	8
-11824	-2012	10700	-12	14	-31	-15576	-3728	-2424	-1	-13	-19	-15632	-776	-4536	-4	-30	2	-12372	4460	10192	121	-53	-153	-16356	-2428	-1468	-35	-20	45	-15940	1384	-2992	159	-37	-101	126	128	8
-11804	-2064	10668	-15	18	-29	-15536	-3848	-2600	10	-14	-22	-15400	-688	-4672	-4	-26	5	-12360	4536	10264	86	-42	-155	-16468	-2404	-1440	-47	-96	48	-15964	1436	-3116	149	-93	-74	127	128	8
-11780	-2020	10664	-16	22	-29	-15608	-3800	-2624	2	-13	-19	-15608	-488	-4584	-8	-24	3	-12288	4508	10300	116	3	-121	-16392	-2492	-1420	66	-57	83	-15932	1440	-2952	141	-116	-44	127	128	8
-11772	-2052	10728	-16	22	-26	-15576	-3880	-2272	-4	-12	-24	-15744	-456	-4408	-12	-26	4	-12372	4456	10248	135	-32	-134	-16380	-2448	-1360	120	-77	31	-15976	1388	-2976	167	-134	-45	127	128	8
-11792	-2076	10604	-11	21	-28	-15472	-3832	-2224	-3	-19	-22	-15544	-608	-4472	-15	-25	1	-12228	4444	10224	133	-17	-155	-16472	-2364	-1264	47	-96	39	-15996	1380	-2956	187	-163	0	127	128	8
-11748	-2048	10688	-12	16	-27	-15552	-3832	-2408	2	-12	-18	-15640	-720	-4416	-12	-32	0	-12376	4600	10248	133	-15	-139	-16392	-2412	-1352	-16	-96	61	-15992	1444	-3156	213	-98	-17	127	128	8
-11760	-2064	10692	-10	19	-28	-15528	-3912	-2264	7	-17	-16	-15672	-712	-4808	-9	-30	2	-12324	4480	10244	139	1	-152	-16424	-2452	-1512	1	-143	90	-15976	1304	-3048	186	-85	-26	125	128	8
-11752	-2080	10732	-17	14	-21	-15528	-3800	-2496	7	-14	-15	-15632	-712	-4416	-10	-24	6	-12360	4496	10256	153	7	-128	-16352	-2496	-1380	111	-112	114	-15964	1232	-2920	256	-104	-48	125	128	8
-11804	-2088	10656	-10	19	-22	-15648	-3736	-2472	-1	-11	-17	-15600	-600	-4736	-6	-20	9	-12324	4532	10200	152	20	-131	-16388	-2436	-1408	117	-83	93	-15972	1384	-2788	297	-186	31	124	128	8
-11772	-2108	10672	-10	19	-29	-15520	-3800	-2440	9	-12	-16	-15560	-720	-4480	-6	-21	17	-12312	4464	10220	127	7	-153	-16380	-2484	-1428	138	-69	122	-16004	1380	-2888	364	-129	16	124	128	8
-11736	-2112	10592	-10	17	-24	-15376	-3808	-2032	4	-11	-11	-15488	-752	-4464	7	-22	16	-12292	4460	10248	134	-24	-165	-16360	-2460	-1332	159	-39	92	-15952	1468	-2784	377	-68	19	124	128	8
-11744	-2040	10560	-11	17	-24	-15520	-3800	-2320	10	-7	-15	-15464	-704	-4560	15	-16	15	-12356	4484	10256	155	-18	-172	-16440	-2408	-1408	85	-24	103	-16040	1324	-2948	461	-25	-29	124	128	8
-11804	-2008	10644	-11	13	-28	-15584	-3856	-2128	9	-6	-16	-15688	-672	-4328	16	-11	20	-12384	4480	10172	146	24	-155	-16452	-2560	-1492	119	-111	131	-16024	1392	-2992	419	6	-23	123	128	8
-11736	-2068	10692	-14	16	-18	-15584	-3952	-2184	4	-1	-15	-15592	-536	-4600	23	-8	17	-12436	4692	10100	322	99	-165	-16324	-2460	-1400	186	-15	116	-15960	1432	-2780	385	-65	-15	124	128	8
-11760	-2044	10564	-7	20	-24	-15504	-3936	-2144	19	5	-9	-15624	-600	-4456	19	-1	22	-12364	4524	10128	163	-13	-115	-16328	-2468	-1320	188	-42	111	-15960	1448	-2752	320	-72	41	126	128	8
-11768	-2072	10680	-9	21	-23	-15520	-3888	-2272	22	6	-8	-15640	-504	-4672	28	-3	24	-12428	4512	10120	153	7	-136	-16444	-2424	-1416	153	45	99	-15948	1416	-2768	344	9	8	125	127	8
-11760	-2024	10680	-9	18	-22	-15440	-3608	-2256	12	1	-7	-15624	-520	-4296	25	-2	20	-12324	4540	10268	183	-9	-163	-16468	-2436	-1504	135	-32	124	-15980	1340	-2904	330	43	-5	124	128	8
-11716	-1988	10724	-9	18	-25	-15560	-3904	-2224	2	4	-13	-15616	-576	-4608	17	-7	19	-12324	4560	10252	160	-7	-145	-16356	-2544	-1412	48	-51	114	-16040	1324	-2972	336	3	10	124	128	8
-11740	-2052	10640	-14	17	-24	-15528	-3872	-2640	12	0	-10	-15448	-432	-4520	23	-4	17	-12280	4516	10136	164	29	-128	-16304	-2484	-1388	104	-46	96	-15920	1424	-2884	279	-39	1	125	128	8
-11820	-1996	10660	-10	18	-25	-15296	-3840	-2408	6	1	-13	-15576	-464	-4584	23	-7	22	-12428	4584	10268	141	-29	-114	-16300	-2424	-1380	157	-16	119	-15932	1476	-2868	285	-8	29	126	128	8
-11828	-2004	10588	-9	18	-27	-15512	-3712	-2400	10	5	-11	-15672	-488	-4776	15	-7	23	-12352	4468	10100	156	-35	-166	-16388	-2396	-1404	198	28	103	-15908	1492	-2900	291	-50	11	127	128	8
-11764	-2032	10640	-7	18	-27	-15608	-3760	-2352	12	-2	-8	-15576	-584	-4640	23	-11	16	-12312	4512	10308	129	16	-167	-16460	-2452	-1408	179	-22	114	-15956	1440	-2808	241	-20	21	125	129	8
-11744	-2096	10552	-11	16	-24	-15520	-3808	-2120	-4	1	-11	-15640	-496	-4488	22	-15	15	-12368	4528	10140	127	-14	-145	-16364	-2492	-1304	17	-17	121	-16016	1384	-2872	178	-22	-10	124	129	8
-11768	-2076	10516	-7	16	-20	-15416	-4016	-2584	3	2	-11	-15568	-712	-4512	14	-9	18	-12440	4448	10144	109	-6	-144	-16372	-2484	-1420	-35	-18	90	-16024	1416	-2856	155	49	-37	125	129	8
-11772	-2100	10612	-9	14	-24	-15528	-3936	-2560	7	2	-7	-15576	-632	-4576	1	-5	20	-12380	4440	10172	130	-30	-104	-16416	-2540	-1356	48	-40	112	-15912	1432	-2948	146	80	7	128	128	8
-11764	-2052	10676	-9	16	-23	-15688	-3736	-2408	-2	-1	-6	-15624	-504	-4768	3	-3	13	-12400	4476	10088	109	-18	-140	-16292	-2424	-1468	127	0	123	-15920	1364	-3028	123	23	49	129	128	8
-11796	-2064	10608	-13	18	-26	-15536	-3728	-2440	-6	-3	-15	-15552	-392	-4712	11	-19	11	-12356	4600	10120	89	-84	-176	-16348	-2488	-1468	125	-1	94	-15928	1436	-2928	129	-23	-10	126	129	8
-11700	-2056	10680	-10	15	-22	-15576	-3864	-2600	-2	-3	-14	-15624	-536	-4544	1	-24	6	-12384	4508	10248	124	-29	-131	-16380	-2484	-1364	86	17	75	-15988	1408	-2988	132	-50	-32	123	128	8
-11748	-2048	10680	-13	15	-24	-15472	-3792	-2448	-3	-2	-11	-15616	-592	-4480	5	-19	7	-12388	4500	10076	125	-63	-95	-16380	-2464	-1352	66	-50	66	-15984	1424	-2944	73	-41	-27	124	128	8
-11744	-2052	10620	-12	13	-26	-15584	-3760	-2288	-8	-4	-17	-15480	-584	-4664	10	-14	10	-12368	4556	10208	123	-36	-128	-16380	-2464	-1336	-4	-59	84	-15908	1408	-3012	108	-49	-35	126	128	8
-11832	-2076	10788	-10	18	-27	-15624	-3856	-2432	-4	-7	-12	-15672	-416	-4688	9	-7	15	-12384	4528	10272	93	-47	-135	-16376	-2420	-1356	66	-74	64	-15952	1444	-3000	69	-112	-28	127	128	8
-11780	-2036	10720	-12	18	-21	-15584	-3576	-2224	-3	-3	-13	-15552	-456	-4680	10	-18	12	-12332	4504	10156	108	-41	-130	-16416	-2448	-1316	111	16	84	-15936	1448	-2920	74	-48	-37	126	128	8
-11740	-2064	10676	-11	17	-27	-15376	-3752	-2208	-11	-10	-15	-15512	-496	-4456	12	-24	12	-12340	4464	10200	70	-62	-164	-16380	-2528	-1436	153	-49	44	-15976	1316	-2972	83	-55	-43	125	129	8
-11736	-2036	10616	-13	14	-21	-15520	-3944	-2368	-8	0	-17	-15448	-584	-4344	6	-24	14	-12360	4500	10216	96	-22	-118	-16424	-2468	-1440	192	-73	72	-16016	1404	-2880	85	-120	-20	125	129	8
-11804	-2068	10636	-14	12	-23	-15528	-3848	-2448	-10	-13	-16	-15464	-608	-4864	-2	-16	11	-12400	4440	10136	120	-49	-143	-16380	-2476	-1460	202	-49	44	-15916	1428	-3068	50	-197	1	127	129	8
-11800	-2036	10676	-11	10	-27	-15640	-3816	-2400	-8	-15	-18	-15640	-464	-4600	-7	-10	4	-12400	4516	10228	126	-67	-112	-16388	-2512	-1492	224	-76	36	-15964	1488	-3036	-26	-183	9	127	129	8
-11764	-2012	10540	-12	14	-25	-15472	-3856	-2256	-7	-18	-17	-15520	-688	-4760	-7	-18	10	-12332	4532	10204	124	-73	-128	-16424	-2464	-1312	150	-53	37	-16048	1432	-3012	-189	-186	56	125	129	8
-11796	-2056	10576	-12	14	-24	-15408	-3760	-2360	-4	-19	-20	-15568	-568	-4720	-9	-32	7	-12360	4540	10260	100	-82	-119	-16360	-2552	-1396	103	-130	66	-16020	1268	-2948	-233	-245	36	124	128	8
-11720	-2028	10764	-12	8	-23	-15560	-3888	-2152	-20	-23	-18	-15560	-672	-4592	-7	-41	4	-12332	4460	10240	100	-80	-127	-16284	-2532	-1388	150	-100	82	-15908	1280	-2884	-165	-217	18	123	128	8
-11784	-2080	10668	-13	11	-25	-15664	-4096	-2344	-7	-25	-19	-15576	-864	-4688	1	-36	5	-12360	4488	10208	100	-145	-147	-16408	-2536	-1308	30	-125	122	-15996	1284	-3040	-93	-159	-1	122	128	8
-11708	-2084	10592	-11	11	-23	-15664	-3944	-2184	22	-9	-16	-15648	-664	-4832	4	-29	6	-12340	4524	10116	75	-35	-174	-16420	-2628	-1484	90	-188	87	-15924	1320	-3084	-63	-88	19	124	128	8
-11820	-2072	10636	-14	12	-25	-15552	-3816	-2384	10	-21	-16	-15704	-640	-4512	11	-31	13	-12332	4488	10388	136	-35	-138	-16420	-2644	-1408	95	-184	94	-16008	1300	-2904	-53	-133	-32	126	128	8
-11796	-2056	10684	-14	13	-26	-15512	-3776	-2208	-7	-20	-12	-15640	-488	-4704	13	-39	12	-12384	4456	10180	104	-99	-85	-16404	-2548	-1332	101	-190	115	-16052	1348	-2836	1	-242	7	126	128	8
-11792	-2020	10780	-13	11	-28	-15488	-3888	-2336	-13	-26	-15	-15480	-632	-4456	2	-44	11	-12288	4484	10292	118	-48	-142	-16368	-2508	-1200	70	-162	102	-15980	1300	-2840	213	-270	-12	126	128	8
-11712	-1972	10692	-8	13	-27	-15472	-3920	-2336	-2	-18	-15	-15608	-704	-4752	5	-41	8	-12380	4552	10212	132	7	-94	-16384	-2568	-1448	145	-162	113	-15996	1340	-2892	335	-233	26	126	128	8
-11764	-2008	10636	-9	11	-24	-15392	-3888	-2456	13	-17	-11	-15616	-768	-4512	9	-36	6	-12372	4484	10132	154	-29	-124	-16392	-2536	-1464	201	-124	123	-16024	1276	-2868	388	-242	48	127	128	8
-11780	-2044	10728	-12	12	-24	-15600	-3880	-2360	18	-16	-19	-15744	-736	-4376	2	-28	10	-12336	4504	10108	151	-9	-125	-16400	-2580	-1316	324	-145	95	-16020	1384	-2816	506	-202	43	129	128	8
-11764	-2032	10752	-9	17	-24	-15368	-3800	-2064	1	-18	-11	-15640	-672	-4520	5	-32	13	-12376	4520	10272	140	-46	-102	-16440	-2544	-1384	320	-107	132	-16012	1348	-2804	434	-190	83	128	127	8
-11812	-2012	10648	-6	12	-23	-15552	-3888	-2176	0	-15	-11	-15664	-768	-4664	13	-33	14	-12308	4508	10164	139	-75	-115	-16380	-2564	-1356	200	-151	98	-15972	1376	-2852	386	-198	83	126	127	8
-11816	-2092	10764	-9	13	-23	-15496	-3912	-2352	12	-13	-7	-15648	-744	-4544	28	-38	17	-12376	4472	10244	112	-24	-126	-16396	-2540	-1324	126	-142	117	-16012	1480	-2808	379	-175	70	124	128	8
-11732	-2084	10540	-8	17	-22	-15416	-4000	-2256	21	-6	-6	-15656	-624	-4520	39	-30	19	-12316	4468	10284	124	-68	-103	-16380	-2500	-1352	135	-174	117	-15956	1464	-2752	342	-139	63	124	128	8
-11796	-2028	10552	-8	13	-24	-15560	-3976	-2376	26	-6	-5	-15680	-584	-4640	44	-28	21	-12344	4488	10216	123	-26	-130	-16384	-2564	-1296	255	-130	133	-15968	1448	-2928	295	-218	25	123	128	8
-11716	-2088	10676	-7	18	-23	-15632	-3800	-2560	27	-8	-8	-15736	-528	-4512	49	-31	26	-12324	4576	10228	145	-75	-136	-16408	-2600	-1428	260	-137	102	-16072	1388	-2832	274	-233	17	124	128	8
-11788	-2012	10640	-15	14	-23	-15528	-3800	-2224	11	-10	-15	-15552	-512	-4544	44	-27	25	-12348	4580	10272	149	-83	-113	-16420	-2588	-1228	297	-120	96	-16068	1324	-2688	244	-189	28	124	128	8
-11792	-1984	10708	-14	16	-27	-15448	-3848	-2200	12	-7	-12	-15584	-472	-4600	47	-26	18	-12388	4508	10324	137	-12	-153	-16424	-2564	-1228	214	-122	128	-15996	1348	-2624	240	-171	46	126	128	8
-11740	-2104	10668	-11	15	-20	-15528	-3960	-2200	6	-11	-10	-15512	-512	-4312	32	-28	19	-12328	4456	10304	146	-69	-120	-16432	-2608	-1324	161	-167	124	-15992	1356	-2672	272	-115	78	126	128	8
-11808	-2084	10652	-11	10	-25	-15512	-4040	-2272	7	-12	-12	-15512	-528	-4312	19	-30	13	-12332	4544	10268	108	-22	-138	-16360	-2524	-1192	155	-109	136	-16000	1424	-2632	300	-131	28	126	128	8
-11752	-2060	10652	-7	12	-21	-15448	-3856	-2128	-1	-18	-10	-15624	-512	-4664	2	-27	9	-12320	4524	10340	140	-83	-116	-16380	-2608	-1296	163	-154	143	-16080	1336	-2760	275	-127	30	126	128	8
-11784	-2044	10752	-12	12	-22	-15512	-3944	-2368	-5	-15	-13	-15656	-576	-4440	-11	-32	13	-12328	4524	10216	125	-28	-120	-16376	-2524	-1336	156	-119	126	-16000	1420	-2684	270	-115	75	125	128	8
-11748	-2088	10716	-13	13	-26	-15504	-3984	-2296	-7	-14	-5	-15560	-776	-4536	-12	-32	13	-12312	4480	10216	132	-22	-104	-16376	-2640	-1268	129	-112	127	-16048	1384	-2772	207	-112	57	125	128	8
-11732	-2124	10668	-13	15	-24	-15464	-3984	-2512	-3	-18	-8	-15520	-528	-4592	-23	-25	12	-12368	4520	10176	154	-25	-132	-16416	-2552	-1284	114	-147	98	-16000	1420	-2836	196	-127	21	124	128	8
-11768	-2084	10724	-16	18	-31	-15408	-3840	-2208	-12	-21	-10	-15616	-560	-4472	-15	-33	12	-12308	4456	10256	169	3	-119	-16376	-2516	-1240	89	-115	155	-15960	1492	-2768	135	-102	32	125	128	8
-11772	-2048	10720	-11	13	-22	-15424	-3920	-2232	-15	-22	-9	-15448	-632	-4432	-12	-34	6	-12236	4528	10248	141	-4	-122	-16352	-2560	-1232	60	-135	171	-15960	1424	-2736	94	-131	11	126	128	8
-11776	-1988	10672	-14	10	-22	-15624	-3936	-2256	-4	-17	-9	-15632	-576	-4344	-12	-41	10	-12344	4456	10224	117	2	-104	-16352	-2564	-1244	-8	-128	118	-16004	1424	-2672	37	-112	-2	126	128	8
-11760	-1964	10680	-10	12	-22	-15544	-3936	-2040	-7	-19	-16	-15568	-672	-4320	-10	-39	10	-12376	4480	10276	92	24	-116	-16384	-2512	-1284	-64	-133	149	-16028	1488	-2648	4	-132	-31	125	129	8
-11840	-2120	10692	-15	11	-22	-15624	-3992	-2376	-6	-19	-14	-15568	-632	-4408	6	-36	8	-12320	4480	10204	116	-34	-147	-16484	-2576	-1272	-81	-154	108	-16024	1408	-2584	-27	-73	-13	126	128	8
-11748	-2040	10744	-11	12	-23	-15608	-3824	-2128	0	-13	-17	-15736	-520	-4504	5	-33	9	-12308	4572	10316	131	-19	-118	-16416	-2572	-1232	-11	-118	125	-16032	1480	-2680	-19	-24	-32	127	128	8
-11736	-2116	10708	-14	12	-32	-15432	-3968	-2120	5	-16	-13	-15704	-744	-4344	8	-31	8	-12324	4492	10184	127	-18	-110	-16384	-2460	-1176	-24	-102	121	-16064	1368	-2684	-84	-22	-41	126	127	8
-11784	-2048	10716	-14	15	-22	-15560	-3944	-2304	5	-10	-12	-15744	-776	-4624	12	-33	7	-12308	4436	10232	108	-37	-127	-16396	-2520	-1152	-7	-85	78	-15988	1448	-2796	-57	21	-45	126	128	8
-11736	-2108	10620	-11	16	-26	-15496	-3992	-2056	3	-10	-15	-15544	-712	-4288	10	-29	9	-12280	4508	10404	137	-53	-141	-16340	-2512	-1264	10	-73	98	-15932	1348	-2772	0	-38	-56	127	128	8
-11776	-2076	10672	-16	18	-24	-15520	-3960	-2688	2	-11	-10	-15504	-456	-4704	13	-28	12	-12336	4544	10304	99	33	-155	-16448	-2524	-1116	-12	-56	119	-16004	1332	-2640	78	-61	-39	127	128	8
-11728	-1984	10724	-13	16	-27	-15496	-3976	-2040	-8	-15	-13	-15512	-536	-4280	8	-29	9	-12380	4524	10280	138	-30	-139	-16316	-2580	-1288	44	-85	121	-16012	1308	-2740	101	-48	-83	127	128	8
-11756	-2008	10648	-12	15	-25	-15432	-3952	-2264	1	-14	-16	-15592	-704	-4256	0	-36	4	-12380	4460	10348	106	5	-123	-16396	-2660	-1348	74	-52	161	-16028	1376	-2672	108	-55	-27	126	128	8
-11752	-2076	10688	-9	16	-24	-15392	-3920	-2144	3	-18	-16	-15512	-672	-4392	-5	-33	8	-12292	4528	10124	146	-26	-130	-16464	-2544	-1188	60	-133	141	-16048	1300	-2844	94	-61	-8	126	128	8
-11696	-2056	10536	-13	24	-29	-15504	-3832	-2280	12	-17	-11	-15560	-704	-4568	-14	-29	11	-12332	4556	10256	162	22	-121	-16428	-2604	-1252	23	-112	149	-16048	1292	-2624	90	-81	31	125	128	8
-11816	-2048	10628	-9	17	-24	-15536	-3888	-2064	-13	-18	-9	-15536	-808	-4328	-12	-36	10	-12340	4532	10232	135	-4	-112	-16420	-2548	-1224	65	-126	180	-15948	1304	-2652	134	-32	78	125	128	8
-11760	-2080	10732	-14	16	-20	-15408	-4072	-2432	-7	-19	-7	-15624	-872	-4240	-13	-36	12	-12308	4520	10260	134	-14	-118	-16428	-2500	-1300	76	-112	169	-16096	1308	-2600	191	-82	61	125	128	8
-11780	-2064	10628	-10	14	-20	-15616	-4064	-2136	2	-13	-4	-15672	-840	-4424	-9	-34	16	-12308	4500	10192	124	-13	-138	-16332	-2616	-1248	22	-150	178	-15948	1312	-2552	184	-49	83	125	128	8
-11756	-2060	10656	-8	21	-24	-15448	-3960	-2320	-5	-12	-4	-15640	-688	-4432	-5	-29	15	-12336	4540	10396	122	4	-102	-16428	-2564	-1276	120	-73	149	-16020	1352	-2684	221	-92	87	125	128	8
-11740	-2068	10580	-7	16	-18	-15496	-3904	-2272	-1	-12	-3	-15624	-760	-4320	2	-27	13	-12280	4524	10276	140	-18	-127	-16428	-2508	-1272	119	-95	207	-16052	1352	-2776	202	-31	99	124	128	8
-11772	-2016	10708	-16	15	-21	-15448	-4056	-1976	1	-6	3	-15600	-704	-4352	3	-23	20	-12364	4540	10260	158	-20	-104	-16412	-2584	-1224	153	-14	170	-16096	1452	-2688	196	-53	85	124	128	8
-11720	-2036	10504	-14	16	-25	-15520	-3984	-2248	2	-4	4	-15672	-640	-4248	7	-24	21	-12324	4508	10264	159	-3	-134	-16412	-2504	-1228	110	-111	158	-16004	1364	-2660	160	25	71	124	129	8
-11740	-2068	10612	-9	15	-21	-15600	-3960	-2208	0	-2	3	-15584	-616	-4296	6	-21	25	-12364	4576	10224	139	24	-115	-16392	-2508	-1100	50	-69	192	-16044	1312	-2684	200	21	72	125	128	8
-11772	-2088	10712	-12	19	-22	-15560	-4048	-2248	-2	-6	0	-15576	-744	-4432	3	-15	26	-12352	4552	10240	122	-2	-118	-16300	-2536	-1188	85	-63	202	-16036	1368	-2604	213	1	96	125	128	8
-11784	-2076	10792	-6	16	-22	-15416	-3776	-2232	3	-5	1	-15624	-568	-4280	7	-18	25	-12328	4484	10328	127	35	-106	-16408	-2492	-1240	123	-32	220	-16032	1316	-2592	218	-1	106	125	128	8
-11732	-2020	10664	-14	19	-23	-15504	-3872	-2152	-2	-7	-3	-15552	-736	-4392	17	-19	21	-12364	4484	10192	136	-87	-81	-16412	-2540	-1144	97	-46	184	-16036	1396	-2596	216	31	74	126	128	8
-11800	-2040	10592	-9	17	-24	-15424	-3912	-2040	-7	-10	0	-15640	-632	-4416	16	-24	23	-12260	4508	10392	115	3	-110	-16420	-2584	-1236	199	-69	202	-16104	1368	-2784	307	6	83	126	128	8
-11760	-2068	10768	-13	18	-21	-15440	-3848	-2048	-9	-10	2	-15704	-696	-4488	9	-30	20	-12348	4528	10240	139	-17	-94	-16428	-2572	-1256	193	-46	207	-16068	1408	-2676	258	-7	106	126	128	8
-11688	-1976	10656	-13	17	-24	-15416	-3912	-2104	-4	-5	-1	-15576	-712	-4544	7	-29	19	-12312	4520	10316	152	-62	-94	-16416	-2540	-1252	215	-62	202	-16064	1360	-2680	232	-64	91	126	128	8
-11712	-2056	10656	-6	12	-17	-15520	-3824	-2304	-6	-10	3	-15496	-616	-4192	4	-30	23	-12352	4540	10188	142	-60	-93	-16380	-2524	-1208	140	-65	196	-16008	1416	-2664	256	-29	85	126	128	8
-11772	-2028	10628	-8	14	-21	-15624	-4000	-2192	-4	-11	3	-15776	-568	-4096	8	-25	23	-12400	4484	10196	161	-24	-141	-16352	-2592	-1236	93	-35	210	-16064	1392	-2676	245	-20	94	126	128	8
-11824	-2020	10652	-13	10	-23	-15640	-3984	-2264	-4	-13	3	-15584	-680	-4408	10	-24	23	-12324	4580	10184	176	-44	-125	-16392	-2552	-1340	148	-93	193	-15976	1372	-2656	172	-29	104	125	128	8
-11768	-1964	10688	-13	13	-24	-15496	-4000	-2176	-9	-15	1	-15616	-680	-4280	11	-27	23	-12332	4528	10260	155	-38	-137	-16404	-2580	-1192	150	-88	233	-16052	1380	-2700	169	-15	86	125	128	8
-11812	-2052	10612	-4	16	-21	-15680	-3968	-1968	0	-7	-1	-15704	-496	-4536	9	-32	24	-12260	4508	10188	153	-56	-114	-16388	-2520	-1188	141	-115	207	-16064	1376	-2560	184	-46	90	125	128	8
-11724	-2012	10620	-13	13	-24	-15632	-3944	-1872	-1	-14	3	-15768	-696	-4552	6	-30	27	-12352	4464	10412	128	-46	-90	-16332	-2572	-1212	108	-60	251	-16132	1312	-2692	130	-65	114	125	128	8
-11692	-2032	10700	-9	15	-21	-15480	-4000	-2080	-3	-12	-1	-15640	-728	-4232	2	-27	24	-12332	4500	10296	143	-6	-88	-16412	-2596	-1200	111	-82	235	-16072	1320	-2632	207	-46	112	125	128	8
-11732	-1920	10736	-11	16	-25	-15528	-3928	-2264	-4	-13	6	-15632	-720	-4528	2	-27	28	-12264	4508	10180	185	-21	-104	-16468	-2576	-1212	49	-133	226	-15964	1272	-2648	260	-23	112	126	128	8
-11728	-2000	10668	-10	18	-24	-15608	-3912	-2256	3	-15	7	-15720	-560	-4640	0	-32	24	-12364	4520	10224	168	32	-105	-16364	-2700	-1332	225	-91	260	-16020	1304	-2760	334	-60	142	128	127	8
-11796	-1976	10692	-9	18	-21	-15616	-3928	-2224	-3	-9	4	-15656	-632	-4304	0	-37	25	-12416	4568	10328	148	4	-99	-16452	-2572	-1216	314	-85	281	-15980	1356	-2680	428	-154	169	128	128	8
-11716	-1984	10680	-10	15	-26	-15440	-3848	-2120	-13	-20	5	-15600	-616	-4448	-2	-34	23	-12384	4560	10140	154	-14	-89	-16328	-2500	-1200	306	-101	257	-16036	1376	-2616	438	-225	178	127	128	8
-11752	-2048	10660	-10	13	-23	-15448	-3832	-2152	-13	-15	6	-15736	-576	-4312	-5	-35	19	-12328	4456	10328	158	-26	-97	-16372	-2572	-1212	203	-91	269	-16056	1440	-2680	397	-169	146	126	128	8
-11796	-2068	10792	-8	13	-24	-15424	-3880	-2152	-8	-13	1	-15752	-592	-4544	-1	-31	25	-12284	4520	10240	150	-44	-62	-16508	-2540	-1184	179	-114	268	-16064	1492	-2584	399	-145	152	128	128	8
-11788	-2012	10728	-9	11	-21	-15624	-3984	-2440	4	-12	1	-15568	-680	-4352	-7	-30	24	-12300	4532	10188	151	-4	-78	-16424	-2460	-1340	185	-87	302	-16068	1528	-2484	347	-101	112	127	127	8
-11740	-2096	10620	-9	13	-23	-15496	-3824	-2000	-5	-15	9	-15736	-624	-4128	-5	-33	26	-12376	4488	10284	136	-45	-16	-16368	-2476	-1084	154	-55	245	-16072	1400	-2532	292	-71	112	126	127	8
-11832	-1980	10740	-11	14	-24	-15496	-3848	-1912	-12	-19	8	-15488	-704	-4184	-4	-39	26	-12364	4608	10240	144	-39	-87	-16416	-2476	-1160	140	-91	258	-16032	1492	-2656	219	-109	115	124	128	8
-11744	-2000	10756	-8	12	-22	-15352	-3904	-2208	-13	-10	7	-15800	-680	-4256	-4	-39	27	-12328	4588	10304	144	-53	-98	-16432	-2452	-1060	171	-72	239	-16020	1436	-2568	191	-64	148	125	128	8
-11784	-1988	10704	-9	13	-19	-15472	-3792	-2152	-17	-15	5	-15704	-656	-4224	-4	-39	22	-12268	4516	10224	168	-84	-80	-16344	-2532	-1160	121	-62	316	-16024	1356	-2476	228	-65	94	127	128	8
-11760	-1956	10732	-6	13	-21	-15608	-3648	-2136	-16	-8	5	-15560	-624	-4224	-7	-41	27	-12312	4528	10356	128	-39	-101	-16388	-2504	-1116	183	-47	286	-16000	1368	-2668	303	-78	89	127	128	8
-11740	-2060	10760	-11	12	-18	-15464	-3880	-2248	-8	-10	6	-15592	-560	-4176	-8	-39	25	-12328	4472	10180	164	-54	-65	-16448	-2408	-1132	195	-71	256	-15980	1452	-2692	285	-117	91	126	127	8
-11696	-2036	10664	-7	12	-19	-15696	-3784	-2368	-14	-12	3	-15552	-536	-4312	-17	-31	18	-12332	4480	10316	155	-52	-61	-16400	-2432	-1304	169	-65	252	-16044	1464	-2604	261	-53	117	127	127	8
-11768	-2040	10732	-9	16	-25	-15608	-3880	-2048	-14	-13	8	-15784	-560	-4328	-12	-36	21	-12352	4540	10204	143	-13	-95	-16408	-2448	-1176	139	-86	288	-15984	1552	-2676	253	-126	124	126	128	8
-11744	-2052	10680	-7	17	-25	-15544	-3848	-2080	-13	-15	3	-15704	-624	-4264	-15	-36	19	-12288	4552	10304	134	-23	-81	-16444	-2476	-1136	134	-115	216	-16076	1500	-2632	268	-125	94	126	127	8
-11724	-2012	10736	-13	13	-23	-15632	-3776	-2096	-10	-21	6	-15704	-520	-4192	-16	-39	14	-12372	4508	10220	146	-49	-92	-16364	-2472	-1180	193	-77	235	-16004	1628	-2668	274	-111	99	126	127	8
-11756	-2040	10696	-12	13	-22	-15576	-3760	-2048	-16	-20	-2	-15792	-600	-4312	-14	-47	13	-12264	4520	10172	155	-34	-109	-16440	-2416	-984	192	-21	250	-16040	1492	-2672	248	-63	73	126	127	8
-11812	-2052	10668	-12	15	-24	-15576	-3744	-2120	-15	-13	1	-15656	-592	-4112	-19	-40	12	-12308	4596	10216	119	15	-107	-16440	-2468	-1120	31	-85	236	-15988	1504	-2692	270	-98	53	126	127	8
-11740	-2012	10640	-12	18	-23	-15536	-3784	-2048	-10	-12	1	-15792	-576	-4080	-16	-39	12	-12316	4576	10276	142	-38	-91	-16508	-2428	-1100	97	-114	198	-16028	1552	-2672	204	-42	54	127	127	8
-11776	-2084	10728	-17	14	-19	-15640	-3800	-2104	-4	-11	-2	-15664	-608	-4232	-15	-35	11	-12280	4572	10280	144	-25	-120	-16412	-2416	-1100	44	-136	190	-16116	1524	-2620	158	-24	82	127	127	8
-11724	-1996	10724	-20	18	-23	-15608	-3704	-2000	-4	-15	0	-15696	-584	-4080	-12	-29	16	-12332	4576	10344	128	-53	-95	-16408	-2400	-1260	58	-95	184	-16028	1484	-2504	175	-90	61	126	127	8
-11716	-2060	10656	-9	17	-24	-15640	-3728	-2200	-11	-8	-7	-15584	-728	-4360	-11	-34	14	-12288	4480	10320	157	-1	-142	-16400	-2456	-1088	128	-78	182	-16048	1496	-2504	203	-85	49	126	127	8
-11748	-2088	10696	-7	14	-26	-15648	-3704	-2216	-9	-16	-4	-15808	-464	-4264	-15	-29	13	-12292	4508	10296	112	-43	-104	-16376	-2480	-1084	142	-77	198	-16028	1484	-2572	280	-113	35	125	127	8
-11756	-2024	10740	-10	16	-24	-15656	-3848	-2096	-10	-10	-2	-15736	-584	-4352	-18	-33	8	-12312	4552	10248	158	-19	-119	-16448	-2452	-1172	101	-72	184	-16036	1460	-2468	263	-36	22	125	127	8
-11740	-2028	10768	-13	15	-26	-15560	-3824	-2256	-9	-16	-2	-15704	-472	-4056	-11	-31	9	-12360	4600	10164	151	-14	-122	-16428	-2372	-992	-4	-102	159	-16076	1492	-2516	154	-41	25	126	127	8
-11840	-2056	10644	-14	11	-22	-15576	-3904	-2208	-5	-9	-4	-15704	-512	-4520	-9	-28	13	-12296	4624	10180	151	-35	-131	-16432	-2504	-1124	-49	-122	173	-16080	1468	-2540	178	-8	47	126	127	8
-11768	-2048	10632	-13	22	-24	-15600	-3824	-2136	6	-9	-8	-15688	-648	-4184	0	-25	17	-12292	4608	10260	130	16	-90	-16452	-2552	-1164	116	-12	165	-16112	1512	-2564	170	-25	7	126	127	8
-11800	-2056	10576	-12	17	-26	-15560	-3800	-1824	3	-10	-8	-15792	-520	-4152	2	-25	17	-12344	4552	10216	114	-19	-156	-16392	-2356	-1080	61	-33	140	-16072	1384	-2668	191	4	25	126	127	8
-11736	-2060	10756	-12	18	-21	-15632	-3832	-2224	6	-10	-7	-15672	-608	-4288	-2	-20	14	-12296	4532	10232	157	16	-139	-16456	-2496	-1124	-76	-25	170	-16004	1496	-2520	195	-17	53	125	127	8
-11720	-2036	10660	-14	23	-24	-15696	-3848	-2176	5	-7	-6	-15608	-512	-4352	-5	-12	20	-12280	4528	10240	132	40	-132	-16376	-2452	-1208	42	-82	138	-16020	1496	-2644	163	4	8	126	127	8
-11756	-2068	10632	-18	19	-24	-15528	-3752	-2280	0	-13	-4	-15696	-744	-4328	-2	-10	20	-12336	4536	10252	152	-7	-129	-16420	-2440	-1140	100	-61	154	-16092	1504	-2620	230	12	36	125	128	8
-11716	-2032	10684	-8	15	-26	-15440	-3792	-2200	4	-18	-4	-15792	-640	-4256	5	-16	20	-12300	4540	10252	171	4	-131	-16388	-2420	-1052	81	-17	122	-16092	1468	-2500	158	-13	55	126	128	8
-11716	-2032	10628	-12	18	-24	-15584	-3816	-2048	1	-13	-3	-15792	-664	-4088	8	-21	21	-12296	4552	10324	166	-35	-101	-16468	-2476	-1088	57	-58	121	-16032	1412	-2680	135	-27	48	125	127	8
-11804	-2012	10672	-10	18	-21	-15504	-3856	-2112	11	-6	-9	-15704	-592	-4056	8	-21	17	-12356	4544	10132	157	-12	-106	-16468	-2436	-1204	28	-44	163	-16032	1372	-2656	187	14	31	124	127	8
-11768	-2032	10684	-14	20	-24	-15640	-3776	-2096	-3	-7	-6	-15632	-640	-4240	1	-19	17	-12296	4556	10240	180	5	-101	-16444	-2444	-1196	80	-55	178	-15976	1412	-2716	234	20	37	125	128	8
-11740	-1984	10636	-13	21	-21	-15568	-3736	-2144	6	-16	-9	-15600	-424	-4320	2	-7	22	-12328	4556	10204	172	12	-116	-16432	-2452	-1140	103	-53	170	-16000	1440	-2676	179	-10	105	127	127	8
-11768	-2024	10712	-15	22	-24	-15512	-3832	-2104	-2	-16	-1	-15576	-440	-4024	5	-10	23	-12380	4560	10188	177	4	-109	-16384	-2472	-1188	139	-43	152	-16044	1496	-2544	185	-63	67	127	128	8
-11808	-2024	10644	-12	15	-24	-15376	-3872	-2328	-2	-12	-11	-15608	-656	-4032	11	-26	22	-12288	4656	10220	167	-18	-136	-16460	-2392	-1144	111	-86	169	-16084	1512	-2608	190	-104	86	126	127	8
-11744	-2044	10680	-14	16	-25	-15496	-3784	-2072	8	-9	-5	-15872	-712	-4248	7	-26	20	-12324	4596	10176	166	-1	-98	-16456	-2420	-1172	35	-64	151	-16032	1536	-2512	217	-55	60	123	127	8
-11768	-2040	10732	-17	21	-28	-15744	-3808	-2064	11	-6	-5	-15808	-712	-4232	11	-18	26	-12400	4588	10204	143	28	-137	-16452	-2416	-1116	87	-86	137	-16080	1484	-2428	220	-64	63	122	127	8
-11764	-2052	10748	-10	21	-22	-15600	-3824	-2096	3	-8	-9	-15680	-632	-4096	10	-16	24	-12336	4588	10192	130	-33	-136	-16400	-2412	-1120	101	-58	171	-16024	1440	-2552	292	-28	49	125	127	8
-11760	-2052	10660	-14	20	-26	-15424	-3824	-2024	-9	-13	-5	-15616	-664	-4304	8	-16	26	-12268	4524	10072	130	-37	-130	-16408	-2428	-1108	208	-28	171	-16084	1476	-2580	253	22	12	125	127	8
-11700	-2088	10584	-9	17	-21	-15416	-3832	-2096	-3	-5	-1	-15752	-664	-4080	14	-17	23	-12360	4496	10244	164	-8	-133	-16432	-2404	-1116	177	-32	129	-16076	1416	-2396	204	-20	60	125	127	8
-11768	-2052	10680	-8	15	-24	-15472	-3872	-1880	14	-3	0	-15736	-664	-4168	11	-17	27	-12364	4484	10204	171	-27	-98	-16428	-2420	-1028	114	-47	157	-15988	1456	-2496	207	-20	98	125	128	8
-11776	-2032	10732	-8	15	-20	-15472	-3704	-2192	10	-1	-4	-15584	-712	-4240	14	-19	23	-12280	4516	10252	152	-21	-129	-16460	-2484	-1088	135	-67	159	-16040	1412	-2652	211	2	74	123	128	8
-11800	-1992	10748	-9	18	-22	-15568	-3664	-2128	-1	-7	-1	-15696	-600	-4328	-2	-15	22	-12288	4544	10392	96	-35	-111	-16384	-2424	-1152	150	-12	145	-16024	1456	-2508	248	-50	45	124	127	8
-11800	-2064	10764	-13	13	-20	-15608	-3872	-2056	-13	-15	-10	-15752	-616	-4136	3	-12	24	-12336	4492	10240	116	-55	-103	-16484	-2448	-1200	84	-10	163	-16048	1456	-2576	222	-39	40	125	127	8
-11736	-2032	10704	-10	16	-25	-15488	-3928	-2056	-1	-9	-2	-15672	-600	-4200	5	-19	20	-12248	4564	10240	148	-25	-103	-16392	-2416	-1060	145	-39	196	-16036	1484	-2576	139	-57	100	126	127	8
-11772	-2044	10708	-11	16	-25	-15544	-3880	-1928	1	-9	-5	-15648	-592	-4216	15	-27	20	-12348	4616	10260	160	-79	-108	-16432	-2416	-1172	101	-62	192	-16040	1504	-2628	154	-67	83	125	128	8
-11800	-2044	10704	-13	16	-22	-15440	-3736	-2400	-6	-8	0	-15664	-600	-4112	14	-27	18	-12336	4608	10216	111	-21	-123	-16460	-2436	-1120	159	-69	176	-16076	1448	-2520	214	-93	28	124	128	8
-11728	-2056	10636	-8	15	-23	-15560	-3808	-1880	-4	-5	-5	-15576	-848	-4216	4	-26	24	-12292	4552	10152	117	-12	-123	-16448	-2476	-1032	136	-33	179	-16100	1512	-2496	210	-72	36	124	127	8
-11796	-2020	10744	-7	13	-21	-15512	-3920	-2096	1	-6	2	-15640	-592	-4208	9	-25	18	-12332	4616	10224	135	-46	-117	-16440	-2396	-1108	127	-62	173	-16048	1460	-2608	221	-84	71	126	127	8
-11756	-1984	10704	-10	12	-23	-15528	-3824	-2048	1	-5	-6	-15672	-608	-4312	7	-23	24	-12436	4544	10232	146	-46	-98	-16436	-2492	-1172	168	-54	186	-16020	1468	-2604	246	-120	85	127	128	8
-11732	-2024	10668	-9	15	-23	-15584	-3720	-2024	-5	-10	-2	-15688	-640	-4416	8	-26	21	-12340	4584	10284	135	-55	-113	-16388	-2476	-1248	162	-74	196	-16008	1404	-2652	282	-82	67	126	127	8
-11728	-2052	10716	-10	13	-24	-15480	-3776	-2152	-6	-11	-2	-15616	-560	-4200	6	-29	18	-12256	4668	10216	149	-89	-119	-16412	-2392	-976	229	-30	215	-16004	1484	-2572	275	-120	49	125	127	8
-11728	-2052	10736	-13	14	-23	-15608	-3776	-2136	-7	-13	1	-15736	-528	-4256	3	-30	19	-12352	4484	10296	146	-10	-98	-16480	-2484	-1096	77	-80	198	-16024	1516	-2564	215	-110	72	124	128	8
-11800	-2024	10660	-10	12	-22	-15640	-3888	-2256	-13	-10	-4	-15616	-424	-4152	5	-32	17	-12264	4560	10200	142	-34	-72	-16432	-2452	-1116	52	-110	167	-15972	1576	-2440	217	-129	90	126	127	8
-11732	-2032	10664	-14	16	-22	-15528	-3832	-2256	-2	-9	-3	-15608	-584	-4304	3	-29	19	-12296	4612	10292	97	-69	-75	-16484	-2336	-1024	72	-55	194	-15960	1576	-2520	185	-117	64	126	128	8
-11740	-1972	10728	-16	16	-24	-15544	-3776	-1968	-7	-14	-6	-15696	-576	-4128	2	-29	17	-12400	4564	10264	134	-59	-118	-16396	-2432	-1088	116	-102	163	-16060	1476	-2592	136	-133	62	127	127	8
-11740	-2052	10584	-16	13	-25	-15664	-3704	-2072	-14	-10	-4	-15840	-600	-4200	0	-31	14	-12320	4564	10284	108	-57	-94	-16420	-2448	-1200	181	-28	154	-16016	1456	-2572	170	-136	38	126	128	8
-11732	-1972	10680	-11	14	-26	-15488	-3912	-2208	-8	-9	-2	-15680	-544	-4208	0	-33	14	-12320	4584	10216	125	-53	-87	-16476	-2412	-1064	155	-65	173	-16040	1500	-2436	161	-188	29	125	128	8
-11728	-2068	10688	-12	15	-23	-15472	-3856	-2056	-13	-15	-10	-15672	-608	-4136	1	-37	14	-12300	4652	10220	103	-77	-100	-16436	-2264	-1080	66	-73	131	-15992	1552	-2512	98	-105	51	126	127	8
-11700	-2048	10608	-9	15	-23	-15440	-3856	-2016	-4	-11	-4	-15608	-704	-4112	5	-38	11	-12328	4592	10256	104	-9	-106	-16416	-2452	-1072	29	-113	114	-16032	1564	-2480	136	-102	43	127	128	8
-11780	-2008	10728	-11	16	-23	-15528	-3760	-1928	-15	-15	-3	-15672	-560	-4152	1	-40	12	-12388	4552	10196	113	-12	-122	-16480	-2492	-1112	119	-60	170	-16040	1444	-2552	164	-77	29	126	128	8
-11712	-2076	10732	-6	8	-23	-15640	-3888	-2184	-9	-11	-6	-15656	-632	-4216	-6	-36	8	-12356	4536	10208	129	-33	-109	-16424	-2436	-1040	110	-75	172	-16076	1448	-2536	125	-63	16	126	128	8
-11756	-2024	10664	-7	12	-22	-15640	-3824	-2128	-9	-9	-4	-15656	-496	-3992	-5	-31	9	-12268	4588	10224	112	11	-145	-16432	-2412	-1100	134	-75	157	-16052	1464	-2544	126	-103	29	126	127	8
-11768	-2016	10716	-10	12	-22	-15600	-3840	-1824	-10	-13	-8	-15784	-576	-4024	-6	-28	14	-12380	4592	10284	144	-71	-106	-16520	-2436	-1056	69	-76	148	-16028	1500	-2588	182	-103	23	125	128	8
-11680	-2064	10760	-8	13	-27	-15640	-3696	-1992	0	-11	-7	-15704	-544	-4152	-8	-30	15	-12360	4600	10248	118	-39	-128	-16400	-2352	-1264	44	-138	138	-16072	1488	-2540	183	-79	57	126	128	8
-11672	-2020	10696	-14	15	-22	-15544	-3688	-2128	-3	-14	-9	-15704	-512	-4128	-4	-30	13	-12284	4604	10204	133	-18	-104	-16456	-2388	-1036	13	-100	152	-16036	1524	-2612	174	-98	44	125	128	8
-11760	-1980	10580	-11	19	-26	-15512	-3776	-2048	0	-19	-14	-15688	-632	-4112	-2	-26	12	-12336	4548	10160	132	-6	-132	-16424	-2432	-1164	8	-112	177	-16036	1436	-2616	199	-98	24	126	128	8
-11696	-2068	10656	-14	14	-22	-15552	-3800	-1904	-2	-16	-8	-15640	-504	-4120	-6	-29	12	-12316	4544	10312	135	-25	-128	-16412	-2448	-1064	190	-86	206	-16104	1400	-2460	224	-54	20	126	128	8
-11784	-2028	10660	-11	17	-25	-15584	-3800	-2232	-4	-15	-11	-15760	-680	-4264	1	-36	10	-12284	4560	10276	170	-18	-97	-16408	-2312	-1104	191	-93	174	-16072	1496	-2424	270	-88	77	124	127	8
-11756	-2040	10676	-11	13	-25	-15608	-3792	-1800	-9	-17	-5	-15808	-744	-4152	0	-35	11	-12300	4608	10232	144	-35	-151	-16440	-2408	-1000	80	-152	152	-16028	1432	-2476	252	-109	31	126	127	8
-11688	-2052	10700	-11	13	-25	-15600	-3840	-2072	-1	-14	-10	-15704	-600	-4024	0	-30	14	-12264	4612	10260	121	-25	-88	-16400	-2444	-1072	72	-112	116	-16076	1516	-2416	330	-139	26	126	127	8
-11732	-2052	10676	-14	16	-24	-15720	-3864	-2096	-10	-9	-9	-15784	-648	-4000	1	-23	13	-12320	4568	10240	142	2	-129	-16392	-2464	-1076	93	-142	149	-16036	1440	-2316	306	-95	45	125	128	8
-11736	-2084	10720	-16	17	-27	-15544	-3944	-1752	0	-14	-9	-15792	-760	-4080	1	-21	17	-12300	4596	10316	138	-28	-108	-16408	-2452	-1044	172	-74	162	-16040	1456	-2400	348	-58	33	127	128	8
-11752	-2052	10792	-12	19	-26	-15632	-3960	-1944	4	-16	-11	-15768	-672	-4232	-2	-23	16	-12348	4624	10264	112	-18	-121	-16416	-2456	-1088	152	-65	174	-16060	1524	-2444	321	-61	57	125	128	8
-11772	-2004	10696	-13	14	-26	-15512	-3848	-1808	-5	-9	-6	-15680	-792	-4136	3	-26	18	-12252	4568	10308	152	-31	-134	-16408	-2368	-1028	126	-49	191	-16104	1472	-2320	276	4	39	125	127	8
-11744	-2100	10816	-11	15	-23	-15720	-3928	-2144	14	-8	-9	-15736	-488	-4248	-1	-22	22	-12340	4568	10268	162	-24	-137	-16456	-2404	-1084	105	-64	154	-16084	1488	-2472	260	34	56	126	127	8
-11736	-2072	10648	-7	15	-22	-15584	-3864	-2096	10	-5	-4	-15736	-624	-3960	-3	-17	20	-12360	4628	10220	160	-51	-137	-16456	-2468	-1140	94	-61	169	-16084	1460	-2436	246	-14	99	126	127	8
-11728	-1968	10688	-14	14	-23	-15552	-3856	-2048	-11	-8	0	-15800	-736	-3944	9	-21	19	-12312	4556	10196	131	-27	-124	-16356	-2400	-1008	115	-90	192	-16124	1452	-2532	221	-21	73	126	128	8
-11716	-2008	10692	-11	16	-22	-15544	-3816	-2048	-9	-6	-3	-15688	-600	-4104	3	-27	19	-12296	4544	10228	132	-27	-143	-16384	-2424	-1116	84	-51	159	-16076	1460	-2440	143	-34	57	126	128	8
-11728	-2044	10620	-12	14	-23	-15504	-3752	-2016	-1	-9	-6	-15760	-640	-3912	5	-26	15	-12272	4584	10292	128	-9	-120	-16444	-2472	-964	116	-81	172	-16040	1440	-2484	129	-44	57	125	128	8
-11756	-2048	10648	-9	14	-28	-15600	-3784	-1808	-5	-13	-3	-15696	-520	-4192	6	-27	16	-12360	4576	10128	160	8	-82	-16476	-2388	-1036	105	-107	165	-16044	1472	-2560	168	-83	44	125	128	8
-11804	-2076	10708	-9	14	-19	-15544	-3776	-1696	-5	-11	-6	-15752	-600	-4368	3	-20	25	-12332	4520	10284	159	29	-135	-16380	-2464	-1100	105	-38	197	-16112	1420	-2512	175	-37	56	126	128	8
-11756	-2008	10700	-13	15	-26	-15584	-3792	-2120	12	-9	-11	-15736	-624	-3952	0	-20	23	-12392	4540	10176	139	-27	-140	-16484	-2420	-1020	87	-65	175	-16076	1452	-2400	182	-64	56	125	128	8
-11748	-2008	10668	-10	19	-26	-15584	-3816	-2048	-3	-8	-4	-15648	-568	-3912	5	-21	20	-12332	4604	10268	128	-13	-129	-16412	-2368	-1020	82	-50	167	-16044	1460	-2388	172	-78	58	126	128	8
-11700	-2040	10644	-13	13	-25	-15616	-3864	-2096	-15	-9	-3	-15744	-680	-3864	-1	-26	16	-12300	4564	10200	110	3	-151	-16460	-2292	-1008	148	-41	137	-16116	1508	-2392	237	-44	52	126	127	8
-11780	-2076	10764	-11	14	-23	-15512	-3880	-2104	-5	-10	-5	-15744	-744	-4152	4	-27	16	-12248	4588	10176	127	4	-146	-16404	-2424	-1008	107	-44	178	-16060	1444	-2428	233	-32	52	125	127	8
-11776	-2048	10744	-14	11	-24	-15488	-3848	-2032	-1	-6	-7	-15752	-696	-4168	6	-31	18	-12296	4628	10280	154	-12	-122	-16440	-2412	-1160	147	-35	145	-16016	1516	-2568	243	1	32	126	128	8
-11780	-2052	10664	-11	14	-24	-15728	-3816	-2000	-1	-5	1	-15768	-600	-3856	4	-22	22	-12320	4576	10224	141	-22	-119	-16396	-2364	-1076	123	-54	148	-16036	1516	-2468	215	10	59	126	128	8
-11696	-2032	10736	-13	13	-23	-15544	-3888	-2048	-2	-9	-10	-15760	-584	-3848	3	-18	23	-12324	4608	10252	92	-9	-87	-16416	-2400	-1036	54	-79	148	-16072	1508	-2468	134	-39	38	126	128	8
-11768	-2008	10652	-16	16	-23	-15608	-3800	-1912	-7	-5	-7	-15840	-704	-4344	7	-19	22	-12284	4572	10264	134	3	-123	-16472	-2440	-1056	150	-15	178	-16004	1488	-2468	134	-47	56	126	128	8
-11776	-2000	10684	-11	14	-24	-15616	-3680	-2024	1	-4	-6	-15864	-496	-4032	8	-20	17	-12324	4616	10208	121	12	-130	-16456	-2392	-1136	148	-37	168	-16056	1452	-2416	192	-70	18	125	128	8
-11700	-2032	10672	-11	16	-24	-15464	-3760	-1912	-5	-2	-5	-15648	-696	-4112	9	-21	17	-12316	4576	10224	94	-26	-105	-16436	-2332	-1072	139	-49	153	-16052	1560	-2540	176	-47	30	125	128	8
-11792	-2008	10604	-11	14	-22	-15568	-3744	-1928	1	-6	-6	-15696	-608	-3848	8	-22	20	-12236	4608	10156	128	-15	-108	-16484	-2428	-1032	136	-44	163	-15988	1480	-2432	163	-57	31	125	127	8
-11748	-2032	10680	-14	15	-23	-15696	-3800	-2016	3	-5	-4	-15744	-544	-4184	5	-26	16	-12260	4616	10152	143	-74	-139	-16436	-2520	-1040	122	-42	150	-16080	1532	-2524	167	-76	32	126	127	8
-11728	-2072	10708	-14	17	-24	-15624	-3736	-2104	-3	-12	-2	-15864	-544	-4248	7	-22	20	-12308	4616	10196	88	-77	-87	-16504	-2408	-932	139	-22	165	-16176	1476	-2460	200	-73	44	126	127	8
-11744	-2040	10616	-13	15	-21	-15608	-3760	-1992	-3	-5	-4	-15784	-480	-4264	7	-20	15	-12316	4600	10196	115	-20	-103	-16448	-2372	-996	123	-55	122	-16100	1548	-2500	188	-66	60	126	127	8
-11804	-1980	10688	-15	14	-23	-15496	-3920	-1696	1	-8	-5	-15840	-584	-4120	8	-25	17	-12308	4584	10176	103	-10	-100	-16416	-2404	-1148	55	-64	142	-16024	1524	-2500	200	-53	37	126	128	8
-11732	-1996	10568	-12	20	-26	-15568	-3808	-1960	2	-13	-11	-15792	-536	-4088	6	-24	13	-12252	4436	10264	-19	-169	-143	-16536	-2432	-924	79	-48	158	-16012	1508	-2532	215	-44	-9	126	127	8
-11696	-2000	10680	-10	17	-26	-15512	-3720	-1832	-9	-8	-10	-15776	-648	-3944	5	-28	12	-12376	4584	10268	122	-32	-114	-16480	-2364	-964	154	-19	137	-16116	1520	-2344	242	-67	11	126	128	8
-11764	-2052	10636	-13	17	-24	-15576	-3760	-2232	-6	-6	-10	-15656	-624	-3872	1	-26	13	-12312	4568	10172	127	-42	-133	-16456	-2400	-1064	134	-45	117	-16052	1492	-2444	184	-61	35	126	128	8
-11688	-2016	10748	-16	14	-25	-15512	-3736	-2144	-6	-7	-9	-15568	-584	-4016	2	-23	10	-12300	4524	10296	111	-22	-152	-16428	-2444	-1060	52	-35	112	-16188	1468	-2432	125	-77	21	125	128	8
-11704	-2032	10672	-12	15	-23	-15576	-3928	-2040	-7	-11	-7	-15672	-704	-4024	1	-18	13	-12336	4556	10228	145	-39	-104	-16492	-2364	-1184	-9	-82	145	-16136	1496	-2516	130	-24	27	126	128	8
-11688	-2000	10572	-15	16	-26	-15512	-3800	-1800	8	-9	-7	-15704	-608	-4216	-11	-20	18	-12364	4600	10264	91	7	-137	-16452	-2476	-1104	34	-68	85	-16016	1484	-2472	126	-13	16	126	128	8
-11760	-1968	10736	-11	17	-24	-15488	-3704	-1896	-4	-11	-9	-15672	-560	-4080	0	-22	10	-12296	4536	10236	102	-67	-101	-16420	-2452	-948	164	-115	111	-15976	1480	-2516	134	-41	1	125	128	8
-11748	-2004	10636	-20	15	-28	-15576	-3680	-1960	-1	-10	-7	-15736	-568	-4000	-2	-27	12	-12320	4576	10160	154	-68	-112	-16456	-2412	-1008	116	-50	128	-15980	1460	-2308	145	-108	4	125	127	8
-11752	-2036	10644	-13	21	-26	-15448	-3824	-1808	-1	-10	-13	-15808	-760	-3888	2	-28	12	-12264	4576	10252	136	-62	-96	-16428	-2412	-1072	35	-84	113	-16132	1472	-2416	128	-111	41	125	127	8
-11744	-2048	10780	-16	11	-26	-15600	-3928	-1920	-7	-11	-11	-15808	-744	-3960	4	-24	14	-12284	4572	10276	106	-60	-103	-16404	-2468	-1084	37	-86	110	-16128	1484	-2360	197	-69	26	125	127	8
-11708	-1988	10744	-14	16	-30	-15688	-3872	-1864	-2	-6	-9	-15696	-680	-3760	2	-21	16	-12328	4596	10228	102	-42	-130	-16476	-2388	-900	101	-95	143	-16124	1520	-2324	192	-55	41	126	128	8
-11688	-2068	10656	-9	17	-25	-15544	-3912	-2056	0	-11	-8	-15776	-728	-3952	5	-21	13	-12316	4568	10320	140	-18	-155	-16416	-2380	-1068	78	-34	138	-16088	1516	-2468	185	-26	6	126	127	8
-11700	-1988	10680	-13	19	-24	-15680	-3816	-2024	-2	-9	-4	-15704	-712	-4064	6	-20	16	-12300	4536	10348	140	-64	-105	-16416	-2376	-960	120	-38	142	-16088	1492	-2348	128	-29	19	125	127	8
-11784	-2064	10700	-10	15	-25	-15464	-3856	-2128	-5	-9	-11	-15624	-608	-4224	8	-22	19	-12332	4572	10212	62	-27	-142	-16416	-2436	-1060	117	-17	122	-16052	1536	-2372	171	-44	-2	125	127	8
-11732	-2056	10724	-13	18	-26	-15496	-3840	-1688	-6	-7	-10	-15624	-616	-4088	12	-24	16	-12248	4564	10240	108	-21	-128	-16416	-2316	-1076	84	-33	91	-16100	1428	-2312	167	-1	18	126	127	8
-11708	-1984	10644	-12	10	-22	-15488	-3648	-2128	-7	-6	-9	-15712	-648	-3904	2	-25	14	-12248	4576	10284	120	-22	-149	-16384	-2528	-1056	99	-34	131	-16048	1456	-2400	161	-37	24	125	127	8
-11736	-2120	10740	-8	18	-21	-15656	-3792	-1920	-9	-8	-9	-15672	-744	-4032	-7	-23	13	-12300	4532	10280	113	-14	-107	-16372	-2464	-1044	117	-23	124	-16012	1432	-2452	110	-24	13	125	127	8
-11760	-1972	10676	-11	16	-20	-15616	-3856	-2176	-8	-9	-5	-15752	-640	-4064	0	-23	15	-12336	4524	10180	114	-16	-103	-16388	-2424	-1032	88	-68	124	-16032	1420	-2452	103	-34	20	126	127	8
-11740	-1996	10720	-8	16	-25	-15640	-3848	-2104	-5	-9	-2	-15752	-624	-4096	-1	-21	11	-12280	4552	10208	97	-60	-136	-16420	-2420	-1004	154	-43	133	-16128	1524	-2392	106	-49	48	126	128	8
-11744	-1960	10676	-14	15	-22	-15624	-3792	-1864	-8	-10	-8	-15744	-656	-3992	-2	-21	19	-12304	4588	10324	132	-15	-136	-16400	-2400	-992	118	-54	153	-16116	1516	-2532	136	-69	64	127	128	8
-11752	-2080	10712	-9	15	-26	-15416	-3816	-1920	4	-4	-11	-15792	-672	-3928	-3	-24	10	-12396	4624	10280	104	-19	-137	-16424	-2428	-992	105	-46	137	-16024	1584	-2312	115	-105	33	126	127	8
-11688	-2068	10620	-7	12	-26	-15632	-3856	-1952	-10	-7	-3	-15704	-688	-4040	1	-26	9	-12360	4596	10208	102	-25	-115	-16456	-2472	-936	148	-50	153	-16108	1528	-2340	131	-88	45	125	128	8
-11768	-2004	10724	-10	13	-26	-15384	-3904	-2048	-11	-12	-11	-15912	-640	-4176	1	-23	13	-12276	4560	10260	121	-2	-131	-16528	-2440	-972	126	-17	117	-16064	1440	-2440	116	-54	-21	126	127	8
-11764	-2052	10696	-9	11	-22	-15544	-3800	-2080	-14	-12	-6	-15792	-536	-3912	5	-26	14	-12260	4512	10192	131	-58	-135	-16416	-2424	-1020	140	-15	141	-16036	1444	-2364	158	-2	47	127	127	8
-11740	-1952	10720	-13	22	-24	-15536	-3816	-1976	1	-13	-6	-15672	-576	-3976	10	-23	13	-12312	4572	10244	82	-88	-125	-16440	-2392	-976	102	-47	131	-16068	1512	-2304	74	-5	28	127	127	8
-11752	-2000	10672	-9	17	-24	-15624	-3816	-2016	4	-9	-4	-15776	-688	-4040	6	-17	17	-12348	4560	10212	144	-73	-157	-16456	-2400	-1012	20	-56	115	-16100	1544	-2388	30	-9	47	126	127	8
-11712	-2056	10772	-14	14	-26	-15608	-3864	-1824	-2	-9	-8	-15648	-704	-3840	5	-21	17	-12248	4620	10272	88	-55	-156	-16464	-2396	-904	49	-28	122	-16016	1436	-2304	40	-24	9	125	127	8
-11748	-2124	10628	-15	17	-24	-15512	-3696	-1880	-11	-5	-9	-15792	-656	-4024	10	-18	14	-12276	4580	10196	102	-51	-142	-16492	-2392	-892	20	-43	120	-16012	1488	-2384	64	-39	2	125	127	8
-11792	-2072	10780	-13	10	-24	-15624	-3912	-1904	2	-6	-7	-15712	-544	-4168	-2	-20	17	-12244	4636	10236	80	-120	-181	-16460	-2436	-1096	35	-79	135	-16084	1528	-2476	77	-46	13	125	127	8
-11748	-2044	10664	-10	18	-23	-15584	-3792	-1712	-1	-9	-6	-15648	-600	-4008	-4	-16	16	-12332	4516	10316	99	-102	-182	-16448	-2456	-868	45	-81	147	-16008	1416	-2420	116	-39	10	126	127	8
-11756	-1968	10644	-11	13	-21	-15624	-3840	-2128	-5	-8	-7	-15616	-584	-4040	2	-19	16	-12288	4548	10232	109	-86	-157	-16404	-2508	-1004	36	-23	117	-16092	1380	-2400	128	-43	2	126	127	8
-11756	-2008	10664	-12	18	-25	-15520	-3792	-1624	1	-9	-9	-15784	-488	-4208	-2	-26	14	-12248	4540	10244	129	-17	-128	-16468	-2464	-1184	16	24	156	-16068	1428	-2236	190	-28	15	126	127	8
-11768	-2020	10724	-8	14	-30	-15496	-3944	-1976	2	-9	-7	-15688	-592	-4008	4	-22	16	-12312	4536	10228	123	-14	-132	-16364	-2440	-988	58	-41	144	-16064	1544	-2376	212	-14	37	126	127	8
-11732	-2056	10692	-14	13	-23	-15472	-4016	-1960	1	-7	-10	-15720	-776	-4040	5	-23	12	-12252	4588	10268	138	-10	-123	-16380	-2420	-912	29	-49	136	-16016	1488	-2356	217	-41	52	126	127	8
-11800	-2048	10692	-14	16	-25	-15672	-3760	-1792	-4	-5	-9	-15800	-560	-3832	4	-20	18	-12340	4600	10232	131	-8	-110	-16440	-2432	-936	89	-80	159	-16036	1548	-2528	201	-29	45	127	127	8
-11716	-2044	10644	-15	14	-20	-15464	-3800	-1680	-4	-5	-3	-15736	-672	-4216	4	-17	16	-12292	4568	10276	161	5	-100	-16432	-2516	-976	108	-47	165	-16088	1428	-2448	269	-15	25	126	127	8
-11676	-2092	10796	-11	14	-23	-15696	-3920	-1968	6	-4	-10	-15672	-728	-4024	5	-22	16	-12348	4556	10260	168	-12	-105	-16416	-2476	-1096	68	-3	156	-16060	1460	-2500	250	-25	8	125	127	8
-11716	-2080	10688	-12	16	-24	-15640	-3832	-2096	3	-2	-8	-15760	-544	-4112	9	-24	21	-12236	4484	10260	141	1	-128	-16468	-2436	-924	75	-69	178	-16056	1416	-2400	253	-45	41	124	127	8
-11780	-2084	10736	-14	17	-28	-15656	-3848	-1896	-3	-6	-6	-15776	-824	-3952	6	-21	19	-12324	4552	10284	147	-19	-120	-16480	-2460	-1112	31	-113	174	-16080	1480	-2276	221	-79	47	124	127	8
-11736	-2052	10704	-16	20	-26	-15448	-3920	-1896	4	-6	-8	-15752	-720	-4040	6	-16	15	-12344	4576	10268	179	-9	-98	-16448	-2408	-1064	86	-73	164	-16016	1492	-2364	281	-33	43	124	127	8
-11732	-2040	10664	-14	15	-27	-15680	-3800	-2048	-13	-7	-8	-15768	-664	-4024	-1	-16	19	-12336	4624	10304	169	-15	-72	-16420	-2532	-972	186	-53	149	-16088	1412	-2300	369	38	73	126	127	8
-11772	-1996	10728	-13	14	-23	-15368	-3888	-1912	-7	-5	-5	-15736	-736	-4040	0	-23	17	-12244	4544	10188	203	10	-104	-16356	-2408	-984	254	-16	165	-16088	1436	-2400	427	-35	58	126	127	8
-11716	-2032	10692	-11	18	-23	-15472	-3848	-2112	0	-4	-9	-15712	-640	-3848	2	-27	22	-12296	4548	10288	161	-24	-130	-16368	-2472	-904	219	-52	137	-16108	1476	-2396	424	-25	112	126	127	8
-11756	-2080	10716	-9	17	-24	-15624	-3848	-2000	12	2	-5	-15616	-680	-4016	8	-21	18	-12320	4624	10264	123	16	-118	-16468	-2428	-932	117	-98	164	-16164	1496	-2312	368	-10	45	124	127	8
-11708	-2056	10716	-10	18	-21	-15584	-3992	-1992	9	0	-1	-15824	-592	-4064	18	-11	25	-12316	4564	10228	131	7	-115	-16380	-2476	-1036	67	-67	193	-16088	1524	-2240	316	-28	72	124	127	8
-11736	-2032	10672	-13	17	-21	-15784	-3808	-2016	6	-2	-4	-15864	-640	-3944	12	-11	22	-12256	4608	10316	151	-9	-70	-16416	-2480	-964	81	-42	146	-16096	1528	-2332	313	-27	71	126	127	8
-11732	-2004	10716	-11	13	-21	-15640	-3800	-1904	-6	-1	0	-15760	-624	-4072	8	-14	26	-12276	4592	10332	143	33	-99	-16436	-2412	-952	193	-12	183	-16080	1528	-2320	293	26	63	126	127	8
-11764	-2064	10700	-12	10	-20	-15608	-3920	-1960	0	3	2	-15808	-728	-3864	11	-15	23	-12260	4588	10264	157	-60	-140	-16456	-2380	-1000	186	44	155	-16116	1508	-2316	314	29	67	124	127	8
-11752	-2048	10788	-11	19	-21	-15584	-3856	-1744	7	5	-6	-15768	-672	-4040	14	-11	26	-12256	4564	10280	136	6	-119	-16412	-2468	-888	89	-8	182	-16044	1504	-2256	247	12	36	124	127	8
-11772	-2024	10740	-6	16	-20	-15744	-3832	-2096	4	0	-5	-15704	-776	-3976	15	-12	21	-12300	4572	10280	127	40	-121	-16456	-2512	-988	82	6	196	-16100	1532	-2352	188	56	35	125	127	8
-11728	-2048	10748	-10	23	-22	-15608	-3728	-1920	7	2	1	-15816	-640	-4024	11	-7	21	-12248	4588	10288	121	-12	-133	-16412	-2444	-924	96	19	170	-16056	1504	-2348	207	44	25	126	127	8
-11744	-2052	10644	-12	18	-25	-15528	-3624	-2208	-2	-1	-6	-15696	-528	-4184	2	-10	24	-12280	4600	10292	115	-25	-136	-16444	-2464	-1108	20	-9	163	-16048	1476	-2344	139	30	56	126	128	8
-11760	-2016	10584	-16	19	-24	-15584	-3776	-2072	-6	-4	-8	-15696	-632	-4104	2	-8	22	-12316	4632	10180	120	-7	-98	-16400	-2392	-1072	51	22	146	-16096	1500	-2404	169	18	53	125	127	8
-11724	-2036	10740	-11	15	-24	-15520	-3864	-1912	0	-4	0	-15792	-664	-4016	4	-14	19	-12236	4572	10324	135	-15	-127	-16460	-2428	-980	66	-10	123	-16068	1492	-2440	179	6	69	125	127	8
-11780	-2056	10772	-14	15	-27	-15424	-3904	-2064	-3	-4	-5	-15736	-600	-4064	2	-16	16	-12256	4628	10284	133	-52	-96	-16416	-2456	-1068	130	47	166	-16080	1444	-2408	201	46	10	125	127	8
-11764	-2056	10676	-10	15	-22	-15624	-3824	-1984	-5	2	-5	-15808	-672	-3864	-7	-17	16	-12304	4552	10336	134	-51	-117	-16452	-2448	-1024	70	-3	154	-16180	1500	-2356	162	58	8	124	127	8
-11712	-2036	10716	-14	14	-23	-15624	-3816	-1640	-10	0	-5	-15696	-712	-3888	-6	-16	17	-12268	4528	10236	90	-6	-153	-16464	-2368	-1068	71	5	146	-16092	1396	-2388	91	53	15	125	127	8
-11700	-2036	10688	-11	14	-22	-15648	-3776	-1960	-3	1	-7	-15848	-752	-3904	-8	-8	17	-12328	4532	10212	127	-25	-135	-16516	-2420	-1076	-23	8	170	-16160	1524	-2376	103	75	46	126	128	8
-11776	-2016	10728	-14	18	-23	-15464	-3872	-1696	4	5	-9	-15832	-640	-4152	-2	-9	20	-12240	4636	10324	144	-44	-138	-16536	-2472	-976	3	-10	129	-16064	1488	-2352	92	71	27	126	128	8
-11724	-2004	10680	-13	18	-24	-15568	-3928	-1768	-10	0	-6	-15720	-632	-4120	-1	-7	14	-12296	4524	10372	108	-18	-177	-16384	-2384	-1104	79	8	132	-16036	1484	-2444	126	40	-12	125	127	8
-11788	-2028	10732	-14	19	-24	-15600	-3736	-1848	-13	1	-5	-15840	-696	-3944	-2	-12	15	-12292	4572	10160	140	1	-139	-16396	-2416	-960	109	36	154	-16108	1524	-2512	103	17	10	124	128	8
-11744	-1956	10712	-12	17	-25	-15440	-3848	-2152	-1	-1	-12	-15664	-688	-4056	2	-8	22	-12300	4656	10200	129	-48	-152	-16476	-2408	-988	50	-19	110	-16112	1436	-2472	64	-6	27	124	128	8
-11764	-2040	10772	-10	14	-24	-15584	-3960	-2080	5	1	-7	-15824	-632	-3992	1	-12	19	-12272	4568	10312	121	-85	-139	-16440	-2392	-960	11	-36	119	-16076	1484	-2292	28	54	74	125	128	8
-11784	-1960	10792	-11	14	-23	-15520	-3968	-1880	6	3	-4	-15648	-664	-4176	12	-14	18	-12240	4548	10300	101	-50	-134	-16440	-2364	-880	-3	-6	166	-16032	1412	-2368	87	55	-4	125	128	8
-11668	-1996	10688	-13	19	-26	-15720	-3704	-2080	-2	6	-5	-15736	-608	-3872	19	-15	17	-12376	4596	10232	93	-43	-165	-16444	-2488	-956	73	4	88	-16068	1484	-2468	87	62	6	125	127	8
-11736	-2044	10596	-11	13	-22	-15616	-3712	-1888	6	5	-5	-15784	-648	-4152	12	-5	18	-12304	4624	10232	99	-52	-163	-16388	-2456	-952	93	3	133	-16088	1532	-2456	106	31	28	125	128	8
-11684	-2048	10680	-12	15	-21	-15608	-3880	-1912	1	8	-8	-15800	-592	-4168	14	-4	21	-12272	4568	10272	104	-21	-154	-16404	-2412	-1104	66	-15	151	-16080	1520	-2316	148	-52	27	125	127	8
-11724	-2032	10552	-8	20	-27	-15472	-3992	-2120	5	7	-9	-15848	-528	-3920	6	-3	22	-12300	4512	10216	97	-24	-154	-16496	-2452	-1060	65	14	93	-16132	1508	-2340	145	-4	6	125	127	8
-11756	-2012	10816	-12	18	-21	-15704	-3696	-2080	0	-2	-11	-15656	-664	-4112	10	-2	20	-12252	4584	10300	108	-24	-146	-16420	-2416	-964	74	4	96	-16128	1488	-2448	153	15	15	125	128	8
-11704	-1992	10672	-9	21	-25	-15504	-3816	-2096	0	-4	-5	-15704	-680	-4024	9	-8	24	-12264	4632	10240	148	-33	-144	-16472	-2432	-1072	-22	-3	142	-16004	1528	-2484	109	40	36	125	128	8
-11736	-1972	10680	-13	18	-25	-15648	-3752	-2152	2	-1	-8	-15768	-832	-4080	11	-10	16	-12264	4572	10200	95	9	-170	-16444	-2432	-1076	37	1	105	-16044	1512	-2464	66	44	5	125	127	8
-11732	-1996	10680	-10	17	-26	-15576	-3760	-1840	6	7	-6	-15624	-736	-3912	14	-16	20	-12336	4552	10296	82	-10	-121	-16428	-2428	-880	85	8	150	-15996	1400	-2412	41	33	48	125	128	8
-11820	-2044	10676	-14	15	-25	-15552	-3856	-2120	5	4	-7	-15736	-712	-4040	10	-13	19	-12304	4568	10280	123	-10	-141	-16480	-2500	-1180	59	-9	104	-16088	1464	-2320	104	37	6	125	127	8
-11776	-2124	10652	-13	11	-27	-15600	-3912	-1952	-3	-2	-6	-15896	-760	-4032	13	-9	20	-12280	4560	10324	137	-38	-132	-16428	-2512	-1020	66	-29	143	-16084	1420	-2364	56	33	9	125	127	8
-11732	-2004	10740	-12	20	-25	-15632	-3856	-1816	4	0	-3	-15720	-616	-3976	8	-12	16	-12252	4608	10164	116	27	-134	-16388	-2356	-1176	-18	-34	114	-16164	1448	-2252	33	9	30	124	127	8
-11728	-2020	10704	-12	15	-27	-15552	-3760	-1976	1	-3	-6	-15648	-616	-4288	5	-12	20	-12340	4576	10252	133	-21	-112	-16464	-2480	-1084	-28	-8	162	-16092	1424	-2468	99	1	27	124	127	8
-11732	-2080	10700	-14	18	-26	-15408	-3744	-2096	-6	-4	-2	-15608	-560	-3816	2	-15	17	-12336	4556	10196	151	-1	-160	-16468	-2432	-1160	58	-12	116	-16092	1456	-2424	159	-9	10	125	127	8
-11728	-2012	10588	-13	16	-24	-15504	-3824	-1976	-2	-5	-5	-15664	-544	-4256	3	-26	16	-12284	4512	10216	154	-30	-165	-16400	-2496	-1044	152	-33	142	-16012	1400	-2500	224	-20	47	125	127	8
-11772	-1984	10696	-10	16	-20	-15488	-3856	-2120	-4	-1	-7	-15776	-664	-3808	0	-22	12	-12304	4596	10320	143	-37	-109	-16476	-2448	-1028	213	-17	182	-16044	1512	-2488	262	-51	32	125	127	8
-11792	-2044	10740	-12	14	-21	-15704	-3816	-2112	0	-5	-7	-15776	-760	-4144	-7	-23	13	-12264	4588	10200	149	-52	-102	-16428	-2424	-1088	172	9	138	-16068	1408	-2348	244	-73	63	125	127	8
-11652	-2092	10656	-12	15	-23	-15464	-3864	-1952	2	-7	-3	-15776	-704	-3944	2	-11	18	-12280	4584	10376	135	-20	-139	-16412	-2416	-1064	11	-35	134	-16076	1440	-2348	241	-69	39	125	127	8
-11724	-2032	10764	-15	15	-24	-15464	-3856	-2000	7	-7	-7	-15640	-664	-4096	6	-8	20	-12324	4544	10264	112	-15	-120	-16372	-2472	-1164	70	-16	136	-16128	1528	-2352	272	-44	58	126	127	8
-11732	-2048	10628	-11	18	-23	-15584	-3904	-1912	-8	-9	-6	-15824	-776	-4088	8	-19	20	-12372	4576	10284	166	-40	-116	-16444	-2448	-1204	61	-39	165	-16072	1476	-2368	264	-43	33	126	127	8
-11716	-2040	10780	-13	18	-25	-15512	-3576	-1904	3	-6	-6	-15808	-528	-4168	15	-22	22	-12288	4620	10296	145	0	-130	-16448	-2440	-1044	202	-28	172	-16000	1532	-2320	228	16	47	125	127	8
-11688	-2024	10720	-9	13	-23	-15544	-3904	-2128	4	0	-9	-15720	-712	-4096	14	-25	21	-12340	4596	10192	106	-49	-129	-16396	-2428	-1016	128	-7	161	-16092	1460	-2424	127	-25	62	125	127	8
-11716	-1968	10640	-15	12	-24	-15600	-3880	-2000	-2	-2	-2	-15752	-600	-3984	23	-21	18	-12300	4540	10304	109	-8	-142	-16448	-2408	-1040	60	-54	126	-16108	1428	-2420	165	-40	30	125	128	8
-11744	-2080	10608	-6	18	-26	-15576	-3816	-2072	10	-3	-7	-15688	-480	-4104	4	-16	19	-12360	4532	10220	121	-1	-123	-16408	-2420	-1060	60	-51	167	-16024	1464	-2456	150	4	24	126	127	8
-11748	-2060	10700	-11	15	-24	-15560	-3728	-1944	-3	-5	-3	-15808	-488	-4288	4	-18	19	-12336	4480	10284	145	-68	-112	-16388	-2512	-1068	93	-62	177	-16120	1452	-2448	184	-37	21	126	127	8
-11792	-2060	10696	-8	16	-26	-15552	-3848	-2136	-4	-11	-6	-15664	-576	-4144	0	-18	20	-12288	4536	10288	121	58	-112	-16424	-2480	-1032	179	-32	174	-16128	1440	-2392	202	-42	23	126	127	8
-11724	-2004	10780	-12	15	-20	-15568	-3856	-1880	-12	-4	-6	-15664	-632	-3920	-4	-23	17	-12332	4520	10204	127	-46	-136	-16400	-2516	-996	145	-49	162	-16072	1516	-2356	139	-62	73	125	127	8
-11764	-1996	10692	-7	13	-25	-15576	-3880	-1944	-6	-5	-2	-15696	-640	-3888	-3	-31	10	-12312	4560	10196	125	-57	-79	-16408	-2496	-940	59	-64	173	-16128	1528	-2304	155	-67	63	124	127	8
-11916	-1972	10676	-8	16	-23	-15624	-3792	-2080	-19	-4	-1	-15680	-640	-3904	-15	-27	13	-12264	4636	10244	98	-46	-96	-16424	-2500	-1052	123	-21	155	-16084	1512	-2304	191	-63	52	125	127	8
-11652	-2172	10592	-6	9	-24	-15472	-3888	-1768	-16	-4	-7	-15720	-680	-4096	-14	-24	13	-12272	4424	10332	68	-22	-151	-16376	-2384	-960	119	-43	155	-16132	1448	-2188	181	-88	43	126	127	8
-11712	-2028	10808	-11	14	-24	-15496	-3904	-1880	-1	-4	-1	-15664	-696	-3888	-13	-12	13	-12260	4592	10244	72	-51	-140	-16448	-2460	-996	158	46	148	-16100	1524	-2388	203	-43	77	127	127	8
-11760	-1972	10720	-12	13	-22	-15640	-3792	-1720	-2	-7	-6	-15800	-656	-4200	-2	-7	14	-12200	4600	10080	100	-33	-144	-16424	-2408	-984	140	40	116	-16068	1520	-2260	142	38	60	126	127	8
-11720	-2060	10736	-10	21	-23	-15512	-3872	-2000	-2	-7	-5	-15688	-824	-4096	2	-12	17	-12284	4616	10192	74	-93	-134	-16452	-2492	-1008	98	61	163	-16036	1472	-2420	42	64	28	125	127	8
-11764	-2080	10632	-14	18	-20	-15480	-3832	-1656	-1	-3	-4	-15800	-784	-3912	6	-22	15	-12264	4612	10288	104	-29	-135	-16348	-2488	-1060	-33	24	160	-16060	1416	-2404	-10	3	17	124	127	8
-11732	-2008	10672	-13	15	-25	-15560	-3784	-1944	0	1	-10	-15760	-712	-3992	4	-21	15	-12284	4552	10380	98	-54	-121	-16384	-2512	-1064	-10	-12	154	-16144	1408	-2316	-14	9	1	124	127	8
-11752	-2108	10680	-14	12	-25	-15496	-3872	-2048	-7	2	-1	-15848	-704	-4248	5	-17	16	-12288	4596	10276	96	1	-133	-16436	-2444	-1124	-51	52	168	-16128	1436	-2488	34	47	0	125	127	8
-11712	-1972	10756	-11	14	-22	-15584	-3832	-2168	-2	-3	-2	-15592	-568	-4152	3	-15	25	-12256	4500	10372	107	-18	-110	-16376	-2484	-1076	3	28	213	-16072	1424	-2472	51	10	37	126	127	8
-11728	-2040	10764	-11	14	-26	-15584	-3824	-2224	-3	-6	-2	-15600	-720	-3920	-7	-17	25	-12272	4492	10340	126	-5	-141	-16468	-2488	-1148	102	45	222	-15972	1452	-2596	117	49	81	127	127	8
-11732	-2048	10696	-12	16	-22	-15656	-3872	-1944	-6	-12	0	-15584	-480	-4288	4	-21	20	-12320	4556	10388	119	28	-97	-16496	-2456	-1152	81	-23	224	-16032	1420	-2608	189	-18	86	127	127	8
-11772	-2068	10712	-8	16	-25	-15440	-3856	-2032	-10	-14	1	-15784	-584	-4000	-3	-28	16	-12288	4568	10208	140	-7	-122	-16372	-2448	-1232	129	-35	199	-15992	1388	-2496	203	-40	76	126	127	8
-11700	-2020	10596	-14	18	-17	-15568	-3832	-2024	-6	-14	0	-15816	-688	-4016	0	-30	22	-12284	4628	10208	144	-29	-132	-16452	-2408	-1064	115	-57	218	-16008	1452	-2416	238	-104	117	125	127	8
-11736	-2020	10716	-11	13	-22	-15560	-3728	-1944	-3	-12	1	-15720	-520	-3976	-10	-29	23	-12296	4536	10320	148	-20	-124	-16420	-2376	-1012	165	-51	241	-16068	1488	-2468	324	-125	125	126	127	8
-11712	-2056	10696	-10	14	-22	-15488	-3824	-1952	-1	-8	0	-15744	-464	-4144	-10	-23	24	-12332	4556	10380	145	-4	-116	-16460	-2336	-1080	114	-73	195	-16080	1560	-2204	277	-115	128	127	127	8
-11728	-2016	10720	-10	14	-24	-15464	-3792	-2096	2	-7	0	-15736	-440	-3984	-4	-19	24	-12224	4588	10236	162	18	-86	-16396	-2416	-984	130	-61	191	-16064	1568	-2180	259	-77	123	126	127	8
-11796	-2024	10708	-12	20	-23	-15600	-3856	-1720	-1	-5	-3	-15808	-744	-4104	2	-15	20	-12272	4568	10292	131	-29	-96	-16372	-2396	-952	180	7	208	-16132	1548	-2224	252	-2	112	124	127	8
-11744	-2020	10684	-16	19	-26	-15544	-3888	-1928	4	0	-1	-15648	-760	-3968	3	-6	22	-12228	4556	10252	132	-51	-104	-16456	-2296	-1028	126	-5	174	-16080	1600	-2280	174	58	66	123	127	8
-11776	-2076	10592	-13	17	-24	-15560	-3792	-2120	5	5	-2	-15680	-680	-3904	5	-7	26	-12244	4568	10276	123	-18	-132	-16504	-2376	-1112	60	34	165	-16060	1520	-2312	130	122	40	124	127	8
-11752	-2020	10632	-11	17	-23	-15688	-3800	-2112	7	6	5	-15800	-696	-4104	7	-6	30	-12228	4592	10252	100	-21	-153	-16444	-2456	-1080	98	-9	166	-16116	1480	-2464	169	76	63	125	127	8
-11756	-2028	10712	-14	18	-22	-15608	-3648	-1864	8	5	3	-15784	-504	-3984	14	-5	31	-12276	4488	10320	142	-13	-123	-16472	-2488	-1008	114	28	133	-16040	1496	-2420	244	129	45	125	127	8
-11764	-2020	10668	-13	18	-25	-15584	-3744	-1928	9	9	-1	-15576	-600	-3888	22	-5	33	-12256	4572	10256	170	-19	-147	-16460	-2448	-1140	37	-4	216	-16100	1444	-2492	246	56	25	125	127	8
-11748	-2056	10724	-11	18	-23	-15656	-3920	-2104	10	1	1	-15488	-528	-4144	21	-8	34	-12252	4524	10292	148	-25	-109	-16424	-2448	-1120	55	-20	182	-16008	1496	-2432	285	46	68	126	127	8
-11780	-2036	10664	-13	17	-23	-15496	-3840	-1848	9	-1	-4	-15688	-424	-4216	30	-9	33	-12296	4552	10216	176	9	-129	-16476	-2456	-988	149	-23	185	-16036	1464	-2552	291	-7	71	126	127	8
-11756	-1996	10656	-11	17	-27	-15688	-3688	-1952	16	1	-1	-15624	-576	-4200	27	-15	26	-12256	4580	10224	142	-24	-105	-16416	-2420	-1140	161	-42	189	-16044	1488	-2440	333	-65	116	126	127	8
-11788	-2044	10724	-11	16	-23	-15688	-3816	-2080	10	-1	-5	-15704	-432	-4080	13	-13	25	-12236	4572	10176	159	-66	-122	-16444	-2440	-1124	194	-32	174	-16064	1512	-2456	354	-54	102	126	127	8
-11724	-2068	10708	-12	17	-19	-15432	-3808	-1904	-1	0	-6	-15744	-704	-4112	12	-13	22	-12300	4580	10268	156	-26	-111	-16416	-2408	-968	114	-44	180	-16032	1492	-2436	326	-31	92	126	127	8
-11728	-2092	10628	-9	13	-19	-15608	-3784	-1872	-1	-1	-6	-15784	-632	-3920	7	-5	28	-12336	4568	10088	158	-17	-116	-16384	-2440	-972	53	-23	187	-16044	1504	-2328	277	-12	81	126	127	8
-11716	-2084	10692	-16	18	-19	-15512	-3736	-2048	3	-4	-5	-15864	-744	-4224	3	-3	28	-12300	4568	10428	166	-24	-116	-16440	-2384	-1036	63	-12	167	-16060	1616	-2428	248	25	111	126	127	8
-11708	-1968	10704	-11	19	-20	-15584	-3808	-2176	0	-1	-4	-15712	-664	-4080	13	-5	28	-12316	4496	10212	159	13	-141	-16400	-2400	-944	14	-8	175	-16016	1584	-2224	164	77	66	126	127	8
-11756	-2016	10684	-15	16	-23	-15680	-3920	-2040	12	2	0	-15640	-576	-3888	12	-6	26	-12264	4540	10288	133	-27	-105	-16456	-2508	-1088	70	5	180	-16036	1620	-2236	106	83	18	126	127	8
-11744	-2048	10756	-5	14	-22	-15416	-3736	-1984	6	5	3	-15688	-688	-3872	13	-13	27	-12252	4504	10276	134	12	-130	-16424	-2376	-1020	34	76	161	-16052	1484	-2276	84	95	34	126	127	8
-11724	-1960	10720	-10	16	-26	-15632	-3728	-1872	3	1	4	-15696	-648	-3864	14	-12	30	-12252	4540	10252	136	7	-141	-16404	-2412	-1052	-38	39	200	-16084	1504	-2304	135	99	50	127	127	8
-11724	-2036	10736	-10	22	-25	-15664	-3656	-2032	5	3	-3	-15632	-544	-4184	1	-2	25	-12228	4592	10280	134	-3	-128	-16416	-2476	-992	-91	49	197	-16016	1560	-2376	96	107	17	126	127	8
-11728	-1988	10636	-12	15	-20	-15536	-3656	-2024	-5	-2	-2	-15648	-536	-4368	0	-5	24	-12308	4540	10212	140	9	-129	-16444	-2428	-1176	-80	46	162	-16044	1532	-2484	119	114	11	126	127	8
-11680	-2048	10692	-13	17	-24	-15496	-3856	-2000	-8	-7	-3	-15696	-504	-4024	4	-15	25	-12268	4548	10200	134	19	-128	-16472	-2428	-1112	-10	-22	152	-16040	1504	-2556	154	95	14	126	127	8
-11740	-2056	10788	-12	20	-23	-15672	-3760	-2152	-5	-4	-1	-15720	-488	-3920	5	-19	17	-12280	4492	10252	160	7	-156	-16376	-2380	-1140	53	15	212	-16100	1464	-2604	163	50	-10	125	127	8
-11740	-2024	10628	-10	19	-25	-15688	-3784	-1944	-3	3	-3	-15760	-624	-4008	0	-21	13	-12308	4572	10364	153	-9	-135	-16524	-2364	-1168	2	-28	187	-16088	1484	-2524	186	53	89	125	127	8
-11736	-2028	10656	-13	16	-27	-15672	-3880	-2040	-2	1	-7	-15656	-616	-3960	-4	-12	16	-12300	4564	10212	128	11	-120	-16436	-2348	-1120	-13	-51	183	-16072	1504	-2388	252	-23	59	125	127	8
-11724	-2020	10716	-8	17	-25	-15544	-3744	-2096	1	-2	-4	-15624	-632	-3944	-10	-5	19	-12320	4592	10280	127	-8	-120	-16424	-2392	-1068	72	-4	153	-16064	1544	-2404	317	-14	41	126	127	8
-11748	-2012	10640	-13	17	-25	-15616	-3840	-2024	0	-4	-7	-15816	-624	-4016	2	-7	24	-12276	4528	10252	162	-3	-123	-16468	-2416	-1068	155	18	187	-16048	1536	-2384	356	4	41	124	127	8
-11752	-2000	10724	-11	18	-24	-15608	-3696	-2176	-1	3	-5	-15696	-728	-3848	7	-7	22	-12308	4560	10208	177	-3	-134	-16444	-2364	-984	166	-29	131	-16084	1540	-2328	393	45	79	125	127	8
-11772	-2024	10680	-10	18	-23	-15576	-3728	-2056	6	1	-1	-15776	-576	-4224	14	-14	20	-12328	4596	10308	166	8	-124	-16428	-2428	-1176	98	-19	207	-15980	1504	-2420	387	6	47	125	127	8
-11720	-2060	10636	-10	16	-21	-15608	-3728	-1872	4	8	-1	-15704	-600	-3840	17	-18	26	-12300	4560	10316	144	25	-118	-16472	-2440	-1112	170	-58	196	-16108	1452	-2384	393	36	53	124	127	8
-11776	-2060	10664	-14	17	-24	-15704	-3848	-2064	1	5	0	-15856	-568	-3912	16	-12	25	-12264	4540	10296	126	-3	-116	-16412	-2400	-1132	131	-22	174	-16088	1548	-2456	419	54	45	126	128	8
-11740	-2008	10736	-13	18	-24	-15624	-3720	-2080	7	4	-3	-15600	-568	-4064	17	-12	30	-12256	4600	10208	155	-7	-119	-16448	-2440	-1048	100	-43	168	-16044	1548	-2440	360	6	58	126	127	8
-11776	-1972	10684	-9	18	-26	-15656	-3832	-2128	16	4	-5	-15680	-464	-4152	17	-10	26	-12288	4524	10260	172	-27	-108	-16408	-2340	-1148	103	-6	170	-16000	1528	-2584	350	-29	53	126	128	8
-11728	-2072	10768	-10	15	-26	-15576	-3632	-1768	-1	4	-5	-15688	-544	-3976	17	-8	21	-12336	4604	10240	110	20	-118	-16548	-2324	-1020	126	-39	161	-16056	1564	-2320	263	7	63	125	128	8
-11824	-2040	10624	-8	17	-23	-15584	-3800	-2040	-7	2	-5	-15624	-568	-4304	12	-12	17	-12292	4592	10220	140	7	-139	-16380	-2376	-1156	154	-6	175	-16056	1540	-2532	277	32	77	125	127	8
-11692	-2044	10620	-12	13	-22	-15616	-3784	-1920	-5	4	-8	-15656	-600	-4184	13	-15	17	-12296	4588	10260	91	-18	-123	-16396	-2400	-988	131	-26	144	-15988	1564	-2412	231	-5	39	125	127	8
-11720	-2052	10640	-14	16	-27	-15560	-3808	-1992	0	0	-5	-15760	-480	-4120	3	-15	16	-12256	4544	10244	122	-34	-142	-16416	-2436	-1056	87	4	175	-16048	1596	-2496	252	-20	25	125	127	8
-11728	-2040	10724	-13	12	-24	-15608	-3664	-1864	0	1	-5	-15704	-512	-4208	3	-15	16	-12316	4548	10268	113	-45	-118	-16408	-2424	-1156	72	-41	151	-16076	1504	-2436	150	27	20	125	128	8
-11732	-2040	10676	-8	20	-26	-15432	-3696	-2096	-4	-3	-6	-15768	-584	-3992	7	-18	16	-12272	4612	10264	127	-46	-70	-16380	-2424	-1084	3	-8	162	-16044	1504	-2432	144	46	47	126	128	8
-11728	-1972	10736	-11	13	-21	-15392	-3688	-1944	-5	-3	-6	-15776	-512	-4064	7	-20	17	-12324	4548	10156	111	-45	-112	-16472	-2412	-1152	36	5	146	-16056	1500	-2472	154	53	11	126	127	8
-11808	-2032	10760	-11	10	-21	-15464	-3792	-1880	-24	0	-4	-15784	-568	-3880	9	-26	14	-12304	4556	10184	143	0	-120	-16456	-2400	-1140	113	20	159	-16032	1532	-2332	167	22	33	125	127	8
-11696	-2020	10712	-9	21	-22	-15728	-3760	-2032	-9	-1	1	-15696	-616	-3912	4	-24	19	-12348	4612	10356	121	-20	-106	-16512	-2396	-1140	25	-18	187	-16064	1528	-2500	202	52	60	125	128	8
-11784	-1972	10744	-13	13	-24	-15584	-3744	-2040	-5	-2	-1	-15696	-576	-4032	-6	-19	16	-12312	4548	10184	123	-52	-127	-16432	-2380	-1204	86	-40	131	-16048	1488	-2596	161	32	42	125	128	8
-11728	-2004	10672	-9	14	-22	-15760	-3816	-2528	2	5	-3	-15664	-584	-4064	0	-9	17	-12268	4564	10248	116	-44	-112	-16404	-2416	-1092	115	-49	147	-16044	1560	-2532	137	16	34	126	127	8
-11816	-2028	10672	-11	19	-21	-15648	-3688	-2096	3	-2	-3	-15832	-528	-4376	3	-15	23	-12228	4572	10308	124	-5	-118	-16452	-2344	-1100	120	-70	153	-16112	1464	-2504	211	-9	-1	126	128	8
-11740	-2044	10708	-12	19	-25	-15536	-3760	-2024	-2	-3	-9	-15688	-640	-4056	11	-18	18	-12280	4552	10156	110	-33	-134	-16408	-2392	-1120	114	-39	154	-16068	1536	-2416	224	-13	49	125	127	8
-11720	-2068	10672	-10	14	-24	-15464	-3864	-2176	-4	-3	-8	-15744	-696	-4168	11	-20	21	-12276	4556	10264	122	-55	-105	-16400	-2436	-1116	43	-94	121	-15996	1460	-2528	207	-11	24	125	128	8
-11676	-1980	10628	-11	15	-25	-15584	-3648	-1720	2	-5	-5	-15608	-720	-4120	12	-28	19	-12284	4492	10232	134	22	-126	-16488	-2416	-1160	117	-62	141	-16028	1440	-2460	253	-30	31	125	127	8
-11752	-2000	10692	-11	13	-25	-15704	-3728	-2112	-10	0	-4	-15824	-456	-4080	9	-24	18	-12296	4592	10292	138	26	-116	-16468	-2320	-1208	172	-38	146	-16032	1484	-2528	281	11	61	126	128	8
-11752	-2012	10856	-12	16	-23	-15664	-3752	-2032	1	-5	-6	-15704	-664	-4040	13	-25	12	-12280	4656	10280	122	-31	-122	-16440	-2368	-1048	117	-40	123	-16080	1588	-2448	277	-57	72	127	128	8
-11768	-2104	10704	-15	14	-23	-15656	-3688	-2128	3	-2	-6	-15840	-496	-4128	10	-17	21	-12308	4584	10224	144	-77	-86	-16488	-2428	-1000	149	-44	143	-16040	1484	-2432	298	-51	66	126	127	8
-11780	-2036	10680	-7	14	-24	-15536	-3800	-2072	0	2	-11	-15696	-704	-3960	15	-13	23	-12336	4580	10240	130	-80	-151	-16416	-2376	-1164	160	-70	154	-16032	1488	-2440	309	-39	17	125	128	8
-11808	-2036	10664	-13	19	-23	-15712	-3800	-2032	-7	-2	-7	-15656	-720	-3976	15	-10	22	-12296	4600	10248	151	-26	-120	-16412	-2336	-1052	74	-70	146	-16092	1512	-2400	250	-63	7	125	127	8
-11728	-2004	10784	-14	18	-24	-15584	-3912	-1792	5	2	-5	-15712	-608	-3888	16	-16	22	-12260	4636	10292	135	-26	-142	-16480	-2328	-1064	71	-67	97	-16048	1548	-2300	246	-13	43	125	127	8
-11732	-2032	10764	-10	17	-24	-15632	-3864	-1776	16	4	-5	-15792	-576	-4112	13	-14	21	-12256	4556	10160	118	-17	-171	-16392	-2396	-1056	108	-15	154	-16040	1560	-2436	215	9	43	126	127	8
-11772	-1992	10588	-11	18	-21	-15520	-3680	-2168	9	2	-5	-15688	-584	-4192	8	-20	18	-12324	4584	10220	109	-7	-106	-16504	-2324	-1072	103	-43	134	-16100	1444	-2456	213	32	26	125	127	8
-11748	-2044	10708	-12	18	-19	-15648	-3736	-1952	-4	-3	-7	-15696	-640	-4208	5	-14	17	-12248	4596	10312	152	-34	-155	-16384	-2424	-1140	91	-47	137	-16068	1464	-2376	221	45	17	126	127	8
-11788	-2004	10724	-11	17	-25	-15648	-3584	-1984	-8	-2	-11	-15832	-568	-4168	8	-16	22	-12264	4568	10216	131	19	-140	-16440	-2484	-1056	135	-11	130	-16072	1500	-2444	222	48	41	127	128	8
-11712	-2012	10632	-11	17	-19	-15520	-3760	-2272	-8	-4	-4	-15648	-536	-4312	4	-18	19	-12328	4580	10356	142	-29	-120	-16436	-2348	-1136	22	-34	146	-16024	1452	-2488	137	9	46	126	127	8
-11772	-2076	10688	-6	18	-26	-15536	-3824	-2104	6	-4	-8	-15656	-512	-3928	-3	-22	14	-12288	4600	10232	138	11	-141	-16432	-2444	-1088	15	-55	131	-16044	1540	-2468	140	19	32	126	127	8
-11708	-2020	10616	-8	14	-29	-15464	-3696	-2072	-4	-7	-1	-15656	-576	-4256	2	-20	15	-12320	4500	10272	161	-6	-87	-16436	-2344	-1108	-22	-31	147	-16052	1460	-2388	103	25	36	125	127	8
-11720	-2020	10668	-15	17	-26	-15552	-3744	-2128	-7	-8	-6	-15720	-648	-4056	0	-17	10	-12276	4596	10164	124	18	-194	-16400	-2416	-1016	25	-26	114	-16136	1460	-2520	173	13	8	125	127	8
-11772	-1988	10784	-9	17	-28	-15632	-3880	-2168	0	-8	-7	-15600	-688	-4352	-6	-12	16	-12304	4608	10284	133	-18	-130	-16420	-2432	-1084	126	37	153	-16088	1508	-2532	201	-25	44	126	127	8
-11756	-2000	10656	-14	15	-24	-15552	-3864	-2000	-2	-7	-7	-15656	-592	-4032	-4	-15	17	-12328	4656	10160	119	13	-136	-16352	-2384	-1116	61	-33	166	-16016	1428	-2448	207	-9	37	127	127	8
-11744	-2028	10628	-12	20	-26	-15568	-3792	-2208	-4	-10	-8	-15776	-560	-4056	2	-20	16	-12324	4596	10292	138	-3	-127	-16440	-2392	-1104	77	-69	134	-16084	1448	-2348	170	-37	18	126	127	8
-11656	-2032	10712	-13	13	-22	-15480	-3776	-1984	-9	-5	-6	-15736	-680	-4176	5	-21	18	-12312	4528	10228	137	-11	-118	-16380	-2492	-1048	90	13	161	-16088	1436	-2316	218	3	43	125	127	8
-11708	-1972	10608	-13	14	-22	-15712	-3888	-1912	-2	-7	-6	-15680	-672	-4096	6	-23	20	-12300	4524	10276	147	-12	-135	-16492	-2428	-1084	75	-37	189	-16088	1420	-2448	229	-35	89	125	127	8
-11724	-2072	10756	-7	17	-22	-15624	-3808	-2096	6	-2	-3	-15792	-600	-4208	11	-18	17	-12236	4664	10352	144	13	-104	-16456	-2380	-1132	101	-30	179	-16136	1480	-2472	286	-45	36	126	127	8
-11772	-1996	10580	-7	16	-25	-15520	-3848	-2024	5	-3	-4	-15808	-576	-4128	9	-12	23	-12312	4624	10148	133	-31	-109	-16488	-2400	-1112	99	-66	139	-16048	1544	-2476	307	-29	47	127	127	8
-11748	-2036	10680	-10	20	-19	-15576	-3728	-2024	6	-4	-3	-15768	-560	-4088	12	-15	27	-12296	4628	10188	134	-2	-138	-16472	-2360	-1200	125	-47	166	-16052	1532	-2572	322	-41	69	126	127	8
-11756	-2004	10664	-12	19	-24	-15600	-3752	-2056	3	-5	-5	-15776	-760	-4072	21	-15	25	-12292	4588	10216	141	-31	-113	-16440	-2348	-1064	125	-51	144	-16044	1460	-2452	311	-72	86	126	127	8
-11808	-2040	10688	-14	15	-25	-15512	-3776	-2032	4	-4	-3	-15752	-560	-3992	16	-18	22	-12344	4556	10192	179	-33	-114	-16348	-2400	-1104	135	-45	172	-16044	1492	-2416	337	-62	82	125	127	8
-11804	-1992	10724	-10	15	-21	-15616	-3728	-1968	11	-2	-7	-15760	-592	-4168	17	-20	23	-12300	4596	10208	160	-17	-125	-16512	-2364	-1180	153	-44	145	-16088	1540	-2408	342	-31	64	126	127	8
-11692	-2048	10720	-11	17	-26	-15584	-3800	-2112	4	-1	-5	-15696	-480	-4216	15	-19	23	-12296	4572	10280	149	-47	-112	-16432	-2356	-1112	174	-32	149	-16048	1520	-2452	331	-46	60	126	127	8
-11720	-2012	10656	-10	17	-25	-15496	-3664	-2000	3	-2	-4	-15832	-488	-4128	12	-16	20	-12324	4576	10248	127	52	-136	-16500	-2320	-1140	101	-27	138	-16072	1552	-2472	313	-33	59	126	127	8
-11748	-1976	10724	-11	14	-24	-15656	-3808	-1800	-2	-1	-2	-15704	-560	-4288	12	-15	21	-12292	4580	10184	111	-49	-114	-16348	-2328	-1016	140	-67	140	-16056	1488	-2260	268	-29	28	126	128	8
-11748	-2072	10692	-8	13	-22	-15672	-3704	-2232	-5	-3	-9	-15656	-608	-4232	8	-15	22	-12340	4596	10176	155	-18	-85	-16444	-2360	-960	113	-34	116	-16044	1532	-2384	208	-49	54	125	127	8
-11752	-1996	10676	-11	16	-23	-15656	-3824	-2000	0	-7	-8	-15848	-520	-4224	8	-15	22	-12284	4556	10260	152	22	-139	-16500	-2364	-908	63	-45	126	-16056	1540	-2308	241	-3	40	125	127	8
-11760	-1976	10792	-13	16	-24	-15656	-3808	-2152	2	-7	-6	-15720	-624	-4248	1	-17	20	-12352	4636	10252	136	-13	-128	-16408	-2376	-1088	84	-38	141	-16068	1564	-2348	205	8	32	125	127	8
-11752	-2064	10716	-11	13	-21	-15560	-3688	-1904	6	-8	-7	-15584	-424	-3992	4	-17	16	-12304	4596	10204	92	5	-124	-16428	-2352	-968	94	-52	122	-16080	1552	-2384	173	17	55	126	128	8
-11744	-1972	10624	-12	16	-23	-15624	-3704	-1872	0	-3	-10	-15776	-648	-4104	0	-18	19	-12324	4564	10216	135	6	-138	-16396	-2372	-1224	69	-30	164	-16088	1468	-2520	150	-30	13	126	127	8
-11704	-2036	10724	-16	19	-21	-15640	-3744	-2072	-4	-5	-9	-15560	-504	-3832	-2	-18	15	-12332	4604	10328	102	-32	-136	-16472	-2420	-1036	98	-19	91	-16040	1484	-2452	129	22	24	125	127	8
-11712	-2008	10744	-13	16	-27	-15720	-3720	-2016	-2	-5	-7	-15664	-576	-4176	-1	-15	19	-12348	4572	10284	155	-18	-175	-16444	-2348	-1088	51	-28	122	-16108	1520	-2400	154	0	43	125	128	8
-11712	-2036	10688	-13	17	-24	-15520	-3696	-1952	-1	-6	-7	-15904	-584	-3928	2	-19	16	-12312	4568	10228	124	-47	-153	-16408	-2384	-1064	42	-58	132	-16048	1540	-2440	163	6	32	125	127	8
-11700	-2060	10704	-11	19	-24	-15704	-3832	-1864	5	-3	-1	-15704	-632	-3888	1	-13	19	-12332	4560	10208	130	-29	-122	-16448	-2420	-1044	69	-51	112	-16092	1524	-2392	148	14	23	125	127	8
-11684	-2020	10656	-14	18	-24	-15560	-3720	-2024	-3	-7	-7	-15680	-496	-4128	-2	-10	18	-12324	4568	10280	137	-38	-124	-16484	-2368	-1024	37	-94	125	-16052	1484	-2344	145	39	50	125	127	8
-11788	-1996	10668	-9	14	-20	-15528	-3744	-2152	-3	0	-10	-15664	-504	-4184	-5	-14	14	-12272	4580	10196	100	-26	-144	-16388	-2388	-992	65	-60	119	-16068	1516	-2452	199	30	9	126	127	8
-11744	-2024	10624	-11	15	-22	-15480	-3856	-1888	2	-3	-8	-15768	-440	-3896	2	-18	12	-12292	4612	10232	106	-47	-142	-16424	-2396	-1052	117	-35	126	-16068	1468	-2464	176	2	44	126	127	8
-11772	-2032	10656	-15	13	-24	-15600	-3936	-2064	6	-4	-8	-15816	-760	-4040	2	-20	18	-12340	4584	10240	112	-49	-142	-16412	-2328	-1088	91	-18	95	-16064	1580	-2428	186	-7	58	126	127	8
-11764	-2048	10688	-16	15	-22	-15584	-3944	-2144	8	3	-5	-15696	-512	-4080	0	-14	17	-12292	4584	10284	117	-43	-139	-16472	-2400	-1100	51	-48	126	-16116	1492	-2368	103	-32	3	125	128	8
-11756	-2060	10728	-14	17	-25	-15656	-3776	-2104	2	-4	-9	-15704	-720	-4016	9	-3	18	-12264	4548	10248	125	-31	-118	-16472	-2476	-1020	5	-48	136	-16068	1468	-2352	114	15	16	125	128	8
-11796	-2028	10716	-11	17	-27	-15560	-3784	-1832	2	-5	-4	-15704	-720	-4392	8	-2	20	-12252	4560	10360	144	-40	-120	-16400	-2468	-1008	53	-30	165	-16040	1496	-2412	130	35	-18	126	128	8
-11832	-2064	10644	-15	17	-23	-15488	-3736	-1872	1	-1	-8	-15808	-712	-4000	11	-10	21	-12316	4624	10204	118	-21	-132	-16404	-2360	-1060	43	-19	147	-16060	1472	-2500	100	74	55	126	127	8
-11660	-1996	10652	-11	15	-29	-15528	-3800	-2040	3	0	-3	-15752	-624	-4208	13	-10	22	-12312	4556	10260	135	-71	-123	-16424	-2364	-1132	29	-46	142	-16080	1536	-2404	88	56	49	125	127	8
-11644	-2144	10800	-10	17	-28	-15656	-3848	-2056	2	3	-1	-15768	-608	-4400	6	-10	24	-12328	4520	10292	139	-34	-132	-16436	-2472	-1052	23	0	147	-16172	1488	-2428	65	91	38	124	128	8
-11732	-2032	10680	-8	16	-25	-15624	-3744	-1880	-3	2	-2	-15784	-584	-4080	11	-7	21	-12352	4536	10296	97	-37	-135	-16416	-2368	-1024	37	-24	172	-16068	1520	-2416	120	34	15	126	128	8
