#Activity	sitting 
#ActivityID	5 
#Date 10-07-17-19
acc_rf_x	acc_rf_y	acc_rf_z	gyro_rf_x	gyro_rf_y	gyro_rf_z	acc_rs_x	acc_rs_y	acc_rs_z	gyro_rs_x	gyro_rs_y	gyro_rs_z	acc_rt_x	acc_rt_y	acc_rt_z	gyro_rt_x	gyro_rt_y	gyro_rt_z	acc_lf_x	acc_lf_y	acc_lf_z	gyro_lf_x	gyro_lf_y	gyro_lf_z	acc_ls_x	acc_ls_y	acc_ls_z	gyro_ls_x	gyro_ls_y	gyro_ls_z	acc_lt_x	acc_lt_y	acc_lt_z	gyro_lt_x	gyro_lt_y	gyro_lt_z	EMG_r	EMG_l	act
-11384	-3020	10772	-90	137	-158	-15660	1592	-5520	66	-18	150	-2708	-5328	15552	5	-128	182	-10392	1576	13184	139	-74	-133	-14756	-4000	-5388	-10	-75	-62	-1600	-628	16956	160	4	75	125	116	5
-11392	-3076	10748	-126	149	-169	-15684	1524	-5460	85	-53	135	-2696	-5312	15676	-1	-116	165	-10364	1524	13124	123	0	-134	-14708	-3996	-5512	27	-62	-91	-1524	-580	16980	152	18	46	125	116	5
-11340	-3064	10860	-109	144	-185	-15624	1560	-5412	60	-2	130	-2724	-5336	15648	9	-115	168	-10376	1524	13208	89	-30	-170	-14772	-4016	-5484	-10	-20	-103	-1584	-532	16928	156	15	59	125	117	5
-11368	-3100	10824	-122	132	-157	-15628	1508	-5288	89	-8	124	-2724	-5268	15788	48	-142	171	-10352	1572	13100	100	-65	-132	-14736	-3916	-5368	-11	-23	-58	-1612	-648	16924	159	-18	81	125	117	5
-11348	-3048	10800	-112	126	-130	-15616	1564	-5408	79	33	128	-2712	-5296	15620	-14	-139	162	-10360	1524	13164	79	-24	-175	-14688	-3976	-5476	-61	-23	-85	-1680	-628	17044	137	-48	38	125	117	5
-11348	-3128	10804	-106	130	-154	-15584	1512	-5424	68	-34	138	-2724	-5344	15572	55	-169	203	-10416	1540	13124	95	40	-195	-14724	-3972	-5500	-10	-31	-69	-1636	-568	16936	162	5	41	125	116	5
-11348	-3124	10756	-91	131	-200	-15672	1544	-5340	77	9	154	-2780	-5324	15692	36	-138	187	-10424	1544	13164	101	-15	-160	-14704	-4032	-5428	-39	3	-109	-1620	-596	17024	190	-2	14	125	117	5
-11356	-3076	10868	-65	172	-147	-15608	1596	-5508	83	13	108	-2832	-5328	15596	38	-106	189	-10392	1536	13072	103	11	-147	-14760	-4036	-5564	31	-9	-90	-1644	-572	17028	180	-19	57	125	116	5
-11316	-3120	10784	-131	144	-184	-15648	1536	-5548	49	-6	100	-2804	-5328	15500	-5	-111	155	-10364	1528	13148	109	22	-190	-14720	-4044	-5576	-11	-54	-42	-1688	-548	16948	169	-13	36	125	117	5
-11356	-3080	10812	-121	138	-183	-15664	1540	-5404	42	-58	135	-2812	-5356	15520	-7	-141	188	-10420	1508	13088	115	-26	-123	-14724	-3948	-5452	-28	-53	-62	-1688	-516	17048	215	9	66	125	117	5
-11440	-3016	10876	-124	137	-139	-15620	1520	-5464	88	-34	139	-2696	-5372	15556	17	-99	170	-10460	1536	13092	122	-49	-155	-14776	-3964	-5444	-13	-82	-69	-1640	-516	17032	180	27	65	125	117	5
-11340	-3040	10844	-147	157	-165	-15624	1524	-5496	84	-60	126	-2700	-5384	15668	78	-104	152	-10412	1460	13100	89	-14	-123	-14728	-3932	-5444	-34	-86	-46	-1604	-572	17088	169	15	56	125	116	5
-11372	-3104	10720	-91	128	-169	-15672	1468	-5432	104	-41	135	-2724	-5352	15692	61	-97	153	-10396	1612	13196	105	8	-153	-14728	-3980	-5428	21	-88	-76	-1588	-532	16996	130	-19	58	125	116	5
-11336	-3064	10824	-75	108	-149	-15640	1508	-5456	33	-73	142	-2760	-5308	15548	44	-112	181	-10368	1592	13128	105	-50	-139	-14720	-3936	-5440	15	-83	-106	-1564	-580	16928	132	-32	77	125	116	5
-11316	-3124	10832	-118	123	-152	-15744	1592	-5416	21	-10	140	-2652	-5300	15556	27	-118	130	-10416	1572	13152	120	-38	-152	-14732	-4072	-5456	10	-57	-96	-1600	-544	16932	191	0	63	125	116	5
-11364	-3088	10836	-98	155	-131	-15736	1552	-5360	34	-5	132	-2628	-5300	15636	8	-126	127	-10384	1568	13076	78	-23	-151	-14684	-3980	-5344	5	-66	-101	-1596	-556	16968	194	4	66	125	117	5
-11312	-3076	10892	-108	148	-158	-15624	1528	-5500	51	-10	118	-2664	-5328	15632	38	-122	148	-10360	1540	13056	98	-4	-177	-14692	-3984	-5448	27	-63	-61	-1548	-560	17012	179	-17	66	125	116	5
-11392	-3056	10904	-98	132	-184	-15720	1524	-5324	27	18	138	-2684	-5332	15612	48	-115	170	-10412	1548	13136	95	-3	-171	-14772	-3936	-5404	5	-47	-124	-1612	-588	16980	166	-15	48	125	116	5
-11380	-3060	10884	-106	162	-161	-15684	1464	-5504	43	40	151	-2752	-5336	15668	14	-103	163	-10404	1524	13192	90	-6	-189	-14752	-3948	-5524	15	16	-122	-1656	-576	16912	114	22	16	125	116	5
-11368	-3120	10780	-118	149	-149	-15632	1568	-5408	98	48	111	-2760	-5380	15612	-4	-122	222	-10312	1496	13140	96	0	-165	-14720	-4032	-5420	9	-38	-75	-1700	-644	16992	115	11	58	125	116	5
-11336	-3088	10740	-106	144	-149	-15620	1544	-5496	73	19	138	-2844	-5384	15640	15	-127	202	-10428	1536	13160	97	-68	-157	-14728	-4012	-5528	47	-52	-82	-1656	-668	16984	105	-18	47	125	117	5
-11344	-3088	10836	-105	119	-117	-15636	1512	-5508	51	-28	131	-2832	-5384	15544	23	-128	176	-10436	1560	13232	100	0	-140	-14728	-4068	-5388	56	-31	-35	-1732	-708	17096	179	-3	101	125	116	5
-11344	-3040	10756	-69	136	-176	-15648	1488	-5456	32	-85	136	-2856	-5416	15644	81	-184	150	-10372	1508	13136	111	-5	-136	-14692	-4000	-5492	57	-59	-35	-1716	-628	17040	235	-82	79	125	116	5
-11396	-3108	10788	-131	92	-169	-15632	1576	-5444	-10	-33	148	-2872	-5368	15644	74	-138	180	-10400	1548	13116	120	10	-131	-14728	-4036	-5376	-10	-98	-36	-1660	-632	16988	267	-36	78	125	117	5
-11436	-3104	10816	-122	152	-185	-15652	1524	-5488	18	-111	136	-2884	-5376	15588	84	-101	170	-10400	1580	13116	124	-45	-120	-14772	-3988	-5476	-39	-90	-36	-1604	-604	16972	266	-57	39	125	117	5
-11328	-3068	10872	-118	103	-172	-15612	1540	-5436	13	-99	142	-2864	-5344	15644	97	-124	181	-10396	1576	13136	156	14	-148	-14808	-3948	-5460	-35	-114	-14	-1656	-548	16932	280	-27	58	125	116	5
-11400	-3056	10856	-101	115	-162	-15636	1564	-5492	41	-108	163	-2772	-5324	15656	35	-157	149	-10368	1504	13184	146	-33	-155	-14720	-4004	-5504	-61	-91	-16	-1532	-436	16936	269	-51	40	125	116	5
-11332	-3068	10844	-93	101	-139	-15660	1592	-5388	68	-143	117	-2672	-5292	15812	46	-133	151	-10380	1508	13112	153	-19	-134	-14764	-3780	-5316	-10	-86	-20	-1520	-460	16840	274	-35	30	125	117	5
-11416	-3136	10904	-141	111	-201	-15692	1604	-5284	75	-81	105	-2624	-5240	15616	19	-157	154	-10432	1568	13116	119	31	-139	-14744	-3848	-5392	3	-63	-54	-1376	-388	17048	232	-4	44	125	117	5
-11312	-3128	10820	-120	125	-171	-15672	1544	-5320	61	-34	106	-2488	-5256	15668	8	-138	179	-10420	1524	13196	83	-20	-164	-14704	-3868	-5400	-42	-38	-140	-1360	-448	16900	222	-30	51	125	116	5
-11348	-3100	10796	-148	206	-188	-15712	1584	-5132	26	-11	140	-2572	-5296	15696	-92	-142	217	-10444	1588	13132	78	-59	-166	-14708	-3796	-5372	-40	22	-151	-1376	-344	17012	121	-13	53	125	116	5
-11352	-3072	10824	-134	155	-172	-15628	1604	-5320	65	118	136	-2516	-5332	15584	-96	-181	211	-10432	1524	13084	53	-15	-197	-14740	-3896	-5372	16	72	-201	-1408	-352	16896	30	33	73	125	117	5
-11360	-3060	10828	-109	199	-116	-15720	1564	-5304	124	184	165	-2500	-5360	15716	-56	-147	217	-10392	1576	13112	60	-70	-239	-14768	-3928	-5500	62	82	-219	-1592	-512	16976	-14	77	63	125	116	5
-11288	-3084	10796	-93	196	-165	-15692	1536	-5380	139	213	194	-2660	-5400	15552	-53	-110	229	-10348	1480	13180	26	-42	-209	-14680	-4028	-5432	87	56	-223	-1760	-516	16968	-11	38	58	125	116	5
-11348	-3088	10828	-82	174	-101	-15688	1496	-5480	133	185	206	-2896	-5456	15588	-6	-81	192	-10372	1548	13128	38	-62	-189	-14708	-4052	-5560	162	31	-194	-1888	-588	16936	31	37	59	125	116	5
-11368	-3052	10812	-63	165	-114	-15668	1504	-5552	127	191	218	-3100	-5416	15560	26	-45	164	-10452	1496	13176	35	-69	-202	-14660	-4072	-5696	94	14	-204	-2048	-604	16988	-11	17	67	125	116	5
-11356	-3056	10824	-91	171	-157	-15604	1464	-5688	82	69	200	-3172	-5404	15548	18	-49	141	-10400	1484	13168	111	-55	-188	-14648	-4096	-5756	49	-91	-155	-2012	-760	17012	-14	3	104	125	116	5
-11336	-3036	10680	-87	139	-150	-15644	1544	-5760	41	-103	176	-3248	-5424	15544	27	-90	139	-10344	1508	13108	103	-47	-160	-14596	-4204	-5588	43	-195	-86	-2008	-844	16920	87	-17	154	125	117	5
-11400	-3056	10828	-86	83	-174	-15668	1536	-5732	-17	-196	128	-3168	-5412	15672	76	-100	132	-10328	1512	13152	114	-21	-122	-14616	-4192	-5488	57	-200	-50	-1784	-852	17016	185	-55	183	125	116	5
-11328	-3040	10884	-147	93	-178	-15664	1576	-5500	-23	-235	95	-2816	-5456	15576	101	-133	152	-10384	1584	13088	151	-4	-91	-14720	-4084	-5416	-18	-203	9	-1660	-924	16980	279	-28	159	125	116	5
-11300	-3044	10752	-112	79	-174	-15676	1624	-5420	5	-235	130	-2592	-5364	15560	149	-123	168	-10372	1552	13040	173	44	-79	-14752	-4084	-5196	-53	-169	40	-1444	-768	16948	316	-41	65	125	117	5
-11328	-3116	10948	-105	100	-201	-15712	1504	-5300	42	-165	171	-2416	-5232	15700	148	-118	173	-10356	1536	13220	155	-41	-87	-14724	-3928	-5288	-81	-76	112	-1296	-632	16948	366	-54	-75	125	116	5
-11356	-3056	10820	-104	81	-178	-15616	1596	-5148	90	-69	154	-2444	-5248	15632	129	-92	213	-10424	1588	13128	158	47	-99	-14800	-3948	-5352	-92	-18	109	-1304	-564	16916	381	-55	-155	125	116	5
-11372	-3144	10852	-107	156	-179	-15656	1580	-5268	74	-41	144	-2648	-5236	15640	97	-98	179	-10452	1568	13236	123	20	-135	-14796	-3888	-5428	-97	52	8	-1488	-396	16976	326	-53	-167	125	117	5
-11388	-3060	10832	-100	180	-141	-15652	1596	-5424	64	15	120	-2704	-5256	15608	-7	-146	224	-10428	1492	13196	116	8	-180	-14700	-3868	-5452	-58	41	18	-1616	-324	17012	268	-41	-56	125	116	5
-11296	-3080	10692	-107	143	-138	-15684	1568	-5408	70	40	83	-2836	-5272	15616	-51	-150	192	-10356	1556	13068	114	-18	-153	-14748	-3860	-5556	16	29	-29	-1748	-352	16972	226	-24	34	125	117	5
-11388	-3116	10768	-103	150	-145	-15600	1572	-5512	19	-6	112	-2872	-5320	15696	-112	-156	193	-10448	1552	13072	112	-45	-153	-14744	-3884	-5608	51	-19	-111	-1728	-416	17044	207	-18	113	125	117	5
-11308	-3076	10836	-120	126	-125	-15720	1544	-5528	41	-8	71	-2852	-5368	15504	-73	-171	201	-10392	1540	13156	162	-65	-180	-14732	-3888	-5604	25	-71	-128	-1704	-376	16968	131	-13	182	125	117	5
-11316	-3056	10696	-84	140	-152	-15668	1540	-5456	81	-71	131	-2788	-5472	15608	8	-168	223	-10464	1572	13064	86	-40	-148	-14732	-3924	-5524	73	-111	-162	-1612	-412	17144	113	13	172	125	117	5
-11340	-3028	10644	-86	118	-163	-15680	1516	-5512	113	-39	142	-2660	-5356	15708	89	-128	153	-10400	1476	13044	71	-17	-144	-14804	-3916	-5532	1	-67	-140	-1564	-480	17012	66	9	173	125	117	5
-11252	-3124	10868	-112	125	-164	-15600	1492	-5400	81	-22	149	-2724	-5340	15712	109	-95	161	-10396	1524	13132	92	-23	-205	-14736	-3976	-5568	38	-73	-164	-1556	-568	17084	26	-4	62	125	117	5
-11332	-3108	10872	-96	120	-171	-15680	1560	-5292	83	1	150	-2716	-5288	15544	31	-129	144	-10352	1540	13124	78	-46	-184	-14696	-3976	-5452	-13	-45	-170	-1592	-668	16928	49	-1	60	125	117	5
-11380	-3124	10788	-108	127	-106	-15656	1616	-5384	12	55	118	-2660	-5360	15520	-1	-108	125	-10404	1560	13216	79	-59	-160	-14724	-4040	-5428	0	-2	-131	-1680	-724	17104	70	-8	20	125	116	5
-11320	-3120	10816	-129	136	-115	-15648	1584	-5428	33	30	133	-2776	-5384	15784	-7	-140	125	-10392	1508	13144	121	-79	-172	-14744	-4040	-5436	-7	-1	-91	-1640	-784	17072	146	-13	36	125	117	5
-11364	-3068	10780	-39	157	-151	-15676	1552	-5492	45	53	139	-2780	-5284	15620	13	-145	166	-10336	1560	13128	94	-49	-184	-14656	-4040	-5492	2	-28	-101	-1712	-704	17060	232	-27	23	124	116	5
-11344	-3072	10752	-86	137	-155	-15640	1544	-5388	120	37	151	-2844	-5328	15628	28	-129	176	-10404	1604	13116	121	-5	-166	-14704	-4072	-5444	-24	-19	-36	-1724	-760	17040	210	-11	43	125	116	5
-11388	-3048	10828	-86	138	-157	-15608	1572	-5512	116	-48	147	-2908	-5348	15608	17	-140	145	-10344	1424	13068	96	3	-142	-14724	-4016	-5396	-3	-21	-43	-1800	-704	16948	346	-13	2	125	116	5
-11328	-3120	10804	-105	160	-157	-15656	1536	-5572	87	-29	133	-2908	-5336	15652	30	-166	207	-10372	1524	13144	135	-2	-130	-14700	-4008	-5408	-52	-47	-16	-1760	-488	16940	270	0	21	125	116	5
-11300	-3100	10724	-106	149	-168	-15716	1536	-5444	38	-138	132	-2808	-5368	15620	5	-150	212	-10352	1564	13168	156	-2	-110	-14724	-4008	-5476	-72	-90	-10	-1672	-508	16936	209	-34	34	125	116	5
-11340	-3052	10828	-124	142	-162	-15628	1628	-5384	39	-88	110	-2760	-5336	15608	81	-103	175	-10308	1524	13108	138	0	-144	-14716	-3964	-5468	-45	-110	-29	-1588	-464	17008	142	-13	15	125	116	5
-11336	-3048	10872	-109	125	-136	-15668	1528	-5448	45	-83	121	-2728	-5372	15640	47	-129	157	-10440	1532	13172	174	-41	-140	-14740	-3908	-5420	-54	-103	-54	-1532	-488	16908	168	-46	45	125	116	5
-11352	-3100	10840	-131	134	-176	-15656	1532	-5280	40	-113	115	-2628	-5412	15548	25	-117	146	-10388	1508	13112	148	-82	-124	-14744	-3920	-5512	12	-101	-51	-1548	-532	17024	144	-21	79	125	116	5
-11332	-3112	10844	-101	122	-174	-15636	1612	-5324	45	-131	139	-2648	-5316	15688	13	-116	179	-10368	1616	13152	90	-35	-154	-14800	-3912	-5328	22	-115	-76	-1528	-532	16980	150	10	87	125	116	5
-11348	-3052	10724	-117	141	-169	-15652	1576	-5340	51	-32	138	-2644	-5320	15660	35	-82	156	-10388	1544	13076	103	-27	-194	-14704	-3932	-5396	48	-72	-53	-1476	-540	16888	165	8	118	125	116	5
-11332	-3072	10768	-103	156	-151	-15656	1528	-5352	61	-16	151	-2720	-5256	15612	-2	-94	175	-10416	1516	13284	87	-37	-175	-14704	-4004	-5360	32	-29	-105	-1500	-544	16980	121	-30	93	125	116	5
-11264	-3112	10836	-116	162	-147	-15712	1560	-5300	67	-28	120	-2712	-5364	15596	17	-99	169	-10388	1536	13112	91	-28	-172	-14740	-3944	-5452	34	-20	-116	-1584	-540	16968	101	-7	128	125	117	5
-11368	-3108	10868	-138	128	-154	-15692	1532	-5412	77	-2	123	-2664	-5312	15688	20	-143	197	-10440	1564	13084	84	-83	-208	-14676	-3956	-5356	-5	-10	-126	-1584	-540	17008	109	2	94	125	117	5
-11360	-3024	10788	-116	148	-164	-15632	1576	-5400	43	34	172	-2752	-5344	15732	-3	-152	228	-10392	1592	13024	107	-82	-177	-14764	-3928	-5528	-7	-27	-156	-1632	-576	17036	167	7	44	125	116	5
-11332	-3144	10780	-90	134	-163	-15572	1572	-5556	33	13	154	-2752	-5336	15676	9	-150	226	-10456	1528	13100	97	28	-181	-14692	-3976	-5476	0	-15	-122	-1752	-632	16912	203	14	72	125	117	5
-11364	-3072	10720	-78	127	-170	-15664	1508	-5504	88	31	131	-2788	-5360	15680	26	-137	178	-10488	1484	13056	85	-27	-134	-14728	-4012	-5440	-10	2	-115	-1772	-628	16988	145	-15	50	125	116	5
-11328	-3152	10792	-99	124	-120	-15600	1568	-5400	51	0	134	-2848	-5356	15592	-4	-157	196	-10336	1552	13024	105	-44	-172	-14708	-4040	-5376	6	-39	-66	-1712	-536	16952	157	18	79	125	116	5
-11348	-3056	10928	-94	131	-167	-15676	1560	-5556	87	27	101	-2764	-5360	15644	44	-135	168	-10436	1496	13088	119	-47	-168	-14720	-3948	-5460	15	-34	-73	-1708	-584	16940	145	-32	59	125	116	5
-11336	-3096	10844	-112	134	-196	-15704	1588	-5380	42	-37	98	-2776	-5316	15552	13	-140	181	-10356	1524	13248	107	-16	-163	-14760	-3976	-5472	23	-74	-58	-1640	-552	17096	178	-2	54	125	117	5
-11400	-3088	10736	-103	137	-160	-15664	1504	-5380	58	1	121	-2760	-5428	15676	-6	-126	144	-10384	1528	13140	117	-44	-158	-14708	-3928	-5508	-2	-61	-60	-1664	-616	16924	150	1	36	125	117	5
-11320	-3172	10948	-121	129	-124	-15688	1532	-5512	68	-33	148	-2708	-5328	15628	13	-106	148	-10384	1616	13088	124	1	-106	-14720	-3964	-5544	38	-82	-72	-1524	-568	16996	123	-32	15	125	116	5
-11364	-3088	10932	-98	116	-179	-15684	1604	-5468	57	-7	137	-2696	-5364	15664	53	-133	132	-10368	1540	13172	117	-39	-129	-14800	-3968	-5556	27	-17	-95	-1580	-580	17028	150	-24	60	125	116	5
-11312	-3120	10864	-134	164	-143	-15692	1568	-5384	33	-40	121	-2728	-5316	15600	-14	-96	149	-10440	1488	13060	114	-11	-193	-14680	-3912	-5484	29	-57	-80	-1528	-632	17032	153	-23	55	125	116	5
-11352	-3084	10900	-112	126	-173	-15664	1556	-5312	45	-9	127	-2772	-5328	15668	-11	-71	146	-10460	1504	13136	128	-2	-155	-14720	-3920	-5372	-14	-49	-82	-1628	-512	17012	160	26	94	125	116	5
-11348	-3052	10728	-108	175	-156	-15684	1544	-5392	59	3	157	-2692	-5368	15616	12	-109	169	-10444	1544	13112	137	-44	-111	-14728	-3948	-5432	-4	-28	-107	-1620	-556	16992	157	-4	54	125	117	5
-11384	-3132	10720	-109	127	-173	-15668	1512	-5488	52	-19	144	-2776	-5384	15588	39	-137	189	-10380	1512	13196	122	-18	-209	-14704	-4004	-5460	17	-29	-85	-1596	-612	16936	180	-7	93	125	116	5
-11344	-3040	10764	-93	146	-106	-15696	1616	-5404	46	40	146	-2660	-5332	15672	48	-136	203	-10416	1500	13024	113	-32	-181	-14736	-4016	-5416	2	-36	-107	-1656	-560	17056	164	-7	77	125	116	5
-11340	-3056	10696	-126	133	-159	-15656	1576	-5380	50	9	158	-2732	-5344	15568	72	-93	184	-10388	1500	13060	102	-49	-167	-14732	-4004	-5480	41	-16	-96	-1652	-544	16960	207	22	46	124	116	5
-11364	-3084	10988	-96	138	-155	-15636	1576	-5420	60	13	176	-2836	-5360	15600	47	-124	187	-10400	1524	13036	101	-19	-170	-14748	-4028	-5504	-30	-47	-98	-1732	-580	17088	210	7	46	125	116	5
-11364	-3084	10784	-112	137	-151	-15672	1572	-5416	63	-2	156	-2760	-5352	15680	15	-106	186	-10404	1548	13120	102	-49	-173	-14732	-3932	-5500	-4	-40	-99	-1644	-572	16928	172	10	73	125	117	5
-11336	-3060	10784	-94	139	-139	-15712	1572	-5492	49	-3	130	-2748	-5304	15720	20	-91	180	-10372	1504	13092	97	-17	-188	-14680	-3988	-5400	-20	-52	-97	-1644	-536	16996	174	-20	84	125	117	5
-11412	-3096	10892	-121	147	-143	-15620	1592	-5456	42	-3	118	-2816	-5328	15620	13	-104	137	-10380	1596	13164	93	-28	-147	-14768	-4024	-5512	39	-20	-106	-1672	-596	17028	184	14	46	125	117	5
-11400	-3112	10856	-109	120	-154	-15676	1568	-5492	50	41	130	-2724	-5368	15648	32	-135	197	-10384	1592	13120	139	-8	-166	-14708	-3980	-5452	36	-33	-76	-1668	-588	16984	174	-4	27	125	116	5
-11364	-3080	10912	-113	138	-168	-15656	1608	-5400	73	-25	161	-2760	-5248	15624	30	-117	173	-10432	1560	13092	122	-14	-143	-14668	-4004	-5500	13	-35	-84	-1652	-568	17068	130	-25	68	125	116	5
-11376	-3076	10832	-137	172	-173	-15624	1560	-5464	57	-14	145	-2836	-5328	15632	9	-123	185	-10424	1544	13256	139	-36	-160	-14712	-3952	-5424	33	-27	-109	-1712	-528	16928	154	-6	64	125	117	5
-11384	-3072	10800	-100	130	-163	-15696	1576	-5560	44	-30	114	-2764	-5316	15596	-8	-153	186	-10324	1536	13116	101	-26	-189	-14708	-4020	-5472	31	-40	-91	-1692	-688	16852	142	-4	102	125	117	5
-11324	-3100	10816	-112	146	-171	-15624	1544	-5336	8	-25	148	-2768	-5312	15600	-9	-129	145	-10420	1560	13168	88	-40	-158	-14752	-3984	-5488	32	-91	-63	-1720	-568	16932	175	-26	85	125	117	5
-11372	-3112	10804	-100	138	-156	-15664	1592	-5452	13	-45	155	-2764	-5412	15656	30	-116	167	-10388	1512	13020	127	-34	-139	-14744	-3976	-5460	24	-59	-88	-1696	-616	16992	193	20	73	125	116	5
-11360	-3068	10908	-144	132	-159	-15700	1504	-5344	90	-3	163	-2816	-5384	15660	65	-88	155	-10456	1544	13128	116	4	-151	-14704	-3932	-5576	-16	-97	-45	-1680	-540	16964	170	-8	36	125	117	5
-11388	-3064	10800	-111	133	-146	-15672	1580	-5496	70	-54	152	-2752	-5384	15488	48	-103	143	-10368	1496	13204	124	-55	-139	-14756	-4008	-5380	-17	-55	-81	-1620	-640	17032	159	16	26	125	116	5
-11408	-3092	10912	-156	121	-159	-15680	1536	-5388	60	-25	132	-2728	-5316	15620	6	-118	155	-10376	1596	13028	134	-40	-168	-14708	-3968	-5328	-17	-50	-69	-1604	-556	16960	134	-34	27	125	116	5
-11344	-3116	10812	-104	120	-157	-15632	1548	-5420	40	2	133	-2704	-5312	15748	27	-139	208	-10408	1480	13028	117	-24	-163	-14732	-3996	-5524	14	-23	-83	-1556	-552	16920	176	-33	34	125	116	5
-11364	-3044	10888	-83	151	-155	-15680	1592	-5476	24	-43	132	-2736	-5336	15652	27	-101	155	-10388	1576	13112	118	-1	-149	-14680	-4008	-5432	30	-24	-86	-1652	-580	16992	217	-32	35	125	116	5
-11372	-3036	10728	-120	135	-184	-15672	1444	-5468	67	-44	146	-2804	-5344	15712	49	-85	155	-10444	1532	13140	67	-27	-157	-14708	-3976	-5468	26	-24	-43	-1692	-524	17064	212	2	47	125	116	5
-11372	-3076	10860	-102	150	-135	-15620	1536	-5468	85	0	125	-2776	-5280	15580	36	-117	148	-10376	1520	13164	68	51	-155	-14692	-3916	-5488	-38	-20	-47	-1684	-508	17040	155	1	77	125	117	5
-11316	-3012	10928	-110	149	-158	-15696	1560	-5504	63	-18	132	-2752	-5284	15536	-9	-150	157	-10448	1528	13040	104	21	-151	-14728	-3976	-5552	-19	-63	-73	-1660	-548	17052	179	-6	44	125	116	5
-11400	-3060	10780	-123	129	-149	-15620	1588	-5468	69	-32	175	-2820	-5308	15636	-36	-160	188	-10312	1528	13120	123	-58	-137	-14728	-3952	-5552	-21	-46	-71	-1736	-556	17028	185	-96	81	125	117	5
-11344	-3044	10864	-115	140	-134	-15684	1556	-5440	37	15	145	-2804	-5344	15556	26	-166	175	-10348	1512	13100	122	-43	-162	-14720	-4004	-5420	12	-62	-112	-1688	-620	17124	185	-56	49	125	117	5
-11424	-3032	10780	-123	126	-157	-15656	1572	-5488	63	13	129	-2780	-5392	15660	8	-173	204	-10412	1504	13064	96	-24	-174	-14708	-3968	-5456	60	-66	-65	-1696	-556	16916	175	-7	64	125	117	5
-11272	-3112	10816	-84	144	-173	-15644	1552	-5580	31	-28	120	-2704	-5316	15624	90	-105	181	-10408	1484	13112	101	1	-135	-14676	-3940	-5388	52	-58	-69	-1660	-540	17108	169	-23	71	125	116	5
-11348	-3092	10756	-117	134	-140	-15700	1588	-5412	27	-70	157	-2804	-5344	15556	60	-98	153	-10332	1532	13084	122	-65	-153	-14744	-3956	-5492	69	-111	-58	-1648	-596	16940	175	-22	49	125	117	5
-11404	-3100	10748	-153	110	-172	-15684	1516	-5532	47	-98	131	-2708	-5276	15676	7	-91	152	-10372	1500	13184	107	-18	-118	-14780	-3980	-5408	-2	-94	-82	-1612	-556	17124	186	-62	43	125	116	5
-11336	-3076	10788	-136	169	-128	-15632	1572	-5348	85	-49	126	-2668	-5316	15748	-1	-121	146	-10388	1532	13044	124	-53	-117	-14764	-3928	-5364	-36	-97	-76	-1540	-532	17036	141	-7	88	125	116	5
-11356	-3040	10812	-133	121	-169	-15728	1548	-5544	87	-60	121	-2740	-5336	15640	-16	-131	180	-10404	1464	13144	127	-37	-130	-14740	-3972	-5272	2	-64	-35	-1604	-548	17052	103	17	33	125	116	5
-11364	-3072	10800	-110	140	-170	-15680	1528	-5336	20	-52	134	-2692	-5368	15576	25	-110	189	-10400	1480	13104	75	2	-163	-14732	-3908	-5408	31	-78	-48	-1532	-652	17044	143	-27	64	125	117	5
-11340	-3084	10780	-129	134	-178	-15744	1560	-5392	46	-44	109	-2652	-5452	15596	49	-103	178	-10388	1560	13216	79	-26	-141	-14780	-3912	-5460	77	-51	-51	-1572	-608	17004	199	27	48	125	117	5
-11332	-3040	10944	-93	122	-140	-15688	1524	-5376	46	-20	141	-2708	-5408	15552	57	-104	187	-10432	1520	13188	146	13	-166	-14736	-3964	-5472	28	-51	-38	-1536	-584	17076	234	12	41	125	116	5
-11352	-3156	10836	-108	140	-127	-15704	1484	-5376	80	-22	154	-2688	-5272	15596	70	-72	186	-10368	1520	13148	113	-33	-122	-14756	-3996	-5480	-19	3	-89	-1572	-532	16912	242	21	66	125	116	5
-11324	-3156	10792	-96	173	-130	-15664	1500	-5428	70	14	175	-2648	-5320	15660	11	-97	132	-10428	1576	13212	112	-51	-187	-14700	-3932	-5388	-17	-31	-104	-1544	-516	16972	200	-15	1	125	117	5
-11360	-3124	10876	-124	174	-157	-15708	1576	-5376	66	28	168	-2716	-5396	15636	3	-128	150	-10396	1576	13152	116	-10	-161	-14756	-3912	-5308	-49	25	-106	-1528	-516	16992	102	-31	-25	125	117	5
-11384	-3068	10892	-99	138	-140	-15696	1592	-5328	55	54	185	-2724	-5332	15636	23	-131	177	-10436	1576	13112	111	25	-172	-14704	-3944	-5388	0	29	-76	-1600	-576	16992	82	-13	30	125	116	5
-11340	-3136	10908	-85	137	-98	-15620	1496	-5336	67	97	159	-2736	-5336	15708	20	-121	178	-10440	1572	13060	111	-25	-167	-14772	-3972	-5388	48	44	-103	-1616	-600	16980	144	-35	71	125	117	5
-11376	-3084	10736	-69	141	-139	-15680	1492	-5436	43	55	166	-2784	-5344	15628	22	-113	160	-10360	1532	13168	107	-16	-169	-14712	-4004	-5532	47	55	-99	-1652	-640	16952	188	-2	60	125	116	5
-11356	-3120	10792	-79	127	-123	-15628	1504	-5412	42	66	155	-2916	-5360	15616	7	-114	166	-10420	1544	13192	89	-6	-197	-14696	-4004	-5420	-10	20	-122	-1656	-528	16924	249	3	87	125	117	5
-11312	-3036	10720	-111	108	-139	-15672	1532	-5560	72	-11	200	-2868	-5344	15564	-4	-125	166	-10412	1512	13072	95	-49	-170	-14708	-3984	-5452	15	-34	-123	-1692	-552	16976	219	16	105	125	116	5
-11336	-3048	10832	-122	137	-146	-15652	1556	-5456	76	5	132	-2932	-5316	15600	41	-135	159	-10408	1564	13160	72	-44	-158	-14668	-4044	-5580	-25	-51	-104	-1780	-552	16968	178	-3	96	125	116	5
-11328	-3092	10716	-151	150	-170	-15648	1580	-5568	34	-50	123	-2832	-5348	15576	52	-126	159	-10372	1536	13064	105	2	-166	-14700	-4004	-5556	-2	-71	-101	-1732	-428	16956	188	-16	87	125	117	5
-11368	-3048	10840	-154	135	-135	-15652	1596	-5568	39	-57	107	-2836	-5344	15644	46	-119	168	-10396	1548	13184	135	-59	-163	-14704	-3948	-5520	2	-53	-72	-1672	-600	16956	133	-27	101	125	116	5
-11400	-3028	10832	-146	153	-183	-15644	1592	-5364	50	-91	97	-2764	-5336	15580	7	-97	143	-10432	1568	13076	123	-30	-126	-14712	-4048	-5496	19	-74	-79	-1652	-600	17076	142	-31	96	125	116	5
-11320	-3100	10740	-102	102	-180	-15624	1556	-5256	64	-73	128	-2716	-5248	15676	0	-110	145	-10452	1596	13052	95	-30	-132	-14740	-3924	-5480	27	-111	-87	-1584	-596	17044	135	-6	101	125	116	5
-11388	-3164	10872	-109	130	-145	-15656	1596	-5460	64	-99	91	-2672	-5320	15672	-22	-153	160	-10380	1512	13160	105	-65	-134	-14748	-4028	-5404	18	-92	-58	-1528	-576	17060	142	-42	63	125	117	5
-11384	-3068	10872	-137	141	-189	-15664	1552	-5288	47	-50	75	-2652	-5356	15560	-16	-151	189	-10372	1560	13164	118	-76	-159	-14688	-3956	-5476	19	-74	-95	-1608	-684	17108	187	-22	97	125	116	5
-11340	-3092	10868	-141	140	-155	-15652	1564	-5404	52	-20	138	-2688	-5404	15644	-7	-128	153	-10424	1564	13132	124	-1	-134	-14692	-3980	-5336	-1	-51	-84	-1544	-556	17072	173	-34	42	125	116	5
-11396	-3104	10808	-128	157	-149	-15644	1416	-5344	41	5	102	-2660	-5420	15528	9	-130	186	-10452	1548	13204	99	-13	-184	-14732	-3972	-5468	41	-19	-85	-1604	-644	17060	169	1	65	125	116	5
-11364	-3092	10844	-112	161	-176	-15708	1492	-5304	61	48	127	-2632	-5428	15624	-8	-111	164	-10432	1568	13092	133	-10	-159	-14752	-3964	-5460	-8	5	-66	-1692	-504	16916	190	-3	48	125	117	5
-11356	-3100	10764	-121	139	-172	-15660	1560	-5340	84	-1	165	-2724	-5476	15588	19	-99	163	-10428	1552	13196	90	-70	-135	-14684	-3992	-5540	5	-32	-93	-1616	-580	16896	209	-18	13	125	116	5
-11356	-3096	10836	-77	160	-133	-15640	1512	-5420	85	24	214	-2784	-5360	15584	39	-134	164	-10376	1520	13148	80	-45	-167	-14736	-3984	-5372	-34	7	-79	-1656	-516	16944	176	-2	25	125	116	5
-11328	-3080	10728	-84	147	-133	-15620	1584	-5548	58	27	132	-2816	-5460	15660	33	-133	150	-10412	1580	13184	104	-33	-176	-14672	-3984	-5428	-1	-17	-77	-1664	-596	17008	156	3	57	125	116	5
-11332	-3092	10848	-125	141	-150	-15644	1508	-5468	38	58	202	-2776	-5296	15604	90	-100	128	-10324	1552	13036	74	21	-156	-14744	-3956	-5448	28	-44	-69	-1732	-584	16876	190	5	58	125	116	5
-11460	-3096	10796	-89	133	-135	-15648	1572	-5464	41	17	161	-2852	-5356	15592	49	-89	139	-10416	1520	13084	117	-9	-149	-14756	-3956	-5440	32	-39	-81	-1728	-564	16968	202	-18	57	125	117	5
-11364	-3040	10768	-88	97	-176	-15680	1552	-5508	55	-49	161	-2812	-5336	15676	80	-131	143	-10320	1504	13164	114	9	-134	-14732	-3972	-5484	15	-33	-83	-1628	-532	16964	192	-21	79	125	116	5
-11300	-3072	10792	-109	154	-175	-15764	1568	-5476	83	-63	193	-2836	-5332	15684	57	-103	169	-10432	1532	13128	113	-7	-121	-14780	-3956	-5396	-28	-48	-69	-1608	-572	16976	185	-38	80	125	116	5
-11400	-3064	10884	-98	162	-121	-15644	1588	-5376	65	-16	131	-2704	-5256	15676	50	-105	162	-10404	1520	13140	87	9	-180	-14736	-3980	-5388	-39	-81	-56	-1584	-540	16936	117	-17	59	125	116	5
-11408	-3076	10872	-72	139	-115	-15680	1560	-5480	63	-54	147	-2696	-5236	15712	4	-116	183	-10412	1552	13280	111	10	-149	-14776	-3988	-5444	-23	-14	-121	-1636	-580	16936	162	-13	55	125	116	5
-11352	-3084	10824	-128	164	-173	-15656	1584	-5420	86	-19	114	-2684	-5284	15552	-21	-148	179	-10404	1536	13124	106	-5	-186	-14732	-3940	-5496	-21	-11	-74	-1576	-576	16884	143	-23	33	125	117	5
-11364	-3104	10832	-96	151	-161	-15668	1552	-5308	81	30	114	-2796	-5268	15612	-8	-142	207	-10396	1564	13220	89	-53	-118	-14736	-3968	-5340	-5	-62	-81	-1644	-568	17000	149	-18	52	125	117	5
-11296	-3100	10708	-121	143	-152	-15728	1552	-5456	85	-16	70	-2812	-5324	15664	-1	-127	197	-10436	1576	13100	99	-22	-186	-14728	-3980	-5388	19	-7	-74	-1620	-588	16920	141	7	62	125	116	5
-11344	-3108	10792	-113	153	-133	-15576	1532	-5400	74	22	83	-2856	-5276	15656	-11	-140	229	-10400	1580	13124	105	2	-146	-14712	-4000	-5480	33	-60	-91	-1764	-604	17040	176	-8	57	125	116	5
-11344	-3052	10716	-123	134	-155	-15680	1488	-5444	70	-55	118	-2760	-5392	15512	-27	-137	201	-10460	1508	13076	119	-56	-145	-14652	-3988	-5536	8	-80	-88	-1668	-552	17024	183	14	66	125	117	5
-11352	-3100	10696	-148	134	-174	-15648	1484	-5480	72	-22	136	-2744	-5444	15548	2	-128	187	-10404	1588	13116	105	-11	-142	-14692	-4024	-5436	-10	-63	-23	-1668	-556	16968	206	-20	75	125	117	5
-11332	-3088	10804	-118	140	-145	-15624	1456	-5428	84	-21	97	-2760	-5484	15540	54	-95	169	-10480	1568	13148	124	-18	-166	-14740	-4016	-5572	-2	-78	-68	-1648	-568	16908	151	-7	51	125	117	5
-11352	-3092	10852	-99	116	-173	-15668	1508	-5420	28	-31	143	-2760	-5476	15512	94	-101	146	-10380	1556	13144	97	-35	-162	-14732	-3960	-5452	-1	-64	-62	-1568	-564	16972	149	-9	53	125	117	5
-11360	-3076	10924	-121	143	-178	-15620	1504	-5452	44	-51	183	-2740	-5396	15628	79	-112	138	-10416	1552	12964	128	-23	-161	-14688	-3940	-5456	-17	-67	-12	-1608	-604	16992	136	-51	62	125	117	5
-11364	-3096	10840	-118	109	-120	-15652	1512	-5412	51	-56	153	-2692	-5352	15608	57	-113	112	-10484	1604	13124	99	-25	-159	-14672	-4088	-5368	35	-81	-79	-1616	-568	16984	150	-22	43	125	116	5
-11332	-3104	10932	-100	140	-174	-15616	1512	-5364	48	-89	183	-2688	-5288	15584	41	-125	122	-10328	1552	13280	81	-23	-151	-14740	-3948	-5452	27	-58	-93	-1548	-572	17040	206	-11	74	125	116	5
-11304	-3040	10768	-93	126	-173	-15660	1532	-5404	20	-11	172	-2732	-5316	15648	76	-119	133	-10420	1592	13120	96	25	-155	-14700	-3972	-5424	22	-67	-70	-1640	-580	17036	197	-32	63	125	117	5
-11368	-3076	10780	-108	139	-162	-15604	1608	-5388	31	-22	171	-2640	-5264	15624	52	-115	167	-10396	1516	13032	134	18	-165	-14800	-3984	-5416	44	-37	-36	-1592	-492	16988	185	-12	47	125	117	5
-11324	-3084	10828	-101	146	-156	-15620	1628	-5428	31	-20	143	-2768	-5292	15704	50	-103	178	-10464	1528	13196	111	6	-171	-14708	-3948	-5528	-17	-52	-46	-1652	-544	16960	155	9	24	125	117	5
-11376	-3040	10860	-116	157	-150	-15696	1572	-5296	73	7	155	-2720	-5300	15628	28	-103	165	-10392	1504	13084	117	-43	-194	-14696	-3928	-5392	13	-26	-93	-1620	-544	17052	167	0	45	125	117	5
-11344	-3044	10792	-103	167	-166	-15696	1588	-5456	67	9	130	-2700	-5376	15636	-10	-126	196	-10368	1504	12984	118	-54	-134	-14716	-3944	-5512	-6	-12	-40	-1592	-508	17040	135	9	33	125	116	5
-11348	-3032	10804	-85	137	-180	-15664	1556	-5448	95	34	102	-2776	-5316	15676	9	-124	155	-10412	1512	13112	91	-13	-156	-14756	-3924	-5432	9	-2	-95	-1588	-564	16900	156	-19	58	125	116	5
-11360	-3092	10776	-130	145	-153	-15660	1532	-5432	54	21	150	-2744	-5352	15584	-27	-147	160	-10320	1548	13104	105	-66	-167	-14740	-3948	-5348	17	-43	-90	-1604	-596	17044	172	10	77	125	117	5
-11360	-3052	10852	-100	122	-191	-15652	1524	-5476	38	13	132	-2848	-5348	15588	-21	-130	171	-10444	1536	13116	147	-26	-125	-14740	-3960	-5392	57	-23	-101	-1660	-592	16996	158	-55	54	125	116	5
-11352	-3128	10812	-95	127	-149	-15612	1568	-5264	38	2	136	-2684	-5420	15580	22	-159	186	-10416	1512	13176	107	-6	-170	-14724	-4000	-5456	0	-54	-92	-1680	-580	16892	166	-22	89	125	117	5
-11388	-3052	10952	-122	127	-154	-15624	1520	-5492	81	-50	122	-2740	-5424	15688	21	-105	179	-10432	1504	13108	101	54	-185	-14760	-3944	-5472	-9	-49	-123	-1680	-604	16912	152	18	87	125	116	5
-11412	-3100	10664	-120	144	-176	-15676	1464	-5328	55	-39	141	-2736	-5372	15624	42	-142	161	-10376	1596	13164	108	-30	-149	-14748	-4024	-5460	11	-37	-39	-1684	-564	17056	177	-6	86	125	116	5
-11368	-3036	10760	-103	124	-158	-15612	1496	-5524	64	-10	153	-2820	-5316	15584	70	-92	179	-10392	1616	13136	104	-12	-154	-14680	-3948	-5472	37	-66	-65	-1636	-560	16976	156	-12	59	125	116	5
-11304	-3080	10788	-81	98	-151	-15688	1644	-5496	61	-45	169	-2824	-5340	15584	53	-120	144	-10376	1548	13072	78	-15	-135	-14700	-4028	-5384	32	-36	-87	-1648	-584	16984	186	-2	61	125	116	5
-11300	-3104	10704	-111	142	-162	-15692	1532	-5392	45	-2	128	-2776	-5308	15584	34	-107	148	-10384	1548	13088	163	-32	-166	-14684	-4052	-5504	20	-53	-95	-1696	-556	17016	164	-6	75	125	117	5
-11352	-3020	10824	-136	116	-127	-15660	1468	-5532	63	-23	148	-2748	-5348	15524	67	-83	168	-10368	1524	13200	117	38	-160	-14740	-4048	-5424	24	-32	-95	-1612	-616	16928	161	-16	43	125	117	5
-11344	-3000	10812	-121	123	-162	-15712	1576	-5316	28	-44	125	-2768	-5300	15644	39	-119	151	-10420	1528	13136	113	-32	-166	-14752	-4020	-5552	35	-58	-63	-1656	-536	16928	193	-15	64	125	116	5
-11340	-3108	10812	-121	134	-139	-15608	1556	-5408	40	10	121	-2760	-5336	15620	52	-147	193	-10348	1520	13244	129	-25	-142	-14792	-3948	-5532	10	-77	-63	-1632	-596	16984	205	-30	77	125	117	5
-11396	-3016	10752	-126	132	-166	-15680	1580	-5368	68	-37	130	-2772	-5332	15528	40	-125	188	-10428	1592	13160	97	-40	-144	-14744	-3944	-5568	-7	-73	-49	-1616	-564	16944	167	-8	48	125	117	5
-11372	-3096	10788	-101	140	-178	-15684	1544	-5380	62	0	138	-2704	-5352	15664	-1	-122	162	-10452	1612	13100	112	-10	-148	-14776	-3992	-5392	-5	-50	-76	-1632	-548	17112	189	4	49	125	117	5
-11396	-3028	10808	-83	139	-146	-15644	1588	-5412	60	-5	97	-2752	-5340	15660	-10	-117	183	-10420	1524	13132	120	28	-171	-14740	-3980	-5416	17	-50	-64	-1628	-528	16964	156	18	35	125	116	5
-11356	-3068	10932	-89	126	-166	-15648	1568	-5424	76	-6	134	-2716	-5344	15672	16	-121	194	-10340	1536	13096	113	-71	-148	-14712	-3952	-5364	13	-54	-63	-1592	-548	17072	138	-24	48	125	117	5
-11400	-3064	10776	-119	121	-164	-15632	1560	-5536	56	-3	87	-2720	-5372	15584	15	-96	179	-10376	1516	13132	120	-25	-157	-14692	-3920	-5392	24	-40	-83	-1648	-520	17012	148	2	67	125	117	5
-11340	-3088	10776	-127	137	-149	-15684	1568	-5368	55	8	145	-2796	-5308	15568	56	-116	153	-10392	1496	13040	97	-14	-151	-14756	-3892	-5488	2	-37	-80	-1660	-496	16964	151	-19	48	125	117	5
-11344	-3060	10772	-108	145	-152	-15748	1528	-5352	77	-20	151	-2784	-5348	15636	43	-118	153	-10444	1536	13252	88	-61	-177	-14764	-4028	-5328	25	-26	-104	-1632	-536	16996	161	-12	71	125	116	5
-11396	-3084	10764	-118	156	-165	-15656	1548	-5440	10	-17	140	-2720	-5328	15668	26	-91	129	-10456	1508	13068	90	-25	-162	-14716	-3936	-5436	36	-30	-99	-1592	-576	17012	162	-38	117	125	117	5
-11376	-3044	10828	-125	142	-173	-15624	1576	-5400	62	-9	143	-2748	-5364	15612	33	-115	153	-10392	1584	13132	96	-38	-160	-14708	-3972	-5360	-3	-56	-116	-1660	-540	16956	212	-5	91	125	116	5
-11356	-3136	10772	-114	119	-148	-15616	1512	-5464	66	-11	116	-2736	-5360	15560	35	-83	179	-10384	1536	13132	76	-69	-161	-14736	-4024	-5448	0	-34	-108	-1640	-616	16928	142	-26	83	125	116	5
-11372	-3068	10820	-127	115	-153	-15600	1516	-5412	65	-3	107	-2772	-5328	15648	56	-142	158	-10416	1576	13212	87	-18	-153	-14788	-3884	-5488	-16	-99	-42	-1628	-616	16980	166	-9	86	125	116	5
-11340	-3124	10824	-118	169	-143	-15676	1516	-5444	66	12	165	-2732	-5312	15592	7	-129	137	-10372	1624	13152	91	-8	-163	-14712	-4012	-5544	-23	-29	-94	-1516	-548	16948	161	-11	63	125	117	5
-11400	-3044	10908	-93	126	-172	-15648	1600	-5336	71	9	155	-2668	-5340	15564	63	-131	133	-10452	1528	13044	84	16	-197	-14696	-4032	-5412	-38	-48	-107	-1612	-600	16808	150	-18	23	125	117	5
-11352	-3080	10896	-61	133	-146	-15700	1556	-5456	93	43	148	-2652	-5384	15648	36	-155	182	-10460	1540	13124	101	-23	-184	-14728	-4020	-5388	-20	-29	-64	-1608	-592	16964	210	-30	26	125	117	5
-11328	-3132	10872	-84	134	-172	-15608	1560	-5440	80	53	145	-2744	-5340	15676	-1	-148	197	-10364	1564	13196	107	-60	-172	-14760	-3940	-5500	-4	21	-72	-1608	-548	17004	185	3	18	125	116	5
-11408	-3088	10888	-80	154	-160	-15696	1588	-5360	91	-13	107	-2836	-5284	15672	4	-131	174	-10372	1540	13028	118	-11	-162	-14776	-3948	-5440	-5	10	-95	-1664	-540	17040	189	-2	20	125	116	5
-11352	-3048	10764	-134	116	-181	-15628	1524	-5436	54	5	122	-2824	-5372	15624	-16	-126	179	-10396	1604	13040	97	-3	-149	-14696	-4008	-5568	19	16	-64	-1704	-484	16892	151	5	62	125	116	5
-11352	-3108	10816	-111	147	-169	-15692	1568	-5420	67	-55	109	-2856	-5308	15556	22	-148	182	-10360	1460	13048	87	-20	-139	-14716	-4004	-5576	26	-88	-58	-1732	-524	17004	202	-25	83	125	116	5
-11404	-3060	10768	-88	140	-162	-15660	1520	-5504	66	-35	116	-2816	-5392	15548	19	-142	181	-10476	1520	13096	114	-18	-140	-14644	-3976	-5500	29	-86	-63	-1740	-524	16932	200	-7	61	125	116	5
-11404	-3080	10824	-110	123	-146	-15624	1552	-5468	50	-56	106	-2844	-5424	15636	68	-116	169	-10440	1532	13184	78	-29	-135	-14740	-3980	-5504	53	-107	-62	-1732	-572	17080	126	-43	82	125	116	5
-11376	-3064	10920	-153	161	-182	-15656	1512	-5336	60	-76	113	-2784	-5336	15660	65	-124	169	-10336	1572	13076	152	-58	-144	-14744	-3984	-5524	24	-163	-67	-1616	-496	16972	114	-9	62	125	116	5
-11372	-3084	10884	-117	129	-141	-15656	1560	-5420	48	-96	102	-2728	-5236	15704	82	-127	151	-10352	1544	13076	118	-50	-148	-14728	-4016	-5388	59	-106	-64	-1588	-656	16892	120	-23	69	125	116	5
-11396	-3056	10860	-114	104	-160	-15620	1488	-5388	44	-55	92	-2752	-5360	15684	29	-112	163	-10380	1596	13132	102	-12	-158	-14756	-3968	-5328	23	-108	-50	-1584	-552	17072	139	-4	32	125	116	5
-11412	-3132	10736	-101	157	-181	-15720	1556	-5448	45	-38	152	-2736	-5304	15652	-18	-156	180	-10368	1564	13176	127	-35	-135	-14696	-4000	-5448	-18	-91	-67	-1508	-624	17044	134	11	44	125	116	5
-11412	-3072	10728	-115	162	-167	-15628	1568	-5536	63	-48	130	-2784	-5412	15684	9	-95	158	-10376	1576	13160	128	-48	-139	-14784	-4020	-5600	19	-66	-62	-1556	-580	17088	119	0	65	125	116	5
-11304	-3120	10860	-122	148	-177	-15616	1540	-5472	44	-13	130	-2732	-5376	15612	33	-148	162	-10392	1560	13152	98	-23	-141	-14740	-3972	-5332	36	-47	-80	-1572	-588	16984	166	-38	91	125	116	5
-11296	-3096	10860	-95	153	-141	-15656	1552	-5428	61	14	123	-2732	-5364	15560	16	-138	160	-10424	1568	13064	97	-26	-172	-14740	-3956	-5408	7	-45	-38	-1612	-624	16940	211	12	43	125	116	5
-11432	-3120	10880	-103	135	-164	-15688	1456	-5424	80	-3	121	-2720	-5364	15580	-5	-135	173	-10392	1528	13160	101	-43	-146	-14720	-3904	-5608	13	-1	-89	-1560	-572	16968	213	-26	40	125	116	5
-11336	-3156	10796	-135	162	-141	-15680	1500	-5460	79	-3	146	-2740	-5396	15600	41	-116	181	-10484	1536	13148	101	-14	-119	-14732	-3944	-5368	-19	-20	-60	-1652	-516	16964	185	-21	22	125	116	5
-11348	-3044	10796	-105	128	-171	-15676	1480	-5456	73	2	165	-2676	-5392	15660	56	-123	183	-10460	1476	13204	105	5	-130	-14736	-3976	-5428	-12	-27	-120	-1596	-492	17104	172	-20	46	125	116	5
-11284	-3056	10844	-128	129	-144	-15656	1560	-5336	33	11	137	-2764	-5432	15736	24	-100	179	-10356	1552	13136	71	-5	-166	-14768	-3960	-5396	-4	-21	-98	-1548	-532	16972	174	14	52	125	116	5
-11384	-3060	10832	-97	159	-170	-15672	1576	-5396	58	-18	187	-2828	-5324	15636	56	-109	178	-10424	1500	13156	114	-24	-135	-14736	-3912	-5480	-5	-24	-93	-1700	-548	16968	166	26	64	125	116	5
-11380	-3140	10904	-73	121	-155	-15688	1516	-5436	72	-17	152	-2788	-5328	15632	62	-131	195	-10420	1544	13160	101	-61	-146	-14696	-3952	-5516	17	-9	-109	-1676	-500	16976	180	2	78	125	117	5
-11380	-3056	10720	-69	133	-164	-15664	1536	-5368	57	17	205	-2776	-5280	15656	29	-105	138	-10420	1492	13112	79	-14	-173	-14720	-3996	-5424	46	-42	-43	-1672	-612	17124	212	-33	58	125	116	5
-11368	-3060	10828	-76	139	-131	-15652	1520	-5432	61	-61	195	-2796	-5284	15624	39	-134	159	-10424	1508	13164	129	-67	-151	-14720	-4024	-5496	15	-52	-54	-1620	-556	17056	165	-42	80	125	116	5
-11376	-3096	10864	-110	153	-171	-15652	1500	-5528	47	-1	170	-2724	-5276	15608	86	-139	152	-10436	1492	13252	94	29	-167	-14684	-3992	-5460	-12	-57	-85	-1604	-600	17048	160	-42	74	124	116	5
-11344	-3056	10772	-85	136	-179	-15632	1568	-5420	25	-21	126	-2748	-5308	15768	48	-126	164	-10424	1536	13200	85	-13	-138	-14804	-3940	-5556	4	-41	-100	-1676	-576	16944	133	19	37	125	116	5
-11396	-3072	10848	-107	124	-167	-15708	1516	-5464	55	-35	100	-2832	-5276	15740	28	-101	150	-10340	1532	13060	108	-37	-139	-14700	-3988	-5404	29	-72	-60	-1656	-580	17140	196	-16	36	125	116	5
-11380	-3060	10728	-105	152	-159	-15664	1472	-5420	69	-57	162	-2784	-5260	15616	-14	-131	148	-10368	1540	13136	138	-1	-140	-14764	-3984	-5424	-38	-69	-116	-1660	-548	16936	198	-26	71	124	116	5
-11300	-3044	10848	-115	135	-149	-15648	1540	-5416	36	-74	123	-2756	-5316	15552	-39	-131	168	-10376	1568	13104	102	-35	-148	-14744	-3900	-5404	-18	-67	-68	-1624	-524	17016	146	-2	59	124	116	5
-11352	-3088	10840	-105	145	-129	-15620	1512	-5352	53	-21	121	-2712	-5356	15600	16	-150	163	-10408	1492	13112	124	-29	-169	-14728	-3980	-5568	-2	-31	-82	-1552	-608	17036	172	-12	72	124	116	5
-11360	-3016	10872	-102	132	-185	-15628	1520	-5384	28	9	151	-2720	-5352	15716	15	-115	167	-10356	1568	13140	83	-34	-133	-14680	-3980	-5388	41	-53	-71	-1668	-572	17096	192	-41	67	125	117	5
-11276	-3136	10916	-88	132	-152	-15664	1464	-5388	57	-52	114	-2680	-5308	15640	22	-101	174	-10388	1552	13104	116	-34	-171	-14712	-3992	-5376	56	-30	-95	-1604	-500	17000	144	-13	72	125	116	5
-11360	-3072	10836	-123	152	-159	-15672	1488	-5412	52	-5	151	-2708	-5340	15696	-4	-128	224	-10400	1524	13140	113	15	-161	-14692	-3940	-5440	34	-44	-117	-1652	-560	17024	137	-4	68	125	116	5
-11364	-3100	10780	-107	135	-126	-15644	1512	-5336	63	48	170	-2800	-5356	15536	50	-120	166	-10404	1488	13184	100	-16	-168	-14716	-3896	-5428	22	-19	-127	-1652	-568	17032	172	3	77	125	116	5
-11360	-3080	10816	-117	160	-109	-15744	1560	-5452	48	25	174	-2700	-5392	15492	21	-138	177	-10420	1544	13092	109	3	-150	-14756	-3992	-5400	-3	-58	-105	-1588	-604	16952	142	-23	34	125	116	5
-11364	-3108	10800	-69	125	-113	-15640	1556	-5544	48	-17	207	-2756	-5324	15604	27	-121	156	-10364	1540	13116	96	-16	-158	-14740	-3968	-5504	17	-14	-127	-1692	-556	16952	166	-11	48	125	116	5
-11344	-3144	10784	-69	134	-152	-15668	1588	-5464	59	-1	145	-2780	-5380	15608	65	-119	183	-10356	1552	13124	99	-31	-136	-14764	-3976	-5468	-25	-53	-90	-1696	-552	16900	143	-16	68	125	117	5
-11356	-3144	10884	-82	142	-143	-15680	1532	-5456	31	-23	139	-2800	-5320	15576	30	-135	163	-10396	1616	13136	110	-6	-177	-14736	-3984	-5668	36	-45	-77	-1656	-572	16844	147	-52	69	125	116	5
-11308	-3076	10860	-101	133	-186	-15656	1600	-5384	32	-1	153	-2828	-5296	15596	42	-112	162	-10476	1556	13192	115	-1	-148	-14684	-3984	-5468	25	-51	-87	-1648	-608	17000	210	-29	38	125	116	5
-11396	-3060	10860	-149	138	-179	-15716	1656	-5440	74	-43	157	-2764	-5320	15616	17	-123	149	-10420	1516	13200	103	5	-179	-14704	-3980	-5480	35	-9	-69	-1564	-508	16896	180	-7	61	125	116	5
-11292	-3016	10884	-134	126	-169	-15632	1620	-5412	33	2	163	-2772	-5364	15656	0	-95	176	-10372	1596	13132	130	-33	-155	-14728	-3996	-5472	-9	-82	-80	-1616	-552	17056	152	11	50	125	116	5
-11328	-3108	10904	-89	123	-146	-15640	1544	-5404	71	-27	122	-2708	-5312	15632	8	-79	180	-10368	1580	13120	98	-28	-130	-14760	-3928	-5432	-14	-26	-128	-1572	-604	17004	167	-31	70	125	116	5
-11360	-3024	10816	-103	121	-155	-15640	1516	-5360	91	-4	129	-2804	-5304	15648	6	-136	215	-10356	1536	13164	109	-13	-167	-14700	-3984	-5328	-6	-47	-104	-1640	-496	16812	122	-38	45	125	117	5
-11356	-3072	10908	-107	134	-162	-15588	1548	-5436	72	-20	162	-2732	-5376	15616	47	-140	193	-10424	1540	13056	112	9	-176	-14760	-3928	-5512	-25	-27	-98	-1652	-592	16956	146	-13	35	125	117	5
-11348	-3104	10872	-74	135	-173	-15676	1528	-5396	59	13	138	-2784	-5292	15564	14	-133	158	-10352	1596	13108	108	-9	-153	-14692	-3944	-5500	9	-16	-57	-1672	-624	17020	147	-55	37	125	116	5
-11364	-3072	10812	-112	132	-180	-15640	1512	-5436	106	-15	169	-2780	-5344	15608	-4	-150	169	-10476	1504	12992	92	10	-171	-14680	-3984	-5488	-4	25	-74	-1608	-572	16908	176	26	57	125	116	5
-11372	-3096	10904	-107	154	-153	-15652	1572	-5460	85	12	125	-2768	-5352	15600	1	-112	185	-10392	1540	13164	90	26	-137	-14756	-3924	-5456	3	-24	-75	-1704	-604	16996	212	-26	30	125	116	5
-11392	-3056	10868	-135	150	-170	-15660	1500	-5472	39	-20	134	-2828	-5420	15612	12	-133	192	-10360	1504	13080	114	17	-159	-14720	-3960	-5504	-34	-56	-50	-1696	-532	17088	207	-22	69	125	117	5
-11364	-3088	10756	-96	129	-178	-15660	1572	-5452	18	-35	133	-2732	-5376	15664	3	-110	185	-10376	1464	13136	95	-7	-171	-14688	-3988	-5508	30	-110	-32	-1684	-572	16976	185	-12	63	125	117	5
-11344	-3072	10764	-134	130	-171	-15596	1556	-5356	24	-48	119	-2680	-5336	15616	34	-99	165	-10404	1484	13128	84	-36	-165	-14700	-3960	-5368	-11	-51	-72	-1652	-536	17044	170	-9	67	125	116	5
-11388	-3136	10720	-99	120	-203	-15648	1544	-5452	53	-37	176	-2736	-5304	15696	65	-129	176	-10408	1560	13168	110	-86	-151	-14764	-3944	-5380	-5	-31	-68	-1600	-560	17052	158	-12	83	125	116	5
-11364	-3068	10728	-83	130	-148	-15664	1480	-5360	74	-60	162	-2748	-5272	15692	78	-119	156	-10432	1552	13108	139	-94	-134	-14764	-3928	-5416	-9	-81	-59	-1624	-520	17044	126	-12	37	125	116	5
-11340	-3084	10828	-110	131	-160	-15652	1528	-5336	36	-49	152	-2732	-5320	15560	18	-104	163	-10348	1572	13100	101	-63	-143	-14756	-3892	-5524	52	-45	-66	-1576	-500	17036	172	-12	77	125	117	5
-11392	-3116	10832	-119	138	-154	-15624	1560	-5400	38	-45	165	-2680	-5304	15612	-8	-98	168	-10400	1524	13248	132	-55	-147	-14816	-3940	-5504	-6	-55	-120	-1652	-552	16992	157	-36	53	125	116	5
-11288	-3116	10796	-124	121	-145	-15616	1548	-5340	24	-54	121	-2728	-5244	15624	26	-148	126	-10424	1488	13020	111	-34	-151	-14728	-3960	-5416	-3	-37	-58	-1556	-576	16884	186	-41	57	125	117	5
-11348	-3036	10768	-78	138	-187	-15664	1568	-5272	60	-52	125	-2752	-5236	15744	-8	-142	169	-10392	1584	13216	115	-79	-167	-14700	-3972	-5540	24	-52	-81	-1644	-568	16980	140	-16	47	125	116	5
-11376	-3040	10804	-99	143	-154	-15656	1488	-5356	69	-34	124	-2716	-5316	15616	34	-117	183	-10428	1528	13184	119	-35	-162	-14748	-3976	-5352	2	-76	-67	-1640	-556	17040	145	-21	43	125	116	5
-11376	-3116	10852	-133	141	-165	-15624	1548	-5392	79	-3	141	-2720	-5312	15596	11	-120	204	-10384	1588	13136	76	-51	-155	-14740	-3968	-5508	24	-56	-97	-1616	-564	16900	135	-26	61	125	116	5
-11336	-3044	10856	-100	149	-165	-15640	1552	-5392	71	6	141	-2756	-5312	15760	2	-122	163	-10384	1632	13176	92	-11	-127	-14720	-3960	-5400	18	-61	-115	-1676	-504	17036	166	-22	40	125	116	5
-11364	-3076	10912	-117	115	-164	-15668	1608	-5384	65	-10	178	-2772	-5316	15644	17	-137	176	-10380	1532	13148	100	-57	-170	-14744	-4000	-5472	-10	-51	-105	-1616	-560	17000	151	19	72	125	116	5
-11408	-3048	10868	-126	148	-141	-15676	1536	-5332	94	-29	109	-2792	-5372	15680	4	-126	175	-10388	1528	13128	105	-12	-190	-14748	-3940	-5444	-7	-63	-106	-1636	-520	16936	125	3	71	125	116	5
-11304	-3100	10764	-94	138	-144	-15604	1548	-5384	46	-30	146	-2784	-5392	15624	9	-100	168	-10384	1552	13104	94	-33	-170	-14748	-3988	-5464	-2	-55	-85	-1604	-588	17060	152	-50	85	125	117	5
-11332	-3128	10764	-114	149	-159	-15652	1580	-5532	41	4	162	-2716	-5332	15680	47	-130	165	-10400	1536	13060	84	-18	-186	-14756	-4028	-5408	31	3	-82	-1672	-556	16868	176	3	37	125	116	5
-11380	-3076	10792	-137	116	-161	-15664	1488	-5400	39	31	137	-2828	-5316	15708	2	-137	183	-10408	1532	13136	69	-7	-158	-14748	-3976	-5452	12	-47	-133	-1624	-508	17028	163	12	49	125	117	5
-11372	-3068	10796	-116	177	-182	-15700	1484	-5380	59	-15	175	-2756	-5348	15712	7	-111	167	-10356	1572	13068	111	-61	-154	-14680	-3968	-5428	1	-51	-109	-1592	-512	16976	182	-15	78	125	116	5
-11404	-3064	10832	-92	141	-175	-15624	1532	-5440	46	-12	177	-2756	-5352	15608	41	-125	189	-10432	1524	13060	119	-56	-165	-14780	-3912	-5356	18	-28	-51	-1628	-580	16956	171	-25	49	125	116	5
-11364	-3092	10744	-108	150	-177	-15688	1488	-5484	67	1	154	-2752	-5396	15664	47	-119	142	-10400	1528	13096	108	-47	-153	-14740	-3976	-5488	-4	-57	-121	-1624	-580	16964	201	-31	51	125	116	5
-11384	-3052	10800	-115	110	-129	-15664	1556	-5436	49	-33	133	-2708	-5324	15696	-2	-122	195	-10472	1452	13116	127	-20	-159	-14732	-3988	-5468	-9	-45	-84	-1604	-580	16988	178	-14	53	125	116	5
-11456	-3104	10824	-91	138	-146	-15648	1624	-5312	56	-30	114	-2780	-5348	15636	31	-116	145	-10424	1504	13148	114	1	-168	-14752	-3988	-5580	21	-20	-88	-1600	-584	16916	149	-21	52	125	116	5
-11352	-3064	10868	-98	148	-186	-15628	1524	-5368	56	-30	159	-2768	-5276	15620	46	-128	175	-10404	1536	13084	101	-28	-131	-14744	-4004	-5456	8	-40	-96	-1604	-528	17040	180	-2	68	125	117	5
-11372	-3084	10832	-119	134	-166	-15648	1556	-5380	49	-31	132	-2832	-5292	15692	31	-171	165	-10376	1544	13056	111	16	-146	-14816	-3916	-5372	11	-35	-77	-1600	-504	17020	207	-9	54	125	116	5
-11360	-3072	10768	-124	153	-167	-15640	1608	-5444	48	-24	136	-2792	-5340	15576	5	-107	156	-10444	1588	13180	97	-34	-180	-14732	-3976	-5456	-10	-38	-68	-1652	-540	17028	186	-40	51	124	116	5
-11352	-3072	10880	-79	144	-152	-15684	1476	-5412	96	-4	131	-2744	-5332	15640	17	-127	195	-10400	1576	13188	143	-28	-121	-14740	-3916	-5592	28	-17	-40	-1644	-564	16992	204	-43	68	125	116	5
-11332	-3072	10812	-102	131	-164	-15644	1512	-5584	29	-1	127	-2776	-5312	15664	42	-125	189	-10404	1484	13136	120	-63	-160	-14732	-3940	-5484	59	-64	-54	-1720	-560	16932	174	-14	50	125	116	5
-11388	-3120	10800	-135	133	-150	-15696	1560	-5396	42	-16	156	-2756	-5364	15600	37	-137	173	-10368	1556	13148	124	-59	-152	-14808	-3988	-5452	8	-49	-67	-1680	-648	17036	200	15	57	125	116	5
-11396	-3092	10800	-104	172	-138	-15620	1588	-5444	80	-14	173	-2784	-5340	15648	11	-109	153	-10388	1548	13112	116	-48	-155	-14740	-3964	-5436	1	-43	-119	-1620	-580	17020	170	-1	82	125	116	5
-11344	-3084	10828	-88	151	-116	-15668	1536	-5400	42	-28	133	-2792	-5324	15636	51	-102	147	-10432	1572	13196	88	3	-151	-14680	-3992	-5560	-13	-58	-76	-1624	-568	17040	161	-6	39	125	116	5
-11380	-3116	10744	-96	152	-152	-15656	1516	-5356	84	10	133	-2740	-5360	15612	52	-110	142	-10368	1552	13128	115	-15	-149	-14712	-4008	-5344	-1	-40	-130	-1568	-516	16988	154	-12	55	125	117	5
-11396	-3080	10836	-105	156	-148	-15644	1536	-5440	20	1	145	-2828	-5368	15660	42	-117	164	-10452	1540	13148	112	-19	-158	-14768	-3960	-5444	9	-43	-93	-1648	-528	17092	137	17	55	125	117	5
-11360	-3060	10816	-138	150	-173	-15672	1528	-5492	56	-12	121	-2780	-5284	15676	48	-132	142	-10424	1500	13108	136	6	-133	-14724	-3944	-5356	21	-37	-81	-1716	-572	17052	195	-13	53	125	117	5
-11352	-3040	10848	-103	143	-172	-15704	1552	-5452	49	-7	127	-2716	-5368	15672	28	-112	148	-10356	1520	13180	101	-12	-161	-14700	-3920	-5412	24	-40	-101	-1520	-556	16960	146	-5	56	125	116	5
-11384	-3108	10792	-113	143	-172	-15600	1572	-5296	50	8	125	-2712	-5320	15456	38	-114	173	-10492	1536	13208	87	-26	-181	-14728	-3964	-5460	41	-26	-67	-1676	-620	16952	160	-3	57	125	116	5
-11392	-3028	10788	-96	168	-172	-15656	1528	-5416	78	16	160	-2784	-5348	15688	4	-126	160	-10348	1524	13156	91	-20	-159	-14708	-4052	-5496	-15	-73	-66	-1612	-568	16956	185	35	39	125	117	5
-11372	-3092	10836	-95	139	-129	-15644	1540	-5448	102	-15	152	-2752	-5308	15692	4	-125	193	-10380	1600	13168	119	-11	-158	-14744	-3928	-5388	-12	-43	-79	-1608	-568	17032	193	-33	35	125	117	5
-11344	-3036	10864	-102	150	-178	-15628	1572	-5480	91	19	165	-2788	-5348	15648	24	-137	152	-10312	1564	13156	66	-11	-149	-14800	-3952	-5460	-30	-39	-42	-1664	-544	16916	169	-22	2	125	116	5
-11404	-3184	10728	-100	130	-189	-15696	1560	-5380	69	26	188	-2828	-5308	15596	50	-140	178	-10444	1540	13068	94	-17	-160	-14712	-3960	-5532	-26	17	-69	-1668	-552	17012	191	-40	31	125	117	5
-11364	-3072	10824	-85	110	-137	-15648	1548	-5472	89	16	177	-2776	-5284	15608	70	-119	141	-10412	1548	13140	110	-40	-139	-14704	-3992	-5480	2	29	-91	-1704	-588	17072	201	2	44	125	116	5
-11356	-3108	10828	-74	125	-139	-15656	1580	-5336	57	1	159	-2800	-5316	15576	26	-147	160	-10396	1496	13064	100	-25	-156	-14752	-3880	-5556	-22	-40	-66	-1664	-596	17000	201	-20	52	125	116	5
-11384	-3080	10768	-93	133	-167	-15664	1568	-5460	94	-43	145	-2844	-5260	15696	34	-112	168	-10332	1552	13184	101	1	-176	-14692	-4004	-5532	28	-14	-96	-1696	-520	17012	183	18	79	125	116	5
-11368	-3072	10772	-105	110	-150	-15640	1548	-5452	68	-23	166	-2776	-5264	15564	46	-123	152	-10352	1540	13068	90	0	-148	-14688	-4016	-5472	34	-19	-98	-1672	-552	16968	171	0	89	125	116	5
-11388	-3096	10784	-103	131	-159	-15644	1592	-5464	30	-56	123	-2824	-5324	15660	45	-118	183	-10340	1532	13264	108	-27	-153	-14728	-3996	-5532	-1	-63	-91	-1720	-560	16996	189	6	85	124	116	5
-11396	-3096	10812	-109	109	-174	-15676	1564	-5516	73	-82	106	-2748	-5260	15652	47	-132	182	-10440	1552	13096	100	-22	-119	-14760	-3944	-5412	17	-95	-57	-1632	-552	17076	175	26	90	124	116	5
-11372	-3088	10796	-97	137	-159	-15628	1512	-5464	79	-47	139	-2740	-5396	15580	71	-89	187	-10432	1624	13076	103	-20	-129	-14752	-3956	-5488	8	-74	-70	-1648	-512	16976	99	2	60	125	116	5
-11372	-3148	10764	-129	152	-170	-15608	1544	-5436	75	-86	122	-2800	-5300	15576	44	-123	150	-10388	1492	13168	103	-26	-138	-14760	-3944	-5484	14	-54	-72	-1580	-504	16968	152	12	77	125	116	5
-11404	-3052	10784	-133	143	-181	-15644	1604	-5292	51	-68	128	-2800	-5352	15628	39	-92	130	-10444	1580	13124	117	-36	-144	-14744	-4000	-5360	17	-75	-66	-1552	-560	16884	134	-38	64	125	117	5
-11344	-3132	10892	-124	162	-157	-15764	1540	-5348	42	-64	116	-2756	-5340	15524	-1	-134	172	-10304	1536	13168	109	-23	-180	-14744	-3984	-5360	24	-55	-67	-1508	-548	16992	163	-23	66	125	117	5
-11360	-3036	10756	-160	133	-177	-15640	1564	-5476	28	-54	127	-2680	-5316	15668	45	-151	153	-10432	1496	13124	90	-4	-168	-14720	-3984	-5404	44	-53	-72	-1540	-520	17036	132	-4	55	125	116	5
-11340	-3080	10764	-114	106	-167	-15656	1512	-5428	64	11	129	-2712	-5360	15628	32	-155	150	-10408	1544	13036	97	-62	-146	-14732	-3956	-5496	32	-1	-78	-1568	-604	16936	158	-18	49	125	116	5
-11332	-3088	10768	-111	134	-159	-15712	1516	-5392	78	53	157	-2724	-5388	15684	27	-113	152	-10356	1576	13060	112	12	-139	-14756	-3948	-5524	35	-6	-87	-1640	-532	16980	148	-21	61	125	116	5
-11344	-3088	10904	-131	137	-154	-15652	1536	-5476	88	-20	171	-2752	-5340	15632	17	-142	153	-10424	1592	13180	125	-33	-160	-14696	-4000	-5468	9	-45	-53	-1668	-576	17064	202	-17	47	125	116	5
-11348	-3068	10828	-83	125	-133	-15660	1528	-5456	52	-1	183	-2792	-5268	15620	-19	-121	150	-10476	1524	13064	114	-23	-147	-14656	-3948	-5596	18	-18	-127	-1612	-548	17056	165	-40	82	125	117	5
-11364	-3032	10852	-103	156	-173	-15604	1548	-5468	73	-6	164	-2780	-5296	15612	-16	-144	169	-10400	1544	13044	109	-16	-163	-14744	-4008	-5548	-17	3	-106	-1644	-548	17044	140	9	51	125	116	5
-11404	-3040	10828	-139	125	-168	-15672	1556	-5480	49	-8	135	-2848	-5328	15620	34	-143	182	-10420	1536	13160	113	-27	-160	-14736	-3984	-5520	16	-24	-85	-1688	-572	16996	171	-2	66	125	116	5
-11300	-3064	10780	-74	114	-133	-15676	1524	-5472	24	-8	126	-2768	-5284	15728	43	-107	201	-10408	1576	13076	96	-38	-168	-14748	-3980	-5500	-6	-45	-107	-1612	-568	17012	132	-40	76	125	117	5
-11348	-3080	10924	-80	125	-149	-15676	1604	-5424	34	4	154	-2768	-5316	15740	36	-127	167	-10388	1568	13028	114	-15	-182	-14660	-3996	-5480	48	-64	-62	-1624	-592	16984	158	6	73	125	116	5
-11332	-3052	10916	-110	148	-150	-15632	1552	-5384	52	-17	173	-2716	-5308	15540	2	-120	164	-10456	1528	13104	106	-51	-147	-14716	-3988	-5336	5	-43	-52	-1688	-548	16956	173	-26	65	125	116	5
-11308	-3084	10824	-88	134	-134	-15680	1624	-5532	41	-38	120	-2712	-5248	15676	-11	-107	168	-10432	1588	13132	104	-25	-142	-14768	-3972	-5452	-3	-70	-61	-1620	-576	16940	181	-8	81	125	116	5
-11336	-3112	10848	-133	145	-148	-15636	1512	-5464	69	-37	121	-2744	-5320	15572	37	-124	159	-10448	1532	13120	120	-63	-144	-14692	-3960	-5340	12	-29	-34	-1652	-564	17052	152	-63	48	125	116	5
-11344	-3092	10788	-93	153	-177	-15712	1592	-5464	44	-16	137	-2732	-5336	15588	94	-146	205	-10424	1452	13072	122	-33	-132	-14744	-3976	-5412	30	-70	-67	-1604	-564	16932	148	3	46	125	116	5
-11360	-3056	10772	-133	138	-170	-15660	1492	-5576	45	-19	124	-2692	-5244	15708	-7	-99	172	-10420	1520	13076	85	-59	-163	-14816	-3972	-5368	35	-65	-79	-1604	-584	17000	164	15	66	125	116	5
-11340	-3136	10832	-114	138	-166	-15664	1516	-5400	37	8	114	-2764	-5340	15560	-35	-130	150	-10388	1456	13092	118	3	-159	-14748	-3920	-5444	17	-17	-111	-1608	-596	17068	206	-7	62	125	116	5
-11360	-3068	10752	-124	129	-147	-15608	1528	-5456	54	-12	125	-2756	-5352	15644	-8	-105	184	-10364	1528	13188	107	-15	-185	-14776	-3960	-5572	-10	-53	-95	-1608	-584	16876	171	-45	81	125	116	5
-11384	-3084	10664	-112	124	-168	-15652	1576	-5384	69	31	164	-2724	-5372	15568	10	-151	205	-10316	1476	13112	139	-48	-159	-14768	-3980	-5548	16	-59	-68	-1676	-628	17012	173	-29	71	125	116	5
-11424	-3140	10880	-117	146	-168	-15632	1508	-5456	53	4	149	-2736	-5344	15564	24	-132	202	-10368	1464	13100	147	-5	-179	-14724	-3980	-5428	10	-57	-52	-1620	-568	16832	193	-26	58	125	116	5
-11348	-3048	10808	-82	133	-189	-15640	1572	-5464	71	-24	144	-2780	-5380	15708	66	-124	163	-10396	1564	13156	90	-65	-164	-14676	-3940	-5448	30	-73	-33	-1608	-548	16892	172	-24	70	125	117	5
-11276	-3152	10852	-123	152	-165	-15636	1536	-5384	53	-40	159	-2796	-5324	15608	26	-128	193	-10400	1584	13060	60	-16	-152	-14728	-3960	-5476	53	-28	-80	-1616	-508	17004	181	-21	64	125	116	5
-11288	-3128	10816	-110	130	-133	-15668	1520	-5268	54	-40	145	-2696	-5260	15608	36	-124	131	-10380	1544	13180	89	1	-122	-14728	-3972	-5404	7	-76	-98	-1612	-512	17084	138	-28	90	125	116	5
-11408	-3044	10808	-118	148	-155	-15644	1556	-5392	54	0	178	-2748	-5280	15596	43	-125	173	-10388	1604	13144	119	-58	-167	-14768	-3952	-5484	1	-55	-74	-1716	-484	16912	136	-20	46	125	116	5
-11364	-3140	10760	-171	136	-164	-15656	1572	-5416	65	-54	163	-2716	-5272	15580	23	-114	166	-10520	1540	13112	139	-24	-157	-14752	-4032	-5492	30	-31	-122	-1672	-524	16976	176	-19	66	125	116	5
-11336	-3100	10780	-104	158	-167	-15664	1612	-5512	44	-29	140	-2796	-5272	15648	6	-123	153	-10416	1520	13228	106	-54	-129	-14760	-3984	-5420	5	-87	-91	-1636	-512	17040	152	-13	65	125	116	5
-11332	-3116	10884	-103	141	-136	-15624	1540	-5424	70	-47	114	-2736	-5316	15624	75	-132	176	-10412	1596	13140	112	5	-151	-14764	-3988	-5364	45	-16	-83	-1652	-536	17020	150	-7	67	125	116	5
-11400	-3116	10756	-120	163	-173	-15652	1604	-5388	69	-9	127	-2760	-5364	15632	40	-121	175	-10368	1584	13116	109	-35	-133	-14692	-3980	-5568	-2	-66	-100	-1676	-508	16948	164	-11	76	125	116	5
-11324	-3068	10892	-125	144	-178	-15684	1624	-5464	36	-22	117	-2804	-5284	15588	-24	-126	155	-10416	1512	13104	87	-43	-132	-14716	-3980	-5452	-18	-58	-89	-1612	-528	16964	169	4	76	125	117	5
-11392	-3164	10712	-85	147	-173	-15688	1572	-5400	44	18	132	-2756	-5360	15712	-14	-112	173	-10436	1528	13176	92	-11	-156	-14748	-3984	-5400	56	-58	-80	-1600	-532	16964	131	-2	96	125	116	5
-11344	-3036	10728	-133	119	-140	-15660	1584	-5328	82	-16	129	-2712	-5308	15552	-9	-137	171	-10312	1548	13120	132	-36	-145	-14696	-3964	-5372	-27	-79	-78	-1608	-536	16988	169	-2	56	125	116	5
-11296	-3076	10812	-88	121	-175	-15640	1552	-5440	74	4	151	-2696	-5348	15568	12	-116	168	-10420	1572	13220	128	-13	-150	-14708	-3948	-5348	5	-43	-64	-1536	-584	16980	144	-2	39	125	116	5
-11372	-3124	10896	-141	145	-144	-15604	1552	-5396	68	12	132	-2648	-5352	15656	10	-123	175	-10428	1532	13184	98	-35	-171	-14744	-3956	-5512	-7	10	-74	-1580	-604	16904	136	-30	68	124	116	5
-11400	-3124	10788	-93	170	-127	-15644	1540	-5496	62	15	169	-2700	-5368	15640	52	-152	175	-10428	1572	13200	112	-68	-150	-14716	-3912	-5472	-30	-41	-87	-1608	-544	16928	160	11	59	125	116	5
-11368	-3104	10788	-85	129	-144	-15604	1508	-5340	79	21	136	-2788	-5360	15572	45	-162	160	-10352	1508	13088	108	-15	-163	-14816	-4016	-5576	-29	-24	-44	-1584	-632	16980	199	-43	29	124	116	5
-11396	-3080	10852	-95	116	-145	-15652	1492	-5472	91	13	141	-2804	-5388	15576	23	-139	209	-10372	1604	13136	97	-49	-192	-14728	-3976	-5500	32	-16	-90	-1616	-540	16940	149	-16	27	125	116	5
-11412	-3124	10780	-76	118	-158	-15612	1564	-5516	92	-17	172	-2828	-5332	15584	55	-102	188	-10412	1532	13052	104	9	-148	-14680	-3996	-5500	-6	-17	-66	-1660	-548	17004	137	2	69	125	117	5
-11372	-3096	10712	-115	130	-156	-15668	1588	-5428	73	-40	143	-2760	-5308	15508	40	-119	169	-10360	1508	13180	144	8	-157	-14736	-3968	-5476	-19	-51	-55	-1788	-548	16928	209	10	44	125	116	5
-11340	-3096	10976	-110	121	-171	-15624	1556	-5316	57	-30	134	-2780	-5320	15576	20	-98	133	-10416	1500	13124	103	32	-140	-14724	-3984	-5428	-13	-56	-47	-1704	-500	16964	207	-22	71	125	117	5
-11328	-3092	10944	-105	128	-182	-15660	1552	-5516	55	-66	144	-2788	-5316	15648	32	-129	170	-10420	1500	13140	82	-3	-155	-14756	-4008	-5384	-31	-87	-80	-1624	-508	17032	207	-11	42	125	116	5
-11348	-3008	10852	-126	146	-146	-15592	1512	-5424	44	-100	145	-2772	-5368	15528	55	-99	149	-10436	1580	13100	104	-13	-135	-14724	-3972	-5440	-6	-78	-60	-1576	-548	17020	145	-13	55	125	116	5
-11300	-3128	10808	-103	143	-154	-15636	1556	-5348	65	-34	120	-2728	-5328	15580	54	-114	171	-10308	1540	13240	125	-103	-138	-14660	-3952	-5372	-3	-91	-75	-1700	-584	17016	104	2	30	125	117	5
-11364	-3092	10776	-113	132	-167	-15676	1596	-5428	54	-74	127	-2712	-5368	15552	42	-133	167	-10480	1512	13172	145	-79	-149	-14692	-3992	-5396	81	-88	-63	-1596	-540	17060	177	-11	59	125	116	5
-11352	-3088	10880	-80	144	-162	-15628	1600	-5428	17	-21	121	-2776	-5328	15664	5	-116	175	-10368	1548	13064	114	-87	-163	-14732	-3996	-5360	66	-80	-44	-1612	-552	16968	197	15	39	125	117	5
-11328	-3048	10756	-123	156	-169	-15640	1504	-5348	63	-21	119	-2712	-5412	15568	-12	-78	189	-10388	1580	13136	112	-65	-139	-14784	-3972	-5556	37	-56	-52	-1604	-552	16976	148	15	73	125	116	5
-11396	-3044	10816	-137	140	-162	-15676	1536	-5352	54	-34	155	-2780	-5352	15636	-13	-119	176	-10372	1552	13000	96	-37	-135	-14692	-4032	-5592	13	-68	-165	-1632	-596	17040	157	27	66	125	116	5
-11396	-3100	10748	-120	156	-172	-15680	1492	-5404	88	9	115	-2748	-5316	15612	9	-126	187	-10468	1600	13104	94	-42	-137	-14772	-3980	-5468	13	-14	-95	-1552	-576	16912	171	-12	85	125	116	5
-11336	-3040	10828	-93	157	-145	-15704	1508	-5320	69	-37	102	-2808	-5364	15720	22	-116	193	-10368	1588	13192	107	-21	-181	-14692	-3988	-5504	36	-60	-61	-1684	-572	16988	136	-15	55	125	116	5
-11356	-3080	10748	-135	123	-156	-15612	1508	-5344	49	-7	101	-2796	-5388	15572	31	-154	179	-10404	1588	13044	80	-80	-187	-14688	-3984	-5464	1	-27	-132	-1612	-496	16904	148	-3	66	125	116	5
-11432	-3068	10844	-114	154	-157	-15752	1560	-5420	57	27	132	-2688	-5356	15684	24	-130	170	-10368	1472	13156	104	-28	-137	-14760	-3988	-5380	-17	-32	-58	-1596	-568	16904	149	1	63	125	116	5
-11364	-3088	10784	-96	138	-184	-15624	1516	-5448	34	29	154	-2744	-5356	15656	-18	-124	170	-10348	1524	13128	99	-38	-132	-14736	-4020	-5536	20	-38	-82	-1644	-612	17008	134	-9	76	125	116	5
-11388	-3084	10768	-101	159	-189	-15620	1524	-5444	73	-3	157	-2776	-5348	15660	22	-152	172	-10404	1588	13224	83	7	-142	-14740	-4004	-5404	-12	-19	-85	-1652	-588	17000	161	-21	35	124	116	5
-11352	-3048	10824	-95	145	-172	-15740	1556	-5488	77	-8	131	-2792	-5384	15688	45	-131	175	-10396	1476	13176	115	-24	-168	-14732	-4040	-5496	6	-54	-109	-1688	-568	16940	157	-24	17	124	116	5
-11328	-3116	10812	-114	134	-160	-15616	1512	-5544	38	6	140	-2760	-5340	15652	27	-109	174	-10344	1544	13044	105	-21	-160	-14724	-3980	-5412	-13	-23	-120	-1636	-576	16952	176	30	48	124	116	5
-11368	-3032	10888	-137	137	-148	-15684	1616	-5420	94	6	152	-2844	-5284	15620	34	-139	170	-10372	1500	13132	136	42	-155	-14744	-3968	-5476	-10	-49	-96	-1676	-552	16908	190	0	42	124	116	5
-11356	-3084	10784	-122	146	-171	-15632	1540	-5536	53	-17	121	-2700	-5344	15644	12	-134	174	-10360	1536	13172	52	-52	-150	-14736	-4024	-5480	-11	-36	-100	-1604	-600	16920	168	-38	49	124	116	5
-11308	-3072	10852	-150	149	-148	-15680	1576	-5576	54	-59	185	-2824	-5372	15532	45	-129	185	-10400	1528	13156	134	-32	-131	-14748	-3952	-5544	0	-53	-98	-1608	-540	16968	164	-24	45	124	116	5
-11328	-3084	10768	-86	124	-157	-15700	1588	-5480	35	-15	141	-2744	-5336	15672	20	-143	159	-10344	1572	13212	129	-17	-134	-14680	-3988	-5432	10	-19	-77	-1632	-612	17008	166	17	58	124	116	5
-11424	-3128	10932	-112	142	-153	-15592	1560	-5364	78	-31	149	-2736	-5380	15568	25	-126	169	-10400	1596	13124	126	-29	-152	-14688	-3924	-5416	-6	-74	-48	-1640	-628	17108	165	-28	65	124	116	5
-11412	-3072	10768	-133	158	-167	-15636	1532	-5356	43	3	102	-2772	-5284	15508	-12	-105	169	-10432	1524	13128	86	-54	-123	-14792	-4040	-5360	8	-59	-89	-1604	-552	16920	193	-26	62	124	116	5
-11352	-3096	10920	-94	159	-137	-15700	1532	-5464	65	-21	133	-2756	-5360	15592	25	-124	179	-10356	1572	13156	100	-34	-174	-14684	-3984	-5360	0	-54	-86	-1668	-604	16916	204	-14	59	124	116	5
-11376	-3060	10836	-98	135	-169	-15700	1600	-5356	71	-42	141	-2724	-5332	15664	29	-105	138	-10384	1536	13064	92	-35	-169	-14720	-3996	-5384	24	-38	-91	-1664	-616	16988	176	-18	62	124	116	5
-11368	-3060	10820	-98	115	-189	-15668	1572	-5408	53	-15	117	-2688	-5356	15560	32	-125	172	-10372	1584	13120	84	-51	-148	-14704	-3952	-5452	24	-43	-79	-1612	-544	16968	152	-25	52	124	116	5
-11292	-3100	10844	-90	118	-143	-15652	1524	-5476	44	9	140	-2756	-5348	15664	10	-120	190	-10368	1540	13052	99	-29	-178	-14712	-4004	-5392	-5	-47	-113	-1612	-516	16980	132	1	44	124	116	5
-11280	-3072	10800	-94	140	-146	-15636	1556	-5548	55	22	130	-2656	-5396	15628	8	-107	164	-10440	1484	13064	66	-4	-137	-14756	-3952	-5476	-13	-19	-84	-1596	-540	16988	157	23	73	124	116	5
-11360	-3156	10708	-121	158	-204	-15688	1580	-5396	52	-46	158	-2736	-5372	15624	29	-121	171	-10376	1564	13108	107	-53	-186	-14680	-3972	-5520	37	-30	-119	-1700	-592	16976	142	17	100	124	116	5
-11368	-3028	10748	-106	121	-137	-15644	1492	-5492	47	-19	155	-2768	-5380	15724	31	-122	176	-10396	1556	13192	114	-20	-142	-14668	-3992	-5500	0	-54	-82	-1636	-500	16964	164	-20	85	124	116	5
-11368	-3088	10780	-78	119	-162	-15648	1604	-5408	65	-40	168	-2776	-5312	15624	29	-119	169	-10388	1564	13052	110	-5	-149	-14668	-3972	-5316	27	-47	-81	-1580	-552	16980	167	-6	57	124	116	5
-11364	-3036	10816	-107	144	-146	-15652	1560	-5460	72	-3	132	-2732	-5320	15644	1	-140	226	-10364	1560	13216	107	-50	-151	-14700	-4028	-5452	13	-50	-80	-1612	-612	17048	138	-22	63	124	116	5
-11420	-3032	10800	-80	149	-173	-15696	1568	-5488	32	-13	124	-2756	-5328	15652	-13	-109	156	-10432	1596	13140	107	-9	-163	-14752	-4028	-5452	78	-60	-72	-1676	-564	16916	165	1	47	125	116	5
-11364	-3144	10864	-126	120	-166	-15620	1564	-5504	57	-29	150	-2748	-5368	15616	46	-111	169	-10404	1512	13256	111	-63	-152	-14708	-4072	-5400	41	-73	-70	-1668	-628	16940	174	-12	61	124	116	5
-11360	-3032	10788	-102	156	-171	-15644	1528	-5408	57	-41	144	-2760	-5348	15676	39	-122	148	-10376	1596	13148	123	-20	-141	-14740	-3940	-5456	10	-68	-61	-1548	-612	16988	179	-7	13	124	116	5
-11344	-3108	10824	-122	135	-162	-15696	1520	-5448	51	-49	139	-2764	-5352	15660	31	-128	131	-10340	1572	13068	75	-15	-147	-14720	-3992	-5440	-63	-62	-94	-1564	-592	17048	182	0	39	124	116	5
-11324	-3040	10764	-83	152	-155	-15648	1608	-5284	91	-9	189	-2724	-5356	15652	-9	-140	185	-10416	1532	13184	78	-68	-154	-14740	-4028	-5368	-15	-57	-74	-1512	-592	17040	144	-8	53	124	116	5
-11384	-3092	10820	-96	179	-154	-15712	1536	-5444	49	30	99	-2708	-5316	15512	22	-176	168	-10464	1592	13128	102	0	-187	-14748	-3984	-5440	6	-1	-78	-1636	-484	17024	148	-13	33	125	116	5
-11440	-3076	10792	-100	144	-144	-15736	1596	-5352	50	-15	153	-2768	-5352	15656	51	-114	173	-10304	1568	13064	129	-20	-144	-14780	-3956	-5564	9	-39	-74	-1664	-560	17112	182	-27	18	125	116	5
-11420	-3072	10756	-114	110	-163	-15664	1560	-5444	63	28	121	-2788	-5352	15632	33	-124	194	-10452	1540	13120	105	-7	-194	-14664	-3920	-5444	33	-17	-92	-1704	-552	17064	148	-3	80	125	116	5
-11412	-3060	10836	-112	125	-146	-15556	1536	-5448	71	-23	134	-2788	-5284	15584	21	-134	186	-10416	1524	13240	97	-40	-157	-14684	-3988	-5376	-4	-50	-65	-1684	-524	16936	190	23	63	125	116	5
-11372	-3048	10756	-78	133	-148	-15676	1600	-5468	63	-70	144	-2888	-5348	15616	-33	-123	186	-10380	1488	13136	100	37	-130	-14756	-3940	-5556	-15	8	-96	-1720	-596	16944	155	31	65	125	116	5
-11348	-3084	10852	-131	140	-152	-15660	1568	-5408	56	-23	93	-2756	-5408	15696	-18	-106	171	-10408	1568	13184	94	-46	-185	-14732	-3972	-5404	1	-43	-78	-1692	-540	17048	192	-30	80	124	116	5
-11328	-3028	10796	-104	158	-155	-15628	1488	-5448	47	-48	83	-2784	-5368	15608	-34	-153	172	-10340	1540	13132	120	-34	-149	-14704	-3968	-5384	-14	-111	-100	-1672	-556	16984	156	-13	50	124	116	5
-11400	-3120	10792	-127	137	-173	-15672	1528	-5400	84	-46	119	-2764	-5368	15548	24	-122	182	-10408	1584	13084	121	-38	-144	-14712	-3920	-5556	-1	-80	-91	-1692	-548	16992	114	-18	28	125	116	5
-11392	-3084	10800	-130	114	-171	-15656	1532	-5380	53	-55	130	-2732	-5364	15628	70	-129	140	-10376	1568	13056	120	35	-160	-14700	-4000	-5416	7	-55	-54	-1652	-600	16968	107	-11	61	125	116	5
-11348	-3084	10752	-117	134	-186	-15652	1464	-5364	64	-43	129	-2744	-5324	15664	36	-128	178	-10436	1520	13080	92	-81	-127	-14704	-3976	-5300	27	-46	-97	-1620	-496	16912	178	3	73	124	116	5
-11348	-3036	10744	-114	131	-144	-15672	1512	-5488	55	-61	133	-2728	-5276	15616	-11	-121	149	-10448	1572	13080	109	-71	-170	-14744	-3996	-5416	4	-81	-79	-1628	-552	16952	166	-8	39	124	116	5
-11316	-3164	10760	-77	135	-164	-15684	1568	-5420	17	-44	122	-2728	-5380	15644	28	-119	163	-10384	1600	12984	94	-62	-145	-14648	-4000	-5396	68	-35	-70	-1632	-548	17008	162	-39	49	124	116	5
-11364	-3132	10784	-135	152	-137	-15640	1532	-5352	68	-84	117	-2760	-5308	15628	69	-131	164	-10344	1572	13172	95	-42	-151	-14744	-3968	-5472	12	-36	-64	-1580	-508	16920	121	8	68	125	116	5
-11408	-3012	10872	-113	162	-141	-15688	1564	-5404	53	-14	133	-2720	-5344	15608	28	-128	168	-10352	1568	13136	93	-24	-153	-14816	-3928	-5436	-1	-70	-109	-1616	-556	17028	155	25	24	125	116	5
-11336	-3072	10776	-93	127	-153	-15620	1584	-5348	56	-40	155	-2768	-5368	15536	25	-121	152	-10388	1596	13124	109	-4	-176	-14748	-3896	-5520	-5	-21	-109	-1596	-604	17096	174	-17	41	125	116	5
-11388	-3104	10780	-150	178	-145	-15644	1568	-5504	46	0	111	-2720	-5408	15644	-34	-140	184	-10412	1564	13064	123	-99	-182	-14716	-3956	-5392	13	-31	-78	-1612	-568	17060	196	-2	28	125	116	5
-11372	-3076	10780	-104	133	-183	-15680	1568	-5408	60	-17	121	-2712	-5324	15640	27	-149	190	-10408	1544	13020	83	-57	-159	-14720	-3976	-5440	20	-26	-121	-1680	-624	17060	195	33	71	125	116	5
-11396	-3028	10796	-96	139	-111	-15644	1524	-5516	43	-9	121	-2628	-5292	15648	44	-122	198	-10372	1560	13172	92	4	-145	-14700	-3976	-5476	1	-1	-34	-1588	-624	17052	172	-32	28	125	116	5
-11444	-3108	10864	-88	102	-176	-15688	1568	-5304	94	14	160	-2696	-5372	15564	22	-92	166	-10420	1528	13100	83	-38	-157	-14684	-4008	-5492	11	-34	-48	-1620	-564	16980	171	-22	43	125	116	5
-11336	-3064	10848	-99	144	-170	-15672	1548	-5364	51	35	181	-2736	-5368	15592	0	-120	194	-10412	1484	13192	114	-69	-157	-14740	-3936	-5476	1	-49	-96	-1660	-528	17016	154	27	42	125	116	5
-11404	-3160	10720	-130	130	-180	-15672	1544	-5364	75	8	165	-2700	-5316	15540	-11	-133	184	-10440	1548	13132	125	-41	-190	-14780	-4000	-5544	16	-22	-36	-1652	-524	16944	189	-37	22	125	116	5
-11336	-3092	10888	-93	134	-143	-15768	1524	-5440	75	38	144	-2796	-5388	15560	9	-149	180	-10416	1560	13120	100	6	-171	-14708	-4012	-5388	-15	-62	-95	-1704	-588	16968	181	-32	61	125	116	5
-11352	-3060	10820	-99	139	-172	-15688	1548	-5400	85	26	148	-2716	-5404	15576	6	-119	156	-10356	1608	13136	93	-68	-136	-14744	-3976	-5480	58	-19	-60	-1628	-536	17060	146	-5	73	124	116	5
-11352	-3060	10752	-87	148	-140	-15588	1612	-5488	47	-11	176	-2764	-5400	15532	39	-132	154	-10448	1552	13132	101	-56	-139	-14736	-3964	-5572	-32	-48	-123	-1644	-548	16940	150	-8	50	125	116	5
-11344	-3148	10804	-117	134	-164	-15672	1568	-5464	48	-17	175	-2848	-5396	15564	65	-120	176	-10344	1488	13040	87	-16	-135	-14712	-4032	-5396	18	-43	-80	-1684	-560	16944	150	-11	90	125	116	5
-11436	-3048	10896	-141	168	-153	-15708	1576	-5432	41	-29	182	-2792	-5304	15532	56	-103	157	-10400	1580	13020	90	-63	-156	-14708	-3936	-5392	14	-69	-81	-1724	-548	16952	160	10	105	124	116	5
-11416	-3080	10724	-94	134	-160	-15716	1564	-5492	53	-51	158	-2792	-5312	15560	56	-113	129	-10408	1612	13184	138	-63	-157	-14688	-4016	-5420	-16	-92	-151	-1656	-528	16948	167	1	93	124	116	5
-11344	-3088	10816	-88	70	-169	-15652	1536	-5460	30	-41	138	-2752	-5332	15548	15	-119	143	-10460	1572	13100	108	-14	-175	-14728	-3992	-5548	10	-70	-125	-1572	-592	17020	157	-3	81	124	116	5
-11416	-3068	10872	-127	134	-158	-15672	1596	-5408	60	-49	171	-2744	-5296	15656	44	-109	173	-10380	1532	13160	86	15	-165	-14688	-4080	-5436	11	-73	-128	-1588	-568	16948	167	-1	70	124	116	5
-11364	-3168	10760	-95	140	-175	-15660	1500	-5368	38	-69	134	-2764	-5288	15604	14	-114	199	-10420	1556	13176	103	-53	-120	-14760	-4012	-5424	23	-85	-72	-1600	-636	17012	126	-15	64	124	116	5
-11316	-3092	10804	-104	144	-188	-15660	1588	-5404	54	-50	127	-2744	-5300	15652	52	-116	185	-10344	1544	13048	126	-22	-163	-14700	-4048	-5388	21	-77	-94	-1528	-604	17024	149	-13	87	124	116	5
-11364	-3100	10824	-146	140	-178	-15664	1556	-5292	38	-36	141	-2752	-5348	15632	36	-136	178	-10380	1556	13072	90	-17	-143	-14736	-3976	-5452	-12	-73	-83	-1580	-656	16996	185	-13	56	124	116	5
-11356	-3084	10880	-125	128	-161	-15636	1588	-5528	51	-33	138	-2752	-5360	15596	20	-110	177	-10368	1568	13184	88	-23	-148	-14724	-3936	-5480	33	-37	-52	-1628	-600	17008	233	-12	39	125	116	5
-11404	-3044	10824	-118	120	-133	-15644	1516	-5472	34	12	114	-2776	-5380	15668	2	-117	139	-10412	1508	13116	123	-14	-175	-14708	-3984	-5508	-25	-63	-88	-1644	-500	16960	216	-1	34	125	116	5
-11340	-3084	10828	-110	163	-174	-15676	1540	-5396	63	-32	124	-2784	-5376	15672	-14	-149	180	-10412	1576	13060	124	-63	-144	-14732	-4000	-5532	2	-29	-72	-1584	-480	16956	196	11	50	124	116	5
-11400	-3072	10780	-101	127	-125	-15680	1592	-5376	64	6	149	-2748	-5320	15616	18	-120	184	-10372	1576	13152	115	-40	-151	-14776	-3888	-5460	31	-46	-92	-1632	-504	17008	171	-44	60	125	116	5
-11412	-3048	10864	-88	162	-199	-15672	1528	-5424	52	-45	141	-2716	-5356	15640	8	-136	168	-10420	1532	13240	97	-40	-135	-14760	-3956	-5460	8	-50	-72	-1620	-500	16976	180	21	65	125	116	5
-11364	-3076	10836	-139	123	-137	-15616	1536	-5472	81	-15	107	-2724	-5336	15620	40	-102	154	-10360	1580	13148	97	-39	-157	-14720	-3944	-5552	-21	-38	-104	-1560	-548	16876	132	-7	56	125	116	5
-11360	-3068	10852	-102	171	-154	-15648	1524	-5312	79	-7	159	-2764	-5384	15540	9	-116	170	-10396	1496	13240	67	-13	-160	-14668	-3956	-5476	-9	10	-100	-1564	-612	17072	174	-26	39	125	116	5
-11348	-3104	10824	-63	116	-162	-15660	1564	-5396	96	21	136	-2680	-5380	15496	48	-139	185	-10376	1544	13224	81	-27	-157	-14736	-4036	-5360	22	6	-107	-1568	-584	16952	174	-35	49	124	116	5
-11408	-3052	10776	-67	143	-149	-15680	1528	-5356	78	40	159	-2692	-5320	15660	49	-161	194	-10476	1552	13136	64	-69	-143	-14724	-3968	-5376	-43	-13	-113	-1584	-612	17120	180	-3	59	125	116	5
-11360	-3104	10844	-117	131	-148	-15672	1504	-5516	88	28	149	-2708	-5348	15640	58	-145	176	-10392	1516	13088	109	26	-162	-14756	-4056	-5464	-41	0	-75	-1676	-564	16968	178	-50	45	125	116	5
-11360	-3112	10824	-78	121	-152	-15704	1592	-5460	48	2	151	-2780	-5304	15632	41	-128	168	-10388	1512	13116	75	24	-187	-14724	-3920	-5476	-16	0	-54	-1672	-568	16928	194	4	38	125	117	5
-11384	-3100	10704	-91	138	-176	-15628	1600	-5420	55	-9	138	-2856	-5284	15556	20	-82	188	-10336	1532	13172	111	-32	-127	-14736	-3992	-5312	-16	-59	-88	-1752	-580	17084	168	-38	48	125	116	5
-11404	-3128	10816	-113	163	-131	-15716	1532	-5500	53	-12	146	-2784	-5344	15672	-12	-100	174	-10384	1588	13152	135	-7	-173	-14748	-3920	-5476	19	-22	-39	-1760	-460	17048	203	-31	54	124	116	5
-11352	-3008	10836	-107	142	-155	-15648	1552	-5596	65	-14	130	-2780	-5384	15676	-17	-135	170	-10416	1548	13084	119	7	-156	-14732	-4036	-5524	-17	-68	-83	-1696	-580	16968	183	-16	33	125	116	5
-11376	-3056	10724	-125	152	-163	-15616	1512	-5492	65	-21	147	-2812	-5376	15572	24	-133	197	-10380	1600	13132	98	-16	-135	-14756	-3984	-5528	5	-95	-55	-1640	-480	16920	139	-17	37	125	117	5
-11352	-3056	10848	-103	136	-155	-15656	1564	-5432	69	-33	158	-2796	-5364	15444	52	-110	173	-10396	1524	13168	90	-38	-157	-14744	-4000	-5396	15	-101	-77	-1636	-572	17088	122	-16	59	125	116	5
-11388	-3088	10860	-139	150	-171	-15660	1528	-5456	55	-39	143	-2816	-5312	15564	58	-114	170	-10372	1512	13152	130	-51	-147	-14720	-3908	-5460	-3	-92	-74	-1628	-540	17000	153	-67	60	125	116	5
-11320	-3072	10924	-122	150	-182	-15692	1568	-5344	40	-45	143	-2764	-5300	15580	-21	-110	171	-10428	1548	13116	84	-60	-127	-14704	-3928	-5496	20	-58	-84	-1608	-596	16936	163	-13	81	125	116	5
-11372	-3088	10868	-121	146	-172	-15620	1548	-5364	33	-21	141	-2724	-5356	15672	6	-95	128	-10320	1568	13096	112	14	-155	-14688	-3976	-5380	-13	-72	-109	-1624	-596	17080	195	-2	71	125	116	5
-11404	-3080	10788	-131	141	-169	-15640	1572	-5300	25	-33	172	-2676	-5348	15520	4	-110	164	-10440	1536	13148	96	-17	-105	-14748	-3984	-5492	19	-49	-85	-1624	-564	16920	126	-3	67	125	116	5
-11380	-3056	10820	-108	142	-157	-15688	1592	-5392	53	5	142	-2728	-5380	15696	7	-111	163	-10364	1552	13128	124	-46	-158	-14784	-4048	-5504	10	-67	-78	-1608	-576	16996	132	-33	73	125	116	5
-11344	-3056	10752	-150	142	-119	-15640	1496	-5400	75	-39	115	-2756	-5340	15548	67	-128	188	-10432	1588	13172	87	4	-168	-14760	-3980	-5492	15	-55	-67	-1692	-592	16900	199	-12	65	125	117	5
-11320	-3084	10840	-71	143	-158	-15676	1564	-5304	70	19	155	-2744	-5404	15592	17	-127	156	-10352	1528	13108	114	-29	-161	-14688	-3984	-5476	23	-25	-69	-1628	-568	16972	179	-17	39	125	117	5
-11268	-3128	10816	-120	138	-172	-15660	1524	-5336	66	19	136	-2712	-5304	15592	27	-140	174	-10428	1568	13152	112	3	-155	-14712	-4028	-5496	9	-55	-70	-1604	-580	17036	195	-25	65	125	116	5
-11344	-3036	10836	-91	148	-139	-15672	1524	-5396	53	-19	152	-2740	-5336	15608	42	-131	174	-10416	1548	13100	89	-63	-138	-14744	-3960	-5364	7	-45	-89	-1644	-488	16988	172	-24	44	125	116	5
-11324	-3084	10828	-67	155	-171	-15640	1524	-5332	53	-11	135	-2764	-5320	15640	35	-137	154	-10488	1536	13064	100	22	-176	-14664	-3976	-5416	2	-11	-112	-1652	-508	16952	186	-8	48	125	116	5
-11376	-3060	10804	-113	127	-124	-15648	1552	-5352	56	-10	150	-2724	-5332	15708	22	-115	160	-10396	1500	13216	111	11	-171	-14712	-4020	-5516	1	-41	-100	-1644	-536	16972	153	-29	48	125	117	5
-11348	-3056	10876	-110	153	-172	-15684	1568	-5464	36	-5	138	-2748	-5324	15644	31	-115	181	-10424	1596	13156	121	-43	-157	-14740	-3984	-5356	13	-64	-76	-1644	-552	16980	146	-11	58	125	116	5
-11404	-3056	10912	-144	152	-154	-15684	1536	-5476	64	-7	175	-2812	-5320	15612	38	-154	143	-10404	1556	13156	125	-68	-161	-14756	-4000	-5268	-8	-57	-105	-1644	-568	17068	140	-38	51	125	116	5
-11340	-3056	10812	-136	160	-161	-15640	1512	-5576	54	-40	95	-2764	-5300	15652	-5	-129	145	-10416	1496	13124	88	-20	-168	-14728	-4008	-5440	55	-22	-98	-1608	-596	16928	137	6	62	125	116	5
-11328	-3056	10864	-103	133	-141	-15636	1544	-5432	78	-9	132	-2820	-5316	15536	0	-131	158	-10372	1560	13172	92	-44	-174	-14804	-3960	-5488	-2	-67	-79	-1604	-600	17108	129	11	62	125	116	5
-11296	-3044	10748	-112	141	-177	-15660	1576	-5460	61	11	128	-2812	-5336	15616	5	-117	140	-10380	1508	13108	116	-26	-174	-14700	-3944	-5540	3	-49	-93	-1568	-600	17044	172	-21	57	125	116	5
-11352	-3064	10772	-99	142	-146	-15660	1556	-5336	64	6	134	-2760	-5352	15560	31	-126	167	-10376	1540	13100	111	-3	-177	-14736	-3932	-5424	4	-45	-95	-1596	-528	17020	191	-21	71	125	116	5
-11364	-3040	10852	-111	121	-181	-15676	1540	-5364	64	19	179	-2820	-5336	15580	22	-145	154	-10404	1540	13152	72	-29	-175	-14720	-3976	-5340	5	-4	-92	-1708	-560	16948	169	-17	43	125	116	5
-11372	-3068	10764	-104	157	-169	-15680	1556	-5480	42	-9	123	-2784	-5328	15728	38	-138	169	-10288	1580	13156	100	-1	-178	-14752	-4028	-5424	18	-71	-89	-1668	-596	17048	165	-25	51	125	116	5
-11324	-3076	10840	-116	136	-131	-15684	1580	-5440	48	-16	139	-2736	-5372	15588	46	-102	175	-10424	1476	13252	127	3	-155	-14748	-4008	-5384	15	-13	-104	-1660	-568	17020	165	-26	78	125	117	5
-11300	-3032	10756	-128	119	-187	-15688	1592	-5452	56	-32	138	-2792	-5300	15632	38	-126	176	-10392	1548	13052	108	-50	-137	-14712	-4004	-5428	8	-80	-54	-1740	-588	17060	175	-18	49	125	117	5
-11332	-3080	10672	-109	138	-159	-15676	1560	-5332	65	-27	125	-2804	-5392	15628	28	-137	175	-10416	1492	13176	139	-32	-143	-14736	-4052	-5456	9	-55	-81	-1624	-516	16952	186	-12	64	125	117	5
-11408	-3124	10832	-122	151	-176	-15672	1572	-5412	51	-27	159	-2780	-5352	15656	60	-125	178	-10344	1524	13196	108	24	-107	-14732	-3940	-5584	10	-48	-81	-1624	-576	17036	197	-13	90	125	117	5
-11420	-3044	10848	-99	172	-143	-15596	1580	-5512	31	-35	152	-2800	-5288	15668	85	-94	159	-10388	1556	13152	123	-16	-156	-14680	-3928	-5392	-16	-29	-84	-1528	-548	16956	210	-14	60	125	117	5
-11352	-3088	10796	-123	137	-177	-15612	1552	-5452	33	-35	163	-2768	-5368	15752	42	-84	154	-10432	1588	13160	112	20	-165	-14700	-3920	-5452	-5	-66	-80	-1616	-460	17016	185	-7	19	124	116	5
-11356	-3128	10800	-104	138	-144	-15616	1596	-5388	65	-11	145	-2704	-5320	15608	39	-112	143	-10404	1604	13052	95	-10	-150	-14776	-3992	-5504	-20	-24	-80	-1628	-488	16952	154	-20	60	125	116	5
-11336	-3060	10892	-66	139	-154	-15676	1584	-5436	39	-7	142	-2716	-5356	15584	15	-96	173	-10432	1568	13108	141	1	-147	-14772	-3944	-5456	11	-78	-49	-1608	-596	17064	185	1	81	125	116	5
-11332	-3028	10828	-118	140	-134	-15608	1576	-5420	45	-1	159	-2680	-5352	15568	34	-136	144	-10420	1564	13072	118	-14	-155	-14728	-3916	-5440	11	-44	-77	-1648	-532	16968	167	-13	87	125	117	5
-11384	-3116	10832	-105	129	-160	-15556	1536	-5416	58	-21	152	-2716	-5396	15620	23	-143	165	-10440	1552	13180	118	-46	-205	-14732	-3964	-5460	42	-51	-100	-1592	-552	17068	178	-2	49	125	116	5
-11380	-3060	10820	-71	114	-147	-15692	1564	-5368	71	26	158	-2732	-5380	15656	18	-103	179	-10452	1540	13128	115	-45	-185	-14680	-3964	-5344	2	-25	-103	-1596	-556	16964	164	-11	68	125	116	5
-11372	-3012	10920	-99	144	-150	-15672	1528	-5372	58	27	125	-2716	-5360	15548	-1	-126	191	-10380	1512	13140	108	3	-172	-14688	-3936	-5428	-19	-27	-59	-1592	-512	16996	113	-23	47	125	117	5
-11300	-3092	10804	-106	121	-153	-15684	1548	-5384	77	46	153	-2672	-5384	15568	24	-148	167	-10372	1588	13164	101	-5	-161	-14728	-3972	-5548	10	-33	-68	-1640	-632	17040	167	2	86	125	116	5
-11316	-3064	10832	-84	169	-168	-15628	1504	-5376	78	36	168	-2684	-5348	15644	34	-112	171	-10404	1604	13268	116	-30	-154	-14716	-3980	-5560	-17	9	-100	-1688	-632	17124	175	-22	67	125	116	5
-11396	-3076	10796	-77	115	-125	-15676	1504	-5448	100	46	132	-2808	-5396	15664	33	-150	164	-10356	1568	13192	75	-44	-149	-14732	-4024	-5420	-7	-32	-92	-1688	-548	16944	200	-23	74	125	116	5
-11436	-3064	10808	-64	128	-149	-15636	1544	-5504	82	20	131	-2868	-5308	15640	29	-137	166	-10344	1516	13192	89	12	-152	-14712	-4040	-5536	-12	-36	-84	-1676	-568	17012	207	9	19	125	116	5
-11396	-3096	10836	-87	147	-157	-15632	1496	-5516	76	-52	153	-2860	-5344	15632	41	-129	161	-10400	1512	13136	117	-6	-157	-14732	-4004	-5364	17	-11	-68	-1724	-540	17020	176	-22	38	125	116	5
-11372	-3104	10728	-119	134	-170	-15660	1548	-5404	59	-33	116	-2816	-5364	15600	24	-152	164	-10364	1512	13080	134	-8	-141	-14756	-4056	-5544	26	-41	-65	-1708	-584	16956	187	-15	82	125	116	5
-11316	-3080	10816	-113	152	-176	-15612	1544	-5456	50	-51	98	-2756	-5428	15616	6	-109	152	-10344	1532	13108	127	-42	-177	-14708	-4000	-5472	-4	-99	-81	-1692	-540	16984	241	8	68	125	116	5
-11316	-3064	10872	-146	129	-149	-15656	1600	-5424	65	-85	107	-2736	-5384	15620	32	-130	158	-10432	1532	13160	140	-38	-135	-14716	-3964	-5468	12	-90	-68	-1624	-544	17076	224	-21	98	125	116	5
-11380	-3072	10776	-144	132	-171	-15668	1492	-5328	80	-88	114	-2764	-5348	15688	95	-97	205	-10376	1512	13140	129	-47	-128	-14740	-3968	-5556	-15	-100	-44	-1616	-524	16992	163	-16	69	124	116	5
-11336	-3056	10812	-108	112	-162	-15640	1520	-5324	64	-70	154	-2736	-5320	15540	82	-92	161	-10456	1524	13152	129	4	-154	-14760	-4032	-5412	38	-85	-23	-1524	-520	16988	167	-9	53	125	116	5
-11352	-3008	10736	-116	142	-164	-15608	1576	-5388	31	-29	121	-2680	-5296	15600	18	-110	149	-10460	1516	13164	123	-58	-158	-14760	-3964	-5376	22	-72	-74	-1556	-532	17012	148	20	40	125	116	5
-11372	-3148	10916	-123	153	-133	-15672	1636	-5400	48	-33	125	-2636	-5244	15640	-4	-135	165	-10456	1524	13068	136	-54	-167	-14780	-3904	-5392	36	-50	-84	-1540	-592	17028	137	-38	59	125	117	5
-11400	-3124	10748	-100	122	-170	-15572	1608	-5432	34	-6	155	-2648	-5312	15660	-16	-120	155	-10368	1476	13184	111	-15	-164	-14796	-3984	-5380	6	-78	-53	-1524	-552	16960	124	-2	69	125	116	5
-11344	-3060	10860	-129	130	-150	-15680	1512	-5292	62	20	131	-2640	-5292	15668	34	-128	118	-10400	1584	13056	123	-49	-151	-14756	-3976	-5476	12	-29	-106	-1488	-616	16928	182	22	97	125	117	5
-11304	-3088	10760	-101	141	-142	-15612	1560	-5316	49	19	143	-2764	-5376	15660	24	-136	200	-10392	1524	13056	125	-58	-141	-14772	-3944	-5356	33	36	-70	-1600	-524	16944	205	7	59	125	116	5
-11368	-3140	10788	-115	135	-125	-15700	1508	-5440	60	39	170	-2852	-5336	15660	17	-115	206	-10392	1508	13216	119	-61	-198	-14732	-3968	-5404	50	-32	-136	-1668	-608	17096	211	-20	102	125	116	5
-11376	-3156	10724	-100	153	-153	-15612	1504	-5468	84	-16	179	-2808	-5392	15664	30	-150	180	-10332	1568	13024	91	-56	-162	-14716	-3952	-5432	-23	-12	-80	-1716	-584	17004	222	-32	73	125	117	5
-11396	-3068	10780	-68	145	-119	-15592	1556	-5580	54	4	172	-2732	-5332	15628	68	-161	152	-10416	1564	13136	92	-4	-196	-14708	-3996	-5484	39	-20	-117	-1648	-564	16988	165	1	60	125	117	5
-11392	-3040	10792	-80	146	-147	-15684	1596	-5432	33	-3	150	-2820	-5340	15680	61	-149	169	-10416	1516	13132	94	-43	-170	-14732	-3920	-5520	-14	-54	-110	-1680	-508	16916	157	-8	24	125	116	5
-11344	-3008	10784	-94	134	-137	-15644	1668	-5460	35	12	167	-2788	-5312	15568	35	-120	153	-10464	1528	13228	101	17	-144	-14788	-3932	-5524	-3	-27	-127	-1688	-500	17024	170	-10	70	125	116	5
-11404	-3108	10848	-72	129	-136	-15656	1552	-5308	59	-3	143	-2804	-5304	15640	37	-121	138	-10380	1580	13156	109	-57	-152	-14752	-4008	-5424	3	-48	-84	-1700	-560	16952	164	-4	70	125	116	5
-11324	-3096	10784	-117	121	-121	-15640	1612	-5516	45	-19	143	-2816	-5376	15584	23	-123	138	-10436	1508	13152	94	-22	-140	-14744	-4008	-5440	4	-58	-92	-1656	-612	16952	166	-37	84	125	116	5
-11384	-3096	10884	-108	105	-182	-15652	1556	-5392	64	-21	183	-2724	-5388	15600	-2	-116	146	-10368	1512	13164	101	-61	-161	-14748	-3992	-5496	9	-68	-67	-1592	-604	16992	174	-20	63	125	116	5
-11380	-3048	10884	-97	135	-128	-15720	1612	-5452	68	-27	144	-2760	-5412	15608	19	-133	162	-10444	1572	13260	86	-10	-148	-14732	-3924	-5420	-2	-27	-47	-1688	-532	16980	166	12	94	125	116	5
-11364	-3100	10780	-134	135	-181	-15740	1572	-5476	32	-33	107	-2748	-5336	15636	26	-152	154	-10380	1568	13132	122	-46	-189	-14716	-3988	-5376	6	-53	-66	-1604	-540	17128	173	-42	32	125	117	5
-11312	-3068	10828	-107	138	-148	-15620	1584	-5320	46	-22	113	-2764	-5292	15708	54	-125	173	-10396	1600	13040	128	-34	-138	-14728	-3976	-5280	-12	-35	-60	-1652	-588	17008	152	-28	47	125	117	5
-11304	-3064	10816	-116	118	-153	-15616	1620	-5452	45	28	144	-2756	-5316	15540	-3	-136	162	-10440	1536	13096	120	-64	-129	-14768	-3928	-5444	-11	-44	-92	-1664	-500	16888	157	-19	48	125	116	5
-11404	-3104	10768	-84	135	-169	-15664	1556	-5316	42	-65	141	-2732	-5392	15536	0	-120	146	-10400	1588	13224	106	15	-146	-14752	-3952	-5448	15	-40	-34	-1612	-636	17004	160	-13	78	125	116	5
-11364	-3052	10828	-119	185	-158	-15664	1552	-5424	67	-45	170	-2724	-5376	15644	-2	-135	185	-10372	1572	13148	96	-36	-167	-14740	-4000	-5412	6	-8	-70	-1624	-560	16968	189	-2	70	125	116	5
-11360	-3060	10856	-99	149	-152	-15680	1580	-5348	69	-33	180	-2780	-5392	15608	86	-123	181	-10348	1540	13028	111	-30	-169	-14708	-3960	-5388	-14	-36	-59	-1664	-512	16936	190	-27	51	125	116	5
-11364	-3088	10772	-121	163	-164	-15648	1560	-5380	80	-8	123	-2732	-5344	15544	52	-99	148	-10372	1520	13116	129	30	-174	-14724	-4016	-5488	33	-71	-75	-1624	-552	16980	151	6	62	125	116	5
-11384	-3072	10784	-115	125	-160	-15712	1512	-5544	83	-4	159	-2764	-5340	15592	62	-96	117	-10392	1532	13116	114	-14	-132	-14696	-3968	-5380	-23	-54	-79	-1628	-532	16996	178	-10	82	125	116	5
-11356	-3104	10844	-88	130	-168	-15664	1552	-5512	64	-51	148	-2776	-5308	15564	-12	-111	172	-10460	1548	13164	124	-30	-150	-14804	-3968	-5516	-26	-51	-93	-1644	-516	16956	148	9	51	125	116	5
-11372	-3016	10828	-113	156	-181	-15632	1564	-5432	45	-31	143	-2800	-5340	15704	34	-94	186	-10436	1500	13172	82	-25	-161	-14732	-3944	-5544	11	-64	-41	-1580	-560	16984	167	5	48	125	116	5
-11372	-3156	10868	-111	138	-182	-15628	1584	-5452	49	-44	146	-2764	-5364	15720	71	-114	194	-10428	1552	12960	108	-37	-173	-14764	-3928	-5392	4	-78	-100	-1632	-572	16948	154	-19	70	125	116	5
-11340	-3064	10940	-101	151	-174	-15632	1596	-5388	43	-51	134	-2736	-5332	15692	37	-130	169	-10460	1584	13184	132	-45	-170	-14776	-4000	-5388	-16	-57	-83	-1620	-496	16924	170	-9	66	125	116	5
-11316	-3104	10832	-123	120	-181	-15628	1528	-5452	58	-48	138	-2768	-5296	15708	26	-125	180	-10372	1496	13136	77	-35	-132	-14740	-4040	-5496	38	-77	-74	-1692	-580	16960	178	6	89	125	116	5
-11352	-3076	10836	-99	149	-172	-15628	1536	-5452	45	-38	131	-2776	-5336	15576	-19	-130	161	-10372	1596	13076	76	-56	-159	-14720	-4044	-5416	36	-43	-45	-1600	-628	17076	207	-10	82	125	116	5
-11332	-3072	10788	-71	127	-167	-15664	1592	-5416	71	-17	157	-2756	-5348	15636	14	-92	164	-10424	1588	13092	96	6	-173	-14700	-3936	-5524	-5	-42	-22	-1632	-568	17004	182	7	76	125	116	5
-11312	-3092	10868	-132	115	-177	-15656	1512	-5464	74	-8	151	-2800	-5344	15556	35	-124	159	-10400	1552	13020	79	-1	-150	-14748	-3960	-5404	10	-53	-41	-1576	-552	17012	161	0	20	125	117	5
-11368	-3032	10760	-98	132	-159	-15640	1500	-5484	63	8	129	-2776	-5352	15500	13	-107	206	-10440	1512	13176	134	-13	-162	-14712	-3940	-5448	-33	-22	-79	-1640	-568	17040	144	-4	53	125	117	5
-11308	-3012	10784	-96	152	-177	-15680	1580	-5400	91	-7	126	-2740	-5316	15556	34	-137	167	-10348	1564	13112	88	-15	-150	-14764	-4012	-5448	-9	-31	-77	-1528	-572	16928	175	-7	10	125	116	5
-11368	-3060	10804	-89	153	-177	-15628	1500	-5372	92	-25	140	-2728	-5352	15620	26	-130	162	-10384	1616	13268	109	13	-168	-14796	-3948	-5456	-34	-10	-81	-1524	-576	16964	171	-2	32	125	116	5
-11320	-3120	10912	-117	139	-175	-15628	1520	-5392	83	-22	164	-2692	-5340	15628	39	-129	161	-10396	1580	13136	107	-21	-213	-14704	-4016	-5468	-39	-48	-88	-1604	-556	17024	129	-37	63	125	116	5
-11404	-3132	10816	-94	147	-141	-15688	1544	-5464	46	37	143	-2744	-5396	15652	27	-125	155	-10432	1560	13112	98	-3	-173	-14732	-3904	-5404	-22	-38	-88	-1648	-560	16968	223	6	51	125	116	5
-11356	-3116	10668	-132	110	-145	-15668	1536	-5492	90	-16	145	-2808	-5344	15636	52	-128	190	-10336	1528	13116	118	-47	-185	-14784	-3916	-5444	22	-43	-54	-1696	-536	16988	220	-19	39	125	117	5
-11400	-3116	10840	-114	110	-131	-15696	1548	-5352	52	-20	145	-2780	-5380	15580	-4	-113	178	-10456	1580	13108	129	9	-168	-14712	-3920	-5324	17	-30	-49	-1708	-504	16988	205	14	46	125	116	5
-11352	-3100	10852	-125	137	-169	-15612	1564	-5444	70	17	172	-2776	-5328	15572	32	-101	153	-10424	1568	13044	125	5	-157	-14708	-3976	-5456	20	-56	-81	-1664	-508	16996	188	-22	87	125	117	5
-11336	-3084	10856	-89	133	-200	-15656	1548	-5508	47	-36	159	-2772	-5332	15548	32	-109	176	-10460	1536	13088	108	-13	-129	-14720	-3960	-5356	-13	-24	-82	-1560	-496	16880	189	-58	36	125	116	5
-11332	-3060	10836	-107	165	-195	-15712	1592	-5428	59	-40	176	-2788	-5344	15684	38	-102	152	-10388	1612	13024	83	-30	-152	-14736	-3964	-5480	-21	-59	-53	-1672	-520	17012	126	-8	67	125	116	5
-11416	-3004	10800	-124	135	-147	-15652	1548	-5312	44	-32	112	-2716	-5348	15668	67	-91	150	-10412	1520	13220	138	-74	-141	-14696	-3988	-5480	-11	-38	-121	-1608	-524	17008	156	-10	49	125	116	5
-11420	-3108	10948	-94	138	-150	-15652	1564	-5416	28	-65	129	-2856	-5336	15604	41	-116	158	-10316	1556	13168	112	-113	-167	-14800	-3932	-5476	28	-81	-49	-1600	-588	17020	192	6	46	125	116	5
-11300	-3044	10876	-71	137	-185	-15660	1536	-5516	32	-15	141	-2680	-5340	15632	47	-111	159	-10392	1564	13152	112	-34	-175	-14744	-3928	-5392	18	-50	-52	-1632	-548	17064	212	-16	76	125	117	5
-11372	-3084	10916	-106	151	-181	-15604	1560	-5488	37	-19	141	-2724	-5324	15624	26	-97	160	-10336	1500	13140	76	-34	-168	-14716	-4036	-5396	22	-27	-89	-1636	-512	16976	185	-7	99	125	116	5
-11384	-3092	10808	-112	160	-161	-15684	1516	-5400	38	11	133	-2768	-5336	15660	31	-120	159	-10396	1476	13148	97	-79	-167	-14752	-3976	-5508	2	-31	-71	-1604	-568	17000	180	-21	60	125	116	5
-11368	-3132	10924	-92	156	-144	-15632	1552	-5416	62	-30	121	-2788	-5356	15604	20	-132	145	-10408	1596	13056	123	18	-150	-14740	-4004	-5376	17	-34	-57	-1680	-580	16992	187	-15	58	125	116	5
-11380	-3116	10844	-121	121	-124	-15664	1568	-5456	70	-19	138	-2736	-5276	15624	-16	-123	187	-10400	1480	13028	113	11	-153	-14696	-3952	-5488	11	-38	-78	-1612	-520	16932	134	-17	56	125	116	5
-11352	-3104	10796	-78	148	-122	-15656	1528	-5400	89	-14	171	-2700	-5296	15596	14	-125	174	-10384	1548	13120	76	-94	-198	-14696	-4004	-5548	8	-52	-92	-1640	-576	17028	152	-6	78	125	116	5
-11396	-3120	10868	-96	100	-111	-15652	1548	-5432	80	17	147	-2736	-5312	15572	23	-120	162	-10364	1552	13164	113	-14	-145	-14716	-3952	-5456	-10	-25	-84	-1620	-572	16844	184	-15	40	125	116	5
-11352	-3068	10748	-110	166	-145	-15628	1612	-5448	37	-33	137	-2748	-5344	15624	32	-105	193	-10416	1504	13124	117	-12	-174	-14724	-3936	-5500	2	-48	-97	-1592	-604	17156	151	1	68	125	116	5
-11324	-3044	10860	-104	129	-167	-15636	1600	-5412	31	19	170	-2784	-5308	15616	-8	-126	172	-10416	1464	13196	103	-30	-166	-14768	-3932	-5388	19	-44	-82	-1612	-568	17088	162	-26	48	125	116	5
-11388	-3084	10816	-117	130	-142	-15680	1544	-5500	32	-26	125	-2800	-5304	15568	-24	-102	176	-10392	1524	13076	110	-53	-119	-14732	-3992	-5492	-7	-39	-73	-1616	-520	16984	199	1	82	125	117	5
-11412	-3100	10844	-104	94	-152	-15636	1616	-5464	78	-10	153	-2752	-5392	15596	15	-143	172	-10432	1568	13048	138	-17	-172	-14776	-3968	-5504	14	-32	-78	-1620	-552	16972	179	-2	57	125	116	5
-11352	-3088	10856	-92	150	-144	-15688	1484	-5436	52	-12	190	-2788	-5336	15608	21	-85	175	-10432	1480	13060	112	-21	-150	-14676	-4020	-5504	-3	-64	-96	-1600	-524	16908	170	-14	53	125	116	5
-11344	-3132	10772	-109	131	-135	-15644	1524	-5512	62	23	159	-2808	-5324	15544	22	-130	164	-10420	1516	13152	107	-13	-154	-14796	-3956	-5552	28	-37	-82	-1656	-556	17040	174	-52	59	125	117	5
-11360	-3060	10816	-116	138	-148	-15616	1544	-5436	80	-35	157	-2800	-5292	15568	41	-140	157	-10324	1576	13124	108	-51	-187	-14668	-3988	-5596	11	-54	-87	-1584	-548	17020	173	-22	47	124	116	5
-11356	-3084	10840	-106	134	-169	-15676	1540	-5512	63	0	159	-2768	-5272	15640	46	-121	182	-10356	1644	13136	89	-47	-142	-14712	-3996	-5508	45	-76	-106	-1656	-516	16960	180	-16	73	125	116	5
-11348	-3088	10792	-111	137	-173	-15652	1584	-5524	47	-7	111	-2792	-5344	15648	17	-104	170	-10380	1496	13160	101	-25	-158	-14704	-4020	-5424	14	-86	-64	-1656	-548	16948	174	10	53	125	116	5
-11320	-3076	10916	-112	153	-137	-15612	1536	-5484	83	-38	142	-2784	-5332	15548	56	-99	185	-10384	1584	13096	143	-27	-145	-14728	-3980	-5360	5	-26	-86	-1632	-568	16824	186	5	47	125	117	5
-11392	-3124	10800	-112	151	-112	-15688	1492	-5512	36	7	126	-2736	-5336	15636	50	-135	191	-10388	1532	13180	107	-48	-176	-14732	-3952	-5480	4	-84	-69	-1616	-504	16960	155	-22	73	125	116	5
-11332	-3092	10924	-101	130	-156	-15692	1536	-5464	64	-24	159	-2768	-5368	15600	44	-120	129	-10368	1572	13108	103	-31	-158	-14712	-3924	-5460	18	-82	-65	-1624	-548	17140	159	12	86	125	116	5
-11368	-3064	10792	-95	126	-173	-15588	1544	-5372	80	-29	156	-2660	-5360	15592	21	-118	152	-10316	1560	13112	92	-86	-139	-14696	-4016	-5424	27	-52	-60	-1584	-616	17032	172	18	48	125	116	5
-11336	-3200	10664	-146	144	-176	-15672	1536	-5456	40	13	130	-2704	-5384	15560	19	-142	167	-10396	1572	13072	98	-44	-154	-14760	-3948	-5432	-19	-45	-80	-1556	-540	16948	171	-23	54	125	117	5
-11384	-3100	10780	-114	158	-164	-15692	1552	-5576	34	17	150	-2724	-5392	15632	12	-127	181	-10408	1512	13196	124	-43	-153	-14744	-3928	-5396	-5	-52	-87	-1660	-552	17072	169	-53	65	125	116	5
-11356	-3072	10824	-99	134	-154	-15668	1516	-5504	42	-3	138	-2792	-5316	15544	-1	-107	170	-10368	1540	13044	105	-25	-131	-14704	-4016	-5460	30	-30	-47	-1696	-576	16916	170	-33	58	125	116	5
-11352	-2984	10820	-129	150	-118	-15664	1608	-5424	35	-27	179	-2728	-5356	15748	18	-104	158	-10424	1516	13100	96	-5	-179	-14756	-4000	-5376	8	-70	-79	-1672	-512	16932	161	0	60	125	116	5
-11328	-3100	10928	-88	153	-153	-15660	1576	-5516	82	1	149	-2744	-5412	15732	52	-96	153	-10372	1512	13172	115	-74	-161	-14716	-3984	-5480	17	-56	-81	-1588	-508	16920	178	0	73	125	116	5
-11368	-3064	10820	-90	137	-141	-15676	1540	-5432	86	32	149	-2756	-5328	15588	64	-124	151	-10412	1528	13128	102	-45	-150	-14716	-3988	-5344	20	-44	-67	-1668	-552	17024	159	-18	56	125	116	5
-11372	-3048	10712	-83	155	-139	-15708	1568	-5400	64	-14	158	-2788	-5340	15664	57	-120	186	-10436	1520	13064	130	7	-192	-14752	-4016	-5464	-1	-54	-64	-1628	-640	16936	184	-27	69	125	116	5
-11376	-3048	10816	-128	140	-195	-15676	1536	-5596	36	-38	121	-2728	-5348	15696	40	-136	158	-10380	1548	13152	106	-15	-164	-14728	-3968	-5360	9	-8	-93	-1680	-576	17096	165	10	72	125	116	5
-11304	-3088	10876	-101	128	-167	-15624	1504	-5380	33	-51	131	-2736	-5340	15604	49	-107	175	-10416	1552	13176	77	-51	-128	-14704	-3976	-5464	-1	-46	-59	-1564	-544	17036	162	-2	52	125	116	5
-11284	-3048	10720	-86	159	-156	-15612	1548	-5400	47	-27	177	-2764	-5352	15616	44	-91	175	-10456	1564	13108	143	-43	-113	-14728	-3936	-5432	24	-64	-61	-1632	-604	17000	180	22	67	125	116	5
-11336	-3080	10764	-77	152	-135	-15708	1492	-5464	90	-43	161	-2728	-5272	15600	25	-104	134	-10408	1608	13244	88	-9	-145	-14688	-3916	-5388	-6	-50	-74	-1520	-528	16956	188	3	16	125	116	5
-11400	-3064	10792	-92	131	-123	-15628	1636	-5396	84	-16	155	-2740	-5320	15624	-7	-144	155	-10384	1520	13128	126	-25	-156	-14736	-4000	-5496	-33	-34	-100	-1632	-528	17068	161	17	32	125	117	5
-11292	-3068	10836	-107	147	-167	-15684	1560	-5396	90	24	159	-2724	-5328	15688	72	-148	163	-10344	1532	13152	104	44	-140	-14740	-3968	-5396	-28	-39	-82	-1628	-572	17068	178	-50	19	125	116	5
-11344	-3052	10912	-95	111	-138	-15648	1608	-5332	51	7	172	-2756	-5312	15592	84	-142	186	-10384	1528	13160	84	-2	-173	-14736	-3976	-5496	4	-20	-51	-1616	-560	17032	172	-19	31	125	116	5
-11360	-3076	10900	-78	136	-161	-15668	1560	-5416	17	19	133	-2832	-5324	15612	20	-135	178	-10408	1544	13080	102	-40	-153	-14704	-3952	-5424	6	-34	-75	-1724	-520	17008	184	4	74	125	116	5
-11272	-3016	10892	-103	139	-150	-15628	1568	-5512	80	-7	104	-2832	-5272	15724	-6	-146	179	-10376	1504	13032	122	-15	-180	-14772	-3992	-5468	14	-33	-86	-1640	-588	17060	163	-9	61	125	117	5
-11372	-3060	10764	-102	122	-167	-15632	1532	-5396	74	-44	115	-2824	-5320	15688	-6	-128	190	-10340	1560	13024	91	-36	-130	-14712	-3976	-5572	9	-55	-86	-1660	-572	16896	206	-64	70	125	116	5
-11376	-3052	10776	-135	147	-145	-15656	1548	-5436	71	-79	90	-2840	-5352	15604	5	-152	177	-10368	1544	12948	111	-3	-149	-14636	-3964	-5520	2	-89	-43	-1612	-488	16964	221	-8	61	125	116	5
-11324	-3120	10800	-117	105	-193	-15632	1568	-5428	38	-67	140	-2832	-5420	15576	20	-133	186	-10384	1548	13116	77	-26	-140	-14732	-3952	-5424	3	-90	-64	-1612	-516	17032	165	-22	88	125	116	5
-11372	-3068	10824	-102	146	-194	-15612	1516	-5460	32	-53	120	-2748	-5304	15616	43	-117	153	-10428	1556	13052	135	-70	-149	-14728	-3948	-5496	30	-63	-46	-1560	-480	16948	116	-8	67	125	117	5
-11364	-3148	10840	-116	116	-186	-15680	1560	-5352	69	-58	131	-2752	-5376	15612	41	-103	171	-10404	1540	13232	100	-31	-155	-14756	-3984	-5320	23	-97	-70	-1544	-528	17000	109	-23	46	125	116	5
-11316	-3148	10848	-118	133	-171	-15676	1572	-5364	41	-49	144	-2708	-5376	15676	38	-99	156	-10380	1508	13156	85	-33	-182	-14740	-3960	-5352	19	-96	-41	-1544	-512	16944	124	-2	56	125	117	5
-11336	-3072	10748	-108	155	-183	-15636	1568	-5380	54	-63	143	-2712	-5348	15636	24	-132	144	-10456	1496	13248	101	-9	-158	-14760	-3956	-5388	27	-59	-79	-1576	-612	16868	162	10	58	125	117	5
-11288	-3036	10704	-142	149	-161	-15664	1552	-5356	40	-36	124	-2636	-5332	15620	-7	-120	157	-10408	1524	13132	150	-47	-160	-14740	-3972	-5428	39	-54	-95	-1596	-548	16956	190	43	50	125	117	5
-11364	-3116	10704	-124	155	-160	-15644	1512	-5356	54	-5	147	-2728	-5264	15580	3	-120	155	-10380	1604	13228	130	-54	-159	-14704	-3940	-5492	26	-64	-57	-1656	-540	17036	168	-15	86	125	117	5
-11320	-3088	10776	-112	158	-155	-15612	1560	-5520	62	18	141	-2792	-5332	15536	59	-135	176	-10340	1516	13132	124	4	-176	-14732	-3948	-5456	18	-23	-76	-1648	-576	16964	143	-8	59	125	117	5
-11352	-3124	10756	-86	132	-133	-15656	1592	-5528	65	5	162	-2812	-5304	15592	17	-127	164	-10388	1584	13216	98	0	-155	-14700	-3928	-5476	-14	-68	-70	-1636	-512	17028	159	-12	61	125	117	5
-11316	-3128	10820	-111	162	-150	-15656	1552	-5508	74	-31	145	-2752	-5328	15560	20	-142	163	-10452	1596	13060	98	-16	-147	-14700	-3980	-5516	-20	-5	-90	-1696	-536	17088	153	-19	16	125	116	5
-11272	-3048	10844	-130	150	-146	-15660	1540	-5372	44	-24	132	-2816	-5312	15612	-11	-109	183	-10428	1548	13136	96	-6	-156	-14708	-3960	-5484	20	-51	-123	-1612	-600	16976	148	24	72	125	116	5
-11368	-3048	10752	-92	141	-156	-15664	1560	-5444	37	-18	130	-2776	-5300	15672	10	-149	143	-10412	1512	13036	117	-35	-163	-14752	-3952	-5504	26	-37	-80	-1584	-552	16928	133	9	68	125	116	5
-11332	-3132	10852	-109	153	-167	-15660	1564	-5484	35	-22	145	-2716	-5400	15720	9	-120	161	-10416	1560	13128	91	-28	-143	-14724	-3940	-5508	7	-50	-72	-1632	-560	16948	145	6	92	125	117	5
-11392	-3084	10864	-91	143	-132	-15680	1528	-5440	54	-71	125	-2776	-5316	15564	32	-136	189	-10436	1528	13156	98	-30	-159	-14684	-3984	-5360	13	-15	-124	-1672	-540	16996	152	21	97	125	116	5
-11308	-3076	10836	-102	158	-164	-15688	1596	-5432	50	-41	108	-2748	-5328	15616	14	-108	189	-10368	1552	13168	124	-44	-150	-14768	-4036	-5416	6	-59	-71	-1688	-548	16828	134	-13	74	125	116	5
-11360	-3088	10840	-124	119	-147	-15672	1516	-5432	67	-16	149	-2788	-5348	15664	5	-141	150	-10416	1576	13108	96	-55	-123	-14748	-3952	-5488	-11	-54	-64	-1660	-564	17092	165	-3	59	125	116	5
-11328	-3160	10836	-114	114	-151	-15664	1572	-5336	66	-26	142	-2752	-5356	15660	-3	-151	184	-10380	1568	13144	124	-74	-182	-14708	-3964	-5348	-2	-51	-87	-1680	-608	16932	138	-25	65	125	116	5
-11404	-3080	10756	-114	151	-176	-15664	1524	-5532	83	2	133	-2692	-5316	15556	1	-106	186	-10404	1548	13172	96	-35	-142	-14724	-3980	-5388	36	-36	-75	-1608	-568	17072	125	-25	91	125	116	5
-11428	-3092	10840	-122	144	-168	-15600	1496	-5424	29	-14	135	-2712	-5404	15568	14	-127	149	-10408	1572	13056	99	-17	-168	-14716	-3984	-5440	10	-13	-79	-1604	-608	17088	187	-4	40	125	116	5
-11344	-3048	10700	-87	137	-154	-15724	1576	-5488	24	-4	123	-2736	-5376	15564	29	-93	170	-10384	1560	13056	112	27	-175	-14752	-3928	-5472	36	-54	-90	-1584	-572	17016	179	-2	59	125	117	5
-11388	-3084	10904	-122	163	-177	-15684	1496	-5472	38	-16	122	-2748	-5396	15648	5	-104	196	-10364	1504	13156	98	-35	-168	-14728	-3948	-5484	-9	-68	-80	-1628	-572	16960	174	-7	57	125	116	5
-11236	-3080	10728	-131	112	-156	-15636	1508	-5388	62	-30	134	-2820	-5352	15684	18	-132	149	-10456	1568	13216	92	10	-169	-14680	-3972	-5520	-25	-46	-98	-1564	-524	16972	201	0	72	125	116	5
-11324	-3084	10844	-98	126	-179	-15628	1524	-5496	58	11	107	-2752	-5352	15684	62	-136	160	-10380	1524	13128	106	-60	-150	-14708	-4000	-5392	-11	-36	-64	-1656	-472	16976	181	-5	76	125	116	5
-11356	-3108	10784	-89	137	-136	-15628	1536	-5496	34	-25	97	-2748	-5356	15612	50	-136	167	-10424	1524	13040	100	-9	-165	-14652	-3924	-5448	18	-57	-82	-1584	-540	16976	199	-51	77	125	116	5
-11364	-3064	10832	-108	130	-148	-15628	1528	-5440	39	-43	121	-2708	-5264	15544	0	-111	186	-10412	1568	13132	101	-28	-141	-14704	-3984	-5476	35	-52	-105	-1640	-524	16972	165	-19	46	125	116	5
-11336	-3088	10884	-123	164	-170	-15628	1592	-5520	27	12	179	-2748	-5276	15656	30	-137	187	-10308	1568	13232	121	-35	-145	-14716	-3944	-5528	4	-49	-107	-1588	-592	16952	165	3	74	125	117	5
-11324	-3028	10848	-126	160	-182	-15672	1540	-5420	56	2	108	-2744	-5320	15612	13	-126	160	-10428	1500	13116	125	-71	-154	-14764	-3932	-5360	-7	-63	-99	-1596	-588	16988	143	7	89	125	117	5
-11384	-3076	10928	-57	170	-181	-15656	1564	-5404	65	-14	124	-2764	-5320	15620	-2	-132	145	-10364	1544	13096	101	-37	-145	-14736	-3972	-5512	-20	-53	-101	-1644	-520	16904	154	-12	56	125	116	5
-11336	-3156	10868	-88	136	-176	-15692	1496	-5488	76	-49	110	-2756	-5324	15648	3	-132	169	-10424	1536	13200	83	-45	-147	-14740	-4020	-5516	3	-61	-81	-1672	-612	16960	206	-39	77	125	116	5
-11392	-3104	10916	-78	128	-181	-15596	1540	-5300	41	-39	158	-2780	-5308	15616	71	-116	207	-10452	1608	13156	105	6	-177	-14720	-3928	-5464	-2	-45	-80	-1652	-560	16988	152	6	28	125	116	5
-11352	-3072	10804	-116	138	-192	-15660	1528	-5408	52	-35	127	-2768	-5324	15696	80	-121	163	-10368	1584	13160	98	-20	-132	-14768	-3936	-5440	19	-54	-73	-1576	-576	17080	142	-2	42	125	116	5
-11372	-3076	10848	-101	146	-162	-15644	1576	-5500	86	-9	162	-2772	-5340	15640	14	-75	158	-10344	1604	13060	113	-14	-157	-14784	-3976	-5436	26	-60	-93	-1588	-532	16892	163	-34	37	125	117	5
-11344	-3084	10932	-65	149	-141	-15692	1556	-5448	49	-3	127	-2712	-5316	15696	-34	-131	150	-10396	1600	13060	120	-19	-147	-14720	-3988	-5488	6	-64	-75	-1548	-500	16920	150	-20	68	125	116	5
-11408	-3068	10820	-108	145	-165	-15664	1504	-5416	44	-38	136	-2748	-5372	15620	-30	-122	159	-10340	1512	13172	117	-13	-189	-14752	-3940	-5496	31	-62	-108	-1588	-524	16980	160	-10	65	125	117	5
-11340	-3112	10840	-105	150	-161	-15664	1532	-5352	74	-8	134	-2720	-5324	15656	38	-90	140	-10368	1528	13092	94	-14	-150	-14740	-4008	-5400	-14	-32	-75	-1632	-612	17036	203	-1	24	125	116	5
-11384	-3088	10896	-85	149	-159	-15648	1476	-5520	83	-20	176	-2748	-5324	15516	63	-148	157	-10384	1600	13176	99	-31	-180	-14808	-3896	-5484	6	-17	-92	-1536	-556	16944	184	-19	41	125	116	5
-11332	-3040	10804	-137	134	-147	-15656	1512	-5424	68	-10	154	-2756	-5316	15620	45	-144	114	-10448	1512	13152	96	-18	-165	-14716	-3976	-5404	-16	-14	-79	-1608	-564	16888	191	-15	21	125	116	5
-11320	-3048	10744	-100	149	-128	-15672	1536	-5428	74	61	173	-2720	-5356	15624	28	-133	171	-10360	1504	13044	119	-18	-216	-14704	-4016	-5544	-48	-31	-92	-1620	-508	16868	158	-39	33	125	116	5
-11320	-3068	10768	-126	132	-167	-15652	1512	-5448	89	41	149	-2804	-5284	15688	41	-155	157	-10452	1528	13200	98	-31	-144	-14664	-3964	-5468	-20	-35	-87	-1636	-512	16956	113	-40	45	125	116	5
-11352	-3144	10820	-93	133	-165	-15664	1548	-5420	60	57	144	-2792	-5316	15584	42	-122	198	-10432	1544	13176	97	13	-209	-14748	-4056	-5492	1	3	-82	-1664	-564	16960	168	-21	81	125	117	5
-11420	-3084	10852	-120	147	-144	-15652	1508	-5548	66	72	111	-2776	-5408	15636	26	-140	196	-10300	1532	13156	101	0	-131	-14724	-4008	-5468	31	-14	-63	-1648	-576	17024	208	-9	36	125	117	5
-11384	-3060	10880	-114	146	-173	-15656	1488	-5460	53	-9	123	-2836	-5296	15620	53	-118	171	-10380	1552	13096	95	-15	-159	-14684	-4036	-5496	-16	-29	-94	-1708	-552	17024	228	26	36	125	116	5
-11364	-3132	10776	-97	133	-183	-15676	1520	-5492	68	-18	133	-2848	-5324	15592	28	-95	174	-10368	1572	13028	143	-27	-126	-14716	-4000	-5516	-24	-86	-8	-1656	-624	17016	198	-19	100	125	116	5
-11348	-3068	10808	-91	116	-159	-15668	1568	-5428	100	-42	134	-2828	-5384	15620	41	-123	138	-10464	1536	13092	121	-50	-154	-14788	-3928	-5492	1	-111	-88	-1656	-600	16980	191	-21	68	125	116	5
-11332	-3084	10892	-83	131	-193	-15696	1524	-5396	65	-69	109	-2692	-5352	15632	12	-97	148	-10388	1556	13108	127	-37	-133	-14772	-3940	-5352	-12	-59	-101	-1640	-528	17028	169	11	66	125	116	5
-11352	-3064	10860	-146	173	-189	-15648	1484	-5324	72	-52	116	-2748	-5396	15604	32	-104	170	-10416	1560	13112	112	-83	-102	-14700	-3928	-5352	9	-55	-63	-1568	-504	16980	142	-10	55	125	116	5
-11312	-3120	10892	-133	159	-192	-15684	1532	-5300	60	-35	167	-2680	-5328	15672	25	-119	164	-10364	1588	13204	98	-59	-157	-14692	-3968	-5504	38	-48	-15	-1504	-580	17092	112	24	34	125	116	5
-11368	-3080	10804	-130	125	-188	-15684	1504	-5352	90	-27	119	-2764	-5304	15568	10	-150	191	-10396	1632	13012	134	-3	-182	-14716	-3984	-5460	49	-86	-27	-1660	-544	16996	190	-34	39	125	116	5
-11344	-3132	10684	-105	177	-156	-15620	1504	-5276	61	-17	158	-2732	-5300	15572	-11	-141	156	-10400	1472	13120	98	-26	-166	-14740	-3968	-5472	31	2	-97	-1580	-588	16980	180	17	49	125	117	5
-11308	-3032	10752	-104	113	-187	-15656	1576	-5436	65	-24	144	-2704	-5296	15564	-25	-115	150	-10416	1548	13128	97	-29	-163	-14720	-3952	-5368	13	-40	-85	-1624	-528	17036	175	-40	53	125	116	5
-11340	-3024	10748	-74	127	-129	-15640	1572	-5560	53	14	193	-2836	-5332	15612	42	-136	159	-10484	1552	13116	149	-29	-139	-14692	-4012	-5424	15	-54	-92	-1636	-520	17048	112	-5	66	125	117	5
-11348	-3016	10800	-134	154	-144	-15624	1532	-5548	34	-41	146	-2812	-5372	15636	54	-135	213	-10448	1512	13152	117	-65	-151	-14704	-3996	-5512	16	-49	-109	-1636	-608	16948	135	20	68	125	116	5
-11348	-3016	10828	-58	149	-156	-15660	1552	-5432	36	-1	155	-2824	-5300	15596	50	-144	219	-10372	1488	13112	126	-40	-146	-14740	-3944	-5540	46	-60	-102	-1668	-560	17124	148	-26	56	125	117	5
-11360	-3088	10752	-104	121	-192	-15696	1492	-5484	87	-19	158	-2792	-5384	15712	32	-140	153	-10404	1560	13168	106	-28	-164	-14748	-3940	-5432	-7	-56	-95	-1696	-536	16988	185	-32	92	125	116	5
-11348	-3116	10804	-104	134	-160	-15628	1548	-5360	76	0	144	-2732	-5316	15572	-20	-145	173	-10420	1572	13164	93	-5	-159	-14792	-3976	-5416	-1	-41	-68	-1620	-532	17000	142	23	61	125	116	5
-11356	-3068	10796	-113	114	-180	-15624	1512	-5384	40	-14	188	-2724	-5296	15688	-6	-159	169	-10388	1568	13164	107	-74	-191	-14772	-4072	-5332	13	-48	-125	-1544	-584	17012	159	3	73	125	116	5
-11360	-3076	10800	-114	129	-179	-15652	1592	-5432	20	-7	110	-2768	-5336	15704	28	-125	194	-10384	1524	13212	114	0	-155	-14796	-4044	-5416	20	-31	-99	-1648	-556	16960	152	-22	60	124	116	5
-11392	-3068	10816	-111	141	-180	-15720	1556	-5428	51	17	133	-2728	-5380	15628	14	-141	179	-10368	1572	13312	96	-1	-170	-14732	-3988	-5516	-5	-52	-70	-1636	-608	16940	174	3	65	125	116	5
-11400	-3084	10856	-108	119	-201	-15664	1536	-5336	44	26	135	-2688	-5384	15640	-16	-108	178	-10436	1560	13136	99	-23	-170	-14756	-3980	-5500	5	-26	-108	-1648	-548	16912	188	-47	54	125	117	5
-11352	-3052	10740	-84	151	-146	-15676	1568	-5400	91	-31	113	-2748	-5360	15564	-12	-135	138	-10380	1516	13148	94	5	-162	-14728	-3924	-5448	45	-35	-86	-1604	-632	16896	174	-1	67	124	116	5
-11356	-3100	10864	-125	150	-174	-15648	1576	-5356	86	-16	140	-2772	-5320	15616	10	-126	153	-10416	1596	13112	102	-16	-180	-14696	-4004	-5348	19	-58	-90	-1616	-516	16988	149	-41	45	125	116	5
-11384	-3092	10804	-120	152	-146	-15668	1528	-5488	28	11	111	-2804	-5332	15656	-3	-146	170	-10396	1532	13180	117	-27	-138	-14696	-4004	-5420	-4	-43	-87	-1656	-552	16964	145	26	42	124	116	5
-11424	-3064	10852	-102	165	-181	-15592	1540	-5476	38	-25	102	-2776	-5296	15616	4	-140	159	-10392	1528	13056	103	-94	-169	-14756	-3968	-5488	4	-71	-83	-1616	-592	17068	152	-19	41	124	116	5
-11372	-3056	10896	-121	126	-162	-15588	1564	-5388	49	-17	148	-2732	-5344	15604	10	-115	184	-10404	1548	13140	129	-31	-185	-14736	-3960	-5500	12	-69	-87	-1736	-560	17060	177	-32	76	124	116	5
-11368	-3148	10844	-95	121	-143	-15696	1488	-5504	43	2	144	-2788	-5348	15640	10	-114	129	-10420	1520	13056	75	-28	-194	-14648	-3956	-5380	21	-80	-49	-1584	-568	16900	180	11	87	124	116	5
-11276	-3088	10844	-115	141	-162	-15668	1500	-5368	62	-37	153	-2752	-5380	15532	12	-126	173	-10408	1540	13144	117	-63	-127	-14716	-3984	-5408	14	-50	-79	-1640	-548	17024	164	29	64	124	116	5
-11372	-3040	10880	-109	137	-188	-15632	1524	-5428	77	-39	121	-2752	-5352	15592	17	-118	174	-10340	1584	13040	135	-37	-169	-14792	-4008	-5392	19	-73	-80	-1592	-556	17100	135	22	55	125	116	5
-11340	-3056	10948	-109	119	-169	-15680	1568	-5500	44	-61	168	-2756	-5332	15664	25	-137	180	-10384	1572	13100	112	-13	-161	-14704	-4000	-5312	33	-59	-58	-1596	-632	17048	133	-24	90	125	116	5
-11392	-3088	10776	-107	151	-180	-15684	1564	-5364	31	20	136	-2752	-5324	15484	26	-117	191	-10420	1540	13152	101	-37	-130	-14668	-3960	-5408	11	-62	-83	-1544	-656	17020	127	10	81	125	116	5
-11312	-3116	10752	-150	137	-143	-15732	1516	-5340	73	2	165	-2676	-5364	15528	40	-100	193	-10332	1572	12992	117	12	-197	-14748	-4020	-5436	-1	-22	-122	-1600	-676	16948	171	6	59	125	116	5
-11320	-3104	10880	-97	131	-183	-15648	1600	-5420	30	14	130	-2656	-5316	15596	30	-117	155	-10324	1524	13180	105	-18	-171	-14796	-4040	-5452	30	14	-72	-1648	-564	16892	192	4	49	125	116	5
-11312	-3044	10764	-91	137	-156	-15660	1568	-5460	59	25	139	-2796	-5348	15540	-3	-125	193	-10376	1540	13120	110	-56	-175	-14776	-3932	-5344	-7	-13	-77	-1604	-584	16976	204	10	50	124	116	5
-11408	-3064	10840	-95	146	-136	-15656	1596	-5380	61	30	168	-2800	-5372	15544	-3	-169	162	-10416	1532	13084	118	-40	-166	-14752	-3984	-5516	-19	-30	-67	-1688	-556	17084	238	0	13	125	116	5
-11388	-3104	10904	-119	151	-151	-15696	1524	-5512	65	-17	170	-2816	-5380	15728	43	-108	168	-10388	1584	13136	93	-1	-143	-14736	-4016	-5516	18	-57	-80	-1708	-568	16956	162	-8	39	124	116	5
-11384	-3084	10772	-92	153	-137	-15640	1620	-5468	49	-15	135	-2808	-5316	15528	31	-142	149	-10372	1536	13224	92	22	-188	-14692	-4012	-5468	-16	-47	-75	-1660	-488	17048	151	-1	89	124	116	5
-11376	-3068	10848	-100	121	-193	-15656	1540	-5548	44	-59	119	-2800	-5312	15564	22	-131	184	-10388	1496	13124	128	-24	-127	-14688	-3960	-5468	19	-95	-70	-1712	-604	16904	157	-39	71	124	116	5
-11368	-3104	10764	-91	126	-167	-15704	1500	-5536	42	-66	128	-2768	-5324	15728	6	-116	145	-10420	1568	13200	120	-47	-129	-14736	-3956	-5424	36	-74	-60	-1676	-584	17036	153	-31	68	124	116	5
-11348	-3096	10852	-123	132	-147	-15628	1536	-5376	24	-22	122	-2728	-5388	15600	5	-121	175	-10384	1540	13064	101	-33	-149	-14748	-4028	-5440	3	-71	-43	-1580	-564	17160	139	28	82	125	116	5
-11416	-3120	10812	-136	145	-170	-15684	1552	-5384	59	-63	131	-2788	-5360	15664	34	-108	164	-10420	1540	13084	121	-40	-160	-14728	-3984	-5540	5	-62	-90	-1600	-552	17072	172	4	69	124	116	5
-11360	-3028	10800	-122	120	-173	-15624	1492	-5428	87	-43	129	-2744	-5328	15540	7	-127	175	-10392	1628	13104	112	-22	-133	-14728	-3988	-5432	-36	-83	-128	-1592	-580	16916	197	-18	53	125	116	5
-11368	-3116	10760	-105	151	-161	-15652	1620	-5472	82	10	139	-2692	-5316	15544	12	-138	184	-10412	1552	13052	120	-23	-146	-14736	-4024	-5448	-46	-46	-82	-1552	-576	16972	197	-29	7	125	116	5
-11396	-3160	10892	-95	125	-134	-15656	1548	-5320	80	26	137	-2660	-5340	15704	18	-162	177	-10464	1556	13132	100	2	-178	-14792	-4016	-5472	-29	-35	-86	-1576	-516	17064	170	-17	16	124	116	5
-11352	-3092	10864	-121	127	-143	-15564	1600	-5404	121	1	136	-2696	-5340	15616	37	-123	201	-10384	1596	13168	114	17	-154	-14768	-4000	-5536	-17	-3	-40	-1584	-524	16940	170	16	38	124	116	5
-11332	-3096	10828	-92	155	-138	-15700	1492	-5456	63	26	124	-2740	-5308	15608	33	-133	206	-10424	1584	13052	96	11	-135	-14688	-4004	-5456	14	-10	-76	-1652	-620	16896	185	-4	19	124	116	5
-11332	-3092	10776	-97	172	-135	-15656	1552	-5524	62	17	137	-2836	-5304	15572	12	-109	171	-10384	1608	13156	105	8	-155	-14668	-3948	-5400	16	-19	-82	-1712	-564	16988	209	-19	16	124	116	5
-11400	-3036	10992	-105	136	-181	-15648	1524	-5460	76	-5	151	-2864	-5384	15572	7	-140	160	-10400	1540	13152	131	-15	-166	-14748	-3900	-5676	-12	-46	-42	-1656	-532	16912	209	-21	32	125	116	5
-11376	-3076	10780	-134	131	-150	-15672	1580	-5488	46	-54	85	-2796	-5392	15576	45	-105	126	-10420	1520	13196	103	-4	-153	-14700	-4004	-5456	-29	-43	-89	-1636	-516	17004	167	-16	66	124	116	5
-11340	-3136	10804	-108	155	-134	-15656	1544	-5416	93	-20	128	-2756	-5364	15624	83	-117	145	-10400	1568	13200	124	-12	-159	-14784	-3964	-5512	-24	-85	-92	-1628	-516	17008	140	-15	59	124	116	5
-11320	-3120	10848	-111	140	-163	-15628	1584	-5404	63	1	113	-2784	-5348	15656	79	-131	166	-10360	1572	13152	127	-52	-168	-14776	-4012	-5440	12	-79	-60	-1556	-536	16936	110	1	89	124	116	5
-11264	-3100	10828	-101	112	-150	-15640	1536	-5384	67	-38	151	-2696	-5332	15664	71	-111	166	-10404	1520	13092	106	8	-174	-14660	-3952	-5448	26	-76	-81	-1624	-624	16912	136	-10	80	124	116	5
-11328	-3084	10836	-108	162	-151	-15704	1576	-5340	40	-51	170	-2668	-5316	15612	16	-131	138	-10376	1584	12980	104	-34	-179	-14696	-3936	-5396	64	-80	-89	-1560	-588	17004	157	10	64	125	116	5
-11428	-3040	10856	-96	138	-173	-15660	1476	-5328	51	8	116	-2664	-5344	15572	5	-106	154	-10352	1504	13096	116	9	-161	-14744	-4016	-5428	-12	-52	-59	-1600	-624	16976	205	-22	79	125	116	5
-11352	-3064	10936	-98	151	-123	-15664	1596	-5468	21	-36	117	-2764	-5360	15560	9	-132	149	-10420	1492	12996	110	-18	-147	-14768	-4000	-5392	-31	-41	-116	-1628	-492	16936	213	0	84	125	116	5
-11344	-3008	10880	-139	156	-148	-15632	1524	-5316	40	1	160	-2748	-5364	15664	37	-121	162	-10336	1572	13152	107	-1	-153	-14740	-3972	-5496	3	-14	-93	-1632	-564	17068	181	-9	57	125	116	5
-11408	-3076	10700	-93	157	-167	-15640	1568	-5408	51	35	171	-2828	-5332	15668	38	-144	189	-10404	1584	13100	156	-64	-118	-14764	-3916	-5552	30	-73	-101	-1636	-528	17004	167	4	47	125	116	5
-11360	-3088	10752	-107	138	-137	-15676	1556	-5484	60	13	162	-2824	-5260	15640	25	-129	167	-10400	1520	13144	81	-25	-206	-14776	-3952	-5496	-17	-43	-66	-1696	-524	16884	168	-13	50	125	116	5
-11372	-3108	10824	-105	134	-138	-15656	1544	-5428	78	10	146	-2784	-5388	15660	40	-108	190	-10468	1572	13076	129	-33	-164	-14748	-3932	-5412	12	-21	-74	-1644	-572	17016	209	-18	54	124	116	5
-11320	-3108	10876	-110	143	-172	-15640	1564	-5392	78	-6	125	-2800	-5320	15616	-13	-101	174	-10400	1504	13156	109	-38	-171	-14700	-3940	-5420	-22	-27	-94	-1612	-504	17024	178	-2	48	124	116	5
-11380	-3052	10736	-102	113	-151	-15648	1572	-5448	28	10	116	-2828	-5312	15516	-41	-115	168	-10364	1572	13136	113	13	-169	-14712	-3996	-5412	-16	-55	-85	-1652	-532	16972	143	-27	69	125	116	5
-11356	-3124	10740	-119	136	-167	-15672	1572	-5344	31	-36	123	-2760	-5336	15568	-7	-120	183	-10388	1500	13068	111	-46	-182	-14672	-3984	-5516	15	-43	-75	-1608	-584	17040	157	-6	78	124	116	5
-11288	-3120	10808	-126	133	-186	-15672	1552	-5436	-4	-41	155	-2748	-5348	15596	8	-154	151	-10312	1552	13108	90	-47	-189	-14776	-3972	-5508	-12	-63	-79	-1540	-520	17036	194	-18	92	124	116	5
-11324	-3104	10784	-115	94	-182	-15684	1508	-5324	70	-37	152	-2676	-5364	15628	12	-120	167	-10440	1532	13236	88	-47	-180	-14780	-4028	-5440	17	-23	-100	-1504	-568	16940	187	5	92	124	116	5
-11388	-3056	10764	-110	129	-155	-15664	1524	-5380	80	-31	153	-2680	-5344	15624	16	-116	198	-10452	1516	13112	106	-78	-149	-14800	-3940	-5424	-20	-25	-88	-1488	-448	17044	180	6	78	124	116	5
-11376	-3168	10960	-127	181	-172	-15644	1516	-5420	81	51	156	-2644	-5324	15616	29	-136	173	-10408	1524	13080	116	-10	-134	-14796	-3956	-5368	-15	-13	-135	-1496	-540	16960	157	32	58	124	116	5
-11284	-3112	10848	-103	160	-150	-15656	1552	-5336	64	84	172	-2596	-5352	15684	27	-98	176	-10356	1512	13024	103	-19	-206	-14736	-3992	-5316	16	25	-136	-1608	-564	16988	122	24	33	124	116	5
-11400	-3056	10844	-90	147	-136	-15700	1588	-5440	91	87	166	-2676	-5348	15680	39	-116	161	-10432	1532	13092	93	-49	-182	-14740	-4024	-5464	34	55	-126	-1652	-568	17036	98	6	6	124	116	5
-11368	-3036	10832	-90	171	-145	-15684	1552	-5512	101	165	189	-2716	-5456	15612	-23	-127	155	-10420	1492	13144	89	-16	-207	-14724	-3956	-5500	49	-7	-84	-1684	-600	17136	104	10	20	124	116	5
-11340	-2988	10956	-100	161	-171	-15648	1532	-5588	86	72	204	-2928	-5376	15560	36	-119	131	-10380	1548	13136	95	-29	-182	-14704	-4060	-5496	42	-34	-95	-1872	-628	17008	104	-2	-9	125	116	5
-11320	-3044	10772	-63	138	-154	-15688	1584	-5524	61	45	172	-3024	-5368	15448	37	-101	151	-10396	1524	13140	111	6	-200	-14732	-4092	-5640	46	-64	-104	-1900	-604	17048	134	-15	58	125	116	5
-11380	-3096	10820	-47	109	-188	-15620	1580	-5544	51	-62	190	-2996	-5356	15516	22	-144	150	-10376	1552	13088	116	-5	-166	-14708	-4036	-5644	44	-68	-97	-1844	-656	16964	177	2	122	125	116	5
-11352	-3060	10880	-101	120	-142	-15596	1548	-5648	21	-133	144	-2920	-5416	15540	40	-134	127	-10392	1516	13072	117	-55	-130	-14696	-3976	-5400	25	-116	-33	-1740	-716	17032	171	-55	132	124	116	5
-11384	-3096	10880	-137	130	-170	-15648	1536	-5528	53	-168	100	-2744	-5384	15668	66	-135	156	-10376	1496	13192	137	-41	-153	-14804	-4096	-5416	-17	-143	28	-1688	-648	16984	221	-32	110	124	116	5
-11372	-3036	10820	-115	107	-173	-15632	1584	-5404	26	-170	130	-2676	-5352	15572	85	-115	181	-10452	1536	13196	151	-18	-119	-14736	-3988	-5308	-17	-123	7	-1516	-652	16936	249	-25	47	124	116	5
-11364	-3140	10736	-110	120	-181	-15664	1548	-5344	25	-129	135	-2636	-5308	15676	87	-97	201	-10392	1520	13116	147	-18	-117	-14768	-3980	-5388	-59	-99	46	-1476	-584	16940	269	-38	-2	124	116	5
-11360	-3072	10736	-133	119	-188	-15672	1528	-5280	3	-90	113	-2524	-5328	15556	91	-125	178	-10420	1544	13232	124	2	-125	-14724	-3908	-5376	-72	-79	-21	-1448	-496	16948	303	-29	-1	124	116	5
-11356	-3108	10728	-110	129	-145	-15716	1552	-5312	54	-31	186	-2596	-5260	15648	78	-111	162	-10396	1572	13148	130	-66	-125	-14772	-3864	-5456	-37	-37	-24	-1444	-448	16992	319	-21	4	124	116	5
-11352	-3140	10796	-102	128	-183	-15716	1524	-5464	56	17	178	-2556	-5352	15500	42	-129	137	-10404	1556	13072	162	-25	-156	-14772	-3852	-5416	6	19	-41	-1452	-356	16928	273	-18	27	125	116	5
-11356	-3100	10904	-100	148	-150	-15724	1556	-5412	85	58	194	-2600	-5296	15588	45	-133	125	-10436	1600	13240	119	18	-171	-14752	-3860	-5368	-32	30	-62	-1488	-376	16896	218	-37	-10	125	116	5
