#Activity	standing 
#ActivityID	8 
#Date 09-07-15-53
acc_rf_x	acc_rf_y	acc_rf_z	gyro_rf_x	gyro_rf_y	gyro_rf_z	acc_rs_x	acc_rs_y	acc_rs_z	gyro_rs_x	gyro_rs_y	gyro_rs_z	acc_rt_x	acc_rt_y	acc_rt_z	gyro_rt_x	gyro_rt_y	gyro_rt_z	acc_lf_x	acc_lf_y	acc_lf_z	gyro_lf_x	gyro_lf_y	gyro_lf_z	acc_ls_x	acc_ls_y	acc_ls_z	gyro_ls_x	gyro_ls_y	gyro_ls_z	acc_lt_x	acc_lt_y	acc_lt_z	gyro_lt_x	gyro_lt_y	gyro_lt_z	EMG_r	EMG_l	act
-8704	-2044	13392	-13	8	-38	-16112	-3984	136	-2	-15	14	-15648	88	-4224	-27	-22	6	-9448	3112	13616	16	-8	-11	-16072	1952	-1696	-13	-8	-10	-16008	-280	-2880	14	8	-6	122	128	8
-8784	-2028	13336	-11	6	-31	-16168	-3936	-48	6	-14	12	-15664	160	-4024	-20	-28	14	-9440	3320	13632	17	-8	-5	-16064	2032	-1344	-6	-8	-9	-15856	-576	-2760	16	7	-3	122	128	8
-8640	-2108	13368	-12	10	-36	-16144	-4008	256	-4	-17	19	-15592	112	-4280	-19	-23	11	-9640	3216	13560	14	-12	-10	-15944	2136	-1464	1	-3	-10	-15960	-536	-2752	17	6	-7	122	128	8
-8688	-2008	13372	-15	7	-35	-16120	-3944	192	1	-12	11	-15696	96	-3960	-20	-23	11	-9368	3232	13720	15	-13	-11	-16096	2096	-1656	-3	-5	-5	-16128	-456	-2784	21	7	-5	122	128	8
-8584	-2132	13400	-18	5	-37	-16184	-4056	224	-2	-8	9	-15784	72	-3992	-14	-22	10	-9440	3264	13488	13	-10	-10	-16320	1968	-1712	-3	-7	-12	-16104	-448	-2696	19	2	-3	122	128	8
-8652	-2016	13212	-18	6	-35	-16104	-3904	24	5	-9	12	-15712	80	-4016	-18	-23	10	-9408	3208	13664	12	-8	-13	-16192	1944	-1352	-5	-7	-9	-16016	-448	-2968	28	5	-7	122	128	8
-8640	-2112	13312	-17	11	-32	-16272	-3856	-16	7	-16	13	-15848	96	-4416	-17	-23	15	-9392	3120	13616	9	-10	-14	-15944	1944	-1560	3	-11	-12	-15888	-376	-2608	29	6	-2	122	128	8
-8704	-2064	13352	-14	6	-32	-16152	-3952	392	-3	-8	14	-15776	32	-3848	-13	-25	13	-9496	3216	13624	18	-16	-11	-16240	2040	-1328	-3	-9	-12	-15816	-456	-2920	29	6	-3	122	128	8
-8720	-2056	13480	-14	10	-36	-16000	-3976	56	-10	-9	15	-15648	-72	-4096	-14	-29	11	-9424	3200	13288	19	-12	-11	-16072	2072	-1440	7	-9	-7	-15968	-520	-2680	38	-8	-5	122	128	8
-8664	-2052	13352	-13	6	-37	-16064	-3896	232	-2	-8	13	-15784	-24	-4040	-14	-30	12	-9416	3416	13512	15	-7	-6	-16024	2080	-1560	0	-4	-14	-15928	-392	-3024	31	-5	-5	122	128	8
-8684	-2108	13440	-17	-3	-39	-16088	-4016	88	-5	3	18	-15872	112	-4000	-9	-35	18	-9272	3240	13344	13	-9	-14	-16160	1840	-1584	-10	0	-10	-16072	-536	-2656	26	2	-3	122	128	8
-8584	-2132	13344	-15	1	-32	-16136	-4296	312	-3	4	21	-15744	-48	-3944	-10	-32	15	-9360	3208	13568	15	-6	-15	-15992	1960	-1608	-8	-4	-13	-15872	-568	-2824	27	0	-2	122	128	8
-8652	-2072	13408	-8	7	-30	-16144	-4088	416	-2	9	18	-15704	72	-4072	-15	-29	20	-9336	3120	13584	14	-2	-17	-16080	1952	-1624	7	1	-6	-16072	-432	-2928	32	3	3	123	128	8
-8660	-2120	13400	-13	11	-27	-16168	-4136	80	-1	7	24	-15784	-88	-4440	-21	-25	19	-9408	3240	13344	16	-9	-16	-16184	2024	-1464	-1	-4	-10	-16072	-416	-3056	30	4	1	122	128	8
-8624	-2168	13336	-11	14	-26	-16112	-4104	-16	7	11	24	-15656	-56	-4088	-19	-31	16	-9408	3304	13632	13	-1	-18	-16128	2024	-1408	8	-10	-12	-16008	-360	-2808	32	2	2	122	128	8
-8660	-2136	13396	-11	21	-23	-16000	-3936	-128	11	12	17	-15672	120	-4032	-2	-18	26	-9408	3280	13400	14	-6	-18	-16288	2072	-1408	5	-7	-9	-16040	-448	-2744	34	0	3	122	128	8
-8632	-2100	13408	-4	17	-25	-16184	-4008	216	3	8	18	-15768	88	-4320	11	-14	21	-9392	3296	13536	16	0	-18	-16128	2160	-1432	3	-5	-8	-16080	-392	-2976	32	3	1	122	128	8
-8648	-2144	13252	-11	21	-24	-16048	-3824	32	15	5	17	-15600	8	-4080	14	-12	23	-9464	3240	13560	12	2	-17	-16072	2024	-1560	4	1	-3	-15832	-408	-2888	36	-1	6	122	128	8
-8676	-2032	13332	-12	19	-24	-16144	-3984	40	15	0	19	-15672	40	-4032	4	-11	28	-9368	3288	13656	14	-2	-15	-16080	1968	-1544	5	-2	-12	-15944	-208	-2768	38	0	1	122	128	8
-8672	-1996	13380	-10	19	-19	-16344	-3888	128	15	4	16	-15704	56	-3848	12	-7	27	-9480	3312	13576	10	-1	-19	-16144	2024	-1528	6	4	-12	-16152	-456	-2744	36	4	0	122	128	8
-8612	-2184	13412	-14	25	-23	-16072	-4056	0	5	3	17	-15632	-16	-4144	5	-6	32	-9480	3264	13384	15	-2	-19	-16072	2040	-1344	1	0	-8	-16064	-640	-2816	31	10	0	122	128	8
-8692	-2112	13320	-9	14	-20	-16272	-4088	152	12	-3	19	-15720	96	-4152	9	-8	33	-9448	3200	13744	10	2	-20	-16304	2024	-1656	1	-1	-10	-15952	-496	-3224	29	8	3	122	128	8
-8656	-2144	13472	-13	17	-27	-16112	-3912	264	7	0	18	-15824	160	-3960	2	-8	27	-9440	3392	13544	15	5	-23	-16136	2112	-1568	-6	0	-2	-15880	-432	-2984	28	19	5	122	128	8
-8660	-2076	13296	-9	16	-26	-16064	-4064	56	9	0	21	-15680	0	-4232	9	-8	23	-9504	3280	13392	16	7	-21	-16200	2024	-1592	-4	-7	-3	-15824	-432	-3152	25	18	6	122	128	8
-8608	-2124	13236	-11	23	-20	-16184	-4072	184	9	-1	19	-15528	32	-4128	-5	-2	27	-9416	3208	13632	11	2	-19	-16128	1992	-1568	2	-8	-5	-15872	-464	-2968	29	13	5	122	128	8
-8656	-2032	13368	-9	19	-24	-16216	-3760	264	7	-4	19	-15568	80	-4120	-3	-4	31	-9424	3096	13576	14	1	-14	-16032	2032	-1456	6	-16	-6	-15960	-544	-3096	24	10	2	122	128	8
-8696	-2036	13296	-10	15	-21	-16208	-3816	248	13	-7	21	-15640	144	-4080	3	-9	24	-9368	3312	13656	8	4	-16	-16104	2000	-1592	2	-9	-5	-16040	-576	-3072	21	6	5	122	128	8
-8696	-2116	13448	-14	17	-23	-16080	-3904	200	18	-8	21	-15664	192	-4016	13	2	34	-9552	3192	13456	11	6	-19	-16080	1896	-1392	-7	-12	-3	-16016	-504	-2960	23	7	3	122	128	8
-8624	-2052	13300	-16	22	-22	-16160	-3976	160	23	2	17	-15800	104	-3840	29	3	33	-9368	3232	13672	14	2	-16	-15928	2120	-1640	4	-10	-4	-15880	-528	-2984	22	12	2	122	128	8
-8612	-2080	13296	-11	22	-28	-16104	-4112	-56	23	-1	20	-15768	-72	-4184	33	6	36	-9440	3296	13472	13	9	-25	-16208	2088	-1480	5	-18	-5	-16072	-256	-2816	25	12	5	122	128	8
-8648	-2044	13364	-11	18	-16	-15976	-4072	488	16	-1	23	-15784	-40	-4304	24	2	37	-9448	3352	13640	8	10	-24	-16104	1920	-1512	4	-11	-7	-16136	-504	-3160	20	15	8	122	128	8
-8688	-2080	13464	-12	25	-23	-16152	-3992	32	24	0	18	-15720	48	-4136	13	3	38	-9504	3216	13704	14	4	-19	-16032	1928	-1464	1	-13	-5	-15880	-448	-2608	20	15	4	121	128	8
-8676	-2044	13276	-8	22	-17	-16048	-4024	120	14	-5	19	-15560	160	-4064	14	4	34	-9472	3136	13664	16	7	-24	-16008	1920	-1368	1	-8	-4	-16040	-432	-2464	22	3	1	122	128	8
-8648	-2152	13356	-4	23	-22	-16144	-3944	352	16	1	18	-15760	272	-3672	14	1	34	-9504	3368	13448	14	2	-22	-16104	2160	-1288	1	-3	-15	-16016	-472	-2552	16	4	3	122	128	8
-8676	-2096	13404	-8	26	-14	-15976	-3936	176	15	6	20	-15752	208	-4024	27	-7	28	-9192	3208	13432	13	4	-25	-15992	2056	-1312	-1	8	-10	-15944	-320	-2912	15	-7	2	121	128	8
-8676	-2104	13408	-9	23	-15	-16136	-4080	216	16	7	25	-15792	8	-4264	22	-10	28	-9432	3320	13488	12	5	-30	-16144	1928	-1544	-17	18	-7	-16128	-496	-2784	9	1	3	121	128	8
-8708	-2144	13384	-7	29	-9	-16248	-3968	144	17	16	21	-15744	64	-4184	5	-8	27	-9576	3120	13480	15	14	-27	-16032	1832	-1544	-8	14	-8	-15888	-552	-2856	13	14	4	121	128	8
-8648	-2076	13364	-5	29	-14	-16120	-3872	328	8	7	25	-15640	240	-4152	-2	-11	28	-9448	3336	13656	15	9	-26	-15984	2080	-1656	10	7	-10	-15728	-360	-2752	20	9	-2	122	129	8
-8700	-2028	13308	-9	25	-19	-16136	-3960	8	4	8	23	-15688	144	-4176	-13	-7	25	-9440	3136	13224	12	6	-22	-15968	2168	-1624	7	15	-11	-15960	-360	-2736	21	-1	-3	122	128	8
-8708	-2048	13368	-6	23	-21	-16016	-3912	144	7	9	21	-15544	288	-3928	0	-14	22	-9488	3184	13440	12	0	-23	-16008	2112	-1288	-7	19	-17	-16048	-488	-3032	14	1	-6	121	128	8
-8728	-2068	13380	-8	16	-24	-15904	-3872	136	13	17	27	-15608	240	-3880	13	-14	19	-9528	3200	13664	9	2	-24	-16064	1936	-1640	-8	17	-14	-16048	-488	-2992	5	-3	-7	122	128	8
-8676	-2080	13336	-8	14	-20	-16104	-3968	360	12	17	22	-15808	0	-4032	13	-18	19	-9496	3200	13592	13	6	-30	-16112	2024	-1504	-22	19	-16	-15944	-416	-2968	6	9	-3	122	128	8
-8620	-2100	13444	-10	15	-22	-16280	-3992	0	1	15	23	-15768	168	-4232	5	-16	23	-9408	3256	13544	8	18	-31	-16096	2064	-1688	-18	9	-13	-15904	-560	-3040	11	24	-1	122	128	8
-8720	-2104	13316	-8	18	-20	-16080	-3984	-40	0	12	22	-15952	16	-4184	-3	-10	21	-9472	3360	13592	8	13	-33	-16144	1840	-1888	-1	-2	-14	-15872	-264	-3072	19	30	4	122	128	8
-8648	-2068	13328	-8	26	-16	-16272	-3920	120	1	12	23	-15736	344	-4216	-11	-6	25	-9456	3200	13704	8	6	-21	-16024	1960	-1560	4	-5	-12	-15936	-472	-2768	25	21	2	122	129	8
-8696	-2012	13352	-8	26	-18	-16048	-3832	-48	12	14	20	-15672	304	-4120	-4	-7	22	-9616	3184	13464	10	5	-21	-15968	1968	-1392	15	-6	-13	-15976	-456	-2864	29	3	-4	122	128	8
-8752	-2068	13284	-9	22	-18	-16128	-3912	-64	10	16	22	-15672	120	-4192	-8	-3	29	-9496	3216	13528	7	3	-21	-15912	2040	-1392	-3	3	-17	-15960	-456	-2704	19	-6	-5	122	128	8
-8696	-2128	13380	-11	20	-20	-16184	-4008	-96	12	14	20	-15520	152	-4344	12	-5	25	-9584	3256	13680	12	-1	-19	-16192	1920	-1536	2	5	-11	-16104	-520	-2760	19	-4	-3	122	128	8
-8672	-1988	13464	-4	20	-19	-16152	-3896	-16	11	12	28	-15648	96	-4240	22	-12	25	-9480	3280	13456	17	6	-22	-16256	1984	-1776	2	5	-12	-16032	-336	-2984	27	9	-1	122	129	8
-8748	-2060	13348	-8	20	-21	-16144	-3848	-88	12	14	17	-15632	200	-4432	14	-7	28	-9568	3312	13528	11	9	-23	-16032	1904	-1776	7	4	-10	-15864	-328	-3016	31	16	1	122	129	8
-8776	-2076	13340	-9	18	-21	-16224	-3888	-16	9	8	15	-15800	192	-4192	8	-2	28	-9584	3168	13464	14	5	-21	-15960	2032	-1624	5	8	-14	-15968	-328	-2976	34	12	-3	122	129	8
-8724	-2016	13264	-11	20	-24	-16056	-3920	-128	11	9	14	-15672	384	-4552	-7	-3	29	-9536	3360	13456	12	2	-20	-16032	1984	-1352	0	10	-15	-15952	-528	-2984	26	5	-1	122	128	8
-8700	-2056	13288	-10	17	-24	-16088	-3904	264	7	4	17	-15584	208	-4344	-4	-8	26	-9544	3144	13584	6	-3	-21	-16072	2080	-1648	-1	5	-13	-15960	-432	-2912	21	2	-1	122	129	8
-8724	-2112	13264	-11	16	-22	-16264	-3784	-24	8	4	19	-15648	224	-3976	0	-6	21	-9472	3296	13768	10	1	-19	-16080	1864	-1384	-1	3	-16	-15976	-456	-2936	26	3	-1	122	129	8
-8700	-2024	13364	-9	18	-24	-16160	-3984	168	3	1	16	-15712	224	-4064	4	0	23	-9392	3352	13488	10	0	-17	-16096	1912	-1720	7	-2	-9	-15912	-504	-2968	27	4	-3	122	128	8
-8708	-1980	13384	-8	14	-23	-16064	-3832	56	10	3	18	-15640	144	-4296	-7	-2	23	-9480	3368	13664	12	1	-23	-16216	2008	-1512	0	-5	-9	-15888	-312	-3144	22	4	-1	122	129	8
-8748	-1956	13396	-13	17	-25	-16048	-3848	-184	11	4	15	-15664	96	-4392	-2	-6	25	-9416	3272	13560	6	2	-16	-16168	1840	-1664	-1	-6	-15	-16032	-448	-2904	21	4	-3	122	129	8
-8712	-2064	13328	-14	22	-28	-16216	-3880	-136	24	1	14	-15664	80	-4344	6	-4	27	-9456	3128	13248	15	1	-19	-15976	1896	-1528	3	-4	-7	-15864	-576	-2888	19	2	-3	122	128	8
-8676	-2048	13404	-6	21	-23	-16096	-3960	160	19	2	13	-15768	208	-4096	19	-2	23	-9504	3184	13368	15	-2	-21	-16144	2008	-1576	-1	-2	-7	-16024	-536	-2760	22	2	-1	122	128	8
-8732	-2100	13232	-10	19	-23	-16184	-3968	-40	6	-2	17	-15672	160	-4256	14	-3	20	-9440	3224	13592	16	0	-21	-16160	1976	-1512	-5	0	-13	-15928	-480	-3248	19	5	-1	122	128	8
-8680	-2056	13380	-8	18	-23	-16128	-3896	-96	8	3	18	-15576	112	-4256	15	-4	24	-9696	3160	13360	18	-3	-17	-16096	1856	-1736	-1	0	-8	-16008	-504	-3024	24	-2	0	122	129	8
-8716	-2124	13376	-11	14	-24	-16200	-3952	184	9	2	17	-15744	152	-3864	-4	-17	22	-9496	3264	13664	14	7	-23	-16096	1936	-1808	-2	-5	-5	-15872	-416	-2808	23	2	-1	122	129	8
-8704	-2080	13352	-8	17	-29	-16208	-3928	-8	10	3	15	-15856	208	-4360	-8	-12	26	-9472	3192	13448	12	0	-20	-15960	2000	-1408	-4	-6	-8	-15888	-496	-3016	23	-3	1	122	129	8
-8668	-2100	13312	-12	21	-22	-16224	-3904	-32	14	-6	14	-15752	192	-4288	-1	-4	25	-9528	3064	13376	13	-5	-20	-15984	1864	-1496	2	-5	-14	-15888	-480	-3072	23	-9	2	122	128	8
-8708	-2000	13344	-12	19	-26	-16152	-3984	80	7	-4	12	-15752	72	-4248	10	-7	21	-9512	3264	13408	10	0	-17	-16008	1936	-1568	-5	6	-8	-16016	-544	-2768	22	-6	-1	122	128	8
-8780	-2052	13344	-11	17	-22	-16128	-4040	128	8	-6	19	-15544	216	-4376	15	-13	24	-9328	3160	13568	17	0	-16	-16128	1880	-1528	-3	-2	-9	-15888	-528	-3104	23	2	3	122	128	8
-8732	-2016	13336	-12	18	-24	-16104	-3848	-88	11	4	16	-15632	280	-4352	3	-14	23	-9456	3216	13568	14	4	-20	-16216	1920	-1544	-1	-1	-8	-15976	-528	-3152	20	4	8	122	129	8
-8748	-2064	13380	-13	12	-25	-16056	-3752	56	12	-4	16	-15600	264	-4336	2	-18	22	-9512	3336	13512	14	-1	-18	-16072	2008	-1544	5	-9	-4	-15856	-408	-3096	28	5	4	122	129	8
-8716	-2032	13284	-11	19	-25	-16280	-3952	-184	7	-8	12	-15624	232	-4264	4	-15	22	-9424	3256	13520	16	1	-17	-16064	2032	-1720	3	-10	-10	-15888	-280	-3080	25	-4	2	122	129	8
-8760	-1996	13312	-9	20	-28	-16152	-3968	-128	12	-5	14	-15664	152	-4168	10	-9	23	-9496	3160	13416	11	-7	-20	-15976	2024	-1648	1	-9	-11	-15928	-344	-3120	21	-15	1	122	128	8
-8724	-2000	13388	-10	16	-27	-16120	-3936	48	12	-7	11	-15720	8	-4104	18	-4	23	-9552	3168	13560	15	-4	-19	-16112	2040	-1640	-7	-4	-10	-16072	-496	-2960	16	-15	0	121	128	8
-8708	-2104	13308	-9	19	-26	-16112	-3952	24	13	-7	16	-15648	56	-4360	0	-7	21	-9568	3232	13288	14	-1	-20	-16024	2112	-1672	-3	-6	-5	-16040	-376	-2824	15	-11	0	122	128	8
-8716	-2000	13412	-13	21	-22	-16000	-3968	-40	11	-8	15	-15680	56	-4152	4	-14	23	-9488	3184	13440	18	-3	-16	-16032	1880	-1360	-1	-6	-7	-15880	-432	-2992	19	-1	2	122	128	8
-8728	-2076	13340	-13	16	-25	-16128	-3808	160	13	-9	11	-15704	112	-4224	11	-11	23	-9512	3272	13456	18	0	-16	-16104	1968	-1736	1	-9	-5	-16040	-472	-2848	30	4	3	122	128	8
-8696	-2056	13308	-9	22	-22	-16224	-3960	256	13	-7	15	-15760	120	-4424	10	-12	22	-9504	3184	13568	16	-4	-16	-16000	1912	-1624	4	-6	-6	-15904	-528	-3000	33	0	3	121	128	8
-8704	-2008	13344	-15	19	-27	-16152	-3752	200	14	-4	12	-15744	96	-4200	8	-16	24	-9408	3232	13816	14	0	-17	-16192	1928	-1496	2	-6	-5	-15944	-568	-3048	29	-7	-2	121	128	8
-8736	-2092	13308	-13	21	-24	-16232	-3984	232	14	-8	13	-15536	160	-3792	7	-17	21	-9432	3208	13648	15	-3	-15	-15960	1864	-1528	5	-7	-3	-16024	-344	-2920	28	-12	4	122	128	8
-8716	-2028	13400	-11	15	-23	-16216	-3904	120	9	-4	15	-15632	176	-4408	0	-18	23	-9512	3280	13528	12	-4	-16	-16088	1952	-1440	-7	-5	0	-16088	-344	-3216	24	-6	2	122	128	8
-8652	-2020	13360	-15	21	-29	-16056	-3952	160	7	-8	16	-15736	192	-4104	0	-19	20	-9368	3112	13544	16	-1	-14	-16200	1952	-1672	-7	-4	-3	-15912	-472	-3040	19	-9	3	122	128	8
-8692	-2072	13340	-13	23	-20	-16096	-3880	56	11	-8	10	-15664	48	-4328	0	-15	18	-9544	3232	13624	14	6	-20	-15992	2040	-1640	-3	-6	-5	-15944	-464	-2848	25	0	-2	122	128	8
-8692	-2056	13240	-14	18	-23	-15912	-3936	88	14	-8	15	-15784	120	-4472	5	-15	24	-9496	3144	13472	16	-1	-19	-15840	1968	-1384	5	-6	-5	-15952	-456	-3088	30	-6	2	122	128	8
-8768	-1984	13340	-11	15	-21	-16208	-3848	-160	14	-4	14	-15608	96	-4112	7	-17	19	-9528	3424	13616	14	1	-15	-16128	1992	-1336	-2	-7	-5	-15832	-504	-3040	19	-12	4	122	128	8
-8744	-2040	13240	-10	17	-25	-16088	-3944	32	12	-6	16	-15664	128	-4280	3	-17	19	-9472	3328	13424	17	-1	-18	-16112	1880	-1648	-4	0	-7	-16032	-480	-2968	22	-11	-2	122	128	8
-8740	-2060	13296	-12	18	-28	-16208	-3936	-40	9	-8	16	-15656	96	-4288	6	-18	21	-9560	3256	13560	17	-1	-18	-16032	1960	-1424	-4	-5	-6	-15968	-480	-2888	18	-13	3	122	128	8
-8744	-2020	13368	-10	16	-27	-16112	-3896	96	13	-11	19	-15704	232	-4336	11	-21	21	-9496	3312	13408	15	-1	-19	-16096	1976	-1384	-3	-8	-3	-15936	-288	-2888	24	-3	2	122	128	8
-8748	-1984	13244	-11	15	-26	-16064	-3856	-16	9	-3	16	-15656	152	-4152	5	-19	20	-9472	3304	13536	15	0	-19	-16032	1976	-1560	1	-5	-5	-15936	-472	-2816	26	-2	5	122	128	8
-8732	-2052	13280	-11	13	-29	-15992	-3888	184	10	0	16	-15680	56	-3976	3	-24	20	-9536	3128	13752	15	-8	-14	-16096	2040	-1520	-5	-3	-6	-15888	-504	-2744	25	-1	2	122	128	8
-8744	-2028	13364	-10	13	-29	-16096	-3992	168	10	-4	17	-15704	88	-4064	7	-25	18	-9464	3088	13360	11	-2	-16	-15920	1952	-1344	-6	-3	-6	-15968	-360	-2736	17	-9	-1	122	128	8
-8756	-2028	13448	-12	12	-29	-16168	-3904	-56	7	-7	18	-15664	192	-4184	-5	-25	16	-9488	3256	13384	15	-7	-20	-16056	1968	-1528	-7	0	-5	-15992	-480	-2808	15	-9	-3	122	128	8
-8680	-1992	13348	-14	11	-29	-16104	-3848	152	6	-6	16	-15672	144	-4352	-11	-20	18	-9416	3160	13328	16	-10	-16	-16232	1840	-1520	1	-5	-5	-16120	-272	-2760	20	-7	4	122	128	8
-8676	-1988	13404	-17	11	-26	-16168	-3960	256	2	-11	17	-15616	200	-4112	3	-20	18	-9400	3312	13600	16	-9	-18	-16144	1984	-1712	-2	-5	-9	-15984	-496	-2848	21	-1	1	122	128	8
-8696	-2076	13316	-12	15	-26	-16128	-3824	288	11	-8	14	-15752	200	-4176	-8	-19	18	-9312	3184	13432	15	-6	-16	-15952	1864	-1616	-4	-4	-5	-15880	-536	-2824	26	-2	3	122	128	8
-8676	-2056	13292	-17	12	-29	-16144	-3776	40	2	-7	17	-15744	176	-4336	-6	-25	20	-9544	3144	13304	15	-2	-17	-16000	1912	-1528	0	-3	-3	-16016	-592	-2936	24	-2	3	122	128	8
-8708	-2036	13400	-12	9	-27	-16144	-3944	120	12	-3	17	-15616	112	-4216	6	-24	19	-9464	3152	13760	11	-9	-11	-16048	2048	-1384	-8	-6	-2	-16032	-392	-2752	23	-2	6	122	128	8
-8652	-2100	13256	-12	13	-28	-16248	-4072	40	9	-10	15	-15784	208	-4192	2	-23	18	-9464	3224	13552	17	-11	-13	-16048	1896	-1720	-4	-6	-7	-15896	-320	-2920	21	-4	3	122	129	8
-8768	-2036	13368	-13	9	-29	-16224	-3952	8	7	-9	13	-15800	208	-4296	-1	-18	19	-9368	3120	13472	16	-3	-16	-16128	1912	-1752	-3	-6	0	-15960	-440	-2984	19	-5	3	122	128	8
-8688	-2152	13264	-13	12	-29	-16128	-4008	136	11	-11	17	-15736	152	-4136	-4	-17	13	-9432	3192	13480	11	-9	-15	-16032	1968	-1360	-5	-4	-2	-16000	-296	-2864	21	-6	1	122	128	8
-8720	-2080	13320	-13	12	-30	-16200	-4056	160	5	-8	14	-15656	24	-4168	-5	-19	18	-9632	3136	13576	15	-1	-17	-16184	2080	-1808	-5	-7	-6	-16088	-448	-2736	23	3	-1	122	128	8
-8748	-2044	13304	-13	10	-27	-16152	-3864	160	4	-5	14	-15808	-48	-3984	-1	-21	20	-9504	3264	13304	14	-3	-14	-16136	2000	-1520	-5	-7	-2	-15904	-552	-2792	21	2	-2	122	128	8
-8640	-2008	13392	-20	18	-27	-16216	-3976	-216	10	-6	15	-15712	176	-4016	-2	-20	19	-9560	3096	13456	14	-3	-10	-15920	2088	-1432	-2	-7	0	-15952	-472	-2856	21	-2	3	122	128	8
-8732	-2072	13384	-10	14	-32	-16240	-3808	40	6	-12	16	-15704	168	-4344	-3	-16	21	-9456	3272	13536	15	-10	-11	-16112	2000	-1488	-1	-7	-7	-15984	-432	-2752	24	-4	3	122	128	8
-8772	-2032	13276	-14	16	-29	-16136	-4008	-24	8	-8	15	-15656	248	-4152	-6	-17	21	-9424	3352	13560	14	-9	-12	-16104	1960	-1376	-6	-5	-6	-16072	-368	-2856	25	-5	0	122	128	8
-8720	-2032	13364	-17	14	-28	-16096	-3984	136	6	-6	16	-15688	136	-4408	-7	-17	21	-9432	3160	13584	13	-9	-16	-16184	1960	-1712	0	-10	-6	-15968	-272	-2624	26	2	0	122	128	8
-8744	-2044	13372	-12	14	-26	-16120	-3992	-120	10	-9	17	-15712	200	-4128	3	-21	17	-9472	3096	13616	13	-3	-11	-16136	2008	-1616	4	-11	-7	-15904	-448	-3000	30	-1	0	122	128	8
-8676	-2164	13368	-14	12	-31	-16224	-3888	-192	9	-7	15	-15720	56	-4176	0	-19	20	-9456	3272	13568	17	-4	-17	-15984	1872	-1512	-2	-4	-8	-16032	-464	-3016	24	1	-1	122	128	8
-8700	-1996	13392	-9	12	-28	-16048	-3984	136	6	-3	16	-15664	256	-3976	-10	-18	21	-9424	3208	13624	13	-2	-15	-16112	1976	-1528	-6	-6	-7	-15912	-416	-2744	19	-1	1	122	128	8
-8740	-2036	13444	-8	15	-29	-16096	-3800	96	8	-13	14	-15648	48	-4256	0	-12	20	-9640	3288	13360	14	-8	-15	-16184	1784	-1808	-8	-5	-7	-16096	-440	-3208	23	3	3	122	128	8
-8752	-2052	13356	-16	11	-29	-16184	-3832	-16	10	-4	14	-15616	96	-4216	-6	-13	21	-9504	3272	13488	17	-6	-10	-15960	1944	-1768	5	-10	-7	-15880	-536	-2912	25	1	1	122	128	8
-8708	-2036	13364	-12	14	-25	-16016	-3984	-152	13	-10	11	-15648	136	-4144	-5	-15	23	-9544	3120	13264	14	-3	-13	-16096	2000	-1368	5	-7	-8	-16064	-312	-3112	29	-7	6	122	128	8
-8700	-1996	13424	-12	16	-27	-16080	-4072	56	9	-3	15	-15704	96	-4016	-2	-13	23	-9456	3280	13488	15	-7	-17	-16064	1960	-1616	-1	-4	-6	-15944	-576	-2752	28	-5	-1	122	128	8
-8680	-1996	13340	-15	15	-26	-16096	-4016	32	15	-10	15	-15688	56	-4208	14	-10	23	-9368	3136	13760	14	4	-15	-16080	1880	-1440	-3	-6	-3	-15848	-408	-2944	23	0	1	122	128	8
-8744	-2104	13372	-14	21	-25	-16216	-3896	-24	14	-4	20	-15824	112	-4024	10	-14	23	-9528	3128	13512	14	5	-17	-16064	1952	-1432	1	-5	-10	-15880	-432	-2768	26	0	6	122	128	8
-8708	-2088	13360	-13	18	-24	-16080	-3848	-208	10	-7	17	-15672	-72	-4168	9	-17	23	-9536	3128	13456	13	-2	-18	-16048	1936	-1728	6	-10	-4	-16072	-240	-2856	20	-2	4	122	128	8
-8712	-2100	13304	-12	16	-26	-16152	-3880	56	12	-6	16	-15632	336	-4288	6	-11	23	-9544	3280	13528	16	-1	-18	-16144	1864	-1568	4	-8	-8	-15896	-392	-2640	27	-4	-2	122	128	8
-8660	-2080	13420	-9	16	-26	-16136	-3960	-120	11	-4	18	-15736	304	-4072	-1	-12	22	-9544	3128	13776	17	-1	-20	-15928	1880	-1600	8	-2	-8	-16008	-520	-3080	24	-3	1	122	128	8
-8764	-2040	13340	-13	15	-27	-15944	-3720	224	9	1	17	-15616	200	-4032	-2	-19	21	-9336	3184	13432	14	-9	-19	-16088	1968	-1376	-2	1	-6	-15952	-456	-2808	25	-6	-1	122	128	8
-8728	-2108	13400	-11	15	-26	-16136	-3880	96	8	-1	16	-15736	144	-4264	0	-23	18	-9560	3304	13440	19	2	-16	-16040	2056	-1368	-1	2	-6	-16032	-584	-2976	25	-6	4	122	128	8
-8724	-2068	13456	-13	15	-27	-16256	-3848	144	6	-3	16	-15776	120	-4104	2	-15	21	-9352	3264	13656	10	-4	-18	-15976	1992	-1520	-3	0	-12	-15960	-200	-3192	26	-4	1	122	128	8
-8676	-2076	13316	-7	14	-22	-16248	-4016	256	8	1	14	-15600	152	-4416	2	-12	19	-9608	3280	13544	14	-4	-19	-16160	2072	-1496	-3	-1	-8	-16000	-368	-3336	33	3	1	122	128	8
-8696	-2036	13456	-14	14	-27	-16112	-4088	-256	9	-1	18	-15616	96	-4416	-8	-10	17	-9416	3248	13432	15	-6	-18	-16120	2032	-1608	4	-4	-10	-15944	-384	-3056	28	4	2	122	128	8
-8720	-2000	13272	-19	16	-30	-16184	-3976	-152	10	-5	19	-15696	128	-4264	-9	-16	21	-9568	3304	13456	14	-2	-19	-16096	1936	-1432	2	-4	-10	-15904	-464	-2960	24	-1	-2	122	128	8
-8720	-2068	13304	-14	13	-28	-16144	-4000	64	6	-5	10	-15568	120	-4296	4	-19	13	-9392	3224	13568	12	-5	-11	-16104	1904	-1624	0	-5	-8	-15992	-432	-2912	23	-4	-1	122	128	8
-8692	-2044	13360	-8	12	-26	-16112	-3952	32	6	-2	12	-15664	240	-4056	-1	-21	18	-9512	3312	13536	14	2	-18	-16048	2008	-1656	-8	-2	-9	-15848	-424	-2976	19	-2	-4	122	128	8
-8672	-2012	13376	-16	10	-25	-16112	-3920	40	13	-7	15	-15736	144	-4368	-3	-13	20	-9440	3096	13528	17	-3	-18	-16032	1936	-1456	-3	-4	-9	-15936	-488	-2864	19	4	-2	122	128	8
-8684	-1992	13328	-15	18	-24	-16184	-4128	-120	7	-5	13	-15704	192	-4256	7	-12	22	-9360	3168	13648	15	-3	-19	-16184	2024	-1568	3	-9	-13	-15944	-384	-3024	22	-2	-1	122	128	8
-8728	-2160	13348	-14	14	-27	-16168	-4056	96	15	-3	18	-15600	32	-4128	7	-19	25	-9296	3272	13552	17	0	-15	-16048	1992	-1424	-9	-6	-10	-16112	-464	-2760	21	-2	-1	122	128	8
-8780	-2024	13348	-15	15	-26	-16064	-3904	-16	12	-1	17	-15760	88	-4032	-6	-14	20	-9560	3312	13328	16	1	-16	-16064	1864	-1624	1	-10	-9	-15880	-536	-2920	21	-1	0	121	128	8
-8724	-2056	13328	-13	18	-25	-16080	-3896	288	9	-5	11	-15712	152	-4120	3	-16	21	-9392	3224	13480	13	1	-16	-16280	1992	-1568	2	-4	-5	-15936	-432	-2688	27	-6	2	122	128	8
-8748	-2072	13340	-10	13	-25	-16072	-3936	-8	10	-5	14	-15632	224	-4288	0	-12	21	-9400	3312	13624	13	1	-20	-16104	1856	-1800	-3	-6	-7	-15872	-288	-2928	26	2	1	122	128	8
-8664	-2080	13392	-10	18	-26	-16128	-3944	328	12	-5	16	-15696	208	-4152	-3	-10	20	-9416	3224	13576	14	1	-21	-16200	1968	-1808	-2	-9	-6	-15816	-344	-2928	26	3	0	122	128	8
-8704	-2028	13276	-15	18	-25	-16104	-3928	80	12	-7	12	-15800	88	-3960	4	-12	27	-9568	3256	13520	12	-1	-20	-15904	1960	-1352	-3	-5	-5	-15856	-400	-3144	27	4	2	122	129	8
-8620	-2072	13384	-11	18	-19	-15992	-3888	40	12	-4	13	-15576	0	-4328	5	-13	22	-9536	3264	13624	11	3	-19	-16120	1928	-1560	1	-9	-6	-15976	-472	-2824	23	-4	2	122	128	8
-8752	-2016	13292	-15	16	-28	-16008	-3824	72	8	-5	16	-15760	72	-4104	10	-16	18	-9408	3208	13632	11	-3	-15	-16048	2032	-1448	-1	-5	-5	-15840	-480	-2848	22	-4	1	122	128	8
-8732	-2108	13480	-10	17	-20	-16016	-3928	-8	11	-5	15	-15672	72	-4168	1	-16	19	-9472	3136	13448	13	-3	-13	-16096	1968	-1488	-2	-6	-8	-15856	-472	-2912	18	-6	0	122	128	8
-8676	-2100	13364	-10	20	-24	-16120	-4024	288	9	3	16	-15568	80	-4248	-1	-13	21	-9496	3408	13736	12	-7	-15	-16096	1856	-1656	-3	-3	-13	-16088	-344	-3056	22	2	-1	122	128	8
-8684	-2084	13380	-12	21	-22	-16168	-3920	200	13	-3	15	-15824	272	-4360	-1	-9	24	-9504	3200	13456	12	-3	-17	-16080	2168	-1344	4	-2	-7	-15960	-544	-3056	24	-2	0	121	128	8
-8688	-2024	13328	-15	16	-24	-15984	-3904	272	10	1	15	-15696	176	-4288	-5	-11	24	-9504	3168	13648	13	-3	-16	-16216	1992	-1600	-5	-6	-7	-15824	-448	-2936	27	6	2	122	128	8
-8756	-2124	13304	-14	20	-26	-16128	-3872	-104	3	-3	14	-15616	8	-4144	4	-15	18	-9400	3168	13488	17	5	-18	-16024	1936	-1592	3	-13	-7	-15952	-336	-3016	30	1	0	121	128	8
-8648	-2080	13316	-13	18	-24	-16048	-3952	320	6	-2	16	-15744	160	-4352	7	-17	20	-9352	3224	13536	17	0	-19	-16144	1872	-1528	2	-6	-12	-16000	-440	-2864	24	-1	0	122	129	8
-8660	-2088	13396	-10	16	-23	-16144	-3864	72	11	-6	17	-15592	120	-3816	-2	-15	23	-9464	3328	13624	17	3	-20	-16200	1920	-1424	-3	-6	-6	-16016	-488	-2992	17	-5	2	122	128	8
-8640	-2036	13376	-17	19	-21	-16232	-3920	296	6	-7	14	-15680	56	-4240	-6	-11	21	-9408	3376	13520	13	4	-23	-16104	2008	-1512	-8	-2	-5	-15992	-344	-2808	15	-5	5	122	128	8
-8692	-2036	13356	-14	23	-19	-16160	-3936	352	11	-8	13	-15600	104	-4360	3	-11	26	-9512	3128	13312	14	-5	-18	-16128	2024	-1624	-1	-3	-6	-15992	-440	-2680	20	-6	-2	121	128	8
-8760	-2128	13324	-13	24	-19	-16024	-3984	184	15	-3	14	-15776	224	-4104	10	-11	23	-9480	3248	13680	16	4	-22	-16024	1984	-1488	-2	2	-7	-15816	-424	-2792	20	-4	0	121	128	8
-8760	-2088	13336	-14	22	-26	-16080	-3952	-48	15	-2	15	-15768	208	-4088	14	-16	22	-9440	3224	13512	15	2	-20	-16048	2056	-1512	3	-4	-2	-16096	-520	-2928	25	-2	4	121	128	8
-8740	-2080	13384	-12	20	-26	-16072	-3816	-40	10	-8	14	-15528	136	-4104	5	-17	22	-9472	3120	13632	15	0	-23	-16104	2000	-1504	-3	5	-9	-15808	-544	-2648	17	-3	2	122	129	8
-8764	-2096	13236	-13	18	-21	-16032	-4008	80	11	-5	13	-15712	96	-4248	4	-16	26	-9456	3376	13304	16	-4	-17	-16000	1944	-1672	6	-1	-3	-15928	-472	-2864	22	-6	2	122	128	8
-8744	-2000	13384	-12	19	-21	-16104	-3920	64	6	-5	23	-15720	112	-4280	0	-19	24	-9592	3200	13456	14	-3	-17	-16112	1968	-1520	3	4	-5	-15816	-448	-3152	25	-4	0	121	128	8
-8708	-2080	13372	-9	17	-19	-16080	-4016	360	6	-1	16	-15744	248	-4184	-11	-18	17	-9464	2984	13360	18	1	-18	-16120	2032	-1720	4	1	-5	-15872	-344	-2816	27	-1	3	122	128	8
-8720	-2044	13312	-15	15	-24	-16128	-3960	240	7	-4	19	-15760	144	-4536	3	-19	21	-9552	3272	13408	11	-1	-20	-16024	1944	-1800	-3	2	-5	-15976	-440	-3104	26	-2	2	121	128	8
-8760	-2068	13228	-12	14	-24	-16016	-3968	168	1	1	18	-15576	80	-4288	-1	-20	25	-9424	3264	13472	11	2	-20	-15992	1920	-1544	1	2	-7	-15824	-368	-2944	23	4	4	122	128	8
-8740	-2080	13388	-12	14	-25	-16168	-3944	232	4	-3	20	-15632	144	-4240	-1	-24	18	-9448	3160	13616	14	-2	-16	-16136	1952	-1696	-1	-1	-11	-15880	-224	-2784	16	-3	0	122	128	8
-8744	-2060	13416	-6	11	-27	-16216	-3912	344	7	1	21	-15720	152	-4472	3	-20	21	-9472	3112	13696	16	-1	-15	-16072	2104	-1544	-4	0	-6	-15848	-544	-2936	18	-5	3	122	128	8
-8744	-2052	13352	-12	21	-24	-16072	-3960	-208	15	-4	18	-15560	160	-4216	8	-10	18	-9408	3232	13368	10	0	-19	-16128	2088	-1648	-4	-5	-9	-15872	-496	-2976	21	-3	3	121	128	8
-8704	-2052	13308	-11	17	-25	-16024	-3880	-112	16	-6	19	-15768	224	-4376	2	-8	24	-9472	3120	13304	11	-3	-21	-15888	1976	-1520	1	-4	-7	-15912	-424	-2944	21	1	0	122	128	8
-8808	-2068	13352	-12	18	-25	-16008	-4056	64	9	-1	19	-15656	32	-4096	4	-17	19	-9424	3208	13560	15	-4	-12	-16048	1928	-1528	5	-5	-7	-15800	-424	-3048	26	2	0	122	128	8
-8756	-2036	13328	-13	16	-24	-16096	-3912	8	4	1	16	-15704	224	-4016	3	-20	24	-9552	3320	13544	14	-5	-17	-15824	2032	-1408	-1	-1	-9	-15864	-536	-2888	24	1	1	122	128	8
-8700	-2088	13416	-14	13	-27	-16280	-4040	48	2	-3	17	-15800	136	-4032	-6	-15	24	-9488	3312	13560	16	-7	-19	-16032	1920	-1744	-4	-3	-11	-16000	-384	-2864	19	-1	-2	122	128	8
-8716	-1996	13324	-9	24	-22	-16240	-4072	192	4	1	22	-15784	232	-4168	4	-18	23	-9440	3248	13424	12	-4	-19	-16072	1960	-1424	-5	3	-5	-15968	-416	-2928	24	-5	-1	122	128	8
-8708	-2044	13400	-13	20	-25	-16248	-3848	8	7	-7	19	-15808	144	-4464	-10	-16	22	-9488	3168	13568	13	2	-17	-16208	1856	-1368	-3	-2	-10	-16024	-368	-3200	25	0	2	122	128	8
-8696	-2040	13320	-11	22	-23	-16120	-3912	104	7	-2	17	-15760	128	-4256	-3	-17	19	-9584	3384	13384	17	-2	-16	-16136	2064	-1608	-1	4	-6	-15880	-288	-2936	23	2	4	121	128	8
-8728	-2076	13288	-11	23	-20	-16144	-3912	-24	7	-3	20	-15648	48	-4184	8	-14	20	-9448	3200	13320	13	2	-20	-16048	1944	-1592	-5	-3	-8	-15928	-368	-2984	24	5	4	122	128	8
-8696	-2076	13284	-11	18	-20	-16080	-3904	40	7	-1	15	-15816	216	-4200	2	-19	22	-9400	3184	13584	17	-1	-23	-16088	1960	-1368	-4	-4	-7	-15856	-368	-2920	20	-3	-1	122	128	8
-8696	-2092	13388	-15	20	-27	-16032	-3816	72	8	-2	16	-15688	256	-4200	4	-19	17	-9504	3208	13512	11	4	-19	-16040	2024	-1392	-2	-1	-6	-16040	-440	-2824	21	-11	-1	122	128	8
-8784	-2004	13348	-12	21	-27	-16200	-3928	-16	9	-3	21	-15640	208	-4400	2	-19	20	-9560	3216	13536	11	0	-18	-16032	1896	-1392	1	0	-5	-15952	-328	-2864	16	-9	-1	121	128	8
-8744	-2076	13356	-16	20	-24	-16160	-3944	200	12	-8	13	-15664	144	-4376	-5	-16	20	-9312	3224	13600	15	-5	-15	-16080	1992	-1600	-1	-2	-9	-16008	-416	-2848	22	-9	-1	122	128	8
-8688	-2060	13308	-15	17	-26	-16080	-3920	32	8	-7	11	-15784	320	-4032	-1	-15	20	-9424	3336	13432	12	-1	-18	-16200	2064	-1224	-2	-2	-7	-15936	-432	-2928	17	-7	-1	122	128	8
-8712	-2096	13384	-13	19	-26	-16128	-3912	280	9	-4	16	-15616	160	-4144	7	-17	19	-9472	2960	13696	18	-5	-19	-15992	2024	-1776	-6	3	-7	-15976	-552	-3136	21	-14	-1	122	128	8
-8636	-2080	13364	-12	14	-27	-16080	-3944	96	10	-1	17	-15688	24	-4176	8	-20	22	-9448	3224	13544	14	0	-19	-16048	2056	-1712	0	0	-6	-15992	-480	-2992	28	-2	-2	122	128	8
-8748	-2108	13372	-10	12	-24	-16168	-4024	56	9	-5	12	-15704	56	-3984	4	-22	18	-9528	3168	13400	12	-4	-16	-16184	1872	-1504	4	1	-11	-15944	-376	-3056	25	-6	0	121	128	8
-8672	-2040	13352	-17	17	-20	-16248	-4040	320	7	-4	13	-15792	176	-4304	-5	-20	17	-9416	3320	13448	11	-7	-21	-15936	1928	-1568	-4	-4	-9	-16096	-344	-2728	21	-14	0	122	128	8
-8704	-2068	13352	-15	19	-21	-16160	-3864	56	12	-3	17	-15688	120	-4216	-1	-22	20	-9304	3104	13536	18	-4	-19	-16064	1992	-1720	-6	-3	-11	-15912	-416	-2784	21	-13	-2	122	128	8
-8720	-2096	13316	-13	19	-25	-16168	-3952	120	10	-4	17	-15712	176	-4208	0	-20	17	-9480	3224	13560	9	6	-16	-16008	2000	-1624	-2	2	-12	-15896	-472	-2888	17	-10	-1	122	128	8
-8724	-1988	13348	-14	16	-23	-16088	-3912	96	6	2	14	-15640	136	-4136	3	-21	20	-9496	3328	13648	9	-2	-15	-16120	1944	-1960	-7	-1	-6	-15896	-376	-2920	23	-10	-2	122	128	8
-8760	-1996	13376	-17	17	-20	-16056	-3920	136	3	-2	16	-15696	304	-4128	0	-23	18	-9416	3072	13272	11	-3	-13	-16080	1912	-1800	7	-4	-7	-15808	-344	-2888	25	-8	-1	122	128	8
-8736	-2060	13360	-8	13	-25	-16160	-3880	8	1	-6	16	-15696	160	-4320	-4	-30	17	-9416	3280	13664	10	-5	-15	-15960	1960	-1272	10	-8	-12	-15832	-472	-2984	28	-10	-2	122	128	8
-8648	-2120	13340	-17	10	-27	-16120	-3968	64	9	-2	15	-15560	160	-4136	-3	-20	16	-9360	3128	13664	10	-8	-17	-16032	1896	-1776	-4	-1	-3	-16016	-456	-2944	23	-11	-1	122	128	8
-8660	-2056	13368	-12	12	-28	-16200	-3976	80	14	1	14	-15608	256	-4280	0	-23	17	-9376	3152	13640	13	-9	-18	-16184	1944	-1584	-1	-3	-10	-16024	-480	-2696	20	-16	-1	122	128	8
-8676	-2060	13324	-13	11	-26	-15952	-4072	104	14	-3	16	-15776	192	-4144	10	-21	13	-9560	3200	13672	13	-4	-18	-16088	1912	-1504	4	-4	-8	-15992	-384	-2904	24	-13	-1	122	128	8
-8720	-1988	13400	-13	12	-24	-16168	-3904	-144	12	-8	15	-15632	160	-3960	3	-22	21	-9376	3160	13440	10	-3	-15	-16040	1896	-1640	-3	-1	-10	-15912	-392	-2880	28	-10	2	122	128	8
-8704	-2072	13304	-12	14	-28	-16024	-3896	-8	10	-7	12	-15648	80	-4208	4	-25	18	-9512	3200	13568	14	-4	-17	-16120	1968	-1576	1	-3	-6	-15992	-424	-2960	26	-10	1	122	128	8
-8716	-2024	13368	-16	11	-28	-16208	-3880	184	5	-2	15	-15656	192	-4320	3	-19	20	-9600	3296	13512	15	-8	-16	-16040	2048	-1536	1	-8	-7	-16000	-240	-3104	26	-7	0	121	128	8
-8700	-2044	13356	-15	10	-29	-15968	-3888	80	7	-4	13	-15768	80	-4256	6	-25	19	-9368	3160	13400	12	-8	-13	-16128	1912	-1456	5	-8	-8	-15992	-560	-3024	27	-9	-1	122	128	8
-8676	-2016	13260	-14	14	-30	-16104	-3992	-48	10	1	14	-15672	48	-4056	9	-28	14	-9392	3120	13672	16	-4	-18	-15968	2024	-1864	-7	-6	-6	-16072	-392	-2672	29	-7	1	121	128	8
-8716	-2056	13420	-11	10	-30	-16048	-3816	288	10	-5	14	-15704	96	-4064	2	-28	20	-9464	3120	13664	13	-4	-13	-16160	1880	-1752	-8	-13	-6	-16000	-416	-3000	27	-6	3	122	128	8
-8680	-2060	13416	-13	12	-31	-16264	-3872	-32	13	-4	11	-15704	40	-4176	4	-25	19	-9456	3184	13352	18	-8	-14	-16056	1904	-1656	0	-14	-2	-15928	-568	-2768	36	-4	1	122	128	8
-8732	-2100	13304	-15	9	-29	-16168	-3944	-24	7	-5	14	-15688	168	-4192	2	-21	17	-9464	3288	13312	17	-11	-15	-16216	1920	-1640	8	-22	-5	-16104	-440	-2976	42	-5	2	122	128	8
-8736	-2064	13296	-11	12	-29	-16128	-3904	-112	9	-8	14	-15848	208	-4104	0	-25	20	-9368	3264	13424	17	-11	-12	-16144	1936	-1368	0	-16	-4	-15936	-544	-2920	40	-8	6	122	128	8
-8680	-1948	13364	-13	8	-32	-16096	-3864	-136	7	-10	9	-15624	144	-4320	8	-19	21	-9488	3200	13416	17	-7	-12	-16120	1968	-1736	1	-18	-1	-15936	-344	-2992	38	-3	5	122	128	8
-8752	-2104	13400	-9	6	-32	-16024	-3984	176	9	-13	14	-15624	8	-4112	6	-24	23	-9504	3304	13408	17	-11	-9	-16072	1816	-1584	-11	-20	-4	-16000	-480	-2984	35	-5	6	122	128	8
-8680	-2080	13396	-13	5	-32	-16160	-3904	56	11	-19	15	-15840	0	-4280	11	-22	23	-9464	3192	13464	18	-5	-9	-16144	1920	-1504	5	-21	-2	-15968	-448	-3096	35	-7	4	122	128	8
-8732	-2008	13348	-16	11	-31	-16136	-3928	-24	10	-15	14	-15640	40	-4296	4	-21	24	-9536	3272	13544	16	-4	-14	-16280	2032	-1624	5	-20	3	-15984	-448	-2800	36	-7	6	122	128	8
-8640	-2052	13296	-12	12	-31	-16144	-4000	128	9	-12	14	-15680	144	-4016	6	-18	28	-9432	3280	13376	16	-4	-13	-16040	2040	-1504	6	-26	-2	-15984	-408	-2736	34	-5	6	122	128	8
-8732	-2060	13332	-17	13	-36	-16104	-3784	352	10	-17	16	-15616	-8	-3904	3	-21	25	-9432	3352	13416	18	0	-15	-15976	2056	-1480	2	-19	4	-16064	-368	-2768	34	-10	4	122	128	8
-8716	-2092	13328	-18	14	-28	-16128	-4088	168	12	-8	13	-15768	48	-4064	-1	-20	25	-9408	3224	13528	16	1	-11	-16088	2072	-1584	1	-16	0	-16096	-416	-2784	31	-11	4	122	128	8
-8684	-2092	13356	-16	15	-28	-15944	-4120	216	13	-11	13	-15760	200	-4264	1	-18	23	-9528	3296	13672	15	2	-17	-16032	2056	-1488	2	-15	0	-15984	-456	-2872	22	-11	2	122	128	8
-8676	-2060	13428	-13	14	-29	-16224	-3984	64	11	-8	16	-15704	112	-4112	1	-21	19	-9400	3296	13560	14	-1	-16	-16160	1992	-1536	1	-13	3	-16016	-488	-2752	20	-9	1	121	128	8
-8676	-2080	13344	-13	14	-25	-16056	-3896	136	10	-11	11	-15768	200	-4216	10	-19	15	-9376	3328	13440	15	-2	-16	-15992	2048	-1344	-2	-9	1	-16008	-488	-2632	22	-4	4	121	128	8
-8672	-2104	13300	-13	13	-26	-16176	-3872	-224	10	-12	12	-15720	104	-4120	-2	-22	14	-9536	3192	13480	15	-6	-18	-16000	2056	-1624	-4	-9	-1	-16024	-376	-2736	17	-2	3	122	128	8
-8780	-2044	13376	-15	15	-24	-16136	-3936	232	9	-10	17	-15616	184	-4112	-12	-23	15	-9392	3112	13560	16	7	-17	-16080	1952	-1456	-3	-6	-4	-16040	-336	-2400	17	-4	0	122	128	8
-8640	-2088	13396	-14	12	-24	-16232	-3976	8	5	-12	14	-15696	216	-3992	-7	-27	12	-9416	3256	13472	16	1	-19	-16248	1808	-1664	-7	1	-2	-15984	-376	-2696	7	-12	-2	121	128	8
-8700	-2112	13480	-13	17	-26	-16136	-3896	184	3	-16	14	-15656	0	-3952	-9	-30	9	-9528	3248	13616	12	-9	-20	-16120	1928	-1584	-9	2	-5	-15848	-400	-2800	10	-14	-1	122	128	8
-8732	-2088	13288	-14	10	-27	-16080	-4088	72	1	-10	13	-15800	56	-4152	-13	-28	12	-9480	3192	13568	13	-1	-17	-16072	2056	-1520	-5	3	-3	-16040	-504	-2696	15	-2	-5	121	128	8
-8696	-2104	13400	-13	18	-26	-16264	-3912	104	7	-14	13	-15672	112	-4232	-10	-22	11	-9424	3232	13424	13	-1	-16	-16168	1960	-1520	-1	-1	-6	-15800	-328	-2856	21	-2	-3	121	128	8
-8724	-2076	13400	-12	15	-23	-16168	-3920	0	9	-14	14	-15672	-48	-4376	-13	-21	13	-9488	3120	13544	17	-3	-16	-16200	2056	-1744	3	-6	-5	-15992	-384	-3104	25	-2	-1	122	128	8
-8716	-2072	13352	-12	16	-29	-16168	-3944	216	8	-9	13	-15608	16	-4088	-2	-24	15	-9496	3304	13488	17	2	-18	-16136	2000	-1416	-1	-8	-3	-15912	-480	-2752	22	-3	1	122	128	8
-8652	-2056	13372	-20	15	-26	-16176	-3984	248	6	-8	12	-15784	-64	-4120	3	-22	15	-9416	3144	13488	15	-4	-18	-16072	1976	-1424	1	-12	-4	-16008	-416	-2856	25	-10	1	121	128	8
-8716	-2056	13416	-15	11	-30	-16016	-4056	224	9	-7	12	-15768	64	-4032	5	-23	14	-9304	3240	13352	14	-5	-17	-16120	2024	-1280	-1	-10	-5	-15904	-432	-2840	27	-15	-1	122	128	8
-8612	-2136	13324	-12	16	-23	-16040	-3944	128	14	-5	12	-15768	104	-4112	-4	-18	14	-9368	3312	13416	11	-3	-19	-16200	1968	-1440	3	-12	-5	-16048	-224	-2888	25	-7	1	121	128	8
-8724	-2108	13288	-12	15	-29	-16216	-3976	120	11	-1	12	-15800	48	-4216	1	-20	17	-9336	3248	13712	11	1	-20	-16144	2032	-1536	0	-12	-6	-16072	-328	-2960	26	-11	3	122	128	8
-8716	-2100	13284	-14	15	-28	-16104	-3856	240	15	-8	15	-15912	56	-3984	6	-18	16	-9400	3312	13664	12	-3	-18	-16056	1984	-1656	-3	-14	-8	-16024	-488	-2824	27	-12	-2	122	128	8
-8696	-2016	13288	-11	19	-28	-16136	-3976	72	11	-1	12	-15680	152	-4032	6	-20	16	-9472	3320	13512	12	-5	-17	-16112	1912	-1744	0	-9	-14	-15976	-472	-2632	28	-11	-3	122	128	8
-8640	-2076	13392	-9	16	-25	-16152	-3856	192	17	-5	8	-15640	208	-4104	1	-16	16	-9456	3336	13544	11	-9	-16	-15952	1872	-1568	4	-10	0	-15816	-600	-2792	28	-9	1	122	128	8
-8728	-2060	13332	-16	23	-24	-16064	-3912	184	14	-8	8	-15712	104	-4216	5	-19	18	-9440	3192	13584	14	0	-14	-16136	2024	-1488	-2	-9	-3	-15864	-440	-2624	27	-8	-1	121	128	8
-8764	-2088	13344	-17	15	-25	-16120	-4040	8	9	-11	11	-15696	144	-4056	2	-21	17	-9432	3200	13560	11	-4	-20	-16104	2024	-1440	1	-9	-9	-16104	-528	-2816	29	-6	-3	122	128	8
-8724	-2056	13284	-17	15	-28	-16024	-3944	176	6	-10	10	-15656	-40	-4216	13	-23	15	-9488	3256	13408	14	1	-18	-16088	2024	-1424	1	-12	-4	-16000	-448	-2904	24	-8	-4	122	128	8
-8700	-2140	13320	-16	12	-30	-15952	-3976	376	11	-3	15	-15792	88	-4024	5	-26	16	-9440	3264	13520	16	-4	-16	-16096	2112	-1456	0	-8	-11	-16000	-392	-2920	19	-10	0	122	128	8
-8668	-2080	13404	-13	16	-30	-16144	-4000	0	12	-4	11	-15744	96	-4080	-2	-27	14	-9440	3352	13288	18	-5	-18	-16064	1968	-1568	-5	-9	-9	-16016	-504	-2520	15	-8	0	122	128	8
-8680	-2072	13380	-17	18	-25	-16264	-3864	360	15	-4	11	-15808	192	-4024	-11	-21	12	-9560	3184	13536	14	-6	-16	-16088	1864	-1424	2	-9	-9	-16016	-416	-2824	18	-9	0	122	128	8
-8712	-2092	13304	-16	19	-24	-16136	-3896	-56	10	-6	15	-15752	64	-4200	-7	-17	13	-9352	3208	13456	17	1	-17	-16176	1952	-1408	3	-6	-6	-15968	-360	-2608	21	-4	-3	122	129	8
-8640	-2060	13264	-11	13	-25	-15992	-4128	72	15	-4	13	-15584	64	-4424	-11	-21	13	-9368	3096	13576	12	-6	-19	-16272	2112	-1616	-6	-7	-4	-16080	-488	-2704	28	-5	-4	122	128	8
-8684	-2076	13328	-10	13	-27	-16024	-3912	-24	12	-8	15	-15568	-8	-4128	-4	-24	12	-9344	3128	13616	15	-2	-20	-16136	1920	-1528	2	-6	-6	-16040	-664	-2696	31	-9	2	121	128	8
-8620	-2040	13364	-12	8	-29	-16104	-3944	-56	10	-4	15	-15696	56	-4128	3	-23	14	-9480	3120	13536	15	-2	-13	-16008	2040	-1416	6	-9	-4	-15960	-400	-2872	35	-16	3	121	128	8
-8696	-2056	13412	-13	7	-29	-16152	-3928	64	13	-9	13	-15872	16	-4256	-3	-23	22	-9440	3224	13464	14	-1	-17	-16032	1928	-1672	0	-9	-8	-15976	-488	-2736	39	-20	-1	121	129	8
-8676	-2044	13352	-11	13	-23	-16184	-4000	128	6	-8	14	-15824	32	-3904	4	-22	20	-9424	3192	13440	15	-1	-14	-15968	2096	-1432	9	-5	-5	-15872	-456	-2880	40	-18	4	122	129	8
-8648	-2072	13400	-8	13	-29	-16040	-3976	408	10	-5	11	-15680	328	-3928	9	-25	18	-9504	3224	13656	18	-4	-15	-16000	1856	-1680	2	-11	-6	-15880	-416	-2944	39	-16	4	121	128	8
-8700	-2060	13348	-15	18	-29	-16120	-3992	288	14	-4	10	-15856	352	-3896	7	-25	17	-9480	3384	13600	12	-8	-10	-15928	2088	-1616	-3	-10	-7	-15800	-240	-3256	41	-13	7	122	128	8
-8696	-2044	13356	-14	19	-26	-16064	-3936	0	14	-6	4	-15696	304	-4072	5	-25	18	-9408	3136	13624	13	-15	-12	-16224	2000	-1664	3	-25	-5	-15960	-312	-3040	42	-9	1	121	128	8
-8736	-2028	13340	-23	25	-34	-16144	-3864	216	15	-6	0	-15688	264	-4128	16	-23	23	-9488	3288	13384	9	-16	-13	-16056	2104	-1584	13	-33	-5	-15856	-328	-3136	48	-17	-4	121	128	8
-8716	-2068	13260	-21	22	-40	-16096	-3944	136	16	-7	1	-15760	-8	-4104	28	-19	21	-9408	3312	13784	12	-24	-11	-16240	1968	-1584	-3	-33	-9	-16064	-288	-2648	36	-19	-2	121	128	8
-8728	-2116	13360	-19	19	-37	-16208	-4040	48	21	-7	2	-15736	-64	-4168	36	-17	18	-9360	3312	13520	11	-16	-11	-16328	1880	-1504	4	-37	-11	-16000	-392	-2888	29	-9	-7	122	128	8
-8652	-2136	13392	-19	16	-30	-16056	-4320	392	23	-9	1	-15880	-400	-4016	21	-17	13	-9240	3288	13544	15	-2	-10	-16240	1936	-1368	11	-35	-7	-16328	-632	-2448	35	-6	-10	121	128	8
-8664	-2096	13352	-16	18	-28	-15968	-3992	152	13	-11	11	-15800	-136	-3984	4	-21	11	-9432	3248	13552	19	6	-19	-16208	1960	-1360	6	-25	-5	-16128	-728	-2400	23	10	-12	122	128	8
-8756	-2168	13368	-13	21	-27	-16040	-4256	144	-1	-12	18	-15800	-136	-3856	-22	-27	7	-9488	3192	13624	27	8	-19	-15808	2152	-1184	-9	-13	-6	-16136	-840	-2120	-2	11	-8	122	128	8
-8592	-2184	13372	-12	11	-24	-15968	-3976	424	-7	-10	17	-15672	-144	-4016	-34	-28	4	-9352	3400	13568	17	7	-19	-15792	2104	-928	-21	8	-8	-15992	-656	-2056	-12	14	0	122	128	8
-8740	-2072	13292	-10	9	-24	-16104	-3952	256	-10	-11	20	-15752	104	-4248	-49	-31	8	-9496	3160	13352	15	1	-17	-15920	1976	-1200	-21	20	-4	-15888	-728	-2344	-6	13	8	122	128	8
-8748	-2116	13356	-11	9	-20	-16040	-4104	88	-10	-8	23	-15520	240	-4336	-42	-34	13	-9376	3256	13472	9	-13	-15	-15952	1960	-1384	-11	24	-5	-15856	-592	-2552	8	11	8	121	128	8
-8648	-1984	13336	-7	13	-18	-16272	-3984	24	-4	-11	20	-15640	80	-4232	-40	-33	16	-9336	3320	13648	6	-8	-19	-16056	1984	-1544	-4	23	-4	-15992	-560	-2712	25	8	6	122	129	8
-8640	-2068	13292	-15	16	-23	-16200	-4016	224	-3	-13	25	-15600	64	-4088	-16	-35	21	-9400	3376	13368	9	-9	-15	-16144	1880	-1504	-6	18	-5	-16048	-368	-3072	31	-2	8	122	129	8
-8732	-2124	13348	-9	13	-23	-16248	-3968	128	-4	-19	18	-15712	-56	-4224	-10	-31	22	-9336	3264	13368	8	3	-17	-16248	1928	-1448	2	10	-6	-16048	-424	-3040	36	-8	5	121	128	8
-8676	-2108	13352	-12	12	-22	-16088	-3976	64	-1	-19	20	-15584	-120	-4184	1	-25	22	-9224	3264	13408	14	3	-21	-16232	1776	-1960	-6	12	-2	-16216	-272	-3080	33	-8	1	121	128	8
-8656	-2120	13484	-7	13	-25	-16096	-4024	296	4	-10	20	-15768	0	-3976	-4	-24	20	-9344	3112	13440	16	5	-21	-16104	1968	-1616	2	-7	1	-16080	-328	-3112	25	-3	2	121	128	8
-8644	-2016	13300	-10	16	-21	-16184	-3904	312	11	-14	18	-15864	120	-3960	-2	-20	18	-9600	3224	13656	23	5	-20	-15992	2088	-1512	10	-10	2	-15664	-296	-3152	17	-2	-1	121	128	8
-8688	-2116	13384	-17	18	-26	-16160	-3888	176	8	-6	18	-15624	400	-4112	-11	-23	23	-9328	3088	13408	15	1	-11	-16000	1832	-1496	-6	-10	-5	-15648	-376	-2856	3	-5	4	121	129	8
-8728	-2056	13428	-17	14	-22	-16008	-3952	64	12	-7	13	-15752	344	-4168	-6	-22	21	-9440	3032	13568	15	-8	-13	-16000	2024	-1440	-15	-14	-3	-15912	-424	-2960	2	-8	7	121	129	8
-8716	-2116	13308	-16	13	-32	-16264	-4024	296	5	-15	14	-15616	200	-4256	-10	-22	24	-9400	3136	13472	13	-13	-12	-16080	2032	-1520	-9	-18	3	-15912	-496	-2928	10	-7	8	121	128	8
-8652	-2068	13272	-11	11	-30	-16088	-3928	168	0	-25	12	-15528	120	-4304	-15	-20	26	-9488	3296	13712	13	-4	-12	-16184	1872	-1608	-6	-25	4	-16048	-480	-2816	24	-4	7	121	128	8
-8704	-2088	13328	-16	13	-26	-16160	-4128	152	-1	-26	8	-15624	-8	-4152	-11	-23	28	-9312	3256	13640	18	-2	-13	-16144	2080	-1272	7	-28	8	-15808	-408	-2904	42	-1	4	121	128	8
-8652	-2140	13356	-17	16	-28	-16176	-3968	376	10	-30	8	-15704	-40	-4200	-7	-20	23	-9416	3320	13360	13	-2	-14	-16168	2064	-1608	6	-32	4	-16064	-520	-2640	46	6	2	121	128	8
-8732	-2096	13308	-15	16	-31	-16000	-3992	144	12	-28	11	-15744	104	-4032	-5	-15	17	-9544	3104	13640	16	-1	-15	-16048	2104	-1464	15	-34	1	-15936	-448	-2680	37	-1	1	121	128	8
-8676	-2108	13396	-19	22	-30	-16040	-4176	120	19	-27	9	-15776	-80	-3960	13	-10	18	-9256	3208	13416	18	-3	-12	-15984	1936	-1200	9	-27	2	-16120	-456	-2496	24	-8	3	121	128	8
-8768	-2084	13396	-15	14	-29	-16184	-3960	216	21	-26	11	-15784	144	-3736	26	-11	18	-9328	3280	13656	18	5	-14	-16072	2072	-1208	-7	-19	3	-16048	-336	-2672	5	-13	1	121	128	8
-8704	-2092	13336	-12	12	-30	-16056	-3904	232	18	-22	10	-15776	160	-3968	5	-13	18	-9360	3256	13472	14	-8	-11	-15960	2064	-1424	-16	-11	-1	-15888	-328	-2584	-9	-14	10	121	128	8
-8616	-2128	13316	-13	15	-26	-16040	-4120	272	14	-18	10	-15752	48	-4056	4	-18	22	-9440	3120	13448	13	-7	-16	-16000	2296	-1448	-23	-10	5	-16032	-304	-2744	-1	-4	5	121	128	8
-8700	-2212	13416	-15	17	-28	-16200	-4024	312	11	-18	9	-15712	168	-3960	-10	-18	25	-9512	3328	13536	12	-7	-14	-16112	1904	-1432	-11	-12	2	-15944	-520	-2768	12	4	2	121	128	8
-8712	-2100	13332	-16	21	-29	-16168	-4144	216	8	-20	8	-15744	104	-3872	-20	-22	22	-9544	3192	13448	13	-2	-13	-16176	2240	-1576	8	-22	1	-15984	-408	-2920	28	16	4	121	128	8
-8716	-2064	13316	-20	23	-29	-16112	-4056	480	-2	-27	10	-15752	-136	-3968	-13	-13	24	-9376	3232	13488	16	2	-16	-16144	2136	-1192	4	-21	-4	-15992	-464	-2568	29	15	2	121	128	8
-8768	-1984	13240	-17	20	-25	-16080	-3992	272	4	-27	10	-15536	-200	-4056	-11	-13	20	-9584	3336	13704	18	-2	-10	-16056	2072	-1240	-2	-15	-6	-16240	-576	-2360	22	2	4	121	128	8
-8660	-2164	13424	-13	21	-28	-16160	-4152	376	13	-18	12	-15712	-64	-3920	1	0	25	-9480	3376	13384	13	-5	-14	-16048	2032	-1336	-2	-9	-6	-16024	-488	-2536	14	1	2	121	128	8
-8704	-2108	13236	-11	18	-27	-16184	-4040	272	14	-17	12	-15904	64	-3720	-7	-5	24	-9408	3336	13776	18	-1	-16	-15976	2304	-1176	-2	1	-8	-16168	-320	-2440	3	3	-5	121	128	8
-8616	-2164	13352	-14	19	-27	-16080	-4176	320	9	-6	19	-15656	-160	-3864	12	-11	22	-9352	3240	13536	14	-3	-16	-16072	2104	-1312	-16	11	-12	-16064	-344	-2408	-3	13	0	121	128	8
-8620	-2156	13204	-14	16	-25	-16112	-4128	272	5	-1	24	-15864	-104	-3856	-28	-16	22	-9440	3312	13608	11	4	-18	-16064	2096	-1224	-19	17	-11	-16024	-640	-2680	3	17	2	121	128	8
-8704	-2092	13340	-9	13	-23	-16112	-4024	272	-5	2	26	-15864	-56	-3808	-17	-18	21	-9376	3208	13408	13	-9	-21	-15920	2096	-1192	-11	16	-8	-16072	-736	-2680	5	17	1	121	129	8
-8692	-2156	13392	-8	13	-20	-16208	-4064	280	-5	8	29	-15712	24	-3968	-40	-20	23	-9488	3312	13376	13	-6	-21	-16056	2088	-1312	-4	17	-6	-15904	-560	-2592	24	12	2	121	129	8
-8672	-2072	13384	-9	14	-18	-16168	-4072	416	-4	3	27	-15720	120	-4128	-32	-19	24	-9280	3144	13712	9	-2	-20	-16176	2104	-1384	7	14	-5	-15960	-560	-2712	25	12	2	121	128	8
-8664	-2120	13400	-6	13	-22	-16200	-3952	248	-2	4	27	-15648	128	-4088	-15	-12	22	-9464	3208	13464	14	-3	-18	-15944	2024	-1464	7	18	-8	-15968	-312	-2688	41	3	4	121	129	8
-8692	-2092	13476	-7	16	-18	-16248	-3928	256	2	4	23	-15752	72	-4184	-6	-13	23	-9352	3304	13448	13	1	-22	-16112	2112	-1216	3	14	-6	-15904	-224	-2976	35	5	7	121	128	8
-8652	-2116	13388	-9	21	-25	-16176	-3936	56	7	0	22	-15624	136	-4288	1	-17	28	-9496	3296	13784	14	1	-19	-16064	1952	-1648	1	15	-11	-16112	-376	-3080	24	1	1	121	128	8
-8672	-2116	13376	-11	20	-22	-16120	-4056	408	8	4	22	-15656	80	-3984	14	-16	25	-9376	3208	13520	17	4	-17	-15944	1960	-1608	0	8	-7	-15952	-432	-3096	18	6	2	121	128	8
-8696	-2080	13340	-11	13	-22	-16136	-3856	288	9	10	23	-15712	112	-4032	15	-20	26	-9496	3384	13584	13	-1	-17	-16136	2072	-1664	1	0	-14	-15816	-320	-2976	15	4	-1	120	128	8
-8668	-2116	13440	-10	16	-22	-16232	-4080	336	16	10	20	-15792	112	-4008	21	-16	26	-9552	3200	13696	13	-2	-16	-16000	2000	-1560	3	-3	-8	-15704	-344	-3056	12	7	-1	121	128	8
-8732	-2136	13428	-14	17	-21	-16200	-3920	392	13	9	22	-15720	184	-4264	6	-15	29	-9328	3296	13640	11	-6	-15	-16112	2088	-1616	1	-3	-9	-15944	-416	-2936	13	2	-4	121	128	8
-8692	-2160	13324	-15	14	-28	-16376	-3984	328	12	2	23	-15744	168	-4024	-5	-10	23	-9408	3304	13608	13	-2	-15	-16112	2032	-1576	4	-10	-6	-16024	-592	-2784	26	-1	-1	121	128	8
-8684	-2132	13340	-20	21	-22	-16160	-3992	0	8	-2	17	-15592	128	-3944	-12	-8	28	-9352	3248	13576	15	-1	-17	-16032	2056	-1384	-3	-7	-9	-16088	-384	-2728	35	7	4	121	128	8
-8728	-2104	13292	-10	18	-27	-16136	-3936	424	7	-6	19	-15680	96	-4248	-8	-9	23	-9368	3184	13368	12	3	-16	-16192	2120	-1440	6	-7	-11	-16136	-384	-2560	35	9	1	121	128	8
-8632	-2080	13384	-8	17	-28	-16064	-3984	416	4	-8	18	-15568	248	-4232	-1	-11	25	-9312	3384	13584	13	5	-17	-16192	1984	-1424	5	-5	-11	-15984	-408	-2728	32	12	4	121	128	8
-8660	-2064	13412	-7	14	-25	-16112	-4072	128	2	-10	19	-15688	120	-4056	7	-12	27	-9456	3152	13640	13	-1	-17	-16136	1920	-1376	2	2	-8	-15944	-456	-2880	26	7	3	121	128	8
-8664	-2080	13288	-5	12	-28	-16272	-3944	344	10	-3	15	-15640	152	-4040	14	-15	23	-9504	3264	13384	17	-3	-18	-16160	2088	-1504	5	-4	-13	-16000	-424	-2960	19	0	-2	121	128	8
-8620	-2072	13344	-14	16	-27	-16208	-3880	192	15	-1	13	-15808	-96	-3872	14	-9	25	-9440	3088	13536	14	-4	-14	-16000	2040	-1624	-2	-4	-9	-15904	-240	-3104	18	3	2	121	128	8
-8660	-2096	13356	-7	17	-26	-16208	-3968	272	16	-1	15	-15624	-80	-4064	6	-8	28	-9328	3112	13744	8	-4	-17	-16176	1984	-1416	-1	-7	-10	-15928	-384	-2688	19	0	1	121	128	8
-8636	-2068	13336	-15	16	-25	-16096	-4160	192	11	0	20	-15832	40	-3832	-4	-10	24	-9448	3088	13504	11	-3	-16	-16064	1992	-1480	4	-9	-10	-16064	-440	-2864	21	1	-2	121	128	8
-8708	-2164	13468	-11	15	-27	-16232	-3984	248	10	-2	19	-15712	80	-3880	3	-5	30	-9560	3360	13744	15	-8	-17	-16032	2064	-1288	3	-7	-9	-16064	-416	-2864	24	-6	-1	121	128	8
-8724	-2132	13352	-15	17	-24	-16112	-4200	296	9	-5	17	-15680	-8	-3968	6	-7	28	-9352	3272	13424	13	-5	-15	-16120	2152	-1144	2	-9	-9	-16024	-384	-2856	30	5	1	121	128	8
-8704	-2128	13448	-14	21	-26	-16008	-3912	408	15	5	18	-15736	112	-3968	2	-8	28	-9504	3296	13760	12	8	-18	-16224	1880	-1384	5	-9	-11	-16152	-464	-2872	29	2	1	121	128	8
-8648	-2112	13272	-12	17	-25	-16072	-3912	384	15	4	16	-15568	24	-4120	3	-5	29	-9472	3192	13624	16	5	-15	-16064	2024	-1376	10	-7	-10	-15864	-632	-2656	38	11	3	121	128	8
-8696	-2132	13304	-16	15	-24	-16200	-4016	264	9	6	22	-15672	56	-4080	13	-4	29	-9240	3200	13592	16	1	-17	-15984	2136	-1544	11	-5	-9	-16016	-392	-2728	33	6	3	121	128	8
-8704	-2152	13352	-14	21	-23	-15928	-3856	296	11	4	20	-15776	56	-4144	7	-4	29	-9448	3264	13600	14	1	-17	-16024	2112	-1312	3	0	-11	-15976	-312	-2784	23	-6	5	121	128	8
-8688	-2044	13316	-10	21	-25	-16336	-3984	96	11	3	16	-15600	24	-4024	8	-2	32	-9352	3216	13600	12	0	-20	-16192	2024	-1304	-5	3	-12	-15992	-224	-2824	20	-1	-2	121	128	8
-8700	-2168	13432	-13	23	-19	-16024	-4056	88	11	1	20	-15688	160	-4152	9	0	32	-9376	3320	13632	12	1	-23	-16096	1992	-1512	-4	-1	-9	-16008	-256	-2744	14	7	-4	121	128	8
-8640	-2116	13300	-13	19	-23	-16128	-4072	-24	17	1	16	-15744	168	-4016	4	1	31	-9552	3216	13528	13	8	-21	-16056	1992	-1328	3	-1	-13	-15840	-264	-2904	19	8	-2	121	128	8
-8720	-2080	13380	-15	24	-19	-16024	-3976	128	13	4	15	-15632	128	-4136	12	-1	27	-9408	3152	13856	14	2	-20	-16168	1952	-1384	3	2	-9	-15912	-480	-2768	18	2	0	121	128	8
-8648	-2076	13280	-13	20	-21	-15976	-4040	472	8	3	14	-15688	264	-4152	19	-3	26	-9472	3032	13272	9	4	-22	-15944	2096	-1480	-1	3	-12	-15928	-360	-2680	18	1	-3	121	128	8
-8632	-2048	13368	-9	25	-24	-16208	-4000	264	15	12	16	-15696	184	-4280	15	-6	25	-9504	3312	13384	11	7	-26	-16056	2184	-1504	-11	6	-14	-16000	-360	-2744	15	4	0	121	128	8
-8636	-2184	13380	-13	22	-23	-16048	-3992	320	17	8	16	-15720	128	-3944	12	-7	27	-9536	3392	13744	12	-2	-20	-16072	2040	-1384	7	2	-10	-16040	-288	-2848	15	3	-5	121	128	8
-8696	-2152	13400	-9	19	-19	-16136	-4072	128	12	8	16	-15624	104	-4248	8	-6	23	-9328	3224	13608	10	1	-20	-16040	1928	-1616	0	2	-14	-16016	-400	-2632	5	1	-6	121	127	8
-8712	-2148	13404	-7	22	-19	-16072	-3968	152	4	4	19	-15672	200	-3952	-7	-4	22	-9392	3216	13576	6	-1	-23	-16048	1936	-1672	-5	10	-13	-16096	-448	-2728	9	1	-7	121	127	8
-8728	-2108	13376	-13	19	-19	-16200	-3936	48	-1	-1	19	-15752	104	-4120	-7	-4	25	-9488	3112	13576	8	3	-24	-16192	1904	-1376	-7	13	-16	-16128	-648	-2808	12	6	-1	121	127	8
-8748	-2128	13344	-11	20	-19	-16088	-4056	352	0	4	20	-15664	160	-4104	-4	-10	24	-9352	3280	13288	12	9	-23	-16072	2024	-1408	-5	16	-20	-16016	-432	-2728	13	2	-4	121	127	8
-8680	-2136	13304	-13	15	-18	-15992	-4000	-40	3	4	19	-15744	-24	-4072	3	-16	22	-9408	3272	13704	9	6	-20	-16104	2160	-1536	-1	14	-13	-16000	-544	-2744	19	8	-3	121	127	8
-8724	-2156	13376	-8	21	-21	-16064	-3968	216	11	12	19	-15816	168	-3800	11	-14	21	-9264	3184	13536	11	-1	-18	-16144	2088	-1720	-1	15	-13	-16048	-392	-2904	9	8	-2	121	127	8
-8700	-2144	13372	-11	18	-22	-16152	-3984	184	7	7	23	-15864	96	-4328	-4	-12	23	-9488	3208	13376	10	5	-28	-16064	2064	-1512	-2	17	-15	-15912	-336	-3024	10	5	-3	122	127	8
-8692	-2128	13276	-5	18	-19	-16032	-3896	64	-3	11	22	-15712	-8	-3944	-21	-10	20	-9464	3136	13608	12	4	-25	-16008	2112	-1584	-4	16	-11	-15896	-408	-2976	15	7	-5	122	127	8
-8668	-2060	13360	-10	18	-21	-16072	-3864	320	-2	7	24	-15576	72	-3928	-19	-14	26	-9504	3336	13648	9	6	-21	-16040	1880	-1480	2	11	-15	-15824	-568	-2992	14	13	-4	122	127	8
-8736	-2092	13460	-10	14	-23	-16128	-3744	344	2	16	23	-15752	112	-4040	-12	-12	21	-9408	3216	13584	13	2	-21	-16136	2096	-1648	-2	13	-11	-15984	-384	-3120	10	10	-3	122	127	8
-8648	-2096	13440	-9	14	-21	-16080	-3880	376	3	8	18	-15736	224	-4288	-2	-8	24	-9504	3056	13552	9	-2	-24	-16144	2040	-1528	-3	8	-13	-15840	-424	-3056	15	5	-2	122	127	8
-8684	-2100	13368	-16	16	-22	-16248	-3904	24	7	8	22	-15704	88	-3984	4	-7	23	-9464	3240	13240	14	3	-17	-16032	1832	-1456	-2	7	-15	-15928	-504	-2864	14	5	1	122	127	8
-8684	-2096	13348	-12	18	-21	-16176	-3960	192	9	4	17	-15504	216	-4416	10	-3	29	-9408	3216	13624	16	3	-26	-16024	1984	-1600	6	3	-14	-16024	-432	-2816	22	11	-1	122	127	8
-8724	-2100	13408	-7	16	-20	-16072	-4048	-64	8	0	20	-15736	200	-4296	1	-5	27	-9464	3328	13472	11	0	-20	-16008	1952	-1640	6	4	-14	-15872	-416	-2848	23	4	-3	122	127	8
-8752	-2072	13292	-10	15	-23	-16064	-4000	-56	8	3	15	-15632	104	-4280	-1	-6	27	-9424	3216	13448	15	-3	-23	-15896	2000	-1456	-1	2	-12	-15912	-608	-2936	22	1	0	122	127	8
-8636	-2072	13292	-10	13	-26	-16152	-4016	80	5	0	18	-15688	64	-4072	6	-4	29	-9512	3128	13384	15	-2	-21	-16080	1920	-1576	-6	9	-13	-15912	-456	-2800	21	5	-1	122	127	8
-8720	-2136	13444	-12	12	-25	-16032	-4016	424	6	1	19	-15776	-136	-4168	4	-8	25	-9576	3200	13664	13	4	-21	-16192	1896	-1512	-1	1	-13	-16000	-400	-2880	21	6	-1	122	127	8
-8664	-2064	13452	-11	13	-22	-15968	-3896	264	11	4	20	-15704	104	-4016	9	-8	26	-9424	3136	13616	13	-1	-18	-15928	1896	-1576	2	4	-9	-16064	-432	-3112	21	11	-2	122	127	8
-8732	-2172	13376	-13	12	-24	-16056	-4080	72	13	8	19	-15752	24	-4144	6	-12	26	-9448	3248	13528	15	4	-22	-16096	1920	-1624	0	3	-13	-16000	-384	-2904	24	3	1	122	127	8
-8700	-2076	13384	-10	15	-25	-16064	-3888	-120	11	5	23	-15664	104	-4104	6	-12	25	-9352	3232	13488	14	7	-20	-16136	1984	-1440	2	3	-12	-15992	-416	-2760	25	2	1	122	127	8
-8708	-2084	13296	-5	15	-24	-16048	-3960	96	10	6	21	-15640	32	-4072	3	-7	26	-9632	3360	13480	14	-2	-21	-15960	1920	-1384	-1	3	-7	-15848	-528	-2848	31	-1	5	122	127	8
-8668	-2044	13256	-10	16	-28	-16072	-3952	168	5	1	20	-15736	144	-4296	4	-8	23	-9464	3208	13544	12	-7	-14	-16032	1840	-1488	8	1	-12	-15816	-416	-3040	31	-3	4	122	127	8
-8672	-2132	13352	-11	13	-25	-16008	-3920	192	15	8	19	-15568	160	-4224	2	-6	27	-9376	3304	13424	8	-7	-12	-16064	1864	-1456	8	-4	-8	-15896	-288	-2872	40	-3	3	122	127	8
-8756	-2092	13424	-10	15	-27	-16200	-4080	136	12	7	20	-15704	200	-4296	10	-6	25	-9440	3224	13648	13	-2	-18	-16256	1968	-1592	6	-10	-9	-15992	-416	-2688	39	2	-1	122	127	8
-8668	-2172	13312	-8	16	-22	-16128	-3936	184	14	-1	18	-15760	16	-4336	10	-8	27	-9432	3320	13592	16	3	-18	-15952	1840	-1568	8	-9	-7	-16072	-376	-2936	41	7	4	122	127	8
-8712	-2072	13256	-8	17	-22	-16184	-3960	232	14	1	19	-15664	104	-4008	8	-8	28	-9424	3200	13392	13	4	-21	-16032	2024	-1664	6	-9	-11	-15816	-376	-2576	31	0	3	122	127	8
-8700	-2124	13368	-16	19	-22	-16056	-3976	128	13	-7	17	-15760	112	-4280	16	-11	21	-9544	3224	13480	12	1	-18	-16128	2032	-1544	-3	-9	-6	-15856	-520	-2960	33	-5	3	122	127	8
-8652	-2028	13372	-14	18	-26	-15928	-3984	280	14	-2	19	-15776	152	-4224	18	-10	23	-9464	3112	13504	15	4	-15	-16032	2064	-1600	-2	-8	-5	-15968	-568	-2968	32	-1	1	122	127	8
-8672	-2068	13364	-13	20	-24	-16248	-3992	-160	15	-3	14	-15720	96	-4128	15	-15	21	-9408	3192	13592	15	1	-17	-16168	2160	-1608	1	-11	-11	-15936	-408	-2976	27	-3	5	123	127	8
-8672	-2028	13380	-11	22	-25	-16072	-3968	88	18	-1	16	-15784	96	-4032	15	-9	22	-9448	3248	13600	20	-4	-17	-15984	1976	-1536	3	-12	-9	-15984	-448	-2792	24	0	3	123	127	8
-8688	-2080	13384	-9	17	-18	-16168	-3984	120	13	-2	18	-15704	-48	-4040	5	-6	27	-9488	3312	13400	19	-5	-15	-15984	2008	-1568	5	-10	-7	-15960	-576	-2752	26	-3	3	122	127	8
-8684	-2072	13324	-12	23	-22	-16040	-4040	448	8	0	16	-15784	16	-4424	5	-7	23	-9488	3216	13456	14	3	-18	-16136	2096	-1408	-7	-2	-7	-15944	-376	-2752	32	1	-1	122	127	8
-8740	-2084	13336	-14	20	-21	-16144	-4056	296	8	2	14	-15736	152	-3992	3	-12	22	-9504	3264	13768	17	0	-13	-16288	2008	-1536	-1	-3	-9	-16016	-544	-2928	32	0	3	122	127	8
-8760	-2052	13356	-12	17	-21	-16056	-3944	184	12	-1	20	-15704	112	-4032	2	-17	23	-9536	3248	13672	14	2	-18	-16104	2024	-1648	9	-8	-10	-16024	-480	-2808	35	2	3	122	127	8
-8716	-2136	13352	-9	16	-26	-16128	-3936	96	11	6	19	-15672	32	-4216	6	-19	28	-9440	3312	13584	16	0	-16	-15968	1984	-1536	7	-2	-7	-16000	-344	-2656	42	-2	3	123	127	8
-8720	-2084	13352	-14	15	-25	-16128	-4056	160	12	1	20	-15680	96	-4040	11	-19	24	-9536	3312	13504	14	-9	-18	-16000	1960	-1448	7	-1	-10	-16040	-328	-2784	34	-1	3	123	127	8
-8708	-2180	13336	-7	17	-24	-16120	-4080	216	10	0	26	-15704	200	-4240	13	-16	20	-9304	3288	13448	12	0	-17	-16168	2000	-1360	3	-1	-9	-15976	-296	-2928	29	0	0	123	127	8
-8628	-2096	13376	-11	14	-24	-16104	-3984	392	12	2	21	-15720	80	-4024	16	-17	24	-9464	3184	13584	15	-4	-18	-16128	1992	-1528	3	-1	-9	-15960	-384	-3016	29	-7	2	123	127	8
-8712	-2060	13428	-11	18	-22	-16256	-3856	24	9	10	17	-15672	264	-4392	0	-16	23	-9464	3216	13512	15	-2	-15	-16112	1944	-1592	5	-1	-12	-15784	-368	-2864	29	5	5	123	127	8
-8720	-2104	13352	-13	21	-22	-16024	-3936	8	13	-2	15	-15744	376	-4224	-3	-13	23	-9560	3264	13728	14	-3	-10	-16136	2008	-1464	6	-10	-10	-15888	-424	-3040	26	7	-2	123	127	8
-8728	-2100	13320	-10	19	-28	-16096	-3992	56	9	-6	16	-15656	272	-4248	-3	-12	24	-9456	3248	13672	15	-6	-16	-16248	1872	-1528	1	-2	-11	-15880	-400	-2760	29	4	2	122	127	8
-8676	-2020	13372	-7	16	-29	-16160	-4016	80	9	-6	16	-15752	224	-4224	6	-13	21	-9432	3288	13576	14	-2	-16	-16032	1896	-1688	0	-7	-9	-15952	-432	-2984	22	2	0	123	127	8
-8688	-2080	13312	-16	15	-23	-16168	-4000	216	9	-7	15	-15568	208	-4192	5	-13	17	-9448	3288	13416	15	1	-21	-15968	2048	-1568	-6	-9	-5	-16032	-432	-3080	21	3	2	123	127	8
-8700	-2076	13396	-13	16	-30	-16208	-4000	416	4	-10	17	-15768	216	-4256	11	-13	21	-9488	3208	13624	15	-8	-14	-16096	2064	-1872	-5	-11	-5	-15912	-296	-3032	19	8	-1	122	127	8
-8688	-2104	13384	-17	15	-29	-16120	-3952	192	12	-12	15	-15640	88	-4096	1	-5	20	-9432	3200	13408	10	-5	-15	-16128	1936	-1528	-4	-10	-7	-16024	-296	-2840	16	5	-1	123	127	8
-8708	-2148	13460	-13	23	-26	-15968	-4056	160	9	-8	14	-15672	-8	-4152	-9	-10	24	-9416	3160	13600	11	-4	-19	-16312	1872	-1520	-5	-11	-5	-16048	-400	-2864	19	6	-1	123	127	8
-8736	-2048	13440	-16	20	-19	-16096	-4128	344	10	-10	13	-15656	-8	-4120	-5	-7	19	-9480	3080	13432	15	-1	-17	-15952	1992	-1376	-5	-11	-11	-15864	-472	-2888	19	6	0	122	127	8
-8704	-2064	13224	-12	17	-24	-16248	-3952	384	9	-10	15	-15688	152	-4080	3	-6	23	-9512	3256	13560	15	-5	-16	-16128	2232	-1296	-6	-11	-5	-16008	-496	-2648	22	6	-1	123	127	8
-8676	-2076	13312	-9	21	-27	-16176	-3960	272	13	-11	14	-15704	32	-4256	3	-8	24	-9456	3256	13400	11	5	-18	-16088	1920	-1192	0	-11	-10	-16008	-520	-2856	21	6	1	123	127	8
-8764	-2080	13204	-12	18	-27	-16056	-4056	248	5	-4	17	-15704	64	-4024	14	-14	21	-9480	3288	13536	15	-1	-16	-16144	1912	-1464	-3	-2	-11	-15928	-320	-2808	18	3	1	123	127	8
-8720	-2072	13296	-15	15	-22	-16240	-4016	48	10	0	18	-15680	8	-4192	-3	-14	21	-9512	3152	13304	12	-4	-19	-16000	2056	-1192	-9	-1	-3	-15984	-496	-2984	18	10	1	123	127	8
-8652	-2104	13296	-13	21	-22	-16272	-4056	296	8	-2	16	-15752	-128	-4192	-7	-7	29	-9512	3288	13504	12	-3	-21	-15936	2024	-1360	-5	5	-9	-16000	-472	-2688	15	5	-1	123	127	8
-8740	-2072	13360	-12	18	-22	-16208	-3944	48	11	-6	17	-15632	160	-4168	-11	-9	26	-9312	3368	13584	18	3	-19	-16232	1920	-1536	-3	1	-10	-16024	-400	-2688	20	7	0	122	127	8
-8700	-2056	13336	-11	18	-17	-16056	-3912	184	4	-6	17	-15616	176	-4000	-4	-8	28	-9528	3192	13552	12	0	-20	-16216	1904	-1504	0	4	-8	-15984	-528	-2968	25	7	5	123	127	8
-8756	-2108	13372	-13	22	-24	-16112	-4080	352	4	-3	24	-15584	-136	-3912	3	-17	30	-9448	3136	13640	11	1	-20	-16128	2048	-1520	0	2	-7	-15944	-560	-3080	27	8	3	123	128	8
-8676	-2140	13284	-11	16	-25	-16168	-3968	192	10	5	21	-15664	40	-4120	-3	-20	21	-9432	3280	13504	15	2	-24	-16104	1872	-1656	-2	-1	-10	-15896	-520	-3000	25	5	4	123	127	8
-8728	-2124	13336	-7	18	-19	-16144	-4040	536	1	3	25	-15704	72	-4104	2	-19	22	-9456	3240	13656	15	2	-19	-16128	1952	-1496	3	4	-10	-15952	-472	-2856	25	5	5	122	127	8
-8748	-2132	13400	-9	22	-19	-16144	-3992	312	1	1	21	-15808	152	-4056	2	-13	28	-9416	3192	13664	10	4	-23	-15832	2032	-1352	1	6	-10	-15936	-408	-2840	24	-3	3	122	127	8
-8696	-2064	13420	-12	21	-21	-16104	-3928	184	9	8	23	-15576	56	-4128	4	-7	27	-9544	3064	13504	8	-5	-19	-16144	2064	-1408	0	4	-8	-16016	-448	-2824	18	-2	3	122	128	8
-8688	-2096	13392	-10	20	-24	-16104	-4000	432	16	0	22	-15640	88	-4192	-1	-10	27	-9352	3232	13616	10	4	-20	-16080	1880	-1496	-4	10	-7	-15872	-576	-3016	26	5	2	122	128	8
-8756	-2124	13416	-8	22	-18	-16080	-3880	256	11	6	23	-15600	184	-4280	0	-14	28	-9320	3104	13400	14	-6	-20	-16120	1952	-1592	-1	11	-7	-15896	-392	-2880	22	3	3	122	127	8
-8580	-2112	13400	-12	21	-20	-16120	-3768	392	9	-1	26	-15752	40	-4088	-2	-16	25	-9320	3104	13640	11	-2	-18	-16000	1912	-1744	-10	10	-9	-16048	-400	-3208	20	9	5	122	128	8
-8720	-2036	13428	-10	17	-21	-16032	-3808	-16	4	10	25	-15832	184	-4368	8	-17	27	-9416	3096	13360	14	3	-22	-16024	1968	-1648	0	4	-10	-16040	-568	-2880	24	4	3	122	128	8
-8776	-2060	13452	-7	19	-24	-16104	-3912	-104	8	6	24	-15712	216	-4104	4	-14	23	-9408	3320	13640	13	-2	-22	-16056	2024	-1392	2	4	-13	-15864	-400	-2984	22	9	-1	122	128	8
-8652	-2128	13380	-10	22	-20	-16272	-3976	192	7	7	25	-15712	104	-4152	-6	-15	28	-9392	3248	13616	13	6	-21	-16080	1816	-1840	4	4	-8	-15888	-496	-3136	24	5	0	122	128	8
-8704	-2028	13276	-10	19	-24	-16160	-3864	192	10	0	23	-15648	200	-4248	0	-12	25	-9448	3192	13384	17	-7	-20	-16040	2048	-1512	2	4	-8	-16008	-360	-2928	20	2	0	122	128	8
-8736	-2080	13308	-12	22	-24	-16144	-3872	80	6	3	21	-15680	184	-4040	-5	-12	23	-9560	3296	13440	13	-2	-18	-16176	1984	-1440	-8	3	-8	-15992	-320	-3216	14	11	4	122	128	8
-8788	-2096	13352	-10	21	-19	-16144	-4016	176	7	-2	22	-15576	272	-4216	-2	-7	25	-9448	3280	13488	13	-2	-22	-16136	1880	-1592	-10	-1	-11	-16016	-528	-2960	17	5	3	122	128	8
-8712	-2096	13428	-12	17	-22	-16104	-3944	152	8	-3	20	-15632	128	-4296	2	-12	27	-9576	3208	13528	13	2	-19	-16096	1856	-1464	-2	1	-6	-15896	-432	-2808	21	7	4	122	128	8
-8704	-2100	13420	-6	19	-22	-16176	-3864	504	10	1	21	-15632	232	-4104	7	-15	26	-9368	3288	13440	13	0	-18	-16056	1920	-1688	5	-2	-10	-15960	-400	-2536	25	1	0	122	128	8
-8776	-2116	13300	-8	18	-20	-16152	-3856	448	12	3	21	-15672	144	-4256	5	-16	26	-9480	3168	13536	10	4	-17	-15896	1984	-1528	9	2	-13	-16000	-368	-2640	30	-3	2	122	128	8
-8732	-1984	13320	-11	20	-26	-15968	-3912	176	11	4	21	-15672	160	-4024	6	-19	23	-9352	3352	13584	15	-3	-12	-15976	2072	-1576	4	7	-12	-15936	-424	-2864	23	-9	0	122	128	8
-8792	-2076	13340	-9	14	-28	-16144	-3976	80	12	9	19	-15824	152	-4152	12	-20	24	-9560	3192	13464	12	-7	-15	-16112	1968	-1848	5	3	-14	-15928	-480	-3104	22	1	0	122	128	8
-8760	-2124	13380	-18	13	-24	-16144	-3848	152	7	4	21	-15816	288	-4072	3	-19	24	-9512	3168	13528	14	-6	-15	-16008	2024	-1592	-3	10	-12	-15840	-360	-2640	20	0	-3	122	128	8
-8760	-2064	13404	-10	10	-24	-16248	-3960	-24	5	4	21	-15768	216	-4224	-1	-19	23	-9536	3296	13472	14	-3	-16	-16144	2048	-1576	-3	6	-10	-15984	-368	-3000	21	3	-1	122	128	8
-8764	-2096	13392	-9	10	-27	-16064	-3904	24	3	-4	19	-15704	176	-4192	-19	-16	22	-9416	3168	13480	13	-5	-19	-16072	2032	-1680	-5	11	-11	-15888	-488	-3088	26	8	1	122	128	8
-8704	-2064	13352	-10	10	-25	-16184	-3936	-144	1	1	20	-15640	208	-4072	-15	-14	23	-9424	3152	13632	9	-2	-16	-16208	1776	-1528	-1	5	-11	-15912	-336	-2920	24	7	-2	122	128	8
-8684	-2072	13336	-6	10	-24	-16120	-4056	176	-3	1	21	-15760	144	-4224	-16	-14	25	-9536	3296	13352	18	-1	-18	-16040	2008	-1368	-1	4	-11	-16000	-392	-2984	22	10	0	122	128	8
-8656	-2040	13416	-15	13	-26	-16136	-3880	192	1	-1	22	-15744	192	-4256	2	-12	19	-9488	3144	13752	13	-3	-19	-16080	1944	-1512	0	0	-11	-15880	-384	-3224	23	3	-1	122	128	8
-8712	-2008	13376	-14	10	-25	-16160	-3856	224	3	-1	26	-15744	-8	-4352	3	-13	21	-9528	3352	13752	14	-3	-19	-16096	2048	-1560	-1	-1	-14	-15984	-384	-2960	20	2	-4	122	128	8
-8796	-2048	13324	-15	15	-28	-16208	-3920	40	6	-2	16	-15656	224	-4192	-5	-12	18	-9376	3208	13600	10	-5	-18	-16048	1792	-1432	-2	3	-9	-15824	-456	-2992	20	10	-7	122	128	8
-8740	-2100	13324	-10	13	-26	-16096	-3856	168	10	-1	14	-15632	248	-4296	-9	-11	22	-9464	3088	13336	16	-1	-20	-16176	1824	-1480	-10	2	-14	-15904	-336	-3096	19	13	-4	122	128	8
-8768	-2064	13364	-16	16	-27	-16168	-3792	272	6	-1	15	-15696	200	-4080	-7	-8	22	-9424	3216	13528	11	0	-16	-16088	2008	-1768	-5	-4	-10	-15904	-584	-2888	22	10	2	122	128	8
-8700	-2056	13396	-8	10	-27	-16080	-3960	464	3	-8	18	-15656	96	-4200	-4	-6	23	-9608	3200	13712	15	-2	-16	-16080	1904	-1736	-1	-7	-11	-15896	-488	-2944	27	8	1	122	128	8
-8744	-2056	13368	-11	8	-29	-15904	-3952	152	2	-5	18	-15664	216	-4192	-12	-6	24	-9448	3248	13440	13	-5	-15	-16056	1920	-1408	-1	-7	-4	-15760	-464	-2864	28	15	2	122	128	8
-8692	-2024	13344	-16	10	-27	-16168	-3864	64	10	-1	14	-15608	112	-4240	-3	-11	20	-9480	3168	13584	16	-5	-14	-16280	1792	-1656	1	-9	-9	-15984	-456	-2984	32	8	4	121	128	8
-8676	-2144	13372	-13	9	-26	-16120	-3944	72	9	-8	16	-15696	192	-4328	-4	-10	22	-9432	3240	13320	16	-5	-15	-16064	1936	-1600	3	-10	-8	-15904	-624	-3320	32	11	0	122	128	8
-8724	-2044	13320	-10	9	-25	-16136	-3944	368	10	-3	13	-15736	32	-4344	12	-12	24	-9352	3288	13640	12	-5	-15	-16064	1952	-1880	2	-9	-10	-16104	-424	-2864	27	3	1	121	128	8
-8736	-2040	13380	-12	12	-27	-16056	-3912	272	11	2	17	-15680	184	-4088	11	-11	26	-9456	3120	13224	17	-3	-18	-16120	1912	-1560	3	-12	-7	-15976	-320	-2984	30	5	2	121	128	8
-8712	-2172	13360	-15	16	-29	-16200	-3992	176	12	4	16	-15712	96	-4200	10	-12	25	-9552	3272	13464	16	1	-16	-16072	1848	-1448	1	-7	-9	-15960	-520	-2968	25	2	2	121	128	8
-8712	-2112	13340	-11	15	-26	-16168	-3920	64	12	2	17	-15656	120	-3840	12	-10	25	-9392	3296	13680	18	-6	-14	-16072	2104	-1456	3	-5	-5	-15896	-584	-2888	28	1	6	121	128	8
-8700	-2084	13440	-12	14	-21	-16112	-4016	256	6	1	19	-15552	128	-4480	-3	-12	29	-9552	3208	13448	18	0	-12	-16176	1856	-1576	2	-4	-6	-15984	-456	-3096	32	2	1	121	128	8
-8744	-2168	13352	-9	19	-22	-16088	-4072	248	17	-5	18	-15704	152	-4248	4	-7	29	-9472	3304	13768	18	1	-18	-16104	2000	-1680	6	-5	-5	-15952	-496	-2960	32	2	1	121	128	8
-8696	-2128	13380	-16	20	-21	-16096	-3944	64	15	-1	18	-15760	-112	-4216	17	-12	27	-9456	3400	13640	15	0	-18	-16008	2008	-1488	8	-8	-12	-15968	-344	-2976	29	-1	1	121	128	8
-8680	-2136	13352	-10	18	-20	-16120	-3896	128	15	6	17	-15800	48	-4328	9	-14	27	-9424	3192	13456	14	0	-21	-16032	1936	-1376	1	-2	-11	-15968	-424	-3016	25	3	6	121	128	8
-8732	-2108	13380	-6	21	-21	-16152	-4000	144	14	7	20	-15752	32	-4240	6	-14	24	-9304	3160	13456	14	-1	-20	-16056	1880	-1368	2	-1	-8	-15864	-488	-2864	23	-1	3	121	129	8
-8724	-2128	13448	-12	20	-22	-16216	-3976	152	13	8	22	-15856	232	-4336	9	-15	23	-9416	3120	13520	13	0	-19	-15976	1872	-1736	3	-3	-7	-15912	-488	-2848	26	-1	1	121	129	8
-8708	-2148	13376	-8	22	-22	-16208	-3816	240	16	6	23	-15616	112	-4432	10	-12	25	-9536	3360	13320	13	3	-25	-16024	1944	-1576	-7	2	-8	-15912	-248	-3056	29	0	-1	121	128	8
-8780	-2120	13200	-12	19	-23	-16072	-3968	176	18	4	18	-15648	192	-3976	6	-16	28	-9504	3296	13600	16	4	-21	-16184	1856	-1520	2	-3	-8	-15912	-464	-3208	28	5	-1	121	129	8
-8752	-2056	13356	-11	21	-22	-15976	-3968	-160	14	3	21	-15632	96	-4112	4	-13	29	-9592	3232	13584	11	3	-21	-16000	1968	-1424	6	-1	-7	-15904	-416	-2928	31	5	2	121	129	8
-8668	-2016	13364	-8	17	-26	-16072	-4064	-144	11	-1	18	-15576	32	-4264	5	-12	28	-9456	3296	13544	11	5	-20	-15992	1968	-1640	4	-3	-5	-15928	-264	-2920	26	-6	4	120	128	8
-8736	-2060	13352	-8	19	-20	-16112	-3816	248	6	2	19	-15592	64	-4096	12	-9	26	-9480	3152	13488	13	2	-24	-15976	2008	-1696	2	2	-15	-15968	-376	-2968	26	-3	2	121	128	8
-8704	-1948	13440	-12	18	-20	-16024	-3816	184	16	3	16	-15656	144	-4248	6	-11	28	-9408	3096	13584	15	2	-20	-15960	1952	-1480	0	8	-4	-15952	-416	-2888	24	2	2	121	128	8
-8740	-2072	13324	-8	16	-23	-16048	-3984	96	12	0	22	-15736	104	-4224	11	-12	25	-9424	3224	13552	17	5	-25	-16112	1920	-1536	3	1	-12	-16104	-280	-2912	24	4	4	121	128	8
-8692	-2088	13292	-13	15	-19	-16096	-3968	160	11	5	18	-15744	128	-4216	12	-14	28	-9392	3288	13584	15	3	-21	-16032	1832	-1496	5	3	-9	-15976	-304	-2904	21	0	-1	121	128	8
-8696	-2088	13288	-12	17	-21	-15992	-4120	248	15	6	21	-15672	144	-3960	8	-12	26	-9392	3136	13712	15	2	-21	-16104	1936	-1728	2	4	-13	-15904	-600	-2712	21	3	2	120	128	8
-8776	-2100	13376	-11	14	-21	-16168	-3768	72	8	10	22	-15816	128	-4208	-1	-10	29	-9552	3240	13536	13	7	-19	-16032	1880	-1600	1	0	-8	-15952	-472	-2784	30	1	0	121	128	8
-8732	-2104	13300	-9	19	-22	-15944	-4040	176	10	5	19	-15648	192	-4200	10	-10	23	-9408	3248	13536	12	-4	-20	-16056	1936	-1608	3	4	-13	-15928	-384	-2800	31	4	3	121	128	8
-8716	-2096	13320	-7	20	-21	-16088	-3976	176	7	5	16	-15752	200	-4248	-1	-11	24	-9512	3128	13408	13	1	-18	-16128	2048	-1664	6	4	-8	-15896	-288	-2800	31	2	0	120	129	8
-8636	-2020	13304	-11	22	-17	-16056	-3896	-56	8	4	21	-15696	328	-4240	-3	-15	24	-9400	3336	13360	15	7	-26	-15920	1864	-1880	-6	6	-10	-16080	-368	-2880	18	2	1	121	128	8
-8748	-2040	13448	-8	24	-17	-16144	-3864	64	10	7	20	-15688	232	-4288	9	-16	22	-9560	3192	13280	13	7	-20	-16024	2040	-1520	4	-1	-12	-15928	-504	-2976	26	7	-2	120	128	8
-8736	-2156	13360	-7	23	-20	-16064	-3944	-40	11	5	16	-15752	232	-4344	7	-14	23	-9416	3216	13376	17	6	-21	-16024	1984	-1688	4	1	-11	-15816	-312	-2920	26	7	4	120	128	8
-8780	-2004	13348	-14	19	-21	-16248	-4024	256	8	8	21	-15504	104	-4040	20	-16	20	-9624	3256	13560	16	2	-22	-16064	2072	-1576	-1	1	-12	-16096	-376	-2912	28	3	7	121	128	8
-8704	-2076	13356	-8	20	-22	-16024	-3896	248	12	9	19	-15600	104	-4144	10	-16	19	-9456	3232	13488	18	6	-22	-15984	1872	-1672	2	-1	-11	-16024	-440	-3104	17	-1	-1	120	128	8
-8712	-2016	13348	-11	18	-19	-16016	-3920	136	9	6	19	-15768	216	-4192	-5	-14	23	-9544	3208	13608	7	4	-21	-16096	1944	-1840	3	1	-11	-15864	-472	-3016	17	-7	3	120	128	8
-8692	-2072	13300	-8	18	-19	-16248	-3928	216	13	4	18	-15688	192	-3976	5	-15	25	-9648	3192	13624	11	5	-19	-16024	1920	-1584	-6	5	-9	-15960	-304	-2912	20	3	-3	120	128	8
-8800	-2008	13308	-10	18	-25	-16080	-4048	24	8	4	20	-15672	224	-4440	3	-11	24	-9400	3272	13384	13	6	-18	-15960	1848	-1664	2	-2	-8	-15944	-424	-2928	14	7	0	120	128	8
-8760	-2024	13288	-9	24	-22	-16048	-3872	32	10	8	23	-15672	0	-4304	-4	-9	25	-9488	3112	13608	14	-1	-21	-15928	1968	-1528	0	4	-11	-15936	-336	-2888	21	5	2	120	128	8
-8684	-1984	13388	-10	22	-20	-16088	-3992	-160	4	7	21	-15648	216	-4464	-2	-10	23	-9400	3192	13528	14	3	-22	-16048	2000	-1656	-1	9	-11	-15984	-520	-2816	22	10	2	120	128	8
-8748	-2064	13296	-10	16	-24	-16128	-3720	32	2	0	20	-15760	200	-4232	4	-13	24	-9544	3224	13736	12	5	-23	-15976	1952	-1688	3	4	-12	-15840	-456	-3024	24	4	-2	120	128	8
-8736	-2036	13276	-13	15	-24	-16072	-4056	192	4	7	18	-15560	176	-4136	3	-16	19	-9632	3264	13536	17	-1	-24	-15920	1832	-1744	5	6	-14	-15960	-416	-2960	15	0	4	120	128	8
-8780	-2036	13364	-8	18	-27	-16048	-4048	-56	4	8	18	-15616	144	-4128	1	-19	21	-9432	3200	13424	12	-1	-20	-16144	1960	-1384	-3	8	-10	-15992	-416	-2864	14	1	-2	120	128	8
-8752	-2060	13300	-11	17	-21	-16280	-3776	-40	6	10	17	-15776	88	-4128	-3	-15	23	-9504	3320	13448	12	-2	-23	-16208	1992	-1624	-11	9	-7	-15832	-440	-2824	18	-2	-4	120	128	8
-8724	-2092	13332	-10	14	-21	-16080	-3952	-232	3	2	17	-15536	64	-4432	-9	-13	26	-9560	2992	13592	11	2	-22	-16088	1848	-1832	-6	5	-9	-15944	-400	-3104	18	6	1	120	128	8
-8748	-2032	13332	-11	16	-25	-16304	-3856	0	9	0	18	-15640	72	-4200	-4	-7	24	-9424	3224	13480	14	5	-19	-16120	1848	-1696	3	-2	-10	-15872	-384	-3104	24	8	0	120	128	8
-8748	-2044	13348	-7	17	-26	-16144	-3936	128	10	-3	20	-15656	296	-4328	1	-10	19	-9424	3304	13472	12	1	-23	-16032	1864	-1760	8	-2	-13	-15848	-416	-3192	22	3	-2	120	128	8
-8732	-2068	13312	-14	16	-24	-16176	-3736	96	4	-1	20	-15584	264	-4232	10	-14	20	-9400	3192	13304	10	2	-18	-16112	1816	-1808	-1	7	-12	-15840	-584	-3232	21	2	-2	120	128	8
-8728	-2116	13336	-10	14	-26	-16216	-3792	176	10	-2	20	-15680	32	-4192	-3	-15	20	-9456	3168	13536	16	-6	-18	-16128	1968	-1496	-4	1	-9	-16016	-624	-3040	20	-4	0	120	128	8
-8688	-2044	13236	-9	17	-24	-16200	-3920	128	8	-2	17	-15640	216	-4464	-6	-9	23	-9504	3104	13208	12	-2	-23	-16064	1960	-1576	0	2	-3	-15848	-520	-3072	20	10	2	120	128	8
-8696	-2044	13312	-14	19	-25	-16232	-3768	96	14	-4	13	-15496	216	-4304	-5	-6	27	-9376	3288	13728	15	1	-16	-16088	1864	-1600	-6	-3	-11	-15904	-496	-3208	16	6	3	120	128	8
-8760	-2088	13312	-6	21	-22	-16152	-3952	136	13	-7	18	-15584	144	-4232	10	-4	28	-9536	2944	13672	13	-4	-15	-16000	1968	-1768	1	-3	-5	-15880	-504	-2888	23	1	3	120	128	8
-8772	-2024	13312	-11	20	-26	-16088	-3824	-88	11	-6	18	-15584	112	-4280	1	-12	27	-9600	3160	13432	11	-4	-13	-16104	2008	-1696	1	-4	-9	-15768	-480	-2888	26	0	-1	121	128	8
-8716	-1968	13384	-15	17	-28	-16112	-3864	-72	9	-1	16	-15656	104	-4376	0	-16	30	-9496	3200	13568	11	2	-17	-16104	2032	-1744	-1	-2	-5	-15968	-448	-3048	28	-1	0	121	128	8
-8808	-2036	13292	-8	14	-31	-16000	-3808	-208	12	1	18	-15560	136	-4304	0	-18	25	-9464	3192	13680	17	-4	-15	-16000	1968	-1424	1	0	-12	-15840	-608	-3136	26	2	3	121	128	8
-8772	-2052	13324	-10	14	-28	-16128	-3920	-120	12	0	20	-15712	176	-4264	5	-11	27	-9480	3136	13536	16	-2	-14	-16072	1816	-1616	-1	-6	-10	-15968	-456	-3144	23	4	4	121	128	8
-8752	-2064	13344	-11	12	-23	-16208	-3936	-64	12	-4	21	-15744	152	-4472	7	-12	21	-9536	3296	13384	14	-1	-16	-16000	1976	-1768	-2	-1	-6	-15888	-336	-2928	18	6	6	120	128	8
-8740	-2024	13292	-14	18	-25	-16224	-3808	56	9	-1	20	-15712	136	-4168	3	-8	26	-9488	3216	13568	11	0	-19	-15928	1984	-1696	4	1	-10	-15720	-384	-3208	20	7	1	121	128	8
-8684	-2056	13360	-7	20	-21	-16200	-3824	288	14	0	14	-15600	256	-4232	-15	-11	26	-9552	3064	13536	16	0	-19	-15928	1952	-1672	2	-2	-7	-15976	-472	-2880	24	-2	5	121	128	8
-8820	-2116	13300	-13	19	-21	-16128	-3760	-8	10	-6	17	-15688	208	-4240	-6	-13	26	-9416	3096	13392	14	-9	-13	-16032	1840	-1752	-1	-4	-10	-16040	-424	-2808	19	-4	2	121	128	8
-8748	-2044	13280	-8	20	-23	-16040	-3864	128	16	-1	19	-15672	328	-4184	13	-14	24	-9688	3200	13560	12	-5	-18	-16040	1936	-1568	-7	0	-5	-15952	-400	-2920	14	-6	1	121	128	8
-8732	-1996	13316	-10	19	-23	-16256	-3904	-144	7	-5	19	-15624	184	-4056	18	-17	24	-9400	3200	13584	19	-4	-17	-16088	1800	-1808	-6	3	-2	-15912	-568	-2984	17	2	1	121	128	8
-8736	-2008	13324	-11	14	-25	-16168	-3888	-184	15	-3	16	-15688	112	-3920	12	-19	22	-9432	3096	13528	15	3	-17	-15976	1928	-1672	-5	5	-7	-16008	-336	-2784	17	3	2	121	128	8
-8756	-2052	13384	-14	16	-25	-16184	-3856	248	16	3	18	-15776	232	-4200	8	-16	26	-9464	3208	13408	18	-2	-16	-15864	1832	-1728	-5	-2	-10	-16032	-536	-3000	25	9	1	121	128	8
-8772	-2092	13312	-12	16	-23	-16304	-3928	88	14	4	17	-15736	240	-4320	1	-16	22	-9512	3200	13400	13	-2	-18	-16088	1936	-1512	-2	1	-8	-15848	-328	-2976	21	1	3	121	128	8
-8728	-2064	13316	-12	12	-21	-16296	-3984	0	10	1	20	-15776	56	-4152	-9	-9	25	-9424	3120	13456	13	-5	-19	-15960	1704	-1616	-4	-3	-8	-16040	-448	-3224	22	-3	0	121	128	8
-8736	-2096	13252	-9	20	-22	-16080	-3872	-136	8	-5	19	-15688	184	-4512	-1	-10	29	-9488	3120	13440	13	0	-18	-16240	2024	-1600	2	0	-7	-15912	-248	-2984	24	0	2	121	128	8
-8752	-2012	13380	-13	19	-24	-16208	-3912	176	8	-1	18	-15680	80	-4408	6	-15	26	-9424	3272	13600	13	-6	-16	-16128	2032	-1656	2	-2	-5	-15904	-456	-3072	26	-3	6	121	128	8
-8752	-2044	13320	-8	11	-25	-16168	-3912	8	17	1	15	-15616	96	-4216	9	-14	21	-9440	3112	13456	14	-1	-21	-16184	1976	-1912	-8	-1	-5	-15936	-584	-2992	24	-3	3	121	128	8
-8800	-2000	13384	-12	16	-20	-16128	-3864	312	16	-4	15	-15752	248	-4608	15	-10	24	-9464	3184	13584	14	-5	-17	-16136	1848	-1360	-2	-5	-9	-15904	-416	-3120	20	2	2	121	128	8
-8716	-1984	13344	-10	20	-24	-16168	-3848	24	16	4	10	-15648	144	-4408	4	-11	26	-9368	3264	13728	13	3	-18	-16040	1968	-1792	0	-3	-4	-15824	-496	-3000	23	3	6	121	128	8
-8816	-2036	13356	-16	18	-24	-16208	-3800	-120	13	-3	15	-15656	144	-4112	3	-11	28	-9504	3208	13600	19	0	-15	-16144	2024	-1624	-1	-4	-9	-15984	-440	-3112	22	4	2	121	128	8
-8748	-2048	13324	-13	15	-23	-16168	-4008	-88	11	-7	16	-15584	248	-4344	9	-9	26	-9400	3232	13520	17	2	-20	-16072	1904	-1688	-2	-3	-8	-15944	-400	-2824	20	-2	3	121	128	8
-8708	-1992	13296	-17	21	-26	-16184	-3880	96	10	-9	16	-15736	136	-4576	1	-10	25	-9424	3216	13600	15	-3	-20	-16144	1920	-1904	1	-4	-8	-15960	-624	-2976	21	-2	3	121	128	8
-8752	-2072	13368	-13	21	-26	-16168	-3984	-40	15	-3	13	-15672	96	-4248	5	-13	18	-9352	3168	13352	18	-3	-17	-16072	1896	-1800	-3	-1	-6	-15840	-536	-3056	21	-4	2	121	128	8
-8568	-2100	13260	-9	20	-22	-16176	-4160	-88	10	-12	13	-15512	160	-4424	6	-6	26	-9552	3280	13632	13	1	-18	-16040	1808	-1808	-3	-4	-5	-15808	-360	-2784	22	2	-1	121	128	8
-8708	-2072	13244	-12	21	-22	-16040	-3912	424	6	-1	21	-15688	240	-4320	10	-11	25	-9688	3160	13616	14	6	-20	-16048	1728	-1680	2	-6	-10	-15968	-336	-2840	19	2	1	121	128	8
-8744	-2052	13372	-11	16	-24	-16104	-3968	224	6	1	20	-15696	80	-4472	13	-15	25	-9528	3256	13488	15	0	-17	-16056	1952	-1640	-2	-5	-5	-15880	-408	-2760	17	3	-2	121	128	8
-8728	-2060	13296	-12	16	-21	-16104	-3968	104	13	2	17	-15840	176	-4096	0	-16	27	-9584	3208	13464	14	-2	-18	-16128	1968	-1808	-4	4	-7	-15992	-456	-2816	16	-1	-2	121	128	8
-8724	-2044	13288	-15	18	-24	-16232	-3904	-8	16	2	19	-15680	272	-4464	-4	-11	23	-9488	3160	13472	10	-4	-18	-16072	1848	-1616	0	-1	-8	-16040	-544	-2728	21	1	-3	121	128	8
-8740	-2020	13360	-10	18	-20	-16144	-3816	-112	7	-5	16	-15648	256	-4168	-3	-10	26	-9600	3232	13440	13	-3	-18	-15944	1880	-1648	10	0	-9	-16008	-400	-2944	25	3	2	121	128	8
-8756	-2020	13360	-9	19	-23	-16088	-3888	24	9	4	19	-15744	208	-4216	5	-15	22	-9424	3192	13384	13	-1	-19	-16160	2000	-1592	-4	5	-7	-16064	-448	-3232	30	-1	3	121	128	8
-8772	-2004	13456	-12	17	-23	-16168	-3952	192	3	-2	20	-15640	152	-4064	7	-14	24	-9512	3152	13656	17	3	-21	-16104	1872	-1592	-2	4	-8	-15856	-376	-2840	29	1	3	121	128	8
-8752	-2020	13464	-11	20	-24	-16176	-3920	232	7	-2	15	-15680	120	-4240	4	-13	26	-9560	3168	13312	16	4	-21	-16128	1936	-1800	2	-3	-9	-15960	-376	-3136	26	4	1	121	128	8
-8764	-2056	13256	-11	20	-24	-16136	-3912	-72	14	6	16	-15632	216	-4312	16	-13	28	-9552	3088	13376	12	4	-16	-15992	2112	-1760	5	-3	-7	-15896	-336	-3016	27	3	3	121	128	8
-8720	-2016	13376	-12	21	-24	-16096	-3712	-144	12	6	17	-15736	152	-4296	6	-11	27	-9560	3224	13472	14	-2	-20	-16040	1904	-1752	4	-2	-14	-15864	-376	-2936	30	-3	-2	121	128	8
-8780	-2008	13284	-11	22	-20	-16088	-3824	-96	13	1	15	-15640	344	-4136	3	-4	27	-9504	3248	13384	12	-1	-15	-15936	2064	-1512	2	-5	-10	-15840	-392	-3144	23	-8	2	121	128	8
-8708	-2064	13292	-13	15	-24	-16088	-3800	-8	9	3	13	-15568	280	-4472	6	-6	25	-9512	3192	13624	15	-3	-16	-16040	1896	-1736	-15	5	-8	-16024	-376	-3272	14	-7	-2	121	128	8
-8772	-2028	13296	-14	19	-21	-16120	-3912	-56	9	2	14	-15616	176	-4544	14	-13	20	-9584	3208	13600	7	3	-22	-16184	1992	-1736	-5	-12	-10	-16072	-520	-3112	27	3	0	121	128	8
-8756	-2012	13324	-17	20	-20	-16080	-4000	152	14	-2	14	-15664	160	-4296	14	-21	18	-9528	3192	13456	12	-5	-18	-16024	2008	-1544	6	-9	-11	-15904	-496	-2848	17	0	-1	120	128	8
-8740	-2072	13376	-15	21	-23	-16392	-3896	0	15	-3	11	-15560	176	-4176	10	-24	17	-9368	3144	13600	9	-3	-18	-15960	1992	-1568	-1	-5	-15	-16112	-520	-3000	26	-3	0	121	128	8
-8768	-2076	13380	-15	24	-23	-16144	-3912	8	7	-3	12	-15704	336	-4328	-2	-14	14	-9528	3184	13720	7	-4	-15	-15992	1976	-1496	2	-6	-10	-16072	-344	-3024	26	-11	-1	121	128	8
-8748	-2032	13380	-11	20	-25	-16088	-3896	-72	-1	-6	12	-15744	240	-4288	-2	-16	14	-9392	3264	13664	12	4	-22	-16096	1832	-1664	-3	-1	-9	-16048	-312	-2768	31	-10	0	121	128	8
-8792	-2096	13256	-13	22	-26	-16056	-3952	0	0	0	17	-15688	248	-4544	-3	-24	13	-9344	3328	13168	12	0	-27	-16024	2008	-1584	-12	-2	-9	-15896	-384	-2888	18	-7	1	121	128	8
-8800	-2072	13364	-12	21	-21	-16160	-3800	24	3	-4	13	-15672	224	-4280	-2	-22	13	-9504	3080	13520	14	-4	-19	-16096	1848	-1448	-6	0	-7	-15864	-584	-3152	18	-6	2	121	128	8
-8720	-2056	13332	-20	16	-23	-16088	-3952	-240	8	2	14	-15536	216	-4312	0	-25	11	-9416	3128	13504	15	2	-17	-15888	1872	-1680	-7	3	-8	-15880	-384	-3016	17	-6	-1	121	128	8
-8768	-1988	13336	-15	21	-26	-16112	-3880	64	11	-5	15	-15688	192	-4352	-4	-28	14	-9440	3160	13584	15	2	-20	-16120	1856	-2072	-6	0	-3	-15776	-432	-2808	17	-7	-1	122	128	8
-8804	-2036	13312	-12	16	-28	-16200	-3848	-64	8	-5	14	-15648	328	-4248	-3	-27	13	-9424	3200	13440	15	-4	-15	-16312	1824	-1872	3	-7	-6	-15880	-472	-2856	18	-12	0	122	128	8
-8708	-2004	13396	-15	19	-24	-16176	-3824	40	6	-10	11	-15656	136	-4304	7	-23	12	-9320	3280	13464	8	-4	-16	-16000	1992	-1808	1	0	-5	-15992	-392	-2768	18	-17	-3	121	128	8
-8764	-1980	13292	-11	14	-27	-16104	-4112	-24	6	-10	14	-15616	32	-4440	2	-20	11	-9400	3264	13568	13	-4	-18	-16000	1928	-1544	0	1	-12	-15904	-472	-3264	16	-16	1	122	128	8
-8764	-2080	13304	-14	16	-29	-16320	-3856	64	13	-5	12	-15696	248	-4296	-1	-25	14	-9432	3264	13528	16	-5	-18	-16136	1912	-1664	-4	2	-9	-15856	-464	-3152	23	-10	0	122	128	8
-8840	-2040	13292	-12	15	-31	-16200	-3832	96	10	-4	9	-15584	160	-4336	2	-24	13	-9456	3184	13648	14	2	-20	-16240	2032	-1664	-3	-4	-2	-15960	-424	-2888	27	-9	1	122	128	8
-8768	-1988	13372	-13	16	-24	-16040	-3856	232	11	-7	12	-15616	264	-4504	4	-22	17	-9480	3216	13736	16	-2	-19	-16048	2000	-1912	-5	-5	0	-15840	-296	-2904	29	-7	3	122	128	8
-8788	-2032	13428	-10	17	-25	-16200	-3944	-32	10	-7	16	-15584	160	-4392	8	-27	15	-9376	3312	13544	17	-5	-18	-16056	1952	-1776	-1	-9	-6	-15968	-416	-3080	27	-11	2	122	128	8
-8740	-1956	13548	-11	14	-31	-16232	-3784	48	13	-5	13	-15584	96	-4280	16	-24	15	-9584	3216	13424	11	-6	-15	-16008	1912	-1664	0	-9	0	-15928	-448	-2968	27	-16	3	122	128	8
-8772	-2128	13356	-13	17	-31	-16128	-3880	-176	9	1	14	-15656	56	-4280	5	-27	13	-9480	3168	13352	13	-4	-16	-16096	1912	-1880	2	-7	-1	-15968	-416	-3000	31	-12	0	122	128	8
-8740	-2024	13292	-14	17	-26	-16216	-3816	-224	9	-3	13	-15688	192	-4280	-4	-28	18	-9456	3016	13320	17	-3	-17	-16040	1952	-1616	1	-11	-3	-15816	-296	-2936	30	-12	1	121	128	8
-8724	-2016	13288	-8	14	-25	-16120	-3864	-88	14	-1	10	-15544	144	-4328	-7	-28	14	-9424	3232	13744	12	-1	-16	-16112	1784	-1680	1	-14	-2	-15936	-504	-3112	24	-6	1	122	128	8
-8752	-2040	13308	-11	16	-28	-15984	-4048	40	11	-6	14	-15488	200	-4336	-1	-28	17	-9536	3088	13608	15	-7	-11	-16112	2064	-1456	-2	-13	-6	-15896	-488	-3248	20	-10	2	122	128	8
-8808	-2000	13292	-14	12	-23	-16048	-3896	-40	15	-8	12	-15648	152	-4280	10	-26	15	-9552	3184	13344	17	-5	-12	-16064	1768	-1760	-8	-11	1	-15840	-344	-2632	20	-12	4	121	128	8
-8724	-2040	13300	-12	10	-29	-16112	-3864	32	18	-15	16	-15584	120	-4344	2	-29	13	-9424	3272	13560	14	-11	-9	-15968	2048	-1824	-4	-8	-3	-15888	-400	-2904	24	-12	1	121	128	8
-8792	-2000	13308	-12	8	-33	-16168	-3848	120	19	-11	12	-15592	160	-4312	10	-32	14	-9432	3192	13504	12	-2	-17	-16080	1872	-1536	-4	-12	-2	-15912	-336	-3168	25	-10	5	121	128	8
-8744	-2032	13244	-11	9	-30	-16160	-3880	120	16	-10	13	-15704	192	-4072	3	-32	15	-9496	3120	13472	19	-14	-14	-16104	1944	-1872	-11	-15	-1	-15832	-288	-2848	22	-10	2	122	129	8
-8800	-2060	13336	-17	13	-32	-16288	-3832	-176	14	-17	8	-15792	256	-4352	-3	-26	13	-9432	3136	13432	16	-8	-11	-16080	1896	-1680	-5	-18	1	-15904	-568	-3328	28	-6	8	122	129	8
-8800	-2052	13256	-17	19	-31	-16064	-3928	-160	7	-17	10	-15584	112	-4144	2	-24	13	-9648	3120	13512	17	2	-12	-16160	1840	-1560	-7	-21	3	-15816	-432	-3032	27	-4	5	122	129	8
-8788	-1996	13272	-14	13	-37	-16096	-3960	152	11	-16	12	-15680	224	-4256	-2	-25	15	-9488	3104	13664	15	-7	-12	-15960	2024	-1584	2	-27	-2	-15856	-416	-3152	32	-9	4	121	129	8
-8696	-1992	13376	-12	6	-37	-16008	-3992	-56	16	-9	7	-15616	224	-4424	0	-31	15	-9496	3168	13624	21	-12	-10	-15960	2024	-1648	0	-24	-1	-15936	-280	-2968	34	-5	4	121	128	8
-8700	-2132	13352	-15	8	-34	-16128	-3928	-8	17	-11	4	-15600	-16	-4040	10	-28	13	-9552	3264	13712	19	-11	-11	-16104	1912	-1944	-5	-31	-6	-15960	-368	-2984	36	-9	7	121	129	8
-8748	-2032	13304	-14	7	-35	-16200	-3888	-384	19	-17	9	-15624	32	-4024	13	-22	17	-9576	3296	13424	16	-12	-10	-16120	1944	-1760	4	-40	3	-15936	-440	-3144	35	1	5	122	128	8
-8748	-2056	13304	-19	3	-34	-16112	-4096	-232	21	-14	8	-15696	144	-4464	9	-19	21	-9416	3184	13472	22	-14	-2	-16000	1976	-1680	0	-35	1	-15928	-408	-2920	41	6	3	122	128	8
-8772	-2076	13232	-14	1	-38	-16216	-3872	-184	17	-15	11	-15760	208	-4112	14	-20	19	-9552	3144	13368	19	-15	-4	-16080	1976	-1792	1	-37	-4	-15952	-344	-2904	42	10	6	122	129	8
-8768	-2008	13376	-15	0	-35	-16088	-3848	-24	18	-16	18	-15672	24	-4432	7	-23	19	-9344	3112	13536	20	-18	-2	-16144	1976	-1744	13	-50	5	-15840	-448	-3024	48	12	5	121	128	8
-8740	-2064	13388	-18	1	-44	-16080	-3944	152	12	-14	11	-15712	136	-4296	7	-33	12	-9480	3216	13512	19	-13	-4	-16080	2048	-1648	6	-51	6	-16016	-456	-3056	46	13	8	121	128	8
-8608	-2052	13328	-16	-5	-44	-16152	-3832	136	11	-12	15	-15656	184	-4176	16	-37	19	-9536	3280	13312	21	-11	-2	-15968	2048	-1280	9	-45	4	-15880	-408	-2672	37	8	4	121	128	8
-8592	-2172	13380	-17	-7	-44	-16240	-3944	368	7	-9	11	-15872	152	-3912	13	-30	14	-9432	3296	13624	20	-19	-8	-16064	2176	-1384	4	-37	5	-16112	-456	-2552	38	-1	8	121	129	8
-8692	-2060	13340	-15	0	-42	-16112	-4072	312	3	-5	14	-15776	16	-4216	1	-26	15	-9456	3208	13472	17	-10	-3	-16088	2048	-1256	-1	-34	-3	-16216	-408	-2840	38	-4	3	121	128	8
-8656	-2144	13360	-17	6	-31	-16184	-3848	-8	10	-13	12	-15648	152	-4264	-15	-17	20	-9512	3216	13448	17	-7	-8	-16392	1936	-1424	5	-31	-2	-16096	-528	-2608	40	-5	7	121	128	8
-8696	-2076	13312	-18	8	-35	-16152	-3992	-16	0	-17	10	-15552	144	-4368	-15	-14	22	-9424	3296	13576	16	-10	-11	-16008	1968	-1608	10	-23	4	-16208	-488	-2592	43	-4	6	121	129	8
-8704	-2028	13372	-12	10	-35	-16040	-4040	184	9	-19	7	-15744	96	-4360	-3	-19	22	-9496	3336	13480	18	-2	-9	-16104	2024	-1480	11	-28	-6	-16000	-392	-2648	50	-5	7	121	129	8
-8760	-2088	13248	-19	7	-33	-15976	-3800	272	12	-17	12	-15800	24	-4112	15	-26	16	-9456	3168	13544	17	-9	-12	-16168	2032	-1536	14	-18	-4	-15912	-456	-2616	53	-6	1	121	128	8
-8748	-2128	13420	-13	7	-38	-16176	-3872	-32	15	-12	12	-15864	224	-3888	23	-27	11	-9344	3224	13448	18	-3	-11	-16096	1952	-1424	3	-19	0	-15952	-360	-3032	42	-7	5	121	129	8
-8708	-2072	13328	-15	2	-34	-16080	-4016	336	22	-13	7	-15664	104	-3968	23	-25	18	-9336	3200	13472	18	-3	-12	-16008	2104	-1712	3	-20	2	-16024	-256	-2912	34	-10	4	121	128	8
-8656	-2076	13392	-16	9	-36	-16152	-4072	448	22	-12	10	-15840	24	-4144	7	-15	20	-9432	3272	13712	14	-3	-16	-16064	1928	-1512	0	-16	-4	-15960	-320	-2824	22	-9	3	121	129	8
-8688	-2052	13424	-17	15	-34	-16176	-3808	88	11	-14	9	-15776	0	-4080	-6	-13	22	-9456	3240	13432	21	-4	-12	-16000	1904	-1528	-1	-21	1	-15960	-584	-3024	23	-4	3	122	129	8
-8716	-2172	13452	-10	15	-29	-16088	-3848	360	11	-9	4	-15600	-24	-4168	-9	-14	18	-9440	3232	13440	14	-8	-12	-16064	2024	-1360	5	-18	-3	-15952	-480	-2912	24	-8	-3	121	129	8
-8688	-2068	13280	-19	12	-29	-16048	-3896	264	12	-5	10	-15800	224	-4224	5	-18	20	-9528	3248	13424	16	-1	-17	-16032	1976	-1440	6	-20	-1	-16032	-496	-2840	25	-10	-2	121	129	8
-8632	-2132	13296	-12	13	-25	-16160	-3888	272	13	-11	10	-15688	72	-4080	7	-23	17	-9232	3312	13352	15	-2	-14	-16096	1976	-1456	3	-13	-8	-16040	-640	-2984	26	-12	2	121	129	8
-8672	-2104	13396	-13	15	-22	-16104	-3776	-144	15	-4	14	-15816	152	-4376	9	-19	20	-9512	3208	13448	17	-6	-16	-16072	2032	-1304	2	-9	-8	-15992	-480	-3080	34	-13	-3	121	129	8
-8696	-2044	13388	-5	15	-26	-16024	-4008	288	14	-1	11	-15824	24	-4296	12	-20	18	-9400	3328	13448	13	1	-21	-16120	2088	-1448	-1	-11	-7	-15912	-336	-2912	29	-5	4	121	129	8
-8664	-2136	13224	-17	23	-22	-16200	-4064	200	16	-9	8	-15760	80	-4120	13	-22	18	-9416	3240	13768	11	0	-21	-16040	1816	-1376	7	-11	-9	-15912	-384	-3000	30	-6	-3	121	129	8
-8672	-2064	13328	-13	24	-25	-16104	-3952	88	18	-4	7	-15752	16	-4328	13	-19	19	-9424	3128	13392	16	-3	-17	-15968	2056	-1800	0	-3	-11	-15928	-360	-2864	30	-6	-3	121	129	8
-8656	-2032	13356	-8	22	-28	-16040	-4000	232	15	0	11	-15640	112	-4000	10	-20	14	-9472	3184	13568	12	-3	-17	-15952	1944	-1440	-1	-1	-7	-15872	-456	-2824	21	-8	3	121	129	8
-8724	-2128	13284	-14	18	-18	-16112	-3960	56	8	-4	11	-15664	0	-4056	0	-16	20	-9400	3232	13576	15	1	-15	-16136	2056	-1528	-7	-5	-11	-15960	-456	-2744	17	-10	-3	122	129	8
-8740	-2060	13336	-11	20	-20	-16096	-3896	120	6	-4	11	-15752	16	-4032	-1	-13	20	-9512	3216	13464	14	-3	-17	-16264	1952	-1344	2	-6	-5	-16024	-448	-2944	18	-13	1	121	129	8
-8788	-2064	13428	-16	22	-27	-16080	-3920	240	12	-2	16	-15720	256	-4224	5	-17	19	-9472	3400	13448	16	2	-16	-16112	2024	-1456	1	-3	-6	-15952	-520	-2968	17	-11	-3	121	129	8
-8784	-2044	13252	-11	20	-21	-16296	-3936	232	20	-5	11	-15656	152	-4312	0	-12	19	-9496	3184	13480	12	-1	-23	-15992	1920	-1696	-2	-2	-8	-15824	-392	-2840	22	-5	-5	121	129	8
-8688	-2072	13296	-15	23	-21	-16216	-3904	120	8	-7	10	-15632	40	-4424	-2	-8	19	-9408	3296	13392	14	-1	-19	-16200	1816	-1528	-4	-3	-7	-16120	-392	-3072	18	-4	1	121	129	8
-8636	-2060	13492	-10	23	-21	-16176	-3968	-64	12	-9	9	-15720	32	-4320	-9	-4	24	-9552	3152	13456	11	1	-20	-16104	1960	-1272	0	-5	-5	-15960	-472	-2968	18	2	-3	121	129	8
-8708	-2044	13408	-11	18	-21	-16016	-3904	-24	1	-18	14	-15568	144	-4112	-2	-12	21	-9560	3160	13472	13	-1	-22	-16048	2048	-1648	-12	-6	-5	-15912	-544	-3136	18	6	1	121	129	8
-8728	-2080	13336	-13	21	-20	-16064	-3920	64	6	-16	13	-15656	168	-4168	-8	-8	21	-9400	3232	13456	15	3	-23	-16168	1968	-1496	-11	-11	-3	-15912	-416	-3160	19	6	-1	121	129	8
-8716	-2160	13360	-13	17	-25	-16208	-3952	248	9	-19	17	-15776	-96	-4032	-1	-10	21	-9472	3384	13448	13	5	-20	-16040	1904	-1416	-6	-16	-5	-15928	-448	-3000	16	8	1	121	129	8
-8768	-2020	13348	-15	17	-23	-16072	-3904	-184	9	-17	11	-15824	40	-3904	-3	-11	23	-9544	3200	13592	15	-3	-16	-16080	1872	-1528	0	-14	-3	-15824	-528	-2824	16	0	0	121	129	8
-8672	-2112	13376	-13	14	-31	-16056	-3936	104	7	-15	16	-15600	40	-4336	-3	-11	20	-9432	3160	13560	15	-3	-18	-15888	1976	-1504	-6	-8	-3	-16064	-408	-2784	11	-2	-2	122	129	8
-8644	-2132	13400	-15	14	-25	-16208	-3912	176	2	-17	13	-15704	136	-4128	-7	-12	18	-9424	3216	13328	15	-6	-17	-16176	1928	-1264	-16	-8	1	-16024	-384	-2848	9	1	-2	121	129	8
-8660	-2096	13360	-14	20	-23	-16064	-4144	64	15	-10	10	-15608	184	-4136	-9	-8	22	-9208	3280	13368	13	1	-18	-16120	1848	-1600	0	-15	-3	-16024	-368	-3040	22	15	1	121	129	8
-8704	-2024	13392	-15	20	-21	-16104	-3872	144	12	-14	14	-15616	16	-4304	-15	-8	24	-9432	3304	13472	20	4	-19	-16048	1920	-1568	-1	-14	-7	-16032	-520	-3096	25	18	7	122	129	8
-8668	-2100	13244	-14	18	-25	-16160	-3976	-8	10	-15	15	-15624	48	-3984	-4	-3	22	-9536	3160	13304	20	5	-21	-16048	2008	-1544	5	-13	-2	-15848	-536	-2840	22	13	8	122	129	8
-8740	-2112	13352	-10	15	-28	-15912	-3864	168	4	-18	14	-15584	0	-4064	6	-12	20	-9552	3104	13584	16	-1	-21	-16120	2040	-1496	5	-20	-4	-15840	-416	-3040	31	7	3	121	129	8
-8656	-2060	13364	-11	15	-23	-16072	-4088	48	12	-11	18	-15688	104	-4424	-4	-14	18	-9512	3120	13528	15	0	-16	-15952	1968	-1528	10	-16	-7	-15976	-344	-2960	26	2	-1	121	129	8
-8708	-2024	13312	-10	14	-26	-16208	-4000	288	5	-10	19	-15704	64	-4224	-1	-17	21	-9512	3304	13440	13	-4	-18	-16120	2008	-1512	-4	-11	-1	-16040	-464	-2848	17	-1	-1	121	129	8
-8736	-2100	13428	-10	18	-23	-16176	-4088	296	12	-11	16	-15800	136	-4032	-6	-8	23	-9464	3200	13616	15	-5	-15	-16200	1992	-1440	-5	-8	-3	-16040	-480	-2944	15	1	0	121	129	8
-8704	-2128	13320	-9	20	-21	-16160	-3896	-64	17	-13	17	-15688	120	-4216	-13	-4	27	-9392	3392	13592	16	-3	-18	-16184	1912	-1560	0	-9	-6	-16008	-488	-2968	22	7	4	121	129	8
-8792	-2056	13380	-13	22	-19	-16240	-3944	-96	5	-23	13	-15624	256	-4704	-14	9	27	-9400	3304	13512	17	1	-13	-16048	2080	-1504	2	-8	-4	-16008	-552	-2968	32	8	6	121	129	8
-8732	-1952	13424	-19	23	-22	-16128	-4000	88	-4	-26	18	-15536	176	-4392	-13	3	29	-9336	3240	13584	14	0	-16	-16072	2072	-1360	2	-6	-5	-15928	-456	-2752	36	5	2	121	129	8
-8796	-2076	13260	-8	19	-25	-16040	-3848	-120	7	-31	13	-15544	192	-4392	0	-2	26	-9504	3184	13376	18	-4	-20	-16032	1952	-1376	-2	-4	-3	-16072	-440	-3088	30	5	6	121	129	8
-8712	-1992	13336	-14	15	-28	-16024	-3848	88	11	-28	11	-15648	192	-4232	-3	-6	19	-9368	3336	13424	10	9	-21	-15968	1936	-1648	-2	-4	-7	-15808	-288	-3160	29	-5	4	121	129	8
-8624	-1908	13400	-12	11	-28	-16056	-3984	-88	7	-28	12	-15744	200	-4168	-11	-13	21	-9464	3280	13664	13	2	-20	-15944	1864	-1240	1	-12	-1	-15744	-112	-2976	26	7	1	121	129	8
-8692	-2128	13344	-17	16	-25	-16208	-4064	192	4	-26	7	-15736	216	-4216	-10	-5	17	-9616	3208	13648	15	-5	-18	-16104	1928	-1408	-2	-11	-5	-15840	-224	-3136	16	6	-3	121	129	8
-8708	-2084	13296	-15	18	-29	-16168	-4000	104	-3	-35	7	-15712	184	-4096	-15	-3	16	-9424	3288	13448	14	0	-17	-16096	2008	-1584	-12	-15	-3	-15864	-336	-3288	6	11	2	121	129	8
-8728	-1976	13356	-15	21	-27	-16224	-3920	-152	2	-30	8	-15848	160	-4024	-27	0	21	-9304	3456	13448	15	5	-24	-16224	2104	-1456	-7	-25	-1	-15936	-432	-3280	13	19	-1	121	129	8
-8700	-2160	13316	-13	22	-25	-16048	-3976	144	6	-38	7	-15520	224	-4288	-25	3	18	-9496	3056	13760	12	-2	-24	-16096	1832	-1688	-8	-36	0	-15832	-376	-3344	21	24	0	121	129	8
-8728	-2144	13316	-12	25	-33	-16080	-4016	384	-6	-42	8	-15528	256	-4528	-23	6	20	-9568	3000	13368	18	-1	-15	-15952	2024	-1616	-1	-47	-1	-15904	-376	-2976	21	34	3	121	129	8
-8720	-1976	13308	-16	16	-35	-16168	-3920	152	-3	-41	3	-15504	304	-4344	-9	7	20	-9320	3352	13528	14	3	-14	-16184	1800	-1688	11	-56	3	-15848	-416	-3200	23	33	5	121	129	8
-8676	-1904	13424	-23	12	-32	-16104	-4120	200	4	-43	1	-15416	216	-4448	-4	9	22	-9496	3248	13704	17	-3	-12	-16088	2000	-1480	-14	-55	5	-15880	-536	-3280	24	27	3	121	129	8
-8596	-1852	13392	-22	11	-33	-16168	-4072	360	17	-45	1	-15496	168	-4368	-7	16	22	-9456	3056	13632	21	3	-16	-16200	1856	-1416	-19	-60	4	-15952	-312	-3272	23	35	8	121	129	8
-8720	-2052	13404	-16	18	-31	-16272	-4056	80	31	-48	-6	-15528	232	-4800	6	29	36	-9504	3200	13664	19	-3	-11	-16328	1976	-1712	-6	-68	7	-15896	-328	-3400	37	38	8	121	129	8
-8692	-2096	13432	-20	20	-29	-16296	-3920	-16	32	-55	-5	-15608	128	-4752	7	30	36	-9496	3384	13472	21	-5	-7	-16104	2008	-1336	17	-86	0	-16072	-248	-2808	33	34	13	121	129	8
-8680	-2044	13332	-18	25	-32	-16288	-3848	336	20	-67	-11	-15536	80	-4440	20	48	49	-9240	3304	13792	15	-2	-11	-16032	1984	-1536	23	-83	3	-15928	-240	-2768	11	43	12	121	129	8
-8736	-2176	13272	-24	16	-32	-16040	-4056	352	14	-73	-1	-15624	-64	-4248	18	46	45	-9328	3360	13352	19	-1	-18	-16048	2088	-1088	3	-71	1	-16120	-328	-2672	21	45	4	121	129	8
-8748	-2180	13336	-19	16	-33	-16000	-4168	728	12	-73	3	-15736	184	-4432	24	45	45	-9408	3304	13528	13	3	-17	-15976	2024	-1256	-11	-60	-1	-15992	-376	-2824	7	58	1	121	129	8
-8632	-2088	13344	-21	16	-32	-16032	-3760	320	11	-64	1	-15832	64	-4072	-13	34	39	-9408	3288	13584	19	2	-19	-15904	2008	-1272	-10	-52	2	-16112	-584	-2688	-12	56	-4	121	129	8
-8692	-2192	13392	-19	12	-34	-16032	-4144	480	-2	-64	5	-15840	152	-4080	-4	29	36	-9496	3200	13592	19	3	-20	-16104	2096	-1152	-13	-42	-1	-16104	-624	-2560	-10	42	2	121	129	8
-8692	-2168	13312	-17	12	-31	-15912	-4112	368	-2	-57	7	-15920	112	-4136	-23	26	29	-9448	3336	13336	15	-3	-16	-15976	2200	-1008	-12	-26	-7	-16080	-448	-2536	0	27	1	121	129	8
-8656	-2212	13348	-17	17	-34	-16016	-4120	696	-2	-45	11	-15800	128	-3904	-25	14	25	-9368	3360	13336	15	-5	-16	-16040	2160	-920	-16	-9	-10	-16088	-456	-2648	7	16	-4	121	129	8
-8640	-2256	13348	-11	9	-27	-16064	-4080	816	-7	-35	14	-15904	88	-4152	-38	0	20	-9576	3272	13584	10	-2	-20	-16088	2128	-1424	-19	0	-6	-16176	-584	-2688	2	11	-2	121	129	8
-8696	-2252	13472	-13	14	-27	-15888	-4136	728	0	-19	17	-15824	24	-4016	-28	-19	12	-9408	3168	13672	10	2	-21	-16088	1840	-1112	-4	5	-8	-15968	-480	-3000	17	25	-3	122	129	8
-8696	-2092	13400	-12	16	-22	-16136	-4040	568	3	-6	17	-15856	24	-4256	-32	-22	12	-9456	3072	13480	11	1	-24	-16168	1976	-1440	-3	10	-10	-16000	-520	-3152	24	28	-4	121	129	8
-8716	-2068	13324	-14	15	-19	-15944	-4016	144	0	-8	15	-15736	112	-4240	-38	-30	11	-9440	3328	13240	14	-5	-16	-16192	2056	-1080	-7	6	-8	-15736	-232	-3328	22	19	-2	121	129	8
-8692	-2152	13404	-12	18	-23	-16104	-4040	152	-4	-5	17	-15544	248	-4216	-42	-19	10	-9512	3280	13544	18	-2	-16	-16040	2064	-1240	-9	9	-11	-15984	-296	-3368	16	13	-3	121	129	8
-8728	-2060	13356	-11	16	-26	-16120	-3984	472	-3	-5	19	-15536	192	-4312	-40	-18	11	-9576	3280	13512	12	-6	-18	-16032	2096	-1136	-1	4	-8	-15824	-408	-3488	7	2	-3	121	128	8
-8784	-2068	13308	-13	11	-30	-16016	-4112	520	5	-6	18	-15520	280	-4568	-19	-23	15	-9536	3184	13624	13	-7	-16	-16008	2096	-1408	-4	3	-10	-15736	-264	-3120	10	3	-5	121	129	8
-8668	-2088	13316	-15	11	-23	-16160	-4000	504	0	-13	14	-15680	240	-4352	-17	-21	16	-9480	3272	13456	12	-3	-14	-16224	1992	-1336	-12	1	-5	-15864	-384	-3224	1	2	-6	121	129	8
-8736	-2172	13368	-18	17	-23	-16136	-4088	456	5	-12	13	-15592	168	-4456	-18	-17	14	-9504	3224	13648	12	-3	-12	-16008	1952	-952	-12	-2	-9	-15760	-456	-3072	1	11	-5	122	129	8
-8724	-2088	13336	-14	18	-28	-16104	-4000	368	-1	-16	10	-15592	200	-4416	-13	-16	19	-9496	3272	13640	16	-12	-14	-16040	2080	-1256	-9	2	-5	-16000	-440	-3016	11	4	-3	121	129	8
-8692	-2068	13264	-15	13	-27	-16056	-3968	328	0	-14	11	-15480	144	-4400	-12	-23	17	-9456	3248	13360	15	-4	-11	-16112	2176	-1296	-14	-1	-4	-16000	-544	-2968	10	1	0	121	129	8
-8744	-2172	13312	-10	11	-30	-15976	-4080	792	6	-21	15	-15672	208	-4440	-1	-21	13	-9608	3224	13568	15	-9	-17	-16112	1944	-1232	-2	-5	-12	-15784	-440	-3192	12	0	3	122	129	8
-8756	-2108	13380	-11	20	-24	-16088	-4120	312	5	-18	16	-15776	120	-4400	-4	-21	14	-9528	3184	13560	15	-10	-17	-16040	1952	-992	2	-5	-8	-15944	-336	-3040	25	2	4	122	129	8
-8676	-2208	13344	-17	19	-30	-16048	-3992	640	4	-18	10	-15568	312	-4448	-22	-20	21	-9288	3232	13512	13	-3	-15	-16056	2048	-1336	-1	1	-11	-15896	-304	-3264	23	-3	0	122	129	8
-8636	-2080	13420	-16	17	-27	-16088	-4072	616	0	-19	13	-15680	280	-4240	-22	-23	19	-9376	3328	13720	17	-10	-14	-16240	1928	-1328	-10	-4	-5	-15952	-592	-3264	8	0	-4	122	129	8
-8792	-2192	13356	-15	17	-30	-16024	-4152	544	-1	-21	16	-15616	256	-4432	-20	-25	17	-9312	3264	13584	17	0	-15	-16136	1864	-1528	-7	-4	-5	-15856	-424	-3336	10	4	-1	121	129	8
-8704	-2188	13448	-18	14	-30	-16144	-4048	704	3	-16	14	-15488	72	-4224	-9	-20	12	-9512	3168	13360	15	3	-17	-16064	2088	-1128	0	-3	-5	-15800	-464	-3032	13	-4	3	122	129	8
-8688	-2148	13272	-11	13	-26	-16088	-4080	608	1	-13	16	-15536	56	-4240	-12	-26	12	-9448	3352	13744	15	-4	-18	-16008	2104	-1184	2	-4	-5	-15888	-272	-3040	20	-10	3	122	129	8
-8720	-2184	13328	-14	15	-21	-16184	-4136	424	7	-11	17	-15680	64	-4464	-13	-22	19	-9440	3184	13568	17	-7	-17	-15896	2000	-1144	-1	-6	-5	-15752	-424	-3304	21	-7	-1	121	129	8
-8696	-2092	13356	-13	17	-25	-16112	-3976	432	9	-14	12	-15672	56	-4376	-6	-25	19	-9408	3144	13600	13	-8	-18	-16232	1952	-1424	0	-7	-4	-15976	-416	-3112	24	-6	-4	121	129	8
-8780	-2100	13228	-17	16	-29	-16096	-4016	488	11	-10	12	-15632	168	-4488	3	-23	20	-9360	3384	13368	14	-7	-13	-16088	2104	-1240	-1	-5	-7	-15888	-472	-3040	18	-3	1	121	129	8
-8792	-2124	13364	-11	15	-28	-16032	-4088	616	4	-10	15	-15512	80	-4312	1	-21	22	-9448	3264	13608	15	-13	-18	-16192	2168	-1224	-6	-3	-11	-16112	-432	-3288	19	-1	4	121	129	8
-8668	-2080	13372	-9	12	-24	-16080	-4056	344	10	-12	12	-15664	152	-4136	-6	-26	17	-9408	3232	13616	14	-8	-18	-16200	2088	-1120	-4	-2	-7	-15968	-344	-3216	19	-4	2	122	129	8
-8696	-2156	13372	-17	14	-24	-16088	-4192	648	8	-6	15	-15664	280	-4448	-10	-25	22	-9432	3184	13576	15	-1	-15	-16272	1936	-1216	-8	-6	-3	-15856	-456	-3152	18	-5	1	122	129	8
-8748	-2052	13308	-13	17	-25	-15992	-4048	584	10	-16	14	-15720	240	-4584	0	-22	18	-9456	3248	13544	13	-5	-18	-16168	2024	-1160	-1	-10	-4	-15960	-440	-3408	18	-7	5	122	129	8
-8704	-2128	13340	-15	19	-24	-16016	-4096	384	7	-14	17	-15472	88	-4240	3	-17	20	-9440	3296	13712	16	-5	-13	-16064	2040	-1312	-2	-5	-7	-16016	-328	-2968	18	-13	2	121	129	8
-8684	-2172	13372	-14	14	-26	-16024	-4096	816	10	-12	18	-15648	96	-4480	-1	-27	18	-9296	3432	13400	17	-4	-17	-16040	1944	-1240	-2	-4	-6	-15896	-400	-3328	27	-8	0	121	129	8
-8716	-2128	13332	-14	15	-24	-16056	-3864	488	16	-7	15	-15520	48	-4320	-10	-27	18	-9584	3272	13752	12	-3	-15	-16096	1976	-1232	1	-9	-6	-15888	-360	-2808	24	-6	-2	122	129	8
-8716	-2180	13464	-16	20	-20	-16168	-3968	560	10	-9	17	-15664	304	-4264	-6	-25	22	-9504	3232	13512	12	-7	-17	-16120	2008	-1280	-1	-5	-4	-16016	-536	-3048	14	-6	1	122	129	8
-8696	-2112	13348	-14	18	-26	-16136	-4120	480	13	-14	15	-15672	184	-4208	3	-17	18	-9360	3160	13656	16	1	-14	-16072	2072	-992	-11	-3	1	-15912	-448	-3080	13	-5	0	122	128	8
-8660	-2112	13308	-18	16	-23	-16160	-3952	424	12	-13	15	-15616	128	-4504	10	-18	16	-9328	3048	13568	13	0	-18	-16008	2024	-1368	-6	0	-2	-15784	-568	-3016	15	-5	5	121	128	8
-8728	-2112	13404	-11	18	-24	-16024	-4080	392	12	-13	15	-15568	144	-4344	11	-21	15	-9480	3280	13376	13	-2	-16	-16104	2168	-1584	-3	-7	-5	-15880	-448	-2992	15	-15	2	121	129	8
-8736	-2132	13396	-9	20	-19	-16008	-4072	680	14	-6	13	-15664	0	-4336	-4	-18	19	-9448	3320	13384	14	-6	-13	-16096	2184	-1200	-1	-3	0	-15912	-416	-2864	20	-11	0	121	128	8
-8880	-2024	13440	-13	23	-21	-16096	-3976	504	13	-6	15	-15632	200	-4248	-2	-21	26	-9528	3200	13592	14	-2	-16	-16024	2216	-1064	-3	-6	-3	-15928	-424	-3040	19	-8	0	122	128	8
-8772	-2188	13372	-15	20	-27	-16112	-3976	528	12	-9	20	-15768	208	-4280	7	-22	23	-9416	3216	13464	14	-3	-16	-16144	1992	-1064	1	0	-5	-15784	-544	-3464	21	-8	0	121	129	8
-8780	-2184	13268	-7	15	-26	-16152	-3904	456	9	-3	21	-15648	152	-4392	7	-23	17	-9360	3216	13616	14	0	-19	-16096	2056	-1464	0	-2	-3	-15936	-544	-3160	26	-7	3	121	129	8
-8672	-2176	13352	-11	17	-23	-16120	-4080	392	7	-7	19	-15536	80	-4256	5	-24	24	-9480	3200	13520	15	-7	-17	-15992	2112	-1216	-4	-2	-6	-16088	-264	-2912	24	-9	4	121	129	8
-8732	-2144	13376	-14	14	-25	-16176	-4056	512	4	-5	19	-15632	280	-4208	-12	-22	20	-9432	3248	13816	11	-5	-18	-16200	2168	-1256	-5	3	1	-15872	-280	-3104	17	-9	4	121	128	8
-8704	-2112	13276	-12	12	-25	-16128	-4072	744	8	-3	18	-15760	176	-4352	-6	-23	19	-9440	3264	13720	14	-3	-16	-16176	2024	-1312	3	3	-4	-15816	-408	-3088	20	-8	4	122	128	8
-8712	-2100	13404	-13	14	-25	-16056	-3960	368	9	3	17	-15608	232	-4312	-2	-21	19	-9592	3240	13608	17	-10	-19	-16008	2232	-992	1	2	-3	-15752	-496	-3112	21	-9	2	121	129	8
-8712	-2204	13376	-11	14	-25	-16144	-4056	176	14	-2	15	-15752	192	-4448	6	-23	21	-9416	3144	13448	13	-6	-15	-16096	2088	-1368	-5	0	-3	-16000	-368	-3112	25	-7	-1	121	129	8
-8732	-2164	13308	-11	13	-32	-16056	-4136	528	10	0	17	-15600	192	-4336	5	-21	25	-9512	3280	13680	14	-2	-15	-16000	2096	-1152	-6	2	-6	-15848	-280	-3176	9	-6	-1	122	129	8
-8748	-2148	13328	-9	12	-30	-16088	-4024	336	10	0	16	-15632	128	-4456	1	-23	23	-9296	3280	13600	16	-7	-12	-15952	2048	-1128	-4	2	-3	-16048	-360	-3104	22	-5	-1	122	129	8
-8688	-2148	13448	-13	13	-26	-16128	-4120	608	9	-4	19	-15664	176	-4032	3	-26	23	-9696	3304	13664	16	-3	-14	-16136	1936	-1360	-3	-1	-4	-15968	-448	-3016	22	-8	-2	121	129	8
-8772	-2148	13276	-13	13	-27	-16176	-4152	504	11	-1	20	-15784	360	-4304	13	-18	24	-9448	3192	13568	14	-4	-17	-16160	2104	-1272	1	1	-9	-15904	-416	-2976	24	-13	1	122	128	8
-8672	-2164	13376	-12	19	-32	-16200	-4040	648	13	-3	18	-15664	136	-4232	8	-15	23	-9544	3296	13368	16	-2	-13	-16032	2072	-1312	2	0	-4	-15896	-304	-3096	23	-10	2	121	129	8
-8700	-2152	13240	-12	18	-31	-16048	-4008	432	6	-7	14	-15656	96	-4368	13	-19	25	-9464	3232	13632	15	-10	-18	-16104	2056	-1304	4	0	-7	-15880	-368	-3208	28	-6	3	122	128	8
-8740	-2156	13364	-12	12	-31	-16080	-4112	504	7	-3	20	-15600	-56	-4136	13	-19	27	-9416	3264	13592	12	0	-17	-15968	2000	-1328	7	-3	-6	-15816	-544	-2928	28	-2	1	122	129	8
-8724	-2232	13412	-12	15	-24	-16104	-4112	760	13	1	16	-15768	88	-4128	-7	-19	22	-9488	3216	13616	10	1	-14	-16000	2080	-1216	1	1	-7	-15984	-432	-3320	24	-2	-1	122	129	8
-8636	-2056	13368	-12	15	-23	-16152	-4112	424	13	1	12	-15624	240	-4168	-4	-13	25	-9504	3304	13848	13	-6	-12	-16192	2072	-1264	-4	2	-4	-16008	-264	-3072	22	-1	-1	122	128	8
-8664	-2180	13316	-15	16	-27	-16112	-4088	352	13	3	19	-15560	216	-4240	6	-11	24	-9408	3208	13376	15	-3	-15	-16280	2096	-1224	3	0	-9	-15928	-560	-2976	22	-5	-2	122	129	8
-8688	-2140	13416	-12	16	-24	-16104	-4240	344	15	2	20	-15576	208	-4368	13	-14	24	-9464	3272	13560	16	-7	-18	-16008	2072	-1560	7	-4	-9	-15968	-288	-2936	29	-1	4	122	129	8
-8708	-2140	13428	-15	13	-24	-16152	-4096	720	11	3	19	-15632	8	-4248	2	-14	23	-9552	3184	13584	11	-3	-15	-16104	2136	-1288	-1	-2	-12	-16064	-368	-2944	25	0	1	122	129	8
-8664	-2208	13284	-15	20	-20	-16216	-4008	296	10	5	21	-15664	160	-4296	6	-16	25	-9432	3248	13528	17	-1	-16	-16096	2160	-1416	1	3	-9	-15936	-448	-2936	25	4	-4	122	129	8
-8708	-2124	13268	-14	17	-25	-16096	-4144	448	11	1	18	-15752	80	-4256	1	-14	23	-9392	3384	13536	14	-1	-16	-16064	2048	-960	1	7	-12	-16032	-376	-3152	25	3	-1	122	129	8
-8644	-2112	13344	-11	21	-27	-16136	-4056	648	12	-1	17	-15744	216	-4136	6	-10	21	-9560	3248	13344	13	-6	-19	-16072	2112	-1176	-1	7	-13	-15896	-480	-3152	18	6	0	122	129	8
-8792	-2212	13316	-9	22	-20	-16072	-4008	616	9	-4	17	-15768	96	-4152	-1	-10	25	-9496	3288	13544	17	-1	-19	-16120	2136	-1424	0	3	-11	-15984	-248	-3088	24	7	1	122	129	8
-8720	-2104	13244	-9	24	-22	-16024	-4080	864	9	2	23	-15688	56	-3984	16	-15	18	-9536	3224	13616	17	7	-17	-16080	2080	-1304	2	1	-11	-15760	-336	-2904	18	8	0	122	129	8
-8712	-2064	13404	-11	22	-24	-16184	-4080	704	17	9	17	-15752	64	-4400	18	-14	23	-9360	3240	13488	11	5	-15	-16232	2072	-1424	-1	3	-14	-15784	-416	-2880	25	2	-3	122	129	8
-8672	-2148	13312	-4	23	-21	-16160	-3928	376	14	16	20	-15656	304	-4232	15	-19	23	-9360	3200	13344	9	4	-19	-15976	2112	-1152	4	5	-12	-15888	-368	-3000	18	0	-2	122	129	8
-8696	-2216	13352	-14	25	-16	-16072	-4096	384	14	19	23	-15864	-56	-4456	16	-13	23	-9424	3136	13616	11	-1	-23	-16184	2088	-1520	2	2	-12	-15952	-264	-3120	20	-3	-1	122	128	8
-8692	-2108	13288	-13	22	-21	-15984	-4088	416	5	14	23	-15528	16	-4432	3	-19	24	-9328	3288	13744	11	5	-21	-16096	1960	-1160	3	3	-8	-15936	-360	-2824	20	-5	-3	122	129	8
-8692	-2108	13288	-9	19	-19	-16144	-4024	520	5	20	25	-15648	72	-4312	5	-16	25	-9496	3184	13536	15	-5	-22	-16096	1960	-1656	-4	5	-9	-16040	-592	-3080	21	3	-1	121	128	8
-8684	-2160	13240	-7	17	-21	-16248	-3904	504	4	10	24	-15544	208	-4424	-14	-14	22	-9352	3232	13592	9	0	-22	-16088	2184	-1328	4	13	-16	-15856	-600	-2736	18	-4	0	122	129	8
-8716	-2148	13320	-10	17	-17	-16056	-3896	432	4	7	23	-15680	144	-4152	9	-13	22	-9376	3208	13272	10	1	-17	-16088	2152	-1160	-2	16	-12	-15968	-576	-2912	18	-2	3	121	129	8
-8720	-2128	13280	-8	20	-15	-16040	-4024	664	8	6	23	-15680	152	-4592	12	-19	25	-9368	3296	13488	11	-1	-21	-16184	2264	-1176	2	15	-11	-15912	-384	-2968	22	-1	1	122	129	8
-8728	-2128	13292	-9	21	-22	-16000	-4016	408	10	10	23	-15616	64	-4344	11	-17	25	-9488	3304	13552	14	0	-22	-16072	1960	-1336	6	15	-14	-15896	-288	-3312	17	6	0	122	128	8
-8780	-2100	13328	-10	18	-23	-16176	-4024	480	16	11	19	-15696	288	-4352	7	-21	24	-9344	3304	13168	9	6	-21	-16184	1912	-1576	-3	14	-15	-15928	-224	-3232	18	8	-2	121	129	8
-8764	-2144	13300	-9	17	-21	-16144	-4056	552	9	10	20	-15576	56	-4256	4	-17	24	-9400	3088	13664	9	2	-19	-16048	2048	-1080	-5	12	-15	-15864	-448	-3024	26	6	-2	122	128	8
-8616	-2108	13248	-7	16	-23	-16256	-3904	408	2	4	23	-15712	224	-4312	-12	-12	21	-9392	3240	13304	15	2	-19	-16112	1968	-1416	-8	9	-9	-15896	-336	-3024	17	-3	-1	122	128	8
-8740	-2036	13308	-11	14	-21	-16152	-4080	560	6	1	21	-15560	56	-4440	-4	-13	19	-9472	3192	13712	8	-6	-22	-16088	2032	-1512	4	5	-8	-15848	-296	-3376	18	-4	-1	122	129	8
-8696	-2120	13376	-11	18	-22	-16048	-4064	544	6	6	24	-15696	184	-4280	-4	-6	22	-9584	3208	13488	14	0	-22	-16088	2056	-1328	-4	7	-8	-16040	-488	-3248	16	0	-2	122	128	8
-8752	-2064	13388	-9	15	-19	-16200	-4120	384	7	6	18	-15720	104	-4264	1	-14	28	-9584	3296	13600	13	-1	-16	-16192	2032	-1104	-3	8	-6	-15888	-368	-2968	11	1	4	122	129	8
-8788	-2124	13312	-10	19	-23	-16128	-4072	320	12	9	21	-15664	112	-4432	9	-17	24	-9424	3392	13464	10	6	-20	-16056	2040	-1480	-5	5	-10	-15976	-384	-3096	15	10	1	121	128	8
-8740	-2152	13312	-7	16	-24	-16208	-4080	376	17	9	15	-15640	192	-4440	10	-15	21	-9352	3320	13504	14	0	-19	-15992	2128	-1000	1	3	-11	-15856	-472	-3192	18	5	0	122	129	8
-8688	-2124	13320	-9	18	-20	-16168	-4040	248	7	4	18	-15608	312	-4352	9	-13	24	-9336	3320	13488	13	-1	-18	-16080	2136	-1488	-3	3	-8	-16032	-440	-3088	18	-3	-1	122	128	8
-8688	-2088	13388	-14	13	-25	-16072	-3984	376	10	-1	19	-15504	184	-4328	1	-11	25	-9504	3168	13760	10	-1	-16	-16008	2040	-1392	2	13	-10	-15904	-400	-3000	22	-4	-2	121	128	8
-8700	-2136	13400	-11	16	-22	-16016	-3760	704	11	0	19	-15616	208	-4424	3	-9	22	-9480	3304	13488	13	0	-21	-16104	2024	-1176	-1	10	-12	-15848	-264	-3040	19	-4	-1	122	128	8
-8716	-2112	13368	-9	17	-22	-16040	-4144	264	5	-1	20	-15504	152	-4328	-1	-16	23	-9528	3184	13472	13	5	-22	-16056	1928	-1368	2	8	-14	-15944	-360	-3200	24	-1	-1	121	128	8
-8668	-2088	13284	-7	12	-27	-16048	-4024	568	10	4	20	-15704	128	-4328	0	-15	22	-9368	3320	13648	9	1	-17	-16128	2056	-1368	-3	2	-9	-16064	-376	-3024	21	5	2	122	128	8
-8696	-2096	13416	-14	20	-22	-16096	-4112	520	7	3	23	-15832	272	-4448	-5	-18	21	-9488	3240	13472	11	6	-21	-16160	1808	-1040	0	9	-10	-15976	-480	-3224	18	5	-1	122	129	8
-8696	-2064	13340	-12	15	-24	-16096	-4008	376	7	6	20	-15680	112	-4304	-2	-15	25	-9424	3232	13648	15	-4	-18	-16160	2072	-1352	0	5	-6	-15984	-456	-3192	17	-1	-1	122	129	8
-8708	-2084	13388	-7	16	-24	-16232	-3992	448	14	9	16	-15760	128	-4224	11	-14	23	-9640	3200	13328	12	2	-18	-16064	1936	-1648	2	4	-10	-15800	-328	-3232	21	-3	1	122	129	8
-8680	-2168	13384	-10	17	-25	-16088	-4184	504	13	5	18	-15640	120	-4200	12	-13	29	-9528	3208	13840	14	-1	-20	-16144	2096	-1616	-1	7	-9	-15816	-552	-2824	22	-6	2	122	128	8
-8760	-2124	13392	-10	15	-23	-16064	-4112	336	14	10	23	-15640	40	-4464	8	-13	23	-9400	3240	13448	11	-3	-20	-16104	2112	-1568	2	2	-10	-15880	-400	-3080	26	1	3	122	129	8
-8668	-2104	13344	-8	15	-29	-16168	-4040	440	8	4	20	-15560	120	-4280	-4	-13	24	-9568	3392	13736	15	-4	-18	-15968	2032	-1536	2	1	-9	-15944	-320	-2984	29	4	3	122	128	8
-8724	-2080	13340	-11	19	-24	-16048	-3928	280	4	0	20	-15632	112	-4456	1	-12	26	-9392	3304	13728	10	9	-19	-16168	2104	-1368	7	0	-2	-15984	-376	-3336	31	4	2	122	128	8
-8764	-2108	13368	-3	11	-28	-16072	-4072	368	6	1	18	-15664	288	-4176	7	-14	27	-9568	2992	13440	15	-2	-23	-16096	1920	-1424	6	4	-8	-15944	-520	-3136	28	1	2	121	129	8
-8720	-2120	13356	-11	19	-23	-16064	-4152	408	15	7	21	-15640	144	-4208	12	-17	27	-9480	3272	13576	17	1	-20	-15984	1944	-1544	-1	1	-13	-15776	-416	-3264	24	-1	2	122	129	8
-8648	-2048	13360	-6	16	-26	-16080	-4008	488	16	9	22	-15616	200	-4344	11	-16	25	-9464	3152	13512	14	1	-20	-16176	2112	-1312	-1	-2	-12	-15992	-328	-3248	23	-1	0	122	129	8
-8744	-2132	13372	-15	11	-25	-16048	-3904	488	10	1	17	-15568	184	-4320	11	-13	22	-9424	3360	13456	14	-1	-18	-16040	1944	-1456	1	0	-7	-15904	-304	-2992	23	-4	3	122	128	8
-8728	-2140	13336	-13	17	-24	-16168	-4104	480	7	5	24	-15656	176	-4392	10	-19	22	-9472	3264	13512	14	-4	-16	-16248	1976	-1408	5	3	-9	-16040	-280	-3152	24	-4	2	122	128	8
-8700	-2128	13332	-9	16	-23	-16168	-3896	368	6	4	17	-15760	256	-4120	1	-14	20	-9536	3240	13464	14	-2	-17	-16000	2064	-1416	-3	-1	-9	-16072	-488	-3152	27	1	1	122	128	8
-8652	-2144	13428	-8	13	-23	-16128	-3952	560	11	-3	21	-15672	296	-4152	6	-15	22	-9464	3304	13576	8	5	-16	-16080	1984	-1280	5	-2	-10	-16040	-408	-2968	22	-2	0	122	128	8
-8748	-2152	13356	-12	17	-23	-16112	-4016	632	9	3	16	-15624	288	-4232	-1	-14	25	-9448	3360	13528	14	-6	-19	-16128	1952	-1648	5	2	-5	-15880	-408	-3096	25	3	-1	121	128	8
-8740	-2092	13260	-13	19	-26	-16208	-3960	288	12	6	11	-15784	296	-4568	2	-14	22	-9472	3320	13632	14	-3	-16	-16000	2008	-1384	-1	-1	-6	-15888	-496	-3000	29	6	-1	121	128	8
-8676	-2124	13248	-15	11	-25	-16040	-3992	392	14	0	15	-15624	248	-4232	9	-16	23	-9464	3112	13448	13	-3	-16	-15968	2040	-1216	1	2	-9	-16064	-272	-3152	24	1	3	121	128	8
-8792	-2068	13356	-14	17	-20	-16128	-3960	376	14	5	15	-15688	304	-4360	1	-13	20	-9568	3312	13744	14	-4	-16	-16144	2024	-1448	-2	0	-6	-15872	-256	-3144	26	-2	-1	122	128	8
-8720	-2140	13292	-10	15	-23	-16200	-4136	256	8	-4	16	-15560	184	-4376	6	-18	21	-9424	3296	13616	9	-2	-19	-16080	1984	-1312	0	-1	-6	-15944	-336	-3248	21	-5	-1	121	128	8
-8688	-2160	13368	-13	12	-24	-16096	-4024	392	6	1	13	-15760	184	-4336	-2	-14	19	-9464	3192	13424	13	1	-16	-16176	2000	-1344	-3	0	-9	-16024	-336	-3048	25	-3	-1	121	129	8
-8776	-2128	13324	-11	14	-28	-16096	-4040	416	9	-3	18	-15552	168	-4424	-6	-23	21	-9488	3096	13384	16	1	-17	-16160	1984	-1592	-2	-1	-9	-15744	-400	-3224	22	-1	-3	122	129	8
-8744	-2076	13260	-11	12	-25	-16080	-3960	368	8	-4	18	-15536	224	-4424	1	-21	26	-9472	3392	13408	13	-2	-17	-16064	1840	-1328	-1	-4	-5	-16032	-312	-2880	22	-4	0	122	129	8
-8752	-2140	13380	-13	15	-26	-16256	-4048	368	9	-6	16	-15624	96	-4072	6	-17	20	-9288	3216	13568	18	-3	-18	-16000	2056	-1312	-2	-2	-5	-15880	-480	-3256	22	-6	0	122	128	8
-8704	-2132	13320	-10	16	-24	-16032	-3984	464	10	0	20	-15576	112	-4144	9	-13	20	-9456	3144	13656	16	-7	-17	-16064	1928	-1584	-1	3	-5	-16048	-304	-2840	20	-1	0	122	129	8
-8752	-2068	13324	-13	12	-28	-15976	-4000	696	12	6	21	-15608	216	-4232	7	-15	20	-9608	3128	13504	13	-4	-15	-16088	2048	-1392	-2	-2	-6	-15872	-456	-2880	25	1	0	121	128	8
-8776	-2060	13300	-13	11	-29	-16048	-4120	232	13	12	20	-15672	256	-4480	6	-20	20	-9400	3088	13504	15	-1	-13	-16224	1912	-1584	2	-6	-7	-16072	-376	-3048	26	4	1	122	128	8
-8748	-2092	13360	-12	12	-28	-16064	-3984	320	10	9	16	-15664	0	-4560	3	-24	19	-9400	3320	13568	13	4	-20	-16008	2112	-1424	0	-7	-5	-15824	-416	-2912	25	1	0	122	128	8
-8748	-2108	13380	-8	14	-21	-16032	-4000	440	10	4	20	-15744	112	-4216	9	-18	19	-9344	3096	13640	14	-4	-17	-16128	2152	-1384	1	-3	-10	-15960	-408	-2968	34	2	-1	121	128	8
-8744	-2156	13236	-11	15	-27	-16336	-4136	352	7	5	19	-15640	192	-4312	2	-18	25	-9552	3048	13456	8	2	-17	-16040	1928	-1288	5	-1	-9	-15944	-320	-2856	27	0	-4	122	129	8
-8744	-2112	13340	-11	18	-20	-16144	-3960	280	12	8	16	-15792	232	-4376	7	-18	24	-9368	3240	13512	15	-4	-19	-16056	2080	-1536	-2	-1	-9	-15944	-344	-3040	24	-2	3	121	128	8
-8772	-2080	13388	-11	21	-25	-16240	-4016	648	18	7	20	-15576	192	-4376	11	-25	17	-9416	3192	13664	17	-3	-20	-16168	1784	-1384	-2	-3	-7	-15928	-328	-3280	22	7	1	121	128	8
-8692	-2144	13332	-11	14	-24	-16160	-3960	384	13	8	20	-15648	256	-4472	8	-21	20	-9472	3264	13504	13	-1	-19	-15992	2136	-1376	-1	2	-6	-15984	-336	-3144	22	3	-1	121	128	8
-8740	-2056	13324	-11	16	-24	-16072	-3928	360	12	5	14	-15624	304	-4408	3	-18	17	-9504	3296	13456	18	3	-19	-16200	2024	-1440	-2	1	-6	-15688	-432	-3144	28	4	0	121	128	8
-8712	-2108	13240	-10	19	-23	-16136	-3992	528	7	6	21	-15552	176	-4592	6	-16	22	-9408	3296	13552	11	-3	-19	-16192	2008	-1392	1	-5	-8	-16040	-304	-3320	25	1	-1	121	129	8
-8744	-2156	13304	-14	16	-27	-16056	-3960	728	10	1	20	-15632	216	-4312	6	-18	18	-9304	3320	13600	10	-3	-20	-16000	2056	-1464	3	1	-11	-15840	-504	-3176	25	0	-1	122	128	8
-8708	-2176	13416	-13	18	-26	-16024	-4112	568	7	8	20	-15568	160	-4488	3	-19	20	-9304	3288	13640	14	-6	-18	-16120	2040	-1464	-2	-5	-7	-15888	-464	-3480	20	4	-1	122	129	8
-8740	-2060	13332	-12	14	-27	-16016	-3936	200	13	6	15	-15600	200	-4416	3	-20	17	-9632	3184	13632	14	-5	-18	-16248	1808	-1440	-5	-5	-7	-15968	-520	-3304	22	8	-1	122	129	8
-8812	-2100	13296	-11	14	-24	-16096	-3944	584	11	2	19	-15640	56	-4304	5	-24	16	-9496	3152	13624	15	1	-22	-16088	1984	-1496	-6	-10	-4	-15936	-480	-3280	17	3	3	121	129	8
-8720	-2100	13372	-8	13	-25	-16168	-3912	144	20	4	19	-15528	200	-4584	3	-16	17	-9608	3168	13456	15	1	-15	-15984	1960	-1840	-6	-6	-4	-15896	-528	-3072	18	-3	0	121	129	8
-8672	-2064	13352	-12	17	-29	-16168	-3920	176	23	3	15	-15536	136	-4312	11	-17	21	-9464	3088	13512	14	1	-18	-16096	2088	-1360	-7	-8	-2	-15800	-328	-3088	21	-10	3	122	128	8
-8736	-2096	13256	-16	16	-27	-16104	-4128	440	22	2	13	-15616	328	-4416	30	-10	25	-9480	3336	13624	18	-3	-17	-16080	2200	-1344	6	-16	-1	-15896	-464	-2888	29	-11	4	121	128	8
-8708	-2140	13360	-11	12	-26	-15936	-3960	176	23	3	14	-15664	128	-4520	19	-4	25	-9456	3248	13512	15	0	-15	-16128	1936	-1256	13	-15	-2	-15864	-368	-2904	39	-11	2	122	128	8
-8704	-2180	13244	-11	14	-25	-16096	-4048	216	18	-2	19	-15560	0	-4312	2	-7	27	-9312	3352	13616	14	3	-18	-16040	2104	-1464	2	-8	-8	-16008	-224	-3048	33	-6	4	122	128	8
-8736	-2168	13268	-12	11	-27	-16000	-4000	648	14	-5	22	-15640	112	-4104	14	-10	26	-9480	3376	13528	16	6	-15	-16072	2032	-1368	-3	-8	-9	-15968	-448	-3144	28	6	0	122	128	8
-8696	-2104	13316	-10	15	-23	-16088	-4048	576	17	-3	22	-15840	216	-4040	9	-8	31	-9496	3240	13552	15	1	-15	-16072	1880	-1128	1	-4	-4	-15984	-488	-3056	25	5	-1	122	128	8
-8696	-2112	13284	-8	17	-24	-16056	-3872	328	10	2	17	-15792	312	-4112	16	-11	27	-9400	3104	13624	16	5	-16	-15960	1968	-1216	2	-3	-10	-15800	-296	-2880	24	3	4	122	129	8
-8624	-2128	13356	-15	18	-22	-16176	-3976	568	17	7	13	-15808	216	-3864	12	-11	23	-9608	3200	13648	14	-4	-22	-16176	2064	-1344	4	-2	-14	-15984	-200	-2816	24	-1	1	122	128	8
-8720	-2096	13332	-15	20	-30	-16072	-4104	360	15	7	18	-15664	336	-4104	-3	-11	25	-9288	3248	13520	9	5	-20	-16104	1920	-1240	7	2	-15	-15904	-208	-3208	18	-3	-3	122	128	8
-8700	-2164	13352	-13	17	-26	-16064	-4088	424	9	11	16	-15568	160	-4448	-5	-4	21	-9544	3240	13648	9	-3	-18	-16080	2056	-1296	-4	6	-21	-15904	-304	-3024	25	1	-9	122	128	8
-8760	-2100	13340	-8	16	-21	-16144	-3968	200	8	1	17	-15840	256	-4152	2	-7	19	-9336	3248	13720	8	-3	-22	-16096	1984	-1440	2	6	-13	-15832	-208	-3040	23	5	-9	122	128	8
-8656	-2192	13272	-8	17	-24	-16032	-4008	224	7	5	13	-15760	56	-4136	13	-8	21	-9344	3192	13408	7	-4	-21	-16056	2080	-1272	-3	3	-21	-15824	-320	-3056	17	6	-11	122	128	8
-8748	-2116	13364	-9	22	-20	-16096	-4200	616	3	12	14	-15632	144	-4536	2	-5	22	-9400	3232	13608	11	-10	-22	-15984	2008	-1832	-7	6	-21	-15808	-328	-2944	28	10	-8	122	128	8
-8740	-2048	13344	-15	21	-28	-16136	-4080	480	9	11	11	-15720	152	-4120	7	-8	23	-9504	3336	13744	5	-8	-22	-15984	2056	-1600	0	4	-24	-15840	-368	-3104	25	10	-7	122	128	8
-8704	-2064	13304	-12	19	-25	-16048	-3984	504	11	19	13	-15592	312	-4288	12	-8	19	-9216	3320	13704	5	-10	-17	-16040	1976	-1328	2	1	-24	-15960	-416	-2920	32	-1	-12	122	128	8
-8692	-2136	13372	-13	20	-22	-16016	-3880	512	9	22	13	-15680	192	-4208	12	-15	13	-9360	3576	13664	8	-8	-16	-16104	2120	-904	19	6	-27	-15936	-592	-3104	31	-4	-4	122	128	8
-8768	-2080	13320	-11	17	-20	-16048	-4016	336	1	19	14	-15672	136	-4312	11	-19	18	-9672	3104	13360	3	-3	-22	-16304	1720	-1104	-10	8	-24	-15936	-600	-2992	14	-12	-10	122	128	8
-8668	-2120	13404	-14	21	-21	-16088	-4200	352	-3	20	20	-15680	152	-4232	3	-53	-1	-9448	3488	13640	9	3	-17	-16192	1968	-1152	-2	13	-22	-15856	-440	-3376	22	4	-10	122	128	8
-8764	-2124	13236	-11	28	-14	-16216	-3984	-48	19	32	12	-15824	384	-4224	-19	-45	3	-9536	3088	13488	14	-3	-17	-16096	1768	-1576	-9	5	-21	-15744	-608	-3424	18	-2	-9	122	128	8
-8572	-2096	13396	-12	27	-20	-16160	-3936	368	-4	15	14	-15488	440	-4408	-3	-47	-2	-9408	3192	13384	13	-10	-20	-16040	1640	-1520	-8	5	-15	-15560	-496	-3328	12	2	-4	122	128	8
-8832	-2064	13364	-12	26	-21	-15952	-3928	248	11	13	12	-15432	120	-4856	-10	-39	0	-9584	3168	13656	10	-15	-17	-16120	1904	-1776	-12	-10	-6	-15632	-464	-3728	19	2	0	122	128	8
-8800	-2076	13288	-18	23	-23	-16112	-4080	-64	12	8	12	-15400	-16	-4480	2	-44	2	-9408	3192	13848	14	-10	-15	-16264	1904	-1720	-16	-16	-6	-15840	-624	-3536	9	-6	-3	122	129	8
-8740	-2168	13296	-14	23	-25	-16136	-4208	40	15	-1	10	-15288	-128	-4880	4	-27	14	-9576	2968	13672	17	-2	-13	-16384	1856	-1664	-12	-15	-2	-16016	-584	-3392	7	-3	-5	122	128	8
-8772	-2124	13248	-11	17	-22	-16096	-4040	312	12	-22	20	-15528	-264	-4760	16	-12	16	-9440	3240	13472	22	7	-17	-16288	1904	-1328	0	-27	5	-16248	-600	-2800	12	0	-1	122	128	8
-8696	-2152	13276	-13	16	-24	-16024	-4040	392	17	-19	24	-15552	-328	-4432	20	-12	21	-9472	3160	13488	21	6	-16	-15912	1968	-1296	-6	-15	8	-16096	-840	-2704	-1	-10	-3	122	128	8
-8736	-2120	13220	-6	6	-23	-16096	-4112	368	16	-16	26	-15656	-256	-4360	7	-19	20	-9344	3248	13256	21	15	-14	-15920	1928	-1296	-8	4	5	-16144	-728	-2704	-9	-6	10	122	128	8
-8712	-2176	13260	-8	0	-22	-16112	-4072	440	5	-20	27	-15688	136	-4056	-19	-30	25	-9528	3168	13432	20	10	-20	-15896	1952	-1240	-9	16	9	-15864	-648	-2592	3	3	11	122	128	8
-8692	-2096	13324	-4	6	-19	-16080	-3952	464	3	-15	32	-15896	384	-4112	-26	-36	25	-9464	3168	13648	16	3	-17	-15968	2088	-1624	-9	21	7	-15808	-496	-3088	22	8	15	122	128	8
-8688	-2060	13396	-5	7	-20	-16280	-3896	560	3	-16	28	-15688	304	-4376	-15	-33	31	-9504	3152	13488	19	-3	-10	-16072	1944	-1560	-2	17	5	-15760	-424	-3400	31	0	18	122	128	8
-8680	-2016	13356	-9	14	-27	-16240	-3952	552	6	-14	25	-15568	240	-4392	13	-23	37	-9504	3160	13376	18	-3	-17	-16096	2056	-1648	1	4	8	-15560	-200	-3464	48	-7	23	122	129	8
