#Activity	sitting in car 
#ActivityID	12 
#Date 09-19-15-17
acc_rf_x	acc_rf_y	acc_rf_z	gyro_rf_x	gyro_rf_y	gyro_rf_z	acc_rs_x	acc_rs_y	acc_rs_z	gyro_rs_x	gyro_rs_y	gyro_rs_z	acc_rt_x	acc_rt_y	acc_rt_z	gyro_rt_x	gyro_rt_y	gyro_rt_z	acc_lf_x	acc_lf_y	acc_lf_z	gyro_lf_x	gyro_lf_y	gyro_lf_z	acc_ls_x	acc_ls_y	acc_ls_z	gyro_ls_x	gyro_ls_y	gyro_ls_z	acc_lt_x	acc_lt_y	acc_lt_z	gyro_lt_x	gyro_lt_y	gyro_lt_z	EMG_r	EMG_l	act
-4844	-7456	14196	11	-14	-20	-12616	-7288	6936	7	3	5	1552	-3312	16888	17	0	-3	-2552	6520	14280	-19	20	-26	-13664	7144	7512	3	0	19	472	2384	16824	3	-15	16	127	139	12
-4476	-7160	14364	16	-9	-18	-12840	-7160	6856	-4	-4	1	1568	-3360	16688	9	0	2	-2184	6600	14472	-10	18	-22	-13392	6648	7392	2	3	15	584	2312	16552	12	-12	22	128	139	12
-4528	-7172	14304	7	-11	-22	-12712	-7248	6952	4	-2	5	1504	-3464	16440	15	-2	5	-2488	6640	14264	-17	16	-28	-13584	6912	7408	23	-2	12	568	2336	17144	2	-17	22	128	139	12
-4860	-7456	14376	13	-19	-16	-12760	-7336	6664	-2	-3	-9	1688	-3440	16800	23	-6	9	-2336	6464	14664	-24	22	-32	-13552	6992	7328	22	-7	13	376	2328	16872	-1	-17	20	128	139	12
-4596	-7112	14460	13	-9	-21	-12800	-7096	6768	-3	3	-5	1528	-3320	16472	18	-2	6	-2192	6456	14360	-3	18	-27	-13480	6688	7464	3	-4	13	544	2336	16280	5	-16	18	127	138	12
-4688	-7228	14268	-3	-3	-25	-12552	-7088	6712	4	-2	-2	1704	-3320	16568	29	-1	9	-2464	6824	14448	-13	18	-24	-13424	6912	7056	16	-3	15	592	2312	16600	1	-20	17	128	138	12
-4632	-7384	14276	11	-14	-23	-12744	-7352	6768	-18	-8	-9	1640	-3304	16600	27	-11	14	-2296	6304	14720	-16	15	-25	-13528	6936	7296	15	-9	18	544	2336	16704	6	-14	13	127	139	12
-4392	-7064	14360	5	-8	-20	-12640	-7304	6696	-13	-8	-11	1624	-3552	16336	17	2	13	-2304	6568	14392	-6	18	-26	-13408	6904	7384	14	-13	18	640	2408	16600	9	-19	18	127	139	12
-4688	-7368	14260	0	-6	-25	-12488	-7472	6888	9	-2	-8	1624	-3560	16624	28	0	6	-2496	6648	14528	-14	14	-26	-13576	7072	7376	9	-7	18	648	2392	16984	-3	-18	16	128	139	12
-4616	-7216	14332	11	-11	-21	-12976	-7320	7008	3	-6	-13	1592	-3400	16472	23	-7	8	-2376	6352	14496	-6	20	-21	-13504	6808	7384	-13	0	16	552	2248	16728	2	-14	14	128	139	12
-4444	-6944	14364	-1	-9	-20	-12528	-7112	6920	-1	-2	-10	1624	-3544	16488	12	1	5	-2352	6552	14280	-6	23	-24	-13504	6840	7376	13	-5	13	752	2288	16880	5	-15	15	128	138	12
-4800	-7400	14236	-8	-11	-25	-12608	-7512	7072	-2	-6	-4	1656	-3504	16720	24	-1	13	-2600	6592	14560	-18	26	-29	-13736	6968	7368	11	-4	19	728	2232	16632	5	-17	16	128	139	12
-4604	-7224	14348	1	-14	-18	-12888	-7392	6848	-9	1	-9	1544	-3528	16704	15	-5	13	-2280	6240	14688	-9	14	-27	-13776	6880	7296	7	-1	18	728	2280	16616	11	-11	18	128	139	12
-4512	-7140	14268	-6	-10	-22	-12688	-7456	7000	-5	-2	-3	1544	-3552	16600	25	-1	11	-2416	6584	14600	-11	14	-23	-13432	6880	7392	23	-7	14	584	2264	16808	11	-16	20	128	138	12
-4812	-7440	14412	8	-16	-19	-12752	-7504	6904	4	-2	-2	1680	-3392	16904	30	-13	10	-2464	6576	14656	-20	13	-30	-13904	7088	7240	-3	1	15	464	2296	16704	3	-21	25	128	139	12
-4592	-7084	14368	10	-15	-20	-12824	-7280	6784	-7	-4	-2	1544	-3504	16720	21	-5	12	-2272	6352	14416	-3	14	-25	-13592	6624	7336	2	-5	15	472	2312	16488	10	-20	23	127	139	12
-4576	-7192	14212	2	-9	-20	-12520	-7176	6664	7	-1	6	1712	-3544	16552	24	5	7	-2512	6792	14520	-8	13	-24	-13376	6872	7424	25	-8	17	664	2352	17080	8	-22	18	128	139	12
-4732	-7452	14244	21	-15	-21	-12608	-7400	6880	3	-6	1	1664	-3360	16712	31	0	8	-2432	6360	14600	-17	15	-29	-13544	7032	7584	3	1	16	584	2312	16936	6	-18	20	128	140	12
-4448	-7132	14304	20	-9	-16	-12768	-7264	6784	1	-7	-1	1536	-3352	16488	17	6	2	-2256	6600	14552	-6	14	-22	-13648	6712	7360	8	-7	19	536	2256	16736	12	-11	14	128	139	12
-4672	-7160	14292	9	-20	-24	-12488	-7272	6936	6	-6	1	1744	-3384	16488	21	4	1	-2400	6736	14472	-17	15	-27	-13456	7080	7384	16	-10	18	552	2264	16792	1	-14	16	128	139	12
-4748	-7360	14340	22	-22	-19	-12776	-7304	6624	-7	-6	-6	1568	-3312	16568	25	-2	10	-2432	6360	14360	-10	13	-26	-13728	7000	7048	-3	0	23	456	2480	16960	4	-13	9	128	139	12
-4444	-7076	14380	18	-11	-20	-12768	-7080	7072	-16	-10	-9	1576	-3504	16216	19	5	9	-2352	6472	14432	-8	15	-23	-13496	6744	7616	21	-11	15	520	2384	16856	6	-13	13	129	138	12
-4728	-7300	14364	7	-9	-23	-12472	-7368	6520	-8	-10	-5	1488	-3464	16536	32	-1	8	-2296	6456	14512	-5	14	-20	-13680	7016	7256	24	-14	19	552	2464	16896	8	-19	19	128	138	12
-4616	-7196	14232	14	-15	-20	-12808	-7464	6960	-11	-6	-10	1624	-3384	16792	23	-2	10	-2432	6440	14504	-14	12	-27	-13656	7056	7504	2	-1	17	600	2424	16744	11	-19	18	128	138	12
-4400	-7068	14400	5	-13	-24	-12624	-7208	7000	0	-10	-2	1640	-3544	16592	18	5	4	-2416	6568	14456	-10	16	-24	-13592	6872	7328	14	-5	15	608	2384	16736	7	-24	22	128	138	12
-4796	-7300	14372	7	-12	-23	-12576	-7328	6776	12	-5	-2	1616	-3440	16792	28	1	7	-2568	6480	14432	-24	18	-29	-13632	7160	7616	-1	8	8	696	2464	17008	0	-23	21	128	139	12
-4608	-7232	14372	13	-12	-15	-12944	-7384	6720	-3	-3	-8	1528	-3528	16720	14	-1	5	-2264	6312	14744	-11	16	-27	-13776	6904	7512	-9	6	7	488	2352	16592	-3	-20	24	128	138	12
-4496	-7072	14312	2	-5	-23	-12520	-7312	6920	4	-1	0	1712	-3552	16248	13	1	9	-2392	6640	14536	-13	22	-26	-13360	6888	7480	18	-1	9	672	2344	16648	2	-17	22	128	138	12
-4820	-7432	14236	2	-9	-22	-12672	-7416	6576	-1	2	-3	1632	-3472	16736	20	-1	10	-2456	6568	14344	-22	21	-30	-13680	6936	7272	3	4	15	496	2296	16704	-4	-13	24	129	139	12
-4572	-7164	14416	10	-11	-18	-13024	-7144	6864	-20	0	-6	1552	-3456	16304	14	-4	13	-2216	6296	14584	-10	17	-25	-13616	6632	7304	0	4	12	448	2312	16576	6	-13	22	128	139	12
-4604	-7128	14380	3	-10	-25	-12368	-7272	6632	-2	-4	-3	1584	-3664	16040	20	4	8	-2352	6768	14568	-13	19	-25	-13584	6968	7368	19	-6	16	592	2120	16616	9	-10	19	128	139	12
-4736	-7500	14312	6	-12	-23	-12624	-7552	6768	-6	-5	-4	1472	-3560	16608	27	-1	6	-2576	6632	14680	-20	15	-25	-13664	6832	7264	0	1	21	456	2376	16712	3	-17	23	128	139	12
-4420	-7232	14296	15	-19	-19	-12712	-7376	6848	-4	-5	-6	1568	-3600	16416	22	4	2	-2280	6496	14400	-3	16	-21	-13520	6736	7216	8	-5	18	592	2176	16440	10	-14	18	127	138	12
-4588	-7224	14224	4	-12	-18	-12464	-7424	6568	10	0	-1	1760	-3360	16392	26	5	4	-2528	6696	14456	-6	17	-24	-13608	6968	7392	22	-12	22	648	2248	16736	10	-12	16	128	139	12
-4636	-7288	14236	17	-14	-16	-12832	-7400	6856	-7	-9	-4	1632	-3520	16608	28	2	7	-2464	6432	14680	-8	15	-20	-13680	6872	7304	8	1	31	568	2320	16624	12	-8	14	127	140	12
-4408	-7100	14308	16	-10	-20	-12744	-7264	6952	-8	-6	3	1744	-3624	16448	22	-4	8	-2296	6576	14920	3	17	-20	-13552	6712	7360	22	-13	25	592	2392	16792	13	-16	15	128	140	12
-4704	-7364	14380	7	-16	-16	-12584	-7480	6744	8	-5	6	1656	-3424	16632	28	-5	3	-2384	6616	14576	-13	17	-25	-13656	7016	7416	17	-8	29	624	2336	16984	6	-19	14	128	139	12
-4712	-7288	14324	20	-14	-16	-12736	-7328	6648	3	-2	3	1464	-3600	16648	22	-5	4	-2296	6360	14424	-4	13	-22	-13744	7040	7504	12	-9	22	496	2368	16944	7	-18	11	127	139	12
-4488	-7040	14244	21	-12	-16	-12592	-7168	6904	7	-4	8	1672	-3464	16448	16	10	-2	-2200	6600	14600	-3	17	-19	-13624	6848	7480	7	-2	25	760	2448	16784	6	-15	15	128	138	12
-4720	-7372	14160	15	-19	-14	-12624	-7336	6680	18	2	11	1672	-3248	16448	18	1	-1	-2520	6720	14632	-15	18	-22	-13608	7064	7576	21	-5	22	520	2536	17096	12	-12	16	128	139	12
-4564	-7188	14432	21	-17	-16	-12488	-7392	6712	11	-2	8	1456	-3296	16400	11	-1	3	-2280	6176	14592	-7	19	-26	-13528	6944	7080	-3	3	24	480	2456	16656	11	-9	14	128	139	12
-4492	-7004	14332	14	-14	-20	-12520	-7096	6704	-1	-3	2	1640	-3376	16568	10	7	2	-2472	6672	14328	-10	22	-23	-13336	7000	7240	22	-5	17	528	2520	16696	9	-15	24	128	139	12
-4788	-7344	14412	7	-19	-21	-12704	-7208	6824	-9	-1	-1	1440	-3184	16440	22	0	2	-2360	6504	14632	-19	20	-29	-13720	7120	7272	8	-3	19	464	2288	16576	3	-12	23	128	139	12
-4564	-7112	14448	15	-13	-22	-12928	-7216	6744	-15	-10	-7	1504	-3336	16360	16	-1	1	-2232	6472	14344	-9	19	-25	-13656	6808	7224	2	1	11	488	2480	16488	8	-13	23	128	138	12
-4480	-7092	14348	5	-15	-23	-12616	-7192	6936	-10	-8	-7	1560	-3400	16528	15	-4	5	-2424	6624	14760	-13	16	-18	-13536	7016	7320	15	-7	16	664	2320	16672	7	-17	27	128	139	12
-4764	-7396	14196	7	-16	-21	-12816	-7224	6832	-8	-12	-11	1704	-3448	16880	27	-8	13	-2520	6480	14616	-19	16	-29	-13616	6936	7472	3	-3	19	552	2368	16912	5	-13	20	127	139	12
-4436	-7064	14364	10	-6	-24	-12696	-7200	6880	-4	-6	-13	1504	-3512	16336	23	-4	15	-2216	6440	14384	-5	15	-23	-13512	6688	7304	13	-9	16	744	2416	16656	8	-14	16	127	138	12
-4624	-7268	14256	0	-13	-25	-12472	-7280	6720	9	-5	-11	1568	-3488	16664	29	3	10	-2560	6776	14584	-14	17	-27	-13472	7000	7408	20	-9	19	568	2312	16904	3	-18	19	127	139	12
-4676	-7416	14328	11	-18	-18	-12880	-7480	6880	5	-7	-12	1368	-3416	16800	29	-4	12	-2496	6344	14448	-14	17	-28	-13776	6976	7280	-8	-2	20	368	2464	16904	0	-17	16	127	139	12
-4440	-7024	14404	6	-5	-16	-12768	-7192	7168	6	-3	-2	1776	-3464	16424	20	7	6	-2312	6480	14264	-4	19	-22	-13536	6624	7392	7	-4	12	552	2376	16424	8	-18	16	127	139	12
-4716	-7320	14224	1	-7	-19	-12568	-7432	6728	7	1	-1	1592	-3408	16448	27	3	9	-2496	6672	14408	-17	19	-26	-13504	7008	7176	13	-4	16	536	2320	16936	1	-22	14	127	139	12
-4640	-7336	14412	14	-22	-20	-12768	-7408	6936	-13	-6	-3	1592	-3200	16560	13	-5	5	-2312	6464	14480	-10	26	-23	-13696	6976	7256	-3	1	17	592	2360	16624	5	-21	11	127	139	12
-4420	-6952	14328	7	-8	-15	-12688	-7120	6808	-10	-2	3	1584	-3584	16416	9	0	-1	-2328	6664	14600	-5	27	-26	-13632	6832	7336	24	-15	17	456	2480	16584	5	-18	10	128	138	12
-4760	-7424	14244	-3	-13	-20	-12616	-7280	6816	-2	-1	2	1624	-3344	16800	20	-5	0	-2416	6584	14672	-12	21	-30	-13632	7120	7288	9	-11	20	544	2432	16808	2	-21	16	128	138	12
-4576	-7168	14420	5	-21	-15	-12928	-7248	6848	-10	-8	-7	1416	-3424	16512	9	-1	1	-2272	6416	14664	-6	16	-25	-13568	6816	7384	-5	-2	15	512	2328	16872	7	-18	14	128	139	12
-4492	-7020	14340	-6	-7	-21	-12472	-7000	6880	-3	-2	7	1672	-3424	16224	18	3	3	-2232	6344	14672	-6	16	-23	-13392	6816	7096	16	-9	17	680	2272	16904	8	-19	20	128	139	12
-4736	-7340	14272	-2	-17	-23	-12584	-7344	6816	1	-2	-3	1592	-3352	16496	23	1	8	-2576	6384	14456	-20	16	-26	-13656	7000	7496	5	-6	17	640	2328	16720	3	-19	19	127	139	12
-4480	-7156	14444	10	-10	-21	-12752	-7240	6856	-4	-10	-10	1536	-3416	16472	21	5	13	-2288	6464	14392	-8	14	-24	-13656	6880	7304	14	-4	20	496	2376	16760	8	-14	15	128	138	12
-4552	-7108	14356	4	-11	-24	-12544	-7320	6904	8	-4	1	1592	-3512	16376	26	-2	10	-2472	6728	14656	-10	13	-23	-13496	7000	7424	22	-10	19	368	2432	16912	5	-15	21	128	139	12
-4752	-7452	14232	12	-12	-22	-12912	-7456	6656	3	-4	-12	1568	-3440	16632	34	-10	13	-2416	6488	14624	-13	13	-25	-13520	6976	7360	17	-10	18	496	2400	16840	3	-19	20	128	139	12
-4488	-7048	14276	13	-12	-20	-12832	-7176	7016	4	-1	-6	1640	-3640	16416	18	-2	10	-2368	6352	14352	2	14	-20	-13440	6696	6984	-4	0	13	488	2280	16472	4	-10	19	128	138	12
-4720	-7208	14208	5	-9	-25	-12584	-7248	6856	-3	-7	0	1856	-3584	16488	26	5	8	-2488	6608	14400	-13	16	-27	-13528	6944	7280	23	-7	21	592	2232	16888	7	-14	20	128	139	12
-4720	-7420	14360	19	-14	-24	-12728	-7472	6752	-2	-7	-6	1576	-3472	16600	22	-1	4	-2544	6520	14768	-15	13	-26	-13816	6888	7424	6	-6	22	488	2384	16920	2	-12	16	128	140	12
-4412	-7072	14364	19	-14	-16	-12808	-7312	7224	-7	-1	-5	1680	-3488	16504	14	4	3	-2336	6632	14408	-9	17	-22	-13464	6680	7272	26	-11	23	576	2368	16712	4	-18	15	128	140	12
-4744	-7324	14372	14	-16	-17	-12592	-7384	7016	3	6	1	1720	-3544	16728	25	0	2	-2488	6640	14408	-19	15	-25	-13504	7152	7368	22	-8	22	552	2448	16992	0	-19	15	128	139	12
-4708	-7184	14396	20	-10	-16	-12568	-7312	6968	2	-2	-1	1600	-3536	16632	22	-1	1	-2360	6480	14616	-11	13	-21	-13632	6904	7312	-6	5	18	592	2480	17128	1	-18	11	127	139	12
-4376	-6924	14328	12	-9	-15	-12584	-7280	6768	-4	1	-1	1640	-3376	16400	15	7	3	-2480	6624	14584	-3	17	-24	-13408	6992	7280	9	-1	18	592	2480	16792	12	-13	17	128	138	12
-4688	-7352	14268	8	-11	-21	-12496	-7248	6856	1	2	2	1552	-3480	16720	26	-1	6	-2536	6512	14472	-15	18	-25	-13680	7112	7472	1	-6	23	512	2376	16784	7	-15	25	128	138	12
-4572	-7220	14208	18	-15	-15	-12768	-7152	6632	5	-2	0	1448	-3424	16376	19	0	6	-2288	6440	14592	-11	15	-21	-13576	6944	7080	4	-3	17	512	2328	16792	12	-15	24	128	139	12
-4496	-7052	14328	7	-9	-22	-12520	-7152	6768	4	-9	-5	1608	-3448	16784	20	3	7	-2424	6784	14376	-14	19	-23	-13464	6792	7296	22	-9	17	584	2296	16672	7	-18	20	128	139	12
-4756	-7352	14348	8	-14	-16	-12744	-7336	6872	3	-6	-10	1600	-3344	16592	33	-1	12	-2480	6640	14744	-21	17	-25	-13752	7032	7320	4	-5	13	456	2280	16800	1	-16	22	128	139	12
-4496	-7120	14364	10	-11	-21	-12904	-7256	7096	-9	-8	-12	1496	-3544	16560	23	1	13	-2256	6352	14552	-3	17	-27	-13656	6720	7312	3	-1	18	536	2312	16672	3	-13	18	128	139	12
-4512	-7108	14380	0	-4	-26	-12496	-7152	6904	-3	-5	-3	1792	-3480	16416	26	3	9	-2376	6600	14672	-12	16	-22	-13432	6776	7424	24	-7	19	520	2456	16696	2	-15	12	127	139	12
-4788	-7496	14352	8	-21	-20	-12608	-7488	7040	-6	-5	-12	1528	-3216	16736	26	-4	8	-2480	6512	14568	-16	20	-25	-13688	7064	7176	0	-5	23	520	2608	16600	7	-16	13	128	139	12
-4560	-7112	14464	10	-11	-17	-12864	-7192	6808	-10	-4	-5	1472	-3424	16592	14	0	4	-2256	6448	14640	-5	18	-25	-13616	6888	7416	0	-4	16	600	2432	16712	2	-18	12	129	138	12
-4672	-7128	14300	-1	-8	-23	-12664	-7312	6680	-1	-4	3	1584	-3504	16720	19	0	4	-2376	6640	14424	-11	17	-25	-13424	7032	7280	12	-5	14	640	2416	16896	1	-16	17	129	139	12
-4632	-7364	14356	12	-14	-20	-12768	-7416	7056	-5	-5	-7	1488	-3472	16856	21	-6	11	-2432	6296	14528	-17	19	-25	-13544	6848	7136	-10	-2	17	408	2336	16808	4	-22	11	128	139	12
-4424	-7080	14392	7	-7	-22	-12720	-7216	6808	-11	-2	-2	1624	-3520	16312	14	2	10	-2344	6384	14304	-7	17	-21	-13496	6896	7392	18	-9	13	680	2264	16464	7	-21	16	129	139	12
-4712	-7348	14336	-7	-11	-23	-12432	-7408	6656	8	-2	3	1552	-3480	16432	25	-3	5	-2528	6512	14344	-15	18	-26	-13520	6960	7424	23	-9	20	408	2392	16848	3	-21	17	128	139	12
-4668	-7268	14216	13	-19	-16	-12768	-7296	6896	-4	-5	-7	1696	-3376	16456	17	-3	8	-2464	6440	14552	-12	15	-26	-13776	6896	7208	3	3	17	592	2392	16760	5	-17	16	128	139	12
-4424	-7064	14464	11	-12	-15	-12768	-7248	6872	-5	-6	0	1656	-3376	16600	15	-4	6	-2352	6544	14448	-9	18	-22	-13472	6856	7360	17	-6	16	656	2304	16584	6	-20	18	128	139	12
-4720	-7412	14400	9	-13	-23	-12616	-7256	6920	3	-1	-5	1656	-3384	16744	24	-5	4	-2448	6512	14512	-17	13	-22	-13792	6936	7256	0	-6	18	528	2328	16888	5	-19	18	128	138	12
-4636	-7252	14464	14	-12	-18	-12880	-7464	7000	-9	-7	-5	1432	-3360	16656	20	-3	7	-2384	6304	14456	-10	13	-22	-13608	6848	7296	-3	-4	17	488	2272	16664	5	-14	15	128	138	12
-4524	-6976	14280	7	-3	-19	-12504	-7160	6960	2	-6	0	1672	-3544	16096	20	1	6	-2312	6624	14280	-6	14	-21	-13376	6824	7264	18	-11	15	720	2208	16784	8	-13	16	128	139	12
-4820	-7476	14260	4	-16	-19	-12712	-7504	6592	5	-5	-8	1584	-3472	16664	27	-2	12	-2480	6592	14376	-22	19	-31	-13584	7016	7160	9	-2	25	432	2392	16760	6	-14	14	127	139	12
-4668	-7148	14396	16	-20	-13	-12840	-7240	6864	-9	-7	-8	1448	-3680	16784	18	-7	12	-2440	6568	14520	-18	16	-25	-13800	6824	7200	0	-2	19	424	2336	16720	10	-20	17	127	139	12
-4516	-7096	14372	2	-6	-20	-12688	-7176	6600	13	-2	-3	1744	-3640	16608	27	-1	8	-2376	6720	14216	-8	15	-25	-13392	6944	7448	25	-6	18	576	2280	16776	2	-20	21	128	139	12
-4784	-7452	14392	10	-12	-18	-12728	-7432	6600	4	-2	-8	1640	-3432	16888	35	-6	8	-2352	6456	14552	-19	20	-24	-13696	7072	7568	1	-3	21	520	2520	16552	4	-19	20	128	139	12
-4472	-7076	14268	14	-7	-18	-12712	-7240	6888	-4	-6	-3	1584	-3448	16376	25	3	9	-2184	6472	14568	-6	14	-18	-13440	6744	7376	7	-6	15	728	2312	16680	12	-14	21	127	138	12
-4512	-7156	14376	3	-10	-22	-12568	-7208	6824	4	-4	-4	1824	-3472	16528	26	8	8	-2528	6624	14744	-12	10	-23	-13408	7048	7272	17	-13	20	512	2312	16984	9	-13	17	127	138	12
-4756	-7424	14256	15	-17	-18	-12720	-7432	6784	-6	-9	-10	1448	-3544	16496	24	-4	10	-2560	6400	14424	-13	17	-25	-13872	6864	7232	0	-3	21	400	2400	16792	13	-12	20	127	139	12
-4372	-7068	14404	11	-12	-21	-12680	-7368	6928	-7	-5	-2	1608	-3568	16432	13	-8	0	-2248	6576	14656	-2	17	-19	-13568	6728	7376	19	-11	19	584	2400	16584	11	-21	14	127	140	12
-4624	-7336	14304	5	-13	-20	-12728	-7304	6696	3	-4	5	1656	-3392	16736	23	-5	-1	-2416	6760	14736	-13	19	-26	-13552	7024	7336	18	-10	19	672	2464	16608	1	-27	13	128	140	12
-4628	-7300	14356	15	-9	-17	-12672	-7320	7072	0	0	-3	1632	-3288	16472	12	0	2	-2416	6288	14688	-10	21	-25	-13552	6960	7288	-6	-3	18	656	2376	16728	-3	-23	9	127	140	12
-4344	-6984	14464	5	-15	-19	-12552	-7096	6664	5	-2	-3	1800	-3576	16712	4	6	5	-2208	6392	14464	-4	23	-23	-13392	6824	7696	14	-6	15	784	2376	16496	3	-16	8	128	139	12
-4660	-7404	14344	-3	-15	-28	-12416	-7176	6856	13	4	-4	1584	-3384	16432	13	12	8	-2664	6592	14584	-18	23	-29	-13632	7056	7592	7	-5	25	536	2280	16968	1	-14	11	127	139	12
-4820	-7416	14200	-7	-13	-16	-12760	-7144	7088	0	-4	-12	1480	-3416	16568	13	3	9	-2360	6416	14608	-13	19	-26	-13664	6896	7472	-11	2	15	400	2296	16792	4	-16	19	127	139	12
-4484	-7020	14328	-8	-11	-21	-12584	-7016	6808	3	1	-7	1552	-3536	16480	16	-2	8	-2496	6680	14472	-5	16	-24	-13280	6704	7184	9	-3	12	744	2336	17112	2	-17	24	128	139	12
-4744	-7436	14320	-6	-13	-23	-12568	-7216	6640	3	0	-12	1552	-3640	16608	35	-12	14	-2536	6608	14640	-23	16	-28	-13616	7024	7424	-2	6	10	520	2272	16688	1	-22	29	128	139	12
-4624	-7152	14368	7	-16	-17	-12784	-7296	6768	-20	-6	-11	1584	-3632	16504	27	-10	22	-2328	6232	14496	-15	14	-25	-13568	6616	7200	-3	5	13	576	2240	16808	-1	-18	29	128	139	12
-4448	-7036	14216	0	-5	-25	-12624	-7376	6824	-8	-9	-6	1656	-3624	16592	27	-10	17	-2520	6736	14512	-12	11	-26	-13456	6872	7272	29	-9	14	456	2208	16704	5	-19	26	128	138	12
-4800	-7500	14204	8	-11	-22	-12648	-7576	6720	3	-6	-8	1472	-3664	16728	36	0	13	-2592	6520	14528	-18	15	-28	-13760	6816	7408	16	-4	23	536	2288	16968	8	-14	18	128	138	12
-4548	-7116	14340	21	-15	-18	-12880	-7352	6848	-4	-1	-8	1552	-3712	16672	26	2	7	-2256	6440	14504	-1	14	-20	-13672	6736	7216	17	-8	22	552	2368	16744	10	-14	18	127	138	12
-4608	-7168	14412	8	-11	-19	-12688	-7264	6648	12	-1	-2	1688	-3408	16552	28	7	8	-2592	6720	14800	-9	13	-22	-13624	6848	7256	20	-10	23	600	2128	16704	12	-19	17	127	138	12
-4712	-7476	14316	22	-13	-22	-12888	-7384	6752	-4	-7	-9	1544	-3440	16688	33	4	9	-2448	6480	14680	-12	14	-23	-13720	7112	7208	-5	-7	24	312	2424	16792	3	-18	14	127	138	12
-4540	-7124	14464	19	-10	-17	-12760	-7400	6824	-1	-6	-2	1632	-3528	16688	17	-1	1	-2232	6464	14448	1	15	-20	-13592	6928	7408	7	-7	24	656	2344	16696	13	-17	14	127	139	12
-4664	-7228	14304	8	-15	-19	-12360	-7192	6768	8	-7	11	1800	-3272	16832	24	6	-1	-2512	6800	14456	-8	9	-18	-13424	7072	7480	23	-12	23	584	2496	16792	10	-20	16	127	139	12
-4708	-7308	14332	19	-25	-14	-12784	-7272	6824	-6	-9	-3	1680	-3248	16744	20	-4	3	-2400	6784	14536	-11	14	-21	-13632	6920	7416	4	-2	20	432	2432	16608	11	-19	13	128	139	12
-4440	-7032	14300	15	-18	-18	-12776	-7072	6896	-10	-6	-5	1584	-3336	16592	17	-2	7	-2312	6480	14720	-4	15	-25	-13360	6984	7360	19	-5	17	504	2448	16664	7	-18	14	128	139	12
-4704	-7256	14296	4	-10	-19	-12568	-7304	6696	2	-1	-1	1528	-3432	16536	27	0	11	-2552	6552	14760	-15	15	-28	-13648	7104	7656	19	-6	18	488	2584	16944	2	-20	22	128	139	12
-4656	-7244	14372	14	-14	-20	-12960	-7120	7128	-10	-7	-8	1536	-3264	16552	23	-3	12	-2376	6392	14744	-14	13	-22	-13456	6752	7296	-3	4	16	376	2440	16656	2	-14	21	127	139	12
-4428	-7000	14336	3	-11	-25	-12576	-7192	6728	-5	-3	-6	1584	-3304	16544	18	-1	10	-2512	6592	14280	-12	20	-22	-13312	6856	7480	22	-2	11	736	2256	16800	8	-18	21	127	138	12
-4716	-7412	14364	0	-8	-23	-12488	-7432	6824	5	-3	-13	1608	-3208	16560	25	-1	11	-2496	6504	14584	-20	20	-31	-13704	7088	7352	3	-1	13	512	2344	16736	6	-18	21	128	139	12
-4492	-7144	14344	10	-10	-17	-12960	-7248	6800	0	-2	-10	1608	-3536	16392	11	-5	11	-2304	6368	14512	-10	14	-27	-13488	6920	7264	-3	3	12	464	2352	16632	4	-20	13	128	139	12
-4436	-7120	14388	-6	-7	-26	-12560	-7368	6808	8	-3	-8	1672	-3584	16656	13	4	2	-2440	6600	14624	-16	14	-25	-13568	6800	7616	2	0	11	552	2440	17096	0	-21	20	128	139	12
-4848	-7548	14244	1	-15	-24	-12680	-7480	6880	0	-2	-13	1632	-3480	16792	25	-5	8	-2440	6520	14328	-23	17	-32	-13968	6984	7272	-2	-3	10	688	2368	16808	-8	-23	16	128	139	12
-4544	-7136	14360	2	-5	-20	-12720	-7336	6848	-13	-5	-13	1616	-3664	16608	13	-2	10	-2112	6544	14496	-10	21	-28	-13496	6736	7176	3	-4	12	680	2280	16560	-1	-22	15	127	140	12
-4636	-7116	14188	-4	1	-20	-12352	-7304	6712	-9	-3	-5	1584	-3504	16680	9	-4	9	-2424	6848	14416	-17	13	-18	-13408	7024	7232	24	-13	15	544	2424	16664	5	-18	15	127	139	12
-4760	-7556	14380	12	-18	-20	-12824	-7632	6888	-16	-6	-4	1424	-3536	16664	21	-9	9	-2528	6464	14744	-14	19	-29	-13728	6840	7320	-1	1	18	552	2256	16944	8	-14	17	127	140	12
-4508	-7136	14440	14	-14	-18	-12848	-7320	6720	-7	-8	-3	1624	-3720	16376	12	-2	6	-2128	6488	14528	-3	14	-26	-13576	6824	7488	10	-4	17	520	2312	16944	15	-17	22	127	138	12
-4700	-7268	14324	6	-7	-20	-12472	-7344	6736	13	0	3	1560	-3536	16848	30	4	1	-2488	6680	14456	-12	19	-24	-13480	7200	7384	12	-5	21	576	2232	16712	9	-18	22	127	138	12
-4696	-7320	14324	18	-15	-14	-12840	-7416	7024	4	-7	-4	1568	-3488	16608	29	-2	10	-2536	6392	14560	-11	15	-24	-13784	6872	7488	-6	2	23	360	2056	16840	14	-17	20	127	138	12
-4376	-7040	14320	16	-11	-15	-12640	-7144	6984	-3	-7	2	1704	-3424	16336	23	4	5	-2336	6472	14472	-1	18	-19	-13504	6808	7272	21	-4	21	640	2272	16768	15	-17	16	127	140	12
-4704	-7312	14280	8	-15	-23	-12440	-7368	6944	4	-7	8	1560	-3600	16592	36	-2	8	-2536	6696	14432	-15	17	-17	-13624	7032	7456	30	-16	27	568	2424	16792	10	-16	13	128	139	12
-4644	-7312	14372	18	-18	-14	-12816	-7344	6680	0	-5	-1	1488	-3424	16560	23	0	8	-2496	6496	14480	1	14	-18	-13728	6960	7264	13	-8	32	496	2384	16736	16	-18	13	128	139	12
-4436	-7024	14304	12	-14	-19	-12704	-7216	7096	4	-7	-3	1584	-3448	16376	22	-2	2	-2384	6656	14544	-1	17	-23	-13400	6872	7464	23	-10	21	576	2584	16616	14	-16	13	128	137	12
-4796	-7356	14440	5	-17	-17	-12728	-7160	6768	11	-7	6	1720	-3264	16648	35	-2	0	-2544	6544	14584	-13	13	-24	-13672	7112	7432	-2	-4	21	512	2480	16832	0	-22	15	128	138	12
-4596	-7192	14328	13	-13	-16	-12896	-7160	6720	-12	-5	-6	1504	-3376	16768	23	-4	7	-2416	6360	14464	-8	13	-20	-13544	6784	7328	-6	-3	16	440	2464	16560	4	-20	19	127	139	12
-4444	-6988	14396	3	-8	-24	-12504	-7048	6792	-15	-3	1	1872	-3360	16472	22	0	7	-2352	6552	14392	-9	18	-25	-13424	6864	7488	25	-7	15	640	2504	16784	5	-16	18	128	138	12
-4744	-7460	14236	4	-13	-21	-12528	-7336	6856	-11	-1	-9	1576	-3128	16592	26	-5	7	-2448	6624	14600	-19	17	-26	-13592	7240	7688	5	-2	17	456	2504	17000	2	-17	19	128	138	12
-4512	-7108	14468	8	-11	-21	-12888	-7280	6976	-8	-1	-11	1264	-3512	16704	13	-2	13	-2176	6464	14616	-10	23	-26	-13504	6768	7288	1	-2	12	456	2504	16552	2	-13	20	128	138	12
-4568	-7032	14400	0	-11	-26	-12592	-7072	6744	4	1	-6	1608	-3344	16592	22	-2	9	-2536	6552	14480	-16	19	-22	-13504	7144	7416	20	-5	10	608	2424	16992	6	-18	21	128	139	12
-4768	-7504	14212	6	-18	-25	-12672	-7504	6864	-4	-6	-10	1496	-3384	16600	23	-6	12	-2424	6352	14640	-21	19	-26	-13704	7016	7192	-9	8	13	536	2408	17152	-2	-21	19	128	138	12
-4468	-7108	14488	5	-13	-22	-12736	-7248	6648	-10	-2	-4	1480	-3504	16456	12	5	8	-2424	6552	14624	-6	22	-26	-13552	6672	7544	4	0	11	688	2456	16328	6	-21	15	128	139	12
-4636	-7244	14216	-1	-8	-24	-12624	-7280	6752	7	1	-5	1712	-3528	16392	24	-3	6	-2416	6608	14512	-9	26	-27	-13432	6928	7400	13	-4	15	528	2288	16800	-3	-20	17	128	139	12
-4716	-7400	14340	9	-14	-22	-12752	-7344	6776	0	-4	-10	1584	-3456	16856	16	-6	7	-2432	6440	14544	-16	24	-27	-13744	6720	7392	1	1	20	504	2136	16736	2	-19	11	128	139	12
-4424	-7056	14448	3	-23	-20	-12880	-7448	6864	0	-5	-11	1680	-3552	16512	14	0	6	-2336	6424	14368	-8	24	-24	-13472	6872	7176	15	-9	15	576	2384	16664	7	-20	15	128	138	12
-4760	-7264	14340	-9	-13	-20	-12584	-7376	6520	2	-3	0	1640	-3448	16648	27	-1	4	-2464	6568	14624	-16	14	-29	-13608	6944	7392	11	-3	19	472	2288	17032	2	-22	17	128	138	12
-4664	-7304	14308	2	-20	-20	-12944	-7424	7184	-12	-2	-1	1496	-3616	16544	23	-6	6	-2312	6328	14496	-9	17	-22	-13856	6832	7232	-2	2	20	344	2336	16776	5	-17	18	128	140	12
-4400	-7012	14332	2	-10	-19	-12744	-7280	6776	-2	-3	4	1688	-3576	16624	19	-1	3	-2480	6584	14432	-2	15	-19	-13464	6832	7488	21	-9	12	768	2304	16840	7	-17	17	128	138	12
-4780	-7428	14160	3	-10	-22	-12440	-7344	6816	8	-6	4	1656	-3400	16336	26	3	4	-2464	6632	14512	-14	15	-25	-13816	6984	7272	13	-3	22	440	2208	16952	10	-13	20	128	138	12
-4596	-7252	14372	21	-20	-14	-12872	-7240	6792	0	-5	1	1496	-3432	16712	20	-3	9	-2336	6232	14552	-12	11	-24	-13664	6896	7400	-1	0	23	432	2280	16584	14	-15	19	128	139	12
-4432	-7064	14348	13	-16	-18	-12688	-7096	6776	5	-2	2	1688	-3432	16200	20	7	7	-2416	6768	14424	-6	16	-22	-13568	7064	7504	18	-8	21	528	2264	16744	11	-17	19	128	139	12
-4752	-7428	14332	13	-13	-22	-12648	-7240	6856	6	-6	0	1528	-3384	16688	35	2	8	-2392	6456	14536	-17	13	-25	-13824	7000	7312	1	-6	22	472	2400	16768	-3	-16	21	127	139	12
-4816	-7520	14268	13	-14	-17	-12824	-7112	6696	-9	-12	-6	1616	-3408	16568	19	-1	6	-2272	6312	14568	-1	17	-22	-13624	6968	7000	3	-4	20	584	2472	16304	8	-20	16	127	138	12
-4492	-7104	14244	8	-10	-22	-12504	-7144	6720	-6	-4	-3	1608	-3504	16680	25	2	4	-2464	6752	14544	-11	16	-26	-13536	6960	7576	28	-13	20	584	2528	16648	7	-13	15	128	139	12
-4676	-7396	14264	13	-18	-21	-12536	-7208	6648	-6	-6	-5	1608	-3416	16976	28	-3	9	-2400	6440	14288	-16	16	-25	-13616	7064	7304	2	-3	20	640	2592	16952	3	-15	17	128	139	12
-4420	-7092	14296	17	-16	-22	-12768	-7200	6968	-13	-8	-16	1616	-3456	16672	17	-1	10	-2384	6496	14448	-8	13	-26	-13648	6800	7304	4	-5	12	520	2360	16616	6	-13	19	127	139	12
-4668	-7288	14356	1	-9	-25	-12536	-7256	6896	2	-5	-6	1592	-3344	16968	28	3	5	-2448	6672	14528	-22	15	-28	-13816	7064	7424	11	-6	19	528	2376	16896	-2	-18	18	128	139	12
-4744	-7352	14388	11	-15	-20	-12960	-7368	6792	0	-5	-11	1528	-3376	16856	24	-8	5	-2496	6336	14568	-15	17	-31	-13880	6976	7288	-8	1	13	488	2368	16576	0	-17	17	128	139	12
-4456	-7040	14320	9	-7	-19	-12600	-7216	6944	-6	-4	-5	1616	-3608	16368	9	-2	3	-2272	6544	14448	-7	21	-26	-13464	6784	7600	13	-1	8	592	2240	16784	5	-19	21	127	138	12
-4680	-7368	14260	1	-6	-24	-12400	-7376	6768	3	-1	-4	1824	-3488	16528	22	-4	7	-2576	6768	14720	-20	16	-28	-13408	6968	7416	9	-4	11	696	2376	16856	6	-20	26	127	139	12
-4700	-7252	14348	15	-18	-16	-12664	-7504	6800	-2	-3	-11	1624	-3536	16936	18	-4	11	-2368	6472	14616	-18	22	-25	-13672	6808	7216	-11	-1	17	504	2400	16840	8	-16	19	127	139	12
-4604	-7208	14280	13	-16	-15	-12768	-7208	6872	1	-4	-1	1552	-3560	16488	11	0	4	-2400	6656	14408	-10	21	-22	-13520	6944	7424	11	-4	14	632	2280	16576	11	-14	21	128	138	12
-4740	-7368	14268	6	-15	-19	-12576	-7400	6664	6	-2	-4	1584	-3408	16704	28	-4	5	-2592	6584	14400	-12	20	-26	-13640	7048	7472	9	-5	20	432	2288	16968	2	-22	19	127	138	12
-4584	-7248	14328	15	-11	-19	-12872	-7448	7000	-14	-9	-9	1472	-3472	16624	20	2	7	-2304	6368	14656	-2	16	-23	-13648	6712	7216	3	-6	16	512	2256	16680	9	-16	13	127	140	12
-4408	-7016	14344	8	-16	-21	-12600	-7272	7032	4	-7	1	1656	-3392	16432	22	1	1	-2400	6520	14584	-5	14	-21	-13568	6888	7296	31	-16	20	704	2240	16792	6	-14	13	127	139	12
-4740	-7412	14232	7	-14	-18	-12640	-7544	6872	8	-1	-1	1712	-3320	16952	26	-6	3	-2488	6512	14432	-11	15	-24	-13640	7048	7280	10	-13	25	600	2368	16696	2	-16	13	127	139	12
-4564	-7176	14516	17	-16	-20	-12856	-7272	6664	0	-8	-10	1552	-3472	16712	18	2	5	-2376	6456	14568	-3	14	-21	-13632	6936	7592	6	-3	22	424	2528	16488	9	-21	12	127	139	12
-4500	-7076	14344	6	-11	-20	-12592	-7200	6744	7	0	-1	1776	-3592	16528	22	0	7	-2400	6696	14736	-7	12	-23	-13472	7176	7456	23	-11	18	616	2328	16848	10	-17	14	127	139	12
-4796	-7460	14344	11	-15	-21	-12800	-7320	6904	-6	-2	-7	1496	-3336	16704	32	-7	13	-2656	6392	14616	-16	18	-24	-13768	6856	7168	-6	-4	20	368	2584	16872	6	-19	17	128	138	12
-4520	-7108	14436	13	-10	-20	-12704	-7176	6856	-9	-4	-5	1528	-3504	16488	21	-3	8	-2168	6416	14328	0	19	-25	-13440	6752	7280	8	-4	13	712	2392	16664	6	-19	16	127	139	12
-4572	-7084	14304	1	-8	-22	-12448	-7304	6880	5	1	-2	1672	-3432	16416	24	4	7	-2472	6696	14400	-12	17	-26	-13456	6992	7504	22	-1	17	576	2424	16496	5	-15	21	127	138	12
-4744	-7436	14276	13	-10	-25	-12864	-7400	6720	1	-6	-6	1480	-3288	16736	27	-3	11	-2352	6488	14528	-17	18	-30	-13696	7112	7368	4	-3	19	528	2416	16592	6	-16	18	127	138	12
-4396	-7124	14328	9	-10	-18	-12888	-7296	6624	3	-2	-9	1464	-3344	16488	15	3	8	-2248	6464	14400	-8	18	-22	-13568	6984	7160	6	-3	15	448	2280	16648	4	-15	20	127	138	12
-4664	-7292	14248	1	-7	-22	-12520	-7352	6856	7	-2	-2	1680	-3448	16736	24	-3	4	-2536	6592	14520	-18	16	-25	-13640	7040	7056	13	-8	17	448	2312	16912	0	-20	22	127	139	12
-4744	-7368	14360	14	-16	-20	-12928	-7328	6776	1	-3	-8	1480	-3440	16608	19	-4	0	-2368	6392	14664	-14	14	-23	-13616	6928	7232	-2	5	17	488	2416	16416	0	-16	16	128	138	12
-4432	-7032	14332	9	-11	-20	-12688	-7256	6904	-4	-8	-3	1424	-3400	16432	11	6	3	-2272	6536	14432	-6	19	-23	-13464	6744	7280	23	-11	11	536	2312	16704	4	-17	10	128	138	12
-4656	-7316	14132	9	-19	-21	-12560	-7328	6896	2	-8	0	1536	-3200	16688	23	1	3	-2456	6616	14632	-16	19	-22	-13672	7008	7104	14	-11	22	656	2344	16760	2	-20	10	128	138	12
-4628	-7252	14352	21	-15	-19	-12808	-7240	6904	-10	-8	-11	1616	-3512	16648	16	1	7	-2360	6176	14416	-10	15	-27	-13560	6856	7312	1	-8	19	512	2328	16608	9	-18	13	128	139	12
-4528	-7080	14432	9	-12	-23	-12560	-7240	6792	-3	-7	-3	1544	-3528	16544	18	4	3	-2528	6600	14552	-7	13	-21	-13552	6896	7448	15	-7	16	552	2328	16776	1	-19	14	128	137	12
-4812	-7392	14356	8	-14	-18	-12592	-7552	6576	5	-7	-9	1504	-3520	16768	34	-1	6	-2480	6576	14680	-16	17	-24	-13696	7024	7672	4	-5	26	384	2256	16936	5	-20	15	127	139	12
-4540	-7160	14384	13	-12	-15	-12896	-7312	7008	-6	-8	-7	1528	-3536	16672	23	-5	7	-2288	6432	14592	-4	14	-22	-13624	6784	7568	8	-7	18	568	2312	16672	14	-15	16	128	138	12
-4484	-7120	14260	8	-10	-21	-12440	-7240	6848	3	-9	-2	1728	-3472	16336	26	-5	1	-2376	6528	14408	-10	15	-23	-13360	6848	7296	24	-10	17	664	2216	16832	8	-22	17	127	138	12
-4780	-7408	14296	11	-17	-18	-12528	-7528	6968	8	-7	-7	1752	-3432	16736	30	-9	5	-2368	6400	14504	-16	20	-25	-13616	6936	7568	6	-4	26	696	2344	16776	7	-14	17	128	139	12
-4468	-7116	14332	11	-12	-21	-12648	-7352	7040	-2	-3	-5	1472	-3576	16688	15	1	6	-2280	6536	14512	-7	25	-19	-13432	6768	7488	6	-2	16	568	2328	16768	7	-15	14	128	139	12
-4612	-7164	14472	2	-12	-21	-12648	-7304	6968	6	0	-1	1624	-3416	16600	21	4	11	-2344	6696	14456	-15	27	-27	-13552	6968	7400	10	-1	20	520	2424	16992	2	-12	16	127	138	12
-4648	-7400	14348	4	-20	-17	-12816	-7528	6904	3	-4	-7	1592	-3528	16920	24	-4	11	-2392	6448	14424	-15	23	-26	-13760	6960	7432	-6	0	16	448	2392	16920	8	-9	22	127	139	12
-4344	-7128	14464	0	-14	-18	-12848	-7216	6976	-3	-7	1	1608	-3448	16736	20	2	7	-2432	6608	14352	-8	20	-24	-13648	6928	7144	8	-6	12	592	2248	16536	13	-14	22	128	137	12
-4620	-7260	14276	-3	-13	-19	-12632	-7384	6744	8	-2	3	1472	-3440	16656	29	-4	7	-2544	6688	14536	-14	18	-24	-13464	7080	7376	11	-1	20	584	2288	16960	8	-17	22	127	138	12
-4688	-7260	14396	4	-17	-18	-12688	-7472	6968	1	-6	-2	1536	-3320	16544	28	-10	8	-2376	6664	14584	-14	12	-23	-13776	7000	7144	6	0	15	384	2256	16744	12	-18	20	127	138	12
-4428	-7084	14432	11	-14	-19	-12704	-7256	6632	-7	-6	-1	1584	-3504	16544	20	3	9	-2416	6632	14656	-13	12	-18	-13472	6888	7328	22	-9	20	440	2384	16744	13	-14	18	128	139	12
-4748	-7380	14352	13	-18	-21	-12624	-7392	6968	6	-5	-2	1512	-3352	16744	25	-1	4	-2592	6608	14672	-18	13	-26	-13736	6968	7264	11	-8	23	384	2464	17016	6	-19	16	127	139	12
-4596	-7144	14316	20	-13	-22	-12712	-7272	6976	-3	-3	-7	1544	-3416	16664	24	-6	8	-2344	6360	14576	-6	13	-18	-13728	6744	7448	5	-3	15	640	2448	16816	4	-18	15	128	139	12
-4376	-7056	14320	9	1	-22	-12472	-7176	6832	-9	-2	0	1640	-3304	16384	19	0	3	-2344	6616	14592	-5	15	-23	-13304	6800	7496	25	-11	12	704	2360	16632	1	-19	13	128	139	12
-4692	-7400	14228	12	-12	-23	-12528	-7200	6960	-6	-3	-6	1752	-3344	16904	26	-1	9	-2496	6440	14472	-19	14	-26	-13688	7048	7336	-4	-1	20	552	2312	16912	-3	-19	16	128	139	12
-4576	-7216	14444	19	-12	-19	-12952	-7344	6944	-15	-3	-14	1552	-3424	16552	13	2	10	-2368	6296	14504	-8	16	-26	-13592	6712	7144	-3	1	16	456	2328	16712	1	-14	16	128	139	12
-4500	-7152	14352	7	-7	-28	-12584	-7352	6592	4	-1	-1	1624	-3592	16448	25	4	9	-2392	6576	14576	-12	16	-24	-13568	6984	7424	14	-7	12	584	2224	17016	7	-15	22	128	138	12
-4812	-7440	14340	10	-12	-19	-12784	-7440	6752	4	3	-6	1456	-3376	16776	25	-4	10	-2456	6416	14536	-16	12	-29	-13720	6976	7208	-4	2	16	448	2480	16768	1	-20	24	127	139	12
-4488	-7044	14376	11	-8	-21	-12856	-7208	6832	-5	-6	-3	1608	-3544	16216	19	0	5	-2296	6520	14296	-10	20	-28	-13440	6744	7224	9	-2	16	616	2264	16560	9	-22	21	128	139	12
-4640	-7148	14396	4	-11	-24	-12456	-7160	6648	0	-4	-5	1744	-3392	16600	23	-4	-2	-2352	6736	14376	-16	17	-31	-13560	6904	7304	19	-13	17	616	2352	16688	4	-21	18	127	139	12
-4692	-7364	14256	9	-12	-17	-12824	-7312	6656	-7	-10	-13	1624	-3336	16672	23	-5	8	-2416	6352	14776	-14	17	-30	-13720	7032	7424	1	-3	16	512	2432	16592	3	-21	24	128	139	12
-4348	-7164	14400	9	-10	-21	-12696	-7312	7000	-16	-3	-10	1656	-3488	16384	10	2	6	-2264	6544	14552	-2	17	-23	-13648	6864	7216	8	-9	13	736	2184	16672	5	-15	20	128	139	12
-4724	-7332	14308	6	-8	-24	-12560	-7320	6712	-7	-4	-12	1672	-3424	16704	27	0	9	-2592	6496	14496	-16	21	-29	-13640	7104	7408	2	-8	16	456	2320	16936	-4	-17	14	128	139	12
-4668	-7256	14396	7	-17	-23	-12832	-7464	7184	-6	-5	-6	1480	-3480	16736	20	-4	6	-2432	6280	14504	-8	18	-24	-13688	6688	7256	-7	-1	15	416	2232	16872	6	-19	15	127	139	12
-4584	-7260	14396	11	-8	-19	-12560	-7344	6936	1	0	-5	1664	-3560	16568	20	2	5	-2456	6584	14176	-6	19	-21	-13472	6736	7584	18	-8	16	784	2384	16784	4	-17	13	128	140	12
-4756	-7424	14212	1	-12	-21	-12576	-7432	6664	9	-2	-5	1592	-3536	16488	25	-7	6	-2448	6480	14576	-16	15	-26	-13736	6936	7384	12	-3	24	488	2376	16736	8	-16	13	127	139	12
-4532	-7244	14436	14	-14	-19	-12768	-7320	6680	-1	-5	-7	1624	-3512	16720	18	-3	9	-2152	6368	14792	-9	17	-24	-13672	6864	7520	10	-2	17	416	2368	16928	7	-20	17	127	139	12
-4472	-7088	14372	5	-7	-18	-12520	-7248	6552	10	1	2	1632	-3712	16592	20	4	5	-2408	6672	14616	-7	17	-26	-13528	6888	7352	14	-6	21	656	2264	16576	2	-18	17	127	138	12
-4776	-7464	14316	12	-16	-16	-12672	-7464	6752	6	0	1	1480	-3616	17096	31	-1	10	-2432	6488	14624	-14	18	-28	-13608	7064	7176	0	4	14	472	2200	16904	6	-16	17	128	139	12
-4484	-7164	14452	15	-15	-21	-12808	-7264	6792	-8	-4	0	1504	-3456	16440	20	2	7	-2368	6456	14544	-4	22	-21	-13520	6840	7208	-2	2	17	576	2408	16664	14	-16	19	127	139	12
-4616	-7136	14200	12	-15	-20	-12496	-7208	6960	-7	-5	1	1632	-3416	16688	25	7	5	-2528	6696	14352	-12	18	-23	-13552	6880	7200	17	-11	23	488	2232	16696	14	-13	17	127	139	12
-4676	-7308	14204	21	-15	-16	-12840	-7288	6904	-1	-6	0	1576	-3424	16680	24	-1	7	-2488	6504	14664	-7	14	-26	-13632	7008	7400	13	-1	26	384	2424	16680	13	-21	16	128	139	12
-4396	-7124	14440	13	-14	-23	-12776	-7200	6960	-4	-2	4	1552	-3456	16560	17	1	4	-2352	6648	14448	0	20	-17	-13552	6848	7496	21	-10	22	496	2376	16504	16	-17	17	128	139	12
-4668	-7236	14256	10	-14	-20	-12648	-7128	7008	-5	-4	3	1632	-3384	16368	26	-1	2	-2464	6744	14536	-13	16	-23	-13648	7184	7472	18	-18	28	528	2552	16888	7	-20	13	128	139	12
-4720	-7252	14324	15	-16	-19	-12928	-7240	6736	5	-3	-2	1496	-3272	16664	27	-3	5	-2272	6464	14560	-8	15	-19	-13640	6984	7208	4	-6	24	432	2560	16968	5	-21	11	128	139	12
-4480	-7064	14296	11	-18	-19	-12768	-7128	7000	1	-7	-4	1656	-3400	16552	20	-2	3	-2312	6584	14528	-10	14	-17	-13536	6944	7304	18	-14	18	632	2488	16896	4	-16	12	128	138	12
-4744	-7356	14248	2	-12	-25	-12720	-7352	6640	1	-2	-10	1568	-3352	16880	32	-2	7	-2544	6392	14608	-13	21	-19	-13552	7168	7576	11	-6	22	592	2536	16880	-2	-15	13	128	139	12
-4516	-7216	14484	10	-16	-21	-12728	-7432	7008	-13	-5	-9	1488	-3296	16712	21	-6	16	-2464	6384	14600	-12	16	-22	-13592	7016	7328	5	-3	15	584	2472	16824	8	-20	14	127	138	12
-4456	-7124	14420	4	-8	-24	-12544	-7152	6640	-5	-1	-8	1768	-3512	16600	15	2	7	-2344	6480	14576	-11	17	-24	-13592	6928	7216	11	-4	15	480	2504	16928	5	-21	19	128	138	12
-4740	-7380	14268	10	-12	-20	-12648	-7280	6552	9	0	-10	1664	-3432	16856	22	2	6	-2448	6504	14576	-22	19	-28	-13696	7000	7128	-8	3	14	304	2456	17072	-2	-16	23	128	138	12
-4728	-7476	14164	7	-7	-23	-12752	-7296	6768	-2	-4	-7	1680	-3312	16328	17	3	8	-2248	6464	14304	-11	19	-23	-13496	6752	7200	-6	5	5	576	2336	16512	5	-16	23	128	138	12
-4492	-7116	14264	-1	-6	-23	-12496	-7184	6848	-6	-3	-2	1760	-3488	16648	20	4	8	-2536	6768	14344	-22	18	-25	-13488	6856	7328	16	-2	10	496	2248	16936	2	-15	22	127	139	12
-4764	-7404	14224	9	-8	-24	-12848	-7328	6808	1	0	-10	1504	-3312	16624	16	-5	9	-2472	6368	14448	-22	14	-29	-13720	6944	7424	12	-5	17	552	2344	16952	2	-16	19	128	139	12
-4444	-7136	14388	14	-15	-18	-12680	-7288	7096	-11	-5	-5	1504	-3600	16352	11	-3	9	-2272	6368	14672	-5	19	-24	-13568	6888	7312	16	-6	10	576	2280	16616	5	-20	12	128	139	12
-4716	-7332	14116	-4	-10	-25	-12632	-7288	6800	7	-2	-5	1616	-3480	16680	21	-1	5	-2544	6704	14392	-16	19	-28	-13544	6976	7272	14	-8	18	616	2208	16896	1	-21	13	127	139	12
-4788	-7272	14352	11	-15	-16	-12848	-7536	7040	4	-4	-14	1488	-3520	16904	22	-7	10	-2424	6344	14728	-14	29	-21	-13744	6856	7184	-13	4	21	440	2264	16568	4	-21	9	127	139	12
-4372	-6968	14356	0	-14	-17	-12712	-7240	6768	1	0	-6	1632	-3576	16496	17	4	8	-2256	6312	14352	1	22	-25	-13440	6752	7360	6	-3	15	600	2376	16352	10	-15	12	127	138	12
-4732	-7380	14216	-10	-11	-24	-12504	-7344	6560	17	2	1	1744	-3632	16384	18	5	8	-2568	6680	14536	-15	17	-26	-13648	7032	7392	12	-5	22	504	2288	16792	5	-18	18	128	138	12
-4652	-7408	14392	4	-21	-16	-12840	-7376	6928	-7	-5	-4	1432	-3448	16608	24	-1	12	-2376	6176	14632	-11	13	-23	-13824	6808	7320	1	-1	22	416	2432	16840	6	-14	16	128	138	12
-4396	-6964	14356	0	-5	-20	-12584	-7272	6824	-2	-7	-2	1728	-3504	16608	19	2	7	-2328	6640	14376	-7	14	-24	-13416	6872	7328	24	-7	16	688	2336	16600	8	-21	18	128	139	12
-4776	-7488	14308	4	-11	-18	-12456	-7288	6696	9	-3	-1	1568	-3488	16488	35	-5	7	-2568	6608	14424	-1	15	-23	-13544	7120	7464	13	-2	22	408	2528	16776	1	-16	27	127	139	12
-4532	-7200	14380	18	-18	-18	-12856	-7384	6952	-10	-10	-3	1608	-3432	16448	17	-4	7	-2192	6288	14504	-6	14	-23	-13728	6712	7256	6	0	15	768	2288	16944	15	-16	22	128	139	12
-4504	-7060	14332	13	-9	-18	-12480	-7288	6728	0	-4	3	1632	-3280	16528	20	-5	-1	-2456	6720	14512	-9	10	-26	-13376	6888	7360	18	-11	21	648	2416	16688	13	-16	21	128	138	12
-4756	-7476	14280	19	-21	-23	-12704	-7456	6776	3	-3	-2	1592	-3272	16728	25	-5	4	-2400	6496	14536	-15	12	-26	-13592	6936	7280	11	-7	23	464	2368	16760	7	-15	16	128	139	12
-4440	-7124	14376	19	-13	-18	-12744	-7152	7016	-12	-2	-2	1536	-3512	16504	13	5	5	-2296	6440	14248	-4	15	-20	-13544	6672	7392	12	-9	19	584	2392	16488	8	-11	13	128	138	12
-4624	-7256	14312	6	-12	-21	-12624	-7192	6856	4	-8	1	1624	-3312	16592	23	5	7	-2568	6816	14640	-14	12	-27	-13536	6984	7352	12	-8	21	504	2432	16856	2	-21	11	128	138	12
-4704	-7332	14392	16	-21	-23	-13016	-7448	6920	0	-4	-9	1344	-3448	16512	24	-4	15	-2360	6384	14672	-13	11	-23	-13888	6856	7264	-3	2	25	384	2536	16688	-2	-15	18	128	139	12
-4308	-6924	14288	9	-2	-19	-12784	-7200	6944	-3	-6	-5	1632	-3488	16456	21	1	12	-2360	6456	14456	-2	17	-19	-13456	6896	7280	11	-8	12	632	2328	16536	7	-15	20	128	139	12
-4392	-6940	14388	10	-5	-19	-12480	-7312	6664	10	0	-5	1680	-3416	16552	34	1	10	-2488	6672	14544	-18	16	-25	-13584	7016	7328	9	-7	19	440	2344	16832	5	-17	16	127	138	12
-4560	-7316	14404	12	-13	-18	-12800	-7344	6856	-5	-3	-11	1608	-3416	16592	20	-4	9	-2200	6448	14568	-7	13	-23	-13568	6880	7512	4	-1	17	496	2416	16616	9	-19	14	128	139	12
-4488	-7012	14256	8	-8	-17	-12568	-7256	6960	-4	-5	-10	1656	-3472	16216	15	1	6	-2408	6656	14632	-11	18	-24	-13400	7016	7312	21	-8	21	496	2296	16688	4	-18	19	128	139	12
-4796	-7448	14316	8	-19	-25	-12840	-7424	6792	9	0	-7	1624	-3384	16896	29	-1	9	-2328	6584	14672	-17	14	-29	-13736	7160	7280	6	1	20	368	2480	16832	-2	-21	16	128	139	12
-4716	-7556	14312	12	-16	-19	-12968	-7344	7040	-9	-5	-6	1560	-3288	16552	27	-8	11	-2232	6352	14536	-4	21	-28	-13616	6688	7168	-2	0	13	488	2392	16584	6	-17	16	128	139	12
-4548	-7100	14280	3	-13	-22	-12520	-7288	6712	-4	-1	2	1760	-3400	16488	19	6	3	-2440	6664	14352	-10	19	-19	-13464	7072	7424	20	-9	15	672	2408	16688	1	-18	18	127	139	12
-4708	-7424	14204	15	-15	-21	-12752	-7328	6880	-3	-2	-5	1504	-3408	16712	22	-5	7	-2384	6432	14536	-16	15	-29	-13712	7032	7280	1	-1	18	520	2360	16768	5	-22	17	127	139	12
-4428	-7204	14364	10	-9	-21	-12808	-7176	6880	-5	-3	-6	1536	-3520	16784	11	0	6	-2392	6504	14464	-7	21	-18	-13672	6696	7496	9	-4	15	376	2408	16784	11	-18	15	128	139	12
-4724	-7296	14356	4	-11	-27	-12464	-7312	6816	15	0	-3	1656	-3456	16784	22	0	6	-2536	6728	14456	-15	16	-23	-13720	7168	7280	14	-5	21	520	2480	17064	-1	-20	15	127	138	12
-4728	-7256	14360	11	-12	-21	-12960	-7344	6984	4	-4	-10	1368	-3440	16816	22	-7	10	-2336	6216	14712	-10	14	-23	-13712	6856	7552	-1	3	15	384	2288	16464	1	-16	16	128	139	12
-4352	-7004	14280	8	-3	-22	-12456	-7240	6704	-5	-3	0	1584	-3552	16320	19	5	10	-2408	6632	14432	-1	19	-21	-13528	6920	7264	16	-7	20	680	2312	16704	8	-15	15	128	139	12
-4760	-7408	14208	3	-15	-23	-12416	-7416	7048	7	-4	-3	1592	-3368	16896	31	-3	11	-2384	6672	14328	-16	14	-27	-13488	7056	7456	16	-5	25	456	2312	16728	7	-15	22	127	139	12
-4584	-7292	14452	16	-14	-20	-12744	-7328	7024	-11	-7	-10	1456	-3472	16512	21	-1	11	-2360	6312	14224	-10	19	-23	-13648	6816	7296	2	-7	20	568	2352	16664	14	-17	17	128	139	12
-4440	-7000	14340	5	-14	-23	-12584	-7152	6888	-6	-7	-6	1664	-3440	16248	16	0	4	-2528	6616	14192	-5	15	-22	-13384	6864	7336	20	-14	20	520	2312	16880	9	-19	20	128	139	12
-4740	-7532	14220	9	-18	-23	-12720	-7448	6696	-1	2	0	1504	-3360	16776	28	-6	5	-2312	6568	14736	-18	19	-24	-13624	7016	7552	1	-2	19	416	2376	16968	-2	-20	15	128	139	12
-4448	-7168	14380	16	-14	-23	-12712	-7136	6848	-10	-6	-8	1752	-3392	16584	15	1	4	-2232	6528	14600	-7	17	-26	-13576	6680	7264	3	-3	17	752	2248	16528	5	-19	17	127	139	12
-4648	-7096	14312	3	-11	-22	-12504	-7240	6720	0	-3	-2	1584	-3368	16552	20	-3	7	-2432	6672	14680	-11	19	-23	-13496	6968	7384	18	-11	19	656	2344	16776	0	-20	17	127	139	12
-4656	-7372	14276	14	-9	-17	-12784	-7544	6808	0	-3	-6	1664	-3528	16688	22	-1	10	-2376	6424	14576	-12	17	-24	-13648	6936	7448	3	-1	21	472	2384	16880	2	-15	16	127	139	12
-4340	-7104	14328	13	-6	-22	-12616	-7272	6944	-5	-4	-2	1704	-3472	16400	16	3	7	-2264	6624	14336	-7	18	-21	-13512	6800	7312	10	-4	16	632	2360	16672	7	-14	17	127	138	12
-4676	-7424	14268	3	-10	-23	-12528	-7344	6832	11	0	0	1680	-3600	16672	28	-4	7	-2512	6496	14536	-20	16	-28	-13520	7056	7336	8	-3	21	512	2304	16808	3	-18	16	127	139	12
-4632	-7340	14364	16	-19	-18	-12872	-7272	6904	-2	-4	-6	1416	-3488	16440	21	-6	7	-2352	6328	14576	-11	16	-23	-13720	6928	7312	-2	3	16	320	2312	16664	6	-19	18	127	139	12
-4416	-6972	14272	8	-4	-21	-12616	-7088	6648	-8	-4	2	1592	-3624	16424	18	3	5	-2304	6488	14432	-11	19	-23	-13416	6808	7240	15	-7	15	664	2288	16592	10	-16	22	128	138	12
-4796	-7452	14220	1	-10	-23	-12456	-7456	6728	4	0	0	1496	-3392	16504	28	-8	9	-2536	6576	14544	-15	18	-28	-13616	6888	7256	11	-3	23	456	2360	16824	6	-17	21	127	139	12
-4552	-7176	14472	19	-20	-13	-12928	-7264	7056	-8	-7	-4	1464	-3512	16392	19	-5	6	-2432	6312	14608	-9	14	-26	-13704	6856	7160	7	-1	23	464	2472	16656	13	-17	19	127	139	12
-4532	-7092	14392	5	-12	-22	-12544	-7152	6792	2	-9	2	1600	-3512	16736	24	3	2	-2488	6824	14448	-11	17	-20	-13512	6960	7304	18	-7	20	512	2280	16968	13	-15	22	127	139	12
-4800	-7532	14336	14	-15	-22	-12704	-7432	6752	9	-9	-2	1608	-3336	16848	34	-7	7	-2496	6544	14664	-13	12	-25	-13848	7016	7664	0	1	24	408	2360	16800	4	-17	20	128	139	12
-4504	-7012	14628	15	-15	-15	-12808	-7200	7104	-7	-8	-8	1432	-3480	16880	26	-4	8	-2288	6328	14440	-1	17	-18	-13584	6712	7272	8	-7	22	552	2272	16568	10	-15	15	127	139	12
-4600	-7068	14304	2	-12	-28	-12592	-7200	6952	2	-2	2	1552	-3400	16536	28	-1	6	-2512	6680	14456	-9	16	-17	-13536	6936	7120	31	-16	22	544	2248	16792	9	-18	9	128	139	12
-4744	-7400	14308	14	-16	-18	-12680	-7520	6704	-1	-9	-6	1568	-3392	16848	27	0	6	-2368	6528	14880	-10	16	-21	-13720	7072	7448	12	-3	20	576	2360	16920	10	-19	14	128	140	12
-4332	-7080	14516	13	-4	-17	-12584	-7112	7048	1	-3	-4	1696	-3504	16384	10	-6	6	-2456	6568	14664	-2	27	-22	-13576	6976	7312	10	-8	21	728	2680	16704	11	-20	9	127	138	12
-4644	-7292	14372	2	-15	-17	-12448	-7256	6896	18	0	-3	1832	-3264	16720	21	3	6	-2520	6664	14680	-18	26	-24	-13648	7144	7384	3	-5	16	488	2448	16984	-1	-18	12	128	138	12
-4620	-7272	14344	0	-14	-14	-12776	-7296	6848	-2	-2	-8	1432	-3424	16584	18	-3	8	-2312	6424	14608	-13	24	-19	-13696	6808	7232	-20	10	13	448	2400	16760	0	-19	20	128	139	12
-4308	-6948	14448	-6	-6	-18	-12664	-7160	7008	-8	-7	5	1792	-3440	16336	15	7	5	-2368	6624	14448	-5	21	-22	-13392	6840	7216	18	-6	9	544	2424	16544	6	-22	17	127	138	12
-4776	-7408	14224	-7	-14	-25	-12528	-7384	6832	4	2	-2	1752	-3272	16744	27	-4	9	-2368	6640	14416	-23	14	-31	-13464	7144	7512	16	-3	19	424	2320	16648	3	-19	22	127	139	12
-4596	-7228	14388	14	-24	-18	-12744	-7328	6488	-10	-1	-8	1584	-3456	16384	11	-3	10	-2264	6176	14544	-14	12	-23	-13664	6848	7544	4	4	15	296	2432	16544	7	-14	23	128	138	12
-4476	-7036	14272	3	-14	-23	-12616	-7264	6856	0	-4	-9	1600	-3416	16496	14	3	6	-2616	6584	14544	-18	12	-24	-13488	6848	7256	14	-5	17	528	2256	16656	7	-15	26	128	138	12
-4496	-7148	14120	0	-11	-20	-12680	-7376	6808	4	-1	-6	1544	-3400	16792	31	-3	10	-2568	6456	14848	-19	10	-27	-13752	6928	7424	-1	5	11	376	2312	16728	0	-18	24	128	139	12
-4408	-7152	14484	13	-11	-21	-12848	-7376	6888	-15	-7	-8	1560	-3408	16432	19	-3	9	-2256	6512	14608	-9	11	-23	-13592	6664	7592	4	-4	13	528	2360	16656	3	-14	17	128	139	12
-4556	-7124	14228	3	-9	-27	-12496	-7208	6832	1	-4	-2	1760	-3312	16544	23	3	4	-2424	6616	14504	-12	16	-28	-13448	6840	7480	22	-15	20	648	2304	16736	0	-17	14	128	138	12
-4760	-7460	14228	15	-14	-20	-12800	-7472	6640	0	-2	-8	1536	-3424	16792	21	2	8	-2432	6488	14632	-11	17	-25	-13744	7032	7352	4	-3	20	456	2432	16944	1	-11	15	128	139	12
-4388	-7164	14404	17	-19	-22	-12840	-7240	7040	-8	-2	-13	1552	-3584	16512	9	8	5	-2256	6344	14472	-1	14	-22	-13704	6960	7480	3	3	22	472	2360	16688	1	-16	14	128	138	12
-4744	-7244	14300	5	-9	-20	-12608	-7448	6800	6	0	1	1560	-3616	16656	24	-1	6	-2464	6880	14448	-16	16	-25	-13664	7032	7392	8	2	18	544	2280	16880	1	-21	17	127	139	12
-4796	-7356	14384	20	-13	-20	-12960	-7408	6672	-7	-3	-11	1424	-3464	16848	27	-9	8	-2272	6280	14808	-16	12	-24	-13896	6824	7264	-6	0	14	384	2360	16744	1	-18	19	127	138	12
-4332	-6972	14356	13	-8	-21	-12672	-7208	6808	-9	-3	-5	1664	-3568	16376	20	-4	8	-2416	6344	14224	-5	22	-23	-13448	6712	7112	13	-9	12	640	2248	16528	7	-19	20	128	138	12
-4816	-7468	14248	3	-11	-24	-12424	-7544	6512	5	2	4	1624	-3584	16448	33	-7	5	-2528	6496	14512	-12	16	-29	-13536	6992	7392	22	-8	20	512	2456	16904	5	-16	21	128	138	12
-4600	-7256	14400	20	-16	-15	-12904	-7344	6816	-1	-6	-9	1608	-3448	16704	20	-1	11	-2456	6200	14560	-11	15	-25	-13736	6936	7312	10	-1	25	480	2416	16744	14	-18	17	128	139	12
-4364	-6944	14400	13	-7	-22	-12576	-7304	6816	2	-7	-7	1600	-3488	16368	16	4	5	-2424	6672	14504	-3	15	-24	-13448	6856	7280	15	-10	21	528	2360	16712	13	-18	20	128	139	12
-4840	-7396	14268	10	-16	-20	-12624	-7424	6856	15	-4	-2	1704	-3400	16704	34	-3	6	-2440	6696	14432	-10	18	-23	-13696	7040	7384	-4	-7	21	472	2360	16736	5	-17	21	128	139	12
-4492	-7128	14404	14	-16	-20	-12896	-7160	6928	-6	-9	-2	1512	-3424	16720	20	1	10	-2248	6224	14432	-2	15	-22	-13592	6736	7320	-3	-2	16	568	2336	16480	9	-15	12	128	138	12
-4480	-7052	14180	5	-9	-20	-12504	-7216	6784	-5	-6	1	1720	-3560	16424	23	-1	6	-2304	6632	14424	-1	14	-21	-13272	6848	7480	27	-14	27	656	2280	16696	9	-17	10	128	138	12
-4788	-7472	14172	11	-20	-20	-12544	-7440	6728	0	-4	-5	1608	-3368	16784	27	-2	7	-2440	6496	14512	-15	14	-21	-13656	6944	7360	12	-1	22	344	2504	16840	4	-20	11	128	138	12
-4464	-7088	14352	17	-15	-12	-12856	-7384	6856	-9	-4	-5	1416	-3464	16352	15	-2	4	-2176	6352	14288	-5	15	-23	-13456	6864	7176	10	-8	21	640	2528	16456	8	-14	16	127	139	12
-4704	-7184	14348	3	-8	-24	-12536	-7200	6896	9	1	1	1560	-3376	16392	23	-2	4	-2424	6632	14432	-19	21	-25	-13584	7168	7432	19	-9	19	720	2480	16680	5	-13	9	127	138	12
-4712	-7372	14320	10	-13	-19	-12848	-7280	6712	4	-1	-6	1608	-3312	16784	29	-6	12	-2408	6448	14616	-12	18	-24	-13648	7176	7352	-7	2	16	472	2592	16712	0	-19	14	127	139	12
-4384	-7080	14228	11	-2	-23	-12832	-7032	7008	-10	-5	-3	1472	-3456	16456	15	0	11	-2168	6416	14416	-4	18	-23	-13440	6848	7416	11	-6	15	680	2320	16680	6	-14	16	128	139	12
-4624	-7288	14228	-1	-7	-26	-12424	-7248	6400	4	2	-4	1720	-3360	16304	25	2	8	-2328	6720	14240	-15	16	-31	-13512	7152	7264	27	-8	15	552	2408	16856	6	-16	19	128	138	12
-4704	-7316	14272	16	-13	-18	-12840	-7320	7048	-2	-7	-15	1560	-3288	16544	19	-1	10	-2432	6296	14528	-13	17	-28	-13664	7104	7664	-3	1	16	440	2600	16896	4	-17	18	127	139	12
-4364	-6924	14424	7	-10	-20	-12728	-7040	7160	-5	-3	-4	1584	-3400	16528	16	3	7	-2400	6664	14624	-8	17	-26	-13376	6840	7312	8	-3	15	544	2352	16592	7	-20	22	128	139	12
-4676	-7352	14372	5	-13	-23	-12424	-7384	6880	7	-2	-5	1584	-3448	16608	29	-1	6	-2496	6536	14632	-21	18	-28	-13608	7024	7576	8	1	15	664	2352	16992	0	-17	18	128	139	12
-4636	-7232	14372	16	-14	-17	-12864	-7376	7016	-12	-11	-9	1440	-3480	16728	20	-1	9	-2400	6352	14512	-12	20	-26	-13672	6816	7168	-2	4	15	480	2400	16792	-3	-21	15	127	140	12
-4376	-7016	14364	6	-5	-24	-12688	-7120	6808	-9	-2	-5	1776	-3512	16496	15	1	5	-2528	6592	14704	-10	16	-27	-13432	6872	7232	23	-18	13	656	2408	16896	3	-21	12	128	139	12
-4888	-7424	14188	7	-14	-24	-12632	-7216	6624	8	-2	-8	1544	-3456	16680	24	-6	11	-2544	6504	14664	-17	16	-25	-13776	6936	7384	11	-2	21	360	2440	16992	-2	-17	13	128	139	12
-4600	-7164	14452	15	-16	-16	-12840	-7288	6960	-4	-7	-7	1536	-3560	16432	12	-4	8	-2128	6352	14536	-6	20	-23	-13616	6824	7368	-2	-1	17	544	2416	16632	3	-13	17	127	138	12
-4484	-7116	14268	4	-10	-23	-12520	-7128	6584	7	0	0	1704	-3400	16632	15	1	5	-2304	6680	14616	-7	18	-25	-13360	6904	7328	17	-9	16	648	2288	16792	6	-13	17	128	137	12
-4832	-7480	14320	9	-13	-23	-12688	-7440	6544	3	-5	-4	1392	-3456	16664	29	-7	9	-2432	6448	14600	-22	21	-26	-13712	7112	7296	-6	1	14	432	2304	16832	4	-20	17	128	138	12
-4524	-7044	14424	13	-8	-20	-12840	-7248	6848	-12	-3	-7	1656	-3520	16672	21	5	9	-2264	6584	14416	-3	16	-25	-13528	6608	7424	4	-2	16	472	2288	16664	8	-18	18	128	138	12
-4584	-7152	14264	-2	-5	-21	-12528	-7152	6832	2	-5	1	1624	-3464	16280	30	0	7	-2408	6696	14576	-10	18	-20	-13392	6928	7288	29	-11	22	616	2264	16776	7	-20	20	127	137	12
-4728	-7524	14272	7	-15	-15	-12616	-7520	6872	-2	-6	0	1456	-3416	16592	33	-4	9	-2368	6320	14664	-20	11	-26	-13624	6984	7384	4	-3	21	488	2408	16600	3	-25	23	127	138	12
-4400	-7056	14296	16	-17	-21	-12808	-7216	6896	-1	-7	-6	1704	-3744	16560	20	3	7	-2272	6440	14400	-6	16	-22	-13592	6728	7032	2	-7	17	504	2448	16448	12	-21	17	128	138	12
-4652	-7156	14348	0	-8	-18	-12696	-7368	6928	1	-6	-3	1776	-3488	16608	25	5	0	-2352	6792	14512	-14	15	-25	-13520	6936	7384	16	-7	15	768	2328	16736	3	-24	17	127	138	12
-4724	-7368	14400	14	-16	-18	-12952	-7448	6856	-2	-6	-8	1624	-3392	16728	26	-3	6	-2520	6400	14664	-8	15	-27	-13752	6848	7464	-5	-2	18	544	2360	16656	3	-19	14	127	139	12
-4576	-7252	14340	16	-14	-14	-12768	-7264	6904	-6	-1	-6	1528	-3488	16328	13	10	0	-2248	6448	14360	2	17	-21	-13376	6624	7320	15	-10	17	616	2352	16736	10	-22	11	127	138	12
-4692	-7388	14256	0	-8	-22	-12480	-7480	6816	12	-2	2	1672	-3448	16680	19	5	-3	-2608	6656	14456	-17	21	-23	-13360	6976	7504	17	-8	21	536	2360	16984	-1	-32	13	128	140	12
-4616	-7280	14348	15	-16	-14	-12760	-7312	6856	2	-2	-7	1544	-3392	16672	18	1	4	-2488	6520	14632	-14	22	-22	-13760	7056	7304	-7	-3	16	456	2448	16592	1	-31	18	127	139	12
-4368	-6892	14408	3	-13	-18	-12632	-7304	7096	4	-1	-3	1616	-3560	16320	17	8	3	-2392	6672	14640	-9	28	-22	-13352	6816	7376	8	-1	14	696	2272	16648	0	-34	18	127	138	12
-4672	-7372	14308	-9	-14	-21	-12704	-7304	6832	11	8	-3	1416	-3416	16600	33	8	7	-2576	6640	14744	-21	22	-30	-13640	7056	7392	6	0	19	576	2312	16880	-3	-30	22	126	138	12
-4612	-7224	14408	1	-13	-19	-13064	-7568	6944	-3	1	-2	1352	-3464	16728	31	1	10	-2304	6192	14560	-5	15	-28	-13776	6800	7184	-5	-1	19	360	2288	16736	4	-22	23	126	139	12
-4412	-6988	14328	-8	-7	-19	-12648	-7272	6928	10	-2	12	944	-3360	16336	24	0	1	-2336	6528	14512	-8	13	-24	-13424	6712	7360	26	-14	17	752	2368	16808	15	-38	26	126	138	12
-4704	-7436	14160	1	-14	-19	-12488	-7408	6392	15	-6	8	1680	-3304	16536	35	-2	-2	-2416	6616	14744	-16	10	-28	-13584	7112	7496	18	-7	20	552	2224	16896	1	-40	21	125	139	12
-4620	-7292	14336	13	-16	-17	-12808	-7520	6888	-2	-10	0	1808	-3472	16688	10	9	6	-2344	6256	14632	-8	14	-21	-13784	6840	7304	1	-2	19	616	2368	16688	10	-30	19	126	138	12
-4448	-7048	14284	10	-11	-22	-12592	-7240	6584	11	-3	5	1584	-3504	16624	24	13	3	-2560	6696	14632	-13	15	-23	-13400	6928	7472	12	-10	21	792	2240	16592	9	-8	19	128	138	12
-4820	-7520	14356	11	-22	-19	-12592	-7504	6792	3	-5	-4	1480	-3424	16816	28	-8	1	-2496	6544	14576	-14	11	-23	-13792	7000	7568	-4	-1	23	384	2352	16872	-1	-12	16	128	139	12
-4492	-7116	14448	24	-16	-18	-12928	-7344	6808	-18	-9	0	1464	-3440	16512	15	-12	-1	-2152	6384	14472	0	14	-23	-13536	6720	7256	3	-8	21	728	2504	16480	2	-22	12	128	138	12
-4484	-7100	14244	6	-15	-21	-12440	-7216	6720	-9	-11	2	1608	-3480	16424	13	14	1	-2408	6648	14432	-11	16	-24	-13264	6944	7336	28	-16	23	608	2440	17032	3	-16	11	129	138	12
-4736	-7468	14428	14	-19	-21	-12704	-7352	6792	-10	-8	-12	1568	-3456	16608	18	15	2	-2352	6504	14472	-17	18	-25	-13584	6976	7216	0	3	18	536	2408	16688	4	-15	17	128	139	12
-4488	-7176	14396	15	-13	-21	-12840	-7344	6896	-9	-12	0	1464	-3440	16256	13	11	-3	-2232	6632	14584	-8	15	-24	-13528	6944	7400	-1	4	12	504	2384	16568	7	-14	24	129	139	12
-4600	-7128	14252	5	-9	-25	-12464	-7200	7000	21	0	3	1480	-3624	16624	24	-7	-4	-2544	6568	14272	-21	16	-29	-13520	6944	7352	9	-9	16	744	2424	17168	0	-20	25	128	138	12
-4736	-7460	14344	14	-13	-20	-12768	-7416	6808	5	-6	-7	1496	-3376	16992	25	-9	4	-2464	6336	14576	-17	22	-28	-13816	6856	7600	-8	3	14	616	2456	16832	-4	-23	22	128	139	12
-4420	-7076	14400	13	-14	-22	-12752	-7088	7032	0	-7	-7	1744	-3640	16440	17	2	4	-2160	6464	14480	-7	19	-20	-13392	6776	7272	16	-6	10	632	2272	16744	5	-17	16	128	139	12
-4648	-7248	14156	4	-9	-24	-12304	-7248	6712	9	-2	-1	1608	-3256	16656	23	2	6	-2552	6640	14576	-16	15	-27	-13496	6992	7280	25	-6	17	696	2320	16920	1	-15	18	127	138	12
-4712	-7404	14292	12	-15	-21	-12760	-7472	6792	-5	-4	-9	1472	-3408	16680	22	-3	7	-2360	6296	14784	-17	15	-28	-13872	6896	7408	-12	4	20	528	2336	16592	3	-13	14	128	139	12
-4388	-7008	14420	12	-8	-14	-12744	-7200	6960	-2	-6	-3	1544	-3688	16448	13	0	5	-2288	6496	14760	-6	20	-26	-13336	6736	7480	6	-10	19	472	2216	16512	5	-17	16	128	139	12
-4716	-7376	14276	-1	-9	-27	-12552	-7416	6816	8	-1	1	1688	-3592	16552	24	3	3	-2496	6616	14464	-12	14	-24	-13608	6992	7296	14	-8	19	416	2344	16960	-2	-20	18	127	139	12
-4696	-7360	14288	17	-17	-16	-12920	-7392	6752	-8	-4	-6	1472	-3632	16824	25	-2	8	-2328	6344	14664	-14	17	-24	-13792	6840	7088	-1	2	21	536	2288	16672	5	-17	17	127	140	12
-4336	-6908	14292	7	-5	-22	-12640	-7248	7240	0	-2	3	1600	-3536	16280	23	4	5	-2352	6640	14560	-8	16	-24	-13512	6744	7240	24	-13	24	512	2224	16680	11	-15	15	128	139	12
-4768	-7448	14200	4	-11	-23	-12544	-7328	6680	19	-2	3	1672	-3480	16568	34	0	5	-2336	6536	14616	-14	19	-24	-13736	6968	7312	19	-8	25	576	2240	16928	10	-16	20	127	139	12
-4612	-7288	14336	18	-15	-13	-12960	-7464	6864	-3	-10	-4	1472	-3408	16760	28	-3	10	-2416	6192	14520	-6	16	-23	-13616	6904	7472	8	-3	21	512	2360	16768	12	-17	18	128	139	12
-4460	-6916	14420	12	-6	-23	-12576	-7168	6832	5	-9	6	1664	-3520	16632	26	5	1	-2440	6648	14576	-3	15	-19	-13392	6808	7408	26	-10	22	600	2472	16728	11	-17	23	128	138	12
-4836	-7544	14404	5	-20	-22	-12664	-7264	7080	2	-7	0	1720	-3344	16936	36	-7	1	-2496	6552	14712	-15	18	-27	-13736	7096	7288	4	-3	23	496	2264	17032	9	-22	19	128	139	12
-4588	-7168	14360	18	-14	-18	-13000	-7280	6864	-4	-7	-1	1480	-3424	16648	22	-11	11	-2400	6336	14568	-1	16	-25	-13688	6792	7400	0	-4	22	488	2536	16632	13	-24	17	129	140	12
-4412	-7004	14396	7	-6	-21	-12504	-7088	7008	-2	-6	12	1704	-3344	16440	23	2	7	-2488	6688	14288	-3	19	-21	-13320	6888	7352	27	-15	15	688	2312	16800	10	-19	15	128	141	12
-4772	-7436	14248	3	-22	-23	-12568	-7336	7000	6	-3	-2	1608	-3312	16552	30	-1	13	-2344	6680	14496	-13	16	-27	-13552	7128	7456	12	-2	20	672	2504	16896	12	-23	18	128	139	12
-4476	-7104	14460	19	-22	-21	-12864	-7216	6816	-4	-10	-7	1608	-3240	16864	32	-8	11	-2288	6392	14384	-4	14	-21	-13576	6808	7328	1	-3	22	512	2456	16760	13	-19	16	128	138	12
-4528	-7116	14340	3	-14	-20	-12560	-7032	6712	11	-2	1	1672	-3424	16736	28	2	3	-2400	6776	14464	-10	14	-23	-13456	7064	7464	28	-13	17	600	2480	16768	6	-19	17	128	139	12
-4748	-7488	14332	8	-18	-20	-12864	-7200	6920	4	-4	-7	1496	-3256	16760	30	0	10	-2328	6424	14664	-18	19	-29	-13752	7056	7432	-4	-4	23	456	2376	16720	4	-17	17	127	140	12
-4436	-7076	14432	11	-13	-20	-12832	-7240	6936	-12	-5	-3	1656	-3368	16776	18	-2	9	-2248	6336	14376	-3	23	-20	-13568	6776	7280	5	-7	14	536	2528	16488	7	-18	21	128	140	12
-4368	-6996	14432	11	-11	-20	-12488	-7016	6736	6	-2	0	1832	-3208	16304	25	-2	12	-2352	6800	14496	-15	18	-26	-13272	6928	7232	23	-12	15	640	2448	16848	3	-26	22	129	138	12
-4816	-7420	14248	10	-14	-19	-12640	-7416	6856	-8	-2	-13	1360	-3360	16648	25	-13	15	-2368	6368	14584	-20	15	-28	-13624	6992	7240	-8	2	16	536	2432	16568	2	-19	22	131	138	12
-4420	-6984	14444	11	-12	-19	-12648	-7200	6920	-8	-6	-10	1600	-3552	16480	15	-3	7	-2312	6512	14336	-12	17	-27	-13608	6712	7336	8	2	13	504	2264	16480	-1	-14	19	129	139	12
-4656	-7324	14232	-1	-11	-26	-12616	-7376	6744	3	-5	-3	1680	-3536	16488	27	-4	9	-2576	6656	14600	-23	19	-28	-13624	7032	7376	11	-8	13	496	2376	16952	-3	-18	19	128	138	12
-4748	-7408	14388	1	-8	-23	-12880	-7504	6816	-11	-8	-10	1456	-3416	16760	26	-6	9	-2536	6304	14608	-9	17	-25	-13776	6920	7144	-9	-2	19	608	2384	16712	-1	-20	16	125	138	12
-4368	-6952	14220	6	-5	-19	-12672	-7200	6848	-6	-4	-5	1576	-3504	16536	14	6	3	-2304	6472	14288	0	13	-18	-13384	6704	7240	24	-9	12	672	2288	16584	5	-14	18	124	136	12
-4388	-6888	14268	6	-12	-23	-12392	-7160	6768	9	-1	-4	1656	-3416	16496	26	3	4	-2440	6768	14336	-19	12	-24	-13528	6960	7528	21	-7	20	712	2296	17080	5	-16	18	125	138	12
-4624	-7300	14368	17	-22	-18	-12888	-7408	6752	-10	-8	-11	1456	-3528	16704	26	-3	6	-2328	6328	14496	-15	14	-24	-13800	6904	7544	-8	0	21	352	2520	16744	8	-15	24	126	139	12
-4360	-6916	14440	13	-9	-19	-12712	-7184	6872	4	-3	-7	1544	-3688	16376	22	1	7	-2392	6504	14584	-7	11	-23	-13464	6792	7400	15	-6	18	664	2320	16424	10	-17	24	128	139	12
-4820	-7444	14244	3	-11	-22	-12424	-7264	6976	7	-5	1	1840	-3456	16680	39	-13	15	-2472	6600	14704	-14	17	-24	-13592	7080	7376	12	-3	21	568	2312	16952	8	-23	22	129	139	12
-4608	-7184	14296	13	-12	-27	-12800	-7472	6832	-17	1	-9	1792	-3392	16744	35	-6	8	-2184	6280	14704	-7	19	-24	-13680	6552	7432	4	-3	19	680	2312	16672	14	-21	18	129	139	12
-4356	-6992	14184	6	-15	-18	-12328	-7328	7032	-4	5	-4	1528	-3552	16368	22	9	9	-2416	6520	14576	-2	32	-22	-13240	6784	7520	21	-11	21	816	2304	16848	15	-15	19	129	139	12
-4752	-7512	14224	1	-19	-18	-12608	-7520	6904	17	5	1	1512	-3392	16784	32	1	12	-2520	6528	14600	-17	26	-25	-13800	7112	7576	4	-9	27	616	2504	16704	11	-17	15	128	139	12
-4600	-7164	14384	6	-14	-12	-13056	-7392	7160	5	-1	-2	1544	-3360	16792	17	-2	8	-2296	6392	14384	-2	23	-23	-13688	6816	7448	-2	-3	24	480	2416	16792	8	-14	17	127	139	12
-4380	-6996	14400	-9	-12	-19	-12624	-7016	6952	11	2	8	1664	-3376	16512	18	-1	1	-2440	6888	14504	-6	19	-25	-13488	7016	7312	19	-8	17	600	2336	16608	3	-19	14	128	138	12
-4748	-7508	14268	-1	-23	-18	-12784	-7272	6728	2	-1	4	1528	-3248	16784	27	-8	5	-2528	6528	14616	-18	18	-25	-13696	7144	7032	3	-3	21	440	2584	16648	1	-19	12	127	138	12
-4640	-7108	14544	10	-18	-19	-13024	-7264	6784	-12	-1	-3	1416	-3368	16552	12	-4	1	-2200	6304	14560	-6	17	-22	-13624	6768	7128	2	-1	19	472	2464	16664	0	-19	7	127	139	12
-4504	-7056	14140	2	-5	-21	-12328	-7144	6544	8	0	3	1608	-3392	16432	9	3	0	-2408	6720	14560	-12	13	-27	-13360	7024	7392	31	-11	14	648	2432	17040	0	-20	13	128	138	12
-4792	-7572	14352	16	-10	-23	-12696	-7200	6712	-3	-6	-10	1472	-3152	16864	11	-1	-5	-2432	6568	14616	-23	12	-23	-13752	7128	7568	0	-3	17	432	2368	16736	-6	-15	14	128	138	12
-4488	-7084	14516	21	-19	-19	-12896	-7072	6952	-13	-11	-12	1496	-3320	16648	1	6	-6	-2168	6448	14624	-9	12	-25	-13496	6800	7432	-6	-3	10	520	2544	16680	1	-12	14	127	138	12
-4576	-7084	14304	2	-10	-26	-12624	-7160	6720	-2	-6	-10	1808	-3472	16728	17	7	-1	-2488	6848	14448	-18	12	-26	-13400	6992	7664	17	-8	10	704	2272	16904	-6	-14	17	125	138	12
-4724	-7436	14436	15	-13	-26	-12768	-7392	6872	-15	-10	-20	1488	-3376	16736	25	-4	12	-2536	6432	14352	-21	14	-27	-13680	6936	7664	-8	-4	17	672	2136	16856	-5	-16	18	120	138	12
-4400	-7060	14392	10	-17	-24	-12872	-7296	6776	-16	-8	-14	1672	-3608	16480	22	3	13	-2160	6368	14424	-4	17	-23	-13440	6640	7528	12	-3	15	688	2240	16624	5	-13	20	122	139	12
-4648	-7308	14300	2	-7	-28	-12464	-7296	6920	7	0	-11	1704	-3640	16680	33	6	18	-2416	6624	14576	-18	15	-29	-13552	6928	7624	18	-4	13	744	2176	16760	6	-17	28	125	139	12
-4688	-7376	14264	16	-15	-17	-12680	-7456	7016	-6	-7	-9	1656	-3616	16600	35	-6	20	-2544	6432	14824	-19	15	-24	-13760	6824	7448	-13	9	20	592	2312	16792	6	-14	23	127	138	12
-4320	-7080	14432	14	-10	-16	-12688	-7544	6736	-2	-5	-14	1624	-3616	16472	29	-1	13	-2280	6536	14728	-6	16	-23	-13528	6840	7456	6	-3	14	472	2264	16632	13	-15	21	128	139	12
-4676	-7472	14328	10	-18	-20	-12472	-7336	6584	22	1	2	1704	-3480	16616	36	-6	9	-2656	6696	14560	-17	16	-22	-13672	6880	7648	10	-3	25	504	2328	17096	10	-22	21	128	139	12
-4644	-7328	14324	26	-19	-14	-12848	-7480	6824	-3	0	5	1448	-3456	16624	22	-7	4	-2520	6136	14528	-5	17	-18	-13712	6808	7496	1	-1	26	472	2360	16672	4	-19	7	129	138	12
-4332	-6900	14364	18	-9	-14	-12624	-7200	6920	8	-1	10	1704	-3488	16528	8	8	-6	-2344	6696	14408	4	23	-19	-13304	6736	7512	31	-7	21	672	2440	16552	6	-14	11	130	139	12
-4752	-7476	14276	13	-7	-18	-12400	-7280	6888	9	2	7	1768	-3408	16664	20	9	-4	-2520	6688	14432	-8	15	-24	-13608	7224	7448	25	-13	27	576	2488	16736	3	-12	6	129	140	12
-4664	-7276	14404	26	-18	-15	-12872	-7144	6736	-9	-7	-1	1456	-3424	16944	11	5	-2	-2328	6384	14624	-7	15	-23	-13656	7080	7352	-4	-5	28	528	2352	16616	5	-13	8	129	139	12
-4400	-6868	14480	16	-15	-16	-12784	-7152	6960	0	-3	2	1472	-3264	16592	10	3	-2	-2464	6552	14272	-1	18	-16	-13336	6976	7328	10	-8	24	536	2504	16544	6	-19	13	129	139	12
-4784	-7384	14340	1	-20	-20	-12704	-7096	6728	0	-2	-1	1544	-3320	16832	31	-3	7	-2536	6640	14640	-16	14	-23	-13584	7248	7480	3	-4	20	624	2448	16888	-1	-26	23	129	139	12
-4584	-7144	14508	14	-15	-20	-12912	-7168	6808	-16	-8	-13	1544	-3232	16776	22	-6	12	-2248	6344	14440	-12	17	-24	-13616	6824	7280	-6	6	9	504	2552	16648	4	-19	21	128	139	12
-4388	-7000	14356	-5	-3	-26	-12688	-7128	6832	2	-3	-8	1712	-3344	16248	26	-2	10	-2464	6552	14352	-12	12	-23	-13264	6832	7264	30	-7	12	872	2472	16704	3	-17	20	129	139	12
-4760	-7492	14240	-1	-13	-24	-12680	-7376	6880	9	-2	-10	1624	-3384	16704	33	-8	16	-2472	6624	14528	-20	17	-29	-13576	7224	7488	11	-3	12	488	2504	17096	0	-14	23	128	139	12
-4556	-7180	14416	9	-14	-24	-12920	-7368	7000	-4	-3	-23	1488	-3408	16800	18	-5	12	-2264	6496	14560	-9	13	-28	-13688	6800	7320	-1	1	8	568	2296	16424	-1	-17	24	128	139	12
-4424	-7072	14432	-10	-3	-27	-12768	-7272	6704	5	2	-3	1728	-3440	16304	17	4	8	-2328	6592	14680	-16	18	-26	-13496	7048	7320	15	-2	3	752	2312	16936	-1	-20	23	128	139	12
-4740	-7592	14340	-2	-12	-23	-12736	-7632	6888	-2	-5	-8	1712	-3424	16672	19	-2	7	-2512	6456	14552	-24	17	-30	-13800	7008	7296	-12	4	10	520	2168	16936	-6	-17	19	128	139	12
-4520	-7120	14396	12	-8	-22	-12864	-7280	6872	-14	-5	-12	1584	-3408	16648	9	3	3	-2304	6480	14584	-9	17	-22	-13584	6808	7288	-4	4	12	640	2304	16576	-3	-18	14	127	139	12
-4492	-7092	14208	2	-5	-23	-12424	-7224	6728	-5	2	1	1856	-3480	16424	10	8	4	-2376	6744	14600	-12	17	-27	-13304	6872	7504	24	-8	9	656	2128	16904	3	-18	21	128	138	12
-4788	-7568	14320	13	-20	-20	-12680	-7416	6976	-13	-4	-3	1584	-3384	16680	17	-5	8	-2568	6504	14640	-23	17	-28	-13616	6968	7384	23	-6	13	528	2256	16984	4	-18	21	128	139	12
-4540	-7036	14396	15	-12	-16	-12800	-7440	6712	-14	0	-5	1544	-3632	16400	10	-10	7	-2360	6232	14280	-9	21	-23	-13648	6592	7216	0	0	13	416	2160	16392	3	-16	16	127	139	12
-4644	-7128	14288	7	-9	-19	-12504	-7168	6832	8	2	5	1624	-3528	16456	25	-1	4	-2544	6720	14672	-10	18	-25	-13520	6856	7512	26	-7	22	504	2336	17064	6	-18	19	128	138	12
-4796	-7428	14280	17	-15	-19	-12736	-7472	6944	4	-5	1	1480	-3416	16720	30	-7	4	-2536	6424	14656	-15	18	-26	-13912	6968	7056	1	-3	24	376	2384	16848	4	-17	15	128	138	12
-4444	-7104	14332	16	-17	-18	-12824	-7176	6768	6	0	0	1432	-3376	16600	18	1	2	-2304	6400	14496	4	13	-18	-13536	6664	7416	13	-10	19	584	2400	16648	9	-18	14	128	138	12
-4604	-7168	14228	3	-12	-21	-12488	-7264	6936	20	-2	7	1480	-3440	16648	26	3	-2	-2440	6776	14328	-5	14	-21	-13512	7040	7592	27	-18	26	472	2424	16808	11	-20	17	128	138	12
-4736	-7368	14304	14	-16	-16	-12624	-7224	6904	-5	-6	1	1472	-3304	16560	25	1	6	-2472	6368	14392	-14	20	-29	-13664	6992	7496	-3	2	23	432	2304	16672	11	-17	15	128	139	12
-4484	-7084	14380	17	-11	-13	-12808	-7216	6864	-7	-6	-4	1624	-3512	16672	16	5	10	-2232	6480	14280	1	21	-18	-13528	6816	7240	9	-11	21	616	2256	16880	9	-16	16	128	139	12
-4704	-7292	14340	-1	-13	-24	-12536	-7216	6984	1	-1	-4	1616	-3464	16664	27	3	6	-2432	6744	14632	-12	13	-29	-13712	7128	7528	17	-10	21	488	2224	17032	3	-18	14	128	140	12
-4684	-7312	14320	13	-13	-18	-13024	-7416	6776	-21	-2	-8	1504	-3440	16864	25	-9	11	-2408	6296	14376	-9	13	-26	-13800	6968	7384	-5	1	24	464	2432	16728	4	-16	17	128	139	12
-4376	-6896	14368	9	-9	-18	-12696	-7176	6920	-8	-4	-6	1712	-3584	16680	21	-4	6	-2328	6552	14456	-4	18	-20	-13432	6792	7400	25	-8	20	752	2112	16632	10	-22	15	128	140	12
-4712	-7344	14204	0	-12	-28	-12352	-7336	6792	13	-1	1	1856	-3424	16720	35	-4	4	-2528	6792	14600	-14	14	-27	-13536	7016	7320	28	-10	21	712	2344	17128	6	-19	15	127	139	12
-4600	-7272	14288	14	-11	-20	-12680	-7328	6944	-2	-4	0	1272	-3376	16504	25	-5	13	-2256	6256	14528	-13	20	-26	-13752	6880	7392	-4	3	25	816	2400	17104	16	5	16	128	139	12
-4312	-6936	14356	6	-10	-20	-12832	-7488	7016	-6	-8	-8	1632	-3304	16320	21	-22	9	-2384	6528	14640	-5	26	-23	-13496	6904	7224	12	-4	19	576	2368	16760	9	-6	12	130	138	12
-4752	-7452	14172	-8	-13	-26	-12536	-7224	6808	21	1	-1	1392	-3248	16544	38	-53	11	-2664	6608	14720	-13	26	-22	-13784	7040	7448	6	2	21	464	2624	16992	4	-5	19	131	139	12
-4784	-7588	14240	-2	-15	-19	-12848	-7224	6968	-5	-6	-11	1240	-3384	16760	19	-17	16	-2352	6216	14576	-6	19	-23	-13688	6848	7384	-11	9	17	528	2496	16336	3	-29	13	126	138	12
-4368	-6924	14396	-9	-11	-19	-12632	-7168	6848	3	-11	-6	1720	-3688	16424	20	40	21	-2416	6688	14312	-4	14	-24	-13312	6856	7472	22	-5	16	720	2160	16600	13	-19	23	127	138	12
-4804	-7436	14292	-6	-17	-20	-12456	-7352	6800	2	-11	2	1696	-3320	16488	35	25	16	-2472	6744	14424	-24	20	-28	-13424	7016	7352	3	0	18	648	2504	16608	6	-18	22	127	140	12
-4568	-7204	14300	6	-14	-19	-12760	-7224	6744	-10	-8	-6	1672	-3464	16472	23	-13	6	-2248	6336	14600	-6	8	-25	-13504	6936	7208	0	3	16	464	2368	16672	7	-11	19	129	139	12
-4492	-7096	14304	3	-8	-24	-12328	-7120	6616	3	-3	2	1704	-3400	16424	28	-27	8	-2464	6584	14376	-15	14	-22	-13512	6816	7376	33	-8	23	568	2416	16696	7	-10	19	129	139	12
-4804	-7600	14312	10	-20	-20	-12680	-7304	6744	-2	-4	-7	1568	-3336	16712	37	-24	16	-2480	6368	14480	-16	17	-27	-13792	6944	7432	9	-3	22	352	2472	16848	2	-14	19	128	139	12
-4540	-7100	14472	19	-15	-20	-12984	-7176	6704	-7	-6	-15	1472	-3520	16656	25	0	19	-2360	6480	14200	-2	15	-18	-13504	6800	7408	5	-2	18	400	2424	16536	10	-10	17	128	138	12
-4624	-7060	14344	3	-7	-28	-12576	-6992	6856	1	-4	0	1704	-3472	16448	28	6	11	-2496	6776	14576	-9	12	-22	-13408	6984	7328	24	-7	19	432	2424	16552	8	-11	18	129	139	12
-4732	-7556	14284	11	-14	-25	-12776	-7544	6656	-8	-9	-6	1472	-3448	16656	26	-8	12	-2368	6448	14400	-17	18	-27	-13760	7088	7336	-8	3	20	344	2504	16712	4	-6	14	129	140	12
-4488	-7084	14392	15	-11	-23	-12752	-7272	6960	-11	-6	-13	1608	-3448	16616	15	-2	13	-2336	6480	14376	-1	15	-22	-13584	6648	7232	-1	-4	17	488	2208	16480	12	-9	21	128	139	12
-4632	-7192	14304	0	-12	-25	-12576	-7208	6984	6	-3	-11	1688	-3472	16512	23	6	13	-2552	6768	14544	-16	15	-28	-13416	7000	7456	25	-13	22	704	2368	16824	8	-15	20	128	139	12
-4700	-7416	14436	13	-15	-23	-12968	-7464	6904	-9	-9	-15	1640	-3344	16728	33	-7	18	-2432	6360	14504	-13	17	-23	-13680	6976	7360	-4	-1	22	672	2256	17016	9	-12	23	127	140	12
-4480	-7072	14556	15	-16	-22	-12800	-7224	7032	-12	-2	-10	1704	-3440	16384	23	0	12	-2200	6400	14504	-1	17	-25	-13416	6736	7216	17	-5	19	680	2552	16800	9	-15	14	128	139	12
-4712	-7420	14288	4	-13	-25	-12432	-7392	6728	7	-1	0	1760	-3504	16552	29	-3	1	-2424	6624	14504	-19	17	-29	-13576	7208	7576	25	-7	25	728	2328	17040	6	-18	12	127	139	12
-4728	-7360	14268	2	-16	-24	-12640	-7504	6936	-5	-6	-9	1592	-3480	17016	21	-4	5	-2360	6320	14312	-17	16	-27	-13632	7064	7472	-3	1	21	392	2400	16728	7	-16	13	127	140	12
-4376	-6892	14388	14	-13	-14	-12608	-7272	6976	0	-6	0	1552	-3304	16280	12	2	-2	-2248	6440	14784	-9	19	-26	-13360	6792	7400	7	-3	17	672	2320	16480	8	-19	17	127	139	12
-4720	-7320	14376	6	-15	-25	-12496	-7112	6880	13	5	-1	1672	-3352	16792	18	-4	8	-2640	6792	14760	-17	16	-22	-13576	7064	7752	10	-6	17	456	2352	16912	-7	-19	17	128	139	12
-4556	-7148	14352	11	-18	-18	-12904	-7184	6648	-16	-6	-13	1576	-3384	16728	13	-8	12	-2472	6256	14352	-12	20	-27	-13632	6816	7376	-11	2	18	632	2424	16696	-1	-20	13	128	140	12
-4320	-6804	14256	1	-3	-15	-12728	-7040	6736	-5	0	-5	1552	-3408	16160	12	7	12	-2400	6584	14424	-6	17	-21	-13392	6736	7240	29	-13	11	696	2520	16728	3	-16	14	128	139	12
-4788	-7452	14348	2	-12	-23	-12352	-7432	6448	0	-1	-7	1584	-3432	16488	26	1	11	-2368	6616	14392	-24	17	-29	-13696	6992	7136	11	-8	16	496	2448	16680	2	-13	16	128	139	12
-4640	-7252	14392	12	-22	-19	-12848	-7320	6816	-12	-10	-20	1400	-3440	16528	15	6	15	-2248	6352	14464	-12	14	-24	-13696	6856	7184	-6	4	16	536	2368	16488	10	-8	18	127	139	12
-4404	-6972	14452	-1	-5	-25	-12632	-7256	6968	8	-2	-12	1664	-3472	16376	22	7	5	-2368	6616	14496	-10	14	-29	-13408	6840	7224	15	-9	15	680	2376	16840	1	-12	22	128	138	12
-4784	-7548	14284	1	-14	-29	-12640	-7312	6864	5	-1	-13	1624	-3296	16648	32	-12	9	-2488	6592	14640	-24	17	-26	-13728	7024	7360	1	-1	11	608	2344	16808	-3	-15	23	127	139	12
-4496	-7252	14284	6	-4	-19	-12808	-7376	6904	-17	-8	-16	1456	-3536	16400	22	-10	14	-2344	6192	14696	-8	17	-25	-13648	6592	7376	-1	2	15	656	2320	16792	0	-15	16	127	139	12
-4496	-7120	14224	-6	-3	-26	-12416	-7272	6520	-4	-3	-7	1808	-3576	16416	23	1	10	-2416	6624	14336	-14	22	-26	-13456	6920	7408	31	-12	16	784	2256	16872	0	-20	21	127	139	12
-4752	-7592	14308	6	-7	-22	-12728	-7512	7032	-9	-6	-10	1656	-3488	16672	29	-6	10	-2256	6384	14608	-18	22	-28	-13744	7160	7264	7	-1	21	616	2288	16872	3	-19	14	127	140	12
-4768	-7568	14272	14	-19	-21	-12872	-7432	6736	-11	-1	-9	1664	-3624	16592	14	-7	11	-2240	6336	14528	1	18	-22	-13488	6768	7552	4	1	16	504	2344	16392	11	-14	17	127	139	12
-4584	-7200	14420	5	-12	-20	-12872	-7368	6824	-7	-4	-8	1680	-3712	16608	24	-2	4	-2408	6704	14768	-15	17	-28	-13560	7176	7448	15	-8	21	544	2144	16992	1	-21	16	128	139	12
-4728	-7476	14324	17	-16	-19	-12776	-7488	6856	-1	-4	-1	1616	-3416	16792	25	-6	10	-2424	6432	14760	-16	16	-23	-13784	6904	7232	-17	8	24	304	2304	16800	3	-13	14	128	139	12
-4392	-7068	14392	17	-7	-16	-12768	-7168	6696	-2	-7	2	1720	-3544	16144	16	4	7	-2296	6568	14440	1	21	-21	-13376	6656	7032	4	-10	23	608	2216	16472	9	-12	15	128	139	12
-4736	-7244	14248	6	-11	-24	-12360	-7240	6520	15	-2	8	1728	-3472	16568	27	7	8	-2560	6760	14576	-13	11	-24	-13384	7024	7288	36	-14	27	448	2392	16776	8	-13	17	128	139	12
-4748	-7380	14324	18	-22	-17	-12736	-7584	7040	-3	-7	1	1560	-3360	16592	24	-1	7	-2520	6488	14632	-13	16	-23	-13664	7024	7192	12	-6	26	304	2344	16696	16	-15	13	128	139	12
-4348	-6964	14340	14	-14	-19	-12880	-7160	6872	-7	-7	-5	1736	-3376	16280	22	1	1	-2376	6488	14576	-1	19	-23	-13432	6832	7720	22	-8	22	632	2368	16832	15	-17	22	127	138	12
-4724	-7316	14324	6	-19	-22	-12768	-7352	6808	4	-4	-5	1744	-3424	16648	37	-5	6	-2616	6640	14584	-10	16	-20	-13536	7120	7432	20	-10	21	488	2416	16800	1	-22	19	127	138	12
-4700	-7272	14432	18	-12	-19	-12648	-7416	6752	3	-1	-1	1592	-3352	16616	29	-7	10	-2440	6440	14408	-11	14	-22	-13632	6824	7376	-8	4	22	584	2488	16600	4	-18	20	128	138	12
-4324	-6876	14280	9	-8	-18	-12560	-7152	6728	1	-5	-1	1584	-3432	16384	21	1	6	-2512	6648	14520	-7	18	-22	-13400	6920	7256	17	-8	15	712	2352	16568	6	-11	16	127	138	12
-4684	-7396	14104	5	-12	-23	-12496	-7344	6752	10	0	2	1696	-3336	16600	28	4	7	-2520	6672	14520	-15	18	-28	-13640	7168	7240	16	-3	23	640	2440	16824	7	-15	22	127	138	12
-4628	-7328	14384	15	-14	-16	-12928	-7400	6656	-1	-3	-4	1488	-3488	16720	13	-5	6	-2240	6272	14592	-15	14	-27	-13640	6816	7312	-5	4	21	416	2408	16560	9	-13	14	127	138	12
-4404	-6932	14340	9	-8	-16	-12560	-7112	6952	9	-2	-2	1632	-3360	16688	12	9	5	-2448	6576	14696	-6	16	-24	-13464	6960	7264	21	-9	16	576	2448	16872	11	-18	16	128	138	12
-4824	-7412	14304	8	-9	-19	-12680	-7352	6728	9	1	-3	1528	-3280	16424	26	-2	11	-2416	6536	14528	-22	19	-23	-13816	7112	7528	0	-2	14	464	2520	16832	-5	-22	13	128	139	12
-4552	-7152	14472	8	-10	-21	-12728	-7248	6960	-7	-5	-9	1424	-3416	16496	14	-4	6	-2424	6344	14536	-9	25	-23	-13608	6672	7424	-6	5	13	520	2560	16504	1	-18	16	128	139	12
-4396	-6968	14396	-4	-2	-19	-12440	-7056	6896	5	0	-4	1656	-3448	16304	16	2	7	-2416	6648	14400	-6	24	-23	-13360	6928	7200	25	-7	16	656	2328	16824	2	-18	18	127	139	12
-4792	-7460	14196	-4	-16	-22	-12624	-7472	6712	0	-4	-9	1504	-3264	16592	27	-3	13	-2544	6432	14680	-22	21	-27	-13848	7232	7512	3	0	19	352	2336	17024	-2	-16	12	127	139	12
-4560	-7116	14428	-1	-20	-20	-12888	-7344	7112	-9	-9	-14	1624	-3584	16488	12	-3	8	-2288	6336	14424	-8	18	-24	-13632	6776	7424	-4	2	13	488	2392	16664	4	-17	15	128	139	12
-4568	-7120	14324	-14	-10	-22	-12592	-7264	7096	7	2	-3	1632	-3400	16632	22	3	4	-2536	6840	14352	-12	16	-21	-13568	6992	7488	11	-6	11	432	2280	16592	1	-22	21	128	138	12
-4808	-7560	14272	1	-10	-23	-12808	-7416	6920	-3	5	-9	1632	-3424	16736	27	-1	10	-2472	6528	14608	-19	14	-28	-13712	6984	7472	-5	2	15	696	2272	17016	-2	-20	18	128	139	12
-4704	-7380	14356	5	-13	-22	-12616	-7448	6672	-8	1	-4	1696	-3560	16416	14	-6	6	-2384	6304	14680	-21	14	-27	-13384	6704	7392	6	-5	16	680	2296	16648	8	-17	17	127	138	12
-4608	-7216	14220	2	-6	-20	-12400	-7344	6680	10	-1	-3	1656	-3448	16512	22	6	4	-2488	6720	14408	-20	14	-28	-13520	6904	7160	27	-10	19	704	2312	16920	1	-18	24	128	139	12
-4728	-7416	14296	20	-19	-20	-12840	-7616	7000	-6	-4	-12	1496	-3448	16568	16	-1	6	-2400	6376	14768	-17	15	-28	-13704	6984	7376	4	5	25	384	2416	16616	4	-9	20	127	139	12
-4408	-7004	14412	21	-12	-19	-12728	-7248	6856	-8	-1	-8	1616	-3528	16608	14	7	6	-2344	6584	14552	-4	17	-25	-13336	6728	7320	10	-6	13	488	2136	16632	10	-11	21	127	139	12
-4712	-7404	14256	10	-13	-23	-12552	-7352	6528	4	-5	-2	1568	-3264	16632	31	-2	6	-2664	6600	14656	-19	16	-24	-13640	6992	7384	8	-9	22	616	2312	17040	4	-14	19	128	139	12
-4648	-7316	14376	17	-21	-15	-12880	-7424	6952	-11	-10	-4	1432	-3520	16720	26	-7	11	-2384	6264	14592	-6	16	-20	-13768	6856	7232	-13	2	18	584	2400	16552	5	-9	17	127	139	12
-4288	-6848	14320	6	-6	-23	-12560	-7320	6824	-9	-7	-6	1536	-3640	16328	19	1	4	-2344	6632	14456	-1	18	-19	-13272	6744	7288	27	-9	20	568	2352	16504	13	-17	14	128	138	12
-4688	-7380	14104	9	-11	-22	-12456	-7552	6776	10	-7	0	1728	-3304	16552	32	0	7	-2328	6816	14400	-13	9	-23	-13608	7024	7416	26	-7	26	664	2480	17096	6	-13	12	127	138	12
-4648	-7268	14308	17	-14	-17	-12848	-7480	6816	-1	-10	-6	1552	-3448	16496	14	1	1	-2304	6328	14376	-10	13	-22	-13848	6792	7136	3	-3	19	648	2480	16912	5	-12	10	127	139	12
-4408	-7024	14292	11	-9	-19	-12688	-7216	6984	14	-7	-7	1584	-3408	16320	20	3	-2	-2360	6600	14432	-8	15	-24	-13456	6928	7360	16	-9	17	432	2496	16464	-1	-18	16	127	138	12
-4856	-7496	14196	10	-10	-19	-12712	-7392	6744	17	0	-4	1696	-3424	16712	25	-1	1	-2600	6480	14544	-13	15	-26	-13776	6976	7464	-9	6	17	600	2448	16944	-3	-19	18	127	139	12
-4592	-7156	14332	14	-11	-17	-12744	-7168	6880	-12	-8	-2	1424	-3488	16728	13	-3	2	-2072	6280	14232	-7	19	-22	-13568	6704	7208	-8	4	15	424	2288	16712	4	-12	19	128	139	12
-4456	-7036	14300	6	-9	-19	-12424	-7240	6664	-2	-2	2	1744	-3432	16192	13	5	-1	-2352	6664	14240	-11	15	-24	-13344	6968	7472	31	-9	16	688	2360	16888	6	-16	17	128	139	12
-4844	-7460	14348	9	-19	-22	-12672	-7344	6584	-1	-4	-5	1616	-3440	16736	25	-6	6	-2528	6536	14440	-28	22	-28	-13784	7152	7360	9	-1	22	280	2376	16768	2	-17	17	128	140	12
-4532	-7176	14420	16	-12	-17	-12984	-7144	7088	-2	-4	-8	1568	-3544	16600	16	-7	12	-2280	6456	14280	-5	23	-21	-13744	6992	7328	-5	-2	17	504	2344	16624	10	-20	14	128	140	12
-4668	-7060	14476	-1	-3	-29	-12752	-7176	6632	7	-2	-2	1688	-3368	16424	31	3	2	-2552	6672	14872	-11	18	-29	-13616	7024	7312	8	-5	26	392	2312	17104	3	-21	17	127	139	12
-4748	-7432	14272	12	-16	-18	-12696	-7336	6632	-1	-6	-3	1560	-3320	16560	34	-5	7	-2496	6568	14688	-16	14	-22	-13688	6944	7016	-2	-7	23	448	2256	16760	2	-20	12	128	139	12
-4464	-7056	14324	11	-14	-18	-12704	-7456	6928	4	-7	-1	1552	-3288	16616	20	5	-2	-2392	6632	14520	3	19	-24	-13424	6728	7424	21	-16	22	632	2320	16632	11	-22	14	128	139	12
-4672	-7268	14296	-2	-7	-22	-12344	-7336	6632	24	-1	2	1736	-3424	16504	25	11	-1	-2616	6784	14760	-14	7	-22	-13512	7000	7360	34	-19	29	616	2328	17120	6	-23	11	128	139	12
-4692	-7368	14376	20	-21	-17	-13096	-7488	6696	3	-8	-11	1488	-3112	16664	19	6	-1	-2480	6640	14712	-10	14	-23	-13928	7072	7592	-2	-7	22	408	2696	16784	6	-23	13	128	139	12
-4368	-6912	14472	14	-12	-21	-12824	-6936	7024	-6	-8	-7	1480	-3568	16304	16	6	-1	-2304	6616	14584	-2	12	-20	-13400	7008	7072	12	-8	19	680	2576	16600	8	-22	17	128	139	12
-4736	-7348	14312	-1	-8	-22	-12440	-7320	6872	-2	-7	2	1640	-3280	16632	33	-2	5	-2584	6736	14664	-17	17	-27	-13528	7216	7368	12	-3	16	632	2392	16920	2	-19	23	128	139	12
-4564	-7292	14468	9	-15	-20	-12832	-7288	6872	-26	-14	-14	1608	-3320	16656	26	-2	14	-2232	6448	14480	-17	17	-20	-13688	6944	7280	-11	2	14	576	2416	16416	9	-17	24	127	139	12
-4392	-6872	14356	1	-8	-25	-12640	-7208	7024	-7	-7	-7	1792	-3488	16440	20	-1	9	-2376	6704	14280	-11	19	-26	-13376	6832	7176	19	-6	10	760	2408	16784	13	-17	22	127	139	12
-4788	-7484	14236	-2	-13	-26	-12560	-7448	6624	8	9	-13	1696	-3232	16864	26	-3	13	-2424	6824	14704	-22	16	-26	-13584	7056	7312	16	-2	15	712	2280	16832	3	-14	23	128	139	12
-4524	-7208	14468	11	-15	-20	-12664	-7480	6552	-6	1	-16	1736	-3440	16600	14	0	14	-2536	6672	14632	-20	16	-24	-13640	6744	7400	2	4	14	544	2328	16832	4	-7	16	128	139	12
-4388	-7080	14368	5	-4	-21	-12648	-7256	6848	14	-1	-8	1576	-3488	16424	20	7	10	-2448	6536	14512	-16	16	-26	-13480	6848	7320	14	-3	11	456	2280	16760	-4	-10	15	128	139	12
-4816	-7544	14300	5	-12	-22	-12784	-7416	6896	5	1	-15	1616	-3384	16784	26	-3	13	-2432	6456	14736	-21	17	-29	-13656	6944	7424	-7	7	12	464	2296	17128	-11	-11	16	128	139	12
-4520	-7084	14424	14	-6	-17	-12848	-7320	6712	-18	-5	-11	1608	-3528	16488	9	-3	10	-2216	6472	14560	-3	21	-25	-13648	6704	7296	-2	2	9	424	2280	16488	5	-17	16	128	139	12
-4520	-7108	14252	3	-4	-25	-12504	-7280	6504	-1	-6	-3	1640	-3584	16488	15	-2	8	-2544	6752	14456	-13	21	-24	-13544	7112	7576	20	-6	12	544	2256	16704	5	-24	25	128	138	12
-4732	-7540	14268	10	-14	-21	-12680	-7368	7176	-16	-9	-8	1416	-3432	16736	24	-13	13	-2480	6424	14544	-17	19	-30	-13720	6976	7200	-10	5	14	384	2328	16736	6	-22	23	127	138	12
-4444	-7124	14412	18	-11	-18	-12832	-7392	6808	-21	-10	-6	1576	-3552	16400	9	-5	9	-2416	6424	14472	-3	21	-25	-13512	6704	7504	-7	-3	13	512	2272	16320	9	-18	20	127	139	12
-4728	-7208	14216	3	-10	-24	-12536	-7368	6832	9	-2	4	1680	-3504	16536	20	-5	-3	-2536	6656	14464	-16	17	-26	-13592	7056	7400	21	-5	20	352	2200	16776	-1	-24	12	128	139	12
-4728	-7356	14348	19	-17	-16	-12592	-7472	6712	9	-4	2	1424	-3352	16960	15	-8	-2	-2368	6416	14528	-9	13	-27	-13808	6824	7304	15	1	20	520	2384	16984	-2	-20	9	128	139	12
-4388	-7060	14328	15	-15	-16	-12712	-7184	6752	4	-7	0	1736	-3488	16368	3	2	-7	-2312	6448	14392	-2	13	-22	-13328	6792	7472	31	-20	24	496	2424	16792	-1	-16	0	128	140	12
-4772	-7248	14328	5	-9	-26	-12576	-7136	6792	17	0	3	1720	-3400	16624	18	5	2	-2576	6592	14408	-13	16	-25	-13632	7160	7296	28	-16	24	440	2328	16784	4	-23	7	128	139	12
-4764	-7280	14296	12	-10	-21	-13104	-7296	6920	-8	-7	-7	1504	-3168	16784	14	2	10	-2488	6656	14568	-11	16	-27	-13704	7032	7376	-18	2	21	408	2352	16672	5	-16	10	128	139	12
-4452	-6924	14312	6	-8	-17	-12728	-7112	6920	-9	-4	-6	1816	-3568	16624	12	2	17	-2272	6552	14400	-5	25	-20	-13360	6896	7456	2	-5	15	568	2304	16656	12	-20	16	128	139	12
-4772	-7432	14220	-4	-16	-20	-12488	-7456	6976	2	-4	1	1728	-3400	16680	30	-7	16	-2608	6624	14440	-15	24	-25	-13752	7104	7208	11	2	19	688	2456	17016	3	-18	20	128	140	12
-4584	-7300	14432	4	-15	-14	-12992	-7344	6984	-8	-7	-10	1488	-3392	16456	28	-15	15	-2304	6448	14496	-5	24	-22	-13512	6896	7256	3	-4	21	592	2480	16560	10	-18	23	127	139	12
-4568	-7124	14560	3	-13	-22	-12472	-7176	6816	8	-5	-2	1768	-3552	16432	26	2	12	-2408	6680	14336	-6	18	-24	-13288	7000	7424	30	-9	13	696	2344	16680	15	-14	25	127	138	12
-4768	-7448	14288	-10	-14	-25	-12408	-7392	6824	9	3	-5	1800	-3376	16656	32	-3	17	-2424	6816	14568	-25	16	-28	-13560	7032	7480	4	3	14	496	2320	16792	10	-21	28	128	139	12
-4504	-7180	14348	4	-14	-20	-12992	-7264	6792	-9	-1	-6	1752	-3304	16488	23	-2	16	-2304	6200	14552	-11	13	-22	-13576	6888	7472	-6	8	15	648	2312	16496	10	-19	27	127	139	12
-4436	-7048	14180	1	-10	-22	-12520	-7216	6920	8	-2	3	1760	-3448	16424	18	1	7	-2304	6656	14480	-15	14	-24	-13488	6784	7280	22	-3	8	640	2344	16888	3	-19	19	126	140	12
-4584	-7140	14228	-3	-8	-21	-12496	-7640	7120	-3	-4	-7	1480	-3248	16880	27	-8	8	-2368	6600	14576	-18	17	-29	-13904	6968	7136	-1	-1	19	352	2280	16736	-2	-21	19	127	139	12
-4536	-7088	14428	16	-10	-20	-12912	-7296	6864	-10	6	-8	1584	-3512	16496	3	3	-3	-2176	6224	14560	-2	15	-22	-13584	6872	7192	0	-6	8	472	2360	16488	7	-24	9	127	139	12
-4588	-7156	14264	5	-7	-19	-12304	-7128	6664	3	3	0	1720	-3376	16336	14	0	-6	-2512	6800	14576	-7	13	-21	-13312	6968	7384	28	-10	16	520	2304	16744	-4	-25	15	128	140	12
-4736	-7428	14212	19	-16	-21	-12688	-7408	6936	-15	-5	-12	1464	-3464	16432	20	0	2	-2448	6464	14368	-19	16	-29	-13696	7008	7072	4	2	15	600	2320	16920	-3	-12	15	129	139	12
-4416	-7068	14348	14	-15	-19	-12776	-7256	6920	-22	-5	-9	1568	-3512	16728	11	0	8	-2176	6448	14376	-6	20	-26	-13560	6824	7264	6	-1	15	672	2280	16632	3	-8	13	128	139	12
-4392	-7060	14316	14	-12	-20	-12632	-7328	6752	2	-1	-9	1640	-3560	16880	25	5	10	-2512	6840	14496	-17	14	-28	-13672	7264	7512	23	-7	18	648	2360	16848	0	-9	20	128	139	12
-4736	-7400	14436	16	-11	-21	-12928	-7640	6936	-5	-5	-9	1456	-3464	16736	26	-1	12	-2544	6240	14512	-16	18	-29	-13864	6904	7328	-7	5	18	320	2288	16608	4	-14	25	128	139	12
-4424	-7076	14300	16	-9	-18	-12664	-7280	7112	4	-4	0	1680	-3528	16384	19	-9	8	-2304	6488	14344	-3	21	-22	-13376	6680	7480	15	0	11	632	2144	16688	10	-23	27	127	138	12
-4732	-7404	14176	4	-12	-24	-12384	-7312	6664	20	-3	2	1680	-3512	16568	34	-10	11	-2456	6704	14808	-16	17	-25	-13544	6944	7304	23	-3	18	576	2176	16784	10	-22	23	127	138	12
-4720	-7328	14356	22	-21	-19	-12832	-7480	6672	-5	-11	-6	1432	-3544	16664	22	-6	14	-2488	6232	14824	-8	16	-24	-13816	6840	7416	-8	3	18	472	2312	16744	11	-14	18	127	139	12
-4648	-7312	14368	17	-12	-19	-12472	-7320	6728	3	-11	-5	1600	-3528	16544	18	8	9	-2408	6504	14360	-4	19	-22	-13384	6680	7088	12	-13	21	544	2304	16800	9	-9	15	128	138	12
-4816	-7444	14248	7	-15	-24	-12600	-7440	6920	2	0	3	1640	-3552	16512	32	3	6	-2552	6608	14744	-16	16	-22	-13696	7024	7496	18	-11	22	472	2208	16824	3	-16	14	128	138	12
-4556	-7312	14360	16	-17	-16	-12888	-7392	6752	-14	-13	0	1592	-3568	16880	19	0	8	-2344	6112	14560	-3	13	-21	-13552	6752	7488	7	-6	26	528	2360	16888	7	-15	8	127	138	12
-4356	-7024	14212	11	-10	-19	-12560	-7160	6704	0	-6	6	1728	-3504	16328	20	8	2	-2240	6640	14352	2	19	-20	-13240	6752	7480	37	-16	24	712	2368	16584	13	-15	12	127	138	12
-4824	-7508	14212	6	-17	-26	-12480	-7456	6576	11	-2	3	1848	-3408	16600	30	-3	6	-2496	6592	14432	-13	16	-28	-13704	7048	7296	21	-7	29	544	2384	16984	10	-20	15	126	140	12
-4572	-7188	14424	23	-17	-16	-12816	-7408	7072	-4	-7	0	1584	-3560	16512	20	-5	6	-2224	6304	14440	-3	18	-21	-13616	6912	7368	2	1	27	200	2456	16768	19	-22	17	125	138	12
-4488	-7040	14352	3	-7	-18	-12672	-7240	6864	10	-6	7	1688	-3384	16584	27	0	2	-2536	6680	14696	-4	15	-22	-13456	6864	7512	12	-12	19	600	2464	17064	13	-27	19	127	138	12
-4800	-7628	14220	12	-17	-20	-12600	-7296	7120	9	-6	4	1704	-3184	16512	31	-7	-5	-2528	6472	14656	-9	19	-26	-13816	7056	7168	-6	-8	24	592	2672	16760	-2	-26	14	128	137	12
-4468	-7112	14304	16	-14	-18	-12648	-7128	7056	1	-5	1	1624	-3360	16496	7	-6	-3	-2184	6608	14576	2	15	-20	-13384	6648	7320	10	-3	15	872	2360	16360	5	-13	10	128	138	12
-4452	-7076	14396	9	-11	-22	-12392	-7184	6800	3	1	-3	1888	-3392	16712	11	15	2	-2528	6808	14344	-10	13	-24	-13336	7224	7616	35	-12	19	784	2448	16848	5	0	14	128	138	12
-4704	-7448	14412	15	-19	-22	-12616	-7192	6528	-17	-6	-9	1592	-3168	17120	12	16	14	-2488	6488	14600	-23	15	-29	-13360	7112	7472	39	-8	18	496	2488	16920	7	-3	17	127	138	12
-4468	-6968	14648	9	-8	-20	-13048	-7392	6968	-24	-4	-13	1528	-3520	16600	9	12	5	-2344	6472	14176	-13	17	-21	-13528	6792	7648	0	-1	15	328	2384	16848	6	-17	20	128	138	12
-4636	-7196	14448	-3	-5	-27	-12584	-7256	7080	-2	10	-1	1576	-3552	16632	28	-8	0	-2424	6704	14736	-17	18	-27	-13552	7080	7592	11	-4	6	584	2160	17024	-4	-35	29	129	138	12
-4660	-7464	14308	9	-17	-21	-12760	-7480	6888	0	-1	-7	1512	-3408	16704	29	-22	7	-2416	6584	14520	-21	15	-29	-13760	7008	7424	-19	16	10	440	2280	16808	-3	-30	22	128	138	12
-4384	-6948	14384	10	-10	-25	-12688	-7216	6704	1	0	-3	1760	-3464	16488	14	-6	10	-2192	6504	14456	-7	18	-24	-13544	6544	7432	4	0	11	672	2392	16464	5	-20	21	128	138	12
-4720	-7304	14260	-3	-13	-28	-12416	-7168	6664	15	6	-2	1600	-3440	16504	24	-1	13	-2592	6576	14456	-21	14	-24	-13512	6960	7320	35	-13	21	480	2400	16824	1	-15	11	128	138	12
-4760	-7320	14272	15	-17	-14	-12976	-7504	6880	-6	-3	-5	1528	-3456	16776	14	-1	17	-2328	6344	14568	-17	15	-28	-13776	6968	7512	12	-4	24	504	2360	16784	2	-11	16	128	138	12
-4656	-7280	14348	11	-9	-23	-12800	-7248	6848	2	-6	-7	1432	-3592	16544	7	7	6	-2312	6296	14664	-15	14	-23	-13408	6840	7360	16	-13	11	440	2336	16664	6	-12	17	128	138	12
-4816	-7464	14292	2	-7	-20	-12608	-7440	6736	7	-5	-3	1544	-3464	16584	25	1	12	-2488	6696	14656	-20	15	-27	-13696	7144	7368	-3	4	11	472	2176	16936	-1	-19	22	128	138	12
-4552	-7232	14476	17	-12	-18	-12920	-7328	6928	-15	-12	-10	1400	-3488	16504	20	-6	10	-2376	6240	14392	-7	15	-19	-13704	6664	7272	-23	10	13	536	2264	16544	10	-14	20	127	140	12
-4416	-6980	14220	9	-2	-21	-12504	-7152	6880	-6	-13	-4	1504	-3456	16224	24	0	5	-2400	6608	14176	-3	15	-20	-13440	6904	7304	24	-8	10	584	2296	16696	14	-18	19	126	137	12
-4800	-7516	14296	6	-14	-22	-12440	-7544	6720	-5	-14	-1	1512	-3416	16800	33	-4	1	-2376	6576	14496	-18	14	-28	-13728	6960	7352	17	-14	26	256	2312	17040	12	-16	18	127	139	12
-4628	-7168	14368	16	-20	-17	-12992	-7544	6808	-2	-13	-6	1664	-3544	16384	17	2	1	-2368	6168	14336	-4	11	-22	-13552	6592	7368	8	-14	26	584	2376	16608	14	-17	11	128	137	12
-4512	-7072	14360	6	-12	-19	-12384	-7120	6616	8	-7	-4	1872	-3488	16368	23	-3	-4	-2408	6632	14576	-1	9	-21	-13424	6824	7256	40	-18	21	672	2400	16928	-2	-13	7	127	139	12
-4756	-7620	14304	9	-18	-21	-12584	-7504	6936	8	-2	-5	1616	-3352	16944	27	5	-3	-2472	6504	14576	-11	19	-24	-13680	7080	7560	13	-6	23	616	2416	16936	-9	-13	8	128	139	12
-4444	-7108	14456	11	-12	-19	-12864	-7096	7088	-4	-5	-11	1600	-3400	16664	6	20	6	-2088	6328	14480	1	22	-20	-13560	6712	7520	4	-4	16	712	2400	16736	2	-15	5	128	138	12
-4532	-7084	14308	-1	-8	-20	-12616	-7248	7232	10	3	-6	1800	-3152	16496	20	3	2	-2328	6872	14720	-11	25	-27	-13432	7240	7544	22	-10	15	728	2496	16992	0	-24	17	129	138	12
-4716	-7420	14324	-2	-8	-20	-12712	-7392	6816	-11	1	-7	1528	-3392	16624	23	-12	11	-2464	6464	14552	-22	27	-32	-13624	7192	7600	-26	4	15	728	2512	16944	-1	-26	19	127	139	12
-4380	-7060	14352	-2	-13	-19	-12632	-7224	6848	-14	1	-4	1552	-3528	16496	13	-6	15	-2240	6528	14368	-12	19	-28	-13440	6768	7696	-17	14	2	512	2368	16512	7	-19	30	127	139	12
-4756	-7364	14276	-12	-6	-23	-12592	-7384	6704	13	3	-1	1736	-3464	16616	29	-1	18	-2552	6752	14480	-21	18	-30	-13712	7000	7216	0	16	3	464	2280	16728	6	-14	40	127	138	12
-4672	-7328	14324	6	-15	-19	-12872	-7448	6824	1	-3	-6	1568	-3504	16472	32	-1	20	-2520	6368	14528	-22	19	-31	-13776	6856	7032	-6	11	13	280	2248	16464	9	-16	34	127	138	12
-4372	-6988	14352	6	-10	-18	-12584	-7168	6952	2	-2	-6	1608	-3608	16376	15	0	10	-2312	6440	14464	-8	13	-24	-13520	6600	7080	34	-6	14	584	2040	16672	14	-14	25	128	138	12
-4764	-7488	14200	3	-11	-25	-12568	-7336	6512	12	10	-1	1776	-3440	16536	33	0	7	-2568	6640	14632	-21	12	-30	-13640	6880	7312	44	-15	21	368	2264	16560	9	-10	24	129	139	12
-4620	-7276	14332	22	-13	-20	-12888	-7448	6656	-9	0	-11	1512	-3544	16920	27	-1	12	-2480	6056	14544	-10	14	-24	-13880	6664	7448	2	-2	18	384	2248	16696	11	-14	13	127	139	12
-4432	-6904	14360	7	-10	-22	-12552	-7288	6776	-5	-4	-11	1632	-3456	16584	24	1	5	-2376	6592	14184	-4	8	-14	-13528	6736	7336	21	-16	21	520	2248	16784	5	-17	9	127	138	12
-4812	-7460	14348	15	-11	-26	-12624	-7464	6920	-4	-7	1	1776	-3344	16728	31	-5	0	-2416	6584	14760	-6	13	-23	-13704	7096	7408	0	-12	24	552	2416	17288	-4	-20	7	127	139	12
-4544	-7188	14432	23	-15	-17	-12752	-7400	6736	-21	-14	-4	1736	-3376	16744	14	-4	5	-2296	6376	14664	4	11	-19	-13632	6840	7144	-12	-3	26	672	2432	16712	5	-15	2	127	139	12
-4448	-7024	14348	9	-12	-22	-12456	-7256	6680	1	-6	3	1696	-3424	16392	12	-2	3	-2400	6592	14464	-2	16	-16	-13456	7000	7448	16	-10	26	760	2360	16880	6	-15	10	127	138	12
-4828	-7412	14264	16	-12	-22	-12552	-7368	7032	4	-6	3	1744	-3376	16584	25	2	8	-2440	6592	14376	-16	16	-27	-13648	7200	7392	7	-2	25	472	2448	16856	1	-11	15	127	138	12
-4532	-7120	14464	21	-13	-14	-12784	-7328	6744	2	-4	-3	1456	-3464	16600	16	3	10	-2360	6456	14720	-13	16	-25	-13504	6768	7584	9	-1	19	528	2408	16560	14	-12	20	127	138	12
-4560	-7128	14248	11	-9	-25	-12448	-7240	6960	23	0	5	1688	-3416	16488	23	2	6	-2488	6744	14592	-10	17	-24	-13480	6944	7416	31	-4	18	480	2504	16904	10	-20	27	128	138	12
-4820	-7540	14332	15	-18	-21	-12864	-7248	6952	14	-6	-2	1480	-3272	16488	32	-5	14	-2480	6464	14640	-21	17	-31	-13824	7080	7136	1	3	16	464	2416	16720	7	-23	32	128	139	12
-4400	-7012	14392	15	-13	-17	-12960	-7312	7000	8	-6	-4	1632	-3280	16504	21	-5	3	-2264	6448	14512	-6	20	-23	-13448	6840	7280	-2	0	11	744	2544	16624	6	-16	27	128	138	12
-4680	-7200	14296	-5	-5	-27	-12688	-7048	6776	-4	-11	-5	1856	-3248	16440	28	-1	11	-2456	6760	14600	-17	20	-30	-13400	6960	7320	15	-2	10	568	2392	16896	2	-12	25	128	138	12
-4740	-7416	14288	12	-11	-20	-12736	-7488	7016	-17	-5	-20	1616	-3392	16336	24	0	13	-2272	6384	14576	-16	17	-33	-13792	6912	7400	-8	3	17	584	2480	16776	-1	-10	15	127	138	12
-4364	-6976	14308	7	-4	-22	-12568	-7296	7168	-7	-8	-16	1680	-3472	16568	11	1	6	-2488	6456	14424	-4	19	-24	-13400	6720	7264	9	-8	12	464	2448	16688	1	-10	14	128	138	12
-4728	-7364	14372	-2	-13	-29	-12632	-7440	6848	17	-1	-9	1592	-3432	16704	25	-1	6	-2464	6648	14360	-18	16	-25	-13672	7032	7336	18	-9	14	624	2248	16968	-4	-18	14	128	139	12
-4620	-7236	14268	9	-13	-18	-12744	-7456	6648	-1	-2	-10	1424	-3584	16712	21	-3	11	-2400	6328	14600	-8	16	-23	-13584	7120	7496	8	-6	17	368	2368	16552	1	-16	15	128	138	12
-4400	-6964	14328	2	-10	-22	-12736	-7192	6768	1	-4	-8	1776	-3640	16568	18	2	10	-2352	6504	14720	-11	18	-25	-13440	6792	7496	17	-10	14	784	2320	16848	9	-18	16	127	138	12
-4800	-7472	14292	2	-7	-27	-12552	-7400	6728	6	-3	-4	1584	-3528	16680	36	-3	14	-2480	6768	14568	-16	17	-29	-13680	6936	7408	8	-3	17	472	2424	17072	0	-16	24	127	138	12
-4736	-7288	14328	19	-19	-16	-12864	-7488	7072	-15	-8	-6	1600	-3416	16880	24	2	16	-2216	6208	14512	-6	17	-23	-13712	6664	7192	2	-2	15	448	2384	16840	11	-13	18	127	139	12
-4424	-7084	14244	5	-6	-19	-12464	-7328	6792	4	-6	-6	1616	-3528	16440	23	4	9	-2400	6632	14760	-8	17	-24	-13496	6992	7104	30	-13	20	672	2344	16784	11	-17	21	127	139	12
-4820	-7556	14340	9	-18	-20	-12440	-7264	6752	3	-8	-2	1664	-3336	16664	30	-6	6	-2536	6520	14392	-11	17	-24	-13808	7128	7304	6	0	18	504	2328	16872	5	-20	14	127	139	12
-4504	-7116	14412	18	-17	-16	-12824	-7392	6960	-8	-7	-2	1664	-3552	16544	11	-2	-4	-2272	6448	14272	-4	17	-18	-13480	6800	7240	0	-4	19	624	2472	16632	11	-18	11	128	139	12
-4516	-7068	14212	8	-5	-19	-12320	-7248	6928	5	-3	5	1792	-3344	16456	15	5	-5	-2480	6856	14504	-8	16	-23	-13200	7008	7280	23	-10	20	768	2472	16632	4	-26	16	128	139	12
-4780	-7496	14308	19	-14	-19	-12632	-7392	7032	-1	-7	2	1704	-3216	16712	20	-6	2	-2424	6504	14696	-19	17	-32	-13624	6928	7088	-2	-1	22	536	2328	16936	-3	-19	10	127	139	12
-4436	-7100	14384	13	-19	-18	-12672	-7200	7192	-12	1	-3	1632	-3432	16256	7	3	8	-2256	6416	14336	-7	16	-22	-13576	6680	7512	9	-3	20	584	2400	16544	1	-15	13	128	139	12
-4656	-7220	14292	3	-11	-24	-12584	-7320	6616	9	1	-1	1736	-3400	16760	25	-2	8	-2448	6720	14536	-11	14	-24	-13616	7008	7512	25	-6	20	504	2392	17040	3	-13	22	128	138	12
-4704	-7356	14344	14	-17	-20	-12928	-7224	6968	-5	-4	-11	1528	-3464	16968	33	-9	17	-2456	6568	14464	-13	18	-30	-13760	6936	7424	-9	4	13	344	2336	16800	7	-15	23	127	138	12
-4324	-7008	14500	10	-9	-20	-12776	-7224	7128	-9	-4	-8	1592	-3384	16280	27	-4	15	-2280	6416	14432	-6	16	-17	-13488	6776	7280	10	-3	13	608	2312	16456	14	-16	24	128	138	12
-4776	-7440	14104	-3	-13	-26	-12456	-7400	6528	5	11	-7	1728	-3416	16584	34	-9	13	-2520	6640	14440	-18	15	-25	-13536	7064	7432	22	-6	20	632	2400	16768	5	-23	21	128	139	12
-4584	-7368	14280	14	-15	-18	-12800	-7416	6552	-4	2	-7	1456	-3376	16720	19	2	12	-2416	6456	14560	-18	15	-24	-13728	6832	7288	3	0	17	400	2280	16952	6	-14	19	128	139	12
-4352	-6992	14256	9	-7	-18	-12720	-7240	6816	11	2	-4	1544	-3512	16480	16	9	-2	-2408	6568	14592	-6	18	-21	-13480	6776	7232	6	-8	16	392	2328	16624	8	-16	18	128	139	12
-4792	-7456	14320	5	-16	-24	-12592	-7400	6704	14	-1	-1	1704	-3264	16680	22	-5	1	-2480	6656	14568	-19	16	-28	-13768	7040	7520	1	-6	21	528	2432	16824	-1	-22	17	128	138	12
-4588	-7196	14480	15	-18	-18	-12872	-7272	7056	-20	-8	-4	1584	-3424	16720	14	-8	2	-2304	6200	14400	-6	13	-27	-13584	6752	7264	-3	3	14	600	2320	16560	5	-20	13	128	138	12
-4488	-7016	14232	8	-9	-23	-12472	-7176	6800	-15	-7	6	1768	-3512	16216	12	1	-1	-2352	6640	14792	-3	23	-26	-13320	6808	7352	28	-9	16	896	2216	16552	8	-15	9	128	138	12
-4804	-7488	14296	5	-18	-21	-12496	-7440	6800	-5	-3	-2	1672	-3384	16568	23	1	7	-2376	6648	14512	-19	22	-25	-13512	7104	7752	14	-7	25	632	2440	16768	5	-15	11	127	139	12
-4560	-7148	14484	13	-16	-16	-12872	-7384	6960	-1	-7	-4	1552	-3552	16720	14	2	7	-2232	6184	14368	-3	24	-28	-13632	6880	7280	3	-7	21	496	2512	16768	7	-15	16	128	139	12
-4568	-7080	14304	-7	-9	-14	-12648	-7288	6768	24	-2	-4	1608	-3512	16584	23	1	8	-2496	6760	14544	-11	21	-27	-13528	7104	7664	17	-9	17	488	2376	16784	4	-19	17	128	138	12
-4800	-7512	14268	-2	-17	-22	-12848	-7464	6712	17	-7	-3	1432	-3272	16688	31	-5	13	-2472	6344	14440	-13	16	-24	-13808	7128	7432	-13	6	20	440	2456	16768	-3	-18	21	128	139	12
-4380	-7080	14368	-1	-10	-21	-12816	-7192	6952	-8	-5	-3	1728	-3528	16392	21	2	11	-2288	6464	14496	-5	18	-23	-13496	6808	7472	-5	1	15	680	2264	16496	6	-19	21	128	138	12
-4616	-7232	14188	-8	-8	-27	-12400	-7280	6592	5	-2	-2	1632	-3320	16592	24	-6	11	-2656	6760	14456	-19	10	-22	-13488	7000	7560	23	-11	14	704	2288	16800	11	-19	21	128	139	12
-4652	-7292	14172	11	-18	-15	-12760	-7416	6568	-5	-7	-9	1536	-3440	16680	23	-7	11	-2512	6504	14592	-16	15	-25	-13808	6976	7200	6	-1	19	520	2432	16688	11	-13	17	128	139	12
-4320	-6948	14392	12	-10	-17	-12744	-7336	6952	-10	-5	-5	1680	-3488	16424	11	5	5	-2368	6616	14328	-6	17	-21	-13488	6768	7240	15	-5	17	440	2376	16648	7	-10	15	128	138	12
-4716	-7396	14388	10	-11	-22	-12552	-7328	6776	7	-4	-1	1832	-3448	16600	26	2	5	-2432	6696	14672	-17	8	-26	-13552	7192	7232	8	-4	15	520	2328	16968	0	-16	16	128	138	12
-4704	-7280	14424	25	-17	-18	-12944	-7392	6768	-12	-5	-4	1440	-3448	16664	18	-4	8	-2448	6232	14792	-9	12	-24	-13848	6792	7224	-8	2	21	384	2392	16704	1	-20	18	128	138	12
-4388	-7004	14300	12	-9	-22	-12552	-7192	6712	-12	-7	1	1504	-3560	16568	17	-2	5	-2544	6608	14376	-4	15	-27	-13408	6856	7288	25	-11	16	656	2296	16792	5	-21	20	128	138	12
-4776	-7384	14156	9	-15	-25	-12664	-7368	6792	-3	-8	-4	1608	-3392	16616	26	0	3	-2624	6704	14568	-16	17	-30	-13680	6904	7384	17	-7	26	448	2272	16952	-2	-19	15	128	139	12
-4624	-7232	14476	19	-21	-17	-12976	-7392	6744	7	-3	-4	1552	-3504	16616	14	-1	7	-2384	6360	14608	-6	10	-23	-13760	6744	7280	9	1	20	600	2152	16904	8	-17	10	127	139	12
-4544	-7136	14412	20	-7	-20	-12736	-7176	6720	16	1	-1	1768	-3576	16512	22	7	6	-2368	6648	14416	-10	10	-23	-13712	6728	7200	8	-6	23	544	2328	16872	6	-13	17	127	139	12
-4844	-7476	14356	7	-14	-21	-12728	-7336	6960	8	-2	-3	1496	-3472	16768	31	-2	9	-2544	6528	14496	-13	13	-28	-13744	7080	7480	-6	-1	20	464	2400	16768	2	-16	15	128	139	12
-4440	-7092	14468	12	-12	-19	-12832	-7328	6872	-8	-10	-7	1552	-3408	16728	15	1	16	-2216	6360	14528	1	17	-18	-13520	6728	7336	-9	0	22	592	2328	16576	10	-15	16	127	139	12
-4568	-7152	14272	0	-6	-21	-12408	-7192	6768	2	-2	-2	1872	-3568	16528	22	3	9	-2584	6680	14296	-7	18	-25	-13328	6888	7280	24	-8	19	688	2384	16680	5	-12	18	128	138	12
-4716	-7548	14236	13	-16	-23	-12576	-7552	6928	-1	-6	-8	1496	-3392	17064	26	-3	13	-2408	6376	14712	-15	19	-26	-13664	6984	7328	8	-3	24	424	2464	16744	8	-13	21	127	138	12
-4420	-7124	14444	17	-18	-16	-12920	-7256	6976	-7	-1	-7	1640	-3520	16624	13	5	2	-2280	6352	14512	-10	21	-25	-13536	6784	7456	12	-6	19	512	2440	16856	10	-11	20	127	138	12
-4640	-7232	14392	0	-15	-21	-12528	-7328	6880	11	1	0	1632	-3296	16832	25	-2	-1	-2552	6632	14456	-13	16	-25	-13656	7096	7200	18	-8	22	576	2232	17136	4	-20	13	127	138	12
-4756	-7324	14412	15	-21	-12	-12768	-7512	6944	-2	6	-4	1480	-3488	16608	25	-13	-2	-2648	6512	14768	-11	19	-25	-13744	6712	7288	-9	4	20	416	2456	16792	0	-22	15	127	139	12
-4288	-6948	14360	13	-10	-16	-12648	-7176	6744	-1	5	3	1712	-3368	16424	15	0	1	-2224	6504	14264	2	15	-17	-13392	6720	7600	12	-5	16	632	2224	16704	6	-19	11	128	138	12
-4696	-7316	14248	5	-8	-22	-12352	-7248	6792	15	4	9	1592	-3352	16608	25	-4	6	-2328	6704	14784	-15	17	-27	-13472	7008	7520	23	-9	24	640	2440	16936	-2	-21	15	127	138	12
-4716	-7288	14316	16	-20	-16	-12872	-7320	6888	-6	-10	-2	1512	-3456	16736	17	-4	8	-2344	6280	14760	-14	13	-21	-13776	6992	7400	0	2	25	312	2392	16736	7	-17	11	128	139	12
-4388	-6976	14424	10	-7	-18	-12784	-7296	6904	7	-7	-8	1600	-3416	16424	14	4	9	-2352	6776	14504	-2	17	-21	-13472	6824	7200	18	-9	23	640	2192	16824	7	-13	15	128	138	12
-4752	-7356	14396	-1	-9	-23	-12704	-7376	6856	8	-4	-4	1720	-3504	16368	19	-3	6	-2584	6576	14480	-21	17	-25	-13728	7120	7448	4	2	23	576	2360	16856	-1	-18	16	127	138	12
-4592	-7228	14364	14	-17	-19	-12896	-7256	7048	-13	-9	-5	1664	-3488	16664	22	-6	11	-2344	6232	14528	-11	14	-19	-13680	6888	7416	-4	2	21	488	2400	16512	7	-16	16	127	139	12
-4384	-6972	14268	0	-5	-22	-12320	-7152	6896	0	-8	-1	1728	-3384	16272	25	3	3	-2496	6744	14400	-9	16	-25	-13448	6888	7280	23	-13	18	440	2528	16624	13	-15	18	127	139	12
-4756	-7444	14300	7	-16	-20	-12624	-7504	6584	2	-11	-10	1680	-3544	16840	32	-7	10	-2552	6536	14760	-18	16	-30	-13616	7064	7264	5	-3	23	464	2520	16912	5	-14	25	127	139	12
-4568	-7188	14440	14	-13	-21	-12968	-7352	6664	-6	-12	-11	1528	-3400	16760	15	-4	6	-2336	6512	14120	-8	18	-24	-13536	6888	7216	10	0	19	528	2368	16544	10	-15	20	127	139	12
-4388	-7148	14440	14	-18	-19	-12544	-7048	6832	5	-1	-1	1664	-3408	16384	24	2	-1	-2480	6728	14504	-13	12	-25	-13496	7080	7600	30	-9	15	792	2424	16992	0	-18	16	127	138	12
-4800	-7496	14360	9	-18	-22	-12696	-7408	7080	-6	-3	-8	1632	-3304	16864	26	-3	5	-2288	6280	14656	-19	18	-26	-13800	6976	7376	-1	3	15	472	2368	16912	-3	-19	13	128	140	12
-4452	-7068	14392	14	-12	-22	-12808	-7200	6816	-19	-5	-4	1512	-3360	16792	20	-4	8	-2344	6456	14408	-1	15	-23	-13312	6696	7136	-1	-6	15	632	2336	16608	5	-17	12	127	139	12
-4596	-7148	14260	-5	-3	-22	-12544	-7248	6744	11	0	3	1664	-3272	16256	22	0	5	-2424	6624	14552	-12	19	-25	-13496	7000	7608	24	-9	18	448	2488	16872	1	-21	12	128	139	12
-4740	-7436	14284	15	-13	-19	-12712	-7520	6944	-1	-3	-3	1616	-3480	16736	23	0	9	-2448	6600	14440	-18	20	-28	-13752	6936	7312	-4	3	12	544	2376	16728	5	-16	13	128	139	12
-4404	-7160	14376	14	-7	-20	-12744	-7168	6936	-2	-3	-4	1560	-3456	16592	9	3	9	-2336	6528	14584	-4	13	-22	-13376	6696	7488	6	-2	14	408	2352	16744	7	-16	18	128	139	12
-4648	-7252	14308	-3	-14	-27	-12560	-7336	6712	8	-3	-3	1688	-3464	16840	28	-2	7	-2632	6704	14808	-21	18	-27	-13608	7040	7568	17	-6	17	488	2480	16856	-1	-19	20	128	139	12
-4676	-7372	14336	10	-15	-18	-12864	-7552	6848	-6	-8	-9	1496	-3384	16568	26	-10	13	-2264	6360	14616	-12	17	-21	-13864	6872	7368	-5	-1	15	408	2320	16920	-1	-19	22	127	138	12
-4348	-6948	14252	9	-9	-24	-12672	-7336	6928	1	-6	-6	1680	-3576	16304	19	0	4	-2360	6552	14240	-6	17	-24	-13448	6696	7200	16	-5	8	552	2192	16512	7	-18	21	128	138	12
-4792	-7416	14232	5	-15	-19	-12296	-7432	6560	7	2	-4	1656	-3536	16632	29	-9	8	-2552	6544	14536	-17	14	-27	-13728	7024	7416	10	-1	18	608	2360	16808	6	-16	20	128	138	12
-4600	-7284	14424	19	-17	-19	-12888	-7248	7008	-12	5	-4	1488	-3520	16664	19	2	6	-2248	6224	14600	-10	17	-21	-13944	6792	7480	-2	-1	21	408	2272	16592	12	-11	17	127	138	12
-4444	-7012	14372	7	-6	-22	-12624	-7176	6784	-3	3	0	1768	-3568	16456	15	2	10	-2288	6256	14480	-6	19	-23	-13512	6696	7168	24	-11	22	512	2320	17016	12	-15	15	128	139	12
-4796	-7512	14328	11	-14	-24	-12760	-7472	6576	5	-1	-3	1544	-3560	16552	20	4	8	-2448	6640	14768	-14	19	-20	-13608	7040	7584	8	-9	23	408	2488	16944	1	-23	12	127	139	12
-4560	-7216	14460	17	-13	-18	-12696	-7296	6656	-9	-9	-1	1672	-3480	16496	12	-5	9	-2280	6296	14384	5	19	-20	-13592	6784	7336	-2	-2	20	520	2376	16696	3	-17	10	127	139	12
-4460	-7000	14200	6	-12	-20	-12496	-7088	6640	11	-6	3	1672	-3384	16320	20	2	2	-2544	6624	14456	1	23	-22	-13232	7072	7600	27	-5	16	656	2320	16552	5	-24	17	127	139	12
-4732	-7544	14348	5	-8	-21	-12616	-7488	6640	11	-8	0	1616	-3344	16712	26	-5	8	-2424	6480	14424	-12	30	-25	-13744	7128	7512	-2	-1	29	520	2488	16936	4	-15	14	128	139	12
-4444	-7108	14532	10	-15	-16	-12976	-7208	6880	-1	-4	-5	1488	-3440	16552	16	2	7	-2248	6496	14512	-2	24	-24	-13728	6664	7240	1	-7	18	352	2520	16696	12	-16	14	128	139	12
-4584	-7016	14340	-7	-13	-20	-12568	-7096	7112	11	-3	0	1632	-3488	16680	29	-1	4	-2488	6784	14416	-9	18	-23	-13312	6976	7304	27	-10	18	496	2432	17040	2	-22	20	128	138	12
-4748	-7504	14328	7	-16	-18	-12736	-7432	6800	2	-11	-2	1480	-3184	16920	29	-4	13	-2432	6432	14800	-17	17	-28	-13736	7056	7336	-4	1	17	464	2440	16760	5	-23	18	128	138	12
-4448	-7100	14376	6	-12	-19	-12736	-7216	7040	-6	-7	0	1672	-3432	16608	17	-1	5	-2304	6520	14328	-4	15	-20	-13504	6904	7312	6	-7	13	584	2344	16504	12	-18	21	129	139	12
-4676	-7216	14156	2	-12	-24	-12456	-7264	6856	4	3	0	1816	-3240	16192	23	-2	6	-2472	6744	14560	-16	12	-25	-13504	7160	7176	22	-10	15	600	2432	17040	9	-17	21	128	139	12
-4680	-7356	14412	17	-12	-17	-12744	-7352	6824	-5	-11	-5	1488	-3432	16728	24	3	10	-2528	6504	14568	-20	11	-24	-13744	6792	7328	5	-3	21	448	2424	16808	5	-16	20	127	139	12
-4332	-6960	14376	12	-14	-20	-12728	-7008	6696	-9	-4	-9	1664	-3488	16496	12	2	6	-2312	6480	14608	-7	8	-25	-13408	6784	7280	24	-10	14	520	2472	16528	5	-13	20	127	139	12
-4684	-7376	14324	8	-17	-22	-12584	-7328	6880	2	-1	-11	1712	-3312	16424	31	3	9	-2544	6616	14680	-17	14	-24	-13616	7128	7432	14	-3	17	464	2384	16992	-3	-18	19	128	139	12
-4692	-7276	14380	20	-10	-18	-12896	-7400	7000	-14	-7	-12	1408	-3504	16800	19	-2	9	-2384	6328	14608	-8	13	-24	-13680	6848	7360	-11	9	18	592	2392	16528	-6	-13	14	127	139	12
-4336	-6912	14344	6	-13	-20	-12592	-7152	7024	-4	-6	-10	1776	-3472	16512	18	0	3	-2384	6736	14288	-6	17	-23	-13416	6848	7176	13	-7	14	576	2336	16768	2	-23	15	128	139	12
-4772	-7520	14324	5	-9	-23	-12576	-7416	6720	7	-3	-3	1576	-3368	16792	26	-5	8	-2544	6584	14520	-16	14	-24	-13736	7120	7256	14	0	16	640	2240	16792	4	-20	16	127	139	12
-4580	-7256	14384	15	-17	-16	-12704	-7552	6928	-12	-1	-11	1664	-3480	16664	17	-1	11	-2328	6304	14504	-14	16	-26	-13640	6704	7216	-2	-4	15	536	2360	16632	6	-12	17	128	138	12
-4452	-7048	14348	5	-9	-24	-12616	-7248	6880	4	2	-8	1752	-3544	16472	16	6	5	-2488	6648	14472	-14	18	-26	-13416	6720	7408	23	-11	15	616	2256	16936	3	-17	20	128	138	12
-4792	-7568	14240	11	-12	-19	-12704	-7544	6768	5	-1	-12	1504	-3472	16784	34	-4	8	-2416	6536	14544	-16	15	-28	-13744	7120	7488	9	0	14	456	2312	16960	-2	-14	19	128	138	12
-4508	-7192	14484	13	-16	-22	-12888	-7464	6968	-16	-5	-8	1720	-3448	16656	12	-3	5	-2256	6192	14272	-4	21	-20	-13640	6744	7424	3	0	11	704	2272	16712	9	-16	16	128	139	12
-4572	-7020	14252	3	-10	-24	-12528	-7216	6808	1	-2	1	1728	-3552	16592	23	4	0	-2592	6752	14472	-10	18	-20	-13312	6928	7304	22	-12	16	656	2320	16856	4	-17	18	128	140	12
-4732	-7496	14276	13	-13	-20	-12416	-7256	6624	3	-1	3	1600	-3448	16680	24	1	9	-2464	6744	14592	-12	17	-26	-13672	6960	7360	-6	3	17	480	2464	16816	3	-13	17	127	139	12
-4424	-7100	14272	15	-18	-18	-12816	-7488	6880	-6	-1	-2	1688	-3536	16296	13	1	4	-2368	6392	14392	-2	19	-21	-13464	6816	7400	-6	-2	12	632	2176	16584	11	-19	17	127	139	12
-4612	-7232	14316	0	-16	-25	-12568	-7304	7072	13	1	3	1640	-3392	16600	26	-2	4	-2512	6752	14584	-11	17	-23	-13616	6944	7200	15	-3	21	632	2216	16840	1	-17	17	128	138	12
-4700	-7404	14328	12	-17	-14	-12840	-7448	6816	-6	-8	-6	1560	-3424	16760	29	-4	8	-2416	6416	14712	-12	18	-24	-13888	6880	7072	0	0	19	504	2376	16760	5	-16	14	128	139	12
-4388	-6960	14440	11	-12	-16	-12576	-7152	7000	-2	-4	0	1704	-3624	16496	19	-2	7	-2416	6376	14336	4	17	-19	-13200	6784	7448	25	-13	21	608	2352	16448	9	-19	15	128	138	12
-4684	-7384	14120	-2	-10	-25	-12384	-7320	6808	12	0	3	1720	-3584	16504	20	3	10	-2448	6648	14528	-14	16	-22	-13568	7160	7400	27	-8	25	568	2432	16984	3	-16	15	128	138	12
-4648	-7256	14388	19	-24	-14	-12880	-7320	6984	-1	-7	-8	1608	-3552	16728	23	0	7	-2392	6416	14624	-20	14	-26	-13816	6888	7416	-3	-1	22	328	2520	16672	7	-13	15	128	138	12
-4596	-7268	14356	17	-17	-16	-12624	-7296	6584	-1	0	-5	1608	-3472	16248	17	4	3	-2512	6632	14400	-7	17	-22	-13376	6872	7296	10	-6	19	512	2336	16688	6	-16	15	128	138	12
-4812	-7392	14328	7	-14	-25	-12520	-7344	6496	11	1	3	1728	-3424	16504	30	-5	6	-2600	6600	14608	-14	14	-28	-13696	7192	7296	2	-5	19	376	2400	16984	0	-21	18	128	139	12
-4584	-7232	14472	11	-14	-16	-12928	-7200	6936	-14	-4	-5	1632	-3272	16488	17	-6	11	-2480	6536	14544	-12	16	-25	-13752	6768	7136	-2	3	15	416	2344	16592	5	-20	17	129	139	12
-4408	-7044	14352	4	-3	-20	-12560	-7256	6808	-6	-10	4	1728	-3408	16424	18	1	5	-2344	6528	14336	-10	13	-22	-13344	6728	7352	30	-13	19	504	2344	16632	10	-19	18	128	139	12
-4876	-7460	14288	10	-15	-22	-12584	-7488	6672	4	-4	-3	1496	-3264	16552	25	-4	10	-2600	6448	14552	-19	20	-27	-13776	7064	7288	8	-2	22	600	2376	16744	7	-19	14	128	139	12
-4592	-7096	14460	13	-12	-20	-12808	-7176	6984	-8	-7	-8	1584	-3504	16744	16	-1	2	-2296	6464	14568	-6	17	-20	-13560	6832	7312	1	0	19	496	2240	16536	8	-15	14	128	139	12
-4492	-7124	14244	1	-13	-25	-12456	-7056	6848	6	-3	-2	1712	-3448	16624	24	3	6	-2464	6664	14336	-12	15	-26	-13512	7008	7448	22	-7	11	568	2352	17080	6	-19	19	128	138	12
-4728	-7420	14292	12	-25	-23	-12840	-7368	6848	4	-7	-7	1600	-3432	16904	31	-4	13	-2392	6368	14864	-16	18	-19	-13888	7152	7352	0	-2	25	432	2472	16664	-4	-17	15	128	139	12
-4468	-7040	14432	12	-12	-21	-12816	-7192	7096	-13	-6	-13	1752	-3472	16416	19	1	13	-2232	6344	14208	-5	18	-24	-13504	6792	7320	4	-3	13	640	2280	16680	4	-15	16	127	139	12
-4656	-7232	14212	-4	-7	-27	-12424	-7328	6592	1	3	-6	1720	-3408	16392	24	-2	7	-2360	6792	14496	-16	11	-23	-13480	7056	7432	25	-7	13	488	2424	16824	4	-20	17	128	139	12
-4696	-7452	14348	12	-17	-20	-12664	-7424	6696	-9	-9	-12	1432	-3552	16880	25	-2	13	-2408	6568	14464	-22	15	-28	-13704	6888	7272	-10	4	17	456	2384	16768	6	-18	22	128	139	12
-4324	-7020	14300	11	-12	-22	-12720	-7224	6784	-4	-6	-10	1720	-3528	16472	17	4	11	-2288	6552	14576	-12	18	-22	-13528	6704	7424	7	-6	11	640	2336	16600	9	-14	19	127	139	12
-4660	-7392	14264	0	-11	-23	-12536	-7376	6672	10	4	-1	1720	-3448	16736	26	0	8	-2640	6664	14536	-19	18	-34	-13544	6960	7464	16	-6	17	600	2272	16920	0	-19	17	128	139	12
-4628	-7272	14332	15	-17	-23	-13024	-7416	6984	-9	-8	-7	1640	-3488	16840	17	-2	12	-2360	6224	14448	-11	16	-25	-13696	6800	7320	1	0	16	488	2496	16728	1	-19	13	127	139	12
-4416	-6944	14372	8	-10	-24	-12584	-7240	7264	-6	-4	-2	1720	-3560	16352	15	4	4	-2384	6528	14328	-2	16	-19	-13416	6920	7368	24	-10	15	672	2200	16392	4	-17	12	128	138	12
-4808	-7424	14392	5	-11	-26	-12600	-7536	6576	10	-1	-4	1560	-3352	16488	23	6	4	-2496	6792	14496	-17	15	-23	-13696	7056	7528	12	-5	20	352	2280	16960	-2	-14	12	127	139	12
-4604	-7272	14412	15	-21	-17	-12744	-7288	6904	-4	-6	-9	1352	-3368	16656	14	-5	-1	-2144	6296	14512	-10	20	-20	-13632	6840	7288	-4	0	19	384	2320	16560	11	-16	12	128	139	12
-4488	-7068	14356	8	-3	-17	-12560	-7192	6936	4	-2	-5	1576	-3552	16312	18	0	-1	-2552	6600	14392	-8	20	-26	-13456	6728	7280	16	-10	18	648	2312	16896	7	-21	17	128	139	12
-4784	-7440	14360	7	-16	-22	-12632	-7376	6848	2	-4	-5	1568	-3456	16432	30	-7	9	-2512	6512	14504	-12	27	-28	-13864	6968	7544	-2	-5	24	448	2368	16880	0	-24	14	127	139	12
-4512	-7096	14464	8	-20	-16	-12760	-7288	6904	-13	-7	-8	1592	-3424	16688	22	-2	14	-2552	6464	14576	-15	25	-23	-13568	6736	7400	6	-4	21	600	2464	16632	6	-16	14	127	139	12
-4572	-7108	14332	-17	-9	-23	-12568	-7272	6920	5	-3	2	1592	-3528	16472	29	0	15	-2480	6776	14360	-12	20	-23	-13424	6984	7480	28	-9	17	568	2336	16792	8	-19	13	127	139	12
-4732	-7520	14388	-3	-17	-18	-12824	-7616	6792	6	-7	-2	1440	-3480	16448	30	-3	18	-2480	6392	14712	-15	18	-30	-13856	7048	7352	-4	0	26	424	2360	17032	10	-16	20	127	139	12
-4452	-7080	14420	1	-18	-19	-12880	-7320	6952	0	-6	0	1560	-3536	16552	21	2	10	-2376	6424	14384	-8	15	-22	-13496	6816	7416	0	-1	20	464	2384	16488	16	-20	19	128	138	12
-4700	-7232	14268	-6	-7	-26	-12592	-7264	6752	16	1	2	1744	-3632	16584	36	1	8	-2408	6696	14640	-9	13	-23	-13424	6960	7368	24	-6	27	448	2216	16928	10	-22	20	128	138	12
-4740	-7448	14368	15	-21	-18	-12768	-7464	6888	-4	-2	-3	1656	-3376	16728	34	-5	15	-2312	6352	14728	-14	13	-25	-13784	6896	7240	0	1	20	504	2456	16848	7	-16	15	127	139	12
-4364	-6980	14316	18	-9	-19	-12760	-7256	7136	-13	-8	-1	1672	-3416	16472	19	3	3	-2256	6632	14440	-1	14	-19	-13464	6752	7288	23	-11	26	616	2392	16712	10	-14	8	128	138	12
-4824	-7344	14184	9	-14	-26	-12632	-7376	6504	4	5	0	1656	-3320	16536	28	5	-1	-2488	6664	14464	-9	15	-22	-13464	7144	7216	28	-17	27	528	2440	16840	0	-23	7	128	139	12
-4616	-7276	14300	26	-15	-19	-12752	-7544	6648	-8	-1	-3	1560	-3512	16912	18	-3	-1	-2312	6344	14656	-4	14	-26	-13640	6976	7312	1	-3	21	344	2416	16600	5	-22	10	128	139	12
-4576	-7232	14448	26	-13	-18	-12720	-7096	6816	-2	0	3	1656	-3344	16712	14	0	-1	-2272	6688	14424	-5	15	-19	-13472	6856	7504	15	-5	17	712	2312	16712	4	-22	7	128	138	12
-4764	-7396	14308	11	-11	-22	-12648	-7376	6808	4	-5	4	1672	-3296	16896	29	-8	2	-2520	6456	14656	-14	16	-28	-13704	6984	7576	8	-8	26	368	2504	17008	0	-21	10	128	139	12
-4632	-7188	14380	22	-11	-18	-12896	-7336	6896	-9	-13	-5	1512	-3352	16848	18	-3	11	-2328	6184	14584	-5	16	-20	-13672	6928	7304	4	-5	20	624	2480	16768	7	-16	15	127	139	12
-4432	-6908	14296	2	-4	-19	-12592	-7176	6640	8	-8	2	1672	-3672	16440	23	8	7	-2336	6624	14272	-5	12	-19	-13160	6920	7376	32	-15	21	664	2400	16600	11	-14	17	128	139	12
-4808	-7528	14276	9	-13	-25	-12576	-7416	6752	11	0	0	1624	-3232	16720	28	5	15	-2272	6600	14448	-18	12	-31	-13576	6936	7736	15	-5	21	720	2312	16968	13	-22	20	128	139	12
-4576	-7236	14468	16	-10	-19	-13024	-7208	6784	-5	-9	-6	1536	-3280	16680	19	-1	18	-2312	6328	14544	-8	18	-27	-13784	6888	7448	-9	-1	20	504	2376	16568	13	-19	23	127	139	12
-4568	-7116	14284	1	-8	-22	-12360	-7080	6824	8	-1	-6	1664	-3360	16536	26	2	16	-2448	6672	14728	-15	19	-22	-13488	7080	7264	15	-1	17	712	2408	16896	6	-23	24	128	138	12
-4748	-7556	14284	4	-15	-19	-12768	-7384	6744	-7	-7	-4	1496	-3304	16792	41	-8	18	-2488	6544	14472	-20	20	-28	-13640	6976	7480	-10	5	14	464	2368	16880	1	-16	21	128	138	12
-4452	-7032	14348	11	-10	-19	-12920	-7200	6824	-13	-12	-10	1752	-3448	16368	19	-2	13	-2280	6448	14336	-2	16	-21	-13360	6536	7360	10	-7	14	440	2272	16616	3	-18	24	127	139	12
-4660	-7256	14196	-2	-12	-22	-12296	-7280	6920	4	-1	0	1688	-3640	16568	23	0	6	-2448	6632	14696	-17	15	-23	-13424	7032	7416	35	-12	22	504	2272	16672	2	-13	8	128	140	12
-4744	-7444	14368	12	-14	-22	-12816	-7488	6880	7	-9	-8	1656	-3296	16816	23	-1	3	-2408	6432	14448	-9	13	-24	-13720	6856	7472	8	-4	25	480	2320	16720	7	-19	8	128	139	12
-4332	-6972	14424	10	-8	-19	-12832	-7136	6776	1	-5	-7	1728	-3544	16248	10	5	0	-2352	6576	14560	-2	19	-20	-13448	6848	7416	13	-13	19	592	2328	16624	3	-21	7	127	139	12
-4732	-7296	14420	1	-10	-28	-12496	-7144	6776	10	1	0	1656	-3512	16592	24	1	-2	-2576	6872	14536	-13	16	-27	-13560	7208	7624	14	-6	22	424	2376	17008	-5	-27	10	128	138	12
-4652	-7300	14396	16	-14	-19	-12800	-7416	6848	-9	-7	-6	1456	-3424	16608	17	-7	3	-2352	6280	14656	-8	19	-25	-13640	6872	7352	-7	4	19	584	2416	16688	-2	-17	13	128	139	12
-4388	-6928	14256	5	-11	-23	-12608	-7056	6832	-7	-3	-4	1672	-3440	16432	14	-2	6	-2472	6536	14288	-3	18	-20	-13200	6848	7304	17	-4	11	728	2376	16568	7	-14	19	128	138	12
-4804	-7388	14312	3	-12	-20	-12624	-7384	6928	5	2	-2	1760	-3416	16864	29	-5	7	-2568	6480	14496	-20	17	-27	-13680	7120	7336	19	-6	23	672	2408	16912	8	-14	24	128	138	12
-4572	-7304	14496	16	-14	-17	-13000	-7384	7112	-10	-5	-6	1576	-3472	16480	15	1	13	-2448	6168	14560	-12	16	-28	-13784	6696	7240	-1	1	16	360	2480	16688	16	-10	21	128	139	12
-4480	-6920	14384	7	-9	-21	-12680	-7264	7008	2	-3	-3	1616	-3616	16264	20	3	8	-2384	6744	14432	-9	15	-25	-13336	7064	7304	28	-11	14	632	2376	16744	9	-18	26	128	138	12
-4884	-7396	14216	7	-16	-17	-12680	-7472	6720	6	1	-4	1624	-3440	16584	33	-3	8	-2560	6568	14624	-19	20	-25	-13728	7024	7280	7	-1	19	384	2344	16784	1	-22	22	128	139	12
-4488	-7168	14420	16	-10	-18	-12704	-7424	6640	3	-6	1	1544	-3368	16672	19	-4	9	-2104	6320	14616	-8	16	-20	-13584	6856	7208	-3	2	16	384	2376	16784	9	-22	20	128	138	12
-4468	-7040	14260	5	-4	-21	-12344	-7192	6752	2	-6	3	1608	-3400	16472	22	2	5	-2496	6760	14448	-6	19	-17	-13408	6784	7232	24	-12	21	632	2312	16888	7	-19	20	128	138	12
-4812	-7512	14340	10	-14	-23	-12688	-7376	6792	3	-1	-6	1656	-3344	16664	26	-2	7	-2576	6456	14560	-17	22	-26	-13528	7072	7304	11	-2	27	392	2424	16592	0	-16	11	128	139	12
-4432	-7116	14512	16	-14	-21	-12912	-7328	7080	-5	-3	-4	1472	-3384	16472	17	5	1	-2232	6392	14584	0	13	-21	-13504	6808	7160	9	-4	18	496	2280	16760	12	-11	10	128	139	12
-4644	-7144	14352	4	-7	-24	-12520	-7320	7008	12	1	0	1736	-3336	16624	24	5	0	-2416	6464	14528	1	16	-19	-13648	6888	7304	29	-16	24	616	2480	16992	2	-19	12	128	138	12
-4736	-7460	14320	17	-16	-18	-12800	-7504	6896	-2	-8	-4	1640	-3376	16952	22	0	2	-2552	6472	14784	-7	15	-26	-13696	7024	7472	4	-4	24	480	2416	16784	2	-19	11	128	139	12
-4388	-7012	14328	12	-15	-13	-12752	-7224	7008	-13	-3	-1	1568	-3352	16352	15	1	3	-2272	6616	14248	2	20	-21	-13760	6968	7232	0	-6	23	616	2280	16392	8	-18	12	128	138	12
-4644	-7312	14176	2	-12	-21	-12344	-7208	6776	3	-1	8	1736	-3400	16480	26	-1	0	-2592	6840	14384	-15	19	-22	-13432	7168	7416	33	-11	19	712	2384	17096	2	-21	20	128	139	12
-4728	-7356	14408	21	-18	-17	-12760	-7328	6768	-6	-8	-3	1568	-3272	16568	16	-5	7	-2360	6336	14560	-18	12	-28	-13904	6832	7360	0	7	21	472	2440	16824	9	-17	21	128	138	12
-4284	-6936	14420	15	-16	-19	-12784	-7184	6952	-2	-1	-4	1688	-3464	16568	14	0	7	-2288	6496	14456	-7	19	-25	-13416	6976	7376	6	-5	15	576	2336	16688	8	-16	28	128	138	12
-4704	-7372	14244	3	-12	-22	-12536	-7296	6832	11	0	-4	1488	-3440	16744	29	-1	6	-2592	6720	14312	-17	13	-29	-13352	6992	7384	11	-4	17	440	2368	16824	3	-19	22	128	138	12
-4652	-7216	14436	13	-15	-15	-12824	-7312	6800	-13	-3	-5	1440	-3352	16488	25	-8	10	-2440	6272	14552	-12	16	-26	-13608	6864	7504	-1	4	13	496	2344	16696	11	-20	21	127	139	12
-4392	-6888	14244	3	-5	-23	-13000	-7384	6720	-14	-6	-4	1488	-3504	16448	13	-3	8	-2392	6592	14232	-8	19	-19	-13344	7000	7312	32	-13	15	568	2344	16896	10	-18	18	128	138	12
-4740	-7456	14216	6	-13	-23	-12528	-7416	6808	7	-2	2	1664	-3312	16552	21	-4	2	-2424	6584	14528	-18	23	-28	-13552	7064	7456	16	-5	20	576	2496	16800	3	-24	21	127	139	12
-4552	-7220	14464	14	-12	-16	-12808	-7432	6704	-4	-8	-7	1472	-3424	16312	6	0	2	-2184	6328	14632	-7	24	-24	-13720	6896	7520	2	-1	18	544	2368	16648	9	-19	12	127	139	12
-4452	-7056	14376	-3	-10	-21	-12640	-7176	6896	12	2	1	1560	-3600	16416	11	-1	3	-2512	6648	14712	-11	24	-27	-13512	6856	7432	22	-9	16	592	2328	16840	1	-23	16	128	138	12
-4768	-7456	14368	-2	-19	-18	-12896	-7320	6848	6	-3	-4	1616	-3208	17000	25	-9	9	-2552	6528	14600	-15	22	-22	-13792	6936	7576	-4	2	22	480	2408	17064	-3	-22	15	128	139	12
-4428	-6996	14460	4	-10	-18	-12968	-7280	7192	-19	-8	-1	1528	-3512	16320	12	-6	6	-2216	6280	14520	3	16	-20	-13536	6640	7464	5	0	12	592	2200	16416	6	-19	16	127	138	12
-4504	-7100	14256	-9	-11	-26	-12440	-7440	6808	-1	-1	1	1736	-3552	16304	26	-5	3	-2632	6816	14496	-7	15	-22	-13424	6856	7304	26	-9	14	728	2384	16888	4	-21	20	128	139	12
-4728	-7544	14272	7	-18	-20	-12808	-7480	6888	-5	-3	-8	1760	-3320	17016	26	-8	7	-2448	6456	14536	-18	16	-29	-13752	7024	7352	-5	0	20	504	2352	16824	4	-17	22	127	139	12
-4436	-7088	14440	16	-15	-18	-12920	-7264	6848	1	-6	0	1496	-3504	16488	11	4	2	-2384	6472	14256	-8	17	-21	-13576	6816	7240	2	-1	15	576	2384	16696	10	-14	20	128	139	12
-4716	-7204	14368	3	-3	-23	-12584	-7200	6632	14	6	1	1760	-3376	16536	20	12	2	-2432	6704	14584	-18	11	-28	-13648	7008	7456	21	-5	17	496	2416	16736	2	-14	20	128	139	12
-4736	-7380	14284	18	-13	-22	-12976	-7488	6944	-7	10	-9	1400	-3344	16792	24	5	9	-2424	6320	14632	-16	14	-25	-13704	6920	7280	2	-1	19	368	2256	16768	2	-15	18	127	139	12
-4344	-7076	14364	18	-10	-16	-12736	-7208	6824	-10	-2	-11	1544	-3512	16208	13	6	5	-2304	6496	14408	-5	14	-24	-13336	6784	7128	19	-9	13	528	2280	16720	13	-17	19	128	138	12
-4756	-7432	14164	6	-14	-23	-12528	-7248	6768	7	-2	-2	1696	-3304	16448	29	-2	4	-2480	6608	14448	-15	11	-20	-13456	7104	7576	17	-12	24	488	2376	16712	9	-18	23	128	138	12
-4656	-7256	14408	22	-17	-16	-12800	-7432	6952	-16	-15	-9	1504	-3280	16488	29	-5	7	-2224	6152	14408	-7	13	-23	-13616	6960	7360	-10	1	14	424	2464	16664	5	-18	20	127	138	12
-4384	-6944	14400	15	-10	-20	-12816	-7264	6896	-7	-8	-9	1744	-3544	16536	26	1	4	-2440	6632	14600	-9	15	-23	-13680	6832	7424	-6	-5	19	696	2216	16488	10	-14	19	128	139	12
-4776	-7424	14312	12	-15	-24	-12624	-7296	6880	-2	-10	-7	1664	-3320	16904	35	-5	4	-2480	6640	14536	-18	13	-23	-13744	7120	7528	9	-9	23	568	2456	16968	3	-16	18	129	139	12
-4544	-7208	14340	18	-9	-18	-12912	-7344	7000	-13	-14	-11	1576	-3432	16744	34	-6	7	-2200	6264	14384	-2	13	-21	-13680	6680	6984	-3	-1	18	448	2448	16496	4	-15	17	128	139	12
-4420	-6988	14336	7	-8	-25	-12392	-7088	7024	0	-8	-2	1776	-3376	16392	22	5	5	-2408	6648	14528	-2	13	-15	-13384	6984	7424	27	-18	20	624	2400	16736	10	-14	14	128	139	12
-4804	-7504	14220	8	-11	-24	-12632	-7384	6744	7	-5	-7	1480	-3304	16824	31	2	5	-2464	6576	14656	-17	17	-27	-13664	7072	7512	14	-4	21	520	2520	16848	10	-15	17	127	139	12
-4516	-7100	14420	18	-11	-18	-12920	-7208	6864	-4	-8	-9	1496	-3504	16616	14	-3	4	-2128	6384	14384	-4	20	-28	-13560	6832	7376	-3	-4	17	792	2360	16648	8	-16	15	127	138	12
-4544	-7060	14320	4	-5	-23	-12520	-7152	6872	14	-4	4	1928	-3568	16544	15	6	0	-2376	6648	14680	-8	19	-23	-13360	6976	7400	12	-5	16	536	2352	16880	-1	-17	21	127	138	12
-4704	-7492	14428	8	-13	-21	-12800	-7280	6952	5	-4	-7	1536	-3432	16744	28	-2	1	-2432	6552	14624	-20	18	-28	-13776	7072	7288	-13	3	15	600	2496	16848	3	-17	22	127	139	12
-4532	-7132	14468	9	-7	-22	-12872	-7248	7072	-10	-9	-12	1624	-3376	16360	14	1	9	-2208	6440	14232	-3	17	-20	-13392	6704	7304	-8	-2	14	568	2320	16600	7	-16	20	128	139	12
-4616	-7096	14288	-5	-5	-28	-12400	-7144	6768	2	-9	-3	1680	-3416	16416	23	4	7	-2368	6832	14480	-15	17	-26	-13488	7016	7328	21	-15	19	648	2304	16728	5	-17	21	128	138	12
-4696	-7384	14240	7	-15	-24	-12704	-7112	6776	-5	-5	-10	1576	-3424	16712	30	-10	15	-2472	6360	14624	-12	18	-26	-13784	6928	7304	14	-7	21	376	2520	16816	6	-15	18	127	139	12
