#Activity	sitting 
#ActivityID	5 
#Date 10-21-16-13
acc_rf_x	acc_rf_y	acc_rf_z	gyro_rf_x	gyro_rf_y	gyro_rf_z	acc_rs_x	acc_rs_y	acc_rs_z	gyro_rs_x	gyro_rs_y	gyro_rs_z	acc_rt_x	acc_rt_y	acc_rt_z	gyro_rt_x	gyro_rt_y	gyro_rt_z	acc_lf_x	acc_lf_y	acc_lf_z	gyro_lf_x	gyro_lf_y	gyro_lf_z	acc_ls_x	acc_ls_y	acc_ls_z	gyro_ls_x	gyro_ls_y	gyro_ls_z	acc_lt_x	acc_lt_y	acc_lt_z	gyro_lt_x	gyro_lt_y	gyro_lt_z	EMG_r	EMG_l	act
-5904	-5464	14664	133	-8	-145	-15984	-2496	-1544	-40	-63	-40	-2248	-1784	16656	29	-2	4	-7764	4664	13108	-55	148	-178	-16220	4172	-96	101	-21	172	-5100	-1556	15728	15	-201	212	125	126	5
-5920	-5472	14596	119	4	-129	-15944	-2516	-1600	-25	-76	-74	-2392	-1864	16680	27	-3	5	-7852	4568	13240	-77	144	-195	-16264	4172	-136	129	-9	137	-4996	-1540	15652	21	-158	187	125	126	5
-5920	-5468	14540	146	-44	-120	-15904	-2500	-1520	-4	-65	-79	-2400	-1776	16768	31	-3	3	-7796	4624	13272	-88	127	-171	-16308	4116	-152	102	-27	147	-5052	-1436	15676	57	-154	217	125	126	5
-5900	-5500	14500	116	-6	-125	-15932	-2616	-1532	-30	-83	-41	-2336	-1928	16952	27	1	9	-7784	4628	13256	-90	135	-163	-16304	4236	-204	114	-19	163	-5064	-1464	15692	69	-164	219	125	126	5
-5868	-5464	14548	109	-8	-133	-15992	-2456	-1492	-25	-94	-24	-2272	-1976	16672	27	-5	1	-7720	4604	13264	-104	133	-208	-16340	4120	-56	118	-31	170	-5060	-1416	15720	62	-130	181	125	126	5
-5912	-5412	14560	132	25	-140	-16004	-2564	-1568	-5	-45	-63	-2328	-1928	16680	23	-3	4	-7828	4604	13144	-80	164	-234	-16328	4204	-112	122	-37	176	-5056	-1428	15672	48	-135	200	125	126	5
-5944	-5500	14496	156	-15	-145	-15904	-2548	-1520	-16	-79	-72	-2256	-1968	16912	26	1	3	-7784	4660	13292	-116	152	-169	-16288	4164	-108	142	-45	150	-5060	-1384	15756	49	-143	198	125	126	5
-5828	-5508	14512	133	7	-141	-15924	-2500	-1556	8	-91	-29	-2216	-1808	16448	27	-3	-4	-7808	4596	13208	-47	122	-143	-16304	4184	-56	146	-30	130	-5032	-1432	15736	36	-166	217	125	126	5
-5848	-5492	14648	140	-28	-121	-15996	-2576	-1632	31	-87	-21	-2240	-1896	16688	27	2	-1	-7792	4640	13168	-92	153	-159	-16256	4204	-176	117	-23	157	-4948	-1452	15840	70	-154	204	125	126	5
-5912	-5488	14600	136	-19	-142	-15948	-2536	-1444	9	-73	-57	-2248	-1880	16864	29	0	-5	-7764	4716	13228	-84	148	-177	-16268	4284	-68	114	-64	113	-4988	-1432	15716	44	-145	207	125	126	5
-5916	-5452	14588	144	-9	-121	-15940	-2584	-1472	-13	-72	-47	-2208	-1944	16736	27	1	-2	-7804	4680	13216	-78	141	-183	-16232	4204	-112	129	-37	104	-4996	-1476	15732	-4	-154	224	125	125	5
-5948	-5400	14524	117	-19	-94	-15920	-2544	-1568	69	-36	-24	-2336	-1880	16736	31	1	1	-7768	4608	13204	-106	121	-221	-16200	4164	-116	98	-33	138	-5028	-1424	15776	13	-128	223	124	125	5
-5844	-5480	14556	129	-25	-141	-15916	-2480	-1560	0	-20	-46	-2216	-1824	16856	32	1	-2	-7796	4648	13280	-95	163	-204	-16268	4240	-108	105	-25	112	-5068	-1448	15672	44	-150	206	125	126	5
-5940	-5448	14580	149	-25	-128	-15920	-2512	-1520	-20	-37	-59	-2240	-1680	16848	30	-1	1	-7792	4604	13212	-133	143	-194	-16268	4208	-120	114	-23	132	-5068	-1380	15708	16	-148	219	124	126	5
-5980	-5468	14564	111	33	-126	-15924	-2544	-1568	13	-26	-41	-2304	-1952	16856	27	-1	5	-7776	4632	13280	-81	156	-223	-16300	4224	-216	107	11	92	-5104	-1416	15756	9	-141	205	125	126	5
-5888	-5492	14564	146	-29	-102	-15924	-2532	-1620	-26	-69	-31	-2256	-1896	16776	26	3	1	-7780	4640	13224	-75	140	-196	-16296	4232	-212	106	14	112	-5092	-1444	15628	54	-142	215	125	125	5
-5956	-5424	14620	134	-48	-118	-15912	-2488	-1480	-30	-54	-70	-2400	-1864	16744	28	2	6	-7788	4616	13272	-89	188	-182	-16308	4144	-176	140	-41	128	-5152	-1496	15648	73	-143	234	125	126	5
-5904	-5428	14604	89	-11	-136	-15840	-2524	-1560	49	-7	-40	-2416	-1808	16864	33	2	3	-7788	4560	13176	-120	159	-198	-16280	4204	-256	128	-27	132	-5088	-1516	15684	92	-176	240	124	126	5
-5904	-5516	14524	133	-11	-110	-15976	-2552	-1620	-26	-126	-60	-2352	-1904	16480	29	0	1	-7784	4628	13256	-55	146	-193	-16240	4164	-72	110	-37	147	-5112	-1532	15696	101	-181	233	125	126	5
-5944	-5512	14524	137	-23	-134	-15932	-2528	-1524	-28	-114	-78	-2160	-1904	16776	26	0	4	-7888	4632	13312	-95	139	-183	-16304	4172	-192	96	-13	159	-5068	-1476	15820	107	-171	230	125	126	5
-5876	-5512	14456	110	-58	-148	-15968	-2548	-1400	-41	-77	-64	-2296	-1744	17056	25	-2	3	-7796	4632	13208	-119	129	-153	-16252	4160	-344	153	-59	156	-5060	-1484	15592	125	-157	195	125	126	5
-5892	-5484	14516	116	-26	-101	-16012	-2528	-1408	-5	-81	-58	-2304	-1904	16776	24	-1	3	-7784	4672	13256	-53	160	-161	-16236	4244	-188	128	-36	160	-5076	-1448	15760	87	-153	168	125	126	5
-5908	-5472	14504	125	-25	-147	-15916	-2572	-1448	0	-94	-55	-2224	-1984	16784	28	1	2	-7744	4592	13208	-92	139	-158	-16260	4228	-76	107	-32	180	-5016	-1436	15748	72	-160	181	125	126	5
-5852	-5516	14548	122	10	-102	-15888	-2556	-1548	15	-95	-66	-2296	-1832	16848	29	0	1	-7808	4656	13196	-40	159	-219	-16252	4228	-188	103	2	175	-5044	-1452	15764	47	-148	192	125	126	5
-5968	-5476	14632	148	8	-141	-15960	-2544	-1512	-29	-38	-32	-2224	-1832	16552	28	-3	-4	-7784	4632	13168	-120	145	-200	-16280	4252	-172	117	-21	129	-5012	-1368	15684	39	-170	190	125	126	5
-5864	-5484	14520	127	-9	-116	-15904	-2500	-1552	-15	-36	-13	-2344	-2104	16728	29	-5	2	-7808	4672	13152	-105	124	-195	-16252	4248	-180	119	-23	144	-5100	-1444	15660	68	-164	211	125	126	5
-5900	-5440	14612	146	-17	-148	-15900	-2536	-1600	-23	-84	-11	-2344	-1832	16760	27	-1	-2	-7760	4640	13208	-98	173	-204	-16260	4284	-44	112	-6	134	-5056	-1392	15664	20	-176	222	125	126	5
-5924	-5492	14580	118	5	-122	-15960	-2604	-1504	0	-90	-7	-2160	-1952	16936	30	-1	2	-7804	4592	13140	-123	155	-220	-16320	4236	-156	114	-41	141	-5048	-1448	15712	54	-151	195	125	126	5
-5864	-5452	14568	115	13	-124	-15976	-2572	-1588	-13	-74	-44	-2176	-1872	16864	29	-1	1	-7796	4700	13272	-82	155	-183	-16240	4228	-88	110	3	104	-5084	-1420	15788	48	-145	212	125	126	5
-5872	-5468	14584	139	54	-152	-15896	-2512	-1500	-35	-62	-48	-2304	-1896	16736	28	-4	2	-7828	4648	13176	-117	158	-168	-16300	4184	-104	57	-31	125	-5056	-1424	15620	60	-181	202	125	126	5
-5884	-5472	14604	121	1	-146	-15940	-2572	-1540	20	-54	-27	-2232	-1768	16688	30	-3	0	-7792	4656	13056	-93	136	-180	-16252	4128	-28	116	-40	126	-5172	-1472	15744	39	-169	238	125	126	5
-5928	-5448	14616	144	-22	-104	-15972	-2552	-1476	23	-35	-39	-2336	-1816	16680	28	-1	4	-7696	4652	13252	-101	140	-178	-16232	4176	-88	119	0	71	-5060	-1524	15696	23	-177	225	125	126	5
-5884	-5476	14536	148	-57	-116	-15892	-2496	-1556	4	-43	-18	-2304	-1888	16488	30	-2	0	-7816	4696	13156	-107	147	-175	-16276	4200	-16	95	-49	126	-5076	-1516	15632	7	-150	203	125	126	5
-5892	-5488	14624	119	-33	-127	-15916	-2540	-1512	-34	-64	-12	-2304	-1800	16584	28	-2	1	-7772	4564	13224	-67	134	-189	-16240	4152	-148	138	-33	105	-5060	-1436	15712	72	-134	187	125	126	5
-5904	-5540	14600	145	-77	-119	-15832	-2516	-1548	5	-29	-70	-2304	-1912	16632	28	-1	2	-7744	4628	13324	-86	113	-165	-16280	4188	-204	128	-1	121	-5088	-1552	15604	68	-148	204	125	126	5
-5884	-5528	14620	138	-24	-147	-15900	-2488	-1608	3	-60	-41	-2376	-1864	16736	29	0	1	-7756	4544	13232	-65	155	-187	-16268	4180	-100	97	-47	138	-5120	-1436	15688	48	-142	189	125	126	5
-5944	-5472	14580	130	-23	-102	-15912	-2428	-1444	-37	-88	-29	-2392	-1912	16648	28	1	1	-7780	4612	13260	-80	161	-192	-16280	4156	-160	107	2	171	-5064	-1480	15608	52	-123	210	125	126	5
-5956	-5508	14524	119	-15	-152	-15888	-2576	-1432	-43	-49	-79	-2328	-1888	16736	28	-5	2	-7756	4596	13252	-75	135	-167	-16208	4176	-184	142	-37	132	-5024	-1516	15688	41	-149	226	126	126	5
-5924	-5420	14676	129	-23	-127	-15948	-2588	-1548	-16	-75	-28	-2392	-1904	16648	30	-3	4	-7760	4624	13276	-101	167	-203	-16304	4244	-132	147	-17	129	-5024	-1456	15740	42	-180	187	126	126	5
-5848	-5464	14584	135	-24	-138	-15892	-2496	-1596	-37	-92	-35	-2224	-1968	16504	30	-3	4	-7832	4620	13216	-91	148	-174	-16288	4236	-128	103	-45	150	-5076	-1452	15728	71	-144	225	126	126	5
-5900	-5528	14476	140	-21	-92	-15912	-2568	-1524	-9	-5	-23	-2264	-2016	16792	29	1	0	-7816	4624	13244	-77	143	-199	-16240	4192	-172	136	-30	133	-5064	-1516	15652	41	-163	170	127	127	5
-5856	-5528	14752	102	6	-145	-15916	-2572	-1532	7	-55	3	-2384	-1832	16784	27	-1	-2	-7812	4668	13252	-80	166	-193	-16308	4184	-88	148	-20	128	-5104	-1496	15720	59	-179	228	127	127	5
-5904	-5468	14472	158	-26	-138	-15916	-2520	-1568	-28	-67	-49	-2344	-1896	16672	30	-2	0	-7792	4712	13180	-80	134	-173	-16332	4172	-164	132	-15	121	-5084	-1468	15628	83	-141	231	127	126	5
-5924	-5484	14532	116	1	-117	-15968	-2516	-1548	-6	-47	-73	-2328	-1880	16632	30	-8	5	-7760	4640	13356	-66	174	-206	-16268	4236	-200	114	-4	137	-5124	-1444	15664	91	-165	263	127	127	5
-5884	-5520	14588	153	-35	-153	-15960	-2532	-1540	23	-37	-58	-2456	-1792	16712	28	-6	5	-7836	4596	13144	-108	144	-190	-16256	4168	-224	106	8	140	-5136	-1420	15704	87	-172	219	127	127	5
-5876	-5528	14532	129	-13	-122	-15932	-2564	-1584	-19	-65	-62	-2288	-1952	16592	27	-7	4	-7856	4640	13344	-51	167	-177	-16236	4180	-248	117	-16	147	-5112	-1448	15696	123	-185	210	127	127	5
-5944	-5484	14640	137	62	-136	-15884	-2524	-1636	-19	-94	-16	-2192	-1752	16728	29	-1	6	-7804	4700	13184	-95	127	-166	-16252	4156	-236	118	-13	161	-5128	-1476	15612	140	-156	211	127	127	5
-5876	-5520	14628	120	-57	-105	-15944	-2484	-1452	-25	-122	-53	-2224	-1936	16744	28	-1	4	-7776	4628	13304	-89	133	-175	-16284	4196	-56	116	-10	157	-5120	-1456	15724	114	-181	179	127	127	5
-5908	-5504	14572	140	-54	-104	-15948	-2616	-1460	-11	-83	-79	-2280	-1960	16600	19	2	2	-7740	4636	13216	-66	127	-137	-16272	4284	-188	148	-55	161	-5128	-1472	15624	107	-156	220	127	127	5
-5908	-5440	14648	135	-71	-110	-15980	-2556	-1376	-11	-57	-77	-2272	-1760	16888	23	-1	2	-7840	4676	13176	-54	103	-175	-16244	4244	-76	96	-36	176	-5048	-1396	15764	127	-177	203	127	127	5
-5908	-5472	14568	127	18	-129	-15928	-2512	-1344	15	-49	-42	-2152	-1912	16496	23	-2	0	-7752	4616	13208	-36	154	-202	-16208	4212	-136	141	2	151	-4996	-1416	15588	100	-158	221	127	127	5
-5924	-5432	14516	142	-25	-139	-15968	-2472	-1580	-14	-57	-98	-2368	-2032	16568	30	-5	1	-7748	4596	13272	-73	150	-182	-16272	4168	-200	138	43	154	-4968	-1444	15724	53	-136	190	127	127	5
-5940	-5412	14616	118	-3	-146	-15904	-2488	-1408	2	-60	-44	-2272	-1888	16776	25	-2	2	-7788	4652	13396	-66	164	-202	-16276	4236	-132	118	23	154	-5052	-1380	15740	82	-136	195	127	127	5
-5904	-5508	14604	114	35	-123	-15952	-2516	-1584	-11	-47	-56	-2304	-1928	16720	23	0	1	-7852	4708	13224	-78	145	-163	-16268	4216	-272	110	-20	134	-5044	-1412	15676	87	-122	164	127	127	5
-5928	-5484	14568	105	12	-107	-15956	-2564	-1484	-12	-62	-50	-2328	-1928	16832	26	-5	9	-7836	4708	13200	-120	170	-193	-16352	4236	-92	129	6	129	-5112	-1356	15732	61	-166	217	127	127	5
-5972	-5488	14696	113	-36	-160	-15924	-2544	-1508	-12	-46	-64	-2336	-1832	16792	26	4	6	-7868	4656	13324	-72	130	-182	-16316	4248	-164	109	-38	135	-5124	-1404	15624	71	-175	241	127	127	5
-5796	-5492	14520	137	-39	-168	-15936	-2572	-1608	-10	-90	-37	-2376	-1952	16368	25	-5	3	-7732	4636	13188	-110	140	-186	-16220	4204	-128	101	-61	91	-5040	-1396	15640	117	-161	244	127	127	5
-5908	-5480	14656	167	-38	-126	-15896	-2524	-1492	12	-104	-37	-2272	-2016	16416	23	-2	1	-7748	4584	13236	-135	136	-223	-16256	4216	-216	116	-97	159	-5100	-1484	15700	98	-157	277	127	127	5
-5852	-5444	14644	114	-33	-139	-15916	-2540	-1496	-34	-75	-45	-2112	-1992	16904	26	-6	2	-7748	4608	13144	-96	119	-172	-16348	4164	-20	107	-32	87	-5132	-1520	15696	55	-125	217	127	127	5
-5976	-5436	14528	172	5	-149	-15908	-2512	-1472	-28	-93	-57	-2272	-1896	16768	27	-4	3	-7800	4620	13248	-97	124	-195	-16288	4176	-104	134	-35	130	-5076	-1460	15744	89	-150	187	127	127	5
-5872	-5428	14532	150	-69	-122	-15964	-2556	-1532	-39	-84	-45	-2176	-1904	16832	23	-4	2	-7748	4620	13272	-98	136	-187	-16184	4200	-48	150	-24	127	-5016	-1428	15624	81	-135	176	127	127	5
-5916	-5488	14480	111	7	-140	-15940	-2532	-1448	-6	-71	-51	-2336	-1928	17000	29	1	5	-7764	4636	13208	-69	135	-184	-16264	4200	-100	87	-27	162	-5012	-1448	15708	64	-153	196	127	127	5
-5896	-5512	14540	112	-8	-138	-15952	-2544	-1536	-21	-63	-20	-2264	-1936	16776	28	-5	3	-7776	4652	13268	-93	152	-210	-16280	4188	-236	103	0	153	-4964	-1464	15768	62	-153	187	127	127	5
-5904	-5456	14512	125	-17	-116	-15912	-2564	-1436	-9	-42	-54	-2288	-2064	16712	29	-3	1	-7788	4688	13292	-76	150	-171	-16284	4180	-28	137	11	131	-4972	-1452	15692	61	-176	174	127	127	5
-5896	-5488	14524	105	-2	-135	-15936	-2536	-1512	1	-50	-15	-2152	-1936	16624	32	-3	1	-7816	4644	13128	-114	147	-176	-16244	4260	-140	140	-14	137	-5052	-1420	15748	89	-152	182	127	127	5
-5904	-5428	14552	141	-58	-121	-15848	-2540	-1632	-10	-21	-25	-2248	-2000	16880	29	-3	-2	-7740	4640	13220	-113	174	-198	-16276	4172	-196	137	16	97	-5068	-1444	15752	77	-162	210	127	127	5
-5904	-5464	14580	140	-27	-175	-15932	-2476	-1520	-1	-60	-14	-2304	-1880	16616	31	-4	1	-7816	4632	13252	-96	136	-198	-16232	4228	-112	130	-51	154	-5124	-1400	15708	71	-166	191	127	127	5
-5868	-5548	14616	156	-21	-105	-15864	-2524	-1592	-1	-73	-15	-2112	-2016	16816	31	-2	4	-7724	4664	13232	-82	126	-156	-16204	4168	-108	136	16	119	-5140	-1404	15632	73	-128	184	127	127	5
-5892	-5480	14600	142	-32	-142	-15904	-2560	-1528	-26	-62	-32	-2264	-1960	16592	28	0	0	-7740	4720	13208	-116	178	-194	-16312	4168	-136	139	-25	96	-5056	-1468	15592	55	-156	189	127	127	5
-5908	-5504	14612	132	-12	-116	-15924	-2484	-1568	-3	-75	-22	-2328	-1872	16512	33	-1	1	-7804	4680	13220	-114	150	-173	-16292	4208	-136	93	-34	139	-5068	-1424	15660	54	-153	179	127	127	5
-5952	-5500	14596	134	23	-120	-15928	-2504	-1600	13	-40	-25	-2288	-1856	16784	29	-2	3	-7752	4612	13136	-106	127	-172	-16272	4172	-48	118	-52	125	-5028	-1496	15672	46	-154	204	127	127	5
-5856	-5512	14532	154	15	-138	-15940	-2520	-1588	-33	-60	-68	-2288	-1936	16720	30	-3	1	-7752	4600	13280	-95	108	-205	-16256	4228	-48	144	-78	131	-5036	-1480	15732	26	-168	174	127	127	5
-5896	-5444	14656	146	-23	-126	-15940	-2516	-1408	-6	-101	-45	-2320	-1952	16768	26	-6	2	-7796	4664	13220	-91	125	-179	-16208	4240	-216	112	-51	144	-5104	-1468	15692	89	-160	188	127	127	5
-5928	-5448	14572	107	6	-139	-15936	-2548	-1468	-15	-50	-73	-2120	-1816	16664	27	-3	3	-7780	4620	13236	-84	134	-172	-16244	4180	-96	108	15	130	-5072	-1492	15708	76	-147	201	127	127	5
-5904	-5508	14592	114	-50	-105	-15912	-2504	-1504	-13	-66	-71	-2288	-1752	16768	25	-4	5	-7708	4620	13276	-105	159	-188	-16312	4188	-248	108	-21	149	-5092	-1392	15740	85	-164	163	127	127	5
-5872	-5452	14592	140	-47	-114	-15884	-2496	-1492	-47	-72	-81	-2256	-1904	16744	20	-1	5	-7768	4576	13172	-118	133	-155	-16252	4220	-84	106	-27	160	-5104	-1492	15600	68	-180	201	127	127	5
-5892	-5492	14552	118	-13	-169	-15868	-2576	-1456	8	-49	-80	-2280	-2016	16768	22	-2	6	-7792	4668	13244	-92	136	-194	-16248	4236	-64	128	-34	142	-5048	-1448	15668	30	-176	226	127	127	5
-5872	-5464	14536	159	-38	-109	-15896	-2560	-1552	23	-85	-51	-2296	-1808	16264	26	0	0	-7780	4644	13192	-61	130	-183	-16288	4228	-112	98	-66	118	-5108	-1400	15804	73	-162	194	127	127	5
-5888	-5480	14560	134	-39	-138	-15888	-2528	-1512	-23	-91	-77	-2216	-1816	16760	25	-3	1	-7780	4524	13252	-63	181	-157	-16248	4188	-248	89	-16	155	-5080	-1452	15608	80	-189	228	127	127	5
-5892	-5436	14480	90	-74	-136	-15940	-2536	-1584	0	-67	-71	-2240	-1968	16616	27	-5	2	-7836	4588	13244	-116	137	-205	-16252	4204	-176	124	-74	122	-5020	-1492	15716	113	-161	209	127	127	5
-5940	-5460	14628	138	-12	-128	-15944	-2580	-1552	-21	-47	-40	-2256	-2080	16800	27	0	0	-7852	4636	13256	-94	133	-167	-16264	4208	-40	122	-38	150	-5112	-1492	15808	33	-141	220	127	127	5
-5824	-5460	14592	153	-23	-124	-16024	-2592	-1408	-1	-62	-47	-2224	-1912	16680	21	3	5	-7748	4588	13248	-92	105	-188	-16252	4224	-32	135	-32	146	-4956	-1444	15716	66	-191	188	127	127	5
-5944	-5460	14548	149	-32	-123	-15892	-2560	-1580	30	-31	-31	-2104	-1904	16472	24	2	-1	-7824	4712	13236	-100	167	-199	-16256	4180	-184	138	11	147	-5020	-1420	15676	63	-140	208	127	127	5
-5928	-5512	14620	124	12	-123	-15944	-2584	-1536	-5	-47	-1	-2264	-1952	16680	32	4	2	-7740	4620	13332	-56	174	-172	-16296	4240	-140	129	-16	135	-5060	-1392	15708	65	-130	196	127	127	5
-5896	-5484	14572	134	-36	-102	-15896	-2584	-1424	16	-70	-1	-2248	-1944	16688	30	-1	2	-7792	4648	13228	-103	147	-190	-16208	4236	-208	123	6	150	-5064	-1432	15724	51	-156	190	127	127	5
-5904	-5520	14516	137	-32	-114	-15884	-2552	-1568	18	-57	-50	-2168	-1752	16856	32	-3	-1	-7780	4584	13324	-59	159	-191	-16264	4192	-68	105	-4	141	-5044	-1380	15792	32	-157	183	127	127	5
-5904	-5464	14568	146	-8	-158	-15936	-2512	-1472	-2	-54	-11	-2360	-1920	16832	29	-1	-2	-7852	4632	13312	-108	158	-217	-16204	4208	-140	116	-2	99	-5132	-1412	15624	43	-173	232	127	127	5
-5844	-5492	14588	123	-19	-133	-15964	-2556	-1440	-12	-68	-32	-2256	-1792	16656	26	3	-3	-7840	4692	13244	-105	159	-219	-16324	4224	-216	106	-19	127	-5088	-1396	15748	58	-132	282	127	127	5
-5952	-5416	14564	129	6	-92	-15916	-2564	-1588	-34	-50	-64	-2256	-1960	16792	26	-1	2	-7776	4556	13244	-90	139	-214	-16288	4216	-76	117	-21	114	-5080	-1404	15732	82	-154	239	127	127	5
-5920	-5480	14588	100	11	-133	-15924	-2552	-1616	14	-60	-65	-2320	-1984	16848	24	-5	-3	-7764	4632	13296	-99	102	-191	-16296	4132	-208	125	-16	124	-5136	-1420	15652	67	-148	242	127	127	5
-5876	-5432	14568	131	9	-106	-15908	-2504	-1608	-32	-69	-58	-2352	-1808	16744	26	2	-2	-7780	4608	13188	-122	128	-209	-16272	4152	-200	99	-84	121	-5128	-1464	15648	70	-177	262	127	127	5
-5944	-5436	14496	115	-44	-117	-15900	-2484	-1532	-35	-87	-62	-2224	-1904	16528	21	-8	5	-7796	4604	13220	-101	132	-185	-16288	4172	-152	113	-64	147	-5056	-1572	15568	73	-174	193	127	127	5
-5964	-5496	14584	109	-39	-132	-15904	-2540	-1464	-26	-91	-99	-2272	-1912	16816	22	-3	4	-7712	4584	13304	-68	130	-162	-16216	4188	-152	140	-3	173	-5076	-1516	15688	71	-166	229	127	127	5
-5868	-5440	14552	121	-19	-131	-15908	-2528	-1544	-42	-111	-86	-2304	-1832	16592	25	-5	7	-7808	4620	13292	-103	158	-130	-16268	4144	-12	149	-81	168	-5068	-1580	15708	81	-157	183	127	127	5
-5936	-5504	14692	96	-14	-126	-15988	-2496	-1528	-36	-66	-47	-2304	-2024	16784	28	-3	8	-7852	4612	13248	-86	149	-179	-16320	4220	-116	125	-17	198	-5044	-1520	15672	105	-139	152	127	127	5
-5896	-5416	14544	101	-10	-127	-15984	-2652	-1472	-19	-93	-88	-2224	-2040	16680	27	-7	8	-7860	4632	13152	-89	138	-169	-16276	4200	-172	80	34	167	-5052	-1420	15700	114	-146	179	127	127	5
-5852	-5468	14564	107	-43	-134	-15908	-2648	-1560	-10	-84	-61	-2152	-1928	16552	26	-5	7	-7808	4548	13168	-92	150	-170	-16268	4300	-64	122	-19	143	-5012	-1428	15780	96	-166	186	127	127	5
-5900	-5464	14616	118	-15	-133	-15932	-2624	-1504	-43	-104	-62	-2136	-1912	16624	27	-4	4	-7824	4628	13212	-81	135	-161	-16248	4204	-132	132	-36	176	-5060	-1424	15752	113	-157	210	127	127	5
-5860	-5444	14528	128	-13	-116	-15932	-2544	-1568	5	-98	-45	-2248	-2016	16768	26	-8	5	-7796	4636	13180	-64	153	-143	-16304	4200	-40	147	2	151	-5008	-1400	15608	112	-151	198	127	127	5
-5944	-5500	14556	149	-81	-128	-15932	-2508	-1460	-12	-86	-28	-2160	-1992	16504	29	-2	-2	-7796	4640	13204	-79	154	-193	-16248	4164	-132	151	-7	155	-5052	-1332	15660	96	-143	191	127	127	5
-5936	-5488	14564	137	-35	-104	-15968	-2556	-1620	5	-90	-13	-2120	-1920	16720	30	-6	0	-7792	4672	13192	-65	98	-184	-16276	4164	-132	156	-5	130	-5020	-1416	15716	89	-146	210	127	127	5
-5884	-5504	14588	153	35	-119	-15876	-2596	-1484	8	-54	26	-2264	-1832	16736	30	1	0	-7800	4692	13252	-91	140	-203	-16280	4276	-184	106	-17	138	-5064	-1408	15740	46	-147	175	128	127	5
-5908	-5532	14492	141	18	-142	-15904	-2524	-1536	-13	-51	-30	-2240	-1808	16440	29	4	-6	-7764	4652	13276	-86	159	-190	-16268	4232	-100	87	-10	98	-5012	-1388	15776	32	-142	204	127	127	5
-5900	-5460	14588	157	-50	-119	-15940	-2520	-1644	21	-19	-3	-2264	-1872	16656	31	1	-1	-7804	4636	13204	-103	122	-155	-16304	4300	-172	86	-54	131	-5080	-1408	15720	11	-174	194	127	127	5
-5892	-5440	14596	172	17	-113	-15956	-2508	-1564	-29	-35	-35	-2168	-1912	16688	29	-4	1	-7744	4628	13168	-118	152	-171	-16252	4232	-184	83	-31	103	-5072	-1404	15764	12	-167	199	127	127	5
-5972	-5540	14620	139	-12	-127	-15876	-2520	-1608	-9	-54	-53	-2352	-1720	16552	29	-4	8	-7748	4624	13284	-100	142	-215	-16272	4240	-164	78	-3	105	-5052	-1384	15592	41	-140	224	127	127	5
-5856	-5452	14696	123	-63	-123	-15932	-2436	-1480	-36	-68	-54	-2352	-1920	16656	28	-1	7	-7804	4672	13252	-133	156	-171	-16280	4212	-60	84	-15	109	-5132	-1412	15684	37	-190	228	127	127	5
-5932	-5436	14496	118	-6	-104	-15864	-2500	-1528	-12	-63	-91	-2304	-1760	16664	26	-3	8	-7772	4680	13200	-126	163	-212	-16256	4204	-148	103	-64	78	-5084	-1396	15672	-10	-190	247	127	127	5
-5904	-5464	14536	115	12	-118	-15952	-2568	-1548	-36	-98	-94	-2344	-1784	16832	28	-6	9	-7792	4672	13240	-115	106	-180	-16200	4184	-188	132	-63	120	-5100	-1492	15576	27	-164	200	127	127	5
-5896	-5420	14720	83	-58	-109	-15892	-2480	-1592	-57	-56	-146	-2224	-1896	16744	19	-3	6	-7788	4656	13208	-102	119	-222	-16204	4184	-92	105	-66	136	-5028	-1476	15716	73	-158	224	127	127	5
-5908	-5472	14568	78	-15	-148	-15964	-2524	-1520	-50	-60	-48	-2232	-1896	16584	23	0	8	-7804	4640	13276	-119	115	-180	-16288	4188	-248	93	-55	154	-5100	-1468	15700	61	-167	235	127	127	5
-5936	-5504	14656	117	-58	-105	-15936	-2596	-1472	-25	-75	-121	-2248	-1952	16432	24	-3	6	-7824	4636	13200	-107	151	-166	-16296	4204	4	114	-60	150	-5104	-1524	15644	51	-165	180	127	127	5
-5896	-5496	14612	121	11	-122	-15964	-2620	-1524	-10	-26	-88	-2248	-2016	16800	20	0	-1	-7780	4668	13312	-67	107	-171	-16340	4232	-132	121	-34	131	-5076	-1480	15740	39	-166	174	127	127	5
-5952	-5516	14504	138	-30	-104	-15936	-2580	-1540	13	-49	-48	-2232	-2072	16792	21	-2	-2	-7780	4656	13340	-86	153	-204	-16296	4136	-104	111	-15	149	-4972	-1560	15708	69	-159	191	127	127	5
-5916	-5444	14520	131	21	-123	-15936	-2564	-1572	20	-16	-70	-2232	-1928	16920	27	-2	-3	-7780	4632	13384	-86	141	-194	-16268	4228	-60	117	-24	174	-5040	-1440	15724	70	-137	194	127	127	5
-5904	-5500	14488	91	-27	-135	-15956	-2584	-1500	-15	-26	-53	-2152	-1832	16760	25	0	0	-7788	4592	13244	-44	119	-210	-16248	4212	-108	126	-23	143	-5020	-1456	15712	69	-140	193	127	127	5
-5880	-5472	14624	131	-45	-110	-15916	-2580	-1552	-28	-40	-48	-2368	-2032	16688	26	0	-2	-7780	4664	13192	-81	171	-168	-16268	4244	-64	137	-19	129	-5092	-1532	15660	42	-143	197	127	127	5
-5900	-5464	14576	118	-8	-148	-15932	-2600	-1548	15	-61	-51	-2360	-1968	16536	28	-3	2	-7764	4644	13220	-61	164	-189	-16248	4280	-92	95	-15	121	-5124	-1428	15656	48	-150	218	127	127	5
-5908	-5424	14560	89	14	-105	-15888	-2512	-1604	19	-84	-36	-2320	-2040	16656	32	-2	3	-7772	4632	13204	-88	121	-193	-16284	4220	-296	112	-5	129	-5064	-1468	15736	80	-153	226	127	127	5
-5952	-5520	14624	154	-6	-128	-15964	-2540	-1592	7	-50	-68	-2112	-2064	16760	33	-2	3	-7804	4644	13216	-107	127	-156	-16292	4244	-208	104	1	105	-5108	-1396	15656	85	-176	209	127	127	5
-5900	-5432	14552	144	-24	-104	-15948	-2592	-1556	7	-53	-21	-2296	-1912	16512	32	-5	1	-7732	4648	13264	-78	160	-204	-16192	4240	-172	125	-37	81	-5060	-1472	15620	71	-171	212	127	127	5
-5928	-5484	14528	135	-39	-124	-15884	-2568	-1524	-16	-88	-30	-2256	-1872	16672	31	1	2	-7876	4664	13272	-75	148	-193	-16276	4232	-228	111	-22	119	-5044	-1452	15708	126	-179	218	127	127	5
-5888	-5476	14484	157	-87	-76	-15964	-2584	-1656	8	-85	8	-2200	-1864	16688	31	-5	0	-7780	4608	13188	-67	102	-187	-16304	4240	-176	117	-66	122	-5004	-1464	15720	130	-169	229	127	127	5
-5932	-5496	14576	150	-36	-125	-15940	-2540	-1456	-27	-101	-25	-2376	-1848	16712	30	-3	2	-7768	4624	13260	-95	168	-204	-16260	4160	-196	117	-52	109	-5116	-1480	15592	75	-147	217	127	127	5
-5908	-5464	14560	142	-32	-125	-15884	-2536	-1564	-10	-93	-38	-2224	-1864	16688	31	-3	2	-7812	4644	13324	-80	169	-175	-16276	4176	-148	111	-24	142	-5100	-1540	15820	91	-162	221	127	127	5
-5884	-5464	14496	118	-77	-116	-15948	-2488	-1604	-17	-80	-54	-2248	-1800	16736	31	0	0	-7740	4660	13212	-85	138	-178	-16236	4208	-44	139	-34	164	-5064	-1444	15764	37	-181	188	127	127	5
-5912	-5488	14544	147	1	-115	-15980	-2484	-1552	-14	-100	-71	-2232	-1936	16680	27	-3	2	-7720	4652	13248	-80	115	-179	-16280	4204	-60	121	-5	165	-5044	-1452	15720	93	-155	183	127	127	5
-5912	-5488	14644	113	-19	-158	-15920	-2596	-1484	-31	-113	-105	-2216	-1864	16864	27	0	4	-7824	4640	13196	-72	142	-182	-16268	4248	-12	117	-31	201	-5124	-1472	15684	77	-147	191	127	127	5
-5832	-5456	14568	143	-41	-154	-15928	-2508	-1604	-7	-121	-74	-2328	-1952	16784	29	-4	7	-7808	4628	13280	-96	111	-168	-16216	4304	-52	119	-21	179	-5044	-1408	15692	108	-101	178	127	126	5
-5860	-5444	14596	108	-17	-201	-15912	-2624	-1660	2	-92	-66	-2304	-1960	16608	28	0	4	-7772	4672	13240	-96	138	-147	-16296	4176	-128	136	-31	169	-5096	-1436	15792	59	-155	183	127	127	5
-5916	-5460	14612	137	-37	-123	-15992	-2624	-1592	-11	-117	-69	-2248	-2096	16832	30	4	-2	-7784	4600	13236	-54	144	-188	-16232	4184	-84	145	12	204	-5076	-1440	15820	38	-113	144	127	127	5
-5960	-5504	14616	136	6	-151	-15916	-2604	-1584	16	-106	-15	-2088	-2064	16768	32	10	-11	-7820	4540	13248	-63	136	-143	-16292	4244	-124	149	2	173	-5008	-1412	15752	-2	-102	187	127	126	5
-5976	-5492	14456	139	-24	-141	-15956	-2604	-1456	34	-84	11	-2192	-2024	16824	29	8	-11	-7776	4696	13188	-59	131	-180	-16264	4300	-224	116	-33	186	-4996	-1360	15740	-71	-129	165	127	127	5
-5872	-5464	14648	129	2	-117	-15956	-2532	-1472	37	-79	48	-2136	-2000	16864	38	8	-16	-7740	4672	13232	-78	155	-185	-16272	4232	-172	100	47	128	-5004	-1364	15696	-81	-108	176	127	127	5
-5904	-5444	14628	143	-6	-124	-15920	-2632	-1540	36	-53	71	-2200	-1784	16456	38	8	-17	-7804	4616	13168	-70	163	-191	-16244	4272	-100	114	-19	104	-4988	-1316	15724	-122	-117	200	127	126	5
-5916	-5452	14648	187	9	-118	-15904	-2472	-1520	32	1	44	-2152	-1760	16784	36	7	-17	-7772	4672	13216	-123	135	-201	-16316	4336	-136	109	-5	41	-5132	-1364	15796	-147	-175	234	127	126	5
-5864	-5504	14700	157	32	-134	-15948	-2508	-1472	4	-8	46	-2320	-1872	16896	36	11	-17	-7792	4624	13212	-110	163	-205	-16308	4276	-148	95	-19	38	-4784	-1188	15940	-57	-54	217	127	126	5
-5968	-5448	14568	149	6	-107	-15956	-2484	-1504	17	12	48	-2344	-1832	16840	38	4	-15	-7756	4628	13288	-136	128	-205	-16248	4228	-136	94	-18	4	-5068	-1420	15720	-124	-128	286	127	126	5
-5944	-5432	14496	151	-6	-123	-15864	-2476	-1644	43	-5	22	-2232	-1816	16672	34	-2	-6	-7788	4616	13248	-116	99	-190	-16148	4148	-188	84	-51	20	-5104	-1456	15688	-139	-144	270	127	126	5
-5904	-5456	14616	147	8	-137	-15888	-2472	-1544	-2	-11	33	-2224	-1896	16616	37	0	-2	-7788	4656	13240	-137	146	-201	-16268	4148	-200	76	-72	28	-5164	-1480	15688	-57	-148	242	127	126	5
-5892	-5452	14540	159	-20	-119	-15892	-2488	-1580	-19	-17	-24	-2456	-1984	16712	35	3	3	-7884	4596	13276	-156	142	-249	-16264	4176	-112	91	-53	55	-5220	-1532	15652	-20	-141	235	127	126	5
-5944	-5476	14584	144	-39	-112	-15884	-2404	-1552	-11	-83	-28	-2464	-1776	16960	32	-6	7	-7788	4612	13048	-129	138	-183	-16264	4124	-260	56	-87	76	-5200	-1668	15724	12	-150	203	127	127	5
-5916	-5444	14596	136	-48	-115	-15912	-2444	-1584	-4	-81	-37	-2504	-2040	16800	24	-5	8	-7812	4604	13168	-117	114	-193	-16304	4148	-136	83	-87	113	-5232	-1700	15560	81	-127	202	127	127	5
-5924	-5428	14660	116	-57	-140	-15896	-2500	-1560	-25	-111	-63	-2376	-1904	16728	23	-7	8	-7788	4572	13284	-118	101	-170	-16312	4100	-132	90	-33	172	-5168	-1672	15644	155	-159	191	127	126	5
-5936	-5428	14584	99	-47	-121	-15904	-2428	-1632	-72	-133	-108	-2320	-1816	16632	23	-5	9	-7852	4580	13340	-52	116	-157	-16264	4120	-36	123	-60	181	-5160	-1684	15668	194	-167	173	127	126	5
-5968	-5500	14620	117	-59	-152	-15952	-2552	-1376	-55	-143	-92	-2304	-2016	16712	19	-1	5	-7836	4580	13180	-40	139	-152	-16212	4196	-132	120	-4	227	-5080	-1652	15496	222	-180	223	127	126	5
-5848	-5436	14580	143	-28	-88	-15980	-2568	-1448	-22	-114	-44	-2168	-2048	16560	16	-10	4	-7836	4636	13244	-65	105	-161	-16240	4172	-104	149	-41	217	-4992	-1612	15672	220	-145	179	127	127	5
-5912	-5428	14624	105	-17	-124	-15912	-2512	-1592	1	-136	-110	-2104	-1904	16624	18	-8	-3	-7712	4592	13296	-84	130	-157	-16244	4188	-84	159	-24	257	-4960	-1532	15756	216	-67	153	127	127	5
-5936	-5492	14604	119	-10	-122	-15960	-2460	-1588	-1	-100	-116	-2352	-1936	16784	18	-5	4	-7812	4648	13268	-25	163	-184	-16324	4252	-108	181	47	242	-4928	-1452	15732	121	-129	154	127	127	5
-5896	-5480	14584	95	-33	-149	-16004	-2492	-1468	-61	-47	-135	-2208	-1976	16552	22	-3	5	-7764	4676	13212	-3	172	-175	-16296	4312	-76	150	36	189	-4980	-1300	15768	112	-98	168	127	127	5
-5948	-5420	14556	81	-42	-113	-15964	-2532	-1576	-53	-60	-87	-2104	-1920	16888	19	-1	3	-7792	4612	13208	-39	154	-185	-16288	4364	-172	99	4	160	-5012	-1288	15748	53	-136	213	127	127	5
-5872	-5536	14436	82	30	-164	-15864	-2560	-1616	-4	-55	-117	-2192	-2088	16680	21	-6	8	-7828	4620	13288	-103	141	-229	-16300	4260	-168	75	47	100	-5068	-1216	15840	28	-137	231	127	127	5
-5888	-5496	14636	70	-19	-156	-15988	-2556	-1504	0	23	-112	-2208	-1992	16840	27	-4	10	-7788	4744	13248	-83	132	-207	-16388	4276	-252	77	-29	74	-5024	-1156	15724	-21	-181	235	127	127	5
-5872	-5484	14628	89	35	-127	-15932	-2588	-1552	-34	-40	-63	-2264	-2072	16544	24	0	6	-7776	4576	13152	-124	116	-187	-16208	4260	-200	98	-78	39	-5064	-1328	15808	-16	-155	239	127	127	5
-5936	-5464	14596	101	8	-130	-15904	-2620	-1532	-2	-47	-74	-2480	-2024	16704	27	3	4	-7804	4608	13184	-115	157	-192	-16328	4228	-140	88	-52	26	-5052	-1400	15728	-39	-157	239	127	127	5
-5940	-5436	14620	121	-6	-157	-15952	-2608	-1484	-31	-69	-67	-2280	-1952	16760	28	3	0	-7756	4684	13232	-169	130	-219	-16288	4200	-136	100	-97	6	-5128	-1476	15580	-7	-178	256	127	127	5
-5868	-5480	14640	91	28	-123	-15912	-2604	-1644	-12	-49	-35	-2240	-1904	16648	25	7	1	-7792	4532	13356	-130	137	-214	-16236	4140	-40	85	-108	51	-5012	-1624	15624	-23	-133	212	127	127	5
-5904	-5468	14564	100	18	-124	-15940	-2572	-1600	-42	-53	-46	-2464	-2032	16880	25	2	0	-7768	4576	13300	-139	117	-199	-16260	4096	-92	100	-86	60	-5076	-1532	15596	-17	-136	254	127	127	5
-5868	-5472	14560	116	-11	-120	-15976	-2568	-1548	27	-61	-21	-2296	-1968	16856	25	4	-2	-7732	4572	13196	-75	129	-207	-16292	4152	-64	74	-42	103	-5128	-1748	15564	13	-148	161	127	127	5
-5888	-5444	14600	164	41	-104	-15928	-2584	-1576	41	-54	13	-2256	-1912	16688	28	0	-6	-7816	4620	13220	-80	125	-168	-16304	4152	-100	120	-17	167	-5080	-1664	15628	21	-155	164	127	127	5
-5936	-5468	14564	129	8	-125	-15940	-2524	-1540	33	-59	-3	-2376	-1856	16792	29	-1	0	-7832	4616	13224	-88	152	-157	-16340	4152	-84	127	4	165	-5008	-1716	15680	59	-160	134	127	127	5
-5928	-5392	14660	129	16	-132	-15916	-2512	-1500	-27	-40	-63	-2400	-1832	16792	32	-3	-1	-7788	4644	13256	-103	156	-144	-16280	4236	-56	134	31	185	-5068	-1580	15800	119	-146	174	127	127	5
-5928	-5424	14552	102	-12	-113	-15904	-2468	-1532	-8	-111	-25	-2336	-1896	16584	29	-6	1	-7760	4644	13228	-48	152	-190	-16252	4256	-60	147	37	216	-5068	-1540	15680	126	-160	150	127	127	5
-5892	-5432	14504	120	-57	-88	-15888	-2480	-1556	-22	-39	-116	-2304	-1712	16768	29	-3	0	-7808	4664	13252	-79	119	-161	-16276	4176	-60	142	-36	187	-5112	-1476	15688	131	-158	192	127	127	5
-5924	-5484	14528	103	37	-142	-15864	-2560	-1600	-5	-53	-27	-2248	-1864	16600	31	-8	7	-7776	4592	13244	-62	142	-166	-16268	4220	-168	156	-5	210	-5084	-1484	15756	158	-127	181	127	127	5
-5920	-5464	14532	129	-54	-117	-15940	-2544	-1552	-34	-116	-47	-2280	-1976	16832	32	-7	6	-7748	4636	13312	-66	144	-178	-16272	4168	-164	111	6	207	-5132	-1364	15696	123	-141	163	127	127	5
-5988	-5512	14480	109	-49	-152	-15808	-2508	-1508	-9	-114	-68	-2096	-1888	16648	31	-4	9	-7800	4684	13244	-102	141	-200	-16264	4292	-84	136	-12	184	-5108	-1384	15704	110	-182	179	127	127	5
-5900	-5492	14528	127	19	-133	-15864	-2620	-1484	-20	-105	-42	-2304	-1936	16560	30	-4	8	-7800	4652	13256	-69	147	-166	-16280	4256	-128	109	11	154	-5132	-1408	15632	110	-152	207	127	127	5
-5904	-5432	14576	130	-57	-122	-15892	-2532	-1404	-46	-109	-67	-2128	-1888	16544	31	-6	5	-7796	4624	13228	-115	123	-202	-16216	4176	-76	139	-15	165	-5068	-1408	15680	137	-128	197	127	127	5
-5912	-5440	14672	129	-26	-116	-15904	-2532	-1496	15	-88	-31	-2272	-1808	16704	30	-5	4	-7816	4692	13300	-101	132	-157	-16260	4252	-76	116	-25	180	-5052	-1436	15652	97	-177	199	127	127	5
-5932	-5468	14544	137	-5	-137	-15928	-2576	-1544	-19	-59	-51	-2200	-1968	16656	31	-5	0	-7788	4568	13228	-114	149	-189	-16268	4192	-128	123	-63	142	-5012	-1456	15656	105	-162	248	127	127	5
-5924	-5488	14664	126	33	-164	-15908	-2564	-1516	-18	-55	-26	-2224	-1816	16864	30	-2	3	-7780	4680	13224	-124	153	-198	-16252	4208	-256	98	-34	142	-5076	-1448	15684	84	-183	212	127	127	5
-5816	-5472	14492	124	-41	-111	-15912	-2540	-1408	22	-88	-8	-2384	-1928	16816	29	3	2	-7800	4664	13256	-103	154	-166	-16316	4188	-104	98	-6	131	-5076	-1452	15712	60	-129	198	127	127	5
-5884	-5516	14588	152	-50	-151	-15900	-2536	-1532	4	-100	-8	-2304	-1912	16544	28	-1	2	-7740	4632	13320	-76	121	-176	-16224	4220	-112	131	-50	124	-5060	-1416	15760	61	-164	201	127	127	5
-5864	-5412	14508	126	9	-111	-15952	-2536	-1388	-23	-56	-31	-2176	-1752	16728	32	-5	1	-7780	4640	13288	-92	132	-206	-16236	4220	-32	101	-13	133	-5080	-1460	15700	55	-173	227	127	127	5
-5952	-5420	14660	116	-43	-118	-15996	-2536	-1540	-18	-31	-13	-2400	-1992	16784	33	-1	2	-7752	4656	13236	-71	131	-166	-16236	4156	-120	110	-13	147	-5096	-1464	15680	89	-141	236	127	127	5
-5876	-5444	14568	108	-3	-137	-15872	-2564	-1492	12	-125	-54	-2248	-2024	16712	34	-5	3	-7748	4624	13208	-100	132	-181	-16260	4124	-124	139	13	136	-5064	-1532	15592	70	-144	219	127	127	5
-5828	-5516	14636	164	-59	-143	-15940	-2552	-1552	4	-55	-24	-2216	-1960	16440	32	-7	3	-7824	4632	13240	-133	143	-186	-16248	4236	-164	107	-31	135	-5080	-1536	15676	56	-153	173	127	127	5
-5916	-5452	14628	132	-26	-132	-15932	-2508	-1588	2	-75	-13	-2224	-1872	16624	35	-8	5	-7808	4660	13256	-83	145	-226	-16252	4220	-92	140	-26	140	-5200	-1460	15604	49	-190	234	127	127	5
-5896	-5472	14496	146	13	-169	-15928	-2564	-1604	14	-79	-47	-2328	-1864	16776	33	1	5	-7768	4676	13328	-86	143	-215	-16200	4096	-88	157	6	141	-5032	-1436	15700	114	-123	222	127	127	5
-5864	-5436	14664	139	-13	-138	-15948	-2536	-1520	-62	-104	-45	-2144	-1944	16768	33	-1	2	-7736	4584	13396	-84	132	-172	-16260	4188	-184	109	-17	157	-5044	-1460	15776	36	-142	205	127	127	5
-5896	-5416	14560	147	-23	-136	-15920	-2576	-1564	-9	-85	-8	-2256	-1832	16800	28	3	0	-7784	4636	13164	-94	145	-180	-16316	4252	-176	140	-8	153	-5020	-1476	15716	90	-135	195	127	126	5
-5912	-5468	14564	124	-77	-113	-15984	-2552	-1556	3	-51	-63	-2248	-1888	16680	21	-1	0	-7836	4664	13328	-118	150	-177	-16256	4216	-164	97	-17	171	-5032	-1496	15760	90	-151	240	127	127	5
-5896	-5428	14556	136	-37	-114	-15992	-2504	-1548	9	-59	-54	-2256	-1992	16880	23	-5	-3	-7824	4604	13256	-50	161	-214	-16244	4248	-36	101	41	112	-5040	-1404	15724	68	-167	252	127	126	5
-5816	-5428	14548	124	-27	-119	-15924	-2496	-1516	1	-39	-44	-2104	-1984	16952	30	0	1	-7696	4724	13236	-88	162	-167	-16240	4228	-224	129	-22	100	-5008	-1448	15756	30	-162	257	127	127	5
-5912	-5420	14608	126	-16	-95	-15972	-2508	-1544	-17	-26	-53	-2304	-1912	16824	31	-4	2	-7796	4628	13240	-126	193	-198	-16216	4252	-156	114	-2	109	-5080	-1428	15632	72	-167	235	127	127	5
-5960	-5476	14644	99	-9	-150	-15884	-2504	-1488	15	-67	-59	-2280	-1856	16688	25	5	6	-7752	4664	13232	-92	153	-184	-16268	4232	-100	101	-30	120	-5164	-1472	15692	78	-149	222	127	127	5
-5860	-5448	14540	128	-30	-112	-15960	-2456	-1504	-16	-72	-79	-2304	-1920	16704	28	-3	2	-7780	4664	13324	-102	148	-176	-16300	4220	-208	103	-35	116	-5112	-1460	15640	81	-155	235	127	127	5
-5880	-5448	14516	94	-13	-162	-15916	-2552	-1548	-13	-85	-78	-2248	-1944	16720	31	-1	3	-7832	4588	13304	-97	155	-168	-16296	4236	-252	129	-29	123	-5048	-1428	15724	97	-151	237	127	127	5
-5904	-5496	14704	104	-30	-126	-15908	-2448	-1664	-10	-86	-49	-2368	-1896	16456	25	-1	3	-7708	4624	13276	-86	110	-194	-16256	4204	-100	98	-43	125	-5100	-1464	15664	91	-171	224	127	127	5
-5900	-5492	14700	175	-49	-126	-15948	-2576	-1584	16	-102	-68	-2368	-1920	16728	29	3	3	-7856	4596	13264	-89	136	-198	-16296	4148	-52	107	-33	125	-5048	-1516	15636	113	-188	232	127	127	5
-5832	-5488	14580	130	-32	-135	-15920	-2520	-1552	-30	-116	-67	-2264	-1872	16704	25	-2	4	-7844	4652	13148	-104	135	-178	-16256	4180	-244	126	-32	153	-5148	-1452	15652	144	-156	210	127	127	5
-5888	-5488	14616	115	-3	-116	-15964	-2532	-1452	-24	-109	-65	-2144	-1680	16632	23	0	6	-7764	4580	13264	-88	113	-183	-16224	4192	-180	130	-26	167	-5168	-1532	15608	80	-180	228	127	127	5
-5892	-5416	14516	107	-17	-145	-15892	-2604	-1504	-48	-107	-32	-2104	-1936	16864	23	0	3	-7800	4676	13240	-84	143	-161	-16252	4184	-88	169	-45	179	-5008	-1532	15592	74	-163	185	127	127	5
-5956	-5472	14620	129	-18	-151	-15948	-2580	-1576	4	-76	-75	-2328	-1992	16712	28	5	2	-7768	4656	13336	-68	140	-163	-16272	4228	-92	166	-7	163	-4996	-1436	15696	66	-163	226	127	127	5
-5928	-5456	14568	119	-11	-149	-15896	-2520	-1632	-1	-79	-21	-2176	-1936	16384	25	1	1	-7828	4672	13260	-109	151	-177	-16208	4200	-132	138	-26	145	-5068	-1432	15824	46	-180	191	127	126	5
-5832	-5464	14532	111	-53	-113	-15912	-2500	-1544	12	-95	2	-2272	-1872	16656	23	-2	1	-7760	4628	13256	-102	146	-217	-16240	4204	-172	109	-1	158	-5056	-1436	15696	49	-131	189	127	126	5
-5904	-5464	14596	141	-39	-149	-15868	-2572	-1596	-7	-71	-54	-2288	-1888	16624	26	0	1	-7780	4668	13280	-79	138	-188	-16236	4264	-120	118	-12	102	-5000	-1428	15640	23	-160	186	127	127	5
-5976	-5388	14724	121	13	-140	-15900	-2584	-1444	-54	-61	-20	-2408	-1992	16744	25	-4	2	-7780	4628	13316	-46	147	-204	-16272	4196	-184	114	-13	110	-5036	-1408	15876	52	-143	222	127	127	5
-5904	-5412	14532	147	-63	-97	-15908	-2464	-1476	-27	-64	-54	-2240	-1960	16776	30	-3	2	-7816	4632	13264	-144	158	-178	-16292	4176	-68	125	-25	138	-5092	-1388	15680	24	-127	211	127	127	5
-5904	-5460	14560	140	-58	-126	-15896	-2516	-1480	-28	-86	-47	-2192	-1808	16568	32	1	6	-7780	4564	13264	-77	164	-199	-16284	4216	-124	117	-52	122	-5032	-1392	15748	62	-135	175	127	127	5
-5940	-5476	14572	114	-22	-118	-15928	-2544	-1560	21	-108	-8	-2208	-2072	16712	27	-2	-2	-7788	4596	13184	-139	161	-198	-16272	4184	-48	124	-33	107	-5108	-1396	15640	23	-185	204	127	126	5
-5860	-5480	14532	131	-28	-123	-15908	-2492	-1496	-9	-62	-54	-2264	-1944	16624	33	-2	5	-7868	4632	13204	-115	119	-168	-16284	4200	-120	101	-24	131	-5116	-1488	15728	48	-178	222	127	127	5
-5856	-5484	14608	112	-56	-154	-15896	-2464	-1632	-20	-68	-63	-2272	-1872	16704	32	-3	3	-7784	4568	13308	-125	144	-198	-16324	4192	-60	120	-13	107	-5056	-1488	15652	50	-152	214	127	127	5
-5896	-5460	14540	112	-56	-126	-15976	-2496	-1452	-27	-41	-41	-2296	-1824	16624	29	-5	3	-7744	4656	13272	-117	125	-160	-16220	4184	-112	122	-40	145	-5068	-1540	15688	26	-149	188	127	126	5
-5904	-5460	14632	143	-41	-129	-15852	-2528	-1452	-26	-50	-64	-2320	-1832	16744	27	-3	2	-7736	4692	13292	-103	148	-184	-16264	4196	-132	124	-25	137	-5104	-1552	15704	55	-127	208	127	126	5
-5852	-5416	14416	132	-59	-119	-15892	-2496	-1488	17	-33	-38	-2320	-2072	16536	29	-3	6	-7724	4600	13220	-95	158	-200	-16244	4192	-200	124	25	172	-5072	-1552	15716	26	-145	188	127	127	5
-5888	-5488	14560	123	6	-119	-15900	-2500	-1552	-8	-43	-48	-2208	-2000	16728	29	-8	5	-7792	4664	13252	-84	137	-179	-16328	4196	-76	135	10	113	-5056	-1456	15724	17	-129	184	127	126	5
-5924	-5444	14548	130	-57	-114	-15912	-2524	-1472	17	-13	-48	-2240	-1776	16776	28	2	6	-7784	4660	13168	-95	156	-178	-16304	4196	-164	105	1	124	-5052	-1460	15636	69	-126	191	127	126	5
-5932	-5452	14664	133	-17	-145	-15992	-2624	-1552	14	-74	-16	-2208	-1928	16656	31	-3	4	-7828	4608	13268	-112	158	-188	-16328	4196	-180	98	-26	149	-5100	-1444	15736	33	-136	203	127	126	5
-5872	-5408	14520	118	-7	-136	-15924	-2540	-1448	15	-65	-42	-2336	-1896	16832	30	-7	0	-7784	4676	13204	-104	131	-160	-16304	4224	-276	123	-47	111	-5072	-1464	15668	54	-168	209	127	127	5
-5956	-5460	14532	131	-13	-101	-15912	-2516	-1516	-14	-65	-9	-2200	-1888	16688	30	-3	0	-7796	4628	13104	-103	148	-180	-16284	4160	-176	125	32	141	-5044	-1512	15724	61	-152	215	127	126	5
-5872	-5424	14512	146	-98	-101	-15924	-2536	-1612	25	-70	-43	-2336	-1736	16656	33	-3	3	-7812	4584	13256	-86	152	-196	-16336	4248	-100	121	-24	129	-5112	-1428	15764	52	-200	211	127	126	5
-5936	-5440	14612	87	-3	-130	-15908	-2564	-1544	-17	-52	-80	-2200	-1896	17016	31	5	3	-7788	4604	13284	-61	137	-187	-16296	4216	-180	91	-5	141	-5092	-1464	15716	82	-150	231	127	126	5
-5936	-5416	14660	146	-49	-136	-15944	-2572	-1604	-44	-72	-36	-2336	-1984	16680	28	-4	5	-7836	4592	13300	-101	133	-179	-16240	4176	-196	121	-44	148	-5196	-1504	15576	105	-162	208	127	126	5
-5836	-5456	14648	135	-4	-112	-15872	-2540	-1520	4	-74	-4	-2176	-1904	16560	31	-4	3	-7820	4628	13276	-81	183	-187	-16216	4236	-132	102	-36	158	-5148	-1520	15700	75	-183	210	127	126	5
-5888	-5476	14608	137	-11	-94	-15928	-2528	-1404	23	-67	-59	-2240	-1816	16944	29	-5	-2	-7792	4668	13240	-99	139	-157	-16240	4280	-92	120	-11	124	-4976	-1468	15744	78	-179	205	127	126	5
-5920	-5436	14576	119	-23	-84	-15960	-2532	-1548	-1	-56	-24	-2256	-1848	16656	27	-4	1	-7832	4588	13244	-102	153	-202	-16228	4256	-196	126	-21	108	-5008	-1472	15736	81	-137	180	127	126	5
-5876	-5388	14648	143	-20	-150	-15888	-2556	-1472	-74	-36	-36	-2176	-1704	16632	30	-8	0	-7756	4572	13292	-97	151	-169	-16296	4216	-188	132	5	125	-5036	-1452	15724	34	-115	210	127	126	5
-5860	-5464	14620	130	-15	-128	-15940	-2600	-1472	-6	-52	-45	-2336	-1792	16792	31	-6	1	-7744	4588	13152	-71	157	-198	-16276	4192	-224	132	-54	126	-5088	-1432	15676	74	-173	163	127	126	5
-5972	-5460	14640	111	-33	-132	-15876	-2480	-1456	-6	-59	-49	-2304	-1856	16712	30	-1	5	-7804	4536	13336	-80	155	-148	-16240	4220	-268	125	-38	144	-5064	-1364	15808	98	-148	204	127	127	5
-5856	-5464	14660	115	-56	-118	-15932	-2548	-1608	12	-32	-74	-2224	-1952	16592	26	-5	8	-7772	4672	13284	-77	138	-155	-16316	4232	-196	120	-46	138	-5092	-1356	15644	90	-147	203	127	126	5
-5888	-5376	14616	112	-8	-116	-15940	-2480	-1660	-17	-33	-49	-2360	-1880	16680	23	-2	6	-7776	4668	13252	-121	131	-191	-16268	4256	-196	122	-24	137	-5148	-1468	15644	86	-171	235	127	127	5
-5880	-5436	14596	121	-44	-126	-15928	-2596	-1488	-3	-61	-52	-2280	-1952	16568	26	-3	5	-7788	4616	13340	-81	130	-182	-16236	4216	-116	117	-47	113	-5080	-1496	15736	115	-191	242	127	126	5
-5956	-5408	14552	102	-28	-120	-15880	-2508	-1480	-24	-132	-65	-2352	-1936	16768	27	-2	6	-7780	4568	13248	-104	167	-197	-16252	4196	-156	106	-18	121	-5104	-1436	15652	98	-182	208	127	126	5
-5932	-5420	14684	122	-62	-94	-15940	-2572	-1576	-37	-103	-41	-2280	-2016	16656	22	-4	2	-7792	4608	13284	-100	131	-181	-16228	4264	-144	86	-43	177	-5092	-1520	15716	99	-187	177	127	126	5
-5948	-5440	14612	122	-72	-130	-15952	-2532	-1560	-30	-95	-70	-2064	-1888	16888	24	-4	7	-7836	4628	13280	-119	148	-167	-16280	4240	-60	122	-65	165	-5036	-1472	15612	86	-154	205	127	126	5
-5880	-5488	14568	113	-16	-129	-15908	-2580	-1468	-25	-95	-54	-2248	-1832	16456	21	0	3	-7844	4624	13248	-123	118	-192	-16260	4232	-152	114	11	190	-5076	-1496	15664	92	-161	159	127	126	5
-5868	-5440	14672	121	-42	-136	-15912	-2596	-1568	5	-92	-25	-2264	-2024	16848	23	1	1	-7836	4624	13276	-103	155	-150	-16292	4208	-120	123	2	173	-5096	-1540	15784	67	-129	172	127	127	5
-5884	-5424	14564	136	-15	-130	-15948	-2592	-1492	-7	-67	-41	-2288	-1992	16768	27	-2	7	-7780	4512	13264	-81	181	-152	-16300	4280	-84	101	19	181	-5036	-1552	15736	-1	-157	184	127	127	5
-5884	-5496	14552	111	-5	-132	-15904	-2544	-1448	-3	-62	-70	-2272	-1936	16760	26	-6	4	-7820	4628	13252	-88	171	-185	-16236	4252	-172	114	34	182	-5040	-1428	15784	130	-168	226	127	126	5
-5940	-5420	14572	136	8	-121	-15936	-2520	-1508	-8	-60	-40	-2304	-2016	16552	30	-4	2	-7836	4600	13316	-95	140	-200	-16276	4212	-236	107	-35	114	-5064	-1468	15784	126	-127	270	127	127	5
-5888	-5512	14584	138	-9	-110	-15892	-2580	-1544	-18	-63	7	-2424	-1864	16440	31	-4	-3	-7764	4644	13216	-94	143	-152	-16260	4248	-124	131	-58	101	-5056	-1480	15704	148	-146	231	127	127	5
-5916	-5400	14556	150	5	-157	-15884	-2572	-1568	12	-75	6	-2240	-1792	16632	35	-2	0	-7768	4616	13204	-110	162	-188	-16228	4236	-164	147	-69	80	-5040	-1448	15680	58	-206	214	127	126	5
-5888	-5444	14628	150	-51	-105	-15888	-2484	-1480	-24	-43	-12	-2352	-2000	16736	33	-3	0	-7720	4576	13232	-71	136	-176	-16320	4136	-80	132	-30	125	-5076	-1412	15776	48	-156	203	127	127	5
-5900	-5504	14536	140	-8	-112	-15948	-2496	-1604	-32	-53	-38	-2304	-1968	16768	30	-3	1	-7720	4564	13240	-93	138	-172	-16256	4136	-64	137	10	132	-5132	-1468	15636	55	-122	224	127	127	5
-5932	-5456	14584	116	-32	-136	-15920	-2496	-1544	4	-82	-44	-2248	-1728	16784	29	-2	5	-7724	4688	13208	-85	156	-181	-16232	4300	-224	94	-7	130	-5044	-1452	15748	59	-159	222	127	126	5
-5916	-5404	14444	159	38	-123	-15928	-2476	-1552	-11	-60	-39	-2296	-1832	16648	33	-7	7	-7832	4656	13380	-86	142	-232	-16256	4252	-192	79	-67	164	-5108	-1472	15684	44	-170	210	127	127	5
-5912	-5452	14464	116	-22	-114	-15900	-2420	-1584	17	-57	-60	-2240	-1808	16776	32	-4	7	-7736	4604	13308	-102	126	-197	-16256	4224	-88	99	4	145	-5016	-1496	15592	95	-133	214	127	126	5
-5864	-5424	14608	136	-31	-128	-15932	-2548	-1624	-39	-56	-53	-2352	-1808	16528	29	-6	5	-7836	4636	13296	-103	133	-158	-16260	4184	-92	136	-51	155	-5088	-1456	15612	69	-139	197	127	127	5
-5920	-5484	14632	103	-35	-112	-15956	-2544	-1388	3	-66	-57	-2192	-1928	16912	28	-4	5	-7760	4648	13256	-96	133	-192	-16256	4196	-116	139	4	160	-5116	-1440	15740	74	-120	183	127	127	5
-5920	-5416	14584	129	2	-117	-15864	-2536	-1464	-27	-53	-32	-2272	-1936	16704	30	-8	3	-7784	4668	13236	-50	137	-177	-16288	4264	-212	153	-38	164	-5036	-1400	15712	59	-155	228	127	127	5
-5864	-5432	14608	94	-30	-125	-15896	-2568	-1468	-18	-63	-51	-2240	-1888	16896	30	-3	3	-7828	4688	13256	-79	134	-222	-16192	4204	-260	89	-25	149	-5092	-1448	15656	63	-162	203	127	126	5
-5932	-5444	14556	100	-17	-144	-15928	-2584	-1528	-33	-55	-79	-2288	-1912	17024	26	-3	3	-7764	4624	13268	-89	164	-179	-16288	4184	-188	86	-27	133	-5056	-1488	15648	36	-121	190	127	127	5
-5940	-5484	14596	123	-48	-132	-15896	-2540	-1492	-26	-89	-46	-2232	-2080	16728	31	-1	1	-7820	4636	13328	-105	149	-161	-16316	4232	-204	67	-51	122	-5036	-1400	15708	35	-151	212	127	126	5
-5876	-5476	14640	113	12	-124	-15996	-2544	-1524	-27	-68	-44	-2432	-1912	16456	29	-4	0	-7764	4620	13316	-133	162	-192	-16320	4188	-60	110	-21	122	-5144	-1440	15656	92	-166	177	127	127	5
-5896	-5476	14488	128	-59	-128	-15864	-2540	-1472	18	-73	-36	-2352	-2016	16952	25	-3	-1	-7832	4676	13168	-100	146	-207	-16284	4232	-192	138	-55	148	-5080	-1488	15764	95	-186	197	127	127	5
-5884	-5480	14632	113	-47	-143	-15916	-2516	-1700	-23	-77	-42	-2264	-1960	16816	25	1	0	-7820	4648	13324	-87	131	-194	-16276	4228	-148	106	-29	142	-5108	-1480	15792	53	-167	193	127	126	5
-5868	-5416	14592	163	-75	-140	-15896	-2532	-1492	-11	-77	-17	-2264	-1944	16488	28	-1	-1	-7796	4636	13188	-108	113	-201	-16312	4192	-92	71	-48	106	-5060	-1524	15768	93	-166	205	127	126	5
-5876	-5488	14572	123	-33	-107	-15968	-2568	-1424	-23	-77	-47	-2240	-1960	16736	26	-1	3	-7776	4588	13188	-119	148	-156	-16280	4188	-136	139	5	148	-5084	-1524	15776	108	-172	233	127	126	5
-5948	-5448	14568	147	5	-91	-15924	-2600	-1560	13	-76	-39	-2304	-1856	16800	31	-6	0	-7740	4656	13164	-106	146	-177	-16224	4136	-156	102	10	142	-5104	-1508	15588	71	-185	195	127	127	5
-5908	-5456	14492	145	-26	-162	-15928	-2544	-1560	24	-93	-24	-2304	-1912	16736	30	-3	1	-7816	4596	13332	-101	145	-192	-16248	4232	-216	123	3	180	-5088	-1524	15584	50	-148	207	127	127	5
-5988	-5464	14564	133	-44	-112	-15924	-2504	-1544	25	-44	-58	-2264	-2000	16768	25	-2	0	-7732	4624	13248	-48	120	-171	-16252	4136	-184	107	-29	124	-5104	-1444	15684	73	-139	220	127	127	5
-5884	-5504	14652	110	-9	-121	-15952	-2528	-1516	-12	-65	-35	-2144	-1888	16528	31	-5	4	-7840	4660	13268	-49	162	-234	-16264	4164	-64	135	-18	137	-5040	-1532	15724	30	-166	193	127	127	5
-5916	-5440	14604	142	1	-138	-15900	-2500	-1484	-19	-63	-37	-2216	-1776	16664	32	-4	7	-7772	4628	13248	-77	155	-201	-16264	4172	-128	126	13	126	-5088	-1412	15764	66	-163	208	127	127	5
-5904	-5476	14672	124	-10	-132	-15888	-2532	-1500	-7	-41	-72	-2224	-1928	16624	28	2	6	-7776	4596	13212	-59	134	-217	-16224	4168	-128	130	18	115	-5108	-1476	15724	85	-195	197	127	127	5
-5904	-5492	14520	110	-47	-113	-15932	-2584	-1672	16	-82	-32	-2248	-1912	16616	28	0	8	-7828	4624	13224	-52	169	-177	-16276	4276	-152	102	-37	140	-5076	-1520	15668	86	-154	206	127	127	5
-5908	-5468	14668	138	-3	-122	-15940	-2556	-1500	11	-57	-19	-2200	-2072	16800	30	-6	3	-7716	4636	13264	-95	150	-147	-16264	4156	-108	125	-34	135	-5092	-1500	15536	120	-171	236	127	127	5
-5916	-5432	14584	123	-42	-124	-15896	-2544	-1592	-9	-100	-25	-2384	-1872	17088	31	-8	4	-7784	4568	13304	-104	144	-211	-16232	4216	-176	100	-15	137	-5104	-1512	15656	96	-197	224	126	127	5
-5872	-5428	14628	122	-22	-117	-15920	-2540	-1452	-18	-106	-44	-2264	-1824	16728	27	-8	2	-7776	4612	13324	-70	161	-203	-16272	4164	-128	118	-49	173	-5132	-1440	15636	128	-150	180	127	127	5
-5868	-5468	14576	136	-27	-112	-15928	-2480	-1500	-27	-117	-12	-2176	-1920	16848	27	-2	1	-7832	4628	13212	-95	125	-165	-16300	4160	-164	111	-74	175	-5092	-1452	15644	117	-172	170	127	127	5
-5900	-5472	14624	126	12	-95	-15948	-2504	-1500	-29	-116	-14	-2264	-1784	16736	31	-4	3	-7796	4592	13280	-64	118	-217	-16280	4184	-176	108	-42	172	-5080	-1496	15732	104	-160	190	127	127	5
-5880	-5480	14636	129	-37	-114	-15916	-2496	-1380	-9	-77	-30	-2304	-1744	16800	30	-1	5	-7804	4648	13208	-69	148	-170	-16280	4248	-104	135	-16	163	-5048	-1508	15684	102	-151	155	127	127	5
-5932	-5476	14636	137	-56	-126	-15996	-2564	-1560	23	-69	-61	-2096	-1800	16616	28	-4	6	-7768	4636	13288	-77	135	-190	-16212	4212	-156	122	24	149	-4956	-1468	15748	71	-183	200	127	127	5
-5880	-5480	14612	111	-17	-150	-15980	-2548	-1472	4	-75	-71	-2328	-1936	16888	26	-3	7	-7768	4644	13148	-95	164	-174	-16196	4224	-264	110	-10	156	-5052	-1436	15676	66	-190	203	127	127	5
-5916	-5520	14592	113	-36	-93	-15948	-2540	-1440	-9	-83	-67	-2200	-1768	16504	28	-3	3	-7808	4612	13256	-91	143	-145	-16344	4248	-132	92	54	153	-5040	-1416	15748	82	-164	194	127	126	5
-5904	-5460	14632	111	2	-131	-15904	-2520	-1508	-19	-50	-93	-2272	-1928	16736	31	-5	1	-7800	4640	13236	-97	146	-199	-16288	4244	-128	123	12	126	-5084	-1452	15652	55	-160	177	127	127	5
-5864	-5444	14588	104	-43	-138	-15948	-2540	-1492	-39	-78	-48	-2104	-1936	16632	29	-3	5	-7776	4672	13224	-75	143	-193	-16284	4244	-252	130	-59	101	-5100	-1400	15652	57	-137	223	127	126	5
-5848	-5472	14488	100	-11	-73	-15908	-2560	-1524	-3	-66	-57	-2200	-1896	16776	29	-4	1	-7788	4608	13352	-133	145	-194	-16308	4196	-112	114	-64	108	-5100	-1388	15692	69	-159	220	127	126	5
-5932	-5456	14624	154	-32	-109	-15844	-2536	-1592	20	-108	-18	-2392	-1736	16504	26	3	-1	-7768	4612	13240	-88	114	-200	-16284	4248	-144	114	-16	95	-5084	-1432	15728	74	-194	206	127	127	5
-5968	-5424	14488	160	11	-124	-15928	-2528	-1468	6	-66	-39	-2256	-1856	16944	31	-2	-1	-7760	4584	13292	-114	123	-191	-16332	4252	-196	126	-37	173	-5072	-1412	15692	55	-183	183	127	127	5
-5920	-5492	14520	111	-37	-104	-15916	-2464	-1524	-1	-83	-48	-2248	-1856	16680	27	0	1	-7820	4624	13252	-65	149	-190	-16212	4224	-136	106	-53	134	-5084	-1420	15728	3	-141	206	127	127	5
-5912	-5468	14568	136	-34	-126	-15876	-2508	-1476	-10	-67	-40	-2336	-1808	16648	28	-1	0	-7764	4668	13204	-105	121	-196	-16296	4168	-184	79	-37	119	-5100	-1468	15664	9	-172	214	127	127	5
-5856	-5452	14616	146	-10	-156	-15964	-2536	-1512	-14	-82	-22	-2176	-1904	16704	31	-6	5	-7744	4552	13236	-85	144	-200	-16220	4148	-104	95	-20	160	-5088	-1484	15656	53	-181	199	127	127	5
-5920	-5376	14556	81	30	-172	-15964	-2492	-1468	-20	-49	-66	-2224	-1832	16944	29	-3	1	-7748	4576	13204	-89	159	-177	-16300	4152	-204	108	-60	134	-5068	-1520	15728	80	-157	178	127	126	5
-5952	-5480	14612	97	17	-130	-15924	-2480	-1556	6	-75	-66	-2208	-1856	16792	28	-2	6	-7912	4612	13204	-89	126	-185	-16216	4232	-48	133	-20	151	-5148	-1472	15736	56	-170	196	127	126	5
-5876	-5424	14544	111	-27	-136	-15936	-2592	-1488	-6	-54	-60	-2168	-1928	16584	31	-4	3	-7784	4680	13184	-82	148	-158	-16288	4244	-172	113	-13	153	-5048	-1456	15664	50	-161	207	127	127	5
-5896	-5452	14636	146	-38	-136	-15980	-2528	-1560	-2	-67	-42	-2328	-1912	16792	25	-7	4	-7804	4592	13296	-99	119	-208	-16224	4248	-240	81	-27	134	-5108	-1388	15876	109	-147	234	127	127	5
-5852	-5468	14604	101	7	-152	-15964	-2516	-1564	-21	-93	-77	-2344	-1904	16720	23	-3	3	-7752	4680	13224	-62	146	-206	-16220	4224	-256	100	-20	125	-5052	-1428	15772	68	-159	206	127	127	5
-5916	-5452	14616	133	-27	-118	-15924	-2488	-1480	-35	-101	-96	-2280	-1864	16504	26	0	6	-7832	4660	13168	-100	126	-208	-16252	4164	-220	96	-6	157	-5068	-1424	15620	91	-128	205	127	127	5
-5872	-5428	14492	138	-33	-120	-15920	-2552	-1528	-24	-98	-62	-2224	-2032	16480	27	-3	3	-7792	4588	13260	-79	123	-230	-16252	4188	-176	114	-16	149	-5060	-1464	15764	84	-178	200	127	127	5
-5840	-5408	14612	136	-54	-133	-15896	-2556	-1576	-10	-87	-46	-2272	-1720	16512	26	-8	1	-7736	4636	13144	-83	163	-225	-16276	4236	-116	125	-2	145	-4996	-1452	15604	65	-180	181	127	127	5
-5904	-5472	14600	136	-43	-145	-15952	-2460	-1472	2	-73	-6	-2120	-1856	16568	29	-4	3	-7808	4616	13180	-63	127	-215	-16252	4248	-168	119	-18	146	-5060	-1492	15740	66	-133	219	127	127	5
-5968	-5500	14576	130	-61	-108	-15940	-2520	-1480	5	-90	-71	-2176	-1872	16848	29	-3	6	-7772	4588	13288	-85	138	-202	-16316	4292	-188	119	-11	155	-5084	-1444	15692	56	-142	217	127	127	5
-5900	-5468	14548	114	-9	-122	-15896	-2548	-1504	-37	-80	-59	-2240	-1992	16856	31	-4	7	-7756	4580	13276	-85	182	-176	-16288	4224	-160	84	-58	116	-5052	-1420	15620	62	-162	188	127	127	5
-5880	-5452	14676	142	-37	-102	-15928	-2524	-1592	-21	-62	-23	-2080	-1824	16920	24	0	2	-7832	4652	13208	-97	133	-191	-16308	4204	-132	118	-32	158	-4992	-1440	15716	32	-166	225	127	127	5
-5880	-5456	14612	158	-40	-121	-15924	-2608	-1512	-27	-44	-36	-2336	-1880	16552	22	1	3	-7760	4608	13304	-110	172	-175	-16240	4220	-80	117	8	139	-5032	-1508	15776	75	-155	203	127	127	5
-5884	-5488	14608	134	-26	-109	-15924	-2572	-1544	24	-56	-50	-2256	-1808	16536	28	-1	1	-7800	4640	13308	-93	142	-164	-16228	4216	-88	135	-71	135	-5040	-1464	15848	56	-145	217	127	127	5
-5932	-5464	14648	117	-20	-116	-15916	-2524	-1496	14	-42	-45	-2248	-2024	16816	27	-3	2	-7712	4604	13224	-80	174	-185	-16228	4172	-164	107	-12	95	-5056	-1416	15848	47	-129	188	127	127	5
-5908	-5424	14596	147	-10	-123	-15924	-2500	-1492	-28	-48	-27	-2232	-1936	16680	28	2	1	-7844	4724	13240	-85	191	-142	-16300	4272	-164	116	-28	117	-5116	-1412	15756	42	-139	221	127	127	5
-5932	-5428	14592	117	-37	-147	-15900	-2556	-1452	-7	-31	-53	-2256	-1768	16656	26	-5	2	-7760	4648	13248	-102	162	-155	-16292	4212	-144	82	23	86	-5096	-1400	15692	72	-157	193	127	127	5
-5904	-5440	14596	108	-18	-112	-15900	-2556	-1508	3	-19	-54	-2208	-1888	16680	26	-3	8	-7760	4660	13224	-110	170	-198	-16276	4240	-212	110	-16	88	-5172	-1396	15720	68	-159	232	127	127	5
-5872	-5424	14512	102	41	-134	-15896	-2576	-1504	-26	-28	-46	-2328	-1896	16688	28	1	7	-7736	4628	13196	-71	159	-148	-16240	4208	-248	111	8	123	-5132	-1408	15636	70	-162	170	127	127	5
-5900	-5436	14552	143	-9	-139	-15972	-2564	-1500	-1	-45	-34	-2432	-2048	16792	31	-3	3	-7800	4612	13132	-86	142	-186	-16324	4168	-164	93	-31	106	-5088	-1404	15668	72	-167	225	127	127	5
-5944	-5448	14536	136	2	-147	-15928	-2608	-1480	-41	-83	-35	-2224	-1824	16560	25	-5	3	-7804	4560	13208	-105	97	-209	-16276	4216	-136	100	-81	129	-5156	-1564	15696	64	-151	241	127	127	5
-5892	-5456	14488	140	-25	-149	-16000	-2524	-1640	-12	-65	-53	-2376	-1888	16816	29	-2	2	-7772	4664	13252	-104	154	-169	-16264	4212	-128	154	-42	132	-5144	-1484	15660	106	-149	193	127	127	5
-5900	-5488	14636	130	-19	-156	-15940	-2496	-1540	-17	-71	-42	-2240	-1848	16720	26	2	4	-7800	4632	13200	-75	130	-166	-16284	4232	-212	141	-52	141	-5104	-1476	15652	143	-161	221	127	127	5
-5888	-5460	14580	138	-22	-114	-15940	-2512	-1508	3	-98	-33	-2280	-1952	16656	27	-3	0	-7836	4624	13220	-69	102	-178	-16280	4164	-120	89	-50	144	-5052	-1476	15680	70	-146	184	127	127	5
-5892	-5412	14560	119	-45	-124	-15952	-2556	-1592	-24	-86	-46	-2136	-2000	16552	27	-2	3	-7744	4580	13388	-82	139	-200	-16248	4196	-156	112	-52	177	-5096	-1500	15780	81	-155	169	127	127	5
-5896	-5432	14648	131	-32	-129	-15944	-2600	-1524	-39	-82	-55	-2232	-1824	16680	24	0	3	-7860	4624	13260	-54	130	-186	-16300	4204	-232	117	17	167	-5044	-1504	15760	86	-181	194	127	126	5
-5844	-5500	14532	113	-41	-139	-15940	-2584	-1580	20	-50	-43	-2328	-2000	16944	24	-3	6	-7768	4644	13268	-88	124	-138	-16268	4232	-156	106	-18	179	-4996	-1424	15680	105	-163	204	127	127	5
-5928	-5492	14628	132	-75	-114	-15964	-2512	-1500	-23	-57	-108	-2224	-1808	16600	28	-8	2	-7808	4648	13328	-85	128	-170	-16332	4192	-104	124	-33	141	-5000	-1356	15692	83	-174	179	127	127	5
-5908	-5468	14536	137	-64	-129	-15860	-2516	-1564	-31	-48	4	-2232	-1896	16704	26	0	2	-7748	4644	13232	-88	128	-186	-16280	4236	-112	101	2	178	-5092	-1360	15740	88	-148	186	127	127	5
-5864	-5456	14632	127	-7	-117	-15964	-2568	-1552	-24	-93	-23	-2200	-1992	16920	30	0	2	-7820	4620	13208	-126	151	-178	-16300	4212	-136	135	-22	141	-5064	-1388	15732	68	-185	231	127	126	5
-5872	-5480	14652	165	-37	-109	-15892	-2544	-1532	-32	-57	-54	-2168	-1856	16768	28	-1	-1	-7784	4584	13224	-107	140	-211	-16212	4192	-196	114	-72	150	-5108	-1400	15780	80	-143	241	127	127	5
-5944	-5476	14592	126	6	-100	-15892	-2504	-1508	-3	-95	-23	-2296	-1768	16616	25	-5	0	-7816	4676	13144	-116	143	-176	-16236	4224	-208	108	-35	118	-5040	-1392	15780	9	-168	233	127	127	5
-5988	-5432	14512	137	-21	-146	-15948	-2504	-1588	11	-67	-21	-2256	-1888	16664	28	-4	1	-7756	4648	13384	-97	128	-204	-16292	4208	-160	121	-48	99	-5112	-1400	15768	49	-132	235	127	127	5
-5924	-5480	14564	168	1	-100	-15916	-2548	-1420	14	-64	-27	-2256	-1816	16760	31	-2	2	-7768	4536	13188	-131	107	-195	-16244	4180	-104	93	-25	161	-5040	-1456	15764	67	-140	226	127	127	5
-5888	-5464	14620	149	-2	-92	-15956	-2468	-1428	-4	-43	-22	-2336	-1800	16736	30	0	-2	-7832	4608	13204	-135	133	-166	-16248	4196	-88	101	-48	128	-5112	-1476	15656	57	-139	218	127	127	5
-5872	-5420	14552	95	-39	-141	-15860	-2500	-1516	-10	-46	-23	-2224	-1856	16552	29	-3	0	-7764	4608	13216	-83	134	-177	-16296	4208	-196	100	5	142	-5096	-1428	15720	46	-160	192	127	127	5
-5940	-5424	14592	127	-52	-137	-15936	-2500	-1552	5	-59	-27	-2240	-1872	16416	27	-6	5	-7800	4540	13228	-69	149	-250	-16184	4188	-192	92	0	122	-5080	-1508	15716	35	-158	207	127	126	5
-5872	-5500	14568	129	-64	-120	-15960	-2468	-1628	-14	-75	-45	-2256	-1928	16584	29	-1	6	-7852	4636	13368	-68	127	-158	-16324	4228	-164	144	-15	127	-5076	-1472	15744	62	-135	217	127	127	5
-5884	-5508	14568	92	-16	-119	-15892	-2480	-1500	-36	-31	-112	-2232	-1912	16840	31	-3	6	-7848	4572	13128	-60	130	-196	-16284	4220	-124	174	-32	128	-5128	-1464	15792	61	-176	172	127	127	5
-5928	-5432	14568	145	-36	-129	-15872	-2568	-1524	-34	-76	-75	-2264	-1832	16856	29	-2	1	-7752	4656	13272	-78	124	-181	-16244	4268	-172	124	-8	133	-5108	-1424	15700	67	-144	191	127	127	5
-5856	-5468	14608	112	-7	-119	-15904	-2572	-1600	-36	-87	-43	-2080	-1992	16632	26	-4	5	-7772	4644	13236	-74	132	-162	-16256	4184	-68	101	-25	156	-5064	-1476	15780	54	-167	193	127	127	5
-5836	-5444	14488	98	-35	-138	-15980	-2536	-1576	-27	-76	-55	-2376	-1904	16800	21	-2	3	-7772	4556	13192	-123	142	-170	-16276	4228	-188	121	-73	158	-5120	-1444	15624	67	-149	211	127	127	5
-5852	-5464	14560	177	-25	-118	-15940	-2480	-1612	-29	-92	-62	-2216	-1784	16720	27	-5	5	-7828	4636	13272	-91	172	-190	-16300	4240	-8	123	-44	108	-5028	-1376	15704	83	-162	206	127	127	5
-5880	-5460	14636	113	-44	-77	-15912	-2464	-1560	-8	-52	-56	-2392	-2000	16568	28	-2	2	-7788	4640	13184	-132	135	-189	-16280	4232	-104	90	-13	136	-5108	-1404	15696	76	-156	204	127	127	5
-5884	-5472	14632	132	-88	-139	-15912	-2492	-1568	2	-88	-39	-2152	-1808	16672	28	-5	5	-7792	4656	13280	-68	140	-202	-16272	4208	-200	112	-30	129	-5028	-1400	15776	64	-187	212	127	127	5
-5912	-5460	14576	136	-56	-107	-15880	-2540	-1396	25	-95	-59	-2224	-1904	16712	26	-5	5	-7724	4580	13240	-84	137	-181	-16264	4248	-164	110	-25	112	-5048	-1480	15644	78	-172	227	127	127	5
-5936	-5444	14456	75	0	-151	-15968	-2488	-1588	-2	-57	-56	-2296	-1960	16608	30	-5	5	-7776	4576	13212	-79	156	-180	-16248	4204	-24	121	-14	121	-5092	-1476	15724	128	-143	231	127	126	5
-5896	-5380	14540	137	7	-175	-15924	-2524	-1564	-20	-73	-7	-2224	-1936	16832	28	2	6	-7820	4640	13284	-67	124	-209	-16256	4256	-124	115	-26	130	-5032	-1468	15620	94	-143	215	127	127	5
-5928	-5488	14652	144	-44	-173	-15912	-2516	-1532	-21	-83	-26	-2296	-1832	16952	28	-2	2	-7808	4584	13216	-78	116	-208	-16272	4240	-148	108	-25	133	-5060	-1484	15756	69	-145	186	127	127	5
-5844	-5464	14556	158	-36	-143	-15920	-2592	-1536	7	-65	-46	-2288	-1936	16648	27	0	-1	-7800	4624	13228	-99	137	-164	-16248	4228	-148	108	0	165	-5064	-1460	15732	49	-191	228	127	127	5
-5952	-5452	14660	147	-47	-81	-15840	-2544	-1484	23	-82	-20	-2104	-1824	16584	28	-6	-1	-7744	4676	13200	-89	139	-172	-16264	4260	-112	122	-40	148	-5036	-1480	15748	80	-138	208	127	127	5
-5884	-5444	14664	132	-59	-171	-15944	-2508	-1456	4	-53	-57	-2224	-1968	16776	25	-2	5	-7772	4608	13232	-99	138	-195	-16216	4220	-168	143	-1	132	-5040	-1464	15732	85	-116	194	127	127	5
-5844	-5416	14580	135	-65	-104	-15960	-2536	-1440	-26	-64	-29	-2360	-1864	16720	32	-3	2	-7752	4540	13312	-71	134	-183	-16176	4292	-60	107	3	139	-5076	-1412	15804	74	-128	178	127	126	5
-5872	-5440	14612	115	-18	-99	-15932	-2580	-1556	16	-50	10	-2192	-1856	16864	30	-1	4	-7768	4592	13300	-54	144	-190	-16268	4220	-296	105	-11	136	-5076	-1416	15772	71	-163	186	127	126	5
-5932	-5460	14588	132	26	-127	-15928	-2484	-1620	37	-70	-43	-2232	-1944	16656	29	-1	4	-7816	4560	13276	-63	137	-211	-16284	4236	-48	102	7	102	-5160	-1428	15668	77	-166	246	127	127	5
-5888	-5436	14632	121	-24	-65	-15912	-2476	-1484	11	-40	-12	-2256	-1880	16816	28	-2	3	-7824	4592	13252	-82	153	-208	-16240	4176	-196	132	-2	109	-5060	-1396	15800	61	-164	209	127	127	5
-5944	-5448	14576	99	-22	-95	-15980	-2476	-1528	-27	-63	-24	-2320	-1896	16704	30	0	4	-7760	4596	13352	-129	163	-181	-16284	4212	-132	118	-55	116	-5144	-1384	15664	69	-151	226	127	127	5
-5924	-5488	14608	127	-51	-107	-15884	-2572	-1544	-35	-90	-16	-2296	-1912	16800	27	1	0	-7788	4608	13276	-144	130	-182	-16248	4248	-180	110	-18	129	-5128	-1476	15596	53	-167	250	127	127	5
-5896	-5480	14584	131	10	-129	-15880	-2556	-1528	-6	-91	-28	-2248	-2024	16616	28	0	-2	-7844	4624	13220	-108	151	-182	-16276	4228	-156	112	-41	118	-5072	-1516	15608	87	-176	239	127	126	5
-5908	-5428	14580	113	15	-113	-15968	-2524	-1452	-11	-110	-57	-2224	-1784	16592	27	-3	2	-7776	4640	13212	-94	119	-178	-16212	4208	-140	139	-13	112	-5124	-1460	15628	85	-156	209	127	127	5
-5836	-5460	14516	143	-54	-135	-15960	-2524	-1528	14	-110	-45	-2168	-1760	16656	24	-3	5	-7812	4596	13232	-75	124	-212	-16260	4160	-172	143	-36	144	-5124	-1508	15660	80	-157	185	127	127	5
-5880	-5420	14600	94	45	-142	-15944	-2536	-1508	-30	-109	-74	-2296	-1912	16536	26	-3	3	-7800	4632	13236	-102	136	-167	-16264	4220	-144	117	-78	165	-5136	-1552	15648	77	-153	188	127	127	5
-5948	-5476	14648	125	-10	-86	-15896	-2512	-1592	-1	-99	-67	-2392	-1736	16400	26	-3	5	-7824	4628	13268	-72	140	-178	-16256	4228	-56	99	-55	177	-5136	-1480	15760	131	-114	178	127	126	5
-5944	-5436	14580	117	-49	-139	-15896	-2520	-1524	-13	-83	-61	-2216	-1824	16720	22	-4	4	-7788	4612	13312	-80	127	-188	-16276	4188	-96	112	21	183	-5052	-1480	15656	88	-145	162	127	126	5
-5880	-5460	14640	116	-12	-134	-15936	-2536	-1488	-14	-53	-74	-2208	-1856	16688	22	-1	5	-7756	4600	13200	-61	116	-176	-16240	4216	-136	125	-2	181	-5052	-1420	15792	96	-129	169	127	127	5
-5884	-5384	14560	124	-11	-113	-16008	-2532	-1456	-27	-43	-65	-2248	-1944	16712	24	-2	8	-7808	4656	13368	-71	139	-185	-16284	4232	-220	121	-25	154	-5040	-1412	15756	70	-158	202	127	126	5
-5876	-5444	14500	136	-45	-124	-15896	-2536	-1496	5	-57	-52	-2208	-1952	16656	27	-5	1	-7764	4656	13144	-113	135	-189	-16288	4232	-96	88	-22	161	-5044	-1380	15780	81	-176	191	127	127	5
-5864	-5396	14620	142	-41	-115	-15860	-2556	-1552	-15	-47	-64	-2120	-1936	17000	28	-3	1	-7740	4696	13232	-86	140	-197	-16216	4296	-92	113	11	151	-5076	-1400	15676	62	-159	226	127	126	5
-5928	-5428	14560	140	-7	-120	-15916	-2572	-1504	-10	-68	-68	-2248	-1976	16568	31	-1	2	-7792	4580	13272	-101	108	-196	-16268	4200	-152	152	-44	121	-5012	-1436	15764	68	-184	193	127	127	5
-5960	-5476	14576	117	-64	-130	-15924	-2516	-1548	15	-95	-19	-2200	-1936	16728	27	2	0	-7744	4632	13300	-108	148	-170	-16312	4252	-204	121	-20	139	-5016	-1416	15672	36	-133	210	127	127	5
-5888	-5492	14628	138	-53	-146	-15900	-2556	-1392	-29	-92	-36	-2272	-1896	16776	30	-4	1	-7756	4564	13332	-102	128	-220	-16212	4208	-116	104	-30	110	-5072	-1412	15688	17	-146	195	127	127	5
-5956	-5432	14680	132	-32	-128	-15932	-2536	-1500	-12	-86	-21	-2192	-1856	16920	33	-1	2	-7804	4556	13228	-66	134	-143	-16304	4228	-132	113	-29	112	-5084	-1472	15780	25	-180	195	127	127	5
-5952	-5404	14608	135	13	-111	-15912	-2516	-1476	1	-63	-36	-2304	-1952	16720	29	0	2	-7788	4560	13216	-101	152	-149	-16332	4204	-60	109	-58	140	-5116	-1456	15660	51	-169	207	127	127	5
-5900	-5400	14556	104	-11	-126	-16004	-2460	-1516	-19	-71	-28	-2216	-1912	16504	30	-2	2	-7752	4648	13320	-97	142	-191	-16312	4184	-200	97	24	130	-5072	-1504	15692	34	-163	205	127	127	5
-5932	-5436	14632	125	-33	-103	-15960	-2476	-1552	-21	-42	-64	-2280	-1992	16672	28	-8	0	-7724	4600	13264	-104	154	-189	-16280	4156	-160	134	3	116	-5060	-1500	15616	16	-146	190	127	127	5
-5864	-5424	14676	125	-29	-122	-15932	-2556	-1472	-15	-60	-53	-2224	-1800	16608	30	-2	2	-7840	4636	13308	-98	145	-165	-16308	4184	-116	118	27	107	-5124	-1468	15748	57	-148	203	127	127	5
-5900	-5536	14560	107	-8	-122	-15956	-2528	-1560	-5	-29	-47	-2304	-1824	16656	27	0	4	-7788	4668	13180	-103	143	-186	-16300	4220	-80	142	-21	146	-5096	-1400	15696	25	-152	174	127	127	5
-5900	-5452	14664	140	-51	-108	-15952	-2508	-1448	14	-44	-54	-2232	-1800	16712	27	-5	5	-7772	4604	13324	-126	149	-209	-16264	4176	-136	120	-14	133	-5076	-1416	15724	34	-164	207	127	126	5
-5856	-5436	14628	123	9	-129	-15960	-2532	-1484	-33	-38	-67	-2280	-1904	16616	26	2	1	-7788	4616	13320	-54	142	-215	-16236	4208	-200	108	-37	158	-5060	-1412	15664	62	-131	204	127	126	5
-5888	-5444	14436	106	-26	-116	-15812	-2632	-1608	-33	-42	-67	-2264	-1968	16728	27	3	3	-7804	4632	13220	-120	98	-200	-16288	4256	-120	105	-4	136	-5104	-1456	15652	37	-166	222	127	127	5
-5880	-5444	14544	113	-67	-116	-15912	-2612	-1564	-18	-103	-73	-2280	-1792	16608	30	0	1	-7800	4644	13148	-113	142	-196	-16284	4276	-168	111	-6	127	-5088	-1476	15652	47	-172	209	127	127	5
-5928	-5420	14596	107	-32	-132	-15884	-2492	-1552	-15	-68	-49	-2264	-1800	16664	27	0	0	-7724	4588	13244	-125	112	-184	-16212	4232	-248	100	-23	134	-5068	-1428	15656	56	-184	237	127	127	5
-5884	-5416	14516	124	-14	-141	-15948	-2560	-1480	-33	-78	-32	-2280	-1920	16608	33	0	4	-7748	4596	13280	-112	157	-181	-16256	4216	-168	152	-24	141	-5052	-1440	15744	41	-154	221	127	126	5
-5836	-5444	14584	153	-66	-130	-15920	-2540	-1424	-1	-66	-37	-2248	-1968	16968	34	1	3	-7776	4588	13236	-99	151	-180	-16304	4180	-248	104	-43	146	-5076	-1464	15740	44	-129	199	127	127	5
-5920	-5436	14620	110	-30	-120	-15932	-2588	-1480	-26	-96	-36	-2208	-1992	16728	32	-3	1	-7836	4620	13300	-94	117	-190	-16280	4204	-84	119	-46	183	-5052	-1476	15716	58	-142	219	127	127	5
-5912	-5400	14584	141	-11	-132	-15916	-2612	-1508	13	-82	-38	-2280	-1888	16856	34	-4	1	-7744	4656	13224	-104	128	-196	-16248	4184	-152	116	-62	136	-5076	-1472	15584	44	-142	221	127	127	5
-5932	-5460	14620	166	-54	-157	-15932	-2532	-1452	34	-99	-19	-2216	-1880	16728	28	-4	4	-7732	4636	13348	-107	123	-172	-16284	4204	-92	106	-57	163	-5100	-1452	15736	61	-135	184	127	127	5
-5932	-5436	14600	147	-12	-120	-15908	-2500	-1460	-9	-91	-68	-2232	-1864	16776	28	3	2	-7772	4612	13376	-75	151	-170	-16292	4176	-28	105	-36	134	-5088	-1432	15688	72	-166	186	127	126	5
-5912	-5484	14576	135	-11	-80	-15968	-2496	-1540	-12	-47	-33	-2216	-1808	16568	25	1	0	-7760	4592	13284	-71	130	-157	-16268	4248	-76	148	-43	166	-5072	-1520	15736	54	-153	195	127	127	5
-5896	-5492	14580	133	-28	-140	-15948	-2604	-1496	3	-65	-39	-2368	-1872	16840	30	-2	-3	-7792	4608	13260	-77	139	-194	-16252	4216	-164	139	-21	178	-5064	-1496	15784	36	-155	206	127	127	5
-5904	-5496	14604	150	-35	-96	-15872	-2484	-1512	32	-70	-53	-2200	-2032	16616	29	-2	-1	-7844	4668	13268	-105	114	-189	-16300	4216	-196	129	19	110	-5028	-1416	15692	46	-185	244	127	127	5
-5940	-5472	14552	105	26	-115	-15976	-2512	-1436	-25	-13	-64	-2272	-1912	16712	30	-1	3	-7780	4612	13284	-75	125	-179	-16244	4216	-184	85	21	127	-5040	-1432	15616	38	-145	250	127	126	5
-5904	-5508	14600	139	-18	-127	-15884	-2540	-1568	39	-34	-37	-2216	-1984	16784	29	-2	3	-7824	4636	13216	-77	164	-214	-16312	4180	-144	97	5	116	-5060	-1416	15756	33	-126	229	127	127	5
-5872	-5384	14628	117	-76	-99	-15944	-2528	-1652	5	-21	-30	-2192	-1936	16800	28	0	5	-7812	4656	13212	-106	115	-175	-16300	4200	24	94	11	111	-5112	-1400	15636	51	-150	216	127	127	5
-5920	-5508	14596	135	-60	-129	-15904	-2540	-1544	-11	-70	-13	-2192	-2056	16528	29	-3	3	-7812	4608	13268	-99	158	-209	-16296	4208	-228	120	9	114	-5144	-1416	15668	59	-176	251	127	126	5
-5856	-5420	14584	91	-73	-142	-15928	-2556	-1584	15	-90	-90	-2352	-1856	16688	30	1	4	-7828	4560	13252	-90	159	-177	-16252	4240	-96	109	0	136	-5152	-1368	15600	63	-158	211	127	127	5
-5956	-5436	14640	117	22	-132	-15924	-2508	-1648	18	-85	-17	-2248	-1768	16704	28	-1	5	-7812	4648	13280	-99	130	-179	-16244	4224	-200	110	-40	123	-5132	-1472	15696	124	-152	236	127	127	5
-5876	-5412	14544	136	-31	-151	-15936	-2516	-1536	-17	-80	-77	-2424	-1888	16744	29	3	3	-7768	4616	13264	-112	117	-190	-16300	4232	-104	102	-77	147	-5080	-1476	15628	91	-161	218	127	127	5
-5924	-5472	14596	116	-44	-133	-15872	-2512	-1616	2	-109	-76	-2344	-1816	16712	27	-1	4	-7832	4616	13264	-116	116	-184	-16224	4084	-236	103	-52	187	-5120	-1464	15676	89	-134	196	127	127	5
-5876	-5464	14600	113	-65	-116	-15944	-2524	-1520	-57	-88	-68	-2176	-1776	16592	21	0	3	-7812	4588	13204	-93	126	-172	-16240	4156	-180	103	-31	147	-5048	-1548	15664	120	-180	201	127	127	5
-5880	-5404	14608	114	-59	-83	-15944	-2496	-1460	-58	-94	-16	-2104	-1976	16592	26	1	3	-7816	4604	13324	-89	133	-134	-16280	4208	-92	83	-30	151	-5092	-1488	15700	115	-148	199	127	126	5
-5792	-5420	14584	169	-53	-140	-15912	-2520	-1628	-56	-132	-67	-2112	-1664	16776	29	-1	-1	-7748	4616	13352	-100	157	-168	-16252	4196	-84	98	-67	183	-5080	-1552	15652	112	-124	201	127	126	5
-5904	-5408	14476	114	29	-134	-15896	-2548	-1508	-48	-76	-83	-2344	-1904	16688	21	0	2	-7840	4588	13340	-65	141	-157	-16276	4308	-192	132	-36	140	-5064	-1408	15784	42	-150	192	127	126	5
-5940	-5400	14692	109	3	-136	-15876	-2632	-1512	-11	-75	-37	-2120	-1896	16688	27	-5	0	-7768	4564	13276	-92	148	-192	-16256	4236	-140	123	-21	182	-5000	-1348	15680	50	-154	183	127	126	5
-5912	-5448	14536	85	-11	-116	-15952	-2616	-1556	-26	-52	-75	-2320	-1912	16856	29	-2	4	-7804	4652	13220	-104	123	-183	-16240	4252	-176	129	0	150	-5068	-1392	15684	69	-151	195	127	126	5
-5904	-5416	14524	131	-65	-116	-15952	-2496	-1512	-27	-56	-66	-2328	-2024	16472	28	-4	1	-7764	4596	13284	-92	136	-222	-16256	4288	-244	98	2	115	-5016	-1372	15792	5	-188	203	127	126	5
-5876	-5460	14560	126	-37	-128	-15920	-2624	-1544	14	-57	-48	-2248	-1928	16656	28	-3	-3	-7816	4644	13240	-87	139	-176	-16328	4256	-68	136	-6	134	-5056	-1408	15676	21	-142	231	127	127	5
-5936	-5412	14540	140	-5	-128	-15968	-2572	-1496	-26	-39	-41	-2144	-1776	16704	27	1	4	-7776	4640	13356	-100	145	-209	-16276	4192	-68	114	-73	115	-5068	-1416	15728	45	-147	222	127	127	5
-5876	-5468	14472	148	-27	-107	-15900	-2580	-1496	-29	-56	-23	-2304	-1896	16952	32	-4	0	-7772	4612	13268	-101	119	-188	-16352	4204	-104	94	-5	104	-5120	-1460	15672	54	-151	241	127	126	5
-5912	-5440	14560	135	-23	-129	-15940	-2496	-1552	46	-61	-17	-2400	-1936	16736	33	0	4	-7768	4624	13300	-122	139	-186	-16304	4260	-64	110	-27	117	-5104	-1424	15668	35	-182	235	127	126	5
-5892	-5412	14604	143	-58	-158	-15888	-2500	-1468	-4	-75	-39	-2168	-1728	16664	31	-1	-1	-7804	4592	13308	-114	161	-184	-16284	4232	-52	113	-53	129	-5056	-1520	15628	4	-125	204	127	126	5
-5876	-5404	14516	143	-25	-72	-15976	-2392	-1592	-12	-69	-33	-2392	-1760	16584	29	-3	-2	-7784	4632	13304	-121	120	-171	-16204	4204	-132	86	-70	86	-5140	-1520	15656	4	-179	197	127	126	5
-5868	-5456	14712	151	-75	-83	-15904	-2500	-1456	-33	-35	-55	-2384	-1720	16864	31	-5	-1	-7792	4600	13244	-98	142	-210	-16252	4220	-80	98	-53	129	-5132	-1500	15792	-5	-133	225	127	126	5
-5848	-5424	14592	110	-60	-136	-15908	-2540	-1568	-18	-68	-18	-2328	-1864	16960	34	-1	5	-7808	4576	13308	-65	102	-180	-16268	4244	-164	92	-49	112	-5080	-1560	15636	34	-146	203	127	126	5
-5900	-5360	14608	113	-42	-118	-15944	-2484	-1496	-10	-50	-46	-2144	-2040	16784	29	0	6	-7764	4536	13304	-74	120	-187	-16276	4212	-172	113	-12	109	-5128	-1444	15616	20	-157	197	127	126	5
-5912	-5424	14608	142	-43	-105	-15872	-2528	-1480	17	-63	-16	-2144	-1968	16856	30	1	8	-7844	4632	13308	-86	150	-167	-16264	4204	-52	128	23	125	-5032	-1464	15656	6	-158	193	127	126	5
-5840	-5516	14560	122	9	-124	-15952	-2508	-1588	18	-30	-66	-2272	-1920	16832	30	-4	6	-7752	4580	13276	-80	151	-191	-16264	4272	-240	126	-5	138	-5104	-1412	15760	60	-137	200	127	126	5
-5916	-5500	14520	120	-9	-121	-15928	-2548	-1484	16	-93	-52	-2240	-1776	16504	29	-5	2	-7724	4652	13236	-92	137	-172	-16268	4292	-192	137	-59	132	-5156	-1408	15676	68	-168	214	126	127	5
-5844	-5436	14564	159	-70	-118	-15972	-2524	-1504	-21	-62	-30	-2296	-1896	16584	30	-4	3	-7812	4644	13292	-111	143	-190	-16296	4224	-208	107	15	115	-5060	-1448	15820	42	-124	227	127	126	5
-5884	-5460	14564	113	24	-146	-15892	-2556	-1688	-4	-89	-25	-2336	-1800	16616	29	-1	2	-7844	4572	13276	-108	149	-202	-16232	4228	-200	111	-3	148	-5148	-1528	15720	27	-171	239	127	126	5
-5896	-5392	14584	116	-21	-115	-15956	-2508	-1592	-10	-97	-26	-2240	-1976	16712	30	-2	2	-7776	4636	13236	-107	163	-221	-16288	4180	-224	108	-23	116	-5112	-1484	15588	47	-118	191	127	126	5
-5940	-5440	14544	122	-74	-128	-15980	-2524	-1476	-34	-82	-36	-2120	-1968	16544	36	1	1	-7796	4552	13220	-79	133	-176	-16300	4192	-104	129	-13	125	-5092	-1444	15708	39	-134	178	127	126	5
-5888	-5388	14648	128	-44	-126	-15916	-2548	-1436	-11	-72	-65	-2208	-1952	16528	32	-2	1	-7744	4600	13312	-81	131	-186	-16240	4252	-280	126	-25	148	-5104	-1508	15624	71	-141	191	127	126	5
-5920	-5428	14612	145	-71	-147	-15964	-2476	-1520	15	-79	-67	-2360	-1912	16888	31	-1	1	-7744	4596	13188	-100	144	-205	-16272	4208	-52	131	-18	160	-5080	-1480	15756	61	-163	173	127	126	5
-5892	-5392	14656	161	-29	-121	-15944	-2476	-1536	-14	-97	-64	-2344	-1824	16760	30	-3	5	-7776	4576	13320	-110	145	-185	-16264	4200	-188	101	0	129	-5132	-1448	15568	61	-145	174	127	126	5
-5956	-5468	14532	130	-29	-102	-15964	-2560	-1660	-64	-96	-81	-2064	-1856	16760	29	2	4	-7800	4564	13272	-85	120	-164	-16264	4164	-236	117	16	137	-5144	-1508	15700	50	-150	217	127	126	5
-5844	-5436	14560	87	-34	-120	-16012	-2644	-1468	-24	-59	-22	-2264	-1936	16656	32	2	2	-7780	4624	13332	-54	152	-163	-16280	4268	-152	112	-13	137	-5100	-1520	15712	68	-157	228	127	126	5
-5884	-5444	14676	128	-18	-130	-15972	-2608	-1496	29	-57	-42	-2304	-2024	16592	27	-1	-5	-7820	4640	13276	-84	133	-169	-16292	4228	-200	138	-38	154	-5004	-1440	15636	19	-171	208	127	126	5
-5876	-5480	14568	134	3	-142	-15892	-2520	-1488	12	-81	-47	-2304	-1824	16744	28	0	-2	-7740	4584	13152	-129	152	-163	-16208	4220	-164	111	-33	129	-4976	-1420	15700	29	-163	220	127	126	5
-5900	-5440	14668	135	-35	-95	-16016	-2468	-1580	-18	-59	-53	-2240	-1848	16824	27	1	-2	-7736	4644	13160	-88	145	-190	-16260	4204	-164	128	-8	114	-5032	-1480	15696	46	-124	202	127	126	5
-5904	-5400	14612	120	-8	-121	-15924	-2520	-1592	-42	-3	-53	-2280	-1896	16472	31	-3	0	-7800	4584	13216	-87	135	-197	-16320	4224	-88	144	20	118	-5100	-1444	15800	30	-127	194	127	126	5
-5888	-5456	14588	95	-29	-123	-15908	-2584	-1456	3	-60	-22	-2280	-1776	16776	26	3	5	-7752	4636	13208	-66	105	-201	-16332	4212	-232	119	23	137	-5152	-1388	15696	92	-150	239	127	126	5
-5904	-5476	14540	119	-25	-138	-15940	-2504	-1608	73	-17	-7	-2176	-1896	16936	29	3	2	-7736	4612	13304	-96	150	-176	-16292	4184	-112	118	-28	122	-5140	-1400	15656	49	-140	221	127	126	5
-5864	-5444	14544	115	-13	-115	-15932	-2532	-1604	31	-57	-26	-2240	-1808	16616	29	-3	7	-7776	4576	13308	-113	161	-174	-16212	4200	-164	108	-40	101	-5136	-1488	15640	165	-160	202	127	126	5
-5936	-5460	14580	119	-17	-103	-15912	-2528	-1564	-31	-71	-19	-2240	-1896	16736	27	-3	4	-7796	4620	13176	-81	117	-182	-16276	4180	-192	148	-15	127	-5168	-1456	15636	134	-202	177	127	126	5
-5900	-5500	14600	112	-36	-120	-15916	-2448	-1500	-11	-75	-42	-2320	-1952	16624	30	-6	4	-7816	4620	13280	-96	172	-185	-16224	4148	-36	104	-57	140	-5152	-1496	15620	105	-166	214	127	126	5
-5920	-5456	14692	144	27	-144	-15940	-2564	-1548	-31	-70	-82	-2352	-1872	16896	28	-6	4	-7796	4580	13212	-92	108	-163	-16224	4224	-168	112	-37	130	-5084	-1508	15676	132	-166	190	127	126	5
-5944	-5372	14624	113	-43	-130	-15944	-2504	-1620	-19	-101	-75	-2152	-1864	16744	29	-3	1	-7752	4588	13324	-88	123	-184	-16216	4176	-88	102	-42	188	-5096	-1492	15720	152	-146	194	127	126	5
-5908	-5468	14552	101	-14	-143	-15964	-2448	-1452	1	-124	-61	-2160	-1720	16800	28	-2	4	-7828	4608	13348	-68	158	-195	-16220	4172	-60	140	-50	180	-5096	-1556	15584	135	-163	167	127	127	5
-5876	-5380	14680	111	-3	-150	-15928	-2500	-1576	-14	-105	-98	-2240	-1792	16864	26	-3	6	-7724	4536	13324	-46	136	-151	-16288	4184	-68	106	-34	189	-5060	-1480	15744	123	-123	159	127	126	5
-5864	-5480	14684	135	-40	-147	-15912	-2560	-1548	3	-55	-74	-2136	-1800	16648	24	-4	8	-7748	4608	13252	-91	149	-176	-16264	4240	-208	134	2	211	-5040	-1456	15636	93	-157	154	127	127	5
-5872	-5420	14616	95	-31	-100	-15928	-2540	-1380	-22	-64	-67	-2288	-1784	16792	26	-1	1	-7732	4568	13268	-53	124	-182	-16268	4276	-192	133	-17	206	-5020	-1460	15712	88	-146	177	127	126	5
-5900	-5468	14588	122	-66	-130	-15956	-2552	-1464	-10	-37	-88	-2072	-1864	16624	23	-6	6	-7804	4572	13156	-109	140	-187	-16352	4344	-24	127	-11	188	-5036	-1400	15800	102	-121	194	127	126	5
-5988	-5480	14556	120	-47	-111	-15948	-2560	-1476	-17	-77	-45	-2336	-1824	16848	25	-5	2	-7860	4664	13256	-89	121	-198	-16264	4376	-88	112	-50	150	-5060	-1372	15748	92	-185	181	127	126	5
-5872	-5456	14568	140	-28	-103	-15904	-2536	-1504	-6	-43	-52	-2152	-1904	16816	28	-4	1	-7748	4640	13264	-108	111	-232	-16248	4248	-216	127	7	131	-5056	-1336	15748	30	-168	210	127	126	5
-5884	-5412	14500	138	-6	-140	-15900	-2512	-1592	-21	-45	-36	-2320	-1728	16600	28	-6	4	-7828	4632	13228	-109	148	-194	-16264	4240	-196	139	-31	82	-5048	-1380	15744	49	-171	217	127	126	5
-5880	-5396	14652	125	-33	-143	-15888	-2492	-1456	3	-79	-13	-2392	-1992	16648	29	-2	2	-7836	4532	13344	-113	120	-184	-16272	4192	-176	110	-33	138	-5140	-1444	15672	28	-159	207	127	126	5
-5940	-5444	14632	138	-40	-128	-15904	-2532	-1460	-22	-76	7	-2096	-1808	16616	26	0	3	-7784	4612	13232	-113	132	-192	-16328	4204	-164	110	-39	110	-5080	-1472	15752	36	-165	222	127	126	5
-5928	-5548	14660	135	-18	-122	-15916	-2556	-1484	6	-74	-29	-2328	-1848	16728	31	-5	-2	-7724	4600	13124	-110	120	-166	-16236	4272	-136	104	-36	127	-5084	-1488	15680	36	-183	199	127	127	5
-5824	-5456	14648	124	16	-140	-15984	-2552	-1508	-16	-63	-27	-2256	-1784	16760	30	-1	0	-7836	4620	13180	-59	125	-176	-16264	4208	-236	104	-22	144	-5096	-1480	15608	55	-154	202	127	127	5
-5944	-5476	14548	116	-34	-108	-15968	-2488	-1524	-10	-57	-41	-2248	-1816	16624	29	-5	4	-7788	4620	13184	-98	162	-175	-16316	4228	-120	111	-15	147	-5104	-1600	15804	46	-146	185	127	127	5
-5928	-5448	14460	114	29	-149	-15944	-2516	-1392	-14	-73	-61	-2376	-1784	16672	31	-3	5	-7808	4644	13228	-103	120	-175	-16328	4168	-204	119	-8	140	-5108	-1560	15692	47	-168	183	127	126	5
-5928	-5436	14688	128	-37	-140	-16004	-2468	-1412	-15	-49	-50	-2232	-1896	16904	25	-6	2	-7776	4584	13220	-77	151	-162	-16272	4224	-184	128	-13	130	-5072	-1484	15732	72	-148	210	127	126	5
-5900	-5528	14652	128	-46	-125	-15956	-2544	-1532	-17	-72	-67	-2200	-1768	16584	26	-4	2	-7824	4604	13204	-81	114	-194	-16268	4204	-164	137	-37	147	-5056	-1516	15672	99	-162	179	127	126	5
-5936	-5520	14632	113	-16	-146	-15920	-2544	-1512	-43	-84	-61	-2240	-1752	16736	31	-4	3	-7832	4644	13336	-86	156	-210	-16272	4232	-176	124	6	168	-5116	-1388	15592	100	-164	177	127	127	5
-5924	-5436	14528	152	16	-146	-15988	-2548	-1596	-45	-71	-72	-2384	-1864	16840	26	-2	8	-7844	4568	13168	-114	181	-193	-16244	4208	-196	96	-36	174	-5084	-1376	15816	104	-181	196	127	126	5
-5884	-5472	14644	101	-26	-118	-15976	-2456	-1512	-24	-82	-83	-2176	-1792	16824	28	-2	1	-7840	4576	13260	-89	158	-197	-16256	4252	-124	119	-40	144	-5064	-1476	15608	88	-149	194	127	126	5
-5908	-5436	14536	116	-70	-102	-15928	-2560	-1600	20	-66	-8	-2256	-1936	16792	28	-5	5	-7752	4568	13236	-78	138	-204	-16264	4156	-152	131	-44	128	-5136	-1412	15636	75	-163	211	127	126	5
-5876	-5412	14548	121	-31	-138	-15932	-2556	-1484	-5	-66	-37	-2136	-1832	16760	26	-10	2	-7804	4576	13160	-98	122	-169	-16220	4284	-160	123	-1	163	-5068	-1528	15692	113	-143	200	127	127	5
-5924	-5440	14644	161	-9	-114	-15976	-2568	-1404	-4	-91	-41	-2256	-1736	16704	27	-7	5	-7800	4600	13204	-94	147	-181	-16268	4228	-80	127	-56	158	-5068	-1504	15700	96	-186	202	127	126	5
-5880	-5440	14640	141	-78	-93	-15880	-2492	-1544	-38	-77	-65	-2272	-1976	16880	27	3	6	-7760	4604	13136	-111	161	-177	-16244	4200	-56	94	-21	157	-5080	-1484	15680	90	-149	199	127	126	5
-5872	-5456	14684	109	-17	-131	-15968	-2548	-1460	-34	-126	-35	-2320	-1888	16608	27	-4	4	-7780	4580	13272	-107	132	-180	-16308	4220	-168	83	-12	152	-5104	-1448	15704	102	-134	187	127	126	5
-5824	-5424	14624	107	-37	-132	-15964	-2592	-1404	-32	-56	-57	-2200	-1936	16712	28	-4	4	-7740	4600	13296	-109	153	-175	-16312	4184	-80	135	-27	141	-4996	-1440	15756	70	-172	202	127	126	5
-5948	-5440	14672	111	-37	-151	-15984	-2584	-1460	13	-52	-28	-2288	-1912	16784	26	-1	0	-7768	4620	13324	-74	139	-196	-16244	4260	-92	134	-5	159	-5012	-1440	15796	60	-177	210	127	127	5
-5908	-5428	14564	139	-17	-141	-16004	-2564	-1488	81	-37	-52	-2112	-1888	16776	28	-1	-1	-7764	4672	13248	-104	141	-190	-16252	4240	-140	122	9	122	-4996	-1436	15796	65	-143	219	127	126	5
-5940	-5436	14620	94	15	-132	-15944	-2520	-1568	-22	-53	-13	-2264	-1856	16672	31	-4	-3	-7748	4612	13224	-51	170	-157	-16252	4196	-228	110	10	96	-5060	-1400	15708	55	-134	198	127	126	5
-5916	-5448	14620	93	-3	-99	-15972	-2576	-1576	-22	-71	-22	-2224	-1928	16680	27	2	2	-7732	4608	13248	-77	135	-198	-16264	4224	-160	106	-2	117	-5084	-1352	15648	18	-105	209	127	126	5
-5872	-5396	14548	166	-11	-116	-15956	-2488	-1512	-22	-53	-34	-2296	-1904	16600	28	0	3	-7796	4568	13184	-86	119	-194	-16244	4288	-160	91	-47	81	-5160	-1440	15664	40	-148	225	127	126	5
-5936	-5480	14612	125	-5	-119	-15964	-2548	-1592	-7	-73	-10	-2384	-1968	16560	27	1	3	-7848	4648	13292	-107	139	-186	-16280	4240	-128	117	-50	136	-5036	-1432	15760	117	-102	251	127	126	5
-5904	-5452	14564	132	-8	-126	-15996	-2524	-1564	11	-59	-43	-2240	-1800	16792	26	1	3	-7812	4568	13296	-83	130	-198	-16296	4264	-212	111	-40	111	-5104	-1452	15652	76	-151	227	127	126	5
-5940	-5496	14644	135	-36	-123	-15972	-2520	-1708	-1	-64	-9	-2328	-1920	16680	27	-2	1	-7784	4596	13224	-126	152	-186	-16300	4232	-160	118	-18	139	-5116	-1484	15684	64	-161	218	127	126	5
-5888	-5404	14572	124	-6	-140	-15972	-2552	-1588	-11	-115	-27	-2264	-1888	16712	25	0	0	-7776	4588	13340	-136	142	-170	-16284	4228	-140	118	-57	131	-5152	-1432	15764	84	-206	222	127	127	5
-5932	-5472	14624	134	-13	-130	-15948	-2540	-1488	-52	-114	-73	-2248	-1704	17000	26	-2	2	-7796	4560	13148	-109	143	-203	-16296	4208	-20	89	-3	137	-5100	-1472	15672	67	-185	184	127	127	5
-5868	-5420	14664	134	-18	-126	-15972	-2496	-1592	-26	-99	-63	-2232	-1800	16704	22	-1	4	-7752	4544	13224	-64	121	-201	-16228	4188	-44	95	-9	173	-5112	-1520	15784	115	-173	198	127	126	5
-5904	-5476	14560	123	-46	-131	-15932	-2576	-1552	-35	-107	-64	-2208	-1784	16648	27	-3	6	-7792	4536	13304	-112	146	-173	-16216	4124	-204	121	-45	172	-5120	-1480	15736	131	-159	178	127	127	5
-5916	-5488	14544	120	-45	-176	-15964	-2516	-1416	-37	-90	-91	-2224	-2000	16664	29	-5	7	-7776	4664	13248	-65	125	-145	-16280	4220	-28	120	-83	184	-5044	-1500	15748	145	-142	173	127	127	5
-5916	-5388	14608	65	9	-136	-15924	-2604	-1476	-19	-69	-64	-2336	-1952	16720	26	-3	3	-7772	4652	13312	-65	111	-211	-16288	4276	-192	144	-53	170	-5076	-1488	15680	94	-151	178	127	127	5
-5892	-5464	14596	86	-34	-117	-15944	-2512	-1464	-17	-78	-42	-2320	-1952	16632	26	-6	3	-7744	4608	13264	-99	141	-204	-16260	4240	-80	118	-4	179	-4984	-1372	15760	106	-160	188	127	127	5
-5888	-5412	14612	130	-39	-117	-15948	-2532	-1440	-31	-95	-59	-2288	-1904	16776	26	-4	1	-7740	4616	13244	-99	137	-181	-16228	4232	-216	108	-8	199	-5056	-1428	15848	98	-149	198	127	127	5
-5892	-5456	14472	123	-30	-124	-15944	-2596	-1532	-13	-79	-64	-2248	-1936	16840	27	-4	-1	-7764	4668	13288	-86	118	-178	-16284	4240	-132	110	-44	151	-5120	-1364	15720	85	-169	226	127	126	5
-5892	-5452	14628	127	-10	-86	-15936	-2516	-1600	-27	-102	-29	-2280	-1816	16712	30	-3	4	-7760	4588	13344	-98	141	-173	-16232	4232	-300	88	-52	113	-5084	-1348	15736	59	-164	224	127	126	5
-5880	-5432	14460	120	-5	-120	-15936	-2580	-1500	-14	-95	14	-2176	-1912	16728	34	-7	0	-7748	4564	13300	-98	130	-212	-16316	4220	-156	130	-62	128	-5036	-1372	15604	56	-187	201	127	127	5
-5900	-5464	14644	125	20	-121	-15948	-2532	-1492	4	-94	-53	-2328	-1992	16832	29	-2	1	-7772	4648	13280	-120	138	-174	-16316	4252	-128	112	-39	158	-5128	-1404	15756	61	-173	234	127	127	5
-5908	-5388	14500	147	-44	-146	-15924	-2524	-1500	7	-83	-17	-2208	-1808	16512	34	0	2	-7832	4616	13224	-82	116	-195	-16244	4164	-160	107	-34	142	-5072	-1444	15808	44	-139	195	127	127	5
-5856	-5404	14444	119	-48	-78	-15976	-2464	-1524	-44	-54	-26	-2240	-1824	16528	30	-1	2	-7792	4540	13172	-110	126	-202	-16300	4240	-140	110	-89	90	-5080	-1452	15724	34	-173	201	127	126	5
-5836	-5404	14640	119	35	-107	-15952	-2520	-1436	-2	-54	-42	-2232	-1848	16768	27	-4	1	-7844	4636	13288	-94	124	-167	-16300	4260	-188	81	-15	110	-5020	-1528	15676	51	-164	178	127	126	5
-5888	-5452	14616	131	-55	-114	-15984	-2528	-1584	-9	-59	-50	-2456	-1944	16744	29	-10	-1	-7752	4596	13336	-83	154	-212	-16324	4228	-164	97	18	143	-5112	-1440	15688	48	-169	232	127	126	5
-5892	-5436	14532	135	-18	-112	-15920	-2504	-1500	4	-59	-44	-2328	-1752	16832	21	-4	1	-7792	4644	13288	-98	132	-174	-16296	4272	-228	103	-15	148	-5128	-1500	15584	53	-157	205	127	126	5
-5860	-5376	14632	144	-7	-117	-15984	-2508	-1512	-28	-62	-37	-2304	-1776	16512	21	-4	4	-7748	4612	13208	-134	140	-177	-16288	4180	-100	137	0	134	-5048	-1488	15784	80	-157	203	127	127	5
-5892	-5432	14596	115	-13	-103	-16000	-2508	-1560	-53	-36	-39	-2384	-1928	16768	22	-3	5	-7824	4660	13204	-106	146	-203	-16300	4252	-280	130	-38	149	-5156	-1424	15688	63	-145	197	127	126	5
-5868	-5436	14480	101	-26	-110	-15948	-2576	-1604	-10	-81	-45	-2280	-1888	16720	25	-2	4	-7792	4624	13284	-94	146	-167	-16320	4252	-100	118	-37	127	-5060	-1452	15756	70	-186	173	127	126	5
-5960	-5420	14732	128	-20	-106	-15952	-2528	-1612	2	-59	-81	-2296	-1752	16560	28	-7	5	-7832	4604	13200	-116	139	-159	-16260	4244	-132	88	-27	148	-5092	-1496	15720	24	-164	219	127	126	5
-5932	-5464	14596	93	-13	-113	-15948	-2480	-1432	15	-67	-64	-2304	-1936	16904	29	-2	2	-7768	4556	13200	-70	143	-210	-16288	4192	-220	126	-26	163	-5096	-1476	15648	34	-135	195	127	127	5
-5844	-5452	14632	114	-5	-132	-15936	-2516	-1604	7	-72	-13	-2272	-1760	16552	26	-4	2	-7776	4596	13256	-125	119	-186	-16260	4200	-156	121	-33	130	-5088	-1476	15764	46	-165	206	127	126	5
-5932	-5452	14604	101	-35	-81	-15940	-2532	-1492	7	-96	-37	-2304	-1800	16632	28	-1	-2	-7740	4612	13252	-82	104	-156	-16308	4256	-96	97	-36	167	-5044	-1452	15700	94	-157	210	127	126	5
-5956	-5392	14556	134	-35	-127	-15908	-2532	-1656	-14	-84	-60	-2160	-1768	16720	29	1	3	-7740	4548	13212	-65	115	-191	-16328	4264	-128	126	-78	161	-5128	-1408	15732	64	-148	206	127	126	5
-5872	-5484	14644	146	-29	-101	-15908	-2496	-1460	13	-67	-62	-2216	-1824	16672	33	-2	3	-7840	4580	13216	-126	129	-198	-16252	4256	-220	108	3	152	-5064	-1480	15760	51	-171	190	127	126	5
-5924	-5464	14720	133	-49	-114	-15840	-2492	-1408	2	-85	-71	-2160	-1928	16480	24	-6	2	-7748	4608	13308	-82	147	-184	-16220	4208	-124	112	-11	152	-5140	-1536	15664	66	-155	185	127	127	5
-5880	-5404	14600	125	-15	-163	-15900	-2484	-1536	-13	-75	-51	-2248	-1904	16776	27	-9	6	-7816	4568	13272	-93	104	-191	-16324	4240	-180	131	-61	142	-5140	-1460	15656	70	-169	217	127	127	5
-5908	-5456	14512	130	-64	-89	-15924	-2492	-1488	-27	-55	-38	-2120	-1776	16688	24	-3	3	-7716	4592	13184	-59	137	-157	-16252	4212	-140	117	-57	160	-5124	-1424	15552	59	-156	204	127	126	5
-5988	-5444	14652	144	-14	-119	-15912	-2564	-1384	-24	-76	-96	-2264	-1872	16680	27	1	-3	-7760	4680	13260	-84	144	-187	-16212	4212	-108	78	-36	143	-5044	-1476	15664	58	-167	206	127	126	5
-5972	-5396	14524	104	-4	-142	-15932	-2620	-1488	8	-54	-76	-2240	-2000	16592	29	-1	3	-7784	4584	13216	-73	134	-157	-16284	4280	-204	104	-29	147	-5040	-1444	15680	106	-200	249	127	127	5
-5936	-5440	14588	159	-28	-119	-15940	-2588	-1648	-15	-81	-47	-2232	-1856	16568	24	-5	1	-7852	4628	13216	-80	164	-177	-16220	4232	-164	117	-60	189	-5052	-1472	15656	115	-158	187	127	126	5
-5920	-5408	14524	106	-35	-98	-15944	-2536	-1548	11	-68	-40	-2288	-1832	16776	27	1	1	-7784	4584	13268	-91	141	-166	-16224	4260	-116	120	-30	139	-5056	-1424	15664	80	-169	232	127	126	5
-5816	-5476	14588	119	20	-166	-15912	-2560	-1388	-13	-45	-27	-2088	-2016	16832	25	3	2	-7784	4680	13204	-71	159	-175	-16272	4344	-156	131	-28	155	-5008	-1448	15860	71	-145	200	127	127	5
-5908	-5424	14632	117	-82	-101	-15932	-2572	-1492	-11	-14	-54	-2168	-1944	16936	26	4	3	-7760	4624	13224	-92	132	-171	-16316	4252	-184	91	-14	135	-5052	-1424	15736	34	-138	198	127	127	5
-5896	-5408	14508	116	-59	-116	-15856	-2540	-1556	20	-27	-39	-2176	-1960	16768	31	-3	4	-7744	4576	13320	-85	115	-184	-16276	4236	-116	87	-40	94	-5104	-1404	15708	51	-158	198	127	127	5
-5924	-5456	14584	133	-23	-135	-15892	-2496	-1440	13	-57	-47	-2368	-1936	16728	25	-1	2	-7768	4608	13280	-106	159	-211	-16268	4232	-172	103	-7	95	-5044	-1460	15664	46	-162	256	127	127	5
-5880	-5472	14628	119	-14	-117	-15972	-2500	-1468	-33	-44	-76	-2408	-1880	16776	30	-2	4	-7760	4536	13300	-136	139	-176	-16256	4212	-168	120	-42	112	-5152	-1424	15724	38	-176	222	127	127	5
-5896	-5368	14652	96	-22	-111	-15976	-2508	-1484	4	-81	6	-2104	-1752	16792	29	-3	4	-7752	4592	13292	-137	108	-162	-16340	4236	-168	90	-29	123	-5128	-1448	15748	75	-203	229	127	127	5
-5884	-5504	14592	92	-32	-131	-15896	-2512	-1520	1	-70	-24	-2288	-1928	16704	22	-2	1	-7780	4584	13296	-111	155	-171	-16268	4160	-196	120	-53	102	-5096	-1456	15660	99	-166	241	127	127	5
-5856	-5448	14612	99	-2	-143	-15940	-2448	-1580	33	-96	-69	-2264	-1920	16816	24	-3	4	-7900	4608	13204	-113	111	-165	-16272	4180	-80	87	-60	144	-5176	-1492	15740	107	-160	234	127	126	5
-5920	-5476	14668	136	-54	-136	-15948	-2456	-1552	-26	-86	-54	-2336	-1776	16816	27	-2	1	-7788	4564	13196	-95	114	-175	-16328	4192	-100	112	-50	165	-5136	-1496	15696	116	-153	190	127	127	5
-5940	-5356	14556	148	-25	-100	-15876	-2532	-1484	-49	-81	-98	-2320	-1856	16968	25	-4	5	-7824	4568	13256	-89	103	-186	-16276	4224	-120	130	-3	179	-5124	-1464	15604	109	-156	173	127	127	5
-5856	-5488	14548	95	-23	-137	-15916	-2536	-1556	-38	-95	-62	-2216	-1816	16720	25	-8	5	-7776	4636	13216	-107	131	-193	-16268	4240	-284	133	-33	178	-5116	-1476	15676	90	-154	160	127	126	5
-5908	-5452	14444	123	-97	-124	-15880	-2576	-1464	0	-85	-99	-2272	-1864	16776	23	-8	4	-7732	4604	13220	-88	137	-178	-16236	4248	-228	143	-31	164	-5048	-1420	15668	69	-148	161	127	127	5
-5928	-5468	14716	101	-55	-148	-15936	-2548	-1608	-9	-75	-75	-2152	-1968	16800	27	-4	6	-7808	4584	13324	-100	143	-191	-16284	4240	-96	108	-38	161	-5032	-1396	15788	78	-150	194	127	127	5
-5868	-5480	14552	130	-37	-135	-15912	-2548	-1484	-24	-65	-38	-2192	-1880	16800	24	-4	4	-7776	4652	13192	-90	153	-182	-16312	4296	-148	118	-28	179	-5052	-1416	15768	70	-177	197	127	127	5
-5896	-5420	14584	137	-30	-117	-15960	-2604	-1500	-15	-45	-45	-2280	-2032	16784	30	-4	2	-7788	4596	13264	-115	138	-179	-16284	4264	-64	108	-7	148	-5036	-1340	15648	100	-160	176	127	126	5
-5872	-5388	14548	144	-61	-116	-15904	-2584	-1536	7	-42	-32	-2120	-1920	16832	31	-2	-1	-7836	4648	13268	-90	124	-193	-16264	4276	-148	132	-40	124	-5004	-1396	15700	70	-186	236	127	127	5
-5840	-5420	14580	132	-15	-122	-15944	-2524	-1592	11	-55	-8	-2192	-1832	16544	30	-3	-1	-7764	4580	13192	-86	124	-121	-16272	4240	-136	123	-30	120	-5044	-1352	15772	48	-164	251	127	127	5
-5940	-5404	14524	120	-3	-127	-15896	-2572	-1580	19	-61	22	-2200	-1944	16544	28	0	1	-7776	4620	13336	-114	108	-189	-16256	4256	-152	109	-50	123	-5084	-1432	15720	59	-202	236	127	126	5
-5952	-5440	14516	138	-18	-105	-15948	-2492	-1468	8	-34	-28	-2232	-1728	16512	27	0	1	-7792	4640	13264	-81	118	-173	-16264	4224	-108	100	-29	124	-5080	-1404	15728	44	-156	219	127	126	5
-5904	-5412	14616	135	-52	-74	-15864	-2580	-1380	15	-64	-3	-2240	-1792	16496	31	-1	1	-7816	4592	13316	-63	104	-200	-16336	4228	-160	110	-9	98	-5080	-1480	15756	85	-152	244	127	126	5
-5844	-5392	14572	112	-20	-126	-15912	-2504	-1524	-8	-50	8	-2208	-1872	16832	29	2	-1	-7768	4568	13268	-117	108	-207	-16276	4232	-124	102	-39	99	-5064	-1512	15712	35	-137	214	127	126	5
-5940	-5448	14568	126	-3	-116	-15936	-2504	-1512	5	-76	-47	-2320	-1896	16880	30	-4	3	-7780	4612	13328	-119	145	-202	-16256	4148	-232	106	-35	129	-5076	-1524	15720	53	-149	223	127	126	5
-5848	-5456	14604	123	-21	-137	-15944	-2420	-1444	-18	-79	-38	-2368	-1864	16736	31	-8	4	-7852	4620	13208	-104	117	-149	-16296	4204	-144	115	-42	133	-5044	-1404	15724	70	-196	217	127	127	5
-5912	-5388	14644	116	-42	-142	-15908	-2516	-1500	-16	-81	-49	-2280	-1944	16592	29	-5	7	-7820	4520	13260	-78	127	-195	-16240	4224	-208	121	-52	147	-5112	-1440	15732	68	-181	204	127	127	5
-5956	-5472	14648	105	-33	-137	-15920	-2596	-1544	-10	-77	-59	-2296	-1872	16784	27	-5	5	-7736	4588	13276	-110	131	-179	-16304	4208	-136	115	-65	148	-5140	-1536	15700	85	-155	215	127	127	5
-5876	-5436	14624	110	-2	-137	-15900	-2580	-1576	-7	-65	-91	-2352	-1808	16760	27	-1	6	-7784	4632	13256	-116	145	-154	-16292	4248	-176	84	-48	158	-5080	-1440	15668	79	-169	202	127	127	5
-5908	-5432	14544	116	-28	-158	-15976	-2484	-1548	-19	-104	-61	-2288	-1928	17000	22	-1	5	-7776	4600	13188	-104	136	-184	-16248	4228	-136	126	32	112	-5076	-1440	15684	64	-143	182	127	126	5
-5872	-5476	14584	95	3	-151	-15968	-2544	-1432	-32	-74	-54	-2200	-1920	16768	26	-2	3	-7768	4580	13288	-72	115	-181	-16252	4268	-104	129	-33	146	-5056	-1412	15744	62	-163	129	127	126	5
-5992	-5452	14548	106	19	-133	-15900	-2548	-1532	-38	-29	-75	-2344	-1824	16704	27	0	3	-7776	4572	13320	-78	127	-185	-16236	4196	-216	145	-35	140	-5128	-1420	15668	44	-153	186	127	127	5
-5836	-5448	14544	123	-50	-114	-15884	-2548	-1560	15	-84	-19	-2256	-1912	16720	22	-7	2	-7804	4608	13288	-74	116	-172	-16284	4320	-92	102	-40	143	-5016	-1416	15696	65	-155	208	127	127	5
-5844	-5444	14652	120	-6	-92	-15972	-2564	-1492	-19	-68	-36	-2272	-1984	16712	23	-3	1	-7840	4608	13224	-101	119	-174	-16220	4176	-216	84	-49	139	-5108	-1440	15752	72	-137	223	127	127	5
-5924	-5552	14648	90	0	-139	-15912	-2544	-1440	-9	-62	-60	-2280	-1832	16848	23	1	3	-7736	4620	13248	-62	132	-188	-16380	4196	-172	100	2	125	-5140	-1424	15644	7	-170	215	127	127	5
-5848	-5472	14600	141	-18	-104	-15924	-2580	-1532	10	-88	-23	-2200	-1928	16664	23	-4	3	-7844	4612	13292	-113	167	-200	-16304	4196	-140	126	-29	128	-5084	-1512	15656	30	-141	179	127	127	5
-5856	-5468	14620	106	-89	-122	-15952	-2556	-1520	17	-58	-58	-2344	-1888	16888	23	-6	2	-7796	4584	13216	-87	136	-198	-16300	4244	-156	111	-55	94	-5104	-1428	15684	28	-150	198	127	127	5
-5884	-5444	14612	128	-31	-119	-15932	-2476	-1540	-12	-115	-26	-2240	-1936	16792	27	-3	0	-7752	4572	13252	-111	116	-188	-16204	4284	-184	129	-52	116	-5040	-1500	15724	37	-185	181	127	127	5
-5920	-5436	14608	138	-64	-143	-15888	-2512	-1508	-36	-88	-50	-2088	-1792	16664	29	-1	-1	-7736	4604	13328	-81	96	-190	-16244	4248	-116	107	-39	135	-5104	-1456	15672	64	-158	210	127	126	5
-5968	-5416	14520	96	-28	-97	-15980	-2560	-1292	-71	-95	-58	-2224	-1880	16760	18	-2	1	-7728	4552	13308	-69	144	-203	-16208	4244	-124	93	-31	140	-5024	-1444	15724	68	-163	193	127	127	5
-5912	-5456	14504	143	-19	-134	-15924	-2528	-1548	-8	-44	-34	-2296	-1856	16720	24	-3	4	-7684	4672	13152	-35	151	-185	-16312	4280	-196	112	-35	141	-4992	-1464	15692	102	-169	185	127	126	5
-5908	-5416	14540	121	4	-117	-15908	-2508	-1556	27	-61	-87	-2344	-1872	16680	29	0	3	-7744	4548	13252	-77	114	-185	-16252	4256	-208	141	-8	155	-5088	-1420	15800	91	-119	221	127	127	5
-5896	-5392	14588	120	-20	-94	-15984	-2436	-1636	12	-11	-62	-2224	-1944	16624	23	-6	3	-7804	4584	13312	-87	141	-179	-16212	4252	-244	113	8	127	-5056	-1396	15804	54	-136	221	127	127	5
-5908	-5436	14588	117	-34	-103	-15952	-2552	-1508	-40	-30	-56	-2328	-1904	16448	30	0	3	-7816	4624	13312	-85	117	-185	-16288	4248	-128	133	6	179	-5088	-1316	15744	7	-161	173	127	127	5
-5864	-5444	14580	93	0	-141	-15928	-2564	-1536	-23	-62	-45	-2240	-1976	16760	30	-1	3	-7768	4636	13244	-71	176	-196	-16268	4192	-172	109	-41	127	-5100	-1416	15680	30	-148	211	127	126	5
-5868	-5428	14488	122	-54	-134	-15916	-2608	-1600	1	-22	-70	-2376	-1808	16912	28	-3	3	-7780	4608	13252	-109	136	-191	-16268	4248	-220	116	-5	117	-5112	-1432	15668	73	-162	197	127	127	5
-5880	-5408	14608	87	2	-135	-15932	-2544	-1536	-7	-71	-58	-2232	-1848	16776	31	-3	4	-7784	4536	13192	-123	117	-186	-16272	4212	-172	137	-45	158	-5092	-1448	15676	46	-149	181	127	127	5
-5928	-5480	14536	122	-35	-120	-15896	-2488	-1568	-19	-52	-33	-2272	-1920	16632	31	-1	6	-7804	4592	13260	-76	86	-193	-16244	4216	-268	113	2	133	-5064	-1528	15620	39	-152	210	127	127	5
-5876	-5400	14560	124	-10	-145	-15960	-2552	-1400	4	-97	-81	-2264	-1848	16560	27	1	2	-7788	4608	13356	-109	143	-168	-16284	4232	-228	114	-78	120	-5108	-1448	15696	75	-118	182	127	127	5
-5900	-5428	14548	116	-57	-123	-15944	-2528	-1560	-9	-93	-56	-2192	-2000	16440	23	6	2	-7792	4576	13188	-111	158	-168	-16272	4268	-212	129	-47	112	-5040	-1548	15716	78	-131	201	127	127	5
-5864	-5448	14560	100	-37	-112	-15932	-2584	-1468	-11	-74	-77	-2160	-1856	16648	24	3	1	-7784	4580	13256	-106	127	-168	-16244	4244	20	116	-27	148	-5088	-1548	15712	69	-165	224	127	127	5
-5928	-5452	14600	138	-39	-127	-15876	-2584	-1432	-24	-65	26	-2216	-1928	16704	29	6	4	-7788	4580	13288	-142	133	-183	-16304	4220	-104	79	-33	110	-5024	-1392	15676	84	-143	215	127	127	5
-5920	-5436	14584	130	-45	-123	-15924	-2588	-1452	-33	-39	-40	-2232	-1944	16864	30	-2	2	-7776	4580	13404	-107	137	-176	-16252	4224	-212	106	-9	122	-5148	-1512	15744	50	-198	231	127	127	5
-5900	-5444	14576	136	13	-100	-15912	-2592	-1552	-36	-31	-53	-2224	-1864	16512	29	-3	-2	-7748	4656	13224	-114	147	-156	-16252	4252	0	103	3	113	-5108	-1504	15772	52	-164	231	127	127	5
-5952	-5408	14524	101	-16	-157	-15916	-2548	-1580	-6	-37	-77	-2304	-1888	16424	32	2	-1	-7744	4644	13304	-105	112	-193	-16236	4224	-136	125	-14	151	-5088	-1480	15692	28	-157	213	127	127	5
-5892	-5432	14636	140	-32	-93	-15912	-2556	-1532	-20	-64	21	-2248	-1872	16744	28	1	2	-7768	4568	13400	-64	159	-204	-16304	4204	-200	118	-28	120	-5104	-1460	15644	87	-172	213	127	127	5
-5864	-5440	14484	146	20	-134	-15972	-2460	-1464	22	-64	-21	-2216	-2016	16864	33	-3	1	-7724	4624	13236	-84	108	-167	-16232	4236	-216	98	-40	162	-5100	-1404	15684	72	-171	226	127	127	5
-5888	-5460	14520	132	-5	-119	-15884	-2436	-1500	-18	-71	16	-2320	-1888	16512	33	0	0	-7840	4592	13280	-74	147	-157	-16240	4200	-232	117	-43	139	-5072	-1416	15652	82	-162	256	127	127	5
-5884	-5400	14668	164	-68	-99	-15908	-2564	-1456	-20	-83	-44	-2328	-1872	16616	32	0	0	-7804	4612	13120	-79	127	-198	-16232	4232	-136	109	-27	135	-5096	-1356	15644	84	-160	212	127	126	5
-5860	-5424	14652	123	-56	-111	-15960	-2580	-1496	-7	-66	-52	-2336	-1920	16784	32	-3	0	-7852	4592	13272	-84	144	-169	-16244	4176	-228	111	-46	134	-5072	-1452	15648	76	-136	228	127	127	5
-5932	-5396	14508	150	-28	-137	-15932	-2500	-1516	-11	-94	-15	-2200	-1864	16792	28	-2	3	-7772	4540	13316	-65	111	-213	-16248	4216	-172	115	-25	154	-5096	-1472	15760	82	-149	219	127	127	5
-5924	-5376	14556	146	-16	-101	-15976	-2512	-1524	-9	-89	-93	-2368	-1784	16920	29	-1	6	-7744	4580	13280	-79	127	-177	-16252	4212	-112	138	-20	207	-5096	-1496	15728	91	-126	191	127	126	5
-5884	-5428	14616	127	-32	-128	-15888	-2556	-1460	-6	-101	-60	-2256	-1944	16624	28	-8	3	-7812	4612	13356	-100	121	-169	-16220	4204	-196	135	-11	214	-4992	-1456	15680	96	-145	168	127	126	5
-5964	-5468	14636	128	-35	-135	-15932	-2492	-1520	-37	-122	-92	-2208	-1752	16632	22	-8	6	-7744	4564	13308	-84	131	-204	-16204	4232	-132	102	-44	215	-5016	-1424	15812	86	-141	150	127	126	5
-5856	-5384	14516	147	-54	-162	-15900	-2488	-1564	-18	-111	-72	-2424	-1800	16880	24	-9	9	-7760	4680	13328	-100	137	-199	-16236	4176	-224	121	-24	153	-5068	-1448	15656	73	-145	145	127	126	5
-5888	-5440	14588	100	-65	-135	-15972	-2544	-1528	-74	-83	-83	-2240	-2000	16864	21	-6	11	-7672	4600	13448	-79	108	-212	-16260	4264	-200	110	-6	199	-5088	-1440	15704	55	-126	139	127	127	5
-5840	-5428	14568	138	-91	-104	-15948	-2544	-1440	-1	-87	-100	-2112	-1920	16488	20	-4	8	-7728	4548	13324	-121	148	-156	-16184	4288	-196	89	-12	217	-5004	-1408	15828	12	-106	172	127	127	5
-5860	-5456	14524	87	-2	-112	-15952	-2576	-1588	-40	-37	-121	-2040	-1952	16600	26	-2	8	-7724	4656	13376	-73	112	-173	-16256	4280	-64	112	-20	152	-5036	-1420	15756	14	-106	154	127	127	5
-5916	-5448	14632	74	-50	-135	-15984	-2544	-1380	-30	-59	-60	-2144	-2016	16624	22	-3	5	-7796	4528	13276	-86	123	-170	-16260	4292	-224	106	-7	129	-5036	-1368	15756	14	-116	201	127	127	5
-5912	-5436	14600	110	28	-121	-15904	-2608	-1460	-14	-48	-41	-2200	-2016	16904	26	1	2	-7772	4652	13308	-109	109	-173	-16304	4312	-124	104	-70	108	-5052	-1404	15624	-5	-144	219	127	127	5
-5908	-5404	14524	114	-20	-153	-15964	-2616	-1568	-50	-29	-25	-2192	-1968	16840	28	2	-2	-7836	4576	13288	-140	109	-177	-16248	4268	-48	119	-48	85	-5044	-1460	15752	-7	-192	255	127	127	5
-5948	-5468	14652	138	-45	-101	-15980	-2604	-1536	-19	-57	-14	-2168	-1944	16720	35	8	-3	-7800	4560	13308	-142	131	-197	-16224	4204	-108	85	-10	52	-5080	-1464	15816	-26	-145	233	127	127	5
-5920	-5428	14596	112	-22	-124	-15948	-2564	-1400	-17	-3	-13	-2152	-1944	16816	36	2	-6	-7688	4556	13240	-107	122	-202	-16276	4196	-144	143	-5	77	-5044	-1472	15612	-29	-155	242	127	126	5
-5912	-5408	14660	150	6	-118	-15908	-2592	-1576	7	-38	4	-2240	-1912	16904	38	4	-4	-7756	4592	13204	-109	138	-211	-16300	4180	-84	124	-16	77	-5148	-1520	15708	-31	-154	251	127	127	5
-5852	-5464	14616	148	15	-103	-15908	-2580	-1524	36	-45	16	-2344	-1864	16712	41	3	-2	-7812	4556	13256	-114	137	-189	-16236	4172	-176	98	-16	43	-5092	-1524	15724	-38	-150	292	127	127	5
-5872	-5388	14596	135	40	-124	-15944	-2460	-1580	30	-41	35	-2248	-1936	16864	38	1	0	-7772	4568	13276	-110	88	-177	-16240	4228	-100	90	-9	104	-5128	-1500	15624	43	-188	292	127	126	5
-5892	-5504	14624	137	-6	-110	-15888	-2520	-1548	-8	-28	19	-2344	-1896	16728	37	1	0	-7756	4536	13220	-78	132	-183	-16308	4216	-32	107	25	152	-5136	-1520	15632	25	-159	290	127	126	5
-5924	-5440	14544	138	8	-123	-15972	-2516	-1552	0	-60	20	-2320	-1744	16624	39	1	-1	-7736	4548	13272	-107	158	-200	-16196	4128	-132	107	0	90	-5148	-1488	15656	51	-176	277	127	126	5
-5892	-5424	14528	133	-21	-149	-15940	-2524	-1604	11	-71	1	-2336	-1800	16656	37	-9	3	-7780	4616	13204	-89	138	-181	-16232	4152	-208	118	-11	117	-5128	-1536	15748	54	-195	248	127	126	5
-5892	-5500	14432	127	-2	-142	-15876	-2448	-1544	28	-57	-24	-2400	-1752	16544	33	0	0	-7784	4556	13228	-93	134	-206	-16284	4216	-240	140	27	155	-5216	-1544	15632	89	-169	255	127	126	5
-5828	-5340	14628	149	-63	-108	-15996	-2452	-1536	-22	-113	-48	-2328	-1792	16920	30	-5	1	-7828	4612	13216	-75	159	-171	-16228	4212	-48	135	-30	178	-5112	-1524	15596	97	-155	225	127	126	5
-5908	-5448	14568	114	-37	-162	-15932	-2464	-1524	-53	-108	-82	-2368	-1792	16656	24	-1	4	-7796	4564	13296	-69	144	-158	-16236	4212	-208	100	9	195	-5128	-1492	15684	132	-140	190	127	126	5
-5876	-5424	14572	100	9	-92	-15912	-2448	-1536	-33	-95	-79	-2368	-1768	16792	18	-4	8	-7808	4568	13328	-69	117	-160	-16220	4212	-244	154	-54	221	-5116	-1444	15632	126	-121	169	127	126	5
-5904	-5452	14632	93	-2	-149	-15916	-2456	-1532	-46	-125	-81	-2160	-1872	16704	23	-1	7	-7760	4596	13164	-43	105	-165	-16316	4204	-104	102	-5	250	-5092	-1460	15804	163	-121	131	127	126	5
-5816	-5432	14528	137	-15	-114	-15900	-2548	-1640	-46	-85	-109	-2280	-1816	16608	23	-4	6	-7788	4612	13200	-61	116	-157	-16212	4224	-80	145	-49	222	-5028	-1452	15588	155	-138	142	127	126	5
-5904	-5416	14652	128	-44	-147	-15964	-2496	-1640	-26	-99	-108	-2280	-1720	16560	23	-6	9	-7768	4608	13176	-87	104	-187	-16236	4252	-64	131	-43	197	-5052	-1448	15712	122	-158	125	127	126	5
-5928	-5364	14544	105	-16	-144	-15964	-2620	-1480	-61	-86	-101	-2264	-1704	16440	23	-7	6	-7736	4552	13280	-93	101	-177	-16292	4320	-196	148	-39	211	-5000	-1344	15756	71	-129	168	127	127	5
-5884	-5444	14524	114	-71	-162	-15936	-2508	-1484	-27	-94	-120	-2240	-2024	16552	23	-7	2	-7752	4624	13300	-96	141	-201	-16248	4308	-212	124	-59	194	-5040	-1396	15804	104	-148	144	127	126	5
-5840	-5448	14668	131	-27	-124	-15960	-2524	-1484	-35	-73	-43	-2016	-1960	16664	22	2	5	-7800	4612	13304	-102	120	-174	-16268	4244	-116	99	7	134	-4972	-1344	15708	17	-167	186	127	126	5
-5896	-5384	14652	112	-60	-146	-15936	-2644	-1344	-39	-26	-70	-2176	-1992	16792	26	2	1	-7768	4540	13208	-98	122	-177	-16272	4276	-224	109	-34	135	-5088	-1364	15728	14	-128	209	127	126	5
-5868	-5484	14612	109	-42	-127	-16012	-2656	-1568	-18	-73	-31	-2304	-1992	16688	25	5	-1	-7756	4604	13260	-133	131	-196	-16228	4232	-248	93	-76	84	-5320	-1572	15520	38	-452	351	127	127	5
-5900	-5456	14504	139	-26	-151	-15916	-2568	-1644	36	-80	-33	-2288	-1904	16824	27	1	-6	-7732	4576	13268	-117	149	-213	-16224	4224	-192	102	-25	51	-4908	-1440	15728	32	-125	227	127	126	5
-5820	-5416	14476	126	-4	-106	-15860	-2520	-1560	16	-47	10	-2256	-1952	16816	33	4	-5	-7852	4556	13296	-104	127	-183	-16256	4276	-128	93	-55	79	-5056	-1460	15676	-16	-115	221	127	127	5
-5960	-5400	14564	151	-1	-147	-15884	-2472	-1588	-11	-16	1	-2136	-1872	16800	32	1	1	-7812	4612	13268	-109	151	-211	-16300	4228	-204	105	-7	78	-5048	-1456	15668	-46	-150	264	127	126	5
-5900	-5496	14604	92	-24	-112	-15904	-2552	-1464	-49	-29	-32	-2344	-1856	16768	36	2	-1	-7768	4560	13332	-113	103	-195	-16300	4136	-208	94	-41	56	-5124	-1584	15784	-22	-179	276	127	127	5
-5848	-5392	14540	119	-15	-114	-15984	-2564	-1516	25	-26	16	-2336	-1912	16888	37	2	-4	-7772	4560	13356	-130	146	-189	-16312	4248	-156	103	-23	80	-5088	-1560	15644	-4	-193	236	127	126	5
-5940	-5388	14512	156	28	-116	-15928	-2580	-1580	24	-44	-19	-2136	-1872	16856	33	-1	-5	-7808	4544	13248	-130	111	-202	-16256	4236	-220	124	-24	106	-5064	-1544	15724	25	-149	220	127	127	5
-5816	-5428	14672	112	21	-111	-15936	-2464	-1496	46	-36	-6	-2256	-1872	16816	39	1	-1	-7740	4572	13400	-121	148	-178	-16200	4180	-52	111	13	102	-5032	-1596	15736	40	-128	231	127	126	5
-5900	-5488	14564	118	-11	-133	-15948	-2488	-1540	-15	-60	-34	-2232	-1728	16592	37	-1	1	-7804	4544	13248	-81	139	-157	-16328	4180	-252	123	-13	140	-5028	-1572	15744	107	-70	219	127	126	5
-5916	-5472	14584	99	38	-152	-15900	-2552	-1448	-10	-32	-28	-2280	-1824	16672	32	1	4	-7816	4588	13244	-54	181	-194	-16304	4172	-184	132	28	137	-5168	-1524	15612	86	-54	246	127	127	5
-5896	-5416	14624	99	-40	-145	-15888	-2532	-1508	17	-45	-40	-2328	-1832	16792	29	-3	6	-7764	4552	13344	-75	153	-197	-16316	4224	-228	152	41	129	-5092	-1436	15672	169	-90	238	127	127	5
-5884	-5456	14624	122	-44	-158	-15932	-2548	-1540	41	-78	-12	-2328	-1864	16944	30	-3	8	-7780	4612	13284	-61	121	-147	-16268	4260	-228	151	-35	165	-5232	-1416	15676	132	-112	235	127	127	5
-5920	-5472	14592	102	-87	-105	-15956	-2520	-1552	-9	-73	-74	-2416	-1928	16584	29	-1	6	-7852	4536	13236	-100	132	-213	-16252	4216	-164	109	34	159	-5136	-1468	15700	144	-139	197	127	126	5
-5972	-5384	14604	89	4	-130	-15912	-2468	-1564	-39	-72	-72	-2352	-1784	16560	31	-1	2	-7764	4504	13260	-87	97	-183	-16276	4264	-212	88	-39	206	-5128	-1380	15636	91	-173	184	127	126	5
-5912	-5396	14500	110	-12	-127	-15880	-2464	-1628	-20	-91	-72	-2384	-1736	16744	27	-7	2	-7724	4592	13320	-69	144	-160	-16264	4220	-140	118	-38	189	-5080	-1336	15648	117	-156	182	127	127	5
-5892	-5404	14528	122	-59	-150	-15892	-2576	-1536	-13	-131	-82	-2296	-1752	16624	23	-1	3	-7716	4616	13196	-90	131	-199	-16256	4208	-196	147	-35	201	-5104	-1448	15684	88	-182	197	127	127	5
-5900	-5440	14656	144	-20	-131	-15872	-2484	-1496	27	-112	-110	-2248	-1848	16656	23	-3	5	-7756	4532	13272	-131	105	-174	-16260	4228	-144	122	-49	208	-5040	-1456	15656	135	-107	184	127	126	5
-5940	-5448	14556	100	-63	-147	-15936	-2452	-1548	-25	-82	-67	-2216	-1872	17176	26	-5	7	-7800	4644	13336	-102	142	-209	-16248	4228	-132	134	-38	184	-5020	-1376	15732	151	-118	175	127	127	5
-5872	-5396	14556	123	-37	-121	-15916	-2520	-1512	-20	-56	-95	-2304	-1848	16976	24	-4	2	-7776	4620	13200	-82	109	-182	-16280	4308	-140	119	-50	187	-4808	-1384	15692	72	-326	189	127	127	5
-5892	-5412	14628	87	-11	-150	-15924	-2584	-1472	4	-54	-52	-2096	-1928	16584	27	-7	2	-7824	4620	13256	-91	131	-174	-16280	4252	-156	124	-11	137	-4960	-1460	15628	71	-130	209	127	126	5
-5916	-5424	14728	112	-51	-131	-16000	-2588	-1536	-14	-26	-102	-2064	-1904	16632	29	-4	-1	-7776	4592	13268	-105	152	-161	-16296	4188	-152	86	-19	136	-5032	-1400	15748	68	-128	220	127	127	5
-5920	-5392	14648	104	-46	-138	-15904	-2588	-1488	-7	-48	-68	-2096	-1896	16712	24	-4	0	-7792	4640	13288	-76	146	-196	-16240	4300	-112	93	-7	80	-5040	-1384	15732	54	-170	227	127	126	5
-5876	-5480	14608	111	-19	-124	-15964	-2512	-1532	-4	-8	-40	-2384	-1856	16936	25	-4	-5	-7776	4588	13168	-134	155	-215	-16224	4240	-176	63	13	91	-5056	-1400	15676	40	-145	237	127	127	5
-5884	-5436	14640	130	2	-127	-15940	-2504	-1600	-60	-22	-28	-2256	-1888	16712	31	0	-3	-7764	4600	13232	-94	114	-219	-16292	4224	-176	104	-27	64	-4948	-1400	15792	28	-300	263	127	126	5
-5840	-5412	14580	145	-90	-114	-16000	-2604	-1516	-25	-29	-31	-2384	-1864	16728	33	-6	-1	-7836	4552	13236	-115	149	-195	-16296	4200	-168	126	-24	94	-5112	-1424	15680	64	-119	237	127	127	5
-5900	-5448	14632	104	-35	-105	-15956	-2592	-1632	2	-41	-24	-2248	-2000	16624	35	-3	4	-7860	4540	13352	-131	95	-208	-16248	4176	-92	148	5	114	-5152	-1452	15720	52	-153	277	127	126	5
-5868	-5416	14628	112	-55	-77	-15972	-2576	-1492	-7	-57	-18	-2288	-1736	16704	32	-5	2	-7732	4564	13292	-93	113	-180	-16272	4172	-104	114	-2	108	-5192	-1440	15588	82	-165	234	127	127	5
-5900	-5396	14636	86	-45	-130	-15840	-2468	-1528	13	-84	-16	-2416	-1832	16592	33	-1	5	-7832	4592	13328	-66	130	-198	-16268	4112	-64	116	-7	155	-5140	-1600	15628	91	-152	178	127	127	5
-5884	-5488	14520	128	-16	-127	-15956	-2564	-1528	32	-71	-34	-2416	-1944	16880	30	-2	5	-7768	4580	13212	-94	104	-188	-16272	4148	-168	129	-15	163	-5116	-1656	15644	103	-149	182	127	127	5
-5904	-5444	14556	137	-35	-97	-16020	-2540	-1420	3	-92	-31	-2328	-1832	16896	28	-6	5	-7776	4544	13316	-37	99	-208	-16300	4176	-120	157	-17	171	-5092	-1508	15616	124	-146	167	127	127	5
-5892	-5420	14552	127	-12	-114	-15912	-2524	-1656	-34	-95	-38	-2088	-1760	16720	28	-8	6	-7744	4548	13296	-61	134	-140	-16264	4204	-120	161	16	193	-5120	-1568	15584	111	-167	169	127	127	5
-5908	-5440	14524	110	-21	-140	-15928	-2508	-1488	8	-92	-62	-2216	-1808	16848	30	-9	5	-7796	4592	13256	-62	122	-169	-16280	4188	-208	134	-2	216	-5120	-1472	15664	131	-119	140	127	127	5
-5932	-5432	14564	124	-73	-111	-15924	-2512	-1492	6	-96	-48	-2160	-1888	16600	24	-5	1	-7792	4608	13288	-79	141	-136	-16248	4208	-212	145	18	217	-5116	-1428	15772	134	-118	158	127	126	5
-5828	-5404	14576	157	-32	-146	-15888	-2556	-1540	15	-55	-57	-2360	-1776	16656	27	-4	4	-7740	4600	13280	-41	143	-149	-16236	4320	-160	131	-3	191	-5100	-1308	15616	130	-139	187	127	127	5
-5840	-5400	14576	88	-37	-117	-15908	-2548	-1664	-11	-111	-25	-2328	-1808	16624	29	-1	2	-7732	4596	13352	-72	132	-155	-16276	4244	-200	137	-12	196	-5108	-1368	15612	96	-164	180	127	126	5
-5864	-5404	14648	132	-53	-128	-15972	-2588	-1600	-1	-75	-44	-2192	-1864	16968	28	-6	0	-7780	4568	13312	-72	118	-165	-16228	4252	-196	164	-47	148	-5072	-1340	15812	107	-155	172	127	127	5
-5868	-5440	14544	138	-10	-145	-15920	-2560	-1528	21	-115	-30	-2120	-1936	16832	26	-10	2	-7748	4584	13400	-99	152	-213	-16212	4344	-296	143	-60	157	-5036	-1344	15780	69	-137	235	127	127	5
-5976	-5484	14572	105	17	-133	-15928	-2544	-1536	10	-99	-12	-2224	-1808	16784	28	3	0	-7776	4576	13252	-106	151	-206	-16292	4252	-360	106	-42	119	-5052	-1344	15720	106	-138	196	127	127	5
-5920	-5392	14652	152	-5	-135	-15912	-2580	-1512	10	-72	20	-2176	-1784	16736	29	-2	1	-7684	4584	13296	-108	147	-194	-16296	4240	-208	112	-18	113	-5052	-1344	15712	66	-135	188	127	127	5
-5904	-5468	14632	121	-37	-138	-15912	-2520	-1452	-11	-80	-33	-2112	-1880	16904	27	1	1	-7808	4576	13292	-118	105	-168	-16272	4264	-136	103	-35	156	-5096	-1456	15792	52	-163	241	127	127	5
-5924	-5404	14576	139	-15	-139	-15940	-2496	-1588	1	-81	-26	-2200	-1736	16944	28	0	5	-7812	4588	13300	-82	124	-221	-16292	4232	-96	89	-21	110	-4984	-1288	15888	27	-84	185	127	127	5
-5912	-5424	14596	150	-15	-129	-15936	-2420	-1492	-5	-61	-42	-2256	-1808	16672	29	-3	1	-7704	4544	13248	-82	127	-199	-16216	4248	-176	112	-17	111	-5136	-1444	15688	42	-110	210	127	127	5
-5908	-5384	14640	149	-62	-115	-15908	-2420	-1504	6	-70	-19	-2240	-1896	16792	31	-1	0	-7740	4592	13328	-88	122	-194	-16248	4264	-84	105	-3	98	-5128	-1540	15704	92	-91	264	127	127	5
-5892	-5368	14536	144	-2	-159	-15968	-2452	-1540	-28	-67	-71	-2128	-1816	16784	32	-2	2	-7812	4644	13312	-109	121	-152	-16244	4276	-208	126	-49	145	-5068	-1488	15720	127	-74	242	127	127	5
-5860	-5428	14608	104	-55	-119	-15984	-2552	-1580	7	-60	-57	-2152	-1712	16864	27	0	-3	-7780	4628	13172	-120	128	-136	-16368	4272	-168	96	-43	108	-5064	-1460	15740	98	-275	317	127	126	5
-5912	-5452	14608	117	29	-148	-15944	-2472	-1496	-27	-61	-93	-2112	-1848	16672	26	-5	1	-7804	4552	13260	-80	124	-165	-16228	4268	-136	117	-1	153	-5060	-1508	15656	59	-120	237	127	127	5
-5880	-5500	14588	120	-20	-95	-15908	-2516	-1504	-21	-24	-65	-2112	-1760	16896	29	-5	-3	-7812	4584	13364	-113	111	-157	-16324	4264	-236	106	44	127	-5328	-1500	15732	35	-120	205	127	127	5
-5856	-5448	14544	88	-35	-105	-15936	-2528	-1620	-30	-31	-100	-2360	-1848	16960	28	-7	3	-7792	4572	13264	-99	151	-164	-16324	4232	-152	145	32	143	-5052	-1444	15620	91	-115	212	127	127	5
-5964	-5428	14544	105	-14	-112	-15884	-2572	-1580	-26	-3	-96	-2088	-1656	16680	27	-4	2	-7792	4604	13328	-86	164	-181	-16260	4328	-176	137	-24	193	-5192	-1376	15724	56	-98	181	127	127	5
-5952	-5388	14620	123	-83	-100	-15884	-2616	-1592	-35	-55	-45	-2176	-1848	16800	20	-4	7	-7764	4560	13216	-50	140	-169	-16248	4212	-196	120	25	141	-5156	-1428	15728	113	-116	182	127	127	5
-5964	-5452	14600	121	7	-141	-15940	-2608	-1560	-12	-53	-66	-2232	-1952	16560	23	-4	4	-7788	4584	13204	-66	129	-174	-16344	4256	-184	130	-21	139	-5340	-1440	15660	199	-377	316	127	127	5
-5956	-5404	14592	118	-51	-143	-15868	-2596	-1516	-7	-84	-37	-2336	-2032	16888	19	-1	3	-7744	4620	13256	-40	144	-162	-16304	4176	-176	116	-5	144	-5056	-1396	15752	154	-105	190	127	127	5
-5908	-5416	14640	129	-60	-135	-15912	-2624	-1524	7	-110	-21	-2256	-1928	16552	21	0	2	-7844	4572	13240	-60	123	-168	-16244	4216	-288	147	-48	166	-5132	-1296	15668	77	-133	166	127	127	5
-5836	-5440	14620	138	-19	-111	-15952	-2568	-1592	17	-94	-18	-2240	-1816	16440	26	-2	1	-7748	4596	13296	-75	119	-181	-16240	4208	-292	96	-69	152	-5144	-1400	15624	78	-178	181	127	127	5
-5912	-5464	14636	122	-27	-132	-15880	-2460	-1556	-16	-87	-46	-2224	-1792	16704	25	-8	1	-7768	4600	13232	-114	118	-202	-16260	4196	-112	107	-39	138	-5088	-1460	15756	143	-134	155	127	127	5
-5844	-5408	14536	140	-18	-118	-15884	-2520	-1504	-64	-114	-71	-2264	-1880	16664	28	-2	1	-7840	4592	13308	-126	124	-160	-16280	4200	-112	122	-52	161	-5136	-1496	15712	130	-145	190	127	127	5
-5884	-5424	14532	130	-8	-135	-15924	-2504	-1452	7	-97	-3	-2272	-1728	16672	25	-2	3	-7728	4592	13328	-81	132	-186	-16280	4284	-40	117	-49	166	-5044	-1436	15776	140	-157	215	127	127	5
-5872	-5428	14572	111	-7	-116	-15944	-2584	-1488	-6	-95	-28	-2264	-1744	16552	29	3	6	-7756	4528	13348	-98	116	-152	-16276	4236	-112	142	-19	152	-5056	-1416	15664	114	-183	174	127	127	5
-5892	-5480	14612	154	-5	-135	-15900	-2504	-1448	25	-67	-54	-2160	-1960	16776	25	1	6	-7748	4584	13232	-88	121	-166	-16240	4224	-168	114	-40	166	-5088	-1492	15732	100	-203	202	127	127	5
-5940	-5436	14668	130	-67	-110	-15948	-2544	-1464	10	-49	-41	-2112	-1880	16720	27	-4	4	-7792	4588	13232	-65	164	-190	-16284	4240	-156	159	-25	154	-5132	-1460	15780	67	-196	185	127	127	5
-5920	-5448	14492	122	-15	-144	-15928	-2460	-1500	-35	-65	-51	-2208	-1896	16560	26	-6	2	-7804	4568	13292	-68	154	-167	-16272	4296	-148	150	30	117	-5100	-1400	15684	117	-145	238	127	127	5
-5892	-5408	14656	96	-20	-102	-15948	-2540	-1420	-32	-63	-26	-2296	-1976	16720	27	-5	0	-7760	4628	13252	-95	127	-178	-16276	4296	-168	130	1	135	-5108	-1408	15696	101	-154	196	127	127	5
-5888	-5516	14600	114	-24	-109	-15952	-2564	-1492	-16	-90	-25	-2248	-1936	16592	28	-2	2	-7728	4568	13268	-95	138	-205	-16220	4224	-88	140	-19	166	-5096	-1344	15764	96	-179	220	127	127	5
-5900	-5400	14636	111	-24	-116	-15952	-2568	-1452	-11	-47	-45	-2296	-1920	16848	26	-2	-2	-7808	4564	13180	-102	114	-190	-16244	4248	-132	116	-41	120	-5044	-1280	15764	88	-191	215	127	127	5
-5884	-5384	14584	152	-7	-138	-15928	-2604	-1592	30	-65	-13	-2232	-1688	16864	27	0	0	-7772	4616	13284	-120	131	-170	-16304	4240	-284	113	-32	144	-5128	-1416	15712	89	-153	196	127	127	5
-5916	-5440	14584	106	-44	-105	-15936	-2452	-1536	-9	-109	-24	-2328	-1848	16912	30	-2	-1	-7736	4560	13204	-91	143	-168	-16268	4276	-156	141	-16	89	-5084	-1396	15720	62	-142	200	127	127	5
-5872	-5448	14612	151	-31	-130	-15944	-2428	-1548	-9	-83	-38	-2264	-1632	16912	27	-3	-1	-7752	4576	13220	-90	125	-182	-16304	4240	-320	134	-28	137	-5104	-1364	15760	66	-144	202	127	127	5
-5896	-5440	14696	131	-77	-115	-15936	-2528	-1516	-14	-91	-35	-2256	-1872	16608	26	-6	4	-7804	4524	13268	-49	130	-208	-16280	4264	-168	116	-86	142	-5104	-1448	15748	63	-170	221	127	127	5
-5936	-5400	14596	115	-78	-136	-15988	-2476	-1492	-3	-57	-35	-2208	-1744	16736	22	-5	4	-7724	4572	13264	-132	135	-171	-16236	4208	-152	122	-51	154	-5104	-1368	15704	45	-152	204	127	127	5
-5880	-5420	14660	115	-9	-142	-15948	-2536	-1476	-9	-96	-82	-2376	-2016	16744	21	-8	5	-7796	4548	13180	-94	135	-204	-16240	4260	-44	129	-16	140	-5092	-1404	15668	44	-201	206	127	127	5
-5932	-5396	14608	98	-6	-146	-15968	-2496	-1520	-7	-48	-84	-2168	-1856	16856	21	-8	2	-7760	4628	13276	-103	126	-190	-16272	4212	-192	131	-45	128	-5068	-1436	15604	103	-141	183	127	127	5
-5896	-5464	14500	109	-44	-134	-15896	-2516	-1632	-46	-50	-85	-2264	-1824	16720	18	-2	4	-7848	4588	13412	-102	114	-223	-16292	4224	-180	88	-34	134	-5160	-1384	15676	61	-141	213	127	127	5
-5888	-5432	14496	115	-47	-126	-15960	-2524	-1608	-15	-64	-80	-2200	-1864	16720	21	-3	0	-7740	4544	13336	-88	134	-176	-16216	4228	-164	120	-19	164	-5136	-1440	15644	43	-121	175	127	126	5
-5900	-5448	14576	108	-44	-70	-15924	-2560	-1564	-39	-44	-81	-2144	-1832	16496	17	-1	0	-7752	4660	13268	-56	101	-185	-16316	4204	-244	142	-34	126	-5088	-1444	15640	25	-128	178	127	126	5
-5844	-5416	14676	106	-20	-120	-15924	-2460	-1572	5	-46	-74	-2280	-1856	16656	18	-4	3	-7756	4584	13240	-107	168	-151	-16248	4212	-80	145	-66	157	-5120	-1372	15588	65	-137	161	127	127	5
-5836	-5436	14596	139	-40	-106	-15896	-2524	-1420	0	-55	-66	-2224	-1920	16976	21	-2	-1	-7760	4600	13392	-135	147	-214	-16280	4256	-244	106	-79	128	-5068	-1416	15700	59	-157	179	127	127	5
-5880	-5404	14580	138	-32	-105	-15936	-2520	-1516	-26	-92	-47	-2248	-1816	16792	17	0	3	-7808	4628	13244	-87	121	-205	-16280	4252	-244	77	-42	164	-5068	-1396	15664	50	-149	179	127	126	5
-5856	-5448	14696	115	-8	-137	-15956	-2596	-1476	-18	-65	-44	-2256	-1992	16728	22	-1	4	-7784	4596	13236	-109	142	-184	-16248	4248	-120	108	-50	123	-5084	-1360	15696	42	-166	173	127	126	5
-5864	-5452	14532	119	-32	-108	-15908	-2500	-1492	2	-28	-8	-2272	-2016	17008	18	-1	3	-7720	4664	13376	-117	120	-196	-16244	4208	-248	158	-21	135	-5052	-1376	15636	42	-156	196	127	127	5
