#Activity	running 
#ActivityID	2 
#Date 09-09-18-06
acc_rf_x	acc_rf_y	acc_rf_z	gyro_rf_x	gyro_rf_y	gyro_rf_z	acc_rs_x	acc_rs_y	acc_rs_z	gyro_rs_x	gyro_rs_y	gyro_rs_z	acc_rt_x	acc_rt_y	acc_rt_z	gyro_rt_x	gyro_rt_y	gyro_rt_z	acc_lf_x	acc_lf_y	acc_lf_z	gyro_lf_x	gyro_lf_y	gyro_lf_z	acc_ls_x	acc_ls_y	acc_ls_z	gyro_ls_x	gyro_ls_y	gyro_ls_z	acc_lt_x	acc_lt_y	acc_lt_z	gyro_lt_x	gyro_lt_y	gyro_lt_z	EMG_r	EMG_l	act
-32768	-11164	11772	-1078	7906	1668	-21592	-32768	22400	-2175	264	2209	-16296	-32768	32767	-521	2513	-475	-32768	-32768	-32768	14062	-24996	32767	-10236	-5012	-32768	-2476	-28902	13873	-1328	21456	10556	-15102	-23103	4127	130	134	2
-6280	-32768	-12608	7694	9415	2175	11016	-30504	29520	5740	3554	2827	-11568	-6808	32767	3572	1074	-246	-32768	-32768	-32768	-364	-18612	1166	4832	-10724	-32768	-15396	-14212	241	-3832	6524	32024	5460	-12209	9580	145	181	2
-32768	32767	32767	8307	5826	-914	-1816	1088	6576	10630	6222	290	-7288	-9024	32767	2052	-620	325	-32768	-32768	-32768	1298	-7353	-18131	15388	-21740	-32768	771	19344	-5109	5252	-6676	13900	17970	6588	6061	160	174	2
-32768	32767	32767	-2046	2661	-1258	-32768	32767	13696	4224	6257	518	-9296	5640	16064	510	-1791	164	-32768	-20492	-32768	2171	10886	-16044	10228	-16952	-32768	12118	32767	-4029	4844	-27684	-19512	32767	32767	-8637	15	61	2
-32768	-7004	32767	-5051	-1042	693	-31832	13888	8216	-6091	2926	359	-19320	18016	23672	825	-3787	811	-13800	32767	29680	-2731	32767	-13938	-29832	-1104	32767	32767	32767	-8428	-21952	-3712	32767	10263	2750	-6630	0	164	2
-32768	-16292	32767	-4401	-2973	1322	-32768	96	1920	-8015	2419	490	-20656	20680	11080	-936	-3238	1107	-32768	-32768	10108	-32768	32767	-32768	-936	-5836	-32768	-32768	32767	-12237	-32768	32767	-10484	22876	27391	-10102	189	27	2
-29844	-26432	29120	-3372	-5043	2610	-32768	-16256	1952	-8394	1335	-303	-32768	616	-3040	-3734	-3037	-176	-32588	32767	-8852	-21357	18160	-32768	580	-11940	-32768	-7791	32767	-14082	-9404	-31364	-28572	-18312	18035	-12990	183	0	2
-25488	-28360	25196	-2582	-5857	3644	-32768	-12280	-9672	-5918	614	162	-32768	-20568	-3288	-1435	-5304	-1562	-23824	6908	11640	-2618	13011	-1995	9040	-32768	-32768	-18350	20220	-8432	11116	-16912	-30964	7277	17941	1780	135	243	2
-21608	-30592	21124	-1822	-6446	2818	-26856	-13904	-23992	-1274	-97	-285	-32768	-23568	-6456	1819	-5407	-2518	-13772	21816	2064	-1115	11884	1583	-6088	18040	-25440	14386	32767	-8621	-18164	9272	-24928	19374	26045	-16632	165	242	2
-10892	-32768	17192	326	-6577	1111	-24992	-5864	-25760	1495	-2033	-1053	-32768	-8544	-18432	3278	-4861	-2885	-15556	3104	12124	-1338	8618	-3166	-22912	-3356	-32768	6510	32767	-4769	-32768	10760	-26588	12224	27144	-17796	158	0	2
-11544	-13076	15948	737	-6281	-1196	-19976	1248	-27376	4192	-3862	-1351	-32768	15680	-32768	1006	-5229	-1254	-15532	10068	11636	506	6336	-7958	-19444	-2504	-31884	-222	14129	-9850	-32768	4940	-15032	2331	32504	-9593	0	125	2
-20076	-5888	15536	-1566	-6573	-3429	-16216	7896	-26992	4109	-5594	-2067	-32768	5208	-27904	-577	-6058	-1763	-18600	8824	19268	-2377	16800	-11352	-32768	-11052	-31552	-1380	15125	-6433	-32768	20064	-1688	4069	27742	-17894	0	80	2
-26052	-13660	19568	-2473	-7288	-3916	-13192	8368	-26544	1326	-7530	-2488	-24272	8832	-26912	-1211	-3816	-1354	-18220	9680	22908	-3635	18646	-11540	-32768	-16428	-19264	2040	3477	-9873	-32768	4876	480	-14830	32767	-19668	0	175	2
-32768	-10132	22164	-2589	-8065	-3639	-12400	5640	-27824	-481	-8605	-3618	-7296	11328	-26888	-1717	-1663	-819	-5320	6712	24180	-1978	32767	-17410	-32768	-17576	-7756	1030	596	-5515	-32768	-2984	9064	-27308	30946	-20934	178	155	2
-32768	-14384	14980	-2249	-8142	-4954	-10360	8176	-28712	-1079	-8611	-4254	10784	11584	-22664	-3242	282	-436	-22412	13880	22168	6972	32767	-20914	-32768	-9544	28	4527	-8073	-1413	-32768	2216	10940	-28017	32767	-23446	253	226	2
-32768	3808	6492	-1394	-6738	-6490	-3112	8064	-30968	1031	-8017	-4015	23808	6344	-20944	138	340	-81	-32768	15048	22472	8553	32767	-24603	-32768	15080	24964	10384	-13599	-3270	-32768	30268	23168	-14428	32767	-10718	24	186	2
-32768	28004	-5608	-1640	-5819	-6292	632	5264	-32768	3189	-6466	-3146	18752	-3440	-14976	3574	-969	211	-32768	9008	11208	-16131	32767	-31225	-32768	28184	32767	-23894	4484	-20597	-17928	6128	32767	-32768	4200	5301	123	141	2
-32768	23588	-29536	-1468	-4854	-2758	-15600	4984	-32768	3848	-4241	-1516	4672	-12016	-2544	2025	-1350	-629	-32768	19168	7308	-20415	32767	-29093	-2804	5632	26224	-32768	21037	-23914	-4380	-15688	32767	-32768	-16739	166	253	58	2
-32768	27000	-32768	718	-2966	155	64	25832	-32768	1392	-1546	141	-5024	-5344	10256	949	-577	-837	-32768	-17752	24700	-32768	32767	-7648	-27760	-32768	4728	-32768	32767	-15580	4552	-32768	31928	-6669	-1758	-11157	253	115	2
-32768	25172	-32768	694	151	84	9400	19080	-32768	-2481	932	356	-1568	2128	9720	-330	200	-1089	-32768	-32768	32767	30069	32767	2492	-32768	-32768	9356	8039	32767	3866	-25592	-29848	9084	19113	-14034	-15865	230	221	2
-32768	22388	-32768	567	2545	-371	11768	8328	-32768	-1016	3176	893	6176	12976	3088	-3865	2169	254	-32768	30880	28972	32767	9230	-10066	-32768	-7848	2504	32767	32767	3296	-17356	-26120	11712	32767	-21956	-3167	90	130	2
-32768	-32768	32767	-822	8433	916	-20832	-25336	32767	-6643	2680	1312	-22152	128	32767	-1768	-159	1784	-32768	32767	23868	32767	-21243	-32768	-32768	920	-3456	32767	32767	7783	-15380	-14572	-2500	31479	-27772	-5760	46	72	2
-32768	32240	-14764	3217	9179	5913	-3256	-14976	-23456	4509	5936	-303	-32768	-8	-32768	1055	2402	-116	-28276	32767	20120	32767	-32768	-24950	-32768	-1400	-10836	32767	32570	12096	-32768	20472	3748	32767	-25749	-1892	97	127	2
24144	-18584	6224	771	2958	729	-2328	32767	-32768	-243	8604	117	-5560	22640	-26664	-1626	1935	119	-8080	32767	15496	12681	-32768	-15564	-28680	3804	-9624	32767	13516	10225	-32768	18076	-7052	25508	-32768	3923	243	5	2
-24788	24872	16112	341	1749	835	-9224	17112	-22280	-3899	3881	510	18624	-1152	-25664	-3033	2382	1648	-1300	32767	13084	-12958	-32028	-5161	-10364	9696	-22816	-2219	-5317	9137	-32768	11060	-12072	-340	-32768	17787	49	14	2
-13016	-10532	9824	353	890	75	11760	-30840	-26808	-2559	4178	920	-19816	1912	-14600	-1202	1596	2142	-9992	13476	12864	-7512	-32768	23865	-6884	5160	-24704	-20466	-28611	11711	-32768	-4492	-22568	-9205	-32768	20130	253	26	2
-13140	-4864	11936	466	911	235	8000	-32768	-32768	-1480	3912	1115	-32768	-5784	-20312	462	3770	1417	-11732	12588	9420	9643	-32768	32767	-6996	-444	-23932	-21859	-32768	16750	-32768	-1860	-30960	-3063	-32768	22038	253	164	2
-15628	-6940	15496	112	993	549	-28616	3512	-25088	1028	2819	816	-32768	8856	-21344	-873	4310	1755	-22648	14340	10824	15828	-32768	32767	-5056	-3232	-23076	-17089	-32768	22474	-31448	-7204	-32768	-1917	-32768	17307	10	120	2
-14068	4720	25812	-57	2671	918	-32768	-432	-18984	246	1758	279	-32768	-22904	-2824	-986	4760	2192	-32768	14292	13540	15294	-32768	32767	-4240	-3280	-23212	-16642	-32768	23587	-26876	-6444	-32768	-1040	-32768	17272	0	215	2
-6092	-1200	27552	-137	5067	655	-32768	6864	-7752	-1222	736	765	-32768	-4496	1472	1395	4327	3239	-32768	13652	15784	14439	-32768	32767	-6204	-6620	-16424	12305	-32768	27957	3456	-9284	-26688	4432	-9459	22324	0	204	2
3904	36	25804	-886	8226	-103	-32768	4360	5632	-914	147	681	-32768	7888	7384	1522	4013	3720	-32768	13916	18860	12153	-32768	32767	-9024	-6952	-25524	15012	-32768	31396	15620	-15796	-25780	12877	-2815	13059	0	207	2
-5716	-7232	18656	-1695	11719	373	-32768	-2704	8528	-428	-933	521	-32768	1352	976	1069	4401	3646	-32768	1596	7224	11340	-32768	32767	-3572	-14872	-26608	6962	-32768	31201	29852	-10560	-25280	9440	8338	1152	254	155	2
-32768	-14176	4372	-1984	11288	509	-32768	-25880	13864	-2809	-1159	1022	-32768	-32624	32767	2326	4256	2222	-32768	-11060	-7984	3145	-32768	32767	-4404	-21376	-32768	7427	-32768	29015	16200	-2712	-13684	-32768	-10327	-5298	59	163	2
-32768	-32768	7416	1617	8440	2149	-22992	-32768	32767	-604	988	3153	-18464	-32768	32767	1363	2186	-1846	-32768	-32768	-28044	11174	-31290	32767	-16020	-4956	-32768	4836	-32768	22798	1912	13860	2472	-18243	-19853	-2735	1	140	2
-32768	-32768	-11544	10506	9388	1760	-17832	-32768	32767	214	1432	3539	-15768	8680	32767	6573	-78	-869	-32768	-32768	-32768	3028	-21462	11603	-6592	-11664	-32768	-21001	-23339	2117	-9628	5656	30588	-1195	-18242	5724	254	225	2
-32768	32767	32767	4822	5308	-1968	-6680	28280	12056	10414	6759	-50	-2264	14592	26264	1097	-608	819	-32768	-32768	-32768	-3110	-9737	-16147	17336	-22860	-32768	-7496	11169	-6723	4948	-6224	22868	24701	7030	8603	166	242	2
-32768	21708	32767	-7426	924	-962	-32768	32767	15080	-2778	4661	96	-10024	25424	22520	-2191	-2631	1032	-32768	-28948	-32768	515	10367	-14482	12924	-20576	-32768	12383	32767	-3043	9072	-10716	20528	32767	13664	4874	96	153	2
-31192	-16220	32767	-7197	-2183	1827	-32768	10376	4632	-10948	2941	280	-24096	20368	25272	-2975	-3954	1756	-32768	31684	2568	211	32767	-3116	-25048	-6144	32767	32767	32767	-4726	-16140	-5264	23536	11691	5575	-8190	254	108	2
-32768	-21932	29852	-5185	-4957	2426	-31688	-7976	152	-11057	1766	-708	-24520	12280	-592	-4137	-3055	950	-32768	-32768	-15808	-32768	32767	-32768	1192	9276	-32768	-32768	32767	7296	-32768	11792	32767	2105	-24925	-3726	0	0	2
-26960	-26156	26128	-3887	-6357	3531	-32768	-21968	-3136	-7500	531	-446	-32768	-16248	-10664	-3366	-3178	-719	-32768	-32768	30824	-32768	32767	-32768	40	-32768	-32768	-864	32767	-23071	-9100	-28720	-32768	-15997	18982	-3229	253	47	2
-23696	-30000	19868	-2919	-6673	3603	-32768	-15792	-13592	-3755	213	-513	-32768	-29824	-9896	435	-5352	-2108	-28812	10312	9028	-5468	16781	5599	2092	-31092	-32768	-1998	31811	-17088	13276	-9640	-28100	12255	15176	3828	194	243	2
-16088	-32768	17608	-888	-6933	2497	-23088	-11704	-22184	-154	-909	-655	-32768	-20984	-15672	4137	-5823	-2673	-11476	19832	6968	-831	12904	2662	-10632	17904	-30448	9523	32767	-5756	-17552	5236	-21504	13063	23094	-17575	204	70	2
-10512	-25916	13240	980	-6613	21	-16904	-6760	-27656	3723	-2844	-1317	-32768	-23064	-9504	4911	-4546	-3627	-15132	5396	11788	301	8450	-1620	-22644	-12408	-32768	3028	32767	783	-32768	6776	-28480	16423	29208	-16380	254	72	2
-16188	-7272	14512	-147	-6213	-2947	-19440	5168	-31080	6539	-5124	-545	-32768	12528	-30728	596	-5266	-527	-15400	9692	10496	674	7499	-5497	-27916	-548	-32768	3515	3723	-5631	-32588	24744	-20732	-3318	29073	-15186	0	81	2
-27788	-17452	14976	-2080	-6836	-4962	-25496	13384	-32768	5077	-6652	-871	-32768	5832	-32632	-2354	-5929	-1459	-15344	5116	18904	-1287	16621	-12051	-32768	-8932	-21980	-3159	16707	-7150	-32768	7084	-5456	-10537	29764	-20374	0	0	2
-32768	-14240	20468	-1670	-7673	-4711	-7944	1744	-26464	389	-8263	-2711	-15784	12024	-29784	-2936	-3116	-1603	-12208	11000	25472	-4132	31374	-14964	-32768	-18048	-14564	-161	1270	-9711	-32768	216	4740	-14510	32767	-17110	0	233	2
-32768	-14100	19032	-2064	-8376	-4907	-14968	5296	-32768	193	-8913	-3625	2744	10968	-25304	-2833	-176	-1142	-4020	3668	25680	1130	32767	-14651	-32768	-20368	-2028	3398	-10	-4283	-32768	-1716	12192	-29082	30265	-22387	254	151	2
-32768	-7796	12680	-1229	-7799	-6601	-8384	3344	-30112	347	-8760	-3889	22840	5640	-20528	-2721	1598	-808	-27416	19004	25576	12253	32767	-17709	-32768	-3984	4112	8680	-8447	105	-32768	5264	15576	-23490	32767	-19892	253	230	2
-32768	8572	1772	-962	-6232	-7760	-2416	7656	-32768	3576	-7813	-3430	19968	5408	-22192	3769	486	324	-32768	18228	12464	13055	32767	-24217	-32768	14548	27468	888	-8920	-1002	-32768	16292	32767	-9097	23968	-7503	135	225	2
-32768	13784	-15044	-2061	-4725	-7513	-13200	1296	-32768	4014	-5990	-2463	7112	-2752	-6952	3182	-1466	-111	-32768	15836	5200	-6950	32767	-28975	-26108	23712	32767	-28227	6272	-21516	-9896	3872	32767	-32342	-2909	8672	253	109	2
-32768	14480	-32768	-69	-3801	-2258	-14320	1768	-32768	3500	-3434	-919	-2296	-12688	14760	1727	-1566	-540	-32768	26128	-20740	-32768	32767	-28629	784	-5476	30548	-32768	23517	-12596	1364	-12484	32767	-9387	-11799	-8071	254	78	2
-32768	23388	-32768	328	-2215	760	7128	24688	-32768	297	-482	-40	-4320	-9344	22800	882	-689	-1413	-32768	-9076	19904	-32768	32767	-15758	1124	-12832	19272	-32768	30160	-11316	-308	-18980	18868	10154	-3206	-10878	243	89	2
-32768	20444	-32768	-491	875	1391	7240	10912	-32768	-2876	2035	-320	-2328	2256	7072	-936	307	-1395	-32768	-19256	27408	22577	32767	-2880	-32768	-28208	3384	7473	32767	-909	-25840	-9720	4652	18194	-12502	-10755	0	184	2
-32768	13740	-25292	-95	2511	970	4384	8584	-32768	-1510	3778	596	2040	15200	784	-4805	2171	555	-32768	16596	22772	32767	10567	-12583	-30700	-5660	5580	32767	32767	-1952	-18080	-16152	5028	12039	-23707	173	52	138	2
25164	3724	32767	-133	3155	1871	-3352	5280	18832	-4061	3153	858	3152	26992	-32768	-3934	4112	2513	-32768	32767	17464	32767	-15914	-22679	-27540	-348	2988	32767	32767	-56	-7388	-18848	7632	1089	-27022	32	147	0	2
32767	-32768	32767	-1380	9801	4395	-32768	-32768	23376	-3323	2835	-1938	-32768	-32768	32767	-1618	-2948	-642	-32768	32464	14332	32767	-32768	-11710	-27144	-2128	2120	32767	32767	1372	-26744	9008	2264	25221	-23803	-5687	42	82	2
-32768	32767	22116	4150	4263	9074	7992	-14512	-32768	8342	6252	641	-32768	-4704	-32768	870	1638	-712	-19376	32767	16032	17913	-32768	1518	-30592	6836	-12344	20058	17006	968	-32768	21136	2924	32080	-25362	232	253	165	2
-20952	-32768	-4652	800	1334	1676	-25040	32767	-32768	-799	5479	-708	7808	32767	-32768	-3057	3994	337	-3408	32767	13460	-14377	-32768	-2764	-22636	4652	-11928	8621	1967	5100	-32768	19336	-10788	6289	-32768	11174	253	42	2
-12764	-12264	15112	-115	1644	-18	8848	4752	4024	-6231	3374	1264	5336	4592	-18728	-4786	1847	1766	-10240	16320	13756	-23293	-32768	4560	-10208	10752	-26812	-18000	-23186	7026	-32768	18164	-12376	448	-32768	15050	253	187	2
-14924	-3556	8148	462	881	613	10504	-14480	-30424	-1059	2895	-660	-29768	-11352	-32768	-2074	3104	3027	-14024	5764	10800	-2512	-32768	31396	-6836	-4380	-24752	-25219	-32768	7134	-32768	360	-25840	-16293	-32768	17677	253	1	2
-16496	-5500	10604	252	904	321	-32768	-27400	-32768	-1096	3212	-703	-32768	-13904	-30352	-636	4288	1956	-13616	6184	10204	1231	-32768	32767	-6332	-2872	-22692	-16611	-32768	9247	-32768	-6876	-28020	-9048	-32768	14250	253	111	2
-12008	-10828	24996	-37	1129	876	-32768	-17016	-24568	-510	1807	869	-32768	-7512	-7456	-365	4157	1830	-29384	12784	9264	16624	-32768	32767	-3044	-10556	-22312	-1560	-32768	19923	-23076	-9368	-30740	683	-29313	14917	0	193	2
-11104	-5836	28348	33	3582	1152	-32768	5920	-10688	91	1083	592	-32768	-18832	6176	1066	4341	2634	-32768	15228	13620	11970	-32768	32767	-3572	-5604	-18932	19074	-32768	24732	-3808	-9624	-27700	4861	-16635	17844	0	238	2
744	-1136	29036	-412	6586	1261	-32768	7456	5912	-991	505	748	-32768	6080	8144	2181	3970	3397	-32768	17292	17524	7297	-32768	32767	-10584	-5916	-22212	19180	-32768	30736	7356	-12668	-25332	13264	-1986	14905	0	146	2
2200	-5300	25052	-1089	10217	578	-32768	-1704	10912	-157	16	671	-32768	11000	5256	1314	3892	3527	-32768	3384	10696	4819	-32768	32767	-10640	-7848	-23668	7651	-32768	30868	23324	-5204	-22020	27054	11113	9146	0	122	2
-32768	2512	13216	-2405	11505	1016	-32768	-13200	6880	-2024	-1410	580	-32768	-14744	30192	2433	4647	2596	-32768	-1676	-6464	-794	-32768	32767	-2484	-14684	-32768	-10837	-32768	26040	20240	-4992	-18996	-16628	2802	-4316	251	116	2
-32768	-10884	13136	-1752	8101	1325	-31784	-30472	21368	-3540	-115	2066	-20592	-32768	32767	-1195	2658	-30	-32768	-29008	-28344	2482	-32768	32767	-10060	-9376	-32768	-10354	-32768	17579	8128	1340	-444	-32768	-22317	-3651	1	243	2
13540	-32768	-8924	5429	9344	2946	3384	-32768	32767	3737	3563	3127	-13520	-12840	32767	3096	293	-1120	-32768	-32768	-32768	10478	-24106	30494	-18196	-5108	-32768	-17893	-32520	5746	-6456	11832	21156	-18897	-19197	127	253	231	2
-32768	17616	32767	8447	6239	419	600	2544	3840	10306	7109	753	-296	-6736	32767	1845	-952	-284	-32768	-32768	-32768	-4287	-13019	-6407	13892	-14532	-32768	-11606	-5961	-8113	-4428	2764	28936	3501	-2697	8086	244	244	2
-32768	32767	32767	-1117	4244	-1081	-32768	32767	17456	4830	7128	544	-3664	13976	22456	311	-1780	423	-32768	-28540	-32768	-4913	-171	-19443	15132	-13280	-32768	10409	30267	-3689	8988	-13312	-2904	32767	29868	4930	53	116	2
-32768	-3932	32767	-4909	652	1179	-32768	8616	10312	-5698	3522	618	-23976	15016	21128	-942	-3431	1109	5068	20400	27212	-9343	22874	-12444	1032	-13628	-17056	28935	32767	-7186	-4408	-24132	-32768	32767	32767	-5739	0	89	2
-32768	-15168	32767	-5149	-1859	2165	-32768	888	6440	-8886	3022	593	-22248	24304	9712	-582	-3252	387	32767	32767	32767	24814	32767	-3689	-32768	32767	32767	32767	29582	-4136	-32768	27616	32767	3491	-32768	-5525	222	63	2
-26752	-26760	30508	-4456	-4103	3254	-28824	-11880	-3032	-7795	1804	-244	-28064	3840	-5592	-1913	-3587	-315	-32768	19376	23064	-32768	32767	-32768	-8596	-16240	-32768	-32768	32767	3764	-28256	15468	-32768	-4167	17391	-9261	52	16	2
-21800	-24428	25780	-3815	-5248	2832	-32768	-11336	-8824	-5144	651	-442	-32768	-21336	-3272	-2148	-4460	-1314	-32768	29908	-29888	-1086	20156	5060	-1884	-29084	-32768	-9294	32767	-12129	-5500	-28824	-32768	-5126	32767	-5981	253	59	2
-16560	-32768	19080	-2073	-5600	2026	-25312	-8656	-22736	-2710	-559	-732	-32768	-21984	-11072	983	-5151	-2039	-13940	15604	7580	4523	12135	4215	3432	-6536	-16648	27470	32767	750	8084	-9524	-27888	26012	14627	5652	213	113	2
-11832	-27688	16412	228	-6150	185	-15072	-7952	-21904	532	-2004	-1400	-32768	-32768	26952	4345	-5800	-1878	-15284	-1280	10984	3316	8588	-6245	-18924	8240	-32768	18825	32767	859	-30888	4656	-22664	28375	27382	-15635	0	0	2
-14296	-10120	14088	289	-6820	-2123	-16584	-5376	-27728	3925	-3970	-2492	-32768	32767	-32768	681	-4642	565	-17608	6244	10140	2138	9711	-4533	-32768	5736	-32768	1711	32767	-6495	-32768	32767	-32768	19450	27729	-24916	206	206	2
-19556	-3812	13436	-2245	-6970	-4439	-15432	6632	-25984	5080	-5601	-2676	-32768	-4480	-28776	-2293	-6249	-1230	-15528	2044	17348	4146	7639	-6484	-30596	2144	-27196	-14291	10877	-9550	-32768	-1048	-16496	-24871	29266	-17350	0	1	2
-30612	-11140	18044	-2445	-7434	-4745	-13576	6472	-26120	3597	-7342	-2963	-18536	11968	-24672	-3169	-4009	-1373	-16896	14520	27088	-4462	25740	-9943	-32768	-13632	-19384	-13770	2885	-7068	-32768	4128	3472	-11721	32767	-15578	0	85	2
-32768	-8396	20668	-2468	-8166	-4861	-13456	7840	-27456	1188	-8269	-3459	-3064	8320	-26368	-2460	-1110	-1394	-2032	6764	28888	-1384	32767	-17983	-32768	-25580	-2144	3992	1381	-6145	-32768	-8264	14328	-18796	32767	-12023	0	240	2
-32768	-14372	19440	-1912	-8321	-5958	-12472	7360	-26544	379	-8860	-3642	10048	7720	-21536	-2899	1056	-1026	-13864	7972	21324	13181	32767	-13263	-32768	-16020	3868	13432	-2478	5174	-32768	-9180	12720	-27197	32767	-24479	253	137	2
-32768	-1852	10584	-1236	-7318	-7402	-8864	5864	-29128	736	-8481	-3621	19136	7152	-20976	-825	1124	-275	-32768	14468	16560	22920	32767	-19891	-32768	7568	17748	20216	-10782	6974	-32768	3712	27352	-15565	32767	-12688	253	238	2
-32768	19668	-2396	-1279	-5876	-7088	-4360	688	-32768	1975	-7113	-3387	13296	-1552	-12328	4154	-640	417	-32768	-2100	4960	15710	32767	-22066	-32768	27160	28876	-3617	3231	-7745	-16508	15512	32767	-791	20199	776	253	129	2
-32768	22540	-21960	-1903	-5478	-3391	-17880	-456	-32768	3432	-4626	-1992	2272	-13408	2264	2145	-1954	-587	4212	32767	-14940	-31181	32767	-30657	1408	23712	32767	-32768	27596	-20595	-8620	10352	32767	-18293	-293	5568	253	93	2
-32768	22044	-32768	-69	-3959	502	-4176	22888	-32768	1650	-1986	-436	-4928	-11168	22192	1206	-1756	-1088	-32768	-3032	12100	-32768	32767	-20003	-9456	-9496	-496	-32768	32767	-13110	5116	-11672	32767	-1012	-6637	-9689	26	96	2
-32768	25332	-32768	186	-538	926	6624	22768	-32768	-2841	633	-38	2392	-360	14392	1	39	-1183	-32768	-26900	32767	-14857	32767	-4436	-32768	-32768	1496	-21024	32767	-4061	-7128	-18452	4368	17001	-9342	-12612	83	121	2
-32768	16720	-32768	201	2035	-319	8080	7080	-32768	-1911	3003	666	624	8232	2904	-3487	1257	-339	-32768	-12380	32767	32767	13929	87	-32768	-19664	4060	32767	32767	-1353	-27276	-13912	8900	10781	-21142	-6181	23	181	2
-32416	20744	-16504	826	3646	-319	3240	14096	-26352	437	4058	1464	4512	21568	-25096	-4792	4347	1887	-32768	32767	29560	32767	-10799	-15212	-32768	-2168	2724	32767	32767	-5954	-9552	-26692	5808	163	-25795	-776	0	73	2
-8812	-32768	-2852	-25	7625	-113	-25856	-24272	32767	-6822	1887	1006	-30976	-12624	32767	-422	-544	1674	-29868	32767	21992	32767	-28710	-25664	-32768	4284	1812	32767	32767	3241	-16396	-12804	3932	17862	-26111	-7067	253	35	2
-32768	-25180	3608	5118	10952	6207	2416	-32304	-32768	4686	5806	583	-32768	-8472	3688	1291	1064	379	-24032	32767	18992	32767	-32768	-20204	-32768	6808	-5752	27833	23141	1981	-32768	18532	692	32767	-20933	-5164	181	100	2
1728	-32768	15928	1045	1939	690	-2568	32767	-32768	2208	11592	-330	-7928	32767	-32768	-1723	1726	-424	-8880	32767	16484	8503	-32768	-14509	-27508	7140	-13368	11330	9036	3003	-32768	21132	-7732	22866	-32768	4052	252	36	2
-14700	-21736	16032	-224	916	-810	-12224	20160	-10280	-7495	3320	1130	10312	11496	-27144	-4113	2357	1573	-6748	32767	13284	-14724	-32768	-5105	-25728	9028	-13452	8352	5741	2765	-32768	15184	-13412	-8753	-32768	19289	130	10	2
-15100	-9988	9564	545	1009	406	17448	-26304	-32768	-2176	3375	-43	-23856	3208	-24640	-3002	3188	3435	-14452	19592	9040	-16505	-32768	16775	-11432	1548	-23540	-27008	-32768	4408	-32768	-13832	-22612	-15337	-32768	18594	253	0	2
-16092	-3032	12260	466	820	460	-32768	-15800	-32768	507	3083	-142	-32768	-16712	-25152	-775	3337	1899	-13140	8440	9188	1852	-32768	32767	-29924	9652	-32768	-9491	-32768	5990	-32768	-5544	-30384	-15850	-32768	14621	253	239	2
-16764	-5052	17416	-299	787	681	-31384	-5520	-32768	362	1615	1084	-32768	-3120	-17416	28	3415	1723	-23468	11232	9560	18527	-32768	32767	-6536	-11196	-26264	-10135	-32768	16935	-29832	-9296	-31452	-696	-32337	14167	0	126	2
-14764	-9632	26372	-7	3020	752	-32768	608	-13240	-19	1017	459	-32768	-16472	1176	205	4755	2636	-31600	18624	12736	18784	-32768	32767	-3160	-5508	-22400	18197	-32768	22404	-10272	-7488	-31208	5062	-20286	18560	0	212	2
-2980	-1364	30508	-217	5926	1140	-32768	7048	-216	-1132	260	569	-32768	-1736	6536	1715	4551	3215	-32768	18604	14948	12894	-32768	32767	-8380	-1672	-20568	27455	-32768	31273	3380	-9712	-28728	9606	-4650	18445	0	236	2
3704	-3360	27700	-1114	9446	92	-32768	-568	13616	-871	-308	930	-32768	8032	5240	1642	4174	3611	-32768	14892	16088	7058	-32768	32767	-10260	-4976	-24216	17504	-32768	32767	19412	-9480	-26848	23250	3830	11235	0	189	2
-32768	-2540	14752	-2160	11991	473	-32768	-10072	9296	-984	-1110	622	-32768	-7304	20536	2930	4900	3116	-32768	9428	5572	3131	-32768	32767	-9136	-11980	-29196	1035	-32768	32767	25880	-3116	-28748	-8390	6794	-2919	253	139	2
-32768	-11524	1780	-1541	9540	725	-32768	-25584	25712	-3229	-609	1637	-25152	-32768	32767	229	3050	668	-32768	-16056	-11416	4769	-32768	32767	-11700	-11252	-32768	-7862	-32768	29727	6936	-396	-6876	-32768	-19984	-1813	0	158	2
-12460	-32768	-11684	5455	9658	2252	-408	-32768	32767	2427	2700	3699	-18152	-23864	32767	1407	860	-1562	-32768	-32768	-32768	18118	-29151	32767	-20720	-10912	-32768	-17655	-32768	18627	-1128	13552	8512	-22260	-21516	-58	254	148	2
-32768	6376	12976	10404	7655	970	7288	-1736	8256	10219	7073	878	-9456	2272	32767	3531	-1069	-213	-32768	-31704	-32768	-1353	-20967	6720	1096	-17344	-32768	-20098	-22255	-2140	-5412	3084	32767	-2205	-14677	7333	253	237	2
-32768	32767	32767	-1556	4987	-1597	-32768	32767	18904	6915	8410	252	-4560	17664	26632	687	-1104	672	-32768	-32768	-32768	-1501	-5372	-12720	21888	-20668	-32768	10821	16857	-955	11552	-8000	22324	29947	8988	6287	0	237	2
-32768	-3736	32767	-7794	1179	534	-32768	18952	7704	-6939	4166	286	-22952	23504	23120	-2244	-3367	1353	-32768	-19960	-32768	4440	19236	-1976	7092	-15272	-32768	18597	32767	-2306	3312	-32768	-15608	32767	32767	-2867	0	117	2
-32768	-20900	32767	-7209	-783	2403	-32768	3088	5728	-11544	3390	288	-23072	24016	6360	-2143	-3416	947	-32768	32767	-7488	8990	32767	1828	4744	-11748	-32768	21154	32767	-3205	-9592	96	7856	17351	3692	-8246	253	136	2
-28508	-31712	30464	-5718	-3192	3376	-27632	-9496	-2208	-10791	2061	-735	-20032	9912	-3712	-2508	-4023	220	-32768	-11616	-24916	-28549	32767	-32768	3232	21872	-32768	-32768	32767	2834	-32768	32767	-4960	32091	29880	-12640	162	0	2
-25860	-27880	25132	-4176	-4803	2619	-32768	-22592	-8304	-6289	969	-311	-32768	-23880	-4032	-3604	-3969	-920	32032	-4736	32767	-11480	13071	-27855	3584	-32768	-32768	-32768	32767	-22044	-22904	-29648	-32768	-28582	19311	-1220	254	0	2
-15228	-32324	19600	-2610	-5193	1551	-29992	-10912	-14720	-3051	437	-642	-32768	-28208	-10584	-236	-4866	-1981	-30888	-740	12772	-2877	15677	5183	16136	-32768	-32768	17918	32730	-11325	10788	-7896	-31408	18618	17623	7138	237	238	2
-12088	-31208	17528	184	-5523	534	-11584	-14496	-24848	682	-966	-865	-32768	-14496	-13272	3340	-5523	-2926	-10680	20964	6384	-375	13108	1409	-12244	25436	-25096	27405	32767	-2309	-12664	6176	-20016	14351	24039	-15903	0	49	2
-16788	-19284	13060	1318	-6916	-1790	-11768	-5720	-28192	5077	-2842	-1783	-32768	-8696	-18504	2984	-5369	-3772	-15972	5352	11712	558	8897	-2797	-32768	-8072	-32768	540	32767	-7265	-32768	11436	-27076	7747	27792	-22916	253	47	2
-14236	-2828	11312	-606	-7677	-3860	-15464	7768	-26168	6640	-5134	-2036	-32768	360	-30112	107	-4852	-1373	-16052	7360	12948	-556	7976	-4603	-22676	-8456	-32768	-11096	12658	-7358	-32768	12292	-23928	-8818	32578	-8607	0	100	2
-23964	-8080	15104	-2333	-7546	-4696	-16360	9704	-30376	5302	-7006	-2056	-32552	7664	-29656	-837	-5092	-2211	-14572	11040	22644	-4270	17652	-12364	-32768	-10512	-27084	-11315	8240	-4166	-32768	11152	-2664	-5473	30047	-16684	0	0	2
-32768	-10672	18296	-2352	-8430	-4770	-8048	10296	-25112	1362	-8470	-2599	-9616	11832	-28032	-979	-2334	-1644	-12376	10192	28112	-3654	32603	-16045	-32768	-22800	-10888	4265	722	-5743	-32768	1136	5280	-16564	32767	-13277	0	206	2
-32768	-12656	18072	-2115	-8739	-5299	-11984	6840	-29568	-494	-9178	-3303	4032	14552	-24384	-2005	179	-965	-6356	3708	25176	4119	32767	-17211	-32768	-18952	2168	8290	534	-1461	-32768	-11592	14536	-28841	32426	-18525	227	238	2
-32768	-5164	13460	-954	-8223	-6860	-9384	5432	-27920	-375	-9063	-3814	17624	7568	-20176	-2762	1450	-604	-9128	3200	23416	7092	32767	-16377	-32768	-6372	7064	11066	-7474	5072	-32768	-5504	19268	-21279	32767	-13129	253	239	2
-32768	1092	5876	-599	-6911	-7411	-6264	6448	-32768	1744	-8088	-3905	18856	6760	-18808	1998	1176	906	-32768	18136	8212	16143	32767	-22678	-32768	21236	27388	3502	-7629	2519	-32768	8984	32767	-9660	23320	-3704	128	166	2
-32768	25464	-10328	-1765	-6044	-5428	-15848	-3432	-32768	4379	-6065	-3481	3448	-1664	-3712	3627	-1133	428	-32768	18796	9608	-4098	32767	-25436	-18228	21944	32767	-31596	6607	-18458	-11272	5636	32767	-10353	12764	7462	150	81	2
-32768	25584	-31368	-1771	-5122	-1556	-17592	12840	-32768	4935	-2932	-671	-7192	-12560	15048	2377	-1761	-788	-32768	32767	624	-32768	32767	-25051	5280	-6056	16360	-32768	26918	-8501	-220	2144	32767	-7851	-8831	-2893	22	102	2
-32768	28860	-32768	165	-2502	1142	4736	32767	-32768	-1455	-770	-44	-4392	-5608	22320	804	-1011	-1582	-32768	-22676	32767	-32768	32767	524	-21720	-30132	12184	-32768	32767	-11899	724	-9788	30876	3489	-5930	-7257	253	97	2
-32768	28092	-32768	-50	779	1409	8288	14080	-32768	-4501	1847	-88	2728	6192	6896	-1696	637	-1270	-32768	-13096	32767	9966	8393	5804	-32768	-30396	14072	18116	32767	-10202	-16196	-13528	11484	17262	-16873	-15832	253	131	2
-32768	20388	-26608	456	2996	823	4184	8912	-32768	-1675	3983	1132	1960	14256	4912	-5647	1777	357	-32768	7824	32767	32767	-11832	-576	-31740	-9360	9788	32767	32767	-6261	-22944	-18884	13248	3549	-26535	-5303	12	117	2
-9508	8700	28036	-985	4480	4521	-9264	9832	2808	-2493	3278	1464	1816	22312	-15608	-5264	3892	2652	-23848	22432	26028	32767	-28970	-15159	-30864	2404	8044	32767	32767	-3152	-12572	-24612	3424	6569	-27613	-633	252	0	2
-32768	-32768	-12232	1489	9708	5151	-32768	-10488	-32768	1867	5944	-2163	-32768	-25912	9280	338	127	-1191	-26652	24048	20116	32767	-32768	-22668	-32768	5472	-2784	31158	28793	4794	-25984	80	3228	28231	-26088	-5370	0	50	2
-32768	32767	32767	2103	2696	9386	15416	29472	-32768	8234	7621	251	-32768	-8864	-32768	-742	1263	-232	-24312	32767	15676	29841	-32768	-20108	-32768	284	-14388	17793	9694	4757	-32768	21276	-1476	25002	-25224	-560	253	53	2
-10460	32767	30784	248	1006	1163	-32640	23800	-26464	-3197	4163	56	1304	28640	-32768	-1817	3146	377	-12924	32767	11552	4248	-32768	-15369	-26076	9416	-18148	4056	-414	3820	-32768	16672	-7856	4187	-32768	9211	253	170	2
-18604	272	8584	246	1087	481	12184	104	-22896	-3282	3712	814	-9304	5552	-8840	-4452	1877	2382	-14144	29084	10636	-9495	-32768	-2130	-20548	6604	-24296	-10091	-20103	7116	-32768	5468	-17236	-6274	-32768	17052	14	104	2
-14728	-600	11696	459	881	663	1208	4664	-22256	-452	3309	74	-32768	-21392	-27080	-1795	3779	2874	-15484	15944	9132	-3588	-32768	22709	12220	-32768	-19592	10135	-10199	32767	-32768	-1724	-26316	-7966	-32768	17431	253	18	2
-14968	-7144	13808	98	749	499	-32768	-7392	-23000	-692	3104	267	-32768	3992	-24232	200	4830	1727	-19308	11928	10392	14025	-32768	32767	-11380	-9896	-24404	-12265	-32768	129	-32768	-8864	-31780	-939	-32768	14075	248	125	2
-14808	-8524	15184	-66	763	584	-32768	-6328	-19600	-896	1887	469	-32768	-14376	-10640	-502	4649	2495	-27432	18728	13836	18932	-32768	32767	-5672	-7160	-25492	9433	-32768	27828	-22924	-7876	-30124	5796	-29609	14877	0	127	2
-7196	-2420	28976	108	4744	944	-32768	2464	-9192	-766	688	1230	-32768	-10472	5712	1616	4447	3117	-32768	18124	16352	14912	-32768	32767	-9788	-408	-19092	22574	-32768	32767	-3788	-6828	-27352	10466	-15822	16074	0	151	2
1960	-588	26904	-774	7823	226	-32768	2416	7544	-743	107	1075	-32768	5840	7488	2105	4209	3860	-32768	12688	19788	15720	-32768	32767	-11496	-4376	-23440	16019	-32768	32767	9264	-12496	-21168	27357	1305	18098	0	190	2
-3112	-7060	19488	-1551	12016	578	-32768	-5520	9992	343	-739	1102	-32768	2296	1144	1657	4514	4233	-32768	4856	9548	17743	-32768	32767	-8544	-10148	-28252	4155	-32768	32767	28336	-5284	-22004	26528	9180	8525	253	142	2
-32768	-9400	492	-1748	11683	515	-32768	-25920	18824	-2559	-1448	1499	-32768	-32768	32767	3478	4249	2067	-32768	-16084	-6856	9522	-32768	32767	12	-20136	-32768	-9830	-32768	29527	15872	-1868	-18144	-32768	-11903	-977	165	97	2
-32768	-24108	1532	2380	8959	2656	-18360	-32768	31216	-98	1207	3707	-17448	-32768	32767	1593	1429	-729	-32768	-32768	-28112	19709	-22938	32767	-13472	-14224	-32768	359	-32768	16198	6148	18104	1856	-32768	-22661	-833	224	218	2
-32768	-32768	-25192	12702	10603	1982	13528	-23776	9960	10556	6146	2889	-16464	2608	32767	6401	-538	-1467	-32768	-29432	-32768	-3161	-15460	11106	-4168	-10788	-32768	-9271	-22490	3741	-6692	9440	27956	-1793	-10049	4883	0	234	2
-32768	32767	32767	6758	6539	-965	-16672	22536	-4720	12329	8512	-29	1880	14168	32767	2219	-567	793	-32768	-32048	-32768	-7141	-14212	5748	18072	-19792	-32768	-6017	9543	-5737	920	-6168	16696	5734	2447	7385	214	229	2
-32768	19176	32767	-7831	2616	-1177	-32768	32767	1712	-322	6884	-869	-17336	32160	21392	-1591	-2490	1159	-32768	-26852	-32768	1039	16038	-4118	12552	-22464	-32768	366	29340	-6072	3292	-31872	-13376	32767	32767	-5636	0	79	2
-32768	-20720	32767	-8445	-934	1538	-32768	12176	728	-10966	3206	-213	-28800	25096	10656	-1882	-3365	1336	-32768	14228	-16272	7054	32767	-6037	10092	-19808	-32768	3645	29734	-5624	-12056	-12092	13604	13763	8257	-7403	253	238	2
-28948	-32768	32767	-6602	-3241	3448	-32768	-8032	-5576	-12134	2442	-1280	-21320	13464	-2928	-1937	-3687	337	-32768	-2848	16404	-32768	32135	-32768	860	22624	-32768	-32768	32767	10430	-26896	-1820	32767	1575	-17075	-5211	0	0	2
-25824	-31024	29112	-4291	-4235	3189	-32768	-20016	-7512	-8259	823	-184	-32768	-20096	-3240	-3355	-4007	-721	-26056	32767	11104	-11851	19526	-4401	6760	-32768	-32768	-32768	32767	-26877	-15376	-27180	-32768	-5500	18858	1247	173	0	2
-14868	-30372	21400	-2897	-5004	1922	-30920	-12464	-14840	-4642	372	-692	-32768	-27144	-15512	-330	-5112	-1377	-21536	4804	19420	3968	16860	6520	16900	-32768	-20472	31032	32767	-7570	12748	-2252	-29696	25034	17657	7300	253	240	2
-5588	-28668	18552	-746	-5458	910	-8072	-9824	-23472	-782	-904	-881	-32768	-17008	-14184	2355	-5793	-2600	-9112	18092	10700	970	11554	-217	-8564	26572	-32768	19389	32767	-3777	-16064	8536	-19284	11908	24271	-20994	107	0	2
-12324	-24056	12880	737	-6858	-1166	-8016	-4128	-25488	3432	-2933	-1970	-32768	-7880	-20792	1858	-5242	-2151	-15156	7860	13164	-484	9244	-4086	-32768	-15344	-32744	-7976	32767	-10706	-32768	12504	-28252	6111	23920	-23835	254	6	2
-15260	-7504	11844	26	-8151	-3210	-10840	6912	-22112	5257	-5025	-2572	-32768	3672	-31024	-429	-4625	-356	-15904	11052	11696	3701	7517	-6876	-28596	1080	-25464	-6993	11380	-9023	-32768	5880	-16520	-6156	32729	-10245	0	104	2
-21648	-6116	13388	-1950	-8131	-4705	-11448	6288	-25024	5418	-6869	-3142	-32648	5488	-32768	-972	-5342	-2309	-18928	12576	26892	-3362	19811	-11523	-32768	-14620	-20684	3425	10461	-4701	-32768	13992	704	-3331	31295	-18353	0	56	2
-32768	-11732	17504	-2449	-8501	-5123	-10992	8480	-21360	3285	-8252	-2949	-10984	10792	-30000	-784	-2674	-1764	-4352	4880	26872	-4396	32767	-18450	-32768	-17972	-6660	4865	3759	-8633	-32768	-3816	5464	-15340	32767	-15502	0	172	2
-32768	-15024	21568	-1936	-8955	-5424	-12336	6912	-27760	1119	-9089	-3348	4168	14744	-25888	-2037	-392	-1081	-13700	3404	23304	5759	32767	-15797	-32768	-15012	920	944	-251	-2544	-32768	-4660	10572	-30390	32767	-24462	251	195	2
-32768	-4000	12660	-860	-8679	-7117	-11496	5728	-25928	1057	-9164	-3501	17408	10432	-19384	-3016	623	-953	-29472	19168	28032	12753	32767	-22149	-32768	2148	6460	1461	-8671	1571	-32768	3944	10516	-25901	32767	-17362	148	238	2
-32768	1192	-1520	-272	-7054	-7653	-2920	14960	-32768	2122	-8135	-3155	23248	7096	-20272	2065	849	476	-32768	144	9272	13694	32767	-26252	-32768	13200	13312	-9834	-9265	-1517	-32768	11060	32767	-13335	23584	-3701	225	239	2
-32768	27752	-14500	-1309	-5490	-6066	-4360	376	-32768	1791	-6660	-2959	7880	-256	-4760	3894	-1709	441	-32768	32767	-11128	-18640	32767	-28597	-23468	18720	32767	-32768	7916	-21093	-11472	5656	32767	-32768	-5197	11377	253	90	2
-32768	25504	-32768	-1918	-5034	-1319	-24504	5896	-32768	2416	-3527	-1376	-3576	-11696	11152	1556	-1923	-285	-32768	12236	-7344	-32768	32767	-23559	10092	812	4868	-32768	32767	-5254	4664	-21188	32767	-9592	-18615	-9625	253	60	2
-32768	25292	-32768	111	-2705	1503	3480	29064	-32768	-771	-719	158	-6744	-6824	22016	-258	-822	-1189	-32768	-32768	32767	-32768	32767	3866	240	852	2504	-32768	32767	-4300	3952	-22484	8168	19967	216	-10843	253	99	2
-32768	21812	-32768	883	570	1396	6000	17056	-32768	-3716	1614	332	328	-112	4208	-2805	1129	-1264	-32768	-17520	32767	32767	18827	16854	-32768	-32016	-1300	28025	32767	-2117	-32768	-15332	6040	25541	-19905	-11898	0	172	2
-10608	21296	-3288	-236	3108	-84	8568	5208	-19800	-1840	3431	1446	3352	19024	64	-5340	3584	755	-32768	32767	31316	32767	-8975	-3325	-32768	-2772	4808	32767	32767	-3967	-17444	-23044	12308	12094	-24371	1366	0	131	2
6124	-32768	32767	-1066	8365	1325	-18976	-32768	32767	-8294	2655	1093	-32272	-3328	32767	-911	-1743	1458	-29388	32767	27212	32767	-26198	-23645	-32768	7684	2984	32767	32767	4527	-17396	-11416	3756	10506	-28568	-2455	254	1	2
-32768	-24456	1576	5107	7792	4881	-14008	-24456	-32768	10373	7496	-186	-32768	-16624	-32768	71	1450	625	-25916	32767	23056	32767	-32768	-19594	-32768	5300	-5972	30459	22805	5057	-32768	21572	4848	32767	-24047	-3319	9	109	2
-32768	-32768	-25476	1673	2492	1663	-14712	27328	-32768	-3712	7178	1429	4440	32767	-32768	-2869	2718	493	-8924	32767	18736	12035	-32768	-13180	-28512	5556	-11968	14155	8226	3948	-32768	16672	-8876	20548	-32768	7725	225	39	2
-12312	-14064	16636	166	1497	407	-448	21248	-25528	-6294	2933	744	8816	-2072	-32768	-4082	2620	1591	-7260	32767	17892	6964	-32768	-12762	-12344	10844	-24080	-9448	-10449	6755	-32768	10660	-12680	-3095	-32768	19033	0	9	2
-13332	-8640	10928	422	759	489	13656	-30008	-32768	-2061	3570	1158	-20008	-7688	-32768	-2598	2229	3327	-11860	19724	10848	-12542	-32768	15335	-11464	1612	-24172	-25783	-32768	8989	-32768	-3188	-27156	-8957	-32768	19417	254	1	2
-16216	-5432	11676	387	751	537	-32768	-26040	-32768	773	3379	135	-32768	1536	-24736	862	3155	2145	-12680	8992	10096	5612	-32768	32767	-7416	-9536	-22936	-17534	-32768	15778	-32768	-4340	-31500	-7315	-32768	17312	253	244	2
-15120	-6576	23712	-306	1136	911	-32768	-6496	-31800	1161	2211	1122	-32768	-8968	-12288	-337	4489	2757	-22256	11036	10324	21403	-32768	32767	-3848	-10104	-20872	-2319	-32768	24748	-26460	-7588	-32768	-13	-32768	16245	0	88	2
-10852	-4256	30040	215	3759	923	-32768	5400	-11576	243	1083	820	-32768	-14672	6048	1802	5035	2750	-32768	20492	15148	18142	-32768	32767	-4776	-6520	-21172	15393	-32768	30796	-6068	-9264	-30968	3991	-20031	19067	8	161	2
1856	-2060	29640	-492	6786	917	-32768	8976	3992	-555	123	724	-32768	8928	6792	2431	4667	3484	-32768	20672	18868	7326	-32768	32767	-8716	-3992	-20956	15279	-32768	32767	7116	-14592	-29140	12847	-6987	16567	103	224	2
2968	-9436	25608	-1373	11242	351	-32768	-784	11960	-356	-699	751	-32768	10168	2592	2063	4713	3602	-32768	7480	18432	2475	-32768	32767	-11764	-6920	-23084	4042	-32768	32767	28084	-5980	-27528	26090	3726	8485	0	64	2
-32768	-1716	12256	-2291	11984	984	-32768	-15480	8344	-1759	-1487	926	-32768	-11248	30432	3735	4854	2724	-32768	2184	824	490	-32768	32767	-5984	-15680	-32768	-14372	-32768	30483	26372	-1244	-30504	-12033	8546	106	70	94	2
-32768	-12104	7520	-548	8481	1591	-31336	-30272	20176	-2755	-370	1751	-22904	-32768	32767	500	2434	-60	-32768	-24592	-21280	-489	-32768	32767	-9504	-15268	-32768	-10248	-32768	20760	6076	5184	-7260	-32768	-23980	-702	204	73	2
-4464	-32768	-22100	7242	10045	2597	7072	-32768	29144	5064	4143	3676	-18496	-13168	32767	2546	550	-1783	-32768	-32768	-32768	8823	-31858	24926	-25464	-12152	-32768	-13451	-32768	12579	-5776	13048	18440	-22891	-21818	-3759	253	202	2
-32768	32767	32767	8073	6546	672	-6184	11048	2800	11131	8220	615	-536	-3136	32767	315	-1499	482	-32768	-32768	-32768	-530	-18916	-6551	13684	-18092	-32768	-6467	-10720	-4967	-6912	-1376	32767	-4069	-12946	6794	155	244	2
-32768	32767	32767	-4179	4978	217	-32768	32767	14112	1629	7568	-50	-2832	17696	21816	-1089	-2061	505	-32768	-32768	-32768	920	730	-18719	18896	-17964	-32768	13416	28735	-161	9412	-26604	9312	32767	24835	1056	0	186	2
-32768	-9224	32767	-6716	1580	2581	-32768	1080	4120	-7960	3167	316	-32768	18368	22200	-1387	-3468	1352	-17784	30612	25472	-9718	23634	-9812	244	-17224	-25148	32767	32767	-4345	-984	-32768	-32768	32767	32767	-4807	253	164	2
-32768	-30996	32767	-6160	-1202	3647	-32768	1256	4768	-10669	3183	949	-20256	24768	4440	-509	-2958	183	32767	32767	32767	18397	32767	-19708	-32768	32767	32767	32767	27883	-6454	-31640	18988	32767	20254	-30810	-2969	253	81	2
-32768	-32768	29904	-4237	-3263	3861	-29568	-14704	-6440	-8126	1853	372	-32768	616	-368	-1941	-4540	-34	-32768	31860	-5656	-32768	32767	-32768	-8336	-32768	-32768	-32768	32767	-474	-25940	31264	-32768	13337	16008	-7729	113	22	2
-23864	-26948	25264	-3428	-4888	2370	-30344	-17232	-7640	-7551	1613	415	-32768	-29552	-9592	-1953	-4689	-718	-17492	19880	9068	-8059	12718	2469	-15348	-2100	-32768	2658	32767	-13930	-10472	-29532	-32768	-2348	32767	-6236	133	218	2
-11316	-32768	20332	-1822	-4790	1259	-22984	-9448	-22560	-2457	-185	-600	-32768	-24112	-11840	1500	-5454	-2047	-17612	8804	6596	225	9421	-1779	4780	4944	-12756	19349	32767	-3643	-2792	-15900	-23916	18157	12070	-4616	253	160	2
-12904	-27480	16160	392	-5786	-677	-7816	-10872	-26320	2050	-1855	-1125	-32768	-6192	-14928	3238	-5665	-2690	-19420	-2792	6216	2161	9984	-7278	-16696	15296	-31200	14376	32767	-2154	-23880	21316	-30884	10330	31935	-26554	253	46	2
-14872	-11292	13024	745	-7571	-3067	-12144	712	-27872	5360	-3906	-2101	-32768	3808	-32200	1558	-5241	-1506	-19740	6104	9644	881	8223	-7466	-32768	-1940	-32768	-4970	32767	-10320	-32768	10080	-24944	2507	20719	-23356	0	61	2
-17416	-1832	13496	-1432	-7955	-4318	-13656	5488	-24960	5622	-6219	-2390	-32768	2192	-32768	-714	-5517	-1785	-14724	11676	31472	-6740	16077	-11155	-32768	2416	-17260	-5277	13682	-13092	-32768	16776	-11672	-2427	32767	-14561	0	0	2
-30208	-6504	17716	-3115	-8431	-4884	-10416	10152	-27432	3934	-7947	-2688	-24672	8928	-32768	-662	-4073	-1969	-14468	11596	24508	-4920	28172	-16926	-32768	-10764	-15804	1742	5243	-8432	-32768	6944	4728	-12040	29590	-17377	0	158	2
-32768	-15300	19788	-2863	-9118	-5070	-10472	8064	-26600	315	-9262	-3193	-3216	13824	-29888	-1369	-1610	-1397	-5364	4064	24140	-1415	32767	-20534	-32768	-17988	-4096	4082	1102	-7800	-32768	-6708	9860	-23445	31764	-18397	181	238	2
-32768	-10740	16244	-1115	-8960	-6317	-10624	4792	-26936	24	-9514	-3735	16528	13912	-27224	-3229	653	-832	-21136	14248	19784	6564	32767	-22939	-32768	-6616	-236	2272	-3492	1467	-32768	-6396	10260	-19858	32767	-19569	254	227	2
-32768	812	7440	-370	-7940	-7854	-2440	10784	-32768	1795	-8987	-3467	27872	6336	-25448	216	1360	-120	-32768	19896	23568	12971	32767	-27681	-32768	13760	21188	7906	-13485	2175	-32768	18796	26308	-13314	32767	-8364	114	237	2
-32768	9584	-3496	13	-6666	-7035	-1048	1304	-32768	3314	-7819	-3359	16096	6552	-14608	4407	-132	630	-32768	3276	9960	-345	32767	-31701	-32768	21896	27656	-14565	-2521	-8658	-15248	5608	32767	-17526	15411	3357	253	162	2
-32768	23816	-24316	-1485	-6133	-3964	-22432	-3232	-32768	5642	-5465	-2617	3248	-1488	232	2663	-1374	305	-13712	20116	-24024	-32768	32767	-32768	9152	16512	32767	-32768	21817	-20230	-9500	-9508	32767	-24215	-10552	992	253	60	2
-32768	20804	-32768	-957	-4350	27	-13424	17416	-32768	3386	-2223	7	-9792	-6168	23664	2350	-1204	-652	-32768	-21524	27608	-32768	32767	-25862	-15824	-16516	-5504	-32768	32767	-8323	8056	-19188	32767	4030	-3100	-10824	0	65	2
-32768	25904	-32768	50	-988	1427	10296	26008	-32768	-3379	192	-349	-8424	-2288	21112	-110	300	-1730	-32768	-32768	32160	32767	25809	-17655	-32768	-32768	7640	15122	32767	-2844	-15928	-18272	-988	25624	-13037	-12504	97	175	2
-32768	23812	-32768	-892	1897	880	9176	7800	-32768	-4020	2876	-18	1488	15336	11832	-5727	1784	88	-32768	18412	23404	32767	-761	-29296	-32768	-10420	7188	32767	32767	-4874	-26900	-19484	6340	17102	-23447	-3206	254	141	2
-32768	32767	-9312	-195	4262	3474	-3896	6120	5208	-5545	2811	929	1376	27240	-23240	-4561	4273	2427	-32768	32767	17892	32767	-25836	-32768	-32768	3212	5952	32767	32767	-420	-8940	-24072	4044	10305	-26507	418	253	0	2
3744	-32768	7900	-245	10643	4222	-32768	-32768	-5128	-905	4000	-1883	-32768	-32768	32767	-3228	-1312	-1117	-24192	32767	22732	6715	-27139	-26228	-32768	1452	-96	32767	32767	3454	-29024	12256	1968	25685	-25561	-385	253	77	2
-32768	32767	19676	2484	2514	9990	8464	424	-32768	9106	6849	849	-31424	-19568	-32768	-625	1116	-432	-9404	31780	24776	-18214	-13891	-337	-32768	-292	-5968	12743	15367	-3540	-32768	32767	-1508	32767	-25389	1294	116	166	2
-9376	-2580	12844	259	1105	1410	-31368	19424	-32768	-2051	4517	717	13296	31616	-32768	-2264	3455	266	-9252	19192	24784	-18336	-12291	14110	-16016	14756	-15652	1794	1054	-1813	-32768	21584	-12488	4117	-32768	17922	0	0	2
-12848	-3744	11416	-94	1422	119	8888	13560	-19264	-3675	2994	1109	5320	4000	-24424	-3897	2119	2479	-17644	13876	18652	-4042	-32768	23564	-4572	13272	-23944	-32768	-27851	3006	-32768	3972	-16988	-20815	-32768	26537	131	114	2
-13364	-6588	11372	375	968	41	2160	-15192	-32768	-740	3629	434	-32768	-21952	-28096	-1562	3012	3101	-11028	16124	10616	1218	-32768	32314	-5652	10716	-21704	-32768	-30573	3589	-32768	-2952	-19688	-23589	-32768	25395	253	124	2
-14608	-6104	13508	228	808	370	-32768	-15920	-32768	-303	3488	-347	-32768	10960	-22424	477	3249	2134	-17628	5832	9936	11930	-32768	32767	-8276	-11172	-22336	-27559	-32768	11855	-32768	-7196	-30716	-8947	-32768	16549	253	213	2
-6860	-8652	30816	208	2516	352	-32768	-8360	-16616	-1339	1994	908	-32768	-14040	-2096	-448	4059	2290	-28256	8696	13680	18824	-32768	32767	-1188	-16408	-24748	-3162	-32768	16033	-19128	-7536	-30912	-3934	-28151	18363	0	178	2
-6212	-3496	27868	-141	5234	403	-32768	1584	-5048	-785	1010	1056	-32768	-5456	5800	1370	4049	2702	-32768	16144	16952	12891	-32768	32767	-5772	-4536	-17436	19848	-32768	18057	-2620	-8472	-28808	299	-12668	21627	0	191	2
3908	-2588	25212	-638	8081	-5	-32768	4648	7808	-1199	309	985	-32768	7576	4456	1290	3932	3202	-32768	17732	21664	2278	-32768	32767	-13224	-3728	-25092	21021	-32768	25394	9632	-12432	-27736	11697	-930	14924	0	238	2
-11748	-8476	17528	-1439	11147	123	-32768	-3752	7776	-142	-476	1064	-31168	6112	1712	910	4144	3621	-32768	4692	12744	5340	-32768	32767	-11552	-7540	-26848	10942	-32768	29990	22944	-4924	-27152	9037	10607	3779	0	4	2
-32768	-9132	8580	-1957	10632	507	-32768	-26000	8064	-2522	-1145	895	-32768	-30248	30000	1363	4069	2121	-32768	188	-11952	3124	-32768	32767	-188	-15640	-32768	-5130	-32768	29059	16744	-13540	-16708	-32768	-4027	-8743	4	173	2
-32768	-17736	12808	1156	7959	2409	-27016	-32768	26064	-594	624	3060	-32768	-32768	32767	795	3737	1667	-32768	-32768	-29864	12693	-32768	32767	-6436	-3604	-32768	-7235	-32768	19245	12128	780	-2704	-32768	-26394	-7951	36	71	2
-27796	-32768	-20084	7832	10313	3361	1704	-22920	28416	7670	5060	3059	-17392	5520	32767	5735	-404	-1580	-32768	-31332	-32768	12084	-25786	20831	-32768	-12708	-32768	-21968	-27532	3370	-7724	7260	32767	-8563	-20005	429	231	238	2
-32768	20992	32767	5569	6128	0	-5184	24352	2064	9853	7695	283	10760	8136	32767	2301	-424	499	-32768	-32768	-32768	-1992	-13944	-11516	24288	-17188	-32768	2246	-4468	-5910	-1968	-3196	31108	24160	-3736	1920	194	228	2
-32768	24688	32767	-5360	3077	-1646	-32768	32767	16680	-655	6178	-304	-7728	21912	13040	-2054	-1547	890	-32768	-28380	-32768	4005	7310	-14905	14444	-15676	-32768	20820	32767	-73	1896	-32024	-20784	32767	32767	3921	0	40	2
-32768	-9892	32767	-7286	-210	1074	-32768	4824	2368	-9474	3060	-599	-27816	13800	17408	-3488	-3468	1278	-32768	11956	-15012	-6372	29613	-17242	-4332	-9380	20936	32767	29228	-6075	-1192	-17056	-32768	32767	32221	-7896	253	134	2
-32624	-26464	30564	-6295	-2762	2384	-32768	-7832	5320	-10283	2755	-35	-19272	12464	5824	-1796	-3431	33	26108	-26552	-22600	32767	32767	-32768	-32768	32767	-10020	-11399	32767	15604	-32768	32767	32767	27014	-24528	-4765	171	0	2
-31036	-27352	25312	-4317	-4447	2804	-30072	-18896	-5256	-5935	1650	-133	-32768	-10592	-4112	-2714	-3996	-781	-32768	-32768	32767	-32768	-23485	-32768	-32768	-32768	-32768	-32768	32767	-26838	-32768	-4612	-32768	-18921	23789	12584	31	154	2
-16640	-25892	22940	-3188	-4870	1896	-32768	-8064	-10056	-3467	935	-465	-32768	-23344	-10160	-984	-4048	-1695	5076	-32768	7636	-23448	-21057	-32768	10616	1004	-14192	-502	26848	-14709	-32768	-18976	-32768	-32768	19534	16816	253	236	2
-12228	-31464	18548	-836	-4997	1271	-17768	-8960	-26120	-1504	-685	-692	-32768	-23784	-15592	3131	-5090	-2699	-14404	916	7772	-3618	8115	-6420	-7172	21160	-26404	31685	32767	6313	4868	-4444	-22468	20225	15633	-8810	0	0	2
-12360	-24496	15252	1024	-6071	-637	-10728	-5280	-24656	2294	-2253	-1434	-32768	-8784	-15472	4193	-5341	-3093	-18476	3160	7516	1280	8477	-5047	-26688	8508	-22280	20136	32767	-7785	-30112	22920	-30984	19592	31336	-27694	220	17	2
-13540	-8640	12900	734	-7313	-2774	-13040	-2336	-25472	5283	-4591	-1886	-32768	8368	-31040	1084	-4077	-239	-18404	3308	9920	446	9139	-7851	-17716	-10836	-32768	-1497	18190	-7232	-32768	7548	-27644	-10328	31144	-8945	0	169	2
-19544	-5148	13504	-1243	-7677	-4309	-13456	8096	-25552	5308	-6126	-2663	-32768	10312	-32768	-951	-5976	-2269	-15332	8216	29344	-7002	16420	-9798	-32768	-4612	-22792	-12843	13720	-9978	-32768	16264	-6480	1211	31378	-13790	0	0	2
-29364	-9940	17940	-1980	-8135	-4734	-11232	8520	-24152	3606	-7732	-2867	-16520	13448	-29488	-1488	-3311	-2171	-14268	11004	24504	-5441	28478	-15859	-32768	-16668	-16120	-2471	1961	-5878	-32768	936	4076	-10848	30882	-12493	0	240	2
-32768	-15812	19796	-2074	-8722	-4860	-10720	9184	-26328	1431	-8807	-3427	1776	14104	-25464	-1876	-422	-1617	-3600	4692	25620	-150	32767	-19374	-32768	-21828	-1844	6604	2087	-4389	-32768	-9104	11884	-26079	29935	-16710	113	240	2
-32768	-10816	15072	-826	-8620	-6310	-11000	6632	-25200	893	-9000	-3855	22136	12232	-22944	-3381	1274	-911	-22056	11192	20980	11652	32767	-17061	-32768	-11216	2628	6436	-3272	6603	-32768	-10900	11512	-25032	32767	-23360	253	209	2
-32768	-392	6864	-269	-7405	-7660	-6576	11440	-29200	2288	-8447	-3488	19632	9968	-18768	1227	1594	386	-32768	14456	15716	18357	32767	-19350	-32768	8060	18352	11988	-9546	6580	-32768	14228	26832	-7698	32767	-7845	253	240	2
-32768	18368	-3156	-736	-5745	-7045	-10792	1200	-32768	2728	-7157	-3130	9480	80	-6920	4362	-592	655	-32768	3668	7432	1693	32767	-23061	-32768	24900	27584	-12024	3752	-10237	-15048	12280	32767	-12574	12965	2651	253	108	2
-32768	20872	-24780	-1194	-5318	-3395	-24168	1616	-32768	3973	-4397	-1707	-576	-10880	6456	2884	-1365	-226	-32768	22648	-26720	-32768	32767	-27063	4108	11140	25628	-32768	26830	-20656	-12476	-1576	32767	-19677	-13097	-777	253	65	2
-32768	23244	-32768	605	-3532	706	56	22480	-32768	2068	-1336	109	-5328	-9480	25760	2065	-1301	-1303	-32768	-15860	25044	-32768	32767	-11490	-15748	-21792	3044	-32768	32767	-17035	10300	-20976	32767	6507	3921	-10762	253	76	2
-32768	25524	-32768	460	-249	1366	7520	19912	-32768	-2363	1165	35	704	2496	13480	-140	604	-1383	-32768	-20364	32767	8698	29793	3306	-32768	-32768	7732	4946	32767	-4319	-13516	-19268	-196	17841	-10412	-13985	76	157	2
-32768	18260	-32768	292	2155	352	6448	9696	-32768	-1501	3344	822	-104	13984	3120	-4437	1510	21	-32768	9720	32767	32767	12668	-1288	-32768	-8852	8396	32767	32767	-3567	-25236	-17188	11056	17318	-22583	-3369	0	147	2
-20212	27244	-1252	134	3557	943	-1400	11272	-19032	-943	3891	1453	2880	25168	-31464	-4571	4413	2522	-31396	32767	30452	32767	-11763	-22419	-32768	3232	5052	32767	32767	-3203	-8572	-25696	3188	5504	-27595	-807	175	0	2
32767	-32768	32767	-1911	8387	3023	-32768	-32768	32767	-6716	2080	-981	-32768	-32768	32767	-1471	-3478	328	-27716	31684	24420	32767	-27470	-28199	-31888	4528	-1512	32767	32767	3644	-24072	1480	3180	26545	-24633	-8627	254	161	2
-32768	-32768	-13188	6485	9699	5220	1952	-18528	-32768	8123	6395	644	-32768	-16320	-32768	110	932	180	-18748	32767	22032	32132	-32768	-20363	-32768	2256	-9960	22442	22106	4358	-32768	27744	1136	32767	-24105	-76	253	97	2
-32768	-32768	-32768	1549	2158	2139	-32768	32767	-32768	-1562	5651	1588	13280	32767	-32768	-2630	2646	-70	-5908	32767	17084	3882	-32768	-12934	-22228	9916	-12644	5930	3695	3812	-32768	24876	-11908	14156	-32768	10767	213	0	2
-11872	-12076	18420	-31	1578	37	1312	8512	-20224	-6896	3098	1588	17000	6128	-32768	-5567	2112	1828	-6956	27308	16200	-14071	-32768	3011	-14496	10196	-24204	-16038	-17954	5695	-32768	13816	-15652	-12143	-32768	23305	253	118	2
-15000	-4732	11112	373	808	258	10984	-18016	-32768	-351	3822	368	-31984	-19208	-30304	-2800	2920	3378	-10640	14868	11068	-11359	-32768	28625	-10848	-3184	-23540	-30690	-32768	5147	-32768	-596	-26820	-14597	-32768	20295	253	0	2
-15988	-5252	11440	321	808	327	-32768	-30400	-32768	-697	3674	-142	-32768	-1008	-28408	-210	3473	2290	-14472	7652	13480	4212	-32768	32767	-8136	-8704	-23724	-19198	-32768	9300	-32768	-5724	-32400	-14158	-32768	20408	253	242	2
-15556	-5740	21264	-990	927	631	-32768	-9296	-29384	-770	1820	1073	-32768	-9584	-8464	-662	4009	2526	-27056	14692	15456	11309	-32768	32767	-3424	-12392	-23984	-241	-32768	15993	-23088	-9988	-32768	-5640	-31269	18242	0	168	2
-9708	-9092	28136	212	3833	754	-32768	-664	-9168	-91	980	592	-32768	-18376	3760	1001	4388	2627	-32768	19908	18664	6033	-32768	32767	-6828	-4852	-18512	22792	-32768	24011	-5548	-9508	-28968	499	-16224	19865	80	242	2
-1444	-2352	26776	-466	6648	629	-32768	5672	4136	-743	377	1030	-32768	4728	6496	1967	4015	3295	-32768	19060	22448	1758	-32768	32767	-13716	-4916	-23420	20138	-32768	31437	5556	-13364	-27696	8827	-250	17096	7	223	2
272	-5220	22932	-1069	10163	349	-32768	-472	11680	-232	-227	831	-32768	13008	4632	1636	3865	3314	-32768	15632	16552	3538	-32768	32767	-16980	-6064	-23072	8360	-32768	32767	22240	-4936	-25792	10445	6672	5937	0	70	2
-32768	-2604	13220	-2407	11234	626	-32768	-8568	4144	-1551	-1225	668	-32768	-7288	21976	3323	4691	2886	-32768	12924	-5336	-1178	-32768	32767	-10500	-10852	-31424	-12267	-32768	32544	19516	-13212	-20200	-24356	344	-5800	253	134	2
-32768	-13016	7612	-1787	8317	905	-32768	-28160	20344	-3564	-416	1751	-26520	-32768	32767	-419	2363	536	-32768	-30796	-23076	4921	-32768	32767	-9920	-13956	-32768	-13066	-32768	24509	10012	-7052	104	-32768	-28017	-6959	0	125	2
1700	-32768	-17376	5037	9437	2955	448	-32768	32767	3140	3219	3838	-16720	-21248	32767	2738	437	-1326	-32768	-30896	-32768	21145	-19035	32767	-23580	-12392	-32768	-17070	-31170	10430	-3208	12532	28112	-26268	-27355	-2154	253	175	2
-32768	2252	17960	8431	7169	1207	1808	4016	9896	9731	8262	1121	-6624	-184	32767	1544	-1422	-536	-32768	-32768	-32768	-5279	-15735	-3856	15088	-13000	-32768	-4308	-11899	-3018	864	332	32767	18576	-4942	4906	254	242	2
-32768	32767	32767	-1114	5471	-1222	-32768	32767	17368	4135	8243	386	1400	11384	17176	-1158	-1058	615	-32768	-32768	-32768	1404	-1542	-21677	16812	-14736	-32768	16140	30431	-850	3152	-16404	12924	32767	16846	9123	46	102	2
-32768	-10440	32767	-6093	1976	644	-32768	3616	10088	-7003	4452	643	-30016	15776	18600	-1114	-3121	963	-10056	7612	6628	-1791	17553	-13448	-1368	-10452	-29672	31194	32767	-4517	1332	-30556	-32768	32767	32767	-1449	21	156	2
-32768	-25444	32767	-6029	-214	2529	-32768	1248	8320	-10233	3878	968	-20440	24320	9592	34	-3379	309	32767	32767	32767	27710	32767	-7291	-32768	30048	32767	32767	26879	-12018	-25776	24352	32767	9934	-30460	-1555	253	125	2
-32704	-27352	32767	-5083	-2626	3189	-27912	-15208	-5920	-7464	2492	-255	-32760	1416	-2304	-2241	-4239	-189	-32768	5212	32767	-32768	32767	-32768	-2268	-32768	-32768	-32768	32767	-6340	-16304	23424	-32768	9112	24097	-14093	190	11	2
-25908	-27604	26164	-4321	-4481	2008	-32768	-15288	-7888	-4414	1175	-327	-32768	-25152	-5488	-1899	-3946	-1337	-32768	32767	-17688	-9887	15343	-12146	9756	-30848	-32768	-27286	32767	-4922	-32768	360	-32768	-13885	17175	-2613	253	63	2
-10004	-32768	20040	-2178	-5259	1331	-25088	-7600	-19056	-3020	138	-521	-32768	-18152	-9496	920	-5423	-2117	-9436	18704	12964	4582	15209	4580	4232	-17544	3928	28870	32767	-436	12720	-1148	-25064	24261	13903	3748	0	173	2
-8924	-27776	16600	304	-5880	258	-8712	-9432	-21872	627	-1446	-1291	-32768	-3800	-10584	2206	-5734	-2732	-9240	18120	9616	3575	11162	-1906	-14836	25924	-16880	23064	32767	-4704	-15600	21048	-19224	15787	23613	-16535	253	0	2
-12744	-11540	13616	744	-7473	-2129	-10208	3664	-24392	3720	-3390	-2438	-32768	2448	-25512	806	-5357	-1922	-15804	6696	10204	588	10324	-4087	-29916	-13700	-32768	-7346	32767	-9638	-32768	7824	-27108	1620	23309	-19786	198	0	2
-13068	-3116	13792	-1264	-7993	-3945	-12528	10184	-22392	4246	-5673	-3027	-32768	7512	-29888	-313	-5228	-1551	-15024	7468	12012	1943	8419	-4000	-21976	-4024	-28280	-11790	14512	-11013	-32768	9912	-15728	-5799	32767	-6808	0	122	2
-25848	-7348	18460	-2559	-8230	-4685	-10872	10064	-24344	3652	-7344	-3808	-32768	8624	-31200	-451	-5427	-1712	-16776	14384	24080	-3713	19802	-10253	-32768	-15672	-25804	-7827	10679	-4877	-32768	12280	-1900	-3674	32767	-10655	0	148	2
-32768	-7908	21984	-2787	-9038	-4862	-11896	11312	-19968	1409	-8618	-4328	-6840	13936	-28112	-1373	-2050	-1406	-8272	5044	25712	-5747	32767	-15033	-32768	-23244	-13836	-38	5094	-8139	-32768	-1168	2276	-18443	32767	-12489	0	213	2
-32768	-13760	22648	-2470	-9159	-5540	-16216	8792	-24216	663	-9135	-4830	7064	15776	-24680	-3306	45	-671	-8528	3888	21444	2039	32767	-15058	-32768	-18784	-2252	2176	203	-2567	-32768	-13932	12400	-24503	32767	-15364	222	165	2
-32768	-84	15796	-1601	-8319	-6859	-10760	9200	-27096	1259	-8853	-4913	22024	9840	-21840	-3649	640	-336	-25556	14872	21968	9069	32767	-20949	-32768	-9176	-704	-23	-6535	5244	-32768	-1928	8264	-24340	32767	-20360	79	241	2
-32768	9216	8728	-1597	-6884	-7430	-7896	14760	-32768	2705	-7928	-4183	24240	1792	-18760	2239	827	715	-32768	14332	11116	8074	32767	-19576	-32768	13356	18364	8509	-11643	3013	-32768	30364	26312	5521	32767	-5156	253	241	2
-32768	24668	-7440	-1357	-5589	-5607	-22312	5800	-32768	2936	-6357	-3026	9904	-13832	-5080	2727	-958	-141	-32768	14324	12696	-14671	32767	-24729	-32696	17432	28884	-25294	2372	-17049	-14516	6628	32767	-32768	1704	4775	254	109	2
-32768	18616	-31720	314	-4410	-1364	-18360	13600	-32768	2595	-3333	-420	-6520	-18928	16504	1074	-799	-1501	-32768	30180	-15464	-32768	32767	-15942	5104	1956	5424	-32768	22091	-17849	-5220	-19344	32767	-32768	-14266	-2638	253	14	2
-32768	22936	-32768	2126	-1710	633	4176	23936	-32768	690	-206	265	-5496	-4792	17568	1103	84	-1890	-32768	-32768	32767	-32768	32767	-1092	-17620	-32768	10128	-32768	32767	-20457	5940	-30316	28036	3667	-1069	-14330	253	94	2
-32768	29764	-32768	321	1704	-318	13320	17152	-32768	267	2630	739	-1632	4472	8368	-387	396	-982	-32768	-19956	32767	32767	22314	1360	-32768	-32768	7336	25637	32767	1644	-20516	-27680	7012	32767	-14396	-10108	179	242	2
-32768	18588	-26864	1026	3452	-420	6416	13696	-32768	1199	4347	1548	2672	22160	-5392	-4761	3770	2387	-32768	23212	28952	32767	-1134	-10800	-32768	-5896	4860	32767	32767	-3492	-22056	-22492	10900	26845	-20952	-3439	15	88	2
-25188	26796	-4684	631	3699	89	-32768	-29016	32767	-9415	798	917	-32768	-10520	32767	641	-1715	2307	-31172	32767	22384	32767	-22910	-30246	-32768	4068	1288	32767	32767	1530	-14604	-12948	-5432	22359	-26756	-3401	253	0	2
-32768	-1908	12560	4327	10692	6848	-3808	-32768	-32768	3390	5503	954	-32768	-4616	13760	1799	618	1106	-27180	32767	20100	32767	-32768	-31062	-32768	1200	-6544	32767	29359	4803	-32768	16892	3200	32767	-23434	-3594	147	149	2
-29880	-32768	7904	577	1840	1073	-1896	32767	-32768	2741	11980	1055	1104	32767	-32768	-1602	1292	-57	-15680	32767	14960	17941	-32768	-22488	-28864	3368	-11444	22840	13460	4439	-32768	20816	-3052	20020	-32768	2962	58	0	2
-20400	-5340	12668	-191	928	-637	-8192	23352	1416	-6775	3838	744	19752	11808	-26176	-4035	1485	1130	-3820	32767	13620	-6577	-32768	-8839	-15560	4616	-19752	262	-2741	5604	-32768	13160	-11752	-6602	-32768	13870	0	0	2
-8816	-6184	7736	729	678	393	32767	-29616	-31472	-3097	4674	1051	14936	4392	-31640	-4798	1915	1361	-6856	17824	12868	-9910	-32768	13513	-11748	2128	-23040	-16505	-25624	10211	-32768	-6080	-22436	-10129	-32768	15458	253	144	2
-13024	-5860	14428	617	820	474	-32104	776	-27648	720	3478	-70	-32768	-19600	-25968	24	3210	1623	-7800	8364	12748	5111	-32768	32767	-7264	-7656	-22312	-16057	-32768	16727	-32768	-4336	-29660	-5747	-32768	17878	0	216	2
-14884	-10872	17492	30	1111	868	-28000	1872	-20752	833	2233	1485	-32768	5944	-13136	27	3268	2072	-18564	11188	13648	17851	-32768	32767	-3628	-7036	-21164	-5695	-32768	24078	-32768	-8676	-32768	831	-32768	17325	250	136	2
-12544	-1480	26192	50	2920	1075	-32768	4472	-10896	-824	1665	568	-32768	-22216	680	-56	4097	2622	-29632	15416	16684	18239	-32768	32767	-4348	-7884	-19784	2568	-32768	32054	-17016	-7920	-32768	6694	-27582	17731	185	173	2
-3612	-476	25452	-93	5323	1039	-32768	4760	-3680	-1240	903	1077	-32768	-1704	4784	1624	3797	3262	-32768	13432	19912	14641	-32768	32767	-9676	-7456	-14472	15042	-32768	32767	-984	-6744	-29564	10002	-10100	18917	253	220	2
-52	-5568	22924	-831	8061	311	-32768	-4592	6464	-655	297	1080	-32768	3528	5512	1497	3706	3327	-32768	11396	23144	12868	-32768	32767	-12676	-10640	-23220	11562	-32768	32767	14116	-12800	-28092	16999	-3042	13819	0	195	2
-13256	-6592	16156	-1244	10825	1106	-32768	-5968	3576	338	-547	580	-30656	-776	-1736	1318	4116	3581	-32768	5532	11752	7253	-32768	32767	-7880	-14944	-23652	308	-32768	32767	32767	-6568	-30808	6102	2760	2836	253	132	2
-32768	-5036	2708	-2021	10557	802	-32768	-16784	9296	-2945	-1363	929	-29888	-23672	20264	1571	4238	2468	-32768	-7896	-4660	-4480	-32768	32767	-1732	-18984	-32768	-6839	-32768	29507	17964	-3932	-14704	-32768	-13227	-5006	0	140	2
-32768	-21032	14260	371	7296	2420	-30000	-32768	18392	-1624	-204	2727	-21216	-32768	32767	1751	2203	-532	-32768	-32768	-28648	5941	-32768	32767	-17940	-6504	-32768	-4756	-32768	20028	8620	12280	-1656	-27272	-22691	-3752	183	45	2
-32768	-32768	-21848	9589	8451	2382	14576	-27568	20448	7669	4004	2934	-13936	-1936	32767	5992	217	-1657	-32768	-25528	-32768	457	-27604	9154	-20236	-11956	-32768	-22657	-26911	887	-9448	4724	32767	-4535	-17992	5628	253	242	2
-32768	32767	32767	8092	4797	-380	-4632	18448	3928	11386	7461	400	4200	3392	32767	1635	-627	472	-32768	-32768	-32768	-4347	-11706	-13157	20672	-20000	-32768	-3115	2216	-5405	384	232	24108	4701	3400	9718	0	124	2
-32768	32767	32767	-4491	3275	-1193	-32768	32767	18328	2386	6522	-288	-6904	20920	19944	-1242	-1802	821	-32768	-23824	-32768	6032	15275	-6495	9992	-14932	-32768	13464	32767	182	284	-26968	15568	32767	25232	-3924	0	29	2
-32768	-7892	32767	-7013	116	1259	-32768	32767	14344	260	5968	-461	-27336	17280	21176	-2522	-3426	1302	-32768	32767	20576	-12283	32501	-12104	-8376	-4596	2880	32767	32767	-5919	-3052	-24364	-32768	32767	32767	-10041	253	0	2
-32768	-22132	28984	-6079	-2227	2139	-32768	-3032	3496	-10765	2547	360	-15712	17000	8208	-2398	-3120	465	32767	32767	32380	32042	32767	-22149	-32768	32767	32767	32767	24033	1683	-32768	32767	32767	12735	-31590	4775	208	198	2
-31856	-29240	23724	-3970	-3942	2853	-27616	-16976	-6008	-8003	1482	90	-28728	-5536	-7072	-3061	-3529	-437	-32768	25520	-3056	-32768	27930	-32768	-4912	-26212	-32768	-32768	32767	736	-29224	16828	-32768	-11506	14165	-2886	56	0	2
-18944	-24580	22228	-2815	-4410	2639	-32768	-12064	-8152	-4727	982	-393	-32768	-19848	-7240	-1644	-3773	-2121	-32768	32767	596	-778	24236	3957	-12400	-21836	-32768	-872	32767	-23836	-1000	-24780	-32768	-5929	30572	-947	0	0	2
-14956	-27668	17656	-1773	-4436	1877	-23792	-9408	-20728	-2092	-41	-661	-32768	-22640	-13264	1870	-5042	-2431	-10696	22712	7164	2063	12917	3975	5688	-3868	6932	25263	32767	15	7492	-22080	-23628	28171	10700	5098	77	242	2
-14012	-25204	15756	-318	-5298	-267	-11456	-4800	-21936	1217	-1189	-1036	-32768	-8320	-13456	4164	-5428	-2717	-13628	4828	7792	2204	10855	-5111	-7616	16168	-32768	11911	32767	-679	-18136	14652	-28184	18733	27600	-19746	253	74	2
-10812	-14396	13080	500	-6378	-2597	-15280	-1768	-23272	3853	-3010	-2434	-32768	17152	-31344	2141	-4524	-1263	-17356	7816	11504	2470	8473	-4329	-32768	-4780	-32768	-7423	31882	-9151	-32768	19548	-30464	13829	24628	-21027	230	111	2
-17396	-3840	12848	-906	-6796	-4210	-15968	4624	-25048	5436	-4945	-2854	-32768	3920	-31360	-439	-5777	-2402	-17488	8396	12772	3139	7074	-6050	-29212	9620	-26604	-10736	12828	-13114	-32768	17216	-17964	-11466	32581	-14745	0	0	2
-25744	-7668	16648	-2091	-7499	-4812	-14200	7552	-25632	4540	-6865	-2744	-23480	8720	-28176	-1241	-3873	-2186	-19352	11688	20808	-2241	18800	-10942	-32768	-16680	-20020	-366	5542	-6317	-32768	12396	-2692	-16399	31695	-13805	0	48	2
-32768	-8788	18532	-2470	-8193	-4948	-11536	10488	-22368	1766	-8206	-3163	-6736	10688	-24992	-1490	-1377	-1659	-6584	5648	27208	-5307	32767	-14337	-32768	-23816	-6468	3464	2431	-8088	-32768	6268	-532	-18153	31499	-13421	0	246	2
-32768	-14864	18296	-2170	-8511	-5732	-13120	8176	-26728	491	-8848	-3832	4960	13640	-21552	-2578	689	-988	-10892	960	22024	3839	32767	-13572	-32768	-18780	2176	1507	-262	-510	-32768	-18104	12684	-32768	32767	-23402	141	205	2
-32768	-5492	10148	-1072	-7776	-7265	-10824	7336	-26744	451	-8635	-4238	17552	11440	-20448	-2603	1102	-264	-31952	11060	26756	13907	32767	-14548	-32768	-4652	8616	6497	-7544	5737	-32768	5652	18408	-12858	32767	-14878	253	235	2
-32768	13528	164	-1165	-5858	-7831	-8120	8328	-32768	2450	-7422	-4039	17704	3272	-13384	3117	546	934	-32768	8924	16140	5218	32767	-25592	-32768	21916	17296	-7712	-2720	-5602	-27464	13664	32767	9904	21384	-2289	253	178	2
-32768	29016	-16892	-2298	-4425	-5727	-18784	3024	-32768	4319	-5386	-2735	5256	-10696	-4976	3463	-966	-188	-28504	24992	8312	-19183	32767	-26062	-18456	17620	32767	-32768	14447	-23711	-10584	-3924	32767	-32768	-10543	10114	254	66	2
-32768	21260	-32768	240	-3388	-887	-13056	18984	-32768	3611	-2101	-257	-4776	-15152	20784	1828	-1499	-1180	-32768	2408	12452	-32768	32767	-18215	-2896	-13648	-3324	-32768	32767	-13463	5008	-14952	32767	1039	-2484	-10821	253	73	2
-32768	30420	-32768	1334	-1273	1067	6704	27048	-32768	-1270	359	429	-728	-3296	17336	686	-54	-1391	-32768	-19688	32767	-10511	32767	2364	-32768	-32768	3992	-16379	32767	-9684	-8152	-19184	7044	19551	-6430	-9498	164	135	2
-32768	25936	-32768	689	1797	577	11488	13632	-32768	-1418	2869	738	-48	7176	5688	-2970	976	-710	-32768	-5980	32767	32767	18206	-5458	-32768	-11648	8736	32767	32767	-3803	-23676	-11832	7632	22568	-17209	-6036	142	123	2
-11540	27360	5356	616	3094	1002	2048	9248	-17408	-577	3957	1648	4456	24000	-7256	-4603	3744	2133	-32768	28824	32540	32767	-3414	-27359	-32768	-8	7720	32767	32767	-5219	-13632	-21768	6896	5053	-27109	-411	96	55	2
14620	-32768	32767	-1766	7238	3977	-32768	-32768	32767	-7488	2222	-176	-32768	-14760	32767	-1113	-2795	1501	-30144	30872	24480	32767	-21265	-32768	-30248	-764	-2260	32767	32767	657	-18844	-7740	1560	13239	-24679	-5442	228	17	2
-32768	-32768	-16364	5633	7355	4617	-12904	-25696	-32768	6860	7252	372	-32768	-11768	-32768	-417	1224	454	-21424	32767	23012	32767	-32142	-27769	-32768	-2444	-7092	28846	23692	2577	-32768	15240	4080	26504	-21357	-2943	0	241	2
-32768	-32768	-30940	1714	2219	2147	-18128	29856	-32768	-4943	6983	2301	13096	32767	-32768	-3753	2766	-42	-6464	32767	17616	5185	-32527	-18131	-22924	4216	-7480	15792	8788	2684	-32768	16788	-6940	17963	-32768	3706	247	0	2
-11488	-13388	15956	195	1493	420	6376	16848	-21064	-6697	2785	1019	2112	-3832	-32768	-5922	2025	1699	-2980	24784	15644	-12397	-32768	-1556	-11204	-20	-19820	-3316	-8771	7817	-32768	1852	-8708	-6607	-32768	13529	223	75	2
-13928	-6496	10264	545	598	820	16304	-31608	-31232	-1130	3012	773	-32768	-11032	-23512	-2277	3678	2688	-6740	8548	13620	-1610	-32768	23449	-8816	-2756	-21120	-14161	-30715	11280	-32768	-2912	-20320	-10023	-32768	14544	254	88	2
-16300	-3824	11768	350	661	722	-32768	-31704	-32768	1034	3525	531	-32768	-8056	-25200	697	3477	2626	-12224	9596	11008	13484	-32768	32767	-5264	-7348	-22096	-12585	-32768	17016	-32768	-4608	-27216	-8313	-32768	14294	253	159	2
-17372	-1660	16748	-32	1133	1220	-32680	-6536	-31648	873	2021	1780	-30440	-12704	-13720	586	3888	2319	-24240	9188	13872	20636	-32768	32767	-3320	-7948	-20352	-2576	-32768	27147	-31400	-9492	-31276	-718	-32768	13137	1	161	2
-12996	-5296	26024	154	2786	1248	-32768	-2216	-16088	500	1282	1000	-32768	-13912	-1928	1844	4512	2791	-30700	7112	16968	26693	-32768	32767	-5284	-11268	-18700	14477	-32768	32767	-12920	-9120	-28988	7661	-22317	15107	0	200	2
-2376	-2976	29468	-114	5381	1549	-32768	2392	-1208	-633	303	1139	-32768	2984	3736	2315	4304	3284	-32768	12368	18256	28927	-32768	32767	-9900	-7872	-16952	28794	-32768	32767	656	-8096	-27944	10097	-6532	15728	143	202	2
2808	-8416	25908	-781	9079	1392	-32768	-2416	13792	-59	-292	1119	-32768	9480	8192	2011	4033	3226	-32768	20768	20108	16017	-32768	32767	-13348	-9312	-23808	13890	-32768	32767	14528	-8540	-23264	20921	2234	10583	0	217	2
-28504	-1424	14776	-1534	11460	2221	-32768	-1776	6832	-404	-1184	619	-32768	6976	15440	3771	4562	3301	-32768	5252	14360	5519	-32768	32767	-14884	-14508	-20576	-2999	-32768	32767	27028	2564	-22524	12583	6791	261	245	137	2
-32768	-12892	668	-2437	9631	1037	-31480	-23504	21960	-4331	-1146	1215	-27720	-31360	32767	1356	2852	1266	-32768	-15052	-4804	1010	-32768	32767	-13336	-12344	-32768	-20764	-32768	32132	6648	2160	-10876	-24528	-11969	-313	58	159	2
-28656	-32768	-16996	3678	8198	3662	-3016	-32768	32767	252	1609	3088	-14488	-32768	32767	-232	812	-994	-32768	-32768	-27568	12516	-22666	32767	-14404	-8092	-32768	-32768	-32768	13312	2532	13416	3968	-32768	-23098	3488	218	28	2
-32768	-3660	-1372	10643	6568	2396	12816	-23568	5856	8318	6736	2097	-13072	-7880	32767	2708	-401	-1134	-32768	-30660	-32768	-1808	-21000	2220	-8132	-29136	-32768	-32768	-28393	-4382	-4728	4280	32767	-16469	-22999	5396	253	243	2
-32768	32767	32767	1391	5394	442	-27168	21432	16528	8255	8178	947	7384	-3376	28120	567	-845	795	-32768	-32768	-32768	1554	-2869	-10361	29140	-22540	-32768	22073	11842	744	7556	-12724	24632	22985	1869	3974	60	242	2
-32768	1972	32767	-6554	2814	2371	-32768	29992	6528	-2838	5761	1134	-23032	19752	18080	129	-3004	796	-32768	-22412	-32768	7353	17122	-2827	7316	-9148	-32768	31449	32767	1594	3604	-32768	-25112	32767	32767	-7244	9	92	2
-32768	-22444	32767	-5531	-17	4076	-32768	5616	6712	-10130	3999	941	-26288	20792	19776	298	-3301	834	-32768	1900	-13184	12348	32767	-11621	-8212	-3920	6112	32767	32767	-9525	-6092	-2076	7888	26043	8154	-10528	254	195	2
-32768	-32768	32767	-3351	-2186	4617	-30016	-7368	-576	-8602	2698	48	-19120	19280	-1824	-487	-3473	-99	-32768	-15812	-23468	-25410	32767	-32768	-6244	8708	-32768	-32768	32767	10023	-32768	32767	16604	32767	27272	-10173	26	1	2
-26012	-23440	30720	-2268	-3103	2832	-32768	-15688	-2064	-5572	1141	288	-32768	-15384	-4376	-3091	-4018	-1089	168	-10704	32767	-7039	6074	-8298	-1364	-32768	-32768	-32768	32767	-32768	-23656	-24832	-32768	-27772	13444	172	0	21	2
-17952	-28300	24620	-1526	-3149	1043	-32768	-8760	-11824	-4127	404	-84	-32768	-29488	-8048	-1260	-5112	-1575	-23060	-10580	17740	-5678	11319	1723	16704	-32768	-32768	13963	28163	-8548	9036	-16316	-23316	12192	22807	7147	177	213	2
-13496	-23752	22184	-179	-4054	-861	-8576	-11560	-25528	-178	-813	-373	-32768	-16144	-12464	2423	-5558	-2832	-12116	21076	7820	1954	13600	2955	-7992	25528	-20684	32767	32767	2825	-14936	6516	-20816	19107	20291	-19279	18	0	2
-18580	-17784	15936	312	-6147	-3015	-9232	-5240	-27544	4059	-2614	-1424	-32768	-3296	-24064	2839	-5017	-2549	-14336	8336	11856	2818	8419	-3141	-32768	-6464	-26640	10710	32767	-6020	-32768	19460	-25296	19733	25346	-25149	197	99	2
-17056	-5208	13488	-635	-7741	-4255	-10464	2040	-25584	6051	-5201	-1777	-32768	6552	-32768	-116	-4018	92	-14076	7512	13420	1256	9453	-5689	-22312	-5612	-26892	-12239	15334	-9719	-32768	12468	-18032	-6151	26903	-7920	0	78	2
-25484	-2152	13068	-2557	-8415	-5347	-11680	5200	-26608	6216	-6702	-2662	-32768	7728	-32536	-916	-5593	-2304	-17428	11808	21244	-1178	17953	-8015	-32768	-12532	-27672	-6895	11610	-6417	-32768	14580	-1116	-3827	27941	-16397	0	0	2
-32768	-9444	16620	-3323	-8744	-6003	-10872	9024	-23400	3339	-8433	-2404	-12992	11528	-30232	-1022	-2786	-1880	-8652	7856	25032	-4067	32767	-14293	-32768	-17964	-10800	-749	3802	-8626	-32768	536	3420	-18754	30398	-13436	1	245	2
-32768	-17792	19512	-2573	-8995	-6184	-11208	4544	-26552	398	-9494	-2948	3272	13600	-27960	-1456	-224	-1223	-7052	3724	22664	3984	32767	-12569	-32768	-20248	-6992	-1004	4524	-8408	-32768	-7288	10284	-23820	28908	-19439	215	183	2
-32768	-17652	15148	-806	-8929	-6965	-11304	5128	-31768	525	-9558	-3734	19736	15680	-26008	-2541	1522	-277	-26096	11852	19320	13563	32767	-15070	-32768	-8708	-572	6214	-4937	3588	-31352	-388	9984	-18972	32767	-21163	156	204	2
-32768	-2764	5540	-326	-7943	-7330	-8456	6432	-30928	1786	-8953	-3785	23176	11640	-20832	2315	1327	717	-32768	16316	20356	13615	32767	-21112	-32768	-5800	812	7569	-5841	4243	-32768	24488	23884	-1727	32767	-8039	165	232	2
-32768	25756	-5208	-1866	-6776	-5987	-12400	504	-32768	3101	-7439	-3653	12040	1784	-9776	4593	-1150	640	-32768	18700	6712	-5019	32767	-24192	-32768	27316	25120	-16960	5566	-17608	-14392	11036	32767	-29238	5183	5519	253	114	2
-32768	16812	-20344	-2041	-5792	-2401	-32768	576	-32768	3356	-4695	-1742	-3448	-10672	15776	2690	-1607	-298	-32768	21068	-13884	-32768	32767	-32768	1400	5064	12724	-32768	22065	-20581	-4880	-10140	32767	-27579	-10732	-4224	227	31	2
-32768	20836	-32768	1004	-3265	193	-1560	24824	-32768	950	-1604	-250	-6208	-13600	32767	502	-756	-1952	-32768	-16356	29944	-25230	29912	-10702	-21160	-32768	2896	-32768	32767	-14902	5876	-28060	29452	5175	-199	-11337	0	106	2
-32768	32767	-32768	-121	658	506	11896	15640	-32768	-2832	1561	-365	-7464	-4120	8712	160	1317	-1706	-32768	-8016	32448	32767	24058	-37	-32768	-28576	3248	32767	32767	-14	-17716	-17756	6284	25895	-13505	-11552	253	206	2
-32768	20484	-29816	687	2488	948	7288	2600	-32768	-413	4057	841	-7768	15208	18168	-5375	794	-561	-32768	31476	30588	32767	6737	-14975	-32768	2932	10136	32767	32767	-8300	-20776	-16812	5304	22529	-21752	-2398	0	83	2
-25452	22616	-6140	1606	3363	1776	-5496	19592	-20568	870	4443	1462	9568	29760	-32768	-3602	4507	2385	-24776	32288	26944	32767	-10694	-32768	-29820	7000	10044	32767	32767	-3762	-7944	-16680	5180	10653	-24563	-1646	152	0	2
32767	-32768	32767	-1194	8680	3736	-9312	14320	19320	-2223	3420	1588	-32768	-32768	32767	-1967	-2674	709	-27496	29164	24328	32767	-22435	-32768	-28632	716	-3220	26597	32767	-418	-26960	13328	132	23786	-23877	-1319	207	243	2
-32768	2964	20524	2427	3755	8447	5824	-32768	-32768	7208	5977	752	-32768	-32768	-32768	227	1715	-1059	-15300	32767	24432	19472	-26670	-24279	-32768	2888	-11016	11672	18196	-1199	-32768	26692	-124	29990	-24162	1268	253	64	2
-6740	-32768	2292	484	1595	1268	-32768	22504	-32768	-1034	4791	1623	6520	32767	-32768	-953	1959	283	-5584	32767	18536	-4411	-31983	-14492	-20796	6524	-12344	1470	1825	1588	-32768	23696	-9608	2600	-32768	13091	253	0	2
-10004	-16608	14660	78	1476	89	13624	30608	-6384	-4401	3507	975	17984	21728	-31984	-5609	1222	1619	-9088	21384	16492	-11693	-32768	4796	-15460	6964	-23896	-17580	-20773	8249	-32768	13920	-15880	-20169	-32768	21538	59	207	2
-12440	-4168	10632	700	578	584	16752	-11672	-32768	-1298	3843	4	-23544	-24480	-32768	-2625	3367	3158	-9592	11980	9172	1918	-32768	31232	-8832	-5772	-25052	-25055	-32768	9724	-32768	-5772	-24768	-22401	-32768	20294	253	0	2
-15516	-5620	11580	495	568	399	-32768	-32768	-32768	-609	3726	-97	-32768	-13496	-32160	346	3526	1524	-14780	10456	9876	16781	-32768	32767	-6152	-7500	-26108	-15727	-32768	15271	-32768	-4284	-29860	-15108	-32768	14192	253	244	2
-16620	-2316	17124	60	822	683	-32768	-9200	-30968	348	1467	1571	-32768	-4976	-12440	384	4010	1664	-31280	13828	12420	21751	-32768	32767	-3240	-17556	-26672	5962	-32768	24426	-24388	-11620	-32768	-1296	-29362	15292	67	170	2
-13440	-7300	28656	257	2516	775	-32768	4152	-9760	628	880	161	-32768	-7200	3272	721	4414	2424	-32768	16820	13612	17862	-32768	32767	-4468	-2816	-18104	30096	-32768	32767	-5428	-10016	-30384	5715	-14874	20947	1	237	2
-2324	300	31536	-131	5556	705	-32768	8544	5032	-815	193	488	-32768	4672	10792	1422	4078	3097	-32768	19600	15460	11259	-32768	32767	-5860	-2336	-16200	31619	-32768	32767	6632	-12528	-27908	7390	-2888	18151	49	244	2
4664	-3440	27984	-934	8987	28	-32768	2944	16792	-461	-19	622	-32768	11520	12808	2115	3645	3113	-32768	9512	13780	3941	-32768	32767	-12716	-8532	-23104	1622	-32768	32767	25408	-6668	-26844	20786	6098	6838	0	134	2
-25636	-4148	16904	-1803	12020	275	-32768	-7288	14336	-1939	-1019	634	-32768	-8296	27464	3060	4143	2560	-32768	1748	1884	1816	-32768	32767	-9776	-16168	-32412	-20126	-32768	32767	20716	-5540	-15464	-4869	2453	-3473	254	113	2
-32768	-5876	8080	-1492	8942	222	-27112	-27128	18088	-4517	-689	1308	-21632	-32768	32767	-1029	2847	797	-32768	-24220	-17612	2331	-32768	32767	-11780	-11948	-32768	-27254	-32768	24076	10720	-2092	-4024	-32768	-17653	-761	0	93	2
-14028	-32768	-11748	3822	8962	2515	-1016	-32768	32767	1112	2777	3370	-18872	-19424	32767	457	782	-1649	-32768	-32768	-32768	11337	-18180	32767	-17100	-15012	-32768	-32768	-32768	8017	-156	9432	9908	-29255	-18854	2855	254	164	2
-32768	5264	12032	7795	7209	1478	480	-32768	32767	2544	3350	3294	-4944	-9688	31136	957	-1172	-129	-32768	-32748	-32768	-846	-18597	-612	5988	-24964	-32768	-1916	-18607	-2258	-3848	4332	32767	-8955	-9942	8401	253	244	2
-32768	32767	32767	73	4970	-252	-27064	31864	17632	6180	7518	1106	3736	5208	25232	-631	-1222	766	-32768	-32768	-32768	4363	-8939	-20711	16120	-11300	-32768	26674	22092	2777	1740	-10488	17680	26493	7770	5125	63	244	2
-32768	1596	32767	-5343	1752	1688	-32768	21072	10992	-4605	4846	1092	-18400	16560	15872	-909	-2671	836	-32768	-15772	-32060	9761	10454	-16722	1468	-13296	-32768	26569	32767	-2944	-148	-32768	-13280	32767	32767	-5854	3	150	2
-32768	-14912	32767	-5785	-354	2872	-32768	4760	5272	-9747	3601	1047	-18896	23504	12520	-729	-3272	835	-32768	5760	12964	2109	18622	-32768	-12548	-6100	32767	32767	27569	-9823	-4244	-8968	-32768	32767	28234	-12822	253	0	2
-26488	-29644	27748	-4854	-2368	3839	-24584	-10184	3352	-9557	2562	135	-17744	24072	9760	-810	-3100	694	26592	32767	19492	22147	32767	-32768	-32768	32767	19356	-7279	32767	19704	-32768	32767	32767	15696	-18772	7087	0	1	2
-28072	-24452	26236	-3685	-3458	3249	-28336	-19176	-5608	-5367	1398	307	-32768	-18744	448	-2496	-4112	-233	-32768	-32768	27448	-24764	18455	-32768	-28484	-32768	-32768	-32768	32767	-22466	-32768	-7364	-32768	-24700	13244	3354	40	0	2
-18352	-28276	22876	-3048	-3666	1982	-32768	-10432	-12600	-2871	891	-443	-32768	-27968	-8512	-191	-3624	-1500	1560	-31980	23504	-13085	-4226	-28578	2244	1236	-13352	-1016	32767	-10416	-8564	-25588	-31064	-7843	18390	5307	253	245	2
-14672	-32088	21144	-789	-4240	770	-17264	-13112	-26448	-412	-765	-304	-32768	-21032	-13304	2926	-5335	-2394	-15208	-4156	9560	-2339	8367	-7689	-1440	14876	-26252	29471	32767	5585	12116	-10536	-23160	32767	11006	-4049	0	13	2
-16848	-24328	14492	990	-5634	-1424	-13840	-6352	-24216	3426	-2189	-783	-32768	-3736	-5344	3419	-6183	-2632	-19336	296	7648	1031	8357	-4411	-5720	15128	-21256	32767	32767	3199	-31188	27076	-28796	30463	30902	-22658	253	111	2
-14424	-6968	13548	576	-6896	-2951	-13296	2104	-27600	5914	-4620	-1057	-32768	752	-25600	1294	-4615	-534	-18712	2660	9680	667	8105	-5817	-25780	-7736	-32736	-588	23396	-10122	-32768	27088	-32768	1552	23038	-17700	0	161	2
-21052	-5576	14432	-1544	-7496	-4087	-13848	8896	-27128	4723	-6384	-1975	-32768	3568	-31136	-396	-5756	-2005	-17508	9736	12764	421	6256	-6341	-24156	2596	-27428	-16312	14093	-14597	-32768	6352	-13168	-11289	29385	-16516	0	0	2
-31280	-9816	17188	-2433	-8384	-4462	-10040	10272	-24392	1866	-8122	-2343	-19608	12528	-29600	-651	-3218	-1720	-18024	12648	25596	-4702	20007	-13508	-32768	-18776	-21616	-1836	-108	-5438	-32768	7064	948	-8220	28763	-13646	0	241	2
-32768	-13928	18368	-2616	-8822	-4934	-10944	6688	-23912	-289	-8993	-3362	-1856	12656	-24776	-1279	-902	-990	-3936	6592	28704	-2991	32767	-19650	-32768	-23480	-4136	8757	3882	-6477	-32768	-6020	12052	-17318	32767	-12972	216	241	2
-32768	-15440	14780	-1070	-8410	-6895	-11496	5248	-26480	360	-9089	-3934	15504	12440	-23000	-3097	1114	-457	-16444	4028	21824	10193	32767	-17365	-32768	-12708	3444	10781	-1601	3809	-32768	-9964	14408	-25564	32767	-25889	154	208	2
-32768	-3416	6888	344	-7164	-8345	-7632	5240	-29080	2740	-8455	-3705	22064	8304	-20360	-124	1780	429	-31644	15640	20476	19655	32767	-23709	-32768	5788	14324	14910	-9939	9488	-32768	7728	27512	-8372	32767	-14659	193	236	2
-32768	12232	-4184	488	-5872	-7541	-5664	-192	-32768	5286	-6971	-3331	11760	5960	-9536	4143	90	1163	-32768	-5120	12052	17324	32767	-25257	-32768	21696	11780	-7717	514	-4742	-21844	14816	32767	3512	12211	-3727	253	191	2
-32768	24768	-22872	-1360	-5505	-4715	-21984	1200	-32768	6916	-4770	-1814	9368	5368	-6800	4237	-251	1095	-11900	32767	-11676	-10983	32767	-32768	-7852	21644	32767	-31010	12610	-19071	-7276	8096	32767	-21755	-6619	8889	253	58	2
-32768	14752	-32768	-112	-4150	-417	-23552	1640	-32768	6673	-4269	-1318	-6136	-10704	23536	2971	-1377	-852	-32768	6988	10632	-32768	32767	-21522	-6776	-2048	-1916	-32768	32767	-14025	8248	-7944	32767	3442	-7375	-6338	254	97	2
-32768	22344	-32768	881	-1416	1487	9712	19320	-32768	-3596	-165	-271	-976	-2384	21440	392	358	-1433	-32768	-16860	32680	-20877	32047	-5280	-32768	-32768	6760	-22683	32767	-12229	-5272	-14964	-1552	17523	-6850	-7913	242	115	2
-32768	19444	-32768	-374	1274	1267	6224	-624	-32768	-4006	2592	73	-7160	7504	7624	-3115	648	-856	-32768	-2284	32767	32767	18096	-162	-31280	-12880	10624	32767	32767	-6164	-23952	-10736	2960	11558	-18442	-3161	0	157	2
-32768	10140	-18060	318	2639	1485	144	3936	-27016	-1327	3988	1099	424	18944	5192	-6106	2484	1259	-24644	28036	32767	32767	2761	-16236	-27572	740	12752	32767	32767	-2730	-8368	-21324	7716	-963	-26144	858	193	108	2
32767	-9172	-10684	-1353	4731	3572	-16696	-2840	26856	-3969	2667	1194	-6584	14728	-18704	-4656	2586	2923	-23808	26448	27188	32767	-13823	-21006	-22384	3724	7060	32767	32767	1406	-10016	-6008	4368	10558	-24097	-2564	253	0	2
-32768	-32768	-32768	1223	11680	3482	-20760	-19688	-32768	-589	5437	-1022	-32768	-32768	7160	848	1393	-2344	-26064	26856	26688	32767	-15954	-19614	-32768	11960	-9808	17345	20712	2706	-32768	29616	5616	32767	-19462	4021	253	125	2
32767	32767	-8628	1035	2295	4653	-3520	19120	-32768	4340	9200	-725	-32768	6176	-32768	2185	1308	-756	-9268	32767	21424	-4499	-29878	-7626	-27740	5780	-8336	-13	3369	-1473	-32768	18196	-4552	22882	-27219	6048	144	64	2
-24732	32767	20948	295	1584	1616	-32768	4832	-30472	-161	3909	196	3032	20120	-18616	-1646	3141	227	-12488	30096	17856	-25163	-32768	-1048	-17980	9752	-20552	-18579	-11535	2872	-32768	14728	-12996	-10024	-32768	21589	28	13	2
-16640	-200	6536	396	1283	229	21712	-14096	-25480	-4482	2578	920	912	-160	-27208	-3606	3322	1619	-20192	11932	14440	-16077	-32768	17197	-17884	-1772	-22892	-29388	-32768	1645	-32768	2012	-15520	-19981	-32768	23205	253	0	2
-15776	732	9244	683	983	574	30168	-18768	-19144	-3835	3079	771	-32768	-19072	-31528	-1388	3238	2127	-16304	10524	11508	4530	-32768	32767	-2016	-3136	-432	-32768	-32768	32501	-32768	-3212	-24432	-18262	-32768	20156	253	245	2
-17276	-196	11372	383	679	844	-32768	-9400	-32768	-401	2597	-996	-32768	8344	-20608	-13	5843	1567	-27120	11964	11352	14761	-32768	32767	-3232	-13880	-28864	-4741	-32768	14753	-32768	-10480	-30208	-16026	-32768	17800	202	154	2
-15028	-1956	26036	143	1432	863	-32768	-11408	-16536	-862	1135	542	-32768	-13248	-2912	-1230	4697	2897	-32768	14528	14456	14324	-32768	32767	-6744	-9236	-23960	25795	-32768	24963	-14756	-12044	-28692	-1989	-22641	16064	0	245	2
-9872	-4512	28680	-98	3944	1038	-32768	4120	-6880	-365	496	457	-32768	-13592	9560	1997	4359	2052	-32768	13584	17816	13060	-32768	32767	-11664	-5148	-18528	32002	-32768	32767	-1696	-14440	-27820	10279	-5658	14792	172	152	2
28	-2048	27984	-476	6829	812	-32768	872	8072	-658	234	639	-32768	4264	6176	2995	4287	2703	-32768	7768	16268	15521	-32768	32767	-12672	-11100	-23592	21347	-32768	32767	10968	-11784	-27040	22250	3202	9796	0	68	2
-68	-9172	25100	-1130	10812	890	-32768	-7248	11304	362	-414	345	-32768	10800	12992	2459	4212	3411	-32768	7028	2528	11778	-32768	32767	-7488	-14180	-29000	5119	-32768	32767	27844	-7072	-17616	10277	1327	-1525	92	114	2
-32768	-860	7040	-2234	11485	910	-32768	-12728	19072	-2169	-1673	688	-32768	8512	18648	2528	4245	3382	-32768	-19636	-12688	4305	-32768	32767	-3820	-10612	-32768	-9081	-32768	32201	13292	-4876	-9596	-32444	-15795	-5587	1	237	2
-32768	-8968	9084	-1381	7826	1855	-16584	-29496	27040	-2972	561	2046	-18048	-26968	32767	628	1082	-939	-32768	-32768	-32768	17863	-28424	32767	-20564	-15128	-32768	-24674	-32768	15448	1696	17240	7600	-20094	-22165	2121	193	162	2
5576	-32768	408	5905	8772	2244	16704	-21280	32767	2947	3678	2042	-7456	-6064	30848	1826	646	-420	-32768	-32768	-32768	1590	-21806	-83	-2940	-25980	-32768	-15016	-21376	-3174	-5272	6480	32767	934	-17530	6653	37	214	2
-32768	32767	32767	6392	6652	-1015	-4544	-2168	15984	5937	5909	1125	-2048	-18928	27520	-2800	-1495	288	-32768	-32768	-32768	459	-8597	-20696	25660	-17728	-32768	18113	16823	759	4052	-2720	17864	27794	5059	8498	24	233	2
-32768	25728	32767	-194	3042	622	-32768	24248	14504	2699	5792	1581	-8616	5544	24576	261	-2736	623	-32768	-23344	-32768	8418	8708	-19455	2076	-13060	-32768	27054	32767	-3999	1784	-27716	-6064	32767	32767	-5826	161	29	2
-32768	4	32767	-3234	147	2273	-32768	12568	13448	-3387	3365	1528	-18968	15896	19512	783	-3447	1190	-32768	-16160	3860	-12938	11709	-31022	-15592	-4832	4844	32767	30106	-6019	-14968	-8724	-17544	26863	20875	-10645	135	66	2
-32768	-11276	32520	-4380	-1772	2057	-30080	6168	3296	-7007	2752	1127	-18776	25832	6880	-118	-2943	607	-32768	-32768	-23520	-26635	32767	-32768	-13820	6868	-32768	-32768	32767	1613	-32768	32767	13340	19947	16079	-491	231	6	2
-32768	-26312	24184	-4304	-4271	2514	-29592	-11488	-5104	-7566	1255	339	-32768	-8	-1400	-2295	-2945	-279	26680	-16796	32767	-5289	23630	-32768	-13792	-32768	-23228	-10664	32767	-32768	-28888	-28200	-32768	-31329	15788	-6513	38	96	2
-25304	-27780	19480	-3130	-5772	2535	-32768	-18824	-8168	-5469	310	-148	-32768	-22448	-4784	-807	-4431	-1312	-31004	-19136	12760	-6499	17749	-3229	9516	-32768	-32768	-23247	22028	-16366	2760	-29940	-32768	4203	15752	254	253	246	2
-23924	-31472	16760	-1603	-5985	1892	-23296	-15656	-25376	-1531	-393	21	-32768	-22568	-9208	2688	-5181	-1933	-11332	13760	5380	-2046	16558	6834	-1444	20956	-32768	19657	32767	-3453	-12848	984	-25424	30403	23658	-13349	8	87	2
-16048	-32660	13520	845	-6372	248	-21088	-13944	-25624	2323	-1593	-448	-32768	-21320	-12928	3944	-5495	-2786	-15876	5560	9908	690	7258	-1668	-32492	-14964	-32768	14311	32767	-9885	-32768	32767	-29244	26853	30600	-14643	146	0	2
-16128	-15544	12248	1489	-6628	-1577	-21568	-8184	-27688	5453	-3803	-655	-32768	1960	-28096	1005	-4198	-1803	-16412	7232	11572	-553	6834	-4432	-13536	-1992	-25284	2285	11032	-12753	-32768	19052	-25608	104	27736	-11556	13	78	2
-20720	-7504	11592	-774	-6744	-3511	-19128	4792	-29288	5494	-5296	-1384	-32768	552	-28904	-674	-5409	-2097	-14116	19928	26996	-4525	11500	-6658	-32768	-620	-28304	-919	16729	-6078	-32768	12460	-10000	-7189	26194	-20433	0	0	2
-27720	-13644	14816	-2129	-7234	-4404	-12688	8600	-27440	1977	-7158	-1757	-24640	7648	-25616	-989	-3589	-1742	-16312	11300	25024	-4342	23020	-14254	-32768	-14464	-20692	6246	-3799	-5694	-32768	7956	-2160	-11404	32767	-18739	0	245	2
-32768	-12972	17016	-2253	-7829	-4568	-10840	3680	-26040	-874	-8279	-2887	-5904	9712	-22904	-623	-1325	-989	-5128	8500	27428	-2282	32767	-17413	-32768	-18868	-2032	6984	-1508	-5495	-32768	-3084	13192	-25657	31118	-19475	65	172	2
-32768	-16172	14596	-1668	-8063	-5461	-10848	2736	-26880	-939	-8559	-3987	6952	12136	-21672	-2036	614	-436	-17956	10140	21972	10918	32767	-16927	-32768	-12132	5948	7298	-6701	1205	-32768	-3344	16152	-32583	30091	-21183	253	245	2
-32768	-4404	6248	-621	-7149	-6737	-6848	-880	-27400	1059	-8019	-4198	17704	9304	-19512	-792	988	-28	-28416	16352	17920	20145	32767	-21284	-32768	10012	21132	10725	-10237	4182	-32768	9416	29716	-16062	29386	-8989	253	231	2
-32768	15052	-4752	-1042	-5898	-6841	-3240	1784	-32768	4510	-6419	-3716	14432	3216	-12080	3381	-189	741	-32768	-972	11596	7181	32767	-25562	-32768	29048	18176	-15329	-410	-9407	-17080	14504	32767	-3393	11833	-696	253	145	2
-32768	21396	-20444	-2171	-5078	-4511	-13032	5080	-32768	5222	-4678	-2108	7160	-5896	-2848	3547	-1369	-180	-4332	32767	-20316	-32768	32767	-32768	-3516	22204	30212	-32768	18367	-24098	-4212	8532	32767	-20923	-6865	2989	253	96	2
-32768	20660	-32768	-260	-3960	-366	-12848	18208	-32768	2514	-2354	-319	-2160	-8952	14136	2394	-1449	-935	-32768	1012	8256	-32768	32767	-22983	-13436	-4928	-1160	-32768	32767	-14321	3212	-13148	32767	-12211	-3780	-4633	0	120	2
-32768	24632	-32768	432	-1394	1076	-9408	22576	-32768	1594	-2022	-216	-680	-1152	19080	88	-512	-1523	-32768	-32744	32767	-15913	32767	1039	-32768	-32768	4424	-28268	32767	-9412	-10696	-19876	-6284	6031	-8083	-8010	253	151	2
-32768	21548	-32768	-213	1421	626	6800	6632	-32768	-2735	2336	167	-2112	6448	2968	-3143	724	-904	-32768	472	32767	32767	18500	7217	-28840	-16300	9360	32767	32767	-941	-20328	-23372	9836	11289	-22199	-6795	220	109	2
-32768	20112	-20568	494	2926	782	3616	11040	-29416	-502	3793	1088	752	16424	3624	-6192	3200	1110	-27408	31640	32767	32767	-3291	-11194	-27340	-1488	5512	32767	32767	1971	-8596	-29928	5420	9520	-22548	-3630	84	45	2
-9172	-28192	17092	-784	7114	370	-20512	-15104	32767	-8487	1418	1362	-24776	-56	32767	-2138	56	1668	-25860	28532	26272	32767	-24247	-15228	-25448	2056	2132	32767	32767	7600	-16044	-6888	-800	30951	-22529	-9527	120	58	2
-32768	21944	-22476	2523	11272	5750	-960	-20048	-32768	2573	6653	197	-32768	-17504	-9896	1805	1895	-363	-21740	31256	22620	31242	-32768	-8571	-32768	6352	-5496	29191	19669	6043	-32768	26012	880	32767	-20191	-2611	139	124	2
32767	-15284	32767	410	3414	415	-4688	32767	-32768	1956	11484	802	-17264	29952	-32768	-27	1231	-276	-10700	32767	17908	7451	-32768	-7215	-26336	6364	-10008	11354	5638	3239	-32768	18408	-6500	20201	-31058	6193	148	31	2
-19920	-15068	7216	248	1608	-535	-15256	24504	-9752	-3909	4387	337	14784	17560	-25904	-3342	1577	1361	-13808	26312	13904	-8583	-32768	-2285	-16564	10024	-23268	-9569	-10656	6166	-32768	12232	-13928	-8814	-32768	19172	213	0	2
-14220	-6912	5328	502	1054	396	22528	-20928	-29944	-3523	4124	970	-23840	-8000	-25648	-3144	3354	2308	-18180	19824	8688	-8405	-32768	13238	-15452	760	-23860	-24227	-32768	8545	-32768	-1688	-19236	-13311	-32768	20176	254	48	2
-14288	-1600	13448	573	760	595	-29736	-5216	-32768	53	3346	-95	-32768	-22296	-27624	-111	3443	1382	-15752	10908	8944	5479	-32768	28749	-5776	-29312	-32768	-10435	-32768	19351	-32768	-4676	-26436	-9582	-32768	16517	253	245	2
-16216	-4512	17176	78	905	673	-30272	6272	-28184	315	908	742	-32768	9808	-19920	-202	4963	2103	-24692	9836	11160	21919	-32768	32767	-7812	-16300	-26844	-2133	-32768	20882	-31936	-12588	-32768	-3217	-32768	14290	0	142	2
-13836	-4972	25368	7	2766	733	-32768	-904	-12640	-7	1233	425	-32768	-20240	1584	81	4709	2639	-31868	17064	14796	25009	-32768	32767	-6364	-8620	-23640	25679	-32768	32317	-13160	-10384	-29836	2949	-21689	16360	13	175	2
-4468	-3536	27440	-109	5311	1028	-32768	6720	-1232	-60	691	637	-32768	936	6416	2253	4163	2523	-32768	18220	18456	19469	-32768	32767	-11920	-2216	-17616	32767	-32768	32767	-1640	-9708	-26868	10750	-5805	16165	44	245	2
1176	-5112	24944	-962	8293	349	-32768	7384	0	-194	580	609	-32768	7616	7600	1997	4059	2979	-32768	11556	20252	18308	-32768	32767	-16272	-8252	-23904	19068	-32768	32767	12808	-6980	-22732	20366	4937	13284	0	193	2
-19268	-8048	17460	-1632	11173	858	-32768	-5152	6008	-96	-610	444	-32768	1848	4584	1870	4271	3344	-32768	6432	10436	16519	-32768	32767	-14560	-14900	-25752	3189	-32768	32767	26024	-7540	-18736	16926	4566	2287	155	112	2
-32768	-10320	344	-1963	10573	292	-32768	-15904	16280	-3408	-1179	741	-26608	-29264	32767	1644	3851	1574	-32768	-24648	-1760	12939	-32768	32767	-12864	-21480	-32768	-8937	-32768	32767	12544	-476	-12336	-32768	-19099	494	0	196	2
-32768	-26744	7312	743	7854	1830	-18152	-32768	32767	-1479	1119	2976	-18288	-32768	32767	428	1696	-1347	-32768	-29144	-24944	15226	-20251	32767	-20388	-18104	-32768	-17783	-32768	16113	748	21060	10924	-19354	-27335	5747	0	74	2
-32768	-29696	-14840	10026	8931	1594	17016	-19008	17160	7972	5089	2193	-12848	704	32767	4606	-176	-570	-32768	-32768	-32768	-16791	-15115	13755	1596	-17804	-32768	-23058	-23694	142	-1764	9032	32767	3419	-6010	12136	77	246	2
-32768	32767	32767	5876	5753	-1300	-10376	17800	11864	9469	7303	668	1064	-448	24856	-594	-1225	849	-32768	-32768	-32768	-8624	-1686	-7110	19044	-22832	-32768	-10292	11455	-4308	2128	-2260	14148	6521	3103	10176	21	123	2
-32768	23456	32767	-4830	2352	-481	-32768	32767	9632	471	6177	426	2928	3144	21584	-608	-846	871	-32768	-29804	-32768	7164	12219	-4535	10436	-19988	-32768	2818	28647	-5802	-1016	-24492	8288	30473	26348	-4811	63	78	2
-32768	-7964	32767	-5659	-449	1781	-32768	16352	3488	-7986	3306	445	-25888	27520	25152	-798	-3551	1778	-32768	26668	3112	4195	32767	-19261	-10180	-9132	10464	32767	32767	-8658	-15844	-14244	2516	15190	12923	-9364	254	94	2
-32768	-19260	29712	-5360	-2481	2267	-29368	2088	-3408	-10619	2162	25	-14240	22472	-1544	-2617	-2600	402	-32768	-32768	-11892	-30868	32767	-32768	-9732	-3320	-32768	-32768	32767	-956	-32768	32767	-20516	24492	24956	-5239	22	49	2
-30204	-27624	24588	-4295	-4308	2859	-32768	-18840	-5352	-8804	882	-7	-32768	-8304	-6696	-3593	-3176	-806	-12500	5196	11816	-10936	10627	-32768	-4852	-15168	-32768	-594	32767	-22807	-16388	-32768	-32768	-21050	17845	-6365	253	0	2
-23268	-28152	19060	-3264	-5368	2704	-32768	-14416	-11272	-5137	297	-261	-32768	-25656	-7672	-767	-5010	-1437	-32768	-3036	10268	-6198	15811	-4690	21600	-32768	-32768	-9568	23562	-10014	16152	-12900	-32768	15800	15187	5108	253	95	2
-15784	-29740	17376	-1679	-5679	1856	-16680	-13424	-23432	-680	-117	-517	-32768	-18320	-9424	2740	-5438	-1970	-12136	17948	5524	-3964	12571	5584	-7976	19900	-32768	8020	32767	-12501	-16448	20448	-21724	22587	28217	-12589	90	172	2
-14100	-27244	13020	330	-6482	-74	-17016	-6400	-26744	3043	-1820	-1253	-32768	-10400	4760	2668	-5337	-2038	-15132	6188	10628	-2953	7164	-2111	-32768	-32768	-25820	1733	32767	-5263	-32768	7744	-25584	9758	23977	-17965	195	171	2
-12548	-9580	11032	445	-6980	-2052	-17936	-3792	-25936	5680	-4425	-1337	-32768	3224	-29656	242	-4447	-1008	-15132	8164	12792	-1646	7836	-4013	-18488	-3796	-20860	709	14843	-13808	-26184	18056	-18760	-4547	25127	-15796	0	53	2
-19232	-5072	12404	-1596	-6936	-3900	-16256	9864	-26632	5281	-5795	-2201	-32768	3368	-30704	-1887	-5539	-1971	-14892	18680	29852	-5265	10879	-8040	-32768	-1224	-21296	2651	15434	-4485	-32768	6064	-4516	-8599	29136	-16754	0	8	2
-28696	-11332	17492	-2230	-7310	-4419	-12248	10376	-26040	1566	-7645	-2228	-16776	8848	-26744	-1959	-3450	-1733	-14128	11744	25572	-5015	25829	-17559	-32768	-14844	-9908	2350	-697	-5320	-32768	5192	3896	-7184	32323	-17382	0	174	2
-32768	-11736	19524	-2033	-7999	-4051	-11176	4736	-25976	-830	-8596	-3390	-2240	7400	-21800	-1503	-848	-1079	-4092	4456	24040	-1249	32767	-19316	-32768	-17320	1532	3045	262	-4821	-32768	-4644	14156	-24120	29785	-17433	63	212	2
-32768	-12372	14672	-1275	-8208	-5296	-11080	4464	-25968	-496	-8596	-4041	12976	8736	-21592	-2742	1014	-676	-21180	10020	22084	8958	32767	-17923	-32768	-8452	2836	4672	-3161	1940	-30560	-8756	10776	-19378	30512	-17141	253	244	2
-32768	-1756	8016	-500	-7185	-6594	-7496	4016	-26864	1691	-8054	-3851	19264	7488	-21968	564	1377	9	-32416	15456	13792	15053	32767	-21743	-32768	11220	15648	9077	-9099	4702	-32768	9392	27020	-8860	32767	-10138	253	234	2
-32768	19716	-2876	-751	-6233	-6489	-6864	3216	-32768	4365	-6609	-3400	9272	2896	-10288	4273	-463	624	-32768	11704	7940	5585	32767	-19680	-32768	23196	15320	-11970	1214	-9540	-14908	15164	32767	-3123	18306	254	253	175	2
-32768	20308	-22852	-1920	-5380	-4700	-17720	6264	-32768	5199	-4693	-1787	4304	-5016	2096	3102	-1735	-46	-1340	32767	-15724	-32768	32767	-30656	-3052	20424	29852	-32768	17073	-22122	-8036	9380	32767	-21049	-7630	4911	253	89	2
-32768	16792	-32768	-125	-3335	-1542	-8176	16192	-32768	2497	-2336	-224	-1744	-5784	16816	2329	-1636	-588	-32768	284	13708	-32768	32767	-14003	-7292	-3000	1908	-32768	32767	-15071	7064	-7696	32767	-6538	-5203	-7628	253	98	2
-32768	26892	-32768	599	-1076	353	8112	20216	-32768	-1967	60	-64	1672	360	19480	335	-271	-1215	-32768	-27540	32767	-19262	32767	2992	-32768	-32768	5600	-30157	32767	-11112	-3652	-19872	-2360	10063	-6802	-9838	150	106	2
-32768	22992	-32768	4	1179	908	7784	8704	-32768	-2489	2307	367	504	6704	2672	-3241	1132	-736	-32768	-6524	32767	32767	19115	8743	-31752	-16952	1484	32767	32767	-4139	-26892	-17528	11208	12401	-19338	-6778	216	157	2
-32768	20128	-20644	465	2602	1340	3544	14240	-27320	-1035	3659	1119	2320	15648	424	-5738	3035	1238	-30896	28572	28456	32767	-2770	-13111	-31120	1252	6804	32767	32767	-3120	-9928	-25376	6248	4845	-25718	722	0	98	2
32767	21752	-29896	-2635	4174	2202	-13064	-8160	32767	-6222	2345	1571	-9104	14232	-2928	-2432	2045	2692	-21952	25876	22868	32767	-16841	-28122	-25272	1544	7312	32767	32767	3192	-11072	-13132	3492	17354	-23475	-3694	0	1	2
-32768	-32768	-32768	1960	11355	4958	-23296	-23520	-32768	1284	5826	-1687	-32768	-28832	2408	787	1598	-1640	-26480	28980	20296	32767	-23675	-25613	-32768	2612	-8836	27865	26546	2771	-32768	16452	-660	32767	-18312	15	0	93	2
32767	32767	32767	287	4008	1682	-25552	32767	-32768	4747	10139	-184	-32768	11680	-32768	597	1231	-949	-14384	32767	16944	16466	-29597	-17418	-27724	1500	-12200	13851	12489	1699	-32768	18412	-2924	26246	-27836	2821	253	213	2
-25660	19740	11500	259	1751	-464	-19136	13232	-15504	-4319	4023	206	11320	13544	-15040	-3118	1852	940	-7276	32767	15720	-7084	-32768	-6476	-17160	6024	-17948	-936	-1717	5727	-32768	16188	-10476	-2040	-32768	16343	58	0	2
-13760	-1348	8780	519	1030	433	32128	-17976	-28688	-3771	3886	1317	-9792	-5016	-22192	-2929	3361	2377	-12592	19336	12756	-10384	-32768	13421	-14228	72	-21448	-16169	-25936	11568	-32768	-1516	-15296	-14384	-32768	20711	249	0	2
-13908	-4532	12800	751	757	538	-15920	-240	-17784	554	3304	-8	-32768	-18728	-27472	-160	2983	2061	-11332	8944	11680	4933	-32768	32767	-1188	-9068	-24728	-16746	-32768	15751	-32768	-3924	-23348	-10194	-32768	17828	253	247	2
-16016	-3860	15428	286	750	650	-30400	16568	-25304	524	1408	428	-32768	11648	-22392	420	4028	1875	-18600	9972	12108	21073	-32768	32767	10748	-21644	16464	-19116	-22359	32767	-32768	-9344	-31532	-5451	-32768	14720	63	136	2
-12904	-2012	27256	190	2253	763	-32768	-6936	-13704	-453	1300	594	-32768	-18024	-1488	-207	4517	2641	-29128	13892	14324	24369	-32768	32767	-3480	-9496	-21412	9926	-32768	32767	-15264	-8272	-29480	4605	-24807	16602	0	160	2
-8796	-2064	27288	-45	4598	924	-32768	8016	-4368	-245	557	592	-32768	216	4472	2161	4095	2391	-32768	12860	17368	22983	-32768	32767	-6740	-4932	-15472	22669	-32768	32767	-1260	-8908	-27848	10218	-9842	18825	166	235	2
-128	-2776	26148	-682	7334	206	-32768	928	9144	-712	134	858	-32768	6264	8240	2098	3942	2915	-32768	16524	19664	18656	-32768	32767	-11024	-8812	-21120	15349	-32768	32767	11164	-12620	-27768	18814	-553	13519	0	176	2
-7016	-8272	18316	-1330	11013	529	-32768	-4528	10608	204	-493	573	-32768	8072	4912	1813	3811	3511	-32768	4492	13144	11934	-32768	32767	-12276	-12400	-20304	1612	-32768	32767	25940	-4112	-24244	26470	7985	5215	92	104	2
-32768	-4912	6448	-1780	10791	859	-32768	-14920	11544	-2301	-1345	748	-31776	-21856	32767	2299	4030	1961	-32768	-10540	-2588	4933	-32768	32767	-7916	-20204	-32768	-12166	-32768	32767	15588	684	-14080	-23336	-12015	-1929	105	163	2
-32768	3496	8060	-1697	10427	1097	-24240	-32768	18448	-1303	269	2607	-19008	-32768	32767	38	1957	-1172	-32768	-32768	-24892	11898	-25446	32767	-11220	-9884	-32768	-17199	-32768	21602	6308	14892	-480	-28980	-21103	2899	0	91	2
-8136	-32768	-17552	8595	9196	2479	8768	-27616	22832	5638	3969	2821	-15720	-3720	32767	4100	400	-910	-32768	-32768	-32768	5960	-25336	12983	-10148	-24196	-32768	-27283	-26702	3956	-2484	5828	24852	-11152	-22074	4840	101	247	2
-32768	32767	32767	7677	5819	-513	-4776	10128	296	10605	7147	783	-3016	-2224	32767	603	-1550	643	-32768	-32768	-32768	-1736	-15631	-13404	18660	-28004	-32768	9962	1822	-3792	3400	-3436	21896	9135	2439	7727	113	230	2
-32768	32767	32767	-3922	2922	-643	-32768	32767	10432	2856	6371	485	-4808	21896	25256	-297	-2375	1061	-32768	-30112	-32768	5675	4319	-13923	11748	-17160	-32768	25640	31057	1087	2020	-29356	-4656	32767	32767	-5947	27	36	2
-32768	-8300	32767	-6086	-432	1815	-32768	14824	4080	-7736	2876	413	-24560	23440	22688	-1667	-3533	1928	-32768	10920	-31348	-9453	31118	-32768	-8520	-8080	19236	32767	27603	-7770	-6008	-23396	-32768	26924	31534	-8967	209	12	2
-31672	-18676	30588	-5439	-2443	2358	-31584	80	3552	-10721	2090	647	-14688	22720	6728	-2632	-2921	1021	30460	32767	27940	1322	32767	-29732	-32768	32767	32767	32767	32767	11109	-32768	30344	32767	17243	-21372	2376	83	113	2
-29132	-27240	22944	-4333	-4254	3091	-27864	-16128	-5856	-9209	1044	56	-28464	-2320	-6808	-3680	-2777	-49	-32768	-32768	32767	-22790	5500	-32768	-32768	-32768	-32768	-32768	32767	-32414	-32768	13684	-32768	-3783	14616	3620	188	3	2
-22680	-25932	20272	-3719	-4917	2986	-32768	-23440	-7096	-5866	416	-240	-32768	-30552	-9328	-2636	-3876	-1455	-18952	-32768	15344	-12865	351	-23720	5252	8176	-18868	-14667	32767	-7216	-14028	-32768	-32768	-19100	29139	5893	253	111	2
-18960	-32768	16900	-2073	-5129	2461	-22632	-17216	-25184	-1024	-146	-67	-32768	-30008	-16944	2255	-4971	-2223	-16080	-620	8752	-1786	12868	-2151	4984	-1480	-7280	23566	31682	-721	2572	-18308	-23116	22234	13781	-9677	0	135	2
-18476	-32768	14508	755	-5765	731	-16256	-15096	-25440	2574	-1356	-470	-32768	-32768	-12128	5857	-5670	-2707	-15500	-400	8212	125	9398	-3410	-18208	4012	-14360	10718	32767	-8126	-27624	13900	-31240	26197	31461	-21868	253	50	2
-15088	-19440	10644	2005	-6762	-1555	-18064	-9384	-29440	6445	-3599	-522	-32768	15296	-32768	2602	-3314	-880	-18896	8064	8316	449	7882	-2815	-30768	-2628	-26044	4355	14970	-9396	-32768	28256	-26912	6432	29208	-8596	131	104	2
-14872	-6472	10052	-214	-6986	-3872	-14728	-5136	-25312	7039	-4994	-1643	-32768	-1656	-29768	-266	-5615	-1754	-17836	5388	12556	3736	5068	-5769	-23696	3808	-27896	-53	11576	-7735	-32768	9704	-15484	-14892	26439	-17861	0	0	2
-27968	-19300	11904	-1697	-7189	-4582	-18576	8984	-29776	3706	-7163	-649	-24000	7744	-25480	-1342	-3948	-1933	-16932	13768	23044	-3415	19210	-11942	-32768	-11932	-19984	-2376	1223	-5163	-32768	6400	2380	-11415	28579	-15160	0	185	2
-32768	-13932	16844	-1325	-8090	-4613	-8048	3656	-27136	-544	-8544	-2284	-6592	8104	-26440	-1035	-1269	-1361	-7080	6996	25232	-3801	32767	-18601	-32768	-19336	-3896	4512	116	-2972	-32768	-4228	12060	-15463	30997	-14395	109	244	2
-32768	-18180	13408	-1167	-8675	-5053	-10376	1816	-28392	-973	-8963	-3091	6896	11112	-22176	-1622	1038	-835	-13304	1656	22348	8983	32767	-15514	-32768	-12544	2600	8928	441	2235	-32768	-9796	13252	-17775	28882	-18959	125	181	2
-32768	-12500	6872	150	-7703	-6303	-9392	1232	-26784	540	-8633	-3598	17552	11808	-18784	133	1492	-205	-28796	12732	20292	15205	32767	-19890	-32768	4144	13880	13444	-5933	6761	-31776	3624	25200	-10161	32767	-13304	0	244	2
-32768	6008	-2500	-135	-6263	-6923	-7144	192	-32768	3698	-7036	-3898	10880	9624	-10880	4386	30	1067	-32768	6756	10788	13280	32767	-23469	-32768	18428	20772	-2253	-11	-1999	-27040	15108	32767	6400	12813	-2507	253	194	2
-32768	22588	-19088	-2588	-5069	-5848	-19352	2504	-32768	5519	-5166	-2754	1720	-1608	2784	3975	-1787	384	-32768	25364	-6700	-6279	32767	-23291	-13696	20672	31064	-25282	12214	-22412	-9652	11716	32767	-10554	1785	7575	253	73	2
-32768	16960	-32768	-1663	-3448	-2201	-16848	13352	-32768	4446	-2379	-654	-1872	-8808	18464	2521	-2071	-478	-32768	15480	1744	-32768	32767	-26020	536	652	-5984	-32768	32767	-15217	-444	-1100	32767	6596	-12714	-7312	254	47	2
-32768	25468	-32768	1088	-1508	475	7488	26192	-32768	-1973	-313	13	-304	-6032	21512	844	-241	-1511	-32768	4596	7128	-32768	32767	-22839	-32768	-25684	3644	-32768	32767	-15589	-460	-11880	4272	9593	-2886	-7825	34	125	2
-32768	26484	-32768	505	1392	929	7968	10312	-32768	-3500	2101	293	1472	5864	4248	-2638	925	-1517	-32768	-12908	32767	26994	21046	2598	-32768	-28680	5336	22835	32767	-8387	-26036	-9576	6676	7489	-18421	-5688	243	142	2
-32768	14560	-24472	716	2943	486	5624	7976	-29712	-666	3903	1209	2080	16384	5600	-5813	2638	330	-32768	23852	30732	32767	3137	-12263	-32768	-2636	9220	32767	32767	-5208	-15928	-21880	8776	-3673	-27787	564	0	77	2
-17088	7956	16316	-856	5141	67	-9880	-3032	32767	-5787	2705	1855	-8760	15616	-6400	-3611	2131	1993	-28020	28712	24620	32767	-12140	-26852	-28440	3256	5596	32767	32767	-978	-11784	-19132	2908	1358	-26676	-198	253	0	2
-32768	-32768	-26320	1425	9289	5260	-32768	-12424	-32768	2612	6434	-2040	-32768	-32768	13640	577	346	-1627	-28060	30456	23256	32767	-22502	-22534	-32768	-108	-7892	24603	26732	2332	-32768	7004	3532	31506	-20278	-1341	0	112	2
32767	8508	32767	-292	3967	1783	-22200	32767	-32768	2920	9268	1236	-32768	24320	-32768	2301	1567	-518	-13064	32767	19740	12077	-28377	-14128	-27196	-3692	-9032	17701	12336	2163	-32768	11124	-2828	25406	-30853	2848	252	182	2
-22572	-2180	6700	227	1543	-662	-16616	29512	-7752	-3424	4720	170	5880	22904	-18784	-3174	1329	1030	-5212	28696	16576	-10113	-32768	-4555	-24784	-2652	-8180	16317	10006	2657	-32768	9140	-8524	6883	-32768	13019	206	63	2
-12340	-8460	7548	347	1256	-10	-9464	32767	-9248	-5136	4007	665	-9400	-11400	-23640	-3189	3421	2317	-9184	11760	16044	-6513	-32768	14113	-10252	-1176	-19456	-8692	-22359	13142	-32768	-4172	-14220	-7026	-32768	18546	254	115	2
-11860	-8040	13420	649	756	513	-20088	-6872	-21280	713	3396	193	-32768	-24488	-22280	-515	3094	1903	-10208	6640	13256	13161	-32768	32767	-6820	-8052	-25960	-9135	-32768	21699	-32768	-4708	-17456	-7235	-32768	18138	253	243	2
-15280	-3792	17180	318	896	797	-32096	9856	-27312	1063	1764	617	-32768	5920	-17648	966	3430	1911	-18972	9220	13696	26512	-32768	32767	-6796	-7752	-18776	-6394	-32768	29353	-32768	-10708	-31404	-2189	-32768	12697	37	89	2
-13520	-2468	25528	127	2500	782	-32768	-920	-14856	409	1933	809	-32768	-11272	2320	385	4162	2277	-28020	10232	16412	31529	-32768	32767	-6076	-10980	-19100	3842	-32768	32767	-17760	-8104	-31072	6069	-28782	13182	27	136	2
-7852	-1344	26576	-105	4828	941	-32768	10840	-6920	-54	1011	944	-32768	-192	5696	1744	4099	2218	-31904	12700	20616	31110	-32768	32767	-9588	-8576	-15576	18210	-32768	32767	-2924	-9032	-28176	11919	-13326	16062	166	208	2
-1672	-2708	24240	-551	7538	225	-32768	2544	6336	-641	349	908	-32768	7016	9784	1835	3768	2918	-32768	15376	24016	26677	-32768	32767	-13056	-10764	-19520	12871	-32768	32767	9172	-13468	-27300	24679	-2330	12511	0	227	2
-5332	-6784	17200	-1288	11211	413	-32768	800	8656	74	-337	663	-32272	6440	3272	1076	3694	3497	-32768	92	21224	22219	-32768	32767	-13612	-15328	-19244	4505	-32768	32767	27424	-1216	-23416	32767	2983	2581	0	82	2
-32768	1704	6772	-1546	11164	987	-32768	-8896	2992	-2149	-1268	694	-28368	-15072	5720	1354	4470	2731	-32768	-7748	8180	13530	-32768	32767	-8800	-23416	-29872	-6036	-32768	32767	23240	3168	-16432	-8262	-811	-1534	55	160	2
-32768	-12060	12268	676	8156	1746	-32768	-26472	23344	-2125	-507	2484	-25568	-32768	32767	880	3238	846	-32768	-32768	-12428	11922	-23412	32767	-10256	-15000	-32768	-6492	-32768	24666	10976	15656	-4716	-31110	-20020	3463	253	33	2
19780	-32768	-12268	9139	10125	2679	-2824	-32768	32767	5619	2779	3621	-18008	-13136	32767	5502	301	-1412	-32768	-32768	-32768	-1488	-29373	12341	-19196	-17692	-32768	-21164	-30419	5708	-3868	13000	25636	-3792	-14615	8966	203	244	2
-32768	18928	15604	10739	6323	696	992	10344	-11136	13350	7979	1207	-3984	3040	32767	5544	-1575	-79	-32768	-32768	-32768	-8455	-20643	-18788	13344	-29868	-32768	-4566	-4244	-9001	-252	-1600	24132	-3413	-2758	7398	52	142	2
-32768	32767	32767	-3125	3292	-933	-32768	32767	7040	7065	7894	211	-1504	32767	23160	470	-1181	1344	-32768	-32572	-32768	2366	2961	-16541	16920	-21636	-32768	14551	28356	-1702	3016	-27948	11212	32767	27373	-9611	0	122	2
-32768	-5192	32767	-8245	-357	1069	-32768	13992	3248	-8265	2289	-867	-24192	32767	26056	-1715	-3204	2110	-32768	-5780	-8660	-22113	23342	-16307	-6548	-2304	-21196	32767	31235	-1893	-13076	-20160	-4704	23214	20048	-9064	253	59	2
-32768	-22360	32376	-7501	-2463	2652	-32768	4632	-1504	-13091	2098	-97	-19640	20216	-944	-5123	-2892	1442	-32768	32767	-996	-2639	32767	-13511	-4744	1100	-32768	-32768	32767	13583	-32768	32767	-13544	32767	26652	-3994	81	45	2
-32252	-32672	27292	-5679	-4477	3431	-32768	-25280	-7240	-11808	701	-625	-32768	-10376	-9792	-4851	-2742	-42	15952	18348	7960	-19432	20991	-30763	-2644	-32768	-32768	11635	32767	-32768	-22628	-21228	-28032	-17286	9421	3107	253	35	2
-23504	-32768	19840	-3430	-5429	3545	-32768	-25208	-8200	-6809	-514	111	-32768	-32768	-10528	-1940	-4800	-1769	-23748	-23312	17732	-5292	11815	-5213	11680	-32768	-32768	-14392	32767	-17160	5580	-17064	-24092	10095	14905	5072	173	245	2
-17692	-32768	17496	-1497	-5650	2864	-17008	-19680	-22032	-732	124	-281	-32768	-28944	-12816	2819	-5444	-2393	-13724	10140	5100	-3474	13850	2721	-5104	15024	-28460	4847	32767	-9629	-16208	-6648	-20180	11170	17444	-16680	0	156	2
-18088	-32768	12476	596	-6282	675	-15016	-13264	-27832	3170	-1540	-782	-32768	-9032	-16176	3963	-5331	-2702	-15788	4868	8820	-915	8072	-2357	-15568	-10064	-24984	1782	32767	-10771	-32768	19004	-32660	20209	25785	-20468	253	91	2
-16788	-19252	8892	1451	-7474	-1786	-15080	-5792	-27168	5985	-3571	-1261	-32768	1320	-32768	1512	-5059	-1895	-17924	6280	9472	-124	6828	-4718	-24448	1260	-29140	6557	5700	-10021	-32768	8976	-18916	6816	25576	-9587	0	141	2
-19356	-8712	9392	-599	-7483	-3853	-16368	2088	-28432	6573	-5587	-1947	-32768	3672	-32768	-53	-4981	-2516	-17212	8616	10976	4387	2042	-7738	-21552	-2664	-29044	2962	16822	-6247	-32376	16720	-10832	8211	27308	-19035	0	91	2
-28408	-14092	13060	-2222	-7580	-5242	-13464	8944	-28952	3916	-7436	-1909	-23744	7840	-30808	-376	-3613	-2363	-18320	10132	21964	-2657	18272	-11308	-32768	-10284	-21088	11014	3243	-3957	-32768	18008	1500	-2364	30043	-15516	0	46	2
-32768	-17348	16956	-1971	-8187	-5248	-9792	4168	-27448	-31	-8806	-2602	-6696	11496	-26560	-401	-1295	-1555	-7856	9104	24332	-4665	32767	-17379	-32768	-11980	-3468	4337	724	-5588	-32768	3156	8476	-28520	26326	-20812	0	147	2
-32768	-20180	16940	-779	-8574	-6134	-12128	2064	-28304	-199	-9089	-3660	8104	15376	-23832	-1556	611	-838	-13324	2592	21648	5519	32767	-14947	-32768	-13888	1124	-1183	-698	-1021	-31552	-11956	13672	-32478	32767	-21564	142	196	2
-32768	-9132	10928	268	-7865	-7546	-12640	872	-26312	1370	-8779	-4020	17472	13680	-18360	27	744	-124	-22132	16792	23872	15597	32767	-16844	-32768	656	8448	7108	-5556	3004	-32392	-804	15636	-16228	31336	-17877	254	243	2
-32768	9212	844	-307	-6528	-7326	-10344	-1280	-32768	4317	-7256	-4039	13592	7264	-10064	4797	-197	879	-32768	12180	12832	17690	32767	-22677	-32768	12792	13196	47	-6629	1358	-32564	3200	18332	-12011	31412	-14676	253	182	2
-32768	25600	-14612	-2946	-5406	-5054	-21392	3760	-32768	5966	-5458	-2777	3296	-2704	5232	4358	-2472	-182	-32768	19656	-1064	-2107	32767	-23713	-24996	18056	32476	-13657	1756	-17441	-12352	17944	32767	-19680	12352	6537	254	84	2
-32768	18496	-31432	-2409	-4524	-1267	-17680	15240	-32768	2857	-2707	-380	-168	-9256	24648	2584	-2570	-966	-32768	32767	-18064	-32768	32767	-23709	7200	12608	19016	-32768	26087	-17176	-3136	-6828	32767	-15412	-12531	-7102	253	84	2
-32768	25408	-32768	233	-1820	1520	7608	23776	-32768	-4713	-910	-806	2792	-296	19096	-644	-30	-1192	-32768	-27324	29260	-32768	32767	-13152	-20300	-15644	-6636	-32768	32767	-13251	2680	-15772	23080	-1384	-992	-5636	254	91	2
-32768	24516	-32768	-596	1433	1084	7984	6408	-32768	-4995	2235	-214	-5040	11584	5424	-4469	538	-1172	-32768	-21656	31088	14947	29079	-2155	-32768	-32768	6264	-4250	32767	-8571	-19268	-14304	3480	25189	-17156	-11624	56	188	2
-32768	12228	-25644	607	3212	695	5456	6376	-31840	-658	4048	1112	1384	21968	1592	-6706	2091	208	-32768	3924	27464	32767	2580	-13376	-32268	-14184	2076	32767	32767	-4541	-18888	-21232	15816	10902	-22294	-2175	0	106	2
-32768	32767	29552	-1288	3928	5594	-6520	12208	2440	14	3247	1365	6392	17552	-32768	-4862	3310	1743	-32768	25896	18340	32767	-18405	-26859	-32768	248	4600	32767	32767	-3478	-10672	-24012	828	1280	-27102	-1440	254	0	2
-32768	-32768	-18256	962	11534	4888	-32768	-19720	-32768	4844	6584	-2798	-32768	-32768	32767	1042	-1403	-4169	-32768	31100	14512	32767	-32768	-28140	-31044	3356	-6656	32767	32767	84	-29880	388	3112	31503	-23600	-5041	134	168	2
28328	32767	11308	-28	2268	4583	-29008	32767	-13800	-705	9868	2111	-32768	32767	-32768	5143	2616	-12	-18880	32767	14448	21961	-32768	-23090	-32768	-2552	-10692	30844	20850	1349	-32768	21516	-5208	32767	-19664	-2575	253	194	2
-23644	32767	16836	163	2007	1014	-3960	48	-25160	-1206	4904	-787	1280	32767	-21288	-4437	1568	1817	-9632	32767	11648	-9039	-31380	-16370	-21024	5420	-17128	14125	5656	4452	-32768	21880	-10464	4669	-32768	11598	126	28	2
-17828	-1712	5168	262	1494	237	30696	-18056	-22896	-4121	3380	1236	7728	-13536	-27176	-3013	3422	1810	-10956	12964	14052	-12050	-32768	8958	-10804	5460	-22816	-10902	-16006	6428	-32768	3352	-13920	-11800	-32768	18176	253	84	2
-14804	512	10280	628	672	627	-4776	152	-27616	549	3436	612	-30352	-27384	-29040	-1961	3096	1978	-11996	13184	9384	2500	-32768	32767	-8124	-1200	-26916	-25951	-32768	10730	-32768	496	-25868	-8261	-32768	18660	253	94	2
-17692	152	9356	195	790	432	-32768	784	-32768	1089	2837	142	-32768	-2560	-24896	1211	2833	1043	-16176	12400	8884	12740	-32768	32767	-6268	-3404	-23188	-19953	-32768	18619	-32768	-6180	-32644	-7354	-32768	16459	253	130	2
-14520	-7832	19436	232	927	844	-26592	-11808	-23200	190	2214	1020	-32768	-3384	-12760	100	4304	1683	-27124	9448	11604	19321	-32768	32767	-3992	-7884	-23136	-12484	-32768	26107	-26212	-8096	-32368	1154	-32738	17846	185	127	2
-13672	-1040	25000	164	2605	1040	-32768	9840	-19064	454	1066	800	-32768	-16992	1240	892	4630	1925	-32768	10672	14588	21821	-32768	32767	-4104	-8988	-18884	8605	-32768	28993	-5780	-6392	-29628	1879	-18339	19606	121	233	2
-3848	-628	26788	-100	5024	699	-32768	5272	-3824	-449	244	1120	-32768	1824	4792	2194	4634	2663	-32768	14916	16900	19446	-32768	32767	-9628	-6724	-18712	19715	-32768	32767	7564	-11760	-27324	6735	-5426	16840	0	224	2
36	-6656	24748	-586	7871	315	-32768	2456	8040	840	-112	709	-32768	4080	6928	2372	4550	2806	-32768	8824	11896	14087	-32768	32767	-8504	-11140	-25112	12616	-32768	32767	22040	-9240	-27544	21913	2151	6195	0	27	2
-14776	-5880	19628	-1330	11034	1023	-32768	-832	9992	79	-885	400	-32768	4152	10656	1160	4524	3380	-32768	3108	-1572	4564	-32768	32767	-2484	-16908	-29784	2855	-32768	32767	23800	-5244	-21588	-3018	5372	-3881	251	142	2
-32768	2140	7340	-1840	10141	658	-32768	-16424	21416	-2678	-1325	913	-27464	-29472	32767	215	3114	1568	-32768	-24436	-18192	4507	-32768	32767	-5720	-16120	-32768	-693	-32768	30957	13476	-2200	-6340	-32768	-14975	-5550	145	125	2
-32768	-32768	3312	2390	8275	2194	-12920	-31984	32767	-523	775	2832	-18376	-31648	32767	1083	1447	-1591	-32768	-32768	-32768	13715	-26783	32767	-20792	-10416	-32768	-18314	-32587	17163	-2972	8568	8984	-10314	-15518	2684	166	234	2
-32768	-17088	-6132	11954	8544	1577	11960	-19488	24096	7571	5102	1543	-8768	-6296	32767	3356	-210	-178	-32768	-32768	-32768	2343	-17023	506	-784	-23608	-32768	-19846	-18545	-2952	-6104	6572	29604	-7530	-11443	6730	253	244	2
-32768	32767	32767	3234	5471	-984	-17096	27272	22816	8505	6564	954	3560	2768	22168	-63	-971	586	-32768	-32768	-32768	2195	-7219	-22633	22192	-21816	-32768	13184	16705	-2823	5272	-6480	18608	30615	11513	3386	0	207	2
-32768	17260	32767	-6807	917	1475	-32768	32767	13456	-1331	5090	1107	-13304	17216	16208	-1144	-2995	1123	-32768	-16444	-31892	4065	10597	-16047	4644	-15032	-32768	25272	32767	-4353	740	-32168	-23784	32767	32767	-2529	23	55	2
-32324	-7044	32767	-6990	-1659	3250	-30984	11592	5168	-9260	3128	946	-22424	25608	21592	-964	-3720	1806	-32768	30612	28688	-6658	26696	-19174	-11264	-4144	26088	32767	28948	-8333	-1860	-12708	-29824	19298	23073	-10681	253	245	2
-28268	-26552	20796	-5782	-3757	3566	-24176	-2136	1816	-10834	1445	-356	-14504	17672	1480	-2719	-3091	592	20188	32767	12984	16646	32767	-32768	-32768	32767	19812	3785	32767	27035	-32768	32767	32767	11600	-22890	-6972	0	95	2
-29624	-28444	17336	-3522	-4966	3437	-24680	-15448	-7176	-7320	480	96	-30912	-9464	-3872	-3474	-3278	-354	-32768	32767	-32768	-10591	32767	-32768	-32768	-32768	-32768	-32768	32767	-23103	-32768	6936	-32768	-3675	16065	10091	254	0	2
-20168	-25916	17252	-2569	-4705	2413	-32768	-15216	-13456	-4303	362	-841	-32768	-29184	-12200	-1433	-3682	-1729	-3592	-32768	19912	-15273	-6201	-25422	-1564	16840	3668	-6042	28367	-8735	-12632	-21024	-23772	-11219	23747	9652	253	228	2
-20636	-29768	15652	-797	-4795	1269	-19336	-16336	-28768	-410	-917	-464	-32768	-22496	-19424	2952	-5032	-2284	-16272	1560	6896	-2340	11219	-3969	2308	484	-7876	32767	29265	2188	7044	-12604	-23888	30467	10524	-10464	1	50	2
-22836	-26056	12492	596	-5768	-1079	-15984	-11592	-26320	3560	-1706	-812	-32768	-18632	-12032	5203	-5856	-3790	-17184	-2000	8448	738	7588	-5010	-19016	532	-21984	13891	32767	-8963	-30340	32767	-29440	19946	31725	-27942	253	58	2
-18024	-14756	9900	459	-6346	-3023	-15928	-584	-28792	6804	-3699	-1268	-32768	-3440	-25752	1169	-4339	-1984	-17664	6444	9148	16	6704	-4456	-31260	-11284	-26424	-1450	13992	-7743	-32768	12024	-26320	-11553	26579	-6097	0	135	2
-21808	-9084	11808	-1188	-6587	-4238	-18752	2064	-30144	6435	-5518	-1749	-32768	4304	-32664	-348	-5011	-2229	-17176	6480	14216	4009	5253	-5838	-29976	-1180	-20616	-9874	10075	-14408	-32768	14944	-13016	-9745	30787	-16501	49	0	2
-31612	-10348	14552	-2449	-7361	-5070	-11888	9904	-27568	2947	-7339	-1658	-17648	9424	-28200	-503	-2695	-1939	-15876	15344	26116	-4448	22333	-14445	-32768	-14684	-10900	3649	-401	-5534	-32768	5752	4404	-18865	28597	-13130	0	242	2
-32768	-13876	13756	-2364	-8006	-5118	-8656	5624	-29152	-511	-8492	-2551	-3096	12928	-22448	-996	-716	-1329	-3512	4772	27736	-1551	32767	-19410	-32768	-20960	2928	7662	-1002	-2440	-32768	-9204	12840	-25664	32767	-16993	129	243	2
-32768	-12068	6712	-950	-7903	-6117	-8672	4896	-29352	-608	-8585	-2746	14368	9888	-21976	-2678	1355	-622	-17192	5620	21732	12084	32767	-12535	-32768	-12356	6140	9625	-2536	4520	-32768	-11952	16080	-30954	32200	-21699	208	223	2
-32768	280	2652	-728	-6744	-7154	-5272	4168	-30200	935	-7758	-3915	17872	7944	-16424	909	1304	293	-32768	14632	18264	18368	32767	-16926	-32768	12092	25376	11341	-7030	4002	-32728	3064	32767	-10320	27049	-9214	253	242	2
-32768	19664	-9704	-1524	-5826	-6722	-7376	-5168	-32768	3587	-5869	-3612	7112	1544	-3408	2980	-825	483	-32768	7516	2040	3512	32767	-19078	-29528	25492	23552	-19424	3435	-9889	-11764	1848	32767	774	13432	2039	238	119	2
-32768	22360	-28768	-2225	-4783	-3972	-18144	3984	-32768	5643	-3533	-1926	-152	-5472	3464	2345	-1335	-497	-840	32767	-8244	-30379	32767	-25636	52	10916	27864	-32768	17954	-20437	-6908	4532	32767	-8783	-9629	-115	253	92	2
-32768	24496	-32768	-625	-3122	-529	-5128	24744	-32768	2414	-1291	-307	-2616	-7768	16872	2169	-1091	-1103	-32768	-15968	15908	-32768	32767	-21186	-14316	-3692	-4056	-32768	32767	-15609	4716	-4284	32767	14576	-4715	-10296	254	82	2
-32768	27388	-32768	-179	-444	719	9504	20856	-32768	-3382	689	-431	3864	1144	12608	-90	206	-1453	-32768	-19632	21916	-32768	32767	-16171	-32768	-32768	-3128	-19192	32767	-14536	-12548	-13916	-4580	14745	-12163	-10060	120	178	2
-32768	20444	-31328	-381	1977	561	5384	9432	-32768	-2975	2681	254	4056	11912	2016	-3723	1723	-427	-32768	-2876	31884	32767	7278	-4342	-32768	-19680	4328	32767	32767	-9041	-25968	-17956	5624	3039	-22501	-4244	0	160	2
-28088	21616	-11496	-75	3046	1091	872	14776	-21800	-1535	3545	864	3664	20552	-15672	-4625	4007	1387	-29520	29116	26656	32767	-10605	-17058	-30752	-1540	5768	32767	32767	-6075	-20440	-20824	6076	1988	-23034	-2535	253	89	2
3768	27980	22700	-1055	4516	3951	-9728	9552	11896	-3268	1938	978	-776	19736	-12128	-2020	3120	2364	-25068	29872	17136	32767	-24554	-25881	-23292	3092	6760	32767	32767	551	-15000	-15912	7656	15514	-28554	-7350	74	16	2
-32768	-32768	-32768	2000	13602	7037	-32768	-25504	-32768	4065	6112	-3908	-32768	-32768	32767	-1865	-22	-4333	-21848	30800	15864	32767	-32242	-19061	-29176	6324	-8948	24705	29563	4124	-32768	22852	-3592	32767	-20281	-5332	254	102	2
32767	6980	32767	-790	4182	-587	-26992	32767	-32768	7091	13267	210	-32768	15032	-32768	1832	1393	-640	-8296	32767	15576	9981	-30863	-13353	-24580	4856	-12732	13823	7068	3349	-32768	22144	-7380	29852	-26502	-537	253	116	2
-19984	2464	6872	-416	1204	-1808	-10720	24144	-7112	-6997	3296	-132	14896	26640	-11352	-3239	1705	568	-8436	28932	13692	-12790	-32768	-1478	-16056	11864	-25088	-10640	-9824	6137	-32768	22960	-11244	19370	-29079	4547	96	0	2
-12036	-5840	6512	538	1228	558	32767	-29024	-32768	-4437	4728	1043	8880	-328	-28936	-3610	2334	3172	-14052	15320	10232	-15519	-32768	19590	-11672	-1336	-19484	-28743	-30796	5165	-32768	3656	-19168	-18191	-32768	22049	253	0	2
-15348	2856	13156	671	897	605	-28288	-7128	-32768	170	2940	-263	-32768	-32768	-32768	-1233	2808	1733	-12112	5640	11116	-405	-32768	32767	-27248	10220	-32768	-20410	-32768	227	-32768	-2404	-25664	-14464	-32768	11124	253	244	2
-15336	-2680	17152	-5	884	800	-24488	8424	-26528	537	1641	968	-32768	-14632	-11480	-437	1772	2115	-20636	8508	12132	11194	-32768	32767	-6792	-12336	-21140	-11452	-32768	15546	-31988	-8432	-28152	-10049	-32768	13678	0	206	2
-14008	-6112	23580	127	2675	836	-32768	-5392	-14264	-450	1285	647	-32768	-23544	224	-188	4230	1851	-29772	13012	16304	11487	-32768	32767	-5044	-8068	-21964	13234	-32768	20832	-15820	-10600	-28540	340	-22353	15732	20	245	2
-6460	-2972	24988	38	4847	1165	-32768	3744	-6560	-23	754	888	-32768	-2816	2528	2100	3831	2424	-32768	10836	16692	11599	-32768	32767	-8980	-5192	-16140	27335	-32768	27081	-3288	-8168	-27168	4542	-7476	14357	253	246	2
