#Activity	standing 
#ActivityID	8 
#Date 09-27-15-51
acc_rf_x	acc_rf_y	acc_rf_z	gyro_rf_x	gyro_rf_y	gyro_rf_z	acc_rs_x	acc_rs_y	acc_rs_z	gyro_rs_x	gyro_rs_y	gyro_rs_z	acc_rt_x	acc_rt_y	acc_rt_z	gyro_rt_x	gyro_rt_y	gyro_rt_z	acc_lf_x	acc_lf_y	acc_lf_z	gyro_lf_x	gyro_lf_y	gyro_lf_z	acc_ls_x	acc_ls_y	acc_ls_z	gyro_ls_x	gyro_ls_y	gyro_ls_z	acc_lt_x	acc_lt_y	acc_lt_z	gyro_lt_x	gyro_lt_y	gyro_lt_z	EMG_r	EMG_l	act
-8732	-2836	13912	120	-48	-172	-15580	2200	-4404	125	-1	4	-16360	-772	344	145	-117	214	-7816	4124	13472	-72	189	-243	-16184	-360	-4120	71	-4	129	-16464	516	332	253	-40	34	126	127	8
-8800	-2908	13904	151	-53	-159	-15540	2236	-4580	63	24	-3	-16356	-732	236	30	-125	207	-7844	4092	13388	-91	130	-222	-16244	-252	-4016	174	19	157	-16392	600	592	329	33	13	123	127	8
-8744	-2896	13932	145	-35	-103	-15524	2232	-4416	33	-30	-27	-16312	-812	328	10	-141	263	-7800	4136	13268	-89	160	-183	-16144	-288	-3932	219	-34	155	-16428	628	632	345	13	24	128	127	8
-8800	-2904	13900	126	-71	-152	-15600	2236	-4416	21	-27	-28	-16288	-744	496	67	-75	244	-7816	4092	13288	-82	155	-239	-16144	-180	-3924	243	20	162	-16380	600	720	336	1	38	125	127	8
-8824	-2856	13992	120	-105	-142	-15572	2264	-4408	47	-23	-23	-16364	-748	412	-4	-69	222	-7780	4216	13448	-114	155	-233	-16140	-236	-3980	136	91	150	-16412	688	636	248	-86	44	127	127	8
-8784	-2916	13952	112	-69	-156	-15532	2228	-4536	27	-48	-62	-16308	-756	488	-24	-118	227	-7824	4152	13372	-89	192	-221	-16164	-300	-4084	-23	78	130	-16424	628	352	191	-43	4	126	127	8
-8828	-2844	14004	106	-26	-157	-15536	2208	-4316	-40	-41	-38	-16352	-820	380	46	-75	222	-7780	4056	13308	-67	179	-243	-16132	-356	-4144	-38	36	127	-16300	520	416	163	-34	19	129	127	8
-8768	-2932	13880	129	1	-121	-15564	2264	-4496	-99	-57	-20	-16348	-704	280	-64	-103	253	-7832	4108	13468	-94	172	-256	-16192	-264	-4168	-20	-12	118	-16428	616	284	163	32	-13	127	127	8
-8804	-2840	13984	108	-85	-143	-15548	2316	-4440	-75	-93	-71	-16300	-760	528	-39	-124	246	-7856	4064	13340	-80	156	-189	-16180	-176	-4156	8	-33	135	-16344	604	468	136	57	-17	129	127	8
-8732	-2944	13944	129	-72	-148	-15504	2180	-4464	-126	-84	-46	-16352	-764	272	-68	-190	251	-7820	4208	13344	-64	165	-215	-16128	-240	-4068	45	-59	147	-16452	636	640	130	-2	29	129	127	8
-8720	-2896	14020	90	-99	-175	-15564	2196	-4340	-62	-92	-54	-16280	-824	616	-53	-160	212	-7776	4216	13248	-53	146	-221	-16188	-220	-3928	95	-47	107	-16424	608	516	163	-43	23	128	127	8
-8764	-2908	13864	87	-59	-183	-15532	2212	-4368	-67	-121	-40	-16456	-952	1456	71	-345	287	-7900	4128	13300	-107	136	-229	-16256	-224	-4124	60	-24	129	-16344	548	612	166	-36	45	127	127	8
-8808	-2900	13996	53	-51	-151	-15540	2200	-4356	-8	-105	-17	-16280	-780	540	84	-128	230	-7816	4100	13376	-99	139	-214	-16156	-348	-4020	36	-57	98	-16384	460	408	208	-36	21	124	127	8
-8756	-2932	14040	119	-56	-164	-15548	2228	-4296	-37	-92	-47	-16372	-824	556	-37	-124	240	-7828	4092	13344	-104	97	-192	-16200	-296	-4148	116	-79	135	-16388	536	480	232	1	28	127	127	8
-8804	-2876	14012	97	-35	-141	-15564	2192	-4352	38	-70	6	-16296	-816	568	117	-219	202	-7788	4144	13308	-75	178	-193	-16184	-224	-3928	100	-71	155	-16392	684	564	223	-21	45	130	127	8
-8744	-2916	13972	126	-73	-114	-15636	2168	-4340	49	-17	-22	-16272	-800	572	85	-186	190	-7860	4140	13456	-78	163	-243	-16140	-216	-3936	71	-80	159	-16420	588	600	228	-9	40	124	127	8
-8768	-2920	13908	119	-68	-175	-15588	2156	-4524	0	-54	-10	-16276	-768	408	63	-179	234	-7756	4108	13332	-116	155	-218	-16136	-384	-3840	69	-34	146	-16448	504	672	255	-46	18	124	127	8
-8732	-2900	13896	134	-72	-165	-15552	2268	-4468	-38	-66	-32	-16336	-808	444	49	-143	249	-7824	4088	13396	-50	161	-228	-16196	-200	-3984	151	50	149	-16416	592	788	273	-50	26	130	127	8
-8724	-2908	14092	125	-73	-150	-15556	2176	-4280	49	-45	-30	-16312	-724	480	69	-120	240	-7808	4112	13408	-84	157	-216	-16112	-260	-3956	77	46	168	-16468	548	708	197	-71	41	127	127	8
-8804	-2844	13928	147	-76	-125	-15584	2260	-4452	3	-52	-32	-16284	-716	520	55	-173	202	-7776	4104	13284	-76	162	-241	-16196	-248	-3952	119	68	152	-16388	652	604	187	-57	21	128	127	8
-8724	-2916	13988	159	-62	-149	-15592	2212	-4388	-134	-30	-25	-16304	-760	416	-72	-142	219	-7768	4100	13332	-68	165	-222	-16144	-316	-4028	40	89	188	-16376	688	484	181	1	33	128	127	8
-8752	-2900	13952	127	-17	-139	-15548	2200	-4464	-31	-69	-19	-16284	-656	500	-7	-158	204	-7820	4096	13372	-71	152	-182	-16188	-248	-4276	21	33	142	-16412	640	348	212	15	-32	130	127	8
-8804	-2880	13944	159	-40	-167	-15580	2276	-4444	-135	-33	10	-16324	-728	552	-57	-168	213	-7852	4124	13420	-68	157	-240	-16172	-208	-4064	41	50	170	-16384	560	340	163	93	3	128	127	8
-8748	-2916	13980	118	-55	-142	-15588	2228	-4396	-115	-82	-40	-16344	-776	436	-94	-179	258	-7856	4108	13372	-87	163	-232	-16120	-220	-4140	87	-53	147	-16432	616	472	132	15	54	126	127	8
-8772	-2932	13960	134	-17	-136	-15480	2252	-4456	-79	-98	-23	-16344	-808	364	-64	-159	229	-7828	4088	13304	-95	157	-265	-16120	-272	-4132	27	-1	134	-16372	592	332	125	-66	-5	123	127	8
-8776	-2832	13852	136	-45	-182	-15552	2252	-4468	-60	-91	-47	-16320	-672	416	-33	-172	225	-7816	4116	13352	-102	126	-234	-16120	-320	-4108	29	-47	141	-16364	632	344	155	-101	2	128	127	8
-8696	-2856	13844	120	-52	-153	-15544	2252	-4328	-107	-91	-73	-16292	-732	536	-11	-190	188	-7848	4136	13296	-96	126	-217	-16148	-188	-4168	27	-63	143	-16440	564	488	170	-87	-6	126	127	8
-8820	-2812	14040	161	-77	-144	-15536	2200	-4284	-74	-92	-35	-16332	-864	444	-25	-180	190	-7860	4076	13360	-88	135	-245	-16160	-232	-4108	93	-45	157	-16412	604	576	159	-80	43	128	127	8
-8796	-2896	13984	132	-83	-182	-15560	2272	-4348	16	-100	-64	-16268	-752	560	57	-141	203	-7840	4076	13404	-94	151	-230	-16148	-284	-4128	51	-52	110	-16404	668	624	180	-81	68	126	127	8
-8884	-2824	13940	120	-14	-136	-15572	2240	-4428	-52	-83	-57	-16292	-804	428	36	-111	211	-7772	4104	13380	-62	155	-209	-16132	-212	-3824	24	-59	134	-16384	668	592	176	-89	51	126	127	8
-8748	-2920	13904	133	-105	-165	-15552	2244	-4272	-28	-103	-52	-16288	-780	456	103	-150	225	-7824	4160	13328	-99	129	-242	-16188	-260	-3972	108	-27	96	-16376	640	500	236	-111	36	124	127	8
-8764	-2864	13904	149	-118	-169	-15552	2280	-4396	-28	-132	-36	-16336	-720	548	153	-145	199	-7820	4124	13320	-100	111	-214	-16160	-256	-4060	132	-44	102	-16388	632	508	266	-108	-1	126	127	8
-8708	-2944	13956	129	-48	-178	-15564	2200	-4304	18	-89	-35	-16328	-672	516	85	-160	205	-7752	4140	13364	-78	113	-233	-16260	-164	-4140	66	-76	76	-16484	652	576	270	-55	9	127	127	8
-8752	-2888	13932	125	-53	-152	-15632	2288	-4400	-26	-61	-42	-16228	-720	580	47	-217	173	-7796	4076	13364	-80	171	-201	-16096	-268	-4140	71	-33	96	-16380	652	340	210	-28	14	127	127	8
-8788	-2896	13980	132	-77	-150	-15612	2240	-4352	-72	-76	-53	-16308	-748	436	1	-206	128	-7860	4168	13288	-112	159	-197	-16128	-196	-4088	147	-113	109	-16304	688	476	225	1	-12	129	127	8
-8728	-2904	13804	114	-105	-174	-15568	2224	-4456	-44	-87	-20	-16316	-740	428	-70	-159	201	-7872	4148	13248	-78	107	-221	-16196	-192	-3936	73	-97	99	-16384	692	600	174	-63	17	124	127	8
-8800	-2816	13844	160	-103	-165	-15588	2224	-4464	-71	-89	-76	-16300	-848	560	67	-150	171	-7820	4168	13368	-126	143	-235	-16132	-260	-4020	127	-41	71	-16444	584	736	188	-170	22	126	127	8
-8712	-2956	14008	156	-91	-164	-15612	2196	-4116	-132	-71	-35	-16076	-672	-380	35	44	177	-7840	4148	13284	-112	130	-233	-16148	-240	-4088	71	-82	121	-16380	512	608	164	-176	16	127	127	8
-8836	-2952	13944	130	-68	-156	-15532	2264	-4344	64	-101	-72	-16200	-732	752	172	-215	174	-7800	4128	13264	-77	108	-194	-16244	-292	-4144	65	-60	96	-16392	636	468	212	-92	15	129	127	8
-8716	-2900	13992	124	-61	-163	-15612	2200	-4188	150	-12	-59	-16320	-644	596	77	-191	153	-7852	4132	13372	-132	140	-223	-16252	-336	-4088	100	-82	85	-16428	668	500	191	-32	1	124	127	8
-8748	-2904	14024	157	-80	-148	-15584	2220	-4480	25	-91	-42	-16364	-872	384	22	-120	155	-7900	4072	13376	-88	151	-244	-16144	-316	-4148	103	-110	114	-16436	628	464	199	3	9	128	127	8
-8792	-2912	13924	107	-39	-122	-15600	2248	-4380	-37	-40	-55	-16284	-836	368	2	-161	183	-7848	4120	13336	-121	154	-235	-16184	-280	-3920	116	-105	99	-16396	596	636	247	9	15	126	127	8
-8712	-2828	13928	121	-88	-161	-15524	2228	-4336	36	-71	-86	-16292	-756	564	12	-191	189	-7828	4144	13340	-115	126	-206	-16128	-220	-3856	145	-130	111	-16352	564	632	256	-90	16	124	127	8
-8668	-2908	13912	126	-129	-154	-15636	2260	-4308	-31	-66	-87	-16356	-768	704	26	-216	170	-7760	4072	13428	-103	116	-209	-16184	-232	-3912	169	-77	134	-16352	680	804	256	-205	26	127	127	8
-8772	-2892	14016	133	-58	-138	-15532	2188	-4372	14	5	-76	-16260	-884	624	172	-200	143	-7840	4140	13364	-86	144	-233	-16124	-204	-3900	23	-25	64	-16504	660	632	199	-170	44	126	127	8
-8824	-2852	13980	114	-53	-147	-15544	2236	-4364	138	-31	-51	-16280	-860	460	229	-190	123	-7820	4036	13308	-96	141	-210	-16140	-272	-4072	47	4	114	-16364	576	540	257	-145	47	125	127	8
-8788	-2872	13964	150	-98	-110	-15616	2204	-4268	161	-14	-25	-16304	-792	624	246	-149	146	-7824	4104	13396	-100	158	-245	-16204	-264	-4128	47	-32	107	-16428	600	420	251	-71	24	124	127	8
-8724	-2912	13904	105	-49	-123	-15588	2196	-4396	160	-56	-63	-16320	-736	344	156	-58	157	-7824	4012	13392	-103	164	-202	-16204	-216	-4152	124	-34	98	-16344	624	424	294	29	0	128	127	8
-8784	-2832	13960	105	3	-163	-15608	2292	-4428	83	-46	-41	-16328	-776	416	108	-131	207	-7848	4072	13364	-88	164	-252	-16172	-216	-3940	161	-97	89	-16388	536	672	310	-44	25	125	127	8
-8768	-2900	14028	119	-49	-134	-15652	2224	-4456	113	-84	-89	-16336	-784	460	131	-143	165	-7852	4180	13312	-82	152	-225	-16180	-280	-4004	240	-77	107	-16348	680	616	307	-69	31	124	127	8
-8676	-2876	14000	118	-73	-133	-15484	2244	-4392	81	-73	-97	-16360	-748	448	71	-115	219	-7840	4152	13332	-102	144	-223	-16156	-144	-4004	201	-73	117	-16460	720	676	307	-102	1	124	127	8
-8752	-2912	14004	151	-68	-144	-15588	2304	-4352	-5	-104	-78	-16312	-816	612	138	-155	149	-7808	4120	13416	-102	156	-246	-16240	-248	-4032	99	-77	99	-16396	636	536	305	-111	17	123	127	8
-8740	-2904	13912	104	-123	-143	-15536	2216	-4308	35	-48	-39	-16292	-816	720	146	-142	133	-7828	4064	13356	-83	178	-269	-16224	-276	-4124	60	-55	143	-16404	528	556	253	-54	8	127	127	8
-8748	-2888	13920	168	-92	-133	-15552	2156	-4408	84	-8	-33	-16280	-792	540	73	-156	180	-7884	4108	13364	-78	171	-215	-16100	-324	-4080	145	-94	77	-16404	496	564	267	-27	-8	127	127	8
-8752	-2864	13908	142	-66	-125	-15656	2300	-4292	45	-47	-84	-16316	-796	288	22	-125	185	-7820	4144	13348	-98	127	-200	-16140	-252	-4020	126	-92	137	-16368	612	600	248	-73	-16	127	127	8
-8828	-2816	13940	131	-53	-154	-15600	2192	-4500	34	-87	-63	-16248	-768	400	69	-139	182	-7764	4156	13296	-91	110	-244	-16164	-256	-3988	137	-71	130	-16420	640	756	267	-75	17	125	127	8
-8792	-2920	13944	130	-77	-159	-15612	2164	-4448	5	-53	-75	-16300	-792	428	119	-116	197	-7804	4144	13316	-82	110	-212	-16196	-228	-3960	167	-17	97	-16380	672	724	256	-167	70	127	127	8
-8808	-2880	13924	155	-42	-163	-15504	2168	-4400	32	-118	-77	-16352	-864	604	119	-177	200	-7800	4076	13276	-112	115	-234	-16136	-308	-4004	130	8	97	-16416	680	636	253	-141	102	123	127	8
-8704	-2900	13876	160	-82	-181	-15568	2224	-4320	60	-78	-84	-16248	-836	592	145	-209	157	-7888	4104	13396	-115	174	-226	-16196	-280	-4092	87	-49	75	-16312	584	392	251	-97	32	125	127	8
-8740	-2856	13984	109	-71	-141	-15500	2176	-4352	31	-60	-44	-16296	-868	672	145	-151	180	-7832	4096	13456	-93	146	-218	-16196	-292	-4104	93	-33	112	-16364	608	448	290	10	37	128	127	8
-8784	-2940	14036	142	-54	-197	-15512	2176	-4364	-6	-65	-39	-16284	-844	500	5	-156	185	-7824	4104	13404	-90	146	-221	-16148	-220	-4076	105	-89	137	-16356	648	504	246	11	24	128	127	8
-8740	-2884	13940	143	-62	-145	-15532	2180	-4396	56	-68	-19	-16336	-800	480	111	-158	185	-7812	4112	13348	-100	117	-208	-16180	-156	-4040	103	-123	102	-16416	676	672	190	-24	39	127	127	8
-8752	-2864	13864	116	-63	-132	-15580	2228	-4304	-22	-83	-18	-16296	-812	476	78	-192	184	-7836	4068	13412	-54	100	-219	-16144	-228	-3832	116	-102	130	-16356	712	836	171	-83	74	123	127	8
-8764	-2908	13980	114	-82	-154	-15516	2148	-4396	-26	-55	-38	-16284	-848	648	69	-178	215	-7788	4100	13400	-86	122	-235	-16180	-240	-3916	87	-37	98	-16396	640	696	200	-113	56	126	127	8
-8692	-2916	13988	86	-39	-157	-15604	2160	-4212	45	-47	-36	-16308	-760	752	86	-202	196	-7776	4132	13380	-114	144	-239	-16216	-316	-4016	-38	-69	101	-16380	608	564	210	-48	37	129	127	8
-8728	-2864	13936	136	-92	-161	-15604	2240	-4432	-28	-50	-48	-16324	-756	488	79	-184	209	-7836	4096	13412	-80	170	-238	-16168	-340	-4100	24	-68	95	-16376	560	564	162	57	10	123	127	8
-8760	-2924	13980	104	-50	-185	-15536	2220	-4476	-88	-48	-55	-16336	-724	280	18	-134	189	-7828	4132	13320	-82	158	-230	-16248	-260	-3992	43	-120	139	-16400	656	564	135	46	29	128	127	8
-8752	-2888	13920	90	-45	-161	-15572	2224	-4464	-106	-89	-22	-16332	-764	288	7	-142	171	-7820	4084	13480	-95	106	-222	-16152	-224	-3880	28	-78	107	-16324	756	740	124	17	5	130	127	8
-8720	-2832	13940	103	-79	-138	-15564	2244	-4364	-68	-127	-39	-16320	-792	408	-26	-170	193	-7840	4116	13412	-126	126	-195	-16120	-268	-3888	42	-95	120	-16424	720	844	101	-56	5	125	127	8
-8712	-2864	13848	97	-38	-196	-15664	2236	-4368	-155	-125	-75	-16340	-748	612	-60	-198	234	-7804	4124	13340	-130	145	-209	-16224	-240	-3840	-51	-13	112	-16368	668	832	34	-60	15	129	127	8
-8808	-2844	13944	108	-68	-170	-15528	2232	-4244	-180	-95	-55	-16328	-744	728	-241	-255	189	-7804	4088	13436	-104	150	-221	-16224	-260	-3972	-99	20	83	-16432	584	692	-21	-47	-18	126	127	8
-8708	-2860	13944	80	-32	-168	-15584	2240	-4216	-181	-104	-96	-16332	-772	740	-189	-274	148	-7780	4096	13448	-133	168	-242	-16176	-312	-4076	-138	-12	133	-16344	584	452	-66	22	-22	126	127	8
-8704	-2884	14032	120	-52	-156	-15556	2192	-4284	-211	-50	-84	-16260	-820	548	-237	-199	183	-7804	4144	13392	-103	203	-227	-16156	-224	-3968	-135	-18	97	-16392	616	420	-106	57	-26	126	127	8
-8684	-2924	13948	115	-71	-191	-15596	2076	-4288	-210	-59	-65	-16304	-904	476	-239	-224	165	-7892	4100	13348	-73	114	-243	-16120	-216	-3956	-80	-52	128	-16316	712	648	-38	68	-22	125	127	8
-8748	-2896	13900	147	-118	-164	-15572	2112	-4212	-239	-50	-43	-16304	-900	548	-210	-249	184	-7800	4116	13296	-96	131	-228	-16176	-300	-3908	-19	-12	111	-16360	608	772	-18	-19	7	126	127	8
-8804	-2952	14044	141	-95	-147	-15568	2200	-4332	-211	-47	-61	-16316	-880	568	-111	-171	198	-7788	4100	13256	-98	108	-235	-16212	-268	-3920	-21	7	121	-16420	524	704	32	-24	7	126	127	8
-8744	-2944	13960	144	-64	-168	-15560	2216	-4328	41	-33	-42	-16300	-924	752	-30	-145	197	-7820	4144	13324	-79	146	-253	-16240	-336	-3944	15	14	145	-16420	460	684	144	-48	12	124	127	8
-8744	-2924	13948	131	-110	-129	-15724	2324	-4260	-72	-21	-36	-16304	-916	564	-4	-101	220	-7884	4096	13368	-100	186	-232	-16216	-476	-4036	78	21	149	-16408	448	500	286	25	-20	131	127	8
-8716	-2928	13996	150	-93	-142	-15568	2152	-4260	-27	-11	-10	-16192	-948	536	108	-45	245	-7744	4064	13332	-50	207	-220	-16180	-272	-4056	190	0	127	-16412	532	412	431	81	14	127	127	8
-8728	-2940	14000	138	-14	-123	-15528	2216	-4408	58	-3	-23	-16256	-936	372	345	-15	213	-7848	4100	13368	-86	154	-216	-16164	-168	-4052	234	-79	129	-16240	648	356	458	41	76	128	127	8
-8788	-2876	13996	154	-25	-127	-15552	2284	-4456	100	-50	28	-16256	-756	324	321	-48	220	-7816	4092	13384	-106	176	-210	-16192	-208	-3988	247	-53	144	-16368	752	600	432	5	82	127	127	8
-8676	-2888	13952	145	-102	-112	-15576	2356	-4408	80	-61	6	-16368	-700	644	371	-44	221	-7716	4140	13312	-116	138	-185	-16176	-240	-3932	262	-68	132	-16372	760	556	397	-54	55	126	127	8
-8692	-2904	13968	136	-61	-136	-15596	2248	-4316	73	-31	-9	-16360	-636	756	330	-8	207	-7776	4084	13396	-94	138	-240	-16228	-172	-3956	124	-28	137	-16480	748	652	301	-53	-8	118	127	8
-8716	-2844	14048	173	-110	-148	-15556	2336	-4300	34	-44	-43	-16432	-676	664	223	-38	211	-7864	4180	13376	-91	164	-220	-16124	-256	-4016	130	-82	88	-16360	736	660	180	-15	-24	129	127	8
-8776	-2932	13944	157	-90	-167	-15600	2172	-4284	-43	-8	-45	-16100	-832	156	219	32	155	-7840	4168	13300	-126	131	-237	-16184	-212	-3988	48	-56	92	-16324	700	696	180	12	-1	127	127	8
-8724	-2828	14000	135	-111	-143	-15556	2272	-4372	-23	-18	-68	-16380	-812	484	105	-91	178	-7788	4160	13280	-121	153	-208	-16224	-276	-3968	60	-37	49	-16448	656	616	155	68	-29	125	127	8
-8768	-2872	14004	132	-125	-178	-15524	2156	-4256	-124	-39	-32	-16332	-900	876	106	-107	156	-7868	4148	13372	-95	131	-230	-16228	-328	-3916	82	7	62	-16372	492	796	147	30	-13	130	127	8
-8692	-2892	14008	100	-77	-201	-15608	2156	-4408	-459	-42	-75	-16312	-812	660	171	-135	179	-7820	4120	13492	-108	161	-239	-16112	-316	-3988	76	37	151	-16392	524	780	186	-55	-47	127	127	8
-8684	-2956	13996	101	26	-89	-15508	2216	-4212	-740	-41	-131	-16132	-820	788	-33	-236	174	-7840	4084	13368	-91	146	-222	-16148	-340	-3968	49	26	96	-16404	508	740	227	-23	11	129	127	8
-8744	-2896	14012	72	1	-164	-15460	2220	-4168	-406	45	-17	-16200	-864	596	4	-261	151	-7836	4060	13260	-66	154	-250	-16164	-264	-3956	104	59	79	-16412	520	468	246	12	17	130	127	8
-8724	-2848	14036	95	-68	-157	-15640	2136	-4176	-260	126	-21	-16188	-1032	992	247	-293	164	-7764	4044	13456	-102	139	-244	-16224	-224	-4112	80	14	115	-16356	592	540	335	83	30	122	127	8
-8712	-2904	14000	130	-82	-166	-15568	2144	-4336	-65	215	-14	-16172	-864	368	48	-124	245	-7856	4064	13412	-95	130	-197	-16152	-388	-4128	160	-69	118	-16416	520	452	420	80	-14	128	127	8
-8716	-2860	14000	172	-50	-174	-15620	2276	-4364	25	180	21	-16272	-720	64	180	0	206	-7844	4092	13428	-79	126	-234	-16212	-204	-4112	231	-66	128	-16408	624	432	466	-4	-7	127	127	8
-8724	-2848	14012	158	-126	-151	-15600	2340	-4508	64	169	14	-16348	-708	324	234	-89	166	-7824	4084	13436	-79	121	-217	-16132	-328	-4000	271	-94	113	-16368	720	660	467	-29	1	124	127	8
-8648	-2828	14052	134	-99	-140	-15668	2324	-4380	222	145	-12	-16436	-824	316	362	-72	188	-7736	4124	13352	-85	134	-243	-16196	-264	-3836	243	-47	105	-16448	716	772	403	-19	22	125	127	8
-8764	-2868	13944	146	-93	-166	-15612	2276	-4588	410	82	31	-16424	-776	332	341	-23	206	-7800	4108	13464	-104	148	-238	-16156	-184	-3880	241	-25	71	-16324	684	764	411	-31	17	127	127	8
-8688	-2892	13984	127	-61	-150	-15552	2280	-4516	510	-12	-27	-16268	-692	356	410	51	226	-7836	4160	13304	-89	190	-215	-16180	-344	-3960	225	-51	90	-16396	636	636	397	14	14	124	127	8
-8704	-2892	14096	96	-110	-150	-15572	2336	-4536	360	-13	-54	-16308	-696	388	206	60	222	-7816	4120	13260	-101	183	-236	-16160	-316	-3992	203	-13	108	-16360	624	668	399	100	-33	126	127	8
-8760	-2840	14020	122	-82	-189	-15600	2216	-4388	266	-6	-70	-16244	-760	456	142	95	193	-7816	4124	13396	-94	170	-225	-16160	-280	-4012	217	-4	93	-16376	688	636	377	132	-31	128	127	8
-8752	-2904	13948	135	-21	-155	-15508	2168	-4420	353	1	-25	-16252	-752	584	159	-4	198	-7852	4172	13404	-70	168	-210	-16112	-252	-3788	222	-6	60	-16368	668	728	303	58	-71	127	127	8
-8772	-2928	13976	124	-43	-156	-15540	2304	-4292	200	0	-45	-16336	-784	608	98	-70	200	-7788	4124	13280	-63	126	-240	-16088	-248	-3888	132	28	54	-16424	684	752	202	-32	-24	124	127	8
-8736	-2912	14012	117	-48	-164	-15620	2248	-4304	224	18	-77	-16312	-832	596	95	-85	177	-7760	4060	13436	-101	117	-231	-16240	-320	-3984	115	44	71	-16332	628	792	170	-72	-20	130	127	8
-8748	-2892	13984	104	9	-149	-15656	2240	-4520	231	18	-69	-16360	-816	472	33	-46	170	-7780	4020	13436	-116	126	-278	-16208	-248	-3948	95	83	82	-16336	608	592	149	6	-25	125	127	8
-8692	-2948	14004	133	-10	-145	-15556	2220	-4480	102	-7	-51	-16272	-824	400	-11	11	222	-7800	4088	13336	-104	140	-241	-16204	-356	-4032	0	36	85	-16388	544	592	141	65	-33	125	127	8
-8748	-2800	14000	116	-36	-154	-15552	2180	-4528	-6	-45	-28	-16264	-924	496	-36	-28	187	-7816	4112	13436	-104	157	-257	-16164	-324	-4084	128	23	60	-16468	512	376	193	131	-37	128	127	8
-8768	-2912	13980	137	-50	-179	-15644	2184	-4452	98	-35	-42	-16352	-900	492	41	-67	215	-7816	4096	13372	-115	170	-252	-16112	-320	-4008	110	18	120	-16424	548	580	229	115	-16	126	127	8
-8728	-2876	14008	135	-28	-155	-15584	2108	-4344	297	13	-22	-16336	-820	644	98	-82	198	-7808	4108	13324	-79	157	-234	-16144	-344	-3932	131	-23	101	-16420	576	588	265	13	-28	125	127	8
-8692	-2928	13964	144	-31	-163	-15596	2272	-4416	93	-18	-53	-16268	-820	676	90	-57	208	-7776	4068	13320	-62	137	-210	-16100	-344	-3852	146	24	117	-16396	600	700	283	-30	26	128	127	8
-8692	-2948	13968	125	-25	-161	-15532	2204	-4480	192	48	-49	-16248	-932	496	106	-91	205	-7780	4096	13416	-72	139	-233	-16224	-336	-3900	81	53	149	-16432	532	608	247	-27	20	128	127	8
-8716	-2872	13952	139	-28	-139	-15620	2204	-4416	167	-18	-23	-16360	-868	240	123	-47	212	-7884	4100	13400	-114	149	-225	-16208	-356	-4072	93	35	127	-16468	584	436	262	-5	26	127	127	8
-8832	-2836	13992	160	33	-125	-15520	2232	-4612	91	-14	-22	-16336	-756	300	97	-40	252	-7796	4120	13452	-49	182	-232	-16172	-396	-4180	120	17	163	-16368	624	456	245	12	4	127	127	8
-8748	-2852	14036	138	-96	-136	-15572	2196	-4476	13	-46	-35	-16228	-772	296	134	-117	208	-7820	4132	13328	-81	159	-234	-16152	-240	-4016	125	-53	114	-16420	604	560	284	37	23	129	127	8
-8776	-2816	13996	117	-46	-119	-15492	2220	-4424	63	-84	-87	-16324	-732	332	34	-104	230	-7804	4092	13340	-79	114	-221	-16160	-284	-4112	137	-46	145	-16324	700	624	303	-34	2	127	127	8
-8772	-2848	14044	119	9	-130	-15548	2204	-4528	132	-89	-46	-16352	-824	460	3	-87	229	-7812	4092	13344	-82	132	-212	-16132	-308	-3772	154	-13	129	-16404	584	668	328	-60	44	130	127	8
-8708	-2896	13988	94	-47	-163	-15544	2288	-4448	155	-97	-55	-16236	-748	320	138	-45	229	-7808	4064	13412	-100	150	-219	-16240	-312	-3944	95	-22	124	-16424	576	616	238	-79	53	128	127	8
-8812	-2880	13976	137	-46	-144	-15608	2260	-4528	62	-90	-69	-16412	-824	336	29	-68	308	-7800	4132	13428	-99	178	-225	-16124	-428	-4064	15	40	127	-16380	532	552	185	-30	32	123	127	8
-8712	-2832	13948	84	-31	-146	-15600	2124	-4344	75	-142	-42	-16356	-800	336	75	3	294	-7820	4088	13456	-47	160	-225	-16224	-280	-4128	124	-32	125	-16356	516	476	295	17	47	123	127	8
-8716	-2844	13996	110	4	-144	-15632	2224	-4340	78	-103	-31	-16352	-876	716	180	-40	288	-7804	4140	13312	-72	151	-213	-16156	-236	-4124	82	-5	128	-16384	632	492	262	30	18	125	127	8
-8860	-2820	13920	87	-2	-186	-15520	2120	-4456	-6	-156	-36	-16228	-856	516	67	-7	301	-7800	4060	13412	-125	136	-229	-16144	-304	-3996	170	-22	126	-16428	620	708	299	-4	34	125	127	8
-8740	-3024	13908	124	-40	-152	-15528	2192	-4452	28	-129	-75	-16284	-784	316	-50	8	269	-7816	4072	13348	-68	154	-209	-16152	-352	-4020	127	-36	114	-16428	580	744	256	-42	23	125	127	8
-8740	-2968	13964	107	-43	-121	-15608	2052	-4232	24	-95	-34	-16288	-860	524	29	-117	245	-7796	4088	13292	-88	176	-233	-16088	-296	-3912	121	-4	114	-16428	596	672	225	-58	34	122	127	8
-8672	-2868	13908	103	-32	-122	-15568	2228	-4184	-7	-26	-41	-16344	-812	580	50	-147	228	-7768	4080	13332	-87	131	-214	-16132	-236	-4076	-67	34	157	-16408	504	520	153	-40	60	127	127	8
-8700	-2920	13992	132	-10	-150	-15596	2192	-4532	118	-19	-23	-16280	-784	356	-26	-85	306	-7760	4148	13448	-106	148	-262	-16188	-340	-3976	89	6	166	-16360	556	420	184	10	39	126	127	8
-8716	-2932	13932	102	-30	-122	-15588	2164	-4548	29	-101	-30	-16332	-868	168	-89	-77	277	-7812	4112	13400	-84	178	-209	-16176	-344	-4076	62	-10	147	-16440	592	616	226	22	42	126	127	8
-8776	-2924	13932	104	-40	-113	-15588	2148	-4544	25	-130	-19	-16352	-896	388	-26	-87	268	-7824	4156	13372	-73	131	-220	-16104	-252	-3948	89	-32	165	-16420	576	580	245	41	20	127	127	8
-8808	-2900	13940	125	-48	-141	-15576	2196	-4392	6	-102	7	-16248	-904	688	58	-74	285	-7832	4120	13376	-68	157	-202	-16188	-312	-3984	144	-10	200	-16388	596	600	243	61	52	127	127	8
-8828	-2960	13956	138	-5	-170	-15488	2164	-4356	49	-62	15	-16296	-836	452	132	-92	286	-7828	4060	13388	-46	194	-220	-16172	-336	-3972	60	-6	216	-16356	520	684	232	-29	99	126	127	8
-8772	-2860	13832	136	-79	-129	-15500	2112	-4480	50	-29	-4	-16300	-824	456	80	-171	250	-7768	4184	13316	-64	145	-213	-16144	-252	-3928	74	9	209	-16356	580	592	219	-30	117	128	127	8
-8716	-2928	13988	157	-32	-157	-15608	2192	-4428	-50	-71	57	-16240	-804	428	39	-93	249	-7752	4076	13364	-86	168	-232	-16112	-352	-4116	25	16	216	-16364	576	548	210	-24	98	127	127	8
-8748	-2904	13960	131	-72	-113	-15592	2180	-4532	-28	-27	42	-16268	-816	292	61	-89	332	-7852	4080	13356	-56	185	-221	-16180	-272	-4120	23	-22	185	-16388	548	480	239	75	86	126	127	8
-8744	-2892	13936	146	-49	-132	-15604	2152	-4492	47	-103	18	-16304	-820	260	137	-40	306	-7796	4064	13424	-84	169	-239	-16136	-372	-3984	23	-24	224	-16412	564	400	235	60	115	126	127	8
-8636	-2876	13980	134	-79	-165	-15640	2288	-4560	125	-140	24	-16372	-724	164	108	4	285	-7780	4100	13312	-76	177	-200	-16144	-228	-4064	102	-67	208	-16412	604	528	286	-16	113	126	127	8
-8640	-2824	14060	148	-8	-112	-15588	2232	-4328	-45	-123	53	-16276	-716	416	131	-40	260	-7816	4108	13400	-78	147	-230	-16132	-372	-3960	91	-25	186	-16364	560	692	306	-1	145	127	127	8
-8664	-2792	14032	138	-86	-134	-15504	2172	-4276	-48	-83	58	-16276	-816	632	115	-53	287	-7776	4128	13284	-63	135	-229	-16172	-340	-3808	86	-17	219	-16392	528	680	301	14	87	128	127	8
-8744	-2868	14000	188	-47	-123	-15504	2276	-4444	-42	-21	32	-16348	-828	764	147	-237	340	-7832	4144	13312	-87	121	-202	-16184	-328	-3976	88	-27	239	-16424	540	604	287	-45	106	127	127	8
-8784	-2900	14120	148	-93	-143	-15496	2252	-4412	-83	-42	99	-16192	-832	412	71	-98	319	-7788	4116	13348	-56	177	-222	-16180	-308	-4052	62	-19	232	-16388	624	556	302	17	138	129	127	8
-8748	-2912	13876	166	-85	-155	-15572	2104	-4424	-16	-44	67	-16324	-824	388	128	-112	316	-7808	4064	13444	-33	155	-214	-16196	-304	-4152	32	8	239	-16408	652	532	282	89	126	129	127	8
-8756	-2920	13824	156	-10	-131	-15596	2280	-4440	12	-38	35	-16400	-840	452	148	-102	311	-7856	4096	13364	-80	150	-204	-16196	-272	-4036	22	-43	229	-16432	672	368	237	71	115	126	127	8
-8788	-2840	13872	149	-73	-123	-15520	2252	-4400	-45	-40	49	-16260	-608	516	90	-106	278	-7772	4136	13452	-72	160	-222	-16160	-236	-3996	93	-70	223	-16380	728	600	281	80	127	128	127	8
-8788	-2848	13876	158	-27	-120	-15580	2228	-4288	-100	-45	49	-16368	-584	492	109	-156	252	-7844	4144	13268	-69	133	-228	-16172	-208	-3956	32	-65	241	-16448	740	672	197	-8	122	126	127	8
-8752	-2892	14020	178	-52	-116	-15588	2292	-4352	-163	-46	27	-16288	-628	568	-6	-164	277	-7800	4140	13292	-65	93	-201	-16104	-308	-3964	44	-8	184	-16392	688	636	145	-53	98	124	127	8
-8800	-2864	13980	180	-89	-131	-15540	2316	-4412	-154	-32	46	-16344	-672	240	-87	-206	298	-7788	4140	13264	-90	123	-225	-16184	-300	-3984	-43	-35	194	-16380	600	752	151	-46	69	131	127	8
-8784	-2852	14020	151	-86	-100	-15536	2272	-4416	-310	-49	4	-16260	-728	356	-142	-239	250	-7840	4188	13384	-63	147	-195	-16212	-312	-3996	-44	6	200	-16376	628	448	137	8	43	127	127	8
-8744	-2876	13992	154	-87	-111	-15648	2184	-4424	-213	-22	28	-16304	-792	472	-180	-245	276	-7832	4132	13244	-28	163	-213	-16204	-236	-4044	-41	-18	180	-16356	664	528	135	24	96	127	127	8
-8748	-2868	14048	151	-23	-121	-15596	2192	-4400	-197	-66	62	-16356	-768	400	-145	-237	316	-7784	4124	13516	-77	182	-204	-16200	-308	-4008	14	-3	187	-16428	648	668	134	36	97	128	127	8
-8716	-2852	14052	132	-70	-137	-15564	2300	-4368	-64	-48	14	-16272	-580	404	-55	-210	279	-7808	4100	13296	-26	188	-208	-16196	-280	-3900	60	-16	201	-16408	760	748	151	4	109	126	127	8
-8736	-2860	13912	106	-22	-156	-15548	2252	-4316	-123	-77	8	-16320	-588	388	-112	-208	299	-7828	4132	13376	-28	214	-247	-16164	-256	-3900	-65	45	178	-16360	780	584	93	-9	112	126	127	8
-8788	-2812	14080	129	-30	-148	-15584	2336	-4428	-159	-93	-29	-16312	-656	492	-19	-241	260	-7792	4160	13324	12	239	-242	-16252	-248	-3976	-47	24	177	-16432	744	440	100	43	61	128	127	8
-8712	-2808	13972	120	-66	-156	-15584	2296	-4372	-148	-62	2	-16312	-704	272	-26	-130	208	-7864	4184	13280	-18	260	-214	-16204	-316	-4160	-61	-8	211	-16320	760	396	114	34	63	127	127	8
-8804	-2912	13988	118	-38	-122	-15564	2264	-4356	-160	-106	-41	-16268	-596	240	-157	-166	277	-7820	4092	13372	1	195	-233	-16096	-180	-4040	-32	-42	136	-16364	772	284	74	33	61	124	127	8
-8736	-2840	14012	113	-87	-134	-15588	2344	-4360	-221	-117	-34	-16348	-600	312	-270	-170	280	-7780	4232	13380	-75	188	-210	-16200	-192	-4136	-141	-22	160	-16408	660	324	59	0	22	128	127	8
-8824	-2820	13940	113	-56	-142	-15532	2344	-4256	-144	-102	-104	-16272	-604	480	-121	-199	212	-7880	4220	13388	-27	163	-190	-16288	-124	-3876	62	-69	113	-16424	756	440	28	90	21	128	127	8
-8676	-2928	13884	92	-56	-145	-15608	2304	-4360	-77	-122	-77	-16300	-692	388	-191	-152	246	-7840	4080	13320	-74	149	-221	-16204	-256	-3956	-117	-40	104	-16376	752	684	-51	50	43	127	127	8
-8764	-2828	14036	103	-67	-163	-15532	2256	-4260	-107	-147	-96	-16264	-660	516	-95	-172	242	-7812	4164	13396	-69	186	-230	-16204	-248	-3896	-101	-54	123	-16344	664	500	-43	84	52	128	127	8
-8728	-2788	13980	130	-66	-148	-15636	2312	-4324	-79	-126	-50	-16280	-816	728	-49	-104	243	-7772	4080	13404	-84	168	-258	-16088	-328	-3976	-119	14	110	-16324	624	664	-68	81	29	128	127	8
-8744	-2940	13976	135	-19	-165	-15536	2168	-4240	-25	-91	-29	-16240	-820	456	-16	-81	225	-7784	4084	13372	-42	164	-279	-16176	-320	-3988	-69	0	163	-16396	640	760	-14	23	36	125	127	8
-8752	-2896	14032	122	-58	-117	-15608	2220	-4468	43	-83	-41	-16292	-812	420	18	-60	237	-7856	4096	13364	-62	129	-218	-16116	-236	-3828	11	43	136	-16440	692	820	45	-16	57	127	127	8
-8744	-2876	13960	138	-73	-124	-15576	2284	-4420	-25	-66	-36	-16432	-832	1068	122	-349	291	-7832	4188	13320	-87	138	-208	-16192	-196	-3964	45	58	137	-16400	768	668	140	-64	33	129	127	8
-8788	-2856	13940	153	-99	-143	-15532	2216	-4384	-5	-129	-16	-16264	-704	416	159	-72	241	-7808	4148	13396	-89	136	-253	-16272	-244	-4036	63	88	159	-16420	732	492	299	22	26	128	127	8
-8736	-2888	13980	144	-92	-136	-15620	2288	-4288	164	-82	-45	-16480	-700	1156	200	-222	287	-7824	4184	13336	-90	172	-230	-16152	-244	-4096	121	69	173	-16352	684	384	329	79	2	124	127	8
-8736	-2892	13948	104	-48	-140	-15556	2336	-4364	69	-84	-46	-16308	-576	396	23	-54	310	-7824	4040	13352	-72	164	-232	-16180	-220	-4168	136	-2	162	-16348	684	112	417	109	1	126	127	8
-8760	-2848	14012	118	-23	-149	-15544	2220	-4356	32	-41	-67	-16308	-632	496	-21	-77	277	-7868	4096	13352	-65	155	-236	-16156	-200	-4144	144	-49	151	-16412	736	200	412	34	1	126	127	8
-8712	-2844	13972	152	-86	-156	-15580	2248	-4312	-1	-38	-59	-16304	-664	536	12	-138	232	-7828	4128	13360	-108	141	-216	-16156	-244	-4048	150	-66	98	-16356	772	292	316	-42	22	126	127	8
-8752	-2848	14012	97	-49	-152	-15580	2296	-4212	41	-59	-67	-16352	-816	428	52	-79	237	-7836	4160	13312	-96	93	-212	-16148	-152	-3908	149	-85	132	-16436	792	648	233	-95	43	127	127	8
-8724	-2840	13976	114	-24	-161	-15496	2216	-4320	57	-26	-30	-16244	-712	308	159	-26	198	-7800	4164	13368	-112	130	-249	-16152	-204	-3804	104	-50	61	-16480	692	716	154	-145	21	126	127	8
-8728	-2868	13944	114	-12	-152	-15632	2264	-4476	133	-24	-26	-16396	-728	336	241	-81	188	-7844	4172	13432	-117	134	-201	-16188	-240	-3908	76	-10	124	-16424	644	860	149	-101	30	127	127	8
-8768	-2816	14004	137	-58	-152	-15572	2276	-4372	83	-72	-29	-16244	-676	552	216	-74	174	-7848	4048	13300	-111	153	-197	-16212	-176	-3976	85	4	117	-16444	660	680	191	10	15	124	127	8
-8716	-2908	13916	111	-11	-166	-15588	2312	-4348	152	-46	-48	-16276	-608	424	226	-55	205	-7792	4124	13328	-106	152	-228	-16128	-228	-4036	93	46	120	-16360	684	592	226	91	14	126	127	8
-8752	-2816	13852	103	-45	-149	-15556	2388	-4404	26	-47	-11	-16348	-532	236	-21	-31	265	-7872	4120	13312	-84	148	-230	-16240	-196	-3956	129	8	160	-16432	756	404	278	103	2	123	127	8
-8732	-2900	14004	127	-51	-119	-15560	2300	-4264	-106	5	-102	-16260	-660	544	-116	-199	250	-7808	4164	13244	-122	158	-251	-16180	-236	-3880	128	1	158	-16432	752	508	321	37	-57	127	127	8
-8776	-2844	13988	96	-58	-162	-15600	2244	-4336	-30	-42	-65	-16364	-804	436	9	-120	201	-7820	4120	13356	-87	164	-250	-16148	-252	-4056	123	29	95	-16460	764	552	276	-1	-42	126	127	8
-8792	-2852	13944	112	-49	-204	-15484	2272	-4300	-6	-25	-57	-16284	-676	452	-80	-127	191	-7888	4160	13320	-99	137	-217	-16128	-192	-4020	103	29	122	-16332	792	556	231	-43	-37	124	127	8
-8760	-2876	13988	99	27	-159	-15600	2284	-4344	-44	30	-52	-16300	-676	348	-54	-76	172	-7820	4144	13264	-131	146	-249	-16180	-188	-3848	26	24	88	-16340	688	472	137	-25	-36	127	127	8
-8760	-2900	13896	107	7	-147	-15568	2260	-4336	38	-17	-60	-16312	-760	552	-24	-116	192	-7900	4084	13412	-121	154	-202	-16184	-240	-4132	50	16	91	-16444	676	480	134	21	-20	128	127	8
-8792	-2916	13948	107	6	-166	-15632	2328	-4328	11	-7	-88	-16316	-716	416	52	-107	185	-7848	4124	13336	-102	136	-208	-16160	-204	-4100	39	5	93	-16308	660	588	115	47	-24	129	127	8
-8784	-2888	13916	113	-58	-152	-15496	2284	-4400	40	4	-96	-16304	-720	556	79	-112	175	-7852	4140	13352	-104	157	-250	-16120	-276	-4044	25	3	80	-16372	624	472	101	57	-9	127	127	8
-8776	-2876	13888	108	-50	-127	-15596	2240	-4352	75	8	-35	-16336	-680	348	55	-110	147	-7840	4108	13200	-118	156	-218	-16156	-252	-4068	114	-28	119	-16392	664	612	160	31	-19	126	127	8
-8768	-2852	13904	166	-89	-179	-15596	2220	-4412	53	-39	-44	-16356	-736	452	-10	-112	183	-7860	4124	13272	-92	175	-214	-16128	-192	-3952	140	12	101	-16380	720	728	221	-6	-25	129	127	8
-8752	-2884	13804	107	-98	-144	-15624	2200	-4364	26	-5	-75	-16356	-688	336	-16	-84	176	-7832	4124	13420	-136	165	-235	-16140	-224	-3948	93	34	86	-16348	728	676	214	-4	-46	128	127	8
-8756	-2836	14064	111	-72	-164	-15560	2256	-4348	-27	-24	-52	-16224	-672	372	8	-17	177	-7828	4092	13436	-91	149	-238	-16228	-220	-3988	24	70	99	-16380	712	628	216	59	-61	125	127	8
-8700	-2924	13964	111	-52	-169	-15568	2180	-4336	-20	-13	-67	-16552	-672	972	49	-267	170	-7836	4088	13372	-104	138	-229	-16156	-196	-4116	93	12	71	-16420	640	516	149	48	-28	124	127	8
-8760	-2816	13928	145	-76	-139	-15524	2272	-4448	-41	-35	-85	-16340	-644	304	79	-68	186	-7900	4132	13408	-142	153	-243	-16064	-264	-4124	79	6	66	-16364	680	292	145	88	-55	127	127	8
-8828	-2852	13920	149	-74	-147	-15512	2296	-4448	-99	-53	-84	-16196	-576	-260	-88	46	197	-7780	4164	13352	-109	168	-240	-16100	-216	-4040	46	-4	91	-16384	696	412	110	27	-7	127	127	8
-8672	-2796	13964	124	-94	-144	-15548	2296	-4460	0	-42	-102	-16424	-756	644	64	-147	198	-7832	4200	13420	-114	140	-216	-16124	-300	-3992	82	18	111	-16408	636	552	104	-59	-2	127	127	8
-8744	-2908	13872	171	-121	-179	-15584	2248	-4396	-110	-69	-82	-16332	-712	244	41	-76	191	-7760	4132	13320	-136	123	-244	-16252	-256	-3988	54	-6	69	-16356	600	568	100	-92	-7	122	127	8
-8840	-2808	13880	135	-94	-166	-15500	2252	-4636	-118	-101	-102	-16384	-768	512	154	-77	189	-7808	4120	13300	-169	149	-236	-16232	-152	-4024	26	-6	88	-16364	660	408	101	-53	-4	127	127	8
-8752	-2968	13908	106	-122	-200	-15508	2156	-4464	41	-142	-79	-16460	-760	848	221	-312	184	-7860	4104	13332	-95	172	-194	-16200	-224	-4240	51	-4	45	-16436	616	268	135	82	-17	127	127	8
-8764	-2872	13932	96	-91	-195	-15608	2284	-4232	73	-106	-73	-16256	-844	140	220	-75	213	-7916	4120	13372	-98	150	-215	-16124	-288	-4208	92	-138	48	-16392	652	332	184	83	-37	127	127	8
-8772	-2912	13984	118	-145	-166	-15548	2244	-4392	-196	-65	-76	-16368	-796	852	210	-123	207	-7852	4128	13252	-78	130	-208	-16152	-248	-4068	166	-134	91	-16368	704	524	194	60	-39	126	127	8
-8740	-2812	14080	98	-89	-164	-15508	2224	-4428	-206	-75	-54	-16420	-740	632	28	-199	179	-7816	4096	13428	-142	106	-217	-16108	-284	-3888	132	-65	53	-16424	720	672	188	-64	-1	126	127	8
-8748	-2924	13960	137	-102	-219	-15552	2196	-4252	-79	-36	-125	-16208	-820	768	111	-201	111	-7836	4076	13440	-83	100	-217	-16076	-284	-3868	100	-55	75	-16356	672	728	175	-143	-16	126	127	8
-8792	-2796	13924	169	-65	-163	-15588	2272	-4092	-25	55	-67	-16256	-740	456	36	-220	131	-7868	4064	13332	-124	92	-225	-16112	-332	-3896	100	28	98	-16312	604	572	182	-127	-25	124	127	8
-8688	-2880	13984	141	-64	-101	-15572	2296	-4404	5	101	-31	-16236	-672	388	-84	-279	147	-7824	4128	13332	-101	128	-226	-16216	-260	-4092	22	25	97	-16424	684	592	200	-76	-56	129	127	8
-8708	-2884	13944	146	-51	-125	-15584	2292	-4484	-160	109	-59	-16352	-712	620	-56	-329	154	-7816	4116	13376	-92	122	-252	-16124	-260	-4068	24	-3	83	-16376	540	448	189	19	22	127	127	8
-8820	-2892	13964	141	-52	-151	-15536	2204	-4496	-35	36	-70	-16376	-888	180	-16	-355	162	-7852	4052	13416	-91	115	-198	-16108	-316	-4096	91	-23	118	-16452	612	440	225	21	-11	125	127	8
-8748	-2844	13916	104	-59	-154	-15596	2196	-4500	84	-10	-50	-16256	-844	180	-52	-241	150	-7844	4160	13344	-69	141	-218	-16216	-284	-4016	139	-64	91	-16476	624	624	195	5	-17	127	127	8
-8788	-2868	13888	91	-72	-173	-15560	2264	-4556	-121	-26	-85	-16288	-768	348	49	-215	128	-7812	4136	13436	-131	154	-234	-16188	-272	-4000	109	24	90	-16472	700	560	164	-50	-17	127	127	8
-8692	-2868	13976	106	-51	-149	-15588	2224	-4356	-51	-56	-38	-16276	-756	356	-26	-180	131	-7860	4032	13416	-151	163	-185	-16112	-260	-3884	72	73	108	-16408	704	680	122	-144	3	129	127	8
-8732	-2812	13932	123	-75	-162	-15544	2296	-4348	42	-5	-60	-16252	-724	452	-24	-259	140	-7848	4012	13388	-81	176	-203	-16168	-240	-4044	4	31	95	-16420	584	496	130	-77	-1	127	127	8
-8640	-2920	13932	130	-61	-154	-15600	2252	-4612	98	-41	-35	-16324	-716	108	32	-145	169	-7772	4104	13380	-98	182	-206	-16184	-248	-4048	76	8	117	-16404	624	496	145	30	-33	126	127	8
-8724	-2956	13928	88	-77	-164	-15540	2316	-4492	-1	-99	-49	-16352	-756	84	-67	-88	197	-7828	4128	13364	-69	145	-236	-16084	-184	-4112	63	-39	108	-16404	692	292	137	-11	-4	124	127	8
-8784	-2904	13976	122	-69	-126	-15568	2272	-4424	-92	-135	-73	-16416	-704	76	-84	-103	230	-7836	4124	13340	-69	131	-210	-16156	-312	-3992	59	-26	81	-16420	628	524	122	-11	38	129	127	8
-8772	-2832	13980	110	-130	-142	-15612	2212	-4344	-105	-166	-78	-16312	-780	428	-3	-143	171	-7840	4092	13408	-143	123	-207	-16132	-328	-4036	104	-50	106	-16484	676	748	177	-92	5	128	127	8
-8744	-2904	14064	135	-57	-143	-15568	2160	-4292	-27	-125	-90	-16340	-808	476	26	-122	201	-7784	4080	13416	-95	110	-225	-16124	-264	-3916	81	47	97	-16372	588	632	135	-158	-32	129	127	8
-8704	-2920	13932	137	-85	-134	-15540	2236	-4160	1	-73	-68	-16248	-796	648	121	-146	131	-7788	4052	13292	-123	151	-203	-16204	-188	-3944	66	-2	96	-16360	584	432	151	-139	-11	130	127	8
-8704	-2896	13952	104	-48	-196	-15596	2232	-4312	-9	-67	-42	-16196	-700	0	24	-2	145	-7764	4136	13432	-98	143	-229	-16164	-368	-4012	50	-2	111	-16432	544	436	142	-126	7	121	127	8
-8728	-2860	13908	148	-56	-170	-15544	2228	-4496	-62	-61	-35	-16348	-832	320	-60	-125	176	-7780	4140	13428	-130	144	-234	-16164	-268	-4068	102	-33	109	-16384	540	548	165	-55	14	127	127	8
-8732	-2908	14016	124	-97	-166	-15668	2280	-4400	-79	-114	-91	-16420	-764	336	179	-120	172	-7844	4064	13396	-126	142	-224	-16096	-304	-4128	96	-60	134	-16464	584	548	218	-25	-27	125	127	8
-8752	-2844	13996	118	-76	-158	-15508	2288	-4248	-47	-141	-43	-16364	-812	684	221	-160	140	-7784	4104	13452	-80	129	-194	-16104	-316	-3960	122	-47	153	-16420	548	524	266	-129	-7	124	127	8
-8720	-2860	14056	123	-99	-163	-15576	2244	-4276	-45	-86	-26	-16240	-776	844	178	-277	169	-7812	4056	13288	-102	116	-170	-16100	-244	-3984	130	7	135	-16356	612	600	220	-177	-4	126	127	8
-8660	-2904	13972	148	-102	-167	-15500	2228	-4060	-42	44	-38	-16240	-668	708	84	-307	144	-7696	4180	13404	-59	86	-183	-16132	-164	-3920	75	-6	141	-16352	660	700	170	-247	25	127	127	8
-8848	-2844	13912	169	-129	-165	-15492	2164	-4424	-14	119	-13	-16208	-752	668	119	-288	118	-7860	4120	13292	-76	115	-215	-16168	-196	-3936	49	93	157	-16412	756	724	231	-299	55	125	127	8
-8740	-2816	13988	163	-140	-195	-15584	2340	-4364	-53	136	-26	-16308	-612	432	43	-357	87	-7756	4088	13356	-82	173	-229	-16240	-140	-4016	71	13	119	-16400	660	688	251	-270	2	129	127	8
-8652	-2880	13964	131	-62	-186	-15604	2188	-4388	-7	159	-19	-16304	-808	408	158	-257	158	-7864	4128	13484	-108	153	-207	-16152	-308	-4040	142	77	132	-16376	588	608	369	-284	-24	126	127	8
-8648	-2932	13936	146	-21	-210	-15608	2244	-4352	239	105	-5	-16272	-708	-244	340	-93	78	-7784	4144	13356	-117	139	-230	-16180	-268	-4068	228	69	111	-16432	640	664	391	-252	6	124	127	8
-8704	-2824	13956	121	-40	-178	-15564	2316	-4716	206	46	-32	-16268	-580	-232	261	-67	183	-7856	4144	13308	-107	121	-229	-16092	-300	-4004	262	87	123	-16340	688	816	448	-307	34	124	127	8
-8676	-2892	13976	109	-118	-174	-15480	2320	-4472	-2	30	-70	-16136	-580	-344	248	-61	187	-7756	4092	13284	-75	160	-252	-16224	-232	-3976	109	151	114	-16440	752	644	407	-280	21	127	127	8
-8712	-2852	14008	139	-91	-168	-15584	2144	-4316	52	26	-75	-16256	-724	236	100	-186	192	-7804	4120	13428	-86	182	-243	-16244	-244	-4164	48	167	88	-16368	752	488	296	-166	21	125	127	8
-8688	-2892	14008	130	-79	-191	-15536	2300	-4288	0	74	-45	-16096	-632	-116	45	-47	130	-7872	4072	13400	-102	174	-218	-16192	-268	-4264	8	81	78	-16384	708	504	255	-139	28	124	127	8
-8756	-2876	14044	100	-105	-185	-15580	2268	-4224	-71	101	-29	-16288	-696	1000	28	-305	70	-7848	4076	13468	-75	193	-237	-16152	-208	-4104	65	8	91	-16352	792	424	66	48	-45	128	127	8
-8712	-2828	14116	128	-113	-183	-15520	2248	-4208	75	193	-63	-16196	-732	996	-103	-376	105	-7808	4144	13432	-127	169	-264	-16088	-96	-3920	58	16	63	-16372	904	776	-27	11	-27	129	127	8
-8696	-2968	13924	135	-28	-183	-15588	2092	-4216	85	320	-52	-16208	-784	708	-81	-368	8	-7828	4156	13308	-117	178	-252	-16172	-32	-3832	17	65	66	-16524	940	1036	-52	-112	-18	124	127	8
-8708	-2804	14000	139	-26	-130	-15476	2152	-4500	31	320	-35	-16164	-856	520	-164	-405	17	-7772	4028	13424	-138	140	-281	-16164	-128	-3544	-13	218	2	-16476	812	1276	-41	-341	56	124	127	8
-8688	-2916	13980	158	-39	-147	-15608	2176	-4648	-60	323	-20	-16288	-892	112	-207	-343	29	-7712	4108	13372	-135	212	-325	-16052	-492	-3800	-31	229	-10	-16392	456	1188	104	-460	1	128	127	8
-8672	-2880	13976	183	-60	-113	-15636	2176	-4788	-55	234	-29	-16432	-988	-4	-218	-199	140	-7808	4012	13320	-68	244	-284	-16124	-436	-3976	47	361	53	-16320	308	904	269	-340	10	127	127	8
-8784	-2888	13952	149	-5	-126	-15608	2372	-4928	-63	106	-52	-16484	-716	112	-112	-147	161	-7820	4048	13404	-41	216	-262	-16164	-460	-4140	-53	384	82	-16392	276	704	418	-227	4	127	127	8
-8792	-2900	14016	137	-73	-116	-15564	2364	-4628	-102	-14	-46	-16404	-708	80	25	-81	210	-7860	4148	13288	-40	222	-253	-16188	-428	-4156	114	353	123	-16356	428	392	542	-143	18	131	127	8
-8664	-2896	14080	129	-25	-168	-15564	2320	-4524	50	-14	-57	-16316	-732	380	103	-48	238	-7844	4116	13392	-25	178	-253	-16108	-304	-4352	181	291	122	-16360	648	392	564	-54	-11	122	127	8
-8736	-2852	13972	114	-48	-142	-15468	2168	-4524	38	-28	-66	-16312	-780	420	-45	-54	276	-7868	4060	13288	-21	202	-252	-16180	-224	-4384	29	231	111	-16324	708	280	389	32	-21	127	127	8
-8696	-2828	13964	76	-3	-163	-15604	2232	-4456	-57	-51	-64	-16308	-752	452	-25	-61	239	-7796	4128	13308	-99	195	-218	-16148	-280	-4636	-65	105	86	-16252	800	16	143	135	-3	127	127	8
-8644	-2860	14024	83	-22	-148	-15592	2252	-4540	-76	-46	-73	-16312	-716	472	-48	-47	179	-7872	3996	13376	-37	178	-231	-16052	-216	-4508	4	7	69	-16396	656	52	27	161	-28	127	127	8
-8716	-2868	13972	85	-14	-153	-15508	2216	-4552	-81	-46	-74	-16300	-804	76	-101	14	184	-7916	4124	13356	-128	140	-216	-16120	-148	-4384	-20	-73	85	-16372	724	228	-95	29	-9	126	127	8
-8748	-2848	13928	124	-22	-138	-15540	2216	-4480	-160	-37	-89	-16352	-800	456	-9	-114	167	-7808	4092	13488	-60	104	-199	-16140	-232	-4264	-70	-122	35	-16360	588	400	-72	33	-29	126	127	8
-8700	-2964	13944	101	-39	-181	-15540	2208	-4444	-111	-40	-104	-16348	-724	560	-58	-135	146	-7800	4092	13432	-84	107	-214	-16076	-408	-4204	6	-182	62	-16460	492	688	-31	41	-18	129	127	8
-8696	-2840	14004	113	-26	-151	-15528	2236	-4564	36	-26	-87	-16248	-784	640	-71	-112	188	-7836	4128	13440	-68	127	-213	-16176	-300	-4136	21	-197	54	-16300	560	784	60	94	-36	123	127	8
-8684	-2816	13928	129	-29	-144	-15564	2236	-4588	7	3	-76	-16244	-788	236	-87	-111	228	-7804	4072	13348	-101	124	-201	-16104	-384	-4096	54	-149	73	-16444	452	844	149	212	-25	129	127	8
-8752	-2876	13976	83	36	-147	-15616	2176	-4576	202	-59	-51	-16340	-836	192	13	-42	210	-7728	4100	13428	-56	127	-201	-16136	-316	-4020	216	-158	120	-16424	536	700	293	237	13	126	127	8
-8720	-2804	14004	118	-36	-151	-15492	2364	-4588	54	-92	-19	-16404	-864	276	84	-17	231	-7848	4088	13280	-87	128	-198	-16088	-320	-3980	204	-100	106	-16388	520	844	353	231	30	124	127	8
-8692	-2932	14020	88	-65	-170	-15420	2168	-4512	106	-129	-38	-16332	-944	440	233	1	267	-7848	4096	13360	-103	128	-211	-16124	-288	-4056	238	-96	120	-16396	644	756	390	145	7	125	127	8
-8772	-2848	13916	88	-30	-188	-15504	2228	-4584	284	-121	-43	-16392	-776	508	240	-36	264	-7792	4060	13364	-85	128	-215	-16116	-228	-4012	264	-45	137	-16452	704	764	389	6	24	127	127	8
-8796	-2916	14004	123	-9	-170	-15532	2216	-4320	81	-71	-5	-16428	-852	1032	226	-171	256	-7824	4036	13332	-102	84	-241	-16104	-348	-4076	171	19	118	-16424	660	616	312	-71	38	127	127	8
-8756	-2868	14040	105	-25	-147	-15500	2200	-4428	15	-95	-22	-16268	-824	520	104	-49	223	-7796	4028	13268	-113	147	-218	-16148	-300	-4032	79	-9	135	-16432	604	620	245	-58	2	126	127	8
-8772	-2932	13932	168	-99	-151	-15540	2188	-4680	-28	-95	-62	-16452	-792	976	92	-285	203	-7808	4140	13480	-103	112	-253	-16180	-316	-4172	74	26	125	-16400	576	548	173	-10	33	131	127	8
-8756	-2820	13936	130	-61	-139	-15556	2276	-4432	-54	-112	-57	-16320	-760	544	82	-130	195	-7824	4124	13444	-85	134	-211	-16116	-288	-4292	59	-45	92	-16412	592	460	163	25	32	129	127	8
-8704	-2888	14028	118	-49	-167	-15544	2256	-4292	-51	-80	-10	-16440	-728	572	-2	-170	222	-7816	4036	13448	-106	141	-200	-16168	-372	-4232	76	-57	115	-16300	636	520	110	45	25	126	127	8
-8736	-2936	14008	116	-42	-146	-15476	2208	-4492	-46	-57	-92	-16208	-776	472	-80	-126	225	-7820	4108	13324	-96	145	-236	-16128	-340	-4116	46	-74	85	-16396	616	720	138	3	10	124	127	8
-8708	-2880	13856	133	-90	-167	-15524	2180	-4584	-93	-100	-58	-16300	-808	288	-45	-89	235	-7832	4092	13360	-94	121	-241	-16108	-344	-3960	49	-60	134	-16400	604	756	191	-13	4	126	127	8
-8796	-2948	14076	160	-81	-157	-15472	2192	-4588	-131	-110	-28	-16352	-944	508	-73	-132	233	-7760	4068	13372	-82	153	-241	-16140	-300	-4124	92	-32	144	-16364	664	732	212	-23	29	130	127	8
-8716	-2888	14004	135	-82	-119	-15564	2188	-4412	-45	-75	-24	-16292	-860	456	64	-135	230	-7776	4052	13296	-87	154	-238	-16144	-320	-4248	53	-23	138	-16420	544	688	209	-40	43	131	127	8
-8736	-2912	14028	112	-30	-127	-15568	2224	-4540	62	-87	-66	-16288	-924	496	174	-105	221	-7848	4076	13452	-66	136	-240	-16148	-400	-4196	121	-57	150	-16340	492	544	240	-19	61	124	127	8
-8728	-2908	13932	139	-35	-167	-15500	2196	-4560	-9	-96	-21	-16320	-896	316	84	-119	241	-7792	4060	13388	-73	161	-202	-16136	-292	-4216	90	-79	123	-16400	640	516	236	-1	99	129	127	8
-8676	-2840	13892	134	-64	-174	-15488	2188	-4508	-86	-75	-22	-16268	-760	288	136	-35	222	-7820	4104	13356	-84	133	-193	-16180	-284	-4104	62	-69	173	-16404	668	668	228	23	58	125	127	8
-8656	-2852	13936	173	-96	-157	-15552	2172	-4372	-77	-85	7	-16320	-860	616	190	-177	244	-7808	4064	13420	-88	152	-235	-16116	-336	-4068	103	-79	156	-16452	560	708	223	32	85	126	127	8
-8724	-2816	13996	177	-89	-112	-15488	2328	-4380	-103	-58	22	-16292	-808	540	13	-158	262	-7784	4036	13356	-116	179	-219	-16084	-328	-4100	53	-63	138	-16356	572	744	175	-23	67	123	127	8
-8804	-2908	13960	146	-80	-141	-15588	2252	-4356	-75	-75	-45	-16300	-760	516	-13	-152	243	-7824	4116	13408	-76	138	-175	-16200	-324	-4044	16	-79	165	-16416	672	700	161	10	56	124	127	8
-8748	-2872	14024	151	-106	-136	-15576	2260	-4464	-62	-40	23	-16344	-852	404	-31	-181	267	-7756	4124	13348	-81	140	-217	-16128	-336	-4196	9	-59	172	-16420	592	748	179	16	41	126	127	8
-8724	-2876	13916	148	-92	-147	-15596	2248	-4436	-59	-66	33	-16364	-816	560	-35	-145	297	-7772	4068	13324	-68	135	-211	-16112	-260	-4188	58	-74	179	-16392	568	612	175	51	41	125	127	8
-8672	-2888	14000	169	-88	-131	-15552	2212	-4564	-46	-47	20	-16276	-800	284	17	-159	256	-7804	4104	13384	-50	145	-233	-16168	-248	-4192	49	-83	188	-16364	684	588	180	79	56	122	127	8
-8692	-2932	14004	168	-84	-152	-15580	2256	-4500	-11	-97	1	-16432	-736	276	85	-123	264	-7820	4108	13416	-48	151	-233	-16140	-260	-4152	52	-27	159	-16444	720	748	185	115	22	121	127	8
-8760	-2864	13980	158	-57	-181	-15532	2284	-4308	-108	-105	-19	-16248	-740	416	70	-119	275	-7796	4096	13304	-56	160	-234	-16152	-260	-4120	74	-51	161	-16360	676	520	216	116	30	121	127	8
-8720	-2900	14076	129	-41	-151	-15608	2256	-4476	-6	-104	25	-16352	-704	260	-41	-35	290	-7804	4080	13416	-79	161	-237	-16172	-272	-4116	69	-90	165	-16420	692	604	222	65	53	129	127	8
-8692	-2932	13936	150	-26	-104	-15584	2240	-4496	-89	-123	4	-16328	-760	608	-7	-138	256	-7856	4104	13360	-61	134	-243	-16108	-272	-4084	134	-103	176	-16388	592	520	269	95	52	126	127	8
-8672	-2904	14020	115	-45	-113	-15500	2328	-4452	-66	-100	34	-16328	-768	424	28	-129	272	-7864	4116	13408	-75	177	-225	-16152	-264	-4160	132	-123	176	-16372	680	540	263	50	58	126	127	8
-8676	-2928	13960	157	-66	-173	-15496	2268	-4308	23	-75	-31	-16304	-788	496	154	-124	217	-7840	4056	13364	-80	128	-232	-16124	-300	-4116	45	-101	151	-16432	632	684	211	23	45	133	127	8
-8692	-2852	13940	129	-31	-141	-15512	2280	-4424	64	-90	11	-16280	-756	536	186	-87	238	-7780	4136	13360	-103	166	-211	-16112	-204	-4128	104	-109	155	-16396	648	652	218	37	64	132	127	8
-8712	-2884	14036	162	-53	-132	-15584	2256	-4436	8	-45	18	-16296	-772	348	50	-74	272	-7832	4020	13460	-102	152	-227	-16128	-304	-4052	82	-75	171	-16368	700	708	188	30	60	124	127	8
-8720	-2920	14016	108	-49	-101	-15508	2176	-4464	-19	-50	17	-16292	-776	516	42	-139	250	-7816	4124	13336	-94	144	-209	-16096	-292	-4092	59	-90	147	-16352	612	752	212	31	80	128	127	8
-8600	-2916	14020	140	-75	-157	-15604	2224	-4316	96	-52	8	-16376	-744	244	48	-141	236	-7776	4096	13352	-96	120	-199	-16116	-280	-4028	120	-46	177	-16408	696	760	260	66	24	127	127	8
-8720	-2896	13976	159	-57	-127	-15588	2336	-4532	-21	-79	27	-16312	-728	416	-19	-118	204	-7792	4104	13408	-80	164	-235	-16176	-276	-4084	39	-67	139	-16420	664	696	205	6	47	124	127	8
-8720	-2868	13956	146	-33	-138	-15580	2328	-4328	-79	-66	-23	-16328	-568	344	24	-121	253	-7784	4140	13460	-104	143	-216	-16176	-372	-4040	52	-5	161	-16436	660	612	210	40	17	123	127	8
-8692	-2840	13940	106	-28	-140	-15480	2340	-4408	-31	-117	-28	-16348	-644	384	44	-88	269	-7844	4124	13400	-96	174	-229	-16168	-268	-4020	54	0	147	-16392	620	652	193	73	52	124	127	8
-8796	-2920	13976	114	-29	-154	-15560	2272	-4400	41	-124	-9	-16340	-768	360	-66	-136	264	-7772	4120	13396	-62	121	-211	-16128	-244	-4044	68	-6	147	-16404	676	588	147	7	43	129	127	8
-8660	-2860	13836	120	-35	-142	-15540	2244	-4436	-75	-100	-54	-16288	-660	340	-93	-154	247	-7856	4128	13360	-81	151	-200	-16208	-260	-4080	2	1	134	-16412	740	648	92	-7	39	124	127	8
-8784	-2876	13972	146	-55	-160	-15520	2228	-4464	-174	-124	-63	-16304	-744	296	-150	-181	226	-7764	4120	13384	-51	113	-224	-16144	-256	-4072	30	2	143	-16384	676	568	59	22	-4	127	127	8
-8772	-2884	13956	135	-106	-136	-15604	2236	-4512	-193	-145	-19	-16216	-716	-236	-157	5	265	-7844	4156	13288	-91	174	-228	-16200	-212	-4180	-74	-22	129	-16384	668	492	26	66	29	125	127	8
-8712	-2860	14012	136	-69	-153	-15560	2320	-4464	-149	-177	-74	-16424	-704	704	-146	-224	269	-7804	4140	13316	-50	192	-200	-16116	-200	-4176	-51	-23	132	-16444	676	532	-2	39	7	126	127	8
-8736	-2868	14088	105	-105	-166	-15568	2292	-4308	-123	-113	-54	-16316	-816	596	-19	-159	210	-7756	4096	13348	-107	155	-214	-16100	-360	-4108	-34	-36	130	-16340	624	672	61	-10	37	125	127	8
-8728	-2848	13996	140	-55	-161	-15604	2320	-4440	-41	-122	-89	-16260	-648	324	-93	-98	179	-7824	4116	13416	-90	161	-211	-16232	-256	-4016	53	-23	158	-16368	700	664	65	-19	1	131	127	8
-8708	-2808	14016	123	-40	-163	-15512	2312	-4364	-190	-78	-55	-16268	-700	340	-124	-165	218	-7780	4124	13364	-107	169	-216	-16096	-240	-3960	1	-21	130	-16316	692	704	78	-37	62	127	127	8
-8760	-2856	14052	168	-71	-139	-15564	2136	-4596	-147	-101	-18	-16268	-836	380	-214	-196	257	-7796	4140	13300	-85	146	-244	-16176	-236	-4124	27	-24	152	-16328	648	608	98	-43	-5	129	127	8
-8744	-2844	13964	159	-88	-145	-15540	2292	-4512	-186	-151	-51	-16308	-716	-12	-104	-159	238	-7792	4036	13416	-97	178	-210	-16188	-264	-4172	-7	20	106	-16408	620	664	118	-59	18	125	127	8
-8736	-2840	14020	136	-82	-158	-15436	2356	-4456	-89	-145	-46	-16240	-640	216	-30	-105	254	-7888	4112	13308	-80	175	-223	-16184	-212	-4324	58	-77	132	-16388	652	332	158	14	20	125	127	8
-8740	-2888	13948	101	-101	-162	-15600	2408	-4444	-210	-120	-74	-16484	-724	464	-6	-217	206	-7836	4096	13340	-114	144	-167	-16096	-244	-4188	76	-67	124	-16404	656	588	167	-26	60	125	127	8
-8668	-2852	14004	100	-35	-146	-15552	2140	-4452	-102	-132	-93	-16260	-832	520	35	-196	213	-7804	4116	13484	-81	141	-215	-16108	-228	-4016	75	-82	120	-16372	724	588	142	-76	50	125	127	8
-8656	-2844	14000	117	-103	-163	-15588	2332	-4428	-45	-124	-40	-16228	-772	520	12	-232	208	-7860	4084	13396	-133	161	-219	-16176	-272	-4088	100	-80	111	-16456	672	632	185	-141	23	129	127	8
-8716	-2892	14032	107	-64	-136	-15584	2228	-4480	-52	-73	-69	-16328	-704	396	-5	-182	217	-7804	4188	13428	-116	158	-238	-16240	-176	-3984	42	-82	105	-16392	644	588	170	-115	30	126	127	8
-8736	-2924	14012	109	-60	-142	-15564	2284	-4480	24	-117	-24	-16340	-764	292	41	-187	194	-7692	4084	13396	-92	185	-192	-16212	-296	-4140	77	-109	113	-16360	596	560	174	-105	7	125	127	8
-8732	-2816	14044	105	-54	-207	-15532	2384	-4544	-87	-117	-71	-16316	-708	452	26	-123	220	-7812	4096	13304	-109	160	-247	-16176	-292	-4088	102	-108	142	-16376	628	596	220	12	18	126	127	8
-8648	-2868	13904	133	-71	-161	-15600	2260	-4512	-122	-103	-34	-16284	-848	552	76	-169	212	-7848	4108	13336	-50	181	-218	-16156	-264	-4144	30	-91	116	-16384	644	760	171	57	40	126	127	8
-8648	-2928	13868	82	-40	-146	-15576	2252	-4244	2	-93	-68	-16260	-860	744	11	-232	195	-7784	4156	13360	-89	127	-193	-16200	-192	-4004	107	-93	124	-16412	712	624	137	81	1	126	127	8
-8644	-2916	14020	104	-47	-120	-15568	2264	-4264	37	-44	-34	-16308	-784	648	-65	-248	198	-7812	4116	13228	-122	148	-233	-16216	-172	-3928	112	-91	164	-16424	660	732	164	-13	14	128	127	8
-8764	-2848	13956	137	-34	-122	-15576	2272	-4316	-43	-10	-55	-16272	-704	420	-161	-194	206	-7848	4016	13272	-102	126	-225	-16184	-224	-3864	89	-17	147	-16448	624	760	128	-64	18	126	127	8
-8752	-2880	14044	135	-46	-140	-15532	2208	-4348	31	-38	-48	-16260	-820	460	-109	-204	203	-7784	4076	13444	-43	157	-208	-16216	-252	-3948	49	31	139	-16368	648	784	156	-48	-4	119	127	8
-8652	-2908	13996	97	-26	-161	-15612	2384	-4432	39	-49	-75	-16316	-724	428	-42	-97	223	-7804	4116	13348	-114	157	-224	-16132	-236	-4060	7	48	128	-16404	656	628	180	-18	22	126	127	8
-8700	-2876	13916	97	-17	-143	-15592	2364	-4480	59	-69	-50	-16312	-680	256	-51	-142	254	-7784	4048	13408	-106	149	-227	-16164	-308	-4164	54	2	133	-16364	548	500	214	44	6	124	127	8
-8684	-2904	13932	114	-15	-137	-15520	2256	-4468	-2	-141	-16	-16316	-696	324	-13	-128	251	-7828	4108	13356	-69	161	-222	-16180	-280	-4096	68	7	133	-16388	628	384	178	26	26	126	127	8
-8712	-2916	13936	111	-75	-104	-15600	2216	-4432	-87	-115	-63	-16288	-792	504	-81	-159	230	-7772	4136	13312	-90	163	-221	-16160	-240	-4140	57	-38	139	-16384	616	656	188	18	30	127	127	8
-8692	-2796	13924	119	-17	-173	-15548	2268	-4300	-65	-97	-70	-16300	-748	640	-107	-180	235	-7724	4144	13256	-103	118	-239	-16172	-296	-4004	53	-9	129	-16336	640	584	148	-33	21	126	127	8
-8676	-2916	13972	123	-30	-136	-15524	2280	-4380	-17	-67	-72	-16248	-808	608	-35	-154	236	-7864	4100	13352	-89	131	-215	-16092	-256	-4020	43	-16	127	-16416	736	584	128	-74	42	123	127	8
-8736	-2948	14000	136	-3	-148	-15592	2264	-4328	-11	-72	-20	-16244	-776	408	46	-71	208	-7764	4036	13328	-67	144	-207	-16140	-228	-3992	-10	7	138	-16400	632	496	147	-50	47	126	127	8
-8724	-2836	13984	121	-33	-142	-15560	2244	-4532	-26	-71	-26	-16308	-824	176	32	-71	233	-7772	4148	13332	-106	180	-249	-16148	-240	-4104	73	-37	113	-16332	680	576	206	-29	52	122	127	8
-8728	-2896	13996	134	-39	-181	-15520	2332	-4380	8	-115	-8	-16512	-824	1004	85	-269	246	-7808	4068	13400	-76	183	-223	-16160	-276	-4136	105	-10	121	-16440	644	540	222	-13	7	125	127	8
-8772	-2896	14104	117	-113	-127	-15604	2160	-4424	-31	-94	-25	-16260	-720	628	135	-141	221	-7832	4088	13360	-92	149	-260	-16176	-204	-4120	140	-62	164	-16380	608	552	283	-6	24	128	127	8
-8788	-2864	13896	108	-40	-156	-15564	2248	-4212	-10	-61	-22	-16336	-708	576	131	-183	208	-7732	4140	13384	-82	111	-243	-16144	-244	-4048	116	-56	151	-16416	588	592	276	-34	64	127	127	8
-8700	-2876	13964	117	-55	-136	-15516	2204	-4228	-25	-3	-3	-16228	-736	480	86	-163	200	-7772	4096	13372	-90	135	-213	-16228	-332	-4004	139	-25	165	-16380	612	704	291	-60	23	126	127	8
-8772	-2876	13952	148	-55	-134	-15508	2276	-4484	-36	-41	13	-16268	-728	508	15	-194	263	-7800	4120	13416	-98	173	-214	-16160	-280	-4120	139	-22	182	-16436	620	724	278	-30	9	128	127	8
-8720	-2852	14024	144	-85	-137	-15636	2276	-4412	-53	-40	12	-16356	-696	268	111	-105	201	-7836	4136	13460	-89	185	-184	-16168	-184	-4148	148	-41	144	-16436	704	632	295	-23	-4	126	127	8
-8696	-2864	13984	98	-64	-131	-15660	2304	-4360	-46	-62	-25	-16368	-752	412	194	-137	177	-7768	4100	13284	-84	135	-197	-16156	-240	-3976	150	-38	150	-16392	664	496	274	-41	29	128	127	8
-8652	-2868	14040	124	-28	-185	-15568	2296	-4436	42	-51	8	-16336	-680	576	202	-125	209	-7788	4092	13416	-118	122	-236	-16148	-268	-4072	151	-42	124	-16348	636	552	291	-54	33	127	127	8
-8732	-2884	13972	140	-57	-169	-15572	2320	-4336	66	-69	-36	-16252	-652	408	94	-126	232	-7780	4136	13372	-112	150	-224	-16156	-232	-4068	188	-86	133	-16452	620	596	314	-91	-4	121	127	8
-8708	-2860	13928	132	-64	-172	-15500	2316	-4452	-15	-78	-50	-16304	-632	336	78	-125	238	-7776	4068	13380	-89	176	-235	-16184	-200	-4064	139	-17	158	-16416	668	560	302	-111	29	126	127	8
-8724	-2928	13988	140	-73	-184	-15564	2248	-4456	-47	-145	-59	-16336	-760	556	-15	-201	239	-7800	4132	13372	-75	125	-209	-16212	-160	-4108	132	-80	123	-16444	700	620	275	-81	61	130	127	8
-8692	-2888	13924	129	-102	-166	-15576	2304	-4380	-57	-125	-52	-16368	-708	352	105	-192	209	-7860	4104	13280	-91	148	-215	-16212	-228	-4132	75	-40	108	-16376	704	568	235	-65	74	132	127	8
-8672	-2908	14064	121	-56	-123	-15540	2260	-4324	-38	-105	-64	-16308	-744	568	119	-215	173	-7832	4112	13388	-89	140	-238	-16072	-324	-4120	74	-74	149	-16368	664	480	190	-68	33	127	127	8
-8732	-2828	13944	117	-97	-172	-15504	2324	-4400	-38	-118	-22	-16284	-624	584	-40	-182	179	-7836	4120	13320	-76	118	-207	-16188	-212	-4148	87	-84	124	-16320	728	568	172	-106	6	128	127	8
-8708	-2864	13892	118	-38	-172	-15728	2296	-4280	-74	-73	-42	-16292	-720	472	36	-186	180	-7756	4068	13304	-100	114	-196	-16128	-208	-3996	77	-4	116	-16340	736	656	185	-76	-4	127	127	8
-8728	-2884	13960	111	-27	-142	-15492	2276	-4276	-76	-78	-73	-16256	-792	508	-12	-210	224	-7812	4160	13432	-95	124	-224	-16256	-172	-4144	42	-33	94	-16448	632	584	192	-88	9	125	127	8
-8700	-2816	13912	120	-63	-174	-15612	2272	-4324	-59	-50	-72	-16328	-796	596	13	-214	204	-7740	4084	13404	-117	136	-196	-16148	-260	-4076	80	-42	112	-16416	628	608	182	-65	18	124	127	8
-8708	-2932	13964	115	-56	-144	-15572	2284	-4244	-4	-46	-56	-16296	-740	552	59	-194	169	-7792	4076	13412	-89	174	-213	-16224	-224	-4196	97	-69	129	-16392	660	552	213	-37	43	125	127	8
-8740	-2920	13932	148	-52	-142	-15564	2240	-4340	-5	-20	4	-16268	-804	624	121	-188	142	-7804	4140	13396	-89	131	-211	-16148	-216	-3976	123	-66	127	-16416	680	544	224	-7	37	126	127	8
-8716	-2896	14008	148	-103	-120	-15508	2312	-4392	29	-28	-33	-16260	-704	484	69	-181	161	-7808	4096	13352	-85	150	-249	-16136	-268	-3996	182	-74	96	-16352	652	644	261	-8	-3	126	127	8
-8632	-2888	13956	165	-73	-174	-15568	2312	-4332	54	-27	-22	-16308	-748	460	81	-169	180	-7776	4076	13288	-88	142	-233	-16196	-284	-3936	143	-8	159	-16348	664	808	328	-27	-12	128	127	8
-8752	-2876	14016	119	-39	-157	-15584	2372	-4392	10	-29	-57	-16360	-696	512	121	-113	221	-7780	4156	13400	-98	173	-218	-16196	-168	-4032	152	-23	146	-16412	676	708	335	-62	-9	127	127	8
-8704	-2892	14024	132	-74	-151	-15604	2272	-4392	63	-23	-28	-16304	-760	392	50	-142	254	-7772	4172	13412	-91	160	-228	-16164	-260	-4128	104	2	115	-16428	708	604	305	-10	15	126	127	8
-8724	-2880	14040	123	-61	-187	-15600	2220	-4400	27	-8	-37	-16296	-692	512	73	-109	229	-7792	4124	13376	-84	146	-226	-16188	-244	-4060	59	-19	142	-16368	632	556	254	26	20	129	127	8
-8684	-2936	13944	104	3	-149	-15536	2340	-4264	14	-24	-46	-16312	-728	444	62	-138	194	-7812	4064	13336	-42	139	-217	-16240	-208	-4128	76	-120	115	-16372	672	476	191	41	18	127	127	8
-8732	-2916	14032	114	-41	-142	-15572	2212	-4344	34	-7	-80	-16268	-744	576	51	-174	205	-7864	4100	13312	-54	113	-211	-16140	-268	-4080	143	-101	66	-16328	732	700	218	64	-16	128	127	8
-8752	-2820	14036	101	-65	-147	-15588	2276	-4460	33	-32	-53	-16216	-756	532	68	-168	179	-7772	4096	13392	-79	120	-215	-16152	-296	-3840	149	-36	108	-16380	728	896	223	-2	20	125	127	8
-8668	-2836	13968	148	-28	-157	-15560	2328	-4292	20	-23	-69	-16260	-672	648	5	-131	187	-7816	4088	13412	-127	155	-235	-16120	-304	-3804	102	-13	164	-16384	632	816	221	-89	18	126	127	8
-8696	-2876	13960	112	-50	-121	-15596	2308	-4260	92	20	-57	-16196	-684	272	-94	-49	219	-7800	4112	13444	-79	128	-218	-16248	-292	-4024	11	15	167	-16408	616	772	239	-78	-1	128	127	8
-8736	-2912	14008	118	-34	-158	-15564	2292	-4400	107	13	-13	-16304	-784	400	-101	-142	230	-7796	4068	13464	-81	181	-236	-16224	-328	-4156	33	42	114	-16400	668	492	208	12	21	127	127	8
-8728	-2892	13960	132	-2	-149	-15544	2240	-4496	61	-13	-68	-16284	-804	432	70	-107	205	-7792	4136	13360	-75	206	-187	-16216	-272	-4088	44	23	147	-16484	584	588	243	76	-5	128	127	8
-8660	-2916	13920	107	-41	-136	-15620	2160	-4384	41	-61	-30	-16360	-816	380	79	-105	267	-7856	4072	13396	-99	157	-208	-16116	-240	-4072	121	-33	103	-16380	680	652	252	129	39	125	127	8
-8724	-2928	13980	77	-22	-172	-15556	2268	-4412	116	-34	26	-16356	-760	508	101	-20	253	-7840	4108	13384	-40	175	-202	-16164	-204	-3992	88	-36	123	-16432	792	668	178	95	9	126	127	8
-8724	-2868	14024	138	-18	-144	-15560	2328	-4392	211	-32	1	-16304	-736	624	38	-62	234	-7788	4116	13336	-68	173	-217	-16116	-228	-3868	143	21	108	-16420	760	892	233	24	18	126	127	8
-8728	-2860	14044	122	-20	-154	-15556	2348	-4348	40	-20	-18	-16252	-624	556	-60	-15	219	-7812	4148	13420	-88	184	-226	-16176	-192	-3944	72	53	120	-16352	828	760	201	8	-22	128	127	8
-8720	-2848	13980	137	-8	-150	-15568	2300	-4240	49	45	-34	-16332	-760	536	-7	-96	228	-7824	4080	13468	-69	178	-233	-16184	-296	-4024	53	57	126	-16372	692	632	191	51	-42	127	127	8
-8736	-2924	14004	106	6	-145	-15576	2212	-4256	87	25	-52	-16276	-704	296	48	-23	205	-7848	4088	13372	-62	123	-227	-16160	-288	-4132	26	61	127	-16356	612	456	190	98	-26	125	127	8
-8748	-2840	13972	121	-6	-105	-15524	2316	-4576	267	-9	-29	-16372	-676	388	-61	-70	257	-7792	4116	13276	-83	167	-251	-16144	-228	-4084	9	38	105	-16376	700	508	136	124	-13	126	127	8
-8740	-2848	13952	107	-14	-170	-15580	2220	-4356	6	-36	-62	-16328	-720	328	4	0	283	-7788	4044	13388	-87	145	-256	-16204	-200	-4032	28	6	128	-16424	692	724	153	101	8	127	127	8
-8708	-2900	13968	102	-34	-127	-15644	2244	-4352	-17	-32	-109	-16340	-764	468	-13	-55	202	-7836	4148	13372	-92	122	-235	-16136	-228	-3944	69	14	95	-16380	780	764	144	98	-19	129	127	8
-8708	-2868	13916	141	-50	-135	-15508	2188	-4384	48	-69	-68	-16360	-624	420	11	-69	208	-7816	4032	13404	-90	146	-223	-16100	-264	-4000	71	62	99	-16364	700	688	164	73	-16	128	127	8
-8752	-2820	13940	135	-41	-171	-15488	2364	-4432	-68	-19	-53	-16328	-568	436	-47	-122	166	-7728	4068	13340	-73	136	-248	-16156	-340	-3944	22	42	85	-16424	632	592	105	50	-39	123	127	8
-8752	-2900	14040	112	-84	-168	-15652	2312	-4324	-99	-6	-40	-16320	-764	508	-106	-110	209	-7804	4048	13220	-89	162	-253	-16168	-260	-4104	-34	53	104	-16432	636	512	132	40	-54	122	127	8
-8728	-2916	14012	136	7	-169	-15616	2256	-4492	-56	14	-48	-16328	-788	452	-80	-57	213	-7784	4048	13428	-89	151	-239	-16212	-324	-4216	18	-8	114	-16380	648	332	135	108	-24	125	127	8
-8760	-2884	13952	100	-34	-146	-15532	2292	-4364	-25	2	-73	-16332	-804	480	-73	-62	244	-7820	4112	13388	-85	123	-217	-16216	-208	-4192	50	-57	102	-16336	608	448	149	187	-7	120	127	8
-8704	-2924	13912	111	-22	-179	-15580	2192	-4340	-16	-16	-33	-16252	-764	380	51	-57	251	-7796	4192	13364	-56	170	-217	-16064	-252	-4060	91	-55	117	-16504	684	576	239	131	-32	125	127	8
-8712	-2880	13932	100	3	-163	-15564	2264	-4328	104	-11	-50	-16280	-816	520	103	-78	206	-7816	4228	13412	-69	122	-222	-16172	-204	-3936	116	-58	81	-16376	692	672	192	86	-11	130	127	8
-8724	-2960	13988	99	-57	-152	-15604	2232	-4348	27	11	-75	-16296	-720	300	92	-61	209	-7788	4072	13312	-117	154	-243	-16188	-296	-3872	124	-38	117	-16352	664	764	193	7	15	127	127	8
-8800	-2796	13984	112	-10	-171	-15560	2236	-4316	125	-8	-47	-16188	-760	356	130	-12	208	-7780	4056	13192	-66	140	-260	-16172	-300	-3980	162	-20	138	-16368	664	752	267	-11	-27	127	127	8
-8760	-2904	13916	109	-45	-149	-15576	2348	-4352	97	9	-52	-16264	-728	476	43	-24	211	-7792	4148	13400	-99	155	-256	-16176	-244	-4072	75	98	96	-16416	596	804	283	22	-3	125	127	8
-8672	-2888	14028	116	-28	-163	-15572	2220	-4336	111	6	-39	-16332	-696	408	133	-50	216	-7804	4108	13344	-101	185	-239	-16144	-248	-4088	132	-4	126	-16364	580	572	316	37	-47	131	127	8
-8652	-2920	13976	112	-25	-133	-15612	2252	-4348	91	41	-62	-16292	-720	240	111	-50	188	-7808	4048	13288	-111	125	-237	-16196	-240	-3932	125	-2	121	-16380	752	584	265	38	4	128	127	8
-8776	-2832	13952	102	-4	-156	-15556	2192	-4532	49	-1	-56	-16316	-696	296	77	-89	200	-7872	4100	13392	-54	191	-206	-16180	-224	-4104	85	34	114	-16332	664	512	251	54	-13	127	127	8
-8760	-2844	13980	127	-27	-187	-15516	2304	-4580	-39	-7	-65	-16336	-584	256	24	-128	197	-7816	4048	13372	-113	149	-255	-16168	-240	-4068	28	-30	88	-16392	756	504	152	19	8	129	127	8
-8704	-2872	13992	113	-59	-128	-15568	2288	-4360	-54	4	-90	-16324	-624	248	-74	-86	139	-7812	4132	13396	-99	133	-221	-16092	-176	-4084	28	46	53	-16328	796	460	105	-27	-47	124	127	8
-8724	-2852	13988	124	-15	-158	-15596	2264	-4560	-134	-36	-63	-16304	-620	400	-144	-77	186	-7796	4136	13400	-110	154	-226	-16192	-248	-4032	-1	5	59	-16428	720	564	38	-49	-33	127	127	8
-8776	-2848	13980	85	-41	-119	-15612	2292	-4516	-72	-55	-82	-16372	-664	328	-159	-124	204	-7732	4064	13428	-106	138	-238	-16132	-272	-4088	-46	1	75	-16432	592	440	19	4	-87	126	127	8
-8740	-2932	13912	108	10	-152	-15564	2260	-4436	-118	-52	-83	-16324	-704	196	-183	-166	173	-7768	4076	13336	-72	143	-218	-16188	-324	-4252	16	8	94	-16352	628	400	77	51	-96	126	127	8
-8700	-2924	13892	90	-30	-177	-15532	2268	-4380	-81	-123	-117	-16256	-732	480	-80	-195	155	-7796	4184	13312	-55	160	-230	-16184	-244	-4004	28	-33	70	-16384	588	300	39	113	-61	128	127	8
-8696	-2892	13972	107	-51	-182	-15580	2200	-4360	-33	-84	-91	-16188	-720	492	-94	-187	150	-7848	4104	13336	-124	161	-244	-16120	-268	-4076	132	-53	67	-16456	668	460	55	106	-30	124	127	8
-8744	-2960	13836	106	-75	-128	-15624	2236	-4428	-106	-113	-99	-16272	-760	400	-37	-123	173	-7860	4136	13352	-135	128	-255	-16076	-244	-4088	102	-92	103	-16384	624	540	57	71	16	122	127	8
-8728	-2904	13976	75	10	-160	-15604	2192	-4376	-19	-100	-124	-16348	-928	520	-93	-101	184	-7868	4132	13408	-109	97	-225	-16148	-200	-3988	94	-56	88	-16428	588	756	46	35	0	125	127	8
-8736	-2892	14004	125	18	-133	-15608	2252	-4284	35	-74	-90	-16352	-768	392	-89	-85	228	-7756	4108	13296	-115	148	-225	-16164	-360	-4096	51	-73	100	-16396	588	668	152	-20	-22	128	127	8
-8780	-2956	13968	97	-10	-161	-15528	2200	-4420	5	-62	-45	-16272	-784	352	-64	-129	223	-7780	4112	13332	-90	129	-236	-16216	-236	-4088	57	-5	129	-16404	640	704	141	17	-18	126	127	8
-8700	-2848	13980	121	-51	-147	-15556	2172	-4308	-59	-52	-71	-16276	-840	308	-52	-116	220	-7820	4116	13320	-90	144	-231	-16060	-336	-4124	48	-8	111	-16400	512	480	190	63	-17	128	127	8
-8800	-2944	13964	141	-111	-164	-15560	2224	-4456	-42	-45	-13	-16316	-772	400	-10	-106	207	-7832	4036	13360	-96	146	-213	-16132	-292	-4132	102	8	137	-16404	468	504	230	66	-8	126	127	8
-8748	-2888	13940	109	-58	-167	-15516	2156	-4364	-74	-42	-41	-16260	-848	524	-15	-86	249	-7836	4076	13460	-94	197	-227	-16144	-296	-4032	87	10	146	-16372	592	512	244	28	16	129	127	8
-8732	-2916	13992	139	-49	-115	-15580	2280	-4388	18	-69	-44	-16320	-764	400	77	-74	213	-7848	4100	13404	-100	110	-209	-16140	-236	-3984	117	-17	153	-16400	592	568	240	5	34	122	127	8
-8728	-2928	13964	83	-9	-154	-15580	2260	-4436	44	-3	5	-16264	-720	476	104	-92	227	-7844	4060	13384	-99	143	-230	-16176	-216	-4000	41	56	102	-16436	640	484	187	16	50	127	127	8
-8732	-2864	13996	141	-16	-95	-15552	2276	-4372	-105	-32	-28	-16312	-768	432	-116	-113	263	-7836	4120	13320	-116	185	-248	-16216	-232	-4096	99	18	136	-16356	628	560	194	42	37	123	127	8
-8712	-2844	13992	145	-63	-159	-15616	2188	-4316	-66	-27	-12	-16360	-732	392	5	-102	234	-7820	4064	13360	-44	175	-259	-16160	-320	-4096	52	-12	162	-16324	712	556	151	71	38	126	127	8
-8732	-2856	13984	140	0	-160	-15592	2224	-4468	-35	-16	-45	-16304	-716	316	30	-126	242	-7796	4080	13436	-81	185	-205	-16188	-244	-4044	58	-17	120	-16444	604	484	152	61	-9	128	127	8
-8800	-2856	13920	138	-26	-166	-15560	2240	-4484	-52	-42	-36	-16244	-732	288	14	-120	245	-7828	4060	13420	-26	128	-215	-16180	-272	-3972	86	-36	174	-16400	616	476	171	25	44	126	127	8
-8736	-2820	13924	101	-56	-150	-15512	2108	-4412	21	-75	-21	-16260	-780	408	-11	-115	251	-7856	4116	13412	-80	161	-240	-16104	-240	-3968	68	6	144	-16460	612	520	162	40	39	125	127	8
-8728	-2932	13920	170	-41	-149	-15576	2180	-4316	29	-50	41	-16360	-784	260	65	-83	238	-7820	4060	13364	-130	142	-236	-16120	-252	-4000	36	36	167	-16404	572	580	158	20	59	124	127	8
-8672	-2900	14036	154	-48	-114	-15604	2268	-4480	-53	-7	27	-16352	-688	284	104	-21	240	-7832	4084	13368	-102	137	-260	-16116	-344	-4052	55	33	170	-16448	616	556	194	8	72	127	127	8
-8740	-2904	13980	147	-55	-137	-15572	2244	-4424	-14	-33	15	-16300	-716	396	-25	-65	223	-7792	4060	13316	-83	186	-227	-16160	-268	-4092	96	9	159	-16392	608	564	216	69	75	127	127	8
-8752	-2916	14076	139	-75	-88	-15548	2296	-4400	-85	-12	26	-16300	-820	320	50	-86	243	-7800	4072	13320	-89	175	-226	-16188	-328	-4180	57	1	170	-16428	572	388	262	101	67	126	127	8
-8716	-2876	13976	148	-25	-131	-15572	2240	-4396	62	-31	-14	-16336	-800	212	54	-105	297	-7900	4108	13344	-43	113	-222	-16124	-216	-4180	87	13	181	-16432	732	360	293	82	57	129	127	8
-8768	-2876	13896	126	-94	-134	-15584	2212	-4488	-39	-11	11	-16260	-708	288	70	-90	251	-7808	4108	13312	-47	157	-209	-16168	-248	-4136	126	-10	202	-16368	696	516	227	53	64	126	127	8
-8728	-2872	13908	140	-89	-141	-15528	2248	-4392	-37	-58	13	-16300	-692	440	63	-110	278	-7824	4076	13320	-59	165	-216	-16188	-272	-4188	31	9	183	-16404	696	508	202	20	83	129	127	8
-8724	-2900	13980	140	-45	-125	-15600	2312	-4436	-98	-21	44	-16304	-700	512	60	-117	262	-7784	4104	13284	-100	167	-196	-16132	-236	-4136	87	16	186	-16320	644	352	169	2	72	126	127	8
-8792	-2820	13996	112	-3	-132	-15532	2288	-4436	1	-26	54	-16312	-668	488	89	-144	259	-7880	4060	13364	-87	146	-226	-16116	-200	-4152	77	-54	197	-16352	692	420	151	20	95	123	127	8
-8776	-2812	13972	156	-61	-114	-15568	2396	-4472	-4	-3	-5	-16308	-656	228	39	-177	253	-7820	4112	13404	-64	129	-198	-16124	-248	-4096	70	-14	177	-16388	672	532	145	42	72	121	127	8
-8768	-2864	13924	159	-77	-149	-15528	2280	-4568	-66	-61	27	-16356	-660	84	39	-110	266	-7780	4160	13388	-77	151	-199	-16120	-200	-3988	24	-28	185	-16400	692	544	117	40	64	126	127	8
-8752	-2880	13880	143	-102	-148	-15608	2296	-4520	-136	-76	-27	-16300	-756	188	62	-92	232	-7784	4116	13328	-79	177	-199	-16140	-188	-4168	20	-22	182	-16412	692	548	125	26	65	121	127	8
-8812	-2856	14076	138	-84	-145	-15540	2284	-4412	-144	-81	-8	-16420	-712	500	65	-109	296	-7824	4104	13364	-61	135	-225	-16100	-252	-3984	70	2	195	-16384	636	560	171	28	36	125	127	8
-8700	-2888	13844	152	-94	-147	-15552	2236	-4292	-133	-82	4	-16292	-668	464	19	-86	264	-7780	4056	13384	-84	152	-215	-16148	-284	-4040	23	-40	187	-16420	552	572	124	16	39	126	127	8
-8752	-2852	13936	145	-109	-113	-15488	2332	-4304	-79	-48	-19	-16380	-696	484	60	-126	259	-7756	4088	13248	-69	158	-201	-16180	-260	-4180	37	25	172	-16364	636	440	170	12	62	125	127	8
-8772	-2972	14092	140	-50	-139	-15540	2240	-4300	-117	-40	7	-16324	-660	324	15	-190	218	-7816	4064	13340	-33	138	-199	-16148	-260	-4132	18	5	175	-16376	652	316	158	57	34	127	127	8
-8724	-2812	14036	189	-114	-113	-15560	2376	-4424	-163	-4	49	-16292	-628	220	40	-185	245	-7768	4084	13344	-58	123	-216	-16088	-188	-4220	50	-41	180	-16368	676	368	167	79	49	124	127	8
-8724	-2880	13972	173	-139	-125	-15500	2320	-4552	-188	-60	10	-16252	-732	236	30	-140	226	-7732	4172	13408	-78	163	-225	-16180	-188	-4116	80	15	167	-16380	752	444	174	44	54	124	127	8
-8752	-2856	13932	120	-111	-127	-15636	2264	-4476	-181	-59	12	-16084	-732	-284	103	19	273	-7728	4148	13392	-41	129	-228	-16196	-240	-4116	114	1	142	-16380	708	364	203	25	38	126	127	8
-8720	-2932	14040	132	-73	-153	-15528	2296	-4252	-141	-87	19	-16328	-792	416	80	-100	264	-7788	4108	13292	-128	139	-196	-16160	-308	-4084	70	0	140	-16352	672	372	202	-20	8	125	127	8
-8764	-2888	13992	166	-92	-142	-15536	2292	-4296	-85	-13	-33	-16320	-668	576	174	-204	215	-7880	4088	13372	-97	117	-206	-16152	-312	-4072	111	-44	138	-16364	664	520	193	-11	15	128	127	8
-8712	-2872	13984	144	-60	-133	-15592	2328	-4280	-65	29	-25	-16288	-624	552	121	-147	204	-7756	4120	13380	-115	142	-247	-16120	-188	-4140	92	-18	164	-16376	752	420	160	41	13	126	127	8
-8724	-2760	14028	158	-49	-162	-15492	2436	-4344	-83	82	-44	-16320	-500	316	18	-220	178	-7772	4100	13364	-102	141	-203	-16104	-164	-4076	57	-24	118	-16412	764	472	22	82	61	126	127	8
-8648	-2924	13920	163	-105	-126	-15600	2372	-4244	-132	68	-24	-16344	-528	308	-64	-239	181	-7844	4088	13348	-41	91	-227	-16180	-172	-4004	25	19	141	-16428	736	616	17	24	17	121	127	8
-8772	-2852	13964	144	-44	-163	-15544	2376	-4448	-30	29	-62	-16348	-668	476	-121	-308	227	-7848	4032	13336	-84	144	-245	-16148	-212	-3992	-46	24	109	-16376	776	684	-42	1	-18	124	127	8
-8696	-2888	13940	118	-27	-136	-15532	2284	-4384	-30	9	-117	-16556	-680	564	-119	-421	205	-7756	4096	13336	-108	118	-222	-16144	-184	-4044	-85	45	135	-16424	720	552	-67	-2	-26	125	127	8
-8796	-2852	14060	142	-58	-118	-15504	2348	-4804	-227	-39	-71	-16560	-492	604	-356	-426	144	-7736	4148	13392	-89	115	-264	-16168	-144	-4092	-151	74	139	-16508	684	376	-84	-39	-53	127	127	8
-8692	-2860	13956	122	-60	-184	-15508	2348	-4468	-154	-81	-65	-16612	-648	704	-268	-573	122	-7848	4116	13416	-129	138	-238	-16152	-236	-4152	-116	81	103	-16380	628	304	-136	-116	-40	127	127	8
-8724	-2932	13948	139	-35	-163	-15676	2436	-4384	-175	-77	-133	-16548	-656	584	-251	-574	137	-7728	4184	13344	-77	122	-267	-16168	-296	-4164	-192	38	90	-16532	532	252	-68	-160	-12	127	127	8
-8828	-2932	13920	99	-68	-162	-15616	2428	-4612	-174	-120	-119	-16516	-696	312	-306	-568	145	-7780	4076	13488	-93	190	-228	-16236	-332	-4412	-120	10	139	-16476	472	272	37	-252	-27	127	127	8
-8788	-2844	13952	119	-38	-211	-15596	2356	-4668	-212	-250	-99	-16340	-700	-84	-325	-387	130	-7808	4140	13404	-73	167	-192	-16152	-296	-4344	-13	-81	151	-16388	496	100	97	-264	14	126	127	8
-8732	-2860	13940	104	-87	-176	-15520	2356	-4536	-238	-332	-115	-16340	-748	-32	-160	-370	170	-7896	4004	13344	-39	159	-217	-16112	-204	-4428	67	-190	133	-16380	584	44	202	-252	74	128	127	8
-8588	-2672	13920	114	-107	-189	-15620	2192	-4312	-100	-372	-86	-16256	-716	452	-50	-409	172	-7792	4080	13432	-92	145	-183	-16212	-184	-4184	128	-263	126	-16300	652	48	238	-277	123	130	127	8
-8716	-2772	13952	110	-104	-184	-15648	2352	-4240	-134	-378	-128	-16340	-776	396	52	-409	142	-7828	4124	13412	-121	122	-207	-16136	-220	-4220	163	-344	139	-16388	684	248	301	-298	154	130	127	8
-8744	-2904	13940	90	-98	-174	-15472	2176	-4196	-93	-317	-104	-16184	-844	716	111	-369	130	-7800	4116	13440	-89	112	-157	-16152	-240	-4004	180	-372	122	-16364	604	524	349	-357	144	124	127	8
-8728	-2956	14064	133	-96	-194	-15528	2284	-4356	-26	-261	-89	-16220	-812	540	170	-346	128	-7784	4092	13460	-91	107	-193	-16044	-172	-3928	152	-337	115	-16360	676	628	325	-372	81	127	127	8
-8744	-2880	13968	112	-83	-172	-15564	2272	-4116	-14	-274	-42	-16200	-832	592	167	-348	116	-7836	4144	13376	-73	103	-187	-16144	-252	-3964	180	-344	127	-16412	712	760	400	-344	77	129	127	8
-8708	-2908	13956	115	-98	-202	-15552	2312	-4216	34	-275	-77	-16260	-772	520	226	-325	119	-7800	4140	13368	-85	121	-193	-16160	-220	-3960	275	-323	128	-16388	712	976	413	-307	90	129	127	8
-8648	-2940	13868	101	10	-162	-15536	2336	-4324	112	-242	-87	-16292	-656	508	211	-259	174	-7692	4092	13240	-89	131	-202	-16188	-256	-3952	201	-249	141	-16368	768	836	378	-223	88	128	127	8
-8716	-2920	13908	116	-50	-177	-15500	2224	-4424	138	-245	-66	-16244	-620	548	188	-224	206	-7772	4156	13472	-102	131	-218	-16196	-260	-3956	152	-202	120	-16436	788	804	356	-147	105	125	127	8
-8664	-2884	13972	115	-93	-138	-15624	2384	-4440	42	-220	-80	-16348	-656	480	11	-274	168	-7812	4160	13468	-92	183	-252	-16216	-148	-3920	122	-193	131	-16332	768	648	321	-63	20	126	127	8
-8740	-2844	13920	85	-71	-156	-15636	2368	-4288	-62	-205	-60	-16308	-724	536	6	-254	147	-7788	4096	13316	-81	154	-239	-16156	-228	-3852	77	-157	94	-16396	868	708	212	-26	11	126	127	8
-8700	-2900	13988	131	-105	-170	-15584	2256	-4312	31	-164	-87	-16392	-608	524	22	-175	147	-7800	4156	13460	-118	172	-245	-16168	-136	-3812	-37	-132	83	-16360	832	804	71	-70	-30	127	127	8
-8752	-2884	14036	113	-78	-158	-15620	2328	-4240	-131	-153	-111	-16272	-688	608	-114	-246	164	-7856	4124	13328	-112	148	-266	-16216	-276	-3888	-37	-42	113	-16380	764	720	-5	-159	-23	126	127	8
-8656	-2888	14020	94	-29	-169	-15568	2248	-4188	-117	-105	-111	-16248	-700	720	-34	-258	169	-7768	4108	13420	-118	124	-267	-16168	-220	-3880	-63	-19	84	-16396	680	728	14	-205	-12	126	127	8
-8748	-2948	14004	114	-49	-161	-15504	2284	-4292	-91	-59	-90	-16288	-740	540	-51	-243	157	-7788	4084	13348	-117	130	-227	-16160	-232	-4076	-15	-6	128	-16424	548	788	69	-218	15	123	127	8
-8720	-2856	14060	123	-70	-143	-15560	2268	-4208	-94	-66	-85	-16228	-780	576	-46	-319	134	-7852	4068	13236	-66	147	-251	-16128	-200	-4172	-10	-16	125	-16380	592	624	172	-199	13	128	127	8
-8716	-2912	13924	106	-55	-157	-15676	2248	-4252	-50	-118	-77	-16364	-732	312	46	-291	129	-7868	4152	13384	-87	141	-228	-16168	-284	-4136	73	-51	84	-16452	540	520	233	-157	19	124	127	8
-8692	-2912	14020	139	-62	-143	-15576	2292	-4372	-11	-143	-71	-16312	-776	480	47	-255	166	-7832	4112	13384	-90	134	-170	-16188	-236	-4128	110	-52	106	-16464	520	484	353	-194	22	127	127	8
-8720	-2900	13876	111	-118	-139	-15568	2336	-4224	-81	-155	-81	-16356	-760	544	88	-246	153	-7752	4160	13364	-73	138	-248	-16208	-172	-3988	154	-119	131	-16476	604	536	360	-213	48	129	127	8
-8704	-2880	13896	150	-105	-148	-15620	2256	-4352	-18	-167	-62	-16276	-788	540	192	-259	163	-7772	4084	13348	-108	165	-174	-16136	-252	-3964	282	-129	143	-16460	616	636	439	-271	51	127	127	8
-8728	-2864	13976	148	-117	-188	-15528	2300	-4368	55	-150	-62	-16396	-736	576	231	-254	121	-7776	4112	13404	-83	126	-254	-16164	-220	-4096	201	-188	157	-16332	696	568	392	-345	67	129	127	8
-8736	-2804	13924	124	-74	-177	-15600	2344	-4316	45	-166	-60	-16312	-756	440	306	-263	148	-7744	4112	13296	-61	136	-228	-16276	-280	-4052	190	-202	133	-16376	716	548	380	-252	49	129	127	8
-8716	-2936	13920	155	-102	-182	-15596	2284	-4196	80	-144	-47	-16316	-788	752	335	-270	172	-7820	4060	13296	-109	132	-231	-16184	-272	-4152	148	-204	111	-16376	636	484	347	-209	84	125	127	8
-8692	-2860	13952	156	-59	-132	-15588	2228	-4140	81	-145	-69	-16316	-668	772	263	-302	173	-7776	4048	13376	-100	147	-201	-16156	-236	-3992	195	-253	111	-16408	712	728	376	-178	60	127	127	8
-8672	-2884	14100	132	-105	-173	-15588	2300	-4172	170	-64	-82	-16340	-624	640	206	-303	126	-7800	4060	13376	-128	136	-202	-16204	-208	-3932	244	-214	141	-16388	700	816	360	-173	64	126	127	8
-8724	-2896	13948	139	-89	-152	-15688	2288	-4116	168	-64	-74	-16276	-752	628	146	-329	144	-7816	4092	13412	-111	146	-187	-16140	-260	-3848	223	-219	123	-16340	716	944	351	-238	45	127	127	8
-8688	-2828	13992	125	-42	-154	-15624	2304	-4324	162	-78	-56	-16224	-820	560	51	-272	180	-7800	4132	13288	-105	121	-217	-16216	-280	-3800	274	-172	139	-16340	728	1008	408	-251	42	127	127	8
-8712	-2888	13928	92	9	-159	-15632	2136	-4432	149	-104	-93	-16468	-816	756	115	-286	150	-7740	4124	13324	-103	128	-193	-16248	-192	-3896	196	-128	126	-16400	828	932	390	-252	23	127	127	8
-8748	-2916	13916	118	15	-151	-15580	2312	-4444	97	-160	-81	-16404	-728	400	166	-274	154	-7776	4104	13348	-81	166	-235	-16216	-236	-3884	152	-105	112	-16416	824	820	314	-131	9	127	127	8
-8732	-2960	14032	112	-14	-172	-15676	2292	-4352	18	-139	-78	-16324	-764	724	107	-213	141	-7844	4124	13392	-99	141	-247	-16252	-128	-3936	136	-107	129	-16416	720	792	255	-95	-2	126	127	8
-8636	-2936	13976	79	-14	-147	-15632	2272	-4304	-6	-125	-102	-16296	-672	664	50	-265	139	-7828	4080	13412	-67	165	-256	-16152	-232	-3960	168	-133	122	-16368	668	744	245	-70	-29	128	127	8
-8752	-2920	13988	113	-56	-161	-15580	2332	-4116	-11	-107	-78	-16284	-776	648	-31	-207	192	-7764	4140	13288	-87	151	-223	-16156	-288	-3804	143	-80	131	-16388	744	900	180	-113	-28	123	127	8
-8720	-2936	14104	137	-27	-146	-15664	2192	-4136	-46	-124	-107	-16264	-836	648	-42	-210	143	-7748	4080	13468	-75	147	-241	-16168	-232	-3888	68	-38	100	-16380	668	920	188	-187	-4	128	127	8
-8688	-2860	14000	108	-53	-195	-15584	2272	-4200	-42	-82	-39	-16288	-828	668	69	-194	166	-7768	4160	13344	-98	143	-203	-16192	-240	-3856	94	-34	90	-16460	748	728	149	-213	41	128	127	8
-8744	-2876	13964	101	-33	-188	-15596	2176	-4204	-82	-107	-86	-16300	-892	816	91	-217	159	-7808	4164	13412	-115	141	-220	-16240	-292	-3996	17	-61	92	-16440	612	736	207	-157	46	128	127	8
-8776	-2912	13852	91	-22	-173	-15528	2128	-4224	44	-63	-24	-16264	-940	668	192	-192	207	-7872	4168	13404	-102	136	-204	-16208	-244	-3976	171	-24	122	-16416	584	836	309	-122	29	128	127	8
-8724	-2912	13884	107	-83	-135	-15592	2156	-4168	144	-21	-65	-16304	-780	524	243	-168	183	-7804	4048	13292	-72	137	-236	-16188	-232	-4092	187	-73	162	-16360	552	748	418	-109	40	129	127	8
-8648	-2892	14028	152	-69	-167	-15644	2240	-4192	126	-57	-42	-16308	-852	500	310	-156	189	-7784	4112	13412	-47	126	-250	-16192	-268	-3944	314	-56	141	-16436	648	848	568	-150	54	130	127	8
-8728	-2944	14032	138	-77	-157	-15608	2208	-4292	174	-65	1	-16300	-864	764	422	-68	169	-7772	4160	13436	-45	144	-218	-16208	-276	-3852	341	-38	122	-16392	688	780	629	-232	68	125	127	8
-8752	-2876	13944	161	-16	-91	-15604	2264	-4240	262	-55	25	-16264	-724	624	495	-72	216	-7748	4048	13300	-56	143	-230	-16120	-248	-3884	343	-63	178	-16348	620	908	676	-310	102	124	127	8
-8712	-2896	13928	149	7	-165	-15536	2308	-4344	222	-57	-16	-16300	-740	356	455	-30	227	-7792	4128	13360	-114	143	-226	-16196	-228	-3804	315	-15	136	-16436	684	804	701	-321	108	125	127	8
-8708	-2936	13924	111	-44	-162	-15596	2176	-4336	237	-71	-28	-16380	-672	268	520	-71	210	-7772	4124	13304	-112	169	-240	-16268	-276	-3916	279	-53	136	-16360	756	780	672	-321	92	127	127	8
-8792	-2796	13948	150	-69	-139	-15552	2268	-4408	77	-153	5	-16376	-732	632	350	-145	242	-7692	4016	13404	-87	188	-220	-16280	-264	-4144	158	-102	161	-16412	904	668	511	-238	83	126	127	8
-8692	-3040	13956	112	-137	-180	-15596	2204	-4128	34	-95	-19	-16304	-616	632	284	-204	197	-7756	4164	13332	-68	148	-232	-16276	-404	-3972	261	-149	152	-16408	672	588	405	-84	48	129	127	8
-8716	-2884	13952	139	-72	-147	-15572	2280	-4128	68	-90	-27	-16328	-648	800	148	-257	150	-7800	4148	13404	-103	164	-193	-16084	-308	-3916	275	-133	124	-16348	848	824	254	-117	46	127	127	8
-8656	-2820	13948	126	-84	-164	-15612	2328	-4136	-49	-17	-59	-16088	-476	-324	-105	-113	35	-7764	4184	13280	-61	123	-184	-16244	-188	-3852	-16	-117	105	-16396	836	1016	29	-102	12	128	127	8
-8660	-2884	14052	158	-49	-161	-15532	2324	-4164	-173	32	-77	-16536	-692	1152	-236	-482	153	-7716	4160	13448	-80	141	-197	-16192	-280	-3836	-100	-63	109	-16336	856	1136	-86	-101	-10	126	127	8
-8676	-2916	14132	97	-34	-163	-15596	2188	-4284	-191	42	-80	-16464	-748	780	-342	-502	131	-7748	4124	13480	-114	156	-227	-16216	-184	-3688	-132	-12	149	-16408	832	1196	-132	-50	-39	125	127	8
-8728	-2956	13948	99	-51	-157	-15624	2332	-4476	-303	-22	-53	-16252	-744	288	-395	-347	111	-7800	4072	13324	-101	157	-243	-16256	-168	-3828	-137	-24	121	-16360	764	1000	-143	-8	-27	128	127	8
-8624	-2876	14000	100	-54	-165	-15700	2256	-4176	-230	-76	-96	-16308	-788	536	-318	-268	185	-7764	4160	13484	-67	169	-220	-16144	-336	-3840	-82	44	121	-16416	544	920	-19	41	-21	125	127	8
-8644	-2916	13984	97	-68	-171	-15592	2268	-4264	-72	-124	-92	-16456	-824	596	-174	-216	188	-7824	4044	13280	-96	190	-222	-16168	-260	-3768	26	40	115	-16488	608	912	160	-4	-27	125	127	8
-8680	-2892	13984	117	-75	-161	-15628	2212	-4216	-78	-121	-99	-16280	-924	644	-146	-192	201	-7788	4152	13412	-61	173	-268	-16148	-216	-3948	87	95	121	-16428	688	892	253	2	11	129	127	8
-8700	-2920	13972	114	-36	-152	-15592	2204	-4056	-54	-114	-106	-16216	-904	860	-39	-154	220	-7768	4096	13408	-83	168	-214	-16220	-252	-3992	108	56	157	-16408	656	576	321	-43	-9	127	127	8
-8728	-2908	13960	113	-14	-162	-15660	2204	-4192	-35	-100	-30	-16304	-972	704	63	-132	214	-7760	4128	13380	-84	187	-224	-16268	-176	-3932	177	23	132	-16384	688	600	336	-29	-9	127	127	8
-8668	-2968	13972	141	-42	-156	-15556	2144	-4144	93	-91	-47	-16276	-844	680	141	-125	189	-7788	4112	13384	-76	209	-198	-16188	-136	-4068	227	-116	120	-16420	628	464	418	13	5	125	127	8
-8732	-2864	13960	153	-55	-177	-15600	2264	-4240	99	-63	-23	-16224	-856	720	211	-70	175	-7776	4060	13364	-93	104	-222	-16160	-256	-4180	270	-133	143	-16332	688	532	376	-50	34	123	127	8
-8652	-2936	13964	150	5	-185	-15584	2192	-4300	64	-86	-34	-16312	-800	680	209	-99	235	-7872	4148	13300	-112	119	-196	-16188	-180	-3932	242	-188	117	-16420	756	840	364	-77	85	128	127	8
-8612	-2920	14056	121	-21	-158	-15612	2232	-4184	139	-125	31	-16300	-868	700	293	-114	214	-7792	4172	13456	-86	107	-213	-16224	-348	-3860	207	-165	131	-16356	688	716	359	-120	67	124	127	8
-8728	-2852	13876	122	-55	-189	-15580	2232	-4196	136	-41	-3	-16280	-864	672	266	-122	177	-7760	4080	13356	-87	122	-203	-16184	-308	-3784	231	-136	163	-16484	688	1084	366	-154	62	124	127	8
-8676	-2832	13992	161	-36	-165	-15572	2256	-4196	77	-22	-4	-16236	-832	636	236	-154	226	-7812	4060	13428	-49	137	-245	-16428	-236	-3776	274	-56	146	-16452	704	1068	368	-66	52	123	127	8
-8688	-2912	14028	122	-24	-142	-15668	2228	-4208	81	-45	-19	-16312	-708	652	169	-131	231	-7728	4092	13356	-105	176	-217	-16300	-256	-3916	137	-64	143	-16420	660	976	356	-4	30	126	127	8
-8688	-2864	13968	133	-78	-119	-15580	2268	-4240	12	-51	-14	-16348	-664	600	99	-96	234	-7808	4104	13420	-83	191	-234	-16164	-236	-3864	120	-41	166	-16304	764	892	345	38	30	126	127	8
-8744	-2888	13968	96	-69	-145	-15576	2276	-4332	-86	-28	-31	-16296	-696	604	17	-149	246	-7828	4160	13284	-72	159	-208	-16184	-224	-3896	158	-48	164	-16320	820	936	299	90	-7	124	127	8
-8716	-2880	14004	138	-83	-146	-15700	2272	-4232	30	-2	-32	-16304	-688	620	-50	-200	230	-7888	4100	13280	-105	164	-226	-16304	-216	-3840	112	-104	120	-16428	848	648	274	92	-8	122	127	8
-8684	-2880	13960	108	2	-133	-15628	2252	-4304	54	-36	-62	-16408	-696	684	-171	-225	228	-7844	4124	13320	-77	151	-219	-16184	-232	-3852	1	-83	82	-16372	740	852	170	16	-17	127	127	8
-8644	-2932	13864	87	3	-130	-15628	2180	-4188	-66	-31	-62	-16296	-788	652	-250	-203	218	-7792	4140	13432	-68	150	-203	-16192	-288	-3800	-46	-36	126	-16472	776	828	98	-17	-32	127	127	8
-8856	-2904	13968	85	-5	-140	-15608	2172	-4292	-63	-63	-85	-16252	-784	600	-195	-144	181	-7812	4156	13308	-57	176	-212	-16240	-220	-3892	-20	-52	157	-16376	748	756	55	19	21	123	127	8
-8776	-2952	13936	111	40	-139	-15616	2256	-4220	-64	-97	-36	-16316	-824	560	-142	-175	232	-7796	4100	13508	-58	166	-244	-16216	-196	-3928	-37	-80	124	-16396	692	884	18	12	34	125	127	8
-8772	-2876	13988	114	-20	-121	-15588	2260	-4304	-61	-114	-46	-16316	-804	612	-93	-172	221	-7712	4164	13396	-34	162	-222	-16164	-268	-3952	41	-42	137	-16392	648	812	83	24	47	127	127	8
-8764	-2908	14036	123	-22	-116	-15600	2184	-4096	-11	-73	-61	-16292	-820	724	53	-140	214	-7752	4120	13356	-66	164	-221	-16176	-292	-3872	79	-38	150	-16416	652	1004	167	25	20	126	127	8
-8744	-2960	13976	109	-20	-142	-15608	2224	-4232	72	-69	-62	-16296	-872	728	125	-144	213	-7748	4056	13340	-49	160	-210	-16184	-252	-3876	75	-26	150	-16380	664	896	260	-69	18	125	127	8
-8640	-2884	14056	116	4	-133	-15612	2192	-4172	138	-89	-25	-16304	-764	572	71	-104	251	-7784	4192	13344	-61	169	-204	-16204	-188	-3920	96	-1	146	-16420	724	716	314	-29	6	125	127	8
-8744	-2904	13980	138	-19	-134	-15696	2244	-4236	62	-86	-39	-16296	-788	540	-20	-139	243	-7812	4072	13368	-42	185	-218	-16220	-196	-3832	171	-33	146	-16372	628	772	331	-17	11	125	127	8
-8740	-2864	13900	118	-14	-141	-15648	2268	-4140	17	-90	-11	-16340	-872	536	-29	-170	232	-7816	4068	13412	-129	164	-172	-16120	-316	-3912	212	-41	139	-16284	724	704	309	9	3	127	127	8
-8772	-2900	14036	102	-62	-135	-15576	2260	-4176	-20	-47	-66	-16344	-644	668	10	-135	225	-7804	4204	13452	-61	156	-234	-16160	-300	-3852	192	-39	128	-16348	680	820	316	20	26	127	127	8
-8720	-2860	14020	120	-45	-138	-15624	2212	-4036	-63	-56	-32	-16272	-844	612	-125	-174	250	-7880	4056	13352	-64	167	-218	-16108	-248	-3908	236	-29	176	-16380	764	884	266	35	6	123	127	8
-8800	-2976	13928	109	-2	-123	-15640	2236	-4136	-46	-44	-56	-16320	-792	808	-69	-152	220	-7840	4068	13404	-49	139	-229	-16200	-156	-3844	156	-22	140	-16356	848	912	247	-4	12	125	127	8
-8732	-2864	13924	122	-49	-126	-15620	2296	-4112	-168	-56	-37	-16284	-692	500	-141	-139	193	-7768	4124	13288	-46	140	-220	-16172	-184	-3680	48	17	112	-16420	736	900	187	-58	42	125	127	8
-8696	-2924	13904	144	-12	-145	-15624	2224	-4164	-53	-41	-12	-16372	-764	664	-149	-226	177	-7752	4140	13412	-16	146	-226	-16192	-284	-3804	95	32	136	-16376	756	1024	220	-76	-2	125	127	8
-8736	-2868	14000	113	-45	-139	-15704	2320	-4228	-12	-38	-31	-16292	-656	604	-194	-183	187	-7720	4156	13316	-87	158	-233	-16300	-272	-3852	18	16	154	-16364	836	848	113	31	3	126	127	8
-8764	-2772	13988	103	-14	-151	-15632	2324	-4144	-141	-32	-23	-16360	-748	532	-167	-194	145	-7844	4192	13320	-45	190	-227	-16252	-332	-3960	-84	7	96	-16376	732	904	53	33	-31	125	127	8
-8672	-2880	14028	91	-50	-132	-15600	2340	-4260	-167	-62	-95	-16112	-612	-108	-301	-69	191	-7852	4072	13540	-59	151	-190	-16192	-260	-3856	84	-12	92	-16304	752	804	64	-17	-6	130	127	8
-8696	-2788	14028	85	-82	-165	-15572	2232	-4228	-156	-64	-89	-16284	-724	744	-278	-254	144	-7796	4116	13356	-54	133	-220	-16204	-128	-3768	-9	61	105	-16368	744	948	87	-32	-19	125	127	8
-8736	-2924	14024	110	-15	-131	-15512	2336	-4052	-112	-18	-62	-16232	-704	860	-176	-323	154	-7832	4240	13352	-74	143	-220	-16196	-296	-3820	102	75	116	-16348	776	944	110	-92	10	123	127	8
-8704	-2924	14044	121	-35	-151	-15656	2176	-4292	-149	-28	-70	-16236	-860	624	-251	-272	180	-7692	4112	13428	-115	151	-260	-16304	-152	-3868	18	105	121	-16420	744	912	166	-91	-15	127	127	8
-8732	-2896	13928	113	-94	-149	-15652	2264	-4176	-102	-33	-82	-16208	-1000	848	-178	-191	187	-7808	4136	13476	-55	185	-260	-16292	-276	-4056	85	53	88	-16360	608	568	193	-5	-22	125	127	8
-8696	-2964	13972	115	-71	-137	-15652	2260	-4348	52	10	-86	-16296	-776	700	-58	-157	162	-7804	4104	13388	-109	173	-253	-16248	-280	-4096	121	29	109	-16404	536	616	191	97	-32	127	127	8
-8684	-2896	14024	105	-48	-155	-15620	2304	-4164	-52	18	-58	-16296	-844	564	-75	-168	165	-7800	4064	13388	-43	181	-222	-16160	-276	-4004	148	-23	87	-16316	664	652	197	85	-29	127	127	8
-8732	-2844	13988	126	-39	-160	-15560	2176	-4216	-56	-53	-89	-16244	-772	584	-40	-141	182	-7804	4124	13272	-90	155	-202	-16192	-268	-3932	104	-35	129	-16448	688	724	187	74	-50	127	127	8
-8752	-2932	13964	112	-44	-148	-15632	2244	-4316	-26	-41	-84	-16312	-796	768	-42	-95	202	-7752	4224	13268	-71	171	-222	-16256	-280	-3792	172	-55	122	-16388	696	880	225	33	-5	122	127	8
-8740	-2912	13896	127	-2	-130	-15608	2256	-4240	-64	-12	-36	-16260	-736	548	52	-122	208	-7792	4076	13320	-77	133	-204	-16152	-256	-3820	214	-38	132	-16336	668	1132	217	-39	10	127	127	8
-8688	-2840	13956	110	-30	-161	-15680	2216	-4248	-23	-13	-64	-16224	-876	616	37	-128	222	-7780	4108	13328	-80	180	-245	-16228	-208	-3740	25	41	114	-16408	680	976	159	-3	23	125	127	8
-8652	-2944	13980	106	-38	-136	-15628	2136	-4180	110	-28	-74	-16192	-784	776	9	-111	236	-7840	4140	13236	-59	141	-223	-16148	-332	-3808	131	59	132	-16312	752	1068	185	41	10	126	127	8
-8740	-2928	14028	113	-38	-167	-15620	2336	-4208	58	-18	-58	-16244	-756	768	131	-53	197	-7816	4168	13376	-90	170	-273	-16180	-196	-3804	162	33	120	-16364	732	920	196	87	-8	124	127	8
-8668	-2884	13952	125	-37	-161	-15604	2220	-4216	-12	15	3	-16288	-800	808	24	-89	202	-7764	4216	13284	-90	172	-224	-16116	-196	-3976	-22	79	109	-16360	732	812	169	110	-43	126	127	8
-8784	-2924	14004	149	-39	-134	-15596	2212	-4128	52	13	-45	-16260	-804	684	-38	-107	211	-7856	4112	13296	-103	185	-222	-16136	-192	-3968	-13	60	132	-16336	688	776	165	110	-46	124	127	8
-8732	-2912	13876	155	-38	-121	-15720	2256	-4232	1	23	-60	-16360	-700	648	11	-98	173	-7828	4124	13348	-88	140	-213	-16232	-260	-3852	2	27	107	-16380	704	848	185	97	-30	126	127	8
-8720	-2896	13980	142	-23	-119	-15632	2220	-4256	5	12	-13	-16352	-708	476	-22	-118	215	-7784	4116	13400	-95	145	-229	-16228	-180	-3832	-21	46	80	-16520	680	888	159	51	-6	125	127	8
-8796	-2828	13900	112	-42	-146	-15648	2248	-4280	-58	-44	-58	-16344	-796	544	-52	-96	239	-7832	4132	13296	-67	145	-220	-16144	-188	-3844	-2	27	111	-16408	736	964	36	20	39	125	127	8
-8740	-2920	14068	100	-46	-156	-15616	2292	-4252	-106	-61	-49	-16300	-872	720	-74	-119	203	-7820	4144	13332	-87	163	-235	-16224	-180	-3864	46	12	124	-16384	692	756	114	69	78	124	127	8
-8736	-2912	13908	99	-103	-142	-15700	2208	-4188	-99	-7	-70	-16260	-852	820	24	-81	213	-7804	4004	13288	-63	152	-253	-16244	-212	-3964	-27	74	133	-16356	740	544	52	53	85	128	127	8
-8684	-2932	13976	111	-71	-160	-15588	2148	-4112	4	-1	-23	-16268	-904	924	69	-149	205	-7792	4108	13308	-82	141	-224	-16188	-376	-3924	-10	64	115	-16396	664	824	41	59	67	127	127	8
-8700	-2932	13900	148	-13	-138	-15616	2232	-4248	133	59	-19	-16260	-824	792	166	-62	190	-7880	4112	13404	-83	154	-229	-16152	-252	-3964	92	35	130	-16396	620	932	81	66	63	127	127	8
-8692	-2912	14024	106	16	-155	-15584	2284	-4320	114	34	10	-16268	-736	592	112	-36	221	-7792	4208	13288	-74	174	-236	-16220	-164	-3908	-3	72	124	-16468	708	880	71	85	33	130	127	8
-8708	-2880	13932	156	-26	-122	-15640	2200	-4268	146	43	-23	-16320	-760	636	80	-36	228	-7816	4036	13448	-51	147	-228	-16168	-244	-3908	64	25	160	-16392	780	984	151	6	52	130	127	8
-8696	-2932	13900	119	41	-141	-15628	2196	-4308	110	37	38	-16332	-752	584	82	-34	201	-7824	4136	13332	-49	184	-212	-16184	-184	-3800	89	83	136	-16360	684	916	173	57	42	124	127	8
-8776	-2932	13956	126	-22	-128	-15600	2284	-4248	53	6	-15	-16300	-732	732	-1	-89	227	-7824	4136	13372	-62	179	-238	-16196	-308	-3908	91	148	129	-16416	768	888	237	71	23	126	127	8
-8660	-2928	13932	154	-51	-159	-15672	2244	-4212	-24	41	-17	-16224	-720	736	1	-70	254	-7792	4148	13292	-39	194	-258	-16272	-156	-3940	89	109	119	-16380	692	832	276	81	-25	126	127	8
-8720	-2940	14028	141	-6	-177	-15604	2232	-4304	-11	44	-36	-16368	-696	740	37	-101	210	-7840	4176	13272	-58	175	-253	-16224	-292	-4012	109	79	135	-16440	712	668	208	138	-28	126	127	8
-8732	-2848	14000	134	-49	-132	-15556	2204	-4364	80	76	-26	-16336	-776	800	-94	-94	253	-7788	4124	13400	-87	137	-248	-16252	-184	-3996	179	45	110	-16420	820	784	175	117	-52	123	127	8
-8716	-3008	13820	117	-30	-120	-15628	2200	-4348	117	61	-76	-16360	-632	500	-90	-93	228	-7784	4144	13472	-93	164	-258	-16156	-324	-3884	38	81	91	-16368	764	932	122	5	-12	124	127	8
-8800	-2928	13936	117	-9	-118	-15600	2340	-4256	-47	-30	-17	-16336	-748	388	-95	-18	141	-7820	4116	13332	-122	139	-233	-16168	-224	-3860	96	109	104	-16480	776	880	98	-49	-30	127	127	8
-8668	-2896	14096	102	-45	-157	-15600	2244	-4304	-98	10	-58	-16208	-756	648	-30	-65	164	-7820	4120	13384	-113	159	-242	-16176	-292	-3868	99	117	91	-16436	692	924	128	-78	-13	129	127	8
-8732	-2864	13896	117	-39	-171	-15552	2324	-4376	19	-8	-71	-16288	-772	528	34	-98	211	-7820	4100	13300	-73	145	-248	-16148	-304	-4032	-36	166	69	-16388	532	756	131	14	-8	123	127	8
-8756	-2856	13912	116	-2	-178	-15584	2204	-4220	85	18	-36	-16304	-784	860	57	-53	236	-7800	4084	13384	-35	173	-244	-16220	-272	-4132	68	54	96	-16432	532	528	229	122	-10	120	127	8
-8736	-2892	13896	121	-94	-127	-15528	2220	-4264	64	37	-62	-16292	-840	612	159	-41	216	-7816	4024	13404	-81	146	-268	-16168	-252	-4112	108	-10	74	-16392	684	500	195	167	20	125	127	8
-8756	-2880	13964	119	-22	-134	-15600	2156	-4348	89	2	-40	-16348	-848	632	132	-76	212	-7824	4168	13384	-102	153	-202	-16212	-264	-3924	220	0	118	-16384	692	616	255	112	31	126	127	8
-8688	-2900	13976	111	-3	-185	-15608	2204	-4320	107	32	-37	-16300	-768	604	136	-85	202	-7768	4068	13304	-110	121	-231	-16216	-224	-3916	253	-33	105	-16436	756	884	239	25	-3	127	127	8
-8668	-2948	13888	98	-22	-145	-15548	2200	-4292	57	46	8	-16284	-784	664	3	-33	246	-7832	4080	13348	-70	140	-230	-16200	-272	-3760	203	61	108	-16452	652	948	305	-45	-13	127	127	8
-8728	-2912	13876	117	-29	-108	-15608	2256	-4272	52	9	-55	-16272	-812	628	69	9	206	-7772	4072	13436	-61	167	-214	-16132	-248	-3800	185	47	110	-16344	640	972	299	-4	-23	125	127	8
-8740	-2884	13976	132	-30	-85	-15632	2224	-4192	67	3	-42	-16388	-820	524	88	-2	232	-7776	4132	13400	-85	177	-223	-16160	-324	-3784	203	56	90	-16388	664	884	283	-4	-53	123	127	8
-8768	-2904	14072	124	13	-151	-15604	2248	-4244	74	37	-38	-16256	-744	704	126	14	226	-7868	4108	13264	-45	156	-220	-16208	-300	-3972	168	109	107	-16380	632	776	249	72	-10	129	127	8
-8736	-2908	13948	114	-5	-150	-15560	2240	-4312	117	39	-38	-16308	-748	588	63	-35	179	-7772	4156	13332	-56	168	-233	-16120	-196	-4036	153	73	137	-16376	704	740	229	123	3	126	127	8
-8740	-2856	13968	126	-40	-116	-15600	2344	-4316	111	35	-19	-16288	-748	504	166	13	192	-7856	4048	13328	-91	145	-241	-16160	-288	-3988	193	62	118	-16448	692	828	228	135	-28	127	127	8
-8796	-2888	14004	127	4	-138	-15584	2248	-4428	-6	36	-32	-16332	-724	504	65	35	239	-7812	4148	13412	-62	128	-210	-16184	-240	-3884	229	63	111	-16348	824	864	201	53	10	127	127	8
-8736	-2968	14060	128	-25	-182	-15564	2192	-4352	-37	4	-8	-16300	-760	672	1	-33	241	-7832	4140	13464	-114	136	-237	-16164	-204	-3988	161	78	115	-16424	784	804	238	22	-26	123	127	8
-8712	-2876	13968	123	-63	-148	-15616	2180	-4176	-20	30	-42	-16284	-772	628	-25	-89	210	-7816	4124	13328	-102	141	-271	-16240	-296	-3912	110	114	114	-16464	632	816	200	-34	-4	128	127	8
-8700	-2880	13980	121	-50	-110	-15668	2236	-4252	29	57	-47	-16312	-740	648	-52	-75	249	-7892	4048	13404	-69	166	-221	-16160	-304	-4020	114	106	131	-16452	620	704	214	-9	-30	126	127	8
-8712	-2848	13964	116	8	-112	-15580	2212	-4364	-13	37	-21	-16348	-744	508	-39	-110	210	-7800	4128	13400	-121	150	-232	-16208	-212	-4168	88	64	111	-16420	628	624	160	79	-46	128	127	8
-8820	-2936	14032	147	-86	-162	-15540	2252	-4380	-73	27	-57	-16252	-728	428	-8	-157	160	-7776	4068	13492	-89	135	-231	-16128	-296	-4024	-2	36	111	-16352	712	472	98	123	-14	125	127	8
-8756	-2924	13868	135	-51	-156	-15616	2256	-4440	-31	14	-44	-16324	-796	576	-47	-223	148	-7820	4152	13284	-102	140	-221	-16120	-240	-4172	67	-40	83	-16404	616	504	128	70	-29	126	127	8
-8716	-2844	13952	122	-68	-114	-15648	2292	-4248	-46	-5	-71	-16356	-768	360	-89	-201	207	-7796	4176	13360	-100	134	-236	-16148	-224	-4096	88	-40	93	-16392	596	592	208	-1	27	126	127	8
-8736	-2916	13984	126	-23	-146	-15568	2248	-4364	63	-31	-2	-16736	-616	1528	-181	-481	157	-7748	4152	13392	-121	166	-211	-16208	-236	-4040	80	-70	114	-16352	584	632	303	-90	-7	130	127	8
-8784	-2916	13892	84	-28	-164	-15620	2156	-4232	44	29	-51	-16520	-952	1624	51	-520	202	-7808	4160	13320	-60	115	-213	-16192	-344	-4092	248	-90	129	-16348	584	700	384	-65	-59	129	127	8
-8672	-2884	13928	119	-5	-163	-15580	2032	-4032	-6	26	-56	-16240	-840	480	111	-188	123	-7840	4088	13364	-104	135	-217	-16228	-220	-4016	193	-154	96	-16344	664	596	426	-77	-56	124	127	8
-8804	-2788	13992	138	40	-150	-15524	2252	-4452	107	25	-29	-16184	-868	584	141	-194	163	-7852	4156	13272	-123	154	-181	-16204	-320	-3984	139	-101	99	-16336	592	584	352	-19	23	127	127	8
-8756	-2904	13972	118	3	-134	-15632	2088	-4404	147	9	1	-16292	-892	164	197	-111	187	-7792	4096	13316	-133	125	-183	-16152	-348	-4228	182	-149	145	-16504	660	800	302	-12	80	129	127	8
-8792	-2844	14024	150	-38	-144	-15520	2292	-4452	146	-108	-42	-16292	-780	328	274	-16	195	-7800	4124	13452	-103	127	-206	-16284	-380	-3820	250	-143	94	-16452	676	856	295	-35	86	126	127	8
-8784	-2868	13940	114	-90	-166	-15660	2144	-4300	194	-48	-43	-16348	-816	708	262	-83	266	-7768	4160	13296	-64	123	-232	-16228	-220	-3688	295	-72	129	-16428	776	1216	282	-50	77	129	127	8
-8764	-2848	14004	115	-41	-154	-15572	2288	-4144	68	-58	-36	-16348	-768	852	225	-30	251	-7808	4140	13392	-48	131	-243	-16196	-248	-3832	128	17	108	-16364	768	1176	264	-41	57	127	127	8
-8764	-2968	13920	109	-13	-145	-15572	2068	-4100	118	-15	-6	-16272	-768	896	140	-57	222	-7796	4176	13316	-129	201	-197	-16140	-272	-3868	142	34	109	-16320	740	920	280	7	3	127	127	8
-8768	-2944	13888	102	2	-130	-15500	2164	-4220	123	3	-61	-16216	-756	800	50	-77	214	-7804	4120	13368	-114	173	-224	-16200	-208	-3804	19	143	140	-16296	736	968	192	139	-29	126	127	8
-8784	-2984	13940	125	-30	-128	-15612	2200	-4352	-33	91	14	-16332	-668	628	-96	-91	217	-7804	4084	13356	-80	188	-226	-16192	-308	-4012	-72	135	132	-16424	760	844	146	176	-70	124	127	8
-8788	-2956	13984	115	-51	-132	-15656	2304	-4372	-69	17	-71	-16356	-596	552	-163	-69	194	-7788	4088	13464	-95	132	-227	-16164	-276	-4100	-91	115	127	-16328	720	668	68	160	-60	125	127	8
-8828	-2860	13920	101	4	-135	-15548	2332	-4392	-146	26	-42	-16316	-640	468	-256	-119	240	-7824	4084	13316	-77	149	-216	-16180	-284	-4072	-112	151	109	-16392	772	680	-46	172	-68	126	127	8
-8732	-2892	13960	79	-46	-152	-15572	2268	-4228	-174	-5	-43	-16360	-656	540	-355	-157	254	-7880	4164	13312	-64	139	-251	-16128	-236	-4116	-104	76	144	-16388	768	732	-95	126	-29	126	127	8
-8772	-2880	14060	124	-55	-163	-15508	2168	-4296	-208	56	-110	-16268	-800	648	-388	-193	184	-7864	4208	13392	-125	165	-262	-16160	-244	-3924	-127	127	82	-16412	708	784	-111	56	10	125	127	8
-8780	-2948	13952	113	-30	-150	-15528	2144	-4352	-221	18	-112	-16280	-856	652	-300	-148	196	-7796	4140	13456	-103	116	-232	-16192	-428	-4060	-104	140	82	-16352	572	632	-70	22	-36	127	127	8
-8728	-2944	14080	122	-29	-148	-15592	2140	-4328	-153	53	-74	-16344	-860	380	-194	-70	191	-7852	4108	13372	-87	137	-246	-16176	-364	-4236	-37	61	116	-16416	508	656	16	14	-90	127	127	8
-8804	-2912	14016	142	-62	-160	-15556	2236	-4352	-105	13	-82	-16304	-788	428	1	-101	177	-7832	4176	13428	-74	166	-216	-16136	-288	-4104	10	53	104	-16476	512	612	93	56	-74	126	127	8
-8764	-2872	13976	109	-70	-163	-15652	2196	-4328	39	-13	-21	-16364	-792	468	110	-64	243	-7860	4120	13308	-88	146	-233	-16188	-280	-4024	97	51	123	-16452	584	592	146	110	13	125	127	8
-8780	-2924	13904	139	-19	-161	-15612	2160	-4444	93	-54	-22	-16340	-784	448	154	-29	240	-7832	4156	13192	-71	123	-216	-16132	-260	-4064	134	0	141	-16372	556	688	172	78	76	126	127	8
-8692	-2944	14024	134	-126	-121	-15584	2188	-4400	49	-78	-46	-16324	-820	680	110	-56	251	-7860	4172	13276	-79	119	-215	-16148	-228	-4064	206	31	123	-16364	632	724	240	40	47	126	127	8
-8792	-2928	13872	129	-84	-152	-15632	2224	-4144	34	-31	-19	-16332	-844	720	153	-117	242	-7836	4104	13384	-111	121	-198	-16168	-304	-3988	115	40	152	-16368	548	612	280	3	18	127	127	8
-8768	-2912	13984	118	-11	-149	-15568	2120	-4216	143	33	39	-16232	-800	616	87	-166	198	-7800	4168	13452	-103	104	-219	-16180	-420	-4160	137	-14	184	-16464	604	548	349	-15	3	129	127	8
-8688	-3008	13908	140	-45	-110	-15592	2208	-4348	68	42	29	-16340	-692	432	48	-149	182	-7824	4092	13380	-40	129	-186	-16208	-332	-4120	81	-56	151	-16448	584	484	307	6	-2	125	127	8
-8796	-2868	13908	140	-5	-140	-15596	2336	-4524	59	-34	-27	-16416	-752	232	95	-181	216	-7836	4168	13308	-51	153	-193	-16196	-220	-4172	127	-93	125	-16432	640	464	263	-17	52	127	127	8
-8744	-2920	13968	147	-24	-108	-15640	2264	-4544	32	-96	-48	-16368	-696	216	78	-168	237	-7880	4164	13320	-90	157	-190	-16152	-264	-4020	102	-85	165	-16444	736	660	198	-29	93	127	127	8
-8756	-2880	14044	109	-105	-159	-15668	2320	-4428	-101	-181	-47	-16384	-604	264	58	-145	272	-7788	4128	13356	-81	106	-205	-16112	-224	-3968	33	-72	140	-16340	772	844	125	-31	102	131	127	8
-8788	-2916	13864	91	-11	-195	-15580	2224	-4276	-143	-148	-76	-16344	-684	656	15	-221	233	-7816	4140	13452	-42	164	-211	-16168	-288	-3868	3	-41	112	-16352	656	740	92	-79	92	125	127	8
-8740	-2940	14048	62	-34	-173	-15548	2184	-4232	-153	-156	-70	-16300	-812	808	-121	-267	222	-7828	4096	13332	-84	128	-209	-16188	-280	-3924	-39	-18	152	-16308	688	772	42	-82	48	121	127	8
-8736	-2900	13912	122	-92	-126	-15576	2156	-4100	-246	-81	-47	-16136	-780	892	-214	-244	240	-7788	4076	13256	-107	138	-234	-16140	-244	-3892	-57	2	136	-16288	624	884	51	-48	9	126	127	8
-8732	-2924	14008	140	-49	-170	-15612	2164	-4212	-158	-51	-26	-16280	-928	776	-199	-302	184	-7804	4084	13284	-76	147	-251	-16120	-224	-3964	-44	-10	150	-16352	636	756	15	24	-21	126	127	8
-8700	-2968	13972	125	-52	-128	-15564	2156	-4384	-79	-23	-14	-16328	-784	628	-227	-338	167	-7824	4104	13332	-86	164	-216	-16164	-264	-3884	36	8	124	-16376	700	968	46	77	0	125	127	8
-8688	-2968	13868	145	-111	-121	-15620	2320	-4312	-202	-31	-16	-16332	-604	612	-251	-404	174	-7788	4180	13340	-59	123	-217	-16188	-208	-3912	-66	7	121	-16324	776	924	75	147	37	124	127	8
-8740	-2748	13996	115	-48	-157	-15672	2152	-4316	-270	-38	-15	-16348	-660	476	-404	-312	185	-7756	4188	13408	-81	170	-243	-16196	-260	-3948	-265	38	124	-16428	692	712	-41	147	-8	124	127	8
-8728	-2772	13884	126	-76	-153	-15564	2392	-4404	-427	-20	-88	-16296	-688	540	-577	-350	217	-7824	4168	13316	-55	156	-264	-16256	-288	-4152	-141	44	142	-16452	648	728	-71	122	-31	126	127	8
-8748	-2960	13932	112	-63	-134	-15644	2212	-4372	-444	-39	-108	-16528	-792	1108	-603	-556	225	-7844	4204	13328	-60	162	-227	-16132	-380	-4116	-136	-60	147	-16388	628	596	-91	248	-101	127	127	8
-8716	-2984	13896	101	-1	-122	-15464	2284	-4288	-370	-86	-65	-16264	-724	196	-690	-253	232	-7856	4208	13224	-99	183	-188	-16104	-248	-4104	-193	-46	152	-16360	708	488	-180	211	-109	126	127	8
-8828	-2840	13972	94	-16	-177	-15524	2248	-4424	-243	-82	-92	-16276	-916	700	-616	-340	222	-7780	4048	13368	-81	179	-215	-16196	-236	-3996	-136	-10	161	-16400	692	636	-258	179	-18	126	127	8
-8744	-2988	13928	110	-54	-190	-15604	2204	-4460	-304	-118	-78	-16308	-908	440	-453	-327	243	-7784	4080	13424	-66	162	-230	-16236	-296	-4040	-230	-9	146	-16476	568	828	-298	63	30	126	127	8
-8712	-2932	13900	94	-61	-163	-15628	2088	-4196	-164	-96	-48	-16184	-904	488	-202	-163	216	-7828	4200	13428	-71	183	-205	-16196	-264	-4024	-155	10	158	-16400	612	820	-209	10	68	126	127	8
-8792	-3000	13944	137	-40	-136	-15592	2220	-4320	60	-130	-27	-16272	-980	772	4	-102	229	-7800	4208	13228	-84	198	-232	-16056	-292	-4024	-68	10	149	-16340	456	692	-37	23	34	127	127	8
-8696	-2908	13956	65	-10	-181	-15700	2236	-4224	21	-109	-33	-16292	-816	756	5	-6	252	-7856	4104	13360	-97	210	-248	-16176	-220	-4124	56	5	177	-16384	604	600	137	26	43	128	127	8
-8756	-2920	13912	116	-33	-159	-15536	2092	-4224	65	-55	-3	-16240	-924	796	103	-31	262	-7896	4196	13360	-49	180	-210	-16132	-228	-4012	42	-2	180	-16356	584	564	174	21	47	127	127	8
-8780	-2976	14008	121	-33	-107	-15588	2184	-4112	73	-76	3	-16236	-984	776	96	-34	276	-7876	4144	13360	-63	162	-215	-16160	-324	-3992	200	-7	163	-16436	576	868	434	65	19	127	127	8
-8768	-2916	13956	121	23	-137	-15516	2212	-4188	124	10	17	-16268	-908	924	91	-47	250	-7852	4072	13208	-89	142	-208	-16088	-252	-3816	256	30	173	-16376	616	956	507	47	-13	124	127	8
-8776	-2872	13968	123	-21	-109	-15580	2248	-4192	136	68	30	-16300	-776	764	160	-69	292	-7812	4112	13384	-73	174	-245	-16204	-272	-4028	149	48	197	-16372	720	768	453	27	10	124	127	8
-8680	-2872	13972	153	-21	-109	-15596	2268	-4276	85	36	23	-16308	-696	636	104	-70	300	-7824	4124	13324	-84	196	-255	-16224	-224	-4112	76	84	219	-16472	724	564	393	97	15	127	127	8
-8756	-2828	14004	121	6	-179	-15592	2348	-4424	109	40	29	-16308	-696	508	69	-45	265	-7864	4176	13292	-53	167	-240	-16192	-216	-4216	64	2	194	-16400	732	420	295	93	47	127	127	8
-8776	-2884	13852	117	22	-141	-15564	2312	-4412	29	-3	-2	-16404	-708	216	52	3	229	-7828	4104	13328	-51	161	-257	-16140	-252	-4080	67	9	163	-16404	740	584	207	36	21	126	127	8
-8800	-2944	14048	127	-44	-131	-15596	2308	-4540	-67	-34	-36	-16376	-628	372	-35	-69	214	-7864	4088	13284	-88	150	-216	-16104	-224	-4024	23	-38	169	-16316	756	672	148	44	4	127	127	8
-8736	-2896	13956	156	-54	-125	-15624	2264	-4408	-107	-76	-55	-16284	-668	572	8	-97	234	-7832	4124	13284	-96	135	-218	-16180	-200	-4024	39	58	133	-16416	716	692	132	-14	-1	129	127	8
-8812	-2880	13944	152	-48	-158	-15608	2276	-4336	-15	-46	-56	-16328	-672	640	-16	-127	221	-7724	4180	13352	-78	157	-207	-16264	-208	-4040	9	33	151	-16444	648	792	80	-11	12	127	127	8
-8752	-2972	13980	90	-9	-140	-15568	2388	-4432	-62	-34	-31	-16320	-628	556	-110	-117	240	-7820	4160	13244	-83	167	-270	-16308	-320	-4056	-78	54	152	-16448	668	604	16	7	43	123	127	8
-8768	-2932	13884	96	6	-161	-15584	2228	-4420	-141	-58	-66	-16340	-704	472	-238	-132	241	-7808	4132	13380	-61	180	-245	-16092	-208	-4144	-44	44	135	-16360	652	576	-8	41	-7	124	127	8
-8760	-2892	13884	89	-13	-186	-15588	2224	-4396	-186	-87	-69	-16292	-808	548	-270	-163	218	-7824	4172	13304	-53	196	-221	-16128	-192	-4176	-40	42	151	-16340	596	552	23	84	-34	126	127	8
-8784	-2956	13900	109	9	-183	-15608	2208	-4372	-153	-63	-80	-16308	-748	620	-163	-188	190	-7860	4120	13276	-81	194	-239	-16108	-144	-4168	-78	10	109	-16408	664	548	54	71	-20	126	127	8
-8732	-2920	13932	115	-35	-149	-15528	2252	-4292	-123	-99	-48	-16300	-736	508	-157	-193	248	-7816	4064	13368	-91	169	-218	-16052	-248	-4012	59	-24	140	-16276	648	588	87	0	-16	126	127	8
-8760	-2884	13984	98	-30	-152	-15572	2276	-4272	-205	-99	-51	-16284	-768	496	-200	-172	219	-7836	4044	13244	-98	129	-221	-16144	-172	-3928	15	61	120	-16340	756	584	49	-24	0	127	127	8
-8760	-2908	14000	110	-28	-152	-15568	2220	-4332	-179	-94	-22	-16228	-796	584	-250	-149	238	-7824	4176	13344	-149	164	-227	-16208	-164	-4124	-122	31	141	-16440	672	564	-15	-48	50	124	127	8
-8724	-2960	14072	92	-68	-138	-15664	2292	-4340	-88	-156	-67	-16388	-740	500	-123	-74	207	-7816	4108	13464	-113	181	-243	-16236	-216	-4220	8	37	127	-16424	648	452	53	1	23	125	127	8
-8744	-3012	14020	131	-83	-156	-15636	2176	-4320	-149	-106	-29	-16312	-788	652	-21	-121	168	-7872	4100	13444	-80	200	-233	-16060	-284	-4164	31	5	124	-16384	564	464	86	55	-12	125	127	8
-8696	-2928	13924	130	-79	-148	-15504	2304	-4160	-118	-77	-74	-16240	-744	776	-63	-64	189	-7816	4140	13208	-105	169	-206	-16136	-152	-4172	12	-35	138	-16340	692	556	102	47	-47	126	127	8
-8724	-2944	13904	130	-53	-131	-15568	2328	-4252	-58	-57	-48	-16268	-740	780	-93	-186	227	-7848	4168	13404	-80	145	-213	-16140	-152	-4048	55	27	103	-16332	732	780	118	65	-20	131	127	8
-8792	-2960	13960	103	-78	-145	-15576	2324	-4196	-85	-11	-102	-16256	-680	712	-151	-156	196	-7888	4112	13312	-91	113	-232	-16064	-164	-3956	131	22	101	-16320	700	808	153	0	-42	124	127	8
-8772	-2896	13888	103	-57	-134	-15572	2316	-4228	-102	40	-66	-16224	-768	764	-110	-158	165	-7892	4116	13324	-105	137	-225	-16208	-148	-4008	74	47	97	-16416	748	716	164	-14	-14	125	127	8
-8760	-2908	14020	115	-31	-127	-15672	2296	-4344	-51	9	-24	-16360	-908	432	-13	-111	179	-7820	4116	13364	-70	138	-238	-16148	-240	-4056	89	26	91	-16456	496	540	124	-46	-25	126	127	8
-8764	-2944	13976	122	-51	-155	-15592	2220	-4420	0	-17	-60	-16388	-708	528	81	-106	189	-7872	4076	13364	-60	208	-249	-16196	-184	-4184	101	0	140	-16392	536	408	220	1	-34	126	127	8
-8756	-2924	13912	104	-96	-147	-15524	2200	-4356	-64	-27	-79	-16292	-780	628	25	-84	179	-7832	4140	13348	-106	161	-236	-16160	-284	-4172	185	12	104	-16372	584	448	197	129	-34	125	127	8
-8784	-2968	14056	115	-73	-141	-15628	2220	-4224	24	-3	-47	-16348	-828	660	62	-169	159	-7852	4172	13336	-70	177	-226	-16168	-176	-4112	131	-8	118	-16468	664	572	216	117	-37	126	127	8
-8708	-2884	13892	149	-67	-138	-15684	2288	-4340	103	8	-71	-16272	-752	660	93	-125	169	-7956	4152	13444	-42	152	-229	-16092	-204	-4120	208	-11	106	-16404	608	720	246	-22	-17	124	127	8
-8772	-2884	13972	162	-93	-161	-15608	2376	-4408	-22	-36	-69	-16292	-756	324	117	-30	145	-7844	4152	13340	-93	153	-204	-16116	-152	-3936	139	-15	112	-16384	712	636	252	-69	-13	123	127	8
-8728	-2920	13920	121	-84	-151	-15560	2332	-4432	31	-54	-50	-16292	-704	492	92	-135	205	-7852	4144	13332	-96	127	-217	-16188	-168	-4128	58	48	83	-16400	704	584	275	-83	6	126	127	8
-8708	-2864	13964	88	-55	-158	-15740	2280	-4356	122	-45	-80	-16220	-696	588	91	-126	185	-7796	4092	13404	-92	140	-205	-16208	-276	-4216	160	-8	97	-16436	540	472	276	-79	6	129	127	8
-8780	-2908	13904	129	-56	-175	-15552	2276	-4212	227	-59	-83	-16316	-792	488	291	-59	172	-7892	4052	13380	-91	149	-238	-16120	-212	-4152	226	-82	78	-16372	568	428	321	29	-57	125	127	8
-8760	-2908	14024	117	-78	-179	-15576	2168	-4348	161	-60	-80	-16296	-724	536	202	-86	170	-7820	4164	13368	-59	121	-235	-16148	-220	-4044	226	-103	102	-16368	620	480	338	-45	-48	126	127	8
-8816	-2888	13916	99	-74	-147	-15556	2156	-4252	85	-69	-51	-16368	-712	672	148	-107	152	-7868	4084	13384	-78	176	-232	-16076	-244	-4044	226	-91	61	-16400	688	656	301	-79	-19	128	127	8
-8772	-2948	14044	111	-55	-129	-15612	2204	-4232	72	36	-92	-16288	-724	636	161	-105	99	-7896	4124	13292	-103	151	-208	-16168	-192	-3828	204	-32	82	-16396	648	892	239	-170	2	127	127	8
-8740	-2892	13936	139	-39	-126	-15524	2240	-4308	90	-58	-100	-16284	-660	568	104	-114	162	-7812	4084	13272	-135	129	-225	-16144	-200	-3928	101	13	98	-16352	664	692	177	-209	30	127	127	8
-8800	-2888	13928	96	-46	-160	-15600	2308	-4292	119	-27	-108	-16300	-708	428	99	-157	130	-7816	4080	13328	-130	166	-268	-16120	-224	-4108	20	4	90	-16396	540	576	157	-162	1	127	127	8
-8772	-2940	13888	71	-1	-161	-15668	2272	-4324	128	-83	-111	-16408	-824	360	101	-203	147	-7832	4132	13296	-95	161	-180	-16216	-276	-4280	96	-27	58	-16432	556	456	226	-138	-38	125	127	8
-8804	-2936	13956	111	-56	-169	-15572	2288	-4448	5	-104	-103	-16328	-716	432	-34	-181	186	-7860	4088	13348	-83	165	-253	-16244	-260	-4244	112	-39	106	-16444	560	540	335	-111	-51	130	127	8
-8776	-2912	14016	102	-83	-166	-15636	2260	-4456	-17	-170	-103	-16328	-788	496	15	-197	150	-7836	4160	13428	-80	172	-207	-16128	-192	-4260	133	-80	90	-16372	656	412	333	-112	5	125	127	8
-8860	-2972	14020	95	-29	-153	-15604	2212	-4376	-28	-194	-117	-16300	-776	496	29	-244	149	-7780	4136	13300	-86	132	-221	-16124	-296	-4116	120	-91	86	-16412	580	508	290	-209	11	127	127	8
-8720	-2904	13968	99	-103	-158	-15532	2280	-4352	-21	-172	-112	-16248	-772	652	103	-234	148	-7844	4092	13352	-116	152	-191	-16136	-280	-4092	227	-128	82	-16308	588	548	338	-241	-25	123	127	8
-8804	-2952	13904	73	-102	-191	-15664	2120	-4192	91	-171	-127	-16288	-808	644	182	-226	112	-7816	4176	13324	-99	132	-227	-16124	-228	-4148	224	-145	79	-16424	676	464	247	-213	37	126	127	8
-8712	-2892	13956	72	-32	-177	-15572	2200	-4224	182	-140	-143	-16300	-832	584	225	-166	117	-7872	4120	13284	-116	134	-232	-16132	-244	-4140	212	-149	47	-16380	632	652	232	-176	22	126	127	8
-8732	-3000	13900	89	-83	-202	-15508	2196	-4312	208	-158	-105	-16300	-804	624	193	-171	144	-7856	4088	13324	-86	94	-181	-16172	-228	-4112	274	-177	86	-16380	704	560	292	-221	29	126	127	8
-8788	-2932	13976	115	-39	-164	-15608	2148	-4204	59	-158	-130	-16324	-804	508	209	-85	78	-7808	4072	13312	-120	96	-201	-16172	-232	-4156	263	-155	63	-16380	600	704	353	-224	-28	126	127	8
-8720	-2832	14000	159	-47	-167	-15604	2232	-4320	208	-157	-137	-16444	-716	428	217	-20	159	-7840	4180	13340	-113	94	-255	-16128	-332	-3972	302	-142	56	-16404	532	880	441	-221	-38	121	127	8
-8660	-2872	14008	103	-71	-182	-15612	2144	-4156	106	-180	-103	-16164	-836	704	238	-100	125	-7808	4152	13272	-110	54	-222	-16148	-284	-3808	334	-101	49	-16428	536	860	440	-214	3	127	127	8
-8712	-2872	14036	104	-58	-144	-15644	2132	-4356	182	-165	-67	-16308	-880	604	297	-116	143	-7852	4116	13392	-124	96	-191	-16204	-292	-3968	282	-128	105	-16388	540	828	485	-253	35	126	127	8
-8692	-2972	13976	119	-46	-153	-15540	2108	-4104	251	-95	-66	-16276	-944	812	377	-193	125	-7844	4176	13264	-128	119	-241	-16180	-392	-4028	296	-40	105	-16400	532	784	533	-235	33	126	127	8
-8768	-3012	14048	135	-92	-158	-15624	2116	-4100	230	-54	-19	-16228	-904	744	329	-165	195	-7792	4228	13308	-87	164	-238	-16276	-368	-4232	244	-75	126	-16408	540	716	548	-168	1	124	127	8
-8760	-2928	14044	131	11	-141	-15676	2152	-4224	272	-35	-44	-16304	-840	640	263	-166	200	-7860	4136	13344	-96	127	-206	-16236	-320	-4156	244	-126	169	-16488	488	680	479	-120	49	125	127	8
-8760	-2932	13992	128	-41	-129	-15560	2244	-4476	136	-32	-39	-16372	-768	392	300	-124	167	-7860	4080	13252	-66	153	-221	-16252	-292	-4096	199	-158	149	-16380	628	624	435	-90	46	126	127	8
-8788	-2884	13888	154	-38	-125	-15632	2200	-4420	69	-82	-46	-16344	-772	516	260	-176	154	-7936	4104	13268	-48	137	-237	-16120	-252	-4056	195	-203	138	-16356	804	792	414	-128	77	126	127	8
-8752	-2880	13960	141	-35	-141	-15600	2224	-4352	114	-106	-36	-16260	-812	680	229	-194	166	-7800	4156	13404	-85	113	-197	-16088	-248	-3952	246	-162	122	-16308	824	820	352	-125	71	127	127	8
-8696	-2848	13984	100	-46	-187	-15644	2204	-4236	15	-82	-57	-16328	-824	636	173	-218	179	-7852	4196	13376	-108	136	-237	-16244	-104	-3888	186	-178	92	-16300	756	860	321	-174	67	126	127	8
-8724	-2876	13944	113	-56	-163	-15644	2248	-4044	53	-50	-74	-16308	-816	696	146	-150	173	-7828	4024	13324	-100	151	-193	-16180	-420	-4016	156	-101	128	-16468	620	948	305	-171	14	127	127	8
-8700	-2800	13964	93	-14	-147	-15668	2164	-4244	58	-79	-74	-16328	-644	408	142	-93	162	-7836	4088	13396	-30	141	-213	-16220	-364	-4164	217	-137	101	-16316	564	760	356	-107	-47	126	127	8
-8836	-2908	13968	131	-5	-131	-15580	2152	-4248	90	-97	-78	-16236	-868	444	119	-186	171	-7840	4104	13380	-106	150	-191	-16216	-316	-4036	123	-108	81	-16468	572	744	344	-96	-1	122	127	8
-8768	-2920	13884	111	-33	-144	-15540	2128	-4372	160	-72	-94	-16328	-816	428	169	-105	206	-7792	4104	13336	-74	147	-217	-16140	-248	-3896	137	-72	83	-16396	676	928	312	-77	58	127	127	8
-8860	-2932	13880	80	-44	-152	-15536	2204	-4332	-57	-142	-106	-16396	-720	428	114	-108	193	-7864	4084	13208	-114	114	-256	-16128	-236	-3852	158	-87	122	-16328	692	956	208	-113	67	127	127	8
-8772	-2896	13956	101	-62	-203	-15520	2156	-4208	-32	-147	-47	-16236	-920	884	39	-226	208	-7792	4136	13420	-118	113	-247	-16236	-344	-3948	70	-48	108	-16360	636	848	194	-101	53	128	127	8
-8764	-2940	14004	116	-87	-174	-15504	2048	-4200	-39	-149	-88	-16240	-1004	996	75	-300	184	-7784	4120	13396	-89	146	-202	-16100	-256	-3976	54	-29	111	-16432	592	756	235	-101	55	126	127	8
-8652	-2948	13920	119	-35	-120	-15560	2112	-4208	55	0	-87	-16200	-772	696	-27	-267	185	-7908	4096	13320	-70	70	-202	-16152	-308	-4000	66	-32	115	-16352	640	716	213	-88	20	131	127	8
-8688	-2920	13924	143	-32	-89	-15632	2116	-4256	-4	20	-66	-16288	-704	504	-51	-364	163	-7896	4180	13388	-48	-4	-206	-16128	-296	-4000	89	-92	117	-16352	660	820	52	-116	126	126	127	8
-8740	-2932	13912	142	-86	-128	-15660	2212	-4468	-238	-25	-15	-16348	-672	200	-285	-415	163	-7780	4084	13380	-55	31	-232	-16188	-272	-3968	-19	-19	88	-16340	560	960	-99	-128	215	126	127	8
-8800	-2984	13964	110	-41	-128	-15684	2204	-4572	-317	-99	-48	-16440	-616	28	-496	-394	166	-7856	4052	13368	-130	85	-229	-16148	-412	-3840	100	-25	85	-16396	640	1156	-149	-107	162	129	127	8
-8728	-2904	13912	84	-52	-173	-15552	2256	-4424	-375	-196	-91	-16408	-700	348	-429	-413	197	-7764	4124	13384	-43	144	-236	-16256	-304	-3788	-173	39	128	-16428	760	1124	-402	-102	168	125	127	8
-8740	-2868	13948	97	-36	-181	-15588	2260	-4304	-427	-231	-90	-16304	-816	800	-488	-402	241	-7752	4120	13452	-63	203	-247	-16212	-352	-3880	-288	118	108	-16480	660	964	-416	-49	65	128	127	8
-8752	-3000	13904	96	-51	-162	-15596	2068	-4164	-398	-273	-87	-16332	-876	904	-551	-412	213	-7824	4112	13360	-91	260	-234	-16220	-276	-4036	-259	110	148	-16424	624	916	-346	32	-24	127	127	8
