#Activity	sitting 
#ActivityID	5 
#Date 09-24-15-52
acc_rf_x	acc_rf_y	acc_rf_z	gyro_rf_x	gyro_rf_y	gyro_rf_z	acc_rs_x	acc_rs_y	acc_rs_z	gyro_rs_x	gyro_rs_y	gyro_rs_z	acc_rt_x	acc_rt_y	acc_rt_z	gyro_rt_x	gyro_rt_y	gyro_rt_z	acc_lf_x	acc_lf_y	acc_lf_z	gyro_lf_x	gyro_lf_y	gyro_lf_z	acc_ls_x	acc_ls_y	acc_ls_z	gyro_ls_x	gyro_ls_y	gyro_ls_z	acc_lt_x	acc_lt_y	acc_lt_z	gyro_lt_x	gyro_lt_y	gyro_lt_z	EMG_r	EMG_l	act
-7888	-2616	13628	-87	154	-183	-16116	-972	-4024	96	-40	130	-3572	-1936	16632	193	-10	77	-8464	3244	14076	146	-51	-190	-14652	4296	-5824	-4	-6	-91	-3012	2684	16564	32	-117	200	127	127	5
-7904	-2532	13720	-139	164	-197	-16132	-944	-4040	89	4	153	-3608	-1964	16528	192	11	47	-8492	3344	14060	119	-74	-140	-14704	4376	-5752	-1	-15	-30	-3088	2688	16500	12	-127	212	127	127	5
-7836	-2556	13588	-84	174	-202	-16120	-976	-4020	49	-36	118	-3572	-1960	16676	191	13	45	-8472	3356	14056	147	-77	-160	-14624	4348	-5724	15	-32	-56	-3012	2640	16532	2	-111	169	127	127	5
-7868	-2584	13628	-74	137	-210	-16088	-904	-4088	98	-40	137	-3620	-1900	16460	181	-21	36	-8516	3276	14036	127	11	-181	-14692	4340	-5748	19	-16	-58	-3008	2712	16488	16	-139	197	127	127	5
-7852	-2524	13568	-95	128	-211	-16108	-972	-4092	76	-22	124	-3580	-1900	16580	150	-5	37	-8436	3264	14060	113	-86	-174	-14664	4328	-5764	12	-24	-63	-3056	2656	16576	24	-98	205	127	127	5
-7912	-2584	13664	-63	117	-228	-16108	-968	-4084	52	-17	139	-3584	-1912	16488	198	-1	43	-8428	3316	14068	129	-73	-163	-14724	4444	-5744	12	-42	-39	-3008	2660	16456	27	-150	198	127	127	5
-7936	-2556	13600	-85	137	-177	-16124	-960	-3984	90	-41	136	-3568	-1908	16484	152	8	42	-8544	3368	14108	155	-72	-138	-14684	4360	-5624	-19	-2	-57	-3032	2696	16496	7	-135	182	127	127	5
-7892	-2584	13632	-70	149	-182	-16096	-952	-4048	70	-16	109	-3584	-1932	16628	187	-21	53	-8500	3316	14052	170	-79	-161	-14724	4264	-5704	-22	-32	-14	-3056	2668	16536	15	-143	194	127	127	5
-7888	-2560	13564	-75	149	-201	-16108	-972	-4060	65	8	138	-3600	-1892	16524	196	-25	38	-8440	3284	14044	120	-51	-141	-14652	4400	-5716	29	-38	-35	-3088	2700	16496	18	-95	197	127	127	5
-7832	-2588	13624	-126	142	-184	-16092	-932	-3900	81	-18	131	-3548	-1932	16600	163	-22	42	-8476	3228	13984	140	-61	-186	-14644	4336	-5748	-10	-54	-35	-2996	2676	16488	24	-142	220	127	127	5
-7884	-2624	13600	-104	169	-196	-16132	-1028	-3968	51	-21	128	-3576	-2012	16608	175	-8	65	-8476	3284	13948	100	-41	-189	-14684	4340	-5656	-1	-1	-55	-3060	2724	16508	19	-124	190	127	127	5
-7860	-2628	13640	-107	142	-178	-16132	-984	-3928	75	-29	129	-3568	-1900	16628	195	33	64	-8488	3328	14100	134	-73	-117	-14660	4368	-5716	-20	-43	-63	-3004	2720	16524	19	-94	209	127	127	5
-7836	-2540	13628	-71	144	-189	-16056	-944	-4064	81	-15	126	-3556	-1888	16540	175	23	17	-8516	3260	13912	100	-31	-190	-14724	4336	-5820	-11	0	-74	-2988	2720	16520	6	-113	174	127	127	5
-7836	-2564	13572	-80	106	-204	-16092	-956	-4112	81	-27	123	-3552	-1960	16608	185	-16	54	-8508	3320	14092	113	-51	-186	-14680	4344	-5772	-20	-25	-57	-3052	2628	16500	-21	-127	200	127	127	5
-7816	-2644	13536	-22	135	-228	-16052	-1004	-4040	105	-50	122	-3616	-1916	16656	179	-22	70	-8532	3260	14104	112	-54	-176	-14672	4324	-5784	7	-54	-54	-3104	2664	16456	13	-122	184	127	127	5
-7868	-2564	13592	-91	150	-199	-16084	-1004	-4024	73	-19	116	-3552	-1920	16620	177	-9	62	-8484	3324	14096	110	-84	-170	-14624	4340	-5812	41	-57	-32	-3088	2592	16544	23	-124	174	127	127	5
-7864	-2608	13696	-119	139	-174	-16112	-916	-4052	77	1	129	-3604	-1920	16648	168	-30	76	-8492	3284	14064	103	-25	-152	-14700	4364	-5848	22	-11	-55	-3068	2640	16444	58	-162	201	127	127	5
-7924	-2584	13628	-117	169	-213	-16112	-988	-4108	77	-2	109	-3636	-1860	16568	164	-7	35	-8500	3256	14096	117	-41	-152	-14688	4368	-5732	5	-29	-57	-3116	2684	16620	29	-141	175	127	127	5
-7892	-2600	13652	-136	140	-198	-16128	-976	-4040	69	-39	133	-3600	-1924	16588	180	14	37	-8492	3260	14108	115	-44	-152	-14672	4284	-5776	47	-43	-48	-3008	2648	16612	49	-136	195	127	127	5
-7796	-2564	13604	-107	130	-190	-16084	-968	-4052	48	-44	108	-3600	-1928	16648	186	-47	27	-8484	3328	14140	143	-29	-135	-14704	4316	-5828	-25	-39	-41	-3112	2680	16388	29	-102	212	127	127	5
-7864	-2540	13632	-95	142	-190	-16124	-972	-4112	89	-27	118	-3592	-1908	16608	182	6	57	-8516	3316	13976	125	-78	-151	-14676	4312	-5848	32	-36	-50	-3020	2648	16484	28	-99	196	127	127	5
-7880	-2556	13704	-94	137	-198	-16080	-952	-4012	56	-36	130	-3584	-1940	16424	165	1	51	-8492	3248	14076	122	-73	-154	-14608	4356	-5868	2	-64	-54	-3140	2648	16496	24	-118	190	127	127	5
-7940	-2564	13544	-63	171	-203	-16152	-968	-3960	73	-28	130	-3536	-1960	16652	187	11	55	-8472	3252	14120	150	-65	-127	-14680	4336	-5732	-9	-27	-54	-3020	2712	16592	29	-122	199	127	127	5
-7840	-2556	13664	-75	133	-208	-16092	-972	-4028	96	-17	144	-3524	-1932	16708	145	-24	27	-8556	3264	13992	97	-76	-168	-14696	4312	-5716	-5	-36	-45	-3028	2668	16652	5	-127	187	127	127	5
-7820	-2564	13688	-86	155	-216	-16072	-992	-3976	76	-4	92	-3536	-1916	16596	144	7	44	-8500	3300	14004	132	-108	-155	-14712	4348	-5708	-31	-52	-34	-2980	2708	16636	11	-95	177	127	127	5
-7912	-2532	13564	-101	160	-203	-16040	-916	-4032	113	7	122	-3548	-1944	16624	171	-38	44	-8512	3224	14116	141	-35	-155	-14672	4356	-5716	22	-19	-43	-3040	2616	16508	30	-100	162	127	127	5
-7892	-2552	13560	-58	133	-245	-16088	-992	-3976	85	-21	121	-3536	-1900	16616	164	8	25	-8496	3332	14064	114	-69	-149	-14708	4360	-5812	1	-2	-56	-2996	2684	16464	33	-112	197	127	127	5
-7928	-2536	13624	-132	125	-223	-16136	-904	-4144	87	-29	110	-3612	-1928	16704	188	-16	45	-8476	3284	14164	134	-58	-190	-14716	4380	-5876	9	-14	-47	-3072	2652	16520	-12	-103	173	127	127	5
-7880	-2572	13620	-162	130	-223	-16116	-928	-4080	69	-60	108	-3620	-1920	16608	191	7	68	-8464	3376	14180	101	-79	-159	-14672	4332	-5732	0	-25	-31	-3028	2700	16540	21	-116	198	127	127	5
-7852	-2556	13572	-108	129	-202	-16060	-928	-4040	54	-7	145	-3564	-1948	16572	194	-37	52	-8492	3312	14016	93	-24	-179	-14676	4400	-5820	1	-53	-71	-3076	2696	16592	17	-138	218	127	127	5
-7864	-2600	13664	-106	143	-172	-16120	-940	-3944	110	-38	142	-3640	-1908	16576	168	-21	49	-8512	3304	14056	115	-50	-174	-14652	4412	-5656	-5	-16	-88	-3072	2688	16564	42	-164	237	127	127	5
-7812	-2644	13640	-96	133	-203	-16096	-916	-4124	75	-14	131	-3568	-1864	16740	171	16	41	-8504	3260	13984	90	18	-193	-14636	4384	-5860	-29	-53	-104	-3020	2704	16580	27	-119	220	127	127	5
-7836	-2580	13652	-99	170	-230	-16044	-912	-3964	57	-44	108	-3548	-1884	16588	169	-16	71	-8524	3364	14096	102	-92	-176	-14712	4364	-5772	13	-41	-64	-3048	2708	16584	35	-129	239	127	127	5
-7936	-2584	13740	-85	168	-175	-16088	-888	-4060	55	-24	118	-3536	-1916	16672	174	6	85	-8472	3272	14004	91	-49	-192	-14628	4296	-5668	-4	-32	-116	-3036	2652	16424	11	-141	207	127	127	5
-7864	-2620	13616	-95	163	-191	-16128	-900	-3972	51	-45	105	-3452	-1936	16504	157	10	47	-8484	3304	14044	116	-48	-166	-14672	4376	-5760	-36	-23	-107	-2992	2712	16432	29	-123	232	127	127	5
-7876	-2580	13584	-97	169	-200	-16132	-964	-4012	102	-30	84	-3496	-1952	16504	143	8	42	-8492	3308	14076	91	-105	-158	-14696	4296	-5776	-16	-19	-58	-3020	2704	16532	-12	-109	205	127	127	5
-7912	-2600	13728	-125	150	-188	-16092	-972	-3996	85	4	126	-3456	-2024	16616	158	-8	49	-8480	3252	14108	108	-39	-180	-14696	4312	-5764	14	-16	-77	-3004	2708	16608	-12	-124	181	127	127	5
-7856	-2616	13620	-79	164	-202	-16136	-988	-4000	90	5	124	-3484	-2016	16564	155	-5	11	-8468	3240	14028	111	-51	-169	-14696	4300	-5800	42	-24	-80	-3072	2592	16464	-6	-143	132	127	127	5
-7936	-2600	13656	-74	127	-185	-16112	-1004	-3980	130	17	113	-3604	-2032	16544	144	17	15	-8576	3244	13988	144	-50	-159	-14684	4292	-5856	-25	-18	-60	-3076	2652	16564	-32	-99	172	127	127	5
-7940	-2604	13712	-41	188	-149	-16148	-1008	-4036	103	3	142	-3608	-1980	16560	131	12	43	-8532	3308	14132	145	-94	-154	-14680	4344	-5792	-27	0	-48	-3072	2668	16556	12	-131	168	127	127	5
-7856	-2596	13612	-53	170	-169	-16076	-924	-4044	70	-10	119	-3676	-1884	16600	222	-10	11	-8492	3264	14064	127	-44	-145	-14720	4260	-5844	-9	-45	-91	-3140	2628	16636	28	-120	167	127	127	5
-7872	-2524	13624	-97	123	-199	-16088	-964	-4076	135	-24	169	-3660	-1956	16552	208	-19	2	-8524	3228	14108	145	-63	-142	-14684	4264	-5752	12	-54	-14	-3064	2596	16572	36	-141	151	127	127	5
-7888	-2528	13612	-61	142	-190	-16096	-924	-3976	125	21	94	-3596	-1836	16576	154	-3	21	-8396	3268	14116	157	-24	-204	-14712	4240	-5824	25	-49	-33	-3048	2568	16520	21	-161	130	127	127	5
-7824	-2580	13664	-108	147	-201	-16148	-916	-4056	58	6	104	-3604	-1888	16580	174	6	13	-8480	3276	14052	176	-56	-150	-14716	4292	-5704	78	-62	-20	-3036	2560	16552	33	-117	130	127	127	5
-7856	-2556	13664	-101	154	-211	-16072	-884	-4028	81	2	149	-3548	-1932	16664	159	-13	34	-8484	3316	13976	160	-56	-140	-14672	4328	-5704	35	-31	-43	-3036	2668	16504	66	-135	160	127	127	5
-7864	-2584	13616	-77	123	-201	-16144	-980	-3996	117	-11	127	-3588	-1928	16564	194	-19	64	-8488	3280	14128	167	-66	-140	-14712	4360	-5752	27	-61	-27	-3024	2740	16608	46	-96	187	127	126	5
-7864	-2552	13720	-78	150	-190	-16088	-936	-3972	74	-2	119	-3552	-1920	16596	194	13	54	-8432	3236	14060	153	-35	-148	-14672	4344	-5688	-4	-12	-30	-3104	2792	16532	74	-121	136	127	127	5
-7868	-2568	13612	-98	141	-221	-16120	-924	-4040	89	6	149	-3628	-1892	16528	204	-8	53	-8504	3352	13992	164	-46	-175	-14620	4412	-5752	33	-72	-30	-3088	2776	16544	53	-134	178	127	127	5
-7848	-2588	13632	-88	106	-207	-16084	-960	-4064	58	10	117	-3576	-1960	16600	174	-29	58	-8440	3304	14184	134	-40	-135	-14704	4360	-5720	25	-76	-30	-3088	2736	16528	56	-125	194	127	127	5
-7848	-2636	13728	-87	145	-176	-16120	-972	-3980	95	-23	159	-3512	-1960	16644	169	3	50	-8444	3308	14096	144	-54	-161	-14712	4328	-5808	33	-18	-39	-3012	2692	16468	-16	-140	209	127	127	5
-7904	-2560	13588	-47	162	-176	-16136	-952	-4000	98	3	135	-3580	-1904	16504	174	-19	29	-8504	3312	14016	117	-70	-177	-14700	4360	-5772	-3	-55	-7	-2956	2684	16548	51	-116	176	127	127	5
-7900	-2616	13652	-100	107	-198	-16136	-972	-4092	88	15	133	-3588	-1876	16576	182	3	51	-8452	3228	14104	129	-75	-179	-14708	4356	-5796	11	-30	-109	-3000	2676	16588	18	-104	215	127	127	5
-7884	-2636	13640	-124	112	-188	-16124	-896	-3996	84	-5	168	-3588	-1788	16548	176	6	46	-8480	3264	14180	148	-65	-160	-14680	4356	-5808	-6	-22	-96	-3052	2684	16488	20	-128	202	127	127	5
-7844	-2556	13632	-125	100	-196	-16152	-908	-4008	57	-19	116	-3596	-1760	16608	163	-1	77	-8468	3280	14056	139	-88	-161	-14708	4344	-5724	-27	-33	-72	-3016	2760	16536	22	-90	190	127	127	5
-7876	-2588	13660	-97	137	-229	-16112	-948	-4032	45	9	128	-3528	-1836	16572	175	3	67	-8528	3300	14080	111	-34	-161	-14812	4380	-5732	-20	-1	-38	-2988	2724	16612	-2	-93	230	127	127	5
-7856	-2548	13604	-87	159	-217	-16140	-928	-4120	31	-71	103	-3604	-1896	16620	162	-23	69	-8484	3304	14020	103	-66	-164	-14716	4392	-5740	-16	-15	-95	-3068	2676	16536	34	-130	225	127	127	5
-7860	-2628	13708	-140	138	-215	-16056	-964	-4132	73	-58	86	-3564	-1928	16656	139	-30	80	-8448	3300	14104	108	-39	-164	-14700	4308	-5696	0	-18	-67	-3052	2724	16608	30	-104	229	127	127	5
-7864	-2600	13548	-113	150	-247	-16124	-940	-4028	40	-31	79	-3620	-1900	16596	143	-49	90	-8500	3260	14008	97	-60	-173	-14740	4292	-5664	-26	-32	-84	-3080	2724	16592	12	-105	240	127	127	5
-7916	-2524	13572	-176	171	-239	-16016	-960	-4012	45	6	88	-3584	-1924	16632	136	10	75	-8476	3260	14060	82	-72	-172	-14652	4356	-5676	-5	-21	-103	-3008	2688	16560	17	-122	230	127	127	5
-7856	-2616	13680	-119	163	-213	-16108	-936	-3968	41	-38	97	-3556	-1912	16544	145	-18	56	-8492	3312	14120	63	-24	-194	-14740	4332	-5684	-20	-31	-129	-3032	2648	16540	-28	-103	196	127	127	5
-7860	-2604	13608	-105	192	-199	-16116	-988	-3960	62	-13	81	-3552	-1996	16580	127	-3	47	-8456	3292	14056	114	-95	-214	-14704	4320	-5640	-21	-38	-98	-3032	2612	16444	12	-116	210	127	127	5
-7832	-2584	13592	-138	176	-207	-16064	-1060	-3960	91	-59	93	-3552	-2076	16508	152	-29	11	-8500	3296	13988	123	-74	-158	-14700	4244	-5832	18	-2	-82	-3084	2616	16568	-5	-124	171	127	127	5
-7828	-2592	13588	-100	142	-199	-16120	-1016	-3912	92	-14	88	-3580	-2052	16644	140	-3	31	-8460	3260	14076	90	-48	-191	-14660	4292	-5724	25	8	-78	-2956	2624	16440	-37	-100	163	127	127	5
-7996	-2600	13700	-64	145	-216	-16092	-960	-4040	95	-15	125	-3568	-2012	16568	162	-24	47	-8404	3316	14056	110	-17	-185	-14704	4384	-5820	7	-19	-67	-2992	2644	16532	9	-93	188	127	127	5
-7832	-2564	13596	-106	154	-192	-16080	-968	-4020	68	-33	124	-3616	-2020	16584	179	15	20	-8488	3292	14152	162	-52	-180	-14668	4360	-5756	1	-8	-51	-3024	2648	16596	12	-124	195	127	127	5
-7808	-2584	13712	-81	130	-176	-16120	-1012	-4148	69	-27	111	-3632	-1972	16536	170	4	55	-8508	3200	14068	131	-37	-193	-14692	4264	-5880	-12	-37	-17	-3068	2616	16656	12	-97	204	127	127	5
-7836	-2612	13556	-84	128	-181	-16052	-1000	-4040	106	-2	164	-3596	-2008	16604	224	14	82	-8460	3316	14144	134	22	-181	-14624	4360	-5816	17	-20	-63	-3024	2604	16640	40	-120	231	127	127	5
-7928	-2592	13716	-94	131	-196	-16116	-896	-4028	98	-16	130	-3660	-1940	16604	193	24	24	-8476	3272	14068	154	-6	-149	-14716	4328	-5856	32	-55	-43	-3160	2572	16508	62	-143	186	127	127	5
-7864	-2556	13612	-56	127	-188	-16068	-932	-4080	89	-23	182	-3696	-1912	16620	209	-4	56	-8508	3280	14040	137	-32	-133	-14680	4332	-5832	36	-69	-31	-3092	2604	16504	50	-126	166	127	127	5
-7876	-2608	13656	-19	130	-155	-16092	-1004	-4032	68	-9	179	-3568	-1892	16544	178	1	20	-8500	3308	14016	159	2	-178	-14700	4336	-5812	13	-50	-33	-3092	2704	16576	53	-150	186	127	127	5
-7860	-2612	13572	-105	130	-224	-16096	-964	-4128	94	-22	122	-3644	-1852	16572	194	-63	56	-8472	3320	14128	128	-21	-153	-14648	4396	-5748	27	-66	-68	-3048	2704	16632	45	-126	197	127	127	5
-7824	-2604	13636	-89	149	-200	-16136	-1000	-4076	64	-37	134	-3548	-1884	16660	185	-4	46	-8480	3236	14116	137	-9	-135	-14708	4336	-5800	31	-68	-21	-3060	2672	16560	48	-148	201	127	127	5
-7916	-2552	13632	-93	143	-204	-16104	-920	-4004	107	-31	126	-3588	-1892	16516	162	-28	34	-8548	3292	14056	128	-57	-168	-14660	4348	-5708	10	-50	-15	-3016	2720	16524	52	-135	193	127	127	5
-7876	-2560	13716	-80	146	-188	-16124	-916	-4080	78	-28	138	-3604	-1888	16668	165	-24	42	-8456	3328	14108	134	-62	-128	-14716	4348	-5804	0	-74	-37	-3000	2644	16496	34	-129	197	127	127	5
-7896	-2524	13644	-44	136	-159	-16076	-916	-4052	76	-9	126	-3504	-1908	16588	160	-26	49	-8480	3300	13976	106	-25	-139	-14716	4380	-5728	-27	-67	-31	-3000	2680	16532	37	-110	199	127	127	5
-7872	-2620	13664	-93	127	-228	-16104	-944	-4140	82	-16	109	-3572	-1948	16544	162	-19	92	-8476	3332	14156	129	-18	-154	-14604	4436	-5680	4	-50	-69	-2984	2784	16564	16	-119	205	127	127	5
-7856	-2604	13684	-110	160	-188	-16032	-932	-4032	69	-15	111	-3552	-1944	16636	178	-56	56	-8436	3296	14176	118	-79	-169	-14720	4420	-5600	-26	5	-64	-3000	2756	16528	49	-134	209	127	127	5
-7872	-2696	13636	-91	142	-203	-16132	-996	-4068	55	-29	110	-3568	-1976	16616	142	-8	82	-8484	3304	14012	133	-84	-189	-14640	4268	-5800	-5	-22	-57	-3016	2740	16508	16	-106	203	127	127	5
-7844	-2604	13700	-116	135	-202	-16056	-964	-4036	70	-24	85	-3492	-1888	16580	169	-22	62	-8520	3340	14064	111	-28	-173	-14648	4316	-5816	-22	0	-107	-2984	2700	16468	12	-102	212	127	127	5
-7888	-2600	13616	-90	135	-206	-16104	-944	-4100	83	-4	121	-3612	-1940	16556	163	-21	51	-8472	3260	14068	88	-68	-165	-14736	4292	-5736	39	-38	-82	-3040	2688	16488	-15	-145	182	127	127	5
-7836	-2636	13712	-107	155	-182	-16120	-956	-3924	59	-18	93	-3576	-1952	16600	203	-27	46	-8504	3376	14040	107	-34	-184	-14612	4280	-5732	19	-43	-69	-3044	2700	16500	-12	-135	198	127	127	5
-7864	-2604	13620	-95	183	-197	-16096	-920	-3992	64	-33	120	-3576	-1960	16616	176	-39	49	-8500	3288	14088	84	-55	-147	-14676	4276	-5864	-23	-24	-70	-3052	2640	16452	45	-102	197	127	127	5
-7836	-2584	13636	-137	142	-217	-16172	-956	-4168	68	-9	132	-3604	-2008	16572	172	-25	51	-8512	3320	14024	120	-61	-200	-14652	4344	-5716	-19	-38	-70	-3060	2644	16636	44	-144	189	127	127	5
-7884	-2616	13584	-95	142	-215	-16104	-924	-4088	90	28	136	-3548	-1972	16628	128	-12	71	-8548	3304	13984	105	-43	-204	-14636	4348	-5764	32	-20	-43	-3128	2668	16520	31	-104	197	127	127	5
-7880	-2592	13564	-101	148	-188	-16100	-984	-4048	106	-11	123	-3600	-1940	16528	165	-13	34	-8452	3296	14120	119	-50	-156	-14692	4280	-5860	19	-33	-27	-3056	2584	16524	21	-135	208	127	127	5
-7880	-2540	13600	-101	148	-214	-16092	-1000	-4172	91	-47	158	-3568	-1972	16504	195	-24	62	-8532	3272	14072	97	-103	-156	-14656	4296	-5868	13	-30	-22	-3096	2592	16588	61	-120	169	127	127	5
-7872	-2564	13640	-113	141	-179	-16104	-948	-4008	88	12	152	-3616	-1920	16572	189	4	50	-8452	3224	14016	140	-34	-171	-14700	4316	-5712	-6	-57	-39	-3044	2640	16568	19	-159	188	127	127	5
-7860	-2608	13632	-84	172	-225	-16104	-988	-4052	79	-16	142	-3608	-1940	16628	164	-10	64	-8480	3340	14080	119	-46	-169	-14696	4348	-5660	32	-41	-29	-2992	2684	16580	26	-134	195	127	127	5
-7860	-2580	13692	-104	150	-187	-16060	-940	-4028	88	-56	150	-3604	-1948	16676	168	-19	61	-8468	3352	13992	156	-35	-142	-14716	4348	-5772	-30	-49	-43	-3000	2660	16576	23	-116	172	127	127	5
-7888	-2596	13568	-78	178	-218	-16108	-976	-4036	122	-23	131	-3568	-2008	16488	207	-23	42	-8464	3360	14080	127	-29	-165	-14688	4364	-5752	48	-37	-21	-3092	2676	16492	31	-143	143	127	127	5
-7840	-2584	13784	-42	158	-151	-16088	-912	-3936	94	20	140	-3520	-1952	16608	184	-18	32	-8488	3324	14104	130	-61	-161	-14728	4368	-5744	-17	-44	-61	-3036	2708	16532	22	-118	210	127	127	5
-7856	-2600	13556	-48	135	-186	-16088	-952	-4060	101	20	146	-3600	-1944	16564	173	3	31	-8460	3300	13972	118	-45	-144	-14652	4372	-5672	-1	-19	-70	-3000	2660	16576	57	-123	160	127	127	5
-7864	-2576	13656	-106	146	-209	-16112	-976	-4144	100	-14	162	-3644	-1900	16616	168	2	36	-8464	3268	13984	144	-75	-164	-14668	4344	-5896	-27	-65	-59	-3060	2632	16640	60	-132	183	127	127	5
-7884	-2624	13692	-120	126	-216	-16084	-968	-4024	58	-14	122	-3616	-1896	16588	197	-4	51	-8420	3332	14088	131	-43	-145	-14692	4316	-5832	5	-43	-54	-3056	2652	16544	36	-106	201	127	127	5
-7868	-2548	13628	-108	117	-212	-16104	-964	-4096	65	-11	127	-3568	-1912	16576	153	5	36	-8452	3244	14116	138	-65	-170	-14688	4384	-5852	21	-46	-61	-3028	2700	16512	12	-136	220	127	127	5
-7876	-2556	13668	-81	143	-190	-16084	-944	-3952	81	-39	116	-3608	-1852	16508	157	-9	48	-8512	3244	14112	119	-7	-184	-14656	4324	-5792	-20	-47	-72	-3056	2732	16516	41	-124	223	127	127	5
-7888	-2564	13588	-106	165	-208	-16112	-956	-4012	61	-57	109	-3556	-1948	16616	165	2	51	-8468	3308	13992	127	-73	-154	-14644	4364	-5776	24	-44	-47	-3024	2704	16544	51	-163	181	127	127	5
-7884	-2596	13756	-62	163	-197	-16072	-936	-4068	98	-59	115	-3644	-1972	16540	185	-35	50	-8496	3276	14028	113	-62	-148	-14660	4344	-5696	-3	-50	-76	-3028	2664	16540	65	-145	206	127	127	5
-7916	-2628	13492	-88	172	-218	-16164	-964	-4116	71	-31	124	-3552	-1948	16644	163	-27	61	-8512	3332	14088	144	-56	-186	-14716	4340	-5744	-1	-53	-65	-3028	2664	16620	26	-101	214	127	127	5
-7876	-2640	13796	-99	181	-203	-16116	-916	-4016	87	-75	91	-3576	-1924	16688	205	-7	26	-8472	3280	14032	122	10	-205	-14616	4352	-5784	-14	-44	-49	-3072	2672	16452	44	-83	226	127	127	5
-7856	-2608	13608	-93	139	-231	-16148	-948	-3980	59	-7	110	-3568	-1960	16508	159	-12	50	-8488	3280	14048	85	-75	-158	-14676	4384	-5776	-29	-48	-66	-3064	2644	16548	56	-111	210	127	127	5
-7868	-2584	13612	-62	165	-177	-16136	-948	-3996	92	-51	124	-3544	-1972	16496	168	-34	17	-8508	3300	14004	101	-26	-170	-14716	4308	-5584	32	-25	-52	-3008	2656	16584	-10	-129	201	127	127	5
-7896	-2588	13572	-99	177	-205	-16104	-1024	-4084	113	-21	135	-3596	-2000	16592	131	23	44	-8440	3272	14068	97	10	-196	-14712	4316	-5788	6	-37	-49	-2976	2668	16464	-15	-129	189	127	127	5
-7848	-2612	13728	-77	154	-205	-16128	-884	-3924	71	3	143	-3628	-1952	16692	166	-2	44	-8516	3272	14108	106	-51	-132	-14684	4348	-5780	-7	-5	-82	-3032	2688	16532	-13	-125	203	127	127	5
-7848	-2584	13644	-111	173	-171	-16124	-992	-3972	87	2	140	-3576	-1936	16600	204	-12	46	-8480	3260	14072	105	-1	-186	-14716	4316	-5788	-9	-31	-34	-3068	2684	16588	21	-142	206	127	127	5
-7848	-2596	13672	-35	147	-181	-16124	-972	-4076	76	-11	127	-3584	-1940	16560	179	-13	48	-8456	3276	14088	125	-53	-186	-14700	4348	-5776	-2	-37	-44	-3116	2668	16548	23	-123	201	127	127	5
-7900	-2600	13628	-47	122	-181	-16164	-932	-4076	83	21	136	-3644	-1908	16552	189	42	25	-8496	3284	14084	129	-30	-196	-14676	4356	-5716	5	-19	-50	-3028	2680	16596	50	-123	210	127	127	5
-7864	-2588	13640	-111	151	-190	-16152	-964	-4104	118	-24	133	-3604	-1936	16636	199	-2	75	-8436	3284	13976	114	-55	-184	-14608	4352	-5804	8	-32	-21	-3076	2648	16520	14	-123	210	127	127	5
-7872	-2624	13640	-61	117	-205	-16128	-908	-4120	77	-8	136	-3636	-1880	16552	209	-10	61	-8424	3244	14076	123	-54	-173	-14712	4320	-5764	18	-33	-27	-3096	2676	16528	37	-103	199	127	127	5
-7876	-2596	13676	-59	135	-186	-16092	-920	-4128	93	-15	124	-3644	-1916	16612	169	3	72	-8520	3292	14116	140	-25	-167	-14664	4348	-5784	15	-55	-41	-3096	2700	16568	28	-130	173	127	127	5
-7880	-2608	13748	-51	166	-195	-16128	-868	-4008	81	-35	122	-3544	-1876	16608	186	-18	32	-8428	3224	14100	160	-38	-170	-14724	4392	-5820	47	-47	-77	-3032	2688	16468	31	-104	200	127	127	5
-7908	-2532	13560	-95	155	-214	-16120	-948	-4056	67	-60	123	-3532	-1896	16624	177	-6	43	-8460	3320	14084	174	-82	-174	-14632	4388	-5672	32	-28	-17	-3048	2700	16560	28	-136	197	127	127	5
-7864	-2596	13572	-119	182	-193	-16072	-912	-3972	62	-40	108	-3544	-1896	16536	168	-18	51	-8452	3300	14036	152	-28	-170	-14680	4304	-5780	47	-83	-57	-3012	2712	16532	22	-118	212	127	127	5
-7900	-2576	13660	-81	165	-207	-16152	-928	-4036	90	-86	111	-3556	-1960	16504	153	-35	56	-8456	3252	14056	142	-47	-143	-14712	4388	-5652	9	-33	-65	-3072	2712	16564	48	-145	175	127	127	5
-7900	-2540	13632	-85	136	-201	-16108	-956	-3980	76	-17	109	-3496	-1892	16548	203	6	41	-8496	3332	14020	142	-56	-164	-14748	4348	-5700	22	-43	-65	-3056	2736	16448	23	-137	171	127	127	5
-7836	-2564	13604	-89	128	-171	-16160	-904	-4148	89	-27	120	-3552	-1976	16672	124	-7	43	-8508	3288	13996	128	-76	-158	-14728	4388	-5804	-40	-9	-61	-3104	2700	16556	3	-98	195	127	127	5
-7928	-2600	13724	-120	144	-218	-16120	-1016	-3956	65	-18	105	-3588	-1908	16636	175	-22	47	-8480	3292	14056	96	-57	-148	-14728	4352	-5620	-18	-43	-62	-3048	2740	16508	20	-120	213	127	127	5
-7876	-2596	13692	-107	174	-207	-16076	-996	-4052	58	-43	125	-3588	-1968	16636	167	-22	60	-8500	3324	14068	90	-52	-205	-14756	4316	-5684	-20	-49	-44	-3008	2676	16580	17	-107	224	127	127	5
-7840	-2556	13632	-134	136	-232	-16080	-1000	-3964	92	9	91	-3524	-2000	16544	164	-9	68	-8440	3340	14112	112	-35	-170	-14712	4332	-5788	2	-15	-69	-3016	2696	16520	2	-98	221	127	127	5
-7820	-2520	13648	-95	128	-206	-16096	-940	-3976	74	4	86	-3568	-1964	16568	162	10	55	-8528	3312	14004	106	-85	-168	-14700	4284	-5852	-25	-32	-65	-3044	2624	16524	19	-127	169	127	127	5
-7916	-2552	13616	-87	148	-216	-16112	-944	-4008	81	-6	124	-3548	-1968	16576	177	0	54	-8476	3268	14012	109	-9	-200	-14672	4340	-5764	20	-50	-44	-3116	2700	16580	13	-135	213	127	127	5
-7856	-2588	13652	-75	172	-230	-16084	-960	-3968	75	10	107	-3564	-1980	16596	149	-13	26	-8428	3248	14104	105	-33	-158	-14668	4292	-5764	-2	-15	-52	-3084	2632	16532	-4	-110	193	127	127	5
-7844	-2620	13644	-88	128	-185	-16076	-984	-4020	63	-40	165	-3596	-1936	16544	183	22	28	-8436	3256	14088	126	-20	-178	-14672	4308	-5952	-19	-16	-63	-3104	2688	16540	10	-134	213	127	127	5
-7848	-2564	13676	-100	146	-209	-16156	-936	-3976	92	-24	143	-3592	-1936	16576	157	-33	58	-8464	3344	14132	117	-72	-153	-14632	4340	-5796	-3	-55	-44	-3104	2632	16556	40	-146	219	127	127	5
-7888	-2640	13628	-104	136	-163	-16100	-916	-4060	62	19	150	-3476	-1952	16620	180	-6	71	-8500	3284	14004	120	-20	-174	-14716	4332	-5784	-3	-77	-56	-3072	2696	16512	5	-131	212	127	127	5
-7856	-2664	13592	-65	135	-165	-16116	-956	-3996	133	-50	133	-3540	-1892	16608	184	2	40	-8532	3328	14084	124	-26	-139	-14644	4332	-5764	27	-68	-49	-3112	2712	16580	52	-114	198	127	127	5
-7848	-2480	13648	-69	143	-199	-16136	-980	-4052	89	-49	128	-3636	-1884	16616	173	-25	49	-8484	3284	14080	94	-9	-145	-14672	4272	-5780	-51	-29	-44	-3068	2644	16612	51	-100	200	127	127	5
-7916	-2632	13604	-70	157	-229	-16088	-984	-3996	87	16	118	-3528	-1948	16496	223	-14	56	-8452	3276	14060	130	-37	-170	-14640	4296	-5808	-29	-26	-32	-3020	2708	16584	3	-129	184	127	127	5
-7852	-2576	13684	-79	133	-188	-16120	-944	-3940	51	-4	139	-3584	-1936	16624	177	19	68	-8476	3264	14044	126	-80	-152	-14732	4308	-5744	24	0	-35	-3012	2744	16628	20	-97	203	127	127	5
-7868	-2588	13636	-95	170	-201	-16160	-944	-3960	83	-41	112	-3568	-1912	16680	150	-5	48	-8448	3336	14084	110	-53	-131	-14724	4340	-5636	17	-53	-48	-3040	2752	16500	22	-109	188	127	127	5
-7924	-2556	13628	-53	139	-201	-16124	-988	-4004	104	-13	98	-3532	-1980	16656	196	-20	47	-8488	3280	14176	109	-58	-187	-14696	4336	-5800	-4	-30	-51	-3056	2680	16552	17	-99	197	127	127	5
-7848	-2580	13604	-93	132	-214	-16144	-912	-4092	86	11	153	-3592	-1992	16584	149	-25	58	-8480	3308	14068	117	-21	-155	-14704	4336	-5856	-30	-9	-56	-3036	2696	16556	30	-112	220	127	127	5
-7916	-2568	13640	-97	105	-172	-16092	-968	-4016	68	-33	138	-3636	-1872	16624	170	-17	60	-8480	3268	14124	128	-79	-167	-14652	4336	-5708	26	-35	-48	-3012	2732	16552	17	-118	207	127	127	5
-7856	-2576	13612	-114	138	-197	-16144	-932	-3992	82	-22	116	-3592	-1880	16572	209	-11	39	-8480	3340	14024	115	-38	-185	-14728	4372	-5792	6	-23	-66	-3032	2728	16516	17	-105	215	127	127	5
-7844	-2564	13692	-106	122	-187	-16072	-912	-3876	53	12	115	-3560	-1892	16612	162	35	59	-8488	3292	14100	129	-97	-180	-14704	4380	-5744	-16	-37	-62	-3068	2684	16532	29	-127	199	127	127	5
-7884	-2564	13660	-86	130	-181	-16120	-964	-4104	72	-36	90	-3556	-1888	16588	179	-7	58	-8452	3312	14196	116	-27	-169	-14716	4348	-5824	-12	-45	-93	-3172	2708	16480	17	-105	225	127	127	5
-7868	-2628	13616	-82	124	-224	-16072	-932	-4044	78	-21	135	-3600	-1960	16540	149	-7	60	-8504	3276	13976	106	-58	-173	-14652	4324	-5768	-23	-38	-37	-3044	2648	16448	24	-131	216	127	127	5
-7860	-2616	13652	-120	140	-215	-16136	-976	-4076	84	-24	88	-3612	-1944	16512	194	-23	51	-8444	3300	14164	112	-46	-158	-14664	4272	-5756	-2	-13	-73	-3060	2624	16488	25	-114	177	127	127	5
-7876	-2568	13668	-111	147	-177	-16088	-936	-3988	81	-12	137	-3592	-1956	16584	166	-3	37	-8476	3300	14048	113	-55	-165	-14712	4292	-5804	41	-36	-46	-3120	2660	16468	19	-131	213	127	127	5
-7848	-2592	13664	-89	160	-170	-16148	-960	-4016	76	-46	118	-3536	-1924	16528	197	-5	9	-8520	3256	14016	80	-30	-164	-14644	4320	-5852	-5	-33	-49	-3076	2632	16544	4	-94	225	127	127	5
-7812	-2572	13644	-97	139	-221	-16088	-968	-3936	55	3	149	-3648	-1984	16616	144	-45	33	-8456	3308	13976	102	-17	-177	-14648	4332	-5828	-5	-11	-66	-3048	2668	16584	22	-139	198	127	126	5
-7888	-2600	13652	-106	151	-165	-16104	-976	-3948	86	-8	114	-3612	-1944	16516	203	-14	82	-8480	3232	14196	100	-35	-147	-14712	4312	-5816	3	-16	-82	-3008	2616	16460	-9	-107	182	127	127	5
-7892	-2556	13524	-70	155	-192	-16048	-940	-3996	88	-20	106	-3624	-1964	16548	194	-26	57	-8524	3272	14048	112	-26	-184	-14680	4352	-5800	22	-27	-81	-3056	2632	16552	42	-100	184	127	127	5
-7800	-2548	13560	-109	155	-198	-16076	-940	-3964	83	-13	125	-3552	-1856	16524	171	-4	63	-8480	3252	14148	120	-32	-171	-14652	4308	-5804	7	-19	-29	-3052	2548	16460	33	-139	197	127	127	5
-7916	-2544	13684	-105	170	-157	-16144	-992	-4000	93	-25	121	-3660	-1956	16676	204	-29	42	-8400	3344	14020	167	-76	-155	-14692	4316	-5940	-13	-49	-65	-3108	2640	16488	52	-125	169	127	127	5
-7856	-2568	13676	-87	133	-162	-16112	-916	-4068	47	-10	122	-3524	-1960	16524	187	-12	52	-8440	3244	14096	131	-67	-182	-14680	4352	-5704	-2	-15	-65	-3084	2688	16500	73	-138	203	127	127	5
-7904	-2580	13640	-80	161	-206	-16144	-936	-4112	72	-16	99	-3504	-1960	16560	190	0	56	-8508	3264	14100	145	-11	-156	-14648	4320	-5772	-1	-34	-49	-3064	2672	16480	30	-116	165	127	127	5
-7832	-2596	13504	-103	143	-183	-16112	-964	-4020	97	-63	148	-3508	-1940	16548	175	-52	42	-8500	3340	14060	128	-90	-154	-14672	4392	-5772	9	-38	-34	-3044	2676	16580	28	-127	174	127	127	5
-7864	-2600	13640	-109	140	-201	-16184	-976	-4036	106	-22	114	-3552	-1932	16608	163	-30	54	-8512	3320	14044	134	-4	-168	-14716	4380	-5824	6	-12	-24	-3044	2732	16560	25	-145	169	127	127	5
-7876	-2548	13680	-91	126	-205	-16100	-944	-4056	90	-27	126	-3536	-1940	16696	176	-7	42	-8500	3312	14068	148	-53	-156	-14716	4412	-5652	19	-24	-62	-3052	2672	16552	22	-135	194	127	127	5
-7920	-2620	13536	-75	181	-207	-16096	-960	-4036	75	5	124	-3572	-1868	16600	170	-17	71	-8460	3320	14024	124	-67	-152	-14660	4392	-5792	-2	-16	-56	-3036	2748	16436	-17	-121	166	127	127	5
-7864	-2536	13592	-122	155	-181	-16100	-908	-4036	93	-13	102	-3604	-1848	16652	173	-5	49	-8532	3312	14072	95	-42	-154	-14700	4352	-5712	8	-9	-58	-3068	2712	16552	-7	-122	191	127	127	5
-7884	-2560	13640	-112	157	-193	-16156	-980	-4040	93	-48	115	-3608	-1884	16540	168	2	49	-8480	3264	14116	128	-67	-151	-14680	4376	-5700	-11	-34	-32	-3028	2716	16608	3	-99	220	127	127	5
-7908	-2544	13768	-117	132	-212	-16148	-988	-4036	82	-20	132	-3632	-1848	16612	174	23	72	-8500	3296	14056	80	-29	-165	-14680	4368	-5820	-15	-33	-39	-3056	2660	16524	-8	-117	192	127	127	5
-7876	-2584	13692	-99	161	-176	-16116	-936	-4144	57	-34	98	-3652	-1900	16636	164	-37	54	-8516	3248	13988	97	-54	-177	-14732	4408	-5680	-23	-13	-46	-3068	2708	16460	3	-101	221	127	127	5
-7920	-2604	13692	-110	153	-245	-16040	-972	-4052	95	-31	127	-3604	-1900	16704	180	21	14	-8512	3284	14124	120	-44	-177	-14628	4380	-5840	-25	-38	-68	-3080	2708	16672	22	-115	218	127	127	5
-7860	-2540	13604	-99	167	-242	-16092	-960	-4020	73	3	151	-3608	-1976	16536	159	-65	85	-8472	3228	14068	108	-26	-204	-14692	4336	-5788	-1	-49	-75	-3048	2664	16676	43	-109	227	127	127	5
-7852	-2592	13620	-90	138	-202	-16064	-964	-4108	74	-28	121	-3584	-1928	16628	154	6	39	-8476	3340	14148	118	-18	-170	-14660	4392	-5840	-35	-31	-44	-2996	2640	16480	16	-125	176	127	127	5
-7852	-2560	13656	-123	140	-172	-16080	-980	-3980	77	-49	121	-3596	-1932	16608	150	-13	62	-8480	3292	14112	117	-41	-170	-14632	4292	-5760	-32	-16	-72	-3024	2692	16524	28	-125	174	127	127	5
-7880	-2628	13664	-58	171	-209	-16096	-996	-4132	100	-58	117	-3600	-1944	16572	192	1	49	-8508	3300	14012	99	-31	-156	-14628	4344	-5804	19	-60	-56	-3008	2668	16484	-6	-129	170	127	127	5
-7896	-2576	13676	-96	143	-226	-16132	-1004	-4100	72	-31	143	-3548	-1964	16512	160	-10	39	-8540	3268	14096	154	-44	-156	-14732	4352	-5748	-5	-33	-37	-3008	2656	16516	11	-143	185	127	127	5
-7880	-2592	13624	-73	119	-203	-16100	-976	-4044	81	-31	131	-3616	-1952	16612	185	5	36	-8516	3296	14096	146	-42	-129	-14772	4396	-5720	-13	-16	-64	-3000	2616	16508	49	-110	185	127	127	5
-7908	-2532	13596	-59	144	-203	-16088	-1008	-3964	77	-11	124	-3612	-1920	16652	159	-41	17	-8500	3300	14136	111	-68	-141	-14672	4316	-5800	-31	-5	-29	-3108	2720	16456	23	-128	158	127	127	5
-7904	-2640	13672	-108	116	-165	-16144	-1000	-4080	76	-9	140	-3532	-1952	16660	179	9	37	-8424	3328	14032	130	-75	-157	-14680	4372	-5760	29	-43	-33	-3056	2652	16540	2	-129	217	127	127	5
-7844	-2560	13596	-87	115	-211	-16184	-952	-3980	81	-22	120	-3592	-1940	16636	201	7	46	-8480	3264	14072	117	-58	-181	-14680	4396	-5824	20	-47	-49	-3040	2744	16548	17	-112	198	127	127	5
-7900	-2600	13596	-54	137	-197	-16088	-920	-4112	85	-27	138	-3660	-1944	16676	177	-8	7	-8452	3268	14140	145	-56	-176	-14664	4332	-5664	12	-4	-65	-3060	2732	16548	8	-103	203	127	127	5
-7856	-2592	13612	-78	154	-196	-16028	-940	-4108	87	8	115	-3592	-1960	16616	179	15	32	-8496	3244	14056	115	-27	-169	-14712	4308	-5840	-15	-51	-51	-3052	2732	16572	24	-117	209	127	127	5
-7928	-2596	13620	-75	133	-181	-16072	-952	-4112	71	-57	142	-3568	-1968	16556	184	13	41	-8532	3244	14012	119	-47	-149	-14692	4392	-5740	2	-46	-63	-3092	2696	16472	26	-130	183	127	127	5
-7852	-2532	13612	-92	135	-194	-16068	-924	-4008	84	-15	108	-3636	-1908	16548	172	-17	44	-8480	3280	14024	137	-70	-164	-14660	4332	-5788	30	-33	-86	-3016	2708	16640	31	-133	178	127	127	5
-7896	-2512	13564	-82	172	-203	-16104	-916	-4016	95	-23	128	-3588	-1888	16564	152	-26	53	-8452	3344	14040	117	-47	-149	-14688	4332	-5780	-18	-66	-24	-3036	2636	16548	42	-98	191	127	127	5
-7908	-2584	13636	-130	126	-197	-16088	-956	-4076	84	-53	104	-3540	-1932	16632	179	6	87	-8416	3304	14080	119	-17	-190	-14724	4352	-5700	-13	-19	-65	-3080	2664	16536	7	-118	188	127	127	5
-7884	-2540	13540	-113	131	-207	-16112	-932	-4076	70	12	92	-3560	-1888	16604	145	-5	58	-8476	3236	14012	143	-76	-185	-14720	4348	-5828	-22	-47	-62	-3024	2684	16624	28	-135	209	127	127	5
-7824	-2608	13684	-136	142	-228	-16100	-908	-4116	63	-46	135	-3632	-1892	16576	177	-21	73	-8472	3292	14084	103	-48	-165	-14736	4348	-5828	13	-37	-62	-3036	2644	16444	43	-86	218	127	127	5
-7840	-2548	13636	-163	121	-209	-16088	-932	-4028	81	12	105	-3616	-1964	16600	144	-10	94	-8444	3256	14088	118	-28	-171	-14692	4360	-5828	-8	-36	-67	-3032	2692	16592	13	-120	223	127	127	5
-7900	-2560	13664	-109	160	-233	-16116	-960	-4036	65	-64	125	-3564	-1960	16640	173	26	56	-8416	3380	14000	129	-57	-174	-14696	4380	-5768	-34	-28	-56	-3028	2688	16604	39	-131	215	127	127	5
-7908	-2600	13572	-113	142	-203	-16140	-996	-4036	71	-45	134	-3556	-1900	16720	188	-27	80	-8556	3244	14140	108	-32	-174	-14652	4316	-5844	27	5	-52	-3060	2600	16636	27	-120	231	127	127	5
-7872	-2616	13648	-94	147	-194	-16104	-996	-4064	76	-40	103	-3540	-2028	16716	171	-8	58	-8516	3280	14116	105	-15	-148	-14684	4380	-5836	11	-27	-77	-3076	2724	16460	-7	-116	191	127	127	5
-7884	-2584	13620	-58	139	-171	-16020	-944	-3940	46	-40	127	-3572	-1968	16572	187	15	28	-8556	3292	13964	92	-74	-180	-14656	4332	-5872	27	-35	-70	-3012	2676	16648	13	-108	213	127	127	5
-7852	-2528	13644	-102	152	-217	-16108	-976	-4052	79	-16	113	-3536	-2004	16572	198	3	38	-8484	3332	13992	119	-33	-180	-14632	4392	-5732	-3	-57	-35	-3048	2724	16476	30	-102	213	127	127	5
-7828	-2540	13708	-81	157	-169	-16140	-936	-3944	82	9	126	-3568	-1960	16684	202	-23	55	-8456	3380	14016	96	-123	-157	-14744	4304	-5816	-3	-11	-50	-3040	2680	16508	16	-115	192	127	127	5
-7832	-2608	13596	-48	141	-168	-16076	-956	-4096	79	4	157	-3600	-1952	16556	194	-14	44	-8484	3276	14116	104	-51	-139	-14728	4308	-5748	9	-38	-75	-3024	2600	16596	24	-99	184	127	127	5
-7820	-2580	13672	-79	140	-193	-16168	-1000	-3908	111	8	114	-3604	-1924	16556	200	10	47	-8480	3312	13988	115	-30	-150	-14648	4328	-5848	-11	-33	-79	-3004	2612	16540	21	-129	168	127	127	5
-7848	-2604	13596	-101	117	-201	-16064	-952	-4020	88	15	136	-3588	-1940	16552	197	-7	45	-8464	3312	14128	111	-53	-183	-14652	4368	-5700	33	-77	-30	-3100	2660	16568	34	-76	202	127	127	5
-7856	-2620	13600	-82	154	-183	-16120	-952	-4044	92	-21	165	-3608	-1896	16508	205	7	51	-8520	3280	14000	135	-43	-154	-14688	4348	-5708	-14	-40	-71	-3024	2660	16528	26	-121	181	127	127	5
-7880	-2524	13676	-63	167	-182	-16124	-928	-4144	80	-7	119	-3568	-1972	16588	171	-10	41	-8456	3276	14028	107	9	-178	-14688	4332	-5848	-23	-65	-26	-3068	2676	16548	38	-142	196	127	127	5
-7876	-2608	13620	-72	156	-181	-16104	-976	-4032	108	-7	125	-3620	-1856	16520	214	-10	37	-8516	3252	14092	136	-30	-169	-14684	4348	-5724	75	-52	-19	-3076	2660	16596	-19	-112	205	127	127	5
-7932	-2724	13644	-63	128	-195	-16044	-944	-4164	116	-36	141	-3612	-1904	16584	212	-31	24	-8492	3260	14056	126	-47	-160	-14628	4368	-5776	22	-4	-55	-3048	2668	16556	25	-111	202	127	127	5
-7912	-2520	13716	-47	129	-196	-16072	-924	-4060	110	-24	132	-3600	-1900	16676	168	18	48	-8500	3308	13976	144	-40	-178	-14664	4360	-5760	-3	-30	-51	-3152	2712	16552	49	-133	201	127	127	5
-7872	-2572	13680	-89	125	-194	-16088	-960	-4104	97	-11	123	-3624	-1924	16560	145	10	51	-8500	3284	14020	129	-53	-164	-14696	4364	-5776	55	-73	-59	-3016	2716	16468	29	-115	178	127	127	5
-7896	-2576	13596	-97	122	-170	-16100	-912	-4092	70	-48	171	-3536	-1928	16620	215	-4	22	-8488	3288	13952	109	-75	-174	-14672	4388	-5840	12	-41	-74	-2996	2692	16564	23	-98	201	127	127	5
-7876	-2604	13668	-119	147	-200	-16116	-908	-4008	82	-49	129	-3524	-1940	16548	161	29	67	-8444	3312	14064	95	-36	-164	-14696	4404	-5736	-6	-17	-58	-2968	2688	16588	-9	-113	213	127	127	5
-7844	-2580	13644	-100	137	-202	-16104	-948	-4052	42	-48	106	-3532	-1836	16552	156	28	55	-8432	3312	14016	111	-96	-163	-14708	4416	-5704	-37	0	-79	-2956	2740	16492	11	-93	241	127	127	5
-7872	-2544	13612	-109	128	-199	-16092	-1024	-4016	62	-34	124	-3508	-1936	16552	178	-25	67	-8464	3268	14072	107	-74	-193	-14616	4336	-5712	-40	21	-77	-2940	2660	16576	10	-95	230	127	127	5
-7920	-2592	13720	-103	117	-220	-16096	-912	-4040	46	-15	106	-3620	-1936	16532	168	-14	75	-8560	3288	14032	90	-51	-149	-14692	4336	-5760	-43	-6	-100	-3032	2728	16644	-11	-83	202	127	127	5
-7824	-2588	13608	-123	163	-192	-16164	-996	-4000	110	0	107	-3568	-1988	16536	155	-6	81	-8424	3308	13948	92	-34	-209	-14716	4312	-5880	-30	2	-76	-3048	2700	16508	-23	-122	224	127	127	5
-7928	-2576	13616	-122	142	-164	-16048	-940	-4104	56	5	72	-3620	-1956	16564	195	-3	43	-8516	3296	14064	80	-68	-194	-14640	4364	-5876	-16	-18	-91	-3148	2660	16548	-15	-131	214	127	127	5
-7824	-2600	13600	-61	129	-218	-16064	-940	-4140	59	-26	95	-3588	-1936	16616	176	10	65	-8504	3228	14136	90	-70	-209	-14704	4372	-5820	-2	-13	-76	-3136	2660	16640	2	-118	195	127	127	5
-7884	-2608	13608	-87	172	-213	-16088	-960	-4132	80	0	97	-3664	-1956	16604	155	22	39	-8512	3212	14044	100	-18	-153	-14676	4384	-5856	22	-18	-66	-3112	2672	16536	15	-98	188	127	127	5
-7860	-2632	13632	-103	114	-214	-16064	-1012	-4136	81	-33	126	-3636	-1884	16600	141	-39	28	-8484	3276	13992	97	-61	-151	-14608	4356	-5828	3	-72	-80	-3148	2604	16552	41	-86	211	127	127	5
-7844	-2544	13692	-74	141	-170	-16112	-952	-4172	112	-48	124	-3624	-1900	16564	174	-12	3	-8460	3284	14100	128	-58	-138	-14700	4316	-5796	-21	-72	-79	-3076	2604	16664	10	-129	211	127	127	5
-7872	-2560	13736	-65	151	-174	-16100	-940	-4104	99	-57	132	-3604	-1928	16568	184	-31	31	-8472	3204	14044	115	-52	-97	-14736	4320	-5808	-6	-61	-44	-3080	2568	16604	18	-135	212	127	127	5
-7860	-2536	13672	-86	137	-209	-16140	-932	-4128	105	-69	114	-3560	-2004	16540	167	-19	44	-8416	3300	14068	107	-77	-131	-14664	4284	-5788	26	-88	-70	-3020	2584	16628	53	-120	206	127	127	5
-7896	-2540	13736	-114	127	-244	-16060	-920	-4040	72	-66	159	-3576	-1916	16520	153	-28	54	-8480	3284	14076	145	-72	-158	-14712	4368	-5700	22	-63	-33	-2992	2656	16516	66	-122	179	127	127	5
-7888	-2612	13648	-106	171	-214	-16076	-892	-4080	65	-46	112	-3484	-1992	16568	196	14	67	-8436	3308	14084	119	-18	-165	-14712	4312	-5656	23	-64	-52	-2992	2724	16612	71	-112	197	127	127	5
-7884	-2560	13656	-102	151	-226	-16172	-992	-4020	66	-14	114	-3540	-2028	16564	166	9	92	-8504	3304	14096	142	-75	-163	-14744	4324	-5772	1	-58	-60	-2936	2740	16420	70	-133	195	127	127	5
-7864	-2588	13704	-101	159	-214	-16104	-960	-3908	97	-12	131	-3516	-2032	16664	189	30	85	-8492	3384	14032	141	10	-155	-14752	4388	-5684	15	-20	-26	-3004	2712	16596	27	-125	163	127	127	5
-7884	-2572	13544	-122	153	-206	-16060	-956	-4008	73	-7	134	-3512	-2020	16544	209	-20	69	-8496	3384	14236	128	-73	-181	-14692	4368	-5684	12	-2	-67	-3004	2732	16472	-7	-109	210	127	127	5
-7884	-2604	13640	-64	134	-141	-16060	-1000	-4012	90	-14	143	-3520	-1992	16584	237	13	47	-8508	3344	14056	102	-65	-185	-14728	4368	-5764	31	-12	-49	-3044	2736	16588	7	-122	224	127	127	5
-7920	-2580	13748	-73	129	-192	-16152	-1036	-4012	81	63	152	-3620	-1960	16572	212	39	37	-8512	3316	13988	92	-38	-184	-14752	4344	-5692	-3	0	-66	-3016	2680	16448	17	-99	189	127	127	5
-7852	-2592	13552	-44	115	-204	-16012	-900	-4112	103	12	125	-3616	-1892	16636	203	16	28	-8480	3296	14072	118	-48	-188	-14660	4324	-5824	-45	0	-81	-3116	2716	16460	-32	-150	216	127	127	5
-7852	-2588	13632	-51	110	-183	-16096	-916	-4036	82	50	151	-3624	-1852	16616	185	7	17	-8424	3280	14080	110	-26	-166	-14676	4260	-5812	-34	-42	-78	-3076	2608	16604	-7	-90	247	127	127	5
-7876	-2528	13592	-66	131	-178	-16100	-856	-4008	58	27	121	-3648	-1864	16628	175	-10	49	-8472	3308	14080	103	-45	-213	-14680	4376	-5832	-50	-10	-88	-3072	2608	16488	31	-118	206	127	127	5
-7796	-2564	13732	-119	130	-193	-16096	-976	-4108	99	13	124	-3600	-1876	16672	181	-3	58	-8532	3268	13984	134	-34	-199	-14644	4276	-5764	-1	-18	-70	-3120	2588	16476	39	-133	208	127	127	5
-7864	-2528	13724	-98	130	-195	-16108	-900	-4056	87	-16	148	-3664	-1792	16596	185	-24	56	-8452	3276	14092	133	-70	-194	-14660	4404	-5872	-23	-1	-69	-3116	2692	16532	28	-92	222	127	127	5
-7796	-2496	13692	-138	130	-210	-16120	-912	-4112	67	-12	115	-3676	-1812	16680	192	3	66	-8452	3304	14104	124	-66	-139	-14680	4332	-5900	33	-70	-56	-3132	2720	16532	6	-113	183	127	127	5
-7852	-2560	13628	-118	151	-225	-16040	-932	-4036	71	-37	126	-3592	-1868	16648	164	-20	67	-8424	3260	14144	127	-25	-170	-14724	4344	-5864	26	-72	-60	-3032	2664	16536	0	-139	191	127	127	5
-7832	-2544	13636	-124	162	-259	-16100	-924	-3940	63	-56	81	-3660	-1876	16448	108	-36	60	-8516	3256	14056	131	-55	-164	-14688	4344	-5732	41	-40	-64	-3076	2608	16476	23	-141	178	127	127	5
-7820	-2544	13668	-131	170	-227	-16108	-1008	-4016	57	-72	102	-3580	-1960	16780	123	-3	56	-8480	3280	14148	128	-13	-167	-14700	4368	-5804	3	-42	-31	-3016	2696	16480	18	-157	180	127	127	5
-7848	-2544	13592	-132	200	-223	-16168	-960	-4128	64	-70	79	-3576	-1968	16540	126	-11	49	-8484	3364	14004	91	-28	-153	-14700	4440	-5616	29	-58	-70	-3024	2700	16468	20	-146	184	127	127	5
-7860	-2568	13520	-109	158	-216	-16108	-924	-4012	53	-69	100	-3636	-2020	16492	151	-5	46	-8460	3348	14136	137	-59	-158	-14684	4400	-5728	-8	-31	-45	-3000	2684	16492	45	-110	211	127	127	5
-7876	-2580	13580	-131	171	-204	-16036	-976	-3920	67	-66	114	-3548	-2016	16632	173	9	69	-8432	3284	13964	100	-61	-186	-14656	4344	-5648	12	-47	-94	-3024	2692	16536	22	-93	221	127	127	5
-7856	-2600	13624	-83	161	-192	-16092	-1028	-3988	96	-71	117	-3600	-1976	16648	170	-23	36	-8508	3308	14004	96	-107	-153	-14656	4332	-5684	-19	-59	-68	-2956	2644	16472	7	-132	198	127	127	5
-7872	-2616	13636	-101	170	-191	-16064	-964	-4028	75	-53	120	-3508	-1988	16528	179	1	62	-8472	3304	14120	77	-45	-169	-14704	4308	-5776	19	-48	-68	-3008	2656	16452	6	-109	218	127	127	5
-7848	-2656	13700	-106	142	-176	-16088	-948	-3956	98	-13	151	-3500	-1984	16620	203	-16	32	-8460	3288	14128	86	-65	-145	-14716	4164	-5700	-24	15	-68	-3032	2564	16560	34	-106	234	127	127	5
-7908	-2528	13712	-73	140	-173	-16056	-928	-4016	78	26	111	-3520	-2008	16572	172	6	19	-8504	3352	13900	90	-36	-145	-14692	4248	-5844	-21	-19	-86	-3068	2608	16532	9	-142	194	127	127	5
-7856	-2592	13700	-74	138	-189	-16176	-900	-3996	79	6	124	-3604	-1992	16632	192	26	52	-8396	3268	14100	115	-92	-171	-14668	4304	-5740	24	7	-39	-3016	2576	16628	33	-76	213	127	127	5
-7904	-2644	13688	-85	138	-140	-16068	-952	-4064	81	-6	126	-3548	-1924	16588	200	-8	60	-8468	3272	13996	117	-3	-199	-14708	4288	-5752	19	-25	-21	-3040	2564	16484	14	-112	194	127	127	5
-7872	-2576	13668	-99	107	-180	-16116	-896	-4032	97	23	149	-3584	-1860	16584	214	-34	69	-8404	3320	14060	123	-9	-163	-14716	4304	-5836	6	-5	-22	-3060	2624	16516	37	-137	218	127	127	5
-7896	-2584	13656	-49	155	-188	-16144	-960	-4012	87	-4	131	-3668	-1956	16584	194	-15	60	-8484	3296	14120	120	-13	-184	-14716	4264	-5864	46	-16	-47	-3076	2636	16584	52	-105	176	127	127	5
-7908	-2620	13604	-72	152	-171	-16044	-980	-4012	37	1	120	-3600	-1964	16560	229	13	68	-8484	3260	14040	146	-41	-144	-14652	4324	-5804	6	-58	5	-3096	2640	16580	32	-119	198	127	127	5
-7880	-2568	13588	-59	117	-170	-16104	-904	-4052	67	4	132	-3660	-1900	16656	205	-38	81	-8508	3264	14040	157	-3	-186	-14604	4412	-5884	19	-49	-50	-3080	2688	16588	62	-121	161	127	127	5
-7824	-2536	13620	-75	119	-149	-16080	-964	-4100	72	1	134	-3576	-1972	16592	152	-15	29	-8496	3308	14072	151	-65	-149	-14668	4380	-5796	4	-41	-21	-3072	2744	16568	52	-114	192	127	127	5
-7852	-2624	13592	-54	158	-166	-16088	-896	-4120	77	-18	150	-3664	-1956	16604	173	-19	51	-8532	3320	14096	166	-61	-144	-14592	4340	-5796	10	-64	-15	-3060	2744	16468	34	-134	187	127	127	5
-7832	-2592	13628	-83	160	-190	-16184	-952	-4012	95	-45	115	-3596	-1928	16620	213	-24	8	-8460	3308	14008	140	-13	-150	-14596	4348	-5692	17	-52	-77	-3072	2700	16456	50	-123	178	127	127	5
-7876	-2548	13704	-69	151	-234	-16060	-940	-4128	114	-39	146	-3560	-1828	16676	200	6	36	-8428	3300	13996	156	-38	-171	-14672	4356	-5752	29	-67	-37	-3040	2672	16496	7	-129	203	127	127	5
-7796	-2612	13672	-73	176	-194	-16116	-960	-3980	85	-16	133	-3564	-1804	16604	175	-11	6	-8480	3280	14020	126	-43	-175	-14716	4348	-5748	16	-55	-67	-3020	2700	16608	29	-146	205	127	127	5
-7924	-2568	13672	-101	124	-187	-16120	-872	-4056	55	-32	122	-3556	-1844	16648	165	0	56	-8440	3312	14024	141	-34	-185	-14636	4348	-5740	-20	-39	-63	-2944	2704	16628	63	-129	191	127	127	5
-7848	-2572	13616	-107	149	-177	-16108	-920	-4064	81	-35	147	-3512	-1868	16660	144	-1	42	-8528	3316	14108	141	-76	-190	-14756	4360	-5700	1	-33	-40	-2992	2704	16600	2	-128	187	127	127	5
-7808	-2516	13636	-122	132	-196	-16048	-924	-4000	73	-8	97	-3612	-1796	16528	132	-15	55	-8484	3296	14036	113	-74	-208	-14744	4376	-5720	-27	-27	-93	-3052	2740	16580	5	-93	212	127	127	5
-7804	-2584	13712	-132	171	-225	-16092	-900	-3924	77	-46	112	-3592	-1868	16576	125	13	52	-8456	3352	14080	90	-26	-197	-14672	4360	-5704	-36	-53	-101	-3080	2708	16632	30	-106	229	127	127	5
-7900	-2576	13620	-115	149	-203	-16088	-972	-4008	64	-33	102	-3604	-1912	16668	140	13	57	-8516	3292	14088	78	-74	-174	-14700	4244	-5832	-17	-19	-89	-3056	2700	16660	0	-104	249	127	127	5
-7904	-2592	13556	-155	165	-199	-16040	-940	-4048	60	-66	42	-3564	-1944	16588	143	9	85	-8424	3288	14000	102	-25	-198	-14728	4328	-5772	-34	5	-82	-3020	2732	16552	-12	-126	200	127	127	5
-7856	-2616	13752	-135	146	-202	-16120	-952	-3984	51	-50	74	-3536	-1944	16652	155	0	74	-8508	3284	14124	65	-38	-217	-14720	4316	-5684	-36	-25	-135	-3008	2664	16628	4	-104	215	127	127	5
-7872	-2632	13600	-127	149	-214	-16152	-968	-3948	35	-27	122	-3508	-2008	16644	163	-38	81	-8524	3296	14148	97	-42	-166	-14692	4328	-5724	-18	-10	-86	-3000	2688	16632	-4	-112	217	127	127	5
-7860	-2632	13740	-126	178	-231	-16100	-972	-4100	59	-11	104	-3528	-2040	16640	152	5	62	-8472	3304	14060	67	-59	-220	-14740	4296	-5800	3	-1	-96	-3040	2652	16520	-20	-120	229	127	127	5
-7896	-2580	13660	-110	137	-216	-16116	-1004	-4144	76	-27	80	-3624	-1988	16492	168	-18	52	-8536	3320	14096	92	-92	-158	-14724	4292	-5764	-4	-4	-73	-3068	2608	16580	-20	-95	205	127	127	5
-7836	-2628	13552	-95	168	-218	-16124	-988	-3948	76	7	103	-3576	-2024	16588	195	1	43	-8508	3232	14220	106	-30	-185	-14692	4276	-5780	-10	-10	-69	-3040	2588	16536	-25	-124	196	127	127	5
-7836	-2616	13724	-60	142	-179	-16120	-996	-4108	78	9	125	-3652	-1996	16544	187	21	8	-8416	3288	13928	97	-56	-204	-14712	4320	-5844	19	9	-40	-3076	2632	16416	-23	-122	196	127	127	5
-7816	-2600	13584	-53	149	-175	-16060	-984	-4068	68	-5	130	-3604	-1988	16692	184	13	23	-8532	3232	14108	97	-25	-139	-14668	4304	-5852	-5	-25	-71	-3172	2684	16528	-1	-117	166	127	127	5
-7872	-2596	13580	-30	140	-177	-16104	-936	-4012	106	15	137	-3636	-1940	16628	155	5	18	-8444	3320	14068	129	-83	-157	-14688	4316	-5744	-23	-24	-74	-3136	2592	16536	10	-120	185	127	127	5
-7868	-2568	13564	-89	153	-173	-16160	-944	-4176	78	-45	149	-3660	-1932	16504	206	1	17	-8460	3288	14132	106	-4	-163	-14724	4348	-5908	-20	-50	-75	-3204	2596	16544	32	-120	219	127	127	5
-7844	-2536	13664	-91	126	-178	-16132	-924	-3996	65	-7	156	-3644	-1872	16616	198	1	30	-8456	3224	14048	142	-29	-170	-14732	4300	-5908	-4	-41	-47	-3124	2620	16664	63	-110	210	127	127	5
-7852	-2584	13592	-117	108	-193	-16056	-936	-4160	96	-38	177	-3656	-1824	16564	189	-27	59	-8508	3304	14124	159	-77	-146	-14692	4268	-5840	1	-97	-45	-3100	2608	16460	79	-133	180	127	127	5
-7876	-2568	13644	-78	138	-231	-16144	-884	-4132	111	-43	131	-3568	-1872	16512	196	-19	35	-8432	3244	14008	173	-41	-138	-14692	4328	-5780	24	-71	-40	-3052	2572	16568	115	-130	189	127	127	5
-7792	-2592	13748	-127	109	-193	-16120	-948	-3980	107	-35	154	-3616	-1852	16508	166	10	70	-8456	3296	14092	191	-46	-142	-14672	4340	-5788	33	-63	-41	-3016	2632	16544	53	-116	170	127	127	5
-7832	-2568	13596	-88	159	-198	-16080	-928	-3980	71	-65	124	-3536	-1924	16696	159	0	63	-8384	3324	14040	138	-41	-151	-14612	4360	-5680	29	-75	-10	-2988	2664	16512	66	-143	184	127	127	5
-7876	-2572	13544	-108	110	-214	-16104	-936	-3984	27	-38	115	-3564	-1980	16612	154	2	67	-8452	3284	14064	170	-46	-138	-14708	4312	-5640	20	-37	-47	-3000	2760	16552	43	-132	184	127	127	5
-7828	-2596	13688	-95	146	-215	-16200	-932	-3924	81	-46	121	-3528	-2032	16616	210	-5	60	-8448	3292	14004	145	-33	-125	-14708	4376	-5648	10	-12	5	-2988	2728	16520	40	-112	186	127	127	5
-7824	-2548	13752	-73	189	-216	-16112	-908	-3944	73	-2	133	-3512	-1984	16704	205	0	97	-8468	3300	14048	124	4	-185	-14724	4396	-5724	10	28	-45	-3040	2720	16484	18	-103	204	127	127	5
-7772	-2564	13596	-67	162	-190	-16032	-980	-3996	80	-85	127	-3528	-1996	16468	227	-11	60	-8432	3332	14044	123	-29	-168	-14684	4380	-5760	-14	-18	-76	-3008	2784	16596	45	-124	216	127	127	5
-7840	-2592	13600	-47	144	-198	-16112	-992	-4112	94	2	124	-3540	-1936	16620	179	-15	65	-8460	3280	14116	129	-40	-179	-14692	4412	-5788	14	0	-49	-2972	2764	16572	-2	-96	213	127	127	5
-7844	-2624	13692	-22	121	-219	-16060	-956	-3960	105	-22	125	-3612	-1980	16668	195	-34	26	-8424	3272	14108	45	-48	-205	-14684	4404	-5712	-24	-9	-48	-3092	2680	16536	4	-106	214	127	127	5
-7880	-2620	13632	-32	137	-169	-16132	-1044	-4032	85	35	170	-3556	-1968	16712	189	-49	36	-8484	3264	14204	72	-71	-223	-14616	4344	-5784	3	-10	-52	-3060	2700	16536	-4	-92	176	127	127	5
-7844	-2556	13640	-65	155	-159	-16088	-896	-4144	79	2	172	-3540	-1844	16536	198	3	17	-8500	3284	13900	124	-56	-170	-14704	4296	-5796	-2	0	-61	-3064	2624	16668	18	-104	194	127	127	5
-7864	-2524	13700	-73	149	-206	-16140	-940	-4068	83	3	149	-3608	-1832	16636	175	29	74	-8440	3316	14088	82	-59	-163	-14688	4324	-5868	2	-16	-107	-3064	2600	16520	0	-122	198	127	127	5
-7844	-2536	13652	-102	140	-225	-16104	-876	-4188	113	-25	124	-3680	-1816	16488	191	-11	40	-8464	3232	14060	115	-36	-154	-14704	4288	-5768	22	-38	-23	-3032	2572	16676	30	-127	179	127	127	5
-7872	-2604	13596	-80	160	-203	-16044	-868	-4076	79	-9	149	-3604	-1856	16508	196	4	39	-8480	3312	14040	111	-58	-157	-14708	4296	-5748	-1	-80	-49	-3036	2648	16536	18	-129	164	127	127	5
-7844	-2568	13600	-100	179	-208	-16072	-936	-4020	62	-37	89	-3556	-1808	16660	128	-2	74	-8484	3240	13972	134	-14	-151	-14732	4320	-5744	21	-65	-25	-3056	2652	16568	45	-131	179	127	127	5
-7896	-2588	13656	-119	161	-209	-16140	-896	-4100	56	0	108	-3612	-1904	16672	134	-38	52	-8500	3224	14100	121	-37	-160	-14728	4316	-5840	16	-69	-65	-3072	2716	16500	27	-136	138	127	127	5
-7824	-2516	13564	-108	152	-191	-16116	-948	-4060	66	-29	125	-3532	-1972	16568	137	-11	28	-8460	3272	14096	145	-62	-166	-14716	4424	-5744	22	-40	-49	-3036	2668	16600	28	-143	190	127	127	5
-7796	-2612	13604	-86	154	-214	-16088	-956	-4056	46	-26	120	-3576	-1948	16604	135	-13	44	-8424	3268	14088	122	-38	-142	-14664	4368	-5712	12	-44	-59	-3056	2736	16600	5	-114	200	127	127	5
-7944	-2596	13624	-126	153	-189	-16040	-1024	-4016	40	-30	93	-3556	-2044	16512	153	3	38	-8480	3288	14056	157	-19	-186	-14716	4356	-5616	-6	-66	-46	-3012	2780	16572	31	-128	194	127	127	5
-7888	-2540	13644	-91	153	-217	-16124	-996	-4016	97	-15	107	-3620	-2020	16584	158	8	57	-8464	3300	14032	110	-11	-172	-14740	4408	-5764	-26	-48	-43	-3004	2696	16428	7	-122	205	127	127	5
-7884	-2604	13580	-81	152	-203	-16092	-960	-4020	73	-35	88	-3548	-2028	16652	185	-10	42	-8480	3308	14068	113	-21	-173	-14652	4320	-5864	2	-25	-80	-2984	2668	16624	-5	-139	214	127	127	5
-7852	-2600	13652	-104	145	-181	-16136	-980	-3972	75	-8	114	-3648	-1952	16560	195	1	46	-8452	3304	14056	102	-77	-187	-14672	4348	-5776	-15	-35	-89	-3076	2632	16556	0	-107	198	127	127	5
-7900	-2584	13576	-43	159	-173	-16044	-972	-3964	88	9	137	-3552	-1996	16668	181	11	32	-8488	3296	14136	87	-89	-186	-14668	4352	-5732	-28	-15	-84	-3068	2692	16508	17	-111	188	127	127	5
-7892	-2520	13640	-84	146	-190	-16072	-916	-4040	75	-13	123	-3588	-1944	16560	215	-22	17	-8512	3240	14076	120	-49	-147	-14680	4308	-5768	-41	3	-112	-3032	2624	16444	35	-118	196	127	127	5
-7884	-2548	13648	-64	134	-184	-16164	-888	-4072	124	2	175	-3604	-1884	16520	200	-44	40	-8464	3272	14044	112	-38	-158	-14700	4312	-5752	-11	-14	-47	-3052	2644	16512	35	-101	209	127	127	5
-7904	-2552	13520	-83	158	-194	-16116	-896	-4044	106	-5	138	-3628	-1872	16692	196	11	49	-8496	3292	14000	110	-40	-192	-14700	4320	-5800	-21	-46	-62	-3068	2580	16532	43	-146	201	127	127	5
-7820	-2536	13620	-70	136	-189	-16124	-960	-4060	85	-27	130	-3620	-1912	16488	168	-4	56	-8432	3328	14080	140	-48	-157	-14624	4328	-5784	6	-34	-36	-3084	2588	16620	33	-128	195	127	127	5
-7856	-2492	13700	-94	141	-218	-16148	-952	-3980	61	-54	127	-3560	-1896	16532	152	-32	67	-8436	3308	14084	144	-23	-175	-14692	4280	-5716	17	-45	-23	-3076	2584	16520	59	-114	163	127	127	5
-7852	-2656	13704	-104	144	-221	-16044	-968	-4156	89	-10	129	-3584	-1872	16612	188	0	87	-8484	3248	14160	158	-42	-132	-14668	4356	-5792	19	-36	-53	-3036	2656	16604	9	-159	178	127	127	5
-7844	-2616	13620	-83	153	-211	-16140	-928	-4060	106	-37	115	-3568	-1948	16588	174	-17	72	-8488	3244	14128	127	-65	-163	-14664	4332	-5884	19	-2	-60	-3040	2672	16620	39	-114	174	127	127	5
-7836	-2596	13604	-80	172	-236	-16128	-1040	-4088	121	-2	101	-3556	-1936	16540	188	-17	57	-8432	3336	14056	147	-34	-131	-14656	4372	-5872	-8	-60	-15	-3120	2736	16452	23	-143	210	127	127	5
-7948	-2604	13608	-104	170	-208	-16128	-1004	-4000	92	-45	113	-3608	-1984	16604	183	-1	57	-8492	3276	14136	119	-40	-182	-14692	4372	-5884	0	-45	-34	-3060	2740	16368	30	-143	203	127	127	5
-7860	-2572	13664	-81	110	-229	-16064	-972	-3960	87	-63	117	-3592	-1928	16616	198	-23	31	-8516	3276	14140	144	-75	-173	-14696	4388	-5652	6	-35	-63	-3048	2720	16676	22	-126	208	127	127	5
-7820	-2568	13652	-75	148	-197	-16096	-956	-4024	95	-18	128	-3596	-2000	16592	213	-29	30	-8536	3280	14144	102	-59	-150	-14752	4328	-5740	24	-78	-73	-3052	2696	16552	14	-120	205	127	127	5
-7892	-2632	13696	-90	159	-190	-16088	-968	-4000	64	-44	127	-3600	-1960	16572	182	-11	31	-8432	3252	14000	103	-68	-157	-14680	4272	-5800	-43	0	-58	-2992	2652	16512	17	-129	191	127	127	5
-7920	-2556	13592	-113	142	-164	-16136	-968	-4068	100	-7	122	-3572	-1876	16588	152	-20	53	-8520	3312	14044	158	-21	-186	-14696	4320	-5716	-15	-22	-90	-2980	2692	16616	31	-122	209	127	127	5
-7884	-2604	13700	-112	131	-207	-16092	-912	-4052	80	-35	140	-3560	-1944	16520	172	-50	68	-8460	3264	14148	101	-45	-172	-14712	4316	-5648	-50	-44	-33	-3012	2672	16556	73	-99	205	127	127	5
-7880	-2612	13624	-139	99	-166	-16132	-932	-4028	71	-32	116	-3516	-1908	16500	168	-26	30	-8536	3364	14160	109	-35	-159	-14716	4392	-5912	7	-30	-29	-3076	2620	16408	33	-155	215	127	127	5
-7876	-2580	13636	-142	139	-191	-16040	-944	-4136	58	-10	94	-3592	-1976	16504	176	-15	62	-8444	3212	14052	129	7	-178	-14732	4360	-5788	-6	-34	-63	-3076	2644	16452	47	-134	200	127	127	5
-7792	-2596	13648	-101	122	-237	-16084	-988	-4036	51	-2	132	-3588	-1924	16588	275	-8	86	-8464	3264	13952	116	-33	-176	-14708	4308	-5736	-19	-33	-26	-3032	2616	16572	-1	-138	206	127	127	5
-7876	-2680	13624	-110	121	-211	-16096	-1012	-3920	62	30	109	-3552	-1968	16608	208	-53	88	-8468	3256	14076	126	-23	-168	-14712	4304	-5860	3	-44	-42	-3112	2704	16564	67	-134	195	127	127	5
-7904	-2596	13660	-82	151	-199	-16120	-1048	-4080	102	-84	139	-3624	-2072	16572	239	-39	100	-8492	3256	14028	142	-60	-145	-14720	4336	-5776	49	-58	-42	-3000	2712	16528	10	-111	156	127	126	5
-7856	-2540	13688	-51	126	-209	-16076	-980	-4056	98	-31	162	-3616	-1996	16560	204	-35	74	-8456	3328	14024	136	-30	-149	-14608	4348	-5644	-2	-12	-36	-2992	2764	16572	36	-109	187	127	126	5
-7868	-2628	13656	-88	172	-216	-16068	-984	-4048	59	-26	164	-3528	-1948	16592	218	-43	51	-8504	3268	14088	116	-45	-173	-14620	4416	-5640	-41	-23	-35	-2984	2676	16448	25	-104	252	127	127	5
-7820	-2624	13660	-106	169	-188	-16048	-1004	-3956	60	-32	147	-3460	-1964	16608	210	-22	63	-8480	3268	14112	88	-113	-137	-14744	4352	-5744	-101	-19	-85	-3024	2680	16496	73	-65	273	127	127	5
-7852	-2640	13664	-52	171	-225	-16168	-952	-4056	56	-93	153	-3484	-1896	16720	272	85	64	-8448	3252	14048	75	-25	-189	-14696	4344	-5692	-40	-11	-38	-3032	2740	16596	76	-92	277	127	127	5
-7876	-2580	13592	-33	167	-177	-16100	-888	-3964	99	-37	147	-3464	-1768	16548	203	104	31	-8424	3284	14160	108	-76	-150	-14684	4328	-5828	29	1	-82	-3080	2816	16556	-48	-97	228	127	127	5
-7828	-2576	13568	-48	148	-198	-16088	-856	-3968	136	23	104	-3420	-1740	16720	191	76	20	-8500	3236	14084	76	-9	-196	-14680	4376	-5716	44	-9	-79	-3056	2860	16520	-41	-113	170	127	127	5
-7824	-2588	13688	-89	175	-184	-16104	-828	-3920	106	27	70	-3508	-1692	16728	143	-6	4	-8500	3272	14032	88	-44	-208	-14624	4460	-5788	19	16	-92	-3044	2868	16536	-116	-135	155	127	127	5
-7836	-2552	13668	-88	148	-219	-16104	-820	-4080	75	11	54	-3504	-1592	16680	57	-2	20	-8556	3244	13992	77	-62	-199	-14624	4336	-5680	18	-15	-89	-3076	2740	16444	-105	-102	123	127	127	5
-7892	-2548	13624	-140	159	-216	-16088	-852	-3964	61	-15	38	-3564	-1724	16644	101	50	30	-8472	3344	14088	55	-67	-154	-14664	4388	-5744	3	-30	-142	-3100	2768	16516	-102	-125	156	127	127	5
-7848	-2504	13656	-163	186	-229	-16112	-808	-4112	51	-15	-20	-3572	-1836	16588	99	21	92	-8504	3400	14116	47	-27	-225	-14732	4292	-5836	-30	4	-157	-3068	2624	16540	-60	-115	177	127	127	5
-7896	-2540	13600	-207	230	-222	-16124	-912	-4080	44	-6	12	-3688	-1868	16516	16	-60	82	-8420	3196	14060	58	-31	-204	-14656	4380	-5868	-3	-20	-142	-3116	2568	16576	-78	-71	209	127	127	5
-7856	-2540	13676	-188	172	-249	-16120	-960	-4060	36	-52	-5	-3728	-2100	16492	53	-51	78	-8464	3248	14008	23	-48	-167	-14624	4216	-5800	-9	5	-134	-3060	2532	16512	14	-98	214	127	127	5
-7872	-2592	13612	-197	167	-261	-16088	-1088	-4036	51	-63	55	-3740	-2160	16548	111	-29	76	-8504	3300	14076	67	-66	-187	-14696	4272	-5908	-4	-22	-121	-3164	2460	16544	-41	-76	232	127	127	5
-7928	-2668	13632	-160	164	-232	-16132	-1148	-4096	79	-64	71	-3720	-2284	16576	198	-28	99	-8532	3272	14044	75	-46	-158	-14748	4212	-5924	-33	-49	-119	-3084	2372	16616	85	-131	253	127	127	5
-7880	-2632	13656	-112	169	-187	-16096	-1176	-3980	118	-75	117	-3740	-2264	16608	212	-7	33	-8424	3280	14100	86	-53	-153	-14764	4160	-5828	5	-58	-69	-3044	2456	16532	31	-117	205	127	127	5
-7876	-2600	13704	-109	142	-220	-16124	-1128	-4096	129	-48	152	-3588	-2176	16552	209	-42	50	-8464	3292	14120	142	-70	-159	-14704	4208	-5712	20	-48	-41	-3060	2344	16440	55	-136	226	127	127	5
-7884	-2588	13632	-35	128	-181	-16084	-1032	-4056	53	-53	202	-3628	-2168	16520	222	-70	40	-8436	3280	14080	173	-13	-154	-14672	4244	-5780	-29	-58	-3	-3004	2456	16464	44	-159	199	127	127	5
-7804	-2632	13588	-15	136	-184	-16064	-1016	-3964	78	-6	242	-3540	-2120	16576	277	-65	57	-8484	3280	14020	159	-36	-147	-14760	4208	-5736	-17	-71	11	-3016	2496	16540	142	-118	214	127	127	5
-7840	-2604	13596	-47	111	-190	-16120	-1016	-4008	73	-8	207	-3484	-2040	16532	305	-36	107	-8480	3280	14084	193	-31	-172	-14688	4244	-5720	31	-49	63	-3040	2492	16696	149	-149	222	127	127	5
-7880	-2576	13592	-22	113	-132	-16136	-1048	-3976	98	-17	223	-3576	-2036	16544	310	-64	56	-8484	3200	14152	215	1	-132	-14760	4240	-5804	26	-72	52	-2996	2652	16512	182	-139	185	127	127	5
-7820	-2580	13556	-10	119	-170	-16120	-992	-3936	152	18	245	-3556	-1944	16652	345	18	82	-8444	3256	13976	222	-21	-142	-14692	4236	-5724	61	-59	75	-3008	2672	16476	151	-117	181	127	127	5
-7864	-2580	13724	3	104	-131	-16104	-936	-3876	129	75	221	-3440	-1964	16676	373	50	55	-8472	3320	14004	250	-13	-110	-14656	4400	-5748	30	-52	131	-3032	2836	16524	102	-150	160	127	127	5
-7888	-2584	13616	10	116	-148	-16100	-856	-3948	99	14	234	-3464	-1792	16648	321	1	30	-8476	3308	14096	236	-1	-124	-14740	4480	-5776	2	-35	78	-2996	2876	16572	70	-129	147	127	127	5
-7800	-2548	13660	40	121	-171	-16112	-836	-3972	69	20	191	-3560	-1808	16516	257	-35	3	-8448	3340	14084	216	6	-127	-14604	4516	-5764	43	15	85	-2980	2864	16540	19	-102	150	127	127	5
-7828	-2636	13672	-11	126	-164	-16144	-808	-4060	101	23	160	-3532	-1756	16664	222	-39	-7	-8512	3360	14100	203	-9	-146	-14676	4524	-5760	59	-34	21	-3100	2940	16556	26	-125	140	127	127	5
-7836	-2512	13656	-69	156	-142	-16116	-812	-4152	129	46	170	-3612	-1680	16656	232	-16	21	-8428	3328	14108	128	-20	-154	-14676	4564	-5720	54	20	-21	-3016	3028	16588	26	-116	148	127	127	5
-7892	-2456	13588	-10	169	-177	-16104	-776	-4180	143	46	123	-3672	-1596	16676	183	13	23	-8524	3340	13964	84	21	-152	-14664	4544	-5784	-4	-18	-76	-3052	2904	16540	-22	-118	191	127	127	5
-7908	-2512	13624	-98	180	-185	-16112	-764	-4140	80	-24	110	-3640	-1520	16516	95	27	11	-8448	3272	14024	91	-91	-175	-14672	4580	-5752	21	-20	-132	-3176	2976	16600	-91	-100	180	127	127	5
-7844	-2500	13608	-159	160	-208	-16056	-844	-4252	44	-47	40	-3660	-1516	16656	38	-35	39	-8460	3344	14020	28	-55	-180	-14628	4484	-5832	-4	-27	-162	-3116	2856	16500	-101	-120	243	127	127	5
-7928	-2496	13664	-177	173	-253	-16100	-804	-4168	72	-39	57	-3668	-1584	16580	71	30	55	-8484	3336	14108	29	-104	-209	-14664	4396	-5748	-73	-4	-231	-3080	2760	16592	-80	-109	235	127	127	5
-7836	-2556	13668	-181	160	-273	-16056	-900	-4008	16	-117	10	-3620	-1680	16580	-7	7	29	-8536	3252	14108	-3	-50	-197	-14612	4380	-5844	-70	-76	-225	-3104	2724	16564	-100	-108	254	127	127	5
-7824	-2580	13604	-283	134	-292	-16068	-956	-4060	27	-101	-21	-3624	-1836	16568	32	51	22	-8508	3256	14124	8	-85	-165	-14640	4280	-5816	-33	-75	-223	-3072	2588	16588	-67	-133	230	127	127	5
-7840	-2588	13624	-273	154	-316	-16072	-956	-4028	73	-119	4	-3596	-1948	16660	25	78	36	-8404	3240	14100	42	-90	-157	-14688	4240	-5728	-7	-53	-216	-3100	2520	16528	-113	-131	200	127	127	5
-7932	-2608	13580	-236	172	-263	-16124	-1016	-3988	67	-136	-10	-3500	-2000	16524	-55	1	41	-8432	3284	14124	78	-93	-146	-14732	4208	-5820	12	-69	-191	-2980	2480	16564	-107	-145	170	127	127	5
-7880	-2624	13668	-279	181	-255	-16040	-992	-4012	41	-132	-4	-3612	-1932	16576	-75	-2	60	-8428	3240	14024	61	-82	-176	-14748	4212	-5664	13	-87	-179	-2988	2456	16656	-95	-144	205	127	127	5
-7820	-2556	13680	-269	194	-265	-16112	-1072	-4012	-9	-100	40	-3520	-2268	16536	-4	-43	105	-8416	3284	14124	98	-81	-167	-14724	4180	-5620	-63	-36	-147	-2984	2360	16604	6	-123	247	127	127	5
-7824	-2604	13608	-185	181	-231	-16064	-1096	-3976	14	-80	-5	-3628	-2312	16524	55	-55	123	-8432	3324	14096	76	-51	-181	-14700	4176	-5740	-76	-57	-103	-2964	2308	16572	24	-94	265	127	127	5
-7852	-2612	13608	-176	189	-240	-16092	-1224	-3900	30	-49	92	-3656	-2420	16532	196	6	129	-8424	3348	14116	108	-3	-162	-14728	4104	-5668	-30	-23	-56	-2928	2300	16592	80	-109	265	127	127	5
-7860	-2728	13632	-122	166	-229	-16072	-1180	-3944	132	-40	143	-3540	-2432	16428	288	-20	114	-8484	3236	14056	124	-63	-146	-14744	4188	-5700	8	-2	-6	-3020	2336	16532	186	-104	288	127	127	5
-7908	-2688	13748	-61	119	-204	-16056	-1176	-3968	128	-52	200	-3528	-2396	16436	331	-22	114	-8412	3260	14068	173	-64	-161	-14772	4208	-5796	17	-24	40	-3048	2384	16560	166	-126	246	127	127	5
-7844	-2740	13612	-3	128	-163	-16096	-1112	-3952	120	42	259	-3492	-2312	16572	390	27	77	-8464	3224	14036	166	-32	-132	-14656	4200	-5836	8	-34	117	-3000	2492	16564	150	-136	214	127	127	5
-7836	-2624	13568	98	144	-143	-16100	-1124	-3948	110	40	257	-3568	-2264	16468	394	15	22	-8460	3280	14132	224	-7	-150	-14676	4156	-5836	46	-44	88	-3032	2484	16532	178	-134	183	127	127	5
-7916	-2688	13536	104	119	-114	-16080	-1084	-3948	141	66	308	-3576	-2136	16576	362	9	11	-8460	3236	14092	231	-76	-107	-14712	4216	-5948	61	-42	91	-3080	2524	16552	185	-117	163	127	126	5
-7848	-2596	13696	127	105	-98	-16096	-1000	-4056	183	62	350	-3600	-1996	16596	348	-1	-20	-8460	3268	14060	253	-28	-92	-14664	4288	-5844	48	-49	124	-3096	2644	16552	213	-176	119	127	127	5
-7904	-2552	13616	124	105	-88	-16168	-928	-3988	220	100	365	-3624	-1800	16684	414	-6	-61	-8472	3300	14024	266	-9	-115	-14688	4340	-5796	58	-70	128	-3116	2708	16532	200	-171	132	127	127	5
-7836	-2616	13588	132	126	-117	-16144	-864	-4108	147	71	316	-3580	-1756	16704	379	-2	-42	-8532	3312	14124	301	-28	-106	-14644	4380	-5856	74	-86	133	-3072	2800	16624	202	-149	76	127	127	5
-7872	-2532	13600	123	91	-100	-16120	-796	-4044	158	74	281	-3604	-1660	16464	346	-25	-29	-8444	3288	13984	294	-8	-102	-14704	4472	-5712	108	-83	119	-3080	2820	16620	199	-173	88	127	127	5
-7808	-2492	13660	50	124	-165	-16188	-760	-4236	149	13	247	-3592	-1504	16588	264	-22	9	-8488	3400	14068	231	-45	-114	-14672	4488	-5740	50	-96	111	-3064	2964	16468	130	-155	104	127	127	5
-7888	-2520	13624	26	183	-174	-16124	-696	-4172	123	45	196	-3584	-1564	16764	298	40	-4	-8512	3420	14084	207	-13	-133	-14648	4500	-5596	26	-95	32	-3036	3016	16528	105	-162	129	127	127	5
-7812	-2444	13668	-43	145	-193	-16084	-700	-4156	96	-10	167	-3552	-1496	16752	179	-5	23	-8488	3384	14180	178	-68	-134	-14652	4544	-5852	-2	-73	11	-3060	2980	16516	83	-159	141	127	127	5
-7884	-2436	13664	-94	159	-200	-16084	-780	-4072	80	-58	92	-3580	-1476	16708	125	-8	54	-8508	3324	14032	174	-43	-167	-14688	4572	-5696	29	-76	-89	-3068	3016	16568	32	-129	150	127	127	5
-7852	-2460	13748	-165	153	-238	-16096	-828	-4128	86	-94	32	-3568	-1584	16644	91	-19	75	-8532	3344	14044	136	-78	-158	-14548	4572	-5640	-6	-83	-97	-3028	3076	16480	8	-114	181	127	127	5
-7888	-2492	13648	-248	159	-244	-16104	-848	-4232	51	-110	-1	-3584	-1704	16664	23	-59	69	-8492	3392	14052	60	-60	-162	-14640	4580	-5708	-6	-83	-128	-2984	3052	16528	-81	-145	245	127	127	5
-7832	-2436	13652	-220	185	-268	-16104	-888	-4020	34	-127	-17	-3572	-1752	16640	-1	-40	62	-8492	3348	14076	14	-43	-196	-14652	4540	-5636	-51	-37	-196	-2976	2896	16584	-111	-83	225	127	127	5
-7888	-2596	13636	-243	211	-284	-16116	-812	-3996	-8	-104	-18	-3588	-1820	16660	-3	0	77	-8444	3324	14012	8	-47	-184	-14704	4520	-5708	-88	22	-201	-2952	2860	16592	-101	-101	261	127	127	5
-7852	-2544	13608	-248	184	-282	-16068	-928	-3920	-10	-97	-61	-3496	-1904	16620	2	19	129	-8480	3288	14104	-61	-107	-217	-14712	4412	-5796	-99	36	-249	-2888	2784	16476	-155	-61	306	127	127	5
-7848	-2532	13580	-288	182	-263	-16184	-928	-4040	-5	-78	-48	-3420	-1972	16464	-32	46	124	-8528	3288	13992	-98	-102	-256	-14752	4376	-5796	-79	29	-258	-2912	2652	16612	-137	-94	315	127	127	5
-7872	-2580	13648	-299	180	-233	-16076	-968	-3864	5	-115	-28	-3496	-2108	16656	71	91	124	-8496	3320	14120	-61	-85	-204	-14728	4228	-5748	-49	89	-243	-2972	2596	16612	-82	-31	323	127	127	5
-7880	-2668	13628	-238	156	-261	-16148	-1096	-4008	6	-58	-29	-3520	-2232	16652	100	-3	145	-8492	3260	14056	-55	-99	-226	-14708	4204	-5688	-58	77	-206	-2980	2436	16488	-62	-18	345	127	127	5
-7856	-2640	13612	-264	182	-233	-16072	-1140	-3904	14	-28	15	-3484	-2292	16504	124	31	99	-8428	3228	14124	-26	-70	-219	-14688	4212	-5780	-34	94	-202	-3024	2400	16520	-74	-78	285	127	127	5
-7884	-2648	13696	-172	182	-230	-16144	-1172	-3872	47	0	56	-3576	-2300	16524	68	-19	79	-8448	3208	14124	5	-70	-211	-14700	4144	-5824	-34	65	-147	-3080	2384	16604	-44	-59	292	127	127	5
-7836	-2668	13700	-133	137	-195	-16108	-1172	-3908	61	21	57	-3640	-2320	16596	148	5	83	-8456	3148	14144	47	-74	-233	-14744	4164	-5824	-17	34	-58	-3212	2340	16612	-42	-64	261	127	127	5
-7876	-2644	13560	-51	158	-207	-16140	-1180	-4072	60	21	92	-3652	-2288	16500	188	0	26	-8420	3208	14052	97	-26	-177	-14628	4176	-5892	28	-18	-60	-3240	2376	16580	4	-124	238	127	127	5
-7872	-2644	13692	-59	122	-174	-16096	-1148	-3992	97	26	202	-3684	-2236	16540	236	-5	-2	-8468	3176	14040	148	-27	-152	-14760	4192	-5936	22	-6	-36	-3224	2300	16652	65	-175	195	127	127	5
-7916	-2680	13544	-6	125	-136	-16136	-1156	-4124	136	13	196	-3720	-2156	16556	286	12	-33	-8492	3204	14040	231	0	-131	-14712	4188	-5928	31	-49	44	-3168	2380	16544	129	-137	156	127	127	5
-7888	-2640	13692	29	115	-141	-16108	-1144	-4068	143	-1	256	-3676	-2032	16508	266	31	-40	-8432	3176	14080	204	-40	-107	-14732	4076	-5780	35	-111	58	-3088	2336	16500	104	-182	113	127	127	5
-7860	-2572	13708	73	105	-168	-16048	-1084	-4084	186	-26	266	-3708	-1936	16584	303	17	-34	-8480	3216	14128	300	-39	-75	-14688	4208	-5868	60	-154	88	-3152	2468	16548	151	-154	134	127	127	5
-7828	-2588	13704	57	104	-139	-16092	-944	-4072	120	-15	299	-3620	-1864	16524	294	-5	-39	-8500	3300	14116	299	16	-84	-14664	4272	-5872	83	-154	111	-3100	2596	16584	179	-180	91	127	127	5
-7876	-2572	13632	61	108	-169	-16036	-852	-4092	113	-29	265	-3616	-1880	16680	261	-34	-22	-8440	3276	14072	319	15	-64	-14684	4380	-5688	91	-164	118	-3012	2668	16576	160	-177	99	127	127	5
-7856	-2568	13712	40	105	-163	-16052	-896	-4000	146	23	243	-3552	-1748	16592	265	-18	19	-8472	3252	14052	297	-25	-71	-14696	4360	-5772	90	-124	113	-3000	2780	16444	188	-169	91	127	127	5
-7792	-2544	13676	-41	105	-171	-16152	-824	-4088	134	-24	234	-3544	-1688	16608	239	-29	0	-8456	3288	13976	271	-20	-81	-14644	4484	-5636	57	-146	75	-2896	2868	16576	150	-172	90	127	127	5
-7896	-2520	13600	-55	112	-166	-16164	-848	-4072	133	3	168	-3556	-1784	16620	231	-10	17	-8440	3348	14036	207	-24	-103	-14748	4484	-5640	21	-91	44	-2916	2984	16456	140	-157	128	127	127	5
-7872	-2532	13564	-65	125	-209	-16092	-840	-4032	120	-51	166	-3476	-1776	16704	213	-39	72	-8480	3388	14036	199	-24	-143	-14708	4516	-5528	2	-46	-4	-2944	2972	16520	97	-164	194	127	127	5
-7864	-2508	13588	-46	160	-212	-16132	-824	-4004	92	-19	136	-3476	-1736	16676	205	47	63	-8492	3324	14060	131	-32	-141	-14660	4568	-5640	31	-41	-65	-2960	3012	16520	71	-146	200	127	127	5
-7856	-2552	13720	-96	139	-205	-16092	-888	-4032	57	-8	100	-3468	-1768	16640	163	65	84	-8444	3396	14028	93	-76	-154	-14712	4516	-5716	-4	-33	-84	-2964	3092	16476	11	-107	244	127	127	5
-7892	-2528	13660	-119	169	-195	-16124	-916	-3944	49	-42	117	-3568	-1848	16596	217	21	87	-8476	3324	14064	63	-78	-159	-14660	4596	-5636	0	24	-98	-3016	2980	16472	-5	-97	278	127	127	5
-7888	-2556	13700	-129	174	-229	-16104	-940	-3976	65	17	31	-3584	-1820	16700	139	5	94	-8404	3272	14160	-10	-79	-207	-14692	4456	-5708	-61	27	-146	-3048	2868	16548	-34	-43	271	127	127	5
-7836	-2576	13692	-156	154	-190	-16128	-932	-4184	86	-35	47	-3620	-1832	16620	99	16	78	-8448	3344	13972	-23	-75	-211	-14780	4472	-5788	-55	75	-191	-3056	2820	16444	-90	-96	283	127	127	5
-7928	-2544	13560	-139	179	-197	-16148	-888	-4084	41	-31	23	-3672	-1840	16504	96	14	96	-8456	3380	14028	-8	-103	-227	-14684	4348	-5676	-81	2	-185	-3068	2668	16596	-82	-78	311	127	127	5
-7880	-2644	13656	-151	189	-239	-16132	-900	-4112	34	-25	40	-3576	-1884	16708	116	-37	100	-8440	3244	14140	-13	-93	-236	-14728	4352	-5840	-92	39	-227	-3056	2624	16508	-83	-88	302	127	127	5
-7840	-2544	13620	-145	156	-214	-16092	-960	-4108	12	-33	51	-3580	-1972	16620	114	-32	89	-8540	3228	14084	1	-60	-203	-14704	4220	-5792	-74	63	-198	-3040	2540	16484	-41	-74	298	127	127	5
-7920	-2552	13512	-177	154	-224	-16112	-952	-3988	41	-32	61	-3584	-1988	16592	113	-1	67	-8452	3168	14032	-4	-91	-210	-14764	4180	-5928	-30	-12	-150	-3108	2408	16592	-47	-99	269	127	127	5
-7868	-2624	13544	-163	181	-211	-16128	-1048	-4092	40	-46	59	-3564	-2008	16576	141	12	100	-8440	3256	14156	85	-46	-182	-14668	4148	-5768	-38	0	-118	-3160	2440	16500	12	-137	210	127	127	5
-7872	-2640	13576	-133	168	-237	-16156	-1068	-3964	94	-36	88	-3560	-2096	16520	143	-28	81	-8496	3224	14064	79	-58	-167	-14688	4216	-5752	5	-56	-67	-3108	2420	16564	-8	-111	199	127	127	5
-7852	-2556	13664	-153	139	-187	-16120	-1008	-3936	70	-46	85	-3636	-2072	16568	150	-33	75	-8424	3184	14020	154	-55	-145	-14676	4172	-5920	29	-19	-13	-3092	2468	16496	15	-126	147	127	127	5
-7900	-2572	13724	-87	163	-192	-16168	-1012	-4040	56	-15	141	-3576	-2076	16496	163	-14	43	-8504	3260	14080	173	-51	-136	-14648	4176	-5828	46	-67	-6	-3128	2576	16576	43	-146	142	127	127	5
-7836	-2660	13572	-80	130	-205	-16100	-1084	-3936	90	-19	153	-3588	-2096	16600	181	14	16	-8460	3320	14028	172	-2	-141	-14724	4300	-5808	76	-97	11	-3036	2568	16456	37	-136	131	127	127	5
-7836	-2664	13560	-55	129	-217	-16028	-1108	-4024	101	-17	139	-3704	-2128	16640	189	-41	16	-8440	3296	14048	190	-7	-113	-14748	4324	-5744	57	-43	-14	-3040	2616	16616	49	-173	110	127	127	5
-7840	-2636	13700	-55	130	-194	-16124	-1044	-4084	79	26	155	-3612	-2028	16504	192	4	19	-8480	3284	14008	224	-18	-132	-14724	4368	-5788	58	-63	63	-3040	2652	16504	87	-179	113	127	127	5
-7836	-2528	13696	-2	108	-126	-16144	-980	-3984	87	-5	197	-3664	-2064	16696	188	-10	25	-8452	3320	14168	195	-24	-129	-14648	4420	-5780	18	-85	-12	-3036	2724	16552	86	-136	171	127	127	5
-7852	-2560	13724	-18	132	-172	-16104	-988	-4052	140	-11	210	-3648	-1972	16612	219	-8	10	-8476	3228	14076	206	-39	-147	-14680	4424	-5712	26	-39	22	-3048	2752	16488	87	-139	143	127	127	5
-7936	-2548	13640	-13	115	-177	-16036	-984	-4056	106	-21	202	-3672	-1932	16584	241	7	23	-8460	3276	14084	165	-1	-139	-14692	4356	-5772	16	-64	-18	-3020	2760	16620	75	-109	197	127	127	5
-7884	-2596	13668	-47	144	-198	-16076	-964	-4108	95	-76	197	-3616	-1800	16564	231	-3	17	-8480	3288	14208	172	-48	-163	-14644	4424	-5820	9	-47	-12	-2924	2728	16500	109	-143	194	127	127	5
-7880	-2616	13648	-21	149	-187	-16104	-896	-3980	93	-21	188	-3552	-1844	16664	236	-2	29	-8516	3292	14012	152	-36	-140	-14644	4360	-5812	19	-43	-38	-2972	2676	16564	93	-152	212	127	127	5
-7840	-2528	13644	-42	148	-188	-16092	-824	-4004	111	-10	204	-3620	-1768	16568	231	11	29	-8452	3332	14120	147	-38	-181	-14616	4404	-5776	13	-64	-52	-2996	2728	16560	100	-142	221	127	127	5
-7904	-2560	13652	-43	140	-195	-16112	-844	-3996	79	-12	161	-3468	-1700	16600	203	-40	47	-8472	3300	14100	138	16	-147	-14648	4344	-5780	26	-79	-43	-2992	2860	16596	53	-136	194	127	127	5
-7848	-2552	13728	-99	133	-208	-16080	-924	-3996	95	-56	110	-3424	-1716	16588	173	-9	64	-8472	3268	14108	76	-3	-138	-14688	4352	-5684	18	1	-32	-3060	2796	16516	40	-127	213	127	127	5
-7848	-2532	13652	-115	136	-205	-16112	-924	-3980	86	-24	106	-3520	-1836	16660	178	-9	75	-8492	3320	14060	126	-55	-165	-14728	4352	-5804	-19	-23	-60	-2904	2776	16476	-10	-113	176	127	127	5
-7840	-2592	13624	-132	165	-219	-16108	-940	-3984	79	-37	68	-3564	-1852	16604	114	-26	87	-8468	3344	14008	98	-75	-165	-14744	4340	-5680	22	-23	-77	-2936	2784	16524	30	-127	186	127	127	5
-7816	-2556	13640	-112	166	-201	-16088	-904	-4056	74	-16	65	-3588	-1848	16672	122	-30	63	-8456	3260	13988	94	-10	-199	-14696	4404	-5704	-12	-41	-93	-3004	2804	16628	-5	-123	159	127	127	5
-7868	-2552	13604	-139	161	-242	-16116	-844	-3880	73	28	53	-3520	-1908	16492	105	-7	75	-8424	3296	14060	85	-42	-185	-14732	4404	-5760	-35	2	-122	-3012	2772	16564	-18	-76	222	127	127	5
-7840	-2624	13684	-159	130	-217	-16176	-952	-4072	63	-38	69	-3592	-1932	16672	123	-12	86	-8484	3364	14020	97	-35	-196	-14660	4376	-5764	-14	-15	-119	-3068	2752	16648	-3	-112	207	127	127	5
-7820	-2620	13732	-169	150	-212	-16100	-996	-4052	44	-38	90	-3588	-2040	16556	118	-24	61	-8512	3288	14092	71	-54	-193	-14684	4392	-5740	-8	1	-125	-3048	2708	16620	-32	-109	214	127	127	5
-7872	-2644	13664	-178	144	-203	-16088	-980	-4032	64	-27	83	-3608	-1944	16656	145	7	56	-8448	3308	14116	70	-94	-192	-14744	4340	-5792	-31	-14	-127	-3080	2656	16624	-2	-100	259	127	127	5
-7868	-2572	13652	-123	131	-235	-16132	-1052	-4044	57	1	65	-3688	-2004	16532	139	13	87	-8468	3244	14096	85	-62	-208	-14688	4312	-5728	-33	11	-121	-3080	2596	16604	-23	-140	258	127	127	5
-7860	-2592	13620	-157	119	-227	-16072	-1004	-4000	78	-16	90	-3600	-2024	16664	159	3	39	-8476	3280	14092	70	-35	-191	-14756	4264	-5800	-14	-54	-88	-3112	2604	16620	37	-89	199	127	127	5
-7844	-2636	13732	-93	142	-177	-16076	-972	-4020	83	-57	126	-3568	-2016	16656	165	-26	49	-8484	3288	14044	95	-50	-153	-14728	4296	-5808	1	-18	-53	-3132	2612	16628	29	-114	209	127	127	5
-7920	-2544	13724	-79	129	-193	-16116	-984	-4012	98	-46	150	-3576	-1920	16424	177	7	52	-8508	3248	14000	112	-7	-163	-14652	4272	-5844	33	-22	-67	-3112	2572	16520	16	-115	179	127	127	5
-7856	-2584	13620	-57	158	-198	-16036	-996	-4056	91	-22	161	-3624	-1956	16580	203	-10	30	-8400	3324	14096	132	-41	-119	-14684	4304	-5828	23	-37	-27	-3092	2628	16580	49	-152	198	127	127	5
-7856	-2588	13636	-44	157	-214	-16088	-992	-4116	85	-23	144	-3568	-1964	16736	181	-14	33	-8428	3276	14092	158	-3	-171	-14664	4280	-5836	24	-49	-17	-3028	2536	16552	49	-123	163	127	127	5
-7892	-2632	13612	-42	129	-176	-16104	-968	-3976	133	-36	158	-3560	-1920	16576	173	-17	30	-8416	3244	14160	169	-98	-133	-14732	4268	-5732	41	-84	14	-3080	2632	16568	65	-109	163	127	127	5
-7832	-2612	13676	-72	173	-178	-16092	-908	-4036	122	-23	168	-3592	-1940	16528	191	-9	18	-8460	3252	14164	146	-20	-167	-14668	4296	-5800	49	-43	-33	-3056	2668	16560	45	-162	176	127	127	5
-7940	-2596	13592	-80	142	-215	-16092	-912	-3984	122	-13	162	-3604	-1928	16588	200	-38	10	-8464	3312	14128	178	-26	-135	-14736	4324	-5700	29	-45	-27	-2992	2740	16488	70	-135	159	127	127	5
-7936	-2544	13644	-51	147	-221	-16112	-948	-4044	96	-32	164	-3604	-1936	16580	196	-29	21	-8456	3276	14220	142	-26	-136	-14648	4356	-5724	-13	-84	-47	-3056	2772	16520	30	-138	180	127	127	5
-7856	-2596	13544	-67	169	-194	-16128	-972	-4084	57	-51	159	-3552	-1904	16528	195	-28	35	-8496	3316	14140	169	-46	-179	-14704	4328	-5856	0	-19	-41	-3048	2784	16512	56	-120	179	127	127	5
-7860	-2632	13760	-81	152	-206	-16068	-852	-4104	87	-19	156	-3584	-1896	16612	220	2	44	-8456	3368	13992	119	-68	-181	-14704	4464	-5720	-47	-34	-33	-2968	2760	16616	46	-107	188	127	127	5
-7900	-2552	13640	-103	140	-189	-16140	-924	-4008	57	30	130	-3560	-1880	16644	191	-10	31	-8448	3284	14060	123	-17	-126	-14660	4324	-5760	-17	-52	-32	-3016	2776	16600	39	-119	230	127	127	5
-7832	-2572	13688	-76	154	-197	-16096	-956	-3944	86	-59	147	-3556	-1924	16616	188	-3	26	-8516	3292	14048	122	-57	-168	-14652	4340	-5844	27	-29	-80	-3052	2712	16456	11	-128	202	127	127	5
-7844	-2564	13556	-84	144	-219	-16076	-992	-4004	90	-50	142	-3624	-1872	16604	162	6	39	-8452	3344	14032	122	-58	-162	-14628	4404	-5700	7	-19	-37	-3052	2736	16540	52	-132	199	127	127	5
-7872	-2592	13704	-93	138	-202	-16112	-924	-4140	88	11	137	-3596	-1892	16576	160	-13	65	-8484	3300	14144	112	-43	-142	-14712	4324	-5804	11	-24	-41	-3092	2696	16560	-1	-129	255	127	127	5
-7872	-2584	13652	-72	146	-171	-16132	-908	-4008	75	-61	83	-3552	-1884	16652	169	-11	40	-8400	3284	14068	111	-74	-196	-14708	4252	-5716	21	-42	-57	-3004	2652	16636	49	-93	207	127	127	5
-7896	-2668	13688	-144	150	-209	-16120	-832	-4028	66	-25	119	-3668	-1940	16640	169	-1	44	-8496	3268	14020	110	-48	-171	-14684	4312	-5812	14	-39	-60	-3032	2640	16576	19	-131	232	127	127	5
-7892	-2580	13644	-78	150	-185	-16052	-888	-4036	94	8	126	-3612	-1952	16552	149	-12	38	-8468	3268	13968	115	-43	-144	-14712	4376	-5740	-20	-10	-56	-3104	2648	16556	46	-131	207	127	127	5
-7836	-2520	13676	-144	174	-226	-16116	-1004	-3952	53	-30	115	-3600	-1880	16692	159	-14	58	-8484	3308	14016	125	-71	-179	-14736	4316	-5760	-18	-22	-66	-3012	2600	16560	34	-98	209	127	127	5
-7904	-2560	13660	-108	137	-229	-16084	-928	-4000	76	-29	131	-3604	-2004	16668	197	-24	60	-8460	3308	14088	126	-61	-128	-14656	4360	-5768	1	-37	-30	-3048	2648	16520	43	-142	213	127	127	5
-7788	-2632	13576	-101	95	-224	-16084	-936	-4092	65	-16	124	-3588	-1944	16632	175	-3	35	-8488	3288	14140	124	-33	-165	-14712	4356	-5792	-6	-42	-61	-3036	2704	16620	28	-142	201	127	127	5
-7916	-2552	13656	-110	133	-201	-16140	-976	-4060	66	-20	115	-3592	-2008	16564	192	-7	56	-8428	3220	14196	122	-31	-157	-14820	4304	-5684	-31	-48	-17	-3032	2740	16540	37	-123	199	127	127	5
-7864	-2584	13676	-65	148	-213	-16140	-964	-3952	67	-47	160	-3568	-1964	16584	185	-22	38	-8488	3272	14128	164	-60	-160	-14616	4336	-5924	-18	-55	-57	-3020	2672	16604	23	-134	217	127	127	5
-7856	-2604	13628	-77	157	-199	-16112	-908	-4060	82	-3	126	-3608	-1976	16652	170	-35	31	-8520	3288	14060	107	-51	-149	-14668	4408	-5760	7	-22	-73	-3008	2740	16552	20	-140	206	127	127	5
-7904	-2568	13624	-78	157	-198	-16056	-912	-4024	83	-32	131	-3560	-1904	16584	190	-2	30	-8468	3300	14060	136	-52	-170	-14736	4368	-5816	20	-52	-67	-3028	2720	16556	27	-119	206	127	127	5
-7856	-2520	13472	-85	136	-188	-16068	-924	-4048	72	-30	126	-3684	-1956	16652	186	-17	43	-8420	3228	13972	133	-58	-146	-14752	4320	-5680	19	-55	-45	-3076	2728	16564	28	-102	185	127	127	5
-7860	-2576	13620	-75	152	-201	-16196	-924	-3992	100	0	128	-3600	-1976	16512	188	18	14	-8428	3332	14064	145	-63	-163	-14672	4344	-5680	8	-37	-54	-3024	2684	16532	11	-135	211	127	127	5
-7820	-2540	13652	-94	133	-183	-16092	-908	-4040	81	-12	129	-3592	-1912	16716	230	-15	54	-8432	3336	14044	118	20	-143	-14720	4352	-5760	-30	1	-56	-3028	2648	16616	14	-154	192	127	127	5
-7880	-2516	13524	-96	138	-215	-16064	-956	-4164	69	-49	119	-3620	-1852	16616	161	-38	65	-8476	3344	14120	143	-74	-157	-14624	4412	-5752	-14	-22	-58	-3004	2664	16536	51	-118	206	127	127	5
-7932	-2524	13620	-137	136	-194	-16144	-924	-4040	85	-25	151	-3544	-1868	16580	166	-33	47	-8496	3292	14136	141	-51	-176	-14624	4312	-5724	-13	-45	-32	-2992	2680	16480	35	-138	220	127	127	5
-7828	-2612	13680	-128	113	-215	-16104	-924	-4024	89	-44	140	-3596	-1908	16568	192	-12	36	-8484	3284	13988	142	-56	-170	-14680	4368	-5776	-6	-38	-69	-3048	2724	16600	48	-123	194	127	127	5
-7872	-2580	13684	-87	126	-191	-16088	-952	-4084	82	-44	145	-3616	-1916	16672	173	11	46	-8488	3348	14084	140	-73	-179	-14732	4368	-5720	-3	-18	-60	-2976	2660	16580	22	-114	211	127	127	5
-7892	-2596	13660	-130	111	-206	-16100	-956	-4000	82	-35	118	-3552	-1916	16516	187	-35	49	-8440	3284	14052	117	-60	-172	-14740	4336	-5872	20	-40	-21	-3032	2744	16608	17	-134	213	127	127	5
-7920	-2572	13648	-118	170	-204	-16108	-928	-4040	77	-64	130	-3568	-1936	16424	150	5	68	-8424	3348	14176	156	-33	-167	-14652	4324	-5760	4	-23	-37	-2992	2764	16604	21	-126	183	127	127	5
-7816	-2596	13644	-135	142	-191	-16064	-992	-4124	42	3	117	-3520	-1912	16548	169	-11	73	-8420	3340	14120	114	-70	-197	-14672	4288	-5692	-6	-17	-54	-3068	2724	16564	30	-134	208	127	127	5
-7860	-2616	13676	-114	170	-199	-16140	-984	-3896	70	-46	104	-3580	-1972	16572	163	-4	44	-8420	3280	14076	141	-27	-161	-14656	4408	-5608	41	-6	-80	-3088	2760	16504	14	-115	206	127	127	5
-7836	-2596	13572	-112	148	-183	-16060	-940	-4020	72	-36	124	-3608	-1992	16504	137	-2	32	-8496	3352	14144	116	-66	-165	-14676	4456	-5732	-25	-37	-77	-3028	2732	16428	29	-128	194	127	127	5
-7860	-2612	13652	-121	160	-228	-16112	-956	-4044	119	-85	125	-3544	-1960	16488	163	-6	28	-8484	3344	14060	112	-67	-181	-14696	4368	-5728	-1	-44	-70	-3032	2724	16536	25	-123	191	127	127	5
-7880	-2608	13760	-85	151	-195	-16112	-984	-4004	95	14	122	-3540	-1976	16572	193	29	50	-8468	3308	14200	78	-45	-189	-14700	4328	-5552	28	-34	-96	-3060	2640	16488	5	-144	219	127	127	5
-7832	-2604	13616	-42	140	-208	-16132	-952	-3908	115	-38	139	-3556	-1940	16544	189	-17	42	-8476	3264	14092	139	-49	-176	-14688	4304	-5844	37	-40	-87	-3008	2656	16528	10	-120	194	127	127	5
-7808	-2624	13612	-63	180	-162	-16100	-868	-4036	89	-28	134	-3564	-1900	16652	193	38	36	-8492	3296	14108	95	-35	-154	-14628	4368	-5764	-5	0	-77	-3056	2644	16564	2	-101	226	127	127	5
-7780	-2572	13592	-107	170	-185	-16104	-956	-4076	63	-27	104	-3588	-1936	16588	164	3	62	-8428	3236	14080	136	-47	-164	-14708	4276	-5700	-6	-29	-49	-3060	2624	16568	25	-100	192	127	127	5
-7904	-2600	13624	-129	144	-188	-16088	-928	-4068	65	-45	121	-3612	-1924	16552	187	-25	80	-8472	3284	14064	107	-80	-133	-14680	4276	-5972	-5	-26	-55	-3072	2628	16476	32	-101	227	127	127	5
-7824	-2560	13640	-111	146	-175	-16136	-968	-4000	80	-48	119	-3572	-1912	16592	194	2	50	-8464	3260	14068	124	-12	-196	-14700	4332	-5664	8	-55	-55	-3048	2576	16552	48	-103	181	127	127	5
-7816	-2596	13612	-80	144	-211	-16108	-972	-4076	105	-36	110	-3560	-1876	16448	193	13	68	-8428	3300	14024	117	-64	-161	-14708	4332	-5704	-25	-65	-80	-2992	2652	16568	40	-112	190	127	127	5
-7892	-2560	13548	-108	156	-180	-16084	-960	-4060	112	-40	120	-3576	-1912	16648	186	8	68	-8464	3296	14136	140	-10	-143	-14680	4344	-5692	13	-36	-47	-3048	2672	16612	62	-132	184	127	127	5
-7852	-2600	13580	-75	165	-145	-16064	-956	-4088	66	-37	108	-3596	-1928	16572	182	-10	33	-8460	3292	14068	156	-38	-137	-14720	4376	-5764	-5	-49	-35	-3084	2704	16588	56	-124	187	127	127	5
-7848	-2580	13612	-78	160	-205	-16156	-988	-3912	49	-5	115	-3648	-1968	16568	178	-21	29	-8536	3272	14044	125	-41	-144	-14676	4344	-5732	49	-18	-37	-3024	2720	16476	48	-129	167	127	127	5
-7848	-2576	13632	-78	133	-190	-16144	-964	-4092	85	-23	155	-3532	-2036	16588	150	-5	42	-8516	3280	14196	144	-55	-177	-14672	4348	-5744	-18	-45	-83	-2996	2752	16528	17	-109	190	127	127	5
-7904	-2564	13628	-76	143	-208	-16108	-964	-3884	90	-10	119	-3552	-1904	16512	181	-26	40	-8496	3244	14080	180	-113	-157	-14692	4372	-5752	-12	-70	-97	-2960	2716	16600	25	-118	177	127	127	5
-7864	-2564	13612	-45	121	-223	-16068	-952	-3952	126	8	171	-3564	-1984	16660	182	-40	36	-8484	3340	14060	86	-23	-195	-14676	4412	-5704	61	-19	-89	-2984	2732	16544	34	-138	184	127	127	5
-7828	-2588	13572	-67	170	-171	-16068	-972	-4016	78	-35	132	-3576	-1900	16596	211	12	32	-8484	3284	14088	128	-43	-153	-14752	4312	-5684	3	-8	-81	-3024	2704	16516	0	-125	219	127	127	5
-7848	-2620	13604	-72	155	-179	-16104	-912	-4004	76	-46	140	-3604	-1836	16572	183	-5	69	-8500	3316	14136	101	-36	-182	-14760	4336	-5616	16	-11	-37	-2940	2788	16528	9	-133	216	127	127	5
-7848	-2592	13680	-89	145	-196	-16124	-948	-3924	91	16	146	-3592	-1892	16556	169	-11	62	-8464	3308	14068	124	-52	-173	-14664	4408	-5784	3	12	-97	-3032	2708	16556	-6	-136	205	127	127	5
-7864	-2572	13600	-79	175	-209	-16040	-928	-4056	102	-10	101	-3580	-1920	16564	152	-3	86	-8412	3260	14040	117	-35	-170	-14716	4380	-5692	-8	-3	-78	-3016	2684	16520	-17	-139	222	127	127	5
-7860	-2628	13616	-115	159	-226	-16072	-996	-4084	67	-15	121	-3612	-1928	16576	139	-12	55	-8428	3264	14148	115	-47	-218	-14684	4320	-5872	-3	-20	-71	-3048	2648	16568	54	-101	191	127	127	5
-7856	-2512	13596	-125	130	-186	-16128	-952	-3988	82	-29	127	-3624	-1896	16552	156	-15	77	-8468	3288	14100	65	-39	-162	-14652	4296	-5812	-18	-53	-90	-3056	2732	16588	51	-102	197	127	127	5
-7848	-2552	13648	-85	151	-195	-16136	-896	-3980	98	-5	113	-3612	-1928	16552	163	-1	54	-8492	3304	14112	86	-66	-157	-14668	4296	-5872	-16	-46	-76	-3000	2736	16492	60	-133	207	127	127	5
-7932	-2616	13620	-156	165	-200	-16160	-956	-4028	37	-27	74	-3612	-1924	16648	192	-3	81	-8448	3304	14132	102	-59	-170	-14708	4372	-5840	-3	-38	-59	-3068	2664	16612	32	-108	193	127	127	5
-7808	-2492	13684	-78	123	-233	-16184	-1000	-4028	35	-13	124	-3604	-2012	16560	197	2	60	-8464	3324	14068	124	-38	-156	-14760	4252	-5712	6	-56	-64	-2984	2612	16568	18	-125	212	127	127	5
-7828	-2632	13628	-96	152	-208	-16096	-1008	-3944	60	-49	161	-3536	-1988	16632	185	-19	41	-8460	3272	14020	126	-60	-179	-14692	4304	-5804	-16	-31	-23	-2988	2632	16448	13	-134	154	127	127	5
-7888	-2576	13684	-79	132	-219	-16096	-948	-4100	84	4	152	-3576	-2000	16516	148	-28	44	-8456	3304	14032	114	0	-168	-14704	4316	-5720	24	-70	-61	-3012	2692	16580	44	-145	169	127	127	5
-7920	-2580	13600	-69	129	-184	-16128	-916	-4020	89	0	135	-3584	-1880	16604	155	7	36	-8432	3256	14100	147	-25	-156	-14680	4356	-5764	37	-57	-50	-3028	2768	16572	-3	-141	180	127	127	5
-7848	-2500	13684	-98	119	-221	-16152	-1020	-4028	67	15	177	-3516	-1900	16516	193	-35	29	-8436	3336	14096	155	-38	-159	-14648	4364	-5808	14	-61	-66	-3016	2712	16496	24	-136	207	127	127	5
-7932	-2620	13688	-82	142	-220	-16116	-900	-3972	88	-16	152	-3596	-1908	16648	182	-14	51	-8476	3336	14080	161	-44	-171	-14648	4344	-5720	35	-61	-35	-2964	2704	16512	25	-130	158	127	127	5
-7848	-2524	13516	-104	107	-204	-16128	-912	-4012	96	-6	151	-3624	-1952	16496	179	-21	46	-8496	3288	14128	153	-38	-140	-14652	4320	-5732	16	-20	-78	-3048	2660	16520	-4	-124	187	127	127	5
-7860	-2604	13660	-100	149	-208	-16116	-896	-4040	103	-28	131	-3624	-1920	16656	194	-24	33	-8480	3296	13976	136	-44	-171	-14704	4344	-5820	42	-31	-62	-3060	2712	16492	13	-112	194	127	127	5
-7784	-2592	13652	-113	136	-185	-16084	-940	-4064	95	-13	125	-3584	-1884	16608	191	-4	51	-8520	3368	14076	103	-17	-141	-14708	4332	-5716	15	-21	-48	-3048	2704	16448	65	-116	192	127	127	5
-7936	-2588	13604	-62	133	-192	-16076	-940	-3964	91	-49	129	-3588	-1940	16680	193	-22	55	-8424	3328	14084	118	-23	-154	-14668	4412	-5628	-12	-50	-37	-3068	2716	16588	63	-129	208	127	127	5
-7928	-2560	13632	-52	165	-195	-16076	-912	-4056	83	-65	134	-3584	-1900	16504	181	-13	58	-8504	3292	14056	129	-71	-165	-14716	4396	-5740	-30	-46	-69	-3100	2756	16564	25	-128	206	127	127	5
-7888	-2560	13664	-83	170	-223	-16128	-1008	-4128	61	-11	119	-3584	-1872	16528	187	12	53	-8528	3312	14024	108	-44	-136	-14676	4392	-5828	-5	-6	-71	-3036	2704	16540	51	-114	190	127	127	5
-7884	-2580	13648	-99	157	-202	-16112	-940	-4004	54	-50	102	-3564	-1900	16616	162	-9	54	-8424	3268	14012	103	-46	-133	-14660	4308	-5752	-26	-34	-61	-3016	2688	16432	12	-102	206	127	127	5
-7912	-2576	13684	-110	133	-240	-16104	-944	-3980	94	-20	85	-3540	-1948	16492	200	9	40	-8404	3232	14068	124	-74	-166	-14660	4292	-5812	20	-8	-61	-3008	2652	16536	0	-146	183	127	127	5
-7852	-2584	13580	-98	143	-199	-16128	-896	-4080	111	5	137	-3596	-1908	16640	148	-24	72	-8508	3316	14096	153	-60	-156	-14696	4328	-5708	-16	-33	-42	-3036	2684	16444	-8	-142	162	127	127	5
-7928	-2648	13584	-111	170	-217	-16076	-928	-4168	97	-30	125	-3512	-1964	16588	155	10	64	-8412	3312	14144	136	-56	-146	-14712	4400	-5756	-5	-10	-56	-2964	2760	16576	26	-150	171	127	127	5
-7860	-2600	13636	-91	168	-200	-16104	-1020	-4060	71	-12	110	-3632	-1920	16580	149	23	27	-8488	3280	14072	140	-76	-142	-14704	4336	-5768	-20	-9	-59	-3032	2664	16572	30	-136	180	127	127	5
-7900	-2572	13700	-77	160	-198	-16124	-968	-3880	68	0	102	-3616	-1952	16540	172	7	58	-8460	3272	14032	109	-72	-169	-14720	4380	-5728	-1	-31	-61	-3048	2664	16432	28	-126	182	127	127	5
-7900	-2552	13708	-73	159	-208	-16160	-900	-4032	82	-23	97	-3624	-2000	16560	156	29	49	-8488	3352	14140	101	0	-215	-14644	4384	-5860	1	-6	-106	-3052	2712	16500	54	-100	224	127	127	5
-7816	-2548	13684	-86	166	-226	-16120	-932	-3964	84	-31	140	-3620	-1992	16608	165	-9	54	-8432	3328	14068	112	-44	-211	-14648	4360	-5696	11	-26	-66	-3048	2748	16592	2	-148	181	127	127	5
-7896	-2552	13600	-127	155	-174	-16080	-948	-4004	82	-24	121	-3636	-1944	16632	199	2	33	-8436	3288	14024	73	-35	-178	-14748	4332	-5804	-11	-47	-55	-3044	2712	16596	4	-128	199	127	127	5
-7836	-2628	13596	-128	153	-208	-16084	-916	-3980	52	-17	121	-3576	-1960	16568	199	-50	73	-8464	3292	14136	99	-57	-171	-14676	4356	-5712	-27	-38	-64	-2996	2708	16644	13	-132	227	127	127	5
-7840	-2576	13540	-85	115	-200	-16128	-992	-4032	91	-10	93	-3560	-1920	16556	186	3	50	-8456	3288	14008	101	-55	-165	-14684	4360	-5740	-42	-41	-78	-3104	2664	16456	17	-132	213	127	127	5
-7876	-2572	13512	-116	145	-207	-16128	-1004	-4024	82	-8	111	-3588	-1972	16640	177	-8	52	-8404	3316	14060	117	-12	-175	-14740	4348	-5740	2	-28	-82	-3084	2696	16612	14	-117	175	127	127	5
-7908	-2608	13608	-76	125	-234	-16104	-912	-4060	63	14	129	-3612	-1916	16656	166	32	53	-8396	3276	14064	109	22	-158	-14688	4312	-5648	-12	-78	-78	-3080	2720	16588	42	-82	199	127	127	5
-7836	-2640	13580	-111	143	-200	-16128	-932	-3984	78	-4	137	-3628	-1956	16616	133	5	43	-8452	3152	14084	102	-66	-163	-14668	4336	-5756	18	-45	-90	-3012	2748	16596	20	-63	160	127	127	5
-7904	-2524	13760	-62	161	-196	-16128	-924	-3980	89	-25	135	-3532	-1940	16488	150	6	57	-8476	3300	13984	123	-78	-166	-14660	4328	-5792	40	-20	-18	-3024	2708	16608	10	-122	167	127	127	5
-7868	-2516	13624	-134	131	-159	-16160	-968	-4060	56	-17	117	-3664	-1968	16512	160	-4	40	-8440	3316	14156	123	-15	-207	-14712	4328	-5672	14	-34	-69	-3000	2704	16456	92	-63	197	127	127	5
-7816	-2592	13696	-74	151	-200	-16148	-904	-4120	90	-19	136	-3600	-1964	16576	151	-11	55	-8512	3292	14140	115	-53	-141	-14708	4412	-5800	-14	-34	-39	-2996	2700	16576	-21	-96	173	127	126	5
-7864	-2588	13676	-72	139	-232	-16160	-880	-4004	73	5	117	-3540	-1948	16576	179	24	32	-8472	3352	14052	99	-43	-194	-14748	4444	-5640	-1	-43	-42	-3064	2768	16564	60	-150	183	127	127	5
-7848	-2600	13728	-90	167	-183	-16124	-840	-4048	63	-26	101	-3576	-1920	16628	179	-11	47	-8492	3344	14132	108	-48	-176	-14692	4372	-5740	-11	-39	-59	-3040	2656	16540	55	-83	199	127	127	5
-7924	-2628	13608	-110	132	-198	-16132	-872	-3988	60	-22	112	-3620	-1968	16628	157	-22	51	-8468	3380	14008	100	-58	-165	-14644	4372	-5808	-40	-13	-48	-3020	2664	16488	61	-93	209	127	127	5
-7908	-2632	13720	-82	166	-209	-16132	-968	-4048	75	-42	106	-3552	-1932	16612	181	-26	59	-8472	3292	14080	88	-34	-203	-14716	4364	-5740	-4	-51	-95	-3080	2668	16620	47	-117	213	127	127	5
-7872	-2576	13596	-88	134	-205	-16104	-996	-3892	61	3	123	-3588	-1940	16568	202	-18	67	-8436	3324	14100	102	21	-173	-14648	4344	-5800	17	-34	-100	-3112	2740	16600	14	-116	190	127	127	5
-7840	-2600	13684	-66	132	-208	-16084	-984	-3964	65	-14	113	-3616	-1932	16604	185	-16	50	-8456	3292	14008	106	-40	-170	-14728	4308	-5832	11	-18	-37	-3068	2668	16488	19	-89	176	127	127	5
-7852	-2628	13724	-90	161	-205	-16124	-972	-4032	85	-22	103	-3616	-1936	16608	176	-22	45	-8460	3308	14136	120	-44	-182	-14716	4308	-5912	-7	-46	-33	-3052	2584	16552	19	-119	180	127	127	5
-7820	-2596	13616	-107	99	-192	-16056	-904	-4100	88	-11	123	-3572	-1904	16544	171	-26	27	-8464	3296	13988	123	-67	-142	-14660	4304	-5760	-11	-28	-57	-2996	2648	16500	-5	-120	189	127	127	5
-7888	-2584	13624	-106	101	-220	-16048	-928	-4108	67	29	104	-3588	-1904	16560	130	16	72	-8476	3280	14000	130	-53	-171	-14656	4400	-5720	5	-39	-36	-3036	2664	16580	11	-133	188	127	127	5
-7892	-2576	13440	-99	116	-194	-16140	-944	-3996	57	-31	111	-3604	-1956	16584	175	2	71	-8464	3312	14096	141	-44	-166	-14644	4368	-5772	13	-54	-35	-3000	2640	16592	-13	-99	199	127	127	5
-7804	-2560	13576	-129	122	-192	-16140	-912	-3976	70	-7	127	-3604	-1976	16600	168	-8	91	-8464	3280	14012	147	-92	-169	-14772	4308	-5772	0	-21	-59	-3084	2616	16464	31	-110	205	127	127	5
-7840	-2552	13624	-116	134	-222	-16088	-968	-4068	61	3	136	-3600	-1896	16584	174	-11	80	-8468	3356	14060	129	-107	-170	-14692	4328	-5796	0	-43	-25	-3048	2708	16560	35	-143	192	127	127	5
-7836	-2588	13676	-94	149	-188	-16116	-956	-3968	80	-37	128	-3592	-1968	16632	175	-20	71	-8524	3352	14140	136	-32	-144	-14688	4316	-5656	-19	-74	-31	-2992	2728	16564	105	-85	217	127	127	5
-7884	-2536	13528	-71	141	-188	-16120	-992	-4032	74	-10	93	-3516	-2036	16568	186	-17	72	-8468	3356	14076	137	-45	-148	-14712	4352	-5860	6	-55	-78	-2988	2688	16596	-19	-169	186	127	127	5
-7904	-2556	13632	-77	142	-203	-16108	-992	-4032	71	-25	109	-3560	-1904	16540	168	-17	35	-8468	3308	14012	144	-60	-138	-14660	4264	-5796	35	-53	-57	-3080	2744	16560	38	-160	167	127	127	5
-7864	-2644	13600	-70	167	-196	-16056	-988	-4064	77	-32	116	-3576	-1948	16584	173	18	8	-8420	3312	14128	126	-62	-176	-14688	4324	-5772	9	-23	-63	-3008	2724	16520	12	-132	189	127	127	5
-7876	-2564	13712	-82	157	-186	-16124	-928	-4012	109	-23	131	-3500	-1960	16688	148	1	30	-8460	3300	14144	102	-64	-125	-14668	4356	-5808	16	-61	-71	-2984	2724	16556	11	-108	198	127	127	5
-7860	-2684	13676	-61	121	-172	-16208	-908	-3948	77	-15	110	-3584	-1928	16536	146	-28	41	-8396	3264	14044	99	-18	-164	-14700	4332	-5700	22	-45	-71	-3020	2700	16524	28	-131	162	127	127	5
-7876	-2588	13708	-93	141	-207	-16148	-920	-3972	99	-22	107	-3548	-1972	16568	177	-3	48	-8476	3284	14028	107	-48	-167	-14712	4384	-5648	20	-22	-70	-2992	2648	16532	7	-79	200	127	127	5
-7860	-2544	13624	-118	148	-167	-16092	-944	-4016	65	2	84	-3572	-1968	16668	210	-28	53	-8496	3276	14152	95	-57	-176	-14712	4364	-5684	33	-23	-46	-2992	2636	16512	-12	-156	174	127	127	5
-7868	-2588	13636	-99	172	-199	-16164	-904	-3988	97	-18	125	-3612	-1948	16532	179	-2	77	-8456	3260	14084	77	-16	-208	-14688	4336	-5760	-28	-44	-72	-2956	2712	16540	25	-117	211	127	127	5
-7860	-2536	13632	-87	157	-195	-16164	-916	-4008	20	-24	106	-3572	-1948	16680	202	18	74	-8464	3284	14048	99	-13	-167	-14760	4428	-5748	-48	1	-59	-3076	2692	16512	25	-110	236	127	127	5
-7820	-2588	13688	-87	148	-220	-16144	-992	-3992	49	16	109	-3636	-1960	16616	162	21	85	-8428	3304	14068	108	-61	-158	-14648	4392	-5824	-25	-8	-68	-3020	2696	16516	29	-84	197	127	127	5
-7928	-2644	13732	-98	117	-178	-16116	-940	-3988	93	-30	129	-3612	-1968	16548	195	-4	60	-8496	3304	14128	87	-37	-151	-14620	4368	-5676	-30	-37	-26	-3140	2656	16484	-12	-116	193	127	127	5
-7812	-2560	13672	-85	141	-198	-16064	-1016	-4084	98	35	113	-3560	-1904	16604	145	18	66	-8436	3252	14160	120	-79	-200	-14684	4336	-5752	29	-22	-35	-3080	2716	16540	65	-169	185	127	127	5
-7884	-2640	13592	-98	154	-204	-16184	-1016	-4084	97	6	137	-3604	-1952	16560	170	-25	45	-8508	3296	14096	119	-50	-174	-14644	4356	-5928	-34	-24	-72	-3108	2720	16540	-36	-106	182	127	127	5
-7840	-2592	13628	-67	134	-194	-16136	-984	-4076	84	-32	112	-3644	-1992	16664	175	-33	42	-8464	3268	14028	94	-29	-161	-14648	4356	-5788	7	-81	-49	-3092	2732	16552	-1	-157	214	127	127	5
-7836	-2624	13556	-66	138	-203	-16092	-932	-4016	64	-68	158	-3644	-1868	16616	170	-12	40	-8432	3308	14188	131	-39	-167	-14668	4360	-5696	18	-16	-52	-3024	2668	16444	18	-106	203	127	127	5
-7836	-2628	13616	-97	116	-194	-16096	-920	-4020	83	-38	115	-3584	-1908	16600	174	-15	3	-8428	3272	14032	122	-55	-173	-14636	4304	-5660	-45	-34	-74	-3076	2676	16596	7	-115	185	127	127	5
-7836	-2544	13552	-105	185	-206	-16036	-940	-4084	85	2	120	-3648	-1964	16660	157	-17	70	-8492	3344	14152	120	-44	-154	-14664	4348	-5788	-28	-40	-67	-3056	2640	16516	24	-110	199	127	127	5
-7796	-2572	13668	-127	155	-203	-16116	-976	-4128	82	-73	100	-3584	-1952	16700	162	-1	69	-8516	3308	14128	116	-72	-140	-14712	4328	-5808	4	-38	-84	-2984	2688	16588	55	-112	185	127	127	5
-7800	-2568	13664	-106	178	-167	-16068	-920	-4052	73	-43	136	-3596	-1936	16556	207	-50	46	-8432	3268	14008	136	-63	-195	-14636	4300	-5768	-35	-54	-70	-3012	2672	16572	62	-127	220	127	127	5
-7888	-2544	13676	-117	161	-170	-16120	-988	-4120	105	-51	101	-3544	-1932	16616	192	3	26	-8528	3280	14120	127	-21	-158	-14660	4364	-5748	23	-19	-65	-2972	2696	16616	44	-147	174	127	127	5
-7916	-2588	13676	-86	148	-213	-16160	-996	-4160	70	-28	147	-3556	-1972	16640	157	-20	47	-8468	3348	14132	137	-78	-128	-14712	4264	-5752	0	-41	-24	-2980	2696	16584	51	-126	199	127	127	5
-7852	-2640	13584	-111	167	-211	-16104	-996	-3960	56	-22	131	-3608	-1900	16616	125	1	36	-8468	3232	14004	140	-64	-161	-14772	4356	-5656	-1	-50	-57	-3008	2736	16612	27	-162	161	127	127	5
-7848	-2664	13632	-95	149	-185	-16112	-1008	-3916	90	-9	120	-3548	-2012	16636	127	-33	36	-8476	3260	14044	154	-35	-200	-14692	4384	-5720	18	-43	5	-2984	2756	16564	30	-126	176	127	127	5
-7952	-2648	13700	-81	146	-219	-16148	-988	-3924	92	-31	142	-3500	-1952	16524	195	-12	70	-8472	3356	14040	119	-71	-146	-14700	4360	-5668	19	-27	-54	-3000	2732	16592	21	-117	191	127	127	5
-7848	-2632	13596	-54	140	-215	-16112	-936	-4136	105	-12	150	-3552	-1940	16616	195	-10	75	-8464	3280	14108	128	-38	-164	-14700	4400	-5760	2	-17	-67	-3072	2764	16552	30	-108	212	127	127	5
-7812	-2556	13552	-75	130	-168	-16084	-988	-4056	97	12	124	-3552	-1940	16684	191	6	57	-8528	3352	14200	93	26	-176	-14704	4380	-5736	5	-20	-33	-3068	2660	16644	25	-123	221	127	127	5
-7828	-2564	13628	-70	150	-184	-16144	-976	-4076	51	11	125	-3624	-1924	16612	179	2	64	-8492	3312	13932	82	-77	-153	-14656	4376	-5748	17	-7	-63	-3044	2704	16572	28	-131	208	127	127	5
-7868	-2652	13628	-84	157	-179	-16016	-924	-4004	65	6	130	-3636	-1948	16592	188	-19	66	-8504	3328	14060	145	-68	-181	-14668	4320	-5720	-23	-46	-66	-3032	2724	16608	-15	-146	210	127	127	5
-7876	-2568	13620	-63	144	-180	-16080	-936	-4032	120	-10	115	-3532	-1920	16676	192	-11	69	-8528	3328	14148	117	-72	-133	-14700	4336	-5880	-30	-21	-86	-3068	2724	16496	-8	-137	214	127	127	5
-7888	-2596	13596	-70	137	-186	-16148	-932	-4004	77	-21	115	-3604	-1896	16620	169	-4	24	-8448	3344	14120	152	-68	-164	-14624	4396	-5792	13	-3	-62	-3040	2720	16464	65	-113	196	127	127	5
-7888	-2552	13648	-85	137	-179	-16112	-960	-4128	57	1	132	-3604	-1948	16588	144	14	66	-8440	3252	14068	137	-52	-118	-14632	4344	-5868	-24	-63	-87	-3052	2640	16460	15	-77	238	127	127	5
-7848	-2552	13656	-142	125	-207	-16116	-1004	-4132	78	-8	121	-3616	-1920	16548	159	3	61	-8392	3328	14056	134	-61	-196	-14676	4360	-5864	-21	-14	-67	-3024	2640	16600	33	-144	172	127	127	5
-7892	-2660	13632	-94	103	-190	-16120	-952	-4124	82	-17	106	-3672	-1928	16564	160	-28	68	-8492	3268	14144	112	-41	-166	-14760	4324	-5752	16	-59	-48	-3048	2684	16548	33	-165	212	127	127	5
-7876	-2572	13616	-83	142	-204	-16112	-952	-4144	95	-38	152	-3576	-1964	16660	153	-36	35	-8448	3284	14072	164	-63	-161	-14732	4296	-5820	39	-23	-19	-3092	2696	16492	47	-132	191	127	127	5
-7860	-2572	13632	-133	172	-201	-16104	-928	-3868	63	-54	98	-3568	-1980	16572	145	0	83	-8492	3264	14016	147	-53	-155	-14644	4364	-5796	5	-60	-71	-3084	2716	16496	54	-148	215	127	127	5
-7860	-2588	13748	-79	137	-176	-16084	-980	-4080	72	-28	125	-3604	-1952	16552	162	2	54	-8452	3300	14056	157	-69	-147	-14680	4384	-5716	2	-25	-67	-3112	2716	16500	20	-125	158	127	127	5
-7836	-2520	13572	-75	125	-175	-16104	-908	-4056	78	-66	129	-3584	-1960	16596	171	7	26	-8456	3340	14108	110	-70	-150	-14708	4356	-5704	21	-38	-57	-3016	2672	16492	44	-135	226	127	127	5
-7852	-2616	13688	-104	152	-159	-16124	-900	-3948	88	-64	127	-3560	-1908	16684	191	-12	86	-8424	3252	14048	138	-36	-161	-14672	4396	-5752	26	-62	-48	-3008	2672	16492	56	-136	170	127	127	5
-7820	-2612	13532	-73	163	-201	-16116	-940	-3888	69	-23	112	-3524	-1936	16580	164	1	30	-8492	3256	13996	110	-64	-167	-14708	4292	-5836	-5	-11	-59	-2988	2676	16504	27	-112	172	127	127	5
-7888	-2608	13644	-81	154	-240	-16132	-988	-4016	95	-18	140	-3556	-1936	16548	178	-18	41	-8428	3340	14088	126	-75	-158	-14688	4348	-5724	14	-40	-43	-3036	2668	16620	-26	-137	186	127	127	5
-7844	-2580	13704	-77	139	-173	-16176	-924	-3924	104	12	131	-3504	-1988	16628	190	-6	18	-8488	3288	14168	93	-64	-170	-14628	4348	-5716	-22	-10	-55	-3040	2680	16528	-3	-143	191	127	127	5
-7852	-2664	13700	-77	153	-194	-16116	-1012	-4040	97	9	106	-3524	-1924	16556	182	-7	20	-8404	3272	14024	134	-50	-183	-14756	4360	-5820	0	-37	-63	-2996	2720	16576	-53	-145	145	127	127	5
-7876	-2576	13648	-58	133	-172	-16072	-1036	-4036	90	4	141	-3588	-1952	16616	145	12	17	-8464	3260	14152	119	-49	-191	-14684	4400	-5772	61	-12	-62	-3032	2632	16548	72	-108	174	127	127	5
-7808	-2628	13668	-49	153	-163	-16064	-940	-3948	98	5	120	-3608	-1972	16604	176	-10	34	-8432	3256	14116	105	-56	-130	-14672	4392	-5800	17	7	-29	-3060	2656	16452	6	-122	178	127	127	5
-7896	-2560	13632	-50	129	-170	-16152	-908	-4016	132	-23	134	-3608	-1908	16568	179	19	19	-8456	3280	14088	113	-31	-170	-14692	4296	-5720	-14	-14	-96	-2928	2656	16564	52	-96	218	127	127	5
-7832	-2608	13580	-97	156	-189	-16092	-900	-4108	91	-11	129	-3676	-1888	16584	172	20	28	-8480	3320	14036	119	11	-188	-14664	4360	-5832	-24	-6	-60	-3044	2736	16456	5	-128	220	127	127	5
-7808	-2500	13680	-100	132	-188	-16144	-960	-4168	66	4	110	-3584	-1924	16588	180	27	85	-8424	3320	14080	146	-88	-174	-14700	4352	-5804	-32	-3	-63	-3080	2748	16468	13	-125	211	127	127	5
-7872	-2600	13592	-85	124	-172	-16104	-924	-4012	60	-44	110	-3640	-1880	16660	177	-8	103	-8464	3300	14084	123	-76	-167	-14720	4376	-5696	-4	9	-62	-3084	2664	16484	21	-107	231	127	127	5
-7924	-2612	13632	-98	168	-202	-16072	-912	-4072	49	-52	97	-3620	-1924	16908	298	119	104	-8436	3360	14164	95	-47	-161	-14684	4384	-5784	-8	-19	-63	-3072	2720	16632	59	-92	241	127	127	5
-7816	-2680	13744	-124	140	-192	-16140	-916	-4072	45	-66	70	-3596	-1844	16656	121	-34	35	-8452	3252	14112	105	-33	-163	-14660	4328	-5844	13	-17	-84	-3100	2744	16588	44	-103	237	127	127	5
-7840	-2596	13680	-120	175	-197	-16128	-952	-4164	47	-62	119	-3688	-1948	16436	158	-51	75	-8464	3304	14080	109	-33	-196	-14672	4292	-5844	29	-19	-84	-3132	2700	16456	-29	-111	210	127	127	5
-7860	-2580	13600	-102	136	-235	-16024	-976	-3948	81	-55	93	-3576	-1888	16668	125	-11	69	-8488	3336	14064	94	-67	-178	-14680	4368	-5796	16	-65	-82	-3068	2688	16516	-35	-118	199	127	127	5
-7872	-2592	13640	-82	148	-189	-16136	-884	-4008	68	-58	121	-3624	-1988	16564	171	-10	37	-8492	3200	14112	107	-29	-136	-14704	4340	-5696	20	-43	-93	-3068	2636	16528	32	-134	195	127	127	5
-7928	-2624	13652	-108	139	-247	-16064	-948	-3940	50	-55	102	-3540	-1836	16644	137	-19	26	-8496	3324	14040	113	-91	-139	-14648	4292	-5772	-15	-47	-79	-3012	2636	16516	-31	-117	136	127	127	5
-7816	-2580	13656	-142	129	-198	-16100	-952	-3908	69	-76	135	-3528	-1956	16540	154	-20	43	-8412	3324	14040	149	-77	-172	-14652	4332	-5760	1	-54	-64	-2976	2696	16500	-7	-121	205	127	127	5
-7828	-2552	13588	-138	174	-223	-16068	-936	-3916	59	-32	103	-3520	-1984	16544	165	0	36	-8408	3328	14040	118	-31	-185	-14704	4340	-5760	-2	-25	-107	-3000	2664	16512	-4	-107	171	127	127	5
-7852	-2544	13528	-118	152	-222	-16180	-948	-3980	72	-26	102	-3528	-2024	16552	169	-39	88	-8464	3344	14052	109	-48	-180	-14680	4404	-5788	-48	-51	-67	-3032	2664	16604	42	-103	220	127	127	5
-7796	-2588	13696	-121	126	-233	-16096	-976	-3912	58	-3	116	-3564	-1992	16588	159	-8	65	-8420	3268	14036	116	-45	-154	-14724	4328	-5668	-21	-5	-96	-3040	2740	16496	9	-118	209	127	127	5
-7852	-2556	13616	-91	129	-214	-16152	-1000	-4008	87	6	101	-3624	-2040	16592	195	32	77	-8492	3284	14096	101	-49	-145	-14676	4284	-5784	-11	-17	-78	-3080	2624	16600	16	-111	199	127	127	5
-7896	-2584	13580	-74	131	-200	-16096	-972	-3948	95	7	110	-3600	-1976	16580	183	28	23	-8516	3384	14080	130	-42	-191	-14660	4328	-5872	-15	-50	-56	-3156	2688	16560	-34	-97	217	127	127	5
-7900	-2592	13620	-67	127	-175	-16136	-924	-4068	82	-39	155	-3580	-1972	16648	180	13	5	-8452	3276	14068	104	-54	-156	-14708	4320	-5780	20	-40	-42	-3044	2704	16576	36	-109	211	127	127	5
-7832	-2520	13584	-99	166	-193	-16136	-960	-3960	82	-4	118	-3612	-1912	16492	174	-11	17	-8460	3264	14124	148	-54	-148	-14704	4304	-5732	6	-67	-72	-3028	2596	16600	2	-119	158	127	127	5
-7880	-2620	13672	-22	130	-214	-16060	-960	-3988	140	-27	141	-3528	-1912	16536	149	3	-5	-8412	3304	14048	149	-38	-148	-14684	4360	-5684	28	-64	-28	-3004	2696	16500	-14	-118	155	127	127	5
-7864	-2556	13556	-117	148	-176	-16108	-936	-3988	92	-2	117	-3560	-1924	16516	140	-2	28	-8376	3248	13972	104	-62	-180	-14732	4344	-5736	33	-44	-71	-2972	2624	16624	-4	-138	191	127	127	5
-7820	-2560	13616	-97	128	-206	-16080	-932	-4044	90	2	152	-3584	-1856	16504	158	-18	71	-8476	3320	14188	129	-21	-147	-14708	4328	-5652	17	-25	-41	-3068	2672	16556	17	-110	184	127	127	5
-7892	-2568	13704	-124	128	-198	-16100	-884	-4104	73	1	84	-3668	-1924	16668	205	6	71	-8424	3292	14204	140	-50	-185	-14692	4348	-5828	9	-60	-25	-2992	2692	16524	17	-103	175	127	127	5
-7840	-2612	13716	-142	115	-219	-16080	-972	-4072	63	-69	93	-3600	-1884	16556	216	17	58	-8452	3316	14092	142	-47	-158	-14672	4376	-5792	3	-22	-10	-3008	2728	16452	28	-122	197	127	127	5
-7856	-2528	13624	-123	120	-198	-16112	-948	-4008	49	-6	90	-3644	-1960	16564	167	-27	70	-8424	3280	14108	128	-31	-187	-14724	4396	-5664	1	-20	-67	-3024	2752	16520	16	-110	197	127	127	5
-7868	-2628	13628	-103	170	-206	-16172	-996	-4048	37	6	82	-3664	-1932	16652	176	0	77	-8528	3384	14068	132	-64	-144	-14660	4416	-5824	-18	-12	-58	-3124	2776	16604	13	-108	228	127	127	5
-7916	-2644	13600	-87	167	-205	-16096	-1020	-4096	71	-39	107	-3628	-1944	16560	192	9	82	-8532	3356	14020	108	-48	-173	-14700	4416	-5680	-43	-22	-51	-3076	2760	16584	-6	-106	249	127	127	5
-7848	-2612	13680	-81	157	-212	-16112	-1024	-4092	59	-32	98	-3560	-2060	16588	218	-13	77	-8444	3292	14144	87	-32	-179	-14624	4380	-5716	-23	-28	-120	-3068	2716	16572	22	-128	234	127	127	5
-7836	-2568	13668	-120	171	-205	-16100	-976	-3968	93	-42	130	-3536	-2004	16668	317	125	76	-8484	3268	14100	68	-42	-190	-14720	4392	-5800	-10	-11	-104	-3140	2744	16624	36	-113	208	127	127	5
-7892	-2600	13688	-86	148	-165	-16120	-976	-4048	65	-63	100	-3564	-1924	16456	184	-10	31	-8460	3264	14096	78	-48	-190	-14716	4372	-5672	-23	-47	-114	-3096	2748	16468	6	-146	249	127	127	5
-7872	-2632	13708	-106	118	-210	-16136	-988	-4012	67	-65	150	-3632	-1924	16640	164	-13	7	-8468	3300	14040	76	-59	-181	-14644	4308	-5792	-13	-15	-121	-3100	2608	16668	18	-166	191	127	127	5
-7896	-2596	13688	-131	164	-182	-16060	-964	-4032	73	-28	107	-3576	-1932	16648	168	-15	15	-8460	3300	14084	114	-40	-177	-14712	4296	-5704	21	-33	-66	-3040	2596	16568	8	-156	187	127	127	5
-7844	-2568	13604	-97	171	-180	-16084	-956	-3980	91	-27	112	-3556	-1888	16600	152	15	33	-8512	3268	14092	141	-37	-136	-14728	4300	-5716	24	-62	-47	-3004	2588	16532	-10	-173	217	127	127	5
-7836	-2596	13568	-74	175	-207	-16160	-908	-4112	117	-34	122	-3600	-1948	16612	195	30	39	-8484	3272	14112	133	-54	-142	-14676	4300	-5844	-3	-60	-39	-2952	2556	16476	49	-144	173	127	127	5
-7840	-2556	13728	-85	185	-219	-16092	-932	-3944	64	-11	91	-3580	-1980	16668	177	15	44	-8460	3316	14020	107	-61	-106	-14704	4324	-5736	-12	-44	-7	-3020	2624	16524	71	-87	192	127	127	5
-7888	-2564	13548	-90	164	-217	-16160	-932	-4084	62	-54	115	-3536	-1936	16576	179	-42	53	-8444	3236	14160	118	-73	-135	-14688	4384	-5592	0	-25	-28	-2928	2656	16460	38	-119	154	127	127	5
-7820	-2548	13576	-109	162	-188	-16096	-972	-4024	68	-11	95	-3592	-2072	16512	66	-91	58	-8484	3280	14128	144	-10	-149	-14704	4348	-5720	41	-47	-8	-2972	2680	16568	47	-114	186	127	127	5
-7864	-2576	13464	-109	128	-195	-16092	-960	-3964	93	-16	136	-3592	-1992	16508	175	-36	63	-8500	3288	14092	122	-85	-155	-14668	4420	-5728	15	-10	7	-3016	2720	16484	1	-105	179	127	127	5
-7880	-2632	13648	-55	120	-212	-16124	-1004	-3964	94	2	167	-3624	-1972	16588	197	41	83	-8492	3304	14112	149	-95	-179	-14772	4368	-5712	-1	-25	-51	-3020	2732	16572	36	-134	193	127	127	5
-7860	-2624	13640	-115	133	-213	-16132	-1084	-4112	117	4	173	-3524	-2116	16648	225	23	44	-8468	3300	14156	123	-19	-159	-14704	4376	-5768	-5	-43	-41	-3088	2764	16572	74	-116	201	127	127	5
-7848	-2636	13524	-62	162	-169	-16152	-956	-3984	95	13	179	-3592	-2048	16496	134	-77	13	-8480	3332	14124	113	-63	-177	-14676	4400	-5736	-14	-47	-52	-3012	2664	16576	73	-150	224	127	127	5
-7804	-2588	13660	-61	141	-165	-16124	-952	-4020	60	5	131	-3612	-1872	16544	246	-4	11	-8432	3332	14084	130	-45	-176	-14680	4332	-5804	-11	-24	-80	-3068	2732	16628	17	-114	215	127	127	5
-7864	-2532	13564	-53	134	-169	-16128	-952	-4072	73	-1	152	-3552	-1852	16536	213	13	42	-8468	3292	14180	69	-49	-176	-14636	4292	-5648	-6	-24	-82	-3068	2720	16560	7	-120	238	127	127	5
-7880	-2512	13696	-49	123	-169	-16132	-964	-4072	98	-14	150	-3648	-1824	16640	166	-36	40	-8452	3260	14024	100	-46	-146	-14676	4312	-5704	15	-8	-32	-3028	2692	16528	9	-104	204	127	127	5
-7880	-2532	13668	-42	133	-174	-16056	-904	-4120	85	18	133	-3616	-1764	16488	173	-30	30	-8472	3356	14072	125	-63	-165	-14692	4244	-5684	11	-6	-60	-3036	2640	16564	8	-163	161	127	127	5
-7876	-2524	13716	-84	154	-164	-16108	-884	-3940	105	-10	128	-3632	-1780	16556	157	-9	50	-8484	3252	14156	132	-16	-165	-14688	4336	-5660	-17	-11	-45	-3048	2608	16620	15	-153	163	127	127	5
-7816	-2624	13728	-117	147	-203	-16148	-932	-4108	92	-41	108	-3596	-1808	16640	146	-27	71	-8424	3276	14200	116	-55	-192	-14616	4400	-5828	40	-31	-69	-3064	2720	16512	-3	-121	160	127	127	5
-7848	-2532	13604	-149	137	-219	-16060	-876	-4128	66	-35	123	-3672	-1860	16516	133	-16	82	-8436	3324	14064	110	-37	-145	-14664	4388	-5844	30	-41	-62	-3088	2756	16636	65	-110	219	127	127	5
-7920	-2604	13828	-114	165	-212	-16116	-984	-4112	44	-58	62	-3596	-1972	16600	156	10	99	-8452	3284	13996	123	-64	-170	-14660	4376	-5784	-64	-50	-46	-3056	2704	16564	10	-119	219	127	127	5
-7836	-2608	13568	-155	170	-231	-16060	-968	-4016	52	-22	76	-3644	-1856	16448	147	-26	93	-8504	3276	14048	69	-60	-160	-14644	4392	-5664	12	-56	-50	-3068	2700	16552	74	-83	232	127	127	5
-7848	-2616	13628	-165	166	-222	-16072	-1012	-4024	65	-20	76	-3628	-2024	16572	162	-20	79	-8536	3268	14168	112	-30	-170	-14680	4384	-5816	-19	-52	-84	-3132	2608	16576	37	-101	234	127	127	5
-7856	-2644	13612	-117	157	-216	-16128	-1032	-4044	83	-107	102	-3608	-2024	16540	161	-20	62	-8396	3240	14048	84	-61	-159	-14724	4344	-5784	-25	-73	-95	-3068	2696	16512	71	-96	210	127	127	5
-7872	-2588	13596	-88	156	-159	-16168	-988	-4020	81	-69	122	-3540	-1988	16600	177	-10	46	-8452	3312	13964	129	10	-187	-14712	4296	-5788	4	-68	-77	-3064	2684	16480	29	-115	188	127	127	5
-7832	-2624	13640	-91	123	-180	-16108	-940	-4020	49	-45	142	-3564	-1916	16704	167	-19	38	-8428	3292	14052	130	-66	-140	-14720	4352	-5760	-1	-59	-72	-3096	2620	16520	0	-117	158	127	127	5
-7820	-2648	13548	-83	157	-169	-16128	-956	-3964	95	-47	102	-3540	-1912	16556	156	-30	-24	-8440	3268	14072	124	-20	-167	-14664	4344	-5840	-4	-73	-53	-3032	2696	16488	17	-110	157	127	127	5
-7848	-2596	13720	-76	152	-181	-16120	-956	-4072	150	-5	145	-3572	-1916	16528	145	-32	4	-8400	3240	14076	155	-22	-150	-14684	4260	-5700	3	-66	-84	-2976	2700	16552	-2	-157	156	127	127	5
-7884	-2556	13716	-76	170	-188	-16180	-972	-4032	115	-13	137	-3576	-1876	16552	135	-16	40	-8492	3288	13964	161	-96	-174	-14712	4348	-5648	17	-49	-41	-3024	2680	16468	-28	-109	152	127	127	5
-7904	-2548	13588	-73	123	-175	-16152	-884	-4036	71	-4	153	-3672	-1860	16548	153	-8	85	-8448	3348	14152	131	-39	-179	-14728	4332	-5712	61	-47	-41	-3052	2672	16612	-29	-103	192	127	127	5
-7852	-2524	13656	-98	108	-211	-16108	-840	-4000	40	1	68	-3632	-1868	16516	189	1	60	-8392	3288	14100	126	-43	-188	-14684	4332	-5808	6	-21	-54	-3020	2752	16420	-17	-121	203	127	127	5
-7864	-2568	13580	-149	168	-177	-16100	-924	-3912	86	17	84	-3628	-1932	16644	158	19	82	-8492	3300	14064	126	-91	-159	-14732	4360	-5672	-22	-55	-86	-2996	2656	16528	-5	-108	227	127	127	5
-7860	-2552	13604	-94	132	-189	-16132	-864	-4112	30	-26	110	-3636	-1908	16576	173	15	93	-8468	3344	14088	112	-19	-176	-14608	4332	-5644	-8	-6	-66	-3096	2692	16552	18	-134	211	127	127	5
-7876	-2588	13732	-123	124	-217	-16120	-1044	-4000	61	-26	104	-3600	-1968	16604	183	-7	64	-8448	3236	14036	109	-97	-180	-14668	4380	-5700	-38	-34	-79	-3024	2684	16528	67	-110	231	127	127	5
-7872	-2612	13640	-168	168	-198	-16080	-1020	-4000	56	-13	121	-3564	-2012	16496	162	13	62	-8492	3340	14048	84	-33	-242	-14744	4324	-5804	32	-10	-78	-3044	2664	16532	39	-150	226	127	127	5
-7856	-2488	13588	-105	139	-220	-16096	-944	-4004	100	-42	150	-3656	-1976	16604	178	-28	62	-8428	3308	14140	107	-27	-197	-14692	4348	-5744	9	-31	-71	-3060	2664	16560	22	-109	170	127	127	5
-7884	-2648	13716	-89	178	-202	-16116	-976	-4032	87	2	140	-3556	-1924	16572	180	-11	69	-8452	3312	14048	107	-45	-157	-14680	4412	-5712	9	-37	-73	-3068	2684	16556	4	-87	191	127	127	5
-7844	-2576	13652	-77	150	-198	-16104	-1024	-3948	69	-4	133	-3608	-1920	16664	153	-14	23	-8484	3288	14028	85	-29	-142	-14640	4280	-5844	-24	-17	-29	-3092	2596	16484	30	-129	186	127	127	5
-7872	-2528	13648	-94	175	-179	-16112	-948	-4016	78	-23	140	-3580	-1936	16588	165	-7	6	-8444	3296	14048	118	-56	-149	-14692	4300	-5740	6	-50	-47	-2980	2680	16496	34	-135	193	127	127	5
-7868	-2640	13616	-54	134	-172	-16124	-964	-3992	89	-26	113	-3544	-1972	16548	177	-33	63	-8452	3324	14160	141	-64	-152	-14668	4328	-5832	24	-32	-46	-3036	2652	16568	78	-121	186	127	127	5
-7880	-2600	13628	-58	154	-174	-16116	-952	-4052	114	-13	164	-3556	-1892	16676	182	14	40	-8468	3256	14080	95	-42	-145	-14700	4296	-5680	33	-43	-14	-3032	2676	16560	44	-96	195	127	127	5
-7912	-2528	13640	-65	182	-209	-16192	-884	-3992	98	62	95	-3564	-1880	16628	204	-22	57	-8472	3336	14056	108	-53	-166	-14764	4356	-5820	-16	-30	-39	-2992	2680	16476	65	-108	169	127	127	5
-7840	-2560	13672	-66	149	-219	-16120	-900	-3952	67	22	117	-3596	-1868	16528	157	-20	81	-8416	3300	14016	142	-22	-159	-14676	4332	-5696	9	-27	-45	-2972	2712	16476	13	-98	175	127	127	5
-7844	-2548	13580	-91	175	-205	-16112	-960	-4036	68	9	79	-3660	-1952	16540	175	-20	88	-8504	3272	14128	100	-24	-169	-14660	4448	-5764	23	-45	-48	-3080	2744	16516	29	-107	175	127	127	5
-7884	-2548	13636	-105	158	-180	-16124	-964	-3972	72	-9	133	-3616	-1972	16680	156	-26	64	-8468	3256	13996	143	-40	-170	-14656	4444	-5800	12	-17	-26	-3060	2752	16564	33	-108	196	127	127	5
-7868	-2596	13620	-91	155	-209	-16136	-968	-3988	85	-23	100	-3636	-1944	16512	217	4	45	-8488	3340	14100	115	-18	-170	-14680	4324	-5736	7	-14	-43	-3104	2724	16504	34	-149	193	127	127	5
-7860	-2592	13696	-69	147	-185	-16136	-988	-4000	99	-38	125	-3620	-1936	16580	194	-4	43	-8484	3308	14024	115	-28	-178	-14664	4388	-5800	16	-41	-72	-3100	2716	16540	-11	-123	201	127	127	5
-7876	-2520	13616	-65	168	-221	-16072	-944	-3960	67	-32	113	-3632	-1904	16592	191	12	45	-8488	3284	14064	124	-48	-184	-14676	4364	-5716	-26	-9	-70	-3132	2696	16496	5	-125	212	127	127	5
-7892	-2608	13664	-61	169	-210	-16124	-908	-3984	68	-28	130	-3608	-1920	16632	199	-49	-2	-8480	3288	14100	145	-68	-161	-14696	4324	-5800	-14	-91	-100	-3104	2728	16544	16	-142	179	127	127	5
-7896	-2588	13652	-90	138	-216	-16132	-940	-4080	106	-9	140	-3580	-1936	16564	161	-19	-27	-8464	3280	14040	126	-59	-176	-14648	4276	-5720	0	-42	-76	-3084	2660	16500	35	-147	212	127	127	5
-7928	-2556	13580	-91	164	-191	-16128	-920	-4096	107	-54	127	-3568	-1896	16644	165	-35	0	-8488	3240	14132	142	-49	-157	-14672	4332	-5712	-4	-82	-24	-2924	2588	16580	-35	-160	168	127	127	5
-7868	-2568	13644	-99	137	-179	-16124	-968	-4000	105	-36	144	-3588	-1860	16632	118	-20	6	-8504	3264	14088	139	-18	-163	-14712	4328	-5700	13	-57	-54	-2928	2660	16540	26	-138	167	127	127	5
-7844	-2552	13628	-81	129	-180	-16076	-876	-3932	81	-24	155	-3552	-1948	16536	161	-25	73	-8488	3260	14128	144	-58	-148	-14708	4296	-5664	-24	-41	-42	-3016	2620	16524	61	-110	211	127	127	5
-7884	-2568	13556	-126	137	-203	-16144	-880	-3996	52	-45	91	-3524	-1940	16552	146	-35	92	-8452	3328	14104	130	-93	-150	-14608	4296	-5788	-16	-26	-36	-2920	2664	16472	23	-105	205	127	127	5
-7796	-2632	13700	-65	154	-225	-16104	-968	-3940	54	-29	79	-3588	-2024	16456	165	0	47	-8460	3304	14100	126	-78	-155	-14660	4352	-5700	10	-48	-48	-3020	2752	16628	48	-120	213	127	127	5
-7796	-2652	13564	-90	133	-205	-16100	-1024	-3896	90	-9	97	-3536	-1984	16584	200	-13	68	-8488	3280	14084	117	-57	-154	-14632	4340	-5812	21	-19	-31	-3016	2740	16508	33	-133	212	127	127	5
-7872	-2604	13596	-93	120	-199	-16092	-900	-3988	83	1	142	-3532	-1984	16564	180	8	73	-8432	3312	14044	163	-20	-185	-14692	4348	-5688	-5	-51	-43	-2940	2792	16504	2	-135	151	127	127	5
-7856	-2624	13720	-45	141	-177	-16064	-1028	-4032	106	-13	138	-3588	-2012	16656	200	-44	45	-8464	3240	14032	106	-27	-195	-14708	4348	-5676	31	-9	-45	-2972	2756	16540	9	-153	172	127	127	5
-7868	-2624	13644	-72	140	-209	-16084	-920	-3976	90	8	152	-3616	-1924	16516	173	30	26	-8456	3304	14132	128	-38	-183	-14688	4380	-5756	19	10	-48	-3024	2748	16640	10	-108	167	127	127	5
-7860	-2548	13576	-69	155	-195	-16088	-916	-4092	96	22	136	-3532	-1956	16548	146	6	18	-8412	3332	14208	109	-48	-150	-14620	4444	-5816	48	-3	-24	-3008	2760	16592	5	-101	206	127	127	5
-7836	-2528	13648	-87	130	-226	-16088	-912	-3924	44	17	153	-3680	-1920	16568	213	-10	34	-8532	3304	14020	79	-72	-199	-14696	4376	-5784	-46	-6	-98	-3020	2684	16508	23	-133	200	127	127	5
-7880	-2596	13644	-100	143	-202	-16140	-944	-3992	87	13	117	-3576	-1864	16664	178	-17	47	-8388	3320	14056	92	-33	-204	-14696	4372	-5776	-12	21	-55	-3036	2664	16516	43	-110	230	127	127	5
-7848	-2632	13632	-81	173	-169	-16076	-912	-4076	82	-35	121	-3544	-1948	16632	196	-10	64	-8444	3308	14076	81	-49	-205	-14716	4340	-5720	-7	17	-60	-3040	2672	16520	-3	-94	249	127	127	5
-7916	-2524	13740	-104	140	-178	-16104	-940	-4036	101	0	116	-3660	-1908	16620	215	-22	95	-8428	3312	14108	93	-54	-176	-14708	4304	-5748	-54	22	-73	-3192	2608	16560	29	-98	235	127	127	5
-7888	-2552	13688	-132	125	-198	-16144	-872	-4060	68	-2	115	-3624	-1936	16612	185	9	108	-8456	3236	13960	105	-14	-191	-14688	4300	-5932	-55	-47	-77	-3188	2636	16596	35	-130	225	127	127	5
-7848	-2636	13668	-120	131	-215	-16084	-968	-4096	70	-33	119	-3636	-1936	16620	144	-71	68	-8532	3316	14000	126	-59	-190	-14648	4316	-5868	-37	-35	-55	-3152	2684	16512	70	-133	218	127	127	5
-7932	-2596	13728	-149	144	-197	-16096	-1004	-4068	53	-50	138	-3628	-1876	16640	135	-25	71	-8480	3316	14140	84	-39	-166	-14676	4276	-5876	11	-77	-70	-3196	2696	16520	-2	-119	180	127	127	5
-7872	-2552	13636	-144	154	-212	-16128	-988	-3896	104	-27	103	-3596	-1880	16636	139	-29	59	-8484	3276	14184	133	-76	-158	-14664	4328	-5852	30	-103	-72	-3080	2664	16536	32	-156	188	127	127	5
-7912	-2624	13716	-129	150	-189	-16132	-992	-4076	115	-41	110	-3604	-1976	16564	153	-50	25	-8412	3356	13972	149	-59	-132	-14672	4336	-5760	25	-81	-45	-3084	2652	16548	32	-155	179	127	127	5
-7872	-2632	13712	-103	154	-223	-16084	-976	-4080	89	-81	132	-3612	-1980	16548	147	-34	26	-8456	3248	14104	120	-50	-162	-14680	4380	-5884	23	-81	-50	-3048	2688	16712	7	-120	170	127	127	5
