#Activity	sitting 
#ActivityID	5 
#Date 09-23-17-36
acc_rf_x	acc_rf_y	acc_rf_z	gyro_rf_x	gyro_rf_y	gyro_rf_z	acc_rs_x	acc_rs_y	acc_rs_z	gyro_rs_x	gyro_rs_y	gyro_rs_z	acc_rt_x	acc_rt_y	acc_rt_z	gyro_rt_x	gyro_rt_y	gyro_rt_z	acc_lf_x	acc_lf_y	acc_lf_z	gyro_lf_x	gyro_lf_y	gyro_lf_z	acc_ls_x	acc_ls_y	acc_ls_z	gyro_ls_x	gyro_ls_y	gyro_ls_z	acc_lt_x	acc_lt_y	acc_lt_z	gyro_lt_x	gyro_lt_y	gyro_lt_z	EMG_r	EMG_l	act
-7256	-1456	14144	-17	14	-20	-14800	2744	-6248	2	-4	-5	296	568	17112	5	-10	23	-7520	312	15000	107	-14	-105	-14944	2392	-6784	5	0	12	-208	1536	17136	20	3	7	126	126	5
-7372	-1444	14128	-14	13	-20	-14936	2568	-6448	8	-5	-4	120	408	17016	-1	-16	23	-7408	416	15248	111	3	-117	-14960	2576	-6920	10	1	10	-224	1496	16776	14	0	4	126	126	5
-7360	-1396	14100	-13	17	-23	-14736	2688	-6408	8	0	-9	112	400	16880	-5	-9	25	-7464	328	14960	133	-59	-97	-14960	2632	-6808	12	-1	17	-344	1496	16896	5	2	6	126	125	5
-7380	-1352	14260	-15	13	-22	-14904	2752	-6592	4	-2	-6	160	456	16928	-2	-10	23	-7472	416	15208	99	1	-111	-14928	2576	-7008	8	0	18	-208	1544	17208	14	8	8	126	125	5
-7320	-1412	14100	-13	12	-22	-14784	2816	-6368	2	-1	-9	112	424	16952	-5	-10	28	-7568	296	15256	108	12	-110	-14912	2528	-6752	7	2	17	-144	1568	17000	23	6	3	126	125	5
-7336	-1396	14184	-16	18	-22	-15016	2792	-6576	-3	-1	-13	184	464	16952	-1	-10	21	-7424	296	15064	123	-10	-127	-14960	2496	-6800	11	-6	17	-296	1600	17344	23	-4	6	126	125	5
-7296	-1408	14200	-19	14	-24	-14872	2736	-6400	1	-4	-14	176	424	16936	0	-13	25	-7688	336	15096	116	-2	-116	-14952	2624	-6680	9	0	18	-392	1648	16888	26	-5	8	126	125	5
-7368	-1352	14164	-19	17	-27	-14768	2608	-6464	-3	-5	-12	160	496	16808	0	-16	28	-7552	400	15056	147	5	-122	-14984	2608	-6608	7	-2	13	-152	1776	17080	28	-2	7	126	125	5
-7356	-1352	14204	-13	16	-19	-14944	2712	-6304	0	-2	-13	192	392	17152	-1	-14	26	-7512	320	15184	107	-33	-157	-14880	2544	-6720	10	-2	15	-280	1608	17008	31	-1	6	126	124	5
-7380	-1376	14204	-12	13	-18	-14696	2632	-6344	4	-7	-13	200	328	16968	0	-11	24	-7512	248	14960	104	24	-147	-14880	2560	-6800	1	-1	16	-232	1592	17112	28	-3	8	126	125	5
-7340	-1396	14140	-13	17	-23	-14744	2712	-6352	4	-4	-6	248	496	16760	4	-14	23	-7584	368	15224	131	-1	-96	-14880	2496	-6944	9	1	16	-296	1688	16912	19	-3	6	126	125	5
-7320	-1416	14204	-10	15	-23	-14712	2680	-6368	5	-5	-11	160	456	16936	1	-11	23	-7624	392	15080	115	-5	-144	-14952	2584	-6528	4	-3	16	-304	1568	16728	20	3	10	127	126	5
-7312	-1368	14076	-12	18	-20	-14904	2560	-6384	4	-4	-4	224	552	17008	-1	-11	21	-7544	424	14832	127	-26	-107	-14896	2552	-6840	1	-4	15	-168	1712	16920	18	-1	5	126	126	5
-7312	-1436	14196	-8	16	-22	-14832	2680	-6008	0	-4	-8	248	400	16984	-4	-15	19	-7608	296	15304	110	-73	-139	-14864	2640	-6696	15	-8	15	-240	1592	17032	19	-1	3	126	125	5
-7260	-1424	14164	-11	18	-22	-14800	2728	-6312	-1	2	-3	80	312	16744	-3	-11	22	-7624	384	15184	119	7	-137	-14984	2560	-6592	11	-1	14	-160	1608	16832	17	-2	5	126	126	5
-7260	-1380	14120	-13	15	-21	-14712	2664	-6184	-3	3	-7	144	400	16768	-1	-15	22	-7408	448	15136	112	17	-132	-14880	2496	-6984	11	1	10	-280	1632	17192	16	-2	6	126	126	5
-7288	-1368	14152	-7	14	-20	-14760	2648	-6400	-1	-1	-6	256	512	16920	-4	-14	22	-7584	216	15112	122	-2	-143	-14880	2616	-6880	9	-1	10	-120	1696	17136	20	0	8	126	126	5
-7356	-1400	14088	-11	14	-22	-14840	2616	-6440	-2	1	1	272	288	16816	2	-12	24	-7632	280	15128	88	-4	-115	-14936	2464	-6680	11	-2	13	-272	1592	17224	18	-2	10	126	125	5
-7368	-1372	14244	-7	14	-21	-14800	2736	-6504	5	0	-3	64	264	17064	-1	-13	20	-7640	336	15080	108	-30	-127	-14968	2688	-7016	13	-3	8	-400	1696	17128	16	3	7	126	125	5
-7364	-1344	14112	-11	14	-20	-14768	2744	-6272	3	-2	-1	120	528	16896	4	-10	21	-7416	328	14992	106	-12	-141	-14808	2584	-6912	10	0	14	-416	1448	16720	16	-1	7	126	125	5
-7344	-1380	14148	-11	15	-21	-14904	2680	-6352	5	-6	1	248	376	17112	4	-9	22	-7440	328	14952	110	11	-152	-14928	2568	-6744	9	-3	13	-328	1632	17000	15	-3	5	127	125	5
-7360	-1376	14196	-11	16	-17	-14960	2720	-6232	11	-10	-4	176	360	16856	5	-9	19	-7384	392	14896	126	-21	-160	-14888	2472	-6872	12	-1	13	-280	1496	16840	18	1	10	127	125	5
-7312	-1424	14152	-10	18	-28	-14808	2688	-6224	12	-19	-3	80	384	16792	3	-11	14	-7528	408	14912	113	0	-130	-14960	2544	-6864	12	-3	11	-296	1528	17080	24	-4	14	126	125	5
-7348	-1392	14212	-16	12	-17	-14816	2792	-6416	3	-17	0	112	392	16992	10	-12	18	-7456	296	14960	116	40	-129	-14992	2608	-6808	4	-6	11	-208	1384	17176	25	0	17	126	125	5
-7344	-1364	14228	-14	11	-18	-14832	2760	-5968	7	-19	-4	144	400	16968	9	-10	22	-7560	408	14888	126	-36	-108	-15008	2496	-6744	5	-3	14	-248	1536	16976	31	-1	14	126	126	5
-7328	-1360	14116	-14	15	-23	-14816	2672	-6344	18	-20	-1	224	456	17208	13	-13	26	-7448	232	15064	113	-37	-133	-14880	2608	-6528	7	0	17	-272	1512	16992	29	4	16	126	126	5
-7300	-1344	14204	-12	14	-22	-14880	2664	-6264	16	-16	-3	240	472	17024	13	-10	28	-7552	288	15192	126	-46	-114	-14992	2440	-7008	9	-2	18	-272	1448	17088	31	0	10	127	125	5
-7308	-1380	14204	-13	15	-23	-14760	2584	-6096	12	-5	-4	352	512	17080	14	-8	25	-7376	400	15072	146	-8	-145	-15024	2736	-6680	11	-7	22	-272	1560	16840	29	-2	2	126	125	5
-7280	-1424	14188	-13	17	-21	-14760	2720	-6448	-3	0	-3	192	472	16984	5	-13	26	-7408	336	14936	119	22	-119	-14936	2464	-6576	10	-2	19	-248	1624	16912	26	0	-4	127	125	5
-7280	-1348	14204	-11	13	-21	-14832	2824	-6384	-12	10	0	224	472	16984	-2	-16	24	-7640	600	14976	129	-8	-138	-14872	2536	-6704	13	-3	29	-224	1560	17176	27	-1	-10	126	125	5
-7308	-1448	14104	-7	15	-20	-14864	2704	-6400	-14	7	-9	208	592	17032	-4	-14	18	-7600	224	15080	137	-27	-129	-14912	2648	-6800	11	-4	29	-192	1528	17064	18	-2	-11	126	125	5
-7324	-1396	14156	-12	16	-23	-14744	2624	-6200	-13	3	-5	128	504	17064	-10	-16	15	-7512	296	15072	133	12	-125	-14856	2720	-6600	8	-1	29	-304	1616	17112	22	-7	-15	127	125	5
-7348	-1452	14124	-14	16	-20	-14768	2552	-6392	-6	9	-1	104	600	16968	-11	-16	15	-7648	264	15112	168	-15	-104	-14896	2576	-6792	5	-1	24	-192	1656	17144	19	-4	-10	126	125	5
-7356	-1400	14140	-11	15	-18	-14952	2736	-6304	-4	6	-7	152	432	17096	-4	-13	17	-7568	304	15272	142	32	-110	-14960	2712	-6856	-1	-7	24	-208	1608	17000	17	-1	-9	126	125	5
-7304	-1384	14236	-12	14	-18	-14928	2664	-6376	6	-6	-1	120	552	17160	2	-14	19	-7472	272	15088	159	-9	-110	-15032	2552	-6864	1	1	23	-176	1712	17232	17	-5	-5	127	125	5
-7360	-1384	14184	-14	16	-22	-14872	2648	-6272	6	-2	-4	104	384	16808	0	-12	18	-7544	344	15144	117	19	-138	-14912	2648	-6848	8	-6	18	-208	1704	17064	23	-2	-1	127	124	5
-7336	-1372	14260	-13	17	-21	-14728	2744	-6328	11	-2	-5	304	528	16856	1	-13	22	-7336	400	14976	138	16	-151	-14904	2640	-6696	9	2	16	-136	1616	16712	19	-3	4	126	125	5
-7372	-1440	14220	-14	14	-21	-14840	2736	-6296	2	-3	-8	240	480	16944	2	-11	22	-7472	448	14912	127	-18	-126	-14912	2648	-6512	8	-3	13	-264	1688	16824	26	-1	6	126	125	5
-7336	-1412	14192	-12	19	-21	-14856	2632	-6104	2	-2	-9	168	448	16672	5	-17	23	-7536	384	15248	113	-81	-111	-15064	2496	-6608	9	-6	15	-232	1560	17064	27	-2	9	126	125	5
-7324	-1476	14144	-12	15	-23	-14792	2712	-6456	-3	0	-10	64	424	17072	4	-11	21	-7544	456	14944	66	24	-113	-14944	2696	-6584	7	-2	10	-168	1632	17088	21	2	13	126	124	5
-7316	-1400	14204	-11	14	-23	-14848	2728	-6256	-2	-2	-9	-24	560	16936	-1	-8	20	-7472	408	15208	103	-41	-143	-14912	2624	-6808	10	-3	9	-312	1736	17008	24	-3	12	127	124	5
-7316	-1424	14132	-13	13	-23	-14904	2688	-6312	1	-8	-12	176	536	16872	1	-11	21	-7576	400	15080	131	-4	-108	-14872	2656	-6728	11	-3	13	-192	1568	16976	22	-2	12	127	124	5
-7316	-1356	14108	-10	11	-23	-14888	2792	-6264	-1	-3	-14	328	536	17032	0	-12	20	-7568	344	15072	134	18	-174	-14952	2664	-6608	16	-5	11	-240	1488	17168	21	3	11	126	125	5
-7356	-1424	14192	-17	18	-22	-14888	2824	-6296	1	-6	-11	216	456	16928	3	-10	18	-7632	432	15024	99	-22	-133	-14800	2520	-6752	10	-1	9	-216	1592	17128	17	3	11	126	125	5
-7332	-1424	14176	-14	15	-19	-14656	2712	-6200	8	-6	-12	120	608	17056	-1	-12	24	-7512	408	15088	98	-65	-166	-14920	2472	-6600	8	-7	8	-288	1584	16896	11	0	14	126	125	5
-7340	-1412	14256	-17	16	-25	-14912	2696	-6448	8	-6	-11	224	480	17024	2	-15	19	-7432	432	15072	124	-38	-146	-14864	2504	-6752	7	-4	5	-272	1488	17152	18	-1	11	127	125	5
-7308	-1384	14160	-18	17	-21	-14728	2680	-6168	4	-4	-13	232	560	16928	-7	-15	21	-7448	496	15152	123	-20	-128	-14952	2608	-6968	8	-4	8	-96	1488	17032	18	4	11	127	125	5
-7324	-1436	14200	-9	18	-22	-14760	2824	-6256	-2	-1	-16	64	552	16872	-6	-12	24	-7384	208	14928	108	-36	-119	-14904	2472	-6768	6	-2	10	-288	1608	16864	19	-1	10	127	125	5
-7312	-1332	14224	-14	20	-18	-14744	2744	-6160	-2	-2	-13	144	368	16928	0	-12	23	-7496	344	14992	110	16	-155	-14880	2640	-6464	7	1	10	-224	1616	16952	20	-6	7	126	125	5
-7308	-1360	14192	-15	13	-27	-14872	2696	-6040	-5	2	-14	104	456	16960	-1	-15	31	-7384	344	15056	122	7	-107	-14944	2432	-6616	3	1	12	-192	1552	17072	21	-5	3	126	125	5
-7320	-1376	14180	-18	16	-22	-14912	2592	-6464	-2	-3	-15	48	528	17240	1	-20	29	-7568	400	15024	128	-51	-124	-14856	2608	-6712	8	-4	14	-208	1560	17008	15	-1	7	126	125	5
-7372	-1408	14208	-16	19	-17	-14904	2672	-6176	-2	0	-19	216	416	17096	-5	-13	30	-7672	352	15232	124	64	-110	-15056	2568	-6872	9	-2	13	-320	1504	16832	20	0	3	126	125	5
-7328	-1392	14256	-11	15	-24	-14808	2680	-6256	4	2	-11	200	496	16784	-5	-12	30	-7720	344	14992	95	17	-155	-14816	2504	-6896	9	-4	16	-192	1584	16784	19	-1	6	126	124	5
-7376	-1436	14052	-9	13	-26	-14872	2728	-6088	7	-6	-8	176	304	16992	-4	-18	25	-7520	336	15096	120	-45	-132	-14864	2528	-6872	18	-8	16	-456	1712	17088	21	1	5	127	125	5
-7320	-1364	14180	-13	16	-26	-14880	2704	-6248	5	-4	-9	168	224	16792	-6	-12	23	-7600	256	15168	149	-39	-121	-14896	2568	-6792	8	-3	14	-168	1552	16744	19	0	4	127	125	5
-7376	-1408	14076	-15	19	-24	-14736	2632	-6264	4	-5	-7	216	440	17040	-3	-11	26	-7600	392	15192	123	-15	-109	-14968	2544	-6632	9	-4	14	-232	1688	16912	25	0	7	126	125	5
-7296	-1384	14216	-15	16	-21	-14712	2688	-6136	1	-3	-8	160	424	16872	-2	-10	23	-7640	264	15408	101	-15	-121	-14880	2392	-6720	9	-4	15	-376	1592	17224	20	1	3	127	125	5
-7360	-1376	14152	-14	17	-19	-14872	2712	-6184	2	-4	-7	160	464	17048	-1	-16	22	-7456	232	14976	116	12	-124	-14984	2496	-6712	10	-6	16	-320	1528	16888	18	-4	2	127	125	5
-7352	-1364	14132	-15	18	-19	-14792	2520	-6264	2	1	-7	264	408	16880	0	-14	20	-7424	232	15280	132	-34	-132	-14984	2648	-6696	10	-7	17	-208	1560	17024	21	3	1	127	125	5
-7360	-1376	14132	-12	12	-20	-14800	2712	-6272	-2	-6	-5	224	368	16944	-3	-12	18	-7512	312	15216	101	-40	-151	-14888	2592	-6976	10	-5	17	-208	1512	17000	19	0	1	127	125	5
-7276	-1416	14160	-10	12	-25	-14832	2752	-6352	0	-3	-3	168	400	16936	2	-9	17	-7520	384	15040	117	-6	-128	-14808	2496	-6664	5	-10	19	-248	1568	17088	20	0	2	126	124	5
-7336	-1396	14108	-8	16	-19	-14912	2616	-6384	0	-3	-5	152	400	16792	7	-12	14	-7552	408	15024	139	45	-128	-14920	2552	-6688	3	-5	19	-344	1704	17024	22	-1	3	126	125	5
-7348	-1396	14132	-8	16	-20	-14832	2600	-6392	2	-3	-4	208	352	16920	0	-11	15	-7520	392	15192	160	25	-125	-14976	2520	-6776	10	-4	16	-184	1680	17208	20	1	7	126	125	5
-7340	-1388	14216	-14	17	-22	-14784	2648	-6296	-1	-7	-2	168	440	16904	1	-9	18	-7464	280	15312	117	-9	-129	-14960	2552	-6696	4	-7	18	-272	1496	16952	21	-3	5	127	125	5
-7304	-1388	14176	-12	16	-17	-14920	2648	-6072	0	-8	-1	320	520	17168	5	-13	20	-7608	400	14968	118	-27	-133	-14856	2536	-6680	9	-5	16	-224	1600	16936	25	2	9	126	125	5
-7304	-1364	14148	-12	15	-24	-14704	2688	-6192	-3	-5	-7	96	424	16960	6	-12	20	-7384	336	15144	136	-3	-153	-14920	2560	-6744	8	-2	17	-248	1720	16976	24	-2	7	126	125	5
-7300	-1384	14168	-9	12	-22	-14808	2728	-6400	-7	-6	-2	88	408	17024	4	-16	20	-7520	472	14936	114	-9	-110	-15088	2592	-6824	11	-5	17	-280	1576	17168	27	-2	12	126	124	5
-7316	-1404	14204	-14	12	-23	-14848	2544	-6320	0	-9	0	192	408	17160	11	-12	21	-7680	176	15040	122	-28	-146	-14888	2544	-6824	8	-4	14	-320	1704	16896	25	-2	8	126	126	5
-7256	-1360	14204	-16	15	-19	-14744	2840	-6464	-1	-6	-4	144	440	16832	8	-14	24	-7608	576	15112	128	-18	-105	-14920	2560	-6664	7	-3	13	-360	1568	17008	27	-2	11	126	126	5
-7312	-1460	14236	-12	18	-19	-14904	2720	-6296	-3	-11	-5	168	384	17048	12	-9	22	-7464	320	15064	135	-15	-126	-14920	2608	-6848	7	-3	18	-240	1576	16944	24	-1	7	126	125	5
-7308	-1436	14164	-7	16	-19	-14864	2880	-6304	3	-8	-2	96	472	16920	8	-9	19	-7584	416	15096	115	-34	-117	-14912	2592	-6768	9	-3	18	-232	1600	16968	24	5	7	126	125	5
-7348	-1356	14160	-14	14	-22	-14880	2816	-6120	-2	-10	-4	144	504	17008	6	-10	17	-7624	384	15160	146	-2	-111	-14896	2552	-6872	6	-5	17	-288	1584	17008	20	4	13	127	125	5
-7280	-1332	14064	-13	12	-21	-14760	2808	-6480	2	-6	-10	64	640	16880	0	-7	14	-7624	312	15112	166	2	-110	-14792	2560	-6744	9	-6	16	-192	1584	17128	18	6	11	126	125	5
-7328	-1396	14196	-12	11	-25	-14776	2832	-6232	2	-9	-3	192	560	16912	-2	-13	14	-7656	336	15112	137	35	-127	-14776	2576	-6968	7	-13	13	-184	1688	17080	23	5	9	127	125	5
-7320	-1436	14092	-14	13	-20	-14768	2792	-6384	1	-10	-9	168	504	17024	-2	-12	18	-7432	304	15128	142	-52	-116	-14912	2648	-6664	5	-4	13	-232	1664	17072	21	2	10	126	125	5
-7312	-1444	14180	-17	13	-21	-14864	2832	-6096	1	-12	-10	280	368	17120	-3	-10	20	-7576	400	14952	152	-19	-116	-14928	2536	-6592	9	-6	11	-224	1728	16944	19	6	9	127	125	5
-7284	-1424	14088	-12	16	-21	-14824	2832	-6248	5	-5	-10	0	528	17096	-3	-13	19	-7528	296	14904	115	-23	-130	-14840	2592	-6888	12	-8	13	-256	1840	17016	9	1	11	127	125	5
-7332	-1348	14208	-11	13	-20	-14784	2728	-6032	6	-5	-14	64	392	17072	-9	-17	19	-7576	384	15112	142	-40	-143	-14912	2536	-6792	11	-1	6	-144	1736	16944	8	5	8	127	125	5
-7284	-1440	14160	-17	16	-22	-14880	2792	-6232	7	-1	-12	240	520	16848	-11	-16	19	-7488	336	15040	92	3	-130	-14904	2560	-6872	16	-9	8	-248	1568	17168	5	3	11	127	125	5
-7308	-1376	14248	-15	14	-23	-14680	2984	-6160	4	-6	-9	200	496	16736	-9	-19	22	-7520	416	14976	82	-16	-170	-14936	2568	-6936	13	-6	4	-184	1624	16704	7	1	7	127	125	5
-7292	-1384	14128	-14	19	-22	-14912	2776	-6088	1	-2	-15	48	616	17144	-6	-15	26	-7560	312	15176	74	-6	-146	-14960	2568	-7000	8	-4	2	-232	1600	17128	3	0	11	126	125	5
-7352	-1356	14092	-18	16	-17	-14832	2728	-6384	3	4	-21	160	536	16944	-7	-17	28	-7560	376	15032	94	-45	-121	-14960	2656	-6720	3	-3	9	-264	1648	16992	6	0	12	127	125	5
-7352	-1360	14184	-17	18	-24	-14792	2736	-6160	3	-2	-19	32	560	16888	-7	-18	29	-7496	160	15336	104	-48	-119	-14880	2592	-6664	7	-1	0	-368	1664	16952	5	7	16	127	126	5
-7292	-1408	14164	-17	18	-22	-14984	2760	-6392	0	0	-18	272	504	16936	-8	-19	25	-7672	472	15160	109	0	-167	-14912	2592	-6712	12	-1	0	-144	1712	17016	8	4	11	127	125	5
-7340	-1432	14100	-16	23	-21	-14608	2760	-6344	9	1	-21	104	552	17056	-12	-20	33	-7536	368	15064	90	-44	-161	-14904	2640	-6664	8	-5	3	-192	1664	16904	5	2	13	127	126	5
-7376	-1428	14196	-18	18	-18	-14768	2720	-5992	10	4	-20	112	400	16904	-16	-20	34	-7592	472	15088	80	-63	-169	-14896	2632	-6608	9	-14	5	-96	1632	16936	7	9	11	127	126	5
-7344	-1396	14084	-18	15	-21	-14928	2776	-6320	9	-1	-25	224	480	16840	-16	-16	32	-7600	312	15264	42	-59	-155	-14944	2448	-6784	6	-3	-1	-168	1616	17144	5	6	14	127	125	5
-7328	-1456	14192	-12	20	-26	-14912	2680	-6168	5	4	-22	96	440	17120	-13	-19	31	-7600	288	15184	72	7	-180	-14904	2528	-6632	11	2	2	-264	1648	16848	4	4	16	127	125	5
-7244	-1324	14312	-21	20	-24	-14840	2704	-6144	5	-1	-23	368	528	16992	-12	-19	31	-7512	344	15120	81	-64	-175	-14760	2448	-6888	12	-1	3	-312	1576	17000	5	4	15	127	125	5
-7304	-1432	14156	-11	21	-23	-14744	2624	-6352	1	9	-26	176	480	16880	-18	-17	32	-7416	176	15248	112	-73	-158	-15096	2520	-6872	15	-5	4	-264	1392	17016	8	0	18	127	125	5
-7364	-1336	14184	-14	15	-22	-14864	2456	-6248	2	5	-22	296	400	17064	-16	-19	36	-7592	216	14992	85	-18	-133	-15056	2400	-6976	13	-3	0	-144	1416	17248	5	0	13	127	125	5
-7324	-1404	14160	-16	18	-21	-14808	2480	-6336	6	5	-21	160	368	17048	-13	-20	34	-7552	328	14904	98	-69	-139	-14880	2544	-6688	10	0	4	-304	1512	17032	12	1	14	127	125	5
-7344	-1428	14120	-16	14	-24	-14840	2704	-6336	-1	1	-22	184	432	16848	-10	-14	33	-7624	256	14968	69	-11	-162	-15104	2568	-6784	12	4	0	-344	1552	17224	8	3	17	127	125	5
-7328	-1408	14264	-15	17	-22	-14864	2688	-6288	3	-1	-16	272	88	17272	-3	-11	30	-7560	336	14952	106	-20	-139	-15048	2496	-6704	11	-3	3	-376	1552	17248	11	0	16	127	126	5
-7336	-1408	14172	-12	18	-20	-14832	2728	-6312	3	-2	-17	232	288	16960	0	-17	31	-7408	368	15192	90	2	-135	-14832	2544	-6752	6	0	4	-480	1504	17368	12	2	11	126	126	5
-7368	-1424	14204	-15	16	-19	-14728	2632	-6192	2	-1	-15	280	360	16904	-2	-15	31	-7560	312	15192	119	-73	-152	-14896	2520	-6856	11	-6	3	-392	1384	17088	14	2	14	127	126	5
-7292	-1392	14312	-16	16	-22	-14904	2552	-6392	2	0	-17	208	304	16824	0	-18	30	-7320	368	14912	110	-9	-130	-14936	2456	-6912	10	2	7	-184	1480	16944	15	-1	14	127	126	5
-7360	-1448	14200	-9	16	-17	-14768	2704	-6368	-5	-5	-11	256	208	17104	-2	-13	25	-7424	184	14896	129	10	-138	-15080	2504	-6728	12	-2	10	-160	1496	16880	20	-2	10	127	126	5
-7304	-1356	14136	-19	18	-23	-14856	2560	-6296	-2	-11	-7	232	400	16904	-2	-14	25	-7584	368	15080	91	-45	-152	-14984	2536	-6800	11	0	11	-136	1568	17328	15	-1	10	127	125	5
-7344	-1352	14184	-13	13	-22	-14800	2680	-6400	-3	-5	-8	160	240	16960	-4	-11	26	-7600	480	15056	105	-27	-113	-15048	2488	-6584	8	-2	11	-424	1368	17008	15	0	9	127	125	5
-7344	-1372	14104	-13	15	-20	-14792	2632	-6192	0	-10	-1	192	432	16992	-4	-14	17	-7504	392	14960	150	-6	-154	-14976	2488	-6904	12	-11	17	-240	1416	16904	25	-4	7	127	125	5
-7352	-1432	14176	-15	13	-24	-14944	2624	-6320	3	-8	-8	280	224	17040	-5	-9	21	-7488	352	14960	148	8	-112	-14888	2424	-6808	15	-9	24	-176	1408	16960	22	1	5	127	125	5
-7360	-1396	14188	-11	14	-23	-14808	2736	-6256	6	-6	-7	248	320	16936	-3	-9	21	-7504	216	15104	143	23	-102	-14880	2536	-6704	10	-6	19	-80	1440	17192	28	2	1	127	125	5
-7304	-1456	14020	-15	14	-20	-14792	2680	-6224	4	-5	-4	200	408	16952	-4	-11	19	-7472	392	14920	113	30	-110	-14984	2496	-6560	10	-2	24	-288	1496	16792	30	-1	3	127	125	5
-7384	-1352	14144	-10	18	-19	-14880	2704	-6456	4	-4	-2	160	520	17072	-3	-10	16	-7632	280	15312	161	30	-157	-14880	2456	-6904	9	-5	20	-272	1384	17008	26	-1	-2	127	125	5
-7320	-1404	14208	-13	15	-21	-14768	2688	-6296	-1	0	1	328	440	16952	-3	-11	22	-7440	240	15336	160	9	-134	-15048	2576	-6824	4	-1	20	-8	1496	17128	24	-2	0	127	125	5
-7352	-1336	14180	-9	15	-21	-14808	2712	-6320	-6	-2	-8	256	376	16872	-1	-8	23	-7608	248	15016	128	26	-128	-14992	2472	-6808	1	1	25	-272	1480	17056	32	-1	-6	127	125	5
-7304	-1412	14136	-11	15	-18	-14808	2792	-6392	-2	1	-1	144	384	16888	0	-17	17	-7520	320	14824	122	-49	-130	-14976	2512	-6584	8	0	25	-192	1656	16904	27	-6	-2	127	125	5
-7252	-1372	14148	-12	14	-23	-14816	2688	-6328	0	4	-1	208	352	17160	8	-9	22	-7520	352	15008	140	37	-109	-14872	2488	-6792	4	-3	23	-208	1600	17016	29	1	-8	127	125	5
-7268	-1408	14044	-13	14	-19	-14736	2600	-6400	1	0	2	88	296	16920	10	-9	18	-7512	304	15200	145	9	-128	-14920	2560	-6824	7	-2	25	-416	1544	17088	24	-1	-3	127	125	5
-7344	-1424	14136	-16	16	-17	-14688	2672	-6296	2	-5	1	168	480	16992	7	-10	20	-7648	512	15088	121	59	-134	-14696	2504	-6712	6	-2	23	-304	1680	16912	24	-4	-2	127	125	5
-7320	-1348	14256	-10	15	-21	-14800	2696	-6328	2	-4	0	168	320	16952	3	-9	16	-7336	272	15016	157	-40	-126	-14984	2440	-6576	6	-2	22	-392	1552	17072	25	-3	1	126	125	5
-7360	-1404	14188	-15	15	-21	-14840	2776	-6200	5	-3	3	128	280	16896	5	-9	12	-7600	224	14968	126	7	-112	-14936	2432	-6752	10	-4	21	-280	1616	16976	26	-3	4	127	125	5
-7292	-1400	14196	-12	17	-25	-14816	2640	-6392	0	-6	0	232	424	17024	8	-10	18	-7576	384	15192	136	5	-127	-14888	2448	-6920	7	-6	15	-280	1664	16888	26	-3	4	127	125	5
-7312	-1372	14236	-13	14	-21	-14864	2632	-6264	-1	-9	-1	24	472	16960	6	-12	16	-7552	312	14936	110	-11	-126	-15040	2616	-6944	9	-7	16	-392	1624	17016	25	-1	5	126	125	5
-7324	-1444	14028	-8	13	-19	-14888	2704	-6288	-6	-7	-1	120	368	16944	7	-10	15	-7448	384	14776	145	-26	-126	-14920	2576	-6616	9	-6	13	-240	1616	16968	21	0	10	127	124	5
-7324	-1400	14216	-15	15	-22	-14784	2688	-6120	-2	-6	-4	24	288	16936	6	-11	16	-7416	336	15224	84	-58	-104	-14976	2512	-6880	7	-3	10	-152	1568	16816	17	1	9	126	124	5
-7328	-1384	14168	-16	15	-22	-14848	2720	-6200	-3	-8	2	320	304	17112	4	-11	18	-7464	192	15056	125	-29	-138	-14856	2664	-6624	9	-5	11	-264	1440	17232	21	0	11	127	124	5
-7296	-1332	14144	-10	15	-22	-14744	2600	-6224	4	-9	-5	88	480	17176	5	-12	17	-7424	384	15248	92	3	-148	-14944	2464	-6904	7	-10	11	-288	1552	17200	19	-1	11	127	124	5
-7392	-1400	14212	-11	14	-24	-14848	2696	-6344	1	-6	-4	200	456	17064	4	-10	19	-7424	312	15184	111	-24	-143	-14840	2576	-6624	9	-9	12	-152	1488	17072	15	0	12	127	124	5
-7260	-1396	14000	-10	12	-26	-14776	2680	-6264	2	-3	-3	256	360	16960	-1	-12	22	-7552	288	15128	131	-56	-138	-14976	2528	-6872	9	-4	10	-208	1688	17256	19	-4	11	127	124	5
-7320	-1384	14128	-12	12	-25	-14784	2680	-6192	8	-4	-9	8	464	17072	1	-12	18	-7640	408	15144	104	-37	-123	-14968	2448	-6920	12	-7	10	-344	1488	17032	20	0	7	127	124	5
-7296	-1424	14240	-10	15	-23	-14680	2728	-6296	3	-9	-14	128	416	17104	-1	-13	26	-7568	288	15032	116	-19	-128	-15024	2496	-6872	11	-3	13	-288	1504	17280	16	0	8	126	124	5
-7340	-1456	14208	-15	15	-19	-14824	2672	-6448	-1	-3	-11	168	536	16944	1	-11	21	-7520	344	15080	115	-32	-126	-14920	2440	-6912	9	-3	11	-240	1704	16960	17	-1	9	126	124	5
-7312	-1360	14168	-13	12	-20	-14760	2736	-6144	0	-1	-9	128	384	17128	-4	-12	27	-7568	296	15064	101	-48	-160	-15064	2624	-6792	6	-7	8	-304	1544	16920	19	-1	7	126	125	5
-7320	-1456	14192	-17	21	-21	-14944	2720	-6240	3	-5	-13	256	520	17128	-4	-16	31	-7528	432	15056	78	4	-164	-14896	2648	-6584	4	-2	13	-368	1648	17080	18	3	7	126	125	5
-7308	-1416	14188	-14	18	-23	-14688	2800	-6560	7	-2	-18	208	448	16928	-4	-17	27	-7528	376	14968	98	-22	-123	-14816	2544	-6504	5	-4	11	-312	1424	17000	15	2	8	126	125	5
-7360	-1412	14132	-13	15	-24	-14912	2704	-6328	2	-1	-10	200	368	17080	-4	-13	29	-7624	432	15160	95	-41	-148	-14872	2520	-6752	8	-2	11	-248	1600	16912	14	4	2	126	125	5
-7356	-1504	14176	-16	20	-20	-14800	2704	-6344	-1	0	-13	360	336	16840	-5	-17	30	-7600	448	14952	148	-5	-151	-14936	2624	-6600	10	-4	9	-264	1464	17112	16	1	4	126	125	5
-7384	-1380	14212	-16	17	-21	-14912	2624	-6296	5	1	-16	56	400	16800	-5	-17	26	-7496	120	15056	83	29	-112	-14936	2488	-6696	8	0	15	-400	1568	17144	16	-2	8	126	124	5
-7324	-1444	14092	-11	14	-22	-14664	2696	-6312	2	2	-12	160	232	16880	-5	-15	27	-7520	400	15216	116	29	-147	-14984	2560	-6728	7	2	11	-224	1672	17120	17	3	11	126	124	5
-7328	-1340	14252	-16	15	-23	-14920	2760	-6416	8	1	-13	184	400	17120	-5	-14	29	-7464	344	15152	113	-5	-116	-14944	2496	-6936	6	2	9	-136	1536	17128	20	-2	7	126	124	5
-7324	-1412	14096	-13	15	-19	-14872	2624	-6288	-1	5	-13	80	296	16912	-3	-14	26	-7496	328	15080	79	-16	-106	-15008	2464	-6656	8	3	12	-272	1632	16952	19	-3	7	126	124	5
-7356	-1312	14176	-11	13	-19	-14872	2672	-6368	-2	-2	-12	80	280	16880	-3	-15	23	-7560	424	14896	120	-27	-136	-15040	2368	-6816	12	0	13	-264	1512	17184	23	0	6	126	124	5
-7400	-1456	14148	-13	17	-20	-14800	2600	-6456	1	0	-8	264	280	17120	-3	-13	28	-7464	384	15152	108	-23	-149	-14928	2552	-6664	11	-2	12	-176	1704	16944	19	2	7	126	123	5
-7328	-1408	14072	-10	21	-18	-14784	2600	-6272	1	4	-9	208	352	17144	1	-12	21	-7624	304	15056	88	-33	-133	-14920	2560	-6648	12	1	12	-112	1560	16888	16	-1	4	126	123	5
-7296	-1444	14164	-10	17	-18	-14904	2576	-6296	5	-1	-6	16	288	17104	5	-9	22	-7472	376	15216	101	-30	-126	-14880	2536	-6696	7	-1	14	-264	1504	17088	20	3	9	126	123	5
-7268	-1432	14080	-9	11	-22	-14688	2712	-6256	2	-4	-8	128	496	16920	3	-13	18	-7624	536	14984	94	36	-126	-14904	2368	-6848	9	-1	18	-392	1488	16992	23	3	12	126	123	5
-7324	-1448	14220	-10	17	-22	-14832	2728	-6216	1	-1	-4	200	192	17048	-3	-10	21	-7440	280	15192	77	-13	-122	-14920	2560	-6728	13	-5	13	-288	1416	16936	26	0	9	126	123	5
-7328	-1372	14092	-13	14	-24	-14984	2672	-6272	0	-11	-4	224	384	17040	1	-11	22	-7416	264	15112	101	0	-127	-14896	2472	-6728	8	-5	16	-296	1408	16936	24	0	9	126	123	5
-7284	-1388	14128	-10	17	-24	-14936	2680	-6368	-5	-2	-11	56	304	17256	7	-9	18	-7544	512	14984	104	-10	-155	-14984	2496	-6864	12	-4	14	-288	1432	17232	23	2	8	126	124	5
-7356	-1444	14256	-9	10	-19	-14816	2640	-6136	-1	-5	-2	96	384	16904	11	-14	19	-7520	352	14992	127	-29	-138	-14904	2520	-6608	12	-4	16	-208	1464	17112	26	1	8	126	124	5
-7332	-1360	14136	-12	18	-24	-14712	2704	-6136	-1	0	-1	112	536	16936	5	-11	18	-7576	280	14800	149	-31	-123	-14936	2568	-6952	19	-7	14	-216	1576	17048	25	2	4	126	124	5
-7316	-1368	14160	-7	15	-22	-14824	2616	-6168	0	-5	-7	208	480	17096	3	-9	18	-7528	368	15112	144	12	-120	-14832	2496	-6752	10	-8	15	-352	1608	16880	20	0	-1	126	124	5
-7284	-1432	14028	-8	17	-18	-14872	2720	-6152	-1	-5	-1	176	624	17112	-2	-12	19	-7496	120	15232	133	-29	-90	-14920	2464	-6912	5	-3	16	-248	1512	17064	21	-2	2	126	124	5
-7352	-1368	14160	-11	16	-21	-14904	2584	-6224	5	-4	-2	208	416	16872	0	-9	17	-7464	400	15096	168	-39	-108	-14960	2688	-6600	9	-8	17	-160	1664	17000	20	-3	1	126	124	5
-7300	-1364	14128	-11	15	-22	-14816	2720	-6456	1	-4	-6	288	504	17040	2	-10	21	-7576	456	15144	125	49	-98	-14920	2432	-6776	7	-3	18	-224	1536	17072	20	0	3	126	124	5
-7316	-1428	14168	-12	14	-25	-14768	2688	-6344	4	-5	-8	96	304	17096	7	-9	23	-7496	232	14952	116	-8	-101	-14856	2512	-6696	11	-4	17	-272	1688	16912	25	-2	2	125	124	5
-7316	-1388	14144	-12	18	-24	-15016	2808	-6216	-2	-4	-6	232	408	16944	5	-13	21	-7544	160	15216	142	-20	-104	-14960	2632	-6680	11	-9	21	-256	1608	16952	23	-3	3	125	123	5
-7288	-1396	14188	-9	16	-22	-14784	2800	-6288	-3	-3	-6	272	496	17056	4	-12	24	-7416	352	15056	118	-10	-113	-14960	2496	-6624	7	-1	15	-280	1456	16992	18	-1	3	126	123	5
-7304	-1340	14124	-13	17	-22	-14808	2768	-6384	3	-5	-6	160	336	16848	3	-15	21	-7392	344	14984	134	-20	-124	-14936	2632	-6688	5	-2	18	-256	1568	16832	22	-4	5	126	123	5
-7364	-1388	14152	-13	14	-23	-14928	2744	-6120	5	-7	-7	192	288	16872	2	-10	25	-7432	440	15104	115	38	-124	-14992	2512	-6680	3	-7	15	-376	1528	17016	24	-1	7	126	123	5
-7340	-1380	14192	-15	18	-22	-14720	2728	-6176	-1	-3	-7	152	456	17000	2	-15	23	-7528	352	15160	112	-14	-121	-14912	2568	-6752	4	-6	15	-288	1624	16840	26	1	9	126	123	5
-7300	-1384	14236	-14	16	-22	-14864	2608	-6368	0	-3	-12	96	472	17144	0	-12	24	-7584	328	14936	121	-9	-122	-15064	2648	-6856	12	-5	15	-344	1696	16960	26	-2	7	126	123	5
-7364	-1404	14124	-16	15	-20	-14864	2696	-6312	0	-8	-7	208	384	16792	1	-14	23	-7488	352	15128	124	-12	-139	-15000	2512	-6936	10	-1	10	-240	1552	17168	25	1	6	126	125	5
-7276	-1384	14108	-15	17	-25	-14840	2712	-6344	-4	-6	-11	80	288	16984	-1	-15	24	-7512	384	15096	128	-19	-123	-14920	2640	-6912	13	-7	16	-288	1488	16976	24	-1	5	126	125	5
-7368	-1392	14144	-12	15	-25	-14848	2600	-6160	5	-4	-10	88	400	17048	0	-14	23	-7592	248	15136	95	-44	-136	-14920	2536	-6608	12	-8	14	-264	1584	16976	20	0	3	126	125	5
-7324	-1416	14104	-17	18	-25	-14952	2672	-6152	2	-4	-11	168	416	16960	-1	-13	26	-7448	208	15192	117	-48	-105	-14984	2544	-6744	7	-1	13	-168	1728	17024	16	1	7	126	125	5
-7348	-1368	14216	-13	13	-25	-14768	2648	-6160	-1	-6	-10	240	480	16968	-1	-18	24	-7528	456	15224	104	-32	-156	-15000	2632	-6880	10	-2	12	-128	1584	16912	15	1	5	126	125	5
-7336	-1392	14116	-15	10	-21	-14776	2712	-6368	0	-2	-5	208	328	16896	-8	-15	25	-7416	424	15192	91	19	-108	-14952	2464	-6712	9	-11	13	-264	1528	17328	15	-1	8	126	125	5
-7288	-1368	14192	-15	14	-24	-14712	2584	-6464	2	-1	-9	232	336	16992	-9	-14	25	-7464	384	15064	89	-13	-117	-14896	2552	-6672	11	-4	11	-240	1432	16992	19	2	14	126	124	5
-7312	-1416	14172	-16	14	-23	-14856	2848	-6328	2	-4	-8	232	408	17032	1	-13	22	-7560	400	15008	121	-20	-101	-14912	2568	-6656	7	1	12	-352	1520	16944	20	6	12	126	124	5
-7344	-1340	14260	-14	12	-20	-14888	2640	-6400	0	-6	-13	168	416	17224	2	-12	26	-7552	384	14920	157	-16	-121	-14888	2424	-6752	10	-4	15	-328	1312	17024	21	2	12	126	124	5
-7276	-1352	14156	-17	17	-22	-14816	2664	-6176	1	-1	-15	200	568	16944	-3	-13	26	-7624	416	15144	105	-27	-143	-14944	2592	-6824	14	0	11	-232	1568	17056	19	2	12	126	124	5
-7332	-1384	14208	-18	17	-26	-14864	2744	-6384	5	-1	-11	128	416	16936	-6	-8	28	-7648	376	14992	84	29	-136	-14856	2664	-6656	11	-3	12	-192	1560	17032	16	1	8	126	124	5
-7356	-1400	14160	-12	15	-20	-14776	2584	-6168	0	-4	-10	360	328	17072	-8	-14	29	-7512	352	15104	122	33	-138	-15040	2488	-6784	5	-8	11	-320	1512	16888	19	-1	9	126	124	5
-7360	-1396	14200	-12	15	-23	-14832	2640	-6288	2	-2	-7	104	400	17056	-2	-16	24	-7520	384	15184	123	-13	-117	-15024	2544	-6728	6	-5	12	-208	1616	16920	18	-1	7	126	124	5
-7248	-1400	14048	-12	16	-24	-14736	2728	-6304	2	-2	-10	232	472	16856	1	-13	22	-7568	384	15128	113	-40	-165	-14928	2448	-6792	6	-2	12	-304	1400	17000	17	2	10	126	124	5
-7352	-1384	14084	-13	18	-19	-14680	2736	-6264	1	-6	-8	248	384	16816	3	-11	21	-7504	384	15096	136	0	-151	-14936	2584	-6688	10	-4	12	-376	1520	16880	20	-2	6	126	124	5
-7400	-1388	14180	-10	14	-21	-14808	2584	-6424	-1	0	-6	224	432	16952	1	-11	24	-7512	168	14896	124	17	-142	-15104	2504	-6952	9	-7	15	-224	1520	16960	20	0	2	126	125	5
-7332	-1420	14232	-9	14	-21	-14840	2680	-6408	0	-4	-11	200	432	17136	2	-13	22	-7496	368	14944	113	-10	-148	-14912	2432	-6776	11	-7	15	-240	1568	17056	20	4	7	126	125	5
-7300	-1404	14160	-6	12	-20	-14960	2544	-6168	2	-3	-10	48	440	16952	-4	-12	24	-7600	272	15168	122	23	-123	-14840	2656	-6872	9	-8	16	-256	1576	16904	20	2	6	126	125	5
-7376	-1352	14276	-13	16	-21	-14832	2632	-6112	4	-4	-5	56	456	16816	-3	-12	22	-7496	272	15192	99	-25	-143	-14856	2568	-6656	10	-10	16	-152	1424	17280	20	-2	4	126	125	5
-7420	-1376	14232	-15	18	-22	-14840	2664	-6424	1	-6	-8	128	296	17112	-3	-9	18	-7416	248	15208	85	2	-100	-14960	2520	-6712	4	-1	18	-232	1424	17304	23	1	5	126	125	5
-7316	-1400	14180	-16	14	-22	-14976	2576	-6400	-2	-8	-10	264	392	17016	2	-18	22	-7400	296	15176	109	13	-119	-14992	2552	-6800	6	-3	14	-408	1816	17080	24	0	3	126	124	5
-7324	-1396	14216	-12	17	-24	-14720	2760	-6248	1	-6	-6	48	384	17096	1	-16	21	-7600	344	14960	135	-39	-129	-14976	2632	-6744	15	-7	14	-216	1464	17072	22	2	3	126	124	5
-7316	-1416	14176	-13	14	-23	-14888	2672	-6384	0	-2	-3	112	360	16904	6	-15	22	-7464	264	15208	120	-17	-102	-14856	2504	-6808	11	-2	14	-224	1536	17088	20	0	4	126	124	5
-7344	-1392	14288	-15	13	-17	-14600	2624	-6560	-1	-8	-1	264	344	17240	3	-13	22	-7400	336	15264	143	-39	-112	-14920	2576	-6880	10	-8	15	-256	1464	16856	21	0	3	126	124	5
-7340	-1336	14128	-16	13	-23	-15056	2728	-6552	-1	0	-3	120	304	16912	1	-16	19	-7416	256	15040	119	-14	-72	-14936	2496	-6680	8	-6	13	-128	1536	17112	23	-2	6	126	124	5
-7256	-1432	14168	-14	17	-20	-14800	2600	-6040	4	-10	-6	256	384	16880	3	-10	18	-7512	280	15152	145	-58	-66	-14816	2504	-6768	6	-6	19	-176	1496	17088	22	-2	5	126	124	5
-7304	-1356	14212	-11	14	-22	-14704	2664	-6176	2	-4	-7	208	536	16904	1	-12	20	-7416	400	15184	110	-9	-86	-15040	2504	-6696	6	0	20	-240	1520	16784	23	-2	9	126	124	5
-7320	-1388	14108	-13	19	-24	-14832	2712	-6312	0	-8	-8	152	480	16984	-3	-10	22	-7608	400	15024	120	34	-116	-14840	2632	-6688	4	-4	16	-248	1552	16952	22	-1	7	126	124	5
-7364	-1396	14180	-10	17	-22	-14976	2704	-5936	-5	-3	-11	216	344	16944	2	-10	24	-7440	392	14976	127	-29	-119	-15008	2576	-6752	9	-4	19	-272	1512	17080	18	1	7	126	125	5
-7380	-1384	14196	-9	13	-22	-14768	2720	-6240	-6	-4	-7	216	448	17016	2	-14	22	-7384	456	15064	155	-8	-111	-14896	2520	-6656	10	-11	17	-288	1576	16888	19	-1	2	126	125	5
-7336	-1464	14208	-16	12	-19	-14904	2736	-6184	3	-4	-7	288	528	16896	5	-10	21	-7496	376	15016	142	-15	-94	-14912	2536	-6968	8	-3	15	-352	1776	16904	17	-1	0	126	125	5
-7348	-1424	14192	-12	15	-21	-14784	2760	-6344	9	-2	0	200	560	16848	-4	-12	19	-7352	400	14920	127	3	-143	-14976	2528	-6664	10	-2	19	-192	1648	17024	20	-2	7	126	125	5
-7404	-1364	14152	-13	14	-19	-14856	2800	-6248	6	1	-4	168	456	17192	-1	-12	24	-7512	408	15176	119	28	-134	-14968	2624	-6864	8	-2	19	-112	1648	17008	18	-1	4	126	125	5
-7328	-1352	14228	-9	16	-20	-14872	2664	-6248	3	-3	-10	48	400	16688	0	-13	26	-7504	344	15080	122	-19	-149	-14832	2512	-6784	8	1	15	-384	1544	16936	22	3	4	126	126	5
-7304	-1384	14204	-9	16	-19	-14872	2608	-6312	0	-2	-10	288	496	16848	3	-13	25	-7592	408	14928	111	-19	-141	-14944	2552	-6848	5	-1	16	-296	1624	17080	19	-3	4	126	125	5
-7312	-1440	14116	-14	15	-18	-14776	2792	-6480	1	-4	-10	104	528	17104	-2	-16	26	-7552	224	15072	103	30	-152	-14960	2456	-6944	5	1	13	-312	1616	17032	16	0	5	126	125	5
-7320	-1372	14220	-9	16	-19	-14872	2680	-6352	3	0	-7	96	456	17128	1	-10	26	-7640	312	15040	110	-34	-154	-14880	2632	-6632	8	2	12	-352	1544	17024	16	0	5	126	125	5
-7364	-1384	14228	-15	16	-23	-14696	2680	-6376	3	-2	-11	144	552	17248	0	-11	24	-7512	312	15184	99	-34	-123	-15032	2488	-6936	7	-3	12	-344	1624	17096	21	-2	16	126	125	5
-7284	-1416	14092	-13	15	-21	-14928	2696	-6408	2	-1	-12	168	376	16592	-2	-10	26	-7440	456	15096	132	-32	-144	-14848	2496	-6920	4	5	12	-312	1424	16896	21	-2	12	126	125	5
-7288	-1360	14316	-15	16	-20	-14784	2624	-6336	1	-4	-10	104	448	16880	-3	-9	26	-7448	328	15064	122	-47	-136	-14920	2336	-6784	9	-5	7	-280	1456	17032	21	-1	12	126	125	5
-7320	-1436	14216	-17	18	-19	-14992	2736	-6240	2	-5	-11	184	480	17000	-1	-11	23	-7488	280	14968	101	-17	-166	-14984	2456	-6728	11	-3	7	-280	1456	17000	21	5	9	126	125	5
-7344	-1324	14284	-12	19	-23	-14824	2680	-6120	0	-3	-8	184	360	16704	0	-12	24	-7536	312	15008	88	37	-140	-14944	2488	-6728	11	-1	13	-264	1536	16976	23	-1	8	126	125	5
-7324	-1372	14112	-15	16	-23	-14848	2576	-6384	4	-2	-8	176	240	16784	1	-13	26	-7552	392	15064	91	-48	-111	-15000	2464	-6688	12	-7	11	-352	1624	17056	21	5	7	126	125	5
-7336	-1348	14204	-17	17	-26	-14744	2800	-6072	1	-5	-8	56	408	16936	2	-11	20	-7656	496	15032	123	-47	-97	-14952	2560	-6856	13	-7	9	-192	1552	16888	16	2	9	126	125	5
-7332	-1428	14128	-13	14	-22	-14768	2728	-6168	0	-7	-8	192	368	16704	-2	-11	21	-7512	392	15064	114	-16	-143	-14944	2536	-6584	11	0	14	-168	1616	16936	18	1	6	126	125	5
-7316	-1384	14248	-18	16	-19	-14912	2704	-6144	5	-5	-12	336	352	16928	-5	-13	25	-7584	376	15056	94	44	-129	-14920	2488	-6768	12	-5	12	-120	1672	16896	16	2	7	126	125	5
-7316	-1384	14272	-15	18	-22	-14864	2712	-6296	5	-2	-8	176	448	16832	-5	-12	24	-7464	336	14984	136	-16	-139	-14928	2464	-6712	8	-1	15	-304	1416	16760	15	1	2	126	125	5
-7340	-1464	14216	-13	16	-22	-14816	2640	-6376	6	1	-7	200	416	16904	-3	-16	23	-7528	328	15016	114	7	-148	-15048	2568	-6800	9	1	13	-144	1552	17176	22	-5	4	126	124	5
-7340	-1396	14152	-14	14	-20	-14800	2584	-6528	5	5	-4	240	360	16952	0	-16	26	-7528	352	15072	154	-72	-111	-14856	2600	-6792	5	5	14	-344	1592	17184	19	-4	4	126	124	5
-7380	-1420	14172	-7	16	-19	-14832	2816	-6176	0	0	-7	208	424	16832	0	-14	28	-7368	272	15256	137	3	-118	-14960	2544	-7040	7	5	11	-256	1632	17240	19	1	4	127	124	5
-7344	-1376	14144	-15	13	-22	-14856	2624	-6600	-2	4	-5	160	464	17032	2	-16	25	-7472	256	14944	125	-28	-157	-14880	2488	-6904	8	3	10	-280	1584	17224	20	-7	1	127	124	5
-7376	-1416	14136	-17	20	-22	-14880	2736	-6536	-4	1	-8	160	456	16760	1	-15	20	-7600	312	15104	138	-48	-124	-14888	2536	-6840	9	-5	14	-368	1520	17048	17	-6	3	126	124	5
-7372	-1444	14124	-14	18	-21	-14824	2760	-6400	4	1	-3	144	376	16992	-1	-12	22	-7472	392	14984	112	-29	-156	-14920	2584	-6816	5	-2	15	-376	1496	17072	18	-1	7	126	125	5
-7360	-1380	14164	-12	13	-25	-14784	2584	-6416	-1	-3	-6	168	368	16880	0	-13	19	-7448	272	15032	142	-29	-104	-14768	2464	-6944	8	1	14	-344	1504	17016	20	-2	12	126	125	5
-7344	-1356	14124	-16	16	-19	-14832	2720	-6144	4	-10	-4	8	440	17032	1	-9	16	-7592	224	15208	136	-41	-127	-14984	2632	-6872	10	-5	17	-288	1592	17008	19	3	10	127	125	5
-7308	-1396	14108	-15	13	-25	-14720	2704	-6136	4	-9	-6	216	360	16960	6	-13	19	-7560	368	15056	109	-42	-106	-14832	2592	-6800	10	-9	11	-272	1504	17072	23	0	12	126	125	5
-7280	-1364	14120	-14	17	-21	-14832	2712	-6184	-1	-13	-3	232	280	17024	9	-10	16	-7544	432	15032	124	-43	-92	-14928	2600	-6768	12	-7	12	-272	1536	17072	25	3	11	127	125	5
-7324	-1412	14140	-10	15	-24	-14840	2752	-6160	1	-8	-1	168	432	17008	7	-9	19	-7400	392	14944	118	-41	-151	-15024	2464	-6776	10	-7	20	-296	1456	17152	29	0	10	127	125	5
-7312	-1432	14300	-14	14	-23	-14920	2712	-6416	1	-8	1	184	448	16872	3	-9	20	-7552	312	15000	113	-31	-121	-15064	2536	-6816	13	-6	17	-304	1624	17032	25	0	5	127	125	5
-7292	-1308	14156	-15	15	-24	-14848	2744	-6400	0	-7	-2	168	376	16952	4	-3	16	-7504	352	15088	110	-17	-102	-14904	2528	-6712	9	-7	19	-288	1432	16888	27	6	4	127	125	5
-7316	-1412	14116	-13	12	-22	-14888	2864	-6168	3	-11	-6	120	336	17064	6	-8	16	-7656	248	15192	168	-15	-175	-14840	2544	-6536	5	-2	20	-408	1480	17200	27	-1	1	127	125	5
-7360	-1400	14204	-17	16	-23	-14832	2736	-6352	2	-8	1	176	600	17152	6	-9	18	-7600	312	15080	119	-46	-109	-15048	2512	-6672	3	-8	19	-352	1416	17000	32	-1	2	127	125	5
-7292	-1360	14272	-16	15	-24	-14960	2624	-6248	0	-9	-4	184	512	17136	4	-9	15	-7672	320	15080	145	-59	-130	-14936	2504	-6840	0	-6	22	-440	1576	17168	32	-3	3	127	124	5
-7348	-1392	14188	-13	12	-21	-14760	2648	-6344	-2	-8	-8	128	584	17032	2	-10	18	-7512	408	15152	150	-55	-109	-14920	2696	-6696	2	-10	20	-248	1576	17120	31	-1	5	127	125	5
-7324	-1368	14212	-9	12	-24	-14800	2688	-6288	-1	-13	-2	152	424	17016	6	-9	15	-7448	416	14848	129	31	-124	-15104	2616	-6952	6	-11	19	-144	1432	17120	28	0	4	127	125	5
-7308	-1420	14132	-10	15	-20	-14928	2648	-6104	-7	-11	-11	160	424	16784	8	-11	13	-7376	408	15088	165	3	-137	-14920	2520	-7008	13	-14	24	-296	1528	16920	26	-3	1	126	124	5
-7304	-1420	14156	-12	16	-21	-14848	2712	-6448	-3	-14	-3	280	440	16872	9	-7	18	-7456	328	15216	153	30	-133	-14968	2656	-6504	16	-9	22	-128	1456	16968	25	0	1	127	125	5
-7316	-1400	14088	-13	16	-24	-14808	2624	-6448	7	-6	-6	384	536	17064	6	-10	13	-7552	376	15080	139	56	-151	-15032	2632	-6752	17	-9	23	32	1536	16936	21	-1	-5	127	125	5
-7324	-1480	14140	-10	14	-18	-14768	2672	-6384	8	-5	-4	312	608	17024	-2	-13	21	-7568	352	15096	99	43	-97	-14856	2496	-6552	12	-6	26	-144	1688	16896	23	-1	-4	126	126	5
-7328	-1372	14184	-14	16	-22	-14872	2688	-6312	10	2	-1	224	424	17064	-7	-11	20	-7584	504	14936	161	17	-129	-14848	2552	-6688	11	3	21	-144	1648	16904	27	-3	-4	127	125	5
-7320	-1352	14116	-12	16	-19	-14864	2840	-6072	6	2	-4	160	456	17040	-3	-11	24	-7568	320	15016	112	29	-161	-14872	2656	-6584	8	6	22	-176	1776	17112	24	-2	-4	127	126	5
-7252	-1428	14244	-15	17	-19	-14776	2880	-6448	-5	8	-7	160	480	16936	1	-14	24	-7552	328	15000	98	-13	-151	-14920	2624	-6816	5	4	15	-264	1656	17112	29	2	-3	127	125	5
-7304	-1376	14256	-11	16	-21	-14768	2648	-6176	-11	8	-12	176	328	16960	3	-13	27	-7696	264	15168	106	-2	-128	-14960	2584	-6664	4	7	19	-432	1760	17008	22	-4	5	127	125	5
-7368	-1404	14180	-15	17	-20	-14840	2688	-6328	-4	3	-5	216	368	17040	3	-12	31	-7536	296	15248	98	16	-127	-14848	2520	-6808	4	6	11	-320	1880	17064	19	-1	5	127	125	5
-7308	-1440	14080	-14	15	-22	-14928	2776	-6344	-6	0	-4	24	328	16920	4	-12	28	-7576	336	15040	122	-23	-147	-14960	2592	-6944	3	4	9	-392	1504	16856	17	0	11	127	125	5
-7280	-1352	14164	-13	17	-24	-14904	2744	-6312	7	0	-3	96	432	16960	-2	-16	25	-7584	352	15152	102	-19	-122	-14880	2552	-6712	8	7	6	-440	1688	17200	20	-1	14	127	125	5
-7244	-1404	14212	-12	14	-26	-14840	2712	-6384	5	-5	-1	72	424	16848	4	-10	25	-7536	248	15080	91	25	-146	-15008	2592	-6808	9	-6	5	-496	1624	16960	16	-4	16	127	125	5
-7372	-1376	14196	-12	16	-18	-14872	2696	-6344	7	-2	-5	56	552	17104	3	-8	18	-7552	400	15160	97	-5	-141	-14936	2560	-6840	12	-6	8	-312	1624	17120	12	3	16	127	125	5
-7332	-1432	14192	-11	14	-22	-14840	2704	-6248	0	-7	-10	208	592	16936	6	-7	11	-7520	464	15128	82	-12	-142	-14800	2496	-6816	16	-9	4	-128	1528	17016	12	-2	16	127	125	5
-7284	-1384	14152	-18	14	-22	-14744	2768	-6088	-9	-7	-10	208	528	17064	1	-12	13	-7528	464	15080	105	-30	-142	-14976	2424	-6944	16	-9	10	-296	1600	16992	11	2	17	127	125	5
-7324	-1384	14284	-12	13	-23	-14800	2736	-6224	-12	-4	-12	144	536	17048	-7	-11	17	-7568	440	15144	87	-3	-130	-14944	2440	-6704	16	-5	9	-136	1560	16832	15	5	13	127	125	5
-7260	-1380	14164	-20	12	-24	-14760	2800	-6320	-9	-2	-16	192	528	16912	-9	-10	23	-7496	320	15064	112	-66	-142	-14920	2760	-6768	11	-2	8	-264	1456	16912	14	6	11	127	126	5
-7296	-1440	14076	-18	18	-25	-14808	2640	-6424	-5	-3	-15	304	520	16880	-10	-16	25	-7384	160	15160	104	-55	-152	-14936	2568	-6728	6	-4	11	-232	1488	17240	16	5	10	127	126	5
-7352	-1396	14272	-17	17	-23	-14904	2520	-6184	4	-3	-19	240	400	16872	-14	-15	34	-7520	328	15008	109	9	-130	-14832	2496	-6648	6	0	9	-136	1480	17128	14	0	8	127	126	5
-7380	-1396	14216	-13	19	-25	-14664	2456	-6560	11	0	-19	216	368	17000	-10	-15	29	-7488	432	15216	95	-10	-148	-15056	2496	-6944	10	5	11	-80	1544	17176	17	-2	2	127	125	5
-7328	-1344	14272	-14	16	-19	-14872	2640	-6312	25	-7	-18	184	304	17032	-8	-14	26	-7560	384	15032	117	-52	-109	-14904	2440	-6848	4	-3	14	-160	1488	16848	16	-2	1	126	126	5
-7300	-1376	14224	-15	16	-23	-14856	2744	-6272	20	1	-15	240	368	17056	-13	-17	26	-7512	312	15112	99	18	-138	-14944	2568	-6632	7	1	14	-248	1504	17000	17	-5	-2	127	126	5
-7292	-1400	14240	-15	18	-16	-14880	2672	-6352	15	-2	-13	240	320	16968	-12	-17	20	-7488	248	14976	96	-13	-122	-14904	2560	-6728	4	4	14	-312	1736	17032	16	-1	0	127	126	5
-7312	-1336	14248	-14	18	-21	-14904	2776	-6320	5	0	-10	160	208	16896	-5	-12	19	-7600	288	15112	109	-41	-119	-14976	2792	-6776	4	1	14	-448	1560	17048	15	2	6	127	126	5
-7376	-1392	14232	-15	15	-17	-14800	2728	-6064	-5	4	-17	112	256	17136	-6	-15	24	-7440	304	14880	66	-6	-150	-14880	2536	-6568	3	0	13	-384	1608	16896	17	-1	7	127	125	5
-7328	-1376	14292	-12	16	-19	-14880	2696	-6264	-2	1	-10	40	360	16928	-10	-13	21	-7584	312	15056	93	37	-129	-14936	2600	-6896	3	-3	10	-368	1560	16856	13	1	10	127	125	5
-7276	-1364	14136	-8	14	-22	-14832	2720	-6264	-1	1	-11	200	328	17216	-7	-13	21	-7424	328	15112	73	10	-119	-15048	2408	-6880	7	0	9	-288	1568	16800	12	4	11	127	125	5
-7372	-1372	14216	-14	19	-22	-14792	2496	-6160	1	-4	-7	216	368	16856	-3	-11	20	-7328	408	15200	97	34	-128	-14864	2496	-6656	6	0	9	-352	1416	17232	20	0	14	127	125	5
-7284	-1376	14244	-13	15	-16	-14736	2632	-6336	9	-8	-3	192	280	16800	3	-11	22	-7552	408	14920	96	-6	-138	-15040	2504	-6936	9	-1	7	-272	1416	17056	23	4	16	127	125	5
-7300	-1436	14172	-11	13	-22	-14688	2840	-6152	10	-6	-6	224	240	17024	5	-12	24	-7648	344	14912	68	16	-137	-14952	2616	-6712	12	-6	11	-224	1584	17080	19	4	10	127	125	5
-7364	-1348	14144	-11	17	-20	-14816	2696	-6480	5	-4	-3	200	224	16920	3	-10	22	-7432	320	15072	102	-20	-139	-15024	2496	-6568	14	-4	10	-224	1328	17112	20	-2	11	127	125	5
-7276	-1436	14204	-6	17	-19	-14912	2720	-6576	5	-8	-3	88	400	17040	13	-8	18	-7296	384	15280	105	-54	-100	-15008	2488	-6720	8	-2	14	-216	1408	17192	24	2	7	127	125	5
-7316	-1420	14108	-12	17	-24	-14816	2720	-6312	-4	-3	1	88	496	16816	6	-8	18	-7496	272	15136	119	-31	-111	-14912	2456	-6976	5	-7	15	-288	1440	17056	20	-2	5	127	125	5
-7336	-1384	14148	-14	14	-18	-14792	2752	-6152	-9	-3	-6	224	472	16848	-1	-8	16	-7496	392	15000	121	-45	-123	-14968	2416	-6872	8	-6	14	-168	1416	17016	23	1	3	127	126	5
-7352	-1368	14240	-9	14	-20	-14816	2808	-6328	-13	-7	-4	64	456	16968	-1	-9	16	-7392	280	15072	145	3	-83	-14904	2568	-6856	6	-4	19	-376	1416	17016	22	-1	2	126	126	5
-7312	-1348	14192	-12	12	-25	-14768	2640	-6232	-6	-7	-2	336	384	17008	1	-12	15	-7584	256	15032	146	22	-123	-14848	2424	-6664	11	-4	20	-376	1384	16912	11	0	0	127	126	5
-7324	-1376	14264	-12	14	-19	-14800	2720	-6488	-1	-6	-3	152	504	16960	4	-8	17	-7632	400	15064	149	33	-113	-14896	2544	-6768	9	-9	19	-296	1280	17152	21	4	3	127	126	5
-7316	-1412	14196	-10	14	-22	-15000	2736	-6392	5	-3	1	104	280	16808	7	-8	19	-7424	416	15024	147	32	-108	-15000	2576	-6688	7	-8	24	-344	1568	16960	29	0	0	127	126	5
-7312	-1328	14156	-11	20	-24	-14880	2696	-6368	4	-2	-4	144	440	17048	6	-10	19	-7432	328	15080	96	45	-173	-14848	2408	-6768	10	-7	25	-408	1576	16840	30	-2	-1	127	125	5
-7332	-1364	14272	-11	16	-18	-14680	2792	-6304	10	-7	-6	224	440	16880	2	-13	21	-7560	264	15144	140	7	-109	-14952	2544	-6848	13	-5	28	-344	1520	17120	28	-3	-5	127	126	5
-7396	-1392	14148	-9	16	-21	-14864	2664	-6320	4	-4	-8	232	352	16872	-3	-11	23	-7488	312	15104	161	1	-104	-14896	2680	-6792	17	-5	25	-296	1424	17200	33	-3	-4	127	126	5
-7360	-1380	14212	-14	15	-23	-14776	2816	-6024	-3	-4	-2	-16	464	17160	-4	-13	24	-7552	264	15096	154	27	-101	-14928	2528	-6856	5	-2	22	-216	1592	16920	31	-5	-7	127	126	5
-7260	-1396	14144	-8	16	-21	-14952	2696	-6304	-6	-4	-4	32	392	17080	1	-15	25	-7520	456	15008	161	22	-109	-14936	2624	-7096	2	-5	25	-424	1656	16952	27	-2	-5	127	126	5
-7356	-1368	14164	-14	15	-18	-14728	2752	-6328	-5	0	-6	184	280	16960	5	-11	24	-7632	496	15032	130	21	-107	-14840	2696	-6728	1	-3	28	-240	1712	17112	28	-5	-6	127	126	5
-7340	-1388	14280	-13	19	-20	-14864	2696	-6200	-1	0	-5	80	472	17120	11	-13	20	-7560	328	15120	171	-12	-130	-14824	2648	-6688	6	-1	21	-184	1632	17192	32	-6	-4	127	125	5
-7304	-1308	14116	-11	15	-22	-14904	2728	-6464	3	-4	-3	128	424	17184	4	-11	20	-7576	424	15256	116	-24	-122	-14832	2584	-6872	8	-2	18	-424	1720	16896	31	-3	-1	127	125	5
-7300	-1388	14212	-14	16	-19	-14744	2584	-6552	7	-4	-4	224	480	16952	1	-11	21	-7416	376	15200	142	-37	-125	-14864	2608	-6824	7	-5	23	-208	1664	16856	27	-1	-3	127	125	5
-7336	-1424	14176	-14	17	-19	-14672	2744	-6304	8	-6	-6	128	344	17064	-1	-12	21	-7520	440	14848	129	-65	-117	-14896	2696	-6712	10	-2	17	-272	1592	16920	26	-2	4	127	125	5
-7356	-1484	14272	-15	14	-19	-14904	2856	-6400	2	-7	-8	104	520	17032	0	-14	20	-7520	480	15272	103	-7	-129	-15000	2400	-6792	11	-3	18	-256	1744	17008	25	1	6	127	125	5
-7288	-1372	14256	-15	12	-21	-14784	2752	-6320	0	-6	-5	8	312	16968	6	-12	23	-7584	336	14960	123	1	-119	-14944	2640	-6784	7	-2	15	-232	1648	17056	23	-3	8	127	125	5
-7280	-1352	14232	-16	14	-24	-14904	2752	-6288	-5	-5	-4	288	368	17112	5	-12	23	-7448	408	15200	99	-15	-117	-14976	2552	-6912	12	-9	14	-168	1576	17056	22	0	6	127	127	5
-7328	-1368	14248	-12	10	-19	-15000	2664	-6272	-3	-8	-8	104	392	16904	4	-11	23	-7424	312	15168	133	-56	-143	-14968	2512	-6552	10	-7	15	-232	1552	17248	22	1	11	127	126	5
-7268	-1360	14176	-13	17	-22	-14928	2768	-6248	-2	-5	-10	96	520	16936	8	-11	17	-7464	472	14808	107	-23	-146	-15104	2544	-6672	10	-6	11	-280	1560	16976	27	0	13	127	126	5
-7340	-1384	14216	-11	16	-26	-14880	2800	-6080	0	-3	-3	104	352	17176	0	-11	17	-7448	488	14944	98	-27	-134	-14832	2488	-6624	8	-3	7	-176	1504	16936	24	2	8	126	126	5
-7312	-1356	14048	-15	17	-20	-14768	2592	-6368	0	-3	-9	208	528	17216	0	-12	20	-7560	280	15152	114	-24	-181	-14936	2616	-6896	13	0	10	-168	1528	17168	17	3	8	126	126	5
-7336	-1372	14196	-14	15	-23	-14760	2744	-6448	7	-3	-9	40	512	16936	-4	-14	23	-7448	312	14848	116	-43	-136	-14952	2520	-6400	14	2	11	-296	1384	16856	17	0	10	126	126	5
-7300	-1332	14156	-17	15	-20	-14704	2720	-6328	2	-2	-10	64	376	17008	-4	-12	20	-7568	440	15104	99	-52	-138	-14944	2600	-6952	11	-3	10	-192	1584	16912	15	0	12	127	126	5
-7296	-1376	14236	-12	20	-21	-14864	2800	-6168	3	-3	-9	224	448	17016	1	-13	25	-7440	312	15120	125	-23	-147	-14992	2464	-6624	7	-1	16	-248	1544	17120	15	7	10	126	126	5
-7364	-1376	14072	-13	16	-19	-14776	2608	-6224	2	-2	-9	144	376	16920	1	-10	20	-7504	264	15024	104	-17	-137	-14920	2512	-6680	7	-1	10	-360	1400	16968	13	2	8	126	126	5
-7308	-1332	14240	-13	17	-22	-14760	2704	-6176	2	-2	-13	200	504	16920	1	-14	24	-7568	320	15080	123	3	-156	-14944	2592	-6968	13	-1	12	-176	1504	16944	11	0	10	126	126	5
-7352	-1308	14228	-11	16	-20	-14872	2632	-6352	-3	2	-14	88	432	16856	-6	-15	25	-7576	312	15248	120	-38	-147	-14904	2544	-6592	11	-1	12	-192	1512	16944	13	-1	5	126	126	5
-7292	-1440	14204	-11	14	-27	-14712	2672	-6224	4	-2	-11	80	384	17112	-4	-17	27	-7512	384	14928	82	7	-121	-14944	2512	-6600	10	-4	16	-128	1576	17048	21	-5	3	127	125	5
-7356	-1400	14180	-13	15	-22	-14696	2696	-6216	6	-2	-10	72	504	17008	-6	-16	26	-7592	248	15040	93	20	-144	-14936	2576	-6672	7	-2	12	-280	1560	17232	21	-1	8	127	126	5
-7308	-1360	14172	-10	12	-21	-14848	2632	-6264	4	0	-10	24	368	16832	-6	-14	25	-7576	288	14928	135	13	-78	-14896	2424	-6784	6	-1	11	-312	1560	16976	18	0	5	127	125	5
-7292	-1380	14180	-14	17	-24	-14800	2696	-6192	0	-3	-14	64	360	16920	2	-12	23	-7560	248	15120	154	-2	-128	-14992	2584	-6968	1	-1	12	-176	1568	17072	21	-3	7	127	125	5
-7308	-1368	14228	-11	14	-25	-14800	2664	-6352	-2	-2	-8	176	416	16944	2	-14	27	-7576	408	14848	137	28	-114	-14920	2680	-6568	7	-2	13	-232	1576	17048	20	-1	4	126	125	5
-7332	-1412	14164	-13	17	-23	-14760	2872	-6328	-3	-3	-11	144	328	16984	0	-13	28	-7656	320	15216	146	-30	-125	-14896	2520	-6864	7	-4	13	-144	1600	16968	22	2	7	127	125	5
-7348	-1384	14204	-16	13	-19	-14800	2664	-6288	2	-6	-9	88	528	16888	1	-12	24	-7424	424	15248	124	26	-133	-14896	2456	-6568	4	-6	15	-168	1488	17032	21	-1	5	127	125	5
-7320	-1372	14108	-18	15	-19	-14824	2672	-6296	1	-4	-9	176	384	17000	2	-13	25	-7504	456	15200	108	-28	-131	-14944	2656	-6776	10	1	12	-208	1568	17112	25	-3	10	126	126	5
-7340	-1328	14168	-13	17	-20	-14816	2744	-6272	3	-9	-8	208	288	17056	-1	-10	22	-7592	208	15128	136	-12	-121	-14912	2464	-6808	13	-3	17	-184	1672	17008	20	1	8	126	125	5
-7336	-1416	14160	-13	13	-23	-14656	2688	-6200	0	-5	-8	296	504	16888	5	-10	24	-7544	328	15160	152	-35	-158	-15088	2568	-6776	13	-5	15	-240	1536	17136	20	0	6	126	125	5
-7276	-1428	14232	-16	17	-24	-14744	2664	-6264	2	-2	-6	176	472	17040	5	-11	22	-7536	272	15088	143	-58	-155	-14848	2432	-6848	13	-6	16	-232	1608	16856	18	-1	6	126	125	5
-7240	-1344	14108	-11	15	-24	-14880	2768	-6264	6	-8	-4	344	504	16784	3	-15	16	-7648	464	15040	127	-48	-133	-14944	2520	-6696	13	-6	16	-320	1536	16712	24	1	4	126	125	5
-7372	-1408	14176	-15	13	-17	-14816	2712	-6240	4	-6	-3	256	416	16912	1	-10	19	-7544	352	15152	113	6	-142	-14872	2632	-6800	11	-4	20	-328	1584	17088	20	-1	3	126	125	5
-7292	-1424	14136	-13	16	-23	-14856	2832	-6440	-1	2	-7	88	456	17048	0	-15	24	-7520	240	15216	104	-16	-115	-14840	2528	-6608	0	-1	18	-232	1608	16968	19	-4	2	126	125	5
-7308	-1384	14148	-13	17	-20	-14848	2776	-6400	-2	0	-6	120	560	16848	3	-14	25	-7488	416	15000	121	-11	-96	-14944	2528	-6728	0	2	15	-176	1504	16960	17	-5	4	126	125	5
-7336	-1332	14248	-14	19	-15	-14744	2744	-6368	-2	0	-7	128	440	17048	-1	-12	17	-7496	352	14976	103	-7	-132	-15008	2544	-6656	2	2	12	-224	1672	17224	20	-2	4	126	125	5
-7372	-1360	14124	-13	15	-26	-14920	2624	-6408	-3	-2	-9	32	328	16952	-4	-15	22	-7448	328	15216	104	-12	-113	-15048	2536	-6784	-2	-7	14	-488	1600	17184	20	-1	6	126	125	5
-7340	-1372	14048	-17	15	-18	-14800	2736	-6256	6	-5	-6	40	496	16968	-3	-16	18	-7488	168	14952	114	-10	-125	-14864	2592	-6720	2	-4	11	-344	1592	16968	19	1	9	126	126	5
-7320	-1360	14284	-18	15	-24	-14904	2776	-6424	2	-7	-9	64	440	16944	6	-13	18	-7536	376	15072	114	-25	-131	-14848	2408	-6584	16	-1	11	-208	1512	17032	19	1	11	126	126	5
-7344	-1340	14232	-14	12	-25	-14768	2808	-6344	-1	-7	-6	192	656	16880	5	-12	17	-7464	432	15064	128	-44	-112	-14848	2472	-6528	24	-5	10	32	1680	17120	13	5	8	126	126	5
-7332	-1436	14148	-13	15	-28	-14904	2680	-5904	0	-8	-13	480	720	16896	1	-10	19	-7504	512	14904	93	-88	-145	-15040	2560	-6552	23	1	11	152	1584	16816	18	6	3	126	126	5
-7292	-1420	14180	-13	14	-19	-14912	2624	-6096	8	-2	-11	656	544	17040	-4	-10	30	-7368	352	14976	108	9	-139	-15136	2624	-6720	14	5	16	-8	1664	17112	14	-1	-1	126	126	5
-7336	-1432	14148	-12	21	-19	-14880	2808	-6104	15	14	-10	304	472	16928	-6	-13	36	-7496	504	15032	111	-6	-139	-15104	2576	-6776	2	8	8	-248	1680	17032	7	-2	-6	126	125	5
-7260	-1404	14216	-12	22	-17	-14784	2744	-6352	20	19	-8	344	376	17008	-4	-19	33	-7448	208	15112	113	39	-156	-14976	2560	-6704	0	15	4	-328	1688	16936	-1	-6	3	126	126	5
-7288	-1404	14176	-11	20	-20	-14808	2872	-6072	5	24	-13	-72	464	16792	2	-17	37	-7608	296	14896	53	6	-157	-14816	2584	-6784	4	14	5	-384	1448	17120	12	-5	11	126	126	5
-7388	-1412	14172	-16	15	-24	-14824	2816	-6328	-18	20	-13	-128	392	17064	-3	-17	36	-7632	296	14952	76	-59	-178	-14880	2552	-7112	16	11	1	-544	1480	16920	31	-4	16	126	126	5
-7316	-1364	14092	-11	20	-21	-14856	2832	-6392	-24	7	-16	-240	344	17112	-4	-15	33	-7704	432	15144	68	-107	-141	-14808	2568	-6992	12	7	2	-544	1624	16944	33	-4	20	126	126	5
-7280	-1324	14224	-18	17	-20	-14720	2736	-6328	-21	-2	-20	-232	424	17048	-6	-17	34	-7488	400	15120	79	-76	-141	-14920	2544	-7144	6	0	-3	-408	1704	17008	28	-3	31	127	126	5
-7352	-1320	14160	-15	16	-22	-14608	2728	-6176	4	-10	-16	64	368	17040	2	-11	29	-7608	272	15160	97	-47	-130	-14936	2632	-6968	3	-7	1	-472	1536	17184	23	-1	32	126	125	5
-7288	-1372	14176	-15	16	-27	-14800	2624	-6384	17	-13	-11	104	288	16816	3	-13	23	-7624	472	15040	105	-39	-110	-14872	2328	-7080	2	-7	-2	-512	1520	17368	17	8	30	126	125	5
-7340	-1364	14152	-19	16	-24	-14744	2640	-6368	25	-18	-6	-56	400	17152	12	-7	25	-7536	400	15120	102	-30	-123	-14856	2520	-6728	11	-17	4	-376	1352	17064	12	9	27	126	125	5
-7296	-1396	14184	-13	12	-23	-14864	2624	-6440	13	-22	-16	168	464	16960	18	-10	22	-7536	336	15080	130	-63	-105	-14872	2400	-6672	26	-18	12	-136	1328	17128	23	8	16	126	126	5
-7340	-1428	14220	-14	14	-19	-14832	2640	-6240	-1	-17	-16	304	408	16944	10	-7	18	-7352	232	15056	152	-76	-113	-14944	2328	-6760	31	-13	18	120	1272	16704	20	3	6	126	125	5
-7312	-1380	14060	-17	15	-23	-14968	2696	-5912	-14	-14	-15	432	656	16912	-6	-10	19	-7432	248	15016	120	18	-112	-15048	2472	-6568	22	-10	22	168	1568	16832	22	-1	-3	126	125	5
-7352	-1336	14144	-13	17	-20	-14784	2680	-5880	-12	-1	-13	464	464	16768	-13	-17	22	-7488	368	15088	146	41	-103	-14912	2496	-6536	6	1	18	-112	1384	17056	15	-3	-11	126	125	5
-7328	-1352	14176	-13	17	-19	-14816	2608	-6152	2	13	-9	336	432	16936	-23	-21	22	-7520	368	15040	136	27	-105	-14832	2624	-6632	-1	8	14	-80	1488	16976	7	-5	-12	126	126	5
-7392	-1432	14192	-15	18	-21	-14792	2632	-6200	5	19	-7	328	520	16800	-20	-18	29	-7536	440	15096	142	75	-137	-14816	2464	-6848	-6	14	17	-344	1504	16952	9	-6	-9	126	126	5
-7304	-1356	14104	-12	22	-19	-14928	2856	-6304	0	12	-11	352	248	16952	-7	-18	39	-7448	416	15024	124	1	-141	-14888	2536	-6888	2	11	20	-192	1424	17048	23	-7	-4	126	126	5
-7300	-1356	14132	-12	23	-17	-14744	2688	-6272	-5	14	-12	96	224	17104	1	-21	41	-7504	432	15160	131	26	-140	-14944	2536	-6784	4	16	16	-368	1576	17408	32	-6	0	126	126	5
-7336	-1352	14224	-10	19	-19	-14760	2648	-6488	4	10	-9	176	208	17032	5	-15	45	-7392	264	15016	114	-17	-135	-14920	2608	-6752	4	14	15	-400	1584	16968	35	-8	5	126	126	5
-7336	-1364	14168	-14	22	-20	-14720	2688	-6352	9	7	-6	40	232	17016	10	-14	40	-7552	352	15120	118	19	-128	-14824	2464	-6664	4	8	12	-456	1608	17096	34	-6	8	126	126	5
-7328	-1436	14124	-9	19	-21	-14816	2632	-6352	10	2	-2	96	200	17016	19	-12	33	-7504	408	15112	131	58	-161	-14928	2496	-6952	7	3	14	-576	1656	16816	30	-4	11	126	126	5
-7316	-1376	14196	-7	20	-19	-14832	2704	-6464	11	-1	-3	88	200	16840	14	-6	22	-7504	312	14952	128	34	-115	-15008	2528	-6992	6	-1	15	-560	1520	16936	24	-4	14	126	126	5
-7324	-1352	14220	-8	15	-20	-14696	2848	-6344	0	-12	1	-88	384	17056	6	-8	15	-7496	336	14920	105	-33	-150	-15040	2464	-6776	14	1	19	-368	1680	17256	21	1	15	126	125	5
-7304	-1404	14168	-15	15	-22	-14744	2816	-6800	-11	-14	1	-104	248	17040	-1	-10	4	-7632	280	14976	178	-15	-121	-14864	2528	-6776	11	-7	22	-352	1512	16776	22	1	15	126	125	5
-7300	-1388	14216	-5	11	-24	-14784	2688	-6592	-13	-20	1	-32	400	16904	-3	-9	2	-7608	328	15080	139	-61	-130	-14872	2536	-6976	8	-15	17	-216	1512	17168	26	4	8	126	125	5
-7300	-1360	14188	-18	10	-25	-14784	2488	-6424	-10	-23	8	-56	464	17120	8	-7	-2	-7416	312	14984	137	-55	-128	-14896	2504	-6744	5	-14	22	-184	1464	17136	25	-1	10	126	125	5
-7332	-1412	14148	-13	12	-22	-14784	2736	-6352	-3	-25	4	200	456	16728	12	-3	2	-7656	336	15264	130	-56	-82	-14920	2368	-6616	2	-14	24	-224	1496	17088	31	1	7	127	125	5
-7364	-1404	14192	-11	9	-21	-14768	2688	-6136	0	-26	5	304	392	17008	16	-7	8	-7456	440	15152	147	25	-91	-14968	2448	-6728	4	-23	18	-216	1504	16920	25	5	6	127	125	5
-7352	-1360	14152	-15	12	-21	-14816	2680	-6200	5	-22	3	384	456	16704	15	-6	11	-7568	232	14920	163	3	-92	-14896	2568	-6560	5	-12	23	40	1448	17184	25	5	1	127	125	5
-7352	-1424	14188	-12	15	-22	-14880	2712	-6200	8	-19	-3	448	536	17040	15	-8	10	-7568	304	15304	183	-8	-80	-14944	2528	-6528	6	-8	19	-48	1512	17096	26	-1	-3	126	125	5
-7260	-1392	14160	-15	14	-24	-14832	2688	-6192	13	-4	2	472	640	17096	1	-11	17	-7648	336	15256	149	18	-130	-14888	2488	-6944	19	-5	26	-96	1584	16960	27	-3	-13	127	125	5
-7236	-1376	14088	-10	18	-21	-14832	2760	-6240	11	4	-3	216	552	16880	-8	-16	24	-7528	448	14960	161	17	-121	-14984	2416	-6840	22	-3	30	56	1664	16864	25	-6	-14	126	125	5
-7312	-1344	14300	-16	15	-22	-14904	2968	-6376	3	9	-3	176	416	16920	-4	-17	23	-7576	336	15216	142	42	-133	-14864	2560	-6776	23	-3	27	-224	1816	17120	24	-6	-15	126	125	5
-7296	-1372	14072	-11	15	-21	-14872	2984	-6336	-6	9	-10	56	464	16960	-5	-17	20	-7640	344	15168	144	5	-132	-15008	2688	-6904	15	-2	23	-56	1744	17016	23	-10	-13	127	125	5
-7376	-1400	14136	-14	20	-19	-14872	2840	-6272	-13	10	-10	112	400	17024	-6	-12	25	-7488	344	15080	134	-10	-132	-14888	2736	-6864	5	4	25	-144	1776	17000	19	-3	-6	127	124	5
-7284	-1368	14216	-13	19	-20	-14816	2824	-6080	-12	10	-11	48	504	16760	-4	-14	30	-7544	320	15232	135	38	-126	-14992	2608	-6840	2	3	15	-368	1752	17032	17	-6	1	127	124	5
-7384	-1412	14128	-15	18	-19	-14920	2824	-6288	-4	1	-13	88	392	17032	-5	-14	35	-7608	384	15160	108	-14	-134	-14984	2512	-6944	-3	4	8	-376	1832	16960	16	-4	8	127	124	5
-7320	-1372	14156	-15	16	-22	-14832	2720	-6528	11	-1	-12	24	288	16784	1	-13	32	-7512	448	15264	95	-43	-136	-14896	2560	-7184	3	5	3	-416	1736	17096	19	4	14	127	124	5
-7352	-1376	14208	-12	14	-22	-14952	2744	-6216	17	-2	-12	-24	312	17080	5	-9	33	-7504	464	15040	58	-14	-158	-14912	2520	-6720	4	-1	0	-376	1728	17264	15	4	22	126	125	5
-7420	-1380	14160	-17	16	-19	-14768	2864	-6600	17	-7	-10	56	432	17016	4	-10	31	-7648	376	15088	70	-80	-145	-14904	2680	-6912	12	-4	3	-184	1480	17024	21	2	28	126	125	5
-7300	-1440	14128	-11	19	-25	-14840	2792	-6440	7	-12	-11	104	568	16936	9	-10	24	-7584	312	15000	77	-67	-159	-14856	2696	-6848	12	-11	2	-264	1744	17016	20	7	25	127	125	5
-7284	-1396	14164	-17	16	-26	-14888	2672	-6184	-5	-12	-13	184	528	16856	2	-6	24	-7472	208	15024	85	-57	-103	-14776	2448	-6976	17	-1	0	-56	1648	17024	22	2	26	126	125	5
-7336	-1388	14172	-17	16	-18	-14816	2704	-6216	-4	-12	-15	192	440	16920	0	-12	26	-7448	272	15088	134	-65	-115	-15032	2536	-6904	19	-2	-1	-224	1672	17256	12	4	24	126	125	5
-7292	-1356	14124	-18	15	-25	-14808	2752	-6336	-7	-4	-20	224	560	16952	2	-14	29	-7600	192	14784	81	-49	-139	-14984	2432	-6600	13	-2	-3	-248	1608	17064	10	4	21	127	125	5
-7312	-1356	14160	-14	15	-26	-14880	2696	-6272	0	-2	-11	320	440	17112	-1	-16	24	-7464	328	15112	82	-67	-169	-14880	2432	-6456	10	-4	4	-344	1440	16968	10	2	16	126	125	5
-7308	-1412	14260	-16	21	-24	-14888	2816	-6416	7	2	-13	128	424	16824	-6	-15	26	-7552	440	15288	91	-64	-134	-14968	2512	-6720	5	-1	5	-312	1488	16968	6	0	15	127	125	5
-7312	-1384	14200	-14	17	-21	-14872	2704	-6256	15	2	-12	280	432	16920	-10	-12	22	-7544	272	15272	133	-27	-112	-14904	2560	-6704	5	-3	6	-280	1376	17008	10	3	7	126	125	5
-7288	-1392	14104	-14	20	-23	-14688	2696	-6248	16	-1	-14	176	496	16960	-15	-15	19	-7600	232	15168	82	-28	-124	-14840	2544	-6792	3	0	7	-208	1480	17096	10	0	6	126	125	5
-7332	-1380	14176	-12	18	-22	-14816	2688	-6448	7	5	-14	152	400	17080	-17	-16	25	-7592	392	14848	143	-26	-151	-14832	2408	-6880	6	-3	9	-144	1312	17016	15	0	6	126	125	5
-7304	-1364	14104	-13	18	-21	-14880	2680	-6344	0	0	-15	128	264	16848	-11	-12	27	-7496	320	15176	83	-47	-108	-14840	2408	-6496	12	-1	13	-328	1448	17024	17	-3	4	126	125	5
-7352	-1384	14140	-11	19	-21	-14672	2744	-6264	-6	-3	-14	104	264	16840	-8	-13	29	-7536	320	14984	84	-48	-135	-14888	2536	-6744	9	-5	11	-216	1424	17088	20	-4	3	127	125	5
-7324	-1408	14204	-15	14	-24	-14768	2752	-6480	-7	-1	-12	192	344	17072	-7	-14	33	-7568	336	15112	106	-2	-149	-15000	2456	-6856	11	-8	15	-272	1400	17128	18	0	6	126	125	5
-7328	-1376	14188	-20	17	-24	-14832	2640	-6304	-2	-2	-8	200	176	16920	-3	-14	28	-7512	312	15016	118	-2	-116	-14896	2456	-6720	13	-9	20	-248	1464	17072	21	2	5	126	125	5
-7328	-1336	14272	-16	15	-19	-14784	2728	-6336	8	-5	-8	248	224	17144	8	-8	24	-7560	376	15056	162	-3	-165	-15000	2544	-6728	16	-5	18	-232	1432	17000	24	4	3	126	125	5
-7300	-1504	14152	-8	18	-24	-14776	2736	-6376	12	-8	-6	240	320	16848	3	-8	20	-7496	224	15120	132	-5	-98	-14808	2432	-6600	14	-11	18	-208	1504	16952	25	2	3	126	125	5
-7352	-1364	14164	-15	14	-25	-14760	2672	-6368	7	-8	-3	152	344	17000	2	-12	18	-7424	304	15152	158	54	-124	-14864	2584	-6568	3	-4	17	-368	1400	17024	26	-1	3	126	125	5
-7336	-1332	14196	-14	14	-26	-14760	2680	-6352	3	-5	-7	120	272	17072	-4	-12	18	-7432	368	15000	137	-9	-145	-14776	2560	-6848	5	-9	20	-288	1440	17112	26	1	5	126	125	5
-7348	-1404	14176	-14	12	-19	-14664	2552	-6176	-3	-7	-3	272	264	17024	-2	-15	14	-7488	304	14896	136	-23	-122	-14896	2624	-6800	3	-4	16	-360	1504	17168	23	2	4	126	125	5
-7308	-1348	14208	-15	11	-24	-14872	2760	-6224	-4	-10	0	176	256	17240	3	-16	16	-7520	448	15072	149	-27	-116	-14864	2576	-6936	5	-7	16	-384	1632	17064	31	-5	9	126	125	5
-7268	-1464	14164	-15	11	-21	-14800	2720	-6416	-7	-11	-1	24	320	16968	12	-9	11	-7552	424	15160	130	-17	-106	-14864	2656	-7112	-1	-8	16	-312	1696	17032	30	-7	12	127	125	5
-7288	-1372	14220	-15	15	-22	-14792	2880	-6152	-13	-16	-7	-144	352	17048	20	-7	15	-7472	344	14952	162	-7	-116	-14840	2464	-6936	3	-10	18	-488	1776	17008	37	0	15	126	125	5
-7316	-1396	14192	-12	9	-23	-14912	2720	-6424	-9	-21	0	-176	536	17128	28	-4	13	-7560	336	14816	135	31	-116	-15064	2600	-6856	4	-21	14	-448	1744	17032	38	3	20	126	125	5
-7380	-1332	14236	-19	11	-27	-14832	2768	-6528	-7	-32	-7	-56	576	16984	24	-3	5	-7528	312	14864	140	-19	-130	-14976	2656	-6824	9	-24	10	-352	1704	17368	31	7	25	126	125	5
-7352	-1336	14084	-15	11	-22	-14856	2880	-6328	1	-35	-12	-120	648	16944	17	-3	-3	-7504	384	15144	116	-63	-115	-14992	2512	-6952	18	-25	10	-264	1704	17016	26	9	27	126	125	5
-7328	-1340	14228	-22	13	-24	-14640	2888	-6312	6	-39	-20	-88	728	17032	11	-3	2	-7472	240	15176	127	-80	-133	-14872	2632	-6800	16	-22	5	-120	1680	16960	26	10	30	126	125	5
-7316	-1364	14168	-16	10	-29	-14920	2856	-6184	5	-33	-23	96	808	16952	-1	-9	12	-7552	408	15136	100	-41	-81	-14872	2544	-6576	8	-25	4	32	1712	16840	24	14	33	126	125	5
-7280	-1360	14196	-21	11	-26	-14888	2864	-6000	1	-31	-35	288	1024	17000	-9	-9	26	-7504	488	15328	113	-35	-118	-15000	2464	-6608	1	-21	1	128	1696	17184	25	5	28	126	125	5
-7256	-1440	14120	-25	17	-29	-14736	2904	-6040	-2	-15	-39	600	776	16848	-9	-11	39	-7472	304	15216	93	-1	-127	-15056	2488	-6848	9	-13	-3	88	1760	16920	12	4	22	126	125	5
-7304	-1400	14184	-23	18	-28	-14872	2616	-5968	-1	-8	-47	768	824	16760	-6	-14	45	-7672	424	14832	106	9	-129	-14912	2536	-6560	19	-15	-4	8	1744	16768	-2	3	19	126	125	5
-7324	-1444	14152	-20	25	-26	-14760	2744	-6064	13	8	-47	760	680	16728	-27	-22	54	-7544	408	14992	120	40	-178	-14856	2536	-6728	26	-5	0	80	1616	17016	-8	4	12	126	125	5
-7236	-1436	14220	-19	26	-26	-14912	2544	-5848	17	23	-46	744	624	16928	-39	-26	65	-7576	280	15176	59	39	-160	-14904	2560	-6688	17	2	2	184	1464	16616	-8	-2	9	126	125	5
-7276	-1492	14152	-20	34	-23	-14808	2600	-6160	21	32	-49	520	272	16784	-46	-28	75	-7496	384	15216	69	62	-160	-14928	2496	-6488	6	9	2	-88	1360	17088	1	-8	12	126	125	5
-7352	-1416	14084	-19	23	-20	-14888	2584	-6096	17	36	-46	520	328	16728	-55	-31	73	-7496	600	14824	167	105	-79	-14936	2464	-6480	12	15	-5	-232	1504	17240	3	-2	6	125	125	5
-7272	-1448	14160	-13	28	-15	-14800	2368	-6440	9	40	-37	200	184	16992	-54	-34	72	-7664	256	15272	76	21	-165	-15032	2512	-6784	4	18	1	-328	1392	17232	-1	-4	3	126	125	5
-7380	-1408	14280	-15	23	-15	-14816	2552	-6424	1	41	-35	104	-160	16936	-41	-31	64	-7496	256	15136	87	-28	-179	-15024	2408	-6616	7	11	8	-376	1384	17072	-3	-6	-1	126	125	5
-7364	-1428	14208	-14	20	-25	-14848	2480	-6536	-2	28	-23	-96	-216	17072	-21	-23	50	-7568	288	14936	131	-18	-130	-14800	2264	-6776	11	5	11	-376	1440	16992	3	1	-2	126	125	5
-7324	-1424	14060	-13	20	-20	-14864	2416	-6504	-5	22	-13	-152	-232	17024	-7	-17	32	-7504	224	15208	58	-29	-149	-15032	2448	-6816	13	9	11	-400	1272	17352	7	-5	-2	126	125	5
-7372	-1484	14148	-12	19	-20	-14984	2496	-6488	1	2	0	8	-192	17072	17	-6	15	-7592	376	15320	93	34	-135	-14880	2432	-6792	6	7	16	-344	1344	17048	18	-4	-5	126	125	5
-7340	-1384	14104	-10	15	-15	-14816	2392	-6592	5	-7	10	152	16	17096	22	-4	0	-7552	336	15144	138	-41	-139	-14944	2416	-6720	4	3	18	-536	1512	17200	21	0	-6	127	125	5
-7348	-1420	14172	-3	13	-15	-14872	2552	-6304	5	-17	12	112	184	16968	17	-5	-8	-7392	424	15024	138	-47	-121	-14984	2368	-6920	6	0	17	-568	1408	16936	26	1	-1	127	125	5
-7384	-1388	14172	-5	14	-18	-14800	2520	-6464	8	-19	21	240	64	16984	5	-10	-15	-7456	264	14960	146	-68	-109	-14968	2344	-6856	13	-8	22	-328	1336	17288	24	-2	-5	126	124	5
-7352	-1452	14132	-4	5	-22	-14880	2560	-6536	-1	-16	23	344	216	16984	3	-10	-14	-7560	376	15104	169	-20	-122	-15080	2424	-6600	18	-12	21	-344	1400	17224	25	-4	-3	126	125	5
-7356	-1412	14084	-3	10	-25	-14872	2688	-6384	-9	-13	27	168	272	16992	13	-5	-12	-7552	432	15280	148	-69	-104	-14920	2512	-6712	16	-12	35	-296	1296	16848	26	-3	-1	127	126	5
-7392	-1356	14204	-11	7	-22	-14768	2648	-6456	-16	-14	25	128	296	17032	24	-3	-7	-7520	328	15152	151	-50	-105	-14824	2320	-6600	8	-11	29	-184	1416	17224	32	-4	-4	126	125	5
-7324	-1364	14264	-8	10	-21	-14832	2760	-6264	-19	-16	22	160	440	16888	35	1	0	-7472	296	15056	160	-14	-116	-14896	2264	-6784	2	-8	37	-264	1256	17064	32	-1	-8	126	125	5
-7324	-1388	14248	-7	9	-21	-14816	2672	-6168	-11	-16	19	224	464	17008	28	-1	-1	-7592	416	15120	211	-9	-91	-14936	2512	-6864	-2	-3	35	-136	1496	17144	37	-2	-13	126	125	5
-7312	-1428	14104	-4	11	-22	-14744	2664	-6224	7	-15	23	248	424	16816	25	-2	4	-7560	384	15312	201	12	-131	-14928	2504	-6680	10	-8	41	-240	1360	17096	42	-2	-18	127	125	5
-7292	-1420	14188	-9	9	-19	-14816	2688	-6160	17	-13	23	312	512	17048	11	-9	2	-7544	472	15056	232	-13	-73	-14856	2512	-6568	7	-9	50	-152	1408	17096	46	-3	-20	127	125	5
-7332	-1376	14072	-7	10	-18	-14712	2760	-6384	13	-7	25	272	360	17008	13	-13	3	-7416	320	14976	206	10	-93	-14904	2456	-6632	5	-8	52	-256	1416	16864	43	-6	-22	126	125	5
-7376	-1360	14104	-5	12	-15	-14760	2792	-6392	3	-9	20	64	464	16992	12	-11	2	-7544	320	15096	202	45	-107	-14936	2464	-6752	-3	-4	50	-208	1560	17064	50	-8	-25	127	125	5
-7368	-1380	14152	-4	12	-19	-14736	2872	-6096	-9	-4	21	32	408	16800	16	-9	8	-7512	448	15136	210	96	-106	-14976	2408	-6824	-3	1	51	-168	1624	17008	44	-7	-27	127	125	5
-7360	-1372	14124	-5	10	-17	-14928	2848	-6320	-24	1	18	80	408	16920	19	-8	8	-7680	304	14936	168	48	-90	-14888	2520	-6720	-4	-3	51	-280	1584	17056	49	-5	-32	126	125	5
-7248	-1372	14144	-2	9	-23	-14760	2760	-6424	-23	-6	15	144	368	17080	23	-9	9	-7592	384	14984	184	71	-102	-14984	2536	-6952	0	0	53	-280	1592	16960	54	-9	-25	126	125	5
-7364	-1348	14260	-7	11	-19	-14768	2616	-6320	-12	-9	13	160	512	17096	24	-8	10	-7584	400	15040	198	90	-103	-14864	2816	-6904	-1	1	47	-392	1720	17008	58	-8	-23	126	125	5
-7348	-1376	14188	-2	10	-24	-14800	2640	-6184	4	-12	14	88	552	17128	25	-7	11	-7592	376	15104	176	61	-102	-14928	2528	-6784	0	-5	47	-376	1816	17144	54	-6	-16	127	125	5
-7256	-1352	14172	-8	17	-22	-14856	2984	-6192	15	-14	21	8	504	16816	25	-7	8	-7520	304	14896	186	4	-135	-14952	2688	-6824	5	-10	46	-280	1704	17000	55	-7	-14	127	124	5
-7332	-1368	14184	-8	11	-23	-14816	2808	-6336	11	-18	20	56	504	16968	22	-4	8	-7464	384	15152	159	16	-100	-14864	2624	-6744	3	-10	43	-352	1896	17032	51	-5	-9	127	124	5
-7384	-1432	14272	-10	9	-21	-14816	2816	-6312	9	-17	17	-32	664	17128	16	-3	5	-7520	496	14936	177	-81	-88	-14832	2792	-6752	9	-12	41	-264	1792	17008	46	-8	-8	127	124	5
-7284	-1392	14216	-8	13	-21	-14776	3024	-6480	-3	-16	8	128	536	17072	16	-7	6	-7560	464	15080	149	8	-112	-14912	2744	-6576	10	-8	38	-288	1952	17176	42	-7	-8	127	124	5
-7304	-1432	14280	-13	10	-16	-14800	2848	-6304	-15	-10	9	16	648	17048	15	-10	9	-7568	256	14800	181	7	-108	-14920	2800	-6824	9	-7	33	-136	1936	16688	32	-3	-8	127	124	5
-7256	-1380	14252	-10	12	-20	-14848	2776	-6032	-19	-13	5	24	784	17128	18	-6	7	-7520	488	15032	147	27	-115	-14984	2560	-6752	13	-2	27	-208	2008	16856	23	-4	-7	127	124	5
-7252	-1396	14196	-14	15	-18	-14712	2816	-6304	-14	-7	-3	-16	728	17072	13	-8	9	-7440	376	15144	155	16	-136	-14936	2720	-6776	12	-4	24	-120	1888	16960	26	0	-4	126	125	5
-7328	-1392	14172	-10	11	-23	-14776	2920	-6056	-12	-6	-9	104	784	17112	6	-8	16	-7648	544	15032	151	-9	-148	-14960	2776	-6744	2	1	14	-224	1952	17080	21	2	4	127	125	5
-7300	-1344	14140	-9	15	-24	-14904	2952	-6080	4	-7	-6	64	720	17064	-3	-14	22	-7552	432	15040	77	-59	-114	-14792	2688	-6432	0	-5	14	-360	1960	16840	16	7	8	127	125	5
-7304	-1344	14156	-13	19	-21	-14760	2872	-6320	12	-3	-12	192	856	17160	-12	-17	23	-7592	392	15128	107	-34	-114	-14912	2736	-6632	3	1	1	-256	1752	17144	18	4	9	127	125	5
-7352	-1324	14300	-11	16	-21	-14776	3000	-6192	13	-1	-18	88	744	16824	-17	-15	34	-7464	472	15072	82	-51	-141	-14880	2704	-6792	12	-2	0	-208	1872	17024	9	6	13	126	125	5
-7308	-1352	14208	-20	14	-22	-14832	2768	-6088	8	5	-26	104	752	16856	-21	-19	38	-7448	376	14864	90	-72	-123	-14848	2736	-6880	12	-3	-1	-280	1912	16944	-6	6	15	126	125	5
-7308	-1364	14200	-18	21	-25	-14800	2776	-6168	5	7	-33	24	664	16992	-18	-20	42	-7640	296	14888	80	-53	-139	-14920	2720	-6872	16	-3	-5	-320	1960	17032	-10	6	24	127	125	5
-7328	-1416	14220	-25	21	-19	-14904	2752	-6480	0	4	-35	160	512	17112	-20	-17	43	-7528	320	14920	84	-44	-150	-14960	2760	-6616	13	-7	-11	-184	1768	17064	-9	10	24	127	125	5
-7312	-1404	14136	-21	23	-21	-14704	2880	-6112	-7	8	-40	-96	448	16776	-22	-17	40	-7592	376	15224	71	-96	-124	-14816	2760	-6696	12	-3	-12	-240	1752	17088	-5	7	24	126	125	5
-7336	-1368	14252	-20	24	-24	-14840	2720	-6256	-1	7	-41	64	528	16832	-26	-23	43	-7408	488	15000	34	-127	-159	-14920	2632	-6752	18	-7	-13	-320	1736	17144	-5	7	21	126	125	5
-7292	-1408	14220	-23	20	-23	-14800	2728	-6024	1	6	-39	120	408	16760	-29	-25	43	-7544	336	15208	46	-82	-190	-14888	2504	-6392	18	-2	-15	-272	1760	17120	-8	7	27	126	125	5
-7312	-1424	14140	-21	18	-27	-14864	2712	-6344	9	7	-45	184	352	16632	-29	-26	40	-7496	408	15032	42	-50	-142	-15008	2552	-6584	14	-3	-16	-96	1672	17168	-11	5	25	126	125	5
-7316	-1420	14180	-21	20	-27	-14760	2760	-6440	12	5	-38	112	304	17024	-32	-20	40	-7408	440	15288	49	-71	-165	-14912	2568	-6888	14	0	-17	-368	1568	17072	-16	7	27	126	125	5
-7328	-1420	14188	-20	21	-24	-14800	2624	-6408	11	6	-39	232	264	16840	-24	-22	42	-7608	232	15296	87	-120	-144	-14840	2632	-6864	13	3	-18	-88	1488	17152	-10	13	31	126	125	5
-7252	-1444	14184	-19	22	-25	-14744	2496	-6368	6	4	-36	64	168	16680	-22	-18	44	-7560	416	15032	51	-73	-165	-14872	2576	-6936	10	-1	-12	-312	1552	16952	-1	6	32	126	125	5
-7320	-1456	14192	-18	21	-26	-14800	2624	-6216	14	6	-34	168	168	16992	-17	-21	42	-7496	312	14984	60	-39	-155	-14864	2432	-6824	9	1	-16	-208	1288	17120	0	7	29	126	125	5
-7320	-1448	14200	-20	21	-28	-14936	2496	-6240	5	8	-27	168	184	16912	-11	-20	42	-7416	448	14984	46	-71	-162	-15104	2472	-6776	10	-1	-10	-240	1560	16936	8	3	27	126	125	5
-7324	-1416	14232	-17	16	-24	-14816	2616	-6184	9	5	-29	248	24	16984	-8	-20	42	-7528	416	14968	87	-20	-132	-15144	2432	-6936	17	0	-10	-184	1512	16856	6	3	25	126	125	5
-7356	-1416	14264	-15	20	-22	-14936	2616	-6144	6	2	-26	208	208	16872	-6	-20	37	-7552	344	15272	68	-74	-139	-15048	2584	-6704	19	1	-5	-184	1512	17032	6	3	22	126	125	5
-7328	-1440	14140	-18	18	-20	-14728	2608	-6416	6	3	-19	264	184	16880	-5	-15	32	-7424	440	15072	91	-21	-127	-14896	2464	-6688	17	-3	-2	-272	1368	16976	2	6	22	126	125	5
-7372	-1392	14060	-15	15	-22	-14704	2568	-6040	1	2	-14	264	312	16720	-12	-19	27	-7552	304	15184	80	-58	-133	-14896	2392	-6592	13	2	-2	-232	1488	17088	3	1	14	126	125	5
-7392	-1420	14188	-17	19	-19	-14784	2640	-6392	1	5	-9	320	240	16984	-7	-16	22	-7464	240	15000	119	8	-146	-14936	2416	-6776	11	-1	3	-352	1384	17000	8	0	11	126	125	5
-7316	-1400	14168	-12	16	-22	-15016	2600	-6240	-1	-1	-10	184	64	17224	-7	-16	26	-7544	392	15168	103	12	-144	-15000	2432	-6688	8	3	5	-496	1424	17240	14	1	13	126	125	5
-7356	-1456	14240	-14	14	-17	-14888	2664	-6176	0	-2	-7	-40	200	16816	0	-14	18	-7520	392	14896	95	-82	-136	-14960	2376	-6672	4	-3	11	-304	1288	17128	19	5	9	126	125	5
-7288	-1392	14172	-10	19	-21	-15016	2696	-6368	0	-8	-7	176	168	17032	6	-13	24	-7544	368	14976	119	10	-94	-14920	2456	-7032	5	0	9	-248	1232	17056	21	-3	12	126	125	5
-7288	-1428	14096	-13	16	-18	-14736	2648	-6520	1	-9	-2	184	248	17056	10	-10	19	-7504	376	15184	131	-86	-114	-15048	2384	-6920	1	-8	19	-496	1232	17168	26	-1	6	126	125	5
-7272	-1368	14136	-10	16	-24	-14928	2624	-6496	3	-10	0	-16	312	17112	6	-10	17	-7512	232	15032	140	-20	-130	-15040	2400	-6584	9	-2	15	-416	1416	16992	30	4	5	126	125	5
-7396	-1384	14192	-12	15	-20	-14984	2712	-6440	4	-11	3	144	328	16840	10	-10	16	-7552	432	14952	120	-43	-115	-14896	2424	-6760	17	-11	23	-288	1512	17240	28	-1	2	126	125	5
-7324	-1412	14092	-10	11	-18	-14736	2624	-6120	3	-12	6	168	440	16848	8	-8	14	-7536	248	15096	136	-9	-106	-14960	2536	-6648	14	-12	25	-296	1408	17248	29	-5	-1	126	125	5
-7320	-1368	14240	-13	14	-20	-14720	2744	-6296	-2	-12	-2	176	336	17024	7	-10	15	-7496	336	14912	139	8	-108	-15008	2512	-6648	10	-11	27	-296	1464	17016	33	-1	-6	126	125	5
-7344	-1460	14180	-13	10	-22	-14848	2592	-6160	1	-9	0	176	472	17112	7	-13	17	-7624	280	15000	127	1	-82	-14968	2440	-6856	8	-6	26	-168	1416	16920	29	1	-6	126	125	5
-7352	-1440	14168	-10	16	-24	-14872	2584	-6240	4	-9	-2	344	432	17128	6	-9	20	-7568	264	15120	168	46	-91	-14904	2536	-6744	5	-4	29	-280	1560	16952	27	-6	-11	126	125	5
-7316	-1444	14120	-15	18	-20	-14680	2824	-6096	1	-7	-2	280	360	17264	4	-13	17	-7456	272	15176	179	21	-78	-14960	2512	-6704	9	-7	31	-328	1440	16944	31	-2	-13	126	125	5
-7328	-1436	14216	-12	14	-20	-14768	2736	-5968	4	-1	-1	256	384	17008	2	-11	20	-7440	400	15224	151	52	-113	-14912	2600	-6856	5	-3	29	-184	1616	17192	25	-5	-11	126	125	5
-7368	-1452	14224	-10	17	-20	-14840	2632	-6200	3	-4	-4	168	456	16776	8	-9	18	-7528	384	15280	149	46	-154	-14928	2576	-6760	4	-2	31	-288	1584	16864	30	-5	-15	126	125	5
-7328	-1404	14136	-9	12	-23	-14944	2744	-6008	1	0	-5	208	336	17032	6	-12	22	-7584	352	15128	153	43	-134	-14928	2624	-6656	5	0	30	-312	1736	16848	29	-6	-12	126	125	5
-7348	-1404	14100	-10	14	-23	-14848	2792	-6272	-2	1	-2	168	336	16792	0	-9	23	-7568	336	14976	141	13	-111	-14848	2776	-6768	1	3	28	-168	1696	17256	32	-2	-12	126	125	5
-7324	-1376	14272	-15	16	-23	-14768	2744	-6384	-4	-3	-7	208	472	17016	-2	-15	28	-7464	272	15264	121	66	-122	-14960	2648	-6816	6	3	21	-280	1600	17296	25	-2	-3	127	125	5
-7336	-1368	14080	-8	19	-21	-14728	2592	-6312	0	-2	-4	264	320	17152	4	-10	23	-7560	416	15336	121	46	-120	-14912	2656	-6848	3	-2	24	-288	1792	17144	32	-1	-1	126	124	5
-7364	-1424	14144	-11	15	-21	-14800	2608	-6320	-1	0	-4	32	376	16944	8	-14	26	-7736	368	14936	123	-8	-124	-14904	2664	-6896	5	0	18	-256	1656	16880	28	0	7	126	125	5
-7344	-1400	14116	-12	16	-20	-14792	2808	-6296	1	-1	-7	32	320	16928	9	-7	25	-7440	416	14928	113	-38	-142	-14912	2640	-6744	9	-8	14	-376	1776	17096	28	0	11	126	125	5
-7344	-1368	14296	-12	18	-22	-14792	2632	-6312	5	-5	-5	112	432	16776	1	-9	24	-7520	232	15064	112	-40	-124	-14768	2560	-6720	5	-7	10	-344	1880	17280	32	2	10	126	125	5
-7264	-1420	14220	-12	12	-23	-14944	2544	-6440	7	-11	-9	72	392	16848	0	-12	18	-7488	424	14936	107	-32	-129	-14952	2624	-6800	8	-4	14	-344	1584	17120	26	1	18	127	125	5
-7320	-1364	14260	-16	14	-25	-14936	2712	-6376	5	-14	-3	176	560	16768	3	-10	18	-7552	424	14960	110	-60	-119	-14928	2576	-6888	16	-11	10	-344	1592	17312	20	5	16	126	125	5
-7312	-1436	14180	-10	14	-22	-14928	2872	-6288	-3	-12	-9	168	512	16880	4	-10	17	-7560	424	14896	128	-11	-116	-14952	2488	-6680	16	-5	10	-208	1648	17048	18	-2	15	126	124	5
-7344	-1372	14176	-9	12	-25	-14856	2776	-6328	-1	-12	-3	344	376	17136	4	-9	19	-7600	464	15008	102	-26	-124	-14936	2560	-6712	13	-4	13	-264	1448	17000	17	4	15	127	125	5
-7316	-1444	14152	-8	15	-22	-14840	2504	-5872	-1	-6	-10	408	320	16936	3	-8	14	-7624	336	15040	126	-46	-142	-14984	2632	-6688	9	-3	9	-160	1576	17064	17	3	11	127	125	5
-7288	-1356	14172	-10	17	-19	-14784	2648	-5936	4	-1	-2	272	464	17008	0	-9	21	-7592	312	15096	86	28	-133	-14872	2456	-6664	7	-4	13	-256	1496	17048	16	2	9	127	125	5
-7216	-1376	14096	-13	20	-25	-14848	2672	-6232	8	6	3	392	392	16792	-6	-11	19	-7472	320	14848	124	-20	-124	-14952	2584	-6728	9	-1	15	-224	1480	16888	17	-4	1	126	125	5
-7280	-1380	14188	-14	19	-22	-14856	2552	-6056	11	-1	6	288	288	16896	-4	-10	16	-7488	456	15176	135	-12	-133	-14864	2520	-6744	8	-1	15	-240	1568	17136	23	-6	-2	126	125	5
-7312	-1412	14272	-10	14	-21	-14912	2720	-6392	-2	3	2	304	168	16872	-4	-11	19	-7440	280	15208	122	46	-155	-14712	2592	-6720	9	-3	20	-184	1496	17088	23	-6	-2	127	125	5
-7320	-1348	14148	-5	17	-17	-14680	2632	-6272	-2	2	5	208	312	17056	7	-16	19	-7536	376	15064	129	-5	-114	-15032	2496	-6888	15	4	23	-248	1456	17120	20	-13	-2	127	125	5
-7280	-1348	14216	-15	16	-17	-14760	2696	-6352	-9	2	5	88	248	17056	12	-12	23	-7552	328	15288	167	-28	-133	-15032	2552	-7008	6	0	25	-472	1440	17144	28	-10	-3	127	125	5
-7336	-1416	14124	-12	14	-21	-14872	2592	-6424	-9	-1	6	184	280	16920	18	-10	25	-7528	328	15128	148	12	-126	-14912	2336	-6704	10	1	26	-256	1392	16904	31	-7	2	127	125	5
-7296	-1436	14192	-10	17	-15	-14792	2592	-6640	-2	-5	10	112	352	16872	24	-9	20	-7464	320	15112	132	3	-143	-14936	2456	-6680	8	0	26	-360	1312	17112	43	-14	0	127	125	5
-7304	-1384	14244	-10	13	-16	-14864	2616	-6440	1	0	10	152	256	16992	27	-10	17	-7512	480	15104	163	26	-132	-14944	2440	-6704	6	0	31	-424	1336	17184	45	-9	-2	127	125	5
-7304	-1360	14184	-6	13	-19	-14800	2712	-6328	7	-11	20	-24	440	16808	29	-4	9	-7640	328	15168	148	-22	-121	-14888	2512	-6912	2	-5	34	-416	1520	17088	54	-4	4	126	125	5
-7292	-1340	14248	-7	12	-17	-14784	2512	-6504	0	-19	15	64	496	17048	32	-4	5	-7448	384	14944	157	-12	-94	-15008	2512	-7184	3	-8	30	-360	1520	17088	52	-8	0	127	125	5
-7272	-1400	14212	-7	10	-17	-14864	2720	-6344	-12	-21	16	72	504	16912	35	-1	5	-7672	464	15176	193	24	-104	-14840	2536	-6816	0	-9	36	-304	1424	17296	49	-4	-3	126	125	5
-7332	-1404	14108	-8	8	-22	-14856	2760	-6248	-14	-23	11	168	576	16960	27	-7	0	-7424	176	15072	179	35	-107	-14968	2536	-6704	-2	-10	41	-448	1616	17280	51	-11	-2	126	125	5
-7292	-1420	14188	-8	11	-23	-14840	2800	-6336	-14	-19	16	88	552	17040	19	-13	-3	-7488	448	15104	211	-19	-94	-14864	2600	-6632	0	-17	36	-384	1808	16920	47	-5	-9	127	125	5
-7372	-1364	14124	-12	12	-17	-14728	2824	-6408	-7	-17	12	24	760	16784	14	-7	0	-7472	456	15360	191	43	-107	-14896	2528	-6672	12	-12	36	-312	1776	17112	43	-2	-11	126	125	5
-7276	-1372	14084	-9	5	-20	-14864	3000	-6400	-7	-16	7	208	664	17016	13	-4	2	-7544	368	14960	189	55	-84	-14928	2616	-6816	7	-11	36	-176	1920	17072	37	0	-11	127	125	5
-7252	-1404	14120	-8	11	-23	-14784	2808	-5960	-5	-15	5	232	792	16784	15	-6	7	-7552	344	15096	169	66	-91	-14816	2720	-6624	7	-13	35	-168	1992	17016	36	-1	-12	127	125	5
-7228	-1336	14060	-6	14	-24	-14880	2800	-6040	0	-15	1	336	736	16912	15	-9	9	-7408	456	15224	172	55	-108	-14928	2616	-6816	12	-8	31	16	1816	17016	28	4	-19	127	125	5
-7284	-1380	14244	-10	20	-18	-14832	2872	-6376	7	-10	-12	104	960	16760	6	-15	12	-7624	408	15136	176	53	-103	-14840	2768	-6704	18	-4	27	56	1984	17000	27	1	-22	127	125	5
-7284	-1312	14208	-14	15	-24	-14792	3032	-6424	5	-6	-10	-120	944	17016	-8	-15	10	-7456	368	15168	121	70	-122	-14992	2864	-6728	13	5	19	-32	2208	16720	26	-2	-15	126	124	5
-7260	-1320	14168	-14	17	-28	-14816	3080	-6336	0	-2	-27	-112	1040	17096	-16	-18	22	-7528	384	14848	97	73	-162	-14928	3016	-6552	-1	8	5	-168	2256	16896	25	-3	-2	127	124	5
-7248	-1320	14184	-23	22	-26	-14824	3088	-6296	-6	4	-37	16	1064	16840	-20	-15	32	-7528	344	14832	53	81	-199	-14816	3072	-6808	-5	12	1	-488	2432	16816	18	6	12	126	124	5
-7276	-1352	14188	-17	19	-26	-14808	3064	-6232	-16	3	-57	40	1040	17064	-24	-20	44	-7640	392	15184	31	5	-138	-14712	2912	-6968	-5	13	-26	-400	2304	16960	5	13	25	127	124	5
-7300	-1424	14200	-25	22	-34	-14920	2888	-6160	-7	7	-60	-152	808	16960	-30	-23	56	-7624	400	15072	-7	-97	-189	-14760	2808	-7048	15	3	-36	-736	2304	17288	-16	19	41	127	125	5
-7296	-1436	14188	-29	22	-24	-14832	2824	-6224	20	2	-76	8	784	16720	-43	-28	60	-7544	304	15160	-9	-134	-148	-14816	2776	-6632	33	-6	-43	-640	2232	16960	-39	20	60	126	124	5
-7300	-1384	14196	-33	24	-30	-14872	2888	-6024	34	5	-77	-48	672	17032	-58	-33	60	-7688	480	15104	-27	-200	-175	-14920	2928	-7032	36	-15	-57	-496	2096	16912	-57	15	74	126	124	5
-7316	-1392	14172	-32	28	-30	-15064	2848	-6144	31	1	-81	-64	752	17016	-67	-33	61	-7664	264	15184	-60	-194	-214	-14752	2784	-6856	22	-16	-65	-360	1864	16976	-64	9	78	126	124	5
-7332	-1508	14140	-32	23	-32	-14848	2792	-6336	18	4	-84	168	640	16944	-76	-34	69	-7560	272	15200	-88	-239	-221	-15056	2640	-6920	28	-17	-69	-88	1760	17072	-59	7	87	126	124	5
-7336	-1380	14104	-31	29	-32	-14904	2792	-6256	15	5	-88	256	456	17152	-79	-33	83	-7408	240	14984	-86	-249	-220	-15024	2592	-6528	33	-9	-73	16	1376	17288	-54	4	93	126	124	5
-7304	-1404	14172	-32	24	-27	-14920	2696	-6032	-5	12	-98	344	248	17000	-70	-33	88	-7536	256	14840	-72	-242	-208	-15080	2232	-6616	27	-8	-72	184	1352	17008	-49	8	99	126	124	5
-7324	-1424	14192	-31	29	-32	-14904	2512	-6064	4	15	-88	400	112	17032	-49	-31	104	-7464	312	15096	-91	-233	-229	-14944	2368	-6456	27	-5	-68	136	1088	17088	-42	6	100	126	124	5
-7296	-1424	14224	-34	28	-27	-14912	2544	-6296	3	18	-86	368	-8	16760	-45	-30	101	-7464	416	15344	-50	-162	-201	-14968	2136	-6552	24	12	-63	40	1080	17016	-39	9	105	126	124	5
-7340	-1380	14104	-33	32	-32	-14912	2240	-6144	16	17	-82	504	-104	16832	-11	-24	111	-7448	352	15320	-47	-107	-229	-15024	2248	-6784	18	13	-53	72	816	16920	-6	2	87	125	125	5
-7380	-1492	14272	-25	32	-27	-14832	2224	-6352	23	17	-68	496	-56	16832	-8	-25	111	-7288	320	14920	-76	-101	-228	-14968	2232	-6664	16	24	-39	56	776	16880	4	0	81	125	124	5
-7352	-1492	14240	-20	29	-20	-14800	2352	-6408	20	19	-61	536	32	16936	-9	-25	105	-7464	256	15168	-44	-63	-224	-15136	1992	-6584	6	29	-24	-184	824	17024	12	-6	52	125	124	5
-7368	-1512	14168	-19	29	-21	-14840	2384	-6176	16	28	-48	520	32	16872	-13	-26	95	-7392	160	15296	-33	-49	-206	-15152	1912	-6792	-6	32	-16	-360	1256	17192	-23	13	17	125	124	5
-7392	-1512	14152	-22	26	-18	-14968	2408	-6136	1	31	-42	544	-8	16856	-6	-21	77	-7384	224	14976	52	40	-184	-15072	1952	-7056	12	24	0	-232	1280	17064	-60	15	-25	125	124	5
-7364	-1440	14096	-13	28	-22	-14776	2464	-6096	-7	32	-34	240	-112	16968	3	-22	67	-7376	328	15000	124	89	-116	-15112	2096	-6984	23	14	9	-736	1184	17152	-98	-9	-47	125	125	5
-7328	-1380	14232	-16	24	-21	-14792	2360	-6504	-10	34	-25	-16	-368	16760	-1	-28	59	-7440	280	15032	166	80	-94	-14760	2264	-6824	16	8	15	-632	1088	17128	-109	-7	-44	125	124	5
-7364	-1448	14128	-13	18	-20	-14792	2096	-6528	-2	23	-5	216	-144	17104	3	-17	31	-7448	408	15216	184	67	-104	-14792	2400	-6864	2	6	23	-352	800	17112	-75	1	-52	126	124	5
-7332	-1456	14232	-9	18	-20	-14952	2248	-6264	11	11	3	496	-80	16840	6	-7	9	-7584	280	15056	185	44	-93	-14816	2232	-6944	-3	5	29	-184	592	17192	-10	-5	-45	126	124	5
-7364	-1536	14276	-9	18	-13	-14968	2240	-6504	12	8	10	280	88	16840	-17	-1	-12	-7440	248	15096	213	26	-95	-14928	2384	-6888	4	5	37	-640	672	16944	71	-10	-31	125	124	5
-7340	-1496	14148	-4	17	-15	-14736	2280	-6448	24	0	23	176	80	17120	-28	-2	-26	-7584	208	15104	240	3	-108	-14960	2208	-6952	14	3	42	-456	1128	17000	88	1	-29	126	124	5
-7372	-1428	14116	-7	17	-14	-14728	2328	-6368	17	-3	27	-128	88	17128	-36	-3	-30	-7488	288	15024	191	9	-116	-14936	2344	-6960	21	-10	49	-448	1440	17032	66	-6	-35	126	123	5
-7352	-1416	14116	-3	9	-13	-14832	2592	-6600	-6	2	31	408	-432	17032	-33	-17	-33	-7576	336	15184	205	45	-84	-14920	2288	-6960	19	-7	44	-496	1280	17080	48	-11	-25	126	123	5
-7420	-1420	14036	-3	12	-19	-15000	2456	-6560	-32	-2	35	128	-176	16816	1	-12	-24	-7592	312	15056	202	54	-56	-14920	2424	-6864	13	-16	48	-568	1096	17248	54	-5	-9	126	123	5
-7436	-1384	14264	-8	5	-20	-14848	2288	-6640	-33	-18	38	200	-520	16920	47	-2	7	-7584	296	15088	224	18	-77	-14848	2376	-6912	-3	-16	51	-320	1072	16968	72	-7	-3	125	123	5
-7376	-1500	14192	-2	7	-20	-14840	2120	-6440	-12	-28	42	96	-320	16936	75	14	28	-7552	320	15144	241	31	-82	-14944	2328	-7032	-20	-10	54	-344	1136	16960	100	-7	-9	125	123	5
-7336	-1428	14148	1	3	-14	-14912	2336	-6400	22	-35	61	144	280	16968	103	5	-18	-7448	392	14832	237	18	-77	-14984	2288	-6904	-22	-12	58	-504	1096	17080	106	-9	-8	126	123	5
-7352	-1396	14184	0	4	-16	-14832	2648	-6440	24	-36	62	96	304	17288	100	17	-49	-7528	280	15216	242	31	-79	-14920	2360	-6816	-9	-15	60	-272	1240	17080	104	-11	-25	126	122	5
-7316	-1404	14064	-1	0	-20	-14712	2776	-6224	-8	-30	59	208	808	16792	20	-3	-47	-7456	376	15208	250	40	-25	-15056	2192	-6968	10	-19	67	-72	1424	17056	77	-6	-43	126	122	5
-7288	-1436	14148	0	0	-19	-14816	2904	-6160	-6	-32	63	336	832	17136	20	-14	-55	-7384	240	15176	273	75	-44	-15000	2392	-6864	27	-21	76	88	1432	17312	61	-13	-56	126	122	5
-7372	-1392	14152	1	6	-18	-14944	2728	-6224	-21	-15	48	128	816	16760	24	11	-64	-7440	232	15096	274	98	-55	-15000	2448	-6784	28	-18	75	96	1496	17112	41	-14	-65	126	122	5
-7300	-1408	14056	0	9	-14	-14760	2720	-6104	-5	-4	41	216	776	16872	1	5	-54	-7592	336	14904	238	139	-64	-14976	2656	-6656	8	-3	70	0	1568	17008	31	-6	-62	126	122	5
-7348	-1332	14228	-2	12	-18	-14784	2768	-6216	-4	-7	33	200	776	16760	9	-5	-27	-7696	288	15080	241	132	-113	-15032	2624	-6576	-13	3	62	-72	1560	16856	34	-10	-47	125	122	5
-7300	-1332	14208	-6	13	-17	-14720	3000	-6176	-13	-4	21	208	768	16880	21	-11	12	-7528	488	14936	223	132	-85	-14936	2656	-6696	-28	9	54	-104	1512	16896	61	-16	-33	126	122	5
-7268	-1356	14320	-10	9	-19	-14640	2824	-6112	-13	2	11	-192	536	17056	13	-16	48	-7648	352	14840	205	42	-131	-14904	2784	-6728	-31	11	48	-392	1560	16760	91	-11	-21	126	123	5
-7280	-1400	14156	-12	13	-20	-14960	2744	-6616	1	-2	10	-200	712	16848	40	-13	54	-7464	272	15056	191	102	-102	-14992	2664	-6808	-19	14	50	-592	1888	17136	150	5	22	126	122	5
-7336	-1368	14120	-10	19	-19	-14952	2712	-6352	10	-7	2	-88	528	17240	33	-4	42	-7440	328	15056	182	83	-128	-14800	2616	-7008	0	7	44	-624	2144	16840	106	-8	-6	125	123	5
-7332	-1380	14156	-15	22	-20	-14744	2856	-6088	5	-11	-5	-152	640	17040	7	-6	35	-7600	368	15184	172	65	-92	-14864	2632	-6800	25	-2	44	-496	2064	16968	75	0	1	125	122	5
-7344	-1392	14084	-13	17	-19	-14720	2848	-6400	-2	-15	-9	-16	456	16960	-1	-8	30	-7488	336	15080	153	-7	-130	-14824	2792	-6936	20	-5	36	-440	2096	16856	48	-2	3	125	123	5
-7356	-1420	14216	-17	10	-23	-14872	2832	-6264	-1	-19	-9	88	616	16952	11	-6	25	-7632	416	15136	144	0	-102	-15008	2936	-6752	19	-7	37	-528	2192	16832	28	-5	5	125	123	5
-7288	-1312	14192	-15	9	-18	-14784	2824	-6368	5	-14	-6	128	648	17072	19	-10	21	-7584	368	15160	134	-28	-121	-14992	2784	-6968	6	-10	24	-384	2008	16968	20	-3	5	125	123	5
-7272	-1364	14180	-15	13	-23	-14920	2872	-6312	3	-7	-16	-16	664	16984	30	-15	30	-7512	336	15104	126	28	-140	-14944	2536	-6712	-1	-8	14	-216	2024	17152	11	-3	0	125	123	5
-7328	-1420	14232	-20	12	-20	-14864	2776	-6224	-2	-6	-25	224	808	17344	12	-16	32	-7472	464	15288	101	-23	-107	-14872	2640	-6776	5	-12	11	-272	2016	16936	7	1	9	125	123	5
-7348	-1400	14124	-16	16	-26	-14672	2760	-6088	3	0	-26	288	792	16968	-22	-16	38	-7560	424	14944	116	-40	-118	-14776	2648	-6792	12	-7	6	-216	1992	16968	0	4	14	125	123	5
-7296	-1396	14276	-19	21	-25	-14760	2816	-6264	10	-1	-27	200	672	16720	-45	-22	33	-7608	328	15200	76	-75	-111	-14832	2656	-6624	13	-7	-3	-72	1920	16952	-3	3	17	125	123	5
-7376	-1372	14200	-20	20	-25	-14848	2720	-6272	12	0	-38	240	576	16928	-58	-26	31	-7560	272	15088	64	-28	-158	-14880	2696	-6808	11	0	-10	16	1768	16840	-9	7	29	125	123	5
-7324	-1332	14272	-20	17	-18	-14848	2664	-6064	8	5	-38	176	392	16696	-68	-30	31	-7512	392	15080	53	-45	-142	-14968	2720	-6856	16	-1	-16	-176	1616	17008	-11	11	32	125	123	5
-7284	-1352	14188	-20	20	-20	-14712	2640	-6080	6	12	-35	480	152	16968	-58	-29	44	-7584	320	15032	43	-80	-154	-14944	2520	-6824	20	-4	-22	-232	1824	16952	-11	11	32	125	123	5
-7280	-1420	14168	-20	17	-21	-14944	2504	-6456	6	12	-35	256	256	17320	-27	-22	55	-7584	432	15144	37	-47	-140	-14936	2664	-6744	17	-4	-24	-272	1656	17136	-17	7	35	125	123	5
-7292	-1480	14112	-21	23	-24	-14848	2576	-6392	4	12	-31	8	136	16952	0	-18	50	-7592	344	15096	54	-72	-165	-14960	2568	-6888	17	-4	-21	-480	1568	16728	-15	10	39	125	124	5
-7320	-1508	14200	-16	25	-22	-14832	2544	-6120	6	7	-31	152	200	16888	9	-22	48	-7680	352	15168	44	-66	-159	-14944	2528	-6680	9	-6	-23	-176	1696	16776	-14	8	37	125	124	5
-7344	-1468	14144	-20	21	-25	-14824	2592	-6288	12	-1	-26	160	552	17120	8	-18	41	-7600	400	15056	22	-43	-177	-14856	2456	-6864	10	-1	-15	-128	1424	16784	-12	4	31	125	124	5
-7360	-1436	14116	-16	16	-22	-14848	2640	-6472	11	0	-26	96	464	17256	0	-19	30	-7552	304	14952	27	-97	-152	-14944	2416	-6768	14	3	-17	-368	1528	17056	-12	7	27	125	124	5
-7332	-1420	14248	-16	19	-22	-14680	2608	-6152	12	1	-23	320	496	16904	-27	-17	25	-7600	304	14968	73	-77	-164	-15008	2512	-6888	19	-6	-17	-304	1368	17096	-18	5	21	125	124	5
-7296	-1404	14220	-16	22	-28	-14840	2592	-6256	5	5	-25	376	408	16800	-36	-22	18	-7496	312	15120	45	-96	-161	-14896	2488	-6904	25	-6	-14	-168	1488	17208	-16	7	16	126	124	5
-7312	-1392	14096	-15	20	-22	-14736	2560	-6440	7	10	-24	176	408	16992	-25	-20	25	-7536	232	15152	27	-65	-143	-14832	2448	-6960	20	-6	-9	-352	1432	16992	-22	6	17	126	124	5
-7384	-1364	14164	-15	21	-22	-14864	2616	-6304	7	9	-23	152	176	16944	-28	-20	21	-7496	336	15032	72	-121	-167	-14848	2456	-6688	15	-5	-6	-280	1216	17056	-14	4	13	126	124	5
-7348	-1372	14196	-15	19	-20	-14912	2744	-6304	0	5	-22	64	248	17008	-28	-17	20	-7464	304	15224	66	-71	-153	-14984	2536	-6816	18	-9	-4	-96	1360	16944	-7	5	11	126	124	5
-7404	-1436	14180	-14	19	-25	-14784	2616	-6392	-5	6	-27	112	192	16880	-25	-20	25	-7512	344	14960	53	-72	-144	-14856	2392	-6912	10	-2	0	-128	1160	17168	-1	5	8	126	124	5
-7308	-1372	14096	-18	18	-20	-14720	2552	-6488	1	-2	-19	160	296	16880	-24	-20	29	-7544	216	15064	97	-28	-126	-14856	2448	-6808	6	0	1	-144	1376	17048	10	-4	12	126	124	5
-7384	-1456	14184	-21	20	-27	-14904	2720	-6520	8	0	-26	72	200	16840	-17	-13	24	-7568	344	15120	59	-4	-116	-15056	2376	-6712	2	-3	3	-280	1208	16952	14	-4	16	125	124	5
-7344	-1448	14168	-16	16	-20	-14832	2592	-6448	7	-3	-19	304	216	16928	-6	-15	31	-7560	344	15056	97	-77	-145	-14912	2320	-6904	8	4	5	-176	1136	16800	17	-4	17	126	124	5
-7384	-1384	14192	-17	17	-23	-14848	2672	-6528	15	-6	-21	368	64	16816	12	-13	41	-7496	296	15176	113	-38	-130	-15008	2312	-6696	8	5	12	-296	1080	17024	27	0	25	126	124	5
-7312	-1404	14160	-17	15	-28	-14736	2600	-6224	6	-1	-23	296	320	17008	16	-16	51	-7560	472	15200	105	-21	-147	-14936	2400	-6856	10	-1	11	-312	1104	17128	42	-2	17	126	124	5
-7332	-1436	14144	-18	18	-21	-14872	2560	-6384	-2	1	-22	216	176	16880	22	-10	52	-7560	224	15032	116	-4	-148	-14928	2320	-7016	9	-2	20	-280	1200	17024	48	-6	7	126	124	5
-7388	-1348	14284	-15	16	-22	-14840	2464	-6424	7	1	-12	192	136	17008	19	-10	45	-7472	160	15144	154	-20	-75	-14848	2456	-6696	11	2	24	-256	1336	17304	50	-7	6	126	124	5
-7300	-1476	14176	-15	12	-20	-14888	2448	-6320	-1	-4	-8	176	144	16824	12	-13	38	-7440	352	15088	166	47	-124	-15024	2408	-6800	6	-2	27	-480	1328	17304	49	-5	2	126	125	5
-7356	-1408	14156	-12	12	-18	-14952	2384	-6344	-1	-5	-6	16	184	17016	5	-10	24	-7568	336	15200	170	7	-123	-14968	2360	-6992	-4	3	28	-456	1256	17064	43	-8	-5	126	124	5
-7332	-1392	14260	-8	18	-22	-14872	2368	-6376	-7	-14	2	152	40	17080	10	-1	12	-7568	328	15136	191	42	-118	-14944	2424	-6944	-5	-2	34	-408	1376	17080	41	-4	-8	126	125	5
-7320	-1380	14116	-14	13	-21	-14736	2504	-6352	-4	-15	11	264	40	16832	12	0	2	-7496	176	14888	214	-9	-86	-14792	2424	-6800	1	-1	31	-248	1416	17024	45	-5	-11	126	125	5
-7344	-1408	14148	-8	10	-18	-14840	2584	-6216	-4	-17	14	248	64	16848	20	-2	2	-7544	368	15176	174	80	-99	-14848	2312	-6760	5	-5	41	-400	1424	17296	46	-6	-14	126	125	5
-7324	-1404	14172	-9	8	-21	-14824	2480	-6480	-3	-14	14	224	280	17008	22	-9	1	-7440	240	15000	181	2	-140	-14864	2592	-6848	7	-8	43	-320	1528	16992	50	-8	-15	126	125	5
-7344	-1460	14164	-6	7	-19	-14824	2576	-6488	-6	-19	19	240	272	16712	36	-3	2	-7584	384	14952	210	-8	-79	-14952	2456	-6568	7	-5	42	-288	1432	16992	51	-9	-15	127	125	5
-7324	-1356	14180	-7	6	-20	-14856	2568	-6408	-1	-21	23	216	328	16992	36	-6	1	-7504	344	15016	158	51	-69	-14880	2360	-6880	10	-11	39	-144	1584	17072	50	-10	-14	127	125	5
-7356	-1392	14220	-5	7	-17	-14880	2632	-6120	-3	-16	29	200	336	16896	33	-3	-7	-7504	336	15080	155	55	-104	-14840	2576	-6760	8	-7	38	-184	1608	17232	44	-6	-16	127	125	5
-7388	-1416	14220	-9	8	-22	-14848	2704	-6256	0	-15	30	72	520	16920	24	-4	-7	-7520	320	15200	140	23	-101	-15040	2584	-6704	8	-9	34	-216	1552	16944	42	-5	-15	127	125	5
-7348	-1336	14148	-4	7	-16	-14712	2712	-6328	-7	-19	24	32	536	16856	16	-5	-7	-7544	288	14944	178	-3	-95	-14848	2704	-6952	2	-11	43	-272	1648	17064	41	-8	-18	127	125	5
-7328	-1424	14192	-5	14	-21	-14776	2680	-6296	0	-12	25	128	568	16872	13	-8	-9	-7624	328	14976	161	21	-101	-14792	2568	-6864	-1	-6	38	-48	1776	17184	39	-6	-15	127	125	5
-7352	-1396	14284	-7	10	-20	-14840	2728	-6248	-4	-12	18	72	480	16888	11	-9	2	-7512	344	15096	196	39	-89	-14872	2440	-6872	-1	-2	37	-112	1664	17184	37	-8	-18	127	125	5
-7292	-1412	14184	-4	11	-17	-14904	2832	-6304	-9	-8	16	80	568	16928	12	-9	0	-7592	328	15080	180	32	-123	-14872	2568	-6776	-4	-3	34	-256	1760	17000	36	-3	-16	127	125	5
-7340	-1376	14104	-7	11	-18	-14712	2744	-6272	-2	-7	12	112	592	16800	8	-6	6	-7552	344	15216	131	17	-79	-14872	2624	-6912	7	2	30	-280	1744	17232	31	-6	-10	127	125	5
-7332	-1404	14172	-5	16	-20	-14792	2880	-6320	-2	-5	9	176	464	16992	9	-10	7	-7496	448	15184	157	49	-127	-14872	2664	-6808	8	-4	29	-352	1672	16912	27	-5	-6	127	126	5
-7280	-1396	14192	-9	13	-19	-14720	2728	-6120	3	-5	4	112	648	16808	13	-8	13	-7416	392	14816	135	71	-123	-14896	2552	-6800	12	-6	24	-344	1936	17032	23	-2	0	127	125	5
-7364	-1436	14260	-12	13	-16	-14824	2760	-6440	3	-3	-2	104	616	17080	9	-8	16	-7624	352	15008	143	-9	-99	-14888	2744	-6904	23	-6	18	-352	1888	16824	22	1	2	126	126	5
-7344	-1412	14140	-19	14	-26	-14776	2808	-6216	13	-6	-11	0	576	16984	-2	-14	18	-7568	368	14808	130	54	-147	-14744	2648	-6672	24	-8	16	-184	1872	17000	17	1	5	127	125	5
-7260	-1300	14176	-16	20	-18	-14712	2760	-6224	5	-5	-11	40	696	16872	-9	-15	26	-7448	384	15024	122	-39	-114	-14960	2664	-6968	26	-8	14	-160	1952	16912	21	1	9	127	125	5
-7288	-1352	14184	-14	19	-19	-14680	2736	-6296	-1	1	-20	96	632	16960	-6	-12	28	-7496	464	15056	92	63	-188	-14856	2640	-6608	12	-2	9	-208	1824	17048	17	5	13	127	126	5
-7348	-1448	14224	-19	17	-25	-14776	2816	-6376	1	0	-19	48	624	16968	-9	-16	31	-7600	352	14808	108	-61	-113	-14856	2568	-6920	7	-3	2	-288	1776	16864	10	0	16	127	125	5
-7336	-1408	14160	-18	18	-23	-14808	2824	-6496	-2	3	-22	176	504	17000	-13	-17	38	-7576	384	15088	106	-40	-147	-14864	2560	-7056	6	2	2	-328	1608	17064	0	5	17	127	126	5
-7288	-1392	14248	-17	19	-22	-14872	2872	-6384	3	5	-32	200	408	17024	-17	-22	35	-7560	400	15256	79	-33	-140	-14976	2520	-6856	6	2	-3	-248	1792	16968	1	8	22	127	126	5
-7352	-1376	14176	-16	21	-22	-14880	2688	-6088	2	4	-30	152	664	16832	-21	-20	39	-7496	352	15056	77	-57	-121	-14856	2688	-6824	8	1	-2	-328	1632	16896	-7	6	21	127	126	5
-7300	-1404	14268	-23	19	-23	-14816	2648	-6264	10	8	-30	120	440	16984	-25	-22	43	-7608	368	15080	51	-69	-156	-14872	2512	-6984	9	-4	-9	-248	1664	16920	-2	2	20	126	126	5
-7348	-1452	14128	-22	24	-21	-14880	2680	-6400	15	5	-29	232	416	16936	-20	-20	46	-7560	448	15176	77	-74	-174	-14808	2496	-6768	10	-2	-10	-168	1608	16952	1	1	27	126	126	5
-7372	-1424	14208	-18	20	-24	-14960	2752	-6472	10	3	-33	176	264	16824	-13	-18	44	-7552	368	14904	39	-63	-150	-14944	2560	-6808	8	-1	-6	-224	1632	16888	5	2	29	126	126	5
-7288	-1472	14140	-22	18	-25	-14880	2688	-6240	6	2	-35	248	352	17176	-13	-17	49	-7512	336	15280	39	-64	-149	-14872	2568	-6816	12	-2	-14	-144	1512	16760	5	8	30	126	125	5
-7388	-1360	14156	-16	22	-21	-14864	2584	-6336	7	2	-35	200	328	16888	-8	-23	47	-7456	264	15136	25	-45	-173	-15048	2512	-6592	12	1	-14	-176	1440	17176	9	5	27	126	125	5
-7376	-1488	14104	-17	24	-26	-14936	2600	-6384	9	5	-28	296	240	16800	-9	-21	40	-7528	320	14992	37	2	-151	-14816	2472	-6752	10	2	-8	-240	1408	17112	3	4	28	126	126	5
-7364	-1480	14240	-18	18	-19	-14776	2744	-6272	11	2	-22	152	392	16816	-21	-20	35	-7440	272	15032	49	-23	-161	-14960	2520	-6904	8	2	-8	-368	1384	16816	5	6	22	126	126	5
-7308	-1400	14276	-16	19	-22	-14880	2512	-6504	7	3	-24	168	256	16928	-14	-15	37	-7376	232	14808	78	-117	-158	-14864	2392	-6840	17	7	-1	-264	1352	17184	8	2	19	126	126	5
-7324	-1440	14208	-21	21	-24	-14768	2472	-6424	3	-1	-22	376	80	17112	-19	-13	32	-7536	296	15168	63	-59	-135	-14912	2512	-6808	11	-1	-1	-296	1336	17248	8	2	18	126	125	5
-7352	-1380	14196	-13	23	-25	-14992	2504	-6384	-3	-2	-19	240	56	16952	-10	-16	34	-7592	336	15112	92	8	-134	-14984	2424	-6912	9	3	2	-344	1336	16960	13	2	20	126	125	5
-7368	-1388	14028	-15	20	-20	-14792	2608	-6096	-1	1	-12	280	144	16904	-2	-15	33	-7504	272	14952	80	-34	-143	-14824	2360	-6840	8	-1	9	-328	1320	17088	14	2	15	126	125	5
-7312	-1328	14064	-12	17	-21	-14720	2464	-6216	2	1	-9	320	216	16824	2	-12	25	-7528	312	15032	104	-67	-160	-14976	2416	-6840	10	-5	8	-448	1288	16968	20	-1	16	126	125	5
-7400	-1484	14232	-14	18	-22	-14832	2584	-6248	-2	-3	-6	176	168	16880	6	-11	19	-7592	320	15104	128	-33	-152	-14968	2392	-6968	8	-6	12	-256	1376	17264	22	0	9	126	125	5
-7296	-1412	14128	-13	13	-22	-14712	2560	-6424	2	-7	-2	176	176	17160	3	-10	17	-7456	288	15224	130	-55	-116	-14904	2368	-6936	10	-5	18	-304	1288	17280	27	-2	8	126	125	5
-7268	-1492	14184	-14	17	-21	-14704	2464	-6216	1	-11	-5	160	216	16952	8	-11	13	-7456	320	15056	137	9	-110	-15000	2512	-7072	9	-4	20	-296	1408	17168	23	0	2	126	125	5
-7324	-1408	14120	-11	13	-19	-14912	2632	-6720	0	-12	5	200	136	16936	8	-10	13	-7536	424	15232	131	0	-137	-15032	2376	-6864	5	-6	21	-280	1352	17128	24	-2	4	126	125	5
-7344	-1428	14256	-14	14	-23	-14776	2496	-6264	0	-10	1	176	280	17056	10	-8	10	-7536	384	15152	183	-8	-110	-14992	2336	-6592	5	-1	25	-216	1288	17024	25	-3	-3	126	125	5
-7324	-1464	14252	-10	16	-20	-14928	2520	-6312	-4	-10	5	432	224	17040	14	-10	13	-7520	376	15200	149	18	-85	-14968	2440	-6920	9	-6	30	-304	1552	17080	32	-1	-5	126	125	5
-7288	-1404	14228	-15	13	-19	-14736	2512	-6256	-4	-10	4	216	496	16928	6	-9	17	-7536	296	14960	185	-1	-77	-14944	2520	-6776	4	-6	34	-160	1352	17048	37	-2	-4	126	125	5
-7308	-1348	14176	-11	11	-19	-14864	2624	-6232	-1	-7	7	304	368	16944	9	-10	11	-7584	344	14992	185	33	-105	-14816	2536	-6912	8	-5	37	-208	1480	17232	40	-1	-8	126	125	5
-7284	-1364	14140	-10	15	-23	-14904	2712	-6304	0	-7	3	200	584	16816	5	-11	15	-7552	288	14928	172	65	-106	-14944	2488	-6880	6	-3	31	-136	1408	17120	34	-7	-10	126	125	5
-7332	-1440	14168	-11	14	-18	-14808	2664	-6520	3	-4	3	-40	384	17048	9	-9	12	-7408	424	15216	171	45	-115	-15000	2584	-6856	9	-7	34	-128	1632	17064	39	-4	-11	126	125	5
-7316	-1328	14156	-12	15	-23	-14880	2672	-6272	-4	-10	6	168	256	17008	11	-7	17	-7576	296	15024	110	59	-120	-14776	2512	-6824	6	2	32	-328	1696	16912	37	-9	-8	126	124	5
-7356	-1420	14144	-11	15	-16	-14672	2648	-6288	-2	-13	-6	96	392	16832	12	-7	16	-7472	232	15056	130	51	-122	-14752	2464	-6960	3	-1	32	-272	1616	16832	37	-5	-5	126	125	5
-7364	-1364	14120	-12	13	-22	-14864	2672	-6440	-4	-9	-3	248	496	17136	8	-5	21	-7408	240	15120	176	28	-116	-14984	2584	-6800	0	-4	24	-232	1840	16912	34	-5	-3	126	124	5
-7324	-1396	14112	-7	16	-23	-14808	2696	-6328	4	-13	-1	56	384	16944	2	-11	19	-7576	320	15040	119	-8	-142	-14984	2424	-6984	5	-4	21	-352	1616	17024	29	-2	2	126	125	5
-7352	-1404	14204	-14	11	-21	-14760	2592	-6328	3	-8	-11	160	432	16872	-3	-11	22	-7640	424	15280	127	-3	-121	-14864	2592	-7000	6	-9	21	-184	1760	17064	28	-1	8	125	125	5
-7288	-1444	14152	-13	14	-25	-14984	2648	-6328	4	-8	-4	232	408	16920	2	-13	28	-7568	536	15032	118	5	-80	-14944	2504	-6768	13	-3	22	-176	1768	17056	24	1	10	126	124	5
-7232	-1472	14124	-12	14	-20	-14888	2736	-6224	2	-8	-8	272	392	17024	9	-10	24	-7584	352	14880	134	5	-124	-15032	2504	-6656	8	-6	14	-208	1680	16992	20	1	9	126	125	5
-7384	-1468	14244	-15	13	-24	-14944	2648	-6416	3	-5	-10	336	528	16872	5	-12	22	-7656	296	15192	118	-25	-142	-14968	2608	-6792	7	-3	14	-160	1720	17184	20	5	8	125	125	5
-7348	-1404	14128	-15	15	-23	-14840	2624	-6600	4	-6	-12	200	584	16912	6	-16	22	-7592	320	14936	116	-2	-142	-14992	2536	-6808	4	-4	8	-224	1816	16800	15	1	10	125	124	5
-7296	-1340	14124	-13	17	-22	-14776	2640	-6544	3	-3	-13	320	432	17064	-5	-14	23	-7568	400	15080	97	-51	-142	-14832	2560	-6744	7	-4	9	-208	1656	17048	10	2	8	125	124	5
-7288	-1428	14220	-14	13	-22	-14688	2560	-6272	0	-3	-15	472	368	16952	-7	-15	23	-7592	448	15120	128	-88	-113	-14904	2528	-6776	11	-3	4	-208	1512	17072	4	3	8	125	124	5
-7360	-1404	14072	-13	18	-28	-14872	2704	-6408	-2	3	-13	176	376	16824	-7	-15	25	-7520	352	14968	90	-23	-130	-14872	2448	-6696	21	-3	9	-136	1592	16976	10	1	8	125	124	5
-7296	-1376	14184	-14	17	-19	-14912	2560	-6144	0	2	-10	192	240	17024	-6	-16	30	-7520	304	14896	84	-13	-164	-14920	2552	-6728	17	-1	7	-208	1656	17080	11	-1	10	125	125	5
-7320	-1404	14192	-13	17	-21	-14904	2624	-6272	3	-1	-11	160	400	17112	-4	-12	25	-7560	352	15248	114	-48	-128	-14896	2504	-6824	15	-3	7	-208	1512	17168	12	4	12	125	125	5
-7308	-1396	14140	-16	18	-20	-14880	2640	-6408	8	-2	-15	176	384	16968	-7	-14	24	-7536	272	14984	103	1	-164	-14848	2544	-6704	7	0	7	-224	1560	17264	11	2	15	125	125	5
-7400	-1392	14184	-15	19	-24	-14832	2584	-6352	12	2	-13	56	440	16920	-6	-13	27	-7472	272	15320	88	-37	-134	-14928	2384	-6624	12	4	3	-248	1536	16888	11	-1	12	125	125	5
-7408	-1412	14244	-17	17	-19	-14864	2568	-6216	-5	0	-13	216	352	17040	-7	-13	28	-7576	456	14928	93	-66	-124	-14872	2584	-6760	6	2	4	-232	1608	16936	16	0	16	125	125	5
-7288	-1440	14140	-15	17	-25	-14808	2688	-6424	-3	-3	-10	144	296	16992	-6	-14	29	-7496	288	15096	77	-16	-119	-14792	2400	-6848	8	-1	5	-432	1448	17168	15	1	14	126	125	5
-7356	-1376	14164	-15	15	-23	-14688	2624	-6472	3	-1	-12	128	240	17080	0	-14	27	-7424	216	15064	103	-22	-148	-14880	2552	-6648	4	-5	7	-256	1520	16960	15	-1	14	126	125	5
-7296	-1480	14220	-14	14	-23	-14832	2512	-6312	2	-2	-13	96	408	16856	-1	-11	26	-7536	520	14904	102	-6	-131	-14888	2504	-6936	4	2	7	-240	1512	17200	20	-3	17	126	125	5
-7344	-1420	14152	-15	13	-28	-14784	2520	-6376	3	-4	-8	176	344	16936	7	-16	28	-7624	376	15144	107	-17	-155	-14856	2552	-6840	7	-2	8	-304	1392	16960	19	-3	15	126	125	5
-7396	-1432	14196	-14	12	-23	-14832	2576	-6400	4	-5	-9	232	208	16928	8	-12	29	-7552	280	15168	95	-33	-157	-14824	2384	-7264	5	-2	11	-288	1400	16944	23	3	12	126	124	5
-7384	-1432	14168	-12	14	-23	-14792	2568	-6224	3	-12	-10	104	208	17040	9	-10	22	-7432	336	15168	101	-34	-123	-14992	2496	-6864	4	-8	15	-384	1408	17072	28	1	12	126	124	5
-7324	-1380	14164	-14	15	-20	-14832	2648	-6064	2	-10	-8	64	416	17144	6	-10	13	-7520	328	15184	100	-3	-135	-15040	2552	-6920	7	-10	18	-304	1416	17168	26	-3	12	126	124	5
-7348	-1444	14184	-14	18	-23	-14928	2552	-6256	2	-11	-2	152	464	16944	1	-7	8	-7400	296	15216	92	-16	-100	-14960	2568	-6744	9	-10	20	-240	1432	17080	22	1	0	126	124	5
-7268	-1360	14324	-8	14	-21	-14704	2592	-6304	5	-13	-5	312	344	16904	1	-9	5	-7528	368	15040	119	-8	-104	-14928	2288	-7224	16	-12	18	-88	1552	16760	23	0	-3	126	124	5
-7332	-1436	14088	-11	14	-25	-14856	2616	-6472	1	-11	-1	280	400	17072	-5	-10	8	-7496	256	15040	135	-5	-119	-14864	2304	-6816	8	-2	25	-96	1672	17064	24	-4	-2	126	124	5
-7344	-1412	14152	-14	15	-24	-14728	2648	-6064	-6	-8	-3	352	304	16944	-5	-12	18	-7576	288	15248	149	25	-94	-14872	2464	-6592	9	-4	24	-32	1512	16904	26	-3	-5	126	125	5
-7360	-1432	14224	-9	12	-20	-14824	2600	-6168	-2	-3	-1	264	200	17080	0	-9	18	-7456	304	14984	144	32	-118	-14936	2424	-6792	10	1	24	-80	1288	17080	25	-5	-7	126	125	5
-7276	-1416	14112	-10	15	-20	-14888	2600	-6336	5	1	1	280	344	16896	10	-7	19	-7560	304	15056	101	71	-118	-14960	2376	-6864	7	-1	24	-88	1400	17024	28	-5	-10	126	125	5
-7332	-1444	14200	-10	14	-21	-14864	2560	-6456	2	2	-1	280	304	17104	15	-9	25	-7560	504	15080	115	51	-159	-14984	2488	-6872	2	10	25	-280	1512	17072	43	-11	-1	126	125	5
-7284	-1404	14328	-12	14	-18	-14864	2672	-6272	-3	2	2	32	376	16920	20	-8	25	-7488	432	14960	128	6	-153	-14792	2608	-6904	4	8	24	-432	1624	17000	48	-11	3	127	126	5
-7292	-1384	14252	-10	16	-18	-14856	2688	-6448	-6	1	2	48	344	16960	20	-7	28	-7504	288	15000	96	23	-168	-14864	2688	-6912	2	2	22	-504	1624	17032	47	-6	8	127	126	5
-7296	-1428	14188	-9	11	-17	-14864	2536	-6392	-9	-3	5	16	440	17040	16	-11	34	-7520	384	15096	141	3	-109	-14808	2504	-6744	6	-1	22	-400	1592	16848	41	-3	13	127	126	5
-7348	-1452	14184	-10	15	-19	-14872	2592	-6224	-9	-6	-2	64	232	16944	14	-8	26	-7536	312	15392	113	-27	-131	-14848	2496	-7112	10	-4	19	-432	1544	17024	35	1	11	127	126	5
-7268	-1420	14156	-15	8	-23	-14816	2544	-6336	-1	-9	4	144	360	16960	16	-5	20	-7488	312	14952	160	-35	-120	-14944	2416	-7096	4	-5	22	-424	1488	17248	31	-4	7	126	126	5
-7328	-1396	14168	-14	14	-23	-14968	2672	-6168	4	-11	6	64	352	17008	13	-5	9	-7544	384	15040	154	-7	-117	-14936	2376	-6872	6	-6	22	-240	1568	17200	21	-7	3	126	126	5
-7328	-1384	14080	-8	12	-25	-14840	2632	-6312	7	-17	11	184	408	17040	5	-6	4	-7664	256	15232	194	-32	-75	-14848	2472	-6768	6	-17	26	-216	1432	17024	23	-2	0	127	126	5
-7324	-1328	14224	-11	11	-24	-14696	2592	-6368	5	-20	7	40	416	16992	9	-4	4	-7520	376	14880	182	-8	-104	-14880	2552	-6600	14	-13	26	-152	1568	16968	22	-5	1	127	125	5
-7332	-1392	14172	-10	13	-16	-14784	2696	-6160	-4	-17	10	176	352	16912	4	-6	2	-7456	440	14992	166	-3	-86	-14944	2344	-6848	14	-14	29	-232	1360	17288	25	1	-2	127	126	5
-7304	-1364	14228	-10	13	-22	-14792	2760	-6248	-11	-16	0	48	408	16792	1	-8	8	-7360	392	14872	171	-28	-98	-14856	2520	-6696	11	-18	30	-176	1480	16880	27	0	1	127	126	5
-7288	-1392	14328	-12	13	-20	-14728	2728	-6328	-12	-10	6	176	552	16880	1	-9	8	-7432	288	14952	204	-23	-83	-14856	2488	-7000	8	-9	27	40	1504	16896	38	2	-1	127	125	5
-7268	-1424	14144	-11	14	-20	-14816	2568	-6184	-14	-11	0	208	352	16968	7	-9	16	-7552	280	14992	156	-6	-143	-14984	2576	-6776	5	-11	33	-232	1568	16968	34	-4	0	127	125	5
-7324	-1432	14148	-16	12	-18	-14872	2704	-6384	-3	-4	0	224	592	16816	13	-14	24	-7560	280	15016	179	20	-102	-14960	2608	-6616	0	-5	24	-40	1560	16856	33	2	-2	127	125	5
-7288	-1348	14088	-13	11	-23	-14712	2808	-6376	4	-5	-2	200	408	16928	14	-15	30	-7536	352	15104	155	27	-108	-14896	2656	-6760	2	-1	26	-32	1656	17144	32	1	-2	127	125	5
-7280	-1380	14244	-11	14	-23	-14832	2672	-6248	2	-5	-3	144	360	17096	13	-13	29	-7424	280	15216	147	59	-125	-15048	2680	-6824	2	6	26	-152	1808	17056	29	-3	-4	127	125	5
-7316	-1364	14088	-11	13	-16	-14728	2728	-6232	7	-3	-4	184	600	17064	5	-15	32	-7608	488	15248	128	57	-136	-14992	2592	-6680	3	5	28	-160	1808	17096	29	-3	-10	126	125	5
-7196	-1460	14124	-13	14	-22	-14776	2816	-6344	5	2	-5	128	440	16952	0	-11	26	-7520	520	14896	128	29	-132	-14944	2704	-7232	9	1	25	-224	1744	17096	28	-3	-7	127	125	5
-7332	-1420	14244	-13	16	-20	-14904	2728	-6312	2	3	-13	232	632	16912	0	-16	25	-7608	112	15272	111	8	-135	-14944	2560	-6912	7	1	17	-328	1832	16912	20	1	-8	127	125	5
-7340	-1372	14084	-10	19	-18	-14888	2752	-6168	-5	3	-14	-24	584	16888	-7	-16	27	-7656	280	14952	151	-9	-104	-15024	2688	-6704	13	-1	16	-344	1944	16856	15	2	-1	127	125	5
-7292	-1392	14156	-11	19	-19	-14680	2816	-6464	-12	4	-16	224	472	17096	-11	-18	27	-7600	320	14832	127	32	-103	-14864	2576	-6784	14	-5	13	-272	1840	17032	8	4	2	127	125	5
-7304	-1424	14140	-13	17	-20	-14808	2816	-6608	-7	4	-16	-24	408	16800	-16	-18	27	-7488	344	15152	99	17	-141	-14872	2736	-6864	16	-6	4	-272	1936	16936	4	8	7	127	125	5
-7308	-1416	14176	-18	17	-24	-14936	2632	-6520	3	1	-18	48	416	16960	-16	-18	27	-7504	488	15128	90	-44	-146	-14864	2736	-6808	9	-1	-6	-280	1896	17064	3	8	15	127	125	5
-7348	-1380	14168	-20	14	-25	-14808	2624	-6248	8	-6	-22	72	464	17160	-20	-21	27	-7584	296	15064	85	-62	-129	-14824	2728	-6728	4	-4	-7	-248	1848	17072	2	7	21	127	125	5
-7324	-1320	14168	-16	17	-23	-14736	2712	-6672	16	-3	-19	96	624	16944	-16	-17	27	-7544	408	15104	89	-33	-127	-14888	2592	-6704	6	-6	-5	-304	1808	16912	-3	6	25	127	125	5
-7348	-1376	14160	-21	19	-22	-14800	2688	-6352	17	-2	-29	360	464	16872	-23	-16	31	-7544	368	14968	66	-95	-114	-14888	2608	-6896	12	-7	-11	-264	1656	16992	-11	12	29	127	125	5
-7352	-1400	14144	-15	16	-25	-14912	2872	-6496	7	-2	-29	152	568	16968	-23	-20	29	-7400	432	14968	50	-87	-131	-14952	2440	-6792	22	-10	-12	-280	1776	17056	-11	15	30	127	125	5
-7272	-1420	14220	-16	16	-23	-14720	2712	-6152	2	-2	-34	160	472	16728	-21	-17	35	-7464	336	15200	76	-80	-147	-14888	2448	-6792	22	-4	-16	-160	1568	17080	-12	10	32	126	125	5
-7256	-1384	14216	-15	20	-25	-14840	2808	-6376	-7	0	-32	200	384	17104	-25	-23	37	-7640	344	15096	47	-98	-160	-14856	2472	-6720	17	-10	-19	-224	1568	17000	-12	8	30	126	125	5
-7336	-1468	14244	-21	20	-20	-14744	2688	-6320	-3	5	-34	232	208	16992	-21	-18	39	-7552	392	15136	54	-81	-160	-14928	2520	-6608	15	-5	-14	-104	1448	17144	-10	5	33	127	125	5
-7348	-1456	14172	-20	19	-20	-14832	2480	-6424	-3	-2	-32	272	280	16896	-29	-20	41	-7520	264	15080	57	-100	-141	-14896	2520	-6776	11	1	-13	-224	1536	16960	-7	9	36	127	125	5
-7344	-1348	14196	-18	19	-20	-14792	2720	-6464	18	7	-30	296	256	17032	-24	-21	42	-7552	256	15256	36	-84	-151	-14896	2528	-6568	14	-5	-18	-160	1264	16768	-6	6	33	126	125	5
-7336	-1404	14204	-17	20	-23	-14912	2536	-6328	19	4	-29	240	392	16880	-17	-23	46	-7432	296	15096	63	-4	-166	-15008	2392	-6904	18	5	-12	-256	1400	17072	-3	9	31	127	126	5
-7328	-1436	14056	-20	19	-25	-14904	2416	-6472	24	2	-30	200	248	17048	-11	-23	45	-7408	272	15144	52	-54	-161	-14936	2344	-6632	10	1	-8	-232	1432	17088	3	4	26	127	125	5
-7280	-1372	14236	-17	21	-22	-14704	2616	-6352	20	5	-26	272	144	16888	-5	-22	43	-7440	368	15072	76	-44	-127	-15080	2336	-6792	13	6	-9	-272	1224	16848	5	5	24	127	126	5
-7308	-1376	14156	-18	22	-19	-14848	2696	-6568	10	2	-26	128	152	16952	-6	-18	41	-7552	384	15032	61	-46	-155	-14872	2392	-6648	11	5	-2	-152	1376	17080	7	-2	18	127	126	5
-7372	-1432	14148	-11	18	-18	-14888	2432	-6392	0	4	-19	192	176	16800	-5	-18	39	-7552	400	15128	72	-76	-146	-14976	2456	-6920	15	4	-1	-208	1272	17192	10	4	16	127	126	5
-7316	-1424	14136	-11	14	-20	-15008	2592	-6384	-3	6	-20	280	128	16840	-9	-20	33	-7632	392	15064	80	22	-169	-14816	2416	-6744	8	6	5	-192	1328	16864	12	1	11	127	126	5
-7312	-1432	14196	-17	17	-18	-14856	2552	-6328	-8	2	-15	272	192	16808	-3	-17	29	-7496	88	15312	89	-1	-151	-14896	2448	-6888	1	10	8	-368	1384	17344	13	4	7	127	126	5
-7404	-1376	14148	-17	16	-19	-14824	2464	-6496	-6	3	-12	328	104	17064	-3	-19	27	-7440	392	15208	92	16	-121	-14840	2400	-6888	1	3	9	-384	1328	17072	15	2	10	127	126	5
-7376	-1428	14140	-11	14	-21	-14856	2464	-6408	4	-2	-11	144	104	16856	2	-16	28	-7424	208	15104	122	-33	-93	-14912	2272	-6768	4	3	9	-384	1232	16856	15	2	4	126	126	5
-7372	-1448	14204	-11	12	-22	-14712	2576	-6344	6	-2	-4	240	328	16912	8	-15	27	-7552	352	15136	119	-5	-128	-14872	2352	-6984	3	-3	19	-288	1256	17032	20	8	1	126	126	5
-7336	-1432	14164	-12	16	-18	-14816	2560	-6368	6	-4	-2	216	192	17072	6	-17	26	-7520	328	15088	112	-22	-93	-14920	2488	-6808	4	-3	20	-296	1448	17224	24	-4	-1	126	126	5
-7384	-1392	14164	-9	15	-24	-14840	2560	-6376	3	-4	1	184	224	17224	11	-12	19	-7568	272	14960	123	24	-124	-14856	2312	-6920	8	-2	25	-320	1368	16992	26	3	-3	126	126	5
-7268	-1420	14196	-12	16	-15	-14728	2552	-6424	3	-10	1	96	200	16824	10	-12	12	-7392	408	15232	118	7	-109	-14936	2464	-6968	8	-1	27	-328	1320	16936	25	-2	-5	127	126	5
-7328	-1476	14104	-16	12	-18	-14848	2552	-6496	-7	-7	9	120	376	16944	5	-12	13	-7584	416	15168	163	5	-112	-14880	2336	-6872	10	-8	24	-416	1360	17024	23	3	-5	127	126	5
-7376	-1404	14132	-8	12	-20	-14936	2600	-6448	-11	-7	5	96	256	16888	8	-11	7	-7576	152	15080	142	10	-82	-14848	2496	-6984	17	-10	23	-320	1496	16856	21	0	-6	127	126	5
-7320	-1384	14132	-12	10	-21	-14736	2568	-6560	-17	-6	1	112	464	16792	5	-13	10	-7552	280	15136	175	54	-120	-14912	2512	-7064	15	-7	30	-288	1464	17128	23	1	-3	127	125	5
-7292	-1388	14192	-12	12	-21	-14776	2616	-6496	-3	-7	13	200	288	17160	8	-13	9	-7648	336	14992	133	16	-126	-14904	2496	-6960	9	-6	30	-264	1576	17064	23	4	-3	126	126	5
-7316	-1452	14224	-13	9	-21	-14744	2456	-6392	6	-5	8	264	288	16944	7	-10	10	-7592	296	15168	147	2	-121	-14968	2440	-6768	7	-11	23	-144	1592	17200	24	5	-7	127	126	5
-7320	-1444	14156	-11	14	-21	-14776	2544	-6488	5	-5	9	120	472	17160	8	-12	10	-7544	312	15072	134	39	-123	-15056	2544	-7048	-1	-6	18	-312	1464	16912	22	6	-5	126	125	5
-7352	-1404	14072	-8	17	-19	-14712	2584	-6456	7	-7	5	160	360	16856	6	-12	11	-7520	264	15000	112	16	-76	-14864	2552	-6864	-2	-9	25	-160	1480	16768	15	-1	-5	127	125	5
-7300	-1404	14220	-11	15	-20	-14864	2768	-6240	1	-6	2	224	344	16968	2	-11	7	-7488	384	15256	161	-7	-105	-14896	2368	-6688	3	-8	23	-152	1648	16912	15	9	-5	127	125	5
-7240	-1416	14212	-8	14	-19	-14864	2816	-6384	-5	-7	2	144	376	17008	1	-12	10	-7600	432	15088	140	2	-147	-14936	2632	-6784	11	-5	23	-232	1528	16992	13	5	-3	127	126	5
-7296	-1408	14264	-12	14	-19	-14808	2632	-6344	-4	-7	0	176	472	17144	-6	-11	14	-7504	240	15152	133	11	-152	-14888	2680	-6864	6	-4	22	-280	1624	16840	13	2	-5	127	126	5
-7268	-1368	14200	-10	13	-22	-14720	2760	-6480	-2	-5	-1	88	544	16992	-5	-14	14	-7440	368	15280	154	-8	-116	-14880	2592	-6728	5	-5	14	-256	1608	17240	20	0	-1	127	126	5
-7316	-1336	14204	-17	13	-19	-14864	2688	-6168	-3	-5	-4	192	424	16920	-1	-13	17	-7608	312	15112	154	51	-120	-14848	2504	-6728	10	-1	17	-328	1720	17080	19	2	3	127	125	5
-7348	-1400	14192	-12	19	-24	-14672	2768	-6312	-1	3	-8	144	544	16768	2	-16	24	-7472	304	15000	131	-3	-120	-14768	2512	-6784	10	-7	17	-224	1560	16992	18	0	6	127	126	5
-7352	-1308	14156	-9	16	-20	-14728	2704	-6528	5	0	-7	152	400	16968	-2	-16	26	-7416	328	15144	119	-11	-149	-14896	2536	-7032	8	3	10	-320	1512	16936	15	-1	10	127	126	5
-7288	-1432	14180	-14	15	-21	-14920	2664	-6328	2	-4	-15	176	424	16912	5	-13	28	-7456	152	15144	104	-21	-169	-14768	2656	-6864	10	-2	11	-296	1648	16912	17	2	9	127	126	5
-7340	-1444	14308	-16	19	-22	-14864	2744	-6192	5	-4	-18	32	424	16832	-1	-14	36	-7440	408	15024	91	-8	-115	-14816	2464	-6656	10	0	8	-304	1456	17088	18	0	15	127	125	5
-7300	-1440	14072	-12	18	-22	-14800	2592	-6352	5	-5	-14	120	376	17024	-1	-17	29	-7464	320	15160	94	-29	-109	-14848	2368	-6776	9	1	8	-440	1552	17008	16	6	9	127	126	5
-7352	-1444	14204	-18	16	-22	-14744	2496	-6456	1	-6	-15	232	400	16888	-3	-14	28	-7504	408	14984	93	-50	-135	-14840	2552	-6864	10	-1	8	-320	1600	16944	17	4	15	127	126	5
-7296	-1320	14200	-12	14	-23	-14800	2712	-6256	2	0	-22	208	296	17160	-9	-16	25	-7608	232	14976	74	-12	-143	-14912	2632	-6664	7	2	3	-328	1384	16896	10	5	11	127	126	5
-7340	-1316	14176	-14	14	-19	-14736	2520	-6328	1	-4	-14	264	352	17072	-16	-15	29	-7496	344	15176	74	-41	-112	-14952	2568	-6768	6	-2	5	-248	1528	16976	10	0	13	127	126	5
-7264	-1444	14116	-11	17	-21	-14856	2520	-6328	3	-1	-19	120	296	17104	-12	-19	26	-7560	368	15144	95	-72	-128	-14952	2424	-6824	10	-4	2	-264	1440	16968	9	-2	17	127	126	5
-7336	-1376	14124	-10	16	-22	-14904	2512	-6376	2	1	-19	168	280	16808	-9	-17	35	-7536	400	14992	111	-25	-136	-14792	2376	-6808	12	2	1	-256	1520	16736	11	1	18	127	126	5
-7316	-1384	14188	-15	20	-23	-14728	2576	-6392	12	1	-19	200	232	17048	1	-16	35	-7560	296	14992	88	-5	-157	-14912	2464	-6936	6	-1	7	-280	1376	16896	13	1	15	127	126	5
-7304	-1408	14116	-19	16	-20	-14792	2384	-6320	10	2	-18	200	168	17080	2	-15	36	-7400	424	15160	99	-35	-117	-14880	2456	-6688	9	2	9	-280	1376	17064	16	-1	14	127	126	5
-7320	-1412	14168	-13	14	-19	-14936	2600	-6496	8	4	-17	200	104	16760	4	-12	33	-7648	368	15056	124	20	-161	-15024	2328	-6792	15	1	9	-264	1256	16968	20	-1	10	127	126	5
-7280	-1460	14200	-14	20	-20	-14704	2440	-6376	1	-1	-11	176	288	16992	5	-11	26	-7400	328	15256	100	-32	-166	-14928	2448	-7064	17	2	14	-360	1320	17064	23	2	11	127	126	5
-7324	-1472	14164	-17	19	-24	-14840	2624	-6184	1	-6	-7	192	208	17216	-1	-12	23	-7512	376	15160	116	-55	-113	-14984	2456	-6880	10	0	16	-296	1336	17184	20	-1	10	127	126	5
-7336	-1452	14192	-15	18	-21	-14984	2464	-6408	4	-7	-7	272	272	17096	-5	-10	20	-7432	280	15232	112	10	-132	-14944	2304	-6920	5	-3	15	-416	1448	17128	26	-6	9	127	126	5
-7380	-1456	14140	-14	20	-22	-14744	2600	-6352	4	-8	-5	120	248	16784	-3	-10	18	-7496	312	15144	123	-42	-130	-15000	2384	-6704	1	-2	11	-368	1480	17064	20	-1	8	127	126	5
-7372	-1344	14212	-10	15	-22	-14904	2632	-6384	2	-3	-2	184	176	17072	0	-11	13	-7648	256	15080	120	3	-120	-14880	2456	-6888	4	-1	10	-232	1480	16920	25	4	10	127	126	5
-7320	-1424	14088	-13	14	-23	-14776	2600	-6384	-2	-7	-4	240	272	17128	0	-12	18	-7464	440	15120	106	15	-138	-14896	2384	-6880	6	-9	15	-256	1328	17176	22	2	12	127	126	5
-7400	-1380	14152	-7	12	-20	-14848	2560	-6344	-1	-8	1	208	288	16984	5	-9	18	-7440	296	15192	138	-47	-92	-14912	2360	-6912	10	-8	18	-264	1416	17024	22	2	6	127	126	5
-7348	-1440	14144	-12	15	-19	-14912	2616	-6320	-3	-8	2	248	192	17120	11	-9	16	-7512	464	15096	123	26	-121	-14864	2376	-6696	12	-10	20	-256	1488	16800	26	2	6	127	126	5
-7328	-1412	14128	-13	12	-23	-14672	2472	-6240	1	-7	8	232	96	17152	12	-7	11	-7472	328	15096	143	-30	-139	-14976	2416	-6720	14	-7	25	-128	1376	17048	25	-4	2	127	126	5
-7376	-1460	14092	-13	10	-22	-14728	2640	-6448	8	-11	7	200	224	17024	11	-11	12	-7472	328	15104	164	11	-91	-14960	2320	-6848	9	-3	24	-192	1352	17000	25	-7	-2	127	126	5
-7372	-1440	14192	-9	17	-23	-14912	2520	-6440	-2	-4	3	184	280	17016	11	-14	11	-7544	368	15136	153	14	-106	-14856	2392	-6864	4	-2	23	-112	1392	17232	27	1	-2	127	126	5
-7332	-1400	14152	-12	8	-19	-14832	2600	-6272	0	-5	8	288	312	17008	13	-11	15	-7496	240	15152	114	109	-152	-14880	2392	-6792	4	0	27	-256	1432	17200	29	-4	-4	127	126	5
-7308	-1444	14060	-13	13	-21	-14912	2680	-6040	-2	-2	4	88	512	16992	10	-13	18	-7464	248	15008	143	33	-149	-14928	2472	-6696	7	6	28	-304	1392	16992	27	-6	-8	127	126	5
-7368	-1404	14208	-7	10	-20	-14784	2736	-6264	-5	1	-1	216	448	16920	10	-11	15	-7496	232	15000	155	20	-128	-14888	2552	-6856	6	2	29	-368	1312	17016	27	-3	-11	127	125	5
-7372	-1344	14168	-14	12	-15	-14800	2608	-6392	2	-3	1	120	336	16920	0	-14	19	-7544	264	15056	138	14	-149	-14912	2520	-6912	4	-2	29	-296	1440	16920	31	-2	-10	127	125	5
-7328	-1372	14128	-4	12	-19	-14984	2592	-6264	2	-5	0	56	472	17120	2	-12	16	-7464	400	15000	154	29	-144	-14968	2536	-6712	3	-2	29	-264	1432	16776	28	-4	-6	127	125	5
-7236	-1348	14184	-13	16	-20	-14832	2664	-6368	6	-2	3	104	288	16800	1	-10	21	-7560	320	15072	113	27	-74	-14880	2520	-6992	2	-2	28	-320	1576	17248	30	-2	-8	127	125	5
-7308	-1456	14168	-13	16	-21	-14864	2704	-6392	2	-1	0	40	384	17024	6	-12	19	-7432	384	14960	116	8	-97	-15000	2408	-6792	4	-3	27	-344	1496	17088	32	-1	-3	127	125	5
-7360	-1360	14156	-15	14	-18	-14744	2584	-6216	5	-3	-4	24	440	17192	3	-13	22	-7504	320	14984	103	-8	-139	-14976	2616	-6776	6	-6	25	-312	1536	16896	27	2	-1	127	125	5
-7400	-1380	14032	-10	14	-24	-14792	2744	-6424	-1	-5	-8	48	472	17064	5	-10	20	-7472	288	15080	162	53	-113	-14880	2568	-6792	13	-5	20	-320	1560	16856	27	0	5	127	125	5
-7320	-1352	14132	-15	12	-24	-14712	2568	-6368	-3	-2	-8	184	424	16848	1	-10	21	-7464	264	15096	147	-55	-130	-15064	2616	-6888	12	-8	21	-232	1528	17248	28	0	1	127	125	5
-7276	-1384	14156	-14	11	-22	-14640	2744	-6264	0	-10	-8	192	520	16928	3	-10	24	-7544	304	15112	143	-3	-136	-14864	2560	-6776	9	-8	17	-456	1568	16816	29	-1	5	127	125	5
-7288	-1416	14072	-13	10	-23	-14856	2704	-6200	-2	-8	-10	40	440	17080	-3	-12	25	-7608	304	15064	126	-46	-103	-14992	2728	-6888	9	-10	12	-256	1608	16952	20	1	8	127	126	5
-7300	-1388	14128	-9	14	-23	-14856	2648	-6456	3	-10	-10	264	416	17120	-9	-13	22	-7520	184	15056	118	-48	-129	-14960	2512	-6824	8	-6	15	-296	1680	17192	17	3	8	127	126	5
-7292	-1500	14280	-16	13	-20	-14936	2568	-6400	4	-6	-8	184	344	16792	-6	-12	24	-7528	256	14984	149	-27	-150	-14864	2640	-6856	9	-7	8	-288	1552	17288	13	2	9	127	125	5
-7348	-1424	14116	-16	14	-25	-14760	2704	-6200	4	-3	-12	48	208	17016	-5	-8	24	-7448	280	15184	124	-21	-122	-14912	2496	-6696	7	-4	8	-256	1600	16920	15	1	10	127	125	5
-7312	-1428	14224	-17	15	-21	-14840	2552	-6328	2	-4	-12	272	448	16728	0	-11	25	-7400	216	15280	111	-29	-115	-14936	2424	-6704	7	1	12	-280	1496	17064	14	2	10	127	125	5
-7288	-1428	14188	-14	19	-21	-14840	2728	-6096	1	-1	-18	208	336	16832	-7	-15	32	-7608	368	15072	97	-2	-134	-14808	2560	-6776	9	-1	9	-240	1440	16792	17	-2	8	127	125	5
-7336	-1388	14096	-15	15	-22	-14984	2616	-6120	1	-2	-13	312	408	16896	-8	-17	25	-7592	400	15296	99	6	-133	-14928	2568	-6576	9	-1	5	-312	1656	17096	14	-4	8	127	125	5
-7264	-1376	14224	-13	21	-23	-14760	2648	-6296	-1	0	-16	384	376	17128	-9	-15	29	-7456	168	14920	123	-2	-131	-14872	2472	-6744	8	-2	7	-328	1384	16920	10	0	9	127	125	5
-7336	-1384	14216	-21	17	-25	-14672	2640	-6352	1	2	-14	272	448	16776	-10	-17	24	-7632	432	14952	79	-14	-138	-14896	2456	-6840	6	-1	10	-304	1448	16968	11	-2	12	126	126	5
