#Activity	running 
#ActivityID	2 
#Date 08-27-18-18
acc_rf_x	acc_rf_y	acc_rf_z	gyro_rf_x	gyro_rf_y	gyro_rf_z	acc_rs_x	acc_rs_y	acc_rs_z	gyro_rs_x	gyro_rs_y	gyro_rs_z	acc_rt_x	acc_rt_y	acc_rt_z	gyro_rt_x	gyro_rt_y	gyro_rt_z	acc_lf_x	acc_lf_y	acc_lf_z	gyro_lf_x	gyro_lf_y	gyro_lf_z	acc_ls_x	acc_ls_y	acc_ls_z	gyro_ls_x	gyro_ls_y	gyro_ls_z	acc_lt_x	acc_lt_y	acc_lt_z	gyro_lt_x	gyro_lt_y	gyro_lt_z	EMG_r	EMG_l	act
-27504	-16088	9396	-4648	32767	32767	-20320	-8220	16504	-9137	4048	6463	-19184	-17752	20616	-445	5170	231	-32768	-8600	7328	763	-7272	5970	-12048	-18240	-32768	-1434	-7875	1005	22696	24872	-23888	-700	1378	-119	125	135	2
-32768	-7680	7504	15002	32767	24502	-11284	-11492	20100	20465	16719	13624	-16888	-28264	30888	3113	1594	1056	-32768	-27224	-23912	755	-7131	2326	-3960	-11976	-32768	4866	-5553	1780	5528	14824	7976	-3949	-1811	-226	125	123	2
14440	-19780	-7860	32767	32767	14062	-4412	-5416	11336	32767	31630	9977	-16232	-11432	29704	5555	-2813	54	-32768	-28920	-32768	1636	-4451	-306	4336	7560	-32768	1671	-2100	1950	-8208	-112	32767	-4018	-4327	437	118	119	2
-32768	1952	25632	29878	32767	-2565	-25348	12888	696	32767	32767	9380	-4920	19216	24816	3392	-3130	-853	-32768	-32768	-32768	758	538	562	14336	-21296	-32768	-1738	1295	-103	-17088	-23552	22408	-1206	-1401	-287	124	145	2
-32768	10648	32767	-32430	29601	-3284	-32768	32767	4228	2406	32767	-692	-8000	32767	8336	459	-2174	-385	0	0	0	0	0	0	10472	-13480	-30400	-119	2894	-1160	-4848	-15288	-21104	2457	5317	-745	124	111	2
-32768	-15344	29232	-32768	3065	8587	-16904	5180	10952	-32768	32767	-5666	-6720	32767	7128	-2769	-3033	1042	-32768	32767	32767	-10904	415	-8906	-32224	32767	-27880	-15	7584	358	-12760	-11960	32767	-933	-3267	1306	129	161	2
-32768	-25792	26084	-32768	-14200	19871	-32768	-2728	3844	-32768	32767	-8650	-32744	10960	-4928	-5702	-2397	-28	-32768	-1968	-11080	779	916	-458	-32768	-32768	-32768	-1114	9148	-3718	-32552	26576	-32768	-2997	1911	1802	128	205	2
-22680	-32768	20920	-30262	-21048	21804	-32768	-9644	-6288	-32768	23661	-2131	-32768	-15960	-25656	-6659	-2836	-1207	-12968	23800	8176	116	1308	581	32767	32767	-32768	3662	6941	-1948	-19320	-10240	-12312	3934	2342	2827	126	156	2
-12528	-29748	15608	726	-26826	17042	-23948	-28	-4860	-23871	14299	-3424	-30720	-10016	-10472	-77	-4680	-1439	-12360	4968	15392	185	1649	-519	-10384	1656	-32768	-1191	2428	1308	-29608	10144	-29360	1608	3011	-769	128	132	2
-3808	-25696	14972	9916	-28214	404	-19884	-5700	-13696	-19586	-3807	-4691	-32768	-8592	-10984	1321	-5558	-1503	-12264	1336	15008	58	1672	-964	-32768	4328	-32768	-1819	4114	-980	-32768	32767	-27736	259	2820	-2343	129	132	2
-5188	-19560	17548	12241	-32768	-21772	-13368	-7892	-18300	751	-27797	-494	-32768	6496	-14400	1992	-5108	-2182	-12056	17584	18584	-178	2466	-765	-32768	-2672	-22840	-29	2412	-982	-32768	-10088	-4696	-5914	5278	-1264	127	133	2
-11572	-12796	13064	-2106	-32768	-32768	-11876	-3068	-13828	10460	-32768	-7444	-32768	15504	-18008	2568	-4354	-1668	-9816	14136	23696	-293	4256	-1889	-32768	592	-16912	1659	1110	516	-32768	-16320	6768	-1542	5047	-789	120	123	2
-22520	-13692	9376	-8295	-32768	-32768	-10384	-544	-15516	13075	-32768	-12982	-17704	12456	-14632	399	-3207	-1254	-7192	10600	22168	-153	5883	-3577	-32768	424	-8744	1983	673	788	-32768	-1440	10624	-902	4306	-638	121	129	2
-23004	-13900	8096	-6258	-32768	-32768	-9548	7276	-11108	13387	-32768	-14429	-1576	11168	-13352	-1977	-936	-1026	-6856	12208	19248	760	7711	-4632	-32768	7568	6232	2966	44	574	-24560	424	17592	1213	5123	-283	117	121	2
-24568	-16024	9476	-126	-32768	-32768	-12264	7560	-16080	3634	-32768	-17740	4552	6736	-14792	-3225	302	-271	-22728	11536	19056	128	8824	-5138	-31368	9424	3656	2414	-464	96	-21712	6352	10928	3298	5060	1087	125	127	2
-32768	-5976	10392	980	-32768	-32768	-13332	3528	-20120	1570	-32768	-13746	10696	5304	-18648	-3453	1116	487	-32768	15392	6968	-15	8276	-4052	-21448	14920	5464	1817	-557	-938	-21376	16376	16184	3475	4344	1317	126	133	2
-32768	-10972	-108	4283	-32768	-32768	-11804	-788	-32768	11284	-32768	-8226	20736	-8496	-27224	123	2348	360	-24792	18200	6992	-213	7440	-3248	-19224	17496	20840	656	49	-1798	-12448	30000	32767	-699	2514	400	122	111	2
-32768	1036	-17012	16339	-32768	-32768	-5164	700	-32768	12533	-32768	-3896	25080	-9928	-24096	6329	-357	148	-8552	23072	-9384	-3662	6639	-3283	-7576	13880	20800	-1567	1960	-1803	-8272	11576	32767	-5304	582	365	120	118	2
-32768	1696	-32768	4726	-32768	-32768	-12528	-2296	-32768	298	-32768	-6618	-3848	-4904	23168	3167	-3835	139	-32768	8360	15520	-2031	5412	-1272	-10760	3128	2032	-3980	4987	-1528	-12096	-20848	28336	-7558	-675	246	125	129	2
-32768	13488	-32768	-573	-14800	-22290	3876	2912	-32768	12737	-12114	-871	-13656	-4440	24128	592	-3546	-342	-32288	11512	26912	2094	3833	-15	-32768	-4824	8640	-1241	5193	-410	-11240	-32768	15560	-3343	-977	-5	117	134	2
-32768	20600	-32768	-5778	3479	-11427	12452	5216	-32768	4573	7932	322	-18144	13048	14680	-881	289	-885	-32416	20840	28144	4326	1620	-93	-32768	-5880	6216	2365	4621	710	-9936	-32768	2232	2744	-2611	-1390	131	133	2
-32768	1188	-32768	639	16840	14290	8648	-208	-23112	-590	18137	-2248	-15088	17432	8456	-254	1616	-822	-32416	21960	28200	4429	1248	-126	-27752	1512	4336	4066	4298	737	-18160	-14976	-3792	4964	-3888	-1824	120	141	2
-32768	-32768	32767	32767	21435	32767	-32768	-32768	-32768	-689	32767	-21961	-15320	9360	32767	1368	-5108	799	-32560	27856	29984	2972	-2359	-279	-32768	5696	-4904	3546	3081	965	-32768	15648	-7856	5484	-4340	-1123	136	136	2
-32768	32767	32767	4786	13142	10046	-31448	32767	-32768	32767	32767	32767	-32768	7472	-32768	-3079	4518	-476	-20288	30000	25904	533	-3329	65	-32768	856	-7280	2186	1717	521	-32768	27168	-15344	3329	-5315	-283	105	123	2
-9812	-12672	3060	-4480	13750	-8580	-8644	32767	-32768	12279	32767	32767	-17064	12136	-30912	-3834	1178	-2035	-10512	16104	21320	-658	-4308	587	-25648	-4264	-14704	1955	120	915	-32768	13936	-8056	-1587	-6766	-945	128	126	2
-12120	-5612	13132	-6006	10725	-400	-22856	-4092	-32768	16885	23526	-175	-18504	14648	-29528	47	3374	2934	-6864	13728	19808	933	-5188	1851	-12800	-3192	-18664	3065	-2602	1571	-32768	12248	-1160	-1867	-7690	166	141	120	2
-8516	-13936	11952	-4317	12448	3518	-14128	-956	-23328	3380	24604	5090	-24488	-15184	-23472	245	3940	4014	-11912	19288	14056	1022	-7043	3484	-5848	1392	-16232	737	-4760	1922	-32768	-1376	-14208	-2165	-5172	369	137	130	2
-8864	-18396	18436	-738	19254	8150	-32768	-712	-27272	11869	15369	1270	-32768	8280	-9608	3770	3398	2042	-16720	9536	6824	741	-7080	5121	-5384	632	-12360	-1845	-6269	3617	-32768	-4336	-18928	-368	-4304	156	134	119	2
-9148	-9980	28112	217	32767	16432	-32768	11836	-17640	-3612	7985	-16362	-32768	25712	7328	2883	3308	3429	-24576	14408	7704	632	-5944	6965	-11776	-1728	-13464	-4316	-7073	3122	-6160	-3904	-17760	1445	-2919	479	125	135	2
-3548	-14368	26196	-9532	32767	26898	-32768	100	-6144	-6798	6648	-8356	-32768	5864	15008	303	4765	2054	-27312	12176	13208	-690	-5472	8298	-12704	-2032	-19600	-5334	-7755	2302	3768	-5208	-18584	2824	-678	199	131	124	2
-3192	-2908	23020	-12819	32767	32767	-32768	7664	18828	-15163	-5645	-1349	-31728	-3984	12264	-6	5627	2144	-32768	-8584	16520	797	-5848	8681	-10712	-4496	-20104	-4849	-8737	1160	9800	3016	-22432	4619	973	91	126	122	2
-22780	-3108	17008	-13387	32767	32767	-28336	1560	14592	-20323	-881	1486	-25024	-12712	8912	207	5917	1008	-32768	2240	14480	1671	-7146	6434	-10640	-7880	-32768	-2496	-8515	882	19016	14544	-23656	2541	1461	-210	134	133	2
-32768	-19884	3760	-3658	32767	31489	-15804	-10084	16468	-5787	5869	7008	-17184	-26872	27856	374	4764	476	-32768	-12136	-696	15	-8138	4362	-4440	-20672	-32768	1692	-7543	1233	21568	23432	-23592	-1669	872	-333	127	134	2
-32768	-22652	-5860	23478	32767	18258	-7880	-13692	20508	24635	18559	15302	-16952	-27024	32767	5232	-296	1433	-32768	-18384	-31240	1288	-7147	1582	-9888	7408	-32768	6019	-4853	2451	3008	7152	9736	-4013	-1680	-228	125	124	2
-32768	156	-19484	32767	32767	17573	-4380	-9268	8692	32767	32767	8322	-19224	-760	32304	5871	-2738	-543	-32768	-32048	-32768	1544	-3796	-254	10392	-1208	-32768	113	-2050	2026	-11568	-6272	32767	-3199	-4021	-27	125	131	2
-32768	8824	30552	23500	32767	-4319	-30816	17744	576	32767	32767	10491	4488	30536	19336	3208	-2931	-900	-32768	-32768	-30112	958	1115	264	12552	-27216	-32768	-1483	1910	-472	-21536	-19312	23248	-337	-787	-678	123	142	2
-32768	3208	32256	-32768	26322	-8185	-32768	32767	2040	-3113	32767	-6468	-9912	32767	5416	-1235	-2445	-62	-32768	-32768	-32768	-1741	5352	-3650	9504	-9536	-32768	-270	3380	-1118	1504	-8952	-17312	3524	5286	-474	127	134	2
-32768	-18152	28272	-32768	-3484	5194	-22304	6040	2532	-32768	32767	-8304	-3448	32760	7352	-3346	-2836	932	-32768	32767	-11952	-5807	-1521	-3902	-32768	32767	2608	-3049	7512	17	-712	-8408	32767	1807	-1169	1458	132	203	2
-32768	-28104	25736	-32768	-19008	16811	-32768	-3156	560	-32768	32767	-10518	-32768	8640	-5200	-5545	-2686	-478	32767	32767	2376	274	843	-405	-32768	-32768	-32768	-1425	10007	-4512	-25856	26936	-32768	-882	373	470	130	146	2
-22772	-32768	19584	-28362	-27973	20152	-32768	-6520	-5984	-32768	24956	-2716	-32768	-12768	-22288	-5769	-3537	-1029	-12960	15784	9360	243	1437	281	32767	32767	-29688	3676	6591	-1780	-22488	-12040	-18080	4789	3211	2048	129	107	2
-12012	-25788	16380	-4642	-31189	16958	-23844	1888	-8172	-28134	13666	-5593	-32768	-11400	-11192	-185	-5133	-1458	-13000	17240	9856	195	1650	-815	-7744	-2088	-30648	-1108	2951	1256	-32768	5400	-28520	1393	2975	-1623	130	122	2
-6200	-23820	15596	5943	-32768	-850	-17728	-4144	-18664	-25664	-5455	-4586	-32768	-6624	-7960	1140	-5761	-1683	-15224	-4064	15960	-21	1651	-1079	-32768	-4080	-32768	-1805	3503	-866	-30216	32767	-21048	139	4025	-2091	133	136	2
-1296	-14444	16200	4000	-32768	-16015	-11548	-8800	-14752	-3128	-29098	-329	-32768	8296	-15128	1959	-5006	-2115	-11704	12624	23584	-349	2675	-1152	-32768	-7544	-28096	852	1842	-616	-32768	-5456	-2296	-4938	5928	-1886	128	136	2
-2888	-12084	15448	1143	-32768	-18858	-9664	-124	-14384	6649	-32768	-13384	-32768	12320	-16280	2078	-4303	-1835	-8168	16568	23440	-443	4969	-2184	-32768	4584	-16864	1830	1216	188	-32768	-14208	6528	-2283	5331	-1270	118	117	2
-18020	-13780	5208	-8584	-32768	-32768	-7056	216	-11528	11151	-32768	-18009	-11504	11304	-11776	-34	-3003	-1386	-4456	14576	20568	-496	6733	-4172	-32768	3664	-3896	1684	496	158	-32768	912	14576	-1131	5066	-773	119	122	2
-21384	-14224	6288	-5240	-32768	-32768	-6408	2696	-11776	11402	-32768	-17692	-680	10624	-12256	-2251	-1223	-594	-8456	7216	23712	28	8657	-5823	-32768	9280	16536	2508	-251	287	-23328	2576	17416	868	5723	-203	114	132	2
-25988	-16520	11436	697	-32768	-32768	-13288	2552	-15880	9347	-32768	-20744	3144	7464	-15760	-3374	100	189	-29760	7352	13128	77	9613	-4977	-26904	6000	3600	1681	-464	-585	-19384	9360	11792	2400	5217	1375	122	130	2
-31800	-8892	11008	954	-32768	-32768	-12000	-168	-17936	13765	-32768	-14165	8832	6536	-21848	-4311	751	392	-32768	6760	16080	-711	8403	-4245	-18744	13800	8648	1275	-429	-1425	-20320	22176	21264	1797	4322	1342	129	140	2
-32768	-4096	1156	1321	-32768	-32768	-13280	628	-32304	22279	-32768	-9409	13216	-2216	-28408	-1303	1958	-160	-29976	31208	-4432	-3515	7474	-3600	-14552	27832	19520	-704	513	-2512	-11648	28320	32767	-3697	1910	192	116	126	2
-32768	13764	-17696	2019	-32768	-32768	3344	8772	-32768	12091	-32768	-1768	21976	-10208	-28368	6639	-824	-754	-32768	7544	-4512	-6376	7009	-3081	8	18008	9600	-5863	4344	-1678	-15880	680	31480	-8145	-200	115	127	130	2
-32768	10940	-32768	-2402	-32768	-29752	3892	5660	-32768	-21951	-32740	-9914	1304	-10000	19816	3282	-4146	-9	-32768	296	27752	-1182	4268	-131	-25792	-1264	5560	-5836	6020	-1715	-15576	-30376	22152	-7672	-434	606	117	132	2
-32768	21156	-32768	-3429	-22955	-13118	5676	1384	-32768	-7305	-11046	-6893	624	-10120	26024	2497	-4144	-188	-30832	10920	28984	4362	3189	-340	-32768	-28960	8416	117	5356	992	-12936	-32768	2432	-1189	-1386	-490	113	127	2
-32768	22812	-32768	-4785	511	-6306	13460	8280	-32768	4026	6087	1418	-6560	18480	-9144	-654	2650	302	-32768	24088	30264	6308	1362	-1107	-25200	-2272	6744	5385	4843	1453	-11024	-32768	88	4472	-3457	-1895	121	136	2
-32768	32767	-32768	-3156	29456	28106	11972	-3252	-32768	17628	22551	-4756	-5816	32767	13344	598	3239	456	-32768	30704	28928	4857	-1145	-1428	-31832	3136	200	5627	3981	1524	-24328	-11032	-5024	6916	-4657	-2230	129	132	2
-32768	22360	32767	32767	-2112	3608	-32768	-5516	-4176	32767	32767	-8018	-32768	-32768	-32768	-8599	714	-1227	-31096	32352	30152	2620	-2858	-1192	-32768	6160	-13424	4779	2745	1627	-32768	30928	-17368	7115	-4535	-1298	136	123	2
-32768	-32768	-2448	-3176	14889	-11174	15732	23536	-30336	-14584	32767	340	-27664	8368	-32768	1363	1861	245	-15448	27536	22504	-208	-4259	-225	-31832	-912	-11232	3355	1450	1123	-32768	31984	-24424	2232	-5942	844	126	126	2
-7040	-15024	12732	-5387	10667	-4171	17368	-32552	-16876	567	32767	-3407	-22624	20504	-29072	-5184	3949	1204	-1728	13280	19736	-24	-4697	860	-14584	-1088	-21112	3210	-1024	999	-32768	25384	-6336	-2155	-6869	-72	132	130	2
-15320	-8648	9880	-5223	13126	1580	-26184	-2804	-27240	-8194	20178	-4122	-25264	-9312	-29504	1545	3923	5472	-9360	15888	17752	1746	-5738	2654	-2944	3248	-19080	993	-3984	1806	-32768	9840	-7512	-2120	-7617	637	130	114	2
-12948	-2892	18968	-3960	16637	5852	-32768	-8396	-32768	10297	21576	3731	-32768	-27272	-13184	1232	3437	1857	-13832	15008	9056	1904	-6871	5129	-4728	344	-12984	-1340	-5453	3092	-32768	-1784	-20088	-2060	-4139	12	118	127	2
-10680	-14032	25532	-45	32767	16490	-32768	9120	-22104	9963	10557	-9424	-32768	32767	1752	5564	3351	2996	-18760	10592	6664	1144	-5928	6624	-6784	1632	-10896	-3748	-6803	3935	-16280	-3552	-19320	223	-4076	420	129	123	2
-4024	-17028	25616	-9736	32767	26665	-32768	9884	-18496	6876	5925	-11496	-32768	14808	19088	1487	4042	2606	-25112	14360	10280	-15	-5417	7655	-10616	-2064	-16000	-5735	-7365	2812	-10272	-3560	-19248	607	-3712	387	128	124	2
-3508	-2040	23864	-15562	32767	32767	-32768	3968	9676	-29490	-164	-3023	-28368	-864	16680	-645	5784	2343	-29984	3216	16552	-302	-5529	8552	-8712	-2304	-22352	-5953	-8526	1392	8904	-1904	-24992	3482	219	496	129	130	2
-19896	-5816	19424	-20124	32767	32767	-29280	-1640	14548	-29168	-2777	667	-26056	-8056	7048	-1091	6320	1345	-32768	-784	12776	834	-6217	8475	-7232	-8192	-26576	-4929	-9060	316	22064	10464	-28200	3778	2176	469	136	127	2
-32768	-20664	3744	-11471	32767	31293	-17796	-10508	15956	-13650	3853	6246	-19520	-18704	24304	-172	5569	446	-32768	-4808	5904	92	-7445	6623	-5136	-15600	-32768	-770	-8421	610	28584	20880	-32768	-1335	1778	-295	137	127	2
-32768	-32768	-20520	19851	32767	24420	-8884	-25068	13912	20374	17059	15953	-18352	-32768	31336	2360	1443	1395	-32768	-15632	-16464	683	-7715	4230	-3136	-11568	-32768	4183	-6993	1815	12184	5856	-7024	-5372	-557	-1277	127	130	2
-32768	-14292	-18300	32767	32767	17666	-792	-12496	-2972	32767	32767	6178	-20024	-10072	32767	5976	-2862	141	-32768	-27320	-32768	1041	-6498	784	-14968	14232	-32768	3425	-3807	3121	-4880	-7952	30072	-4198	-2808	-771	123	118	2
-32768	12904	25948	29058	32767	-10250	-25892	13844	-2848	32767	32767	14052	-2920	12712	20784	3977	-3009	-1792	-32768	-32768	-32768	1428	-2956	-591	7352	-13944	-32768	-1398	-440	480	-16576	-19904	32767	-2687	-2720	-593	116	138	2
-32768	-680	29176	-32768	25093	-12738	-32768	32767	2460	4608	32767	-5911	-9432	32767	5928	709	-2031	-459	-32768	-30888	-25488	-689	645	-40	13936	-20472	-32768	-182	2303	-1161	-27512	-22768	8536	669	3144	-393	118	128	2
-31064	-17564	31556	-32768	1249	2673	-15076	-7356	13496	-32768	32767	-6365	1088	32767	9720	-556	-3092	670	-32768	-32768	-32768	-4533	6914	-8184	1640	31848	-32768	-366	6406	106	160	-10824	32767	4632	1708	1287	119	166	2
-28904	-30084	30920	-32768	-6962	17356	-32768	-64	5212	-32768	32767	-12923	-9280	20960	-2816	-4217	-1901	232	32767	-32768	32767	-3974	2665	-151	-32768	-32768	-32768	-12989	7432	-2125	-32768	30704	-32768	8834	382	575	121	182	2
-27896	-32768	28744	-30676	-22151	21036	-32768	-4100	-4976	-32768	27477	-9454	-32768	-10672	-24304	-6941	-2146	-793	880	-32768	22592	-452	1259	255	11144	11456	-13880	4955	8345	-2088	-4760	-14720	-32768	2088	2892	550	122	79	2
-17280	-30196	22936	-10516	-32768	14839	-28284	-3944	-4472	-30334	17728	-4443	-32768	-13912	-10032	-1754	-4672	-1857	-10320	14960	11896	-49	1444	-270	3072	-5296	-27112	2170	3933	1555	-17872	3464	-31440	3575	3928	-428	124	121	2
-5792	-21924	18916	-31	-32768	6430	-21412	-3076	-13776	-29702	36	-6160	-32768	-11592	-8400	1085	-5729	-1802	-14712	8496	11512	69	1663	-863	-32768	32767	-21800	632	3678	-898	-32768	32767	-32768	2769	1959	-1458	122	113	2
-1240	-19976	17664	-264	-32768	-5326	-16904	-9568	-15336	-11694	-23431	-1734	-32768	5464	-9016	1742	-5541	-2143	-12880	7664	19040	3	2069	-868	-29480	-2488	-31392	-2191	3249	-1534	-32768	1856	-12768	-6443	5126	-2468	125	133	2
-14456	-17980	12496	-6071	-32768	-25368	-10664	1984	-13792	6979	-32768	-11461	-32768	15608	-17144	2263	-4656	-1774	-11992	8152	27160	-572	3654	-1569	-32768	-8248	-28952	533	1074	373	-32768	-20224	4368	-2011	6161	-2163	133	120	2
-18944	-14988	6556	-9013	-32768	-32768	-11368	2196	-12400	10157	-32768	-20448	-20688	12896	-16160	319	-3916	-1597	-5648	18936	26136	-763	6120	-2942	-32768	-8	-11784	1541	1190	-112	-32768	1576	9456	-2074	5499	-410	125	132	2
-24844	-17140	9168	-4448	-32768	-32768	-13364	4524	-12476	16482	-32768	-19861	-3296	11288	-12480	-1800	-1703	-1041	-152	12032	19112	-61	8085	-4843	-32768	10576	5952	1802	311	36	-31624	1464	18744	-1283	5694	-498	126	129	2
-29060	-13992	14940	1568	-32768	-32768	-14256	3392	-15828	16417	-32768	-21315	2320	9568	-16112	-3252	-153	-379	-12872	13064	20192	-846	9993	-5903	-32768	10024	11272	1319	-694	-147	-23816	5616	13480	671	5912	1539	126	144	2
-32768	-2372	15288	-3333	-32768	-32768	-13456	2976	-22784	18539	-32768	-12789	9960	7920	-22240	-4337	975	169	-32768	9512	12920	-644	9636	-4923	-22984	11704	9400	786	-768	-1274	-23096	12288	22544	1383	5072	2123	129	117	2
-32768	-440	-408	-4362	-32768	-32768	-11304	4136	-32768	21485	-32768	-6104	16536	464	-29720	-1075	1887	-47	-32768	21400	6184	-2696	8207	-3859	-19096	18104	28192	-991	476	-2300	-16688	19704	32767	-3420	2133	823	129	115	2
-32768	10608	-13720	6187	-32768	-32768	4284	14184	-32768	2415	-32768	-2777	23520	-14608	-26272	5639	-479	-389	-32768	-8024	-29160	-6705	7676	-2882	3336	16416	16472	-4305	4534	-1526	-14968	-7912	32767	-6797	-79	14	121	132	2
-32768	13376	-32768	-1873	-32768	-27740	-3892	1736	-32768	-27167	-31868	-14459	1592	-11664	22088	2622	-3783	-134	-32768	-1448	30232	-1291	4865	567	-22936	-1536	7104	-4435	5859	-1725	-17008	-32768	25640	-6034	-745	402	117	130	2
-32768	21336	-32768	-3296	-17171	-16755	9012	2604	-32768	4620	-9824	-2939	-7392	-4976	20600	-1058	-2636	-364	-32768	12560	31896	4244	3670	-58	-32768	-26304	8768	195	5528	797	-9112	-32768	840	1873	-1965	-1312	131	132	2
-32768	27240	-31052	-6385	4819	-12816	14112	9956	-32768	12067	6157	6031	-12360	18752	-13176	303	2326	607	-32768	26192	32767	5642	1397	-1359	-27848	2208	7712	5299	4673	1257	-15776	-26920	-1056	5097	-3794	-1794	119	144	2
-32768	29684	-32768	-6634	31325	32281	14236	-8220	-32768	20001	24906	-3207	-7256	32767	14104	1006	3019	649	-32768	29712	30816	4354	-1123	-1939	-32768	2840	-1344	5070	3737	1287	-26952	-192	-3840	6222	-4594	-1541	135	134	2
32767	31100	32767	32767	12333	-3978	-32768	6460	2352	32767	32767	-7305	-29400	-32768	-26616	-7802	779	-558	-29584	32767	29440	2765	-3023	-1456	-32768	8480	-11656	4246	2768	1463	-32768	30792	-14496	5431	-4723	-1352	131	120	2
-32768	-8080	-872	-3604	14991	-9086	13588	21844	-21340	-15281	32767	-4102	-32768	6448	-32768	1436	3260	-447	-16256	31616	23136	184	-4388	-199	-30160	960	-13576	2833	1333	836	-32768	29608	-23560	1335	-6354	760	135	120	2
-7120	-14504	12312	-4909	10902	-3325	16472	-32768	-20924	-936	32767	-3633	-23896	24872	-27384	-5367	4282	905	56	15808	18328	-164	-5143	1322	-12384	2496	-16832	2411	-1444	1343	-32768	16640	-5800	-2176	-6955	-929	133	125	2
-13304	-8104	12900	-6794	14026	3022	-27848	-4924	-28312	-1161	19353	-3211	-32768	-11544	-30072	842	4151	6099	-7112	15040	16304	1473	-5794	3238	-5008	1208	-18288	908	-4538	1495	-32768	9224	-9936	-2254	-7303	271	135	121	2
-12480	-6272	21888	-2513	21048	7875	-32768	-8668	-32768	11296	20953	1244	-32768	-26568	-9640	1459	3452	2343	-14904	16704	8768	1951	-6876	5401	-3888	-40	-12848	-433	-5986	2912	-32768	-2192	-20176	-1617	-3879	168	127	119	2
-6980	-19112	27628	-1362	32767	19875	-32768	7588	-14032	7647	9777	-10777	-32768	31416	2776	5648	3568	3651	-20280	11152	6608	1431	-6201	6368	-6216	3984	-10928	-2516	-6992	4198	-12480	-3048	-20016	398	-3858	427	122	120	2
-1260	-19548	24424	-12623	32767	31579	-32768	7056	6832	-22627	8224	-2525	-32768	7792	18312	1191	4321	2816	-25968	16112	10136	349	-5876	7407	-7904	176	-16664	-4688	-7566	3348	2032	-1272	-22936	1882	-1758	548	125	125	2
-3252	-7320	25176	-15402	32767	32767	-32768	680	14964	-32086	2456	244	-25072	-7744	14232	-161	6458	1853	-31736	7176	14328	-129	-6002	8378	-6896	-2256	-19760	-5124	-8562	1997	10760	-1864	-26680	3952	472	596	126	120	2
-27040	-6184	19420	-18174	32767	32767	-24748	-4084	14960	-24044	-1521	2604	-23672	-9256	9048	-24	6264	1032	-32768	2912	14928	273	-6409	8701	-9144	-4808	-24760	-4927	-9389	996	25440	11440	-30744	3887	2407	615	124	130	2
-32768	-12524	13444	-2442	32767	30982	-18728	-12808	16592	53	7207	9324	-19512	-24216	30256	643	4551	446	-32768	-4432	5232	242	-7292	7531	-10840	-13856	-32768	-1952	-8555	787	31128	21872	-32768	-1658	1288	-165	126	127	2
-3984	-32768	-25996	32767	32767	23529	-3332	-24444	12480	32319	30077	9468	-19536	-29168	32767	1258	4094	451	-32768	-19768	-16976	-21	-7558	4365	-11496	-11664	-32768	2818	-6852	1742	6912	7976	160	-5416	-912	-1072	127	129	2
-32768	-1220	2624	32767	32767	4685	-6544	-8428	-4016	32767	32767	12899	-19408	-1504	32767	4552	-2912	-1112	-32768	-28920	-32768	1148	-6235	728	-7384	7712	-32768	2430	-3531	2323	-12336	-4712	32767	-4994	-4023	-180	129	123	2
-32768	19724	32767	-1728	32767	-10199	-32768	27260	1124	32767	32767	14328	1920	30272	13968	3560	-2385	-633	0	0	0	0	0	0	11136	-13856	-32768	-1136	-311	623	-18616	-24696	27784	-3933	-1760	494	131	139	2
-32768	-8696	29120	-32768	17986	-3726	-27908	32767	2700	-22975	32767	-18600	-5688	32767	7728	-55	-2424	-222	0	0	0	0	0	0	16728	-21448	-32768	-297	2993	-831	-21664	-23504	8288	-339	3613	-285	132	104	2
-32384	-18384	29612	-32768	248	11233	-23976	8208	10476	-32768	32767	-9384	-3416	32767	11248	-1566	-3089	886	-32768	-32768	-32768	-4060	8063	-7752	1960	22088	-32768	-482	6273	-283	7016	-13968	12624	4768	2301	905	132	149	2
-30816	-30276	27000	-32768	-9264	23647	-32768	1048	2148	-32768	32767	-12547	-18872	15040	-1488	-4806	-2718	-146	32767	-32768	32767	-3924	3815	-44	-32768	-32768	-32768	-18594	6920	143	-30024	32767	-32768	10029	-986	-53	132	188	2
-25324	-32768	26160	-30497	-23173	22533	-32768	-5860	-7816	-32768	29643	-5862	-32768	-7264	-25208	-6559	-1713	-917	-22424	-32768	28360	82	1351	-111	8000	4680	-3584	6881	8860	-2443	-2960	-6504	-32768	2910	3230	1014	130	51	2
-9200	-29484	20452	-9737	-29135	16003	-25212	448	-3352	-32768	20045	-5871	-32768	-7880	-6992	-1420	-5319	-1780	-9840	12480	12928	172	1886	-365	6560	13072	-32768	904	5342	2303	-13272	4864	-30384	3880	3920	570	133	144	2
-392	-19940	17212	-2922	-30082	4491	-18952	-2772	-10924	-30674	1864	-9028	-32768	-7712	-7600	396	-5376	-1282	-13848	10872	10080	27	1664	-1545	-31368	31464	-31840	-450	3393	-1197	-32768	32767	-32768	1830	2331	-1967	131	110	2
-1356	-20568	20092	-3206	-32768	-12300	-17448	-3708	-12236	-28094	-1828	-8475	-32768	4608	-7192	687	-5347	-2165	-14328	11496	18992	-191	2271	-1053	-32768	-15920	-31056	-2269	3424	-1197	-32768	-7248	-9256	-5922	4575	-3170	132	137	2
-11844	-20172	15880	-7034	-32768	-32764	-9268	-1820	-12800	3204	-32768	-21759	-32768	11448	-17760	1919	-4431	-1726	-11992	11944	25848	-583	4339	-1745	-32768	-7368	-22368	1491	1549	761	-32768	-19528	6424	-2000	6547	-1401	124	131	2
-21172	-13132	8828	-7950	-32768	-32768	-10448	-1756	-11312	19285	-32768	-22448	-20792	9712	-17408	-9	-3525	-1444	-5488	14448	24704	-582	6501	-3568	-32768	1048	-12208	1947	1031	446	-32768	-544	8336	-1890	5720	-357	122	127	2
-26120	-14568	10180	-4422	-32768	-32768	-14728	360	-17652	27882	-32768	-18970	-3192	8960	-12920	-1800	-1707	-1198	-1120	15000	20656	176	8593	-5137	-32768	10784	6824	2703	-256	572	-30576	592	17016	-136	5633	-908	110	127	2
-29724	-15560	13696	2250	-32768	-32768	-15008	5672	-15716	26835	-32768	-16707	3088	7032	-17304	-3015	-86	-254	-27512	6432	16128	-113	10422	-5522	-30856	4464	4272	1626	-803	-278	-20576	8928	11216	2176	5909	1552	108	140	2
-32768	-4180	19288	2187	-32768	-32768	-16760	4728	-23736	23676	-32768	-6553	10064	5368	-20936	-3633	561	41	-32768	17120	17688	-1318	9689	-5035	-24192	15592	11744	1877	-782	-1269	-19200	23080	20856	2430	5585	1691	111	118	2
-32768	-500	5488	-2219	-32768	-32768	-13060	7248	-32768	13733	-32768	-961	17272	1472	-28552	-1531	1698	-62	-32768	17152	3072	-2652	8293	-3417	-20504	26360	25216	-733	114	-2468	-15784	30616	32767	-4046	1918	539	113	112	2
-32768	6164	-14260	10181	-32768	-32768	52	11452	-32768	-2908	-32768	-1344	24552	-17128	-30296	5562	-326	-708	-32768	5264	-19776	-5805	7105	-3743	-12312	7808	10760	-5378	3520	-1936	-17024	680	32767	-9080	-594	177	116	124	2
-32768	7492	-32768	1929	-32768	-31820	1188	3728	-32768	-31433	-32768	-14066	-3952	-10048	22864	3865	-4703	-300	-32768	1008	28456	-1751	3707	-881	-27048	-3088	7928	-5492	6393	-1754	-19904	-32768	25856	-7859	-178	668	118	137	2
-32768	22224	-32768	-544	-11728	-20640	5764	-940	-32768	8875	-11284	-1864	-2496	-6312	25104	-2452	-2627	-368	-32768	11344	29760	4141	3386	-703	-32768	-32768	7384	163	5574	1234	-11568	-32768	1120	377	-1852	-913	126	131	2
-32768	30424	-32768	-1027	14628	-19399	21744	11648	-32768	23094	4164	9053	-2904	32767	-32768	1460	2718	839	-32768	29800	32544	5794	1969	-1432	-27856	1080	7488	5853	4990	1353	-16784	-32768	-3504	5748	-4050	-1867	120	135	2
-32768	32767	-32768	-13978	32767	32767	14236	-13216	-32768	22166	22570	-701	-5616	32767	32767	2676	1962	557	-32768	32767	31632	4151	-1041	-1436	-32768	3368	-5256	5482	3883	1781	-32768	-1216	-8792	7565	-4960	-1588	129	127	2
32767	32767	32767	32767	26664	32767	-32768	12492	26868	32767	27468	4271	-32768	28936	-32768	-4434	4254	143	-27536	32767	30168	2730	-3014	-310	-32768	2384	-9912	4265	2311	2126	-32768	27952	-18664	6285	-5196	-1303	92	122	2
-14300	32767	18868	-3755	15655	-428	22280	26312	-24936	-32768	32767	-21857	-32768	-15976	-32768	-2525	1772	-1938	-7048	27936	23464	651	-4107	704	-31336	-3072	-13896	4133	1037	1959	-32768	21072	-22416	1004	-6883	300	138	122	2
-12696	-2052	15844	-4623	12519	-944	28780	-10740	-32768	-32768	32767	-19084	-30656	11496	-21168	-2745	4058	2453	-4136	16728	23064	948	-4600	2104	-8984	-480	-22264	3979	-2455	2678	-32768	13096	-5480	-1270	-7135	-304	138	129	2
-13140	-3204	17492	-7650	18100	5542	-32768	-5912	-32768	26887	19552	15008	-21712	7560	-23512	-685	3875	3293	-10840	15360	19432	2624	-6541	4834	-3376	-1040	-14936	495	-4757	2663	-32768	7688	-16640	-1879	-6383	310	140	137	2
-10388	-10832	24384	1928	30157	12510	-32768	9436	-31264	26282	16871	414	-32768	-544	-2496	4634	2332	2842	-15192	11976	11784	2619	-6789	6545	-5512	872	-7968	-1495	-6087	5224	-32768	-2016	-23904	-718	-4347	237	139	101	2
-6528	-20796	24488	-2768	32767	24423	-32768	7460	-7072	-4356	10085	-11505	-32768	32767	9000	4609	3505	3489	-25240	9392	13704	1853	-5908	7525	-12000	40	-10152	-4887	-7022	4736	-7888	-6480	-23088	1345	-3727	548	136	134	2
300	-16700	19900	-12211	32767	32767	-32768	11856	9540	-24629	5394	-5082	-23744	9792	14880	1391	5134	1225	-28320	9816	19496	828	-5791	8509	-13888	-8528	-17376	-5766	-8256	3552	5104	-6664	-23184	3335	-1160	694	135	127	2
-13692	-5860	22516	-18246	32767	32767	-32736	152	12096	-32768	1351	-4144	-23472	-792	11600	-768	6508	1052	-32768	-6480	24976	1376	-6151	9115	-10608	-12736	-19032	-4596	-9446	2296	19856	-1032	-29504	5390	1362	254	128	132	2
-32196	-15660	13356	-13184	32767	32767	-25768	-7656	15300	-23013	699	4628	-20944	-8312	9416	-1479	6370	630	-32768	-7992	22368	1691	-6248	9133	-12104	-15656	-32768	-2173	-9333	1469	32767	21296	-32768	2930	2540	-275	124	129	2
-32768	-7172	-4948	10016	32767	26209	-17260	-19060	20684	11659	12099	12164	-20792	-32768	32767	982	3920	566	-32768	-15112	9760	1061	-8038	6356	-9592	-21936	-32768	2559	-8673	2047	22208	17272	-22960	-3271	-166	-1267	131	123	2
-32768	-16160	-31212	32767	32767	25735	1716	-16212	4376	32767	32767	5393	-13440	-24944	31448	4594	-1874	486	-32768	-27712	-20056	1243	-7351	3075	-28752	4848	-32768	4875	-6037	3472	-2824	6808	22192	-3162	-2454	-751	124	113	2
-32768	7068	21536	32767	32767	-3694	-18688	9332	-248	32767	32767	15024	-13728	13344	30856	5167	-2947	-1666	-32768	-32768	-32768	704	-4413	708	4592	-9200	-32768	-1316	-2523	869	-18080	-3808	32767	-4235	-4705	93	133	131	2
-32768	7560	29884	-32277	32176	-14094	-32768	32767	6648	18732	32767	-2491	-4000	32272	11048	1752	-1720	-783	-32768	-32768	-32768	-1765	975	1357	17224	-26864	-32768	-3252	1722	-1636	-32768	-6560	14240	-423	1635	1525	129	131	2
-32768	-15776	28200	-32768	10480	-36	-22940	-3116	8292	-32768	32767	-12550	-3168	32280	12744	-1712	-3179	629	-32768	-21960	-32768	-4353	6260	-258	8568	-5064	-26704	-2489	4293	-2755	7944	-16880	3456	-359	4386	-1151	131	139	2
-31256	-21972	25424	-32768	-899	15238	-32768	-1436	5672	-32768	32767	-11301	-4920	20496	-920	-4551	-2261	481	-32768	32767	32767	-13757	-531	-12463	-32768	32767	-32768	-2800	7752	778	4784	4016	32767	-2211	-3118	2399	132	155	2
-32768	-32692	24564	-32768	-13150	22233	-32768	-7936	-4328	-32768	32767	-7712	-8720	15960	-2400	-4685	-2341	269	26576	32767	-20400	-890	611	-1152	-32768	-32768	-32768	-3668	12360	-3062	-32768	-1048	-32768	2378	-495	-460	130	39	2
-19932	-32768	20448	-12776	-22946	16549	-28512	-1084	-3196	-22298	23983	1636	-32768	-14736	-22000	-3157	-4726	-2270	-6824	18000	15288	91	1442	665	32767	32767	-27912	9514	6718	-488	-26920	-11072	-30456	10859	4565	1961	121	147	2
-5424	-23676	20296	5979	-29523	7255	-19912	1108	-11896	-20822	5561	-4494	-32768	-4880	-5448	2012	-5990	-1191	-12344	21304	8096	15	1555	-754	-3248	17064	-27232	1724	1154	785	-30944	30680	-32768	932	3249	341	131	72	2
-4520	-21648	20160	6840	-30230	4534	-15904	-6076	-17092	-8732	-16838	-265	-32768	4656	-4928	1622	-6463	-1524	-10408	25936	8952	2	1552	-1013	-32768	5208	-13416	-4902	4390	-3945	-32768	32767	-31536	-4648	4210	-4168	133	148	2
-6364	-13892	17260	-4718	-32768	-26384	-7672	5124	-15612	-532	-32768	-9643	-32768	18024	-16272	2037	-4902	-1777	-13472	16056	26152	-456	3018	-1030	-32768	-28544	-26976	-1923	1513	-1002	-32768	-26752	-2384	-6437	4180	-2719	123	128	2
-18260	-11140	9220	-7117	-32768	-32768	-4456	472	-9400	2296	-32768	-22726	-26888	14600	-20560	448	-3857	-1360	-6976	15128	28520	-854	5698	-2380	-32768	2152	-14120	2320	1856	251	-32768	-7432	12776	-2441	6414	202	118	123	2
-22264	-12572	7880	-11031	-32768	-32768	-9788	3352	-9852	10244	-32768	-22293	-3528	11368	-13696	-2129	-1918	-1169	440	14528	20520	-725	7602	-4645	-32768	3024	-3200	2491	477	500	-32768	-7120	15240	-1624	5244	-552	113	122	2
-30860	-18404	11676	-2385	-32768	-32768	-11032	4452	-12224	11216	-32768	-24899	5288	8952	-17800	-3763	288	-286	-13304	19648	16048	-679	9109	-6210	-32768	16368	9192	1635	71	-27	-23696	1168	15800	667	5959	543	119	128	2
-28140	-6624	17172	-382	-32768	-32768	-14932	1996	-17512	15285	-32768	-16752	9632	6360	-23592	-4754	924	154	-32768	14224	23136	-648	9495	-5833	-25936	9464	4496	1413	-592	-558	-20256	6792	14968	2720	5683	2329	121	126	2
-32768	-24	13436	-7810	-32768	-32768	-16556	6616	-23292	17201	-32768	-8923	10192	6392	-24264	-4896	1003	197	-32768	11720	14344	-966	8741	-4173	-24280	19544	18816	1163	-126	-1644	-22488	32767	30128	873	3678	1242	123	122	2
-32768	-6388	-3892	3319	-32768	-32768	-15832	8444	-29152	17349	-32768	-8199	31432	-13536	-32768	5295	709	62	-10872	32568	-16080	-5370	7490	-3464	-7168	17640	17168	-2721	2035	-2057	-9560	15832	32767	-5320	871	106	125	126	2
-32768	11096	-24288	8710	-32768	-32768	-3236	10800	-32768	-17208	-32768	-9021	4688	-8640	-2608	4250	-4404	754	-32768	2568	14992	-4760	5582	-702	-6512	5368	3792	-6017	5778	-1928	-14792	-22048	32767	-8704	-189	343	120	118	2
-32768	15696	-32768	-5337	-32768	-20003	-7368	-7776	-32768	-12075	-22825	-12778	-10840	-7544	32767	-360	-3301	-101	-32768	1528	30336	1466	4939	180	-32768	-15800	13472	-2731	5956	-276	-12288	-32768	7048	-3514	-880	-368	126	130	2
-32768	16872	-32768	-5960	-32768	-16493	11428	13012	-32768	6905	-323	2101	-22336	7496	32767	-3292	-1453	245	-32768	20480	32767	5252	3377	-1036	-32768	-11040	7680	3686	5100	1158	-10312	-32768	336	3517	-3000	-1646	126	128	2
-32768	18268	-26308	-2125	10579	-4466	10756	9296	-32768	1042	17058	3258	-2920	26296	-32768	-117	5657	256	-32768	26808	32767	5175	1118	-2428	-28088	4400	7584	5550	4301	1206	-18776	-18208	-4336	5801	-4189	-1752	115	130	2
-32768	-1496	-32768	10101	32767	32767	-7412	-32768	-32768	-16445	32767	-19762	-8776	32767	32767	252	-831	547	-32768	32528	30992	4053	-2121	-2048	-32768	7104	-5200	4448	3457	1699	-32768	13232	-5232	6222	-4777	-1351	117	123	2
32767	32767	32767	32767	24732	32767	-32768	32767	-32768	32767	32767	12161	-32768	14720	-32768	-6545	4301	-284	-23768	32767	26992	1519	-4270	-582	-32768	6456	-11136	2779	1576	580	-32768	32767	-18728	5056	-5182	-782	125	115	2
-16584	25692	20328	-1807	13739	-3646	26744	-2316	-16800	-11769	32767	-6028	-20824	9704	-32768	-2167	618	-1046	-4776	27416	19952	-1338	-5014	906	-27600	-3920	-16400	1868	-85	1395	-32768	28448	-14688	-2159	-7058	669	108	119	2
-14596	-1820	13724	-4593	11370	-208	-13628	-10976	-32608	-877	24192	-9566	-18616	22176	-26624	-237	4475	3216	-2952	14320	18672	-357	-5061	3064	-9960	-72	-21264	2046	-3731	1260	-32768	15728	-3072	-3493	-8140	35	131	124	2
-9660	-12440	16972	-5523	14672	3197	-31552	-17204	-26588	-6303	18625	3675	-32768	-12776	-20600	1261	3813	5420	-17008	16144	15152	1530	-6604	5419	-1464	1976	-17800	199	-5954	1473	-32768	14616	-6344	-3483	-8109	525	120	129	2
-9072	-11352	27808	672	26937	12358	-32768	4864	-26076	18885	13788	-2030	-32768	6056	-1136	4977	3079	2415	-22496	13160	9136	1351	-7441	6405	-5688	6472	-13200	-1837	-7349	3876	-28576	-5080	-23576	-1057	-4123	341	93	102	2
-4616	-16264	29324	-3840	32767	25580	-32768	7456	-5544	-2833	6691	-7536	-32768	31672	14936	3294	3850	3185	-28384	13368	7200	758	-6968	7009	-10592	776	-12112	-4553	-7792	3554	-304	-3944	-23376	1489	-3049	756	103	125	2
548	-17116	22052	-14103	32767	32767	-32768	7708	13096	-26890	3242	-3098	-32768	27488	16536	2593	3996	2815	-31984	10856	14280	-58	-6500	7836	-9744	-5184	-21640	-5292	-9017	2485	7760	-5352	-23952	3060	-297	649	113	119	2
-11344	-7992	21360	-17338	32767	32767	-31664	-3528	18532	-32768	-631	-399	-24128	-5696	13064	-832	6670	2246	-32768	7928	14872	590	-6586	8779	-7544	-6776	-27056	-4827	-9455	1497	23696	1088	-28824	4878	2271	615	118	130	2
-32768	-15696	7420	-18810	32767	32767	-22732	-11176	17012	-18469	2592	4360	-22856	-7304	20008	230	5483	694	-32768	6728	6744	-413	-7146	8373	-11824	-6256	-32768	-2973	-9179	650	32767	18056	-32768	1528	2933	-40	124	124	2
-32768	-20748	-17124	3936	32767	25332	-12096	-20812	19380	12324	16717	14828	-21752	-32768	32767	1473	2762	345	-32768	-23072	-9680	-79	-7232	6286	-14840	-15608	-32768	213	-7852	1321	14760	10096	-11968	-4976	-372	-1570	126	129	2
-32768	-16400	-32768	32767	32767	27221	4396	-15016	1296	32767	32767	5015	-16448	-16440	32767	4074	-2062	235	0	0	0	0	0	0	-18992	1408	-32768	3745	-4930	2164	-4968	2248	29960	-5208	-2709	-1200	124	118	2
-32768	9868	19444	32767	32767	-1966	-17100	3288	-1404	32767	32767	14022	-10400	3632	28200	3131	-3008	-1910	0	0	0	0	0	0	8696	-832	-32768	678	-1787	1185	-11800	-8168	32767	-5566	-3997	-12	126	131	2
-32768	16244	32767	-21115	32767	-9564	-32768	32767	2100	32767	32767	6984	2344	24920	5360	1985	-1726	-912	0	0	0	0	0	0	14440	-18896	-32768	-283	1477	-423	-32768	-22488	22160	-1162	144	931	121	142	2
-32768	-12692	30408	-32768	15591	1522	-25184	24364	8464	-32768	32767	-20583	-4848	28080	12952	-43	-3452	646	0	0	0	0	0	0	15544	-12752	-31656	504	4005	-1101	-11424	-26016	9072	2189	3034	-277	123	120	2
-26280	-23508	32044	-32768	3209	16284	-27636	7496	11592	-32768	32767	-9101	-4848	32767	5256	-1274	-3498	729	0	0	0	0	0	0	-2408	-13208	-22760	-1865	4160	-1281	20576	544	-32768	8195	4435	556	124	138	2
-27460	-30612	26940	-32768	-4445	24717	-31084	1988	6488	-32768	32767	-11532	-15504	18512	3016	-3641	-2724	-290	-32768	32767	21096	-15650	-3353	-11156	-32768	32767	-32360	-3694	6147	2261	4416	28136	32767	4824	-4765	2852	122	159	2
-32004	-32768	26092	-31073	-19342	19754	-32768	-2756	-4876	-32768	28641	-9598	-32768	-9640	-11560	-6416	-2099	-320	-32768	32767	-32768	-48	1052	-1078	-32768	-32768	-32768	-1631	12019	-2925	-32768	31656	-32768	235	3876	589	123	74	2
-29452	-32768	26600	-26878	-21130	17985	-29692	-9952	-6408	-32768	17017	-3720	-32768	-22512	-26984	-3916	-4662	-2417	-5264	18856	17512	263	1423	500	32767	32767	-4584	8317	6740	-533	-31040	-27568	-30424	4408	4684	1398	124	135	2
-444	-22236	19432	17250	-32768	-1753	-17680	-7836	-12176	-14453	-5719	-5343	-32768	-10824	-8144	2172	-5890	-1972	-13368	17272	7712	486	2115	-410	-6976	29024	-16600	1269	1339	1038	-20864	19728	-22280	-32	3752	-1468	122	91	2
-260	-11584	21024	267	-32768	-16381	-16584	-10820	-11924	-9650	-10480	-3199	-32768	8088	-7520	2776	-6165	-2087	-15624	-4640	23448	281	2386	-840	-31344	-22032	-32768	-6514	3005	-714	-32768	32767	-22104	-3183	3859	-2475	128	125	2
-20756	-21632	12372	-7894	-32768	-32768	-8080	4428	-18412	12347	-32768	-12052	-32768	16792	-21696	2940	-4505	-1297	-11384	10600	30736	-547	4341	-1640	-32768	-27192	-22296	-870	1585	264	-32768	-31240	6288	-5858	7423	-2165	128	131	2
-22000	-9968	9156	-9719	-32768	-32768	-7652	720	-10612	11844	-32768	-13565	-13552	15328	-18480	446	-3328	-1562	-2072	18496	22640	-350	7131	-3263	-32768	5896	-3776	2890	1110	520	-32768	-15784	13664	-2169	5255	747	128	133	2
-27488	-20016	8160	-4394	-32768	-32768	-13040	6484	-11528	8962	-32768	-19406	2056	13296	-15096	-1939	-1107	-1330	-5176	10800	18496	381	8960	-4918	-32768	5712	13992	2150	48	412	-28768	216	13888	1426	5196	125	130	157	2
-26488	-14060	12416	4855	-32768	-32768	-10980	2820	-16996	3987	-32768	-19520	6472	9728	-20240	-3659	885	-245	-31152	9808	15552	-4	10153	-5355	-29568	8168	3864	1803	-313	142	-20912	12488	13376	2701	5759	1022	128	109	2
-32768	-5212	12260	-2404	-32768	-32768	-12560	1072	-22668	10148	-32768	-11283	14200	7072	-28096	-5054	1709	21	-32768	13784	19408	-677	9135	-4706	-24568	12656	11208	1835	-400	-756	-22056	19048	23464	1386	4663	2279	127	136	2
-32768	-9400	-2920	6055	-32768	-32768	-13548	-532	-32768	12478	-32768	-9231	29288	-4640	-32768	369	2052	240	-32768	21240	-608	-2710	7664	-3449	-16096	20352	20520	-1202	1163	-1848	-12024	15072	32767	-3928	1710	1008	127	115	2
-32768	5696	-20300	6502	-32768	-32768	-8744	9652	-32768	3788	-32768	-5536	14872	-10024	-12920	5279	-1867	757	-32768	-688	3680	-4324	6381	-2313	3448	7168	8512	-5045	4807	-1705	-15976	-13912	32767	-7018	-130	388	127	135	2
-32768	13732	-32768	-4178	-32768	-29152	-10340	1308	-32768	-18918	-29346	-14788	-9128	-10288	32767	2008	-4020	174	-32768	1920	29784	983	3947	-88	-26776	-9696	12752	-3168	6126	-1123	-16744	-32768	24896	-4708	-813	-78	127	134	2
-32768	26068	-32768	-6852	-13432	-13488	9936	5748	-32768	4885	-5727	-2108	-20240	-1024	21488	-1320	-2097	-963	-32336	21368	32767	4949	2952	-996	-32768	-22536	8504	2740	5356	1391	-4768	-32768	-1640	2984	-2631	-1474	126	140	2
-32768	25276	-32768	-7416	4866	-3797	11824	11840	-32768	2240	14742	3617	-11024	23704	-9792	-250	3727	-386	-32768	28896	32767	5254	1065	-2078	-29544	5144	6224	6271	4555	1345	-17864	-25536	-320	5442	-4048	-2016	125	151	2
-32768	15744	-32768	3974	30746	32767	9520	-4412	-32768	15618	29752	-4971	-784	32448	-5656	-1334	4417	625	-32768	32320	30264	4201	-2082	-1874	-32768	7712	776	5259	3583	1255	-28720	4216	-1880	6072	-4748	-1553	124	136	2
-32768	-14636	11988	32767	-499	9701	-32768	-1408	-12908	32767	32767	-7297	-14360	-32768	-16504	-7267	-1847	-185	-23352	32767	27872	2359	-3697	-1474	-32768	12552	-12032	3111	2263	1015	-32768	32767	-15136	5492	-4970	-1329	127	121	2
-32768	-32768	-23320	-4756	16145	-11121	19612	4508	-32768	-10860	32767	6194	-23176	14264	-32768	4137	1557	-140	-12976	30576	20672	-604	-4404	-164	-29160	-1352	-16520	1254	852	863	-32768	28744	-23760	-122	-6484	1261	128	126	2
-7664	-8172	17908	-4987	11196	-1429	14100	-26464	-12024	-2683	32767	-5367	-22424	13920	-32768	2780	243	-55	-64	13560	16464	-525	-4778	2023	-10488	1616	-18024	1447	-2349	1197	-32768	10912	-3344	-3653	-7383	-840	126	128	2
-13592	-10936	10376	-5757	16042	2330	-30548	-1420	-30724	-6793	21040	1907	-21864	-9592	-30456	1479	4516	5306	-8664	14720	14360	904	-5050	4017	-6376	-1688	-19000	126	-4972	852	-32768	9080	-12064	-2718	-6544	439	129	124	2
-13188	-7408	19936	-2377	20201	8055	-32768	-11520	-32768	10171	22444	3213	-32768	-32768	-15248	1172	3559	2241	-19704	12408	10104	955	-6252	5282	-3664	1232	-16640	-1067	-6435	2998	-32768	-4600	-22744	-1541	-3816	429	128	127	2
-9492	-14796	25756	662	32767	19031	-32768	5872	-16260	8718	12077	-7344	-32768	32767	6160	5573	3208	2970	-27104	8264	7568	1037	-6532	6213	-5256	2280	-13904	-3162	-7103	3268	-9408	-2184	-21560	441	-3706	439	127	126	2
-3216	-17076	22888	-11600	32767	30228	-32768	8684	-184	-15596	10234	-5532	-32768	32767	8280	4864	3372	3419	-24088	10600	8072	342	-6584	7002	-7472	-2952	-15864	-4449	-7843	2546	3536	-3264	-22416	2126	-1238	640	129	128	2
-4904	-3764	23500	-12544	32767	32767	-32768	780	8612	-32768	2762	-1923	-26864	-6504	13464	-961	6112	3107	-32664	4840	10912	220	-6374	7636	-4584	-6120	-19408	-4351	-8695	1845	16904	-4792	-22688	4158	1143	465	128	131	2
-30780	-10276	18860	-15336	32767	32767	-28420	-8112	11996	-27284	-1431	1391	-27664	-10336	5464	-959	6785	1743	-32768	1568	11888	548	-6589	8328	-4336	-7088	-28384	-3938	-8870	1096	27672	8304	-25888	3855	2715	290	129	132	2
-32768	-20144	5164	-702	32767	32767	-18404	-11112	13864	-4582	5705	6721	-19696	-21600	26512	671	5527	184	-32768	-10464	3544	381	-7120	7520	-8320	-12672	-32768	-1137	-8112	1115	28816	14456	-28728	-1785	1217	-902	128	123	2
-27804	-27312	-19924	22516	32767	21501	-4740	-19876	10708	29018	23419	13746	-17336	-32768	27720	3760	435	845	-32768	-27288	-22120	490	-6867	3975	-22912	-6248	-32768	2063	-5978	1815	7168	10672	5592	-4607	-1180	-1264	127	135	2
-32768	-8984	3180	32767	32767	7009	-3348	-8380	-2692	32767	32767	10417	-22040	1616	32767	7105	-3692	-474	-32768	-32768	-32768	607	-5129	5	1536	-400	-32768	1386	-2402	978	-18216	3256	32767	-3591	-5115	9	129	122	2
-32628	11412	28820	15088	32767	-6898	-32768	19392	3752	32767	32767	11197	-968	24232	20944	2852	-2134	-2299	-32768	-32768	-32768	798	-469	-730	5208	-1104	-32768	930	-1879	740	-31632	-24648	21872	-3318	-648	1591	127	141	2
-32768	-1456	31280	-32768	32767	-3741	-32768	32767	1192	-16405	32767	-11123	-7520	32767	4000	-1258	-2599	227	-32768	-30584	-29960	-450	3356	-255	19464	-14760	-30656	-580	3941	-1195	144	-23392	-4352	2247	5659	-660	127	104	2
-32768	-17372	32168	-32768	10774	13610	-22964	16	10344	-32768	32767	-5670	-2040	32767	10384	-2415	-2842	795	-32768	32767	32767	-8519	5876	-15337	-19104	32767	-32768	3348	8647	954	-8536	-12584	32767	1679	-849	1620	127	121	2
-32768	-29944	29004	-32768	-6183	22543	-32768	-1928	-864	-32768	32767	-11125	-28920	9312	-6136	-5596	-2503	-447	32767	-17728	24416	247	1357	-250	-32768	-32768	-32768	-9772	4938	-1642	-32768	26576	-32768	2360	478	-1107	128	130	2
-24144	-32768	22824	-30555	-20641	21026	-32768	-8552	-6464	-32768	28422	-2729	-32768	-21808	-31504	-7773	-2961	-1450	-4440	32767	7352	349	1333	617	30568	31904	-32768	7595	7407	-2418	-26320	3032	-21224	3354	2650	2595	126	134	2
-13656	-32768	18736	2238	-29027	17045	-27496	-6608	-7960	-27181	17578	-7586	-31664	-11384	-6640	-102	-5258	-1506	-12976	11440	11472	346	2014	-482	-2192	3064	-32768	1400	1810	2449	-24736	18000	-32768	444	5068	1142	127	127	2
1968	-26408	15100	13589	-32768	-1841	-16120	-6672	-15280	-16895	-6365	-6981	-32768	-12008	-11296	1258	-5765	-1646	-11168	8216	16448	189	2025	-1194	-32768	14504	-32768	-4132	4047	-3519	-32768	32767	-29640	-1858	3397	-3217	126	158	2
1540	-13124	18828	6866	-32768	-26462	-8300	-7220	-16740	10078	-32354	1248	-32768	9912	-15336	1996	-4980	-2631	-11248	16120	24896	-325	3517	-1135	-32768	-17208	-19984	-1097	2193	-472	-32768	-27008	-96	-7084	5031	-2704	126	138	2
-13736	-19148	12880	-3357	-32768	-32768	-6892	-2332	-14308	13327	-32768	-13449	-31696	17456	-21328	2284	-4383	-2049	-5736	16312	22656	-292	6172	-2634	-32768	-1392	-9960	2129	813	632	-32768	-19744	11104	-3069	5820	727	126	123	2
-19836	-7920	9844	-2901	-32768	-32768	-8660	-1208	-10924	23089	-32768	-13698	-12784	9960	-16328	-360	-2977	-1723	-696	11576	17992	827	8021	-4164	-32768	-344	-352	2719	753	665	-31712	-8888	15088	-971	4538	-315	125	121	2
-23876	-12864	8728	-4253	-32768	-32768	-10304	4480	-12972	20187	-32768	-14576	1160	9448	-16128	-2151	-817	-1348	-13152	8696	18312	1190	9934	-5031	-31440	8944	7832	3263	-416	581	-19432	272	14984	2589	5646	132	119	125	2
-28928	-13388	10344	3158	-32768	-32768	-7144	5212	-17824	8588	-32768	-13926	7648	7024	-22032	-3327	368	-719	-32768	11544	14312	882	9708	-4193	-30720	9064	8720	3212	-460	366	-18528	8624	9312	4582	5300	1992	119	137	2
-32768	-956	7004	-4059	-32768	-32768	-7424	2680	-19376	8213	-32768	-6941	16792	3512	-25008	-2222	1006	97	-32768	4696	11192	-640	8079	-3599	-22296	23160	15824	1637	-473	-1146	-27776	32767	23656	3007	3995	1493	122	121	2
-32768	76	4216	-5455	-32768	-32768	-6696	2400	-32768	11002	-32768	-6220	32767	-3568	-32768	3752	1542	792	-17960	25672	-9896	-3119	6654	-3302	-4896	21224	15680	-2813	1474	-2172	-6880	22632	32767	-4723	1205	-24	121	127	2
-32768	1348	-14880	6397	-32768	-32768	-1880	8272	-32768	-6287	-32768	-5380	16264	-2672	-18328	5358	-2634	1521	-32768	2336	11232	-3006	4283	-2283	-2784	456	4744	-6445	4700	-1917	-14456	-10792	32767	-8456	-301	454	122	129	2
-32768	13124	-32768	-2266	-32768	-32768	-17052	-3240	-32768	-18760	-32768	-16066	-3112	-2824	32767	1517	-3209	540	-32768	7576	22688	2068	3534	-584	-30360	-15720	12544	-1920	5922	-486	-13448	-32768	22976	-5720	-259	332	125	135	2
-32768	19396	-32768	-6228	-17045	-16423	5068	7728	-32768	9710	-10436	-511	-23608	-2184	32767	-2986	-3094	-570	-32768	22312	28344	4717	2288	-1165	-32768	-9640	7512	4182	5172	1291	-8424	-32768	5808	2583	-2294	-965	127	136	2
-32768	22620	-32768	-3306	8327	-12609	14460	10048	-32768	10355	8696	3565	-10008	31720	-14512	703	4602	-1165	-32768	28800	30608	4798	502	-1785	-32136	5432	8808	5800	4867	899	-17080	-24064	-1552	5125	-4140	-2277	123	141	2
-32768	17484	-32768	24217	32767	32767	11768	-32768	-32768	-5545	32767	-18250	-15176	32767	32767	-927	1116	-530	-32768	32192	30712	3992	-1785	-1902	-32768	8280	-3224	4651	3658	1052	-32768	7352	-4056	6485	-4652	-1826	128	135	2
32767	32767	32767	28220	23952	30850	-32768	32767	-32768	32767	32767	18000	-32768	-2368	-32768	-8792	5063	-967	-26584	32767	28840	2050	-3518	-1158	-32768	9232	-12624	2625	2009	687	-32768	32767	-19680	5591	-4936	-1029	128	116	2
-18764	32767	25680	-6945	16554	-4537	24956	-13960	-19048	-9490	32767	-10872	-16880	24352	-32768	-972	576	-439	-6736	28992	22016	-1157	-4388	-291	-32768	7608	-11440	2266	1679	446	-32768	21528	-17752	-1935	-7336	232	123	124	2
-8044	-8044	16524	-5661	12380	-1255	-10528	-8860	-26052	13217	28651	-5477	-17800	21512	-30320	-1124	3163	3599	-4992	14728	19624	-107	-4742	1725	-13152	1168	-22024	2501	-3032	1079	-32768	14160	432	-2701	-7581	-1357	134	121	2
-7808	-19116	13820	-5697	15719	4350	-28232	-8300	-21144	-4299	22423	2107	-32768	-17688	-28128	661	4992	5706	-12832	19176	14864	1371	-6523	4461	-1720	-384	-17192	594	-5202	1181	-32768	5400	-14344	-2757	-5325	1237	132	141	2
-7344	-19924	23504	355	28829	10242	-32768	1188	-15844	9168	15080	-1461	-32768	8272	-1968	4546	2490	1546	-15992	13072	7464	931	-7000	5842	-4360	4664	-11368	-942	-6830	3593	-32768	-3608	-23784	-1257	-3760	258	127	94	2
-6080	-11964	32352	-3783	32767	25068	-32768	4296	-6084	-5018	3962	-12885	-32768	26184	11840	3105	3801	4039	-23640	12184	6320	577	-6276	6752	-10216	3680	-10248	-3919	-7301	3431	-4872	-4104	-21736	841	-3505	844	130	126	2
1428	-15520	23696	-13514	32767	32767	-32768	6736	9828	-26021	1709	-2478	-32312	-3240	15512	864	4929	2615	-24264	13352	6720	457	-6218	6889	-9280	-3592	-19256	-5317	-8275	2572	3504	-5832	-23096	2609	-923	890	131	119	2
-15084	-7580	21156	-16365	32767	32767	-30960	-6936	16832	-32768	-185	213	-21736	-9160	12656	-288	6807	2326	-32768	6192	13744	433	-6220	8335	-4120	-5208	-24360	-5139	-9123	1508	20112	-2016	-26752	4514	1462	624	132	123	2
-32768	-18096	8152	-14690	32767	32767	-23360	-9240	14804	-13794	-827	3740	-24552	-5248	16016	1064	6022	604	-32768	10448	4888	-144	-7047	8150	-8168	-5120	-32032	-3510	-8802	603	32767	16456	-32768	2318	2729	59	132	130	2
-32768	-14892	-13612	2051	32767	23278	-16336	-14840	17404	9665	15313	12540	-23440	-30072	32767	1339	3563	-48	-32768	-16048	-7712	-823	-7098	6822	-8088	-6128	-32368	-2955	-8755	608	21888	10376	-20136	-3211	135	-1463	133	127	2
-32768	-3448	-32768	32767	32767	23670	4480	-17692	5240	32767	32767	5222	-15520	-19816	32767	4626	-1709	799	-32768	-23536	-28544	594	-6600	3763	-22936	-48	-32768	3728	-5291	2020	56	1320	18656	-4950	-1704	-1223	132	121	2
-32768	6444	15268	32767	32767	-7228	-16100	3064	644	32767	32767	14469	-11216	8752	32767	3137	-2976	-1569	-32768	-32768	-32768	1434	-5236	-507	7792	-136	-32768	1058	-2167	1455	-13160	-4848	32767	-4789	-3970	-80	128	141	2
-32768	12004	32767	-22986	32767	-11855	-32768	32767	2756	32767	32767	2078	-3464	25648	4624	916	-1640	-1107	-32768	-32768	-32768	1468	-1081	-1383	14760	-21080	-32768	-83	1465	-282	-32768	-17752	21152	-681	621	985	127	147	2
-32768	-14628	30184	-32768	16289	2792	-24712	596	7964	-32768	32767	-10103	-784	28536	10832	-941	-3132	592	-32768	-22248	-23184	-223	1979	-886	9584	-9528	-31832	1026	3884	-924	-4624	-29104	2648	1469	3586	-1314	127	155	2
-30464	-22916	28236	-32768	1273	17833	-32616	180	6636	-32768	32767	-11808	-2792	27304	2944	-3371	-2341	667	-32768	32767	32767	-10621	1757	-13346	-32768	32767	-32768	357	8264	2357	-8344	-10968	32767	1836	-3243	2053	126	106	2
-32768	-31508	26180	-32768	-10295	23494	-32768	-1140	-2116	-32768	32767	-9443	-32768	1624	-10336	-5904	-2606	-610	32767	20488	1440	625	1266	-613	-32768	-32768	-32768	-8308	10668	-4410	-32768	26336	-32768	225	567	652	126	121	2
-22928	-32768	22484	-18872	-21824	18670	-32768	-5192	-4352	-32768	25881	729	-32768	-25336	-29280	-5719	-3842	-1960	-8800	32767	9016	452	1701	809	32767	32767	-28912	4996	7941	-1858	-24792	-2872	-22704	5501	2683	2392	126	180	2
-8676	-30300	19296	10382	-30711	12806	-23108	-5100	-8436	-22811	12002	-5052	-32344	-8552	-4696	1403	-5837	-1629	-14936	8408	10136	307	1925	-571	7592	-3216	-32768	2885	2017	2798	-18944	19608	-32768	-367	4126	348	123	99	2
2180	-18872	17264	10434	-32768	-3838	-15688	-9504	-12452	-5285	-11140	9	-32768	-5184	-4312	1670	-5894	-1665	-11544	4240	17016	-4	1919	-1001	-32768	11936	-32768	-3437	4464	-4227	-32768	32767	-32768	-2565	3807	-3224	126	150	2
-960	-15448	17972	1005	-32768	-21824	-8572	-716	-17868	11481	-32768	1820	-32768	14256	-16064	1801	-4761	-2499	-10376	16144	25152	-576	3198	-1109	-32768	-15112	-23720	-1987	2366	-1001	-32768	-27776	-4896	-7647	4736	-2510	129	131	2
-17048	-18104	12416	-6148	-32768	-32768	-6752	60	-14532	8650	-32768	-15208	-29968	15040	-18432	1980	-3967	-1971	-8248	15120	23096	-539	5625	-2406	-32768	-3208	-13232	2186	973	520	-32768	-17920	8312	-2666	5865	137	127	115	2
-21600	-10084	8072	-9030	-32768	-32768	-9460	2824	-8828	13315	-32768	-13581	-9480	9424	-13504	-334	-2709	-1518	-3744	11144	19784	436	7478	-4204	-32768	2920	-1368	2466	593	751	-32768	-6392	13440	-960	4656	-306	129	131	2
-26588	-17444	8684	-5219	-32768	-32768	-12580	6872	-11196	6417	-32768	-20458	1048	8328	-14904	-2162	-729	-717	-6432	10536	16208	444	9399	-5253	-32768	10360	8312	2193	-5	271	-20832	3352	14888	1819	5639	173	119	119	2
-29244	-14508	13432	2558	-32768	-32768	-11824	1600	-16004	4006	-32768	-17786	3744	5784	-18384	-3113	472	1	-32768	10840	15968	184	9648	-4808	-26736	5944	-912	2218	-518	-338	-18744	8216	9136	3582	5456	1975	127	139	2
-32768	-6336	12572	-60	-32768	-32768	-14844	64	-19596	13304	-32768	-10135	12888	6888	-24880	-3477	1177	145	-32768	12936	11392	-781	8278	-4052	-20880	21328	11528	1606	-545	-1228	-27168	27312	23680	2787	4696	1579	128	131	2
-32768	-6056	-3400	3362	-32768	-32768	-14352	-40	-32768	18926	-32768	-6824	25296	-1080	-32768	2407	1992	-340	-23568	25000	-11520	-4277	7104	-3692	-8680	23968	17136	-2497	1064	-2267	-9480	28136	32767	-4446	1575	-12	127	128	2
-32768	2872	-19500	10415	-32768	-32768	1684	8460	-32768	7799	-32768	-2826	12872	-9032	-17392	5600	-3014	403	-32768	368	9728	-5028	4934	-1968	720	5896	3488	-7607	5260	-2199	-15880	-5840	32767	-9309	-585	233	128	133	2
-32768	13304	-32768	-2041	-32768	-29634	936	9876	-32768	2042	-32768	-3728	-4424	-6424	32767	1680	-4011	139	0	0	0	0	0	0	-24176	-12736	11184	-4489	6532	-1196	-13384	-32768	26624	-7636	-53	709	132	133	2
-32768	21668	-32768	-6507	-17956	-17109	4972	5004	-32768	2294	-12412	-4254	-8600	-5296	28224	-2206	-2380	-48	0	0	0	0	0	0	-32768	-28632	7280	1604	5777	1260	-13632	-32768	19440	-6813	-199	554	130	130	2
-32768	25716	-32768	-8167	3227	-11767	15260	10960	-32768	2327	5284	563	-10616	27648	-13816	601	3464	-197	0	0	0	0	0	0	-32248	3056	9048	6179	5005	1231	-14088	-32768	-816	4714	-3990	-2404	114	138	2
-32768	21880	-32768	16075	32767	32767	10800	-22796	-32768	-3183	30331	-13635	-16416	32767	32767	-330	2571	405	0	0	0	0	0	0	-32768	5688	1720	5252	4562	1060	-24440	-12384	-7256	6975	-4654	-2240	127	140	2
32767	32767	32767	32767	15101	22	-32768	5488	25528	32767	32767	-5341	-32768	-32768	-32768	-8303	1824	-1134	-32768	32767	32696	3314	-2718	-1182	-32768	9272	-12792	4073	2789	1815	-32768	32767	-20944	7961	-4189	-1173	138	118	2
-12020	-7796	-2160	-4040	13833	-10321	27956	7452	-31936	-26278	32767	-4475	-18928	16304	-32768	1477	2389	-574	-18392	32767	24576	223	-4324	151	-32768	1704	-9248	2520	1257	874	-32768	32767	-28224	1880	-6570	867	122	125	2
-7804	-14420	12804	-6178	12791	-3835	17620	-32768	-11252	7292	32767	-363	-11584	17824	-22784	-4847	2667	441	-2112	17224	22648	-850	-4643	1383	-18904	-872	-15512	3278	-1236	1993	-32768	17216	-3624	-2317	-7281	-1005	136	130	2
-12720	-10336	10472	-7468	15123	3063	-25824	-2792	-30852	819	20079	3636	-24376	-11152	-31712	2677	4015	6153	-15424	15320	21240	1040	-6626	3496	-4560	2680	-21640	1126	-4131	913	-32768	11640	-9336	-2539	-7678	968	130	122	2
-13336	-3180	20184	-3607	20299	7162	-32768	-3924	-32768	7608	23631	-1385	-32768	-16792	-12352	3116	2663	1404	-14992	14480	9944	1460	-8156	5167	-5272	4376	-12312	-515	-6223	2850	-32768	-1616	-25040	-2194	-4117	248	128	126	2
-9760	-14788	24448	-2391	32767	16899	-32768	6216	-19128	3505	12717	-11396	-32768	32767	7080	4307	3513	3313	-25848	10408	7408	1164	-7304	6159	-9352	2768	-14176	-3424	-7333	4121	-16280	-3592	-23704	-185	-4656	908	128	115	2
-3024	-17328	22596	-8856	32767	27547	-32768	9740	-3512	-13302	12231	-5325	-32768	10552	14016	948	3855	2412	-27424	14568	7888	127	-6833	7459	-11120	-3432	-17792	-5457	-7854	2881	1536	-3224	-24456	1911	-2095	1019	129	125	2
-1880	-8160	18892	-12364	32767	32767	-32768	3356	9944	-27242	-175	-3230	-28264	-5400	15296	-402	5504	2998	-32728	3888	13624	8	-6180	8254	-7992	-5256	-22536	-5261	-9014	1717	14672	-3136	-24304	3612	397	786	130	127	2
-22028	-6812	21936	-13457	32767	32767	-32768	-7364	14632	-28247	-198	1162	-28400	-9232	2616	-1217	6802	1878	-32768	5048	11704	682	-6275	8710	-8104	-6808	-27608	-4739	-9212	656	29896	9400	-25080	3590	2464	377	131	135	2
-32768	-15064	7492	-10082	32767	32767	-21108	-12072	16000	-12688	870	6322	-25904	-17312	17064	278	6599	71	-32768	-9800	4648	-176	-7211	7452	-8736	-12600	-32768	-1481	-8467	756	32208	16320	-30520	-1199	1446	-881	129	125	2
-32768	-23016	-18308	15707	32767	25496	-12428	-21920	20068	20909	14020	14752	-17824	-32768	32312	2490	2437	1316	-32768	-17344	-16792	1126	-7013	4632	-12704	-12064	-32768	3230	-6675	1742	11256	4216	-336	-5288	-710	-1407	128	124	2
-32768	-13576	-19980	32767	32767	21959	-9176	-22352	13164	28520	17610	13507	-15656	-3800	32767	8403	-3541	543	-32768	-32768	-32768	1577	-6066	718	-6376	6704	-32768	3013	-3358	2532	-10888	-5864	32767	-4264	-3637	-866	127	107	2
-32768	8692	24428	25462	32767	-7188	-21488	16396	-588	32767	32767	12713	-736	27232	32536	4929	-2932	-2421	-32768	-32768	-32768	1638	-2225	-651	10384	-16456	-32768	-555	93	271	-26440	-22936	25240	-2603	-1983	-15	130	149	2
-32768	4432	30672	-32768	32767	-11325	-32768	32767	1092	-5223	32767	-8889	-10360	32767	5088	-1282	-2015	-134	-32768	-31992	-27848	-656	1506	-337	16168	-17824	-32768	-57	3146	-1176	-17336	-12504	8448	2212	3297	-243	129	127	2
-32768	-16236	30336	-32768	6257	628	-14860	-3600	12588	-32768	32767	-6763	592	32767	9128	-3427	-2423	742	-32768	-29608	-24680	-887	1969	-264	376	32767	-32768	487	6993	-1011	8752	-7904	7112	5120	2729	425	129	110	2
-32768	-27484	27016	-32768	-12781	10396	-32768	-320	1176	-32768	32767	-11515	-17280	10976	-6040	-6010	-2500	-177	32767	-32768	32767	-3586	3273	-1856	-10424	32767	-32768	4106	8013	-45	-31344	32767	-32768	9903	-1009	43	130	206	2
-24624	-32768	25772	-32768	-24987	16538	-32768	-8720	-3752	-32768	30302	-6453	-32768	-16216	-32344	-6837	-1670	-1400	-1352	-32768	28072	245	1122	-127	9256	-5056	-7872	7759	8636	-1798	-3248	-11392	-32768	923	2828	1325	129	70	2
-13004	-30148	19592	-9113	-30943	16399	-28552	-2052	-3600	-30695	21576	-4242	-30776	-10160	-8592	-207	-5273	-1392	-7312	20160	13440	330	1807	-118	8680	8760	-18768	2161	3722	1644	-18968	2424	-30656	4793	4302	399	125	108	2
-2328	-24272	16732	1635	-32768	7439	-17784	-7512	-12972	-28668	1977	-5205	-32768	-12776	-9432	998	-6005	-1288	-10584	17832	11008	249	2081	-1069	-32768	32767	-11840	657	3021	-828	-32768	32767	-31816	1843	2130	-1369	128	144	2
1844	-22988	16756	10072	-32768	-5897	-10876	-11908	-15584	207	-22449	-470	-32768	5128	-10112	1488	-5350	-2725	-13640	6216	21736	-56	2550	-1027	-32768	-13776	-32768	-2705	3153	-528	-32768	-8488	-6200	-6889	4081	-3521	127	142	2
-8608	-16480	12248	-889	-32768	-30009	-8364	480	-15128	17564	-32768	-7555	-32768	13872	-19464	2352	-4616	-2158	-9304	13352	27368	-719	4519	-1919	-32768	-8016	-19024	681	1698	633	-32768	-26448	12088	-2935	6569	-1402	123	117	2
-8824	-18036	10944	-2336	-32768	-32768	-8448	852	-12408	20026	-32768	-13300	-22968	10408	-19032	385	-3861	-1800	-2888	16968	19608	-496	6549	-3878	-32768	4224	-6888	1937	1101	357	-32768	-8656	8456	-1477	5314	77	128	120	2
-23924	-16844	8508	-312	-32768	-32768	-11240	3136	-13312	20838	-32768	-15649	-4392	10848	-14456	-1149	-1740	-1664	-6088	10752	14928	372	8134	-5321	-32768	6472	8976	2892	-147	800	-27256	1360	15000	1035	4763	-1156	126	130	2
-29440	-17892	11608	6289	-32768	-32768	-12352	4972	-14984	13007	-32768	-17990	4096	8848	-16976	-2504	-66	-564	-23624	6712	12552	-203	9506	-5432	-30616	5320	4216	2478	-459	-25	-18248	13960	8656	3187	5515	938	122	117	2
-32768	-8064	15020	4106	-32768	-32768	-14472	1724	-21256	14696	-32768	-11481	9752	9232	-20416	-3179	429	-19	-32768	18352	13664	-860	8975	-4783	-24592	15728	9048	2477	-1005	-906	-21712	22264	10640	3232	5926	2060	123	124	2
-32768	860	2172	-7873	-32768	-32768	-12832	4400	-28652	11085	-32768	-8524	20952	7024	-25840	-1154	1312	534	-32768	22984	3088	-1779	7897	-3682	-22872	26728	20880	-624	-548	-2182	-18920	32767	27488	-1965	3511	784	126	99	2
-32768	-2464	-11016	1935	-32768	-32768	304	5904	-32768	6527	-32768	-5863	32520	-3464	-31048	3751	-538	301	8240	26256	-20208	-6128	6126	-3390	-3008	20488	14872	-5216	2346	-1999	-9904	1352	32767	-9745	88	-193	129	126	2
-32768	16664	-31472	-1855	-32768	-32768	-1320	12024	-32768	-28957	-32768	-12700	5512	-7872	11656	2889	-3452	512	-32768	-104	17912	-2448	3845	53	-8056	-7464	6624	-7164	5969	-1952	-20504	-32768	32767	-9974	129	632	120	136	2
-32768	19448	-32768	-6130	-29032	-16345	-560	-6788	-32768	-8019	-17614	-12815	-7920	-13256	27552	-1954	-2944	-511	-29456	6600	27376	3541	3726	566	-32768	-30992	14352	-524	5641	724	-13440	-32768	8664	-1533	-711	71	115	131	2
-32768	28072	-32768	-5817	-2807	-11861	16084	12372	-32768	10728	2623	3791	-18528	9360	-2624	-1732	1800	-221	-32768	23080	32296	5739	2645	-819	-32768	-2576	6728	5743	4709	1709	-10856	-32768	-1768	6139	-3938	-2421	125	137	2
-32768	23252	-32768	-14657	27274	22649	15428	-1364	-32768	15840	19357	-495	-7504	32767	-6144	146	4247	-142	-32768	28992	32248	4895	-209	-1542	-32768	7800	840	5761	4372	1442	-24928	-8816	-8192	7740	-4607	-1990	130	135	2
-32768	-32768	-32600	32767	-11602	12301	-32768	-32768	-23812	32767	32767	-24340	-32768	-32768	-32768	-6264	183	-946	-32768	31024	31400	3767	-3252	-1316	-32768	8800	-15000	4817	2654	1719	-32768	32767	-20008	7646	-4295	-1149	106	122	2
-32768	-32768	-22732	-6771	16861	-13016	26848	32767	-32768	-20770	32767	2270	-21688	9672	-32768	3294	2202	201	-19208	32767	23216	716	-5147	-409	-32768	2840	-9104	3552	1467	831	-32768	32767	-31216	2429	-5681	843	116	125	2
-7592	-8892	16544	-5895	13901	-4867	16380	-32768	-24708	2129	32767	-5410	-7400	22312	-25000	-6763	3224	-398	-1856	19768	19728	-969	-5437	226	-19624	6344	-16400	3066	-1093	1051	-32768	24344	-5496	-2434	-7430	-953	133	127	2
-13456	-13396	9812	-7671	16911	1909	-28000	1092	-30260	5296	14245	2416	-23264	-5984	-32768	2270	3936	5706	-6272	14528	18960	368	-6060	1881	-6240	6864	-19688	1264	-4038	1552	-32768	15776	-9200	-2141	-8204	1082	132	118	2
-14472	-2424	19224	-3101	22149	6890	-32768	-4716	-32768	7484	20974	-2462	-32768	-32768	-13824	1058	3206	1653	-14184	18040	11472	1665	-7220	4854	-4544	1296	-13976	-1481	-6087	2013	-32768	1512	-23224	-2410	-3520	807	129	123	2
-8760	-20768	28192	-8003	32767	17538	-32768	2444	-12936	3279	12329	-13018	-32768	32767	5288	5439	3246	2777	-22064	14704	7768	1143	-6928	6464	-7784	2040	-12280	-2803	-7515	3490	-17984	-4376	-23768	-377	-4223	1213	129	115	2
-1704	-14064	22652	-11370	32767	27586	-32768	4512	2608	-17698	10446	-5422	-32768	13232	10904	871	3804	2763	-28656	16432	10224	21	-6607	7728	-10208	-448	-17000	-4959	-8048	2798	3256	-4840	-23768	1486	-1810	1272	128	133	2
-4644	-1056	20756	-14037	32767	32767	-32768	2220	7196	-32768	3195	-2530	-25928	-7928	12400	-949	5726	2382	-32768	8544	14720	-239	-6301	8508	-8712	-1832	-20688	-5426	-9144	1660	15008	-3840	-23072	3081	887	926	127	131	2
-24872	-8268	18688	-16836	32767	32630	-30060	-9672	11628	-30116	-1319	853	-22928	-11744	2840	-1217	6705	1536	-32768	9840	13664	523	-6501	8899	-11832	-4528	-28000	-4960	-9672	843	29624	7768	-27584	1747	2801	110	127	133	2
-32768	-13980	9024	-6608	32767	31028	-18856	-11368	13372	-5382	998	7229	-23328	-11632	2472	-912	6666	1287	-32768	-448	1696	-631	-6965	7984	-16704	-10080	-32768	-2431	-8647	844	28152	12368	-28000	-2627	1735	-1029	127	125	2
-32768	-29524	-21372	17301	32767	22202	-13416	-19976	17056	24422	12817	15607	-18696	-32768	32767	2297	2327	914	-32768	-17936	-20280	458	-6073	5531	-19032	-8640	-32768	2159	-6425	1569	6040	1016	5544	-6234	-1124	-1879	127	131	2
-32768	-18968	-18616	32767	32767	20027	4052	-13584	-4040	32767	32767	4057	-16376	-2816	32767	7394	-2986	387	-32768	-32768	-32768	1536	-5121	1132	152	6808	-32768	2261	-3041	1912	-12056	-3648	32767	-5262	-5446	-1051	128	116	2
-32768	12040	24328	22618	32767	-8400	-19808	18216	-100	32767	32767	13419	2512	24184	32767	3615	-2791	-1918	-32768	-32768	-32768	1537	-1789	-914	13128	-12320	-32768	-665	525	221	-29576	-30296	23256	-2143	-1277	162	128	132	2
-32768	752	27328	-32768	29583	-13953	-32768	32767	928	-2709	32767	-13205	-15360	32767	2496	-1067	-1925	-286	-32768	-31296	-31352	-243	1693	-990	17232	-16744	-32768	85	3423	-802	-14144	-19648	888	2480	2987	-237	126	149	2
-32768	-16316	28408	-32768	8110	921	-17532	-2268	11832	-32768	32767	-8374	4488	32767	9480	-2547	-2746	916	-32768	-32768	-32768	-2306	6176	-5062	6544	12080	-32768	-1932	5880	-1275	14104	-6536	-19400	8403	3648	141	127	126	2
-32076	-29032	27472	-32768	-9516	12993	-32768	-2236	4132	-32768	32767	-13831	-14120	17536	-6944	-4972	-2496	-136	32767	-32768	32767	-4171	1332	-3115	-32768	5992	-32768	-23620	7536	2004	-19312	32767	-28304	11458	-3713	1019	127	83	2
-28176	-32768	28720	-32768	-22400	18148	-32768	-6920	-5904	-32768	28666	-9631	-32768	-7072	-29144	-6929	-747	-1477	-3248	-32768	32767	261	946	-155	8848	-32768	-29344	9383	8662	-2540	-16352	-12152	-32768	511	3787	2292	125	100	2
-14496	-32532	22064	-12135	-30280	15977	-29228	-3576	-2696	-32768	19808	-7208	-32768	-12032	-10928	-1796	-5435	-1491	-12040	10584	11560	230	1872	-183	18624	30392	-22288	1553	3992	2082	-24136	-7072	-32768	3782	4694	300	127	95	2
-5572	-26980	18288	-2364	-32768	8807	-22396	-9580	-11532	-28356	760	-10237	-32768	-9896	-9776	524	-6106	-1393	-11464	20040	7872	126	1869	-967	-32768	32584	-10216	472	1852	104	-32768	32767	-26544	1754	1730	-2640	125	136	2
-1272	-26856	20136	5376	-32768	-5682	-15516	-11464	-15940	-1002	-23952	-6890	-32768	5272	-6264	870	-5342	-2172	-13240	1432	23096	-62	2316	-817	-32768	-32768	-32768	-4384	3086	-1539	-32768	5232	-6736	-7221	3879	-3121	127	134	2
-13452	-16656	17952	-4828	-32768	-31258	-14528	2952	-15368	11366	-32768	-14329	-32768	15680	-19832	1664	-4503	-2201	-8600	9680	29832	-737	4450	-1758	-32768	-7792	-15424	1122	910	1214	-32768	-32768	6920	-3961	6175	-1346	127	120	2
-23008	-15768	13444	-11252	-32768	-32768	-13712	580	-12464	9966	-32768	-21966	-21408	11016	-20920	243	-3644	-2024	-5040	15536	21312	-588	6546	-3524	-32768	2528	-5584	1506	1278	609	-32768	-15088	11296	-1724	4879	967	128	124	2
-28200	-13932	13852	-11950	-32768	-32768	-15592	3264	-11856	14840	-32768	-23392	-2600	10600	-14432	-1816	-1457	-1753	-2000	11824	16640	656	8315	-4563	-32768	7208	10336	2588	10	645	-27040	2192	18400	1359	4757	-851	119	115	2
-30128	-13748	15900	-4369	-32768	-32768	-14476	6120	-16436	15234	-32768	-25711	4792	7912	-19064	-3458	286	-638	-23632	6848	15176	178	9707	-4858	-30672	1712	4888	2081	-312	-69	-21024	7824	9144	2944	5651	1245	126	154	2
-32768	1504	14976	-8390	-32768	-32768	-13600	9520	-24328	12093	-32768	-18091	14496	7608	-23224	-3641	938	-50	-32768	15408	12936	-629	9138	-4484	-26544	13560	10056	2357	-673	-795	-23792	18664	17432	3443	5348	2361	127	127	2
-32768	-5396	-1296	3412	-32768	-32768	-8236	5964	-32768	12364	-32768	-11058	32672	-2544	-32768	1239	1672	181	-32768	18880	6664	-1657	7636	-3201	-19576	21728	22592	-693	195	-1809	-12176	30280	32767	-2137	2717	689	127	110	2
-32768	19000	-18288	16022	-32768	-32768	-5244	6880	-32768	13684	-32768	-3747	25008	-14624	-17536	4353	-947	470	-32768	-616	-17984	-5337	6871	-3709	-416	10048	15320	-4344	2798	-1802	-11440	-760	32767	-8472	-205	-349	128	126	2
-32768	16888	-32768	-327	-32768	-32768	-15736	2956	-32768	-3701	-32768	-5999	-3528	-7376	32767	1840	-3053	-137	-32768	-3440	27192	-773	4429	-336	-14512	-8392	7800	-4572	5858	-1471	-17968	-32768	28368	-8109	-176	283	122	133	2
-32768	29504	-32768	-1324	-23978	-10653	8956	11096	-32768	10165	-10400	-612	-23584	-4768	19896	1026	-2677	-449	-32768	10664	30392	4395	3010	-510	-32768	-25448	9976	923	5318	627	-8496	-32768	4648	245	-1300	-903	128	126	2
-32768	23112	-32768	-4763	1399	-10177	15040	13880	-32768	2358	11862	4408	-16696	17216	11824	685	1454	-268	-32768	23824	30360	5916	948	-1570	-30248	1000	9472	6493	4266	1141	-14216	-32768	-1872	5703	-3919	-2090	128	141	2
-30384	15768	-21900	2532	19751	-4625	4584	7712	-26436	7266	20759	4006	4040	28184	-32768	-139	5446	496	-32768	32767	27464	4906	-1545	-1789	-28032	2968	9736	6592	4272	1090	-19896	-7544	-8080	7364	-4448	-1888	121	137	2
-32768	-32768	32767	32767	32767	32767	-32768	-32768	-32768	6692	32767	-32768	-28816	17440	32767	-426	-10146	1813	-32768	32767	27608	3121	-3712	-1732	-32768	13064	-10104	5234	2745	1780	-32768	32767	-8680	7564	-4655	-1331	128	120	2
-32768	32767	32767	324	19396	4360	-32768	32767	-32768	23770	32767	32767	-20952	17720	-32768	3261	4580	-2287	-19016	32767	20000	212	-4834	-457	-32768	9304	-8776	2452	1071	504	-32768	32767	-29688	4077	-4841	858	121	127	2
-10704	-24384	2444	-3029	13007	-8637	32767	-28008	-32768	-20019	32767	-12350	-8488	21872	-15816	-6015	1296	-3707	-5480	21472	17480	-1211	-5671	964	-17800	512	-21112	1936	-1541	1747	-32768	26600	-8088	-4772	-7636	-28	103	118	2
-16092	9744	17516	-5696	12129	-150	-12020	2972	-32768	8737	17275	-5744	-4720	7336	-30928	23	5170	4399	-3632	15360	12448	799	-5619	3343	-11704	6888	-18696	-190	-3774	329	-32768	14576	-3576	-3349	-8043	-302	130	113	2
-8604	-15764	12852	-6199	13482	4474	-32768	-17352	-12752	3197	28235	7838	-32768	-19776	-22536	-1231	2639	5695	-17968	19904	10696	1006	-6276	5374	-5512	-448	-17728	-1625	-5833	2270	-32768	-6024	-20296	-2897	-4021	1402	121	132	2
-7080	-21716	21376	-1640	25874	9941	-32768	9384	-12336	13441	13523	-1606	-32768	28040	-5336	5575	2393	2164	-24312	11400	9792	676	-6645	6627	-8192	4328	-15136	-3159	-7152	3098	-24360	-6584	-22792	-456	-4287	624	118	109	2
-6728	-14612	27528	-4307	32767	21067	-32768	5772	-9600	-8636	7100	-13326	-32768	27992	12952	1914	4608	2147	-26976	16680	9704	269	-6555	7479	-12304	-1832	-18080	-5023	-7766	2435	864	-3776	-24672	1446	-2574	1002	118	129	2
-600	-14752	23180	-13753	32767	32767	-32768	2916	7056	-26912	1861	-8838	-32768	-824	13544	-497	5450	2975	-32768	7296	13456	-42	-6373	8108	-8864	-3424	-22792	-4862	-8957	2025	9808	-3448	-24112	3276	682	938	120	127	2
-5152	-10784	23872	-14846	32767	32767	-32768	-4944	19248	-31736	1742	1618	-32768	-14664	11304	-1817	6596	3217	-32768	4264	12072	407	-6678	8496	-7144	-3232	-30408	-4391	-9157	969	23664	7784	-25848	2841	2749	794	124	127	2
-32264	-10772	14916	-16608	32767	32767	-25528	-9588	21876	-20080	1633	2606	-26576	-16680	24680	777	4925	383	-32768	-4480	344	-73	-7170	7531	-7928	-7120	-32768	-2303	-8421	625	30928	21288	-30408	-790	2099	-226	127	132	2
-32768	-940	4208	-5348	32767	26195	-12196	-14372	31972	3956	15340	14426	-23848	-32768	32767	2432	2857	-544	-32768	-23328	-27560	88	-6448	4481	-18360	-6976	-32768	936	-6204	1210	11832	10760	-200	-4791	-968	-958	127	124	2
8204	-32768	-24352	32767	32767	22145	-552	-21916	17352	32767	32767	9100	-13864	-9592	32767	4981	-2531	-683	-32768	-29840	-32768	1139	-4383	523	1296	4648	-32768	1701	-2286	1401	-15928	-1248	32767	-5164	-4518	-363	127	121	2
-32768	-4224	19220	32767	32767	5702	-23592	2808	-8612	32767	32767	7179	-11424	14312	26992	3097	-3811	-1169	-32768	-32768	-32768	991	38	-271	16240	-11560	-32768	-985	1359	-16	-24528	-24376	25696	-3574	-1792	878	126	129	2
-32768	12640	32767	-26527	32767	-6205	-32768	32767	-2576	25632	32767	3334	5528	32767	-168	247	-2324	-460	-32768	-28688	-22448	-87	3105	-40	17912	-15376	-29712	-594	4021	-1003	-3704	-25704	-23856	2001	6121	-210	126	113	2
-32768	-18568	32767	-32768	2287	4667	-23812	13544	11908	-32768	32767	-19711	-8568	32767	1800	-677	-3606	644	-32768	-31056	-31568	-204	8650	-3564	2792	-11352	-32768	-1037	3710	-462	12296	-8544	-32768	7627	4026	1634	127	116	2
-28916	-32388	28700	-32768	-11755	17060	-29996	2700	5588	-32768	32767	-13510	-10824	25464	-3680	-3747	-2538	12	32767	-32768	32767	-4969	1345	-2385	-32768	32767	-32768	-18870	7899	1755	7096	32767	-11960	6992	-5250	-929	125	181	2
-27876	-32768	26412	-32768	-24467	14261	-32768	-3392	-8644	-32768	25055	-11444	-32768	-7824	-17368	-6897	-2464	-895	-3864	-32768	32767	106	1136	-348	-8272	-32768	2896	9475	8119	-2873	-32768	2856	-32768	2276	5290	2874	126	95	2
-13680	-32768	18584	-2291	-31967	4168	-23332	-3156	-5536	-32768	14084	-9046	-32768	-14928	-24928	-4557	-4096	-2398	-7896	64	22128	497	1824	219	32767	32767	-22976	2467	5155	2077	-32768	-1208	-27208	1506	4414	1080	127	119	2
1448	-16676	18856	17115	-32768	-5972	-16988	-4380	-11696	-25295	-4263	-11167	-32768	-15224	-11128	361	-5609	-1958	-10040	22296	9976	326	2263	-925	-30368	19320	-7312	-1939	2583	-355	-31056	3488	-18024	-909	4012	474	129	155	2
1248	-4212	20408	2598	-32768	-18129	-8432	-6888	-15168	-6498	-29522	-845	-32768	832	-11040	2307	-5149	-2201	-13264	9376	21104	-84	3059	-577	-32768	-28024	-27536	-3440	2845	-949	-32768	16920	-8176	-5242	3749	-1835	127	129	2
-17276	-14068	16588	-12670	-32768	-28229	-7736	656	-13756	5909	-32768	-11016	-32768	13984	-24992	3770	-3980	-1327	-8936	10976	28616	-417	5077	-1910	-32768	-3584	-17440	1545	1372	1533	-32768	-26520	6048	-4897	6748	-978	126	139	2
-19792	-6168	9704	-12576	-32768	-32768	-6800	2828	-5124	8537	-32768	-15354	-12600	15536	-16960	894	-3390	-1399	-3768	8536	18768	427	7211	-3542	-32768	1648	-5232	2227	681	990	-25352	-13720	15560	-1258	4905	551	126	130	2
-22484	-15844	5884	-10418	-32768	-32768	-10644	6612	-11800	11369	-32768	-20381	3368	10544	-14968	-1833	-559	-1562	-4504	11280	18296	924	9030	-4667	-32768	3272	6832	1989	309	660	-27880	1504	15344	2872	5340	318	122	135	2
-31428	-16048	8800	2502	-32768	-32768	-7760	4520	-19024	7060	-32768	-23217	10648	8520	-20000	-3774	1013	-564	-28848	9368	14224	672	9602	-4306	-27896	6280	4264	2126	-198	126	-21096	10440	11576	4065	5450	1460	122	121	2
-32768	-4928	844	-2078	-32768	-32768	-7836	-2560	-21324	14657	-32768	-14388	16920	2200	-23304	-4027	1322	416	-32768	7880	16376	-18	8778	-3928	-24752	10264	11040	1912	-178	-812	-22616	25408	21016	2478	4761	2022	122	135	2
-32768	-8496	-10348	3354	-32768	-32768	-10096	-3000	-32768	30937	-32768	-8085	26584	-3936	-26376	1967	1443	1294	-32768	16224	1392	-1241	7593	-3262	-19936	17976	20360	146	969	-1392	-7888	17552	32767	-3559	1526	232	124	117	2
-32768	16796	-20888	-2106	-32768	-32768	-6192	13100	-32768	17009	-32768	-817	10224	-3528	-3184	5907	-2412	1780	-32768	3776	-4408	-2696	6491	-2819	-304	7856	11296	-3458	4327	-1392	-15448	-10584	32767	-7138	-483	316	126	140	2
-32768	16008	-32768	-6943	-29404	-32194	-5244	6432	-32768	-20650	-23960	-13269	-8472	-11232	28488	2053	-4514	465	-32768	4464	29192	870	3390	-25257	-23456	-5984	9880	-2490	5854	-816	-13720	-29072	26160	-4787	-804	-70	127	127	2
-32768	25080	-32768	2822	-12025	-8251	9848	2196	-32768	-3899	-3525	-4758	-26904	-2336	9360	-2651	-1412	-1347	-31816	16208	29376	4559	0	115	-32768	-21592	7120	2022	5157	1068	-7784	-32768	-256	2070	-2290	-1273	126	128	2
-32768	20180	-32160	2193	3664	-2374	11412	10092	-32768	9372	10621	6330	-7904	28784	-16232	-44	4652	-985	-32768	27160	30760	5265	266	-1426	-28512	3768	7272	5637	4538	904	-18296	-24840	-1744	4277	-3887	-2001	124	143	2
-32768	32767	-32768	29026	32767	32767	-11952	-32768	-32768	-12032	32767	-27346	-19600	29008	32767	2086	-4243	810	-32768	32767	0	0	0	0	-32768	9048	-2184	4642	3650	722	-32768	2608	-2936	5620	-4473	-1517	126	132	2
16680	32767	32767	18792	15066	32767	-32768	32767	-20900	32767	32767	32767	-32768	9600	-32768	-6893	3409	-845	-22248	32767	30176	1629	-3787	-1185	-32768	4192	-7512	3102	2030	964	-32768	32384	-15896	5208	-4933	-1008	128	115	2
-32768	22016	17152	-6132	15424	-3579	17860	-11668	-32556	-8779	32767	-15001	-18840	11608	-32768	-2577	1476	-473	-9336	25672	21392	-267	-4831	-304	-29432	512	-14912	2105	479	867	-32768	23088	-17704	-621	-6691	532	126	122	2
-6264	-12056	13744	-4235	10894	-606	-5512	-14952	-17552	9023	30262	2362	-20200	14928	-24136	-2023	2846	3264	-1472	15968	17488	148	-4971	1318	-10248	424	-18040	1914	-2153	1071	-32768	15424	-2768	-2101	-6845	-992	130	126	2
-9800	-13512	13252	-6207	14491	5433	-28688	-3784	-24180	-3943	22643	2049	-32768	-20480	-24768	1151	4078	5309	-11104	17360	15736	1153	-5815	3726	-7616	-2704	-18720	484	-4696	1402	-32768	5808	-10752	-2324	-5831	464	127	105	2
-10944	-12740	22084	-210	23320	9758	-32768	-7136	-26132	6803	16712	2801	-32768	-1168	-4848	4031	2915	2011	-14616	13336	7976	1401	-6585	5636	-5776	3680	-12304	-1008	-6069	2929	-32768	-4352	-21152	-1543	-3691	405	117	118	2
-6844	-11912	29176	-1324	32767	22580	-32768	6940	-14656	4766	5308	-11489	-32768	28072	8136	3560	3787	3968	-21104	11424	5240	1064	-5915	6443	-8072	2376	-11144	-3298	-6821	3240	-7312	-3720	-20136	372	-3538	755	120	126	2
-2676	-15496	23828	-11790	32767	32767	-32768	6196	6308	-18268	6254	-909	-32768	1536	15768	617	4771	2837	-25968	12104	10752	-6	-5700	7185	-7208	-1472	-18336	-4783	-7545	2813	-2864	-2944	-19312	748	-3044	821	120	128	2
-3432	-9292	22628	-12441	32767	32767	-32768	692	16736	-30892	2370	1200	-24408	-11768	10864	-140	6732	2100	-31640	104	14520	708	-5909	8027	-5816	-3624	-19288	-4723	-8462	1740	16248	-1272	-21592	4437	1037	516	121	117	2
-29420	-10212	18672	-12014	32767	32767	-26028	-7292	15240	-24397	-319	2806	-23176	-12176	10208	589	6129	630	-32768	5144	9112	936	-6298	7494	-10016	-7656	-29272	-3787	-8481	827	25352	13568	-28136	3527	2197	179	124	131	2
-32768	-1324	5148	11315	32767	32359	-16984	-14756	20148	5349	11274	10547	-18800	-29184	32767	2312	3399	128	-32768	-6736	2488	-116	-6860	6336	-8176	-13088	-32768	-834	-7871	1101	24024	16952	-28376	-2254	480	-893	124	128	2
-2068	-32768	-21288	32767	32767	16869	536	-17652	9932	32767	28126	12674	-13720	-16800	32512	5755	-1717	1352	-32768	-18328	-24328	410	-6541	3504	-16472	-1824	-32768	3506	-5612	1943	2032	9016	7104	-4817	-1402	-908	126	119	2
-32768	5832	11892	32767	32767	-3345	-12180	-1156	-2100	32767	32767	12800	-13240	13688	32767	4114	-2809	-893	-32768	-32704	-32768	1140	-4163	730	6144	544	-32768	-150	-2514	1593	-15952	-5176	32767	-4647	-4131	337	123	126	2
-32768	18940	32767	-15878	32767	-12476	-32768	32700	1448	32767	32767	8587	-4000	29168	11592	1301	-1795	-1036	-32768	-32768	-32768	749	280	581	13216	-21736	-32768	-1650	1016	-186	-30104	-20880	22296	-1337	-177	559	125	141	2
-32768	-10724	29576	-32768	10877	530	-21372	23700	5572	-32768	32767	-18466	-3536	32288	7672	-1793	-2859	421	-32768	-32768	-32768	-1862	5451	-3406	14976	-5368	-32768	-1716	3987	-974	-536	-22104	5696	2138	4283	-1207	124	110	2
-30504	-19524	25340	-32768	-5280	13692	-29856	7268	4708	-32768	32767	-13070	-4008	27760	-1000	-4534	-2715	457	32767	-32768	32767	-7618	1719	2299	-32768	32767	14304	-5998	9815	1961	48	1400	-21720	5786	-661	-1035	124	151	2
-32768	-32768	26136	-32768	-14540	21579	-32768	-4700	-6720	-32768	31848	-8486	-32768	1552	-21200	-6005	-2448	-1042	-19208	-28640	15672	-393	1516	276	-12224	-32768	-32768	5826	8963	-2967	10592	8360	-32768	6486	2550	2048	125	92	2
-23340	-32768	18956	-13039	-26866	17863	-28052	-4944	-3584	-32768	22778	-1725	-32768	-16024	-21864	-4191	-4293	-1426	-15208	10224	12160	432	1532	-41	32767	32767	-17944	2778	5772	524	-18064	8272	-32768	8135	3057	1745	122	129	2
-8624	-24556	18084	6328	-32768	7281	-24248	-3556	-11188	-27004	7528	-6222	-32768	-12552	-9784	482	-5702	-1470	-13824	11896	9440	386	1985	-678	-14576	5528	-30720	898	1252	1813	-32768	32767	-32768	580	2876	-494	129	118	2
-440	-24576	16104	11788	-32768	-7566	-16060	-8820	-15412	-13899	-15889	-1664	-32768	-4456	-9496	1488	-5492	-2161	-12688	5344	18168	30	2249	-938	-25440	-31416	-32768	-4445	3475	-2108	-32768	232	-9288	-7159	4486	-3620	128	136	2
-5760	-13048	16648	1337	-32768	-25422	-10060	-5172	-15956	11983	-32768	-1983	-32768	12064	-17600	2123	-4734	-2392	-8456	18664	26104	-254	4058	-1725	-32768	-5600	-15024	1152	1260	1134	-32768	-27376	10416	-4219	5585	-2216	129	119	2
-19484	-17528	9100	-5875	-32768	-32768	-8988	-1768	-12172	16073	-32768	-13870	-26240	10640	-18408	1678	-3595	-1705	-6408	17376	27480	-260	4361	-1996	-32768	3192	-3752	2438	1040	483	-32768	-8192	9016	-1286	5186	405	128	131	2
-20452	-10668	7952	-7616	-32768	-32768	-11248	1856	-11672	21464	-32768	-12516	-7440	11424	-14048	-836	-2007	-1246	-4288	9608	17624	876	7870	-4783	-32768	2984	5832	3398	94	949	-27136	-2312	14752	383	4460	-546	121	114	2
-26036	-18044	8720	-2810	-32768	-32768	-10752	7544	-12820	11885	-32768	-17739	2256	9032	-15624	-2769	-245	-808	-20952	11232	14520	898	9367	-4701	-26744	9704	2296	3285	-315	315	-15776	3280	15272	3355	5347	737	123	124	2
-31864	-9444	14660	2155	-32768	-32768	-10724	4256	-21360	4857	-32768	-13987	8352	8704	-21024	-3692	844	-1	-32768	9240	10840	-468	8597	-4441	-26168	15112	4824	2354	-529	-640	-22216	13952	11032	4958	5133	1841	122	134	2
-32768	-2404	4496	-3229	-32768	-32768	-12312	2604	-24396	7878	-32768	-9033	19648	2008	-23320	-2243	1448	528	-26000	8288	8288	-732	7885	-3470	-23000	22560	18184	497	28	-1671	-25344	32767	20816	1878	3641	1250	125	123	2
-32768	-2448	-10860	10212	-32768	-32768	-5472	1196	-32768	10482	-32768	-6523	32767	-6800	-32768	4069	166	555	-18032	22896	-9504	-2902	6609	-3538	-6464	16504	15848	-3047	1759	-1904	-4832	18352	32767	-6136	596	272	127	133	2
-32768	11212	-26836	4204	-32768	-32768	-3632	7500	-32768	-10501	-32768	-8054	7968	-6360	2320	4999	-2787	880	-32768	7680	13464	-1505	4213	-1730	-6808	-984	2328	-5351	5561	-1764	-13184	-18248	31000	-8938	-711	462	126	124	2
-32768	15860	-32768	-3025	-32768	-18929	-5692	-5696	-32768	-2812	-21582	-9512	-7912	-10144	32767	440	-3202	40	-31304	11552	23600	2278	3414	-700	-32768	-12352	12408	-887	5774	38	-13744	-32768	15408	-4957	-435	73	122	129	2
-32768	23032	-32768	67	-7094	-11183	12872	8276	-32768	10594	352	2269	-25800	3648	19696	-2608	-1733	-463	-32008	22280	28128	4445	2553	-1032	-32768	-5760	7552	3683	4854	1286	-9208	-32768	3968	3890	-2889	-1212	128	132	2
-32768	20480	-31776	-2266	8498	-442	9200	6512	-32768	4126	16720	3257	-6192	23024	-21576	225	4469	-239	-32768	25352	30768	4398	700	-1401	-27928	4872	7400	4794	4694	1026	-15912	-17952	-4328	5973	-4282	-2021	127	141	2
-32768	-6608	-32768	19480	32767	32767	3952	-32768	-32768	-18909	32767	-17428	-6856	32376	32767	690	1347	358	-32768	28352	32416	3499	-1851	-1440	-32768	6432	-2416	4414	3276	1111	-32768	14296	-3224	6378	-4756	-1158	77	129	2
32767	32767	32767	20966	22240	17702	-32768	32767	-32768	32767	32767	10880	-32768	-9024	-32768	-6358	3611	-2243	-32768	29264	32576	3325	-2158	-1386	-32768	5584	-9488	2455	1898	741	-32768	32767	-17656	4193	-4802	-485	126	117	2
-23532	32767	31544	-7932	14816	-2263	24840	-15732	-10956	-3278	32767	-8056	-17096	24616	-30456	2191	346	-92	-9504	23936	24360	-921	-4930	434	-29232	-5528	-15928	1577	540	967	-32768	17904	-12648	-2646	-7142	348	123	115	2
-9048	-10016	12756	-7706	12334	-1501	-936	-5600	-26640	17740	27972	-4423	-9472	23664	-30032	-3267	3662	3075	-1336	10736	18656	683	-5254	2104	-15432	152	-19256	2923	-2757	1314	-32768	10264	1848	-2914	-7773	-1256	120	117	2
-9752	-15192	11104	-6372	15851	2174	-27444	-12460	-26808	-5267	25707	2161	-25568	-12312	-25848	1161	4054	5206	-9832	18928	15216	1627	-6033	4011	-4120	-1816	-15256	808	-5054	1564	-32768	512	-11400	-2605	-5494	1066	120	117	2
-10332	-14248	20848	1275	23243	8924	-32768	2948	-28004	14811	13713	-1700	-32768	10104	-6312	4806	3047	1225	-19600	12824	11240	1008	-6493	5730	-5800	2304	-13744	-1251	-6576	3887	-32768	-4776	-21008	-738	-3838	247	122	114	2
-8120	-15208	26340	12	32767	18898	-32768	10336	-16336	-5081	7892	-15546	-32768	31440	10336	2924	3185	3075	-26696	13048	9584	924	-6159	7197	-11112	1800	-11808	-4197	-7041	3412	-6360	-3912	-18528	1109	-3472	715	125	132	2
-64	-15636	23752	-13386	32767	28817	-32768	2532	688	-20483	8310	-7700	-32768	1504	13208	-902	4761	1737	-28232	12432	12288	-220	-5780	7714	-13112	-1392	-19176	-5584	-8070	2828	2304	-4016	-21720	1940	-969	436	123	115	2
-5136	-7532	20216	-12233	32767	32767	-32768	564	11508	-25943	2890	-703	-26272	-12296	9232	-1551	5978	1948	-32768	-2168	15864	1036	-5971	8438	-9808	-5256	-24104	-5844	-9134	1776	11840	-752	-25648	3842	1138	279	125	123	2
-28756	-7108	18180	-12057	32767	32767	-28924	-5972	11548	-20924	-491	2667	-27216	-17592	6704	-597	6006	1076	-32768	3944	5032	971	-6833	7639	-8616	-11016	-32768	-3147	-8484	611	23120	13920	-28032	2204	2168	39	125	130	2
-32768	-13540	17092	340	32767	32767	-19680	-10696	14484	3797	5276	7904	-23096	-30608	28848	955	4396	689	-32768	-18648	-7544	-293	-7138	6018	-16	-18240	-32768	-370	-7628	1016	24872	18128	-29296	1733	2156	-53	123	127	2
-26572	-32768	-13668	27655	32767	24145	-10268	-14092	17956	31725	18856	13607	-12792	-20408	31096	4575	-165	624	-32768	-30456	-30672	1210	-6654	2733	-10032	-5024	-32768	5245	-4988	1880	6032	5440	14048	-3528	-1594	-808	122	122	2
-17088	-32768	-17064	32767	32767	24686	-3924	-5428	1236	32767	32767	5272	-18648	6536	32767	5978	-3176	-881	-32768	-32768	-32768	1577	-4757	-487	4264	3512	-32768	1034	-1834	1737	-8680	1920	32767	-3235	-3856	-99	122	132	2
-32768	10044	32268	9384	32767	-8888	-31692	18244	596	32767	32767	7994	-15600	9224	32767	5485	-3209	-970	-32768	-31280	-32768	314	-30	-433	14560	-20080	-32768	-1528	1509	-636	-26408	-12368	18272	-1058	-1045	132	125	168	2
-32768	-6208	29680	-32768	18515	-7185	-32768	30844	2084	-17420	32767	-14395	-9888	32767	3928	-2498	-2909	201	-32768	10504	-32768	-4188	4866	-26	8256	-12784	-20120	57	2980	-1755	-1608	-7352	-20592	2512	5508	-540	125	129	2
-30764	-19560	26340	-32768	-5732	6952	-24128	5752	4916	-32768	32767	-11343	-3832	31592	5720	-3641	-2705	929	-32768	32767	-32768	-14768	-4284	-8975	-32768	32767	-2792	-3413	6831	1304	-25816	-20008	32767	-1876	-6302	1662	124	214	2
-32768	-31092	25316	-32768	-16577	16524	-32768	-2948	-564	-32768	32633	-12353	-32768	984	-12560	-5740	-2204	-880	-32376	32767	-32768	229	1066	-439	-32768	-32768	-32768	-1821	13055	-5030	-28720	-1048	-32768	-443	3851	2389	127	37	2
-23180	-32768	19696	-20316	-24549	15765	-30892	-7776	-4064	-32768	20564	-3474	-32768	-23576	-31720	-5592	-3951	-1958	-3696	14528	22632	251	1325	461	32767	32767	-4304	6447	6533	-447	-19328	-25720	-17168	7157	3104	2739	130	174	2
-11504	-26052	19452	10423	-32768	9039	-24184	-1152	-8400	-20487	8666	-7306	-32768	-9504	-9208	1074	-5676	-1670	-15824	6616	11480	215	1661	-579	2536	3048	-32768	3476	1043	2897	-11584	13304	-31744	2156	3466	-625	130	125	2
-548	-18464	16528	13299	-32768	-8148	-14796	-5480	-13160	-12038	-14580	-1619	-32768	-4568	-8912	1812	-5875	-1680	-12152	12568	13208	352	1765	-807	-32768	-15016	-32704	-4145	4880	-2754	-32768	32767	-27944	-1990	3735	-2168	129	142	2
-3360	-13504	19176	4154	-32768	-24829	-10504	-5960	-17192	9947	-32768	2212	-32768	10816	-17584	1956	-4494	-2373	-12016	15984	21528	-325	3105	-868	-32768	-12552	-12104	-1179	1955	-749	-32768	-26296	712	-6901	5091	-1861	128	124	2
-18248	-18548	12416	-1375	-32768	-32768	-8084	560	-16048	12551	-32768	-12602	-27080	17136	-18712	2050	-3604	-1989	-6128	12704	23456	-306	5050	-2115	-32768	-12608	-15528	-576	2202	-421	-32768	-16104	9136	-1878	5340	-561	128	118	2
-19712	-8312	7624	-6576	-32768	-32768	-9552	1336	-11760	15956	-32768	-11438	-7592	11328	-16088	-560	-1891	-1657	-5400	12088	17752	479	6803	-3746	-32768	1256	-4688	2119	816	599	-32768	-3280	12024	-620	4477	-577	124	127	2
-24128	-17436	6504	-4402	-32768	-32768	-9876	5028	-12840	10582	-32768	-17124	3024	8856	-18272	-2571	468	-1343	-3912	9448	14544	816	8343	-4487	-32768	10416	5424	2339	280	380	-24296	4864	15792	1636	5613	141	116	125	2
-24456	-18308	7672	-2028	-32768	-32768	-7268	3580	-20384	5641	-32768	-16302	10560	6600	-23520	-3324	1507	-301	-32768	8976	11256	388	9145	-4295	-32600	7056	1576	2319	-505	-196	-23768	10488	10760	3651	5532	2027	119	133	2
-32768	-9752	6524	547	-32768	-32768	-14228	628	-24540	11679	-32768	-9903	21136	-6600	-24808	-1203	1869	865	-30200	10424	10864	484	8968	-4142	-20840	17424	16376	1889	-431	-1287	-20128	26440	20336	2649	4637	1950	125	125	2
-32768	-13620	-9356	11597	-32768	-32768	-16328	-2404	-32768	16969	-32768	-7994	31664	4624	-24624	5962	-118	1834	-32176	22968	296	-2729	7338	-3718	-10080	20424	21968	-1987	819	-2174	-3696	12520	32767	-4904	1477	273	128	126	2
-32768	13520	-27896	1332	-32768	-32768	-16764	6360	-32768	1920	-32768	-7154	2152	-1672	10440	5910	-3646	1851	-32768	5152	-4304	-5731	7891	-2993	1304	4208	9552	-5243	4510	-1358	-14040	-12160	32767	-8235	-397	-214	127	123	2
-32768	15044	-32768	-2740	-32768	-32768	300	1404	-32768	-6004	-18619	-8486	-13088	-6016	32767	84	-4130	-303	-32768	-336	29176	-247	5102	391	-23368	-7592	4600	-3524	5463	-1146	-14064	-32304	25496	-5050	-754	-257	122	125	2
-32768	23776	-32768	-6949	-10504	-3174	13952	8060	-32768	-7074	5434	-2397	-31616	16904	22328	-3445	-361	-2056	-32768	13968	31704	4652	2428	26	-32768	-17696	7784	1750	5117	848	-9944	-32768	2840	2556	-2217	-1179	123	126	2
-32768	15764	-30072	-8702	8775	2333	4376	8172	-32768	-5928	20568	125	-23560	23856	20328	-2716	637	-2210	-32768	25088	30400	5762	-309	-897	-30168	2824	8264	5825	4525	1069	-17272	-24168	-2536	4274	-3871	-2193	125	138	2
-32768	15880	-32768	25290	32767	32767	-10744	-32768	-32768	-24044	32767	-21443	-12288	27456	32767	-718	-548	248	-32768	32336	28928	4422	-2403	-1828	-32768	9704	-736	4813	3278	897	-32768	6832	-2592	6167	-4529	-1483	126	135	2
32767	32767	32767	26319	24950	25897	-32768	32767	-32768	32767	32767	17758	-32768	-15064	-32768	-8647	3376	-936	-28736	32767	27336	1535	-4062	-1513	-32768	8272	-10208	2985	1744	718	-32768	32767	-15624	5126	-4955	-890	122	111	2
-32768	32767	29284	-3421	13095	-4114	22732	-17124	-10976	-3658	32767	-4943	-15232	15072	-32768	-182	-543	-580	-14840	25664	21256	-1183	-5414	-243	-29696	-2112	-15648	1083	575	617	-32768	21240	-14400	-1939	-6829	228	130	127	2
-10196	-12004	10376	-4624	11093	-2006	-12640	-1304	-28760	19154	26203	-6627	-18248	20152	-22776	697	3216	2605	-6552	12232	16816	-42	-5742	1514	-17984	-5552	-22368	2514	-2870	793	-32768	14312	3328	-3293	-7892	-50	129	127	2
-9744	-18920	9868	-5797	14894	4253	-18908	-7740	-19724	-10735	27220	563	-23400	-7864	-24952	1206	3693	4741	-10896	16840	14000	1304	-6594	3348	-8880	456	-19576	1350	-4875	1352	-32768	1792	-12432	-2759	-5672	670	109	115	2
-12872	-10276	17496	-2458	20199	7838	-32768	-4224	-29524	5240	18402	-620	-32768	-1408	-13480	2783	3443	2244	-19136	15192	7480	1337	-7163	4787	-7208	2136	-15432	-201	-6352	2613	-32768	-4080	-21824	-1310	-3928	93	78	114	2
-11008	-7928	26848	-3038	32767	18281	-32768	6644	-19144	-3342	8114	-13149	-32768	30720	8328	1938	3333	3211	-28272	14472	5648	1118	-6858	6234	-7312	1568	-14520	-2144	-7217	3570	-7416	-3128	-18872	940	-3458	616	94	126	2
-4108	-15048	23352	-11753	32767	27462	-32768	2996	-4428	-17560	8383	-7741	-32768	2088	11224	-790	5081	2074	-25200	12792	6256	129	-6149	7330	-9056	1016	-16376	-3929	-7679	3050	3216	-2528	-20032	2160	-886	534	110	118	2
-3444	-13692	24356	-12077	32767	29646	-32768	68	10420	-29070	962	-241	-29432	-11440	10400	-1532	6346	2543	-32768	1776	11432	696	-5757	8067	-7792	-1944	-24560	-5055	-8564	2097	13328	-1200	-22512	3723	904	466	116	116	2
-18524	-9112	17276	-13283	32767	32767	-29792	-6640	14508	-22177	-858	3407	-31360	-15456	6424	-463	6350	1203	-32768	4376	4720	1025	-6281	7992	-7056	-6856	-32376	-4435	-8194	1172	22376	9608	-23888	2898	2050	-73	109	125	2
-32768	-22728	4212	-4363	32767	32155	-17844	-10200	17200	-2277	4566	8551	-22992	-28736	29384	686	4780	580	-32768	-18832	-4232	239	-6174	6617	-5104	-16712	-32768	-1897	-7277	1161	23672	12816	-22560	-1565	795	-1078	115	128	2
-32768	-24644	-10844	18514	32767	23212	-7460	-15568	17848	23232	22443	14046	-12512	-27384	27400	4291	197	1000	-32768	-22704	-23696	1342	-5704	3660	-10704	-9848	-32768	3758	-5086	1782	8320	7816	6800	-4163	-1241	-1142	117	123	2
-32768	-6660	-20876	32767	32767	16031	-804	-7296	3068	32767	32767	11269	-18088	-560	32767	6405	-3072	-406	-32768	-32768	-32768	1377	-3985	230	1752	4800	-32768	1991	-2026	1961	-10688	1712	32767	-3210	-4132	-186	104	121	2
-32768	5384	27728	20970	32767	-3174	-30972	15808	1828	32767	32767	9409	-2192	24480	22568	3205	-2235	-1498	-32768	-32768	-32768	640	-271	-688	15264	-17216	-32768	-895	1396	-287	-25976	-16616	20352	-1511	-1195	511	111	115	2
-32768	3648	30644	-32768	31108	-3878	-32768	32767	5044	-2701	32767	-8282	-10600	32767	3480	-1588	-2599	6	-31816	-27200	-21504	-763	2627	-277	11432	-18504	-26784	-269	3035	-1110	-1200	-12360	-14896	1425	5452	-358	121	132	2
-32768	-17496	27160	-32768	4532	8897	-19772	9252	6156	-32768	32767	-8138	-1760	32767	10048	-2801	-2797	741	-32768	-6448	-32768	-4302	6994	-10856	10128	-15984	-21984	-278	3089	-1007	-4592	-13832	23312	3303	2114	2107	125	140	2
-32768	-19404	26408	-32768	1295	10709	-32768	232	-1716	-32768	32767	-12278	-22520	7736	-3272	-5621	-2802	-458	-32768	-32768	32767	1298	1112	-2071	-32768	-32768	-32768	-20683	3508	-534	-30464	32767	-32768	4610	-931	-664	124	96	2
-24904	-32768	23032	-29817	-22773	16512	-32768	-6372	-7292	-32768	27156	-4283	-32768	-13856	-31688	-6716	-1795	-1430	-20224	10864	2208	412	1253	360	12688	6440	-15024	7863	7566	-1455	-19352	-10744	-25400	841	2366	1822	125	63	2
-10836	-30012	17620	-328	-30016	12823	-27016	-2368	-5408	-31212	18266	-4868	-30528	-13272	-10184	-515	-5011	-1684	-3688	11792	20984	299	1929	-128	4176	8400	-32768	1122	2731	1701	-29944	-12792	-12120	3158	2225	2891	122	132	2
-1876	-20780	15976	7855	-30117	1779	-15828	-7656	-12908	-20628	-2286	-4120	-32768	-9712	-8640	1774	-5784	-1536	-10704	13072	12760	116	1981	-1224	-32768	24264	-23592	-1178	4190	-1939	-32768	32767	-32768	2041	2983	-1316	127	121	2
-2080	-15904	18700	3795	-32768	-16102	-8644	-8588	-15600	3119	-25607	1833	-32768	9016	-11312	2053	-5157	-2410	-12304	14176	20936	-228	2835	-910	-32768	-7400	-18592	-1438	2811	-1704	-32768	-4072	-5392	-7704	3880	-2700	130	143	2
-10132	-17572	11892	-6564	-32768	-32768	-7600	-404	-12880	9403	-32768	-11573	-32768	16464	-17712	2165	-4326	-1765	-9920	12752	24768	-484	4725	-1994	-32768	-5384	-21232	1258	1484	758	-32768	-32416	7448	-3591	6270	-603	128	121	2
-10760	-18512	11052	-6880	-32768	-32768	-8956	-88	-10220	15067	-32768	-16378	-16224	12336	-16280	40	-3096	-1482	-3880	9184	21152	-213	6652	-3824	-32768	520	-8840	1762	1058	877	-32768	-9440	8200	-656	4939	-32	132	132	2
-22652	-14220	8468	-11187	-32768	-32768	-10280	4448	-12536	14989	-32768	-18592	-968	10680	-13224	-1777	-897	-1263	-6200	8440	18160	445	8419	-4886	-32768	7224	13856	2370	236	393	-26648	6088	14072	1588	5105	-600	122	107	2
-24464	-16164	9064	-10247	-32768	-32768	-9928	5268	-14228	4767	-32768	-22397	3848	7680	-16136	-3253	457	-115	-28176	11752	17496	-356	9877	-5336	-30480	5616	2824	2054	-603	89	-19872	14616	8048	3166	5440	1195	134	131	2
-32768	-8200	15856	792	-32768	-32768	-16408	1356	-18252	9792	-32768	-17032	10008	5888	-20672	-3571	770	340	-32768	16280	12128	-1308	9096	-4453	-22352	16632	7240	2094	-944	-971	-20608	22280	14696	2597	5384	1922	134	137	2
-32768	-1284	5292	-5127	-32768	-32768	-17392	2968	-29124	20063	-32768	-9586	19048	-216	-28352	84	1716	438	-29984	15696	3288	-2508	7775	-3481	-17888	26456	24744	-1246	-167	-2282	-13760	30824	31640	-3230	2264	378	133	102	2
-32768	5424	-11328	947	-32768	-32768	-3600	8924	-32768	12495	-32768	-4594	22616	-4992	-26328	6288	-1322	202	-32768	17392	3168	-2980	7462	-3524	-15112	26440	23312	-2039	51	-2377	-14944	-24	32767	-8820	-25	36	129	127	2
-32768	14512	-32768	-4980	-32768	-32768	-2008	10812	-32768	7075	-32768	-4735	-3704	-5504	27320	2447	-4491	-310	-32768	1568	23152	-1086	4292	-626	-17712	-11352	2992	-5923	5846	-1780	-17600	-32768	30440	-8945	18	446	129	136	2
-32768	22428	-32768	-3484	-17085	-16794	2712	3228	-32768	-3294	-12887	-8790	-7688	-8160	30968	-3876	-2683	-848	-32768	9352	29448	4152	3340	-6	-32768	-32272	10376	634	5506	932	-13664	-32768	5008	4	-1461	-613	125	133	2
-32768	27976	-32768	-3105	6182	-13258	15820	13120	-32768	9165	4250	3604	-7528	29000	-25400	-338	3697	-187	-32768	26432	30296	6259	1348	-531	-32768	-1128	6600	6956	4718	1611	-13936	-32768	-4008	6302	-4150	-2556	127	132	2
-32768	32767	-32768	2726	32767	32767	11908	-12620	-32768	14426	25844	-6502	-7024	32767	32720	922	2493	158	-32768	32767	28752	5287	-1233	-918	-32768	8248	-1608	6599	3961	1377	-32768	-4008	-10760	8414	-4809	-2045	126	134	2
32767	32767	32767	32767	1705	23727	-32768	-13948	11716	32767	32767	-8777	-32768	-32768	-29984	-7872	1929	359	-32768	32767	27712	3152	-3936	-503	-32768	11504	-14120	5133	2343	1934	-32768	32767	-20208	7506	-4742	-1415	125	120	2
-32768	32767	32200	-2662	10569	-685	13428	28732	-25084	-32768	32767	-11636	-32768	1848	-32584	1741	1180	-177	-13824	30280	21384	315	-5214	-6	-32768	2816	-12840	3567	1353	1408	-32768	32767	-27064	857	-6360	813	126	123	2
-12904	-13628	10024	-4542	10889	-2263	5036	-32768	-31864	-775	31893	-2851	-16904	23296	-24824	-2718	3890	1576	-4720	18768	20000	-53	-5582	749	-13208	10408	-18288	2335	-1456	608	-32768	24112	-9872	-2704	-7453	-652	132	133	2
-13616	-9808	10896	-7643	15017	3144	-26224	-8804	-26824	6288	17432	4332	-25320	-7248	-26232	2669	3751	5197	-9128	17200	17760	1132	-6815	3021	-6144	3688	-18064	-143	-4339	2040	-32768	8928	-11832	-2568	-7822	261	133	126	2
-11604	-4196	21832	-2939	22791	7723	-32768	-1568	-32768	15154	17652	2346	-32768	-18664	-8656	2204	3161	2231	-14600	15104	8704	1688	-7216	5527	-10248	-464	-13312	-2135	-6204	3029	-32768	-800	-22568	-2051	-4220	261	137	125	2
-7856	-15688	27044	-2491	32767	21529	-32768	1996	-10796	-928	10628	-11686	-32768	30824	9792	3939	2966	3320	-21824	12928	6592	1192	-6182	6883	-10400	-464	-13456	-3651	-7424	3593	-14192	-4072	-23144	43	-4058	716	140	117	2
-4412	-15880	19020	-10620	32767	31562	-32768	4256	7112	-22617	9807	-2377	-29656	5352	14480	577	3942	2099	-28480	13192	12768	-53	-5723	7821	-8680	-2832	-21384	-5209	-8068	2820	1816	-6432	-23760	2236	-1613	1117	139	129	2
-4640	-7832	17820	-12331	32767	32767	-30008	672	7948	-32768	4710	-1616	-21448	-10512	13000	-501	6178	1662	-32768	216	14256	467	-5926	8657	-7064	-5320	-21216	-5080	-9183	1343	16928	-3376	-25480	4498	996	826	139	118	2
-29012	-13456	19200	-10524	32767	32767	-29648	-12964	7732	-26707	829	1469	-24200	-7176	4456	-1310	6259	1035	-32768	4776	8872	243	-6504	8081	-6912	-8856	-32768	-3526	-9057	1021	31736	13144	-28704	2912	2693	290	135	133	2
-32768	-9620	13080	305	32767	32767	-20444	-6508	12892	280	5319	9868	-24656	-19936	22496	-147	5007	338	-32768	-18320	0	0	0	0	-5608	-17976	-32768	-643	-7980	1117	30920	13576	-25968	-2449	773	-1299	131	136	2
-32768	1000	12872	1317	32767	31734	-12808	-14404	16360	27353	19151	15023	-16872	-32768	31552	2717	1261	1280	0	0	0	0	0	0	-13184	-7352	-32768	3659	-5884	2073	10288	6408	6640	-4534	-1168	-1381	132	120	2
-32768	-15388	-20948	32767	32767	11772	336	-10104	2024	32767	32767	7506	-14176	-3000	32767	6614	-3200	-251	0	0	0	0	0	0	-3344	4600	-32768	2214	-3155	2332	-9240	-472	32767	-4194	-3757	-713	130	134	2
-32768	7300	26264	29625	32767	-10122	-22788	7728	-452	32767	32767	11324	-7592	15192	27856	4428	-3182	-1401	0	0	0	0	0	0	9736	-11904	-32768	-1051	18	70	-19944	-13680	27384	-3328	-2681	-76	127	147	2
-32768	10124	32767	-32530	30206	-11425	-32768	32767	5288	18921	32767	2379	-7064	32767	6520	684	-1478	-612	0	0	0	0	0	0	15160	-16912	-32576	-1052	2688	-1019	-22216	-24064	-5408	-850	3937	-165	127	125	2
-32768	-12456	28856	-32768	5371	3652	-23272	10820	10964	-32768	32767	-17224	-3976	32767	10880	-2211	-3138	885	0	0	0	0	0	0	10136	5568	-32768	-2807	4792	-1649	1440	-14432	-5472	5400	4152	104	125	135	2
-29964	-22320	25520	-32768	-9188	14206	-30196	2692	4620	-32768	32767	-11018	-5504	22616	-2712	-4469	-2291	551	32767	-32768	32767	-6094	404	-1021	-32768	32767	-32768	-17604	8862	869	-24496	32767	-27608	7549	-1726	57	125	223	2
-28896	-32768	27336	-32768	-18776	21889	-32768	-5936	-7492	-32768	31664	-8795	-32768	-4952	-22680	-5922	-1469	-1362	-24696	-32768	32767	-307	893	-209	2312	-32768	-29584	9973	8736	-3363	4792	-15144	-32768	1312	2951	2236	125	107	2
-16472	-32664	19728	-5955	-25515	20190	-25592	-2048	-884	-30508	22222	-1522	-32768	-15504	-15016	-3019	-4596	-1884	-10152	14216	14720	370	1682	115	32767	32767	-23464	2863	5186	2156	-9864	-18304	-26568	6292	3382	1474	125	107	2
-5100	-19184	17316	4520	-30085	8913	-20060	-3020	-9704	-24512	6941	-5226	-32768	-7696	-6744	1065	-6009	-1117	-12824	20336	6648	242	1946	-923	-24648	32767	-9848	966	2399	661	-28928	28464	-25560	1601	1614	-2095	128	158	2
-1056	-21988	15912	3122	-32768	-7844	-14584	-6380	-13716	-13922	-14037	-2470	-32768	-3488	-6256	1093	-5586	-1891	-13720	5584	16232	101	1965	-846	-16096	-23544	-32768	-4219	3423	-1352	-32768	27536	-17976	-5397	3673	-3100	128	148	2
-648	-22624	16444	3247	-32768	-10757	-8788	-3344	-15696	4460	-32768	-5096	-32768	13224	-15496	1691	-4252	-2444	-10808	9608	26560	-321	3228	-1279	-32768	-17232	-25792	-327	1527	421	-32768	-25824	1192	-5143	5299	-1428	127	137	2
-17548	-16280	9592	-1686	-32768	-32768	-8064	-4192	-10308	12884	-32768	-17654	-25888	14720	-17040	1659	-3294	-2126	-6104	16320	22120	-377	5308	-2419	-32768	712	-13480	1854	1577	213	-32768	-10872	3336	-1471	5834	-106	130	130	2
-20848	-10968	8472	-7662	-32768	-32768	-11780	-776	-10868	22999	-32768	-14717	-7568	10272	-12968	-896	-2064	-1649	-4024	11520	18032	468	7084	-4014	-32768	1920	-4024	2284	236	940	-32128	-3752	11904	-103	4677	-751	128	124	2
-29512	-18004	10364	-3802	-32768	-32768	-12416	148	-12108	24149	-32768	-14674	2104	8368	-13896	-2326	-232	-805	-10888	7728	16968	410	8765	-4883	-32768	8232	5296	2133	40	451	-23072	7168	13208	2195	5264	306	124	129	2
-26284	-11644	14132	-419	-32768	-32768	-12012	5964	-18432	12344	-32768	-14508	3944	7984	-15520	-2535	-27	-620	-10840	8864	18232	394	9281	-5008	-26464	6424	2952	2164	-574	-308	-20120	12912	8376	3602	5275	1619	124	132	2
-32768	-556	9980	-8250	-32768	-32768	-16188	5796	-21484	8908	-32768	-10369	14360	3696	-17600	-2438	1222	711	-32768	9248	15040	-673	8206	-3919	-18328	16824	13048	1035	-730	-1435	-26208	32767	21112	2385	5106	1204	125	121	2
-32768	-5004	-4292	-1837	-32768	-32768	-8744	2884	-32768	5892	-32768	-6722	26440	-7600	-25488	3087	1217	209	-32768	22504	-1896	-2485	6928	-3583	-15928	24736	22904	-2053	500	-2105	-4688	19560	32767	-6246	1662	69	128	135	2
-32768	8168	-20388	10879	-32768	-32768	-2196	7108	-32768	-10985	-32768	-10104	9568	-11440	-7928	5092	-2194	185	-32768	1328	-2400	-4873	7004	-3809	-248	2008	10432	-5886	4504	-1216	-16472	-15432	30880	-9736	-199	150	130	128	2
-32768	13504	-32768	2521	-32768	-18157	-9772	-6616	-32768	-2395	-21376	-9644	-10200	-11400	32767	36	-3722	-628	-32768	2544	25504	432	5103	-204	-20728	-12456	5488	-3632	5729	-1211	-16744	-32768	25136	-6488	-253	106	124	143	2
-32768	23272	-32768	4594	-4880	-13780	12616	12556	-32768	19607	-990	4321	-20816	-2792	14992	-754	-2097	-722	-32768	16704	27576	4914	3358	194	-32768	-19944	6712	2142	5016	1155	-9112	-32768	1616	3404	-2468	-1358	118	132	2
-32768	22692	-32768	-4447	27524	7736	13520	-1448	-32768	16381	16766	2814	-8000	21904	416	1460	3236	-515	-32768	28944	27872	5477	286	-167	-30696	3344	3648	6097	4596	1457	-15224	-25640	-4840	6603	-4443	-2491	131	146	2
-32768	-32768	32767	32767	30161	32767	-32768	-32768	-32768	32767	32767	-18883	-11632	2784	432	4076	-1093	774	-32768	32767	28064	4206	-2579	-287	-32768	12240	-4184	5699	3386	1245	-32768	18168	-15128	8693	-4173	-1359	109	135	2
-32768	32767	32767	-3497	8915	10852	-29348	32767	-32768	19117	32767	32767	-9824	10288	-24920	-827	2783	-393	-31184	32767	23120	1597	-4549	-134	-32768	7784	-7624	4116	1721	1241	-32768	32767	-19904	4721	-5008	-326	121	115	2
-5316	-18280	4400	-3833	13563	-7702	32767	-15692	-32768	-12572	32767	-8106	-14064	19488	-26864	-7213	3715	-2031	-11600	22120	19432	-425	-5839	337	-32768	6872	-6768	3797	1582	1136	-32768	26072	-8848	-2025	-6969	-355	131	121	2
-11564	5736	20732	-5370	12059	-448	-25132	4628	-32592	12652	20960	-5268	-31776	1544	-26808	-2225	2788	3500	-9592	16840	16840	452	-6211	1281	-13696	-440	-21992	2638	-2369	1506	-32768	15256	-544	-1780	-7340	-90	135	122	2
-8132	-17312	11644	-7160	15550	4283	-25344	-7776	-21612	-2916	27516	10	-32768	-29344	-22336	565	3941	3625	-12800	15720	13312	1531	-7744	2890	-7616	3624	-17456	541	-4312	1373	-32768	5168	-12432	-2286	-4663	793	135	126	2
-9340	-18248	19456	-6744	25541	9350	-32768	3840	-22844	12047	16084	-3557	-32768	18144	-7176	4021	3136	2653	-16480	12128	5216	2129	-7679	4553	-7528	3312	-16512	335	-4652	1585	-32768	-736	-18432	-828	-4126	522	133	117	2
-7884	-13088	26336	-5135	32767	18966	-32768	7336	-14556	-5761	6316	-16963	-32768	16712	9464	1312	3776	4613	-23984	14248	4944	2004	-6360	6253	-12040	-2000	-13552	-2191	-6907	3727	-8176	-3584	-14584	941	-3318	833	132	136	2
-632	-15972	22524	-11751	32767	30567	-32768	2528	248	-19559	4722	-9494	-32768	-2256	12360	152	4914	2758	-26408	17752	8936	503	-5342	7527	-11976	-728	-14840	-3214	-7035	3295	2856	-2608	-16144	2241	-1043	730	132	131	2
-5896	-3952	20596	-15642	32767	32767	-32768	-316	10352	-29723	828	1344	-22392	-7856	10288	-313	6148	1707	-30472	7512	16640	253	-4957	8640	-12160	-872	-19368	-4326	-7693	2492	9784	-2104	-19752	3279	451	439	128	131	2
-22556	-8880	12916	-11027	32767	31908	-24956	-6408	11044	-24022	-2761	3981	-23728	-14824	2952	-774	6789	796	-32768	-656	15960	1346	-5074	8805	-15032	-2688	-20544	-4574	-8311	1802	15728	6424	-21624	3000	1217	148	128	122	2
-32768	-19636	5620	14746	32767	31915	-15648	-15544	17304	6868	4237	9026	-20432	-31928	24928	39	4983	661	-32768	-2208	7600	660	-5866	6838	-14464	-12352	-32768	-2940	-7598	1288	21216	20152	-25120	-1048	790	-76	128	145	2
-17932	-16064	-16312	24383	32767	16693	-8552	-15076	13164	32767	17522	16361	-18200	-26688	29568	6289	-544	1977	-32768	-24688	-20848	889	-5644	4176	-4432	-20360	-32768	2197	-5688	1621	5680	9848	-736	-5126	-2053	-914	128	139	2
-32768	-14608	1840	32767	32767	10023	-6128	-1212	-3600	32767	32767	13605	-16128	7344	32767	6983	-2829	-1082	-32768	-32768	-32768	1380	-3564	1126	3544	2040	-32768	2473	-2363	2204	-8832	-232	32767	-4808	-5097	55	125	129	2
-32768	10028	28604	9587	32767	-4381	-32768	26576	2876	32767	32767	5451	-11856	32767	21592	3269	-2761	-802	-32768	-32768	-32768	914	171	428	13800	-18832	-32768	-1149	291	281	-8480	-26312	14400	-2730	-419	-859	125	134	2
-32768	-1512	29784	-32768	29118	-6908	-31380	32767	3388	-20708	32767	-14056	-4864	32767	2928	-3040	-2143	-95	0	0	0	0	0	0	16464	-21240	-29400	-1605	2853	-1816	-4112	-18440	-30672	2703	4766	-66	124	153	2
-32768	-20260	28468	-32768	5823	5444	-27396	8792	1568	-32768	32767	-11256	232	32767	7904	-5150	-2840	848	-32768	-8456	-32768	-7129	5682	-14854	10480	32767	-32768	-499	7301	-488	-17944	-14952	32767	483	-776	2018	126	118	2
-32768	-28960	23400	-32768	-13772	15087	-32768	-1876	-2376	-32768	32767	-13568	-32768	4680	-6624	-7438	-3146	-360	32767	-32768	19672	828	207	-125	-32768	-32768	-32768	-23616	5708	-1164	-32768	32767	-32768	-1780	1626	1988	125	174	2
-24940	-32768	18832	-32768	-26570	15409	-32768	-11188	-6196	-32768	27602	-5238	-32768	-24016	-32440	-7149	-2696	-1573	-7696	32767	-480	348	1582	1001	32767	32767	-32768	10360	6429	-2942	-26480	-21360	-8176	3208	2684	3607	126	91	2
-9696	-32768	14416	-4258	-30282	17201	-28920	-7988	-6436	-32768	18392	-8630	-32768	-12168	-11456	407	-5268	-1924	-4672	4400	24536	390	1797	-346	-11504	-2568	-32768	-132	2127	1683	-21168	2496	-30504	35	4025	-696	124	169	2
-2716	-28172	15988	12524	-30476	3808	-14060	-10292	-15028	-12993	-4919	-5870	-32768	-6832	-10848	1911	-6013	-1692	-10160	19360	9968	286	1952	-1038	-32768	32767	-32768	-1649	4471	-2915	-24328	32767	-32752	300	3169	-2326	124	108	2
2372	-14724	22276	7694	-32768	-23344	-12972	-5824	-23348	17565	-32768	1476	-32768	11152	-14904	1857	-5389	-2686	-13120	9168	23208	-172	2751	-741	-32768	-14048	-23632	-1727	1842	-867	-32768	-15304	-6344	-7727	4047	-1714	126	160	2
-11220	-17096	14172	-3393	-32768	-32768	-10036	1420	-13260	18806	-32768	-10211	-32768	19080	-19368	1869	-4399	-2191	-7040	12976	26976	-370	4688	-1841	-32768	-128	-18232	1051	1469	523	-32768	-25856	10640	-2355	5595	-29	124	139	2
-21968	-12804	14156	-4821	-32768	-32768	-9948	1892	-13900	16971	-32768	-14466	-15488	11560	-19424	-296	-3094	-1952	-3160	14840	19240	487	6719	-3413	-32768	104	-6848	1724	1105	493	-32768	-8096	10176	-528	4563	-202	124	137	2
-26204	-12040	11484	-7796	-32768	-32768	-10844	8800	-11896	10048	-32768	-17352	456	8968	-17944	-2154	-305	-1560	-5312	8816	16000	610	8350	-4665	-32768	5368	10640	2757	-7	714	-25024	3784	16792	1647	5175	-613	127	125	2
-32768	-17944	14280	-181	-32768	-32768	-10136	4668	-18032	1192	-32768	-18986	8464	9816	-22592	-3510	1136	-875	-25824	16160	14728	549	9706	-4596	-32768	5840	4992	2872	-631	46	-24576	10456	9472	3528	5386	1313	126	143	2
-32768	-4564	10000	-1633	-32768	-32768	-10132	4880	-23880	5413	-32768	-13220	18960	2768	-24288	-1812	1407	453	-32768	21312	13080	-577	8476	-4271	-21776	18992	11400	2346	-961	-1019	-23952	23896	19232	3323	4739	1930	125	131	2
-32768	-4628	6860	-1858	-32768	-32768	-13808	-164	-32768	7146	-32768	-11971	32767	3184	-32768	4087	946	1682	-32768	22832	3608	-1931	7024	-3408	-15112	25824	22720	-1230	424	-2081	-6880	24216	32767	-4078	2037	669	124	112	2
-32768	11764	-16640	-946	-32768	-32768	-14348	8328	-32768	397	-32768	-8537	13272	200	-2080	4611	-2222	1693	-32768	20168	1656	-2178	6778	-3360	-744	6536	15640	-5394	4113	-1670	-14744	-11472	32767	-8359	-222	328	128	132	2
-32768	20388	-32768	-11794	-32768	-23870	-16192	10708	-32768	-5662	-32768	-9476	-8432	-8048	32767	176	-4085	522	-32768	7632	24016	777	3900	-1192	-22640	-11976	8016	-3600	5751	-1383	-13968	-32768	28144	-5906	-506	-56	127	133	2
-32768	25748	-32768	-8318	-16318	-5692	12620	7316	-32768	-3176	-2763	-3068	-32768	-3280	21144	-2820	-1929	-1173	-31504	19424	27360	4331	2847	-1230	-32768	-17312	8072	2701	5043	1208	-9008	-32768	4592	2840	-2248	-1163	123	130	2
-32768	22704	-32768	-7058	3045	1835	9164	8372	-32768	-3184	16814	1974	-10984	22008	-2392	-620	3088	-1238	-29696	25928	28632	5149	1052	-1683	-29496	5712	10400	6015	4285	1088	-14856	-23184	-4832	5752	-3973	-2427	119	145	2
-32768	14920	-32768	32767	32767	32767	-600	-27372	-32768	-11225	32767	-14057	-1840	24208	21536	-1591	3513	310	-32768	32767	29080	4271	-991	-1792	-32608	8424	-864	5027	3264	743	-27352	6992	-4008	6500	-4454	-1466	123	135	2
32767	32767	32767	32767	16759	7614	-32768	32767	-30100	32767	32767	9333	-32768	-32768	-32768	-6868	367	-2633	-29880	32767	28136	1880	-3248	-1015	-32768	12648	-10976	3379	1996	933	-32768	32767	-15336	5066	-4436	-864	126	120	2
-32768	-3884	288	-1992	10785	-8434	27868	-12816	-28916	-10721	32767	-123	-9520	19568	-32768	2823	653	-1295	-12272	28056	21832	-1044	-4663	184	-30080	1848	-8304	905	1019	304	-32768	26640	-16680	-1162	-6096	679	128	117	2
-5412	-16144	17536	-5341	12466	-4062	4996	-19152	-5652	9841	32767	1226	-18184	30616	-24240	-2865	2234	1749	-6888	13424	18672	-758	-4843	1420	-14648	2904	-16176	1487	-1371	741	-32768	12336	-1976	-3569	-6844	-1191	129	127	2
-13972	-12416	7560	-4871	13262	1519	-23832	-2204	-32768	-5470	24434	5272	-17696	-6776	-29584	614	3275	5798	-11856	16616	16736	647	-6576	3236	-8968	2720	-19536	-83	-3993	561	-32768	4576	-8544	-2682	-6776	618	128	121	2
-13228	-7256	15944	-3430	14415	6943	-32768	-7328	-30880	-542	25040	853	-32768	-32768	-16624	743	4022	1656	-13984	14960	8232	734	-7449	4459	-8360	-264	-13136	-913	-5951	2226	-32768	-4920	-17832	-1867	-3673	639	129	116	2
-11372	-15012	22000	-1054	25309	13168	-32768	7684	-20836	1485	16358	-5009	-32768	31712	-7168	4310	3604	2397	-24432	12488	6464	904	-6746	5794	-10520	488	-14144	-2452	-7132	3142	-17392	-3624	-17024	-6	-3875	648	127	127	2
-6268	-16448	25120	-2343	32767	21085	-32768	380	-9524	-8269	10248	-11338	-32768	15792	12184	902	4390	2658	-29984	19992	7968	97	-6265	7450	-11296	-1176	-14280	-3772	-7388	2551	456	-2344	-17640	1770	-1658	677	128	128	2
-3276	-14020	22888	-8458	32767	32153	-32768	4088	4800	-16171	3450	-5366	-32768	-3856	13632	-1217	5361	2823	-31408	6288	15616	-375	-5768	8405	-12488	-256	-23760	-4499	-8436	2017	6504	-2768	-19416	3058	605	596	127	128	2
-6388	-6288	20408	-9337	32767	32767	-32768	648	13340	-20343	3754	3795	-30000	-14440	7112	-896	5981	1557	-32768	2168	10552	1583	-6076	8726	-13736	-4496	-25256	-4323	-8736	1167	14576	3136	-21944	3052	1638	207	126	127	2
-30484	-15424	10144	-3526	32767	31710	-27116	-10084	13204	-12594	3758	6729	-23200	-24512	21040	279	5472	524	-32768	-1392	152	-139	-6956	6732	-10896	-6160	-32768	-2057	-7746	1092	19856	16608	-22456	132	1682	-158	127	136	2
-32768	3352	15624	15343	32767	29039	-16680	-10224	24224	12857	13386	14046	-18720	-31312	32767	3878	1792	895	-32768	-23280	-25880	428	-5925	4328	-6128	-15696	-32768	1733	-5829	1356	10448	10328	-2096	-3796	-897	-878	125	129	2
-14860	-26940	-15488	32767	32767	17241	-7624	-13784	14200	32767	32767	10496	-14456	-5808	31032	6302	-2740	-296	-32768	-30312	-32768	1565	-4347	813	-2848	9008	-32768	2773	-2217	2024	-8136	2384	32767	-4014	-4122	-282	127	137	2
-32768	-1048	24328	32767	32767	-1420	-21232	4364	-3384	32767	32767	7866	-8072	19064	30320	3857	-3188	-717	-32768	-32768	-32768	1285	-438	-358	13552	-14912	-32768	-1109	855	109	-15152	-15368	23944	-2383	-1781	102	126	125	2
-32768	14892	32767	-29338	32767	-7624	-32768	29664	1440	17471	32767	4248	-9496	32767	8456	-772	-2274	-650	-11536	-22712	-13288	-73	2597	-28	13744	-18528	-31936	-297	3439	-1410	-7040	-15984	-19536	565	4546	-1145	123	117	2
-32768	-18656	27288	-32768	6735	6324	-20268	-132	8780	-32768	32767	-10185	-4168	32767	7008	-2712	-3252	939	-32768	3224	32767	-2764	7190	-15605	-4984	32767	-32768	3399	6907	626	-11936	-12016	32767	2080	191	1583	124	138	2
-32768	-25548	22680	-32768	-10439	17328	-32768	-3240	2892	-32768	32767	-12744	-28248	11016	-1768	-4781	-2720	35	-32768	-32768	32767	845	46	-869	-32768	-32768	-32768	-14018	5020	-76	-29800	26032	-32768	-963	46	506	125	169	2
-24768	-32768	20432	-32768	-14125	18244	-32768	-8440	-7444	-32768	25201	-7187	-32768	-12224	-24680	-5904	-2489	-1548	-14760	8720	8024	234	1010	687	6664	-8960	-17424	5109	7873	-3208	-11808	2440	-19096	2387	3119	2619	125	152	2
-17724	-32768	14820	1079	-25080	9849	-23332	36	-7860	-24397	18665	-6722	-32768	-7128	-9736	-864	-4749	-1674	-8696	18536	9384	246	1475	-361	2136	19832	-14176	2778	2712	1797	-32768	3560	-25768	1792	4190	404	125	132	2
-3844	-21032	15364	16207	-29458	-6056	-15164	-2724	-10180	-22327	2347	-7521	-32768	-5688	-10000	463	-5478	-1566	-10960	12024	11584	400	1589	-644	-32768	17176	-23728	-365	3045	-52	-32768	32767	-25536	790	2713	-2091	126	132	2
1612	-12056	19388	13816	-32768	-21273	-11628	-10256	-13868	-3435	-22151	-1872	-32768	2456	-9008	609	-5300	-2424	-12536	3152	22520	165	2147	-815	-28656	-4728	-32768	-2632	2779	-1184	-32768	12936	-7400	-5967	4421	-1928	124	143	2
-9604	-10856	16512	-2840	-32768	-32768	-6404	-1936	-11432	10422	-32768	-6431	-32768	10208	-17240	1935	-4267	-2142	0	0	0	0	0	0	-32768	-9136	-22272	-88	1583	469	-32768	-22880	3632	-4091	6114	-1545	125	129	2
-21452	-12608	11356	-6237	-32768	-32768	-7292	-1360	-11552	13820	-32768	-15809	-24312	9656	-17728	1208	-3258	-1513	-4664	17192	19992	-110	5785	-2758	-32768	656	-6152	1604	1297	493	-32768	-10088	8880	-1964	4909	139	126	119	2
-22000	-5532	8688	-14006	-32768	-32768	-8428	5312	-10672	15782	-32768	-13908	-3920	10696	-14240	-935	-1590	-1502	-2728	14232	21152	67	6010	-3012	-32768	3136	368	2147	257	545	-26848	-5744	13960	-341	4818	-184	125	120	2
-26984	-18088	8716	-8491	-32768	-32768	-9172	10268	-12864	-275	-32768	-19864	2704	8352	-16720	-2664	-4	-713	-12616	3552	15928	537	8958	-4934	-32768	5504	4704	2349	-485	678	-19008	2432	13112	2369	5414	431	128	141	2
-31980	-9248	15848	-1328	-32768	-32768	-13868	5740	-20440	-1850	-32768	-18149	7464	6512	-18048	-3204	846	503	-32768	1824	12688	-504	8873	-4684	-25448	9288	120	2545	-530	-553	-21288	12384	7056	4762	5230	1326	127	126	2
-32768	-6732	3572	-2243	-32768	-32768	-18348	2424	-25396	4527	-32768	-16374	15456	3744	-20944	-2381	1191	952	-32768	6032	11832	-1421	7808	-3936	-19120	18080	13496	1076	-562	-1511	-25952	32767	18912	2704	5012	1049	126	117	2
-32768	3436	-12456	7546	-32768	-32768	-8648	2036	-32768	15837	-32768	-9912	23088	-9080	-17768	3698	853	450	-23544	15448	-5896	-2433	6442	-3088	-9456	23488	19056	-2706	931	-2309	-2440	25632	32767	-6210	1446	-526	126	134	2
-32768	14908	-28948	-795	-32768	-32768	-3632	7740	-32768	1636	-32768	-7413	-1576	-10096	7520	5137	-3261	-111	-32768	2864	11200	-3367	5004	-3018	7784	4008	3408	-7175	4881	-2098	-17192	-12560	29416	-10362	-677	557	126	115	2
-32768	21460	-32768	-3704	-25751	-19314	3112	2088	-32768	6646	-15447	-3779	-5280	-9776	24792	468	-3813	-1636	-31584	6720	25832	424	3696	-625	-24928	-12848	6800	-3699	5825	-1345	-15120	-32768	24680	-6964	125	810	127	135	2
-32768	24708	-32768	984	-198	-13371	14956	11576	-32768	10419	3687	3226	-11832	11528	-2888	-1479	1221	98	-30568	17520	29136	3688	2416	-412	-32768	-20400	7032	2504	4945	1044	-11256	-32768	-3216	3062	-2005	-1502	124	130	2
-31536	19852	-27492	1998	16150	-9900	14072	10304	-29416	11441	13556	3829	-4240	29312	-29320	-774	4072	-70	-31520	26872	31080	4509	415	-981	-27512	3696	7288	5577	4625	972	-16216	-28816	-3872	5307	-3953	-2391	124	144	2
-972	-32616	-32768	26988	32767	32767	14568	-32768	-32768	-32768	32767	-27700	-14976	25536	32767	1765	-732	902	-32768	28352	29632	4058	-1942	-1366	-32768	6320	-968	5286	3136	1312	-32768	1192	-5952	7418	-4420	-1286	119	124	2
-32768	32767	32767	16573	10520	24758	-32768	32767	-26084	32767	19627	24669	-32768	15112	-32768	-5311	4920	-218	-27408	32767	26728	3224	-3901	-703	-32768	9576	-9808	4455	1902	1440	-32768	32767	-15896	6232	-4660	-1114	128	118	2
-13364	-4136	3544	-7035	16195	-9157	28232	-23292	-24784	-19425	32767	-9452	-28016	24936	-18384	-576	95	-2406	-12520	31752	20448	503	-5113	-518	-32408	3768	-15376	3350	845	1519	-32768	32520	-24016	100	-6750	349	127	125	2
-10060	-4544	16824	-4292	10283	-2265	-12516	-18756	-22068	16081	24868	-3228	-328	16936	-23304	-2275	4380	2316	-3752	20968	17856	120	-5240	885	-12368	5064	-22048	1837	-2004	479	-32768	20560	-5408	-3078	-7077	-75	127	114	2
-9756	-12804	12628	-6955	13681	3897	-23032	-1808	-15092	3842	22748	8313	-24608	-17312	-22040	1559	3673	4459	-10136	19952	17448	832	-5768	3712	-9304	1584	-17936	-315	-4805	2012	-32768	8520	-13200	-2399	-6258	594	126	135	2
-8948	-10480	23972	-5095	23380	6234	-32768	8296	-29536	12427	14981	-586	-32768	3096	-7960	5090	2416	1691	-16752	17072	11888	1092	-6333	6161	-11760	696	-13176	-2056	-6424	2688	-32768	-3064	-24712	-1621	-4031	375	126	102	2
-8692	-11776	27236	-3927	32767	18480	-32768	3952	-13612	-2592	7676	-17103	-32768	32767	10384	3306	3194	3129	-25240	15008	11712	792	-5968	7077	-11672	1288	-13248	-3602	-7467	3297	-9768	-6448	-21296	366	-3788	957	124	129	2
-2724	-12952	22240	-11730	32767	26291	-32768	5596	1448	-17767	8777	-9160	-27848	7672	13568	-336	4745	1764	-31464	13760	16496	72	-5875	7955	-12008	-1672	-19512	-5129	-8363	2943	3912	-6608	-21192	2264	-1040	1142	125	124	2
-8908	-6420	15740	-13381	32767	30691	-32656	1408	4560	-31209	3154	-3791	-24912	-8856	10880	-2107	6197	3011	-32768	9728	12856	640	-5883	8701	-13720	-4520	-18480	-4699	-9391	1735	14376	-1984	-25000	3708	1431	627	127	121	2
-26168	-7196	15056	-13565	32767	29979	-28292	-8156	10052	-24940	-743	799	-27128	-10928	3552	-1078	6387	1518	-32768	10400	6992	90	-5690	8301	-15200	-8128	-32768	-3486	-9104	1191	29040	11760	-24584	1277	2334	-171	127	127	2
-32768	-17284	9004	-7382	32767	25115	-20068	-9900	14640	-6999	3232	6287	-23824	-19304	22712	600	5710	56	-32768	-11672	-6976	-708	-5289	7503	-10024	-13880	-32768	-920	-7605	944	24672	13840	-14752	-2696	-32	-1348	126	128	2
-19916	-12476	-10280	8373	32767	16015	-9776	-11360	20416	24357	15500	13453	-13560	-32768	29664	2911	788	1360	-32768	-31480	-32768	1052	-5091	4049	-14032	-3480	-32768	4169	-4594	1714	3200	8120	28904	-3965	-3200	-989	126	123	2
-32768	-5344	-26736	32767	32767	16755	2772	-9008	9492	32767	32767	7000	-18832	-648	32767	6865	-3081	-283	0	0	0	0	0	0	5320	7872	-32768	1535	-1864	1185	-4328	-232	32767	-4174	-4382	378	126	137	2
-32768	-4420	13684	32767	32767	4099	-18604	9484	652	32767	32767	7282	-5536	16944	32767	3207	-2858	-2293	0	0	0	0	0	0	16880	-14624	-32768	-929	1259	-49	-29128	-18056	15920	-735	-1156	1345	124	133	2
-32768	11376	32767	-7384	32767	-5097	-32768	32767	2924	21300	32767	2257	-7280	32767	2568	-1037	-2016	-323	0	0	0	0	0	0	17584	-22240	-32528	-482	3795	-1091	-12360	-23056	-4104	2210	4217	-791	126	119	2
-32768	-9620	29112	-32768	18017	-4394	-25008	15976	3984	-32768	32767	-13486	-1008	32767	8968	-2105	-3102	747	-32768	-12808	-32768	-3934	6232	-10836	360	32767	-32768	3017	6894	86	880	-9256	-9816	5396	1881	1135	126	139	2
-32768	-24300	25060	-32768	-12040	9299	-32768	-2792	-764	-32768	32767	-9796	-11896	20016	-1600	-4807	-2538	256	-32768	-32768	32767	-240	1388	-1677	-32768	-32768	-32768	-24586	5594	2357	-26144	32767	-32768	9939	-1918	-803	124	65	2
-30664	-32744	23612	-32768	-26738	17252	-32768	-11424	-3920	-32768	31124	-7048	-32768	-5472	-28672	-6425	-1779	-1890	-17280	-20920	11056	419	932	275	7112	1960	-20072	9402	7363	-2337	-11056	-14816	-32768	-1015	2664	1040	126	46	2
-18988	-32768	16432	-18349	-32538	18071	-26904	-3484	-5552	-23355	20728	-4559	-32768	-7696	-11296	-2118	-5148	-1086	-10640	16928	8872	168	1751	-353	2432	18984	-18144	590	3636	1708	-27928	-8480	-28520	2286	4962	522	126	101	2
-8044	-27528	14480	4678	-32768	5799	-18116	-2060	-11016	-24915	6785	-8013	-32768	-9360	-9608	190	-5924	-1181	-6096	14896	15352	118	1716	-468	-32768	21800	-19792	-1084	2773	-1380	-32768	32767	-30176	1787	2510	-1883	127	103	2
3968	-20312	15664	10952	-32768	-12394	-12704	-7404	-13288	-10706	-18125	-3995	-32768	4432	-7992	275	-5396	-2392	-12888	1312	22176	18	2111	-719	-25656	-9952	-32768	-2934	2957	-986	-32768	15024	-8992	-5997	3314	-2553	125	145	2
