#Activity	sitting 
#ActivityID	5 
#Date 10-06-17-50
acc_rf_x	acc_rf_y	acc_rf_z	gyro_rf_x	gyro_rf_y	gyro_rf_z	acc_rs_x	acc_rs_y	acc_rs_z	gyro_rs_x	gyro_rs_y	gyro_rs_z	acc_rt_x	acc_rt_y	acc_rt_z	gyro_rt_x	gyro_rt_y	gyro_rt_z	acc_lf_x	acc_lf_y	acc_lf_z	gyro_lf_x	gyro_lf_y	gyro_lf_z	acc_ls_x	acc_ls_y	acc_ls_z	gyro_ls_x	gyro_ls_y	gyro_ls_z	acc_lt_x	acc_lt_y	acc_lt_z	gyro_lt_x	gyro_lt_y	gyro_lt_z	EMG_r	EMG_l	act
-11024	-4608	10580	-46	175	-87	-14056	2172	-8148	41	88	153	-1992	-1336	16908	295	58	-35	-11900	1760	11528	123	-10	-144	-15244	764	-6632	-76	59	214	-2812	-544	16712	-11	-87	191	125	126	5
-11024	-4588	10608	-10	192	-109	-13904	2344	-8372	-45	97	147	-2076	-1136	17020	470	78	-56	-11960	1656	11484	134	-17	-178	-15132	836	-6812	64	-6	168	-2816	-560	16656	-69	-105	195	125	126	5
-11060	-4540	10564	25	153	-101	-13928	2400	-8212	-78	10	225	-2060	-720	17132	330	29	-60	-11944	1664	11512	131	-77	-145	-15212	820	-6652	113	-46	148	-2560	-720	16716	-53	-165	218	125	126	5
-11004	-4424	10540	15	129	-112	-13928	2476	-8224	-29	-53	177	-1984	-560	16992	203	-18	-76	-11960	1784	11720	137	-7	-144	-15236	652	-6540	127	-48	210	-2384	-736	16772	39	-149	203	125	126	5
-11032	-4556	10608	-1	125	-103	-13908	2576	-8164	14	-82	106	-2032	-408	17004	198	-16	-36	-11884	1700	11648	147	-103	-110	-15268	728	-6564	123	-49	194	-2292	-600	16716	53	-124	183	125	126	5
-10964	-4512	10636	-77	150	-129	-13904	2560	-8172	28	-101	125	-1964	-376	16924	196	25	-1	-11944	1788	11640	104	-44	-155	-15288	852	-6408	-13	-26	241	-2420	-472	16632	122	-92	181	125	126	5
-10948	-4492	10584	-143	180	-166	-13964	2580	-8200	-25	-17	-131	-1976	-448	17040	178	-46	72	-11948	1780	11500	122	-37	-151	-15196	856	-6560	-69	-18	201	-2576	-392	16596	141	-95	159	124	126	5
-11096	-4580	10652	-150	172	-206	-13920	2396	-8328	-17	-59	-193	-2164	-656	16992	125	-5	63	-11960	1716	11636	136	-25	-193	-15208	920	-6512	33	-36	152	-2620	-304	16692	35	-157	187	125	126	5
-11060	-4516	10548	-145	202	-232	-13908	2432	-8300	48	-91	-200	-2064	-804	17040	118	-19	124	-11912	1712	11596	83	-85	-168	-15220	852	-6600	175	36	103	-2524	-292	16772	-71	-181	273	125	126	5
-11008	-4612	10484	-163	174	-244	-13932	2332	-8320	-2	-122	-184	-1908	-884	16988	124	-33	90	-11984	1732	11552	112	-95	-157	-15228	864	-6452	95	-30	35	-2264	-460	16680	-78	-188	371	124	126	5
-10984	-4532	10492	-169	166	-215	-13992	2248	-8128	-44	-107	-144	-1708	-896	16988	113	-2	114	-11880	1712	11632	111	-87	-212	-15352	672	-6548	-9	42	46	-2216	-588	16704	-54	-117	342	125	126	5
-10996	-4568	10480	-182	152	-199	-14052	2308	-8044	19	-35	-125	-1548	-984	16892	155	-37	99	-11952	1720	11640	133	-98	-194	-15236	644	-6492	-31	42	92	-2200	-676	16700	-9	-87	220	125	126	5
-10972	-4576	10532	-185	167	-191	-14096	2252	-8100	31	44	-90	-1724	-956	17008	185	-26	49	-11940	1624	11584	99	-67	-222	-15204	580	-6600	39	45	159	-2436	-824	16604	-3	-135	214	125	126	5
-11024	-4480	10460	-94	221	-152	-14004	2228	-8288	-6	1	-10	-1896	-1076	16972	241	31	-50	-11976	1680	11592	142	-63	-138	-15196	680	-6628	122	64	213	-2552	-800	16528	-33	-116	169	125	126	5
-11072	-4576	10428	-54	172	-138	-13952	2208	-8256	-9	-1	6	-2012	-1032	17036	157	57	-55	-12024	1676	11448	157	-10	-113	-15152	712	-6820	82	-6	272	-2680	-832	16672	44	-144	153	125	126	5
-11004	-4584	10528	-19	166	-96	-13924	2340	-8316	-30	-41	92	-2092	-996	16916	130	-17	-40	-11896	1688	11548	143	-43	-133	-15216	808	-6636	31	-81	249	-2648	-808	16720	63	-162	182	125	125	5
-10996	-4616	10536	-25	140	-131	-13876	2360	-8280	42	-68	79	-1988	-820	16988	310	45	-11	-11932	1664	11668	148	-25	-84	-15188	728	-6648	42	-113	242	-2468	-728	16708	115	-142	170	125	125	5
-11012	-4572	10540	-41	116	-155	-13872	2444	-8328	20	-52	70	-2040	-680	16948	187	-76	-5	-11980	1748	11644	152	-35	-119	-15244	724	-6624	46	-128	232	-2400	-644	16656	135	-126	164	125	125	5
-11024	-4560	10624	-74	132	-155	-13956	2476	-8172	-23	-77	52	-1876	-644	16792	114	-45	-15	-11960	1732	11556	170	-57	-99	-15272	800	-6536	111	-108	257	-2436	-436	16652	68	-166	149	125	125	5
-10992	-4548	10580	-50	162	-164	-14012	2456	-8120	-66	-83	31	-1840	-652	17024	102	-64	-7	-11948	1764	11532	151	-22	-106	-15348	896	-6528	48	-104	227	-2368	-396	16728	65	-128	117	124	125	5
-11004	-4548	10600	-62	158	-172	-14016	2428	-8152	-7	-76	-12	-1844	-720	17000	167	3	-20	-11952	1740	11516	135	-44	-163	-15308	912	-6348	59	-87	191	-2344	-308	16616	54	-170	158	124	125	5
-11052	-4544	10648	-93	166	-155	-13948	2380	-8116	-23	-33	-24	-1900	-736	17008	278	10	17	-11936	1732	11508	142	-52	-175	-15268	904	-6444	39	-45	146	-2440	-328	16696	25	-150	167	124	125	5
-11036	-4596	10632	-65	140	-151	-13964	2440	-8248	-12	-25	-30	-1956	-724	16972	188	-46	41	-11920	1712	11564	135	-107	-171	-15272	916	-6532	96	37	138	-2464	-316	16636	-17	-132	209	124	125	5
-11012	-4520	10588	-102	167	-198	-13988	2388	-8192	-8	-35	-55	-1936	-744	16984	150	-52	39	-11920	1804	11568	84	-56	-192	-15292	880	-6572	106	24	63	-2500	-372	16768	-105	-152	260	125	125	5
-11068	-4640	10592	-108	191	-164	-13996	2424	-8196	31	-37	-118	-1864	-768	16916	131	-51	32	-11924	1668	11448	58	-54	-185	-15256	848	-6560	73	36	47	-2556	-484	16700	-119	-138	258	124	125	5
-11028	-4524	10520	-139	180	-199	-13960	2408	-8164	15	-54	-103	-1968	-776	16956	128	-2	23	-11932	1764	11552	41	-68	-196	-15288	764	-6592	99	11	68	-2464	-672	16660	-117	-134	248	125	125	5
-11000	-4544	10504	-156	171	-179	-13956	2372	-8156	9	-56	-133	-1912	-852	16896	77	-7	6	-11932	1712	11576	84	-46	-220	-15264	680	-6568	66	14	69	-2492	-784	16596	-129	-170	256	125	125	5
-11012	-4564	10524	-121	147	-196	-13868	2380	-8268	25	-31	-89	-1932	-928	16964	131	-17	62	-11940	1696	11652	87	-69	-196	-15276	696	-6724	66	-1	89	-2392	-760	16664	-90	-164	255	125	125	5
-10964	-4580	10512	-117	173	-174	-13952	2396	-8160	12	-57	-112	-1840	-956	17048	162	-32	40	-11860	1736	11520	96	-72	-190	-15280	648	-6532	52	-8	115	-2444	-816	16632	-16	-141	250	124	125	5
-11004	-4604	10544	-126	170	-200	-14004	2312	-8172	2	-56	-70	-1768	-1032	17108	185	-32	36	-11896	1668	11528	145	-15	-146	-15240	736	-6600	64	-9	156	-2392	-828	16708	25	-129	204	124	125	5
-10968	-4560	10484	-128	188	-159	-14092	2280	-8272	0	-31	-55	-1812	-992	16940	185	-39	53	-11868	1672	11628	143	-47	-133	-15240	696	-6564	74	-39	176	-2452	-772	16660	83	-113	204	124	125	5
-11020	-4620	10492	-74	162	-123	-13984	2316	-8212	-10	-16	-16	-1840	-1004	17060	200	-39	-6	-11944	1676	11612	106	-24	-138	-15232	620	-6704	48	-9	222	-2452	-708	16680	87	-126	175	124	125	5
-11000	-4596	10524	-83	148	-130	-13948	2356	-8168	-37	-34	50	-1860	-1012	16884	268	10	-12	-11944	1756	11640	165	-61	-131	-15292	728	-6776	91	-67	214	-2396	-728	16772	68	-157	137	124	125	5
-11080	-4560	10656	-44	174	-156	-13916	2324	-8144	-59	-37	73	-1848	-904	16948	277	27	-16	-11924	1744	11556	152	-27	-155	-15284	772	-6624	95	-77	280	-2420	-576	16532	89	-141	145	124	125	5
-11036	-4612	10504	-29	157	-129	-13924	2388	-8092	-11	-6	64	-1888	-784	16992	250	63	-18	-11896	1744	11596	153	-46	-148	-15232	824	-6596	24	-48	265	-2420	-564	16648	128	-113	182	125	124	5
-11016	-4532	10504	-32	156	-122	-13912	2424	-8204	-29	-15	57	-1880	-796	16984	267	1	-20	-11924	1720	11456	150	-30	-127	-15252	852	-6656	53	-33	242	-2516	-500	16620	116	-85	181	124	125	5
-11036	-4580	10612	-59	202	-131	-13968	2424	-8176	-14	-2	66	-1936	-724	17060	214	17	-2	-11900	1736	11552	132	-17	-147	-15284	852	-6540	126	-71	226	-2564	-500	16700	129	-95	190	124	124	5
-10996	-4544	10500	-28	175	-131	-13924	2460	-8244	-24	2	75	-2052	-756	17060	212	-2	-21	-11952	1740	11512	148	-41	-161	-15272	804	-6528	112	-84	209	-2604	-416	16636	70	-146	173	124	125	5
-11040	-4580	10484	-70	159	-136	-13972	2408	-8136	18	-37	7	-2164	-732	16952	178	-4	-59	-11948	1752	11572	153	10	-171	-15240	832	-6668	136	-80	181	-2556	-356	16744	41	-168	183	124	124	5
-11012	-4516	10568	-88	149	-154	-13888	2508	-8228	48	-77	-21	-2124	-696	16968	103	-24	-25	-11928	1732	11508	141	-35	-132	-15252	884	-6504	111	-86	126	-2520	-376	16632	-95	-211	204	124	125	5
-11096	-4500	10640	-133	136	-179	-13892	2524	-8212	9	-106	-68	-2028	-620	17016	159	-3	-14	-11912	1728	11576	100	-56	-165	-15288	848	-6484	105	-130	132	-2384	-432	16720	-65	-176	228	124	125	5
-11016	-4480	10656	-115	154	-178	-13896	2412	-8240	1	-105	-75	-2004	-712	16964	165	-14	77	-11920	1740	11608	115	-86	-178	-15384	768	-6460	39	-57	65	-2268	-560	16708	-28	-175	237	124	125	5
-11040	-4528	10480	-126	164	-217	-13916	2516	-8180	-11	-152	-147	-1868	-716	17028	98	-94	80	-11936	1760	11632	88	-94	-155	-15244	752	-6460	39	-10	75	-2328	-640	16676	4	-154	302	124	125	5
-11064	-4520	10544	-156	146	-224	-13920	2464	-8200	-16	-71	-169	-1864	-864	17020	87	-58	119	-11908	1684	11664	62	-102	-169	-15288	796	-6560	81	-22	73	-2364	-648	16780	19	-150	309	124	125	5
-11000	-4572	10676	-138	167	-238	-13980	2400	-8108	-63	-98	-203	-1720	-976	17032	152	-33	93	-11956	1684	11456	91	-79	-163	-15212	720	-6544	53	-21	125	-2340	-676	16760	41	-135	299	124	125	5
-11044	-4600	10500	-136	185	-184	-14008	2244	-8196	-29	-76	-143	-1696	-1112	16832	152	-50	104	-11880	1712	11476	139	-82	-174	-15328	640	-6592	35	27	155	-2368	-704	16736	30	-123	268	124	125	5
-11004	-4628	10536	-122	160	-204	-14000	2240	-8136	11	-51	-109	-1652	-1140	16916	183	5	49	-11916	1716	11536	157	-64	-120	-15208	692	-6536	24	16	170	-2404	-720	16688	61	-74	255	124	125	5
-11016	-4620	10536	-105	160	-154	-14028	2208	-8144	-10	25	-27	-1716	-1100	16988	227	-20	6	-11884	1728	11596	129	-37	-180	-15272	712	-6592	32	-3	214	-2412	-632	16672	67	-114	167	124	125	5
-11000	-4588	10648	-137	166	-141	-14004	2272	-8264	8	49	89	-1720	-1072	16980	238	-2	-46	-11936	1708	11564	153	-60	-167	-15280	748	-6620	43	11	239	-2432	-628	16768	59	-82	196	124	125	5
-11024	-4576	10612	-77	159	-128	-14000	2268	-8064	-55	43	143	-1776	-1024	17036	240	24	-101	-11932	1716	11648	143	-118	-143	-15184	804	-6492	31	9	241	-2396	-604	16628	6	-125	171	124	125	5
-11064	-4560	10608	-103	145	-69	-13996	2360	-8192	-56	78	141	-1872	-832	17088	250	32	-97	-11972	1716	11580	144	-67	-149	-15324	792	-6536	55	1	255	-2408	-564	16720	11	-137	193	124	125	5
-11020	-4600	10548	-78	151	-122	-13904	2468	-8160	-21	84	141	-1900	-820	16908	244	56	-72	-11924	1712	11556	121	-19	-162	-15272	772	-6536	86	14	235	-2516	-548	16756	26	-114	149	124	125	5
-11032	-4544	10620	-34	153	-110	-13916	2488	-8124	-20	58	77	-2012	-624	17052	260	41	-15	-11988	1720	11520	144	-35	-153	-15268	832	-6552	88	25	214	-2504	-520	16684	31	-115	170	124	125	5
-11052	-4564	10640	-81	154	-110	-13980	2568	-8296	-19	23	18	-2144	-568	16992	212	-7	-21	-11972	1748	11552	131	-49	-126	-15300	912	-6568	93	-39	196	-2556	-512	16704	25	-116	178	124	125	5
-11052	-4504	10524	-82	171	-147	-13948	2564	-8256	-7	-12	-3	-2156	-584	16952	176	-42	10	-11948	1708	11640	113	-17	-161	-15192	796	-6588	59	-21	157	-2640	-492	16564	3	-163	178	124	125	5
-11024	-4560	10588	-73	201	-176	-13944	2524	-8284	36	-50	-41	-2112	-608	16980	134	-3	34	-11988	1756	11484	118	-30	-139	-15244	792	-6444	71	-44	159	-2564	-444	16680	-19	-171	213	124	125	5
-11024	-4428	10620	-52	185	-227	-13936	2476	-8316	28	-91	-113	-2044	-676	16996	84	-76	82	-11872	1740	11552	91	-50	-181	-15196	896	-6596	81	-35	105	-2520	-436	16564	-23	-180	215	124	125	5
-11008	-4552	10496	-80	183	-218	-13908	2420	-8360	13	-95	-150	-2044	-768	16940	85	-76	50	-11908	1784	11532	99	-63	-179	-15264	924	-6524	79	-28	60	-2416	-496	16664	-59	-142	243	124	125	5
-11056	-4576	10668	-120	188	-208	-13924	2400	-8268	19	-164	-136	-1924	-836	16956	75	-40	79	-11956	1720	11504	59	-93	-183	-15324	888	-6472	37	-48	27	-2464	-536	16628	-61	-132	331	124	125	5
-11052	-4540	10560	-116	132	-209	-13948	2384	-8192	-3	-141	-154	-1892	-956	16972	134	-53	61	-12004	1772	11496	63	-57	-189	-15240	788	-6456	44	-18	22	-2328	-624	16688	-50	-140	307	124	125	5
-11036	-4552	10516	-127	163	-221	-14012	2392	-8084	-7	-126	-115	-1760	-944	17000	151	-52	73	-11948	1680	11620	54	-75	-210	-15284	708	-6608	79	0	41	-2340	-740	16576	-26	-135	283	124	125	5
-11000	-4544	10496	-157	156	-170	-14004	2372	-8100	-30	-82	-138	-1784	-976	16904	168	-27	50	-11944	1736	11564	128	-99	-185	-15268	636	-6472	77	13	90	-2296	-780	16624	-44	-175	280	124	125	5
-10988	-4600	10524	-138	167	-168	-14004	2328	-8236	-8	-77	-57	-1744	-1020	16852	180	-13	71	-11920	1696	11576	115	-30	-139	-15264	652	-6528	64	15	158	-2276	-864	16720	2	-159	221	124	125	5
-10980	-4592	10416	-124	155	-203	-14024	2288	-8000	-52	-32	-64	-1700	-1056	16964	200	14	-2	-11920	1652	11476	148	-59	-181	-15236	608	-6560	59	-1	204	-2384	-828	16660	104	-124	208	124	125	5
-11028	-4612	10588	-128	159	-164	-13972	2320	-8112	-10	16	-15	-1860	-968	16968	236	1	6	-11896	1664	11560	150	-22	-118	-15276	672	-6688	-10	-24	265	-2456	-748	16704	137	-102	173	124	126	5
-11016	-4612	10548	-92	179	-130	-13960	2284	-8292	-31	39	-3	-1804	-1012	16988	239	29	12	-11920	1748	11536	151	-13	-127	-15312	820	-6528	-1	-26	253	-2544	-580	16728	157	-88	181	124	125	5
-11040	-4588	10624	-71	141	-132	-14072	2328	-8216	3	-18	76	-1884	-988	17048	262	-2	-17	-11960	1708	11632	175	-92	-87	-15288	772	-6548	23	-95	263	-2504	-584	16796	107	-107	157	124	125	5
-10976	-4588	10496	-48	180	-100	-13980	2376	-8224	1	12	128	-1984	-916	17076	257	20	-16	-11920	1664	11520	165	-77	-101	-15244	776	-6652	115	2	248	-2496	-472	16716	41	-148	159	124	125	5
-11028	-4540	10636	-64	177	-99	-13960	2428	-8308	-22	-35	115	-1968	-780	16932	252	50	-35	-11944	1716	11612	132	-67	-121	-15276	828	-6508	116	-9	206	-2476	-416	16732	12	-165	172	124	125	5
-11000	-4496	10636	-12	183	-128	-13992	2468	-8256	-7	-4	90	-1968	-652	16980	255	8	-41	-11908	1724	11620	123	-39	-164	-15268	828	-6356	100	-27	179	-2428	-420	16800	13	-128	198	124	125	5
-11016	-4544	10564	-73	163	-146	-13940	2532	-8252	1	12	57	-2020	-584	16940	199	-4	-31	-11944	1712	11540	85	-30	-154	-15232	856	-6576	31	-19	155	-2444	-476	16644	43	-102	196	124	125	5
-11020	-4488	10612	-103	170	-138	-13900	2468	-8212	-7	-52	-45	-2040	-636	17020	134	21	9	-11952	1688	11480	112	-69	-171	-15296	840	-6432	54	6	129	-2488	-472	16756	11	-151	250	124	125	5
-11056	-4576	10524	-139	172	-177	-13876	2464	-8200	21	-60	-114	-2000	-644	16980	127	-15	39	-11900	1788	11636	75	-34	-202	-15236	860	-6508	58	14	99	-2528	-476	16716	-24	-149	257	124	126	5
-11024	-4540	10656	-119	134	-183	-13996	2480	-8252	18	-38	-132	-1900	-684	16956	145	-42	69	-11936	1704	11640	94	-30	-177	-15276	756	-6496	47	-13	84	-2484	-580	16628	-26	-129	272	124	126	5
-10984	-4576	10464	-140	160	-205	-13964	2400	-8304	18	-77	-146	-2004	-916	16952	148	-45	45	-11960	1744	11488	53	-39	-197	-15284	748	-6504	107	27	52	-2524	-584	16672	-8	-146	291	124	125	5
-11096	-4540	10544	-138	154	-185	-13960	2384	-8300	18	-92	-136	-1900	-940	16968	172	-41	83	-11896	1728	11532	76	-45	-179	-15232	744	-6584	78	9	72	-2556	-604	16736	-13	-155	238	124	126	5
-11040	-4536	10588	-133	159	-178	-13996	2332	-8176	-7	-95	-116	-1888	-940	17016	144	-32	86	-11944	1664	11620	72	-68	-187	-15236	700	-6592	54	-24	95	-2404	-664	16592	-69	-172	255	124	126	5
-11012	-4576	10580	-147	153	-162	-13960	2268	-8204	-5	-79	-122	-1864	-1012	17004	179	0	27	-11980	1692	11544	104	-69	-158	-15244	700	-6656	57	-51	147	-2360	-732	16608	-18	-144	255	124	126	5
-10968	-4588	10512	-105	157	-154	-13936	2308	-8048	6	-135	-80	-1788	-948	17020	172	-5	42	-11916	1700	11552	94	-68	-160	-15268	700	-6488	47	-30	161	-2392	-828	16676	53	-143	247	124	126	5
-11056	-4560	10576	-98	160	-194	-13956	2368	-8232	-18	-106	-31	-1816	-988	16948	208	8	17	-11908	1692	11572	76	-30	-160	-15284	688	-6596	68	-47	215	-2376	-780	16632	104	-166	213	124	126	5
-11052	-4616	10520	-76	169	-172	-13996	2348	-8156	-5	-45	-19	-1796	-1004	16928	215	22	19	-11912	1708	11552	170	-52	-123	-15248	724	-6532	24	-65	233	-2448	-684	16608	112	-147	191	124	125	5
-11008	-4596	10496	-78	145	-146	-14044	2284	-8196	-10	-26	-14	-1772	-984	17060	227	40	3	-11992	1740	11656	133	-33	-140	-15292	732	-6588	65	-48	274	-2396	-568	16588	111	-110	190	124	126	5
-11036	-4564	10536	-90	112	-127	-14008	2376	-8136	14	10	46	-1832	-984	17048	259	17	25	-11992	1744	11556	152	-21	-127	-15280	848	-6492	30	-60	263	-2424	-560	16704	75	-135	210	124	126	5
-11032	-4540	10624	-35	176	-146	-13996	2336	-8224	-14	25	59	-1904	-844	17024	260	37	6	-11964	1752	11596	110	-18	-138	-15236	764	-6572	7	-52	207	-2424	-540	16668	47	-118	242	124	126	5
-10988	-4548	10604	-52	133	-128	-13904	2388	-8176	-48	6	33	-1900	-824	16968	287	27	-18	-11896	1652	11448	144	-32	-137	-15284	784	-6580	83	-45	220	-2404	-540	16580	82	-100	204	124	126	5
-11048	-4620	10492	-58	162	-122	-13944	2456	-8292	-40	5	45	-1884	-752	16964	258	-1	-7	-11988	1836	11604	119	-54	-146	-15200	776	-6484	138	14	219	-2392	-512	16664	32	-135	190	124	126	5
-11036	-4528	10560	-73	192	-133	-13956	2508	-8244	-23	14	37	-2012	-720	16920	232	-2	-21	-11888	1776	11612	160	-70	-169	-15312	780	-6600	75	-16	257	-2492	-532	16672	39	-146	198	124	126	5
-11024	-4524	10548	-83	183	-165	-13952	2468	-8300	3	-6	6	-1976	-644	16924	242	-8	14	-11956	1732	11580	151	-64	-163	-15332	816	-6552	30	-22	213	-2496	-532	16764	65	-131	193	124	126	5
-10980	-4592	10516	-89	206	-151	-13924	2444	-8264	-14	-42	-59	-1996	-648	16964	200	-16	50	-11932	1700	11464	122	-59	-145	-15272	828	-6508	34	-29	190	-2540	-488	16696	78	-143	195	124	126	5
-10960	-4496	10540	-138	175	-162	-13920	2532	-8212	-42	-43	-99	-1972	-676	17020	173	0	57	-11940	1776	11488	108	-29	-151	-15236	804	-6528	24	-37	103	-2568	-448	16696	42	-150	243	124	126	5
-11076	-4636	10688	-124	165	-178	-13996	2476	-8144	-53	-42	-142	-1880	-712	16980	208	-36	103	-11936	1748	11640	125	-50	-150	-15248	804	-6368	75	-32	131	-2476	-488	16528	15	-153	247	125	126	5
-11020	-4552	10616	-154	186	-208	-13932	2388	-8216	22	-34	-160	-1972	-820	17012	171	-14	43	-11924	1740	11636	128	-87	-186	-15272	808	-6528	73	-34	152	-2404	-528	16624	20	-137	229	125	126	5
-11052	-4532	10500	-131	206	-199	-13956	2408	-8044	31	-53	-115	-1892	-832	16996	111	-21	63	-11972	1728	11520	136	-21	-199	-15248	744	-6452	57	-45	125	-2476	-528	16592	23	-155	238	124	126	5
-11072	-4596	10520	-128	188	-208	-13856	2304	-8252	23	-74	-117	-1836	-972	16932	104	-51	37	-11904	1680	11580	118	-69	-173	-15240	768	-6604	68	-7	133	-2408	-544	16732	-24	-174	210	125	126	5
-11040	-4544	10576	-134	167	-189	-13936	2320	-8104	-24	-49	-121	-1876	-932	17024	140	8	2	-11932	1724	11596	125	-40	-159	-15272	756	-6548	66	-24	139	-2448	-560	16688	-38	-180	223	124	126	5
-11056	-4548	10652	-173	181	-162	-14012	2328	-8152	-20	-65	-60	-1884	-920	16980	110	-15	5	-11900	1712	11548	125	-63	-187	-15276	800	-6496	87	-6	139	-2472	-536	16560	-30	-163	202	124	126	5
-11036	-4580	10552	-173	131	-239	-13984	2308	-8188	-24	12	-63	-1840	-988	16980	207	-47	15	-11940	1728	11584	113	-23	-154	-15276	788	-6680	30	12	125	-2416	-628	16656	29	-119	258	124	126	5
-10960	-4612	10492	-147	147	-155	-13960	2296	-8252	-7	-16	-47	-1812	-968	16996	187	3	-13	-11948	1700	11540	95	-14	-213	-15256	708	-6448	3	5	134	-2344	-704	16640	34	-96	248	124	126	5
-11044	-4624	10532	-116	171	-152	-13952	2344	-8124	-26	-39	22	-1892	-936	16976	192	7	36	-11892	1756	11548	144	8	-158	-15236	716	-6568	91	23	147	-2428	-700	16656	42	-144	227	124	126	5
-11000	-4596	10540	-58	158	-136	-13964	2372	-8264	-38	-25	6	-1848	-952	17000	228	-15	46	-11908	1692	11564	122	-58	-140	-15248	744	-6496	29	-24	207	-2420	-700	16688	65	-123	242	124	126	5
-10972	-4588	10560	-32	186	-125	-13944	2360	-8172	-26	12	17	-1888	-896	16936	222	2	10	-11960	1716	11564	121	-5	-168	-15204	720	-6600	59	-42	217	-2504	-652	16672	68	-101	192	124	126	5
-11032	-4628	10468	-71	160	-142	-13928	2376	-8112	-20	1	2	-1956	-868	16980	204	9	35	-11928	1732	11556	127	-33	-159	-15244	832	-6600	37	-22	204	-2464	-548	16612	84	-142	167	124	126	5
-11004	-4496	10508	-15	159	-137	-13964	2472	-8220	47	-32	40	-1932	-808	17004	204	14	-21	-11916	1712	11544	116	-6	-166	-15252	756	-6668	35	-40	213	-2460	-516	16776	38	-117	181	124	126	5
-11044	-4636	10456	-15	173	-143	-13924	2480	-8128	-26	-46	5	-1940	-816	16956	224	-6	-7	-11940	1740	11556	120	-32	-121	-15204	820	-6544	41	-17	230	-2484	-488	16680	72	-116	209	124	126	5
-10940	-4488	10600	-30	176	-182	-13952	2412	-8200	2	-39	-28	-1880	-796	17040	237	19	24	-11964	1812	11564	118	-29	-150	-15228	760	-6576	89	-43	170	-2392	-524	16792	63	-135	221	124	126	5
-11044	-4580	10536	-73	158	-171	-13928	2464	-8296	-13	-44	-15	-1912	-764	16952	196	-11	8	-11956	1708	11604	114	-55	-141	-15304	804	-6460	95	36	164	-2352	-432	16648	58	-165	261	125	126	5
-11028	-4520	10696	-72	171	-159	-13960	2448	-8308	17	-49	-11	-1976	-708	16988	194	-18	25	-11928	1772	11596	89	-32	-173	-15268	740	-6420	88	-11	161	-2424	-548	16708	32	-143	214	124	126	5
-10996	-4592	10568	-105	191	-176	-13960	2512	-8112	6	-51	-67	-1888	-772	16944	188	-3	23	-11976	1756	11588	96	-45	-161	-15308	788	-6432	52	-23	170	-2460	-572	16728	-14	-150	219	125	126	5
-10984	-4616	10628	-84	176	-157	-14016	2400	-8228	-4	-41	-93	-1928	-776	17008	177	-31	60	-11900	1772	11512	90	-41	-173	-15328	876	-6420	50	17	132	-2460	-548	16688	5	-99	231	124	126	5
-11084	-4496	10520	-120	200	-175	-13940	2364	-8296	3	-32	-71	-1848	-740	16988	121	-16	59	-11920	1744	11616	99	-41	-183	-15244	800	-6480	27	-18	114	-2416	-580	16732	43	-123	230	124	126	5
-11020	-4564	10572	-132	171	-176	-13884	2376	-8308	30	-18	-68	-1920	-900	17020	172	-33	44	-11928	1704	11592	110	-104	-166	-15224	760	-6524	82	11	114	-2440	-556	16720	9	-134	227	125	126	5
-11020	-4592	10572	-128	151	-179	-14008	2388	-8280	-9	-44	-81	-1844	-936	17080	158	24	40	-11960	1752	11560	111	-92	-183	-15216	756	-6468	74	1	134	-2448	-560	16620	-22	-157	243	124	126	5
-11008	-4528	10432	-92	181	-158	-14028	2384	-8300	33	-29	-1	-1912	-848	17008	176	24	-9	-11936	1692	11520	124	-85	-206	-15264	748	-6484	75	10	119	-2440	-628	16704	-12	-173	225	125	126	5
-11012	-4612	10536	-97	198	-195	-13956	2424	-8220	9	-28	-14	-1956	-904	17076	204	-38	24	-11920	1704	11536	132	-14	-189	-15272	756	-6500	62	-2	156	-2488	-632	16672	-11	-148	205	125	126	5
-11032	-4552	10552	-126	153	-193	-13988	2400	-8256	-27	-44	-37	-1868	-808	16980	178	-26	30	-11952	1732	11548	126	-37	-171	-15204	740	-6520	53	-7	138	-2408	-668	16704	-7	-125	193	124	127	5
-11036	-4584	10536	-116	154	-162	-13928	2480	-8180	-46	-17	-18	-1904	-800	17032	188	-16	53	-11932	1748	11476	138	-78	-148	-15292	752	-6380	29	-2	173	-2448	-672	16672	53	-139	194	125	126	5
-11008	-4528	10436	-110	157	-150	-14004	2420	-8200	-3	-35	-46	-1868	-820	17076	176	-9	49	-11856	1708	11568	132	-49	-162	-15240	752	-6552	30	-51	165	-2440	-640	16572	78	-100	216	124	127	5
-11032	-4536	10644	-93	173	-150	-13956	2324	-8216	3	-4	-44	-1896	-892	16968	194	-31	33	-11908	1724	11500	149	-44	-145	-15252	712	-6556	54	9	138	-2528	-588	16720	93	-119	220	125	126	5
-11044	-4592	10472	-104	178	-159	-13956	2396	-8244	5	-36	-45	-1880	-888	16920	185	-35	39	-11952	1724	11676	123	-41	-184	-15240	816	-6496	105	-2	224	-2488	-560	16616	19	-148	210	125	126	5
-10992	-4500	10560	-119	190	-153	-13944	2368	-8224	-36	-105	-28	-1936	-832	17024	233	-29	24	-11924	1732	11552	106	-13	-160	-15332	836	-6516	100	11	124	-2420	-540	16672	-9	-118	201	125	126	5
-11028	-4592	10444	-102	156	-186	-13964	2360	-8248	-40	-69	-24	-1792	-812	16944	217	11	16	-11916	1768	11552	113	-38	-150	-15240	840	-6592	56	-21	170	-2468	-572	16640	18	-151	244	125	127	5
-11012	-4556	10528	-110	161	-160	-13948	2428	-8248	8	-62	9	-1888	-856	16960	184	-14	11	-11956	1772	11532	99	-62	-164	-15324	728	-6532	-6	-28	135	-2452	-592	16600	26	-97	223	125	126	5
-10976	-4584	10596	-84	163	-149	-13956	2444	-8296	16	-21	-34	-1892	-772	16940	192	-6	12	-11960	1708	11528	139	-43	-191	-15284	672	-6412	54	-5	154	-2492	-552	16692	63	-127	247	125	126	5
-11040	-4560	10532	-120	152	-142	-13952	2528	-8136	-10	-65	-52	-1928	-760	17160	198	-36	25	-11900	1768	11512	119	-36	-172	-15248	760	-6548	75	-30	186	-2448	-520	16692	39	-143	242	125	126	5
-10956	-4516	10604	-117	148	-129	-13988	2388	-8164	-34	-21	-70	-1876	-776	17036	199	-13	20	-11956	1756	11644	130	-13	-154	-15228	820	-6544	85	-32	170	-2464	-488	16616	35	-165	229	125	126	5
-11044	-4528	10456	-114	178	-169	-13952	2384	-8172	-17	-61	-69	-1904	-808	16992	164	-23	25	-11852	1784	11592	116	-55	-151	-15296	744	-6512	26	-51	157	-2436	-504	16648	9	-136	251	125	126	5
-11020	-4564	10544	-89	169	-179	-13976	2396	-8100	12	-33	-49	-1880	-848	16940	179	-32	42	-11908	1736	11560	125	-67	-168	-15320	824	-6656	26	-28	147	-2404	-544	16684	12	-125	233	125	126	5
-10988	-4544	10516	-99	154	-192	-13948	2316	-8308	-9	-81	-53	-1932	-852	16908	158	-8	-4	-11880	1780	11532	112	-74	-183	-15244	732	-6572	65	-28	172	-2460	-600	16692	9	-159	205	125	127	5
-11080	-4600	10576	-82	203	-172	-13956	2372	-8156	-31	-33	-59	-1868	-904	17052	175	-2	27	-11932	1776	11564	132	-53	-175	-15208	700	-6444	125	5	166	-2464	-620	16688	-15	-138	211	125	126	5
-11000	-4616	10488	-111	161	-146	-13968	2320	-8156	-76	-74	-54	-1904	-832	16972	209	4	36	-11956	1708	11564	133	-44	-141	-15296	768	-6524	92	-8	147	-2488	-672	16732	-2	-171	223	125	126	5
-11024	-4592	10564	-118	171	-172	-13916	2412	-8260	-51	-71	-38	-1812	-852	16968	186	-10	23	-11948	1716	11516	134	-39	-144	-15268	832	-6572	74	-22	188	-2448	-624	16624	38	-166	185	124	126	5
-10996	-4540	10624	-93	175	-195	-13980	2408	-8308	7	-40	-51	-1948	-840	17064	139	-10	22	-11944	1780	11616	147	-27	-161	-15328	776	-6636	66	-27	175	-2392	-620	16660	13	-162	206	125	126	5
-11004	-4572	10488	-138	194	-150	-13960	2400	-8252	-5	-49	-78	-1952	-844	16956	160	-13	24	-11932	1712	11564	114	-18	-202	-15208	692	-6472	43	-19	172	-2380	-576	16576	49	-135	214	125	127	5
-11048	-4600	10684	-114	176	-173	-14000	2380	-8188	-19	-10	-50	-1920	-856	16924	214	-14	58	-11956	1708	11540	66	-8	-139	-15336	804	-6612	18	-31	216	-2428	-556	16748	26	-149	201	125	126	5
-11036	-4532	10556	-98	127	-203	-13980	2400	-8224	-18	-44	-55	-1884	-936	16956	230	-30	15	-11916	1764	11636	123	-46	-157	-15236	768	-6496	68	-30	199	-2476	-576	16632	75	-133	221	125	126	5
-11060	-4608	10468	-107	148	-163	-13976	2364	-8188	-40	-58	-60	-1872	-928	17064	218	-24	40	-11916	1768	11496	159	-76	-132	-15216	768	-6516	67	1	196	-2396	-552	16648	37	-125	206	125	126	5
-11048	-4528	10456	-124	163	-169	-13940	2400	-8248	-7	-14	-25	-1924	-864	17032	190	11	14	-11944	1764	11604	127	-21	-120	-15328	808	-6584	76	-2	156	-2496	-484	16748	6	-131	208	125	126	5
-11004	-4520	10620	-80	171	-160	-13912	2440	-8192	23	-54	-28	-1844	-824	16960	228	-23	3	-11892	1724	11656	144	-75	-131	-15300	784	-6596	71	-6	176	-2444	-564	16744	27	-129	197	125	127	5
-11048	-4564	10568	-97	185	-189	-13992	2392	-8100	-5	-21	-23	-1860	-820	16960	172	-4	1	-11916	1724	11564	122	-83	-168	-15268	784	-6568	32	-17	140	-2484	-584	16600	8	-135	227	125	127	5
-11000	-4592	10576	-89	158	-135	-13964	2428	-8284	33	-17	13	-1904	-852	17076	190	3	2	-11940	1736	11560	115	-21	-174	-15232	784	-6572	12	-30	133	-2360	-640	16688	39	-115	214	125	127	5
-11076	-4624	10584	-152	127	-152	-13912	2396	-8184	-8	-19	7	-1936	-884	16888	194	6	-1	-11964	1724	11596	112	-78	-162	-15264	724	-6400	71	9	176	-2472	-584	16624	8	-155	233	125	127	5
-11084	-4552	10592	-173	161	-168	-13968	2492	-8252	-39	-44	-43	-1912	-812	16948	230	3	29	-11900	1688	11572	122	6	-172	-15248	828	-6584	98	8	167	-2448	-516	16756	5	-137	200	125	127	5
-11040	-4532	10600	-133	148	-157	-13908	2492	-8220	-4	-25	-35	-1896	-716	16944	187	-56	38	-11944	1784	11580	146	-71	-160	-15276	776	-6444	65	-7	167	-2424	-616	16704	-23	-165	187	125	127	5
-11020	-4588	10536	-184	151	-183	-13952	2436	-8168	5	-37	-59	-1900	-768	16940	176	-21	61	-12000	1748	11484	121	-54	-174	-15232	808	-6432	31	25	146	-2412	-616	16620	46	-163	215	125	127	5
-10984	-4548	10532	-177	143	-178	-14008	2376	-8260	-25	-13	-69	-1792	-924	16968	178	-50	74	-11920	1764	11716	139	-81	-151	-15256	892	-6660	41	-13	114	-2452	-544	16720	75	-121	216	125	127	5
-11096	-4548	10544	-133	185	-176	-13996	2396	-8196	3	-29	-35	-1856	-976	17052	184	-42	51	-11936	1712	11516	119	-68	-139	-15236	804	-6616	-3	-17	153	-2496	-524	16724	87	-90	242	125	127	5
-10996	-4604	10480	-81	157	-190	-13964	2364	-8264	-17	-40	-38	-1880	-952	17080	169	-26	13	-11880	1716	11560	95	-74	-184	-15252	756	-6444	77	-58	135	-2488	-564	16704	39	-120	289	125	127	5
-10972	-4528	10540	-87	177	-171	-13944	2360	-8232	8	-53	-11	-1808	-868	17040	211	-20	12	-12004	1736	11492	119	-36	-188	-15208	760	-6572	126	0	144	-2368	-548	16676	6	-172	224	125	127	5
-11052	-4556	10536	-50	146	-175	-13956	2504	-8240	-48	-68	11	-1896	-820	16964	193	-13	5	-11952	1732	11476	121	-29	-149	-15268	776	-6428	95	-12	172	-2408	-532	16608	-76	-179	198	125	126	5
-10972	-4636	10600	-68	158	-149	-13956	2380	-8048	-26	-47	11	-1860	-808	16984	220	7	-13	-11916	1716	11580	106	-34	-154	-15308	724	-6596	71	-39	149	-2332	-636	16560	-23	-166	217	125	127	5
-11024	-4560	10568	-66	147	-175	-13976	2432	-8116	11	-55	-14	-1848	-760	16964	159	-16	24	-11872	1784	11480	107	-75	-156	-15272	724	-6440	-14	1	146	-2464	-660	16732	28	-139	174	125	127	5
-11040	-4544	10548	-37	160	-169	-13976	2448	-8244	1	-18	-41	-1928	-820	16884	191	-32	32	-11876	1752	11540	141	-26	-160	-15284	688	-6500	44	2	156	-2404	-608	16600	54	-142	204	125	126	5
-11100	-4548	10652	-123	178	-143	-14064	2428	-8276	-36	-34	-58	-1896	-848	17004	212	-24	28	-11868	1700	11660	131	-35	-146	-15252	720	-6624	81	-44	193	-2428	-628	16748	79	-144	201	125	126	5
-10992	-4548	10572	-141	202	-150	-13928	2424	-8228	-25	-57	-24	-1920	-820	17028	174	-4	24	-11908	1724	11524	127	-85	-180	-15176	764	-6520	103	-12	202	-2472	-480	16628	43	-135	223	125	127	5
-11000	-4532	10432	-80	160	-152	-13968	2404	-8260	-2	-21	-21	-1844	-880	17032	197	-8	11	-11924	1780	11564	126	-77	-143	-15196	768	-6492	64	-10	144	-2492	-464	16768	18	-124	213	125	126	5
-11008	-4588	10564	-113	201	-145	-13992	2448	-8204	9	-63	-71	-1880	-924	16960	166	-3	17	-11944	1740	11616	101	-54	-175	-15348	788	-6660	9	-23	126	-2436	-536	16704	-3	-144	228	125	126	5
-11080	-4472	10624	-81	164	-145	-13924	2444	-8212	-20	-55	-18	-1892	-840	17016	220	-4	17	-11920	1752	11512	134	-18	-146	-15236	772	-6524	12	-13	149	-2428	-620	16700	-3	-145	271	125	127	5
-11056	-4560	10576	-99	168	-147	-13948	2420	-8244	-28	-60	-5	-1828	-836	16828	228	-19	30	-11952	1744	11572	89	-52	-188	-15180	752	-6528	66	-5	123	-2460	-672	16656	-25	-159	251	125	127	5
-11068	-4604	10588	-124	164	-154	-13876	2424	-8136	-53	-37	-9	-1840	-752	17064	175	-6	29	-11972	1712	11588	109	-90	-155	-15260	820	-6552	83	26	148	-2444	-620	16748	6	-140	221	125	126	5
-11056	-4536	10512	-127	175	-181	-14004	2376	-8160	-35	-51	-17	-1904	-820	17028	226	-10	9	-11940	1740	11548	111	-104	-172	-15232	768	-6540	78	-42	172	-2468	-596	16740	58	-127	229	125	127	5
-11012	-4568	10580	-124	162	-156	-13984	2364	-8160	13	-50	-42	-1904	-784	16936	181	-6	22	-11984	1788	11536	114	-34	-158	-15256	796	-6528	67	-40	166	-2444	-624	16688	41	-125	226	125	127	5
-11032	-4572	10612	-84	169	-193	-13944	2416	-8092	48	-40	-8	-1948	-852	16892	155	-19	42	-11948	1704	11584	150	-51	-148	-15260	856	-6592	-2	-2	170	-2448	-536	16720	40	-146	170	125	127	5
-11048	-4604	10656	-119	137	-188	-13912	2464	-8152	15	-40	-77	-1920	-852	17016	180	0	17	-11864	1748	11556	123	-17	-151	-15296	784	-6516	41	-22	188	-2524	-540	16732	5	-121	203	125	127	5
-11032	-4540	10496	-96	172	-195	-13944	2352	-8216	-27	-49	-51	-1928	-908	16976	196	-21	49	-11904	1744	11588	114	-52	-145	-15292	796	-6556	75	-19	166	-2412	-584	16576	11	-141	175	125	127	5
-10984	-4556	10508	-116	169	-176	-13932	2340	-8152	21	-29	-44	-1856	-824	17064	198	-22	29	-11924	1720	11684	122	-33	-178	-15300	844	-6524	86	-33	161	-2484	-548	16624	1	-178	208	125	127	5
-10996	-4548	10500	-54	170	-144	-13960	2392	-8096	7	-60	-57	-1948	-892	17064	158	31	30	-11980	1744	11540	127	-52	-182	-15328	852	-6508	46	29	121	-2456	-544	16724	18	-114	248	125	127	5
-11032	-4560	10584	-92	133	-170	-13984	2432	-8228	-30	-76	-9	-1920	-832	16948	194	-34	37	-11928	1736	11540	104	-51	-157	-15296	808	-6368	37	-28	139	-2404	-576	16752	7	-148	237	125	127	5
-11064	-4556	10584	-97	157	-162	-13932	2420	-8320	-18	-57	-10	-1904	-836	16964	213	-16	24	-11972	1716	11520	112	-54	-182	-15232	812	-6444	59	4	136	-2428	-580	16736	25	-122	261	125	127	5
-10996	-4600	10584	-82	154	-173	-14004	2364	-8220	-48	-19	-21	-1892	-820	17016	167	-33	36	-11972	1712	11600	109	-79	-173	-15240	744	-6596	86	10	129	-2500	-640	16716	38	-122	234	125	127	5
-11020	-4552	10564	-63	176	-165	-13972	2356	-8244	-18	-60	-30	-1876	-876	17168	182	-18	37	-11932	1744	11568	140	-55	-179	-15240	760	-6564	60	-31	162	-2424	-708	16628	71	-100	241	125	127	5
-11044	-4560	10504	-93	187	-165	-13940	2436	-8148	26	-63	-23	-1980	-872	16924	177	-23	11	-11860	1748	11644	122	-51	-159	-15244	716	-6476	80	-44	181	-2504	-552	16588	52	-144	216	125	127	5
-11044	-4480	10552	-125	158	-168	-14024	2436	-8204	-20	-50	-27	-1852	-872	16952	185	-26	14	-11912	1752	11648	135	-25	-147	-15204	788	-6448	60	-50	151	-2424	-572	16684	12	-108	208	125	126	5
-11024	-4568	10476	-88	158	-155	-13960	2368	-8152	7	-35	-38	-1936	-836	16996	177	-33	18	-11884	1732	11516	167	-12	-177	-15312	836	-6480	46	-35	188	-2448	-544	16712	64	-139	222	125	126	5
-10944	-4544	10564	-83	182	-160	-13960	2408	-8144	-6	-64	-60	-1884	-828	17000	212	-9	-12	-11936	1752	11552	115	-26	-133	-15300	772	-6536	67	-43	164	-2452	-584	16644	43	-165	208	125	126	5
-11048	-4580	10468	-63	181	-191	-13968	2348	-8184	17	-75	-27	-1912	-788	17032	192	-10	15	-11928	1740	11540	120	-58	-163	-15216	796	-6532	65	-33	154	-2420	-512	16660	1	-132	206	125	127	5
-11044	-4556	10628	-73	149	-189	-13976	2448	-8156	9	-27	-15	-1864	-808	17012	213	-15	33	-11912	1716	11580	113	-65	-144	-15312	816	-6508	76	2	178	-2380	-560	16636	24	-184	212	125	127	5
-10996	-4588	10528	-80	141	-160	-13952	2368	-8180	-22	-40	-39	-1852	-832	16924	191	-9	40	-11960	1740	11576	124	-22	-137	-15196	824	-6624	51	-57	163	-2432	-564	16552	57	-98	223	125	126	5
-11044	-4620	10496	-98	153	-155	-13992	2468	-8168	-11	-42	-38	-1864	-812	16912	198	-2	45	-11920	1748	11640	122	-53	-180	-15240	768	-6616	43	-14	155	-2392	-576	16668	8	-113	259	125	127	5
-11032	-4528	10624	-86	125	-199	-13996	2460	-8256	15	-11	-51	-1956	-848	17076	185	-23	44	-11924	1732	11460	82	-66	-145	-15252	776	-6532	30	3	174	-2420	-560	16644	27	-128	219	125	127	5
-11024	-4608	10508	-129	137	-180	-13928	2400	-8276	-4	-48	-40	-1892	-836	16980	211	9	32	-11936	1748	11520	139	1	-161	-15240	756	-6500	57	10	178	-2428	-596	16672	14	-131	199	125	126	5
-10984	-4540	10436	-95	161	-160	-13968	2452	-8156	-4	-26	-48	-1888	-804	17044	183	-38	9	-11936	1708	11492	113	-53	-150	-15208	816	-6468	73	25	205	-2480	-560	16560	23	-178	175	125	126	5
-11008	-4592	10496	-114	187	-162	-13900	2412	-8280	-13	-65	-10	-1900	-868	17056	161	-26	-13	-11972	1744	11508	125	-70	-145	-15308	828	-6580	84	-28	159	-2476	-572	16656	19	-133	205	125	126	5
-10952	-4564	10596	-117	137	-181	-13960	2356	-8196	-10	-36	-27	-1888	-840	17088	164	-3	24	-11960	1776	11548	130	-41	-156	-15308	816	-6520	65	-24	151	-2432	-532	16676	47	-142	243	125	127	5
-11048	-4532	10552	-64	203	-154	-14028	2384	-8196	-11	-45	-16	-1820	-836	16968	192	11	32	-11936	1760	11568	122	-60	-121	-15332	768	-6480	33	-43	130	-2380	-528	16592	52	-111	211	125	126	5
-11056	-4520	10628	-97	199	-181	-13912	2436	-8272	-7	-51	-33	-1908	-880	17004	194	-19	30	-11936	1708	11552	149	-61	-156	-15208	772	-6516	79	-26	179	-2376	-556	16680	20	-104	218	125	126	5
-10976	-4548	10564	-67	181	-161	-13948	2496	-8136	-26	-31	-45	-1908	-860	16952	216	-8	46	-11948	1756	11524	142	-62	-168	-15276	796	-6432	96	-30	134	-2416	-572	16788	19	-131	188	125	127	5
-10992	-4540	10488	-102	157	-149	-14016	2460	-8276	9	1	-9	-1924	-800	17016	208	22	38	-11956	1784	11580	114	-53	-147	-15260	728	-6536	64	-25	143	-2436	-580	16680	15	-150	219	125	127	5
-11036	-4540	10540	-146	175	-177	-13936	2388	-8240	-26	-42	-39	-1916	-796	17024	212	43	34	-11884	1736	11624	136	-26	-183	-15280	724	-6500	-8	15	167	-2464	-608	16696	48	-122	230	125	127	5
-11000	-4584	10508	-181	164	-209	-13972	2360	-8320	24	-34	-12	-1880	-840	17020	173	-16	32	-12008	1696	11452	127	-55	-145	-15196	720	-6584	20	22	146	-2452	-616	16744	31	-109	221	125	127	5
-11060	-4564	10628	-156	138	-156	-13960	2352	-8160	43	-34	-36	-1968	-824	16920	209	-10	22	-11968	1696	11556	138	-58	-144	-15272	788	-6516	62	-2	155	-2480	-640	16600	32	-141	225	125	127	5
-11032	-4628	10616	-113	149	-177	-13980	2396	-8324	35	-48	-30	-1908	-836	17100	227	26	30	-11940	1764	11612	97	-63	-165	-15228	736	-6508	20	4	126	-2456	-596	16608	-3	-137	196	125	126	5
-10988	-4536	10496	-98	173	-182	-13916	2388	-8216	-41	-59	-53	-1912	-884	16924	205	1	19	-11940	1712	11592	122	-57	-163	-15208	812	-6600	84	-8	181	-2448	-536	16600	30	-143	231	125	126	5
-11064	-4576	10616	-114	167	-164	-13992	2436	-8312	-43	-28	-37	-1860	-816	16928	168	11	30	-11916	1760	11588	94	-33	-169	-15252	800	-6620	60	-54	126	-2400	-556	16632	32	-129	235	125	126	5
-11064	-4580	10644	-60	163	-186	-13932	2388	-8224	29	-59	-58	-1884	-812	16976	174	7	54	-11908	1736	11540	128	-52	-164	-15236	720	-6588	18	-37	164	-2432	-504	16676	54	-94	216	125	127	5
-11016	-4536	10552	-72	168	-175	-13956	2416	-8200	20	-63	-16	-1896	-840	16972	173	-43	15	-11920	1748	11540	75	-13	-178	-15244	828	-6552	71	-28	154	-2360	-556	16652	44	-109	229	125	127	5
-11088	-4608	10516	-69	171	-177	-13948	2424	-8108	17	-50	-38	-1920	-860	16996	195	-10	13	-11912	1704	11596	113	-25	-157	-15288	764	-6528	65	-12	156	-2408	-536	16652	-11	-135	210	125	126	5
-10980	-4600	10480	-69	189	-166	-13964	2412	-8256	-25	-63	-62	-1916	-856	16976	198	-35	16	-11916	1736	11500	98	-21	-177	-15300	768	-6444	85	-11	173	-2440	-608	16564	16	-169	205	125	126	5
-11032	-4576	10548	-73	153	-175	-13948	2404	-8168	-10	-30	-41	-1876	-780	17000	157	-1	14	-11952	1776	11556	125	-30	-153	-15292	748	-6420	45	-16	181	-2380	-544	16592	-16	-146	184	125	126	5
-11032	-4524	10532	-63	169	-186	-14004	2388	-8272	2	-37	-31	-1896	-792	17024	174	3	19	-11960	1748	11612	119	-22	-133	-15244	844	-6500	58	-3	184	-2472	-660	16760	12	-144	218	125	126	5
-10972	-4588	10540	-40	175	-137	-13992	2364	-8244	-29	-43	-56	-1876	-812	16996	191	-23	28	-11900	1732	11592	110	-69	-114	-15320	796	-6512	8	-21	164	-2436	-572	16688	68	-136	202	125	126	5
-10992	-4580	10580	-101	171	-181	-13984	2480	-8272	-38	-43	-15	-1936	-832	16852	196	0	23	-11912	1744	11516	117	-38	-144	-15332	784	-6440	27	-43	136	-2436	-584	16696	27	-123	241	125	127	5
-11052	-4528	10556	-110	140	-170	-14048	2384	-8228	-7	-46	-27	-1980	-868	17044	206	1	30	-11968	1692	11664	93	-7	-155	-15240	792	-6508	71	-3	130	-2432	-508	16680	37	-122	235	125	126	5
-11024	-4532	10540	-115	179	-170	-13948	2380	-8208	17	-75	-20	-1908	-856	17000	152	-13	14	-11944	1764	11572	152	-59	-155	-15268	828	-6456	50	-11	169	-2452	-540	16640	19	-125	235	125	127	5
-11024	-4584	10616	-84	119	-171	-13968	2432	-8164	12	-30	-9	-1832	-860	17076	187	1	34	-11956	1696	11460	160	-37	-187	-15316	732	-6420	70	-19	162	-2456	-572	16620	12	-156	228	125	126	5
-11020	-4600	10584	-84	172	-191	-13948	2396	-8216	7	-27	-20	-1908	-828	16968	203	8	13	-11968	1688	11684	124	7	-186	-15260	824	-6472	64	17	145	-2468	-560	16620	-28	-121	233	125	127	5
-10992	-4512	10548	-119	148	-165	-13936	2372	-8164	-47	-48	-31	-1996	-864	16932	212	0	49	-11968	1644	11556	130	-55	-178	-15288	816	-6552	41	-32	157	-2472	-572	16644	-31	-144	219	125	126	5
-11104	-4492	10548	-123	136	-135	-13892	2420	-8236	6	-33	-25	-1908	-812	17012	180	12	28	-11916	1724	11604	125	-44	-142	-15272	760	-6524	49	6	176	-2492	-616	16668	10	-167	210	125	127	5
-10964	-4556	10500	-113	135	-192	-13940	2416	-8292	2	-46	-68	-1924	-792	16932	184	-9	18	-11924	1768	11448	125	-50	-157	-15256	740	-6572	27	-29	167	-2432	-644	16696	55	-162	223	125	126	5
-11092	-4572	10572	-121	147	-166	-13944	2384	-8100	35	-42	-48	-1952	-812	17016	197	-35	25	-11880	1740	11556	150	-42	-128	-15236	752	-6636	86	-18	164	-2392	-652	16572	70	-122	202	125	126	5
-11036	-4596	10572	-118	161	-159	-13976	2352	-8220	-8	-6	-67	-1908	-844	16900	154	-10	34	-11916	1692	11620	124	-22	-175	-15256	864	-6568	66	-12	197	-2416	-572	16544	54	-141	160	125	126	5
-11036	-4564	10500	-101	203	-182	-13972	2384	-8192	-35	-45	-63	-1920	-816	17036	182	-21	34	-12008	1740	11636	92	-3	-141	-15280	816	-6516	35	-14	166	-2428	-544	16708	28	-161	217	125	127	5
-11012	-4540	10624	-111	175	-158	-13968	2388	-8172	-14	-87	-60	-1820	-880	16940	185	-7	31	-11928	1752	11556	85	-14	-150	-15280	820	-6420	63	0	152	-2448	-564	16736	8	-132	222	125	126	5
-11036	-4556	10552	-128	179	-138	-13960	2380	-8356	-40	-32	-45	-1860	-892	16984	225	-61	20	-11968	1736	11584	93	-19	-163	-15284	752	-6548	41	-13	147	-2472	-576	16672	28	-134	229	125	127	5
-11100	-4536	10572	-76	147	-165	-13956	2340	-8300	-20	-65	-33	-1872	-872	17044	204	7	24	-11944	1756	11564	115	-41	-135	-15260	796	-6532	69	-44	194	-2448	-528	16604	17	-138	255	125	126	5
-11048	-4572	10488	-97	151	-187	-13976	2420	-8160	7	-30	-31	-1896	-800	17024	208	17	25	-11928	1692	11600	106	-12	-161	-15240	716	-6480	83	4	160	-2384	-636	16664	29	-131	218	125	126	5
-11048	-4568	10564	-96	161	-158	-13932	2416	-8216	-34	-58	-27	-1908	-832	17008	176	8	25	-11872	1732	11624	65	-34	-164	-15204	768	-6572	79	-5	167	-2476	-616	16708	-16	-171	188	125	126	5
-11032	-4548	10568	-125	150	-146	-13900	2420	-8160	-11	-46	-39	-1924	-832	16976	191	8	7	-11992	1784	11576	91	-22	-156	-15248	788	-6512	48	-23	166	-2420	-664	16768	8	-136	221	125	126	5
-11060	-4568	10584	-91	169	-175	-13964	2444	-8120	-35	-32	-6	-1892	-776	16928	191	-61	20	-11960	1776	11516	142	-71	-141	-15348	808	-6524	63	-27	172	-2440	-608	16764	6	-149	221	125	126	5
-11016	-4528	10488	-96	171	-159	-13908	2444	-8252	16	-22	-2	-1892	-792	16984	210	-14	19	-11916	1720	11572	121	-67	-141	-15260	844	-6560	48	-58	167	-2468	-588	16608	24	-135	208	125	126	5
-11020	-4548	10620	-107	183	-165	-13960	2412	-8140	-26	-66	-44	-1896	-880	16972	165	-21	23	-11980	1768	11632	153	-26	-202	-15228	752	-6496	67	10	183	-2432	-536	16708	56	-119	205	125	126	5
-11024	-4536	10568	-78	165	-189	-13952	2452	-8112	-10	-19	-57	-1900	-844	17040	175	19	42	-11992	1716	11556	117	6	-138	-15296	812	-6500	105	-36	188	-2436	-540	16636	37	-138	198	125	126	5
-11004	-4468	10556	-150	176	-175	-13984	2404	-8308	15	-12	-60	-1944	-904	17028	159	9	37	-11988	1748	11524	151	-44	-141	-15248	840	-6472	86	-25	165	-2416	-580	16664	37	-141	239	125	126	5
-10968	-4552	10520	-74	160	-190	-13904	2400	-8192	32	-19	-22	-1920	-892	17064	198	-34	51	-11956	1768	11532	122	-33	-169	-15284	820	-6548	42	-4	164	-2416	-580	16648	3	-110	247	125	126	5
-11020	-4568	10608	-99	175	-143	-13924	2344	-8240	29	-46	-49	-1924	-884	16960	189	-27	16	-11984	1692	11612	104	-79	-152	-15312	760	-6488	46	-22	128	-2412	-588	16640	-22	-150	238	125	126	5
-11012	-4568	10516	-132	161	-167	-13920	2392	-8232	0	-44	-24	-1868	-816	17084	164	-37	11	-11920	1684	11624	133	-64	-134	-15240	772	-6468	64	-29	165	-2408	-656	16764	0	-149	192	125	126	5
-10988	-4548	10596	-117	157	-127	-13960	2380	-8284	-25	-29	-55	-1832	-784	16908	218	-26	62	-11884	1676	11708	101	-68	-148	-15228	740	-6536	56	16	152	-2404	-596	16704	2	-162	225	125	126	5
-11024	-4548	10520	-102	160	-172	-13976	2404	-8164	-38	-19	-59	-1924	-824	17032	184	3	37	-11928	1788	11536	131	-66	-172	-15276	776	-6644	46	-21	155	-2460	-632	16748	32	-139	212	125	126	5
-11040	-4588	10600	-124	170	-188	-13928	2412	-8244	8	-20	-68	-1960	-860	17004	168	-36	21	-11936	1728	11548	122	-17	-167	-15252	760	-6544	27	12	169	-2504	-568	16660	24	-133	218	125	126	5
-11108	-4480	10528	-107	165	-174	-13916	2356	-8120	17	-45	-64	-1896	-868	17032	207	-2	39	-11968	1708	11568	112	-22	-176	-15328	804	-6528	44	-36	195	-2476	-588	16732	42	-121	193	125	126	5
-11028	-4536	10660	-103	162	-166	-13940	2392	-8180	-4	-51	-12	-1868	-940	17008	190	-10	-2	-11964	1740	11572	115	-20	-150	-15224	816	-6540	76	-54	171	-2448	-508	16684	40	-97	204	125	126	5
-11052	-4556	10492	-96	169	-157	-13924	2392	-8172	11	-52	-27	-1924	-916	17052	170	-21	27	-11888	1760	11556	140	-26	-179	-15228	792	-6500	44	-46	160	-2460	-556	16636	56	-148	247	125	126	5
-11036	-4528	10664	-108	156	-159	-13944	2376	-8216	-28	-51	-5	-1936	-864	17008	222	-27	26	-11908	1680	11616	107	-50	-163	-15228	756	-6528	45	-19	117	-2440	-544	16632	2	-152	283	125	126	5
-11024	-4540	10652	-101	135	-119	-13940	2428	-8228	-11	-40	-40	-1868	-800	16940	231	4	15	-11932	1684	11564	111	-81	-161	-15300	804	-6428	38	-5	169	-2384	-604	16716	-25	-148	259	125	126	5
-11032	-4556	10524	-167	126	-156	-13936	2420	-8256	-8	-38	-22	-1928	-784	16968	235	27	24	-11948	1756	11472	140	-83	-178	-15296	756	-6556	64	21	166	-2380	-668	16680	19	-141	237	125	126	5
-11040	-4536	10588	-159	160	-193	-13912	2396	-8184	-37	-37	-12	-1892	-784	16968	203	8	41	-12004	1752	11600	128	-97	-153	-15284	732	-6576	53	-1	142	-2416	-648	16668	33	-146	210	125	126	5
-11016	-4560	10660	-118	160	-180	-13964	2404	-8248	-6	-50	-43	-1948	-764	16952	181	-29	38	-11932	1720	11620	146	-52	-141	-15272	788	-6484	57	19	201	-2488	-608	16724	60	-131	211	125	126	5
-10996	-4576	10588	-123	146	-160	-13912	2352	-8108	-2	-50	-58	-1960	-832	16964	164	11	59	-11976	1736	11524	133	3	-162	-15264	808	-6456	27	0	169	-2432	-544	16680	39	-155	191	125	126	5
-11052	-4572	10588	-110	154	-205	-13928	2352	-8164	-3	-49	-25	-1920	-892	16960	162	-3	66	-11940	1752	11512	125	-65	-154	-15252	808	-6564	47	-30	149	-2440	-520	16620	36	-134	234	125	127	5
-10992	-4580	10484	-63	177	-191	-13996	2368	-8160	-2	-55	-48	-1840	-892	17012	185	-6	34	-11964	1728	11568	104	-8	-140	-15296	896	-6520	63	-37	181	-2388	-476	16708	32	-142	242	125	126	5
-11020	-4588	10536	-36	159	-209	-13968	2328	-8188	5	-80	-40	-1936	-956	17028	212	-14	22	-11872	1748	11664	99	-62	-159	-15296	820	-6496	34	-44	131	-2440	-496	16672	-31	-130	270	125	126	5
-10952	-4552	10596	-91	181	-163	-13920	2380	-8184	-2	-50	-22	-1876	-860	17068	184	-10	37	-11988	1760	11548	91	-70	-159	-15244	740	-6512	60	-61	130	-2404	-584	16712	2	-162	249	125	126	5
-11028	-4528	10516	-48	156	-158	-13916	2440	-8248	8	-32	-31	-1904	-856	16940	211	-6	-1	-11960	1768	11552	124	-94	-137	-15212	748	-6532	76	-32	145	-2416	-620	16604	6	-157	244	125	126	5
-10976	-4540	10624	-84	169	-144	-13960	2364	-8180	-21	-31	-74	-1920	-784	17100	233	29	12	-11932	1700	11572	141	-53	-154	-15228	740	-6520	108	20	161	-2384	-660	16704	17	-126	214	125	126	5
-11004	-4532	10512	-72	147	-178	-14004	2400	-8176	-24	-35	-19	-1924	-792	17012	183	-22	-4	-11904	1724	11624	128	-51	-180	-15288	776	-6604	69	-21	165	-2348	-548	16696	27	-122	239	125	126	5
-10992	-4568	10508	-89	185	-166	-13984	2412	-8144	4	-28	-47	-1860	-836	16932	162	7	32	-11928	1656	11576	119	-26	-175	-15276	732	-6532	35	-43	155	-2408	-616	16696	38	-129	239	125	126	5
-11064	-4528	10496	-56	187	-175	-13940	2428	-8196	-12	-11	-57	-1892	-884	16980	186	-35	7	-11888	1644	11612	97	-53	-160	-15240	768	-6512	19	8	202	-2424	-572	16656	49	-122	211	125	126	5
-11080	-4556	10652	-107	169	-188	-13944	2420	-8156	-19	-34	-51	-1908	-892	17020	195	-38	24	-11976	1756	11528	139	-28	-148	-15228	736	-6564	84	-78	216	-2468	-612	16744	70	-130	189	125	126	5
-11024	-4560	10580	-83	183	-149	-13976	2380	-8172	-19	-10	-36	-1852	-888	16892	206	-17	57	-11984	1756	11548	124	-94	-178	-15284	812	-6428	90	-15	194	-2436	-532	16676	56	-133	191	125	126	5
-11072	-4608	10576	-76	163	-144	-13972	2432	-8284	-20	-51	8	-1896	-844	16980	201	-28	14	-11956	1716	11636	144	-77	-126	-15212	784	-6492	48	-24	153	-2440	-516	16736	-1	-138	205	125	126	5
-11076	-4580	10560	-109	150	-141	-13956	2376	-8216	6	-47	-33	-1892	-888	16984	175	-7	14	-11912	1764	11596	69	-25	-179	-15304	756	-6548	36	-16	169	-2464	-556	16724	-5	-103	243	125	126	5
-11012	-4572	10580	-116	175	-136	-13976	2476	-8308	-20	-59	-40	-1880	-868	16980	202	-6	0	-11876	1748	11612	118	-24	-198	-15276	736	-6440	37	17	173	-2412	-536	16704	13	-141	250	125	126	5
-11020	-4580	10548	-139	126	-164	-13952	2472	-8228	-4	-42	-35	-1896	-764	16944	213	7	17	-11956	1716	11588	153	-9	-140	-15244	744	-6560	51	10	145	-2436	-576	16660	22	-146	223	125	126	5
-11016	-4572	10508	-147	187	-159	-13992	2424	-8224	-33	-35	-58	-1904	-896	16940	202	4	34	-11896	1712	11600	117	-60	-178	-15248	808	-6520	68	9	168	-2444	-604	16648	13	-127	221	125	127	5
-11004	-4564	10640	-112	159	-186	-13924	2424	-8216	6	-34	-26	-1928	-780	17060	180	-13	57	-11924	1748	11548	131	-51	-190	-15280	808	-6568	71	-14	161	-2464	-600	16744	54	-151	239	125	126	5
-10976	-4532	10496	-117	136	-165	-13932	2400	-8280	28	11	-41	-1904	-780	16964	194	6	20	-11936	1736	11632	84	12	-167	-15300	728	-6500	86	-42	199	-2472	-600	16740	35	-132	209	125	126	5
-10984	-4500	10512	-126	173	-148	-13944	2404	-8336	-6	-72	-39	-1924	-804	16848	199	-14	39	-11968	1684	11748	131	-84	-186	-15308	784	-6456	57	-43	131	-2440	-620	16568	28	-164	203	125	126	5
-11004	-4580	10556	-73	156	-154	-13948	2436	-8120	3	-60	-49	-1892	-852	16972	170	-47	49	-11920	1768	11632	105	-46	-156	-15308	856	-6576	64	35	154	-2404	-604	16672	13	-138	190	125	126	5
-10976	-4516	10644	-102	156	-188	-13976	2360	-8204	3	-45	-70	-1884	-864	16984	170	7	48	-12020	1708	11612	121	-56	-167	-15268	824	-6568	55	-31	182	-2496	-560	16728	45	-130	213	125	126	5
-11000	-4520	10520	-86	154	-198	-13964	2392	-8192	24	-49	-66	-1916	-796	16944	159	8	36	-11972	1724	11580	109	-89	-175	-15268	772	-6456	37	-16	156	-2424	-588	16668	27	-117	239	125	126	5
-11028	-4620	10528	-99	179	-140	-13940	2400	-8264	14	-14	-30	-1944	-888	17000	196	-5	21	-11872	1760	11548	140	-69	-153	-15264	788	-6544	38	4	179	-2396	-544	16588	20	-141	223	125	126	5
-11008	-4504	10620	-101	192	-161	-13996	2412	-8224	5	-31	-39	-1916	-888	17024	190	-22	26	-11928	1720	11552	113	-41	-152	-15228	776	-6532	74	23	158	-2396	-544	16624	38	-136	211	125	126	5
-10956	-4600	10596	-103	174	-167	-13992	2432	-8232	-42	-2	-29	-1896	-888	16964	186	-35	34	-11968	1744	11556	126	-53	-141	-15268	872	-6600	72	-16	111	-2460	-516	16688	-31	-122	214	125	126	5
-11004	-4536	10636	-94	160	-160	-13948	2352	-8312	4	-53	-18	-1904	-880	16980	211	-5	-1	-11904	1792	11576	102	-37	-159	-15244	792	-6524	20	9	136	-2452	-536	16620	-8	-137	232	125	126	5
-11048	-4548	10604	-95	162	-145	-13920	2436	-8300	6	-25	-8	-2004	-844	16992	180	-7	23	-11900	1712	11616	100	-38	-176	-15312	756	-6508	57	-14	133	-2448	-592	16628	11	-129	196	125	126	5
-11048	-4556	10588	-95	142	-153	-13948	2460	-8268	1	-21	-14	-1924	-780	17092	201	2	21	-11944	1716	11560	111	-72	-165	-15248	732	-6524	63	10	150	-2416	-560	16656	40	-100	193	125	126	5
-10988	-4556	10444	-112	173	-180	-13948	2408	-8252	-21	-82	-47	-1940	-788	17032	216	16	8	-11952	1784	11588	134	-51	-137	-15300	824	-6500	27	-6	128	-2428	-632	16652	13	-110	230	125	127	5
-11108	-4556	10480	-91	175	-156	-13960	2368	-8212	-32	-58	-46	-1924	-752	16968	173	-4	27	-11924	1724	11616	119	8	-177	-15272	716	-6544	13	-28	191	-2464	-532	16576	27	-103	221	124	126	5
-10980	-4548	10624	-114	175	-187	-13980	2404	-8248	-18	-45	-89	-1920	-880	16976	170	-47	13	-11912	1760	11556	112	-54	-172	-15224	772	-6512	52	-11	166	-2392	-596	16684	18	-172	212	125	126	5
-11004	-4600	10528	-58	183	-183	-13956	2428	-8216	17	-11	-27	-1952	-872	17056	151	-28	28	-11976	1720	11612	140	-21	-163	-15252	752	-6496	91	-46	171	-2432	-572	16680	2	-132	240	125	126	5
-11016	-4540	10464	-91	171	-170	-13908	2408	-8100	-49	-64	-26	-1948	-876	17016	195	-28	6	-11944	1692	11488	121	-98	-146	-15288	828	-6516	73	-28	168	-2444	-608	16720	19	-131	219	125	126	5
-10972	-4568	10524	-68	157	-139	-13960	2396	-8216	-34	-49	-31	-1852	-860	17020	191	-21	27	-12016	1700	11584	139	-47	-179	-15296	776	-6480	35	-12	163	-2456	-628	16604	4	-143	231	125	126	5
-11020	-4552	10596	-118	165	-184	-13924	2356	-8136	22	-57	-3	-1872	-864	17108	186	-23	12	-12008	1732	11492	137	-78	-181	-15212	700	-6520	54	16	185	-2428	-592	16708	16	-109	259	125	126	5
-11044	-4516	10472	-104	148	-131	-13996	2396	-8068	-24	-30	-66	-1964	-892	16932	182	-28	39	-12012	1740	11564	115	-11	-184	-15232	768	-6508	48	-21	153	-2468	-628	16688	-31	-148	240	125	126	5
-11060	-4528	10544	-127	173	-160	-14000	2432	-8116	0	-56	-32	-1924	-872	17000	221	-22	40	-11884	1700	11588	111	-41	-139	-15272	764	-6652	67	-1	163	-2444	-540	16672	5	-164	226	125	126	5
-11036	-4524	10568	-97	158	-184	-13928	2396	-8260	-31	-35	-47	-1864	-796	17000	212	-18	37	-11968	1688	11464	100	-35	-129	-15220	712	-6540	54	-42	163	-2392	-616	16696	38	-121	214	125	126	5
-11036	-4572	10500	-154	155	-201	-14004	2392	-8220	-4	2	-62	-1876	-852	16932	182	-27	75	-11952	1668	11500	136	-53	-179	-15256	764	-6536	50	-9	191	-2448	-528	16696	43	-137	225	125	126	5
-11000	-4568	10532	-80	150	-146	-13996	2452	-8232	15	-42	-45	-1872	-912	17052	133	-9	31	-11932	1744	11652	145	-32	-166	-15260	836	-6476	9	2	147	-2468	-508	16684	43	-135	244	125	126	5
-10984	-4552	10528	-91	160	-161	-13956	2396	-8156	8	-50	-49	-1916	-848	16996	185	4	22	-11876	1768	11524	101	-38	-172	-15292	824	-6448	38	-6	100	-2404	-516	16692	40	-122	249	125	126	5
-11024	-4572	10588	-162	151	-186	-13988	2416	-8180	-3	-19	-26	-1864	-872	16908	245	-13	10	-11904	1668	11516	123	-88	-201	-15304	776	-6468	48	29	135	-2408	-560	16684	-10	-144	246	125	126	5
-11040	-4568	10612	-125	148	-169	-13952	2396	-8244	-5	-26	-57	-1888	-816	17036	229	-41	38	-11860	1732	11596	113	-65	-151	-15268	764	-6536	57	-16	143	-2440	-564	16712	-8	-113	249	125	126	5
-11036	-4592	10568	-181	145	-153	-13968	2452	-8060	-21	-55	-35	-1920	-836	16960	173	-16	33	-11892	1744	11620	121	-52	-147	-15240	796	-6580	100	-5	190	-2368	-600	16612	13	-105	238	125	126	5
-11012	-4556	10532	-152	139	-172	-13880	2396	-8180	0	-71	-55	-1912	-832	16960	157	-10	66	-11944	1748	11500	143	-50	-190	-15280	796	-6544	48	4	143	-2440	-612	16736	-8	-147	230	125	126	5
-11008	-4604	10616	-110	154	-157	-13960	2408	-8220	-12	-42	-94	-1936	-804	17128	166	-25	37	-11888	1716	11576	130	-45	-150	-15280	812	-6444	34	-46	152	-2472	-584	16764	20	-144	241	125	127	5
-11032	-4592	10572	-87	168	-175	-14044	2380	-8136	-32	-63	-45	-1920	-812	16896	193	-42	29	-11932	1728	11648	104	-38	-107	-15284	800	-6572	64	-27	135	-2480	-648	16616	65	-131	218	125	126	5
-11036	-4572	10496	-75	150	-173	-13952	2356	-8228	-27	-46	-53	-1932	-856	17008	198	-1	28	-11956	1792	11596	122	-57	-147	-15228	760	-6492	89	4	139	-2456	-572	16652	8	-116	241	125	126	5
-11068	-4624	10572	-107	163	-188	-13924	2348	-8156	-5	-23	-50	-1836	-904	17032	200	-42	48	-11896	1744	11536	116	-56	-170	-15304	812	-6612	73	-19	143	-2420	-552	16640	35	-161	215	125	126	5
-11028	-4576	10504	-72	163	-150	-13984	2424	-8132	2	-52	-59	-1928	-892	16996	169	-14	38	-11920	1740	11636	86	-15	-170	-15268	772	-6504	111	-26	174	-2456	-552	16736	-22	-118	255	125	126	5
-11044	-4592	10528	-74	147	-157	-13940	2404	-8204	19	-43	-43	-1912	-772	16964	175	-5	5	-11960	1720	11588	124	-49	-169	-15236	784	-6616	21	7	135	-2460	-644	16628	5	-131	248	125	126	5
-10996	-4592	10580	-77	179	-160	-13888	2412	-8192	-16	-54	-22	-1884	-788	16928	199	-55	18	-11972	1752	11456	114	-46	-160	-15228	752	-6472	7	-18	156	-2388	-584	16728	-38	-151	241	125	126	5
-10960	-4628	10552	-56	162	-167	-13948	2376	-8176	-25	-51	-53	-1852	-796	17040	199	-39	27	-11956	1740	11524	84	-9	-188	-15284	736	-6544	81	9	133	-2480	-588	16560	27	-142	204	125	127	5
-11096	-4556	10496	-71	208	-163	-13936	2400	-8220	-38	-20	-56	-1904	-776	16960	177	-25	52	-11936	1704	11604	110	-44	-141	-15324	800	-6480	50	-42	171	-2444	-648	16620	50	-129	207	125	126	5
-11036	-4520	10600	-89	153	-176	-14000	2412	-8220	-4	-36	-66	-1876	-848	17024	173	-31	35	-11944	1692	11544	142	-72	-187	-15260	704	-6600	44	-31	148	-2364	-596	16744	50	-131	224	125	126	5
-11104	-4624	10680	-119	140	-182	-13940	2384	-8276	25	-46	-77	-1856	-860	16912	178	-4	45	-11980	1760	11560	142	-18	-169	-15300	736	-6464	88	-47	186	-2492	-596	16652	52	-127	182	125	126	5
-11080	-4560	10616	-125	175	-186	-13940	2384	-8288	-3	-43	-43	-1860	-864	16888	172	10	23	-11884	1744	11492	128	-53	-148	-15272	780	-6468	72	8	192	-2512	-604	16688	8	-112	221	125	126	5
-11032	-4528	10492	-139	142	-148	-14000	2400	-8220	-46	-18	-73	-1944	-796	16948	190	2	43	-11912	1796	11592	160	11	-179	-15236	848	-6576	46	-8	154	-2516	-564	16708	7	-146	229	125	126	5
-11064	-4572	10572	-125	183	-153	-14000	2404	-8188	-31	-55	-56	-1880	-892	17052	194	-11	27	-11896	1780	11564	100	-54	-152	-15268	792	-6556	38	-2	156	-2432	-528	16716	40	-146	259	125	126	5
-11004	-4512	10540	-120	159	-136	-13892	2324	-8088	10	-40	-44	-1888	-876	16948	197	1	40	-11964	1752	11620	109	-32	-179	-15324	800	-6512	37	-19	117	-2392	-576	16672	-14	-100	210	125	126	5
-11048	-4556	10548	-144	150	-184	-13924	2444	-8264	0	-50	-22	-2012	-848	16884	218	-9	1	-11932	1792	11568	126	-61	-159	-15228	792	-6572	64	0	137	-2380	-668	16668	0	-150	259	125	126	5
-11036	-4508	10516	-111	158	-151	-13960	2388	-8196	-16	-50	-2	-1860	-804	16916	224	11	18	-11948	1736	11632	113	-39	-153	-15300	692	-6496	94	8	170	-2480	-564	16700	4	-148	222	125	126	5
-11044	-4576	10620	-90	168	-138	-14052	2408	-8228	-22	-53	-35	-1936	-804	16916	195	-8	26	-11952	1732	11568	129	-64	-178	-15264	776	-6552	99	13	140	-2476	-620	16772	33	-129	242	125	127	5
-10984	-4548	10608	-99	214	-168	-13924	2396	-8112	-34	-40	-43	-1896	-848	16952	180	-28	8	-11928	1756	11556	114	-39	-198	-15260	764	-6572	16	6	156	-2500	-592	16676	25	-145	248	125	126	5
-11056	-4516	10520	-125	178	-181	-13972	2376	-8260	27	-55	-52	-1956	-812	17008	170	-26	25	-11932	1696	11392	121	-84	-172	-15240	708	-6580	36	-39	155	-2440	-616	16696	6	-136	216	125	126	5
-10992	-4620	10552	-111	159	-156	-13980	2456	-8216	5	-27	-39	-1848	-852	16912	197	-39	37	-11952	1744	11544	110	-80	-163	-15204	732	-6544	78	-24	171	-2500	-628	16668	49	-134	213	125	126	5
-11044	-4552	10676	-76	146	-170	-13984	2440	-8236	-2	-48	-58	-1888	-900	17064	193	-29	30	-11948	1732	11560	102	-76	-138	-15276	748	-6404	70	-57	194	-2436	-632	16632	-4	-131	229	125	126	5
-11012	-4524	10524	-96	148	-145	-14016	2336	-8184	4	-51	-78	-1920	-848	16964	180	-2	19	-11968	1728	11552	134	-58	-162	-15292	800	-6480	43	-25	168	-2428	-600	16632	26	-165	210	125	126	5
-11016	-4524	10628	-87	171	-217	-13936	2352	-8164	-1	-37	-7	-1872	-812	16924	178	24	36	-11912	1736	11588	122	-53	-203	-15268	808	-6668	54	-2	151	-2420	-572	16564	-1	-134	196	125	127	5
-11052	-4596	10484	-123	156	-137	-13984	2400	-8168	33	-25	-41	-1880	-920	16980	202	-21	2	-11984	1708	11544	135	-39	-153	-15328	820	-6572	51	-40	198	-2408	-624	16664	35	-113	225	125	126	5
-10976	-4516	10676	-73	182	-160	-13932	2372	-8172	-6	-56	-62	-1880	-860	17024	200	-25	16	-11936	1764	11620	126	-31	-149	-15240	752	-6576	74	-16	166	-2412	-644	16728	15	-132	195	125	126	5
-11064	-4540	10592	-116	144	-153	-13896	2360	-8164	-9	-59	-44	-1864	-836	16928	191	-42	22	-11932	1680	11556	118	-47	-133	-15248	772	-6544	95	-34	184	-2476	-588	16664	-1	-144	219	125	126	5
-11068	-4500	10616	-84	188	-168	-14012	2400	-8120	2	-13	-19	-1904	-900	17172	192	16	23	-11956	1744	11504	116	-57	-143	-15260	804	-6500	47	-29	188	-2440	-628	16828	52	-156	209	125	126	5
-11004	-4496	10520	-78	134	-186	-13968	2420	-8216	5	-24	-13	-1936	-876	17008	191	-28	39	-11856	1724	11588	101	20	-171	-15296	740	-6548	46	4	163	-2420	-640	16644	64	-135	208	125	126	5
-10976	-4568	10528	-80	166	-151	-13940	2380	-8064	-22	-41	-16	-1888	-812	16936	187	-10	13	-11972	1704	11580	120	-23	-126	-15256	792	-6588	52	14	163	-2396	-584	16640	31	-114	204	125	126	5
-11048	-4584	10648	-83	179	-164	-13976	2464	-8232	0	-14	-62	-1936	-884	17020	195	-9	45	-11984	1688	11636	121	-67	-152	-15256	840	-6588	83	1	163	-2428	-552	16772	25	-146	201	125	126	5
-11000	-4564	10656	-120	138	-184	-13956	2432	-8212	-10	-41	-53	-1848	-840	17052	187	-21	45	-11964	1768	11588	98	12	-132	-15316	800	-6496	77	-35	157	-2428	-512	16616	7	-141	210	125	126	5
-11012	-4520	10684	-61	137	-169	-13960	2392	-8092	-10	-48	-25	-1920	-832	16936	186	-4	6	-11896	1808	11576	135	-80	-139	-15276	776	-6572	52	-27	158	-2476	-556	16604	26	-137	222	125	127	5
-11092	-4556	10484	-103	162	-175	-13956	2380	-8176	44	-35	-18	-1908	-780	16956	188	-27	28	-11952	1692	11648	112	-18	-166	-15284	772	-6604	43	-18	175	-2464	-528	16676	28	-144	216	125	126	5
-10988	-4552	10548	-79	167	-153	-13912	2420	-8300	-7	-25	-64	-1932	-832	16928	165	-22	41	-11852	1708	11544	126	-60	-156	-15200	852	-6500	58	17	167	-2444	-548	16656	24	-148	258	124	127	5
-11020	-4540	10512	-75	163	-170	-13944	2432	-8284	-10	-34	-52	-1924	-772	16956	191	-16	35	-11920	1784	11608	113	-49	-161	-15240	836	-6480	20	-50	131	-2432	-564	16740	11	-133	243	125	126	5
-11000	-4600	10580	-117	171	-164	-13932	2380	-8312	-24	-20	-65	-1936	-900	17044	212	3	16	-11916	1680	11588	134	-31	-137	-15268	772	-6536	30	34	139	-2488	-636	16632	-1	-130	239	125	127	5
-10964	-4608	10484	-100	140	-196	-13936	2344	-8168	29	-59	-27	-1928	-900	16996	174	-11	17	-11952	1740	11604	93	-39	-169	-15264	744	-6628	81	-16	148	-2436	-608	16688	32	-160	219	125	126	5
-11048	-4632	10564	-100	131	-159	-13968	2384	-8024	1	-44	-16	-1880	-844	16948	153	32	34	-11852	1708	11528	115	-24	-152	-15296	772	-6468	52	-22	173	-2544	-592	16612	12	-116	227	125	126	5
-10992	-4560	10580	-106	182	-147	-13892	2460	-8240	-2	-39	-85	-1880	-820	17064	175	-47	45	-11916	1752	11584	111	-112	-194	-15312	768	-6616	30	-32	143	-2416	-584	16664	26	-166	250	125	126	5
-11008	-4588	10604	-114	145	-171	-13932	2400	-8220	-19	-22	-6	-1880	-900	16940	203	-18	17	-11908	1668	11628	123	-119	-172	-15336	736	-6460	33	-9	120	-2384	-580	16652	33	-123	245	125	126	5
-11064	-4516	10540	-116	162	-160	-13968	2368	-8280	13	-31	-42	-1892	-868	17060	181	9	39	-11952	1780	11572	145	-49	-165	-15264	692	-6544	48	-2	173	-2428	-628	16580	35	-134	241	125	127	5
-11040	-4648	10604	-169	148	-146	-14000	2420	-8136	19	-23	-60	-1864	-868	17008	199	-28	24	-11916	1712	11500	150	-79	-149	-15124	764	-6652	79	-19	171	-2440	-608	16684	27	-142	235	125	127	5
-11040	-4504	10644	-150	154	-187	-13964	2472	-8344	-11	-7	-50	-1944	-900	16856	164	-8	39	-11940	1736	11560	147	-39	-163	-15248	808	-6472	56	12	151	-2524	-596	16700	44	-128	228	125	126	5
-11024	-4536	10460	-155	154	-179	-13916	2388	-8156	8	-54	4	-1928	-848	16860	201	-9	-1	-11964	1756	11672	138	-70	-143	-15260	784	-6564	54	3	156	-2464	-572	16860	17	-174	212	125	127	5
-11100	-4584	10528	-87	185	-132	-13972	2396	-8236	-15	-16	-20	-1900	-852	17088	172	-4	58	-11968	1752	11528	116	-53	-156	-15244	720	-6376	50	-37	163	-2404	-648	16604	47	-108	202	125	127	5
-11076	-4584	10632	-97	166	-143	-14004	2388	-8184	-11	-50	-61	-1880	-824	16848	166	-15	17	-11964	1764	11608	151	-18	-157	-15292	764	-6492	54	-45	166	-2452	-588	16668	36	-148	224	125	126	5
-10980	-4572	10552	-64	155	-135	-13924	2412	-8180	-27	-56	-57	-1900	-864	16956	178	-11	26	-11992	1740	11684	124	-65	-146	-15200	752	-6488	67	-10	166	-2472	-592	16648	53	-123	212	125	126	5
-11000	-4540	10420	-60	181	-122	-13948	2440	-8160	11	-33	-20	-1880	-840	16936	201	2	23	-11940	1776	11672	123	-51	-153	-15240	784	-6496	64	-52	173	-2452	-576	16780	26	-144	219	125	126	5
-11028	-4512	10540	-100	184	-170	-13936	2324	-8136	-24	-39	-81	-1936	-832	16988	163	4	17	-11920	1652	11584	107	-26	-177	-15268	732	-6484	64	-40	154	-2468	-564	16776	28	-125	197	125	127	5
-11012	-4620	10632	-110	185	-161	-13984	2388	-8244	-53	-72	-74	-1836	-872	16968	177	-18	22	-11884	1748	11480	99	-38	-171	-15328	804	-6496	37	-11	144	-2376	-576	16732	-26	-184	223	125	127	5
-11044	-4556	10584	-94	159	-142	-13936	2404	-8160	-25	-20	-30	-1836	-880	17020	188	-45	3	-11952	1732	11612	98	-60	-185	-15236	796	-6728	54	-8	141	-2432	-556	16640	18	-164	204	125	126	5
-10972	-4536	10632	-83	152	-187	-13992	2392	-8164	8	-58	-33	-1840	-908	16984	177	-32	23	-11928	1748	11596	111	-77	-188	-15272	760	-6528	68	-21	147	-2472	-568	16640	24	-170	244	125	127	5
-11004	-4548	10604	-79	178	-206	-13912	2408	-8172	0	-42	-41	-1856	-836	17008	220	-28	35	-11952	1720	11604	95	-32	-138	-15308	720	-6592	86	-36	144	-2436	-576	16644	33	-133	226	125	127	5
-11008	-4572	10496	-118	178	-166	-13908	2372	-8184	-28	-49	-44	-1920	-800	16980	223	-31	8	-11888	1716	11612	97	-34	-157	-15244	780	-6556	83	-42	163	-2408	-564	16672	33	-125	252	125	127	5
-11044	-4624	10536	-96	167	-138	-13940	2444	-8192	4	-32	-49	-1932	-860	17148	162	1	45	-11928	1736	11580	115	-31	-166	-15328	756	-6552	17	-43	177	-2480	-556	16636	23	-103	231	125	127	5
-11076	-4560	10540	-105	174	-166	-13976	2432	-8244	-9	-48	-20	-1916	-884	16908	187	-12	8	-11964	1760	11676	158	-27	-121	-15216	720	-6568	66	0	139	-2436	-588	16692	11	-148	194	125	127	5
-10988	-4540	10624	-88	148	-134	-13932	2500	-8152	-30	-44	2	-1900	-860	16888	188	-18	28	-11904	1636	11492	138	-26	-165	-15268	708	-6560	75	-38	201	-2420	-608	16744	6	-127	183	125	126	5
-11084	-4560	10480	-134	159	-132	-13908	2416	-8232	-9	-42	-68	-1912	-908	17068	198	-5	31	-11924	1688	11492	116	-85	-178	-15264	812	-6528	87	5	188	-2472	-600	16668	2	-137	232	125	127	5
-11004	-4560	10520	-76	184	-175	-13904	2440	-8320	-10	-29	-58	-1928	-792	16960	182	-17	49	-11988	1724	11600	134	-22	-158	-15264	768	-6568	75	-26	154	-2508	-552	16632	46	-109	227	125	127	5
-11004	-4564	10592	-132	182	-203	-14028	2408	-8204	-10	-19	-41	-1904	-872	16928	150	21	28	-11948	1784	11624	168	-82	-159	-15256	852	-6596	52	9	149	-2400	-564	16768	75	-123	251	125	127	5
-11056	-4512	10644	-114	183	-177	-13948	2428	-8428	3	-26	-34	-1980	-876	17052	174	-33	19	-11956	1692	11620	110	-88	-161	-15324	756	-6604	43	-8	124	-2436	-600	16576	70	-121	253	125	126	5
-11028	-4584	10592	-72	188	-140	-14024	2396	-8324	21	-93	-10	-1904	-920	16980	217	12	33	-11928	1704	11536	122	-42	-176	-15268	736	-6572	97	-13	148	-2448	-588	16708	24	-124	236	125	126	5
-11056	-4536	10560	-116	146	-172	-13920	2440	-8196	-31	-47	-32	-1896	-876	16936	189	-25	15	-11884	1752	11532	139	-82	-139	-15304	732	-6488	64	-8	157	-2396	-560	16584	-8	-160	212	125	126	5
-10964	-4608	10664	-91	202	-170	-13968	2412	-8152	-9	-63	3	-1960	-788	17084	165	-8	12	-11900	1768	11556	123	-28	-161	-15316	696	-6456	48	-11	179	-2448	-564	16688	-6	-148	229	125	127	5
-10980	-4572	10536	-80	147	-178	-13876	2452	-8168	11	-24	-52	-1908	-780	16960	192	-11	29	-11988	1736	11536	80	20	-140	-15264	772	-6428	34	13	173	-2456	-708	16612	13	-131	229	125	126	5
-11080	-4616	10588	-68	198	-159	-13912	2412	-8172	-21	-59	-48	-1892	-748	16932	155	-5	41	-11936	1748	11628	124	-71	-160	-15252	724	-6524	41	-4	143	-2400	-596	16680	47	-111	231	125	126	5
-10992	-4564	10560	-106	179	-187	-13952	2412	-8276	-15	-51	-73	-1904	-820	17040	216	0	36	-11952	1724	11592	128	-11	-182	-15240	756	-6568	60	-30	151	-2520	-640	16544	47	-141	214	125	127	5
-11052	-4552	10592	-123	177	-170	-14016	2452	-8192	-23	-45	-65	-1860	-864	16944	157	-12	32	-11948	1744	11600	151	-58	-126	-15240	860	-6540	23	3	170	-2428	-572	16640	17	-115	187	125	126	5
-11032	-4624	10560	-124	156	-138	-14000	2372	-8084	-7	-68	-47	-1916	-900	16940	165	-18	32	-11924	1708	11644	113	-38	-162	-15320	772	-6600	31	-1	154	-2480	-544	16664	35	-140	256	125	127	5
-10972	-4576	10528	-99	165	-180	-13940	2340	-8252	-31	-57	-81	-1856	-960	16992	210	-5	37	-11912	1696	11520	100	-43	-172	-15252	796	-6528	76	-3	173	-2484	-556	16764	-13	-137	225	125	127	5
-10956	-4532	10588	-78	145	-156	-13968	2412	-8248	-15	-21	-95	-1752	-840	17072	197	-41	-8	-11980	1740	11584	140	8	-147	-15232	748	-6656	46	2	151	-2468	-600	16736	6	-124	227	125	126	5
-11024	-4552	10644	-101	212	-158	-13960	2444	-8216	-20	-36	-57	-1944	-892	17000	216	6	2	-11980	1740	11632	138	-61	-160	-15276	776	-6536	49	-17	183	-2412	-636	16704	23	-156	198	125	127	5
-11072	-4540	10564	-68	149	-145	-13936	2332	-8196	-51	12	-73	-1892	-744	16908	197	-30	33	-11976	1744	11472	120	-31	-179	-15256	780	-6592	65	-13	134	-2424	-688	16672	-21	-145	226	125	126	5
-11016	-4564	10532	-120	194	-140	-13916	2404	-8248	-3	-42	-45	-1880	-876	17076	165	-21	34	-11908	1784	11616	144	-36	-199	-15264	724	-6564	53	-45	186	-2532	-548	16784	61	-144	234	125	127	5
-11048	-4596	10652	-130	215	-175	-13964	2364	-8176	-29	-38	-14	-1960	-844	16936	197	13	33	-11920	1728	11572	112	-64	-168	-15288	856	-6592	51	-21	172	-2504	-476	16604	32	-136	225	125	126	5
-11024	-4556	10588	-123	204	-200	-13960	2384	-8200	31	-39	-57	-1896	-860	16964	198	-23	21	-11952	1724	11544	142	0	-158	-15320	712	-6552	-1	-76	150	-2388	-592	16684	8	-157	236	125	127	5
-11080	-4572	10532	-81	174	-150	-13956	2432	-8300	-19	-50	-37	-1912	-788	16956	195	-34	51	-11888	1732	11548	140	-44	-147	-15256	796	-6488	64	14	141	-2380	-592	16640	2	-133	234	125	126	5
-11056	-4500	10628	-105	150	-151	-13960	2416	-8156	-20	-32	-71	-1868	-824	17000	200	-20	38	-11940	1728	11628	118	15	-171	-15256	888	-6480	85	-8	172	-2384	-560	16784	5	-132	216	125	127	5
-10992	-4504	10524	-121	182	-161	-13960	2440	-8284	-33	-25	-64	-1872	-812	16912	216	-1	10	-11892	1692	11540	95	-47	-160	-15288	728	-6536	82	-4	148	-2432	-580	16644	7	-164	213	125	127	5
-11064	-4560	10524	-78	161	-191	-13964	2428	-8196	-19	-49	-55	-1932	-820	16976	190	3	13	-11964	1688	11604	115	-36	-208	-15268	756	-6396	37	-36	177	-2412	-592	16680	45	-108	202	125	127	5
-10948	-4512	10616	-101	159	-186	-13972	2368	-8236	24	-26	-62	-1888	-808	17100	169	-52	36	-11944	1692	11532	115	-47	-183	-15200	804	-6588	58	-18	163	-2460	-632	16684	49	-134	191	125	127	5
-11052	-4560	10608	-82	143	-172	-14012	2364	-8184	8	-66	-39	-1852	-820	16960	159	-21	30	-11928	1736	11596	101	-31	-158	-15240	796	-6492	84	-12	153	-2476	-612	16668	28	-118	211	125	127	5
-11044	-4580	10496	-108	150	-164	-13892	2484	-8180	-32	-47	-49	-1920	-876	16960	180	15	28	-11900	1696	11584	140	-49	-138	-15268	728	-6548	53	-20	161	-2428	-648	16552	48	-119	220	125	126	5
-11052	-4632	10548	-141	152	-204	-13928	2336	-8312	-2	-29	-46	-1832	-864	17036	209	-28	-3	-11880	1688	11596	125	-87	-158	-15224	760	-6496	90	-27	157	-2444	-560	16692	50	-128	239	125	127	5
-10984	-4616	10512	-171	161	-168	-14028	2368	-8180	-7	-21	-12	-1832	-840	16920	195	19	11	-11900	1808	11496	158	-90	-132	-15220	784	-6604	62	-13	159	-2396	-528	16780	36	-107	211	125	127	5
-11016	-4616	10596	-148	164	-167	-14020	2352	-8240	-12	-25	-57	-1908	-824	17032	198	-19	25	-11912	1752	11540	110	-41	-151	-15224	756	-6640	44	-38	129	-2520	-620	16604	22	-129	248	125	126	5
-11004	-4576	10560	-120	133	-146	-13948	2368	-8108	5	-72	-70	-1928	-916	16948	182	9	35	-11888	1760	11620	161	-63	-210	-15264	788	-6552	46	25	124	-2460	-552	16724	39	-157	246	125	127	5
-11000	-4604	10604	-118	164	-171	-13976	2436	-8168	-40	-70	-45	-1940	-768	16888	226	15	11	-11844	1764	11600	124	-24	-164	-15248	788	-6512	61	16	112	-2476	-668	16588	-16	-158	230	125	127	5
-11012	-4552	10592	-104	142	-143	-13956	2392	-8144	-33	-84	-15	-1896	-808	17044	194	-33	24	-11956	1776	11508	124	-4	-167	-15304	788	-6608	85	5	151	-2440	-592	16664	4	-144	208	125	126	5
-11072	-4552	10580	-76	162	-182	-13956	2436	-8248	-13	-71	-49	-1872	-792	16916	208	12	46	-11920	1712	11568	131	-50	-177	-15272	760	-6568	86	-24	176	-2428	-636	16652	37	-128	233	125	127	5
-11020	-4580	10564	-94	189	-155	-14028	2404	-8292	28	-49	-66	-1948	-800	16912	202	-7	26	-11972	1692	11568	141	-57	-158	-15316	780	-6496	54	-19	188	-2380	-568	16632	56	-113	192	125	126	5
-11028	-4572	10524	-68	176	-192	-13960	2396	-8280	-4	-52	-41	-1844	-816	17056	171	-18	-5	-11940	1712	11556	101	-22	-174	-15268	800	-6508	25	-45	137	-2424	-608	16720	41	-134	229	125	126	5
-10996	-4604	10548	-106	165	-161	-14016	2396	-8120	-1	-55	-30	-1908	-880	16968	174	-49	25	-11932	1684	11572	117	-24	-142	-15204	760	-6540	56	-6	157	-2452	-544	16716	83	-130	218	125	127	5
-11056	-4564	10608	-85	164	-149	-13996	2380	-8192	-17	-42	-54	-1848	-864	17020	166	-17	17	-11912	1760	11664	103	-27	-139	-15212	808	-6524	66	-37	161	-2436	-560	16704	13	-141	232	125	126	5
-11044	-4580	10512	-101	164	-176	-14040	2340	-8224	-7	-36	-43	-1864	-912	16904	191	-27	-1	-11912	1688	11576	86	-62	-140	-15268	796	-6444	37	12	142	-2436	-544	16660	16	-150	238	124	126	5
-11012	-4580	10584	-55	181	-151	-13928	2352	-8268	-18	-31	-53	-1896	-848	16976	195	-5	22	-11964	1752	11612	94	-54	-166	-15284	792	-6568	65	-3	103	-2412	-640	16664	-18	-129	220	125	126	5
-11044	-4608	10476	-87	153	-152	-13960	2384	-8132	-23	-67	-60	-1904	-860	16908	202	-13	7	-11976	1676	11476	76	6	-192	-15284	776	-6528	83	12	134	-2396	-640	16728	-12	-131	193	125	126	5
-10996	-4552	10596	-103	203	-156	-13968	2416	-8068	-27	-46	-3	-1936	-756	17080	179	7	30	-11916	1708	11644	117	-50	-165	-15284	776	-6612	56	-26	164	-2428	-728	16752	36	-152	232	125	127	5
-11044	-4576	10504	-103	181	-165	-13928	2444	-8184	-13	-21	-53	-1928	-836	16936	182	22	34	-11940	1644	11612	89	-83	-178	-15296	776	-6532	45	7	187	-2424	-636	16612	64	-108	180	125	127	5
-10980	-4548	10588	-135	138	-179	-13976	2404	-8228	5	-53	-45	-1872	-848	16996	174	-2	26	-11956	1716	11556	108	-74	-145	-15140	808	-6624	34	-25	194	-2508	-668	16604	66	-129	203	125	126	5
-10980	-4548	10524	-131	169	-156	-13920	2420	-8284	-12	-46	-52	-1876	-904	17008	182	-22	42	-11956	1772	11588	112	-24	-154	-15316	804	-6600	30	-13	158	-2416	-608	16624	15	-138	229	125	126	5
-11072	-4576	10564	-116	174	-180	-13944	2424	-8060	5	-16	-69	-1968	-848	16940	189	-52	27	-11928	1728	11520	104	-47	-180	-15292	812	-6528	72	-30	174	-2432	-556	16688	9	-160	226	125	126	5
-10980	-4552	10508	-132	133	-152	-13956	2408	-8264	-35	-18	-48	-1960	-884	17064	181	36	24	-11960	1744	11476	154	-71	-167	-15312	812	-6572	95	-29	173	-2464	-548	16632	15	-162	223	125	126	5
-11012	-4520	10464	-107	156	-153	-13924	2376	-8292	-26	-22	-2	-1908	-780	16988	207	-19	12	-11936	1728	11600	124	-14	-162	-15228	792	-6556	56	2	148	-2420	-612	16776	28	-157	225	125	126	5
-11028	-4572	10552	-117	183	-161	-13940	2460	-8320	-24	-37	-32	-1896	-856	16844	151	-27	29	-11932	1768	11588	118	-65	-180	-15236	816	-6560	58	-49	138	-2412	-652	16752	-9	-119	257	125	126	5
-11024	-4500	10436	-76	167	-173	-13956	2420	-8276	-21	-44	-9	-1896	-760	16928	168	-27	31	-11888	1712	11620	117	-35	-187	-15260	688	-6536	54	-1	136	-2448	-660	16696	-22	-127	244	125	126	5
-10988	-4552	10620	-114	153	-142	-13980	2480	-8260	-8	-32	-25	-1868	-820	16940	172	36	47	-11872	1712	11640	134	-38	-159	-15212	692	-6560	59	14	162	-2468	-624	16676	46	-144	236	125	126	5
-10968	-4528	10648	-97	192	-158	-13960	2436	-8152	-19	-47	-70	-1948	-816	16972	192	-23	18	-11948	1760	11596	135	-49	-143	-15260	708	-6504	87	26	191	-2412	-656	16576	33	-143	188	125	127	5
-11036	-4552	10656	-126	179	-161	-13968	2424	-8112	-11	-58	-64	-1832	-784	16972	167	-11	45	-11948	1732	11600	116	-13	-180	-15240	772	-6628	54	-32	190	-2496	-552	16692	31	-152	231	125	126	5
-11048	-4548	10604	-114	171	-166	-13952	2396	-8200	-25	-64	-54	-1848	-856	16940	166	-41	14	-11944	1720	11524	94	-7	-164	-15228	772	-6588	27	-37	148	-2472	-520	16760	10	-159	216	125	127	5
-11032	-4580	10572	-129	178	-164	-13920	2452	-8252	26	-15	-34	-1932	-944	16932	186	-24	13	-11952	1724	11516	152	-20	-172	-15264	796	-6512	22	8	170	-2408	-600	16608	30	-138	211	125	126	5
-11028	-4592	10640	-103	147	-160	-13972	2332	-8320	-22	-43	-63	-1988	-876	17088	173	-21	6	-11924	1768	11632	112	-10	-194	-15240	800	-6480	78	9	133	-2416	-512	16720	39	-152	214	125	126	5
-10996	-4576	10716	-103	174	-151	-13996	2448	-8168	16	-65	-55	-1908	-888	16952	204	-5	18	-11900	1708	11548	105	-21	-163	-15312	756	-6536	99	-3	150	-2424	-548	16720	16	-147	258	125	126	5
-11000	-4516	10480	-76	154	-177	-13908	2360	-8276	5	-39	-36	-1980	-852	17032	164	-7	14	-11880	1748	11672	107	-46	-177	-15244	772	-6592	96	-8	149	-2480	-604	16632	22	-156	227	125	126	5
-11008	-4532	10624	-82	146	-163	-13980	2408	-8240	29	-49	-49	-1908	-840	16836	218	-20	12	-11956	1752	11520	150	-50	-166	-15216	784	-6492	53	-26	128	-2468	-576	16660	-48	-143	228	125	126	5
-10992	-4568	10680	-119	165	-166	-13964	2444	-8236	-12	-31	-49	-1968	-752	17136	165	-26	26	-11920	1744	11588	124	-56	-152	-15260	780	-6644	7	3	156	-2420	-672	16700	15	-143	221	125	126	5
-10992	-4540	10604	-94	161	-173	-14000	2404	-8172	-27	-57	-67	-1932	-840	16928	185	-21	25	-11932	1760	11620	99	-66	-152	-15276	764	-6540	77	-2	170	-2412	-624	16692	50	-132	208	125	126	5
-11088	-4548	10536	-85	167	-178	-13992	2444	-8228	3	-30	-35	-1924	-856	17000	208	-16	6	-11944	1824	11572	100	-15	-156	-15248	768	-6536	42	-8	164	-2404	-572	16628	52	-161	180	125	127	5
-10996	-4508	10568	-84	166	-160	-14028	2428	-8172	-12	-28	-59	-1880	-860	16964	173	1	39	-11928	1696	11588	136	-7	-152	-15244	712	-6524	67	-11	160	-2448	-636	16696	47	-119	246	125	126	5
-11048	-4572	10528	-99	163	-187	-13972	2424	-8176	-21	-38	-22	-1916	-896	17108	155	-16	23	-11972	1732	11544	107	-94	-181	-15336	776	-6428	90	4	121	-2472	-540	16756	30	-156	195	125	127	5
-11052	-4544	10612	-84	149	-189	-13908	2344	-8176	-37	-60	-25	-1848	-848	16928	225	-6	13	-11936	1780	11468	107	-49	-168	-15256	864	-6500	42	-11	166	-2436	-584	16704	-19	-148	205	125	126	5
-10992	-4544	10652	-110	162	-166	-13944	2376	-8232	-30	-41	-32	-1888	-900	16932	199	-25	25	-11932	1748	11460	114	-100	-184	-15320	712	-6496	83	-23	186	-2432	-612	16680	21	-148	204	125	126	5
-10944	-4568	10564	-102	143	-147	-13928	2352	-8268	4	-60	-15	-1924	-836	17004	188	-45	7	-11924	1760	11592	122	-80	-162	-15212	772	-6456	45	-5	188	-2468	-628	16676	12	-122	225	125	126	5
-10980	-4552	10572	-63	145	-166	-14004	2396	-8192	29	-42	-46	-1940	-880	16944	185	-21	21	-11968	1692	11452	103	-29	-163	-15292	812	-6660	42	-23	175	-2452	-592	16608	42	-134	224	125	126	5
-11024	-4512	10556	-107	140	-196	-13968	2460	-8080	7	-36	-53	-1936	-852	16976	172	-13	-3	-11952	1808	11580	143	-52	-142	-15316	736	-6496	49	-54	139	-2460	-544	16724	54	-106	237	125	127	5
-11072	-4540	10548	-149	137	-160	-13948	2368	-8168	1	-54	-14	-1936	-844	16948	191	-8	2	-11940	1764	11564	149	-55	-192	-15292	780	-6488	57	-40	142	-2488	-540	16716	39	-139	238	125	126	5
-11024	-4528	10540	-174	162	-187	-14004	2476	-8160	-18	-61	-28	-1880	-844	16908	211	2	27	-11872	1776	11568	111	-107	-172	-15276	772	-6512	74	11	159	-2408	-572	16612	17	-159	226	125	126	5
-11008	-4532	10572	-154	138	-159	-13948	2416	-8232	-28	-20	-49	-1868	-864	16944	183	23	24	-11940	1700	11592	143	-16	-154	-15248	740	-6472	66	31	187	-2432	-600	16780	-6	-139	178	125	126	5
-11028	-4500	10548	-172	174	-158	-13908	2380	-8196	-13	-59	-45	-1856	-824	17096	197	31	39	-11896	1776	11456	163	-74	-169	-15248	772	-6544	57	-10	153	-2464	-648	16664	27	-147	199	125	127	5
-10976	-4620	10504	-116	154	-157	-14004	2376	-8128	-17	-8	-34	-1924	-860	17092	190	-8	22	-11956	1716	11556	90	-33	-150	-15264	804	-6600	70	14	178	-2500	-536	16612	52	-124	226	125	126	5
-11028	-4620	10536	-52	154	-169	-13944	2392	-8260	10	-4	-31	-1880	-864	17044	149	-20	-11	-11916	1708	11644	116	-42	-191	-15280	704	-6460	49	-5	135	-2444	-632	16632	39	-141	225	125	127	5
-10960	-4536	10464	-131	153	-183	-14016	2448	-8224	7	-76	-48	-1896	-848	17120	165	-34	7	-11908	1740	11552	113	-20	-153	-15288	780	-6516	74	9	178	-2440	-628	16660	52	-126	223	125	126	5
-11016	-4524	10512	-59	207	-175	-13976	2424	-8252	-21	-21	-42	-1856	-944	16952	158	-41	43	-11920	1756	11480	148	-80	-169	-15268	776	-6440	74	-14	159	-2416	-544	16652	32	-140	214	125	127	5
-10984	-4536	10592	-68	151	-147	-14028	2344	-8144	-15	-38	-37	-1840	-796	16920	188	3	25	-11936	1740	11676	123	-43	-180	-15360	760	-6672	62	-8	105	-2412	-592	16636	-22	-148	218	125	126	5
-11024	-4508	10528	-66	160	-183	-13900	2440	-8188	-18	-50	-47	-1904	-860	17032	189	23	-14	-11916	1744	11584	125	-46	-167	-15296	748	-6624	44	-4	108	-2396	-624	16708	17	-141	214	125	127	5
-11024	-4560	10512	-96	142	-175	-13952	2368	-8244	-9	-38	-42	-1916	-868	16896	162	14	21	-11924	1720	11668	127	-12	-167	-15268	776	-6556	60	-35	164	-2388	-652	16688	27	-135	193	125	126	5
-11016	-4636	10632	-82	165	-164	-13996	2448	-8100	-28	-47	-30	-1856	-840	16960	196	-19	-1	-11920	1708	11524	107	-60	-141	-15324	704	-6492	74	-18	174	-2444	-612	16612	47	-134	200	125	126	5
-11036	-4584	10612	-113	149	-151	-13956	2444	-8148	-33	-41	-11	-1916	-844	16956	198	-17	40	-12000	1740	11572	132	-67	-155	-15296	788	-6496	33	-12	191	-2452	-524	16760	30	-143	220	125	126	5
-10976	-4568	10524	-121	203	-165	-13984	2400	-8256	-32	-46	-94	-1960	-852	17080	218	-38	20	-11888	1728	11672	108	-27	-160	-15284	760	-6376	38	-12	201	-2408	-612	16644	49	-138	187	125	126	5
-11016	-4604	10596	-71	198	-145	-13900	2400	-8264	-20	-23	-59	-1920	-832	16872	209	-14	46	-11928	1664	11444	136	-31	-181	-15240	804	-6500	65	22	178	-2444	-576	16680	7	-136	198	125	127	5
-11048	-4524	10540	-110	189	-179	-13960	2400	-8292	-25	-50	-87	-1940	-804	16880	191	1	52	-11908	1692	11528	119	-28	-147	-15312	796	-6552	69	-7	161	-2468	-540	16696	29	-156	175	125	127	5
-10944	-4548	10612	-112	169	-148	-13892	2356	-8188	-29	-38	-48	-1912	-840	17040	205	42	15	-11972	1780	11532	129	-86	-151	-15260	856	-6456	36	-40	163	-2496	-524	16656	24	-135	222	125	127	5
-11004	-4568	10580	-169	173	-203	-13912	2400	-8232	2	-19	-40	-1872	-896	17016	172	1	11	-11924	1756	11588	125	-37	-156	-15232	788	-6460	49	-40	155	-2424	-496	16612	24	-125	238	125	127	5
-11036	-4564	10584	-75	170	-169	-13944	2404	-8240	-10	-24	-30	-1904	-916	16960	165	-3	6	-11920	1756	11544	120	-25	-192	-15244	884	-6528	22	-23	146	-2488	-520	16708	1	-121	254	125	126	5
-11072	-4616	10576	-93	139	-161	-13952	2348	-8156	-6	-44	-28	-1868	-916	17032	200	-26	24	-11872	1792	11524	111	-72	-207	-15308	760	-6628	62	-28	109	-2376	-628	16656	-15	-137	269	125	126	5
-11024	-4484	10584	-76	166	-154	-13988	2464	-8284	-11	-50	-41	-1884	-892	17032	198	-16	-15	-11916	1740	11532	89	-72	-164	-15216	724	-6520	93	-42	154	-2436	-584	16548	5	-126	197	125	127	5
-10976	-4604	10600	-121	182	-149	-13948	2408	-8232	-24	-51	-40	-1900	-764	17028	221	-5	41	-11960	1700	11636	132	-47	-141	-15316	812	-6540	62	21	129	-2444	-704	16644	-15	-174	217	125	126	5
-11048	-4524	10568	-122	172	-193	-13996	2460	-8244	-1	-43	-58	-1920	-820	17024	139	-32	50	-11896	1704	11464	133	-51	-156	-15244	772	-6476	50	-27	199	-2504	-616	16616	21	-136	181	125	127	5
-10968	-4576	10580	-117	178	-166	-13972	2448	-8272	36	-46	-67	-1932	-812	16984	169	-8	24	-12064	1692	11536	132	-36	-157	-15296	820	-6536	53	-18	144	-2448	-648	16684	68	-139	236	125	127	5
-11008	-4532	10608	-100	140	-169	-13996	2372	-8284	-12	-36	-31	-1896	-920	17012	125	-27	28	-11948	1792	11612	112	-40	-168	-15240	756	-6508	9	-6	179	-2492	-552	16680	88	-127	186	125	126	5
-11000	-4608	10528	-80	175	-189	-13868	2352	-8232	19	-46	-55	-1844	-896	16992	175	3	43	-11888	1708	11588	130	-70	-173	-15232	764	-6492	78	2	132	-2464	-464	16724	0	-109	257	125	127	5
-11000	-4576	10528	-90	146	-160	-13948	2356	-8176	5	-36	-17	-1868	-868	16904	209	-25	16	-11904	1760	11660	149	-52	-161	-15288	760	-6496	75	3	163	-2476	-484	16744	21	-133	249	125	126	5
-11012	-4536	10604	-97	151	-160	-14028	2400	-8300	-20	-50	-21	-1864	-908	16984	222	-4	37	-11992	1736	11588	106	28	-155	-15292	720	-6588	69	-7	112	-2476	-560	16648	15	-142	223	125	126	5
-10896	-4552	10548	-106	198	-173	-13980	2428	-8228	-12	-39	-22	-1912	-784	17000	199	22	11	-11944	1724	11612	143	-42	-205	-15304	760	-6524	57	-10	130	-2432	-584	16652	21	-149	240	125	127	5
-11024	-4468	10544	-100	154	-179	-13928	2452	-8252	-6	-50	-11	-1948	-736	17100	190	24	12	-11860	1744	11564	125	-51	-176	-15332	708	-6572	33	4	157	-2452	-588	16636	-4	-119	233	125	126	5
-10984	-4548	10620	-80	168	-156	-13952	2432	-8316	26	-30	-45	-1916	-840	16984	194	6	31	-11936	1704	11612	113	-72	-164	-15252	732	-6484	31	12	162	-2380	-608	16756	23	-113	211	125	126	5
-11024	-4568	10548	-109	167	-179	-13892	2428	-8236	9	-30	-25	-1896	-892	16920	226	13	49	-11908	1748	11572	146	-46	-165	-15268	784	-6540	71	-27	158	-2456	-584	16732	31	-148	203	125	127	5
-10984	-4500	10532	-84	169	-167	-13920	2424	-8296	-5	-24	-22	-1932	-908	17024	197	-7	23	-11948	1776	11616	111	-82	-175	-15228	812	-6456	61	-37	164	-2400	-616	16696	23	-125	200	125	127	5
-11040	-4536	10504	-114	143	-191	-13948	2400	-8228	4	-31	-33	-1916	-868	17032	161	-12	17	-11980	1720	11656	102	-4	-197	-15236	784	-6540	93	-54	175	-2436	-556	16540	44	-137	212	125	126	5
-11060	-4568	10540	-109	166	-147	-13928	2352	-8224	-4	-28	-65	-1892	-856	16924	177	-19	30	-11956	1780	11620	111	-33	-173	-15308	800	-6384	50	-36	185	-2452	-568	16568	33	-142	237	125	126	5
-11020	-4556	10480	-85	168	-176	-14028	2460	-8084	-29	-35	-42	-1884	-880	16968	207	4	12	-11948	1696	11572	89	-70	-145	-15244	796	-6460	67	19	154	-2448	-512	16712	32	-110	220	125	126	5
-10996	-4564	10492	-116	155	-183	-14004	2412	-8228	-23	-33	-46	-1920	-860	16936	205	-44	12	-11896	1740	11540	96	-104	-167	-15280	800	-6440	45	-22	164	-2460	-536	16692	13	-146	234	125	126	5
-11020	-4556	10452	-105	149	-167	-13924	2356	-8228	-6	-58	-54	-1824	-900	16948	221	1	25	-11860	1772	11564	135	-21	-184	-15292	692	-6600	65	-17	148	-2436	-572	16676	-12	-94	236	125	127	5
-10980	-4548	10664	-136	156	-166	-13996	2356	-8132	-10	-32	-36	-1848	-848	17040	193	-23	11	-11948	1724	11632	113	-54	-140	-15260	776	-6508	66	-18	157	-2396	-608	16700	19	-128	192	125	126	5
-11012	-4536	10600	-111	179	-151	-13884	2400	-8188	-1	-36	-14	-1916	-852	17072	166	29	30	-11940	1724	11588	115	-77	-155	-15208	760	-6520	67	-40	188	-2444	-592	16564	10	-142	184	125	126	5
-11084	-4488	10660	-91	160	-176	-13912	2436	-8292	2	-65	-29	-1880	-832	17024	214	8	12	-11960	1720	11548	133	-57	-145	-15212	832	-6380	62	-9	175	-2424	-592	16708	32	-166	210	125	126	5
-11008	-4568	10520	-128	151	-191	-13900	2360	-8252	-41	-34	-39	-1924	-876	16960	148	-20	25	-11908	1700	11620	104	-32	-159	-15288	864	-6544	47	-14	168	-2476	-612	16688	15	-129	213	125	126	5
-10988	-4536	10520	-166	140	-142	-13924	2404	-8216	-20	-12	-5	-1832	-824	17040	197	-9	12	-11888	1756	11612	138	-59	-133	-15256	760	-6508	-6	24	171	-2448	-556	16636	33	-125	225	125	127	5
-11036	-4628	10572	-205	145	-185	-13956	2388	-8296	14	-28	-28	-1892	-880	16936	218	-34	34	-11980	1692	11528	164	-99	-149	-15264	752	-6460	74	-6	156	-2472	-612	16640	1	-144	224	125	127	5
-10992	-4560	10488	-149	174	-203	-13912	2384	-8240	-4	-13	-31	-1916	-840	16908	221	-14	33	-11916	1792	11480	147	-99	-165	-15284	736	-6592	71	-16	190	-2444	-648	16692	27	-134	227	125	127	5
-10988	-4564	10480	-150	162	-171	-13956	2348	-8212	-22	-21	-44	-1940	-844	16880	184	-7	14	-11964	1712	11536	137	-42	-178	-15268	816	-6628	46	7	160	-2488	-588	16680	39	-146	231	125	126	5
-10996	-4536	10476	-130	174	-115	-13984	2400	-8224	-10	-49	-37	-1908	-796	16980	143	-30	16	-11960	1764	11612	138	-75	-167	-15296	808	-6580	46	-19	127	-2448	-632	16636	28	-106	236	125	127	5
-11028	-4548	10508	-82	144	-176	-13976	2412	-8316	7	-67	-14	-1948	-884	16944	171	6	38	-11908	1696	11580	115	-48	-144	-15256	792	-6628	35	-31	124	-2428	-576	16680	-5	-158	238	125	126	5
-11024	-4592	10588	-78	196	-158	-13892	2408	-8220	-1	-26	-18	-1944	-892	17056	200	6	9	-11888	1688	11564	126	-64	-138	-15280	816	-6528	60	-2	148	-2428	-592	16692	20	-130	207	125	126	5
-11012	-4556	10564	-74	203	-164	-13948	2416	-8044	-4	-85	-31	-1976	-808	16884	206	0	22	-11884	1776	11584	116	-42	-150	-15328	788	-6460	60	-1	165	-2480	-556	16716	40	-125	217	125	126	5
-11028	-4560	10588	-80	188	-163	-13924	2428	-8148	-3	-51	-67	-1860	-764	16848	212	-15	14	-11956	1712	11596	93	-47	-167	-15260	792	-6560	62	-5	171	-2464	-596	16580	27	-125	210	125	127	5
-11028	-4504	10552	-92	167	-149	-13928	2448	-8252	-12	-41	-43	-1864	-860	17080	173	-15	31	-11972	1756	11560	118	-65	-146	-15340	776	-6568	25	-6	166	-2440	-604	16776	13	-138	237	125	127	5
-11020	-4520	10544	-48	165	-150	-13920	2400	-8220	-10	-34	-46	-1888	-876	17040	178	-31	9	-11916	1748	11596	108	-62	-165	-15240	728	-6508	60	2	185	-2396	-616	16620	14	-135	226	125	126	5
-11028	-4536	10492	-78	165	-204	-13920	2408	-8212	18	-44	-16	-1944	-816	16988	193	-18	26	-11992	1740	11652	127	-57	-180	-15256	752	-6596	52	-14	172	-2460	-552	16716	27	-127	218	125	127	5
-11024	-4556	10548	-111	148	-127	-13992	2396	-8280	0	-38	10	-1924	-896	16972	222	10	32	-11912	1764	11560	134	-58	-168	-15260	780	-6492	39	-31	175	-2496	-596	16692	13	-151	207	125	127	5
-11024	-4604	10532	-59	162	-142	-13992	2356	-8392	-4	-54	-41	-1892	-836	16992	207	-21	19	-11920	1764	11532	102	-15	-173	-15244	800	-6592	73	-24	112	-2528	-536	16692	39	-127	237	125	126	5
-11000	-4544	10536	-114	156	-129	-13952	2444	-8152	3	-47	-23	-1908	-824	16896	195	-1	10	-11968	1764	11616	144	-32	-168	-15212	752	-6452	57	-4	163	-2420	-580	16624	7	-136	233	125	127	5
-11036	-4524	10568	-95	161	-188	-13972	2412	-8028	-14	-75	-56	-1880	-792	16892	168	-20	2	-11856	1684	11628	141	-65	-161	-15332	720	-6640	67	-51	154	-2352	-556	16724	-1	-146	221	125	126	5
-11068	-4480	10636	-149	176	-153	-13980	2372	-8164	-35	-71	-38	-1856	-816	16932	194	-27	4	-11944	1720	11588	127	-75	-155	-15252	780	-6576	76	-33	147	-2384	-512	16720	-5	-134	217	125	127	5
-10972	-4532	10604	-132	152	-179	-13992	2412	-8300	-3	-10	-43	-1828	-916	16996	179	18	39	-11916	1720	11584	112	-74	-161	-15288	768	-6488	55	-29	160	-2344	-528	16608	32	-130	199	125	126	5
-11040	-4492	10416	-141	175	-155	-13944	2424	-8172	-28	-25	-89	-1924	-892	16996	163	-9	20	-11916	1720	11428	132	-68	-161	-15284	784	-6460	49	-2	151	-2344	-624	16676	15	-123	206	125	127	5
-11036	-4612	10440	-111	201	-153	-13912	2392	-8236	17	-15	-50	-1868	-864	16876	190	-2	5	-11932	1732	11544	136	-33	-150	-15240	736	-6536	45	48	171	-2428	-568	16632	37	-147	234	125	127	5
-10956	-4524	10520	-118	169	-145	-13952	2368	-8204	8	21	-28	-1852	-936	17044	159	-23	1	-11932	1716	11600	122	-48	-160	-15272	768	-6504	90	1	175	-2400	-512	16620	-14	-132	201	125	126	5
-11040	-4576	10488	-106	149	-164	-13956	2416	-8228	-27	9	-49	-1804	-924	17088	231	13	14	-11908	1776	11484	125	-68	-164	-15216	732	-6496	58	10	165	-2432	-576	16668	-9	-126	213	125	127	5
-10964	-4524	10616	-76	188	-180	-14000	2404	-8184	-6	7	25	-1912	-856	16956	237	17	8	-11876	1704	11508	120	-17	-165	-15272	696	-6596	52	60	211	-2448	-628	16740	12	-116	231	125	126	5
-11028	-4492	10532	-92	158	-134	-13960	2428	-8248	-18	-7	-16	-1960	-792	17004	229	-4	1	-11896	1776	11632	136	-43	-143	-15264	784	-6484	75	34	179	-2556	-592	16700	20	-144	206	125	127	5
-11024	-4564	10504	-99	170	-133	-13928	2440	-8172	-11	-11	-26	-1920	-792	16980	182	-15	6	-11912	1684	11568	125	2	-168	-15276	772	-6636	46	17	139	-2552	-540	16652	29	-140	209	125	126	5
-11020	-4552	10632	-86	145	-192	-13908	2512	-8180	5	-34	-14	-2036	-748	16908	196	-8	6	-11928	1732	11560	112	-16	-155	-15200	808	-6620	55	0	181	-2488	-592	16704	14	-148	198	125	126	5
-11004	-4532	10568	-93	147	-160	-13928	2432	-8204	15	-48	-63	-2016	-772	16916	157	-33	27	-11928	1736	11596	115	-45	-179	-15276	748	-6656	39	-35	162	-2476	-516	16712	-11	-172	205	125	126	5
-11036	-4596	10552	-78	146	-149	-13912	2440	-8220	5	-106	-69	-1944	-768	16988	164	-17	43	-11924	1692	11560	133	-56	-161	-15252	772	-6384	50	-40	146	-2444	-552	16768	40	-151	242	125	127	5
-10984	-4532	10532	-115	119	-185	-13976	2456	-8348	-26	-85	-77	-1904	-796	17040	185	-30	33	-11908	1744	11508	120	-51	-179	-15240	832	-6600	49	-53	146	-2444	-556	16780	28	-135	239	125	126	5
-10992	-4564	10672	-138	170	-195	-14040	2388	-8132	28	-102	-98	-1880	-808	17000	137	-42	58	-11916	1728	11488	149	-80	-125	-15272	728	-6564	29	-32	151	-2360	-560	16624	53	-141	249	125	126	5
-11056	-4536	10604	-152	181	-186	-13964	2392	-8180	-12	-64	-105	-1872	-948	16952	152	-18	71	-11908	1784	11704	96	-42	-152	-15236	736	-6512	63	-27	127	-2408	-528	16720	16	-156	269	125	127	5
-10984	-4476	10436	-127	178	-159	-13940	2348	-8108	-20	-98	-83	-1800	-852	17040	180	-10	40	-11944	1712	11620	128	-40	-180	-15284	740	-6512	105	-15	143	-2428	-536	16712	-3	-140	211	125	127	5
-11016	-4532	10632	-95	166	-144	-14016	2392	-8180	-2	-47	-81	-1856	-936	17056	184	-6	22	-11992	1732	11476	96	-50	-143	-15224	768	-6504	56	-52	175	-2432	-612	16596	-19	-154	226	125	127	5
-11028	-4556	10608	-100	161	-187	-13992	2340	-8244	11	-15	-40	-1880	-988	16984	219	-19	16	-11924	1688	11640	120	-72	-152	-15296	788	-6424	82	-34	168	-2416	-600	16672	-7	-163	228	125	126	5
-11116	-4592	10436	-101	184	-142	-13932	2360	-8292	0	-40	-69	-1788	-912	16968	217	1	48	-11864	1712	11580	120	-65	-169	-15260	728	-6492	28	-34	143	-2360	-668	16748	25	-120	207	125	126	5
-11000	-4536	10472	-76	164	-145	-13928	2408	-8164	-63	-23	1	-1884	-864	17008	218	5	5	-11864	1684	11584	107	-34	-152	-15236	748	-6516	41	-20	190	-2468	-672	16780	44	-105	206	125	127	5
-11048	-4516	10456	-101	129	-183	-13968	2376	-8200	0	-18	-38	-1908	-836	16884	197	-20	-11	-12000	1720	11560	140	-47	-140	-15280	712	-6552	73	-42	224	-2452	-564	16712	33	-140	223	125	126	5
-11036	-4560	10492	-86	149	-161	-13924	2356	-8072	-36	-67	3	-1856	-820	16956	247	5	14	-11948	1764	11572	125	-12	-124	-15264	748	-6544	110	-51	213	-2492	-600	16596	49	-127	195	125	126	5
-11056	-4544	10480	-68	190	-179	-13956	2408	-8284	12	-18	-25	-1884	-744	16956	200	18	3	-11944	1692	11664	122	-10	-191	-15256	808	-6436	48	-28	248	-2480	-552	16712	66	-116	176	125	126	5
-11024	-4532	10500	-77	181	-170	-13988	2456	-8204	-13	-16	-14	-1948	-784	16948	176	-2	-3	-11956	1724	11680	106	-48	-166	-15212	884	-6456	33	19	170	-2412	-456	16748	10	-141	203	125	127	5
-10968	-4544	10588	-99	185	-160	-13908	2384	-8224	-16	-33	-12	-1964	-828	16980	215	-5	13	-11924	1724	11544	126	-41	-160	-15260	740	-6648	39	-24	180	-2400	-492	16672	18	-118	205	125	126	5
-11020	-4592	10520	-116	132	-160	-13980	2364	-8184	-12	-25	-27	-1944	-832	16976	224	-31	20	-11904	1752	11616	154	-49	-146	-15268	804	-6484	30	-28	144	-2500	-524	16632	3	-96	215	125	126	5
-11044	-4540	10536	-157	151	-173	-13976	2412	-8236	-1	-19	-75	-1900	-776	17044	201	-4	14	-11812	1808	11500	109	3	-167	-15316	792	-6624	75	-5	111	-2424	-484	16668	27	-118	224	125	126	5
-10960	-4552	10572	-129	150	-177	-13984	2424	-8308	-8	-33	-51	-1928	-784	16956	135	-9	10	-11856	1724	11504	123	-79	-198	-15276	780	-6460	57	-12	103	-2484	-556	16604	-44	-155	249	125	126	5
-11076	-4592	10552	-178	194	-203	-13936	2472	-8204	-33	-52	-18	-1988	-764	17084	174	0	21	-11916	1772	11472	126	-77	-170	-15236	788	-6544	87	-34	158	-2460	-616	16752	-30	-162	222	125	127	5
-10980	-4508	10584	-154	154	-185	-13952	2432	-8304	1	-35	-81	-1944	-792	17076	171	-21	53	-11960	1760	11568	138	-38	-165	-15280	764	-6552	43	-2	147	-2448	-652	16676	-7	-127	246	125	126	5
-11040	-4564	10596	-103	181	-198	-13940	2404	-8208	-6	-34	-108	-1896	-856	17076	168	-49	58	-11936	1748	11576	93	-92	-171	-15308	808	-6488	9	-36	133	-2464	-644	16568	40	-148	242	125	127	5
-11020	-4544	10612	-95	167	-182	-13900	2368	-8232	-19	-45	-64	-1920	-896	16952	189	-63	49	-11952	1776	11552	104	-35	-180	-15240	816	-6472	26	-22	109	-2420	-600	16696	49	-133	247	125	126	5
-11024	-4532	10532	-84	190	-167	-13960	2396	-8344	37	-45	-92	-1960	-864	16960	144	-18	29	-11924	1760	11548	117	-15	-185	-15252	744	-6520	68	-52	178	-2464	-556	16628	27	-139	235	125	127	5
-11044	-4528	10588	-96	170	-190	-13980	2400	-8264	1	-74	-56	-1860	-912	17000	157	-23	53	-11844	1780	11608	120	-47	-139	-15196	792	-6548	87	-31	174	-2492	-568	16584	-53	-180	233	125	126	5
-11040	-4584	10624	-84	174	-168	-13980	2436	-8212	-49	-93	-48	-1832	-956	16960	200	-23	7	-11964	1756	11564	125	-39	-163	-15232	796	-6568	66	-34	151	-2408	-636	16812	-39	-125	200	125	126	5
-10972	-4552	10572	-63	163	-182	-14044	2384	-8172	-4	-23	-31	-1864	-916	16968	197	-9	-17	-11932	1716	11576	139	-52	-143	-15252	712	-6528	62	-30	161	-2408	-664	16736	31	-139	187	125	127	5
-11008	-4588	10608	-101	157	-143	-13940	2384	-8136	4	-48	10	-1824	-864	16984	213	-16	-7	-11924	1708	11600	119	-17	-167	-15276	732	-6600	46	-55	180	-2368	-680	16640	56	-127	251	125	126	5
-10984	-4616	10528	-71	159	-132	-13964	2388	-8152	-28	-38	-25	-1772	-904	16944	200	-18	25	-11932	1740	11660	132	-55	-171	-15248	736	-6408	68	5	188	-2408	-580	16772	35	-121	230	125	126	5
-11052	-4564	10556	-87	159	-113	-13940	2412	-8224	-12	-32	-42	-1900	-904	17052	199	-7	16	-11916	1708	11480	128	-61	-122	-15224	760	-6632	53	-23	203	-2400	-572	16636	45	-106	211	125	126	5
-11088	-4488	10536	-91	191	-163	-13980	2368	-8248	-8	-27	18	-1896	-864	16936	218	-3	11	-11916	1692	11520	138	-39	-129	-15268	800	-6552	60	19	228	-2392	-520	16692	22	-153	214	125	127	5
-11068	-4580	10508	-83	169	-164	-13968	2388	-8232	-48	-29	-7	-1880	-836	17012	221	-23	22	-11960	1720	11524	167	-26	-148	-15300	876	-6552	36	-26	205	-2472	-480	16656	14	-161	188	125	126	5
-11020	-4564	10648	-118	156	-180	-13936	2372	-8184	0	-34	8	-1896	-788	17020	180	-19	23	-11964	1724	11572	130	-37	-169	-15296	836	-6484	48	-10	159	-2468	-544	16668	31	-136	189	125	127	5
-11004	-4496	10600	-98	166	-142	-13932	2432	-8236	18	5	-18	-1988	-812	16976	180	12	37	-11872	1768	11532	162	-97	-176	-15280	824	-6560	36	-40	164	-2464	-604	16748	-3	-123	228	125	127	5
-10972	-4532	10532	-132	139	-155	-13932	2492	-8288	-16	-31	-40	-1932	-796	16876	200	12	-8	-11976	1752	11548	157	-20	-162	-15260	832	-6564	50	12	146	-2492	-528	16704	33	-120	209	125	127	5
-11020	-4532	10524	-107	156	-195	-13900	2420	-8220	21	-5	-60	-1956	-788	16920	205	-22	10	-11956	1724	11660	118	-99	-144	-15280	864	-6484	81	25	138	-2488	-484	16672	31	-141	209	125	127	5
-10988	-4544	10584	-77	197	-166	-13888	2408	-8208	2	-42	-6	-1940	-784	16904	196	-11	22	-11968	1784	11560	95	-36	-159	-15328	768	-6560	57	0	155	-2440	-536	16592	10	-145	212	125	127	5
-11012	-4528	10596	-99	176	-143	-13920	2344	-8252	1	-98	-57	-1900	-780	16944	144	-29	46	-11940	1756	11612	111	-59	-157	-15316	748	-6528	40	-12	138	-2416	-548	16676	-27	-148	215	125	126	5
-11020	-4528	10592	-171	152	-160	-13920	2412	-8208	-16	-69	-49	-1952	-816	16872	145	-67	20	-11948	1744	11556	117	-51	-185	-15232	756	-6520	49	-58	131	-2460	-596	16640	-8	-143	224	125	127	5
-11012	-4500	10568	-115	186	-185	-13936	2348	-8100	-14	-51	-77	-1860	-876	17020	181	6	62	-11936	1712	11568	76	-92	-174	-15212	800	-6592	47	0	102	-2432	-636	16676	-17	-157	246	125	127	5
-11016	-4588	10488	-107	158	-162	-13972	2368	-8304	-36	-3	-68	-1872	-808	16944	180	29	34	-11876	1732	11584	96	-58	-170	-15224	752	-6540	47	-31	150	-2372	-684	16636	40	-140	227	125	127	5
-11028	-4564	10504	-109	176	-162	-13984	2420	-8096	8	-82	-72	-1820	-864	17212	150	-28	55	-11956	1696	11588	92	-41	-155	-15284	732	-6572	65	-16	153	-2480	-584	16772	24	-153	236	125	127	5
-11068	-4568	10556	-123	196	-175	-13976	2380	-8164	-13	-35	-57	-1852	-896	16968	175	-8	56	-11916	1736	11632	132	-8	-154	-15232	844	-6496	74	6	165	-2444	-536	16684	37	-132	215	125	126	5
-10980	-4528	10560	-106	158	-146	-13964	2316	-8084	-17	-41	-51	-1844	-964	16980	185	-21	35	-11904	1792	11576	156	-14	-176	-15256	712	-6516	7	-38	168	-2468	-572	16720	14	-114	229	125	127	5
-10996	-4548	10616	-121	185	-177	-13940	2328	-8224	-19	-54	-64	-1852	-860	16984	190	5	36	-11888	1756	11556	136	-69	-155	-15244	780	-6476	57	-12	172	-2420	-616	16592	37	-137	250	125	126	5
-11048	-4488	10568	-97	171	-137	-13924	2356	-8240	-15	-33	-22	-1932	-868	16932	241	-29	31	-11932	1696	11600	133	0	-160	-15224	728	-6652	48	24	190	-2384	-640	16628	-26	-134	163	125	127	5
-11012	-4568	10668	-89	169	-145	-13968	2436	-8052	-13	-36	-48	-1860	-840	16992	220	0	11	-11932	1772	11572	129	-59	-170	-15264	736	-6512	84	-24	205	-2424	-628	16736	53	-126	178	125	126	5
-11080	-4584	10548	-104	150	-132	-13932	2440	-8208	15	-58	-6	-1940	-748	16904	219	-11	25	-11916	1768	11592	119	-34	-162	-15204	764	-6592	80	-10	186	-2484	-572	16748	40	-143	192	125	126	5
-11060	-4552	10616	-66	162	-158	-13912	2436	-8264	11	-4	-19	-1868	-828	16940	188	-31	35	-11964	1704	11488	105	-41	-136	-15304	760	-6536	76	-38	180	-2492	-584	16740	62	-121	179	125	127	5
-10996	-4560	10552	-89	159	-142	-13992	2456	-8312	-27	-40	-20	-1968	-848	16964	185	-15	18	-11924	1728	11528	103	-30	-145	-15300	808	-6548	26	9	189	-2468	-568	16608	42	-119	212	125	127	5
-11016	-4536	10560	-112	165	-204	-13900	2444	-8176	3	-29	-14	-1940	-904	17068	186	-9	8	-12000	1748	11512	110	-48	-139	-15284	780	-6400	53	-9	182	-2480	-584	16708	60	-130	196	125	126	5
-11032	-4492	10508	-87	166	-164	-13900	2384	-8248	-21	-53	-44	-1936	-872	16968	190	-12	20	-11968	1732	11576	144	-90	-148	-15276	768	-6444	2	-32	179	-2388	-548	16576	17	-150	212	125	126	5
-11012	-4540	10464	-99	136	-171	-13932	2400	-8268	-33	-75	-38	-1916	-788	16964	205	-9	34	-11972	1744	11576	114	-17	-148	-15284	812	-6620	88	-46	171	-2436	-588	16764	4	-160	204	125	127	5
-10984	-4516	10592	-101	154	-162	-13932	2444	-8084	-24	-69	-44	-1876	-804	16988	227	-9	22	-11984	1740	11620	125	-58	-168	-15256	824	-6588	86	11	135	-2472	-624	16716	-14	-118	220	125	126	5
-11000	-4544	10612	-126	189	-143	-13936	2376	-8204	-16	-12	8	-1908	-724	17128	181	14	46	-11908	1684	11560	118	-60	-185	-15296	792	-6528	47	-10	165	-2488	-608	16656	42	-121	258	125	126	5
-11008	-4528	10536	-91	184	-167	-13952	2408	-8256	12	-57	-41	-1856	-784	17024	179	-33	18	-11932	1780	11548	123	-52	-166	-15280	832	-6556	9	-42	179	-2432	-544	16744	62	-123	214	125	127	5
-11072	-4532	10524	-126	181	-187	-13868	2408	-8248	5	-52	-48	-1924	-880	16960	203	-9	5	-11904	1756	11636	110	-37	-185	-15232	788	-6456	51	-54	125	-2448	-512	16656	78	-90	259	125	127	5
-11004	-4520	10552	-173	144	-183	-13984	2388	-8272	-14	-21	-25	-1932	-904	16980	192	-2	12	-11932	1680	11588	111	-91	-192	-15264	828	-6540	54	-40	143	-2356	-524	16556	18	-146	256	125	126	5
-10988	-4524	10548	-125	134	-179	-14024	2428	-8224	-24	-26	-1	-1892	-948	17084	201	-6	5	-11988	1716	11600	143	-71	-166	-15264	772	-6540	76	-23	165	-2428	-564	16624	0	-151	227	125	126	5
-11032	-4592	10556	-159	151	-177	-13956	2424	-8096	-19	-76	-17	-1888	-836	17088	230	-27	30	-11936	1700	11576	133	-45	-182	-15328	768	-6476	84	-38	161	-2376	-588	16672	29	-136	188	125	126	5
-11052	-4528	10592	-135	164	-179	-13968	2424	-8208	21	-20	1	-1844	-872	16924	232	-11	27	-11932	1704	11640	128	-12	-159	-15276	768	-6536	46	-15	163	-2516	-680	16632	7	-141	209	125	127	5
-11032	-4592	10604	-147	164	-162	-13976	2416	-8152	-17	-22	-34	-1912	-764	16912	157	-13	20	-11928	1760	11728	138	-38	-174	-15292	752	-6480	36	-42	179	-2520	-584	16636	54	-118	210	125	126	5
-11048	-4600	10596	-84	186	-162	-13972	2396	-8228	-17	-41	-11	-1980	-824	16904	165	4	13	-12004	1716	11616	87	-46	-140	-15272	744	-6608	14	-26	189	-2488	-608	16544	59	-143	210	125	127	5
-11028	-4592	10596	-67	153	-168	-13996	2360	-8228	32	-62	-45	-1916	-888	16872	180	-24	35	-11956	1704	11576	107	-25	-165	-15308	852	-6652	39	-26	209	-2476	-608	16640	72	-118	226	125	126	5
-11000	-4596	10656	-108	143	-205	-14036	2452	-8280	-6	-41	-33	-1988	-868	16956	187	-10	11	-11880	1684	11640	149	-70	-168	-15248	720	-6548	37	4	176	-2540	-452	16732	39	-130	228	125	126	5
-11068	-4472	10576	-76	166	-161	-13960	2388	-8152	-9	-33	-39	-1908	-916	16952	206	-37	32	-11920	1776	11596	76	-49	-142	-15308	796	-6596	61	-54	188	-2448	-592	16724	7	-128	212	125	126	5
-11060	-4524	10536	-89	163	-145	-13944	2424	-8196	-16	-69	-66	-1892	-848	17020	201	-13	-4	-11952	1692	11540	131	-65	-160	-15244	772	-6592	35	0	134	-2488	-596	16700	11	-133	217	125	126	5
-11016	-4564	10632	-77	151	-167	-13964	2352	-8096	1	-26	-13	-1884	-872	16928	190	-18	49	-11872	1736	11544	102	-45	-113	-15264	780	-6536	51	-13	221	-2388	-584	16708	2	-131	234	125	127	5
-10952	-4600	10596	-103	167	-167	-13984	2444	-8072	-15	-4	-30	-1876	-840	16976	183	1	37	-11928	1776	11576	114	-49	-162	-15272	744	-6500	56	-18	158	-2400	-568	16620	21	-136	237	125	127	5
-11036	-4608	10524	-85	158	-173	-13920	2384	-8224	-9	-29	-55	-1976	-856	17028	178	11	28	-11920	1728	11444	120	-5	-157	-15260	728	-6448	30	-67	163	-2424	-628	16656	31	-149	196	125	127	5
-10980	-4532	10636	-86	155	-189	-13920	2452	-8172	-2	-59	-67	-1896	-844	16996	193	-47	27	-11956	1736	11608	123	-28	-160	-15236	740	-6544	61	15	164	-2472	-580	16672	64	-133	222	125	127	5
-11068	-4576	10580	-121	149	-200	-13996	2412	-8184	35	-29	2	-1920	-800	16948	157	-26	35	-11924	1716	11560	97	-64	-163	-15288	812	-6492	68	-25	164	-2456	-504	16700	64	-141	242	125	126	5
-11060	-4536	10552	-122	150	-157	-13968	2368	-8236	-37	-32	-17	-1860	-852	17012	190	-19	28	-11924	1712	11456	110	-18	-173	-15296	836	-6472	43	-9	149	-2468	-532	16644	6	-136	205	125	126	5
-10956	-4528	10612	-90	158	-135	-14020	2360	-8204	-16	-35	-31	-1928	-876	16984	183	8	3	-11908	1748	11564	119	-30	-182	-15240	752	-6520	43	-16	188	-2428	-580	16708	-13	-135	249	125	126	5
-11040	-4588	10472	-106	148	-138	-13980	2448	-8108	7	-38	-18	-1852	-852	16912	210	20	2	-11980	1788	11536	82	-58	-191	-15212	760	-6556	55	7	165	-2452	-548	16656	7	-110	219	125	127	5
-10948	-4552	10428	-120	170	-170	-13944	2420	-8252	-25	-17	-52	-1896	-912	17044	193	-12	-19	-11924	1780	11652	128	-57	-172	-15272	820	-6616	72	0	181	-2452	-632	16596	35	-139	242	125	127	5
-11044	-4576	10472	-90	140	-160	-13956	2416	-8256	-53	-57	-44	-1944	-828	17064	165	-32	42	-11976	1632	11548	114	-92	-159	-15264	824	-6500	45	-14	161	-2416	-596	16656	13	-156	211	125	127	5
-10996	-4528	10672	-109	175	-161	-13932	2456	-8164	-12	-59	-29	-1880	-840	17056	196	-21	-20	-11888	1748	11504	85	-40	-154	-15296	788	-6536	47	15	174	-2456	-552	16544	-2	-125	228	125	126	5
-10948	-4624	10560	-125	164	-152	-13916	2444	-8220	-10	-65	-78	-1872	-888	17068	211	-5	27	-11980	1752	11544	140	-75	-157	-15300	768	-6616	46	-7	172	-2472	-520	16704	10	-150	212	125	126	5
-10988	-4604	10552	-98	177	-186	-13956	2412	-8324	-10	-53	-35	-1928	-876	16972	150	6	28	-11976	1764	11600	119	-9	-124	-15208	748	-6412	19	5	169	-2404	-600	16640	0	-161	203	125	126	5
-11076	-4552	10652	-132	146	-141	-13992	2348	-8280	-2	-35	-38	-1860	-844	17032	191	0	24	-11932	1768	11672	128	-52	-150	-15312	764	-6640	57	-33	146	-2408	-612	16616	23	-147	226	125	127	5
-11020	-4564	10476	-114	178	-157	-13964	2364	-8112	-17	-55	-57	-1836	-860	16916	161	-36	40	-11944	1696	11588	85	-28	-168	-15304	768	-6616	57	-31	144	-2388	-592	16716	39	-107	231	125	127	5
-11040	-4616	10604	-59	156	-201	-14016	2404	-8204	-10	-57	-44	-1872	-904	16972	206	-11	62	-11952	1724	11600	116	-75	-147	-15248	712	-6500	83	-23	153	-2456	-568	16648	19	-134	244	125	126	5
-10996	-4568	10604	-118	164	-158	-13932	2380	-8192	22	-54	-21	-1872	-812	16900	197	-20	8	-11900	1676	11604	124	-44	-176	-15304	772	-6532	49	-12	184	-2484	-576	16740	35	-154	243	125	126	5
-11036	-4468	10508	-71	170	-168	-13976	2392	-8160	-10	-65	-81	-1864	-840	16908	174	-5	26	-11892	1708	11636	127	-9	-171	-15268	808	-6484	55	-20	133	-2452	-600	16680	44	-147	225	125	126	5
-11064	-4588	10648	-81	171	-158	-13972	2392	-8216	17	-68	-24	-1920	-808	16940	175	-15	-7	-11912	1716	11580	102	-60	-164	-15224	756	-6556	36	-26	167	-2388	-596	16652	15	-145	207	125	126	5
-11032	-4540	10480	-98	163	-158	-14000	2364	-8212	-9	-38	-33	-1912	-864	17136	172	-22	53	-11944	1760	11620	132	-85	-185	-15288	780	-6472	29	-2	147	-2456	-548	16636	-21	-114	231	125	126	5
-11048	-4556	10612	-102	152	-158	-13932	2400	-8144	5	-45	-31	-1920	-876	16912	199	26	45	-11884	1816	11612	148	-91	-143	-15296	776	-6588	47	-38	159	-2476	-548	16776	12	-169	223	124	126	5
-10952	-4540	10676	-98	139	-169	-13924	2500	-8276	-7	-48	-40	-1920	-864	16944	178	45	20	-11924	1748	11532	113	-40	-149	-15248	816	-6496	61	-20	148	-2412	-556	16676	42	-138	241	125	126	5
-11072	-4616	10568	-100	172	-180	-13972	2328	-8280	16	-37	-28	-1956	-904	17044	177	11	21	-11952	1784	11600	104	-48	-169	-15252	800	-6612	95	-35	163	-2480	-604	16748	35	-108	246	125	127	5
-10996	-4520	10656	-99	142	-142	-13976	2368	-8280	14	-51	-5	-1904	-836	17000	199	-29	4	-11904	1800	11472	104	-53	-153	-15272	736	-6644	70	-7	153	-2368	-576	16688	15	-152	228	125	126	5
-11020	-4500	10612	-82	183	-168	-13936	2436	-8220	-48	-28	-59	-1952	-820	17056	242	11	30	-11932	1732	11544	125	-67	-189	-15280	728	-6468	67	-10	181	-2424	-676	16564	12	-160	219	125	126	5
-11040	-4492	10676	-81	136	-157	-13956	2376	-8288	-32	-41	-47	-1872	-848	17160	212	-11	42	-11964	1680	11604	124	-45	-161	-15328	728	-6536	53	23	192	-2392	-612	16712	31	-179	227	124	126	5
-11008	-4592	10548	-111	148	-161	-14000	2416	-8212	4	-16	-31	-1856	-864	16872	224	-16	53	-11948	1712	11584	112	-61	-113	-15260	856	-6620	61	16	197	-2324	-592	16748	40	-129	219	125	126	5
-11036	-4548	10560	-73	142	-193	-13992	2416	-8180	-24	-56	-44	-1888	-840	17072	200	-10	37	-11956	1724	11560	140	-72	-163	-15288	812	-6552	-1	15	199	-2392	-564	16764	94	-109	218	125	126	5
-10952	-4524	10664	-49	126	-177	-13888	2384	-8204	-4	-71	1	-1892	-956	17048	108	-11	30	-11916	1680	11608	94	-23	-170	-15232	828	-6520	-10	9	192	-2456	-508	16736	126	-97	248	125	126	5
-11000	-4548	10552	-96	180	-136	-13972	2416	-8244	4	-35	-4	-1892	-892	16896	110	-59	32	-11884	1728	11536	120	-12	-195	-15248	772	-6596	18	18	179	-2396	-560	16756	73	-89	247	125	126	5
-11036	-4536	10504	-108	184	-152	-13960	2448	-8136	-61	-49	-12	-1788	-864	16972	300	57	51	-11916	1756	11684	141	-11	-162	-15296	804	-6576	53	3	188	-2480	-556	16768	105	-102	251	125	126	5
-10948	-4536	10524	-107	163	-165	-13916	2372	-8184	-67	-34	-11	-1924	-904	16996	269	-35	15	-11940	1780	11484	141	-77	-179	-15248	776	-6568	61	23	199	-2492	-608	16624	33	-112	199	125	126	5
-11064	-4540	10624	-148	126	-150	-13948	2424	-8284	-45	-37	18	-1956	-760	17060	214	9	21	-11920	1752	11520	146	-61	-183	-15244	840	-6572	27	35	165	-2488	-540	16552	31	-146	228	125	126	5
-11044	-4524	10596	-134	165	-187	-13980	2444	-8292	-5	-24	10	-1912	-732	17132	224	7	-8	-11932	1788	11532	170	-26	-130	-15324	852	-6644	7	51	180	-2492	-496	16808	29	-142	200	125	126	5
-11084	-4532	10536	-135	168	-149	-13968	2516	-8272	-30	-56	0	-2024	-728	16968	216	-8	6	-11952	1780	11612	108	-38	-159	-15244	804	-6508	-5	-29	177	-2528	-448	16652	41	-131	178	125	126	5
-11012	-4536	10520	-96	171	-174	-13984	2484	-8180	-6	-37	-5	-1944	-764	17096	151	-1	7	-11928	1732	11612	92	-11	-165	-15304	764	-6596	51	-7	134	-2476	-516	16672	44	-136	188	125	126	5
-11008	-4568	10592	-69	176	-193	-13860	2480	-8272	14	-26	-27	-2000	-772	16992	166	0	21	-11884	1744	11452	71	-70	-165	-15316	832	-6584	69	-24	160	-2476	-500	16648	5	-133	224	125	127	5
-11000	-4512	10644	-81	159	-199	-13888	2412	-8172	23	-44	-51	-2036	-804	16988	130	-47	7	-11904	1740	11572	114	-51	-186	-15240	880	-6512	101	0	125	-2496	-416	16660	-29	-154	238	125	126	5
-11060	-4640	10576	-85	163	-166	-13972	2516	-8324	46	-97	-42	-2064	-752	16948	156	-23	15	-11892	1764	11640	89	-52	-202	-15296	752	-6512	54	-13	89	-2476	-496	16700	-49	-158	247	125	126	5
-11036	-4540	10596	-83	182	-189	-13972	2512	-8192	8	-66	-116	-1884	-792	17024	143	4	15	-11964	1760	11616	65	-97	-190	-15240	768	-6568	48	-39	67	-2432	-568	16764	-76	-153	246	125	126	5
-10988	-4544	10620	-96	159	-192	-13944	2388	-8232	-25	-96	-79	-1920	-792	16948	143	-58	33	-11940	1780	11528	83	-38	-188	-15272	780	-6580	92	-6	79	-2368	-652	16688	-45	-142	254	125	126	5
-11008	-4492	10552	-82	177	-193	-13980	2440	-8232	3	-45	-80	-1908	-844	17032	103	-50	40	-11904	1660	11512	82	-71	-176	-15288	728	-6460	76	-49	110	-2392	-696	16624	-26	-136	227	125	126	5
-11012	-4624	10548	-92	139	-162	-13948	2444	-8100	18	-51	-114	-1856	-884	16996	120	-27	21	-11912	1728	11544	84	-23	-198	-15236	656	-6432	87	-42	152	-2380	-676	16792	32	-133	229	125	126	5
-11044	-4556	10520	-88	180	-181	-14008	2400	-8080	17	-51	-75	-1840	-956	17024	139	-6	43	-11972	1748	11576	112	-57	-173	-15312	684	-6540	26	42	115	-2352	-628	16684	55	-110	264	125	126	5
-10936	-4532	10564	-89	163	-191	-14016	2300	-8248	9	-42	-73	-1732	-1032	17008	187	-5	43	-11904	1740	11536	111	-57	-155	-15252	740	-6532	10	-5	173	-2372	-680	16720	47	-131	209	125	126	5
-10928	-4604	10560	-116	125	-170	-13980	2336	-8244	-24	-21	-29	-1792	-944	16972	201	6	30	-11920	1684	11544	128	-43	-167	-15240	716	-6608	71	-20	169	-2372	-608	16640	13	-109	181	125	126	5
-11000	-4536	10600	-113	177	-181	-13892	2352	-8140	-43	3	-16	-1760	-956	16888	247	35	1	-11956	1756	11564	147	-30	-149	-15288	756	-6632	50	26	226	-2504	-692	16644	54	-100	183	125	126	5
-10968	-4488	10608	-126	165	-136	-13940	2280	-8212	-6	-1	16	-1960	-892	16972	260	5	-2	-11952	1696	11636	134	-40	-163	-15208	776	-6652	67	-7	192	-2484	-676	16696	38	-134	194	125	126	5
-10956	-4532	10508	-70	158	-135	-13976	2372	-8176	-28	-11	25	-1984	-832	16940	267	47	13	-11912	1644	11536	118	-24	-139	-15200	828	-6680	52	-14	208	-2488	-684	16676	42	-152	178	125	126	5
-11068	-4504	10616	-81	168	-133	-13896	2456	-8196	-21	-32	74	-2028	-764	16964	211	-17	4	-11964	1748	11588	126	-23	-135	-15244	728	-6588	77	-34	248	-2540	-632	16684	80	-127	164	125	126	5
-10980	-4552	10448	-57	133	-146	-13928	2512	-8216	-25	-58	0	-2020	-800	16988	184	0	25	-11956	1748	11504	134	-51	-116	-15228	824	-6476	40	-86	160	-2576	-468	16820	89	-140	219	125	126	5
-11044	-4504	10636	-44	135	-139	-13932	2448	-8260	-1	-57	-10	-2012	-772	17036	200	-19	-4	-11888	1760	11644	122	-41	-123	-15276	884	-6560	26	-49	167	-2552	-512	16716	59	-131	188	125	126	5
-10968	-4520	10656	-86	138	-166	-13872	2460	-8236	15	-85	-8	-2000	-692	16948	195	-48	18	-12000	1680	11492	123	-49	-116	-15216	872	-6500	56	-70	125	-2516	-480	16636	54	-152	254	125	126	5
-11008	-4568	10628	-43	131	-179	-13944	2532	-8136	-20	-75	-78	-1940	-776	16876	157	-37	21	-11944	1720	11596	107	-77	-160	-15240	836	-6424	44	-38	165	-2408	-500	16704	21	-138	232	125	126	5
-11060	-4512	10588	-148	153	-210	-13948	2436	-8176	-27	-77	-117	-1880	-780	16996	175	-57	51	-11944	1784	11560	129	-46	-151	-15256	776	-6420	53	-29	165	-2332	-400	16760	17	-142	239	125	126	5
-10980	-4480	10536	-116	203	-206	-13980	2412	-8240	8	-79	-111	-1884	-788	16860	141	-28	49	-11892	1768	11564	135	-32	-148	-15284	748	-6536	94	4	132	-2364	-416	16736	6	-155	271	125	126	5
-11040	-4580	10524	-131	143	-179	-13940	2452	-8172	4	-31	-46	-1792	-788	17024	164	-18	63	-11972	1752	11552	126	-73	-182	-15244	796	-6584	41	-14	157	-2448	-512	16540	10	-127	227	125	126	5
-11052	-4536	10516	-123	195	-190	-13992	2344	-8148	-35	-27	-115	-1836	-892	16996	169	-35	38	-11884	1748	11568	93	-25	-130	-15296	796	-6588	73	26	112	-2392	-544	16712	-1	-129	234	125	126	5
-11028	-4564	10568	-110	171	-163	-13992	2360	-8164	-11	-52	-86	-1900	-820	17016	150	-5	41	-11944	1700	11528	78	-50	-140	-15244	760	-6552	55	-10	149	-2440	-544	16624	-76	-160	239	125	126	5
-11040	-4564	10580	-91	159	-161	-14004	2368	-8196	3	-19	-41	-1844	-908	16940	170	-35	39	-11948	1752	11552	109	-90	-207	-15240	816	-6584	42	27	122	-2520	-620	16716	-35	-153	224	125	126	5
-11032	-4476	10472	-87	160	-153	-13976	2328	-8280	0	-14	-18	-1864	-872	16940	136	-31	3	-11864	1704	11640	98	8	-139	-15236	840	-6600	47	-3	99	-2448	-612	16628	-21	-119	267	125	126	5
-11068	-4540	10604	-112	195	-154	-13996	2392	-8376	4	-14	-36	-1920	-868	17032	188	0	19	-11908	1716	11652	116	-56	-176	-15304	784	-6620	52	-20	107	-2472	-712	16724	9	-135	236	125	126	5
-11040	-4548	10524	-96	168	-177	-13936	2412	-8208	-39	-8	7	-1952	-964	16952	190	8	6	-11908	1688	11520	119	-64	-145	-15260	748	-6660	41	-31	141	-2456	-660	16600	4	-156	206	125	127	5
-11032	-4568	10544	-87	192	-152	-13920	2408	-8176	-48	-29	10	-1892	-816	17020	218	-15	25	-11904	1708	11588	140	-29	-157	-15280	768	-6512	74	-24	197	-2508	-616	16636	70	-122	177	125	126	5
-11024	-4524	10528	-109	152	-177	-13932	2436	-8248	-55	-38	-21	-1936	-768	17028	180	-15	10	-11912	1712	11660	117	-34	-153	-15260	784	-6660	38	-48	188	-2400	-684	16684	67	-128	209	125	126	5
-11008	-4540	10700	-93	178	-145	-13908	2444	-8192	-22	-43	-45	-1900	-784	16928	213	-28	6	-11904	1684	11540	143	5	-156	-15284	768	-6584	23	-41	183	-2432	-524	16672	82	-147	209	125	126	5
-10960	-4608	10572	-96	132	-195	-13972	2416	-8280	0	-68	-32	-1916	-892	16964	200	-20	43	-11904	1720	11592	149	-52	-146	-15280	748	-6520	57	-14	167	-2420	-468	16648	42	-152	216	125	126	5
-11036	-4540	10652	-118	152	-159	-13988	2360	-8232	-8	-10	-37	-1880	-832	17020	190	-20	21	-11968	1724	11644	126	-59	-184	-15320	816	-6432	58	-37	152	-2428	-500	16704	29	-178	217	125	127	5
-11004	-4500	10524	-71	169	-174	-13980	2384	-8220	-8	-64	2	-1880	-880	16932	161	-10	14	-11924	1712	11584	129	-77	-159	-15228	836	-6504	41	-33	179	-2464	-460	16640	42	-151	242	125	126	5
-11016	-4512	10620	-96	144	-142	-13936	2424	-8244	6	-30	-45	-1904	-864	17028	179	-9	14	-11948	1752	11588	133	-99	-166	-15280	820	-6528	69	0	145	-2384	-472	16716	12	-169	192	125	127	5
-11076	-4568	10544	-136	169	-194	-14000	2432	-8252	-11	-76	-51	-1864	-828	17080	200	-36	19	-11952	1700	11536	128	-108	-166	-15248	728	-6536	29	-12	160	-2376	-524	16704	-46	-151	248	125	127	5
-10960	-4544	10600	-141	171	-192	-13940	2508	-8068	-32	-33	-61	-1840	-800	16908	174	-9	38	-11916	1780	11536	136	-56	-169	-15280	828	-6660	43	30	138	-2440	-544	16816	-21	-149	207	125	126	5
-10968	-4516	10520	-167	143	-185	-13976	2424	-8200	-43	-20	-77	-1920	-788	16996	219	-18	9	-11840	1800	11560	148	-56	-202	-15276	704	-6628	55	-26	132	-2448	-672	16752	-4	-124	239	125	127	5
-10988	-4524	10464	-139	154	-223	-13968	2412	-8204	1	20	-91	-1936	-804	16972	157	-15	84	-11900	1728	11560	139	-40	-176	-15240	712	-6624	71	20	118	-2432	-640	16756	29	-133	256	125	126	5
-11016	-4608	10716	-150	167	-202	-13996	2476	-8184	15	-17	-57	-1900	-732	16960	142	-41	62	-12004	1756	11676	97	-5	-149	-15252	788	-6676	70	-53	139	-2432	-608	16660	38	-174	207	125	126	5
-11008	-4588	10688	-134	161	-177	-13928	2416	-8184	-41	-22	-53	-1876	-908	16888	169	-8	8	-11876	1692	11564	101	-51	-162	-15272	788	-6524	73	-13	164	-2488	-596	16580	-2	-146	180	125	126	5
-10984	-4552	10552	-132	188	-200	-13924	2356	-8276	-4	-3	-61	-1916	-948	16972	153	-39	-25	-11904	1724	11624	101	-29	-136	-15224	876	-6532	60	-16	153	-2404	-572	16716	32	-132	223	125	126	5
-10936	-4552	10560	-85	162	-177	-13968	2376	-8168	56	-89	-45	-1864	-984	17076	153	10	29	-11912	1788	11420	75	-44	-191	-15288	868	-6420	40	3	145	-2376	-528	16712	-3	-152	205	125	126	5
-11036	-4544	10536	-108	160	-178	-13936	2440	-8196	3	-43	-23	-1868	-940	17000	189	-33	10	-11912	1696	11628	111	-50	-189	-15296	712	-6560	86	21	126	-2456	-572	16668	-43	-130	242	125	126	5
-11048	-4600	10620	-75	167	-176	-13992	2412	-8284	-42	-41	-32	-1904	-848	16988	195	-3	36	-11936	1700	11528	115	-38	-153	-15212	748	-6496	77	1	103	-2360	-708	16656	-46	-168	228	125	127	5
-11044	-4528	10528	-49	150	-177	-14024	2420	-8232	-37	-66	-28	-1872	-772	16908	204	-40	54	-11960	1688	11560	114	-72	-163	-15288	676	-6560	103	8	151	-2436	-692	16676	-23	-182	232	125	126	5
-11052	-4516	10572	-55	166	-181	-13976	2396	-8192	-2	-56	-6	-1892	-780	16852	209	-33	41	-11908	1732	11620	128	6	-173	-15272	728	-6564	82	-29	152	-2508	-720	16668	58	-145	238	125	127	5
-11040	-4532	10516	-65	149	-175	-13920	2360	-8240	-3	-55	-52	-1904	-788	16996	189	-77	7	-12000	1676	11512	147	-57	-120	-15216	780	-6604	28	-38	152	-2448	-564	16660	70	-156	212	125	126	5
-11004	-4588	10568	-72	168	-137	-13920	2436	-8152	-2	-31	-42	-1860	-800	16920	176	-16	23	-11920	1744	11504	157	-14	-184	-15220	692	-6636	26	-13	197	-2392	-612	16688	74	-137	200	125	126	5
-11060	-4548	10540	-91	169	-143	-14036	2420	-8204	-11	-52	-44	-1912	-928	17000	204	-34	57	-11960	1796	11532	167	-39	-159	-15244	772	-6512	69	-20	188	-2368	-596	16640	23	-144	190	125	126	5
-11028	-4500	10500	-92	125	-148	-13992	2416	-8108	-18	-18	-53	-1856	-868	17064	183	-21	29	-11988	1748	11668	126	-60	-139	-15280	808	-6648	99	-7	180	-2484	-532	16732	17	-159	192	125	126	5
-11088	-4528	10552	-97	155	-167	-13948	2436	-8232	-28	-49	-50	-1928	-876	16916	204	-26	25	-11880	1752	11516	137	-8	-171	-15204	840	-6600	82	-37	163	-2448	-480	16560	35	-129	234	125	126	5
-11016	-4492	10588	-102	150	-207	-13952	2416	-8128	11	-17	-43	-1940	-904	17088	197	-19	45	-11940	1812	11556	93	-4	-145	-15240	880	-6600	69	-15	183	-2472	-488	16728	1	-142	237	125	127	5
-11004	-4560	10660	-100	138	-179	-13976	2400	-8292	21	-66	-31	-1848	-924	16976	183	-37	25	-11904	1752	11540	122	-45	-185	-15248	852	-6472	26	-6	135	-2472	-552	16688	-3	-115	258	125	127	5
-10992	-4628	10572	-114	149	-167	-13936	2460	-8172	-27	18	-18	-1892	-864	17004	172	-10	12	-11944	1740	11580	81	-19	-168	-15256	748	-6440	65	-20	108	-2380	-512	16704	14	-133	244	125	126	5
-11036	-4508	10512	-89	119	-149	-13880	2384	-8196	-32	6	-25	-1964	-816	16976	188	0	24	-11880	1736	11552	93	-65	-193	-15208	776	-6588	71	-3	132	-2492	-660	16636	-5	-130	221	125	126	5
-10944	-4552	10572	-106	166	-159	-13960	2440	-8204	6	-28	-49	-1908	-760	16940	195	4	43	-11948	1732	11624	119	-63	-168	-15216	748	-6520	93	-7	140	-2440	-652	16764	-18	-150	230	125	126	5
-11000	-4556	10508	-100	179	-181	-13948	2368	-8164	-28	-83	-44	-1968	-776	16972	151	-61	34	-11980	1692	11600	101	-16	-182	-15268	716	-6700	56	24	187	-2444	-572	16756	1	-157	218	125	126	5
-11084	-4548	10588	-132	151	-192	-13948	2404	-8232	-28	-13	-47	-1876	-780	16904	149	-54	20	-12020	1736	11624	118	-66	-133	-15248	848	-6560	7	-21	167	-2444	-620	16668	27	-125	210	125	126	5
-11048	-4536	10672	-114	155	-182	-14040	2384	-8148	-1	-20	-97	-1864	-932	17088	185	-29	33	-11920	1716	11600	100	-24	-142	-15228	776	-6528	25	-22	153	-2468	-632	16656	48	-128	223	125	126	5
-11040	-4552	10620	-106	167	-191	-13972	2424	-8220	-2	-38	-39	-1884	-876	16920	176	-22	46	-11932	1776	11600	109	-57	-175	-15192	764	-6576	11	-58	126	-2456	-584	16708	18	-128	224	125	126	5
-11020	-4580	10572	-91	195	-181	-13956	2400	-8128	-30	-17	-51	-1892	-900	17004	165	9	19	-11944	1728	11620	91	-70	-170	-15292	748	-6408	80	7	173	-2444	-552	16740	-3	-143	223	125	126	5
-11044	-4568	10552	-123	185	-169	-13896	2340	-8104	-23	-63	-49	-1920	-864	16912	198	14	16	-11972	1700	11496	104	-29	-160	-15300	764	-6556	78	-11	159	-2464	-540	16720	-8	-183	257	125	127	5
-11040	-4564	10588	-78	159	-153	-13948	2384	-8200	-38	-50	-41	-1896	-840	17048	211	17	30	-11868	1740	11524	106	-19	-169	-15300	768	-6564	55	-14	150	-2368	-576	16708	2	-149	232	125	127	5
-11056	-4560	10544	-94	157	-152	-13916	2504	-8160	-23	-59	0	-1868	-808	17108	209	-18	5	-11948	1728	11588	116	-95	-174	-15260	792	-6556	16	-38	164	-2456	-676	16668	15	-128	217	125	126	5
