#Activity	standing 
#ActivityID	8 
#Date 09-09-18-15
acc_rf_x	acc_rf_y	acc_rf_z	gyro_rf_x	gyro_rf_y	gyro_rf_z	acc_rs_x	acc_rs_y	acc_rs_z	gyro_rs_x	gyro_rs_y	gyro_rs_z	acc_rt_x	acc_rt_y	acc_rt_z	gyro_rt_x	gyro_rt_y	gyro_rt_z	acc_lf_x	acc_lf_y	acc_lf_z	gyro_lf_x	gyro_lf_y	gyro_lf_z	acc_ls_x	acc_ls_y	acc_ls_z	gyro_ls_x	gyro_ls_y	gyro_ls_z	acc_lt_x	acc_lt_y	acc_lt_z	gyro_lt_x	gyro_lt_y	gyro_lt_z	EMG_r	EMG_l	act
-11748	-2084	10624	-17	18	-24	-15464	-3720	-2144	-26	-6	-10	-15608	-544	-4040	-18	-19	3	-12296	4568	10280	91	-68	-154	-16444	-2404	-1052	-108	-11	83	-16028	1448	-2640	-41	-21	-68	122	127	8
-11752	-2148	10544	-10	16	-26	-15504	-3880	-2112	-26	-8	-8	-15512	-752	-4432	-22	-16	1	-12304	4632	10084	81	-81	-157	-16400	-2548	-1048	-112	-40	103	-16128	1364	-2576	-74	-15	-9	124	127	8
-11744	-2124	10720	-15	13	-23	-15648	-3960	-2224	-1	-13	-4	-15912	-632	-4144	-16	-23	0	-12288	4484	10224	122	-57	-163	-16496	-2584	-1140	-59	-9	105	-16192	1336	-2364	-76	-16	38	126	127	8
-11780	-2156	10644	-11	15	-26	-15640	-3856	-2072	-14	-17	-7	-15968	-888	-3960	-17	-29	5	-12320	4588	10128	116	-48	-127	-16404	-2556	-996	-41	-19	115	-16156	1376	-2364	22	36	14	126	127	8
-11712	-2156	10632	-15	19	-25	-15416	-3856	-1752	-32	-10	-10	-15736	-968	-3928	-22	-26	8	-12296	4568	10184	96	-32	-131	-16416	-2440	-1156	-19	27	132	-16132	1432	-2452	31	81	15	125	127	8
-11688	-2156	10664	-18	16	-20	-15480	-3952	-1880	-32	-15	-12	-15880	-952	-3880	-22	-24	10	-12280	4532	10308	82	-52	-174	-16480	-2380	-1132	-127	31	142	-15976	1452	-2548	-4	194	22	124	127	8
-11764	-2200	10676	-11	19	-21	-15512	-3928	-1816	3	0	1	-15768	-1032	-3912	-15	-6	12	-12324	4572	10300	90	16	-163	-16384	-2536	-1180	-25	38	137	-16056	1404	-2588	-46	170	6	126	127	8
-11768	-2132	10668	-9	17	-25	-15624	-3832	-1896	7	6	2	-15848	-984	-4080	-4	-4	11	-12236	4620	10264	124	-9	-140	-16428	-2576	-1064	-7	43	179	-16032	1280	-2576	-44	160	-12	126	127	8
-11748	-2096	10696	-7	16	-18	-15528	-3960	-1904	-6	1	5	-15848	-904	-4144	-1	4	21	-12304	4516	10288	139	26	-169	-16436	-2528	-1128	66	82	194	-16064	1320	-2620	43	153	-29	124	128	8
-11736	-2120	10700	-8	16	-18	-15696	-3816	-1816	-9	6	4	-15816	-832	-3928	6	-3	27	-12332	4632	10120	137	-27	-117	-16460	-2444	-1220	31	38	182	-16092	1328	-2644	94	137	18	124	128	8
-11688	-2104	10680	-12	17	-22	-15512	-3688	-2024	-5	7	4	-15696	-784	-4128	10	-2	30	-12316	4536	10144	114	-1	-138	-16360	-2576	-1284	30	16	179	-16008	1312	-2584	156	108	80	124	127	8
-11712	-2136	10604	-13	18	-20	-15472	-3832	-1880	3	6	7	-15696	-784	-4040	17	-12	27	-12280	4568	10312	164	24	-103	-16388	-2636	-1180	92	4	211	-15992	1276	-2656	248	51	91	126	127	8
-11752	-2124	10580	-10	20	-21	-15608	-3864	-2040	3	8	9	-15656	-776	-4240	17	-18	29	-12276	4476	10256	178	52	-68	-16476	-2552	-1104	117	82	202	-16080	1304	-2608	326	58	73	126	128	8
-11824	-2072	10692	-9	21	-20	-15560	-3816	-2208	4	5	7	-15848	-656	-4112	16	-18	27	-12320	4536	10232	194	25	-49	-16412	-2476	-1152	120	39	272	-16012	1280	-2732	341	69	68	127	127	8
-11784	-2116	10652	-8	17	-22	-15584	-3776	-2056	-2	4	8	-15760	-696	-4136	9	-27	30	-12332	4560	10276	207	85	-17	-16400	-2640	-1316	257	44	257	-15952	1304	-2664	481	38	43	127	127	8
-11756	-2072	10644	-11	17	-20	-15488	-3888	-2040	1	1	2	-15792	-664	-4184	1	-26	23	-12376	4660	10192	220	63	-44	-16532	-2412	-1140	445	36	271	-16104	1408	-2820	555	55	85	128	127	8
-11748	-2068	10592	-10	19	-25	-15616	-3864	-1976	-7	-6	5	-15664	-528	-3856	-4	-22	22	-12356	4632	10240	177	5	-74	-16480	-2332	-1104	290	-2	266	-16076	1520	-2716	455	-31	144	130	127	8
-11844	-2120	10708	-15	18	-23	-15520	-3880	-2072	0	-7	0	-15616	-696	-4104	-5	-25	22	-12380	4640	10120	179	7	-82	-16440	-2376	-1148	136	-113	231	-16060	1520	-2624	373	-116	181	128	127	8
-11696	-2032	10748	-13	16	-22	-15536	-3952	-2040	0	-14	6	-15672	-704	-4232	-9	-27	23	-12328	4564	10172	156	19	-101	-16384	-2524	-1128	148	-77	260	-15992	1416	-2488	408	-114	125	127	127	8
-11760	-2076	10668	-8	16	-25	-15384	-3832	-1880	-9	-9	2	-15552	-720	-4088	-1	-36	23	-12320	4624	10276	182	36	-53	-16492	-2428	-1184	185	-28	254	-16048	1268	-2608	479	-95	82	126	126	8
-11828	-2064	10672	-12	15	-23	-15624	-3912	-1960	-4	-10	1	-15792	-824	-3816	1	-35	27	-12356	4596	10188	218	12	-38	-16344	-2388	-1136	291	-88	282	-16048	1376	-2620	533	-95	134	126	127	8
-11764	-2128	10656	-9	15	-18	-15568	-3984	-1928	8	-6	1	-15888	-712	-3928	3	-35	22	-12292	4580	10212	180	18	-92	-16300	-2352	-1148	362	-34	238	-16060	1460	-2488	562	-150	169	129	127	8
-11756	-2152	10756	-11	14	-23	-15656	-3856	-2128	2	-6	3	-15760	-560	-4008	-3	-30	28	-12328	4612	10196	160	5	-79	-16496	-2372	-1124	475	-11	241	-16060	1468	-2432	675	-160	132	129	127	8
-11804	-2108	10640	-13	14	-27	-15472	-3808	-2280	-8	-10	5	-15632	-664	-4064	-1	-34	25	-12296	4652	10244	177	10	-71	-16452	-2372	-1148	400	14	257	-16096	1480	-2516	688	-167	182	128	127	8
-11692	-2080	10784	-11	11	-22	-15696	-3752	-1960	-3	-10	2	-15712	-592	-4208	-4	-32	29	-12276	4640	10192	177	22	-48	-16388	-2332	-1164	297	-94	225	-16044	1520	-2504	551	-124	213	127	127	8
-11804	-2156	10656	-7	16	-21	-15648	-3936	-1912	22	-9	0	-15808	-696	-3976	-12	-27	27	-12324	4548	10132	149	-2	-89	-16368	-2496	-1136	344	-26	264	-15936	1460	-2512	591	-123	144	126	128	8
-11780	-2088	10608	-12	16	-21	-15696	-3672	-2224	15	-5	3	-15720	-408	-3968	-5	-24	21	-12300	4624	10104	205	20	-102	-16432	-2528	-1156	584	33	232	-16064	1404	-2432	661	-51	153	125	128	8
-11764	-2092	10604	-11	11	-21	-15704	-3728	-2056	-7	-19	3	-15696	-608	-3976	-5	-25	22	-12340	4532	10148	187	25	-56	-16380	-2572	-1056	668	13	277	-16060	1292	-2324	680	-115	90	124	127	8
-11732	-2096	10712	-12	18	-21	-15544	-3800	-1992	-5	-17	2	-15768	-632	-3984	-6	-37	21	-12268	4612	10240	219	40	-51	-16512	-2384	-1032	673	83	240	-16084	1504	-2348	734	-121	98	124	127	8
-11780	-2080	10692	-13	16	-19	-15472	-3888	-1888	6	-17	1	-15696	-720	-3904	-5	-39	17	-12384	4724	10164	191	31	-55	-16504	-2284	-1076	412	38	239	-16040	1504	-2468	718	-78	75	124	127	8
-11804	-2096	10644	-10	17	-18	-15552	-3552	-2056	-2	-20	3	-15680	-440	-4016	-12	-38	18	-12336	4628	10252	167	56	-84	-16436	-2288	-1088	161	-37	221	-16036	1596	-2760	467	-55	154	126	127	8
-11764	-2112	10676	-13	18	-23	-15648	-3872	-1872	-16	-24	-2	-15976	-576	-4000	-9	-37	19	-12340	4592	10240	159	59	-64	-16416	-2372	-1056	4	-83	202	-16044	1580	-2572	318	-46	115	126	127	8
-11792	-2052	10644	-11	14	-23	-15648	-3776	-1960	-2	-15	-9	-15768	-472	-3680	-19	-34	20	-12292	4712	10196	191	45	-93	-16476	-2448	-1028	60	-58	202	-16128	1476	-2496	266	-20	44	124	127	8
-11688	-2056	10672	-14	20	-24	-15672	-3784	-2024	1	-15	-2	-15792	-584	-4056	-24	-31	15	-12316	4664	10192	168	67	-78	-16388	-2392	-1212	123	-46	239	-16060	1504	-2436	196	-40	67	123	126	8
-11772	-2096	10588	-15	13	-23	-15560	-3784	-1968	-1	-14	-1	-15704	-720	-3752	-18	-26	13	-12328	4660	10212	175	19	-69	-16400	-2304	-1080	76	-59	214	-16012	1596	-2504	224	-56	46	122	127	8
-11692	-2156	10688	-15	14	-21	-15504	-3728	-1944	-5	-20	-3	-15712	-832	-3784	-15	-22	13	-12396	4648	10180	193	10	-118	-16500	-2396	-1136	-6	-57	201	-16100	1516	-2460	154	-15	44	123	127	8
-11768	-2124	10624	-14	17	-29	-15600	-3824	-1952	-5	-14	-4	-15832	-736	-3688	-16	-24	16	-12336	4644	10168	155	-3	-106	-16408	-2428	-1212	-20	-81	176	-16120	1364	-2508	96	36	14	123	127	8
-11832	-2120	10684	-9	20	-24	-15432	-3840	-1968	-12	-16	-1	-15712	-792	-3648	-11	-26	18	-12240	4604	10156	172	36	-119	-16412	-2380	-1088	86	-61	191	-15980	1448	-2448	206	7	9	123	127	8
-11780	-2132	10680	-14	12	-24	-15496	-3856	-2224	-4	-10	-2	-15792	-672	-4112	-15	-25	16	-12320	4628	10196	190	32	-91	-16440	-2320	-1076	146	-15	167	-16060	1476	-2556	275	31	56	124	127	8
-11752	-2152	10568	-12	18	-23	-15632	-3688	-1760	4	-3	-3	-15832	-696	-3872	-6	-22	17	-12348	4608	10176	188	6	-116	-16400	-2328	-1176	116	-1	170	-16016	1416	-2464	277	12	62	126	127	8
-11776	-2100	10700	-9	12	-27	-15480	-3784	-1848	3	-7	-2	-15776	-648	-3928	-7	-22	19	-12376	4620	10176	156	32	-124	-16464	-2468	-1028	143	-28	179	-16020	1496	-2452	301	35	77	126	127	8
-11712	-2108	10668	-10	13	-24	-15520	-3800	-1984	-4	-7	-5	-15720	-544	-4112	0	-16	18	-12340	4632	10236	182	5	-115	-16452	-2272	-1112	185	24	187	-16000	1544	-2504	330	-49	74	125	128	8
-11880	-2088	10792	-10	15	-21	-15496	-3808	-1976	10	-6	-8	-15744	-648	-3856	-8	-18	20	-12356	4724	10184	147	15	-113	-16396	-2224	-1164	-18	-13	101	-15972	1544	-2472	284	-97	38	125	128	8
-11800	-2116	10676	-10	16	-16	-15600	-3912	-1976	10	-7	-8	-15712	-712	-3960	-3	-21	15	-12268	4668	10152	133	11	-132	-16396	-2452	-1076	39	54	100	-16044	1564	-2572	203	-36	2	125	128	8
-11728	-2144	10648	-7	13	-18	-15560	-3800	-2272	12	-7	-9	-15736	-640	-3904	-2	-25	8	-12316	4588	10124	160	-31	-133	-16420	-2448	-1200	129	24	109	-16080	1344	-2556	135	18	-13	125	128	8
-11716	-2060	10648	-6	14	-18	-15416	-3696	-1808	12	-10	-7	-15720	-632	-3768	-8	-23	14	-12316	4604	10276	201	39	-91	-16456	-2456	-1280	148	29	165	-16100	1276	-2604	239	50	-34	125	128	8
-11736	-2100	10656	-6	16	-16	-15624	-3976	-1888	14	-9	-5	-15792	-672	-3808	-9	-20	16	-12348	4696	10120	169	52	-117	-16436	-2320	-1052	195	24	121	-16028	1436	-2532	293	19	14	124	128	8
-11740	-1988	10668	-10	13	-20	-15512	-3728	-1888	20	-4	-4	-15696	-632	-3864	-5	-16	12	-12304	4628	10116	156	36	-112	-16444	-2384	-1004	52	-3	144	-16032	1432	-2432	161	24	36	126	128	8
-11704	-2088	10568	-8	11	-23	-15632	-3568	-1880	5	-9	-11	-15776	-744	-3992	4	-19	10	-12304	4664	10200	195	-21	-128	-16428	-2452	-1124	-8	82	141	-16016	1448	-2332	131	-8	33	127	128	8
-11744	-2096	10632	-13	17	-23	-15656	-3880	-1976	3	-6	-9	-15896	-784	-3880	-2	-24	9	-12300	4704	10136	181	62	-120	-16448	-2424	-1072	45	54	171	-16080	1512	-2296	217	-13	-22	126	128	8
-11736	-2044	10660	-8	17	-24	-15600	-3752	-2048	-4	2	-9	-15872	-776	-3544	-8	-20	10	-12296	4668	10200	210	71	-110	-16472	-2348	-1184	19	12	120	-16052	1512	-2456	167	-3	13	126	127	8
-11744	-2100	10664	-14	14	-19	-15672	-3728	-1912	9	8	-6	-15808	-656	-4016	-13	-17	10	-12332	4652	10124	194	27	-90	-16344	-2440	-1152	45	30	97	-16024	1404	-2364	191	31	-22	126	127	8
-11788	-2028	10736	-10	16	-19	-15584	-3872	-2072	17	6	-7	-15720	-664	-3840	-11	-12	8	-12356	4704	10056	237	63	-74	-16472	-2432	-1248	185	58	98	-15944	1532	-2572	241	96	-49	126	127	8
-11748	-2024	10584	-7	16	-22	-15496	-3816	-2000	6	0	-10	-15920	-632	-3912	-6	-14	9	-12332	4692	10280	181	62	-77	-16440	-2280	-1156	190	99	114	-16040	1500	-2576	217	139	-27	126	127	8
-11776	-2128	10652	-12	17	-25	-15576	-3560	-1864	-8	-3	-7	-15640	-608	-3880	0	-17	7	-12404	4680	10104	186	10	-96	-16432	-2308	-1152	-10	54	107	-15956	1500	-2572	122	72	-55	127	127	8
-11732	-2028	10600	-12	14	-23	-15672	-3688	-2136	-26	-6	-11	-15784	-560	-3920	-4	-18	10	-12400	4712	10040	193	57	-100	-16444	-2472	-1084	64	67	92	-16064	1428	-2624	101	21	-57	126	127	8
-11724	-2004	10644	-8	13	-16	-15512	-3808	-1896	-6	0	-11	-15800	-696	-3960	-9	-12	11	-12348	4668	10156	169	55	-94	-16440	-2320	-1172	-5	38	121	-16116	1500	-2532	129	84	-52	125	127	8
-11744	-2132	10756	-15	18	-24	-15632	-3736	-1888	8	2	-13	-15856	-648	-3752	1	-7	14	-12412	4704	10080	134	33	-118	-16456	-2332	-1236	-36	11	89	-15992	1448	-2500	80	11	-27	125	128	8
-11792	-2108	10700	-14	17	-27	-15576	-3784	-1960	2	5	-8	-15816	-704	-3688	4	-5	14	-12332	4728	10132	143	12	-96	-16428	-2320	-1124	69	84	116	-16108	1492	-2428	86	83	-38	125	128	8
-11756	-2104	10600	-9	15	-24	-15600	-3832	-2056	-6	2	-7	-15824	-648	-3944	11	-4	12	-12364	4604	10188	130	-24	-180	-16424	-2384	-1148	1	73	81	-16020	1528	-2560	64	128	-16	125	128	8
-11800	-2124	10628	-12	19	-25	-15624	-3664	-1872	-3	4	-9	-15960	-688	-3976	13	-3	13	-12372	4608	10132	111	-28	-141	-16428	-2508	-1260	35	18	94	-16032	1320	-2576	93	134	-78	125	127	8
-11708	-2048	10780	-14	20	-24	-15608	-3792	-2176	0	9	-12	-15960	-768	-3960	16	-2	14	-12332	4652	10160	162	-9	-116	-16408	-2464	-1348	176	67	79	-16052	1232	-2660	208	97	-63	125	127	8
-11688	-2092	10668	-12	22	-26	-15560	-3784	-2144	2	7	-6	-15696	-736	-4032	24	6	16	-12392	4724	10084	131	18	-142	-16488	-2336	-1228	192	71	94	-16136	1324	-2568	241	72	-69	125	127	8
-11732	-2092	10684	-14	19	-27	-15560	-3840	-1808	1	7	-13	-15752	-656	-4168	22	-1	18	-12396	4756	10160	153	-20	-112	-16368	-2344	-1228	183	25	77	-16084	1420	-2668	309	66	-10	126	127	8
-11724	-2060	10664	-8	18	-23	-15472	-3800	-2056	10	11	-8	-15720	-600	-3896	22	1	22	-12316	4748	10208	117	-23	-127	-16484	-2364	-1224	192	13	110	-15992	1436	-2704	357	41	53	126	127	8
-11708	-2060	10748	-13	14	-25	-15520	-3880	-1960	19	9	-10	-15800	-616	-3816	27	-2	22	-12348	4708	10040	114	-20	-165	-16428	-2400	-1228	162	18	52	-16028	1448	-2712	406	4	22	126	127	8
-11820	-2092	10760	-11	15	-26	-15616	-3912	-1952	6	8	-5	-15768	-672	-3880	31	1	23	-12368	4740	10096	135	23	-164	-16444	-2364	-1228	225	-9	100	-16064	1424	-2648	373	47	51	124	127	8
-11752	-2080	10644	-12	17	-28	-15656	-3656	-2096	2	6	-11	-15752	-736	-4144	31	5	26	-12452	4660	10116	134	-63	-144	-16424	-2292	-1208	247	8	81	-15996	1436	-2660	329	28	32	124	127	8
-11760	-2096	10636	-12	15	-23	-15576	-3792	-2024	-2	10	-10	-15768	-704	-4064	38	0	23	-12316	4652	10136	119	-91	-178	-16508	-2380	-1100	91	-69	51	-16044	1464	-2492	243	-43	46	125	128	8
-11768	-2100	10600	-10	18	-18	-15608	-3664	-2120	16	10	-12	-15736	-824	-3920	43	6	28	-12348	4684	10148	81	-84	-165	-16436	-2468	-1136	55	-24	62	-16136	1468	-2448	223	-20	48	124	130	8
-11712	-2092	10628	-13	13	-23	-15544	-3744	-1920	18	12	-9	-15752	-744	-3832	49	11	30	-12332	4628	10204	100	-107	-199	-16432	-2512	-1144	95	-29	64	-16028	1452	-2524	187	84	29	124	128	8
-11772	-2112	10652	-15	13	-24	-15552	-3800	-1880	18	14	-6	-15656	-872	-4056	53	16	30	-12280	4688	10228	58	-30	-170	-16416	-2408	-1196	69	-32	70	-16116	1300	-2544	65	123	40	121	128	8
-11808	-2136	10612	-7	14	-24	-15624	-3872	-1976	15	15	-9	-15760	-808	-4072	58	20	33	-12348	4676	10076	149	-79	-192	-16476	-2392	-1112	-44	-48	83	-16036	1336	-2648	80	88	48	121	129	8
-11804	-2096	10712	-13	16	-24	-15552	-3696	-2032	18	19	-2	-15760	-808	-3920	61	16	38	-12352	4676	10144	120	-84	-185	-16324	-2428	-1228	-128	-32	89	-16044	1356	-2424	92	102	63	121	129	8
-11780	-2084	10696	-10	14	-16	-15536	-3848	-1864	20	15	-6	-15800	-680	-4040	58	18	42	-12280	4672	10256	111	-80	-159	-16440	-2476	-1260	-59	-54	94	-15960	1340	-2616	56	46	65	122	128	8
-11772	-2032	10668	-12	15	-22	-15504	-3728	-1904	19	22	-6	-15616	-760	-4304	60	19	43	-12408	4696	10172	124	-49	-204	-16424	-2456	-1236	39	-18	121	-16112	1364	-2488	174	14	102	122	129	8
-11704	-2032	10632	-5	16	-20	-15568	-3736	-1944	21	14	0	-15720	-608	-3920	64	14	41	-12356	4692	10224	109	-96	-217	-16368	-2416	-1312	126	-61	107	-16020	1420	-2620	113	-17	112	121	129	8
-11760	-2144	10668	-7	13	-21	-15552	-3704	-1992	23	15	-4	-15696	-640	-4008	61	14	41	-12312	4592	10156	85	-117	-244	-16400	-2448	-1128	107	15	100	-15944	1344	-2480	73	-33	134	122	127	8
-11732	-2132	10716	-8	15	-20	-15640	-3808	-2128	22	16	-1	-15848	-608	-4120	60	14	39	-12260	4700	10188	80	-99	-200	-16384	-2452	-1252	45	-51	120	-16044	1288	-2460	81	4	93	123	127	8
-11796	-2108	10680	-6	13	-23	-15608	-3832	-2304	25	21	-7	-15576	-688	-4000	58	12	38	-12336	4676	10180	114	-54	-170	-16444	-2560	-1160	-21	-64	121	-16092	1276	-2664	115	-8	94	124	127	8
-11792	-2024	10652	-11	16	-20	-15696	-3792	-2072	19	20	-2	-15840	-688	-4176	52	15	37	-12388	4648	10176	123	-48	-155	-16392	-2552	-1236	-9	-40	177	-16116	1340	-2724	241	40	122	126	127	8
-11744	-2076	10712	-4	15	-23	-15600	-3800	-2144	16	12	-3	-15768	-800	-4232	56	12	37	-12320	4668	10168	107	51	-160	-16408	-2600	-1212	151	6	183	-16020	1252	-2568	295	45	71	126	126	8
-11816	-2024	10692	-9	12	-22	-15520	-3792	-1912	16	17	-5	-15664	-760	-3968	53	9	37	-12340	4600	10060	155	-8	-151	-16436	-2388	-1180	245	-21	128	-16040	1328	-2616	339	53	110	126	126	8
-11688	-2088	10720	-13	16	-18	-15624	-3784	-2080	19	16	-4	-15704	-584	-4192	56	8	38	-12304	4664	10184	158	6	-126	-16344	-2484	-1212	142	-5	140	-16024	1412	-2636	444	29	109	127	126	8
-11760	-2068	10596	-12	18	-23	-15520	-3840	-1968	23	18	-4	-15760	-640	-4144	46	3	37	-12348	4664	10240	164	41	-96	-16420	-2500	-1192	154	14	132	-16036	1372	-2648	588	-3	109	127	126	8
-11744	-2076	10632	-9	18	-20	-15600	-3824	-2256	23	15	-2	-15696	-712	-4056	48	4	39	-12340	4640	10204	166	1	-169	-16408	-2464	-1184	265	-3	122	-15976	1396	-2652	649	18	126	128	126	8
-11744	-1980	10668	-16	17	-19	-15512	-3864	-2216	18	15	1	-15792	-632	-4256	44	7	40	-12280	4700	10236	194	12	-143	-16484	-2532	-1232	290	-9	181	-16040	1432	-2788	726	26	106	128	126	8
-11776	-2104	10580	-10	18	-20	-15560	-3944	-2104	18	16	-4	-15552	-640	-3888	40	6	36	-12420	4600	10120	208	27	-126	-16440	-2452	-1220	319	-43	111	-16024	1516	-2656	650	-15	112	127	126	8
-11736	-2092	10644	-11	12	-23	-15544	-3704	-2192	17	14	-3	-15704	-576	-4248	34	4	32	-12316	4636	10220	204	-30	-125	-16332	-2456	-1208	280	-49	154	-16016	1480	-2644	568	-37	105	127	127	8
-11676	-2116	10736	-14	15	-24	-15400	-3784	-1880	12	10	-4	-15624	-576	-4184	36	5	31	-12380	4680	10232	182	-14	-135	-16392	-2444	-1308	275	-61	151	-16096	1436	-2516	580	-78	70	126	126	8
-11760	-2140	10660	-11	16	-20	-15448	-3792	-2032	10	17	-5	-15696	-640	-4152	34	1	31	-12328	4652	10228	159	22	-157	-16488	-2460	-1252	198	-38	130	-16088	1384	-2512	515	-39	104	125	126	8
-11760	-2036	10668	-11	19	-21	-15536	-3816	-2208	13	11	-6	-15664	-544	-4224	31	4	31	-12304	4712	10224	186	25	-120	-16468	-2380	-1060	69	-83	135	-15972	1516	-2608	502	-58	81	125	127	8
-11724	-2040	10664	-12	16	-21	-15440	-3752	-2168	20	13	-7	-15816	-664	-4200	36	-2	31	-12284	4720	10104	164	30	-165	-16380	-2504	-1212	32	-84	121	-16044	1460	-2584	482	-33	94	125	128	8
-11764	-2048	10664	-12	15	-26	-15504	-3888	-2184	26	7	-5	-15720	-680	-4032	37	4	34	-12364	4684	10044	169	36	-139	-16468	-2476	-1276	152	-125	134	-16044	1448	-2648	414	-5	81	126	127	8
-11772	-2128	10672	-10	15	-23	-15568	-3752	-2056	14	9	-9	-15768	-712	-4096	49	-4	37	-12328	4648	10120	153	35	-157	-16376	-2528	-1132	320	-62	123	-16108	1340	-2496	419	-30	80	126	128	8
-11784	-2056	10592	-16	18	-19	-15568	-3976	-1992	20	15	-1	-15800	-648	-4040	52	0	32	-12264	4708	10112	203	-3	-97	-16460	-2432	-1120	344	6	153	-16136	1376	-2484	523	-73	99	126	127	8
-11696	-2104	10672	-12	17	-24	-15616	-3840	-2216	20	13	0	-15720	-584	-4312	53	-3	30	-12356	4640	10204	201	2	-126	-16396	-2412	-1156	205	-35	122	-16060	1512	-2448	522	-124	114	126	128	8
-11764	-2076	10708	-11	20	-26	-15512	-3784	-1904	23	15	-3	-15552	-568	-4288	48	2	34	-12336	4696	10180	154	-40	-123	-16396	-2428	-1204	139	-74	106	-15956	1608	-2588	495	-101	74	126	128	8
-11760	-2080	10768	-12	19	-24	-15624	-3824	-1896	12	13	-9	-15640	-560	-4120	41	-3	32	-12324	4708	10064	120	-7	-134	-16388	-2476	-1220	127	-34	127	-15968	1448	-2508	437	-59	51	126	127	8
-11748	-2044	10676	-9	15	-23	-15600	-3920	-1680	13	10	-10	-15736	-608	-4064	40	-3	29	-12352	4656	10048	151	-71	-127	-16420	-2480	-1088	260	-101	128	-16016	1372	-2520	398	-11	49	125	127	8
-11728	-2040	10744	-9	19	-25	-15672	-3832	-1904	10	13	-11	-15696	-560	-3840	26	0	28	-12376	4724	10200	131	-31	-140	-16504	-2476	-1176	321	-47	126	-16060	1436	-2576	392	-26	35	125	127	8
-11764	-2112	10616	-13	16	-18	-15496	-3752	-2288	7	12	-8	-15632	-584	-4168	18	-4	23	-12324	4672	10108	162	-56	-100	-16320	-2388	-1076	165	-53	85	-16072	1484	-2500	421	-62	78	124	127	8
-11752	-2088	10600	-14	15	-26	-15536	-3696	-2040	-1	8	-7	-15696	-616	-4312	23	-3	22	-12324	4632	10184	140	6	-132	-16380	-2476	-1200	83	-96	104	-16024	1472	-2512	372	-70	62	125	127	8
-11772	-2132	10684	-9	14	-25	-15560	-3856	-2048	1	6	-12	-15712	-632	-4336	27	-7	22	-12388	4668	10132	103	-28	-128	-16360	-2568	-1152	145	-47	85	-16028	1480	-2492	328	-67	49	126	127	8
-11736	-2040	10660	-18	17	-26	-15656	-3920	-2184	7	12	-6	-15664	-752	-4168	20	-8	16	-12348	4672	10120	117	-8	-114	-16368	-2516	-1116	247	-12	111	-16000	1416	-2404	377	27	-15	127	126	8
-11812	-2052	10668	-13	16	-25	-15568	-3808	-2200	9	15	-6	-15672	-728	-4248	25	-11	17	-12312	4660	10192	129	-95	-136	-16372	-2440	-1180	281	35	116	-16056	1484	-2516	308	44	26	127	126	8
-11704	-2072	10728	-13	22	-23	-15424	-3776	-2488	4	16	-10	-15664	-688	-4264	13	-9	17	-12336	4692	10068	87	-114	-151	-16460	-2408	-1052	68	-20	70	-15972	1436	-2532	247	26	24	127	127	8
-11744	-2064	10604	-14	18	-25	-15536	-3728	-2184	-12	7	-7	-15656	-496	-4040	3	-8	16	-12392	4632	10176	66	-109	-146	-16400	-2412	-1228	39	-61	121	-15980	1532	-2632	234	1	-21	127	127	8
-11732	-2096	10620	-15	22	-26	-15528	-3816	-2000	-21	-1	-6	-15640	-616	-4232	-3	-16	8	-12340	4712	10244	25	-128	-202	-16364	-2480	-1108	42	-68	101	-15980	1628	-2564	169	-4	-59	126	127	8
-11756	-2076	10700	-19	20	-26	-15432	-3736	-2216	-25	-3	-8	-15528	-424	-4192	-11	-23	3	-12372	4648	10080	10	-110	-174	-16364	-2428	-1164	-7	-31	107	-16060	1580	-2560	2	38	-70	125	127	8
-11732	-2168	10704	-15	19	-23	-15488	-3912	-2328	-13	-1	-9	-15736	-600	-4352	-19	-24	-1	-12416	4744	10136	-65	-226	-221	-16420	-2344	-1092	-100	-81	84	-15992	1556	-2536	-162	-12	-13	123	127	8
-11728	-2068	10716	-14	18	-22	-15648	-3696	-2136	-4	-5	-10	-15768	-472	-4360	-22	-24	2	-12368	4672	10272	-54	-231	-235	-16416	-2540	-1076	-219	-87	97	-15972	1488	-2444	-269	19	-13	124	127	8
-11736	-2056	10624	-16	20	-27	-15560	-3744	-1840	-8	0	-19	-15656	-616	-4296	-16	-16	-7	-12372	4616	10144	-46	-160	-226	-16404	-2512	-1188	-247	-60	40	-16088	1444	-2540	-272	36	-81	124	127	8
-11728	-2060	10616	-12	19	-28	-15480	-3728	-2080	-4	-5	-19	-15576	-560	-4176	-27	-20	-3	-12372	4588	10232	-70	-145	-187	-16432	-2552	-1096	-275	-81	72	-16012	1472	-2368	-349	68	-105	125	127	8
-11744	-2072	10684	-13	16	-29	-15672	-3968	-2168	-16	-8	-22	-15648	-776	-4232	-23	-27	-7	-12284	4608	10256	-27	-133	-191	-16336	-2444	-1068	-302	-16	57	-16016	1476	-2512	-414	74	-122	125	127	8
-11716	-2076	10664	-12	20	-30	-15640	-3832	-2168	-9	-1	-17	-15688	-672	-4400	-19	-26	-9	-12268	4604	10228	-54	-122	-219	-16444	-2500	-1044	-417	-38	56	-16012	1460	-2528	-490	114	-121	125	127	8
-11752	-2156	10596	-11	17	-25	-15568	-3720	-2384	-17	-12	-21	-15592	-584	-4392	-35	-25	-11	-12336	4600	10208	-18	-92	-182	-16472	-2572	-1180	-433	-27	27	-16120	1400	-2520	-532	137	-142	126	127	8
-11744	-2056	10756	-15	16	-22	-15640	-3720	-1920	-21	-16	-19	-15584	-648	-3984	-42	-26	-11	-12320	4528	10208	-16	-90	-200	-16384	-2476	-1104	-381	-12	62	-16056	1380	-2400	-543	108	-189	126	127	8
-11780	-2100	10748	-16	18	-29	-15576	-3832	-2448	-23	-19	-21	-15704	-480	-4248	-43	-29	-11	-12324	4588	10252	19	-62	-187	-16388	-2524	-1180	-355	-9	33	-16028	1380	-2644	-530	101	-192	126	128	8
-11752	-2060	10736	-14	23	-30	-15632	-3872	-2144	-30	-18	-24	-15616	-680	-4264	-45	-28	-15	-12372	4512	10192	-4	-53	-187	-16400	-2544	-1136	-380	-6	29	-16088	1388	-2676	-472	139	-192	127	127	8
-11744	-2004	10704	-16	19	-28	-15680	-3816	-2248	-34	-20	-19	-15672	-576	-4328	-47	-27	-14	-12324	4520	10188	36	-67	-221	-16444	-2616	-1256	-240	44	23	-16008	1332	-2580	-466	179	-173	127	127	8
-11764	-2072	10764	-13	18	-26	-15560	-3864	-2064	-30	-19	-17	-15760	-624	-4112	-49	-25	-13	-12272	4552	10292	32	-88	-169	-16424	-2524	-1168	-262	34	50	-16028	1356	-2600	-410	164	-144	126	127	8
-11760	-2112	10724	-14	20	-28	-15464	-3920	-2304	-28	-22	-23	-15616	-784	-4176	-52	-27	-12	-12304	4512	10264	47	-67	-176	-16428	-2528	-1172	-252	-21	44	-16040	1364	-2652	-319	149	-150	126	127	8
-11700	-2068	10720	-15	19	-26	-15552	-3824	-2080	-26	-22	-22	-15512	-728	-4240	-50	-25	-13	-12344	4536	10208	54	29	-158	-16400	-2580	-1164	-215	21	67	-15964	1384	-2604	-299	106	-163	125	127	8
-11728	-2084	10628	-12	16	-26	-15504	-3776	-2368	-32	-22	-24	-15664	-720	-4336	-48	-27	-14	-12304	4508	10312	47	-57	-135	-16416	-2484	-1088	-210	29	14	-16000	1340	-2676	-317	122	-194	125	127	8
-11764	-2044	10644	-9	22	-27	-15616	-3800	-2024	-35	-24	-24	-15592	-784	-4320	-46	-22	-12	-12304	4524	10188	77	-19	-168	-16420	-2520	-1240	-213	-2	25	-16024	1404	-2600	-342	144	-168	125	127	8
-11764	-2072	10568	-13	18	-28	-15616	-3816	-2032	-28	-19	-19	-15632	-744	-3984	-42	-28	-9	-12240	4576	10248	73	-48	-180	-16404	-2592	-1224	-186	76	71	-16040	1316	-2668	-310	156	-170	125	127	8
-11788	-2124	10624	-13	18	-26	-15352	-3952	-2072	-9	-18	-20	-15608	-816	-4296	-38	-22	-10	-12280	4524	10220	90	-61	-160	-16436	-2500	-1188	-200	31	43	-15972	1380	-2652	-324	147	-168	126	127	8
-11772	-2132	10680	-11	12	-25	-15584	-3856	-2344	-7	-21	-23	-15672	-712	-4128	-33	-20	-8	-12268	4516	10284	70	-9	-153	-16332	-2536	-1316	-224	21	45	-15988	1400	-2628	-309	125	-181	124	127	8
-11716	-2076	10656	-13	16	-27	-15504	-3840	-2208	-22	-23	-26	-15600	-696	-4368	-24	-16	-5	-12292	4548	10252	88	-49	-160	-16400	-2520	-1192	-155	15	17	-16080	1376	-2684	-324	146	-157	124	127	8
-11724	-2056	10664	-17	21	-28	-15536	-3976	-2192	-27	-18	-22	-15704	-760	-4200	-26	-22	-6	-12304	4616	10260	78	-30	-188	-16416	-2572	-1248	-176	16	50	-16068	1296	-2592	-286	115	-153	125	127	8
-11780	-2072	10660	-12	22	-27	-15504	-3736	-2016	-27	-25	-22	-15592	-784	-3944	-34	-28	-7	-12300	4564	10188	91	-29	-168	-16372	-2584	-1172	-182	48	29	-16064	1324	-2608	-301	88	-159	124	127	8
-11728	-2120	10648	-15	16	-26	-15576	-4000	-2184	-27	-26	-25	-15632	-824	-3864	-46	-25	-3	-12348	4512	10324	94	-21	-135	-16408	-2584	-1284	-169	45	29	-15968	1352	-2748	-254	49	-129	125	127	8
-11772	-2068	10740	-18	18	-27	-15544	-3928	-2048	-35	-22	-29	-15632	-544	-4216	-57	-23	-5	-12320	4572	10172	143	-43	-154	-16420	-2580	-1396	-90	-1	20	-15996	1312	-2664	-259	20	-122	125	127	8
-11848	-2108	10688	-15	21	-26	-15520	-3976	-2280	-44	-25	-27	-15624	-776	-4288	-64	-18	-2	-12260	4528	10156	135	-19	-167	-16332	-2608	-1316	-73	6	48	-16040	1236	-2836	-196	-66	-109	125	127	8
-11692	-2088	10636	-10	19	-29	-15408	-3984	-1968	-35	-23	-20	-15616	-872	-4232	-62	-17	-7	-12316	4532	10260	88	-40	-169	-16372	-2608	-1440	9	-56	53	-16012	1252	-2672	-131	-98	-82	124	126	8
-11744	-2188	10648	-15	19	-27	-15616	-4120	-1952	-21	-20	-19	-15968	-904	-4248	-41	-21	-9	-12348	4432	10256	104	-72	-155	-16316	-2580	-1228	12	-46	56	-16052	1212	-2720	-77	-84	-41	123	126	8
-11696	-2064	10728	-15	15	-23	-15536	-3960	-2368	-13	-16	-25	-15760	-992	-4200	-36	-25	-3	-12340	4516	10244	94	-80	-127	-16392	-2608	-1280	-8	-23	91	-15976	1244	-2740	-39	-104	-58	123	125	8
-11716	-2104	10660	-17	15	-29	-15488	-3936	-2120	-22	-15	-18	-15616	-960	-4088	-22	-26	5	-12344	4520	10148	114	-54	-162	-16404	-2580	-1248	-76	-66	75	-16120	1272	-2644	31	-139	-3	123	126	8
-11744	-2056	10724	-19	19	-30	-15536	-4000	-2048	-21	-11	-19	-15680	-912	-3696	-14	-26	13	-12304	4480	10304	112	-22	-153	-16368	-2644	-1252	-42	-76	89	-16048	1304	-2624	98	-68	-16	123	126	8
-11744	-2028	10632	-17	16	-26	-15584	-3968	-2192	-8	-10	-16	-15816	-856	-4136	-5	-24	16	-12268	4604	10216	114	4	-170	-16460	-2568	-1176	42	-38	77	-16076	1312	-2528	152	-89	-25	123	126	8
-11724	-2120	10612	-17	19	-29	-15504	-3920	-2056	-20	-12	-15	-15848	-640	-4088	4	-21	18	-12280	4528	10300	97	-26	-138	-16344	-2604	-1380	112	-27	58	-16072	1252	-2500	203	-80	-23	124	126	8
-11808	-2148	10740	-15	18	-29	-15416	-3800	-2064	-15	-11	-17	-15680	-784	-4088	-1	-17	21	-12264	4500	10288	136	14	-120	-16352	-2540	-1176	98	-10	72	-16108	1232	-2604	266	-90	-7	125	126	8
-11724	-2156	10644	-11	20	-23	-15464	-3992	-2032	-16	-7	-13	-15768	-672	-4176	-6	-18	16	-12344	4504	10240	108	-25	-137	-16352	-2552	-1220	86	-14	86	-15952	1232	-2676	360	-91	32	126	126	8
-11784	-2092	10504	-13	17	-31	-15416	-4056	-2224	-5	-4	-13	-15664	-760	-4280	-5	-18	14	-12352	4440	10200	104	-31	-160	-16356	-2600	-1312	45	-41	106	-16020	1140	-2708	380	-108	40	127	127	8
-11760	-2100	10716	-15	19	-29	-15464	-3816	-2192	2	-7	-10	-15768	-744	-4376	-5	-26	18	-12304	4468	10140	124	-33	-141	-16372	-2648	-1332	126	-71	118	-16048	1128	-2796	467	-118	84	127	127	8
-11788	-2160	10740	-10	18	-29	-15504	-4056	-2192	-1	-1	-16	-15616	-840	-4072	-1	-21	20	-12328	4484	10352	126	6	-147	-16348	-2700	-1248	241	-86	151	-15984	1136	-2744	513	-197	119	126	127	8
-11788	-2084	10628	-3	11	-22	-15576	-4064	-2520	12	-7	-14	-15576	-904	-4264	8	-28	20	-12288	4508	10312	133	-7	-148	-16340	-2580	-1316	271	-66	141	-16084	1176	-2692	569	-256	111	125	126	8
-11732	-2108	10668	-13	16	-26	-15568	-4048	-2080	16	-7	-9	-15512	-936	-4224	19	-28	28	-12304	4476	10200	172	-49	-98	-16420	-2568	-1340	265	-81	191	-16092	1204	-2716	577	-271	136	124	126	8
-11700	-2080	10652	-12	15	-27	-15544	-3952	-1912	10	-6	-11	-15712	-904	-4168	23	-25	33	-12340	4548	10240	163	-3	-140	-16372	-2684	-1248	194	-124	154	-16080	1240	-2644	577	-245	158	122	126	8
-11756	-2128	10620	-18	13	-21	-15560	-4080	-1976	22	-6	-8	-15824	-1016	-4248	44	-22	37	-12372	4480	10204	173	-22	-102	-16332	-2540	-1272	215	-115	173	-16040	1308	-2676	457	-210	178	121	126	8
-11728	-2156	10704	-8	10	-26	-15560	-4160	-2152	46	1	-7	-15712	-1048	-3912	61	-22	42	-12264	4512	10216	175	-15	-115	-16404	-2644	-1272	268	-128	162	-16056	1232	-2508	454	-164	188	121	126	8
-11680	-2176	10780	-10	13	-26	-15544	-4096	-2136	52	2	-1	-15768	-984	-4016	73	-13	40	-12268	4504	10328	199	-16	-105	-16376	-2624	-1248	318	-89	171	-16144	1216	-2532	474	-186	165	121	126	8
-11736	-2188	10740	-11	15	-24	-15464	-4168	-2152	44	1	-2	-15800	-912	-4240	81	-14	41	-12276	4512	10292	184	-57	-119	-16368	-2620	-1208	323	-136	218	-15996	1252	-2428	493	-122	143	120	126	8
-11736	-2212	10668	-11	12	-20	-15568	-4080	-2016	32	1	1	-15824	-872	-3992	82	-9	43	-12304	4564	10308	157	-11	-109	-16388	-2596	-1104	302	-106	225	-16096	1344	-2580	489	-84	190	120	126	8
-11760	-2112	10736	-5	14	-18	-15488	-4080	-2224	31	3	13	-15768	-832	-4056	76	-12	40	-12296	4524	10288	182	1	-102	-16368	-2676	-1204	307	-108	235	-16004	1328	-2680	508	-87	162	121	126	8
-11748	-2156	10628	-4	13	-18	-15608	-4056	-1864	38	6	9	-15704	-912	-4208	70	-8	43	-12368	4532	10280	178	-11	-90	-16352	-2624	-1156	306	-127	249	-16044	1320	-2508	463	-51	187	120	126	8
-11712	-2108	10748	-9	9	-12	-15520	-3944	-1968	46	7	10	-15760	-816	-4072	65	-5	41	-12324	4540	10268	148	-5	-65	-16344	-2616	-1256	351	-83	234	-15992	1360	-2436	474	-19	134	119	127	8
-11720	-2064	10588	-6	13	-17	-15600	-3936	-2000	35	13	12	-15792	-664	-4168	66	-7	42	-12352	4496	10300	181	-1	-122	-16364	-2540	-1204	326	-99	254	-16028	1340	-2416	495	-38	149	119	127	8
-11700	-2032	10720	-9	12	-14	-15560	-3856	-2016	29	10	16	-15744	-648	-3984	51	-6	37	-12312	4588	10292	211	-20	-143	-16376	-2604	-1084	251	-75	212	-16088	1320	-2424	468	39	155	120	126	8
-11740	-2080	10724	-10	17	-20	-15544	-3904	-2296	10	7	11	-15720	-592	-4192	48	-6	41	-12316	4544	10196	159	49	-116	-16432	-2664	-1196	152	-133	173	-16032	1368	-2404	467	61	152	121	126	8
-11728	-2112	10612	-9	14	-19	-15520	-4008	-2328	9	5	13	-15704	-744	-4168	44	-8	34	-12300	4500	10196	180	28	-119	-16384	-2608	-1224	182	-140	248	-16080	1308	-2600	512	22	137	122	126	8
-11712	-2080	10668	-8	13	-22	-15576	-3848	-1984	19	5	12	-15568	-656	-3968	34	-7	36	-12328	4580	10220	210	20	-95	-16364	-2596	-1144	282	-63	254	-16024	1372	-2468	590	-31	132	122	126	8
-11772	-2140	10724	-5	16	-19	-15464	-3792	-2224	10	4	6	-15680	-520	-4208	28	-8	38	-12308	4496	10252	174	-17	-102	-16292	-2572	-1220	286	-23	196	-16044	1320	-2592	667	-41	148	122	126	8
-11740	-2052	10664	-9	18	-21	-15536	-3832	-2208	6	7	9	-15608	-632	-4128	26	-6	35	-12372	4488	10184	255	70	-41	-16412	-2592	-1468	352	-33	198	-16092	1336	-2448	711	-65	121	121	126	8
-11724	-2112	10660	-15	14	-24	-15488	-3872	-2280	13	5	4	-15680	-704	-4456	24	-11	31	-12356	4564	10236	229	100	-37	-16400	-2532	-1084	474	-10	216	-16076	1372	-2500	718	-44	152	120	127	8
-11756	-2088	10592	-14	18	-23	-15544	-3928	-1928	17	6	7	-15640	-736	-4064	31	-11	33	-12300	4616	10224	232	69	-73	-16384	-2432	-1176	429	-2	217	-16004	1456	-2548	764	-104	147	120	127	8
-11780	-2044	10732	-6	12	-26	-15576	-3800	-1992	14	7	7	-15624	-848	-4176	22	-14	30	-12288	4564	10148	209	43	-78	-16424	-2500	-1060	291	-66	186	-16028	1572	-2544	719	-69	184	121	127	8
-11772	-2080	10756	-14	15	-20	-15520	-3944	-2144	4	9	6	-15736	-680	-4288	16	-8	32	-12356	4600	10252	214	49	-93	-16364	-2484	-1208	215	-56	216	-16044	1412	-2656	529	-93	128	121	127	8
-11740	-2136	10696	-7	18	-21	-15632	-3840	-2192	-3	5	0	-15776	-672	-4288	11	-9	28	-12304	4492	10208	204	47	-101	-16388	-2536	-1220	248	-31	198	-16080	1380	-2500	461	-75	155	121	127	8
-11700	-2028	10580	-9	19	-23	-15528	-3808	-2184	6	2	0	-15784	-720	-4032	16	-9	27	-12352	4584	10256	182	34	-118	-16408	-2488	-1100	195	-41	179	-16012	1420	-2404	419	-100	123	120	127	8
-11740	-2104	10632	-10	20	-22	-15632	-3936	-2304	17	4	-1	-15800	-752	-4312	19	-12	29	-12304	4596	10224	149	40	-118	-16396	-2584	-1116	197	-30	165	-15976	1416	-2548	398	-71	78	120	127	8
-11800	-2072	10752	-10	13	-28	-15576	-3720	-1912	12	4	-2	-15744	-648	-4040	26	-12	25	-12296	4552	10160	172	11	-82	-16420	-2648	-1200	225	-26	192	-16108	1396	-2560	302	9	40	120	128	8
-11760	-2120	10656	-10	16	-26	-15440	-3936	-1968	7	0	0	-15840	-800	-4312	24	-11	28	-12340	4540	10148	198	9	-96	-16444	-2560	-1148	185	-4	193	-16056	1332	-2316	290	15	41	120	128	8
-11764	-2056	10548	-10	16	-25	-15560	-4000	-2248	7	7	-6	-15680	-808	-4080	21	-11	24	-12376	4552	10176	192	27	-75	-16448	-2460	-1016	119	-18	150	-16020	1408	-2364	284	52	85	121	128	8
-11720	-2084	10548	-10	12	-22	-15488	-3800	-2080	7	7	-2	-15704	-792	-4184	22	-8	27	-12336	4616	10260	148	23	-103	-16460	-2528	-1144	38	5	158	-15960	1448	-2584	360	58	55	121	128	8
-11740	-2016	10720	-10	18	-24	-15552	-4048	-2136	9	3	-5	-15656	-640	-4184	14	-6	26	-12364	4552	10180	158	1	-123	-16380	-2600	-1204	104	-13	177	-16048	1416	-2532	323	48	60	122	128	8
-11800	-2064	10672	-6	16	-24	-15624	-3776	-2080	3	1	-5	-15712	-520	-4224	9	-7	29	-12392	4636	10136	156	3	-159	-16440	-2452	-1196	159	5	147	-16016	1456	-2508	337	0	19	122	128	8
-11696	-2160	10660	-15	16	-24	-15656	-3856	-2048	-5	-3	-2	-15616	-584	-4216	6	-9	24	-12376	4596	10164	128	-17	-149	-16404	-2460	-1188	160	52	157	-16028	1460	-2492	307	34	14	121	128	8
-11752	-2116	10648	-11	13	-21	-15432	-3920	-2072	4	0	-5	-15640	-696	-4192	0	-11	20	-12272	4604	10320	138	-14	-140	-16328	-2552	-1092	48	22	110	-15992	1380	-2584	222	-7	62	121	128	8
-11768	-2016	10660	-13	16	-24	-15568	-3816	-2256	2	0	-4	-15712	-480	-4216	1	-19	21	-12328	4572	10180	133	8	-150	-16380	-2592	-1140	66	-4	148	-16052	1308	-2568	126	21	33	121	128	8
-11724	-2040	10672	-16	18	-25	-15568	-3880	-2152	-3	0	-7	-15640	-688	-4120	-3	-18	12	-12352	4556	10300	150	37	-122	-16364	-2580	-1264	98	12	156	-16068	1348	-2456	115	87	26	121	127	8
-11712	-2044	10664	-12	20	-24	-15568	-3992	-2176	-2	3	-7	-15712	-696	-4224	-6	-12	19	-12364	4604	10076	131	-12	-128	-16412	-2492	-1180	49	15	129	-16112	1412	-2504	113	30	36	122	127	8
-11812	-2060	10712	-11	15	-24	-15608	-3904	-2120	-7	-4	-4	-15688	-624	-4032	-8	-7	13	-12296	4612	10208	130	6	-145	-16444	-2516	-1188	-42	-32	160	-16040	1444	-2528	126	6	0	122	127	8
-11744	-2080	10616	-11	16	-27	-15560	-3832	-2232	-10	-6	-6	-15776	-816	-4288	-1	-14	12	-12352	4548	10176	93	-16	-128	-16384	-2504	-1112	-39	-8	136	-16024	1452	-2548	81	68	13	122	127	8
-11804	-2080	10644	-10	20	-21	-15664	-3936	-2280	-6	-3	-8	-15672	-760	-4264	-5	-11	12	-12292	4552	10196	128	-61	-178	-16404	-2488	-1088	-31	0	120	-16000	1312	-2632	78	59	-3	123	127	8
-11752	-2076	10708	-10	17	-25	-15520	-3824	-1880	2	1	-11	-15704	-680	-4344	-4	-14	17	-12332	4504	10176	146	-10	-148	-16428	-2616	-1104	54	-38	122	-16020	1428	-2580	28	43	5	122	127	8
-11792	-2164	10668	-18	17	-26	-15640	-3792	-2112	-2	-4	-8	-15632	-832	-4344	-9	-15	19	-12408	4592	10204	129	-40	-171	-16344	-2572	-1116	65	5	113	-16044	1428	-2664	46	-7	11	122	126	8
-11716	-2092	10720	-11	19	-24	-15608	-3912	-1952	-3	-5	-10	-15616	-680	-4248	-8	-11	17	-12316	4632	10196	86	-66	-154	-16348	-2548	-1236	27	6	111	-16092	1348	-2500	56	-4	8	122	126	8
-11704	-2056	10556	-12	18	-24	-15632	-3848	-2168	4	-1	-9	-15760	-768	-4456	-2	-7	14	-12328	4508	10200	94	-43	-138	-16408	-2452	-1224	-63	-26	148	-16036	1300	-2512	117	-44	-13	124	126	8
-11784	-2156	10772	-16	19	-23	-15496	-3832	-2104	6	-1	-10	-15656	-752	-4280	1	-17	14	-12344	4588	10244	77	-70	-187	-16320	-2524	-1168	-131	16	137	-16028	1360	-2540	138	-37	-18	124	126	8
-11820	-2044	10664	-14	17	-24	-15480	-3928	-2400	-6	-6	-11	-15568	-808	-4488	-3	-18	15	-12356	4588	10124	71	-75	-186	-16364	-2540	-1148	-206	-62	131	-16068	1348	-2616	120	16	2	122	126	8
-11744	-2108	10728	-12	18	-20	-15544	-3904	-2040	-3	-6	-6	-15800	-704	-4072	-5	-17	13	-12268	4492	10160	102	-73	-195	-16400	-2612	-1344	-40	-45	128	-16100	1312	-2672	111	47	12	122	126	8
-11744	-2140	10716	-13	15	-22	-15544	-3976	-2064	4	2	-11	-15808	-688	-4224	-5	-18	14	-12304	4592	10184	92	-56	-178	-16412	-2480	-1184	49	-44	159	-16004	1312	-2652	115	69	37	122	126	8
-11744	-2116	10608	-15	17	-22	-15416	-3840	-2112	8	-5	-7	-15688	-768	-4248	-5	-10	16	-12360	4592	10132	82	-89	-145	-16420	-2540	-1160	-20	-44	132	-15956	1308	-2512	182	4	35	123	126	8
-11796	-2096	10620	-18	20	-24	-15416	-3976	-1920	1	1	-7	-15744	-680	-4256	0	-8	15	-12364	4520	10280	127	-49	-198	-16384	-2564	-1096	-99	-52	160	-16040	1416	-2596	180	18	-10	123	126	8
-11756	-2084	10644	-15	19	-25	-15488	-3952	-2168	-9	-4	-13	-15696	-776	-3984	-3	-6	16	-12372	4632	10160	111	-2	-159	-16420	-2528	-1168	-130	-38	105	-16108	1404	-2456	94	-31	-42	123	126	8
-11688	-2056	10708	-13	20	-19	-15560	-3952	-2048	-6	2	-7	-15752	-768	-4256	4	-5	15	-12312	4544	10224	119	-16	-195	-16344	-2580	-1272	-87	29	133	-16104	1396	-2560	71	92	-31	123	126	8
-11780	-2156	10732	-12	20	-22	-15584	-3888	-2192	-5	5	-10	-15592	-672	-4152	-1	2	20	-12292	4548	10232	82	10	-190	-16424	-2608	-1200	-20	34	95	-15980	1460	-2448	74	106	-19	124	126	8
-11764	-2144	10532	-12	17	-24	-15440	-3736	-2520	9	4	-10	-15616	-728	-4264	-2	1	16	-12384	4496	10256	107	-22	-187	-16456	-2552	-1196	-7	70	113	-16056	1348	-2524	8	138	-29	125	126	8
-11808	-2024	10736	-12	23	-24	-15656	-3912	-2136	-5	3	-11	-15776	-712	-4320	-2	-1	15	-12260	4492	10252	97	-89	-160	-16408	-2628	-1256	-59	23	89	-16116	1312	-2564	-29	135	-35	125	126	8
-11736	-2068	10740	-11	22	-23	-15416	-3928	-2480	-5	3	-10	-15768	-800	-3992	-2	-5	13	-12324	4524	10256	97	-30	-161	-16420	-2624	-1140	-113	51	138	-16088	1336	-2564	-9	127	-20	125	126	8
-11780	-2172	10600	-17	14	-23	-15472	-3960	-2016	2	8	-10	-15648	-752	-4360	-1	-5	11	-12300	4564	10216	127	22	-159	-16544	-2532	-1288	-189	16	65	-16104	1352	-2692	27	154	-61	125	126	8
-11736	-2028	10620	-12	21	-24	-15544	-3792	-1824	-3	5	-7	-15584	-688	-4328	-5	-3	14	-12304	4512	10164	100	30	-163	-16376	-2548	-1304	-132	-8	82	-16036	1396	-2732	4	140	-38	125	126	8
-11712	-2012	10616	-17	19	-23	-15400	-3744	-2224	-8	0	-14	-15584	-680	-4448	-2	-3	12	-12412	4552	10200	120	-54	-176	-16412	-2568	-1332	-64	-1	67	-15936	1340	-2732	-52	86	-24	124	126	8
-11752	-2048	10664	-15	19	-25	-15584	-3968	-2016	-12	-4	-15	-15696	-608	-4080	-5	-11	13	-12412	4504	10176	141	18	-186	-16372	-2580	-1332	46	-33	79	-15984	1284	-2728	8	-11	-54	124	126	8
-11756	-2072	10696	-13	17	-25	-15608	-3976	-2104	-16	-1	-15	-15744	-664	-4240	-5	-15	12	-12372	4520	10336	123	-99	-155	-16304	-2564	-1148	143	-3	99	-16036	1280	-2612	69	-43	-46	123	126	8
-11756	-2128	10688	-14	14	-29	-15544	-4056	-2328	-2	2	-15	-15640	-808	-4088	-3	-9	8	-12368	4532	10108	104	-95	-145	-16384	-2600	-1204	90	17	88	-16044	1288	-2568	126	-66	-44	123	126	8
-11720	-2156	10604	-15	15	-23	-15480	-3984	-2192	18	6	-15	-15640	-856	-4168	7	-6	6	-12284	4492	10228	148	-48	-136	-16440	-2604	-1208	-80	-4	55	-16104	1300	-2648	88	-29	-8	124	126	8
-11740	-2092	10648	-8	17	-22	-15616	-3840	-2096	8	-1	-12	-15784	-792	-4232	3	-5	15	-12376	4552	10160	88	5	-162	-16380	-2596	-1276	-21	-17	80	-16120	1280	-2596	52	58	-18	124	125	8
-11804	-2088	10644	-14	15	-23	-15512	-3928	-1984	-10	4	-17	-15600	-832	-4312	7	-8	14	-12424	4556	10212	118	-18	-141	-16436	-2608	-1208	80	-28	107	-16048	1216	-2508	76	117	7	124	126	8
-11748	-2044	10668	-10	19	-24	-15488	-3920	-2152	-9	5	-16	-15696	-800	-4376	16	-12	17	-12328	4532	10220	102	-54	-126	-16364	-2608	-1120	126	34	99	-16056	1320	-2524	120	68	18	125	126	8
-11724	-2168	10624	-7	13	-24	-15432	-4160	-2440	12	8	-10	-15664	-680	-4392	15	-13	15	-12372	4492	10216	127	-54	-159	-16420	-2536	-1196	63	23	74	-16008	1308	-2596	139	25	-12	125	127	8
-11780	-2128	10628	-12	19	-24	-15512	-3832	-2264	0	1	-10	-15736	-712	-4448	15	-11	17	-12372	4520	10224	128	-54	-113	-16356	-2584	-1208	112	-16	45	-16084	1344	-2588	118	-32	-21	125	127	8
-11748	-2140	10644	-13	18	-27	-15624	-3840	-2472	-7	0	-13	-15688	-600	-4016	5	-11	16	-12372	4512	10164	114	-60	-137	-16424	-2612	-1268	94	12	72	-15956	1368	-2640	151	-3	-43	124	127	8
-11724	-2076	10772	-13	17	-22	-15472	-4032	-2128	-4	-1	-11	-15688	-720	-4504	3	-12	15	-12292	4500	10264	101	-62	-147	-16376	-2608	-1156	125	-34	90	-15980	1276	-2788	144	-8	-47	124	127	8
-11780	-2128	10584	-11	16	-26	-15560	-4000	-2112	-3	-5	-19	-15624	-720	-4288	7	-16	9	-12360	4576	10356	101	-21	-131	-16480	-2684	-1300	85	-39	69	-16064	1292	-2748	87	-49	-8	125	127	8
-11776	-2148	10564	-11	16	-26	-15552	-3824	-2296	-6	-4	-18	-15616	-680	-4432	5	-9	7	-12280	4564	10140	97	-50	-129	-16376	-2688	-1232	100	-68	70	-16040	1264	-2576	111	-35	-2	125	127	8
-11812	-2144	10652	-13	20	-22	-15616	-4016	-2232	-7	-2	-13	-15568	-672	-4240	1	-12	9	-12392	4552	10184	98	-16	-151	-16300	-2676	-1256	123	-72	103	-15984	1248	-2684	124	-61	-14	124	127	8
-11696	-2124	10660	-13	17	-31	-15384	-3968	-2280	-7	-3	-20	-15656	-728	-4312	-1	-17	8	-12312	4556	10220	129	-18	-121	-16396	-2584	-1220	63	-77	101	-16064	1364	-2488	138	-61	-12	125	127	8
-11776	-2132	10608	-14	17	-24	-15504	-3960	-2176	7	-3	-14	-15760	-896	-4248	0	-17	8	-12428	4516	10288	142	-67	-127	-16416	-2576	-1188	63	-39	86	-16084	1288	-2500	101	2	3	125	126	8
-11736	-2052	10660	-8	16	-22	-15520	-3984	-2208	7	-2	-15	-15696	-808	-4328	6	-16	12	-12352	4536	10212	115	-24	-122	-16424	-2580	-1232	102	-38	117	-16156	1292	-2588	149	26	-11	124	126	8
-11756	-2108	10644	-14	16	-22	-15536	-4088	-2048	7	-1	-15	-15776	-896	-4320	10	-9	19	-12284	4532	10316	109	-50	-138	-16392	-2616	-1176	109	-7	104	-16132	1268	-2580	173	-15	-3	124	125	8
-11844	-2188	10704	-15	14	-24	-15512	-3944	-2248	6	4	-13	-15640	-904	-4056	16	-8	22	-12340	4492	10220	132	-49	-127	-16364	-2652	-1276	57	1	85	-16056	1304	-2660	217	8	-11	124	126	8
-11752	-2040	10624	-14	15	-24	-15488	-4000	-2064	-1	0	-13	-15600	-720	-4152	13	-14	18	-12360	4584	10184	143	-4	-139	-16392	-2548	-1312	127	6	72	-16116	1252	-2688	198	5	-26	124	125	8
-11716	-2152	10620	-11	17	-22	-15624	-3840	-2320	-6	-1	-17	-15704	-640	-4472	3	-21	25	-12380	4548	10216	150	-7	-109	-16344	-2704	-1228	180	-24	128	-16040	1212	-2612	289	-8	-10	124	126	8
-11756	-2088	10588	-13	14	-26	-15520	-4176	-2112	-18	-1	-11	-15776	-672	-4312	-4	-6	23	-12360	4544	10264	115	-54	-132	-16344	-2624	-1148	183	7	99	-15968	1276	-2680	381	-1	3	124	127	8
-11776	-2104	10732	-13	13	-25	-15360	-4200	-2320	3	3	-14	-15712	-808	-4408	-2	-6	18	-12316	4628	10208	136	-4	-121	-16444	-2584	-1236	179	-15	135	-16060	1196	-2652	459	-72	25	123	127	8
-11756	-2236	10612	-14	15	-20	-15616	-4128	-2032	1	0	-13	-15592	-736	-4328	-2	-9	15	-12264	4536	10276	180	5	-119	-16384	-2716	-1240	173	-49	132	-16020	1176	-2668	463	-75	70	124	127	8
-11780	-2140	10608	-11	15	-27	-15584	-4056	-2352	-15	-4	-14	-15600	-776	-4256	2	-15	18	-12340	4608	10300	131	-22	-115	-16344	-2692	-1268	243	-27	108	-16004	1236	-2816	428	-98	112	124	128	8
-11784	-2068	10584	-12	18	-26	-15464	-4040	-2024	7	-2	-13	-15664	-824	-4408	10	-18	21	-12316	4552	10144	164	21	-125	-16392	-2644	-1180	235	-63	121	-16040	1260	-2748	469	-144	81	125	129	8
-11672	-2124	10604	-16	17	-24	-15664	-3912	-2096	23	1	-15	-15696	-840	-4464	24	-21	30	-12384	4532	10212	157	13	-100	-16344	-2524	-1272	211	-83	129	-16032	1360	-2564	478	-146	90	125	128	8
-11748	-2112	10632	-11	17	-19	-15520	-4008	-2256	39	3	-11	-15536	-864	-4256	38	-23	30	-12400	4564	10184	172	-14	-118	-16356	-2612	-1328	163	-102	164	-15976	1400	-2604	394	-124	87	124	128	8
-11716	-2068	10620	-9	13	-25	-15512	-3944	-2168	36	1	-9	-15592	-864	-4128	51	-19	26	-12336	4532	10228	130	-19	-96	-16452	-2648	-1092	187	-109	127	-16016	1368	-2528	354	-87	63	124	127	8
-11764	-2088	10632	-9	17	-27	-15520	-4008	-2056	12	-8	-8	-15632	-840	-4184	52	-22	27	-12292	4548	10296	183	-23	-144	-16416	-2640	-1236	154	-92	140	-16112	1284	-2448	317	-93	62	125	127	8
-11704	-2072	10608	-11	15	-24	-15496	-4000	-2272	7	-8	-5	-15840	-880	-4304	43	-19	25	-12340	4472	10276	123	-2	-118	-16368	-2620	-1132	133	-73	133	-16080	1292	-2500	278	-51	54	125	127	8
-11804	-2104	10596	-9	20	-21	-15472	-3976	-2280	20	-3	-4	-15592	-656	-4456	33	-17	21	-12316	4548	10172	150	-45	-106	-16376	-2560	-1304	90	-76	140	-16032	1364	-2504	256	-38	66	125	127	8
-11668	-2104	10640	-8	12	-18	-15552	-4088	-1968	16	-7	-6	-15672	-760	-4488	26	-18	19	-12392	4544	10224	150	-38	-122	-16432	-2596	-1188	78	-91	126	-15984	1332	-2504	231	-35	33	125	127	8
-11788	-2072	10664	-13	15	-20	-15496	-3864	-2256	9	-7	-3	-15680	-512	-4400	19	-24	16	-12316	4592	10352	137	-31	-132	-16368	-2624	-1188	118	-69	128	-16096	1368	-2460	217	9	54	125	128	8
-11728	-2140	10628	-14	15	-24	-15504	-4064	-1840	-8	-9	-6	-15672	-616	-4408	9	-25	16	-12364	4508	10192	150	-23	-135	-16376	-2612	-1236	104	-42	112	-15984	1340	-2588	184	-13	44	125	128	8
-11792	-2100	10708	-11	16	-25	-15512	-3936	-2064	-5	-6	-3	-15736	-688	-4288	-4	-20	10	-12368	4572	10400	107	-51	-135	-16392	-2560	-1136	61	-34	126	-16064	1368	-2568	164	-28	18	125	128	8
-11788	-2084	10764	-7	13	-22	-15616	-3856	-2232	-4	-10	-12	-15672	-808	-4184	-2	-19	7	-12356	4528	10228	130	-24	-136	-16424	-2600	-1260	17	-81	123	-16080	1264	-2520	111	-45	-6	125	128	8
-11804	-2128	10764	-14	12	-22	-15480	-4104	-2168	0	-10	-1	-15664	-888	-4352	-5	-19	7	-12368	4480	10296	107	-62	-144	-16428	-2672	-1176	43	-81	140	-16064	1364	-2424	119	-28	-4	126	127	8
-11816	-2064	10628	-11	15	-24	-15608	-3912	-1960	-12	-14	-12	-15672	-816	-4328	-8	-18	14	-12300	4504	10220	132	-45	-127	-16368	-2660	-1212	68	-89	87	-16032	1308	-2440	123	-26	20	126	127	8
-11764	-2092	10620	-14	15	-21	-15624	-4040	-2064	-13	-7	-10	-15544	-768	-4248	-6	-19	13	-12292	4528	10280	100	-65	-116	-16488	-2580	-1184	69	-57	115	-16008	1280	-2648	131	-3	22	125	127	8
-11776	-2116	10608	-8	17	-25	-15440	-4064	-2200	6	-4	-8	-15520	-840	-4248	10	-21	16	-12384	4588	10228	112	-12	-121	-16428	-2676	-1304	104	-26	105	-16092	1268	-2492	141	-37	13	125	127	8
-11748	-2032	10676	-11	19	-26	-15560	-4088	-2056	8	-9	-8	-15688	-800	-4112	14	-21	13	-12316	4560	10280	144	-44	-109	-16440	-2580	-1060	88	-33	155	-16112	1284	-2556	189	-15	22	125	128	8
-11784	-2128	10608	-6	17	-23	-15560	-3840	-1928	-5	-5	-15	-15664	-688	-3840	11	-22	11	-12368	4484	10280	120	-13	-152	-16348	-2612	-1064	87	-61	109	-16028	1264	-2504	254	-57	24	126	127	8
-11720	-2088	10688	-11	18	-25	-15504	-4048	-2136	3	-7	-9	-15696	-752	-4224	9	-17	16	-12304	4504	10204	160	4	-93	-16432	-2628	-1236	108	-58	109	-16060	1300	-2560	288	-58	26	126	127	8
-11760	-2116	10652	-14	20	-26	-15624	-3880	-2320	-2	-6	-17	-15632	-560	-4280	-3	-18	20	-12352	4476	10268	142	-1	-141	-16360	-2616	-1284	189	-80	106	-15992	1296	-2624	306	-57	30	125	127	8
-11748	-2120	10744	-11	21	-26	-15432	-4000	-2048	-11	-7	-8	-15696	-744	-4008	-1	-15	10	-12364	4528	10168	154	-18	-152	-16360	-2560	-1264	243	-47	85	-16068	1256	-2500	320	-66	13	124	127	8
-11716	-2060	10584	-13	18	-23	-15344	-4008	-2232	-18	-3	-9	-15608	-728	-4104	-5	-11	6	-12300	4544	10368	141	-17	-120	-16400	-2664	-1240	217	-13	78	-16044	1300	-2588	331	-109	3	124	127	8
-11708	-2064	10656	-12	15	-24	-15432	-3864	-1968	-18	-6	-13	-15600	-752	-4064	-9	-21	9	-12320	4576	10248	118	-10	-119	-16392	-2628	-1192	172	-53	109	-16076	1312	-2636	358	-124	-6	124	127	8
-11756	-2196	10644	-13	18	-25	-15536	-3976	-2120	-28	-6	-17	-15592	-720	-4376	-22	-19	12	-12392	4548	10280	136	9	-133	-16352	-2680	-1144	160	-55	74	-16052	1328	-2484	343	-72	6	124	128	8
-11784	-2120	10656	-11	15	-25	-15552	-4144	-1896	-30	-4	-14	-15632	-720	-4312	-18	-17	12	-12352	4596	10252	114	-24	-167	-16396	-2588	-1292	158	-77	64	-16128	1244	-2624	333	-83	-2	125	127	8
-11772	-2100	10676	-17	17	-25	-15408	-3992	-2200	-4	0	-15	-15664	-672	-4336	-12	-17	16	-12360	4476	10264	138	5	-124	-16368	-2724	-1172	221	-57	117	-16064	1260	-2592	361	-117	5	126	127	8
-11732	-2068	10736	-15	17	-27	-15488	-3936	-2304	-10	-6	-14	-15712	-720	-4432	-12	-18	20	-12324	4504	10224	173	1	-130	-16412	-2672	-1100	206	-51	84	-16104	1292	-2508	376	-104	-2	126	128	8
-11772	-2164	10608	-11	17	-28	-15488	-4056	-2256	2	-3	-14	-15752	-936	-4352	-3	-15	18	-12336	4576	10212	177	-11	-80	-16348	-2632	-1196	168	-39	137	-15984	1272	-2516	422	-124	38	127	128	8
-11796	-2088	10668	-15	14	-31	-15496	-3904	-2144	20	1	-16	-15672	-744	-4376	18	-23	21	-12364	4468	10272	151	17	-127	-16388	-2656	-1108	186	-56	99	-16028	1240	-2548	440	-135	39	126	128	8
-11824	-2092	10572	-18	15	-26	-15432	-4080	-2224	9	-4	-16	-15696	-1024	-4128	11	-28	21	-12352	4540	10212	156	-19	-93	-16360	-2656	-1140	204	24	101	-16076	1296	-2468	445	-118	50	127	128	8
-11760	-2136	10788	-11	17	-25	-15432	-4144	-2336	-6	-2	-12	-15536	-800	-4464	10	-25	18	-12364	4540	10280	154	4	-79	-16380	-2652	-1276	203	-44	86	-16072	1268	-2464	417	-117	43	128	128	8
-11768	-2124	10640	-13	17	-22	-15552	-4000	-2120	1	-3	-10	-15608	-688	-4168	19	-21	23	-12332	4588	10260	149	-5	-139	-16444	-2632	-1148	209	-4	127	-16104	1224	-2612	400	-153	79	126	128	8
-11736	-2016	10636	-12	14	-26	-15440	-3920	-2200	6	-7	-17	-15664	-752	-4256	16	-29	31	-12292	4524	10312	156	-61	-66	-16356	-2676	-996	175	-7	150	-16096	1200	-2548	454	-120	51	127	128	8
-11712	-2092	10736	-12	15	-29	-15616	-4080	-2280	-5	-10	-14	-15560	-616	-4256	2	-30	29	-12352	4572	10240	171	21	-125	-16332	-2680	-1192	200	-72	135	-16120	1220	-2468	423	-176	62	127	128	8
-11748	-2304	10640	-11	15	-31	-15480	-4328	-2128	12	-4	-15	-15608	-944	-4360	11	-17	23	-12364	4548	10188	167	15	-130	-16416	-2704	-1120	181	-6	163	-16064	1224	-2400	419	-138	63	124	128	8
-11740	-2136	10632	-18	14	-27	-15424	-3984	-2136	15	-2	-14	-15768	-752	-4200	13	-23	21	-12376	4572	10272	129	-26	-77	-16400	-2696	-1248	191	6	131	-16096	1176	-2524	400	-116	89	125	128	8
-11848	-2144	10672	-12	16	-27	-15544	-4072	-2136	2	-11	-8	-15824	-944	-4392	15	-24	23	-12396	4600	10260	113	-65	-138	-16360	-2652	-1300	163	5	177	-15988	1220	-2584	433	-72	116	127	128	8
-11756	-2124	10728	-12	16	-31	-15392	-4064	-2168	14	-8	-4	-15672	-1016	-4440	13	-22	22	-12352	4528	10124	154	-79	-118	-16404	-2692	-1212	187	-71	147	-16056	1200	-2604	414	-77	115	127	128	8
-11736	-2084	10608	-12	18	-23	-15496	-4000	-2112	2	-11	-3	-15672	-872	-4376	16	-30	20	-12392	4512	10160	138	-7	-139	-16312	-2644	-1248	180	-41	166	-16128	1200	-2432	363	-126	133	125	128	8
-11648	-2144	10660	-7	12	-25	-15544	-4064	-2016	-13	-11	1	-15712	-712	-4128	10	-33	28	-12344	4528	10300	151	-5	-115	-16368	-2712	-1088	173	-60	229	-16072	1272	-2384	343	-122	123	125	128	8
-11728	-2160	10692	-7	12	-21	-15496	-4080	-2264	-18	-12	0	-15472	-704	-4464	1	-27	30	-12304	4544	10368	154	1	-118	-16456	-2624	-1256	61	-35	200	-16024	1216	-2428	368	-90	109	126	128	8
-11792	-2112	10744	-12	11	-25	-15480	-4096	-2072	3	-7	4	-15664	-768	-4392	5	-23	35	-12336	4536	10284	171	10	-144	-16336	-2644	-1204	96	-32	152	-16032	1256	-2448	327	-89	122	125	128	8
-11760	-2168	10732	-12	13	-25	-15464	-3912	-2208	12	-3	4	-15768	-864	-4296	13	-16	34	-12328	4500	10288	124	-15	-80	-16344	-2668	-1160	136	-29	243	-16044	1240	-2524	275	-45	133	126	128	8
-11740	-2064	10592	-10	13	-24	-15544	-4176	-2064	23	-3	4	-15632	-792	-4096	15	-14	28	-12324	4564	10152	169	-34	-120	-16420	-2700	-1200	196	-90	212	-16068	1172	-2528	337	-57	148	126	128	8
-11784	-2080	10600	-11	19	-22	-15488	-3968	-2248	13	-4	7	-15768	-840	-4408	17	-16	31	-12344	4504	10224	163	-69	-98	-16352	-2732	-1128	210	-72	229	-16060	1260	-2616	337	-54	182	125	128	8
-11752	-2076	10632	-9	15	-19	-15512	-4184	-2272	12	-4	7	-15848	-1056	-4280	26	-15	30	-12356	4496	10224	174	-39	-113	-16372	-2700	-1120	175	-70	224	-16080	1280	-2560	344	-62	151	125	128	8
-11744	-2112	10628	-10	15	-21	-15536	-4096	-2368	3	-6	9	-15696	-888	-4112	24	-15	31	-12360	4536	10184	174	-33	-112	-16432	-2648	-1132	148	-98	246	-16024	1296	-2440	326	-11	174	125	128	8
-11808	-2124	10644	-14	14	-18	-15528	-4304	-2064	18	2	5	-15608	-944	-4304	29	-17	34	-12256	4544	10200	156	39	-111	-16424	-2644	-1236	159	-100	227	-16012	1324	-2420	297	-4	147	125	128	8
-11728	-2124	10724	-12	17	-20	-15496	-4112	-2112	23	2	13	-15848	-936	-4168	38	-14	34	-12392	4488	10308	128	-21	-132	-16348	-2752	-1152	137	-84	263	-16056	1328	-2476	222	10	173	124	128	8
-11800	-2220	10660	-8	16	-23	-15552	-3952	-2288	22	-2	17	-15696	-872	-4128	49	-5	31	-12320	4504	10224	131	-23	-133	-16352	-2704	-1068	115	-108	209	-16052	1428	-2380	141	40	128	124	128	8
-11772	-2096	10764	-7	15	-18	-15632	-4136	-2096	12	-2	17	-15656	-928	-4376	49	-12	25	-12360	4564	10180	109	-58	-126	-16368	-2636	-1140	77	-106	224	-16040	1356	-2460	47	58	112	126	128	8
-11728	-2112	10644	-4	17	-17	-15576	-4120	-2072	20	5	12	-15784	-808	-4128	49	-12	30	-12344	4556	10180	124	-55	-151	-16384	-2588	-1220	36	-46	228	-16068	1356	-2364	-2	90	85	127	128	8
-11792	-2124	10708	-4	15	-12	-15432	-4008	-1960	21	2	17	-15784	-864	-4224	49	-8	27	-12244	4552	10192	108	-20	-114	-16392	-2684	-1148	34	-88	203	-16036	1400	-2412	-39	122	61	127	128	8
-11764	-2092	10712	-8	13	-18	-15528	-3968	-1872	13	6	17	-15704	-560	-4256	43	-4	30	-12324	4560	10096	100	-65	-130	-16444	-2576	-1080	-28	-48	204	-16108	1400	-2348	-100	129	76	127	128	8
-11780	-2112	10656	-9	20	-17	-15416	-3968	-2272	2	4	10	-15672	-488	-4168	30	-5	28	-12296	4500	10288	131	-56	-136	-16396	-2668	-1064	-36	-62	173	-16056	1392	-2364	-121	190	26	128	128	8
-11672	-2060	10720	-9	20	-16	-15536	-3968	-2184	3	5	10	-15784	-576	-4488	23	-7	22	-12368	4564	10256	109	-60	-129	-16392	-2632	-1120	42	-39	193	-16052	1340	-2444	-63	146	15	128	128	8
-11772	-2068	10680	-12	17	-17	-15552	-3808	-2112	-11	0	9	-15616	-408	-4392	4	-7	18	-12312	4536	10288	121	-27	-161	-16384	-2608	-1164	-14	-40	180	-16060	1308	-2448	-84	212	-17	128	128	8
-11768	-2076	10668	-6	14	-19	-15528	-3848	-2144	-10	-2	5	-15712	-520	-4256	-7	-5	18	-12288	4532	10220	158	8	-156	-16464	-2632	-1064	-93	-41	157	-16080	1296	-2500	-48	158	15	128	128	8
-11748	-2016	10612	-10	16	-21	-15536	-3880	-2064	-8	-1	1	-15648	-608	-4104	-18	-7	8	-12248	4540	10152	159	28	-111	-16396	-2688	-1156	-94	0	143	-16072	1308	-2456	-25	130	12	128	128	8
-11748	-2124	10664	-10	20	-23	-15512	-3872	-2208	-15	-1	-1	-15568	-616	-4520	-13	-13	9	-12324	4536	10328	162	21	-109	-16384	-2604	-1204	-34	20	202	-16088	1336	-2580	13	141	-18	129	128	8
-11764	-2108	10768	-11	18	-23	-15496	-3872	-2080	-12	-8	2	-15624	-672	-4352	-16	-19	7	-12376	4536	10300	178	18	-127	-16404	-2500	-1244	8	2	194	-16048	1340	-2584	63	137	-8	128	128	8
-11732	-2108	10788	-11	19	-26	-15624	-3968	-1992	-12	-5	-3	-15648	-728	-4176	-17	-25	8	-12368	4468	10244	125	-15	-137	-16380	-2624	-1324	5	24	194	-15996	1364	-2628	-14	108	40	128	128	8
-11800	-2100	10672	-8	17	-26	-15464	-3816	-2176	-14	-7	-1	-15680	-776	-4288	-15	-24	8	-12368	4532	10292	145	3	-103	-16412	-2592	-1216	-70	-7	135	-16044	1360	-2576	-48	58	-22	128	127	8
-11708	-2132	10632	-10	14	-24	-15544	-3984	-1952	-7	-9	-5	-15592	-776	-3976	-16	-16	14	-12328	4572	10148	142	-38	-137	-16436	-2632	-1200	-15	-51	149	-15992	1316	-2564	-32	69	-17	127	127	8
-11776	-2060	10692	-10	16	-24	-15416	-3976	-2168	-10	-9	-6	-15632	-744	-4264	-14	-19	11	-12328	4644	10260	123	29	-120	-16360	-2640	-1284	-38	-9	130	-16092	1300	-2520	-4	68	-4	127	127	8
-11764	-2116	10616	-11	20	-21	-15432	-3816	-1896	-18	-15	-4	-15656	-704	-4360	-16	-20	11	-12348	4552	10092	134	33	-115	-16460	-2620	-1188	-32	-59	146	-16064	1340	-2532	-35	83	-16	127	128	8
-11716	-2124	10612	-11	19	-29	-15552	-4008	-1848	-14	-9	-5	-15688	-816	-4256	-21	-24	7	-12356	4528	10292	156	-57	-119	-16400	-2604	-1248	-6	-37	170	-16048	1356	-2520	-69	64	-17	126	127	8
-11716	-2120	10724	-13	18	-22	-15544	-3952	-2120	-17	-6	-1	-15696	-784	-4544	-18	-28	8	-12380	4500	10180	131	10	-146	-16348	-2588	-1160	-11	-12	171	-16012	1336	-2432	7	12	-11	126	127	8
-11788	-2100	10608	-12	17	-21	-15584	-3984	-2424	-9	-5	-3	-15712	-760	-4168	-21	-18	5	-12392	4572	10128	142	-10	-152	-16336	-2608	-1072	-7	-18	150	-16020	1216	-2500	35	57	23	125	128	8
-11724	-2064	10704	-12	15	-21	-15608	-3816	-2168	-15	-7	-6	-15544	-816	-4248	-28	-16	14	-12328	4516	10280	83	-16	-121	-16368	-2540	-1196	-16	-27	159	-16100	1288	-2512	107	49	39	125	128	8
-11736	-2068	10632	-12	21	-27	-15472	-4048	-2040	-17	-10	-8	-15656	-712	-4336	-21	-15	9	-12340	4572	10244	110	-40	-121	-16404	-2604	-1292	12	-37	138	-16028	1284	-2560	140	39	69	126	128	8
-11704	-2088	10616	-15	15	-24	-15376	-3944	-2056	-13	-10	-5	-15656	-680	-4256	-16	-20	13	-12364	4520	10176	137	-16	-126	-16400	-2604	-1112	118	-8	139	-16024	1276	-2612	149	40	26	125	128	8
-11756	-2064	10828	-11	14	-23	-15480	-3880	-2168	-8	-6	-2	-15696	-864	-4000	-8	-26	15	-12296	4604	10240	128	-15	-126	-16428	-2588	-1220	71	-28	166	-16048	1328	-2588	138	39	43	126	128	8
-11768	-2068	10680	-10	14	-24	-15640	-3968	-1960	-16	-10	-4	-15608	-880	-4056	-1	-23	13	-12312	4552	10232	145	-65	-118	-16396	-2556	-1208	80	-25	141	-16052	1420	-2536	146	-6	55	125	128	8
-11736	-2060	10652	-15	16	-28	-15496	-4008	-2072	1	-5	-8	-15648	-808	-4168	-4	-19	19	-12324	4560	10168	109	-19	-119	-16392	-2640	-1140	79	5	152	-16076	1408	-2592	172	1	28	125	128	8
-11748	-2052	10668	-12	16	-24	-15624	-3840	-2136	-5	0	-9	-15736	-600	-4344	-5	-18	24	-12344	4532	10268	126	-61	-145	-16468	-2632	-1140	49	-17	149	-16008	1368	-2584	203	57	30	125	127	8
-11760	-2096	10680	-14	18	-24	-15480	-3944	-2280	-13	0	-2	-15672	-720	-4144	8	-17	19	-12364	4508	10272	145	-57	-168	-16468	-2600	-1192	65	-39	106	-16048	1264	-2628	192	0	45	125	128	8
-11804	-2064	10652	-15	21	-28	-15464	-3976	-2216	-11	-1	-7	-15544	-800	-4128	7	-17	16	-12320	4572	10236	132	-63	-150	-16444	-2632	-1204	134	0	171	-16104	1228	-2392	199	-5	46	124	127	8
-11776	-2152	10752	-20	17	-25	-15656	-3952	-2200	-2	-4	-9	-15512	-776	-4288	-9	-16	20	-12316	4448	10220	142	-67	-128	-16336	-2608	-1156	97	-41	157	-16088	1188	-2528	265	-20	-3	124	127	8
-11792	-2196	10556	-16	18	-26	-15440	-3824	-2128	-16	-8	-7	-15720	-688	-4248	-13	-16	18	-12348	4572	10136	135	-71	-142	-16408	-2628	-1140	142	-27	178	-15988	1308	-2596	297	-48	63	124	127	8
-11724	-2076	10668	-14	13	-29	-15568	-4040	-2072	-27	-10	-9	-15576	-704	-4352	-12	-17	19	-12328	4492	10240	132	-24	-137	-16336	-2640	-1196	148	-21	187	-16004	1320	-2576	338	-104	86	125	127	8
-11784	-2100	10640	-13	16	-27	-15584	-3968	-2032	-26	-7	-10	-15744	-784	-4056	-29	-23	28	-12368	4496	10204	136	-24	-114	-16424	-2684	-1204	171	-65	159	-16008	1280	-2608	338	-109	94	126	127	8
-11760	-2112	10600	-17	15	-32	-15552	-3960	-2336	-21	-7	-4	-15784	-944	-4184	-14	-22	25	-12304	4492	10120	172	-48	-117	-16372	-2624	-1104	168	-33	189	-16092	1176	-2500	499	-107	124	126	128	8
-11804	-2092	10720	-10	15	-29	-15528	-4048	-2304	2	1	-6	-15664	-984	-4256	5	-18	29	-12316	4516	10152	133	-80	-69	-16344	-2644	-1120	226	-60	206	-15980	1244	-2504	515	-98	150	125	128	8
-11712	-2136	10636	-11	16	-25	-15536	-4000	-2000	26	5	-8	-15776	-840	-4232	13	-7	32	-12408	4524	10248	139	-28	-156	-16392	-2644	-1256	216	-44	170	-16040	1344	-2488	547	-113	121	126	128	8
-11800	-2132	10628	-11	18	-22	-15528	-4032	-2352	20	5	-5	-15840	-824	-4360	23	-6	32	-12292	4512	10280	125	-47	-139	-16352	-2588	-1192	287	-59	202	-16104	1344	-2504	525	-114	124	126	127	8
-11728	-2052	10728	-14	15	-22	-15512	-4048	-2280	5	8	2	-15632	-920	-4224	38	-5	35	-12376	4480	10240	132	-16	-105	-16408	-2676	-1084	269	-18	189	-16124	1340	-2528	564	-99	104	125	128	8
-11748	-2052	10692	-12	20	-26	-15304	-3976	-2280	4	5	-2	-15888	-760	-4280	31	-14	39	-12280	4516	10236	153	-70	-132	-16392	-2564	-1124	271	-21	194	-16124	1352	-2464	515	-66	144	125	128	8
-11768	-2144	10720	-15	14	-23	-15480	-4112	-2232	-2	6	-1	-15704	-776	-4248	40	-14	34	-12312	4532	10272	160	-28	-130	-16360	-2544	-1116	228	50	171	-16048	1408	-2380	397	53	116	125	128	8
-11752	-2128	10612	-9	15	-27	-15464	-3912	-2032	6	10	4	-15760	-856	-4304	41	-6	38	-12324	4552	10152	125	2	-142	-16432	-2560	-1264	111	38	170	-16156	1364	-2392	304	138	118	126	128	8
-11764	-2092	10592	-13	16	-21	-15488	-3840	-2288	-2	7	4	-15640	-696	-4368	34	2	33	-12320	4516	10292	126	-61	-119	-16416	-2556	-1176	116	71	149	-16100	1412	-2664	226	109	60	127	127	8
-11760	-2164	10752	-6	13	-19	-15424	-4072	-2136	-1	3	1	-15736	-704	-4720	43	6	34	-12252	4500	10264	135	-20	-128	-16320	-2612	-1164	117	10	144	-15976	1400	-2636	160	174	58	126	127	8
-11764	-2104	10584	-7	22	-22	-15544	-4016	-2144	19	9	5	-15640	-576	-4368	44	2	30	-12300	4576	10128	87	-50	-135	-16388	-2612	-1224	155	-8	173	-16068	1360	-2628	89	141	48	125	128	8
-11788	-2100	10600	-8	18	-26	-15536	-3944	-2248	9	5	3	-15600	-680	-4608	27	-2	29	-12324	4540	10256	122	-35	-144	-16328	-2580	-1084	95	-37	160	-16020	1304	-2684	30	74	33	124	128	8
-11768	-2200	10600	-7	17	-21	-15544	-3952	-2168	-11	0	4	-15608	-824	-4296	27	-9	30	-12328	4512	10292	151	-54	-127	-16376	-2572	-1148	98	-5	182	-16048	1304	-2644	15	74	35	125	127	8
-11760	-2092	10592	-12	16	-19	-15544	-3976	-2216	2	1	1	-15656	-768	-4448	18	-5	24	-12316	4504	10236	127	-50	-94	-16448	-2632	-1236	94	-65	172	-16036	1224	-2644	62	46	50	126	127	8
-11688	-2096	10632	-15	18	-23	-15688	-4000	-2184	6	-2	6	-15752	-864	-4360	26	-15	22	-12332	4560	10152	99	-19	-132	-16416	-2640	-1164	61	-121	198	-16024	1252	-2580	139	8	76	127	127	8
-11768	-2108	10632	-11	16	-21	-15616	-4040	-2360	8	-6	2	-15768	-592	-4336	21	-16	22	-12280	4532	10164	122	-22	-133	-16380	-2656	-1264	105	-107	189	-16044	1324	-2536	148	-4	118	127	127	8
-11748	-2108	10608	-10	16	-17	-15600	-3880	-2136	6	-9	0	-15600	-520	-4352	19	-26	21	-12328	4480	10184	141	-41	-171	-16360	-2648	-1128	139	-89	210	-16056	1332	-2480	199	-19	123	127	127	8
-11760	-2088	10732	-12	16	-21	-15664	-3752	-2328	-7	-11	-2	-15616	-624	-4456	9	-30	24	-12348	4488	10252	145	-47	-94	-16400	-2612	-1120	149	-113	216	-16024	1332	-2560	286	-84	106	127	128	8
-11732	-2096	10732	-12	18	-23	-15504	-3856	-2104	-7	-17	3	-15520	-560	-4288	4	-31	22	-12344	4552	10232	125	-17	-80	-16464	-2592	-1240	100	-81	224	-16044	1364	-2516	276	-71	122	127	127	8
-11816	-2088	10656	-12	15	-20	-15520	-3728	-2232	-5	-14	-2	-15608	-656	-4216	6	-39	17	-12380	4556	10140	167	-44	-134	-16420	-2604	-1136	107	-124	235	-16064	1320	-2600	243	-82	112	126	127	8
-11720	-2028	10596	-10	15	-25	-15472	-3904	-1864	-2	-18	0	-15736	-600	-4136	-7	-38	18	-12300	4600	10356	155	-25	-105	-16388	-2592	-1192	124	-95	187	-16092	1384	-2596	167	-41	96	126	127	8
-11704	-2128	10652	-11	14	-21	-15392	-3864	-2328	1	-18	0	-15648	-712	-4096	-9	-31	17	-12268	4556	10304	128	-23	-110	-16356	-2536	-1168	77	-127	222	-16000	1396	-2644	131	-74	106	126	127	8
-11828	-2060	10732	-13	18	-22	-15480	-4008	-2112	-12	-19	0	-15504	-672	-4168	-10	-29	17	-12332	4500	10176	151	-35	-106	-16432	-2596	-1148	58	-135	241	-16000	1412	-2484	88	-65	80	125	127	8
-11752	-2088	10672	-17	14	-27	-15376	-3848	-2216	-14	-20	-4	-15648	-728	-4240	-11	-29	16	-12308	4556	10272	152	-3	-84	-16412	-2572	-1216	53	-135	150	-16044	1412	-2568	66	-73	101	125	128	8
-11736	-2120	10724	-11	16	-26	-15576	-3824	-2152	1	-21	-1	-15648	-736	-4240	-8	-34	15	-12280	4496	10176	113	-43	-86	-16368	-2592	-1172	-24	-146	195	-16092	1360	-2492	86	-79	63	126	128	8
-11792	-2072	10644	-14	19	-23	-15464	-3912	-2152	-3	-22	0	-15680	-704	-4040	-7	-37	17	-12380	4492	10168	154	-59	-99	-16416	-2628	-1116	57	-140	208	-16112	1352	-2568	90	-88	60	126	127	8
-11732	-2040	10620	-8	20	-26	-15536	-3744	-2336	-7	-17	1	-15576	-600	-4136	-8	-40	17	-12312	4528	10184	154	-15	-113	-16408	-2512	-1092	90	-134	179	-16048	1412	-2488	135	-104	80	125	128	8
-11752	-2108	10624	-13	12	-24	-15448	-3968	-2048	-4	-13	-1	-15624	-664	-4224	-13	-36	17	-12340	4544	10196	135	-48	-106	-16392	-2556	-1128	1	-116	198	-16064	1456	-2660	197	-106	57	125	127	8
-11760	-2080	10684	-7	14	-20	-15648	-3976	-2056	11	-13	-4	-15672	-608	-4328	-8	-35	14	-12352	4500	10192	115	-49	-118	-16380	-2600	-1144	7	-131	187	-16020	1340	-2564	157	-110	89	127	127	8
-11728	-2072	10684	-10	15	-21	-15560	-3912	-2288	2	-15	-1	-15712	-504	-4288	-8	-32	12	-12280	4548	10224	95	-15	-138	-16440	-2552	-1064	90	-119	204	-16012	1364	-2532	186	-65	87	128	127	8
-11716	-2096	10780	-11	18	-24	-15576	-3872	-2120	-10	-23	-7	-15632	-688	-4432	-20	-33	13	-12324	4564	10272	159	-77	-124	-16356	-2508	-1132	97	-112	220	-16088	1400	-2452	227	-99	81	127	127	8
-11760	-2092	10568	-9	15	-22	-15448	-4008	-2336	-9	-21	-4	-15640	-792	-4248	-13	-36	13	-12332	4556	10292	141	-57	-132	-16404	-2456	-984	24	-115	180	-16040	1452	-2468	200	-65	57	127	127	8
-11780	-2196	10512	-7	15	-21	-15512	-3832	-2096	3	-18	-6	-15744	-664	-3960	-9	-35	12	-12312	4560	10136	190	-19	-141	-16392	-2632	-1072	3	-127	214	-16108	1396	-2412	125	-77	54	127	127	8
-11796	-2064	10676	-14	15	-20	-15472	-3872	-1928	9	-12	-7	-15784	-800	-4248	-8	-33	11	-12332	4564	10328	150	-46	-109	-16392	-2484	-1112	-67	-91	195	-16096	1432	-2328	58	-46	34	127	126	8
-11748	-2144	10680	-11	18	-27	-15376	-3832	-2136	-3	-16	-2	-15752	-664	-4144	-9	-31	22	-12368	4580	10228	121	-14	-120	-16484	-2472	-1032	-72	-80	181	-16012	1480	-2368	-6	-14	36	126	127	8
-11744	-2064	10704	-7	17	-24	-15656	-3984	-2072	-9	-12	-6	-15872	-808	-4168	-13	-25	15	-12336	4552	10332	121	-18	-117	-16380	-2548	-1068	-79	-81	219	-16068	1496	-2420	-80	26	-4	124	127	8
-11724	-2072	10696	-10	18	-20	-15464	-3936	-2272	-1	-14	-6	-15696	-808	-4320	-9	-18	15	-12352	4488	10220	139	-21	-155	-16384	-2604	-1120	-85	-60	178	-16056	1468	-2296	-186	29	21	124	125	8
-11716	-2072	10656	-14	24	-23	-15536	-3736	-1920	1	-6	-5	-15656	-672	-4208	-3	-18	18	-12260	4536	10232	125	-29	-125	-16492	-2584	-1084	-143	-11	163	-16044	1480	-2376	-248	104	-6	126	126	8
-11816	-2044	10600	-12	20	-22	-15576	-3960	-2256	-7	-11	-3	-15576	-704	-4136	-16	-20	20	-12272	4592	10216	97	9	-152	-16320	-2552	-1052	-184	30	183	-16108	1388	-2384	-278	118	-22	126	125	8
-11768	-2100	10580	-7	18	-27	-15488	-3864	-2176	-17	-13	-4	-15592	-576	-4112	-19	-24	13	-12268	4492	10264	102	-83	-81	-16388	-2488	-1100	-233	-11	172	-15996	1440	-2412	-280	134	-23	126	127	8
-11736	-2132	10668	-11	19	-22	-15568	-4040	-1832	-15	-13	-2	-15600	-680	-4328	-26	-26	8	-12320	4620	10200	113	-24	-117	-16444	-2560	-1132	-199	16	179	-16008	1392	-2512	-276	172	-64	126	128	8
-11768	-2164	10656	-10	15	-21	-15560	-3776	-2176	-13	-13	-4	-15736	-624	-4008	-30	-22	8	-12296	4512	10208	74	-24	-143	-16436	-2548	-1240	-178	17	183	-16040	1476	-2384	-234	142	-36	127	128	8
-11780	-2084	10644	-11	17	-25	-15632	-3904	-2024	-16	-16	-8	-15688	-616	-4288	-34	-23	7	-12344	4496	10140	67	-23	-150	-16396	-2536	-956	-119	29	192	-16044	1516	-2520	-191	163	-18	127	128	8
-11796	-2136	10680	-12	18	-25	-15416	-3728	-2248	-13	-19	-3	-15680	-672	-4248	-39	-29	3	-12296	4528	10180	97	-26	-139	-16408	-2580	-1100	-116	64	187	-16072	1380	-2500	-208	140	-32	127	128	8
-11780	-2120	10692	-10	18	-23	-15496	-3816	-2048	-16	-17	-3	-15680	-688	-4472	-39	-33	3	-12336	4464	10236	54	4	-156	-16460	-2480	-1148	-198	-4	204	-16088	1336	-2660	-183	191	-46	127	127	8
-11784	-2116	10652	-13	17	-26	-15536	-3848	-1872	-14	-16	-6	-15784	-632	-4016	-40	-35	3	-12304	4500	10324	101	-31	-130	-16340	-2684	-1312	-184	61	193	-16168	1336	-2652	-45	163	-93	127	127	8
-11772	-2060	10660	-14	17	-18	-15472	-4048	-2016	-12	-9	-3	-15776	-824	-4144	-33	-34	2	-12312	4436	10264	100	21	-134	-16444	-2540	-1340	-102	45	169	-16080	1312	-2704	-25	179	-21	127	127	8
-11728	-2096	10764	-11	17	-21	-15480	-3832	-2192	-10	-9	-2	-15768	-816	-3944	-30	-27	7	-12288	4476	10232	119	7	-123	-16360	-2648	-1280	-117	10	196	-15964	1240	-2708	161	144	-40	126	127	8
-11732	-2088	10592	-11	20	-22	-15656	-4016	-1976	-2	-7	-3	-15704	-880	-4240	-27	-20	8	-12376	4520	10200	152	31	-59	-16304	-2608	-1392	68	35	157	-15996	1184	-2652	325	73	-23	126	127	8
-11708	-2100	10748	-9	19	-28	-15600	-3984	-1896	-13	-5	-7	-15752	-656	-4104	-22	-22	10	-12312	4564	10276	177	12	-96	-16408	-2668	-1320	395	71	172	-16040	1188	-2652	646	81	-18	126	127	8
-11712	-2160	10632	-7	19	-26	-15496	-4000	-2144	-24	-8	-3	-15592	-648	-4024	-14	-21	14	-12336	4592	10204	218	10	-86	-16428	-2512	-1160	607	94	222	-16104	1392	-2696	867	63	78	127	127	8
-11748	-2160	10596	-12	20	-26	-15440	-3944	-2024	-1	-1	-5	-15680	-664	-4024	-13	-21	18	-12348	4512	10168	202	45	-109	-16460	-2420	-1176	507	55	176	-16116	1392	-2796	881	12	59	127	126	8
-11776	-2116	10708	-12	22	-23	-15552	-3832	-2072	-2	2	1	-15736	-680	-4336	-1	-17	18	-12332	4592	10168	210	-17	-71	-16436	-2524	-1160	361	23	142	-16032	1492	-2544	776	-41	75	128	126	8
-11688	-2092	10648	-13	18	-23	-15488	-3904	-2144	-1	6	-5	-15688	-712	-4112	5	-8	20	-12276	4492	10236	178	41	-79	-16400	-2484	-1092	249	27	160	-16096	1432	-2588	779	-63	54	127	127	8
-11792	-2120	10628	-7	19	-26	-15472	-3944	-2128	6	7	-4	-15832	-568	-4280	19	-8	22	-12396	4548	10288	177	79	-93	-16536	-2504	-1296	218	25	155	-16096	1452	-2536	727	-57	16	125	127	8
-11732	-2156	10736	-15	19	-25	-15552	-3784	-2208	12	13	-1	-15680	-720	-4136	30	-7	23	-12324	4524	10128	159	11	-106	-16368	-2488	-1208	241	52	149	-16024	1456	-2572	623	15	65	123	126	8
-11700	-2128	10596	-14	20	-26	-15384	-3840	-1888	17	10	-6	-15672	-832	-4152	42	-5	23	-12328	4636	10240	161	-18	-120	-16412	-2468	-1264	288	-19	158	-15996	1484	-2660	553	19	60	123	127	8
-11776	-2092	10552	-13	19	-26	-15440	-3856	-2344	21	10	-4	-15568	-864	-4208	48	-4	30	-12352	4528	10240	131	-6	-158	-16412	-2416	-1144	270	-6	153	-15992	1460	-2656	417	-4	74	121	127	8
-11764	-2096	10560	-13	20	-22	-15560	-3928	-1744	13	6	-3	-15600	-728	-4240	56	-5	34	-12308	4556	10172	118	-51	-128	-16416	-2576	-1188	165	-38	111	-16044	1420	-2636	324	-13	73	120	127	8
-11756	-2128	10620	-11	20	-22	-15536	-3736	-2184	5	13	-3	-15712	-640	-4216	58	-7	33	-12348	4540	10272	151	24	-139	-16428	-2660	-1192	215	-63	116	-16040	1384	-2596	324	-8	78	121	127	8
-11764	-2164	10624	-12	19	-23	-15584	-4000	-2072	17	9	2	-15744	-696	-4112	57	-6	36	-12280	4608	10268	141	-9	-117	-16328	-2592	-1092	186	-41	171	-16120	1272	-2524	157	-13	29	123	127	8
-11780	-2104	10692	-11	17	-23	-15616	-3808	-1984	22	7	-5	-15680	-760	-4072	47	-3	32	-12288	4492	10248	182	19	-112	-16444	-2536	-1052	110	-6	167	-15956	1252	-2508	198	-36	46	123	127	8
-11780	-2104	10620	-9	19	-26	-15744	-3832	-2104	16	9	4	-15784	-752	-4288	47	0	33	-12376	4548	10168	193	-16	-129	-16364	-2648	-1208	215	-28	194	-15948	1268	-2556	344	38	49	124	127	8
-11856	-2072	10748	-13	17	-21	-15576	-3800	-2272	7	7	4	-15648	-648	-4072	28	-3	34	-12308	4560	10212	158	24	-93	-16412	-2564	-1120	281	41	211	-16048	1252	-2396	360	74	106	126	126	8
-11776	-2116	10632	-9	16	-25	-15632	-3792	-2280	-5	8	-1	-15504	-664	-4328	12	-2	35	-12320	4604	10144	177	21	-122	-16452	-2484	-1132	313	22	199	-16084	1396	-2424	363	68	142	127	127	8
-11716	-2044	10704	-8	15	-23	-15488	-3776	-2208	-19	3	2	-15688	-856	-4224	6	-4	25	-12284	4596	10272	145	-22	-119	-16444	-2444	-1088	114	57	193	-16084	1440	-2444	290	18	107	126	127	8
-11720	-2120	10660	-6	13	-22	-15552	-3872	-2112	-14	2	6	-15768	-624	-4200	7	-9	24	-12284	4576	10224	141	29	-114	-16460	-2524	-1200	64	49	211	-16120	1460	-2464	268	66	84	125	127	8
-11804	-2116	10692	-10	12	-21	-15568	-4040	-1992	-5	2	9	-15656	-704	-4368	2	-11	29	-12332	4580	10232	119	-2	-131	-16388	-2524	-1220	23	49	193	-16008	1508	-2492	128	129	85	125	127	8
-11808	-2048	10616	-9	15	-24	-15520	-3816	-2368	0	1	8	-15648	-784	-4216	-3	-8	31	-12336	4616	10180	124	11	-111	-16356	-2476	-1272	-42	47	224	-16016	1356	-2616	-39	138	49	125	127	8
-11752	-2036	10676	-8	14	-19	-15488	-3904	-2208	-4	-1	12	-15688	-744	-4360	-1	-7	35	-12332	4488	10284	112	18	-132	-16412	-2596	-1264	-3	15	285	-16084	1292	-2508	-160	184	19	125	127	8
-11740	-2124	10664	-10	11	-22	-15440	-4008	-2152	-15	-11	9	-15592	-728	-4224	-1	-16	33	-12304	4524	10216	155	22	-96	-16348	-2496	-1148	-61	53	271	-16072	1316	-2588	-220	189	38	127	127	8
-11760	-2012	10688	-10	13	-22	-15464	-3872	-2072	-8	-12	13	-15568	-680	-4480	-6	-23	33	-12364	4592	10264	164	73	-76	-16412	-2520	-1128	-234	7	299	-16048	1296	-2596	-237	163	93	127	127	8
-11764	-2048	10804	-7	13	-19	-15568	-3880	-2248	-15	-8	11	-15624	-568	-4392	-16	-31	31	-12300	4564	10268	154	32	-86	-16388	-2524	-1272	-221	-8	316	-16024	1380	-2760	-307	127	132	127	127	8
-11732	-2132	10560	-7	13	-20	-15648	-3864	-2120	-19	-14	15	-15648	-640	-4200	-23	-30	27	-12304	4528	10304	170	59	-115	-16368	-2620	-1304	-183	30	333	-15992	1260	-2552	-237	145	175	126	127	8
-11780	-2076	10576	-10	10	-23	-15552	-3808	-2360	-12	-14	10	-15656	-512	-4176	-33	-27	26	-12260	4496	10196	148	58	-123	-16452	-2524	-1144	-118	39	284	-16004	1280	-2684	-214	118	172	126	127	8
-11760	-2148	10676	-9	11	-21	-15424	-3776	-2280	-18	-16	15	-15624	-632	-4240	-39	-26	25	-12348	4552	10224	167	54	-115	-16316	-2556	-1204	-77	32	357	-15940	1316	-2620	-208	77	183	125	127	8
-11796	-2068	10704	-13	12	-23	-15760	-3856	-2176	-21	-14	19	-15824	-872	-4016	-45	-27	24	-12328	4556	10220	150	-7	-62	-16400	-2560	-1180	-32	11	323	-16000	1316	-2700	-108	43	141	124	127	8
-11768	-2100	10672	-8	13	-21	-15520	-3800	-2128	-22	-4	19	-15912	-800	-4056	-47	-20	32	-12324	4548	10244	170	-11	-139	-16476	-2424	-1160	-72	12	357	-16100	1356	-2612	-115	105	163	123	127	8
-11784	-2080	10632	-8	11	-22	-15640	-3720	-2120	-19	-3	19	-15760	-840	-4136	-38	-17	38	-12232	4564	10256	171	-6	-104	-16400	-2400	-1148	-151	-27	362	-16180	1452	-2440	-130	130	209	123	127	8
-11708	-2148	10720	-12	11	-16	-15544	-4048	-2128	-3	-2	23	-15760	-848	-4264	-27	-4	44	-12300	4600	10172	137	-13	-116	-16424	-2496	-1220	-173	15	339	-16088	1380	-2624	-137	138	170	123	126	8
-11724	-2072	10644	-6	13	-21	-15664	-3944	-2056	2	-2	18	-15864	-760	-4168	-7	0	52	-12316	4492	10268	131	4	-74	-16396	-2580	-1392	-34	39	380	-16000	1368	-2620	27	212	185	124	127	8
-11824	-2072	10564	-10	18	-22	-15608	-3864	-2144	0	1	28	-15744	-672	-4144	14	-4	50	-12356	4608	10148	147	20	-79	-16452	-2424	-1252	104	60	344	-15956	1428	-2976	151	207	170	124	127	8
-11728	-2060	10796	-8	15	-19	-15352	-3720	-2360	7	5	18	-15776	-536	-4184	21	-4	50	-12320	4580	10180	161	-11	-113	-16416	-2432	-1300	153	7	352	-15980	1492	-2960	220	110	197	124	127	8
-11768	-2056	10648	-8	16	-25	-15560	-3800	-2192	7	4	17	-15616	-616	-4096	37	-21	49	-12336	4564	10188	187	7	-105	-16504	-2380	-1376	190	-64	324	-15968	1476	-2776	257	44	154	125	127	8
-11752	-2056	10716	-6	16	-23	-15544	-3680	-1920	13	9	15	-15552	-296	-4464	42	-21	47	-12332	4524	10236	204	-22	-110	-16388	-2416	-1288	181	-32	311	-16044	1544	-2840	305	-70	182	126	126	8
-11748	-2100	10704	-9	16	-24	-15512	-3744	-2560	20	3	18	-15672	-416	-4400	38	-21	39	-12324	4588	10196	216	-4	-107	-16428	-2432	-1256	175	-83	321	-16068	1424	-2852	346	-127	182	126	126	8
-11716	-2048	10740	-12	17	-24	-15544	-3624	-2432	12	-5	10	-15640	-408	-4224	31	-18	34	-12356	4496	10160	206	-45	-65	-16412	-2420	-1244	319	-97	342	-15964	1392	-2800	492	-124	169	126	126	8
-11720	-2104	10712	-11	16	-21	-15408	-3728	-2288	6	-8	10	-15672	-544	-4312	20	-29	38	-12356	4564	10188	214	-7	-100	-16468	-2344	-1264	397	-75	321	-16024	1508	-2784	627	-126	169	126	127	8
-11836	-2088	10712	-8	17	-28	-15632	-3784	-2200	9	-8	6	-15624	-320	-4368	17	-29	31	-12356	4600	10180	220	6	-95	-16444	-2392	-1260	341	-57	256	-16016	1480	-2708	666	-154	189	126	127	8
-11756	-2092	10680	-9	21	-22	-15640	-3600	-2432	2	-10	-2	-15768	-512	-4368	11	-30	29	-12392	4544	10184	176	-18	-91	-16436	-2392	-1236	384	-92	276	-15964	1540	-2740	696	-129	156	126	126	8
-11720	-2096	10696	-11	15	-22	-15512	-3760	-2192	0	-17	4	-15480	-512	-4224	9	-33	29	-12376	4520	10248	205	7	-92	-16436	-2248	-1188	369	-119	239	-16028	1648	-2724	650	-147	173	127	126	8
-11752	-2124	10608	-10	16	-26	-15496	-3856	-2080	-3	-18	0	-15656	-488	-4224	3	-40	25	-12436	4556	10144	189	-51	-92	-16396	-2360	-1100	214	-166	239	-16060	1552	-2620	566	-117	152	127	127	8
-11824	-2108	10788	-9	17	-24	-15664	-3680	-1920	-6	-21	1	-15640	-568	-4448	1	-42	22	-12372	4576	10092	153	-11	-65	-16452	-2360	-1120	248	-163	213	-16000	1564	-2532	581	-165	90	127	126	8
-11764	-2048	10780	-10	19	-25	-15656	-3752	-1944	-10	-19	1	-15712	-344	-4120	-5	-49	18	-12276	4684	10212	119	-39	-83	-16488	-2376	-1088	304	-125	214	-16100	1620	-2584	567	-115	55	127	127	8
-11716	-2068	10696	-11	17	-27	-15552	-3808	-2080	-15	-21	0	-15848	-360	-4088	-11	-49	15	-12372	4676	10136	131	-28	-72	-16388	-2268	-1160	91	-153	214	-16096	1648	-2624	487	-123	47	126	127	8
-11784	-2068	10552	-13	19	-27	-15512	-3664	-1928	-18	-21	-4	-15736	-480	-4056	-14	-46	9	-12376	4656	10164	115	-16	-98	-16368	-2332	-1092	2	-210	181	-15964	1612	-2676	346	-108	42	124	127	8
-11720	-2060	10740	-12	15	-26	-15576	-3784	-2128	-16	-21	-9	-15680	-472	-4504	-17	-43	11	-12364	4572	10196	120	13	-95	-16432	-2428	-1288	41	-160	164	-15916	1520	-2720	306	-89	36	125	127	8
-11808	-2060	10636	-11	16	-24	-15680	-3624	-2232	-2	-18	-7	-15792	-568	-4184	-17	-42	7	-12284	4632	10172	127	0	-112	-16432	-2364	-1096	98	-158	177	-16024	1536	-2816	296	-148	64	124	126	8
-11860	-2068	10624	-13	17	-26	-15624	-3632	-1960	-4	-27	-9	-15528	-496	-3984	-14	-39	9	-12340	4556	10188	116	-30	-102	-16424	-2336	-1212	42	-182	183	-16016	1516	-2572	216	-172	63	124	127	8
-11780	-2060	10656	-16	18	-28	-15416	-3696	-2184	-11	-24	-7	-15560	-432	-4184	-14	-38	9	-12356	4636	10204	157	-50	-134	-16544	-2328	-1016	86	-188	146	-16068	1504	-2612	162	-238	119	123	127	8
-11732	-2048	10580	-10	15	-25	-15696	-3648	-2320	-15	-22	-7	-15784	-672	-3896	8	-35	10	-12308	4652	10192	115	-44	-99	-16384	-2364	-1008	62	-138	174	-16104	1604	-2460	173	-248	94	124	128	8
-11840	-2064	10676	-13	19	-27	-15584	-3800	-2040	-5	-15	-2	-15904	-712	-4216	16	-41	13	-12284	4568	10232	124	-19	-132	-16364	-2392	-1088	59	-124	175	-15964	1564	-2404	147	-136	77	124	127	8
-11760	-2124	10676	-12	19	-27	-15648	-3752	-2152	0	-9	-7	-15808	-728	-4016	13	-37	12	-12320	4540	10160	119	-92	-119	-16472	-2424	-1164	113	-101	130	-16004	1460	-2492	140	-77	29	124	127	8
-11812	-2088	10636	-13	19	-24	-15448	-3744	-1928	8	-2	-2	-15720	-680	-4112	15	-27	19	-12300	4608	10196	124	-23	-108	-16468	-2324	-1168	106	-85	135	-16104	1548	-2548	152	-26	66	124	127	8
-11812	-2100	10668	-11	17	-20	-15712	-3880	-2344	7	-3	-6	-15712	-664	-4168	13	-11	22	-12308	4572	10244	141	-21	-144	-16344	-2468	-1116	71	-87	145	-16068	1476	-2548	87	-79	39	126	128	8
-11780	-2040	10632	-9	15	-26	-15440	-3760	-2176	-3	-12	-5	-15744	-536	-4128	11	-15	20	-12372	4576	10184	109	-99	-94	-16360	-2372	-1224	127	-26	165	-16024	1456	-2476	194	-110	17	127	127	8
-11764	-2084	10620	-16	23	-25	-15512	-3712	-2032	-15	-8	1	-15592	-520	-4112	-2	-24	16	-12360	4588	10116	108	-34	-87	-16380	-2444	-1088	136	-33	158	-16048	1392	-2532	205	-25	-13	127	127	8
-11744	-2088	10608	-15	17	-25	-15496	-3720	-2080	-9	-8	0	-15592	-568	-4016	-12	-33	15	-12384	4624	10240	64	-55	-115	-16440	-2416	-1208	21	-89	178	-16080	1440	-2656	159	-38	46	126	127	8
-11716	-2048	10708	-11	18	-24	-15488	-3664	-1984	-8	-12	-1	-15736	-480	-4424	-16	-39	11	-12340	4592	10244	100	-14	-95	-16404	-2432	-1132	50	-115	204	-16024	1444	-2544	183	-69	68	126	127	8
-11760	-2072	10772	-14	17	-25	-15696	-3728	-2336	-19	-16	-5	-15656	-640	-4280	-23	-43	11	-12320	4648	10228	129	-25	-92	-16396	-2424	-1104	134	-111	171	-16020	1428	-2624	218	-102	77	127	127	8
-11748	-2092	10648	-11	16	-25	-15504	-3856	-2136	-15	-21	-2	-15648	-496	-4208	-26	-45	14	-12308	4604	10224	151	-44	-72	-16524	-2388	-1148	151	-71	214	-16044	1460	-2672	234	-40	66	127	126	8
-11720	-2080	10668	-8	18	-24	-15600	-3664	-2200	-12	-25	4	-15648	-624	-4032	-32	-44	7	-12328	4588	10268	145	-17	-93	-16516	-2360	-1108	90	-114	220	-16080	1560	-2668	169	-95	64	128	127	8
-11816	-2080	10672	-14	16	-25	-15560	-3776	-2104	-16	-24	-2	-15784	-728	-4040	-27	-39	9	-12356	4604	10236	127	19	-75	-16452	-2332	-1136	-79	-145	203	-16072	1536	-2552	87	-94	69	126	127	8
-11736	-2028	10604	-10	15	-26	-15648	-3704	-1928	-26	-24	-6	-15744	-512	-3984	-22	-40	10	-12300	4608	10180	119	38	-80	-16464	-2404	-1192	-46	-119	200	-15980	1520	-2552	123	-100	40	126	127	8
-11736	-2036	10632	-7	19	-22	-15640	-3776	-2016	-22	-24	-5	-15736	-568	-4000	-16	-47	12	-12324	4564	10160	159	43	-62	-16456	-2348	-1064	-21	-102	222	-16080	1464	-2520	224	-14	50	124	126	8
-11700	-2092	10772	-10	20	-27	-15520	-3744	-1696	-7	-16	-2	-15760	-688	-3928	-12	-42	17	-12340	4616	10248	185	2	-62	-16428	-2368	-1100	60	-101	199	-15968	1436	-2576	274	-74	56	124	126	8
-11788	-2108	10740	-12	20	-25	-15544	-3816	-2176	2	-14	-2	-15648	-592	-3984	2	-39	21	-12352	4568	10216	212	55	-86	-16392	-2408	-1072	124	-100	204	-15988	1376	-2504	311	-45	102	126	127	8
-11808	-2092	10704	-15	19	-25	-15656	-3720	-2104	6	-11	1	-15848	-584	-3960	9	-32	21	-12360	4596	10212	164	8	-55	-16356	-2356	-1104	131	-106	197	-15896	1324	-2568	501	-128	39	128	127	8
-11800	-2088	10720	-10	17	-27	-15560	-3632	-2232	-2	-10	-5	-15792	-520	-4032	8	-33	22	-12356	4580	10108	196	7	-50	-16460	-2336	-1172	324	-83	250	-16068	1488	-2680	567	-99	73	127	127	8
-11780	-2072	10572	-12	18	-24	-15632	-3808	-2072	-2	-15	-1	-15784	-608	-3816	13	-26	21	-12368	4672	10304	178	-28	-79	-16464	-2252	-1024	271	-103	229	-16000	1556	-2692	527	-113	132	127	128	8
-11760	-2016	10604	-9	16	-25	-15656	-3696	-2416	3	-12	2	-15600	-632	-4264	5	-26	24	-12332	4580	10128	167	21	-98	-16512	-2280	-1204	179	-136	180	-16084	1524	-2468	534	-93	151	127	128	8
-11820	-2048	10708	-15	16	-26	-15552	-3680	-2152	-2	-7	-3	-15744	-496	-4136	13	-24	24	-12396	4636	10148	180	-3	-67	-16524	-2332	-1068	204	-114	206	-16100	1560	-2444	570	-142	104	126	128	8
-11764	-2060	10672	-12	16	-24	-15576	-3736	-1984	3	-7	-4	-15680	-568	-4128	19	-29	24	-12284	4604	10240	173	22	-108	-16396	-2416	-1028	189	-116	189	-16040	1480	-2560	537	-190	109	125	128	8
-11752	-1992	10560	-12	20	-21	-15648	-3784	-1848	3	-7	2	-15880	-528	-3784	22	-33	24	-12368	4584	10152	225	-22	-69	-16416	-2332	-1092	276	-64	209	-15948	1504	-2492	599	-94	29	124	128	8
-11792	-2128	10724	-13	21	-21	-15552	-3704	-2152	8	-8	-4	-15816	-648	-4000	15	-34	24	-12340	4604	10144	202	-21	-94	-16472	-2316	-1128	349	-71	226	-16020	1488	-2556	510	-84	93	124	128	8
-11784	-2076	10636	-14	17	-25	-15672	-3672	-2056	7	-6	-5	-15664	-504	-3872	11	-33	22	-12348	4636	10132	195	-11	-102	-16456	-2252	-1032	213	-91	216	-16076	1592	-2516	377	-150	124	126	128	8
-11800	-2032	10688	-9	14	-24	-15712	-3784	-1912	2	-9	-3	-15768	-512	-3968	1	-24	19	-12244	4600	10240	165	9	-80	-16492	-2296	-1064	104	-129	159	-16100	1588	-2532	333	-187	110	126	128	8
-11776	-2076	10856	-12	18	-24	-15520	-3696	-2032	-4	-11	-5	-15880	-480	-4072	3	-26	21	-12340	4636	10036	144	-11	-106	-16460	-2396	-1052	104	-95	181	-16016	1560	-2468	310	-140	122	125	128	8
-11704	-2020	10764	-12	22	-25	-15568	-3752	-2184	-4	-6	-1	-15760	-488	-3944	-8	-39	13	-12376	4664	10224	135	25	-91	-16512	-2312	-1012	116	-116	151	-16084	1600	-2380	289	-133	31	124	128	8
-11708	-2144	10580	-14	16	-27	-15600	-3536	-2056	-12	-13	-10	-15784	-464	-3952	-12	-40	12	-12344	4616	10180	131	-10	-57	-16432	-2340	-1068	102	-99	172	-16016	1592	-2400	231	-84	72	124	128	8
-11772	-2140	10664	-12	14	-22	-15552	-3704	-2176	-10	-12	-6	-15816	-448	-3848	-15	-34	7	-12320	4632	10248	136	25	-124	-16452	-2268	-1080	144	-95	189	-16064	1636	-2424	232	-100	76	125	128	8
-11804	-2072	10556	-11	18	-26	-15480	-3648	-1952	-6	-11	-8	-15864	-680	-3832	-13	-31	7	-12332	4672	10212	107	-72	-132	-16480	-2320	-1108	126	-93	150	-16000	1548	-2432	213	-103	67	126	128	8
-11772	-1948	10628	-14	15	-28	-15504	-3600	-2000	-7	-12	-9	-15624	-480	-3944	-13	-23	9	-12320	4636	10112	79	-3	-128	-16480	-2372	-1084	196	-53	154	-16016	1568	-2464	296	-107	1	125	127	8
-11764	-2068	10696	-11	17	-21	-15648	-3576	-1896	-12	-9	-9	-15720	-632	-3928	-3	-29	12	-12356	4624	10188	139	-38	-123	-16496	-2324	-1024	136	-78	143	-16080	1640	-2444	236	-121	30	124	128	8
-11720	-2064	10580	-15	17	-23	-15608	-3792	-1904	-8	-8	-14	-15736	-720	-4296	2	-25	13	-12308	4588	10184	150	-61	-130	-16504	-2304	-1020	18	-106	123	-16072	1612	-2332	193	-135	23	124	128	8
-11728	-2068	10532	-10	14	-23	-15568	-3664	-2048	3	-6	-8	-15760	-664	-3904	11	-26	12	-12320	4640	10216	90	12	-150	-16376	-2308	-1092	41	-70	121	-16020	1520	-2360	151	-113	-4	126	128	8
-11776	-2112	10716	-14	18	-24	-15472	-3680	-1880	-4	-9	-12	-15632	-592	-4024	9	-27	13	-12308	4684	10148	120	-9	-124	-16452	-2320	-1048	67	-41	131	-16104	1556	-2556	217	-37	-44	126	128	8
-11792	-2036	10644	-12	17	-29	-15600	-3680	-1680	-7	-8	-14	-15720	-368	-3992	7	-26	12	-12324	4620	10160	137	-29	-135	-16512	-2276	-1064	132	-36	142	-16108	1556	-2356	170	-9	-34	126	128	8
-11796	-2080	10656	-15	19	-26	-15672	-3792	-1896	0	-3	-6	-15632	-608	-3952	7	-26	11	-12336	4640	10108	121	-18	-124	-16456	-2232	-988	65	-54	110	-16068	1584	-2444	160	-32	29	126	128	8
-11800	-2112	10600	-12	21	-25	-15704	-3704	-1872	1	-7	-9	-15888	-672	-4072	-4	-23	9	-12344	4644	10276	115	-60	-133	-16412	-2316	-964	8	-75	98	-16044	1512	-2448	95	-57	16	127	128	8
-11824	-2084	10640	-9	18	-25	-15752	-3688	-1928	-3	-8	-10	-15712	-384	-4216	-7	-24	8	-12400	4672	10240	136	-6	-91	-16476	-2392	-1020	77	-57	117	-16088	1496	-2476	83	-25	-55	126	128	8
-11800	-2108	10700	-12	18	-24	-15744	-3800	-2024	-11	-2	-15	-15824	-592	-3928	-17	-22	6	-12316	4696	10272	97	-66	-158	-16480	-2272	-1020	158	-41	90	-16072	1548	-2540	106	-46	-57	125	128	8
-11776	-2140	10708	-9	18	-26	-15624	-3632	-1792	-14	-13	-7	-15640	-688	-4104	-15	-23	5	-12348	4656	10244	81	-4	-116	-16500	-2232	-1100	78	-19	90	-16084	1528	-2544	78	-80	-7	124	128	8
-11736	-2080	10712	-11	11	-25	-15640	-3832	-1968	-11	-12	-7	-15760	-816	-3864	-12	-27	3	-12296	4668	10256	102	-72	-171	-16420	-2304	-1100	64	-34	109	-16020	1548	-2360	62	-145	38	125	129	8
-11700	-2120	10688	-12	14	-22	-15672	-3832	-1912	-14	-8	-9	-15784	-736	-4056	-10	-24	9	-12344	4612	10196	76	-45	-143	-16396	-2404	-1096	159	-29	93	-16064	1492	-2456	119	-132	-10	124	129	8
-11732	-2056	10724	-11	16	-26	-15648	-3880	-1920	-7	-13	-12	-15800	-608	-4008	-2	-21	11	-12316	4604	10128	68	-60	-183	-16456	-2312	-1052	180	-5	83	-16056	1524	-2360	18	-88	-12	124	129	8
-11784	-2076	10780	-10	15	-24	-15624	-3752	-1736	-5	-9	-9	-15680	-600	-4072	4	-21	10	-12356	4676	10188	78	-85	-143	-16424	-2372	-1028	107	-22	108	-16096	1440	-2444	-33	-49	2	125	128	8
-11776	-2020	10644	-6	14	-23	-15624	-3712	-2032	-1	-13	-7	-15808	-696	-4144	8	-22	15	-12316	4620	10176	86	-29	-144	-16520	-2312	-1052	73	-9	123	-16036	1452	-2328	-1	-63	-11	126	129	8
-11796	-2064	10528	-13	16	-23	-15576	-3584	-2024	-6	-11	-11	-15688	-632	-4200	12	-26	13	-12376	4608	10208	110	-17	-131	-16472	-2360	-1048	62	-53	142	-16064	1452	-2524	33	-54	12	127	129	8
-11764	-2132	10664	-9	14	-24	-15496	-3808	-1872	-10	-10	-12	-15768	-504	-3920	4	-30	7	-12312	4668	10164	61	-36	-130	-16492	-2368	-1132	123	-18	125	-16060	1472	-2464	76	-48	18	126	128	8
-11756	-2112	10680	-9	12	-21	-15432	-3712	-1824	-5	-5	-11	-15688	-544	-3800	5	-29	13	-12296	4644	10128	127	-129	-107	-16504	-2352	-980	152	3	80	-16044	1556	-2624	53	-57	8	125	128	8
-11768	-2024	10648	-11	13	-27	-15608	-3752	-1968	4	-9	-11	-15664	-576	-4088	4	-20	15	-12364	4644	10240	91	-92	-99	-16412	-2308	-1092	170	-11	129	-16088	1504	-2536	108	-76	33	126	128	8
-11748	-2036	10724	-10	11	-24	-15608	-3712	-1976	4	-5	-16	-15824	-472	-3944	6	-18	18	-12224	4648	10248	76	-94	-126	-16532	-2372	-964	186	-21	102	-16104	1492	-2356	113	-93	23	126	127	8
-11768	-2092	10732	-9	15	-28	-15632	-3800	-2024	-5	-11	-14	-15928	-664	-4016	10	-18	18	-12280	4584	10192	123	-47	-123	-16396	-2240	-996	141	-43	87	-16044	1560	-2440	104	-92	52	125	127	8
-11800	-2060	10664	-10	10	-23	-15472	-3816	-1960	-11	-15	-6	-15864	-744	-3808	10	-15	14	-12324	4620	10224	39	-127	-132	-16436	-2444	-1032	84	-56	111	-16012	1540	-2400	77	-100	36	124	127	8
-11764	-2068	10696	-4	11	-23	-15560	-3688	-1944	-4	-10	-12	-15856	-688	-3880	5	-21	17	-12272	4556	10136	59	-93	-170	-16392	-2440	-964	146	-80	87	-15988	1304	-2380	125	-43	22	125	128	8
-11796	-2156	10720	-11	14	-22	-15552	-3688	-1776	-4	-5	-6	-15816	-592	-3848	13	-27	15	-12336	4660	10244	63	-74	-153	-16472	-2472	-884	178	-39	130	-16024	1372	-2368	232	-95	-6	126	127	8
-11732	-2044	10696	-8	15	-22	-15616	-3712	-2104	9	-2	-8	-15688	-528	-3888	8	-24	17	-12312	4632	10272	88	-119	-208	-16452	-2436	-984	91	23	111	-16036	1380	-2320	232	-61	-10	127	127	8
-11812	-2068	10680	-12	19	-24	-15624	-3656	-1896	0	-6	-9	-15776	-576	-3800	2	-23	14	-12284	4600	10116	127	42	-127	-16532	-2392	-1072	82	-35	108	-16108	1456	-2376	179	-30	-20	127	127	8
-11800	-2080	10684	-13	20	-25	-15600	-3656	-1888	-4	-4	-14	-15856	-560	-3944	3	-19	12	-12320	4608	10180	130	-1	-160	-16400	-2400	-1028	32	-14	142	-16012	1464	-2292	165	27	8	127	127	8
-11764	-2092	10696	-11	18	-22	-15568	-3696	-1808	-9	-10	-9	-15592	-456	-3808	-5	-14	9	-12324	4600	10180	102	-55	-144	-16432	-2332	-1084	3	-56	122	-16104	1528	-2368	163	54	3	127	127	8
-11804	-2072	10640	-13	15	-27	-15688	-3800	-2040	-6	-4	-11	-15640	-704	-3912	-7	-12	7	-12272	4584	10120	112	-25	-133	-16448	-2404	-1144	13	3	131	-16020	1524	-2288	129	24	-11	126	127	8
-11760	-2092	10668	-12	18	-24	-15808	-3616	-1920	-5	-4	-5	-16064	-712	-3712	-8	-10	9	-12300	4628	10148	110	-15	-110	-16480	-2364	-1068	54	55	143	-16156	1528	-2372	97	20	-4	125	127	8
-11744	-2140	10700	-13	20	-27	-15608	-3760	-1728	-12	0	-7	-15848	-672	-3864	-6	-14	10	-12284	4652	10200	152	-18	-127	-16408	-2372	-1120	2	47	113	-16148	1476	-2476	138	13	-26	124	128	8
-11712	-2108	10624	-9	20	-21	-15672	-3912	-1760	-3	3	-8	-15664	-832	-3680	0	-19	11	-12336	4652	10264	165	2	-144	-16416	-2316	-1168	-44	67	97	-16084	1460	-2536	138	97	-68	123	128	8
-11780	-2136	10684	-13	20	-22	-15520	-3880	-1992	-10	-2	-5	-15816	-688	-3904	-1	-16	12	-12352	4612	10212	107	25	-122	-16476	-2408	-1116	13	74	134	-16004	1460	-2532	126	92	-16	125	127	8
-11800	-2172	10668	-12	22	-20	-15624	-3728	-1984	-4	2	-7	-15928	-776	-3768	6	-11	19	-12260	4596	10308	163	6	-116	-16368	-2488	-1124	109	48	119	-16044	1400	-2456	185	40	-7	125	128	8
-11776	-2100	10672	-7	16	-24	-15712	-3728	-1928	10	7	-5	-15744	-624	-4120	5	-12	19	-12344	4632	10184	152	-20	-145	-16520	-2400	-1044	171	76	167	-16108	1320	-2464	257	65	6	125	127	8
-11736	-2084	10632	-10	18	-20	-15560	-3672	-2056	-1	5	-4	-15784	-688	-4144	9	-6	25	-12268	4616	10164	169	-10	-102	-16464	-2340	-1156	96	-16	159	-16060	1320	-2564	249	65	34	125	127	8
-11808	-2116	10668	-12	9	-22	-15536	-3920	-2176	2	-1	-1	-15680	-672	-4128	12	-1	25	-12312	4580	10168	133	-17	-90	-16400	-2460	-1156	90	-16	192	-15996	1404	-2532	342	45	100	125	128	8
-11780	-2076	10588	-11	16	-24	-15744	-3696	-2072	-2	5	-3	-15776	-672	-4056	22	2	28	-12252	4628	10152	155	-9	-96	-16544	-2428	-1080	106	-16	166	-16160	1452	-2356	381	-12	93	127	128	8
-11772	-2104	10680	-12	16	-23	-15624	-3752	-2080	2	4	1	-15904	-744	-4120	34	-9	34	-12328	4616	10184	173	2	-89	-16372	-2364	-944	218	49	182	-16028	1536	-2308	388	-30	83	127	127	8
-11720	-2100	10680	-14	15	-20	-15664	-3840	-2208	15	8	-1	-15896	-720	-4096	37	-6	30	-12312	4696	10240	156	-3	-155	-16488	-2292	-980	159	83	181	-16012	1692	-2340	303	27	66	126	127	8
-11756	-2112	10648	-12	14	-24	-15504	-3680	-1808	15	6	2	-15656	-592	-4016	38	-8	29	-12324	4600	10176	149	3	-135	-16384	-2240	-1068	23	6	165	-15988	1580	-2440	146	60	31	124	128	8
-11732	-2108	10688	-7	19	-26	-15528	-3648	-2104	12	2	0	-15736	-544	-4120	34	-5	29	-12304	4696	10280	131	-13	-128	-16428	-2392	-1152	-82	-36	142	-16012	1564	-2396	97	46	11	126	129	8
-11704	-2124	10628	-8	15	-24	-15608	-3648	-2168	1	1	0	-15688	-456	-4080	16	-7	26	-12340	4644	10144	131	6	-106	-16456	-2344	-1124	99	19	161	-16104	1572	-2500	93	65	-14	128	128	8
-11792	-2080	10720	-12	14	-24	-15544	-3648	-2112	-2	-1	0	-15808	-352	-3888	5	-15	19	-12332	4660	10260	140	25	-113	-16508	-2340	-1100	67	-37	164	-16020	1544	-2532	119	61	-29	127	128	8
-11792	-2028	10736	-11	17	-22	-15640	-3680	-2096	-6	-2	-10	-15776	-480	-4024	-9	-17	13	-12308	4628	10224	165	-16	-151	-16468	-2344	-1064	63	54	147	-16100	1560	-2496	87	49	6	125	128	8
-11744	-2000	10628	-12	17	-25	-15632	-3848	-1824	-8	0	-10	-15936	-560	-3976	-18	-18	7	-12304	4648	10120	108	26	-170	-16468	-2236	-1108	3	-15	134	-16000	1572	-2420	17	42	28	125	128	8
-11720	-2132	10664	-14	12	-25	-15584	-3744	-1896	-6	0	-6	-15696	-608	-3976	-22	-13	5	-12296	4708	10172	117	6	-125	-16396	-2364	-1084	40	8	80	-15968	1560	-2580	145	22	24	126	128	8
-11748	-2104	10652	-11	18	-21	-15528	-3656	-2112	-9	-5	-11	-15784	-744	-3968	-29	-6	4	-12272	4624	10164	113	-20	-163	-16404	-2364	-1092	153	26	61	-16076	1460	-2420	278	20	-26	127	128	8
-11768	-2116	10644	-9	16	-24	-15624	-3744	-1832	-19	-1	-15	-15824	-640	-3656	-25	-4	7	-12300	4656	10120	134	-5	-130	-16504	-2344	-1080	200	30	56	-16068	1480	-2436	294	9	-19	127	128	8
-11740	-2084	10668	-16	18	-27	-15552	-3720	-1920	-23	-1	-15	-15672	-784	-3976	-19	-4	9	-12304	4640	10152	126	-56	-197	-16480	-2388	-1048	160	-4	79	-16016	1576	-2428	278	35	-23	125	128	8
-11720	-2064	10592	-14	16	-25	-15584	-3704	-1976	1	-1	-9	-15744	-720	-3992	-2	0	15	-12320	4656	10136	65	-19	-154	-16440	-2260	-1188	18	36	48	-16068	1488	-2652	191	33	-29	125	128	8
-11776	-2108	10640	-10	15	-22	-15488	-3728	-2016	16	6	-10	-15712	-744	-3968	16	-1	22	-12336	4656	10144	91	-18	-146	-16492	-2336	-1020	21	21	61	-16104	1508	-2520	200	37	-7	125	128	8
-11784	-2036	10720	-7	19	-26	-15480	-3624	-2096	19	13	-18	-15744	-744	-4224	22	3	21	-12256	4584	10152	141	-4	-216	-16400	-2360	-1196	114	30	57	-16104	1464	-2428	233	56	9	125	128	8
-11804	-2100	10776	-8	19	-29	-15576	-3800	-2208	8	10	-18	-15768	-544	-3800	38	7	26	-12276	4604	10092	152	-47	-173	-16500	-2392	-1124	156	34	21	-16088	1508	-2404	220	47	-42	125	128	8
-11764	-2124	10664	-13	18	-27	-15496	-3864	-1904	7	11	-14	-15744	-520	-4072	46	-1	22	-12328	4564	10236	134	-52	-174	-16408	-2468	-1084	150	42	58	-16084	1448	-2336	169	56	-25	125	128	8
-11760	-2144	10684	-15	23	-28	-15480	-3856	-1832	13	12	-12	-15848	-800	-3840	49	0	19	-12268	4664	10096	116	-6	-166	-16428	-2336	-1060	25	18	40	-16068	1460	-2416	149	77	-23	124	128	8
-11820	-2060	10592	-13	14	-22	-15696	-3816	-2216	24	13	-13	-15736	-680	-3848	41	8	19	-12352	4612	10212	119	-32	-162	-16452	-2404	-1200	15	20	30	-16068	1448	-2420	153	81	27	124	128	8
-11740	-2076	10684	-10	19	-25	-15656	-3744	-1864	18	12	-13	-15736	-576	-3832	39	14	25	-12332	4612	10304	111	-47	-183	-16452	-2468	-1088	58	6	62	-16040	1520	-2464	132	122	15	124	128	8
-11692	-2160	10632	-10	17	-23	-15584	-3720	-2032	9	10	-10	-15624	-640	-4000	27	18	24	-12336	4616	10204	147	-20	-153	-16348	-2480	-1100	101	36	54	-16060	1408	-2388	179	82	-15	126	128	8
-11804	-2096	10768	-11	15	-28	-15672	-3856	-1960	8	13	-7	-15760	-640	-4320	19	19	28	-12272	4600	10156	115	-38	-161	-16444	-2440	-1144	165	110	78	-16052	1428	-2456	198	92	-7	126	128	8
-11748	-2076	10636	-10	11	-18	-15552	-3648	-2000	9	15	-6	-15768	-608	-4200	24	13	23	-12284	4608	10128	110	-64	-183	-16412	-2408	-1100	74	86	80	-16024	1228	-2432	186	109	24	126	128	8
-11804	-2072	10580	-7	13	-19	-15520	-3888	-2360	11	14	-5	-15536	-672	-3984	23	12	31	-12372	4564	10232	121	-23	-175	-16456	-2524	-1136	160	86	112	-16024	1344	-2400	163	103	10	126	128	8
-11740	-2080	10740	-12	15	-21	-15752	-3760	-1992	7	9	-6	-15736	-648	-4104	30	10	29	-12208	4596	10196	152	-40	-149	-16460	-2516	-1104	75	83	100	-16228	1376	-2380	199	59	-9	127	128	8
-11752	-2112	10728	-16	16	-20	-15608	-3776	-1880	11	15	-6	-15832	-768	-3760	33	-2	27	-12348	4620	10172	134	3	-133	-16416	-2432	-1048	51	67	85	-16108	1472	-2432	153	110	48	126	128	8
-11788	-2064	10660	-16	19	-26	-15608	-3816	-2280	15	18	-6	-15624	-600	-3904	28	0	24	-12308	4584	10140	122	1	-152	-16352	-2332	-1108	-68	123	124	-16012	1500	-2428	15	152	17	126	128	8
-11780	-2088	10676	-12	16	-20	-15584	-3720	-2152	14	16	-10	-15536	-648	-3840	21	9	27	-12304	4604	10256	142	-65	-131	-16428	-2588	-1140	-108	96	129	-15964	1476	-2608	-40	172	-24	126	128	8
-11760	-2060	10640	-11	14	-23	-15712	-3832	-2096	8	12	-6	-15760	-544	-4064	11	12	25	-12284	4644	10228	155	-10	-129	-16496	-2552	-1140	135	151	140	-16112	1412	-2600	49	166	-29	127	128	8
-11756	-2096	10696	-11	19	-21	-15568	-3792	-1888	-1	12	-1	-15784	-536	-4080	10	10	24	-12400	4616	10140	167	18	-185	-16464	-2372	-1012	101	84	122	-16116	1456	-2672	35	148	-16	126	127	8
-11732	-2092	10688	-14	17	-24	-15440	-3792	-1872	2	13	-9	-15544	-600	-4168	9	0	18	-12348	4596	10236	150	-24	-159	-16440	-2380	-1056	-51	59	126	-15932	1440	-2628	101	120	-18	125	127	8
-11712	-1996	10768	-16	24	-24	-15560	-3760	-2264	1	13	-9	-15640	-608	-4192	7	1	18	-12388	4596	10140	146	24	-134	-16452	-2472	-1224	4	67	143	-15964	1464	-2636	137	96	10	125	127	8
-11724	-2072	10672	-12	14	-21	-15448	-3720	-2272	13	11	-2	-15688	-592	-4248	12	-3	19	-12352	4584	10132	137	-46	-134	-16424	-2440	-1192	85	-6	117	-15952	1360	-2700	200	66	51	126	127	8
-11780	-2088	10676	-10	19	-27	-15440	-3664	-2096	4	14	-6	-15624	-432	-4104	5	1	20	-12360	4596	10160	138	0	-148	-16432	-2504	-1276	109	55	109	-16040	1364	-2516	296	27	12	128	127	8
-11784	-2040	10748	-9	15	-22	-15648	-3736	-2224	2	6	-9	-15544	-528	-4184	6	1	15	-12356	4612	10204	147	-51	-107	-16476	-2408	-1212	126	57	144	-16048	1452	-2516	356	-51	-4	127	128	8
-11732	-2144	10688	-11	17	-25	-15600	-3760	-2136	-7	5	-14	-15832	-704	-4200	9	-3	18	-12236	4416	10200	156	-55	-146	-16412	-2404	-1076	103	44	106	-16084	1604	-2424	361	2	-6	126	128	8
-11760	-2092	10668	-16	16	-21	-15656	-3840	-2128	3	8	-15	-15832	-664	-4256	13	3	19	-12280	4504	10260	132	-42	-128	-16460	-2332	-1048	-19	48	112	-16060	1672	-2512	287	75	16	127	128	8
-11772	-2052	10648	-12	17	-23	-15640	-3744	-2192	5	8	-8	-15792	-592	-4032	7	7	16	-12312	4604	10172	107	-13	-211	-16396	-2468	-1136	-68	99	69	-16088	1580	-2360	157	159	-35	127	128	8
-11760	-2104	10644	-17	17	-24	-15552	-3880	-2040	4	13	-16	-15696	-608	-4168	7	5	18	-12380	4616	10172	115	-37	-160	-16444	-2444	-1120	47	88	91	-16024	1540	-2464	96	154	-66	126	128	8
-11704	-2124	10728	-12	19	-28	-15448	-3776	-2112	8	11	-14	-15720	-568	-4072	7	6	22	-12300	4596	10192	136	-29	-191	-16448	-2448	-1060	54	111	60	-16052	1508	-2560	47	191	-74	125	128	8
-11772	-2128	10784	-13	19	-28	-15568	-3792	-2072	-5	8	-12	-15584	-648	-3976	3	5	16	-12348	4552	10164	129	3	-149	-16448	-2360	-1188	-115	90	90	-16016	1476	-2684	3	179	-73	125	128	8
-11708	-2060	10592	-13	17	-23	-15552	-3920	-2136	-5	9	-9	-15672	-744	-4360	-4	6	12	-12348	4524	10236	116	-19	-190	-16424	-2472	-1168	-160	32	81	-15976	1432	-2596	-55	163	-22	125	128	8
-11736	-2072	10676	-12	19	-21	-15560	-3784	-2080	-5	13	-11	-15712	-512	-4184	2	11	11	-12320	4576	10244	111	-25	-201	-16376	-2528	-1220	-98	36	56	-16096	1428	-2640	-60	214	-1	125	128	8
-11748	-2140	10604	-8	15	-20	-15712	-3664	-2320	9	6	-12	-15584	-752	-4344	-1	9	19	-12364	4576	10212	110	-54	-216	-16348	-2552	-1244	33	72	83	-16040	1352	-2660	-20	150	-13	125	128	8
-11764	-2036	10712	-9	13	-20	-15520	-3792	-1944	9	8	-4	-15752	-688	-4240	2	6	24	-12292	4564	10184	153	-47	-187	-16332	-2500	-1280	81	99	92	-16052	1364	-2748	110	118	18	125	128	8
-11780	-2032	10676	-12	16	-25	-15584	-3792	-2360	13	16	-6	-15688	-704	-4352	15	-1	21	-12376	4552	10204	142	-36	-183	-16424	-2496	-1140	56	101	63	-16004	1240	-2648	183	69	31	125	127	8
-11784	-2088	10672	-16	18	-22	-15608	-3912	-2352	8	11	-10	-15856	-616	-4016	23	2	23	-12384	4564	10228	126	-34	-168	-16328	-2528	-1224	35	87	110	-16036	1308	-2656	216	74	30	125	128	8
-11740	-2116	10640	-10	18	-25	-15488	-3888	-2104	7	12	-5	-15808	-888	-4200	34	-2	25	-12376	4608	10156	129	53	-155	-16384	-2512	-1224	100	72	121	-16016	1276	-2608	320	55	22	126	127	8
-11716	-2056	10784	-11	19	-26	-15448	-3800	-2064	13	15	-5	-15632	-752	-4112	41	0	29	-12344	4560	10104	136	38	-126	-16392	-2432	-1220	111	26	112	-16068	1340	-2620	391	26	43	127	127	8
-11804	-2160	10712	-10	20	-22	-15568	-3912	-2192	27	20	-3	-15672	-768	-4512	45	9	27	-12340	4584	10136	151	20	-118	-16368	-2468	-1300	116	23	129	-16000	1472	-2668	378	62	87	127	128	8
-11784	-2144	10728	-11	19	-25	-15680	-3792	-2336	37	18	-2	-15840	-584	-4248	50	10	37	-12332	4632	10220	152	-20	-142	-16396	-2508	-1352	129	-20	141	-15952	1404	-2688	360	46	89	126	127	8
-11788	-2152	10712	-13	15	-25	-15480	-3744	-2016	30	14	-2	-15608	-736	-4216	58	3	33	-12336	4576	10184	180	9	-149	-16384	-2576	-1320	262	30	175	-16040	1304	-2648	429	-33	74	125	127	8
-11704	-2088	10620	-12	18	-22	-15608	-3656	-2128	13	11	-2	-15792	-584	-4232	63	-5	30	-12368	4600	10208	169	7	-171	-16376	-2440	-1200	289	-37	149	-16068	1364	-2696	442	15	77	126	127	8
-11760	-2060	10668	-14	15	-21	-15432	-3872	-1960	29	12	0	-15592	-736	-4352	49	-8	31	-12332	4628	10252	171	-39	-133	-16396	-2428	-1156	150	22	165	-16056	1372	-2496	465	-40	109	126	128	8
-11764	-2056	10736	-16	21	-22	-15624	-3832	-2168	15	10	-4	-15768	-608	-4304	39	-8	31	-12352	4540	10232	153	4	-119	-16404	-2604	-1316	159	-24	142	-16032	1400	-2556	436	-16	101	126	127	8
-11704	-2084	10528	-7	15	-22	-15520	-3760	-2144	7	8	-1	-15752	-504	-4296	23	-9	31	-12336	4620	10304	172	-17	-109	-16388	-2576	-1104	191	-58	188	-16000	1444	-2664	441	-18	63	127	127	8
-11796	-2076	10636	-7	21	-24	-15600	-3816	-2072	7	8	0	-15672	-544	-4264	13	-6	30	-12396	4528	10248	175	27	-142	-16352	-2408	-1188	212	5	170	-16048	1420	-2512	404	21	85	126	127	8
-11764	-2076	10676	-12	15	-21	-15536	-3808	-2256	4	1	-4	-15744	-448	-4544	2	0	26	-12296	4608	10304	156	-40	-134	-16404	-2488	-1132	156	0	189	-16016	1484	-2528	245	61	69	126	127	8
-11744	-2028	10756	-7	16	-22	-15544	-3776	-2304	4	-1	5	-15720	-448	-4424	4	-4	25	-12300	4608	10188	110	-39	-139	-16320	-2528	-1188	64	-18	189	-15960	1512	-2644	224	15	28	126	127	8
-11728	-2016	10620	-13	15	-21	-15672	-3744	-2120	-2	-4	-4	-15744	-536	-4408	-9	-9	22	-12356	4592	10144	122	-50	-101	-16436	-2520	-1268	85	50	211	-15968	1404	-2584	175	67	20	125	127	8
-11752	-2136	10600	-15	19	-22	-15472	-3856	-2128	-5	0	-3	-15680	-584	-4640	-17	-11	14	-12340	4568	10192	112	10	-105	-16460	-2424	-1248	-25	-7	186	-16032	1436	-2600	137	47	17	125	128	8
-11724	-2100	10616	-7	16	-20	-15520	-3696	-2400	-15	-7	1	-15752	-560	-4360	-19	-19	11	-12376	4620	10260	138	18	-153	-16388	-2456	-1268	-29	-37	168	-15984	1532	-2552	-48	106	27	126	127	8
-11820	-2084	10684	-13	19	-21	-15608	-3744	-2232	-15	-9	-2	-15744	-536	-4208	-27	-22	8	-12384	4632	10112	95	31	-125	-16340	-2352	-1216	-61	18	128	-16032	1560	-2576	-105	91	27	126	128	8
-11712	-2044	10716	-15	20	-29	-15640	-3744	-2224	-21	-9	-6	-15752	-432	-4144	-31	-30	8	-12356	4576	10240	102	-46	-136	-16444	-2436	-1228	-105	37	160	-15932	1444	-2548	-69	92	3	126	127	8
-11788	-2104	10656	-13	15	-22	-15600	-3808	-2128	-21	-12	-9	-15584	-656	-4320	-28	-23	10	-12396	4560	10136	58	28	-130	-16412	-2524	-1204	-73	22	164	-16032	1440	-2588	-80	68	-43	126	127	8
-11804	-2036	10688	-16	17	-24	-15608	-3840	-2096	-19	-12	-3	-15560	-560	-4152	-31	-23	7	-12340	4580	10268	128	-14	-119	-16528	-2460	-1268	-96	10	197	-16036	1368	-2760	-37	102	-44	126	128	8
-11700	-2100	10608	-11	15	-24	-15440	-3880	-2256	-7	-11	-6	-15512	-776	-4120	-24	-22	4	-12324	4572	10212	123	-13	-128	-16412	-2512	-1180	-89	-36	177	-16036	1352	-2656	-29	52	-26	127	128	8
-11788	-2080	10680	-13	17	-22	-15512	-3840	-1944	-6	-12	-5	-15568	-592	-4176	-28	-27	10	-12376	4584	10200	129	-37	-124	-16360	-2544	-1292	-54	-45	216	-16068	1304	-2740	31	25	-25	127	127	8
-11780	-2068	10732	-13	17	-24	-15632	-3632	-2136	-12	-15	-5	-15472	-664	-4368	-24	-33	15	-12380	4592	10228	126	-17	-92	-16440	-2448	-1312	130	-50	176	-16040	1396	-2756	171	13	56	126	127	8
-11788	-2084	10656	-11	14	-24	-15488	-3792	-2304	-8	-10	-6	-15704	-656	-4152	-19	-32	13	-12332	4608	10148	155	-37	-151	-16336	-2384	-1192	133	-11	209	-16120	1328	-2572	266	-80	103	127	127	8
-11812	-2148	10624	-10	17	-26	-15520	-3800	-2432	-7	-8	-1	-15608	-696	-4144	-16	-26	14	-12392	4636	10164	154	-13	-118	-16420	-2576	-1232	178	-13	156	-16064	1344	-2716	367	-93	100	127	127	8
-11848	-2076	10652	-11	17	-21	-15656	-3744	-1992	-7	-10	-1	-15600	-664	-4304	-5	-23	16	-12328	4596	10300	150	-12	-111	-16416	-2436	-1204	213	28	227	-15984	1372	-2652	446	-58	78	127	127	8
-11716	-2136	10636	-7	15	-23	-15560	-3728	-2264	-6	-3	-1	-15704	-784	-4088	-2	-21	21	-12372	4604	10168	150	-68	-91	-16432	-2384	-1192	146	-56	160	-16016	1448	-2640	440	-61	93	126	127	8
-11776	-2096	10624	-12	15	-20	-15504	-3688	-2000	2	-6	0	-15616	-720	-4096	5	-11	26	-12332	4600	10168	146	-33	-65	-16440	-2452	-1232	140	-21	177	-16032	1384	-2620	302	-9	96	126	127	8
-11764	-2140	10780	-12	13	-22	-15504	-3864	-2248	7	3	0	-15600	-792	-4128	13	-7	34	-12388	4560	10228	187	-57	-111	-16368	-2504	-1204	138	20	235	-15980	1360	-2612	368	-21	79	125	127	8
-11808	-2152	10696	-8	14	-18	-15600	-3792	-2152	7	4	2	-15752	-752	-4256	15	-10	39	-12340	4548	10208	171	-11	-131	-16360	-2480	-1216	283	-31	220	-16064	1452	-2504	424	-19	100	124	127	8
-11736	-2084	10568	-7	18	-23	-15536	-3720	-2144	9	3	6	-15648	-712	-4328	19	-11	34	-12344	4592	10128	150	1	-111	-16432	-2416	-1176	273	8	252	-16024	1468	-2696	440	56	122	124	128	8
-11732	-2036	10720	-11	22	-24	-15512	-3688	-2288	9	6	1	-15736	-584	-4448	24	-11	31	-12312	4568	10144	171	-34	-136	-16428	-2344	-1280	228	36	227	-16096	1576	-2672	426	36	99	126	128	8
-11752	-2124	10580	-6	20	-23	-15632	-3832	-2288	14	8	3	-15656	-584	-4304	25	-8	31	-12300	4584	10104	153	-10	-107	-16380	-2496	-1264	147	21	224	-15984	1424	-2656	358	54	113	127	128	8
-11764	-2052	10708	-9	15	-19	-15536	-3856	-2416	10	7	2	-15576	-464	-4288	18	-10	30	-12360	4500	10164	184	-39	-119	-16468	-2556	-1232	218	13	235	-16020	1448	-2708	358	24	95	127	128	8
-11756	-2100	10640	-11	15	-19	-15288	-3776	-2336	-4	3	4	-15624	-416	-4152	20	-12	25	-12336	4592	10324	162	5	-113	-16368	-2436	-1280	182	-2	220	-16004	1432	-2656	333	93	50	125	128	8
-11740	-2032	10684	-10	16	-26	-15440	-3848	-2248	-12	0	2	-15696	-608	-4032	7	-13	26	-12324	4608	10184	191	-14	-94	-16416	-2404	-1204	214	3	220	-15960	1452	-2676	272	51	92	124	128	8
-11716	-2072	10560	-9	14	-22	-15720	-3816	-1944	-6	2	-1	-15720	-584	-4208	3	-11	25	-12364	4572	10148	162	-4	-86	-16400	-2412	-1232	205	6	221	-16020	1456	-2684	265	-1	108	124	128	8
-11784	-2080	10680	-15	14	-26	-15536	-3808	-2328	13	8	-1	-15896	-616	-4144	9	-11	27	-12328	4572	10188	153	-32	-113	-16492	-2332	-1284	156	1	205	-16044	1436	-2680	344	-41	138	125	128	8
-11744	-2068	10676	-12	14	-23	-15656	-3688	-2328	6	3	5	-15672	-584	-4240	15	-17	25	-12328	4664	10104	194	-26	-126	-16408	-2384	-1260	179	-16	200	-16076	1480	-2624	383	-8	132	124	128	8
-11752	-2060	10732	-6	15	-19	-15432	-3784	-2272	-5	9	2	-15656	-680	-4144	23	-13	25	-12336	4544	10232	171	-25	-157	-16412	-2468	-1192	180	9	133	-16072	1452	-2752	394	-20	90	125	128	8
-11776	-2112	10636	-6	15	-21	-15720	-3800	-2400	7	4	5	-15840	-640	-4192	30	-17	31	-12324	4576	10164	174	-7	-125	-16412	-2468	-1308	325	-44	198	-15980	1444	-2608	399	-32	63	125	128	8
-11732	-2100	10664	-12	14	-22	-15608	-3656	-1984	13	7	1	-15696	-592	-4256	37	-9	30	-12300	4536	10232	155	5	-120	-16548	-2464	-1432	320	-49	161	-15956	1412	-2712	472	-32	86	125	128	8
-11828	-2048	10632	-14	19	-23	-15552	-3688	-2200	22	10	-1	-15736	-520	-4448	36	-10	38	-12284	4616	10332	176	-11	-126	-16464	-2316	-1220	155	-118	161	-16008	1460	-2776	505	-58	124	125	128	8
-11760	-2024	10660	-11	20	-23	-15784	-3744	-2416	17	1	2	-15568	-584	-4688	38	-7	36	-12364	4668	10168	132	-32	-120	-16432	-2448	-1344	225	-113	137	-15940	1516	-2856	456	-88	120	125	128	8
-11768	-2020	10684	-11	22	-25	-15440	-3592	-2216	11	-2	-1	-15568	-480	-4312	40	-12	37	-12332	4612	10140	133	10	-120	-16424	-2448	-1308	236	-126	159	-16016	1476	-2844	445	-128	104	126	133	8
-11760	-2096	10648	-9	15	-23	-15464	-3752	-2112	7	-3	5	-15584	-424	-4344	40	-21	30	-12336	4612	10064	129	-40	-126	-16388	-2460	-1168	318	-112	153	-16020	1420	-2684	384	-142	97	125	130	8
-11788	-2080	10692	-13	20	-23	-15576	-3664	-2152	17	-5	-8	-15568	-480	-4552	34	-27	21	-12244	4576	10168	162	-25	-131	-16476	-2392	-1172	282	-84	141	-16064	1564	-2512	321	-112	61	125	127	8
-11728	-2056	10612	-16	18	-20	-15504	-3744	-2368	9	-6	-7	-15616	-328	-4104	24	-32	20	-12328	4584	10148	144	-57	-128	-16344	-2368	-1128	176	-139	128	-16100	1368	-2656	343	-84	36	125	129	8
-11732	-2136	10776	-16	14	-24	-15680	-3592	-2264	2	-13	-9	-15648	-488	-4368	18	-29	18	-12312	4572	10112	148	-28	-124	-16388	-2488	-1328	40	-188	116	-16040	1528	-2704	411	-191	-1	126	127	8
-11756	-2044	10696	-9	12	-28	-15584	-3672	-2256	-6	-18	-10	-15560	-488	-4296	8	-32	18	-12280	4640	10180	144	21	-144	-16448	-2476	-1200	147	-166	157	-16024	1628	-2684	181	-185	60	126	124	8
-11756	-2068	10708	-8	13	-28	-15440	-3688	-2280	-8	-18	-9	-15720	-504	-3976	-4	-37	8	-12396	4620	10116	139	-65	-133	-16428	-2376	-1252	112	-187	149	-16032	1408	-2528	27	-95	58	126	125	8
-11752	-2024	10544	-11	14	-28	-15584	-3656	-2296	-3	-19	-8	-15712	-640	-4424	-11	-32	8	-12368	4588	10212	149	-21	-119	-16396	-2412	-1112	-4	-146	135	-16028	1372	-2524	161	-69	33	127	126	8
-11732	-2100	10608	-13	11	-24	-15560	-3824	-2104	-10	-19	-10	-15608	-632	-4336	-19	-31	6	-12348	4676	10180	132	-6	-124	-16388	-2472	-1148	58	-128	146	-16040	1564	-2596	266	-78	1	127	123	8
-11772	-2084	10612	-10	16	-23	-15608	-3752	-2280	-20	-28	-12	-15672	-600	-4360	-19	-30	6	-12336	4604	10228	105	-59	-106	-16416	-2416	-1180	95	-101	154	-16000	1616	-2436	162	-56	-2	126	127	8
-11760	-2052	10696	-12	15	-27	-15568	-3760	-2288	-9	-24	-10	-15712	-616	-4256	-18	-34	9	-12348	4620	10140	108	1	-135	-16392	-2344	-1192	-45	-133	128	-16056	1476	-2720	-5	-3	-34	127	128	8
-11716	-2064	10620	-9	16	-26	-15560	-3608	-2336	-12	-26	-8	-15600	-608	-4464	-14	-40	7	-12356	4592	10204	127	-20	-126	-16384	-2416	-1412	-107	-151	86	-16060	1540	-2672	-45	-95	-23	126	128	8
-11688	-2116	10728	-8	13	-26	-15632	-3800	-2072	-7	-27	-12	-15672	-656	-4200	-15	-39	8	-12400	4564	10180	107	-65	-139	-16448	-2484	-1104	21	-153	127	-16016	1400	-2600	-52	-169	54	125	127	8
-11744	-2072	10564	-17	12	-24	-15624	-3704	-2112	-8	-28	-9	-15776	-512	-4336	-12	-42	15	-12320	4552	10324	151	-61	-94	-16460	-2444	-1052	34	-146	147	-16048	1336	-2616	-4	-139	45	126	127	8
-11760	-2044	10660	-13	16	-27	-15472	-3792	-2056	-7	-30	-16	-15760	-520	-4304	-8	-40	9	-12268	4528	10196	136	-25	-125	-16416	-2476	-1200	-4	-179	169	-16072	1388	-2528	41	-180	47	127	127	8
-11716	-2084	10676	-14	10	-27	-15480	-3672	-2104	-8	-26	-8	-15664	-520	-4152	-11	-43	8	-12360	4632	10188	125	-15	-127	-16404	-2480	-1252	-19	-142	133	-16036	1496	-2536	135	-171	55	127	127	8
-11812	-2108	10624	-13	14	-26	-15664	-3808	-2344	-6	-25	-12	-15656	-640	-4280	-22	-41	5	-12408	4632	10100	134	24	-123	-16396	-2388	-1164	26	-158	164	-15988	1460	-2536	86	-123	65	127	128	8
-11772	-2132	10704	-12	14	-26	-15560	-3864	-2208	-8	-31	-12	-15704	-504	-3960	-21	-36	10	-12308	4560	10196	126	48	-127	-16400	-2472	-1220	-62	-166	137	-15976	1460	-2584	37	-148	86	127	128	8
-11768	-2016	10708	-7	15	-27	-15576	-3680	-2176	-11	-29	-13	-15784	-648	-4136	-23	-34	10	-12288	4616	10108	116	-43	-125	-16384	-2424	-1208	-31	-147	165	-16056	1432	-2604	10	-87	74	126	128	8
-11788	-2100	10652	-9	17	-26	-15528	-3680	-2056	-11	-27	-16	-15768	-672	-4264	-20	-37	9	-12340	4616	10196	90	-12	-126	-16428	-2432	-1084	20	-133	164	-16020	1388	-2460	-5	-112	39	125	128	8
-11740	-2076	10668	-12	17	-30	-15584	-3840	-2016	-13	-27	-10	-15736	-632	-4072	-8	-38	8	-12356	4592	10188	117	-7	-107	-16328	-2420	-1100	-39	-149	163	-16088	1472	-2456	19	-128	19	125	128	8
-11784	-2036	10748	-15	14	-25	-15584	-3800	-1864	-9	-20	-10	-15736	-808	-3952	-6	-39	8	-12336	4580	10288	94	-21	-108	-16368	-2492	-1140	-41	-113	186	-16116	1420	-2412	69	-84	-10	126	127	8
-11736	-2124	10628	-15	15	-20	-15520	-3816	-1896	-6	-19	-8	-15680	-672	-3856	-6	-35	13	-12340	4624	10232	150	-42	-170	-16508	-2416	-1112	85	-55	196	-16120	1384	-2384	83	-33	55	125	127	8
-11828	-2112	10796	-10	14	-21	-15528	-3824	-2216	-6	-8	1	-15688	-744	-3904	-11	-28	14	-12284	4600	10236	153	1	-121	-16396	-2420	-1124	72	-34	171	-16036	1388	-2444	133	17	27	125	127	8
-11752	-2100	10616	-13	15	-25	-15672	-3696	-1960	2	-6	-2	-15616	-696	-4088	-6	-20	21	-12316	4556	10164	154	-58	-154	-16392	-2388	-1108	50	-97	165	-16100	1404	-2444	143	9	45	125	128	8
-11776	-2100	10624	-14	14	-23	-15544	-3816	-2256	-1	-10	-3	-15744	-704	-4000	-8	-22	20	-12372	4592	10188	136	9	-112	-16380	-2476	-1184	70	-10	169	-16096	1440	-2552	164	75	38	127	128	8
-11768	-2040	10740	-13	15	-22	-15624	-3696	-2064	-14	-4	1	-15640	-600	-4128	-6	-19	17	-12292	4572	10280	116	50	-128	-16452	-2388	-1100	151	7	193	-16032	1420	-2652	218	26	-4	127	128	8
-11760	-2088	10624	-14	16	-21	-15608	-3648	-1808	-16	-5	1	-15704	-448	-4088	-11	-20	23	-12316	4568	10236	126	19	-113	-16356	-2340	-1136	169	-3	220	-16052	1416	-2412	194	-9	43	125	127	8
-11768	-2052	10720	-10	16	-23	-15488	-3840	-2112	-2	-5	5	-15664	-648	-4240	-10	-21	17	-12316	4596	10112	155	-46	-135	-16476	-2316	-1164	81	-26	172	-16024	1540	-2548	140	-17	70	125	128	8
-11692	-2016	10644	-11	20	-22	-15616	-3672	-1944	1	-1	-4	-15680	-752	-4248	-2	-20	17	-12376	4592	10144	122	9	-136	-16444	-2444	-1148	5	-21	184	-16092	1508	-2452	150	7	81	125	128	8
-11804	-2164	10592	-8	14	-22	-15640	-3616	-2048	-3	-3	-2	-15760	-536	-4360	4	-14	18	-12256	4572	10088	114	-31	-109	-16420	-2464	-1196	47	-28	181	-16048	1484	-2428	123	39	68	126	128	8
-11740	-2052	10764	-14	20	-23	-15632	-3792	-2176	-6	-4	-3	-15768	-680	-4392	5	-16	21	-12328	4580	10052	159	-8	-123	-16420	-2400	-1136	108	27	200	-16072	1388	-2636	189	43	15	125	128	8
-11748	-2076	10652	-10	12	-25	-15616	-3800	-2336	-11	-6	-5	-15592	-584	-4328	3	-19	24	-12340	4588	10192	128	-12	-97	-16392	-2444	-1224	95	14	221	-16060	1444	-2592	107	69	33	125	128	8
-11712	-2120	10748	-10	15	-24	-15496	-3760	-2216	-5	-4	-1	-15760	-640	-3992	9	-24	23	-12268	4628	10224	158	-36	-103	-16388	-2456	-1128	22	-45	225	-16004	1344	-2504	0	39	56	125	127	8
-11760	-2076	10744	-10	12	-20	-15552	-3840	-2448	-1	-1	4	-15808	-616	-4424	12	-26	25	-12384	4616	10188	150	-15	-92	-16424	-2456	-1140	41	-10	214	-16032	1396	-2548	116	74	58	126	128	8
-11740	-2076	10712	-11	15	-20	-15496	-3792	-2168	8	4	2	-15824	-608	-4168	7	-22	25	-12360	4536	10184	149	-10	-73	-16424	-2392	-1152	116	-18	238	-16048	1428	-2656	179	122	69	126	127	8
-11780	-2096	10732	-12	16	-25	-15584	-3568	-2320	-1	-3	3	-15752	-616	-4144	7	-17	26	-12356	4592	10084	180	-13	-101	-16420	-2392	-1160	182	-46	242	-16096	1488	-2692	232	57	69	126	127	8
-11812	-2044	10552	-12	17	-21	-15616	-3720	-2272	-6	-3	4	-15680	-416	-4288	1	-13	26	-12304	4620	10148	112	7	-71	-16460	-2384	-1212	174	-1	217	-16048	1472	-2616	216	7	115	126	127	8
-11740	-2060	10668	-10	15	-24	-15576	-3608	-2352	-10	-8	5	-15664	-416	-4336	-4	-22	24	-12296	4600	10208	142	-41	-101	-16408	-2364	-1172	197	-2	233	-16004	1436	-2732	271	-5	107	126	135	8
-11788	-2068	10780	-10	18	-17	-15560	-3720	-2512	-11	-13	-1	-15664	-576	-4280	-12	-27	20	-12364	4560	10232	135	13	-112	-16444	-2368	-1252	43	-58	213	-16036	1464	-2856	292	-37	97	126	126	8
-11776	-2088	10696	-7	13	-22	-15576	-3712	-2072	-16	-14	4	-15664	-480	-4432	-19	-30	17	-12320	4588	10108	141	7	-70	-16400	-2412	-1184	110	-99	196	-16028	1572	-2720	373	-63	110	126	125	8
-11756	-2024	10740	-12	18	-24	-15624	-3736	-2232	-13	-16	0	-15848	-536	-4256	-23	-32	17	-12384	4624	10184	138	-21	-88	-16420	-2364	-1240	208	-101	243	-16048	1460	-2780	519	-113	55	126	124	8
-11736	-2096	10752	-14	18	-29	-15672	-3712	-2280	-4	-12	1	-15656	-456	-4144	-18	-30	19	-12316	4636	10236	141	-61	-90	-16472	-2364	-1132	298	-96	210	-16064	1608	-2612	482	-173	60	126	128	8
-11764	-2096	10720	-14	18	-21	-15440	-3584	-2176	-4	-15	-5	-15736	-528	-4176	-10	-34	20	-12340	4660	10140	127	2	-113	-16444	-2272	-1180	235	-91	197	-16024	1552	-2516	175	-125	144	127	129	8
-11748	-2008	10580	-14	17	-24	-15720	-3616	-2176	-5	-14	-7	-15776	-504	-3928	0	-30	17	-12292	4592	10136	122	-20	-86	-16540	-2360	-1136	113	-135	155	-15988	1532	-2576	74	-113	130	125	126	8
-11784	-2064	10620	-8	17	-22	-15504	-3600	-2184	-2	-18	-5	-15792	-584	-4040	6	-34	18	-12312	4528	10176	128	-47	-89	-16488	-2500	-1164	86	-70	180	-16100	1400	-2508	321	-10	57	125	126	8
-11704	-2104	10652	-12	14	-27	-15560	-3704	-1920	-2	-14	-7	-15840	-696	-4136	14	-34	20	-12364	4692	10220	143	33	-128	-16548	-2392	-1212	219	-69	173	-16112	1492	-2672	544	-76	14	125	127	8
-11672	-2000	10792	-9	12	-22	-15608	-3752	-2056	10	-1	-11	-15848	-664	-3912	14	-31	22	-12360	4672	10140	119	-7	-124	-16464	-2292	-1180	206	-83	138	-16080	1688	-2548	337	-105	87	125	126	8
-11692	-2032	10720	-4	14	-25	-15496	-3656	-2072	9	-4	-3	-15736	-520	-4176	22	-20	19	-12332	4632	10140	144	-78	-135	-16424	-2236	-1076	143	-129	148	-16000	1720	-2632	83	-44	96	125	127	8
-11716	-2016	10688	-15	16	-25	-15616	-3624	-2208	3	-7	-10	-15704	-640	-4136	25	-18	17	-12372	4572	10212	137	-37	-156	-16476	-2320	-1172	140	-133	136	-16080	1428	-2548	208	-76	12	125	127	8
-11796	-2092	10676	-7	15	-29	-15664	-3608	-2040	8	0	-11	-15848	-568	-4192	27	-19	20	-12352	4604	10120	148	-47	-102	-16428	-2412	-1140	198	-86	123	-16104	1448	-2464	357	-81	11	125	127	8
-11728	-2092	10568	-14	21	-25	-15640	-3752	-2264	7	-1	-10	-15744	-544	-4176	28	-21	15	-12316	4620	10192	128	-70	-142	-16440	-2360	-1048	211	-97	125	-16092	1500	-2436	398	-149	10	125	127	8
-11724	-2052	10616	-9	18	-25	-15520	-3800	-1848	14	5	-9	-15784	-640	-4176	22	-18	13	-12308	4544	10284	130	-25	-141	-16432	-2304	-1108	178	-43	109	-15936	1524	-2484	388	-130	35	125	127	8
-11736	-2092	10616	-4	16	-21	-15712	-3736	-1928	17	0	-11	-15688	-608	-4168	19	-19	18	-12340	4532	10196	161	-65	-124	-16416	-2420	-1144	130	-86	90	-16004	1432	-2548	377	-59	44	126	127	8
-11764	-2032	10700	-13	16	-21	-15704	-3696	-2040	8	-4	-13	-15712	-608	-4312	22	-20	20	-12364	4628	10108	114	3	-136	-16452	-2384	-1056	157	-62	89	-16060	1436	-2676	404	-39	30	126	127	8
-11736	-2116	10668	-9	20	-26	-15712	-3712	-1928	2	-2	-17	-15664	-472	-4264	23	-23	16	-12312	4604	10184	130	7	-124	-16436	-2408	-1160	239	-61	97	-16000	1492	-2468	366	-81	40	126	128	8
-11700	-2064	10724	-12	15	-27	-15464	-3672	-2232	5	-4	-9	-15768	-504	-4056	16	-18	12	-12288	4600	10156	106	-18	-139	-16456	-2324	-1192	136	-100	91	-15956	1560	-2596	352	-121	32	125	127	8
-11756	-2028	10640	-15	16	-26	-15496	-3696	-1960	10	-3	-17	-15840	-600	-4024	21	-20	13	-12268	4640	10288	114	-62	-118	-16424	-2352	-1104	39	-111	101	-16048	1528	-2444	240	-94	-2	125	128	8
-11760	-2104	10716	-13	18	-22	-15568	-3792	-2120	9	-4	-9	-15864	-592	-4096	25	-11	15	-12268	4604	10068	114	-38	-157	-16452	-2360	-1236	60	-64	86	-16108	1524	-2496	226	-49	-16	125	127	8
-11744	-2084	10628	-14	16	-25	-15544	-3720	-2048	9	-7	-12	-15792	-672	-4168	18	-18	16	-12360	4676	10220	120	-67	-132	-16452	-2436	-1028	74	-94	112	-16016	1524	-2380	137	-32	-3	125	127	8
-11776	-2064	10744	-9	15	-23	-15536	-3712	-2360	-1	-4	-9	-15672	-608	-4184	12	-22	8	-12340	4600	10212	90	-34	-148	-16464	-2388	-972	122	3	108	-16020	1464	-2376	84	-33	-20	125	127	8
-11828	-2044	10696	-11	18	-24	-15552	-3760	-2192	1	-12	-9	-15688	-624	-4224	9	-24	11	-12352	4604	10156	110	-31	-172	-16440	-2444	-960	42	-90	84	-16148	1416	-2500	97	-65	9	125	127	8
-11728	-2072	10728	-12	17	-24	-15672	-3792	-2120	1	-8	-10	-15736	-584	-4096	1	-23	14	-12320	4680	10268	129	-17	-129	-16428	-2476	-1080	34	-82	125	-16080	1356	-2568	157	-4	-34	126	128	8
-11712	-2104	10660	-12	13	-24	-15632	-3592	-1768	-10	-11	-11	-15712	-456	-4360	-12	-23	11	-12360	4572	10332	107	-31	-170	-16312	-2424	-1212	33	-56	109	-16068	1448	-2508	149	-29	-49	127	127	8
-11660	-2000	10528	-10	14	-24	-15464	-3656	-2120	-21	-15	-13	-15824	-576	-4056	-18	-24	5	-12336	4660	10132	148	-20	-108	-16404	-2352	-1044	14	-97	125	-16052	1400	-2580	49	17	-11	127	128	8
-11816	-2052	10708	-12	14	-19	-15632	-3816	-2144	-24	-17	-11	-15640	-600	-4144	-33	-30	5	-12284	4588	10128	135	-47	-133	-16408	-2368	-1104	3	-53	112	-16048	1556	-2432	-3	-5	5	126	128	8
-11808	-2120	10632	-16	18	-25	-15536	-3864	-2032	0	-19	-11	-15776	-528	-4000	-39	-32	1	-12316	4652	10172	129	-89	-117	-16380	-2464	-1164	-42	-67	152	-16052	1476	-2628	14	-47	-13	126	128	8
-11748	-2008	10684	-17	13	-23	-15528	-3776	-2224	-11	-18	-11	-15720	-520	-3944	-32	-29	-1	-12360	4612	10240	145	20	-139	-16504	-2276	-1224	14	-93	120	-16088	1544	-2612	1	-66	-18	126	127	8
-11748	-2068	10724	-15	17	-20	-15624	-3824	-2216	-18	-21	-11	-15664	-720	-4016	-31	-26	3	-12356	4656	10148	86	-87	-158	-16444	-2344	-1244	-55	-76	106	-16056	1588	-2380	29	-64	28	126	128	8
-11844	-2040	10644	-8	18	-19	-15576	-3720	-2040	-19	-18	-14	-15752	-696	-4072	-21	-26	4	-12356	4640	10240	116	-79	-144	-16388	-2460	-1076	-7	-115	126	-16004	1484	-2460	-20	-37	7	126	129	8
-11756	-2012	10636	-10	17	-20	-15408	-3752	-1944	-3	-18	-10	-15736	-760	-4224	-9	-26	4	-12408	4648	10184	89	-99	-176	-16416	-2384	-1096	49	-71	118	-16080	1528	-2524	36	-27	-47	126	128	8
-11780	-2068	10700	-10	16	-25	-15600	-3728	-2112	-1	-11	-9	-15736	-680	-4072	2	-26	10	-12348	4588	10264	80	-65	-141	-16448	-2360	-1116	36	-99	116	-16072	1544	-2516	58	-4	-37	125	127	8
-11728	-2092	10652	-14	14	-25	-15488	-3720	-2168	-3	-10	-11	-15808	-624	-3744	11	-24	14	-12264	4656	10108	38	-87	-190	-16416	-2352	-1056	55	-88	77	-16092	1508	-2552	-23	-42	65	125	128	8
