#Activity	sitting 
#ActivityID	5 
#Date 10-10-17-35
acc_rf_x	acc_rf_y	acc_rf_z	gyro_rf_x	gyro_rf_y	gyro_rf_z	acc_rs_x	acc_rs_y	acc_rs_z	gyro_rs_x	gyro_rs_y	gyro_rs_z	acc_rt_x	acc_rt_y	acc_rt_z	gyro_rt_x	gyro_rt_y	gyro_rt_z	acc_lf_x	acc_lf_y	acc_lf_z	gyro_lf_x	gyro_lf_y	gyro_lf_z	acc_ls_x	acc_ls_y	acc_ls_z	gyro_ls_x	gyro_ls_y	gyro_ls_z	acc_lt_x	acc_lt_y	acc_lt_z	gyro_lt_x	gyro_lt_y	gyro_lt_z	EMG_r	EMG_l	act
-10516	-3108	11352	-118	196	-180	-15768	-2680	-1896	-45	-30	-171	-2200	-1380	16468	-214	-193	24	-9224	3820	13428	232	26	-150	-16340	2328	-2468	-27	39	284	-920	3624	16728	767	366	-316	124	126	5
-10568	-3008	11388	-133	222	-185	-15772	-2668	-2000	-72	-38	-177	-2300	-1496	16388	-257	-122	97	-9180	3948	13436	198	-21	-179	-16336	2480	-2700	-122	58	232	-1040	3664	16772	922	525	-292	124	125	5
-10560	-3080	11336	-145	232	-169	-15848	-2716	-2024	-82	-72	-214	-2404	-1620	16412	-204	-49	206	-9104	3960	13260	165	-14	-135	-16324	2572	-2576	-148	-19	167	-1044	3696	16692	1061	571	-185	124	125	5
-10588	-3092	11392	-120	197	-220	-15816	-2736	-2052	-103	-73	-198	-2344	-1708	16276	-188	-13	278	-9204	3952	13404	161	-67	-179	-16316	2568	-2780	-198	-60	109	-1060	3724	16580	914	484	46	125	124	5
-10560	-3020	11308	-143	185	-264	-15796	-2844	-2040	-79	-131	-253	-2364	-1704	16396	-130	39	371	-9148	3940	13412	127	-64	-180	-16296	2424	-2488	-74	-120	30	-1120	3508	16720	1052	452	278	125	124	5
-10584	-3048	11384	-171	170	-246	-15816	-2908	-2032	-31	-134	-223	-2304	-1648	16356	-174	62	385	-9224	3912	13300	114	-105	-189	-16332	2220	-2720	145	-125	24	-1124	3528	16592	965	426	401	125	125	5
-10572	-3088	11332	-161	180	-237	-15812	-2900	-1916	-51	-145	-202	-2172	-1728	16324	-204	75	421	-9236	3880	13412	106	-51	-204	-16244	2272	-2488	169	-136	23	-1208	3564	16576	713	212	434	125	125	5
-10508	-3108	11364	-100	171	-223	-15760	-2924	-1880	-2	-134	-198	-2172	-1716	16448	-269	143	384	-9252	3888	13400	96	-30	-191	-16268	2272	-2284	399	-107	66	-1180	3652	16656	320	80	360	126	125	5
-10504	-3100	11448	-95	154	-236	-15716	-2932	-1776	-48	-147	-189	-2176	-1740	16444	-350	201	363	-9176	3944	13448	99	-97	-185	-16336	2212	-2312	260	-32	67	-956	3528	16660	7	-10	211	126	126	5
-10500	-3120	11432	-146	182	-189	-15796	-2900	-1772	-116	-86	-139	-2288	-1828	16380	-356	234	243	-9132	3816	13356	139	-39	-166	-16364	2192	-2352	116	7	67	-780	3408	16756	-121	109	123	126	126	5
-10644	-3064	11500	-83	159	-183	-15732	-2928	-1792	-124	-42	-118	-2432	-1820	16488	-348	144	74	-9184	3880	13408	133	-40	-187	-16352	2284	-2248	-106	81	113	-604	3292	16816	76	261	-52	126	126	5
-10600	-3060	11400	-66	164	-186	-15824	-2900	-1684	-111	-26	-126	-2552	-1784	16392	-327	40	-42	-9212	3852	13360	149	-5	-173	-16340	2252	-2360	-259	91	142	-792	3192	16716	354	397	-103	126	126	5
-10552	-3160	11412	-102	216	-178	-15808	-2932	-1776	-26	14	-98	-2612	-1752	16432	-294	-142	-137	-9156	3848	13308	171	-10	-164	-16332	2192	-2396	-248	121	143	-992	3320	16672	599	468	-183	126	126	5
-10588	-3068	11356	-94	191	-138	-15820	-2796	-1856	-47	48	-90	-2608	-1644	16508	-276	-343	-238	-9244	3880	13476	193	45	-179	-16324	2324	-2496	-61	131	167	-1040	3588	16588	838	501	-175	126	126	5
-10636	-3040	11336	-67	203	-173	-15832	-2748	-1868	-154	39	-146	-2664	-1644	16284	-202	-489	-201	-9216	3868	13408	166	51	-188	-16340	2316	-2628	2	72	97	-1200	3716	16532	900	481	-161	125	125	5
-10576	-3040	11428	-110	192	-156	-15764	-2752	-2060	-141	49	-136	-2608	-1640	16304	-173	-574	-127	-9232	3876	13344	161	-25	-174	-16332	2392	-2832	115	64	57	-1368	3956	16596	1016	551	-110	125	125	5
-10564	-3040	11388	-129	195	-178	-15792	-2668	-2036	-135	13	-188	-2628	-1596	16360	-196	-583	-74	-9236	3896	13444	129	-64	-196	-16328	2508	-2756	171	-58	-9	-1544	4112	16584	998	598	14	125	125	5
-10664	-3036	11272	-123	203	-202	-15852	-2688	-2144	-57	5	-208	-2452	-1452	16480	-93	-601	31	-9204	3832	13392	111	-74	-196	-16312	2576	-2700	129	-160	-26	-1532	4256	16496	948	625	107	124	125	5
-10584	-2996	11428	-151	216	-236	-15808	-2584	-2124	0	-93	-288	-2268	-1564	16440	-191	-466	70	-9228	3820	13312	119	-69	-205	-16308	2464	-2604	60	-196	-125	-1460	4196	16572	762	510	112	124	124	5
-10572	-3036	11512	-179	192	-235	-15772	-2696	-2060	67	-125	-318	-2280	-1492	16280	-268	-326	176	-9204	3856	13388	113	-88	-160	-16332	2432	-2472	-25	-223	-162	-1212	4032	16676	587	464	91	124	124	5
-10584	-2996	11380	-192	214	-253	-15740	-2612	-1960	25	-130	-387	-2216	-1552	16364	-314	-198	292	-9192	3872	13384	92	-114	-199	-16312	2296	-2420	-2	-215	-180	-1128	3896	16636	541	534	70	125	124	5
-10548	-3108	11388	-191	219	-287	-15848	-2580	-1952	-70	-176	-408	-2208	-1612	16448	-299	-179	393	-9152	3936	13320	70	-105	-199	-16384	2248	-2488	18	-189	-188	-1180	3272	16588	331	405	382	125	123	5
-10616	-3096	11324	-265	234	-274	-15736	-2824	-1992	-120	-146	-432	-2336	-1752	16392	-333	-132	444	-9164	3864	13416	60	-123	-183	-16340	2180	-2464	95	-182	-182	-1524	3536	16652	483	525	571	125	123	5
-10592	-3104	11348	-224	245	-277	-15816	-2900	-1856	-166	-157	-463	-2316	-1948	16448	-332	-140	463	-9204	3876	13372	49	-110	-180	-16340	2124	-2440	126	-156	-205	-1128	3268	16660	788	412	780	125	122	5
-10504	-3140	11360	-197	248	-275	-15800	-3044	-1852	-143	-178	-410	-2296	-1956	16544	-283	-158	456	-9168	3824	13412	68	-100	-210	-16352	2004	-2456	50	-134	-128	-1416	3764	16540	698	299	501	125	123	5
-10604	-3120	11356	-201	262	-283	-15712	-3084	-1920	-62	-159	-447	-2256	-1988	16388	-324	-200	440	-9168	3808	13452	98	-75	-185	-16332	2092	-2296	37	-86	-110	-1552	3636	16576	630	337	435	125	124	5
-10632	-3196	11280	-176	257	-259	-15748	-3116	-1796	-2	-164	-404	-2284	-2048	16344	-249	-227	437	-9164	3880	13356	89	-53	-197	-16276	2052	-2420	-14	-89	-51	-1264	3764	16612	213	232	217	125	125	5
-10584	-3208	11332	-211	283	-226	-15804	-3156	-1776	-17	-102	-372	-2132	-2104	16412	-337	-278	386	-9228	3864	13396	112	-72	-177	-16336	1968	-2360	-33	-56	6	-1200	3568	16660	200	244	163	125	126	5
-10652	-3180	11236	-175	235	-233	-15652	-3232	-1832	-12	-62	-305	-2208	-2180	16328	-330	-290	322	-9188	3800	13392	138	-89	-174	-16304	2012	-2464	6	8	35	-1548	3652	16584	205	115	87	125	125	5
-10536	-3136	11344	-151	209	-219	-15760	-3244	-1804	49	-41	-286	-2296	-2156	16360	-331	-259	234	-9236	3836	13360	109	-82	-178	-16360	1996	-2444	5	14	77	-1196	3312	16672	116	-300	539	125	126	5
-10620	-3216	11336	-155	170	-196	-15732	-3228	-1860	-82	-83	-210	-2156	-2372	16380	-287	-287	143	-9148	3844	13348	173	-26	-164	-16304	1976	-2460	16	-17	140	-1240	3452	16568	192	-373	434	125	126	5
-10608	-3156	11316	-97	175	-202	-15760	-3280	-1780	-96	-61	-127	-2128	-2316	16504	-222	-203	57	-9248	3836	13468	163	-65	-159	-16360	1924	-2452	82	-25	179	-1164	3596	16520	434	-104	-5	125	126	5
-10572	-3132	11344	-79	124	-195	-15788	-3232	-1904	-80	-63	-54	-2068	-2292	16380	-122	-222	16	-9116	3832	13408	204	-42	-148	-16320	1968	-2456	128	26	185	-1436	3700	16720	437	86	-12	125	127	5
-10636	-3188	11372	-59	115	-160	-15720	-3192	-1788	-36	-80	-19	-2184	-2300	16312	-25	-179	7	-9180	3876	13348	198	-19	-154	-16412	2104	-2460	115	-14	229	-1496	3808	16556	435	-7	-48	125	127	5
-10644	-3108	11360	-93	164	-192	-15800	-3232	-1852	60	-14	48	-2180	-2260	16376	57	-136	14	-9184	3836	13352	225	-21	-163	-16328	2192	-2476	26	-9	261	-1344	3836	16568	502	14	-57	125	127	5
-10620	-3152	11404	-44	139	-172	-15696	-3092	-1884	109	-51	122	-2148	-2104	16140	120	-130	-17	-9176	3796	13300	202	-48	-136	-16380	2156	-2504	19	1	277	-1364	3948	16556	489	41	-101	125	127	5
-10624	-3140	11424	-56	105	-168	-15808	-3080	-1840	82	-79	123	-2284	-2108	16320	174	-66	10	-9220	3872	13472	186	-6	-170	-16376	2120	-2508	66	-6	291	-1348	4032	16488	474	-30	-40	125	127	5
-10604	-3128	11320	-31	95	-137	-15732	-3044	-2024	29	-30	117	-2364	-1964	16340	217	-42	64	-9244	3840	13356	213	-81	-171	-16388	2160	-2504	104	-53	292	-1288	3972	16684	327	-41	-9	125	127	5
-10644	-3112	11284	-39	110	-156	-15828	-2948	-1836	-29	-57	100	-2364	-1912	16408	289	-84	86	-9184	3840	13280	181	-60	-141	-16344	2212	-2388	134	8	252	-1252	3860	16564	295	-32	-20	125	127	5
-10592	-3120	11416	-39	95	-140	-15820	-2900	-1936	8	-100	100	-2284	-1912	16352	343	-96	116	-9228	3816	13380	184	-36	-165	-16300	2148	-2428	146	-34	269	-1212	3952	16556	363	-22	-62	125	127	5
-10624	-3108	11372	-19	99	-153	-15796	-2956	-1772	51	-17	70	-2188	-1728	16492	391	-160	218	-9152	3872	13340	192	-33	-146	-16400	2216	-2476	144	18	260	-1152	4004	16572	370	-20	-101	125	126	5
-10568	-3128	11420	-82	126	-209	-15820	-2864	-1712	-13	-7	73	-2048	-1728	16520	368	-175	289	-9248	3888	13376	155	-10	-171	-16360	2332	-2452	135	89	227	-1108	4072	16624	450	23	-74	125	127	5
-10596	-3152	11300	-79	136	-187	-15788	-2844	-1780	40	-11	14	-2032	-1772	16356	323	-165	336	-9180	3832	13316	181	-42	-215	-16356	2388	-2380	2	91	206	-1200	4164	16576	393	35	-47	125	127	5
-10596	-3100	11460	-108	161	-167	-15756	-2980	-1784	126	46	1	-2052	-1832	16524	290	-145	425	-9168	3884	13352	154	-73	-158	-16348	2248	-2524	-46	109	186	-1156	3996	16684	324	21	16	125	127	5
-10576	-3164	11280	-63	138	-159	-15812	-3004	-1892	94	52	22	-2108	-1880	16348	254	-127	399	-9228	3880	13424	163	-26	-198	-16352	2140	-2416	37	107	148	-1184	3972	16604	295	60	-42	125	127	5
-10584	-3108	11268	-43	155	-133	-15752	-3060	-1800	83	62	14	-2212	-1940	16384	263	-99	285	-9164	3844	13408	199	-46	-179	-16328	2144	-2604	90	116	176	-1260	3992	16456	338	59	-77	125	127	5
-10604	-3124	11288	-43	146	-148	-15724	-3024	-1912	70	62	62	-2276	-1940	16352	272	-80	225	-9228	3884	13436	150	-57	-148	-16332	2116	-2428	189	104	208	-1544	3956	16524	362	51	-129	125	127	5
-10560	-3224	11376	-56	137	-114	-15720	-3008	-1936	-13	40	51	-2300	-1928	16456	216	-78	178	-9144	3884	13404	141	-16	-199	-16316	2212	-2620	199	107	195	-1552	3932	16372	325	-12	-112	125	127	5
-10548	-3116	11356	-68	131	-106	-15760	-3040	-1896	-8	24	70	-2388	-1884	16372	216	-106	144	-9184	3912	13348	176	-47	-138	-16360	2244	-2508	137	68	222	-1452	3964	16580	333	-15	-55	125	127	5
-10564	-3052	11264	-17	143	-122	-15740	-2940	-2092	27	26	74	-2464	-1916	16400	232	-133	76	-9216	3820	13376	162	-25	-141	-16336	2212	-2556	74	30	204	-1428	3972	16588	347	-11	-14	125	127	5
-10620	-3120	11332	-16	84	-148	-15768	-2892	-2040	0	-38	113	-2448	-1852	16212	282	-136	81	-9236	3852	13440	152	-27	-160	-16296	2184	-2544	-8	18	217	-1432	3960	16528	388	5	-28	125	127	5
-10572	-3056	11432	-25	117	-168	-15728	-2928	-1932	2	-23	117	-2456	-1752	16276	232	-127	14	-9204	3796	13408	182	-18	-138	-16344	2112	-2644	49	17	187	-1476	3964	16576	434	-18	-63	125	127	5
-10560	-3132	11324	-23	96	-162	-15788	-2812	-2116	-16	-99	105	-2396	-1632	16404	198	-119	44	-9244	3868	13456	207	-46	-130	-16332	2272	-2544	95	19	186	-1496	4064	16500	404	17	-47	125	127	5
-10580	-3020	11368	-49	79	-175	-15800	-2740	-1988	-28	-118	41	-2360	-1552	16344	131	-103	97	-9280	3920	13392	203	2	-168	-16344	2300	-2592	99	-93	236	-1416	4180	16500	363	11	-31	125	127	5
-10588	-2988	11416	-20	122	-173	-15776	-2732	-1932	-62	-122	-8	-2220	-1504	16452	46	-136	150	-9232	3848	13412	190	-73	-165	-16316	2432	-2408	72	-61	179	-1248	4224	16616	318	14	38	125	126	5
-10596	-3044	11360	-79	143	-188	-15788	-2716	-1792	-71	-112	-41	-2220	-1532	16404	34	-142	193	-9172	3892	13292	180	-81	-147	-16320	2412	-2572	-16	-56	177	-1176	4200	16616	282	29	75	125	126	5
-10552	-3132	11332	-112	176	-189	-15720	-2784	-1828	26	-92	-81	-2132	-1596	16444	-1	-119	218	-9172	3860	13368	169	-108	-193	-16324	2308	-2364	45	-54	174	-1148	4164	16564	261	11	63	125	127	5
-10552	-3104	11356	-80	146	-154	-15812	-2916	-1880	115	-61	-120	-2136	-1704	16476	1	-112	162	-9168	3848	13392	150	-12	-175	-16408	2292	-2508	109	-33	151	-1164	4124	16676	253	58	54	125	127	5
-10504	-3148	11460	-104	152	-189	-15816	-2892	-1856	18	-52	-89	-2096	-1640	16368	-51	-99	92	-9232	3896	13384	161	-51	-176	-16328	2336	-2516	188	-32	120	-1204	4196	16608	268	50	-20	125	126	5
-10656	-3096	11480	-95	172	-175	-15804	-2952	-1756	26	-23	-74	-2096	-1688	16456	-125	-88	31	-9140	3892	13424	115	-22	-161	-16292	2348	-2536	160	-36	141	-1404	4264	16584	208	19	-26	125	127	5
-10512	-3092	11344	-89	190	-207	-15824	-2812	-1788	-49	-22	-141	-2156	-1644	16396	-146	-101	41	-9188	3940	13400	126	-34	-171	-16308	2288	-2556	96	-27	88	-1384	4232	16456	98	-69	-82	125	126	5
-10584	-3164	11476	-121	172	-192	-15776	-2876	-1780	-86	5	-156	-2116	-1648	16480	-185	-108	34	-9276	3900	13388	114	-47	-197	-16336	2284	-2588	91	-19	78	-1288	4132	16628	33	-50	-40	125	127	5
-10552	-3068	11368	-101	178	-178	-15864	-2908	-1764	-116	-6	-156	-2148	-1660	16332	-198	-114	76	-9236	3848	13424	121	-28	-189	-16320	2268	-2452	73	-43	72	-1240	4008	16528	28	43	-45	125	127	5
-10556	-3140	11400	-119	222	-163	-15768	-2900	-1884	-38	24	-179	-2256	-1768	16404	-185	-58	163	-9192	3904	13372	155	-68	-205	-16364	2244	-2540	99	-18	64	-1316	4072	16488	77	14	-96	125	127	5
-10568	-3096	11392	-115	210	-210	-15780	-2896	-1952	22	25	-204	-2364	-1756	16392	-174	-43	184	-9272	3904	13408	146	-89	-204	-16348	2320	-2620	119	-30	98	-1372	4112	16480	116	31	-92	126	126	5
-10600	-3112	11396	-135	219	-242	-15812	-3000	-2140	72	-11	-241	-2476	-1820	16308	-147	-71	236	-9248	3888	13300	118	-90	-163	-16300	2300	-2536	53	-14	37	-1396	4120	16568	88	17	10	126	126	5
-10680	-3000	11400	-141	196	-228	-15768	-2972	-2076	31	-2	-215	-2496	-1916	16284	-149	-120	233	-9240	3908	13444	150	-96	-169	-16380	2300	-2472	51	-55	55	-1324	3936	16556	23	25	122	126	126	5
-10616	-3152	11324	-140	231	-192	-15764	-2940	-1980	-47	-108	-220	-2388	-1888	16252	-152	-104	271	-9184	3864	13424	118	-38	-209	-16312	2272	-2540	57	-16	21	-1264	3872	16656	146	64	213	126	127	5
-10556	-3100	11336	-124	167	-246	-15788	-3036	-1884	-70	-92	-222	-2332	-2000	16464	-188	-70	350	-9188	3792	13392	122	-78	-207	-16252	2156	-2368	41	-50	43	-1236	3880	16624	243	81	236	126	127	5
-10592	-3164	11340	-147	190	-223	-15784	-3048	-1928	-134	-99	-206	-2232	-2068	16384	-122	-69	362	-9168	3868	13416	104	-4	-217	-16292	2168	-2364	51	-12	74	-1296	3820	16548	303	64	155	126	127	5
-10564	-3160	11348	-159	180	-224	-15752	-3180	-1932	-149	-81	-164	-2224	-2088	16392	-71	-84	322	-9208	3792	13424	151	-19	-178	-16296	2092	-2432	101	9	79	-1344	3932	16468	297	90	108	126	127	5
-10600	-3152	11420	-103	186	-250	-15728	-3148	-1756	-85	-58	-94	-2092	-2092	16496	34	-73	321	-9212	3876	13468	124	-39	-131	-16344	2172	-2512	87	31	106	-1448	3944	16528	211	54	59	126	127	5
-10600	-3188	11292	-122	151	-226	-15712	-3188	-1804	57	-56	-29	-2116	-2100	16404	50	-110	234	-9220	3880	13376	170	-70	-177	-16280	2180	-2536	31	28	144	-1388	3960	16368	196	32	8	126	127	5
-10652	-3160	11424	-51	164	-189	-15788	-3172	-1752	90	-34	-8	-2156	-2092	16360	82	-95	141	-9176	3892	13432	158	-32	-184	-16328	2196	-2504	0	25	150	-1312	3960	16428	219	25	12	126	127	5
-10568	-3148	11312	-53	141	-189	-15780	-3084	-1804	90	18	-5	-2132	-2060	16352	91	-106	69	-9276	3832	13300	152	1	-159	-16320	2208	-2548	4	47	168	-1272	3964	16648	247	-2	-52	125	127	5
-10608	-3072	11404	-17	121	-127	-15732	-3028	-1836	28	50	63	-2192	-1924	16288	112	-98	26	-9220	3812	13432	148	-34	-160	-16372	2188	-2416	48	48	180	-1260	4004	16532	274	33	-90	125	127	5
-10608	-3112	11296	-3	109	-154	-15708	-2976	-1872	-69	31	63	-2228	-1836	16304	92	-86	-19	-9184	3848	13356	151	-43	-156	-16376	2280	-2524	95	44	154	-1316	4132	16596	308	-8	-102	125	127	5
-10496	-3032	11380	-28	125	-174	-15752	-2932	-1892	-118	40	39	-2236	-1788	16352	56	-76	-2	-9212	3888	13356	128	-10	-148	-16344	2360	-2460	83	47	160	-1256	4208	16456	282	49	-76	125	127	5
-10596	-3096	11472	-63	115	-157	-15760	-2960	-2028	-39	17	33	-2248	-1672	16300	35	-42	6	-9156	3860	13212	158	23	-170	-16268	2424	-2628	52	52	131	-1392	4228	16588	263	37	-73	125	127	5
-10592	-3056	11372	-71	138	-176	-15760	-2932	-1988	-49	8	55	-2356	-1740	16360	37	-50	40	-9212	3820	13424	140	-60	-171	-16296	2344	-2584	47	12	118	-1460	4280	16540	209	27	10	125	127	5
-10580	-3080	11300	-55	126	-148	-15744	-2712	-1944	73	3	-37	-2396	-1672	16332	52	-39	63	-9256	3800	13336	179	-76	-155	-16308	2276	-2584	85	8	87	-1596	4204	16388	121	-5	45	125	127	5
-10524	-3076	11444	-75	159	-193	-15744	-2864	-2072	55	-26	-53	-2488	-1668	16292	-16	-38	114	-9120	3924	13456	115	-46	-172	-16352	2276	-2672	125	-28	90	-1500	4076	16508	155	8	37	125	127	5
-10548	-3120	11288	-75	155	-190	-15764	-2808	-2040	64	-10	-73	-2376	-1712	16372	-18	-5	177	-9228	3864	13360	135	-86	-176	-16360	2260	-2640	128	-88	90	-1480	4040	16460	159	12	81	125	127	5
-10552	-3104	11360	-106	146	-201	-15712	-2884	-2040	34	-77	-73	-2360	-1824	16344	-36	-36	191	-9188	3844	13412	171	-90	-178	-16400	2220	-2644	87	-79	81	-1412	4028	16432	176	-5	115	125	127	5
-10616	-3116	11316	-86	164	-196	-15764	-3008	-1964	-28	-98	-107	-2316	-1828	16264	-51	-3	218	-9256	3824	13520	159	-68	-143	-16368	2144	-2524	84	-105	101	-1304	3992	16592	161	80	104	126	127	5
-10676	-3112	11452	-103	172	-204	-15740	-2948	-1880	1	-45	-83	-2348	-1880	16392	-8	-11	251	-9136	3892	13344	152	-80	-169	-16284	2168	-2300	125	-102	82	-1312	3876	16548	100	19	19	126	127	5
-10632	-3128	11260	-91	179	-187	-15728	-3088	-1908	-15	-72	-110	-2352	-1928	16340	26	8	224	-9228	3888	13368	154	-101	-151	-16308	2224	-2404	71	-35	163	-1240	3864	16596	83	-29	-32	126	127	5
-10592	-3092	11280	-94	170	-197	-15688	-2968	-1848	-12	-64	-81	-2328	-1944	16448	40	-80	194	-9168	3772	13396	165	-67	-170	-16272	2112	-2280	63	-32	146	-1220	3912	16600	124	-1	-55	126	127	5
-10564	-3136	11424	-104	184	-224	-15796	-3040	-1804	-9	-40	-58	-2356	-1932	16408	69	-163	153	-9172	3880	13244	191	-58	-150	-16336	2228	-2352	72	-18	188	-1268	3856	16600	223	-28	-64	126	127	5
-10584	-3144	11380	-117	179	-185	-15800	-3024	-1844	7	0	-42	-2260	-1984	16436	76	-192	159	-9184	3872	13460	132	-32	-173	-16264	2264	-2416	35	-39	182	-1288	3940	16540	303	-12	-32	126	127	5
-10580	-3096	11292	-120	171	-221	-15760	-3020	-1840	43	36	-37	-2236	-2008	16388	54	-217	172	-9208	3896	13364	174	-31	-148	-16332	2220	-2424	14	25	175	-1224	3924	16500	280	-38	-20	126	127	5
-10624	-3092	11284	-94	154	-141	-15716	-2972	-1980	26	-17	-41	-2168	-1988	16488	127	-212	160	-9232	3832	13420	176	-32	-185	-16320	2212	-2452	24	30	201	-1232	3884	16508	331	-20	-19	126	127	5
-10612	-3108	11412	-69	152	-169	-15796	-3028	-2044	-25	-8	-27	-2248	-1976	16324	106	-143	177	-9204	3880	13360	148	-30	-161	-16368	2268	-2500	136	67	175	-1228	4032	16540	343	18	1	125	127	5
-10536	-3100	11428	-29	159	-162	-15796	-2960	-1988	-82	5	17	-2316	-1968	16348	127	-90	193	-9248	3808	13376	189	-13	-191	-16356	2244	-2484	164	50	159	-1256	4068	16548	344	-1	-3	125	127	5
-10596	-3144	11400	1	189	-164	-15732	-3024	-1960	-44	-50	29	-2348	-1900	16448	124	-97	186	-9236	3896	13372	165	-17	-182	-16300	2324	-2548	87	87	169	-1380	4160	16368	366	7	2	125	127	5
-10600	-3164	11364	-26	136	-164	-15748	-3060	-1904	-33	-42	26	-2340	-1888	16456	137	-110	159	-9160	3864	13360	157	-96	-181	-16324	2288	-2608	12	34	193	-1508	4172	16452	295	13	28	125	127	5
-10540	-3188	11328	-37	133	-165	-15816	-2980	-2004	20	-36	44	-2332	-1764	16356	124	-123	142	-9256	3888	13368	140	-55	-176	-16324	2276	-2604	40	-30	169	-1532	4116	16452	249	-1	77	125	127	5
-10592	-3092	11428	-36	141	-149	-15728	-2924	-1948	2	-37	25	-2360	-1832	16396	140	-107	113	-9232	3860	13412	184	-58	-165	-16340	2244	-2612	60	-29	167	-1472	4168	16424	259	-9	36	125	127	5
-10588	-3080	11396	-26	103	-157	-15784	-2912	-1896	14	-37	32	-2392	-1752	16324	116	-144	89	-9192	3868	13308	153	-48	-188	-16316	2204	-2496	101	-37	173	-1348	4056	16540	199	-23	-13	125	127	5
-10596	-3164	11328	-54	129	-179	-15772	-2888	-1972	12	-90	17	-2340	-1756	16412	66	-157	93	-9160	3816	13484	172	-12	-173	-16300	2296	-2508	104	-73	189	-1428	4052	16500	233	-40	-67	125	127	5
-10564	-3120	11284	-43	132	-167	-15740	-2864	-1996	11	-79	-23	-2368	-1728	16392	71	-129	75	-9256	3888	13380	136	-15	-144	-16324	2240	-2596	125	-50	151	-1352	4056	16564	220	-37	-6	125	127	5
-10560	-3092	11400	-78	137	-192	-15760	-2868	-2012	-15	-122	-23	-2344	-1656	16424	12	-102	85	-9188	3860	13380	166	-17	-162	-16324	2252	-2480	152	-89	188	-1268	4120	16528	212	-28	-1	125	127	5
-10604	-3120	11328	-89	137	-200	-15796	-2832	-2044	0	-84	-83	-2348	-1612	16400	32	-93	91	-9240	3888	13468	171	-62	-159	-16308	2312	-2460	104	-53	157	-1208	4084	16608	269	-12	-20	125	127	5
-10656	-3100	11400	-122	185	-183	-15812	-2844	-1880	-3	-68	-78	-2332	-1680	16384	-2	-141	135	-9208	3860	13304	165	-39	-136	-16284	2288	-2524	56	-38	151	-1276	4112	16472	296	-47	-21	125	127	5
-10568	-3088	11328	-113	150	-199	-15772	-2832	-1980	-4	-105	-106	-2320	-1708	16456	-23	-176	144	-9220	3872	13432	165	-50	-163	-16368	2276	-2484	58	-47	173	-1276	4084	16524	238	-20	-21	125	127	5
-10576	-3112	11424	-120	173	-216	-15796	-2884	-1856	-22	-57	-143	-2188	-1680	16440	13	-187	160	-9260	3904	13364	156	-42	-161	-16300	2284	-2452	46	-63	170	-1188	4240	16608	198	-12	-23	125	127	5
-10628	-3120	11504	-136	210	-207	-15764	-2880	-1760	-31	-26	-108	-2160	-1776	16432	-1	-162	247	-9180	3864	13476	134	-75	-162	-16332	2356	-2432	50	-26	87	-1128	4276	16488	204	70	-14	125	127	5
-10608	-3100	11428	-91	228	-197	-15816	-3004	-1852	-38	-27	-171	-2124	-1880	16356	4	-146	321	-9224	3904	13344	136	-26	-182	-16328	2376	-2424	44	12	64	-1196	4240	16528	133	89	25	125	127	5
-10576	-3072	11456	-122	239	-178	-15808	-2940	-1820	-7	16	-183	-2136	-1996	16476	24	-159	330	-9268	3916	13300	113	-49	-166	-16336	2408	-2456	-34	20	47	-1200	4252	16496	114	58	33	125	127	5
-10576	-3120	11292	-109	213	-188	-15800	-3040	-1876	15	-30	-185	-2112	-1980	16352	13	-94	308	-9168	3828	13324	111	-49	-219	-16328	2324	-2548	32	-19	17	-1376	4208	16524	57	55	100	125	127	5
-10628	-3096	11352	-71	180	-176	-15716	-3032	-2036	-33	3	-82	-2200	-1992	16292	-15	-31	227	-9240	3848	13324	125	-18	-209	-16352	2300	-2500	107	-16	-34	-1452	4128	16384	53	34	125	125	127	5
-10620	-3112	11380	-72	143	-175	-15760	-3048	-1896	1	-8	-117	-2276	-1964	16308	-38	-37	170	-9200	3780	13356	74	-33	-168	-16340	2188	-2552	103	-38	-1	-1456	4052	16560	88	63	144	125	127	5
-10632	-3104	11392	-51	180	-165	-15768	-3048	-1976	-93	-23	-83	-2268	-1900	16452	-111	21	119	-9256	3828	13452	117	-123	-185	-16364	2132	-2536	118	-21	-3	-1468	3904	16568	100	15	100	125	127	5
-10580	-3084	11284	-101	128	-175	-15796	-2992	-1900	-92	-42	-8	-2216	-1904	16420	-85	7	96	-9176	3808	13392	131	-64	-190	-16364	2132	-2584	87	-78	36	-1516	3852	16540	102	14	81	126	127	5
-10576	-3120	11328	-92	96	-183	-15676	-3060	-1912	-44	-48	-31	-2356	-1892	16412	-29	-5	103	-9212	3876	13364	110	-73	-197	-16404	2132	-2480	96	-54	73	-1448	3888	16592	122	21	53	126	127	5
-10640	-3128	11452	-69	154	-173	-15776	-3040	-1912	16	-52	-13	-2372	-1832	16432	25	-21	83	-9224	3764	13380	165	-46	-186	-16256	2120	-2424	113	-28	129	-1384	3820	16592	191	26	-2	126	127	5
-10564	-3088	11372	-70	118	-195	-15788	-3016	-1824	78	-44	-20	-2444	-1900	16436	74	-87	46	-9172	3868	13384	182	-52	-186	-16316	2056	-2424	63	-4	169	-1404	3788	16532	262	25	-61	126	127	5
-10608	-3116	11376	-96	149	-178	-15732	-3068	-1840	171	-30	-7	-2408	-1852	16392	97	-185	-17	-9192	3896	13384	182	-7	-134	-16284	2088	-2376	99	-44	204	-1384	3836	16420	308	1	-142	125	127	5
-10556	-3116	11356	-53	111	-190	-15788	-2924	-1980	148	14	-24	-2420	-1788	16440	110	-202	-42	-9204	3820	13396	194	-46	-146	-16360	2224	-2496	95	5	224	-1364	4052	16560	332	-36	-170	126	127	5
-10604	-3104	11372	-54	145	-157	-15748	-2784	-2036	7	-41	20	-2336	-1564	16280	95	-198	-60	-9180	3888	13404	174	-24	-180	-16368	2300	-2548	55	25	255	-1344	4176	16588	260	-22	-124	125	127	5
-10684	-3124	11488	-60	154	-178	-15756	-2800	-1956	-60	-22	11	-2296	-1664	16420	61	-218	-29	-9232	3884	13356	196	-35	-200	-16320	2336	-2524	59	12	199	-1244	4200	16492	244	-13	-76	125	127	5
-10576	-3080	11428	-82	140	-182	-15792	-2812	-2040	-111	-91	-63	-2328	-1640	16336	-20	-151	58	-9248	3872	13380	156	-24	-176	-16320	2364	-2508	-13	-62	217	-1296	4272	16512	194	9	-34	125	127	5
-10516	-3056	11400	-66	144	-186	-15808	-2832	-2032	-114	-115	-121	-2400	-1700	16380	-30	-182	158	-9228	3896	13444	177	-61	-198	-16336	2332	-2608	56	-52	148	-1400	4224	16428	236	-14	35	125	127	5
-10608	-3096	11352	-120	159	-202	-15824	-2944	-2008	-28	-99	-111	-2372	-1756	16404	-3	-171	223	-9232	3908	13440	138	-78	-162	-16344	2332	-2440	118	-98	110	-1340	4100	16532	219	-1	58	125	127	5
-10636	-3076	11456	-92	178	-211	-15812	-2892	-1884	81	-128	-141	-2412	-1772	16332	53	-176	259	-9224	3884	13412	166	-48	-186	-16240	2324	-2564	165	-63	106	-1424	4160	16488	260	-19	77	125	127	5
-10564	-3092	11384	-124	167	-209	-15748	-2996	-1920	145	-83	-132	-2312	-1916	16372	96	-192	298	-9176	3876	13364	114	-36	-185	-16352	2344	-2528	129	-90	105	-1372	4088	16608	189	-75	101	125	127	5
-10640	-3044	11368	-137	158	-168	-15752	-2996	-1888	115	-95	-109	-2216	-1872	16368	70	-163	322	-9236	3876	13500	156	-76	-176	-16336	2304	-2624	93	-51	133	-1284	4092	16560	197	-26	153	125	127	5
-10628	-3104	11452	-103	148	-216	-15740	-3028	-1972	51	-78	-109	-2112	-1988	16364	66	-93	319	-9220	3844	13264	123	-86	-138	-16364	2288	-2404	68	-79	86	-1184	4076	16556	132	-8	121	126	127	5
-10588	-3164	11532	-77	148	-200	-15780	-3044	-2004	-64	-95	-82	-2144	-2032	16372	58	-68	262	-9200	3896	13432	122	-56	-190	-16312	2212	-2284	33	-57	111	-1088	4100	16628	97	38	87	126	127	5
-10568	-3100	11360	-42	143	-167	-15760	-3100	-1864	-101	-70	-81	-2212	-2008	16452	100	-20	234	-9128	3812	13420	112	-70	-164	-16316	2264	-2416	26	13	111	-1072	3952	16608	89	43	37	126	127	5
-10600	-3116	11380	-44	188	-174	-15800	-3036	-1860	0	-49	-32	-2308	-1880	16436	109	-55	184	-9188	3848	13364	155	-27	-173	-16356	2184	-2304	53	0	110	-1228	3936	16424	150	84	37	126	127	5
-10628	-3168	11356	-67	143	-167	-15760	-3004	-1852	-38	-67	-3	-2204	-1884	16336	105	-69	131	-9152	3848	13400	112	-58	-177	-16344	2192	-2400	63	73	118	-1276	3912	16692	225	84	52	126	127	5
-10556	-3096	11360	-87	180	-170	-15800	-2964	-1812	-15	-1	0	-2196	-1788	16384	64	-112	115	-9200	3876	13416	152	-31	-179	-16296	2352	-2388	20	54	106	-1388	3972	16552	252	94	42	125	127	5
-10552	-3140	11344	-94	152	-195	-15684	-2976	-1872	-32	2	-7	-2192	-1808	16392	18	-192	68	-9172	3812	13376	144	-61	-200	-16360	2228	-2576	-37	63	148	-1420	4032	16560	330	20	77	125	127	5
-10548	-3128	11336	-71	178	-163	-15812	-3040	-1956	53	51	-14	-2216	-1812	16440	47	-151	65	-9176	3860	13396	167	-74	-176	-16360	2212	-2500	11	34	130	-1436	4148	16600	319	-6	35	125	127	5
-10564	-3100	11304	-89	163	-179	-15752	-2924	-1864	33	62	8	-2228	-1736	16352	49	-147	12	-9228	3832	13376	151	-29	-194	-16316	2180	-2476	60	22	151	-1408	4140	16416	317	50	-44	125	127	5
-10608	-3064	11368	-74	171	-160	-15748	-2928	-1976	10	-14	-22	-2300	-1720	16340	12	-82	2	-9248	3972	13364	151	-62	-165	-16316	2208	-2732	104	0	159	-1420	4248	16540	240	-10	-116	125	127	5
-10596	-3096	11340	-56	138	-183	-15780	-2928	-1992	-4	36	7	-2380	-1768	16324	11	-50	45	-9248	3864	13452	202	-65	-156	-16264	2296	-2512	159	-25	162	-1364	4288	16500	139	-43	-129	125	127	5
-10600	-3076	11356	-33	163	-171	-15720	-2864	-1984	-4	0	-16	-2380	-1620	16336	-34	-25	67	-9244	3928	13432	174	-91	-165	-16384	2428	-2564	71	-53	118	-1452	4252	16584	73	-4	-57	125	127	5
-10528	-3144	11396	-18	179	-172	-15764	-2788	-2088	-24	-62	-72	-2452	-1580	16392	-40	-70	83	-9264	3832	13244	134	-69	-205	-16332	2384	-2588	54	-56	96	-1424	4244	16416	45	25	11	125	127	5
-10580	-3080	11464	-61	147	-182	-15772	-2792	-2104	-13	-90	-116	-2432	-1644	16336	-69	-73	120	-9264	3880	13344	163	-47	-176	-16312	2376	-2576	-30	-89	74	-1344	4180	16420	7	12	88	126	127	5
-10608	-3116	11316	-94	166	-200	-15784	-2840	-2028	9	-96	-133	-2484	-1632	16400	-46	-60	135	-9208	3784	13492	107	-120	-149	-16296	2260	-2616	40	-114	35	-1300	4068	16552	47	55	124	125	127	5
-10592	-3096	11352	-129	171	-191	-15800	-2800	-1956	2	-104	-149	-2308	-1728	16392	-70	-69	137	-9256	3904	13408	111	-69	-197	-16284	2200	-2432	114	-98	74	-1304	4008	16492	43	26	116	125	127	5
-10572	-3156	11340	-115	193	-227	-15792	-2924	-1844	23	-103	-144	-2328	-1692	16284	-115	-140	147	-9228	3912	13312	127	-72	-202	-16336	2284	-2408	144	-88	32	-1228	3928	16636	170	26	116	126	127	5
-10576	-3140	11368	-101	207	-230	-15788	-2924	-1804	-33	-98	-191	-2192	-1784	16308	-87	-170	160	-9216	3832	13328	100	-68	-161	-16304	2192	-2432	155	-34	48	-1192	4020	16544	178	35	87	126	127	5
-10520	-3140	11416	-131	197	-224	-15768	-3024	-1928	-29	-83	-193	-2088	-1840	16556	-120	-130	220	-9212	3820	13320	147	-68	-199	-16352	2296	-2388	139	-5	90	-1160	4036	16492	168	31	68	126	127	5
-10560	-3124	11336	-162	207	-171	-15768	-3012	-1852	-59	-27	-181	-2124	-1964	16340	-134	-113	217	-9160	3908	13360	124	-76	-174	-16360	2312	-2428	23	37	59	-1140	4040	16596	156	59	65	126	127	5
-10604	-3160	11400	-152	182	-193	-15768	-3036	-1860	-46	-57	-134	-2108	-2004	16296	-87	-78	247	-9212	3876	13368	152	-66	-180	-16284	2220	-2380	51	28	87	-1124	4080	16432	159	40	78	126	127	5
-10628	-3116	11444	-112	205	-156	-15712	-3028	-1976	-68	-3	-161	-2200	-2048	16364	-78	-94	237	-9196	3892	13272	151	-75	-194	-16336	2184	-2472	-100	87	57	-1344	4048	16528	184	65	42	125	127	5
-10556	-3100	11372	-93	165	-187	-15732	-3040	-1940	-48	-31	-93	-2280	-1976	16324	-30	-61	183	-9216	3896	13428	140	-89	-190	-16332	2196	-2508	-29	93	61	-1404	3988	16428	198	33	47	125	127	5
-10576	-3052	11320	-84	178	-139	-15720	-3080	-1996	-65	-9	-106	-2252	-2012	16368	-51	-94	134	-9216	3856	13416	115	-55	-180	-16308	2160	-2648	29	59	70	-1524	4044	16480	213	56	56	125	127	5
-10600	-3132	11336	-80	197	-153	-15772	-3024	-2040	-14	-43	-84	-2292	-2020	16428	-81	-49	114	-9252	3868	13388	136	-54	-199	-16344	2124	-2644	151	34	76	-1624	3996	16380	218	57	57	125	127	5
-10596	-3092	11336	-72	160	-154	-15780	-3096	-1956	0	24	-24	-2348	-2016	16380	-62	-100	28	-9196	3884	13416	149	-36	-147	-16284	2100	-2568	172	-33	173	-1560	4112	16360	226	-2	-28	125	127	5
-10584	-3132	11408	-67	148	-169	-15744	-3056	-2124	76	-22	17	-2412	-2084	16352	13	-65	-59	-9216	3848	13312	127	-91	-150	-16320	2212	-2536	181	-102	162	-1596	4104	16336	177	-50	-83	125	127	5
-10600	-3080	11320	-58	129	-181	-15740	-2980	-2052	64	-70	79	-2460	-1896	16424	75	-52	-110	-9224	3904	13368	165	-59	-155	-16308	2136	-2524	136	-158	157	-1476	4060	16452	140	-37	-69	125	127	5
-10620	-3108	11348	-26	134	-201	-15684	-2920	-2004	46	-59	59	-2452	-1824	16376	104	-82	-171	-9252	3800	13324	182	-92	-179	-16280	2204	-2512	104	-130	175	-1360	3952	16452	78	-48	-42	126	127	5
-10560	-3088	11360	-76	107	-158	-15732	-2920	-1952	14	-65	78	-2328	-1800	16348	125	-123	-162	-9244	3864	13452	159	-15	-157	-16328	2216	-2428	25	-187	205	-1324	3960	16540	141	16	-9	126	127	5
-10572	-3096	11296	-79	98	-196	-15752	-2940	-1808	-10	-81	23	-2372	-1780	16368	104	-100	-68	-9232	3816	13356	187	-60	-164	-16324	2228	-2412	39	-159	172	-1256	3936	16580	176	1	-35	126	127	5
-10564	-3120	11408	-24	137	-185	-15816	-2856	-1904	48	-70	13	-2204	-1760	16436	145	-108	22	-9172	3884	13456	166	-22	-152	-16360	2164	-2368	134	-102	207	-1156	3948	16536	225	23	-49	126	127	5
-10552	-3064	11452	-57	135	-152	-15880	-2868	-1896	-16	-73	-35	-2320	-1688	16428	184	-139	136	-9208	3864	13368	170	-52	-169	-16316	2312	-2340	171	-54	186	-1048	3976	16480	286	54	-65	126	127	5
-10552	-3052	11412	-110	160	-200	-15808	-2896	-1904	6	-67	-37	-2236	-1728	16464	167	-123	211	-9160	3892	13312	172	-47	-192	-16352	2380	-2436	126	-9	145	-1036	4036	16528	329	-4	-69	126	127	5
-10608	-3088	11360	-99	182	-181	-15756	-3040	-1868	37	-21	-61	-2188	-1732	16380	166	-161	237	-9176	3868	13396	151	-16	-186	-16264	2396	-2412	86	23	130	-1188	4096	16472	339	8	-39	126	127	5
-10596	-3116	11360	-125	189	-173	-15752	-2996	-1900	108	-41	-46	-2288	-1856	16320	123	-129	248	-9260	3856	13364	143	-94	-144	-16312	2396	-2480	51	-13	119	-1172	4216	16480	280	19	57	126	127	5
-10540	-3080	11388	-94	151	-209	-15812	-2992	-1952	46	-43	-79	-2240	-1920	16380	102	-116	244	-9216	3832	13304	137	-43	-166	-16348	2440	-2588	26	22	85	-1420	4324	16504	215	-16	117	125	127	5
-10560	-3144	11356	-68	159	-195	-15744	-3060	-1936	-60	-59	-37	-2284	-1984	16344	114	-111	167	-9172	3860	13432	142	-8	-188	-16284	2380	-2552	0	16	49	-1412	4200	16600	143	20	163	125	127	5
-10652	-3096	11340	-65	172	-137	-15764	-3088	-1996	-65	-43	8	-2248	-1952	16316	94	-100	83	-9216	3812	13332	101	-16	-204	-16372	2316	-2480	51	-40	49	-1364	4124	16592	160	-8	110	125	127	5
-10544	-3176	11336	-54	141	-167	-15768	-3060	-1908	29	-59	2	-2384	-1864	16352	83	-112	-13	-9236	3824	13388	103	-47	-202	-16400	2168	-2516	137	-17	70	-1340	4068	16552	194	58	71	125	127	5
-10552	-3140	11400	-82	133	-157	-15832	-2824	-1852	34	-70	36	-2412	-1700	16468	63	-96	-30	-9200	3864	13396	158	-74	-168	-16336	2240	-2476	224	-35	36	-1332	4136	16544	210	42	15	125	127	5
-10568	-3092	11444	-63	156	-226	-15800	-2700	-2000	-71	-64	-25	-2336	-1640	16348	112	-82	-13	-9200	3840	13356	141	-37	-189	-16376	2368	-2584	152	-18	74	-1344	4236	16596	156	9	-32	125	127	5
-10556	-3084	11528	-89	139	-188	-15776	-2756	-1928	-123	-45	4	-2436	-1656	16384	50	-120	118	-9188	3880	13364	104	-85	-183	-16332	2436	-2520	-8	31	27	-1352	4276	16680	93	59	47	125	127	5
-10584	-3044	11392	-111	150	-202	-15672	-2864	-1936	-12	-96	-85	-2368	-1692	16368	85	-114	256	-9232	3876	13296	89	-74	-195	-16300	2316	-2580	-137	-51	5	-1300	4180	16584	-29	49	151	125	127	5
-10620	-3072	11256	-100	162	-203	-15816	-2968	-1976	80	-113	-114	-2276	-1796	16456	94	-112	250	-9204	3836	13404	124	-87	-192	-16296	2180	-2460	-81	-72	2	-1276	4024	16692	2	130	185	125	127	5
-10520	-3108	11492	-100	212	-221	-15800	-2960	-1884	109	-73	-89	-2204	-1764	16500	73	-84	255	-9184	3784	13392	88	-81	-159	-16344	2128	-2500	42	-2	17	-1324	3900	16544	115	112	145	126	127	5
-10576	-3072	11532	-119	186	-180	-15800	-3024	-1908	104	-55	-116	-1976	-1708	16460	-22	69	107	-9220	3824	13352	89	-66	-169	-16304	2124	-2412	189	-39	5	-1372	3900	16560	167	102	131	126	127	5
-10560	-3104	11328	-77	197	-188	-15716	-2944	-1924	101	-37	-131	-2168	-1744	16292	-116	151	78	-9204	3836	13340	123	-43	-174	-16316	2204	-2412	258	-16	-16	-1264	3980	16524	233	47	126	126	127	5
-10524	-3104	11436	-135	171	-185	-15740	-2872	-1864	-73	-54	-115	-2204	-1732	16368	-138	140	32	-9232	3884	13416	90	-92	-179	-16288	2456	-2344	138	47	2	-1132	4156	16456	208	85	161	126	127	5
-10564	-3076	11412	-129	177	-178	-15736	-2840	-1864	-268	-7	-149	-2196	-1768	16376	-140	105	37	-9164	3892	13248	108	-35	-186	-16284	2424	-2348	-68	51	-59	-1100	4296	16544	150	77	209	126	127	5
-10544	-3068	11456	-175	192	-226	-15748	-3016	-1860	-237	-48	-145	-2252	-1816	16448	-222	86	88	-9200	3900	13452	90	-93	-197	-16328	2376	-2428	-227	80	-69	-1260	4276	16468	83	60	237	126	127	5
-10520	-3128	11424	-138	185	-165	-15772	-2936	-1816	-128	8	-166	-2372	-1904	16384	-180	44	126	-9240	3856	13368	77	-101	-223	-16360	2432	-2548	-208	68	-92	-1468	4212	16588	10	124	232	126	127	5
-10576	-3200	11300	-146	200	-227	-15736	-3120	-1844	10	36	-100	-2412	-2060	16360	-42	5	194	-9200	3792	13460	80	-40	-163	-16316	2008	-2596	-32	-4	-99	-1380	4208	16616	-33	86	225	126	128	5
-10580	-3128	11356	-95	189	-161	-15796	-3084	-1856	137	58	-132	-2476	-1936	16460	98	-82	167	-9196	3828	13344	91	-28	-228	-16268	2132	-2636	225	-25	-116	-1472	4128	16456	-15	84	145	126	128	5
-10632	-3104	11344	-116	185	-182	-15816	-2980	-1932	143	67	-138	-2404	-1844	16380	49	-39	137	-9228	3824	13340	85	-74	-199	-16316	2236	-2536	281	-31	-76	-1604	4168	16372	-124	-25	162	126	128	5
-10644	-3144	11324	-78	208	-189	-15768	-2936	-1972	21	23	-110	-2328	-1868	16388	56	-6	151	-9232	3840	13292	70	-122	-214	-16256	2284	-2588	116	-34	-119	-1140	3944	16320	-130	-31	533	126	128	5
-10612	-3132	11400	-52	191	-154	-15668	-3072	-1904	-148	35	-66	-2484	-1956	16316	10	-96	68	-9164	3872	13384	48	-86	-199	-16312	2232	-2588	32	-71	-150	-1652	4108	16536	-614	-76	388	126	127	5
-10588	-3152	11284	-56	136	-199	-15804	-3024	-2028	-21	34	-53	-2616	-2072	16368	205	-195	239	-9232	3800	13376	34	-142	-214	-16328	2224	-2640	4	-79	-130	-1596	3880	16416	-622	9	388	126	128	5
-10564	-3036	11376	-63	173	-182	-15796	-2972	-2008	-21	-7	-60	-2464	-2124	16440	349	-187	310	-9184	3864	13340	67	-109	-216	-16284	1808	-2528	56	-136	-59	-1788	3516	16584	-905	-124	351	126	128	5
-10564	-3144	11396	-73	187	-165	-15748	-3124	-2112	-163	-9	-1	-2524	-2160	16388	437	-153	351	-9140	3848	13436	98	-102	-165	-16276	1736	-2576	224	-100	42	-1652	3116	16476	-977	-339	443	126	128	5
-10624	-3180	11272	-46	130	-175	-15720	-3448	-2016	71	-50	70	-2528	-2208	16328	406	-147	385	-9188	3900	13384	133	-96	-187	-16348	1672	-2436	278	-112	187	-1416	2868	16620	-879	-854	564	126	129	5
-10636	-3124	11272	14	132	-164	-15756	-3384	-2052	450	-87	154	-2460	-2404	16292	543	-126	238	-9256	3720	13400	171	-85	-151	-16372	1620	-2364	319	-132	290	-816	2996	16776	118	-521	342	126	129	5
-10620	-3080	11372	-14	36	-159	-15708	-3128	-2076	398	-80	192	-2364	-2156	16224	585	-184	186	-9188	3796	13528	219	-41	-152	-16352	1908	-2324	326	-103	380	-1260	3340	16772	437	-300	77	126	130	5
-10616	-3164	11384	44	14	-167	-15712	-2996	-1832	64	-126	244	-2132	-1760	16520	468	-112	54	-9152	3832	13424	269	-26	-145	-16364	2012	-2292	77	-71	496	-1360	3736	16656	458	-256	-185	126	130	5
-10560	-3152	11504	36	4	-125	-15704	-2960	-1812	-60	-120	256	-1956	-1572	16396	251	-21	-109	-9160	3844	13288	292	9	-113	-16440	2160	-2188	-115	-26	515	-1112	3824	16716	359	-198	-290	126	129	5
-10560	-3104	11396	48	6	-118	-15804	-2832	-1764	-138	-52	287	-1920	-1584	16452	70	55	-154	-9232	3788	13512	262	33	-78	-16324	2052	-2304	-160	16	532	-880	3712	16596	350	-116	-407	126	129	5
-10560	-3080	11460	67	66	-104	-15904	-2860	-1736	-134	-5	293	-1952	-1744	16556	-71	146	-196	-9220	3852	13396	292	17	-126	-16308	2060	-2336	-38	76	542	-1084	3616	16848	391	-111	-452	126	129	5
-10568	-3128	11460	21	92	-115	-15856	-3036	-1776	-18	8	324	-2264	-1940	16488	1	187	-188	-9132	3884	13312	254	0	-123	-16308	2180	-2300	174	108	570	-1084	3772	16524	551	-89	-497	126	129	5
-10532	-3104	11292	38	93	-118	-15752	-3100	-1908	190	107	364	-2436	-1988	16300	172	104	-237	-9208	3884	13436	248	3	-117	-16312	2428	-2252	301	178	558	-1016	3936	16456	605	-107	-458	126	129	5
-10572	-3148	11340	50	51	-114	-15744	-2996	-1936	441	108	372	-2536	-1880	16300	339	-6	-322	-9256	3872	13348	233	54	-152	-16308	2464	-2432	251	190	449	-1040	4156	16444	580	-170	-400	126	129	5
-10484	-3048	11504	41	70	-108	-15716	-2712	-2100	448	120	325	-2572	-1516	16344	367	-5	-337	-9164	3852	13348	215	-50	-147	-16372	2540	-2532	137	197	426	-1184	4328	16468	433	-222	-305	126	128	5
-10504	-3040	11568	34	37	-113	-15768	-2604	-2032	371	110	347	-2572	-1352	16296	377	-87	-250	-9248	3872	13340	202	26	-168	-16328	2552	-2684	-3	190	330	-1376	4400	16560	192	-178	-193	125	128	5
-10580	-2984	11388	10	80	-141	-15908	-2408	-2152	-290	40	221	-2576	-1252	16340	358	-84	-53	-9140	3880	13376	207	-51	-162	-16316	2396	-2596	46	156	316	-1544	4268	16648	174	-216	-60	125	128	5
-10588	-3028	11464	-11	100	-108	-15836	-2564	-1992	-377	15	147	-2612	-1376	16388	430	-139	145	-9216	3812	13336	168	-44	-149	-16336	2328	-2676	83	66	256	-1556	4164	16476	155	-136	-16	126	128	5
-10592	-3100	11416	-25	159	-197	-15836	-2692	-1996	-173	-34	108	-2636	-1564	16408	493	-144	326	-9168	3780	13384	187	-75	-146	-16336	2160	-2620	192	18	291	-1328	3964	16664	209	10	-78	126	128	5
-10560	-3036	11416	-67	155	-183	-15808	-2792	-2012	102	-33	71	-2680	-1504	16348	569	-164	329	-9260	3868	13380	171	-54	-170	-16376	2256	-2652	269	22	280	-1416	3964	16592	261	-76	-154	126	128	5
-10564	-2976	11432	-61	144	-178	-15820	-2776	-2160	397	-36	7	-2632	-1412	16396	563	-255	364	-9252	3888	13372	190	4	-177	-16276	2352	-2728	229	-82	282	-1260	4024	16592	397	-88	-195	126	128	5
-10548	-3080	11408	-79	117	-204	-15856	-2648	-1984	485	-79	-53	-2676	-1260	16328	475	-274	350	-9200	3788	13436	198	-34	-143	-16352	2424	-2696	122	-92	243	-1196	4024	16556	484	-64	-88	126	128	5
-10552	-3040	11520	-59	124	-168	-15804	-2480	-2212	252	-126	-82	-2556	-1128	16400	326	-298	342	-9224	3984	13468	177	-136	-135	-16296	2484	-2576	-44	-157	213	-1244	4052	16488	394	-32	55	126	129	5
-10568	-3060	11600	-123	168	-262	-15868	-2528	-2132	-178	-182	-108	-2568	-1260	16400	75	-290	379	-9136	3900	13360	160	-37	-162	-16296	2388	-2640	-120	-155	194	-1116	4036	16528	242	-84	133	126	129	5
-10588	-3096	11420	-101	155	-212	-15792	-2824	-2068	-335	-240	-120	-2436	-1504	16492	-55	-220	208	-9196	3916	13428	161	-92	-161	-16324	2288	-2436	56	-131	173	-960	3720	16676	189	-72	238	126	129	5
-10616	-3080	11384	-150	158	-208	-15760	-2892	-1904	-247	-222	-153	-2240	-1484	16364	-177	-183	74	-9180	3908	13340	173	-63	-141	-16324	2236	-2400	260	-111	189	-980	3796	16680	278	-3	101	126	129	5
-10552	-3080	11340	-138	149	-250	-15832	-2836	-1856	-11	-208	-144	-2148	-1444	16432	-245	-138	-19	-9216	3816	13332	129	-33	-151	-16336	2280	-2376	306	-82	181	-1004	3756	16536	452	-34	80	126	130	5
-10516	-3068	11520	-101	136	-185	-15812	-2672	-1828	92	-168	-179	-2172	-1404	16432	-279	-175	-34	-9164	3956	13408	156	-39	-166	-16364	2392	-2288	226	-46	188	-952	3960	16548	471	-2	-19	126	129	5
-10492	-3056	11408	-126	150	-207	-15736	-2544	-1780	34	-141	-202	-2232	-1368	16488	-271	-217	128	-9196	3888	13352	154	-39	-167	-16316	2452	-2332	35	-19	216	-1024	3956	16616	381	2	65	126	129	5
-10480	-3064	11344	-145	196	-210	-15776	-2600	-1844	-77	-128	-239	-2284	-1424	16448	-260	-216	263	-9192	3844	13496	157	7	-196	-16340	2400	-2304	-33	30	174	-916	3948	16608	355	46	19	126	130	5
-10580	-3124	11408	-142	246	-192	-15796	-2732	-1876	-150	-88	-297	-2312	-1716	16532	-170	-286	425	-9260	3968	13268	196	-61	-167	-16356	2312	-2480	-122	41	220	-1052	4080	16604	411	80	-51	126	130	5
-10640	-3088	11428	-167	231	-215	-15804	-2860	-1896	-170	-41	-271	-2200	-1820	16380	-7	-343	442	-9224	3808	13324	148	-37	-151	-16376	2336	-2428	-11	62	180	-1076	4088	16496	366	44	-127	126	129	5
-10520	-3052	11472	-156	233	-214	-15828	-2952	-1776	-41	-62	-246	-2060	-1732	16460	-13	-321	320	-9224	3864	13356	143	-19	-189	-16344	2468	-2568	57	31	168	-1088	4256	16616	273	85	-158	126	129	5
-10576	-3060	11340	-182	236	-225	-15724	-2996	-1904	93	21	-223	-1960	-1636	16472	-120	-167	124	-9208	3932	13368	160	-39	-155	-16328	2508	-2580	86	39	88	-1232	4280	16600	152	45	-111	126	129	5
-10560	-3096	11436	-95	187	-237	-15764	-2932	-1908	146	5	-203	-1972	-1528	16512	-334	-9	-49	-9188	3920	13324	120	-37	-197	-16388	2528	-2572	69	4	28	-1112	4308	16512	51	64	-25	126	129	5
-10584	-3084	11396	-115	159	-219	-15784	-2840	-1880	58	25	-181	-2236	-1692	16360	-437	66	-109	-9244	3968	13324	98	-79	-209	-16320	2528	-2600	58	9	-32	-1188	4352	16592	-7	54	-4	126	129	5
-10588	-3056	11364	-167	194	-185	-15780	-2816	-1976	-112	31	-174	-2492	-1828	16348	-404	7	-46	-9204	3900	13432	111	-57	-191	-16348	2456	-2560	48	-45	-84	-1284	4212	16612	-151	13	8	126	130	5
-10592	-3096	11384	-133	228	-179	-15784	-2844	-1964	-208	-17	-183	-2572	-1904	16440	-259	-78	80	-9236	3928	13384	109	-86	-172	-16380	2404	-2460	62	-28	-88	-1296	4152	16632	-244	-34	20	126	130	5
-10608	-3012	11432	-98	194	-178	-15740	-2924	-2108	-191	-11	-177	-2636	-1952	16336	-62	-198	274	-9184	3852	13396	85	-95	-248	-16348	2376	-2552	14	-56	-128	-1220	3860	16528	-257	-21	85	126	130	5
-10608	-3108	11404	-127	212	-226	-15812	-2948	-2060	-62	-11	-104	-2556	-1908	16412	88	-185	306	-9216	3820	13368	72	-98	-224	-16324	2200	-2676	20	-86	-100	-1208	3696	16440	-179	-9	144	126	129	5
-10592	-3104	11256	-104	153	-231	-15704	-2984	-2092	47	-110	-118	-2480	-1736	16352	112	-229	227	-9172	3848	13360	103	-75	-175	-16300	2124	-2464	48	-65	-66	-1344	3640	16528	-82	38	170	126	129	5
-10620	-3136	11368	-76	167	-206	-15796	-2948	-2024	207	-65	-160	-2292	-1628	16452	-3	-138	246	-9252	3868	13412	103	-122	-170	-16308	2108	-2584	126	-66	-35	-1300	3592	16628	51	-10	163	126	129	5
-10616	-3016	11364	-84	145	-215	-15780	-2780	-1908	138	-105	-103	-2248	-1644	16388	-71	-60	209	-9212	3832	13372	128	-94	-154	-16284	2116	-2536	97	-104	7	-1288	3588	16652	114	30	86	126	128	5
-10540	-3128	11384	-133	182	-200	-15780	-2840	-1852	-122	-75	-144	-2272	-1676	16280	-161	-27	184	-9188	3924	13380	100	-73	-137	-16328	2168	-2420	80	-72	81	-1308	3516	16652	112	-42	136	127	128	5
-10580	-3148	11376	-133	198	-191	-15828	-3016	-1848	-145	-94	-127	-2296	-1876	16404	-205	35	156	-9184	3852	13284	159	-29	-224	-16352	2148	-2560	50	-64	95	-1184	3460	16564	243	18	122	127	128	5
-10620	-3120	11444	-105	159	-164	-15748	-3028	-1960	-66	-110	-109	-2176	-1868	16248	-205	53	47	-9216	3848	13352	137	-40	-163	-16344	1968	-2320	87	-28	204	-1092	3464	16572	351	24	65	127	129	5
-10608	-3120	11404	-63	153	-201	-15724	-3020	-1800	-122	-54	-100	-2300	-1728	16444	-196	1	-62	-9152	3812	13444	167	-27	-164	-16360	2112	-2440	148	27	247	-1100	3544	16572	511	60	13	126	129	5
-10556	-3068	11400	-89	151	-177	-15736	-2872	-1804	-45	-81	-94	-2324	-1732	16472	-151	9	-80	-9196	3892	13464	192	-15	-133	-16300	2204	-2528	116	-4	258	-1120	3692	16604	576	27	-25	127	128	5
-10540	-3112	11484	-97	166	-155	-15728	-2880	-1852	-14	-33	-60	-2360	-1652	16264	-164	-115	-48	-9192	3804	13460	232	-32	-149	-16272	2244	-2412	82	23	299	-1076	4068	16640	651	99	-176	127	128	5
-10628	-3092	11352	-78	187	-192	-15852	-2872	-1896	-31	-26	-121	-2236	-1712	16492	-195	-82	46	-9212	3872	13340	188	12	-150	-16344	2408	-2396	19	59	246	-1268	4280	16548	342	-37	-243	126	128	5
-10576	-3060	11320	-82	232	-206	-15792	-2896	-1792	-32	5	-64	-2220	-1800	16484	-209	-82	78	-9192	3884	13384	175	-11	-174	-16328	2456	-2540	-11	48	250	-1208	4224	16588	64	-111	-154	126	128	5
-10564	-3128	11448	-68	228	-175	-15716	-3068	-1952	30	3	-61	-2440	-2168	16388	84	-195	304	-9224	3916	13396	192	-31	-146	-16228	2424	-2520	-24	35	201	-1212	3976	16592	18	-99	-27	126	128	5
-10596	-3112	11352	-91	171	-158	-15708	-3056	-2028	95	38	-2	-2436	-1960	16496	231	-214	226	-9216	3908	13256	178	-11	-158	-16320	2336	-2608	30	32	205	-1308	3868	16556	123	-74	42	126	128	5
-10620	-3060	11384	-61	107	-194	-15800	-3044	-2040	135	6	3	-2404	-1876	16400	210	-137	138	-9252	3892	13352	126	-61	-162	-16324	2232	-2592	204	-20	205	-1088	3512	16580	307	-16	316	126	128	5
-10644	-3084	11340	-62	101	-156	-15756	-2908	-1952	41	-1	28	-2440	-1616	16488	79	-128	-50	-9204	3844	13340	155	-75	-156	-16380	2216	-2556	310	-35	167	-1468	4432	16904	723	172	-154	126	128	5
-10636	-3040	11340	-102	101	-168	-15772	-2892	-2028	-65	-75	6	-2212	-1564	16520	-177	-28	-86	-9248	3816	13460	191	-31	-184	-16340	2360	-2576	316	-26	217	-1196	4236	16572	143	-37	-177	126	128	5
-10632	-3068	11392	-92	162	-191	-15840	-2808	-1952	-116	-101	4	-2232	-1876	16372	-191	64	108	-9232	3924	13416	168	-54	-172	-16356	2568	-2376	194	-41	160	-1132	4120	16612	72	87	49	126	127	5
-10616	-3072	11408	-81	155	-192	-15808	-2888	-1996	-168	-42	2	-2488	-2064	16284	97	8	293	-9220	3964	13292	164	-15	-165	-16344	2540	-2584	-184	-50	130	-1208	3976	16472	24	61	37	126	127	5
-10584	-3076	11324	-68	126	-180	-15752	-2988	-1904	-64	-46	20	-2472	-1892	16332	331	-111	334	-9204	3860	13372	144	-36	-207	-16368	2232	-2532	-290	-18	161	-1176	3848	16500	149	34	28	126	127	5
-10576	-3072	11364	-80	141	-163	-15784	-2976	-1828	183	-38	50	-2320	-1676	16440	387	-99	216	-9208	3916	13336	149	-2	-178	-16356	2120	-2600	-39	15	82	-1288	3872	16636	319	43	-58	127	127	5
-10620	-3036	11424	-64	101	-154	-15752	-2824	-1824	186	-44	5	-2316	-1508	16424	263	-103	78	-9204	3892	13360	145	-44	-176	-16320	2260	-2616	169	31	123	-1256	3896	16476	261	9	-52	126	127	5
-10576	-3060	11432	-52	110	-200	-15816	-2688	-1960	100	-31	-9	-2304	-1412	16368	81	-156	37	-9216	3896	13216	153	-67	-158	-16236	2464	-2492	254	-47	106	-1232	4012	16472	188	-78	23	126	127	5
-10584	-3064	11412	-64	153	-184	-15820	-2692	-1928	-61	-28	-45	-2360	-1416	16428	-55	-119	83	-9148	3892	13336	137	-61	-212	-16296	2472	-2488	153	-18	125	-1112	3976	16672	202	-37	128	126	127	5
-10608	-3052	11440	-86	181	-144	-15796	-2716	-1944	-173	-16	-64	-2400	-1536	16496	-127	-81	113	-9172	3784	13440	144	-54	-158	-16336	2280	-2456	119	-15	106	-1084	3860	16688	181	-19	183	126	127	5
-10524	-3072	11404	-108	161	-169	-15820	-2848	-1968	-205	-19	-97	-2404	-1644	16484	-94	-110	136	-9172	3832	13420	136	-48	-181	-16328	2168	-2372	222	-16	89	-1068	3832	16520	284	9	96	126	128	5
-10596	-3124	11436	-93	175	-203	-15832	-2952	-1924	-25	-48	-110	-2456	-1648	16380	-77	-135	75	-9176	3828	13464	138	-20	-185	-16348	2336	-2448	199	42	144	-1156	3944	16596	306	28	3	126	128	5
-10620	-3060	11452	-132	167	-164	-15776	-2792	-2020	119	-12	-115	-2384	-1580	16384	-66	-150	26	-9208	3816	13280	188	-39	-154	-16364	2404	-2484	8	-7	152	-1188	4124	16392	286	43	-136	126	127	5
-10588	-3056	11428	-75	207	-199	-15856	-2652	-2072	130	-54	-126	-2320	-1688	16448	-131	-78	150	-9196	3876	13352	167	-51	-209	-16320	2412	-2612	-142	11	159	-1372	4212	16620	90	12	-115	126	127	5
-10652	-3112	11444	-135	203	-182	-15756	-2860	-2096	-37	-93	-151	-2388	-1864	16344	-13	-58	360	-9216	3876	13256	135	-46	-149	-16304	2444	-2600	-95	-41	151	-1492	4228	16592	-51	-36	-6	126	127	5
-10612	-3064	11456	-119	230	-205	-15828	-2920	-2052	-124	-91	-192	-2356	-1956	16380	-17	-66	400	-9196	3928	13412	141	-81	-175	-16332	2376	-2456	-87	-60	93	-1044	3544	16648	-61	33	355	126	127	5
-10516	-3076	11500	-134	204	-248	-15724	-3052	-1908	9	-99	-120	-2492	-1800	16200	65	-90	187	-9192	3840	13348	151	-55	-200	-16312	2164	-2548	33	-46	81	-980	3988	16448	341	86	20	127	127	5
-10584	-3112	11388	-85	130	-203	-15828	-3080	-2012	85	-79	-118	-2260	-1696	16560	-96	-59	-8	-9128	3860	13376	141	-80	-185	-16336	2064	-2540	298	-92	118	-1224	3920	16548	172	-30	-67	127	127	5
-10588	-3084	11380	-94	155	-222	-15888	-2796	-1872	50	-35	-97	-2308	-1784	16384	-173	-16	63	-9168	3892	13356	135	-44	-162	-16340	2388	-2404	403	-47	77	-1128	4044	16580	128	3	-32	127	127	5
-10572	-3108	11432	-72	168	-191	-15704	-2836	-1848	-200	-29	-41	-2420	-1912	16360	-49	-100	123	-9232	3884	13312	133	-71	-180	-16308	2504	-2448	121	-34	111	-1144	3980	16500	99	21	-39	126	127	5
-10552	-3096	11352	-108	156	-139	-15784	-2996	-1816	-194	-27	-72	-2356	-1828	16408	129	-186	173	-9224	3920	13396	139	-58	-175	-16324	2408	-2516	-112	-6	128	-1052	3948	16572	126	41	-2	127	127	5
-10628	-3064	11456	-102	175	-170	-15776	-3008	-1836	67	-10	-28	-2280	-1740	16308	120	-168	132	-9228	3852	13408	128	-61	-175	-16368	2316	-2420	-179	26	79	-1192	3928	16596	151	16	34	126	127	5
-10548	-3036	11388	-99	174	-182	-15744	-2836	-2044	125	-55	-51	-2376	-1732	16384	16	-171	84	-9200	3868	13284	135	-35	-157	-16260	2228	-2484	-112	-7	89	-1276	3816	16588	62	13	10	126	127	5
-10564	-3052	11432	-62	170	-180	-15712	-2836	-1980	50	-20	-58	-2528	-1684	16292	-37	-106	62	-9200	3864	13380	139	-65	-188	-16304	2176	-2528	69	37	82	-1212	3780	16576	171	-7	8	126	127	5
-10516	-3148	11460	-67	165	-164	-15804	-2864	-1940	4	-76	-53	-2412	-1668	16396	-61	-121	110	-9216	3956	13392	139	-72	-161	-16268	2380	-2572	176	-15	57	-1216	3860	16468	259	1	30	126	127	5
-10600	-3088	11424	-104	178	-158	-15820	-2844	-2048	-27	-63	-50	-2412	-1776	16356	-17	-148	128	-9184	3896	13360	121	-70	-153	-16340	2312	-2444	150	5	112	-1272	3988	16560	306	1	100	126	127	5
-10520	-3088	11436	-89	174	-180	-15816	-2860	-2016	-59	-64	-76	-2380	-1844	16444	6	-105	149	-9220	3836	13396	149	-84	-181	-16332	2252	-2404	162	-33	63	-1276	3948	16604	253	37	143	126	127	5
-10600	-3096	11380	-58	162	-208	-15760	-2952	-1924	-48	-63	-49	-2452	-1856	16360	0	-117	121	-9176	3828	13296	155	-57	-172	-16332	2344	-2320	153	-45	84	-1220	3920	16516	196	63	88	126	127	5
-10572	-3084	11488	-60	120	-186	-15708	-2912	-2004	-25	-57	-83	-2356	-1856	16332	73	-142	131	-9212	3904	13392	127	-64	-188	-16344	2352	-2496	32	-11	87	-1240	3896	16492	169	21	72	126	127	5
-10588	-3100	11300	-67	178	-186	-15792	-2896	-1932	35	-42	-56	-2328	-1768	16404	71	-152	137	-9176	3884	13400	158	-55	-144	-16232	2320	-2444	-35	-47	140	-1176	3744	16504	167	-4	94	126	127	5
-10524	-3040	11360	-89	137	-172	-15788	-2980	-1996	56	-75	-61	-2260	-1732	16352	54	-148	138	-9208	3868	13296	146	-66	-159	-16380	2208	-2508	-43	-14	137	-1116	3988	16584	265	31	31	126	127	5
-10536	-3080	11400	-89	131	-184	-15812	-2908	-1876	-6	-38	-69	-2236	-1692	16520	17	-137	101	-9196	3928	13336	161	-28	-137	-16352	2276	-2472	-14	-47	125	-1148	3856	16540	264	30	3	126	127	5
-10596	-3004	11424	-53	165	-182	-15784	-2816	-2020	-43	-42	-47	-2208	-1704	16416	-81	-72	108	-9240	3860	13376	182	-83	-158	-16304	2244	-2468	151	-34	164	-1160	3944	16644	192	-22	-11	126	127	5
-10628	-3116	11432	-87	164	-182	-15760	-2944	-1928	-95	-43	-65	-2260	-1876	16464	-14	-73	175	-9176	3920	13396	135	-63	-156	-16256	2376	-2320	157	7	170	-1208	3992	16472	220	-67	-27	126	127	5
-10576	-3108	11424	-61	175	-167	-15748	-2988	-1848	-41	-49	-60	-2344	-1860	16404	40	-104	164	-9160	3872	13300	145	-17	-172	-16352	2388	-2440	142	-4	176	-1220	3892	16584	189	-8	55	127	127	5
-10592	-3124	11316	-63	163	-178	-15744	-3036	-1860	85	-34	-72	-2420	-1812	16360	83	-84	145	-9208	3936	13356	161	-53	-150	-16304	2292	-2576	84	-14	151	-1020	4036	16660	229	-27	-43	126	127	5
-10644	-3056	11372	-54	155	-213	-15756	-2932	-1872	88	-59	-74	-2324	-1716	16300	112	-150	66	-9256	3852	13384	153	-83	-165	-16368	2288	-2592	56	-33	159	-1284	4072	16604	221	-20	-95	127	127	5
-10604	-3096	11388	-68	166	-190	-15844	-2816	-1940	58	-29	-42	-2312	-1700	16456	17	-97	143	-9160	3844	13320	174	-82	-151	-16356	2328	-2560	68	-33	111	-1292	4044	16604	87	-35	-26	126	127	5
-10568	-3068	11508	-76	179	-196	-15804	-2868	-1928	-74	-33	-46	-2448	-1724	16432	46	-105	117	-9176	3848	13332	151	-59	-154	-16276	2376	-2452	83	-16	117	-1132	3960	16660	104	23	-9	126	127	5
-10608	-3052	11372	-64	178	-195	-15816	-2904	-1944	-117	-30	-3	-2460	-1760	16508	29	-100	151	-9256	3912	13364	176	-88	-187	-16316	2332	-2524	-11	-1	125	-1052	3788	16456	181	21	67	127	127	5
-10572	-3092	11440	-81	119	-173	-15796	-2912	-1884	-39	-68	-29	-2324	-1740	16480	-5	-79	119	-9200	3916	13360	133	-29	-145	-16304	2292	-2468	37	-22	112	-1080	3836	16492	221	44	59	127	127	5
-10624	-3072	11404	-72	165	-170	-15760	-2852	-1912	30	-35	-52	-2372	-1720	16388	-19	-77	95	-9180	3856	13336	153	-58	-167	-16284	2204	-2400	153	-32	98	-1136	3852	16612	277	56	22	126	127	5
-10588	-2996	11408	-84	167	-186	-15780	-2796	-2028	25	-32	-78	-2384	-1756	16364	16	-137	118	-9212	3860	13360	160	-42	-177	-16340	2332	-2444	177	-54	118	-1140	3904	16592	248	28	101	127	127	5
-10572	-3080	11444	-77	168	-226	-15744	-2848	-1812	-23	-43	-100	-2344	-1688	16420	46	-106	194	-9248	3864	13284	148	-19	-161	-16324	2332	-2464	121	2	100	-1172	4028	16696	233	22	40	126	127	5
-10588	-3140	11464	-134	187	-184	-15800	-2840	-1976	4	-48	-83	-2336	-1700	16392	36	-132	184	-9200	3920	13268	169	-65	-198	-16312	2344	-2420	63	14	95	-1188	3976	16604	182	16	65	126	127	5
-10580	-3028	11440	-111	182	-176	-15744	-2832	-1908	4	-27	-94	-2336	-1736	16452	35	-104	187	-9184	3904	13468	153	-36	-173	-16272	2272	-2552	20	9	114	-1176	3884	16588	153	36	25	127	127	5
-10536	-3120	11392	-113	182	-174	-15712	-2856	-1972	16	-33	-82	-2228	-1756	16360	-32	-93	146	-9196	3880	13416	191	-60	-179	-16288	2256	-2580	32	2	131	-1160	4008	16580	158	-1	20	126	127	5
-10556	-3104	11488	-58	161	-206	-15788	-2864	-2008	-18	-81	-97	-2328	-1772	16364	-28	-81	121	-9196	3848	13440	151	-31	-183	-16280	2268	-2456	48	-13	151	-1168	3936	16536	151	-5	-15	127	127	5
-10580	-3028	11464	-94	164	-180	-15792	-2928	-1992	-61	-39	-44	-2376	-1776	16364	-50	-59	124	-9244	3872	13300	148	-56	-184	-16380	2356	-2544	64	-54	132	-1104	3912	16560	171	-18	-7	127	127	5
-10596	-3068	11392	-47	167	-205	-15780	-2908	-1940	-29	-55	-58	-2400	-1792	16456	-37	-65	123	-9172	3844	13400	140	-36	-173	-16356	2316	-2504	104	-75	136	-1176	3972	16568	240	14	21	127	127	5
-10552	-3092	11392	-76	161	-200	-15744	-2940	-1868	14	-39	-66	-2376	-1796	16396	-2	-126	81	-9192	3856	13292	126	-87	-176	-16316	2344	-2640	105	-18	143	-1116	3948	16592	191	33	31	127	127	5
-10544	-3112	11452	-106	165	-190	-15860	-2960	-2016	37	-60	-60	-2340	-1764	16348	19	-97	94	-9208	3864	13272	155	-114	-157	-16288	2408	-2556	103	-35	93	-1160	3956	16552	222	31	9	127	127	5
-10560	-3104	11344	-87	166	-170	-15804	-2892	-1932	23	-47	-59	-2412	-1752	16320	40	-106	120	-9236	3892	13376	160	-38	-188	-16372	2364	-2452	50	-4	98	-1164	3996	16700	194	26	37	126	127	5
-10536	-3120	11448	-73	151	-164	-15712	-2840	-1952	-2	-50	-38	-2372	-1712	16356	26	-118	148	-9280	3880	13372	138	3	-198	-16328	2404	-2428	63	-35	112	-1248	3916	16584	153	37	50	127	127	5
-10580	-3048	11300	-127	122	-180	-15804	-2820	-1864	-35	-111	-107	-2380	-1684	16476	52	-141	152	-9180	3936	13360	167	-71	-200	-16252	2308	-2480	51	12	96	-1212	3996	16600	119	7	81	127	127	5
-10516	-3056	11344	-104	184	-188	-15804	-2832	-1796	-45	-64	-42	-2344	-1672	16396	14	-179	146	-9220	3932	13416	148	-69	-180	-16380	2224	-2480	88	-26	104	-1248	3832	16576	158	-13	28	127	127	5
-10596	-3008	11400	-107	153	-228	-15772	-2840	-1904	-15	-52	-114	-2320	-1716	16488	10	-118	111	-9268	3840	13332	131	-36	-171	-16316	2208	-2512	118	-3	116	-1156	3832	16548	145	-6	-27	127	127	5
-10552	-3152	11392	-110	150	-171	-15804	-2860	-1932	-4	-47	-89	-2332	-1728	16352	-30	-112	155	-9184	3900	13260	116	-45	-186	-16316	2368	-2436	110	-11	104	-1136	3852	16624	185	-12	-5	127	127	5
-10572	-3020	11416	-92	237	-193	-15768	-2864	-1892	39	-29	-118	-2356	-1716	16436	-19	-65	126	-9164	3868	13444	148	-18	-176	-16364	2380	-2460	53	-44	156	-1208	3900	16480	201	32	-30	127	127	5
-10528	-3052	11452	-117	153	-183	-15780	-2904	-1748	21	-54	-103	-2384	-1768	16296	5	-119	187	-9200	3868	13332	156	-33	-202	-16296	2308	-2468	11	-22	123	-1144	3924	16516	170	25	-13	127	127	5
-10536	-3144	11412	-131	194	-228	-15760	-2900	-1816	27	-39	-80	-2312	-1844	16356	-15	-134	161	-9232	3916	13352	154	-52	-182	-16328	2320	-2484	-6	9	96	-1192	3948	16624	175	27	-17	127	127	5
-10568	-3132	11356	-118	168	-173	-15792	-2996	-1952	-6	-34	-100	-2360	-1876	16480	4	-120	155	-9172	3864	13388	133	2	-170	-16356	2280	-2368	-13	14	160	-1212	3956	16612	212	-13	6	127	127	5
-10640	-3088	11388	-85	192	-189	-15696	-2944	-1840	-26	-14	-122	-2408	-1920	16368	18	-115	131	-9192	3824	13416	174	-59	-165	-16256	2312	-2472	36	14	141	-1172	3856	16584	214	30	35	127	127	5
-10560	-3120	11380	-87	188	-167	-15756	-2976	-1948	-39	-8	-96	-2328	-1900	16508	11	-93	124	-9216	3852	13360	135	-45	-165	-16260	2300	-2516	109	-26	165	-1240	3884	16592	222	-2	26	127	127	5
-10532	-3068	11448	-90	149	-196	-15752	-2932	-1984	0	-38	-40	-2360	-1860	16376	33	-86	73	-9224	3912	13384	138	-62	-159	-16320	2276	-2520	136	-15	145	-1188	4012	16484	226	11	-31	127	127	5
-10544	-3096	11424	-67	153	-188	-15772	-2944	-1888	3	-65	-37	-2456	-1868	16436	37	-105	111	-9156	3872	13384	144	-36	-164	-16288	2320	-2576	167	1	153	-1220	3992	16624	252	30	-37	127	127	5
-10544	-3184	11436	-41	167	-184	-15808	-2884	-1884	33	-20	-6	-2404	-1700	16280	52	-130	108	-9204	3844	13248	154	-13	-194	-16264	2472	-2488	96	-25	118	-1292	3984	16520	201	-4	-13	127	127	5
-10548	-3048	11276	-71	183	-172	-15824	-2940	-1856	39	-65	-17	-2384	-1804	16424	46	-160	92	-9132	3836	13340	159	-34	-167	-16268	2368	-2576	-17	-65	142	-1148	3936	16616	141	20	53	126	127	5
-10580	-3096	11340	-39	126	-160	-15832	-2888	-1992	54	-42	-39	-2440	-1768	16388	129	-121	116	-9188	3920	13376	129	-72	-181	-16352	2300	-2540	-45	-65	151	-1196	3908	16576	178	40	73	127	127	5
-10552	-3020	11328	-86	168	-204	-15760	-2904	-2008	-16	-52	-60	-2424	-1812	16344	95	-161	150	-9244	3796	13480	110	-36	-156	-16280	2264	-2448	17	-28	112	-1196	3848	16552	171	2	42	126	127	5
-10604	-3056	11360	-28	142	-168	-15764	-2852	-1960	-27	-101	-39	-2312	-1720	16460	108	-144	135	-9192	3896	13368	149	-84	-197	-16348	2284	-2364	128	-27	95	-1196	3840	16468	227	-1	59	127	127	5
-10592	-3064	11348	-65	161	-195	-15788	-2804	-1956	-33	-58	-36	-2312	-1688	16448	58	-95	140	-9180	3888	13276	152	-89	-215	-16212	2228	-2504	179	-53	133	-1164	3920	16568	249	2	36	126	127	5
-10600	-3044	11332	-60	180	-166	-15832	-2820	-1828	-10	-68	-17	-2340	-1688	16384	25	-87	131	-9220	3920	13432	134	-76	-166	-16316	2268	-2528	150	-74	185	-1176	3960	16648	234	40	35	126	127	5
-10544	-3076	11408	-82	152	-203	-15832	-2812	-1904	-29	-69	-32	-2372	-1728	16340	10	-108	137	-9200	3856	13316	163	-45	-195	-16320	2336	-2528	106	-3	166	-1172	3928	16588	237	-9	27	127	127	5
-10572	-3080	11440	-62	153	-164	-15860	-2936	-1892	51	-70	-82	-2312	-1676	16416	6	-115	119	-9152	3928	13300	143	17	-186	-16268	2344	-2484	38	-16	149	-1132	3900	16592	207	-15	37	126	127	5
-10604	-3076	11356	-91	166	-169	-15784	-2824	-1852	18	-47	-72	-2384	-1648	16400	-38	-141	105	-9188	3868	13484	155	-70	-152	-16284	2336	-2524	-8	-17	146	-1120	4032	16696	234	47	-2	126	127	5
-10636	-3112	11392	-74	176	-200	-15784	-2860	-1876	5	-50	-89	-2308	-1700	16448	-59	-92	107	-9188	3880	13360	163	-24	-152	-16348	2296	-2520	9	-1	171	-1128	3988	16708	251	24	-26	127	127	5
-10584	-3080	11420	-110	179	-172	-15764	-2832	-1932	-21	-50	-111	-2344	-1716	16444	-57	-99	146	-9204	3884	13344	186	-22	-155	-16304	2420	-2432	78	9	129	-1152	4056	16564	216	42	-36	126	127	5
-10556	-3044	11444	-115	190	-180	-15752	-2892	-1856	-49	-52	-126	-2388	-1828	16408	-43	-129	172	-9172	3840	13416	135	-21	-164	-16248	2476	-2496	140	27	92	-1208	4064	16580	153	14	-21	126	127	5
-10656	-3136	11436	-87	160	-212	-15832	-3032	-1888	-40	-36	-113	-2364	-1868	16364	21	-136	175	-9200	3884	13376	142	-110	-160	-16328	2368	-2508	79	-34	109	-1132	4016	16576	135	15	59	126	127	5
-10640	-3112	11372	-74	149	-222	-15744	-2932	-1960	83	-25	-118	-2352	-1812	16364	76	-138	158	-9196	3896	13428	123	-61	-177	-16288	2388	-2628	45	14	54	-1192	4036	16512	87	-10	89	127	127	5
-10540	-3160	11444	-111	141	-182	-15788	-2892	-1972	52	-29	-62	-2360	-1748	16416	17	-97	97	-9168	3852	13432	139	-45	-196	-16260	2292	-2596	71	-34	52	-1280	3924	16572	109	14	69	127	127	5
-10576	-3132	11392	-69	166	-198	-15832	-2908	-1916	17	-50	-56	-2336	-1816	16496	50	-111	157	-9208	3856	13332	137	-96	-154	-16312	2360	-2412	65	-30	39	-1076	3868	16632	135	43	116	127	127	5
-10556	-3116	11456	-113	168	-168	-15784	-2896	-1908	-35	-60	-73	-2292	-1740	16368	23	-132	124	-9204	3848	13376	119	-37	-183	-16360	2224	-2500	59	-8	82	-1112	3892	16628	126	31	19	127	127	5
-10588	-3084	11408	-86	137	-170	-15788	-2928	-1908	1	-19	-62	-2344	-1708	16496	-3	-138	94	-9224	3820	13392	158	-69	-163	-16356	2244	-2460	151	-51	118	-1244	3788	16616	72	-2	15	127	127	5
-10516	-3064	11464	-48	165	-182	-15816	-2852	-1912	-35	-56	-56	-2308	-1740	16408	-26	-65	128	-9148	3808	13368	142	-73	-190	-16260	2332	-2472	115	-35	93	-1256	3792	16684	108	11	-1	127	127	5
-10472	-3096	11464	-91	165	-175	-15780	-2884	-1984	-68	-46	-67	-2324	-1736	16428	-55	-63	118	-9204	3868	13364	159	-71	-143	-16244	2344	-2580	-1	26	109	-1104	3760	16580	223	6	-3	127	127	5
-10668	-3048	11476	-86	174	-195	-15816	-2956	-1920	-9	-47	-66	-2368	-1828	16332	-40	-94	110	-9208	3908	13372	136	-46	-154	-16344	2188	-2580	-4	-7	141	-1100	3880	16632	247	20	-5	127	127	5
-10612	-3060	11400	-87	175	-198	-15764	-2956	-1980	51	-51	-83	-2364	-1824	16392	-4	-114	126	-9204	3884	13412	153	-44	-197	-16304	2236	-2520	61	16	153	-1192	3860	16688	311	14	-4	127	127	5
-10568	-3096	11436	-73	154	-190	-15744	-2856	-1840	66	-61	-65	-2344	-1776	16292	49	-127	117	-9188	3868	13332	189	-61	-164	-16324	2340	-2492	127	-18	130	-1176	4004	16616	269	22	-5	127	127	5
-10600	-3056	11384	-91	129	-203	-15744	-2836	-1932	-36	-39	-108	-2360	-1748	16352	44	-143	183	-9268	3864	13424	138	-47	-153	-16312	2428	-2436	53	-24	151	-1232	3984	16612	240	-9	-25	127	127	5
-10596	-3088	11372	-106	127	-190	-15752	-2900	-1900	-64	-36	-69	-2368	-1736	16396	45	-139	198	-9236	3848	13316	168	-6	-168	-16304	2392	-2436	48	19	168	-1176	3988	16568	196	4	28	127	127	5
-10612	-3100	11348	-122	162	-173	-15832	-2972	-1928	-75	-46	-78	-2288	-1888	16436	22	-125	156	-9176	3872	13376	161	-43	-204	-16284	2388	-2664	64	-28	147	-1180	4104	16628	158	-30	43	127	127	5
-10576	-3048	11368	-92	174	-171	-15716	-3028	-1992	34	-67	-45	-2384	-1844	16300	73	-101	121	-9244	3880	13344	95	-35	-185	-16348	2360	-2636	42	-22	115	-1128	4036	16520	155	-15	56	127	127	5
-10588	-3080	11368	-34	146	-157	-15812	-2872	-1932	66	-16	-38	-2328	-1848	16340	65	-69	96	-9244	3872	13532	132	-39	-170	-16328	2340	-2432	48	-14	122	-1176	3940	16676	128	-33	34	127	127	5
-10568	-3120	11340	-109	164	-175	-15760	-2904	-1928	55	-38	-53	-2320	-1644	16300	58	-70	101	-9212	3924	13412	154	-62	-172	-16324	2296	-2616	84	-42	119	-1200	3916	16552	194	-1	34	127	127	5
-10576	-3108	11304	-61	124	-201	-15804	-2800	-1944	-46	-55	-25	-2408	-1712	16488	21	-25	119	-9144	3880	13496	185	-29	-162	-16344	2236	-2472	121	-59	83	-1176	3872	16476	226	13	57	127	127	5
-10624	-3060	11364	-95	166	-195	-15756	-2912	-1856	-55	-57	-92	-2404	-1692	16476	-27	-48	152	-9140	3836	13412	164	-33	-157	-16348	2356	-2388	129	-68	96	-1144	3932	16660	192	25	42	127	127	5
-10624	-3068	11488	-111	172	-177	-15804	-2840	-1904	-5	-34	-32	-2428	-1760	16496	42	-53	144	-9240	3868	13404	161	-32	-203	-16284	2312	-2416	69	-15	87	-1160	3980	16528	164	21	27	127	127	5
-10560	-3088	11336	-102	163	-181	-15776	-2856	-1868	6	-39	-56	-2408	-1796	16372	53	-88	169	-9212	3828	13420	149	-38	-159	-16288	2380	-2508	24	-58	127	-1136	3912	16608	77	36	7	127	127	5
-10588	-3060	11336	-76	142	-195	-15804	-2892	-1884	22	-48	-69	-2404	-1728	16396	48	-131	163	-9172	3876	13408	153	-34	-191	-16312	2284	-2616	-7	-24	134	-1056	3816	16572	156	-9	-22	127	127	5
-10556	-3088	11316	-77	183	-185	-15824	-2864	-1892	4	-18	-64	-2332	-1660	16448	69	-134	161	-9200	3840	13400	177	-31	-189	-16296	2316	-2504	20	19	132	-1056	3880	16640	184	-20	-36	127	127	5
-10584	-3088	11468	-90	164	-188	-15756	-2876	-1904	14	-34	-84	-2308	-1676	16448	22	-183	209	-9244	3800	13448	125	-24	-180	-16324	2404	-2500	61	-10	140	-1144	3936	16560	179	11	-45	127	127	5
-10620	-3104	11376	-103	176	-212	-15792	-2928	-1888	1	-35	-56	-2404	-1756	16396	-4	-151	189	-9248	3932	13368	144	-53	-197	-16272	2404	-2532	63	19	143	-1208	3980	16576	210	8	-22	127	127	5
-10608	-3080	11548	-108	153	-178	-15760	-2940	-1884	-31	-6	-118	-2380	-1868	16396	-8	-124	134	-9180	3912	13392	145	-86	-184	-16276	2344	-2596	3	4	117	-1160	4032	16544	156	-20	21	127	127	5
-10536	-3116	11296	-94	166	-181	-15740	-2972	-1928	-24	-31	-67	-2340	-1832	16372	-15	-134	107	-9224	3948	13368	131	-34	-174	-16392	2396	-2492	72	-27	75	-1260	3956	16556	159	17	61	127	127	5
-10620	-3076	11364	-83	157	-201	-15736	-2988	-1956	-7	-41	-64	-2428	-1780	16312	-36	-76	107	-9172	3864	13292	149	-68	-162	-16284	2308	-2396	85	-54	106	-1176	3940	16612	199	31	41	127	127	5
-10660	-3108	11352	-67	156	-181	-15720	-2976	-2068	-14	-60	-32	-2472	-1812	16324	-2	-72	75	-9240	3936	13336	142	-82	-176	-16276	2344	-2544	99	-55	85	-1152	3920	16560	195	55	33	127	127	5
-10564	-3052	11540	-55	149	-206	-15744	-2828	-2028	3	-74	-43	-2380	-1776	16408	-5	-84	94	-9160	3920	13176	119	-61	-202	-16312	2344	-2436	129	-25	120	-1264	3972	16440	205	19	29	127	127	5
-10568	-3080	11476	-85	164	-193	-15800	-2892	-1932	-60	-67	-59	-2404	-1764	16416	53	-100	125	-9220	3856	13276	119	-46	-197	-16332	2312	-2524	107	-33	101	-1192	3860	16468	193	34	19	127	127	5
-10548	-3064	11400	-101	149	-209	-15756	-2852	-2004	-52	-64	-70	-2352	-1760	16340	95	-161	191	-9244	3824	13324	151	-64	-158	-16280	2300	-2440	98	-46	92	-1172	3856	16556	168	-53	44	127	127	5
-10560	-3032	11436	-72	151	-206	-15832	-2868	-1908	-10	-78	-93	-2324	-1776	16396	69	-176	234	-9204	3860	13396	101	-54	-170	-16332	2264	-2508	34	-26	138	-1192	3844	16552	191	20	48	127	127	5
-10528	-3136	11428	-92	140	-144	-15788	-2932	-1824	19	-62	-58	-2260	-1800	16352	64	-158	215	-9204	3852	13348	139	-58	-156	-16320	2340	-2524	40	0	143	-1184	3872	16636	185	-17	26	127	127	5
-10592	-3060	11404	-79	173	-206	-15804	-2936	-1908	84	-46	-84	-2352	-1844	16368	28	-141	188	-9180	3872	13344	131	-11	-173	-16308	2284	-2612	46	-49	140	-1132	3872	16672	154	-42	16	127	127	5
-10620	-3072	11456	-60	136	-183	-15752	-2908	-1940	44	-37	-59	-2320	-1824	16368	51	-140	171	-9192	3880	13376	182	-47	-152	-16368	2272	-2520	64	-14	133	-1128	3868	16684	189	16	-20	127	127	5
-10628	-3072	11380	-62	139	-157	-15760	-2888	-1980	-25	-81	-69	-2344	-1792	16432	15	-121	104	-9180	3880	13352	127	-54	-184	-16340	2288	-2476	104	5	153	-1128	3944	16536	217	-44	-54	127	127	5
-10604	-3132	11412	-66	180	-186	-15796	-2868	-1968	-66	-64	-41	-2296	-1724	16500	-13	-106	119	-9212	3840	13424	159	-41	-187	-16344	2352	-2516	106	-23	145	-1248	3984	16592	201	9	-29	127	127	5
-10540	-3088	11444	-127	173	-175	-15816	-2884	-1896	-92	-66	-20	-2268	-1720	16452	6	-74	137	-9220	3904	13416	140	-64	-133	-16328	2316	-2520	115	-43	143	-1236	3944	16592	147	-13	-21	127	127	5
-10512	-3052	11448	-55	167	-166	-15716	-2932	-1828	-69	-70	-21	-2336	-1788	16292	-3	-69	163	-9244	3884	13264	127	-45	-185	-16376	2496	-2620	78	-25	96	-1172	4008	16516	149	12	-52	127	127	5
-10532	-3052	11324	-86	168	-155	-15760	-2960	-1940	8	-9	1	-2356	-1776	16392	57	-108	161	-9220	3824	13352	173	-76	-160	-16284	2392	-2512	30	-3	126	-1200	3980	16624	86	-15	-65	127	127	5
-10564	-3144	11328	-54	149	-180	-15720	-2960	-1944	99	-47	-44	-2416	-1776	16308	96	-128	95	-9184	3904	13376	152	-21	-188	-16304	2344	-2520	41	7	110	-1180	3948	16672	107	14	-38	127	127	5
-10520	-3112	11376	-67	133	-166	-15812	-2884	-1968	110	-42	-2	-2444	-1708	16388	113	-126	81	-9256	3856	13320	124	-80	-187	-16308	2344	-2488	35	-23	73	-1184	3880	16624	82	-25	-30	127	127	5
-10528	-3132	11448	-64	188	-167	-15812	-2840	-1944	30	-29	-70	-2436	-1704	16484	50	-129	112	-9212	3832	13392	142	-93	-175	-16312	2380	-2432	74	-2	101	-1164	3888	16528	119	-1	-24	127	127	5
-10572	-3064	11368	-60	141	-220	-15740	-2776	-1924	-85	-44	-61	-2408	-1640	16348	24	-102	112	-9232	3820	13328	157	-81	-165	-16284	2304	-2500	122	-11	107	-1248	3872	16520	103	-46	-50	127	127	5
-10596	-3116	11384	-59	126	-161	-15772	-2812	-1960	-99	-47	-98	-2376	-1684	16384	-50	-119	149	-9228	3880	13448	150	-43	-214	-16288	2196	-2672	144	-46	106	-1244	3904	16564	116	-16	-62	127	127	5
-10616	-3120	11380	-80	168	-181	-15776	-2940	-1892	-48	-73	-57	-2392	-1788	16308	-9	-137	141	-9224	3904	13372	130	-73	-177	-16348	2284	-2428	172	-89	119	-1164	3668	16584	180	-47	-19	127	126	5
-10620	-3072	11396	-92	168	-178	-15836	-3040	-1956	12	-67	-65	-2404	-1876	16440	52	-116	180	-9136	3916	13248	144	-53	-190	-16296	2244	-2524	112	-74	108	-1164	3816	16588	143	-30	-111	127	127	5
-10580	-3092	11464	-79	162	-168	-15792	-3040	-2012	103	-38	-45	-2356	-1836	16372	115	-121	183	-9212	3836	13364	132	-72	-173	-16336	2248	-2400	77	-47	158	-1076	3796	16660	178	-28	-88	127	127	5
-10556	-3140	11476	-119	144	-199	-15760	-2920	-1992	133	-28	-56	-2360	-1920	16320	157	-128	228	-9144	3820	13416	152	-26	-171	-16368	2336	-2364	92	6	169	-892	3844	16556	277	-15	-76	127	126	5
-10588	-3120	11448	-60	134	-152	-15764	-2912	-1940	85	-55	-14	-2320	-1844	16376	195	-147	249	-9156	3904	13320	162	-40	-148	-16328	2416	-2432	32	24	144	-852	3864	16688	378	57	-59	127	126	5
-10568	-3116	11428	-68	139	-144	-15820	-2876	-1972	-71	-88	-30	-2444	-1896	16324	225	-173	306	-9260	3868	13392	185	-77	-182	-16332	2432	-2444	-27	103	95	-848	3816	16692	409	129	57	127	126	5
-10592	-3140	11436	-66	163	-179	-15728	-2876	-1812	-179	-56	10	-2364	-1904	16448	301	-176	425	-9188	3892	13376	142	-57	-193	-16324	2420	-2528	-56	77	95	-944	3864	16672	530	151	199	127	126	5
-10620	-3136	11408	-57	153	-164	-15752	-3020	-1832	-149	-32	23	-2172	-1928	16352	371	-214	417	-9172	3904	13432	147	-20	-197	-16320	2300	-2548	-1	101	48	-1156	3864	16564	584	206	235	127	126	5
-10640	-3100	11428	-35	135	-171	-15792	-3092	-1756	34	16	75	-2112	-1784	16516	378	-120	230	-9176	3872	13368	164	-33	-168	-16292	2140	-2548	75	97	87	-1440	3960	16520	527	138	216	127	126	5
-10540	-3084	11460	-32	150	-152	-15700	-3056	-1924	196	24	103	-2160	-1716	16352	249	-53	101	-9216	3860	13360	154	-47	-185	-16388	2184	-2556	202	62	100	-1448	3972	16628	480	141	180	127	127	5
-10568	-3092	11392	-12	123	-148	-15752	-2920	-1840	162	28	88	-2320	-1596	16308	105	-37	-38	-9196	3800	13456	166	-42	-186	-16320	2208	-2604	249	-9	174	-1452	3896	16424	436	108	102	126	127	5
-10592	-3040	11312	11	116	-167	-15720	-2796	-1896	86	20	133	-2488	-1556	16408	36	-78	-57	-9192	3880	13388	180	-84	-180	-16304	2260	-2476	227	-9	187	-1524	3960	16484	407	55	123	126	127	5
-10560	-3016	11420	-31	89	-136	-15744	-2604	-2096	0	4	72	-2484	-1520	16244	35	-119	-55	-9208	3912	13384	148	3	-181	-16320	2288	-2520	108	-18	197	-1340	3904	16492	336	-26	94	126	128	5
-10556	-3060	11572	-13	145	-156	-15800	-2672	-2112	-153	-20	84	-2428	-1520	16376	19	-113	-21	-9216	3868	13340	179	-15	-190	-16360	2296	-2536	-35	1	207	-1376	3864	16492	350	-13	76	126	128	5
-10556	-3044	11564	-41	139	-162	-15916	-2632	-1968	-186	-85	1	-2504	-1500	16304	-4	-59	93	-9248	3876	13340	160	-13	-150	-16396	2268	-2516	-34	-43	244	-1600	3948	16708	414	-29	-11	126	128	5
-10588	-3084	11420	-104	153	-192	-15804	-2784	-2060	-101	-116	-24	-2536	-1464	16376	45	-53	67	-9212	3948	13324	210	25	-194	-16312	2412	-2356	229	0	274	-1224	3756	16640	311	-61	-175	127	128	5
-10568	-3068	11456	-149	152	-182	-15760	-2812	-1924	139	-122	-113	-2448	-1440	16404	-9	-141	51	-9204	3704	13516	215	15	-128	-16368	2320	-2520	202	3	259	-1208	4212	16568	427	-39	-288	127	128	5
-10552	-3004	11488	-100	168	-191	-15816	-2656	-1840	231	-70	-158	-2652	-1484	16500	-68	-183	188	-9232	3912	13348	208	-38	-128	-16224	2528	-2524	196	5	284	-1160	4160	16480	162	-45	-149	127	128	5
-10580	-2988	11424	-133	222	-195	-15824	-2752	-2008	134	-101	-138	-2516	-1636	16384	46	-282	321	-9112	3880	13408	173	-38	-167	-16372	2424	-2548	43	3	266	-1156	4168	16648	150	-25	-144	127	128	5
-10548	-3056	11372	-154	225	-223	-15804	-2840	-1880	-79	-91	-152	-2376	-1636	16460	62	-415	218	-9264	3932	13380	196	-52	-191	-16336	2472	-2552	-5	-34	212	-1168	4276	16628	53	-115	-230	127	128	5
-10524	-3128	11428	-161	195	-215	-15800	-2960	-1956	-103	-102	-159	-2228	-1592	16332	-35	-345	113	-9252	3956	13412	193	-54	-170	-16324	2544	-2596	32	-28	186	-1080	4284	16520	5	-18	-267	126	128	5
-10612	-3152	11348	-148	185	-201	-15764	-2876	-1888	-9	-121	-125	-2216	-1656	16348	-152	-320	-32	-9192	3932	13444	151	-75	-168	-16336	2680	-2556	-57	-54	104	-964	4360	16572	-10	-22	-201	126	127	5
-10560	-3100	11380	-138	179	-193	-15776	-2788	-1932	-160	-76	-165	-2244	-1576	16492	-248	-341	-148	-9236	3912	13328	124	-46	-188	-16328	2720	-2660	-89	-57	31	-988	4424	16544	-23	-18	-42	126	127	5
-10640	-3080	11456	-143	197	-221	-15772	-2748	-1904	-84	-46	-186	-2276	-1656	16488	-208	-258	-23	-9224	3956	13260	136	-98	-192	-16288	2520	-2692	-124	-105	-30	-1064	4216	16692	-74	14	159	126	127	5
-10608	-3088	11396	-117	204	-211	-15732	-2812	-2040	13	-48	-215	-2232	-1672	16396	-220	-238	35	-9224	3956	13404	93	-96	-217	-16292	2480	-2452	110	-121	-106	-1120	4080	16568	-105	54	234	126	127	5
-10616	-3100	11428	-153	189	-208	-15784	-2832	-1988	-9	-43	-179	-2232	-1600	16360	-163	-223	23	-9064	3904	13328	79	-88	-192	-16312	2428	-2464	224	-130	-108	-1104	4008	16724	-39	65	299	126	127	5
-10612	-3056	11416	-128	191	-221	-15828	-2764	-2080	-8	-52	-214	-2280	-1644	16348	-225	-114	130	-9196	3920	13304	43	-111	-205	-16312	2400	-2456	158	-87	-165	-1148	4000	16652	2	83	287	126	127	5
-10600	-3112	11352	-155	202	-239	-15704	-2764	-1992	-1	-102	-262	-2204	-1456	16340	-286	-62	-39	-9132	3836	13388	69	-62	-212	-16272	2308	-2524	84	-51	-176	-1188	3900	16544	-66	110	295	126	127	5
-10624	-3052	11448	-137	201	-217	-15808	-2728	-1964	-86	-126	-304	-2360	-1564	16404	-440	-37	96	-9180	3816	13344	101	-120	-193	-16268	2312	-2492	37	-78	-152	-1256	3856	16576	-19	69	293	126	127	5
-10552	-3136	11416	-194	240	-253	-15832	-2808	-1820	-219	-120	-296	-2360	-1584	16432	-447	1	146	-9192	3844	13356	108	-56	-203	-16300	2340	-2596	-28	-101	-104	-1316	3864	16508	-26	77	296	127	127	5
-10564	-3176	11320	-188	251	-259	-15732	-3088	-1812	-273	-86	-323	-2268	-2012	16300	-293	-168	382	-9152	3868	13332	65	-98	-223	-16308	2288	-2352	-177	-83	-78	-1348	3784	16620	-103	12	317	127	127	5
-10640	-3072	11348	-138	243	-215	-15760	-3204	-1848	26	-83	-322	-2196	-2136	16488	-290	-132	398	-9148	3884	13464	87	-107	-184	-16292	2216	-2460	-179	-134	-70	-1228	3692	16632	-154	-9	255	127	127	5
-10576	-3124	11428	-140	219	-225	-15736	-3180	-1960	150	-28	-288	-2176	-2256	16372	-166	-130	291	-9152	3784	13380	94	-65	-204	-16328	1884	-2180	93	-19	-6	-1064	3456	16580	-42	-5	133	127	127	5
-10584	-3116	11376	-117	190	-216	-15732	-3056	-1920	41	-65	-231	-2232	-2104	16516	-144	-77	195	-9164	3844	13336	124	-18	-167	-16416	2008	-2360	345	3	31	-1000	3404	16680	183	-7	28	127	127	5
-10572	-3068	11412	-92	167	-187	-15724	-3068	-1728	-104	-40	-135	-2300	-2072	16344	-138	-80	124	-9204	3860	13320	160	-21	-166	-16360	2204	-2332	299	42	83	-1120	3544	16496	333	11	-17	127	127	5
-10580	-3136	11456	-79	188	-198	-15824	-3112	-1928	-141	-32	-81	-2212	-2044	16360	-85	-112	106	-9196	3792	13312	152	-9	-208	-16288	2204	-2536	61	81	148	-1208	3768	16592	347	31	-45	127	127	5
-10604	-3116	11344	-50	163	-144	-15692	-3136	-1952	-155	-36	-16	-2180	-2212	16448	-58	-150	94	-9260	3844	13380	150	-44	-146	-16368	2112	-2500	-123	68	212	-1320	3828	16704	286	17	-34	127	127	5
-10600	-3192	11412	-56	144	-183	-15792	-3072	-1888	-111	-20	-9	-2164	-2168	16432	56	-82	117	-9224	3860	13380	193	-37	-164	-16356	2092	-2540	-99	9	234	-1288	3752	16680	183	13	-108	127	127	5
-10552	-3064	11428	-54	146	-188	-15780	-3172	-1868	11	39	48	-2316	-2156	16368	233	-100	143	-9196	3820	13388	202	-54	-163	-16320	2132	-2528	-40	59	295	-1228	3668	16552	272	-21	-180	127	127	5
-10588	-3124	11336	-40	103	-152	-15772	-3156	-1936	112	29	83	-2336	-2160	16356	426	-149	164	-9228	3912	13324	202	-73	-160	-16360	2188	-2496	97	26	324	-1240	3816	16528	386	-20	-236	127	127	5
-10588	-3084	11364	-6	101	-156	-15804	-2968	-1928	248	-28	125	-2308	-2016	16424	500	-174	211	-9180	3888	13312	191	-37	-176	-16308	2320	-2596	176	32	301	-1272	3896	16560	436	-75	-218	126	127	5
-10584	-3100	11372	-28	79	-138	-15796	-3004	-1924	159	-21	160	-2248	-1840	16296	527	-152	193	-9212	3884	13312	204	-12	-179	-16336	2404	-2552	218	7	283	-1220	4040	16584	408	-50	-143	127	127	5
-10656	-3076	11368	-21	97	-157	-15788	-2928	-1944	56	-27	131	-2204	-1820	16416	393	-103	176	-9172	3880	13356	196	-36	-182	-16296	2428	-2396	189	-42	286	-1148	4044	16560	246	-49	-81	127	127	5
-10520	-3080	11316	-42	87	-121	-15732	-2948	-1928	21	-45	166	-2196	-1688	16400	345	-66	110	-9204	3912	13456	162	-47	-124	-16328	2352	-2416	159	34	261	-1088	3920	16720	199	-70	-97	127	127	5
-10600	-3100	11272	1	85	-131	-15772	-2928	-1932	28	-25	183	-2268	-1740	16336	307	-65	71	-9164	3868	13444	208	-43	-172	-16348	2300	-2504	135	49	242	-944	3792	16632	260	-23	-92	127	127	5
-10580	-3112	11424	-8	79	-148	-15736	-2860	-1940	-3	-7	176	-2276	-1688	16500	313	-49	62	-9192	3924	13404	146	-30	-169	-16348	2240	-2520	103	53	297	-964	3772	16604	373	3	-143	127	127	5
-10568	-3104	11404	3	94	-147	-15788	-2840	-1884	3	6	144	-2272	-1612	16432	299	-30	42	-9188	3856	13352	192	31	-148	-16272	2324	-2436	116	74	268	-1024	3812	16624	506	75	-142	127	127	5
-10584	-3024	11300	-19	80	-161	-15764	-2764	-1816	23	23	168	-2336	-1584	16432	294	-79	13	-9192	3888	13388	191	21	-163	-16248	2352	-2516	144	42	277	-1160	4024	16496	496	33	-135	127	127	5
-10592	-3092	11428	-13	129	-176	-15864	-2756	-1896	66	-29	121	-2344	-1496	16420	238	-62	111	-9240	3764	13296	202	-16	-184	-16324	2408	-2428	131	65	266	-1388	4084	16580	487	25	-145	127	127	5
-10556	-3068	11352	-10	150	-173	-15780	-2704	-1956	51	-3	92	-2320	-1588	16328	236	-118	184	-9252	3960	13400	198	-50	-143	-16344	2600	-2584	53	61	249	-1380	4128	16520	380	38	-44	126	127	5
-10636	-3152	11456	-52	135	-164	-15788	-2768	-2024	14	-16	62	-2344	-1544	16360	228	-108	199	-9200	3880	13412	169	-84	-169	-16344	2496	-2716	9	20	240	-1264	4096	16400	362	-13	25	127	127	5
-10528	-3060	11448	-47	128	-160	-15768	-2840	-2036	23	4	25	-2344	-1596	16400	230	-83	200	-9212	3936	13416	157	-17	-181	-16340	2368	-2568	12	11	208	-1144	4144	16476	340	0	108	126	127	5
-10596	-3044	11308	-94	138	-174	-15776	-2860	-2000	44	5	41	-2400	-1576	16372	148	-68	161	-9260	3884	13328	164	-35	-177	-16292	2404	-2664	67	-4	204	-1160	4076	16592	419	33	116	126	127	5
-10588	-3056	11484	-26	142	-171	-15756	-2752	-1956	63	-58	55	-2380	-1512	16324	144	-85	104	-9224	3884	13364	161	-62	-159	-16300	2336	-2548	189	2	142	-1120	4112	16552	442	48	77	126	127	5
-10568	-3040	11344	-54	132	-178	-15788	-2732	-2040	-9	-62	-28	-2424	-1456	16384	115	-54	80	-9268	3896	13400	181	-50	-190	-16332	2388	-2536	236	4	145	-1212	4192	16588	400	3	12	127	127	5
-10544	-3044	11332	-26	154	-221	-15764	-2652	-1976	-103	-32	-68	-2400	-1336	16432	89	-76	136	-9180	3880	13264	127	-48	-170	-16324	2496	-2608	181	-16	134	-1208	4268	16616	316	-12	24	126	127	5
-10576	-3072	11496	-89	174	-206	-15916	-2780	-1920	-138	-111	-101	-2472	-1408	16436	-61	-106	207	-9180	3920	13444	148	-16	-187	-16368	2580	-2604	32	-16	99	-1300	4196	16516	158	-29	26	126	127	5
-10564	-3032	11464	-43	156	-236	-15796	-2756	-1964	-104	-65	-125	-2440	-1472	16532	-53	-98	180	-9240	3916	13420	158	-26	-161	-16292	2520	-2636	-52	-57	78	-1204	4264	16468	35	8	84	127	127	5
-10560	-3044	11400	-135	194	-179	-15752	-2832	-1940	31	-122	-156	-2324	-1580	16396	-58	-81	191	-9172	3900	13340	126	-86	-178	-16372	2452	-2532	-80	-87	61	-1220	4076	16560	46	-9	64	127	127	5
-10544	-3076	11416	-127	195	-195	-15804	-2888	-1932	112	-101	-170	-2380	-1584	16408	-49	-119	146	-9248	4004	13408	109	-57	-185	-16344	2304	-2516	18	-60	32	-1132	3996	16524	51	6	57	127	127	5
-10600	-3116	11416	-111	181	-222	-15768	-2788	-1788	74	-86	-197	-2312	-1656	16408	-52	-134	166	-9220	4000	13440	109	-30	-178	-16328	2352	-2384	141	-16	30	-1060	3960	16580	83	16	52	127	127	5
-10604	-3096	11372	-152	214	-228	-15764	-2756	-1880	-15	-83	-170	-2276	-1612	16428	-81	-194	210	-9180	3912	13368	72	-41	-173	-16260	2412	-2520	134	-26	2	-1004	4028	16580	69	22	61	127	127	5
-10556	-3108	11464	-169	195	-215	-15748	-2832	-1948	-134	-66	-180	-2180	-1568	16476	-125	-204	219	-9172	3888	13384	126	-101	-194	-16388	2384	-2420	122	-19	23	-1056	3976	16504	60	33	25	126	127	5
-10540	-3108	11332	-174	227	-206	-15792	-2884	-1876	-130	-44	-214	-2204	-1820	16412	-116	-202	273	-9252	3892	13292	107	-55	-197	-16284	2404	-2484	91	4	28	-1116	3952	16500	59	13	14	126	127	5
-10548	-3060	11392	-118	196	-206	-15740	-2900	-1848	-99	-15	-187	-2248	-1868	16448	-101	-251	273	-9292	3864	13396	90	-78	-173	-16340	2392	-2512	9	-9	0	-1280	3956	16524	19	12	21	126	127	5
-10608	-3164	11432	-158	197	-197	-15780	-3004	-1908	-12	-7	-205	-2300	-1916	16504	-78	-294	265	-9180	3852	13340	101	-56	-198	-16392	2360	-2564	-64	-14	68	-1296	3944	16640	1	-8	-19	126	127	5
-10568	-3160	11284	-97	179	-187	-15756	-3004	-1904	77	-34	-124	-2252	-1932	16392	10	-238	247	-9272	3736	13272	117	-136	-171	-16276	2344	-2500	-79	28	28	-1308	3944	16576	-32	-10	-29	126	127	5
-10620	-3120	11408	-91	185	-199	-15776	-3004	-1980	68	-30	-96	-2244	-1904	16332	32	-166	257	-9216	3892	13272	132	-52	-187	-16304	2264	-2616	43	-39	68	-1268	3964	16600	-30	-16	-12	126	127	5
-10612	-3116	11432	-97	177	-191	-15788	-3032	-2020	58	-45	-53	-2296	-1932	16436	63	-126	181	-9268	3912	13364	145	-95	-193	-16304	2316	-2500	84	-74	72	-1280	3936	16552	26	-7	7	126	127	5
-10540	-3128	11388	-89	166	-170	-15760	-2972	-1964	79	-62	-20	-2340	-1864	16416	102	-94	173	-9244	3872	13436	119	-77	-176	-16256	2256	-2500	110	-46	82	-1248	3816	16492	102	21	-7	126	126	5
-10588	-3112	11316	-18	117	-172	-15748	-2916	-1916	9	-78	10	-2300	-1836	16380	119	-135	126	-9176	3852	13352	146	-50	-164	-16356	2336	-2532	137	-42	95	-1236	3848	16524	96	2	-6	126	126	5
-10624	-3060	11376	-41	128	-175	-15744	-2980	-1908	-80	-99	4	-2264	-1796	16380	136	-112	75	-9248	3836	13412	172	-84	-146	-16344	2288	-2556	58	-78	83	-1176	3844	16672	82	21	30	126	126	5
-10588	-3068	11376	-27	102	-197	-15832	-2896	-1860	-113	-86	19	-2144	-1656	16404	119	-57	64	-9200	3820	13284	140	-52	-188	-16292	2336	-2560	-26	-49	89	-1244	3840	16592	172	39	54	126	126	5
-10580	-3124	11472	-53	84	-172	-15800	-2976	-1932	-5	-63	17	-2060	-1612	16400	81	-38	36	-9228	3848	13412	148	-26	-166	-16336	2248	-2484	-33	-87	142	-1152	3776	16504	151	77	51	127	126	5
-10620	-3100	11352	-64	116	-190	-15812	-2896	-1872	-17	-56	72	-2116	-1612	16316	-8	-1	36	-9160	3824	13364	150	-70	-160	-16284	2260	-2312	-10	-14	155	-1112	3860	16584	177	64	15	127	126	5
-10564	-3080	11452	-48	130	-182	-15848	-2768	-1800	64	-39	8	-2184	-1500	16496	39	4	60	-9172	3880	13348	136	-30	-155	-16304	2232	-2356	97	-11	148	-960	3804	16720	215	57	-33	127	126	5
-10572	-3108	11368	-48	125	-157	-15792	-2704	-1804	10	-35	-32	-2168	-1476	16544	10	13	89	-9180	3920	13316	122	-62	-166	-16224	2436	-2344	152	49	113	-1008	3876	16584	276	82	-24	127	126	5
-10532	-3152	11332	-53	167	-215	-15816	-2724	-1860	-64	-21	-75	-2220	-1444	16480	-14	-14	142	-9212	3868	13292	188	-56	-169	-16292	2432	-2472	108	56	127	-1060	4000	16540	277	93	-40	127	126	5
-10588	-3124	11392	-69	158	-193	-15784	-2812	-1856	-34	1	-77	-2220	-1496	16452	-83	-38	190	-9224	3888	13340	136	-65	-173	-16276	2428	-2552	39	111	108	-1180	4108	16520	214	62	-24	127	126	5
-10552	-3064	11452	-102	188	-169	-15776	-2836	-1872	-16	25	-121	-2284	-1596	16396	-112	-39	177	-9168	3888	13356	145	-58	-187	-16336	2416	-2576	-42	51	117	-1224	4112	16556	171	72	-26	127	126	5
-10644	-3044	11348	-119	189	-190	-15788	-2900	-1968	-6	33	-118	-2304	-1720	16364	-86	-37	167	-9296	3888	13276	136	-21	-167	-16272	2412	-2600	-48	14	96	-1276	4096	16548	91	45	68	127	126	5
-10596	-3156	11376	-110	197	-179	-15752	-2948	-1972	50	34	-102	-2396	-1728	16420	-85	-69	72	-9160	3808	13388	101	-19	-173	-16264	2392	-2716	-10	35	40	-1288	4028	16508	118	52	74	127	127	5
-10572	-3104	11532	-105	181	-185	-15780	-2892	-1940	98	43	-132	-2436	-1752	16392	-120	-41	4	-9200	3884	13404	110	-41	-182	-16264	2356	-2652	90	-23	59	-1324	3988	16472	138	43	101	127	127	5
-10564	-3092	11456	-105	161	-199	-15736	-2784	-2056	-21	18	-98	-2460	-1632	16384	-132	21	-53	-9272	3880	13448	127	-58	-188	-16268	2256	-2636	200	-7	33	-1264	3904	16500	165	28	107	127	126	5
-10592	-3068	11444	-94	172	-227	-15816	-2852	-2076	-122	-69	-110	-2468	-1676	16404	-232	-16	-11	-9192	3860	13392	112	-58	-169	-16348	2180	-2392	237	-86	19	-1340	3868	16544	157	-10	75	127	127	5
-10596	-3108	11436	-88	158	-183	-15804	-2840	-2020	-174	-58	-114	-2456	-1700	16380	-148	-45	65	-9204	3884	13416	133	-25	-171	-16348	2224	-2536	233	-51	77	-1280	3712	16556	131	-28	71	127	127	5
-10660	-3112	11544	-66	178	-188	-15736	-2836	-2160	-67	-121	-107	-2476	-1672	16344	-99	-43	75	-9212	3900	13356	163	-84	-184	-16304	2244	-2492	113	-48	94	-1264	3736	16644	180	13	64	127	127	5
-10592	-3052	11428	-90	178	-210	-15784	-2816	-2076	-11	-148	-123	-2340	-1656	16424	-93	-52	136	-9220	3816	13420	134	-65	-163	-16348	2248	-2708	-15	-85	141	-1260	3800	16608	219	-6	17	127	127	5
-10572	-3080	11372	-147	170	-213	-15748	-2888	-1920	33	-94	-111	-2420	-1724	16416	-111	-35	149	-9140	3880	13424	169	-97	-159	-16276	2208	-2548	-55	-66	193	-1252	3772	16472	237	10	-8	127	127	5
-10608	-3116	11412	-132	167	-230	-15780	-2920	-1836	81	-114	-168	-2424	-1716	16460	-107	-99	200	-9236	3928	13388	165	-67	-164	-16328	2344	-2412	-34	-34	204	-1236	3884	16608	230	15	-20	127	127	5
-10608	-3120	11376	-151	188	-207	-15820	-2896	-1980	51	-111	-158	-2372	-1832	16420	-19	-179	245	-9188	3852	13360	154	-36	-184	-16328	2316	-2444	40	-68	236	-1164	3800	16708	191	-37	-10	127	127	5
-10536	-3100	11268	-88	174	-184	-15776	-2968	-1920	10	-99	-117	-2300	-1856	16348	-13	-226	241	-9216	3884	13376	157	-44	-137	-16268	2304	-2344	75	-33	179	-1112	3948	16616	276	-76	4	127	127	5
-10564	-3132	11456	-101	147	-192	-15736	-2956	-1876	-76	-101	-141	-2296	-1824	16392	23	-214	160	-9204	3880	13340	166	-20	-160	-16308	2348	-2516	147	8	180	-1096	3944	16616	314	11	14	127	127	5
-10612	-3112	11332	-62	159	-200	-15760	-3036	-1956	-46	-90	-79	-2228	-1824	16384	-2	-212	126	-9204	3956	13376	163	-45	-170	-16296	2416	-2564	157	6	187	-1140	3972	16552	347	-13	100	127	127	5
-10624	-3092	11424	-87	183	-178	-15756	-2952	-1952	-96	-72	-106	-2216	-1832	16232	-25	-156	97	-9220	3924	13404	141	-79	-176	-16288	2496	-2504	113	-20	134	-1216	4040	16432	320	17	132	127	127	5
-10588	-3068	11372	-98	165	-215	-15808	-3028	-1876	-28	-106	-71	-2184	-1824	16396	-16	-149	40	-9228	3884	13316	135	-52	-175	-16268	2408	-2560	39	-23	145	-1128	4044	16624	296	-20	142	127	127	5
-10588	-3156	11488	-75	139	-204	-15792	-2924	-2000	24	-15	-76	-2280	-1756	16424	-12	-117	68	-9188	3924	13348	127	-89	-165	-16308	2344	-2484	-7	-4	112	-1164	3952	16544	210	15	171	127	127	5
-10596	-3112	11476	-93	165	-192	-15824	-2884	-2012	-45	-77	-83	-2296	-1840	16464	-4	-100	168	-9204	3852	13356	115	-70	-188	-16320	2232	-2492	42	-62	137	-1144	3864	16592	282	57	105	127	127	5
-10580	-3076	11420	-99	176	-197	-15728	-2928	-1912	-44	-68	-76	-2356	-1860	16492	59	-105	220	-9232	3880	13324	180	-12	-174	-16312	2176	-2608	142	-56	128	-1164	3816	16592	337	58	30	126	127	5
-10572	-3088	11408	-67	158	-194	-15728	-2988	-1884	6	-56	-35	-2292	-1924	16396	89	-65	199	-9224	3916	13316	152	-32	-151	-16308	2308	-2424	231	-17	188	-1176	3948	16548	357	72	-45	126	128	5
-10564	-3152	11312	-82	169	-200	-15772	-2992	-1844	50	-52	-25	-2160	-1836	16400	165	-113	144	-9156	3864	13408	139	-34	-229	-16332	2392	-2512	169	51	145	-1164	4068	16576	322	38	-122	127	127	5
-10580	-3080	11420	-53	153	-208	-15792	-2936	-1792	133	-16	-29	-2288	-1740	16468	90	-111	114	-9228	3904	13468	167	-94	-157	-16320	2524	-2492	27	24	117	-1188	4116	16572	179	37	-19	127	127	5
-10616	-3112	11400	-36	152	-127	-15764	-2896	-1876	19	8	4	-2188	-1744	16372	57	-80	99	-9172	3908	13368	169	-22	-179	-16332	2404	-2396	-76	-10	154	-1168	3952	16536	120	7	21	126	127	5
-10564	-3072	11280	-32	180	-165	-15756	-2880	-2040	-36	4	21	-2256	-1796	16384	35	-90	115	-9236	3892	13332	122	-26	-187	-16320	2308	-2632	-63	7	161	-1256	3912	16572	147	-42	6	127	127	5
-10612	-3164	11380	-84	139	-160	-15812	-2936	-1988	-78	15	16	-2300	-1804	16364	93	-68	65	-9240	3840	13368	116	-26	-199	-16264	2224	-2608	80	41	149	-1192	3872	16588	224	7	-37	127	127	5
-10552	-3020	11332	-105	159	-181	-15816	-2880	-2032	12	-28	-10	-2408	-1740	16280	114	-23	15	-9216	3904	13336	147	-38	-194	-16328	2260	-2552	198	48	146	-1192	3888	16492	268	13	-38	126	127	5
-10572	-3148	11424	-82	155	-146	-15768	-2864	-2036	-17	-20	11	-2376	-1628	16344	79	-85	67	-9204	3820	13380	155	0	-186	-16304	2376	-2644	231	16	135	-1252	3884	16680	311	4	-44	127	127	5
-10540	-3132	11336	-89	128	-177	-15752	-2796	-1948	-24	-58	19	-2468	-1600	16432	64	-46	77	-9256	3924	13316	195	-95	-195	-16296	2356	-2548	141	-35	179	-1312	4008	16520	318	18	14	126	127	5
-10552	-3120	11372	-81	156	-182	-15812	-2844	-2048	6	-30	-36	-2428	-1504	16320	50	-101	132	-9152	3896	13320	195	-76	-156	-16304	2376	-2496	113	17	181	-1288	4044	16508	317	-5	28	127	127	5
-10616	-3072	11364	-83	147	-169	-15784	-2788	-1896	16	-48	-93	-2428	-1588	16544	7	-115	147	-9200	3872	13392	178	-25	-160	-16320	2412	-2528	-20	-19	144	-1216	4020	16632	317	-12	59	126	127	5
-10592	-3040	11412	-66	174	-187	-15780	-2716	-2056	32	-55	-91	-2448	-1652	16404	-43	-111	158	-9276	3908	13296	159	-57	-174	-16328	2388	-2604	-83	-32	185	-1188	4084	16620	318	11	91	126	127	5
-10608	-3112	11420	-121	136	-210	-15812	-2864	-1848	-22	-62	-95	-2456	-1752	16432	-49	-141	213	-9176	3852	13420	167	-48	-139	-16292	2344	-2548	-80	-45	155	-1196	4044	16552	292	49	109	126	127	5
-10608	-3092	11408	-124	165	-205	-15720	-2952	-2008	-29	-105	-146	-2388	-1796	16388	16	-126	178	-9252	3876	13296	165	-62	-156	-16336	2400	-2620	98	-25	144	-1160	4064	16568	247	20	64	127	127	5
-10592	-3116	11308	-77	165	-200	-15788	-2940	-1956	-2	-100	-77	-2288	-1772	16376	23	-153	149	-9196	3876	13304	155	-69	-183	-16312	2440	-2500	148	-27	91	-1204	4132	16564	253	19	80	126	127	5
-10576	-3124	11464	-69	152	-194	-15744	-2904	-2008	-8	-134	-116	-2288	-1732	16444	-24	-136	101	-9244	3888	13360	137	-85	-167	-16324	2460	-2588	177	-51	118	-1240	4120	16560	252	27	94	127	127	5
-10588	-3120	11352	-84	138	-194	-15808	-2892	-1916	-42	-45	-79	-2292	-1704	16320	-40	-146	83	-9240	3896	13280	152	-30	-151	-16356	2388	-2504	153	-41	91	-1144	4020	16564	197	45	110	127	128	5
-10568	-3108	11452	-120	143	-162	-15820	-2892	-1788	-57	-80	-117	-2288	-1680	16444	-78	-120	75	-9172	3940	13428	142	-15	-164	-16264	2408	-2384	68	-50	85	-1168	4080	16472	208	44	50	126	128	5
-10552	-3104	11328	-119	173	-224	-15776	-2848	-1808	-89	-73	-110	-2212	-1688	16252	-73	-145	126	-9192	3928	13408	163	-52	-198	-16280	2360	-2508	54	-32	79	-1184	4020	16604	150	2	54	127	128	5
-10552	-3096	11372	-102	177	-177	-15756	-2912	-1916	-30	-35	-56	-2144	-1748	16336	-32	-129	77	-9176	3888	13336	188	-22	-179	-16276	2300	-2484	-6	-52	87	-1212	3904	16560	130	-37	7	126	128	5
-10612	-3008	11328	-137	162	-193	-15844	-2840	-1932	26	-29	-104	-2196	-1704	16456	-80	-85	86	-9228	3832	13460	163	-41	-144	-16344	2276	-2476	66	17	105	-1224	3864	16468	196	-17	-19	126	128	5
-10544	-3080	11448	-110	163	-222	-15840	-2772	-1912	16	-35	-118	-2248	-1744	16464	-98	-22	139	-9228	3868	13304	156	-76	-158	-16320	2248	-2520	158	-1	143	-1184	3860	16648	257	-28	-10	126	128	5
-10584	-3116	11472	-130	195	-182	-15788	-2904	-2056	-34	-14	-114	-2372	-1812	16348	-109	-20	171	-9164	3884	13532	130	-49	-150	-16256	2328	-2404	158	9	143	-1168	3936	16688	310	19	-20	126	128	5
-10596	-3132	11372	-129	191	-227	-15832	-2972	-2032	26	-57	-153	-2484	-1872	16292	-72	-30	194	-9148	3876	13276	144	-86	-159	-16340	2416	-2544	140	20	140	-1172	4076	16584	295	-29	24	127	128	5
-10536	-3052	11292	-120	206	-170	-15816	-2956	-2112	65	-34	-130	-2500	-1864	16192	-28	-54	194	-9188	3880	13340	167	-52	-144	-16300	2404	-2500	45	-48	93	-1196	4108	16592	302	24	75	127	128	5
-10592	-3104	11496	-124	131	-181	-15728	-2908	-2060	-4	-64	-83	-2540	-1856	16332	10	-135	208	-9168	3908	13300	162	-49	-165	-16296	2516	-2540	-55	11	128	-1196	4088	16480	265	56	137	127	128	5
-10592	-3136	11364	-90	157	-215	-15780	-2976	-2008	-75	-112	-104	-2440	-1928	16292	38	-122	263	-9120	3848	13348	150	-30	-180	-16328	2456	-2464	-50	-2	88	-1208	4156	16436	225	72	177	127	128	5
-10632	-3104	11520	-86	148	-205	-15804	-3012	-1884	-93	-93	-127	-2308	-1980	16316	105	-123	238	-9196	3836	13460	135	-30	-150	-16328	2332	-2532	-24	-34	87	-1128	4048	16616	165	56	198	127	128	5
-10536	-3100	11384	-115	151	-189	-15732	-3056	-1944	-20	-98	-35	-2176	-1988	16360	139	-176	205	-9252	3936	13408	158	-30	-196	-16300	2184	-2528	113	-9	113	-1132	3968	16504	189	79	69	127	127	5
-10592	-3152	11388	-64	124	-158	-15756	-3064	-1716	38	-58	-14	-2000	-1872	16480	156	-156	144	-9244	3884	13412	137	-31	-157	-16340	2288	-2588	190	16	90	-1244	4020	16476	237	60	7	126	127	5
-10560	-3044	11472	-52	123	-189	-15804	-2916	-1912	68	-1	24	-2068	-1784	16428	93	-38	109	-9204	3904	13356	145	-39	-176	-16344	2372	-2556	149	11	122	-1332	4004	16420	222	25	-21	127	127	5
-10588	-3128	11500	-7	166	-144	-15752	-2920	-1900	14	-2	-28	-2316	-1748	16380	94	-51	45	-9224	3916	13292	143	-79	-192	-16284	2352	-2528	43	41	138	-1320	4100	16424	170	-23	-60	127	127	5
-10576	-3104	11372	-55	144	-190	-15804	-2912	-1896	-38	22	30	-2416	-1792	16392	58	-49	51	-9148	3852	13348	155	-105	-166	-16292	2396	-2584	-36	-39	177	-1280	4028	16504	113	-48	-24	127	127	5
-10588	-3084	11392	-73	142	-139	-15776	-2868	-2028	2	37	8	-2380	-1780	16392	-16	-62	36	-9192	3900	13276	128	-43	-202	-16308	2244	-2568	-42	-11	139	-1232	3924	16516	126	-94	-55	127	128	5
-10580	-3108	11400	-52	123	-175	-15776	-2920	-2036	-25	15	39	-2488	-1800	16444	-46	-56	17	-9240	3896	13320	199	-59	-153	-16292	2124	-2488	110	-47	168	-1212	3912	16624	143	-91	-71	127	127	5
-10584	-3096	11420	-33	141	-166	-15804	-3008	-2116	61	26	39	-2648	-1860	16312	14	-124	51	-9296	3904	13432	151	-46	-188	-16268	2236	-2472	226	-55	175	-1172	3924	16580	223	-60	-114	127	128	5
-10604	-3100	11464	-32	130	-145	-15756	-2928	-2048	95	-44	39	-2588	-1756	16260	85	-181	112	-9176	3896	13236	205	-40	-177	-16256	2368	-2552	270	-22	161	-1240	3980	16544	207	-63	-127	127	127	5
-10568	-3064	11280	-61	143	-186	-15776	-2900	-2044	118	-57	37	-2540	-1704	16424	144	-225	129	-9248	3880	13360	153	-40	-170	-16336	2484	-2596	136	-47	188	-1212	4092	16536	188	-38	-104	127	127	5
-10592	-3140	11480	-68	113	-166	-15748	-2756	-2072	-7	-91	41	-2392	-1692	16420	138	-229	200	-9192	3852	13388	146	-20	-186	-16368	2520	-2576	27	-54	130	-1148	4196	16572	139	-5	-24	126	127	5
-10588	-3080	11436	-87	128	-186	-15800	-2844	-1964	-73	-139	4	-2196	-1584	16420	88	-152	115	-9140	3900	13428	118	-29	-176	-16320	2444	-2484	-93	-47	155	-1244	4072	16608	52	33	10	127	127	5
-10544	-3096	11444	-88	122	-194	-15788	-2796	-1932	-98	-133	-29	-2244	-1584	16424	73	-86	145	-9220	3908	13344	149	-24	-158	-16240	2380	-2532	-70	-65	153	-1152	4036	16528	77	-9	69	127	127	5
-10588	-3100	11440	-95	147	-177	-15832	-2744	-1932	-109	-108	-65	-2288	-1544	16388	65	-43	170	-9196	3884	13416	129	-9	-151	-16344	2380	-2576	26	-51	124	-1144	3896	16572	124	5	87	127	127	5
-10576	-3056	11436	-110	164	-185	-15796	-2800	-1828	-71	-113	-75	-2228	-1612	16388	67	-99	168	-9188	3916	13316	168	-58	-165	-16280	2272	-2496	117	-33	144	-1044	3956	16612	246	52	54	127	127	5
-10568	-3032	11416	-120	162	-209	-15732	-2804	-1848	0	-44	-67	-2108	-1508	16472	66	-109	136	-9176	3816	13456	159	-46	-163	-16312	2476	-2384	210	26	112	-1040	4040	16560	329	62	32	127	127	5
-10548	-3092	11404	-104	192	-191	-15848	-2844	-1800	106	-27	-139	-2180	-1412	16476	-126	-58	63	-9196	3944	13432	129	-70	-181	-16324	2508	-2640	169	34	94	-1096	4196	16504	339	41	24	127	127	5
-10552	-3116	11452	-137	189	-219	-15744	-2824	-1756	111	-37	-142	-2280	-1524	16528	-254	-33	131	-9220	3896	13380	159	-61	-218	-16316	2572	-2624	24	39	56	-1240	4256	16480	220	43	101	126	127	5
-10588	-3112	11392	-142	219	-220	-15852	-2832	-1988	-88	18	-181	-2396	-1744	16388	-283	-93	192	-9188	3920	13432	146	-77	-156	-16332	2472	-2556	-112	25	13	-1236	4148	16348	156	38	141	127	127	5
-10608	-3108	11336	-160	234	-226	-15780	-2924	-1984	-98	-32	-189	-2364	-1856	16328	-239	-98	243	-9236	3824	13252	114	-83	-198	-16296	2336	-2476	-107	19	-4	-1316	4072	16536	93	27	140	127	127	5
-10572	-3120	11380	-105	239	-249	-15752	-3028	-1984	-59	-49	-186	-2492	-2024	16384	-165	-109	234	-9160	3912	13392	117	-61	-202	-16312	2212	-2692	68	-5	-1	-1304	3968	16584	128	-13	96	127	127	5
-10604	-3116	11356	-99	188	-214	-15792	-3088	-1980	22	-43	-164	-2448	-2020	16368	-118	-97	247	-9172	3856	13344	121	-70	-199	-16328	2244	-2712	125	-21	14	-1304	3920	16632	73	20	126	127	127	5
-10572	-3068	11324	-83	167	-165	-15756	-3052	-1968	42	-61	-124	-2508	-2032	16404	-82	-97	202	-9196	3900	13380	136	-37	-158	-16268	2200	-2572	200	-28	30	-1384	3920	16556	82	30	69	127	127	5
-10584	-3104	11368	-100	197	-202	-15804	-3120	-1868	26	-68	-59	-2408	-2036	16400	43	-150	136	-9272	3848	13388	158	-105	-198	-16296	2212	-2564	189	-59	64	-1256	3920	16664	37	7	-14	127	128	5
-10552	-3100	11324	-38	143	-150	-15732	-3008	-1832	44	-54	-69	-2292	-1792	16312	54	-170	-8	-9288	3896	13432	142	-24	-165	-16324	2352	-2616	96	-46	115	-1204	3936	16584	82	1	-42	127	127	5
-10588	-3104	11448	-86	98	-160	-15840	-2912	-1956	4	-53	-55	-2252	-1648	16472	-27	-115	3	-9180	3856	13408	144	-34	-152	-16344	2328	-2440	6	-79	146	-1160	3984	16600	72	20	-90	127	127	5
-10620	-3092	11388	-50	168	-189	-15672	-2796	-2028	-146	-67	-46	-2296	-1700	16420	-53	-116	-32	-9200	3884	13336	159	-14	-180	-16320	2256	-2508	-89	-92	180	-1200	3904	16488	122	-12	-113	126	127	5
-10568	-3120	11352	-72	160	-174	-15776	-2884	-1928	-140	-46	-22	-2344	-1756	16456	-76	-163	-38	-9160	3968	13268	184	-56	-137	-16332	2360	-2412	-93	-22	136	-1216	3992	16604	130	-2	-112	127	127	5
-10532	-3092	11340	-60	144	-178	-15772	-2976	-1856	-12	-29	-58	-2268	-1828	16408	-33	-93	40	-9220	3896	13356	198	-11	-183	-16268	2312	-2416	22	-69	140	-1124	4080	16624	153	21	-123	127	127	5
-10532	-3064	11312	-96	181	-167	-15724	-2952	-1884	102	-27	-101	-2216	-1796	16344	7	-142	8	-9204	3892	13360	196	-120	-153	-16208	2448	-2432	124	-37	112	-1132	4104	16484	131	24	-81	127	127	5
-10540	-3096	11308	-87	152	-140	-15704	-2776	-1972	112	11	-141	-2256	-1608	16344	-25	-167	81	-9240	3908	13320	143	-56	-160	-16356	2488	-2468	142	-14	109	-1120	3968	16588	164	19	0	127	127	5
-10600	-3092	11364	-74	161	-186	-15780	-2760	-1896	29	20	-113	-2348	-1656	16400	-29	-146	146	-9204	3900	13492	145	-89	-142	-16308	2456	-2504	161	-8	43	-1108	4056	16452	170	23	122	127	127	5
-10628	-3048	11380	-153	170	-190	-15792	-2880	-1816	-67	-30	-146	-2348	-1844	16424	-58	-157	226	-9244	3904	13308	120	-48	-208	-16316	2396	-2532	141	15	38	-1116	4052	16544	183	-28	118	127	127	5
-10552	-3088	11440	-139	209	-187	-15816	-3016	-2052	-103	-79	-131	-2416	-2068	16368	17	-133	308	-9184	3824	13356	118	-39	-187	-16332	2292	-2456	94	22	66	-1176	3908	16632	285	25	180	127	127	5
-10592	-3088	11384	-106	199	-198	-15732	-3112	-1912	-14	-78	-111	-2352	-2212	16380	142	-141	336	-9168	3832	13388	123	-44	-192	-16276	2240	-2560	36	-8	87	-1220	3852	16580	341	46	171	127	127	5
-10532	-3144	11408	-115	164	-187	-15792	-3120	-2012	78	-30	-73	-2380	-2144	16364	265	-129	369	-9224	3884	13224	137	-36	-203	-16292	2184	-2532	55	30	106	-1312	3872	16508	320	5	75	127	127	5
-10552	-3092	11336	-71	165	-163	-15752	-3148	-2024	98	-77	-34	-2504	-2104	16280	365	-151	393	-9184	3852	13340	136	-43	-182	-16304	2228	-2572	62	-8	128	-1316	3956	16620	333	0	55	127	128	5
-10664	-3172	11388	-64	142	-165	-15708	-3108	-1912	49	-68	24	-2420	-2048	16372	418	-223	275	-9172	3836	13400	156	-67	-182	-16268	2224	-2616	32	-10	189	-1400	3876	16488	250	-14	36	127	127	5
-10576	-3172	11356	-54	114	-174	-15744	-3124	-1976	75	-52	62	-2392	-1952	16376	377	-244	171	-9132	3896	13340	167	-61	-155	-16348	2236	-2544	42	-43	154	-1268	3856	16504	203	-72	-11	127	127	5
-10556	-3128	11360	-15	108	-140	-15748	-2988	-1880	3	-91	100	-2224	-1832	16392	358	-220	89	-9184	3904	13368	181	0	-150	-16308	2216	-2460	125	-57	253	-1116	3752	16672	320	-61	-55	127	127	5
-10556	-3112	11312	-48	70	-162	-15756	-2924	-1856	-59	-60	135	-2252	-1736	16404	326	-226	49	-9184	3852	13420	207	-65	-133	-16352	2160	-2444	108	-16	275	-1056	3768	16644	378	-12	-141	126	127	5
-10528	-3132	11404	-28	106	-154	-15828	-2848	-1792	-91	-63	116	-2188	-1752	16476	307	-156	124	-9220	3904	13216	199	27	-168	-16248	2312	-2448	152	9	278	-1040	4040	16664	487	12	-235	126	127	5
-10548	-3060	11352	-73	111	-183	-15824	-2832	-1836	-51	-72	130	-2212	-1740	16348	321	-128	168	-9188	3908	13436	215	-22	-147	-16244	2492	-2496	71	39	282	-1244	4240	16560	407	18	-233	126	127	5
-10484	-3108	11436	-15	106	-155	-15780	-2992	-1828	51	-67	121	-2344	-1764	16300	358	-174	109	-9212	3948	13340	178	-9	-167	-16340	2548	-2616	-42	14	233	-1188	4232	16484	395	9	-243	127	127	5
-10560	-3080	11460	-16	138	-128	-15752	-2932	-1900	268	-16	111	-2284	-1572	16292	392	-151	27	-9216	3960	13340	194	-47	-142	-16344	2528	-2544	-93	-28	201	-1288	4264	16500	164	-73	-91	126	127	5
-10524	-3068	11436	18	101	-145	-15776	-2732	-1924	296	3	80	-2296	-1448	16484	298	-111	-50	-9120	3892	13236	157	-30	-171	-16304	2508	-2588	-21	-6	169	-1216	4188	16532	173	-3	31	126	127	5
-10548	-3100	11404	-48	126	-164	-15800	-2676	-2116	26	-24	76	-2412	-1340	16416	193	-122	2	-9236	3864	13364	161	-48	-178	-16268	2424	-2528	131	-76	137	-1104	4052	16496	261	-6	116	126	127	5
-10528	-3064	11432	-27	164	-163	-15816	-2648	-1924	-204	-51	18	-2428	-1312	16392	77	-125	10	-9176	3896	13348	134	-45	-195	-16344	2448	-2424	255	-58	114	-1100	4104	16464	337	40	125	126	127	5
-10524	-3116	11360	-65	130	-159	-15724	-2756	-1896	-186	-88	16	-2388	-1364	16340	22	-166	76	-9200	3940	13340	119	-65	-170	-16236	2488	-2572	219	-57	78	-1076	4184	16544	303	24	206	126	127	5
-10544	-3068	11488	-76	147	-222	-15824	-2684	-2000	-76	-100	-56	-2308	-1360	16312	-19	-169	133	-9204	3940	13384	101	-87	-185	-16304	2496	-2472	113	-27	53	-1072	4104	16524	253	20	240	126	127	5
-10624	-3108	11428	-78	171	-230	-15748	-2700	-1996	11	-95	-82	-2348	-1424	16408	-23	-169	138	-9184	3904	13264	94	-83	-202	-16328	2360	-2388	49	-16	55	-1076	3900	16524	221	54	264	126	127	5
-10544	-3036	11488	-105	168	-241	-15784	-2728	-1940	47	-107	-151	-2324	-1452	16340	-96	-160	199	-9200	3948	13392	139	-79	-169	-16296	2304	-2600	52	8	54	-752	4012	16364	264	68	114	126	127	5
-10576	-3148	11396	-133	170	-176	-15748	-2664	-1928	-28	-99	-191	-2260	-1532	16384	-78	-160	281	-9204	3808	13364	134	-99	-175	-16368	2240	-2520	32	-28	94	-1136	3884	16560	268	93	210	126	127	5
-10616	-3036	11400	-185	199	-210	-15792	-2736	-1856	-37	-99	-285	-2232	-1480	16464	-120	-105	370	-9248	3892	13412	130	-32	-160	-16312	2256	-2560	51	16	115	-1196	3988	16700	349	111	133	126	127	5
-10584	-3088	11512	-140	197	-222	-15780	-2772	-1876	-183	-114	-267	-2084	-1676	16412	-157	-98	385	-9168	3924	13376	158	-64	-176	-16312	2404	-2516	51	-10	80	-1136	4140	16652	354	101	84	127	128	5
-10536	-3120	11468	-188	230	-250	-15728	-3044	-1780	-194	-55	-243	-2016	-1752	16376	-223	-61	349	-9168	3872	13420	159	-28	-153	-16244	2452	-2428	5	10	129	-912	4156	16628	256	98	56	127	128	5
-10556	-3156	11376	-144	204	-209	-15704	-3220	-1772	11	-11	-222	-1972	-1880	16448	-262	6	227	-9172	3888	13276	166	-27	-170	-16324	2496	-2488	-57	38	122	-988	4280	16496	169	117	-14	126	128	5
-10620	-3120	11432	-162	179	-195	-15824	-3064	-1824	124	-4	-208	-2024	-1896	16436	-324	50	137	-9204	3868	13376	127	6	-162	-16332	2448	-2452	-5	74	75	-1072	4244	16500	97	103	-18	127	128	5
-10616	-3064	11448	-70	227	-171	-15784	-3072	-1760	11	62	-143	-2128	-2052	16388	-234	96	105	-9208	3924	13296	113	-33	-209	-16276	2456	-2544	-7	85	40	-1076	4164	16536	52	95	-63	126	128	5
-10580	-3172	11376	-83	193	-145	-15764	-3116	-1896	-55	72	-87	-2308	-2016	16568	-179	26	21	-9204	3916	13372	116	-34	-197	-16308	2492	-2680	60	89	19	-1244	4244	16580	27	73	-46	127	128	5
-10524	-3124	11316	-44	201	-138	-15708	-3080	-1824	-65	58	-71	-2180	-1936	16296	-83	6	-19	-9252	3908	13292	120	-108	-197	-16304	2444	-2784	107	27	-2	-1364	4176	16552	50	65	-6	127	128	5
-10592	-3112	11396	-51	167	-172	-15884	-2944	-2008	-17	46	-23	-2216	-1816	16412	-148	124	-15	-9140	3908	13332	139	-32	-213	-16332	2404	-2632	152	-9	-5	-1500	4216	16412	36	48	34	127	127	5
-10592	-3056	11432	-52	180	-175	-15840	-2940	-2120	-78	57	15	-2368	-1868	16312	-183	272	2	-9244	3992	13340	89	-33	-202	-16336	2404	-2684	171	-82	-5	-1564	4124	16480	61	-2	66	127	127	5
-10560	-3064	11384	-6	153	-168	-15708	-2992	-2148	-97	-3	42	-2592	-1824	16264	-105	282	-43	-9144	3868	13400	84	-99	-199	-16300	2324	-2696	121	-67	-35	-1540	4044	16500	22	-21	90	127	127	5
-10624	-3064	11436	-34	112	-211	-15792	-3020	-2120	50	-22	5	-2676	-1728	16368	-15	186	-81	-9192	3840	13400	93	-54	-182	-16320	2204	-2680	28	-126	25	-1212	3880	16564	-20	-48	102	127	127	5
-10584	-3136	11400	-44	105	-199	-15772	-2772	-2068	145	-69	-4	-2652	-1572	16404	-34	189	-117	-9212	3908	13304	135	-67	-197	-16296	2128	-2524	82	-122	47	-1208	3672	16524	85	-30	89	127	127	5
-10572	-3072	11500	-103	104	-201	-15800	-2552	-2072	12	-80	-45	-2668	-1424	16436	-132	131	-44	-9124	3876	13372	115	-50	-173	-16324	2132	-2356	110	-151	104	-572	3652	16512	133	10	56	127	127	5
-10568	-3052	11308	-83	135	-219	-15824	-2636	-1888	-186	-104	-95	-2628	-1516	16340	-188	17	135	-9212	3888	13404	146	-72	-166	-16276	2192	-2416	112	-56	127	-1124	3724	16764	236	-23	40	127	127	5
-10608	-3020	11440	-130	188	-189	-15784	-2860	-1796	-153	-116	-137	-2496	-1704	16436	-162	-86	223	-9228	3960	13260	148	-53	-185	-16284	2188	-2448	46	-54	183	-1020	3820	16588	337	-20	-3	128	127	5
-10520	-3164	11500	-125	199	-217	-15768	-2996	-1792	-1	-108	-172	-2340	-1844	16384	-140	-72	280	-9236	3912	13404	194	-29	-198	-16352	2268	-2516	41	-1	178	-1088	3836	16692	324	32	-33	127	127	5
-10608	-3116	11484	-148	164	-208	-15696	-2944	-1980	166	-83	-166	-2384	-1844	16336	-69	-124	215	-9228	3972	13268	178	-81	-146	-16264	2312	-2436	94	12	200	-1356	4068	16672	408	170	-29	128	127	5
-10644	-3120	11352	-141	160	-214	-15816	-2952	-1904	103	-48	-189	-2468	-1884	16472	-83	-104	222	-9256	3864	13388	173	9	-154	-16300	2412	-2520	7	22	184	-1260	4072	16408	334	29	43	127	127	5
-10628	-3064	11328	-142	188	-182	-15760	-2956	-1928	36	-48	-123	-2492	-1964	16344	-40	-155	237	-9208	3876	13288	127	-2	-178	-16328	2416	-2524	-12	18	183	-1256	4120	16576	301	-27	62	127	127	5
-10548	-3148	11396	-114	191	-210	-15744	-3060	-1976	-49	-56	-116	-2364	-1996	16344	-21	-217	219	-9240	3968	13400	165	-64	-183	-16296	2380	-2480	42	-19	175	-1252	4104	16556	291	-56	100	127	127	5
-10616	-3128	11404	-83	176	-201	-15744	-3096	-1904	-133	-82	-77	-2416	-2088	16308	13	-193	211	-9264	3876	13328	174	-98	-146	-16356	2388	-2640	102	1	150	-1304	4080	16564	257	-18	100	127	128	5
-10576	-3152	11376	-104	161	-155	-15680	-3088	-1908	-89	-77	-34	-2488	-2028	16344	74	-203	160	-9216	3832	13392	167	-34	-175	-16304	2288	-2620	173	-33	149	-1368	4128	16500	204	-36	29	127	127	5
-10628	-3108	11392	-81	154	-156	-15712	-3080	-2004	-89	-67	-37	-2420	-2004	16404	99	-223	114	-9168	3928	13268	146	-53	-136	-16300	2364	-2632	141	-52	164	-1356	4196	16544	211	-39	20	127	127	5
-10632	-3052	11396	-43	106	-203	-15780	-3016	-2028	36	-101	33	-2456	-1960	16304	160	-255	40	-9244	3924	13340	158	-11	-206	-16264	2380	-2480	108	-39	188	-1212	4108	16504	167	-74	-28	127	128	5
-10572	-3052	11432	-21	121	-178	-15800	-3036	-1864	90	-57	68	-2476	-1912	16408	188	-302	49	-9164	3852	13464	133	-46	-182	-16296	2264	-2512	91	-49	192	-1212	4064	16604	147	-52	-79	127	127	5
-10596	-3016	11432	-58	136	-169	-15788	-2944	-1956	86	-71	58	-2400	-1848	16408	230	-335	20	-9176	3892	13340	177	-54	-164	-16376	2268	-2576	62	-115	213	-1092	4012	16508	113	-52	-162	126	127	5
-10588	-3112	11300	-9	111	-197	-15804	-2844	-1812	99	-79	73	-2320	-1748	16308	231	-378	44	-9252	3856	13452	173	-51	-175	-16364	2336	-2536	73	-68	215	-1072	4088	16616	113	-35	-196	126	127	5
-10528	-3080	11392	-38	98	-153	-15796	-2824	-1900	-41	-74	42	-2204	-1640	16404	212	-361	76	-9164	3880	13340	182	-26	-130	-16200	2448	-2492	58	-63	177	-1080	4120	16588	124	-33	-237	126	127	5
-10608	-3080	11416	-60	138	-216	-15780	-2852	-1892	-93	-51	38	-2120	-1524	16412	193	-283	48	-9136	3800	13420	165	-1	-193	-16312	2548	-2560	28	-21	199	-1152	4088	16540	103	-40	-142	126	127	5
-10636	-3044	11436	-77	163	-171	-15824	-2784	-1868	-49	-48	-67	-2112	-1492	16408	99	-208	73	-9176	3844	13532	181	-54	-190	-16316	2528	-2468	41	-7	138	-1160	4068	16476	118	-74	-38	126	127	5
-10560	-3124	11392	-84	155	-195	-15800	-2792	-1868	71	-24	-15	-2208	-1560	16296	36	-167	71	-9196	3964	13276	128	-76	-177	-16316	2388	-2552	55	-1	151	-1112	4080	16496	173	-42	8	126	127	5
-10580	-3116	11372	-96	204	-207	-15808	-2780	-1952	69	-35	-79	-2304	-1552	16456	-15	-160	161	-9236	3828	13396	154	-48	-180	-16280	2448	-2668	60	-13	119	-1228	4056	16512	234	29	84	126	127	5
-10580	-3076	11532	-108	196	-190	-15776	-2736	-1944	29	-39	-109	-2432	-1688	16380	-63	-119	270	-9204	3900	13412	169	-78	-201	-16296	2428	-2612	174	-13	127	-1256	4052	16592	211	34	122	126	127	5
-10596	-3048	11404	-106	196	-230	-15788	-2840	-2052	-18	-47	-142	-2436	-1784	16376	-36	-177	338	-9196	3928	13424	159	-64	-193	-16332	2352	-2496	124	-9	115	-1184	4008	16584	254	4	98	126	127	5
-10596	-3144	11324	-98	186	-212	-15724	-2948	-1944	21	-35	-137	-2284	-1744	16264	33	-172	233	-9176	3844	13468	146	-36	-176	-16308	2360	-2404	155	-33	92	-1304	4064	16716	328	107	138	126	127	5
-10592	-3128	11344	-112	184	-189	-15732	-2960	-2008	25	-108	-116	-2320	-1856	16344	-4	-179	212	-9288	3932	13364	137	-16	-150	-16316	2396	-2500	85	-28	132	-1156	4028	16464	273	10	110	126	127	5
-10592	-3132	11404	-108	175	-204	-15756	-2912	-1948	-27	-63	-140	-2356	-1836	16456	-26	-160	147	-9200	3884	13416	173	-63	-193	-16328	2396	-2628	54	-47	120	-1104	4080	16548	283	38	104	126	127	5
-10568	-3128	11316	-108	165	-194	-15816	-2892	-1884	-110	-86	-87	-2284	-1844	16576	-90	-118	133	-9208	3900	13264	169	-76	-188	-16292	2408	-2564	-16	-35	149	-1092	4076	16540	229	56	55	126	127	5
-10572	-3120	11408	-85	139	-227	-15776	-2952	-1944	-104	-97	-60	-2304	-1864	16356	-93	-88	193	-9260	3948	13316	169	-59	-153	-16268	2368	-2424	13	-75	90	-1192	4128	16544	166	55	23	126	127	5
-10600	-3184	11424	-92	167	-201	-15696	-3024	-1848	-75	-88	-72	-2152	-1944	16368	16	-77	138	-9196	3940	13344	155	-60	-178	-16296	2368	-2392	37	-37	115	-1060	4060	16564	113	22	-18	126	127	5
-10592	-3104	11424	-58	155	-199	-15784	-2992	-1864	46	-51	-69	-2060	-1824	16452	38	-12	74	-9196	3864	13448	177	-41	-175	-16332	2408	-2400	119	-33	116	-1056	4016	16584	190	64	-24	126	127	5
-10564	-3116	11356	-65	131	-198	-15720	-2948	-1744	23	-36	-39	-2052	-1700	16400	-35	18	19	-9204	3884	13368	178	-20	-168	-16312	2436	-2368	143	30	85	-1068	4108	16544	228	24	-68	127	127	5
-10536	-3092	11456	-79	168	-178	-15796	-2828	-1824	37	43	-49	-2204	-1676	16400	-63	27	36	-9180	3892	13348	113	-126	-124	-16336	2472	-2424	81	35	114	-1072	4232	16532	178	19	-25	126	127	5
-10596	-3144	11416	-101	190	-171	-15724	-2864	-1780	-61	19	-31	-2328	-1716	16356	-124	-74	51	-9120	3968	13320	157	-72	-225	-16304	2452	-2504	83	27	105	-1132	4220	16600	92	0	20	126	127	5
-10596	-3136	11340	-100	156	-151	-15728	-2860	-1912	-92	21	-64	-2472	-1756	16360	-23	-137	110	-9168	3944	13416	101	-28	-199	-16284	2416	-2492	-39	65	81	-1152	4088	16536	92	41	86	127	127	5
-10588	-3084	11376	-117	188	-156	-15788	-2924	-1904	-36	40	-63	-2416	-1836	16376	66	-168	190	-9220	3836	13404	125	-13	-197	-16276	2304	-2592	-7	40	75	-1248	4036	16460	157	30	38	126	127	5
-10532	-3112	11492	-104	209	-147	-15816	-2860	-1972	-17	2	-62	-2412	-1792	16236	66	-134	203	-9264	3908	13460	125	-31	-175	-16296	2272	-2636	91	14	53	-1276	4080	16604	200	-31	42	126	127	5
-10564	-3116	11376	-64	210	-185	-15860	-2896	-2108	16	1	-86	-2536	-1788	16444	76	-123	170	-9228	3972	13444	147	-77	-160	-16300	2316	-2640	195	9	88	-1396	4044	16552	244	9	13	126	128	5
-10624	-3052	11392	-105	169	-211	-15812	-2964	-2120	46	-31	-103	-2624	-1732	16320	37	-83	152	-9240	3812	13452	108	-23	-189	-16316	2304	-2716	227	-16	95	-1392	3992	16596	287	9	79	126	127	5
-10592	-3048	11432	-59	138	-172	-15792	-2868	-2172	60	-98	-96	-2604	-1752	16368	13	-102	203	-9168	3892	13328	117	-41	-225	-16340	2356	-2644	157	-87	140	-1372	4112	16536	264	-15	101	126	128	5
-10732	-3044	11456	-75	154	-184	-15768	-2896	-2168	-41	-131	-76	-2604	-1868	16264	65	-157	251	-9164	3940	13340	134	-97	-147	-16276	2348	-2516	45	-105	156	-1260	4056	16536	230	-13	137	127	127	5
-10580	-3132	11340	-92	135	-199	-15696	-2916	-2100	-31	-182	-105	-2436	-1832	16280	86	-216	274	-9236	3868	13264	172	-51	-137	-16240	2268	-2500	-18	-126	114	-1192	3952	16508	253	15	149	127	128	5
-10548	-3064	11304	-104	147	-207	-15832	-2952	-1956	-55	-149	-122	-2280	-1796	16460	50	-200	248	-9224	3816	13404	168	-15	-127	-16280	2284	-2512	9	-134	191	-1132	4056	16596	275	54	69	127	127	5
-10612	-3136	11392	-87	128	-175	-15748	-2964	-1852	-52	-175	-116	-2216	-1756	16372	68	-164	234	-9184	3868	13324	185	-92	-137	-16288	2328	-2352	30	-93	171	-1108	4072	16564	249	31	-44	127	127	5
-10548	-3116	11388	-89	123	-186	-15832	-2952	-1820	-41	-167	-106	-2040	-1728	16396	16	-132	141	-9244	3880	13420	192	-50	-173	-16268	2316	-2408	58	-122	204	-1072	4096	16572	202	13	-35	127	127	5
-10528	-3124	11292	-100	182	-219	-15784	-2984	-1696	13	-72	-121	-2056	-1768	16332	4	-127	140	-9224	3964	13324	173	-31	-145	-16328	2440	-2408	75	-23	205	-1028	4112	16464	199	2	-17	126	127	5
-10608	-3076	11420	-74	174	-196	-15740	-2872	-1784	21	-40	-57	-1984	-1696	16440	-24	-93	95	-9192	3864	13304	175	-48	-165	-16308	2412	-2360	48	-27	155	-1040	4120	16552	260	17	28	127	127	5
-10508	-3128	11388	-68	152	-197	-15816	-2880	-1696	-63	21	-91	-2108	-1712	16348	-42	-37	105	-9224	3864	13356	127	-22	-171	-16288	2484	-2464	75	20	100	-1104	4140	16512	240	1	-1	127	127	5
-10544	-3120	11412	-77	173	-191	-15764	-2960	-1800	-86	8	-97	-2292	-1776	16408	-88	-7	99	-9240	3964	13412	149	-47	-165	-16296	2464	-2452	81	44	103	-1084	4204	16508	213	-8	65	126	127	5
-10648	-3108	11400	-103	165	-170	-15796	-2960	-1888	-42	-15	-77	-2308	-1856	16364	-93	-74	69	-9160	3840	13432	137	-24	-211	-16372	2456	-2460	68	-24	91	-1148	4152	16576	262	16	79	127	127	5
-10580	-3188	11320	-90	175	-178	-15772	-2976	-1920	-5	17	-101	-2444	-1876	16312	-50	-69	94	-9220	3844	13388	101	-33	-183	-16316	2388	-2560	115	32	62	-1168	4080	16388	230	77	99	127	127	5
-10584	-2988	11472	-103	189	-195	-15772	-2944	-1780	27	59	-61	-2516	-1860	16372	17	-105	154	-9192	3860	13328	130	-51	-180	-16324	2332	-2588	98	14	24	-1220	4184	16616	225	41	30	127	127	5
-10604	-3144	11268	-97	154	-180	-15756	-2872	-1968	-12	-20	-84	-2420	-1816	16448	141	-133	209	-9196	3892	13376	123	-101	-185	-16348	2348	-2540	114	0	71	-1204	4096	16528	185	48	89	127	127	5
-10572	-3080	11448	-93	151	-189	-15764	-2948	-1980	-9	-20	-74	-2352	-1760	16452	42	-43	215	-9244	3828	13316	143	-77	-188	-16304	2368	-2496	128	-4	81	-1276	4048	16516	171	23	80	127	127	5
-10564	-3112	11368	-112	176	-180	-15780	-2952	-2016	-4	-4	-109	-2436	-1824	16328	53	-44	218	-9156	3892	13364	134	-90	-159	-16312	2284	-2500	16	-6	102	-1288	3960	16548	81	33	80	127	127	5
-10620	-3120	11368	-96	134	-185	-15764	-3004	-1840	33	-7	-57	-2448	-1992	16404	69	-110	212	-9160	3852	13288	156	-55	-184	-16340	2236	-2560	11	0	141	-1228	3976	16500	149	18	68	127	127	5
-10592	-3152	11308	-58	158	-161	-15732	-3056	-1860	37	-36	-55	-2344	-1980	16428	125	-114	224	-9200	3836	13476	150	-50	-146	-16260	2224	-2544	63	-8	131	-1236	3956	16588	198	8	-31	127	127	5
-10544	-3104	11372	-59	144	-174	-15780	-3004	-1924	74	-52	-2	-2332	-1984	16260	190	-87	202	-9164	3876	13424	152	-52	-184	-16300	2204	-2552	125	22	148	-1248	3988	16568	189	24	-110	127	127	5
-10628	-3136	11416	-51	148	-164	-15732	-3092	-1908	40	-16	41	-2244	-1916	16368	209	-125	140	-9216	3852	13400	188	-31	-177	-16168	2356	-2440	142	-11	197	-1180	4056	16612	166	-54	-145	127	127	5
-10640	-3036	11400	-54	167	-153	-15760	-2996	-1900	39	-18	64	-2300	-1796	16508	172	-101	112	-9220	3824	13388	154	-55	-170	-16272	2420	-2512	56	-33	182	-1320	4100	16512	147	-41	-138	127	127	5
-10620	-3132	11316	-40	147	-168	-15760	-2948	-1940	17	-58	98	-2344	-1788	16296	190	-146	68	-9220	3896	13412	188	-79	-139	-16308	2360	-2548	68	48	160	-1192	4032	16552	95	-4	-103	126	126	5
-10508	-3060	11432	-28	111	-164	-15792	-2892	-1940	20	-40	78	-2372	-1744	16424	206	-175	83	-9212	3872	13296	167	4	-149	-16284	2376	-2508	56	5	196	-1184	4008	16512	163	4	-63	126	127	5
-10592	-3036	11420	-19	128	-200	-15696	-2924	-2096	-52	-47	93	-2304	-1724	16464	228	-126	97	-9192	3924	13480	195	-77	-161	-16316	2460	-2596	28	2	193	-1088	4044	16516	252	35	-47	126	126	5
-10572	-3152	11492	-35	100	-164	-15812	-2892	-1948	-25	-39	53	-2284	-1692	16388	179	-70	135	-9236	3856	13416	145	-62	-144	-16360	2432	-2504	29	-38	152	-1168	4132	16472	307	88	-37	126	126	5
-10560	-3084	11348	-18	153	-196	-15852	-2744	-1948	18	-22	35	-2288	-1528	16404	150	17	131	-9232	3872	13356	157	-10	-186	-16332	2476	-2588	45	-10	144	-1184	4200	16468	272	91	2	126	126	5
-10572	-3084	11456	-73	163	-198	-15716	-2864	-2012	66	-56	6	-2312	-1520	16400	152	34	129	-9200	3988	13344	153	-14	-163	-16284	2452	-2544	81	-16	116	-1168	4240	16556	206	59	50	127	126	5
-10568	-3032	11392	-60	164	-165	-15792	-2844	-1924	120	-47	-30	-2508	-1548	16404	66	20	176	-9184	3888	13280	128	-70	-183	-16264	2416	-2636	66	14	72	-1220	4168	16500	174	63	63	127	126	5
-10588	-3112	11316	-78	151	-181	-15752	-2780	-1968	70	-49	-19	-2588	-1524	16352	-9	-58	118	-9204	3860	13368	150	-36	-193	-16324	2392	-2516	96	-31	38	-1328	4240	16644	232	71	92	127	127	5
-10620	-3028	11448	-69	159	-230	-15776	-2812	-1960	-73	-35	-21	-2348	-1656	16352	56	-55	276	-9232	3804	13416	131	-73	-168	-16344	2440	-2504	99	-54	50	-1324	4148	16396	173	42	107	127	127	5
-10560	-3160	11400	-67	171	-173	-15808	-2856	-1924	-85	-60	-40	-2148	-1660	16312	16	-35	146	-9244	3912	13308	142	-47	-165	-16336	2456	-2520	95	-39	79	-1184	4168	16584	152	-14	67	127	127	5
-10608	-3096	11432	-103	167	-173	-15796	-2856	-1884	9	-30	-88	-2316	-1624	16488	-9	17	145	-9244	3876	13380	103	-39	-215	-16276	2384	-2512	35	-41	78	-1180	4108	16536	72	-74	30	127	127	5
-10572	-3112	11404	-102	171	-230	-15768	-2860	-1836	3	-39	-83	-2320	-1584	16496	-131	43	111	-9248	3864	13368	129	-42	-209	-16288	2272	-2580	42	-65	63	-1048	3948	16420	24	-36	28	127	127	5
-10584	-3152	11456	-112	147	-201	-15804	-2904	-1944	-14	-28	-84	-2476	-1632	16376	-109	-35	125	-9184	3880	13412	129	-97	-194	-16276	2304	-2524	98	-8	89	-1096	3980	16532	81	-55	-64	127	127	5
-10552	-3144	11376	-113	199	-206	-15784	-2908	-1904	46	-25	-154	-2500	-1688	16384	-84	-135	73	-9220	3832	13404	157	-70	-188	-16332	2340	-2540	96	4	100	-1020	4024	16580	74	8	-82	127	127	5
-10548	-3108	11396	-130	182	-192	-15784	-2880	-1984	87	28	-146	-2508	-1768	16484	-44	-150	155	-9224	3924	13468	144	-56	-190	-16328	2352	-2616	12	-1	74	-1016	4056	16548	84	11	-93	127	127	5
-10612	-3116	11452	-138	220	-176	-15792	-2816	-1960	-63	-38	-110	-2440	-1784	16468	35	-181	219	-9276	3892	13384	157	-19	-164	-16296	2416	-2672	16	-21	104	-1248	4056	16512	129	46	-51	127	127	5
-10616	-3164	11324	-128	168	-208	-15760	-2976	-1988	-127	-6	-104	-2396	-1828	16360	-11	-142	196	-9252	3876	13348	151	-48	-168	-16264	2424	-2588	6	-33	91	-1292	4068	16484	173	47	9	127	127	5
