#Activity	sitting in car 
#ActivityID	12 
#Date 09-19-15-212
acc_rf_x	acc_rf_y	acc_rf_z	gyro_rf_x	gyro_rf_y	gyro_rf_z	acc_rs_x	acc_rs_y	acc_rs_z	gyro_rs_x	gyro_rs_y	gyro_rs_z	acc_rt_x	acc_rt_y	acc_rt_z	gyro_rt_x	gyro_rt_y	gyro_rt_z	acc_lf_x	acc_lf_y	acc_lf_z	gyro_lf_x	gyro_lf_y	gyro_lf_z	acc_ls_x	acc_ls_y	acc_ls_z	gyro_ls_x	gyro_ls_y	gyro_ls_z	acc_lt_x	acc_lt_y	acc_lt_z	gyro_lt_x	gyro_lt_y	gyro_lt_z	EMG_r	EMG_l	act
-4212	-7536	14148	13	-10	-19	-12344	-7800	6856	-15	-8	-9	1752	-3904	16432	25	-2	18	-2000	6720	14528	-12	15	-26	-13304	7376	7736	0	1	19	568	3208	16336	12	-14	27	127	137	12
-4668	-7900	14004	4	-9	-28	-12088	-7992	6712	2	0	-9	1800	-3752	16704	32	0	13	-2232	6680	14392	-23	13	-29	-13256	7440	7416	12	-1	21	592	3104	16904	8	-14	24	127	137	12
-4520	-7884	14244	18	-11	-20	-12392	-8120	6392	-9	-3	-7	1576	-3792	16352	18	-2	11	-2072	6632	14432	-11	14	-25	-13336	7368	7496	7	-6	21	448	3048	16400	9	-11	17	127	139	12
-4288	-7460	14304	15	-7	-18	-12280	-7856	6720	1	-4	4	1680	-3936	16504	16	3	1	-2056	6768	14464	-4	19	-22	-13008	7376	7696	9	-6	19	712	3072	16584	11	-23	18	127	138	12
-4536	-8020	14020	9	-11	-21	-12112	-7896	6648	12	-1	1	1776	-3856	16584	28	3	3	-2176	6800	14568	-14	14	-27	-13224	7480	7568	12	-14	22	520	3280	16816	3	-22	13	127	138	12
-4280	-7608	14176	20	-17	-20	-12464	-7928	6944	-9	-9	-12	1808	-3664	16552	17	5	4	-1976	6592	14608	-2	13	-20	-13088	7352	7296	10	-3	18	736	3152	16704	5	-13	11	127	138	12
-4252	-7544	14048	9	-10	-22	-12296	-7816	6680	-1	-3	-1	1768	-3792	16296	21	7	1	-2032	6880	14456	-9	15	-25	-13072	7392	7600	19	-12	25	776	3144	16768	8	-9	14	127	137	12
-4596	-7952	13996	13	-11	-24	-12256	-7952	6832	-2	-5	-9	1752	-3704	16592	32	-5	9	-2240	6792	14728	-18	15	-28	-13360	7376	7328	9	-6	30	656	3312	16664	5	-16	13	127	137	12
-4368	-7632	14280	20	-13	-18	-12584	-7992	6736	-20	-10	-7	1672	-3808	16552	19	-6	10	-1888	6704	14448	-2	11	-22	-13304	7536	7720	4	0	13	624	3352	16936	8	-12	15	127	137	12
-4372	-7588	14100	5	-9	-22	-12312	-7824	6824	3	-3	0	1888	-3928	16384	33	-10	9	-2192	6920	14352	-12	18	-25	-13040	7592	7752	15	-6	22	552	3176	16624	9	-22	23	127	137	12
-4496	-7880	13980	14	-16	-18	-12264	-8024	6696	-1	-3	-4	1840	-3704	16680	39	-7	15	-2152	6576	14544	-15	20	-26	-13360	7336	7680	0	5	16	712	3216	16584	2	-15	24	127	138	12
-4528	-7852	13980	10	-15	-16	-12440	-7944	6744	-4	-1	-2	1736	-3776	16608	22	0	14	-1960	6736	14432	-3	20	-25	-13056	7096	7512	9	-1	10	688	3168	16344	12	-14	23	127	137	12
-4424	-7636	14060	0	-4	-22	-12112	-7912	6624	11	0	4	1872	-3760	16328	25	1	7	-2232	6832	14424	-15	16	-26	-12992	7560	7608	23	-7	22	512	3136	16664	11	-15	18	127	137	12
-4556	-7836	14088	14	-13	-20	-12456	-7976	6752	1	-2	-3	1592	-3704	16504	15	-3	5	-2208	6552	14528	-15	20	-32	-13272	7448	7720	1	2	20	400	3136	16608	6	-18	16	127	138	12
-4328	-7432	14272	12	-13	-16	-12480	-7800	6960	-2	-3	0	1624	-3736	16504	9	0	-1	-2176	6760	14576	-2	18	-19	-12936	7224	7672	13	-6	15	696	3136	16712	6	-17	17	127	139	12
-4536	-7880	14144	5	-7	-16	-12392	-7728	6936	7	-1	-1	1664	-3792	16672	24	-5	1	-2296	6824	14368	-9	14	-30	-13296	7616	7776	14	-12	22	624	3240	16800	-1	-18	12	127	138	12
-4536	-7764	14184	18	-17	-15	-12688	-8080	6680	-18	-5	-5	1616	-3720	16960	23	-8	4	-2160	6656	14528	-11	15	-24	-13312	7432	7688	-2	-2	16	528	3192	16504	-2	-25	14	127	138	12
-4276	-7380	14176	7	-6	-15	-12448	-7704	6976	-5	-7	-2	1808	-3840	16328	23	-2	6	-2120	6816	14536	-7	14	-20	-13048	7536	7432	17	-11	18	696	3144	16560	5	-18	20	127	137	12
-4528	-7964	14008	3	-15	-22	-12256	-7936	6920	7	-2	-5	1768	-3736	16664	31	-4	10	-2168	6584	14328	-19	16	-25	-13256	7552	7776	12	-8	23	488	3216	16648	3	-18	19	127	138	12
-4352	-7752	14172	13	-12	-22	-12440	-7944	6920	-16	-3	-16	1680	-3768	16672	20	-3	12	-2032	6512	14672	-11	15	-23	-13336	7464	7648	4	2	12	512	3224	16632	7	-10	21	127	138	12
-4328	-7460	14160	2	-3	-22	-12272	-7848	6600	6	-1	-7	1952	-3896	16760	22	-1	9	-2032	6744	14384	-18	14	-19	-13000	7392	7776	10	-6	14	672	3240	16616	7	-8	25	127	138	12
-4568	-7904	14032	3	-11	-24	-12344	-7992	6752	2	1	-11	1680	-3712	16608	30	0	12	-2112	6616	14736	-19	16	-31	-13248	7424	7616	4	-1	18	688	3136	16792	-5	-10	20	127	138	12
-4372	-7540	14156	14	-17	-21	-12368	-8080	6824	-11	3	-8	1568	-3888	16160	14	9	8	-2064	6696	14272	-3	16	-24	-13288	7160	7768	10	1	9	680	3048	16440	4	-10	14	127	138	12
-4276	-7572	14044	5	-4	-21	-12184	-7800	6624	6	-2	0	1720	-3952	16216	21	4	6	-2120	6744	14536	-10	15	-28	-13080	7312	7392	24	-12	23	664	2944	16680	6	-14	21	127	137	12
-4464	-7892	13976	13	-13	-18	-12288	-8072	6672	-2	-7	-1	1696	-3928	16504	24	-3	6	-2256	6576	14512	-20	19	-30	-13336	7392	7712	3	4	21	400	3168	16664	0	-20	20	127	137	12
-4324	-7464	14212	17	-19	-15	-12568	-7920	6848	-9	-5	6	1608	-3872	16416	17	-4	3	-1984	6616	14384	-4	15	-24	-13176	7240	7608	-2	2	12	456	3024	16464	4	-20	22	127	138	12
-4468	-7760	14080	9	-17	-26	-12296	-7776	6576	9	-1	5	1664	-3896	16352	31	-8	4	-2144	6696	14544	-8	16	-26	-13200	7408	7416	15	-8	22	448	3272	16664	4	-28	20	127	137	12
-4500	-7816	14088	18	-14	-16	-12472	-8064	6640	3	-8	3	1528	-3736	16448	30	-8	5	-2168	6632	14512	-6	17	-25	-13384	7328	7528	7	-5	21	624	3104	16960	7	-18	16	127	139	12
-4256	-7472	14196	16	-12	-20	-12360	-7832	6776	-2	-5	4	1704	-3728	16400	22	-3	-2	-2080	6672	14496	2	16	-21	-12968	7408	7360	23	-8	21	728	3016	16696	8	-13	13	126	139	12
-4544	-7776	14024	9	-10	-22	-12192	-7912	6776	13	1	2	1840	-3760	16384	28	2	4	-2256	6688	14696	-12	13	-24	-13064	7600	7512	18	-13	29	536	3240	16360	9	-15	10	127	138	12
-4480	-7756	14240	18	-12	-17	-12624	-7912	6800	-5	-6	-5	1488	-3880	16424	25	3	3	-2064	6648	14568	-10	16	-24	-13256	7576	7792	2	-4	23	392	3360	16608	9	-14	17	127	139	12
-4248	-7424	14212	8	-12	-20	-12408	-7872	6880	4	-9	3	1720	-3912	16456	17	-2	1	-2024	6728	14528	2	18	-24	-13168	7448	7552	6	-8	16	696	3184	16392	12	-18	15	127	138	12
-4532	-7948	14032	4	-11	-23	-12328	-7744	6680	6	-3	0	1896	-3672	16688	27	-3	4	-2160	6672	14448	-14	14	-27	-13144	7464	7704	12	-13	25	680	3192	16720	2	-22	18	127	138	12
-4396	-7688	14212	15	-16	-17	-12368	-7936	6904	-14	-8	-9	1704	-3672	16736	22	0	13	-2056	6600	14760	-4	14	-25	-13152	7464	7456	8	-5	20	440	3248	16432	2	-17	18	127	138	12
-4264	-7424	14100	3	-9	-21	-12368	-7720	6776	1	-7	0	1760	-3864	16144	20	5	6	-2192	6888	14424	-6	18	-26	-13032	7464	7520	20	-8	21	784	3240	16560	11	-16	16	127	138	12
-4580	-7940	13888	4	-14	-18	-12160	-8048	6792	7	-3	2	1712	-3832	16416	28	0	7	-2192	6768	14392	-19	21	-27	-13120	7576	7656	4	-8	21	496	3176	16504	7	-15	23	127	138	12
-4448	-7580	14328	15	-16	-14	-12632	-7760	6736	-1	-4	-8	1600	-3744	16320	19	1	10	-2128	6584	14440	-12	12	-24	-13144	7360	7672	2	7	12	432	3240	16760	8	-18	22	127	138	12
-4352	-7432	14148	3	-12	-22	-12312	-7808	6656	7	-7	0	1632	-3800	16440	22	-4	4	-2328	6632	14624	-12	17	-21	-13064	7464	7568	13	-8	17	448	3192	16648	8	-21	22	127	138	12
-4616	-7992	14004	12	-19	-19	-12304	-7968	6872	-4	-6	-6	1680	-3688	16400	32	-9	9	-2176	6544	14424	-21	16	-29	-13456	7496	7504	2	-4	15	440	3176	16608	2	-21	18	127	138	12
-4288	-7492	14304	13	-11	-18	-12496	-7952	6928	-20	-6	-5	1592	-3680	16376	16	-3	7	-1968	6720	14224	0	18	-20	-12936	7192	7528	8	-2	12	672	3144	16552	5	-14	18	127	139	12
-4412	-7540	14068	3	-3	-25	-12120	-7816	6568	2	-1	3	1832	-3664	16352	20	6	2	-2256	6744	14384	-15	19	-22	-13176	7464	7504	30	-13	22	640	3200	16624	6	-18	13	127	137	12
-4540	-7956	14040	12	-18	-20	-12136	-7928	6648	7	-5	-2	1712	-3720	16384	17	2	1	-2232	6464	14424	-22	20	-30	-13344	7472	7648	3	-3	22	416	3280	16824	-2	-17	12	127	138	12
-4312	-7500	14280	9	-12	-21	-12680	-7936	6920	6	-1	-3	1744	-3808	16720	10	-2	0	-1920	6496	14632	-7	23	-23	-13192	7448	7520	1	-2	13	656	3128	16488	5	-18	14	126	139	12
-4484	-7752	14108	-3	-9	-24	-12088	-7816	6784	15	1	-2	1640	-3896	16624	11	5	3	-2160	6752	14472	-16	27	-32	-13104	7592	7576	9	-8	20	640	3344	16664	-3	-19	16	127	137	12
-4516	-7824	14104	3	-11	-19	-12432	-7888	6624	-7	-5	-6	1704	-3696	16592	22	-5	9	-2032	6472	14512	-10	22	-28	-13288	7416	7576	-9	3	20	616	3144	16704	-2	-21	22	126	138	12
-4216	-7472	14180	-5	-14	-18	-12464	-8064	6592	-3	2	-11	1672	-3808	16192	14	-3	5	-2200	6688	14456	-9	20	-22	-13032	7256	7592	10	-4	13	840	3120	16528	9	-14	19	127	138	12
-4508	-7880	13996	-9	-10	-20	-12056	-7840	6448	13	1	-1	1720	-3856	16432	30	0	6	-2304	6768	14080	-22	16	-27	-13024	7456	7616	20	-6	24	664	2984	16680	4	-14	19	127	138	12
-4472	-7760	14128	9	-19	-17	-12584	-7928	6568	-5	-3	-5	1752	-3848	16672	21	-2	8	-2112	6736	14640	-10	14	-30	-13304	7272	7624	10	8	20	488	3032	16616	7	-12	22	127	138	12
-4208	-7444	14216	11	-12	-22	-12424	-7952	6744	1	-2	4	1584	-3944	16264	23	-3	10	-2184	6760	14416	-10	16	-23	-13064	7272	7680	14	-4	20	576	3040	16576	10	-14	21	127	138	12
-4560	-7944	14068	5	-10	-27	-12288	-7912	6800	3	-5	-4	1488	-3800	16496	32	-7	14	-2200	6760	14696	-19	16	-21	-13272	7432	7672	8	-5	19	552	3064	16872	6	-18	22	127	137	12
-4424	-7644	14192	18	-14	-21	-12432	-8048	6928	-9	-8	-4	1552	-3768	16448	24	-5	7	-2104	6592	14536	5	10	-16	-13264	7208	7368	6	-4	18	584	3000	16544	9	-18	16	127	138	12
-4264	-7536	14096	11	-12	-21	-12168	-7856	6904	10	-7	6	1832	-3912	16312	25	3	1	-2152	6752	14208	-1	17	-21	-12936	7376	7432	29	-14	22	648	3152	16440	17	-17	16	127	137	12
-4608	-8048	14064	21	-16	-20	-12144	-7992	6600	5	-4	4	1744	-3648	16472	30	4	0	-2152	6632	14256	-11	18	-25	-12984	7408	7616	32	-19	23	520	3272	16648	10	-14	8	127	137	12
-4328	-7636	14272	25	-20	-15	-12456	-7920	6752	-5	-3	1	1568	-3640	16600	13	0	3	-1984	6792	14624	-3	12	-22	-13312	7256	7768	6	-4	25	512	3200	16688	11	-19	11	127	139	12
-4356	-7592	14132	12	-14	-24	-12424	-7736	6776	5	-5	3	1712	-3760	16592	27	2	-1	-2064	6624	14392	-7	15	-26	-13064	7448	7680	20	-11	26	544	3272	16824	-2	-21	9	127	138	12
-4552	-7964	14076	13	-13	-24	-12368	-7920	6712	-4	-11	-3	1688	-3648	16568	29	-3	8	-2240	6720	14448	-11	13	-26	-13336	7464	7784	5	-4	23	552	3384	16704	-1	-23	15	127	138	12
-4284	-7504	14180	18	-13	-19	-12456	-7808	6744	-11	-7	-3	1760	-3672	16432	18	-2	8	-2040	6808	14360	-5	16	-21	-12992	7520	7704	12	-1	14	720	3456	16528	3	-21	16	127	138	12
-4468	-7672	14016	3	-12	-27	-12192	-7832	6624	5	-3	1	1800	-3592	16416	23	2	7	-2256	6920	14400	-12	19	-26	-12960	7496	7744	14	-11	17	704	3256	16872	11	-18	24	127	138	12
-4552	-7868	13984	16	-21	-14	-12352	-7952	6768	-3	-2	-13	1480	-3704	16728	20	3	7	-2072	6616	14552	-21	17	-25	-13232	7368	7560	-3	2	13	408	3160	16608	7	-12	22	127	139	12
-4264	-7476	14136	10	-9	-22	-12384	-7792	6768	0	-2	-7	1752	-3752	16424	12	3	2	-2112	6632	14776	-10	20	-29	-13144	7352	7584	7	-1	9	552	3080	16600	9	-17	18	127	138	12
-4520	-7796	14040	3	-7	-23	-12400	-7856	6696	4	-7	-7	1808	-3728	16672	32	-3	7	-2264	6816	14760	-20	18	-26	-13232	7376	7488	19	-11	17	656	3184	16576	-4	-24	15	127	138	12
-4520	-7796	14104	10	-14	-16	-12544	-8016	6664	-12	-3	-9	1552	-3816	16680	16	-4	12	-2176	6480	14400	-11	20	-26	-13392	7432	7600	1	1	15	616	3176	16480	-7	-18	17	127	139	12
-4228	-7444	14164	7	-9	-25	-12344	-7840	6904	-4	-1	-5	1808	-3888	16280	20	4	6	-2040	6872	14240	-5	22	-20	-13008	7552	7624	21	-8	12	608	3064	16472	6	-17	18	127	138	12
-4560	-7928	14008	1	-15	-25	-12112	-7896	6600	12	-3	-5	1632	-3696	16432	26	-1	10	-2168	6768	14600	-27	18	-25	-13448	7432	7672	2	-5	19	584	3024	16696	5	-19	16	127	138	12
-4436	-7760	14264	13	-12	-19	-12568	-7928	6848	-6	-3	-11	1608	-3840	16584	17	-4	12	-2112	6480	14592	-9	18	-20	-13344	7264	7680	-4	9	17	664	3048	16464	10	-19	20	127	138	12
-4304	-7416	14144	9	-7	-22	-12328	-7872	6808	2	-2	-4	1656	-3848	16304	23	0	4	-2208	6840	14520	-7	19	-21	-13120	7280	7400	15	-7	19	664	3080	16624	7	-19	19	128	138	12
-4612	-7980	14076	8	-16	-22	-12408	-8032	6600	3	-4	-1	1608	-3704	16528	33	-6	8	-2240	6656	14544	-11	16	-24	-13264	7440	7520	13	-5	20	536	3200	16904	4	-19	14	127	138	12
-4360	-7604	14264	17	-13	-15	-12568	-7952	6592	-9	-6	-1	1720	-3808	16168	18	4	1	-2056	6568	14336	-2	13	-20	-13112	7440	7688	14	-8	17	608	3120	16176	7	-16	19	127	138	12
-4272	-7548	14052	4	-6	-21	-12184	-7736	6656	11	-6	4	1768	-3848	16560	21	5	1	-2008	6696	14360	-10	12	-24	-13008	7472	7744	28	-17	24	744	3160	16624	11	-20	14	127	138	12
-4476	-7928	14064	16	-17	-21	-12432	-7976	7008	1	-5	-4	1640	-3608	16496	28	3	6	-2128	6680	14384	-15	19	-27	-13184	7512	7616	0	-2	24	656	3224	16656	7	-16	16	126	139	12
-4284	-7552	14216	18	-14	-18	-12648	-8056	6888	-7	-7	2	1640	-3688	16280	14	-1	2	-1968	6544	14520	-3	16	-21	-13024	7432	7848	-1	0	14	568	3168	16504	8	-18	13	126	138	12
-4440	-7608	14120	8	-16	-20	-12224	-7776	6776	11	-5	-1	1720	-3744	16432	23	-1	3	-2200	6920	14480	-14	16	-27	-13080	7616	7720	14	-10	26	568	3192	16680	6	-20	18	127	138	12
-4596	-7816	14112	13	-16	-22	-12352	-7912	6632	-6	-8	-4	1528	-3616	16456	29	-5	9	-2160	6504	14504	-11	14	-30	-13320	7456	7640	4	-1	20	488	3112	16696	-3	-19	16	127	139	12
-4268	-7452	14160	9	-11	-23	-12384	-7720	6792	-7	0	-5	1800	-3864	16272	19	1	9	-1936	6648	14208	-2	13	-26	-12944	7280	7504	14	-3	7	1048	3248	16576	1	-18	18	127	138	12
-4472	-7744	14004	0	-8	-27	-12128	-7856	6624	5	-4	1	1840	-3632	16480	31	0	7	-2184	6840	14328	-20	14	-25	-13112	7416	7512	27	-12	21	720	3240	16928	0	-14	18	127	138	12
-4488	-7800	14116	9	-19	-18	-12472	-8128	6672	-7	-5	-14	1800	-3872	16616	20	-5	12	-2208	6592	14536	-21	14	-26	-13400	7424	8056	-4	4	20	512	3256	16536	-1	-15	17	127	138	12
-4188	-7464	14152	10	-9	-19	-12432	-7872	6784	0	-4	-8	1640	-3912	16488	18	1	8	-2016	6736	14312	-10	16	-25	-13056	7272	7656	10	-1	15	472	3152	16808	3	-17	14	127	138	12
-4508	-7844	14016	1	-8	-24	-12192	-7920	6776	9	2	-2	1664	-3768	16496	33	-4	10	-2312	6680	14584	-20	18	-27	-13176	7592	7720	6	-7	20	544	3192	16760	1	-21	23	127	137	12
-4564	-7900	14156	3	-14	-23	-12520	-7952	6752	-14	-4	-5	1696	-3760	16320	20	-3	8	-2096	6648	14464	-10	17	-22	-13232	7456	7584	-2	4	7	600	3128	16512	3	-18	19	127	138	12
-4252	-7444	14180	10	-13	-22	-12360	-7952	6944	-7	-5	1	1928	-3912	16248	16	3	4	-2032	6696	14640	-8	13	-22	-12872	7232	7584	18	-7	16	712	3104	16456	13	-11	18	127	137	12
-4424	-8012	14212	3	-14	-20	-12136	-8176	6520	-1	-2	-1	1832	-3912	16280	25	1	4	-1824	6552	14728	-21	14	-31	-13176	7392	7752	7	-16	26	736	3128	16648	12	-12	16	127	138	12
-4124	-8012	14348	19	-20	-21	-12488	-8024	6984	-17	-10	-17	1888	-3776	16432	16	5	3	-1472	6536	14560	7	2	-17	-13232	7160	7880	17	-9	13	824	2992	16400	13	-13	12	127	138	12
-3780	-7476	14368	8	-14	-31	-11920	-7816	6960	-7	-19	-12	2208	-3880	16096	26	13	-2	-1520	6720	14280	5	5	-17	-12728	7416	8096	28	-34	25	872	2776	16168	21	-8	2	128	137	12
-4108	-7980	13976	5	-22	-31	-12032	-8000	7232	0	-22	-17	2104	-3760	16496	45	1	-1	-1712	6584	14232	-8	6	-22	-12832	7368	8096	4	-30	36	1056	3248	16360	26	-18	7	127	138	12
-3908	-7756	14052	15	-21	-29	-11984	-8096	7000	-6	-18	-18	2168	-3664	16256	29	3	2	-1328	6600	14464	3	0	-14	-12880	7400	8080	27	-19	22	1200	3296	16624	32	-22	7	127	139	12
-3724	-7820	14236	-1	-24	-31	-11840	-8120	7512	0	-20	-10	2280	-3688	16584	33	-6	-2	-1472	6816	14312	-10	4	-18	-12960	7744	8440	22	-32	30	1264	3336	16664	19	-34	7	127	138	12
-4108	-7984	14092	13	-22	-16	-12152	-8192	7192	-2	-16	-24	2120	-3736	16616	34	-11	1	-1832	6440	14480	-9	5	-18	-13048	7456	7776	-16	-11	26	1368	3432	16848	7	-28	9	126	139	12
-3768	-7588	14284	17	-24	-19	-12016	-7904	7272	7	-6	-10	2360	-3736	16200	20	-8	0	-1312	6792	14568	7	6	-16	-12792	7264	8312	26	-7	15	1168	3376	16552	10	-28	11	127	138	12
-3728	-7888	14112	2	-18	-29	-11944	-8216	7336	3	-12	0	2408	-3744	16488	23	-15	1	-1720	6896	14344	-7	15	-23	-12688	7488	8088	14	-22	28	1248	3544	16584	7	-27	16	126	137	12
-4092	-7660	13844	15	-17	-11	-12104	-8000	6920	10	-5	2	2136	-3848	16584	13	-12	6	-1592	6656	14344	-11	22	-22	-12864	7416	8208	1	0	24	984	3432	16512	5	-26	26	126	137	12
-3732	-7660	14300	6	-19	-17	-11912	-7952	7048	0	-3	20	2256	-3768	16304	6	-9	1	-1320	7080	14592	-8	20	-20	-12848	7336	8352	22	0	4	1144	3448	16616	14	-29	31	127	137	12
-4032	-7960	14040	3	-16	-13	-11944	-8032	7376	9	-9	4	2152	-3872	16400	19	-12	2	-1920	6816	14520	-25	32	-32	-12968	7656	8024	-26	-2	20	920	3384	16776	-1	-31	37	127	136	12
-4148	-7752	14148	10	-16	-13	-12176	-7800	6896	21	5	0	1888	-3680	16632	15	-11	2	-1544	6584	14880	-21	22	-27	-13056	7200	8088	-12	16	7	936	3304	16560	1	-28	40	127	138	12
-3644	-7684	14496	-9	-15	-20	-12024	-7936	7320	-7	-1	9	2256	-3696	16528	24	-6	3	-1608	6896	14720	-16	16	-24	-13064	7464	8088	40	-7	5	912	3208	16544	-1	-24	31	127	138	12
-4264	-8020	14056	-6	-17	-19	-12088	-8120	6896	-8	-15	-14	2144	-3568	16568	31	-10	9	-2120	6512	14376	-20	19	-26	-13000	7408	7656	-8	-9	26	960	3392	16472	7	-20	23	127	139	12
-4008	-7544	14108	4	-18	-23	-12176	-8040	6920	9	2	-10	2088	-3808	16488	23	-5	11	-1400	6728	14712	-8	8	-24	-13096	7256	8160	25	-1	14	1016	3240	16504	10	-18	18	127	139	12
-3880	-7956	14448	-3	-19	-28	-12032	-8096	7304	-10	-11	-2	2376	-3664	16568	32	1	9	-1672	6816	14536	-14	15	-27	-13048	7488	8160	17	-15	24	1072	3232	16872	6	-17	13	127	138	12
-4500	-7888	14084	15	-17	-24	-12296	-8176	7032	0	-12	-23	1904	-3952	16952	35	-5	7	-2176	6680	14616	-16	13	-25	-13208	7496	7816	-23	-3	26	888	3304	16856	-2	-11	10	126	139	12
-3856	-7696	14400	10	-13	-26	-12280	-8040	7000	-3	1	-1	2168	-3912	16368	20	0	7	-1432	6728	14800	6	6	-16	-13184	7192	8320	28	-5	13	1104	3240	16728	7	-18	9	127	139	12
-4024	-8136	14392	1	-11	-29	-12136	-8208	7256	-8	-11	-4	2168	-3896	16552	30	1	3	-2104	7008	14752	-5	17	-27	-12968	7608	7816	8	-23	24	1072	3328	16776	-2	-16	4	127	138	12
-4396	-7772	14020	19	-12	-20	-12208	-8160	6808	13	2	-10	2064	-3640	16608	14	-1	0	-1664	6608	14728	-9	11	-25	-13016	7368	7992	6	-3	24	848	3472	16744	3	-15	5	127	138	12
-3620	-7796	14540	14	-19	-23	-12200	-8024	7280	-2	-2	7	2248	-3832	16608	9	6	-4	-1264	7040	14736	-5	12	-21	-13048	7400	8328	36	-11	4	1168	3432	16680	15	-18	16	127	139	12
-4112	-8176	14140	11	-15	-23	-12128	-8056	7152	-9	-11	-9	2024	-3688	16688	23	0	1	-2224	6736	14400	-17	22	-31	-12816	7832	7600	-24	-11	18	960	3464	17032	4	-14	18	127	138	12
-4304	-7644	14028	20	-15	-16	-12312	-7968	6736	12	7	-6	1904	-3696	16416	11	-1	2	-1648	6648	14456	-15	15	-22	-13024	7336	7856	-1	10	10	888	3288	16720	6	-17	24	127	139	12
-3648	-7700	14520	4	-13	-27	-11976	-7816	6864	-14	-5	11	2112	-3896	16296	13	3	3	-1512	6776	14912	-14	16	-23	-12888	7240	7928	33	-8	0	1128	3200	16416	9	-14	28	127	137	12
-3656	-7908	14480	3	-9	-28	-12048	-8152	7096	-7	-7	-18	2208	-3856	16376	23	0	1	-1984	6544	14136	-26	23	-32	-12816	7408	7712	-15	-5	23	1024	3200	16536	3	-11	24	127	138	12
-3976	-7544	14036	16	-13	-22	-12192	-7776	7016	8	0	-7	2160	-3680	16400	12	8	4	-1416	6648	14520	-9	13	-28	-13040	7016	7952	21	6	8	992	3112	16240	9	-15	24	127	138	12
-3648	-7844	14368	7	-11	-23	-11840	-7848	7400	-15	-8	2	2256	-3936	16328	27	1	7	-1784	6800	14440	-16	20	-24	-12728	7392	7848	16	-9	16	1072	3168	16512	12	-12	21	127	137	12
-4284	-7704	13884	15	-16	-16	-12192	-7960	6872	5	-11	-19	1920	-3816	16312	32	-4	13	-2008	6528	14496	-16	19	-27	-12920	7368	7784	-24	9	27	848	3096	16624	0	-12	20	127	138	12
-3956	-7388	14236	11	-11	-19	-12176	-7816	6872	0	1	7	2144	-3736	16280	30	-4	13	-1312	6800	14584	-1	15	-17	-13184	6984	8240	30	2	17	1016	3096	16608	13	-18	18	127	138	12
-3844	-7964	14440	0	-15	-24	-12216	-8096	7224	-17	-16	10	2232	-3968	16320	45	-10	15	-1824	6696	14360	-5	24	-23	-12904	7432	7952	14	-16	30	1016	3152	16784	13	-17	18	127	137	12
-4380	-7768	13864	20	-13	-16	-12168	-8248	6904	24	-7	-5	2120	-3752	16600	36	-4	9	-1824	6664	14512	-2	18	-20	-12952	7496	7872	9	-7	34	952	3208	16696	10	-16	10	127	138	12
-3692	-7736	14412	15	-18	-21	-12088	-7992	6984	10	-1	18	2200	-3784	16440	29	6	1	-1280	6776	14744	-1	16	-13	-13016	7528	8136	38	-15	21	968	3448	16688	20	-21	11	127	138	12
-3996	-8124	14228	9	-17	-17	-12032	-7968	7464	3	-14	-2	2112	-3520	16280	35	-1	4	-1976	6696	14568	-6	20	-29	-12976	7552	8304	40	-15	22	1072	3576	16816	12	-16	13	126	137	12
-4180	-7600	14128	21	-17	-16	-12248	-7824	7072	17	2	4	1960	-3592	16536	17	1	1	-1448	6624	14592	-3	11	-21	-12992	7440	8368	10	0	17	1072	3632	16680	5	-17	12	127	138	12
-3700	-7804	14548	5	-18	-24	-12216	-7928	7496	-20	-8	12	2168	-3504	16384	21	-1	-3	-1592	6992	14728	-10	14	-22	-13040	7648	8376	33	-13	9	1152	3616	16784	8	-21	13	127	138	12
-4196	-7904	14080	10	-12	-16	-12256	-8032	7088	-9	-15	-16	2128	-3640	16800	16	-5	0	-2088	6576	14536	-21	19	-25	-12792	7512	7744	-15	-7	19	1024	3536	16848	-2	-23	19	127	137	12
-3924	-7632	14284	6	-15	-20	-12208	-7744	7088	5	5	1	2096	-3680	16616	3	1	-2	-1320	6784	14520	-11	10	-27	-12960	7456	8320	18	3	2	1112	3424	16560	-3	-21	18	127	138	12
-3864	-7940	14360	-4	-12	-26	-12016	-7912	7232	-15	-6	0	2256	-3576	16480	10	8	7	-1752	6880	14224	-22	18	-30	-12904	7640	8096	3	-2	0	1120	3480	16584	-3	-21	19	127	138	12
-4284	-7756	14000	7	-5	-19	-12256	-7936	6936	12	0	-27	1888	-3688	16416	11	-3	8	-1904	6656	14272	-24	19	-33	-13088	7376	7656	-25	14	4	784	3352	16440	-7	-18	23	127	139	12
-3844	-7564	14272	0	-11	-27	-12400	-7920	7016	-8	10	-3	2096	-3848	16224	10	-1	10	-1368	6696	14800	-17	15	-29	-12976	7272	8168	23	8	-4	1072	3176	16392	-1	-17	27	127	138	12
-4032	-8004	14260	-2	-6	-30	-12200	-8072	7304	-20	-10	-13	1984	-3928	16632	26	-3	11	-2144	6744	14400	-29	24	-31	-12928	7464	7704	-12	-3	7	1000	3192	16472	-9	-17	22	127	138	12
-4280	-7672	14064	6	-11	-26	-12248	-8176	6528	5	4	-23	2016	-3928	16360	22	-3	14	-1656	6576	14376	-19	13	-28	-13072	7064	7984	-1	9	8	960	3000	16320	-5	-16	22	127	138	12
-3736	-7840	14432	-9	-7	-29	-12192	-8200	6856	-13	-5	-4	2168	-4104	16336	23	0	10	-1512	6704	14560	-21	20	-25	-13024	7248	8152	32	-7	8	936	2984	16368	8	-22	21	127	138	12
-4204	-7920	13948	5	-7	-18	-12128	-8288	7016	-2	-8	-22	2240	-4048	16528	25	0	6	-2056	6480	14208	-13	18	-32	-12888	7336	7640	-18	-9	25	816	3040	16504	3	-11	17	127	138	12
-3996	-7636	14200	17	-16	-19	-12000	-8208	6984	13	5	-7	2152	-4152	16320	16	4	3	-1512	6720	14712	-3	9	-17	-13072	7168	8112	34	-5	15	992	2968	16344	17	-17	18	128	138	12
-3840	-8152	14388	8	-15	-20	-12008	-8144	7464	-22	-18	-2	2256	-4024	16392	30	1	2	-1584	6800	14536	-7	19	-23	-13104	7384	8048	14	-18	29	1152	3096	16784	15	-15	12	127	138	12
-4280	-7776	13952	20	-14	-14	-12192	-8200	7008	1	-12	-13	1992	-3904	16384	27	-6	2	-1960	6512	14496	2	15	-22	-12920	7264	7760	-11	-2	36	888	3216	16576	9	-15	10	127	138	12
-3736	-7696	14352	16	-17	-18	-12184	-7936	7088	4	-4	17	2328	-3864	16376	29	3	1	-1360	6760	14560	4	10	-19	-12968	7288	8128	42	-9	20	1176	3312	16536	17	-16	12	127	138	12
-4072	-8080	14140	16	-25	-16	-12008	-8232	7464	-5	-13	1	2208	-3608	16544	34	0	0	-1896	6688	14360	-11	23	-24	-12904	7584	7896	-3	-12	35	864	3416	16784	7	-15	14	126	137	12
-4188	-7604	14004	25	-19	-12	-12168	-7968	7048	23	1	-1	2080	-3688	16472	24	-1	3	-1616	6448	14432	4	13	-22	-12864	7168	8384	7	5	26	888	3480	16608	18	-14	13	127	137	12
-3760	-7836	14488	12	-11	-24	-11864	-7832	7104	-2	-1	21	2160	-3552	16488	33	-5	3	-1600	6944	14528	0	13	-20	-13048	7400	8080	33	-16	20	928	3496	16568	13	-20	18	127	138	12
-4300	-7940	13976	15	-18	-14	-12240	-8112	7176	6	-13	-2	2008	-3512	16600	31	-5	6	-2064	6608	13984	-11	24	-25	-12816	7656	7696	-14	-2	31	928	3520	16416	7	-17	21	126	138	12
-3868	-7412	14020	18	-12	-19	-12208	-7792	6880	18	1	2	2016	-3568	16240	23	-2	3	-1224	6944	14720	-2	14	-23	-13096	7352	8160	25	3	12	1016	3408	16464	17	-20	27	127	138	12
-3832	-8092	14432	3	-17	-24	-12160	-8032	7192	-13	-13	7	2208	-3632	16648	35	-7	7	-1800	6984	14400	-13	21	-26	-13024	7624	7904	4	-8	16	952	3480	16728	8	-20	24	127	137	12
-4224	-7684	14100	13	-11	-20	-12328	-7920	6856	1	-2	-21	1984	-3528	16440	24	2	9	-1720	6464	14584	-10	13	-23	-12768	7328	8064	-5	0	15	832	3560	16392	14	-12	19	127	138	12
-3600	-7728	14376	1	-9	-27	-11888	-8000	7176	-6	-8	1	2208	-3680	16360	21	6	1	-1408	7096	14712	-8	13	-22	-13040	7424	8280	36	-14	9	1320	3368	16536	13	-21	16	128	138	12
-3824	-8092	14128	1	-14	-23	-12072	-8152	7416	-4	-17	-12	2384	-3608	16728	25	1	3	-1680	6528	14456	-16	16	-27	-12848	7440	8144	-5	-9	22	1040	3352	16696	5	-14	9	128	137	12
-3652	-7464	14164	5	-11	-22	-12112	-7744	7032	9	-6	-18	2184	-3792	16168	10	3	1	-1256	6664	14464	-2	16	-20	-12904	7272	8424	18	-6	14	1344	3304	16392	10	-23	9	128	138	12
-3744	-7964	14500	-4	-16	-31	-11864	-8048	7496	-5	-12	-8	2616	-3640	16536	22	0	2	-1256	6888	14608	-20	21	-24	-12920	7616	8520	9	-15	18	1344	3344	16736	0	-22	9	128	138	12
-3796	-7900	14160	0	-15	-22	-12152	-8256	7384	-5	-11	-27	2344	-3776	16488	17	-8	7	-1472	6176	14480	-10	14	-26	-12784	7376	8024	-23	-4	12	1272	3288	16496	-1	-23	13	127	138	12
-3672	-7752	14388	-18	-18	-28	-11656	-8000	7160	2	-2	-1	2600	-4048	16472	12	-4	9	-1128	7152	14664	-11	13	-21	-12752	7432	8600	30	-11	11	1608	3296	16696	-4	-22	16	127	138	12
-3616	-8224	14272	-11	-16	-27	-12080	-8536	7200	-15	-18	-13	2568	-3928	16264	22	-6	12	-1360	6152	14392	-13	10	-23	-12784	7288	8360	-7	-8	17	1576	3248	16712	2	-24	15	127	138	12
-3552	-7612	14192	3	-13	-19	-11656	-8040	7208	3	-9	-12	2664	-3832	16208	14	3	11	-1104	7112	14560	-1	8	-15	-12408	7296	8352	23	-2	12	1528	3248	16624	11	-20	23	127	139	12
-3464	-8256	14328	6	-20	-28	-11656	-8328	7464	-4	-7	-1	2624	-3944	16184	28	-1	7	-984	6592	14784	-20	10	-24	-12880	7416	8888	11	-7	26	1520	3472	16464	12	-19	20	126	138	12
-3432	-7832	14032	18	-10	-23	-11824	-8040	7312	-4	-16	-14	2680	-3728	16256	17	4	4	-1160	6808	14584	-6	15	-23	-12624	7288	8240	8	-6	14	1552	3416	16616	19	-15	24	127	138	12
-3464	-8160	14456	15	-30	-23	-11632	-8240	7568	8	-12	2	2752	-3984	16680	30	3	-11	-800	6776	15064	-18	4	-23	-13120	7312	8816	16	-20	25	1360	3376	16688	11	-21	23	127	138	12
-3256	-7964	14340	25	-17	-16	-11856	-8224	7488	-9	-23	-9	2712	-3872	16144	30	6	-9	-1200	6472	14592	0	12	-17	-12352	7152	8600	6	-20	14	1536	3496	16360	22	-19	23	127	138	12
-3372	-7920	14348	11	-24	-27	-11320	-8176	7504	9	-14	3	2800	-3880	16312	39	9	-17	-656	6944	14896	-12	0	-14	-12600	7352	8880	29	-27	20	1768	3312	16320	18	-29	18	127	138	12
-3016	-7956	14344	20	-20	-22	-11776	-8088	7840	-17	-34	-3	2824	-3856	16360	39	4	-18	-792	6600	14520	-3	5	-18	-12440	7072	8544	3	-21	20	1976	3448	16312	31	-22	18	127	138	12
-3136	-8164	14372	4	-17	-30	-11504	-7984	7856	-19	-25	-11	2960	-3568	16336	32	0	-2	-408	6832	14896	-1	-4	-12	-12584	7168	9136	33	-38	22	1936	3416	16624	24	-25	15	127	137	12
-2904	-7928	14436	18	-22	-26	-11568	-8248	8160	-37	-43	-16	3248	-3552	16440	38	1	-2	-584	6808	14752	3	0	-12	-12352	7160	9168	18	-36	32	2200	3544	16504	28	-20	4	127	138	12
-3016	-8404	14324	-1	-21	-35	-11496	-8320	7856	-20	-30	-18	3264	-3760	16432	31	4	5	-336	6720	14824	13	4	-7	-12544	7128	9104	28	-38	22	2192	3536	16576	22	-26	10	127	138	12
-2816	-7936	14580	8	-25	-29	-11656	-8328	8560	-13	-34	-16	3480	-3976	16672	33	3	5	-408	6896	14944	3	-4	-13	-12464	7408	9264	31	-46	31	2336	3448	16768	20	-31	-3	127	139	12
-2656	-8404	14308	5	-15	-29	-11216	-8440	8184	-2	-37	-19	3112	-3808	16632	65	-45	-11	-384	6568	14840	14	11	-4	-12408	7096	9360	19	-35	24	2320	3640	16544	26	-33	1	126	138	12
-2756	-8136	14500	-9	-17	-30	-11264	-8528	8184	-3	-44	-16	3488	-3736	16320	24	-5	-2	-400	6832	14584	8	0	-7	-12552	7368	9400	40	-37	23	2488	3704	16824	16	-42	-5	126	139	12
-2724	-8132	14360	6	-14	-21	-11448	-8536	8264	4	-19	-20	3464	-3920	16400	25	-3	-9	-232	6576	14808	8	6	-9	-12200	7264	9296	19	-29	23	2576	3776	16688	14	-30	-2	127	139	12
-2700	-8368	14372	-2	-20	-27	-11160	-8512	8328	4	-12	-9	3528	-3848	16600	27	-11	-5	-392	6976	14528	12	10	-7	-12176	7560	9104	14	-24	21	2576	3776	16544	10	-31	6	127	139	12
-2680	-7944	14568	5	-25	-25	-11472	-8424	8304	-3	-13	-11	3432	-3816	16400	20	-8	2	-168	6616	14784	-7	5	-23	-12032	7464	9296	12	-16	23	2416	3744	16456	12	-25	18	127	139	12
-2568	-8272	14340	8	-19	-26	-11304	-8328	8448	-18	-16	-4	3624	-3888	16352	24	-7	1	-336	7072	14856	-9	9	-25	-12176	7440	9256	14	-9	17	2480	3496	16672	15	-22	23	127	138	12
-2648	-8372	14428	0	-12	-27	-11192	-8584	8120	-8	-13	-2	3560	-3912	16600	28	-8	7	-192	6488	14368	-10	13	-26	-12432	7120	9320	-3	-4	19	2472	3816	16632	12	-22	23	127	138	12
-2660	-8064	14300	11	-16	-18	-11000	-8424	8200	2	-7	-1	3608	-4064	16184	16	4	-1	-152	6936	14672	-15	9	-26	-12256	7264	9664	31	-11	20	2568	3552	16488	11	-23	28	127	138	12
-2532	-8404	14368	17	-20	-18	-11160	-8528	8272	11	-5	1	3608	-3880	16104	23	-4	-5	-200	6880	14728	-9	19	-23	-12368	7144	9240	8	-11	13	2488	3696	16392	18	-22	21	127	138	12
-2572	-8116	14484	12	-23	-22	-11360	-8248	8296	18	-2	-2	3440	-3800	16336	25	4	-3	-40	6768	14760	-11	12	-24	-12392	7280	9584	12	-10	15	2472	3712	16704	12	-23	23	128	138	12
-2500	-8056	14336	18	-16	-22	-11384	-8432	8232	-7	-18	-3	3440	-3888	16088	29	3	-3	-80	6720	14824	-11	11	-23	-12176	7384	9240	7	-17	21	2400	3696	16512	8	-18	17	127	138	12
-2512	-8484	14516	11	-13	-23	-11128	-8512	8272	-1	-9	-7	3744	-3800	16240	31	-4	2	-208	6512	14944	-12	5	-21	-12336	7120	9472	13	-15	15	2584	3728	16264	8	-20	17	128	139	12
-2484	-8040	14500	3	-12	-24	-11064	-8272	8344	-24	-16	-6	3592	-3664	16032	29	-2	6	-40	6656	14848	-6	6	-15	-12240	7272	9608	19	-11	14	2736	3552	16304	12	-17	15	127	138	12
-2388	-8160	14388	9	-14	-21	-11072	-8352	8496	-14	-11	-5	3808	-3960	16264	29	5	6	-104	6768	14752	-3	11	-17	-12160	7376	9328	17	-16	22	2680	3680	16472	14	-14	12	127	138	12
-2328	-8404	14440	7	-14	-23	-11072	-8384	8448	1	-11	-8	3640	-3840	16280	33	1	3	56	6784	14696	-3	11	-18	-12216	7280	9384	4	-16	23	2632	3680	16480	16	-15	15	127	138	12
-2300	-8196	14500	4	-15	-27	-11288	-8320	8544	-3	-12	-9	3696	-3744	16328	34	-1	5	-32	6648	14912	-7	8	-17	-12152	7352	9752	18	-22	25	2480	3744	16424	16	-23	19	127	138	12
-2208	-8112	14628	9	-12	-26	-11560	-8592	8536	9	-25	-1	3784	-3760	16368	36	0	10	160	6968	14960	0	7	-15	-12272	7368	9848	22	-23	17	2728	3784	16600	14	-25	12	127	139	12
-2192	-8476	14560	1	-15	-30	-11048	-8544	8480	-1	-21	-9	3712	-3704	16480	35	-8	6	184	6808	14616	5	9	-9	-12136	7272	9808	12	-28	18	2912	3880	16320	16	-23	15	127	138	12
-2276	-8076	14496	-1	-8	-27	-11008	-8424	8752	-8	-20	-16	3848	-3688	16152	28	-5	10	136	6552	14800	-4	8	-20	-11864	7336	9736	18	-25	23	2992	3952	16616	8	-34	24	127	138	12
-2248	-8336	14276	10	-16	-22	-10944	-8560	8504	-8	-20	-15	4192	-3776	16184	26	-4	8	184	7136	14736	-10	11	-18	-12152	7352	9776	27	-26	17	2776	3760	16480	8	-23	16	127	139	12
-2420	-8476	14400	0	-9	-27	-10904	-8600	8736	-5	-11	-16	3952	-3944	16376	16	-5	11	104	6920	14424	-11	17	-23	-11984	7224	9336	1	-15	17	3048	3784	16608	5	-27	11	127	138	12
-2332	-8328	14492	3	-12	-22	-11064	-8600	8504	-8	-17	-17	3832	-3888	16512	14	0	1	168	6704	14760	-10	14	-21	-12296	7336	9920	18	-11	16	2840	3776	16712	-3	-20	11	127	139	12
-2196	-8036	14620	8	-12	-18	-11040	-8480	8608	-5	-5	-10	4064	-3880	16584	12	2	1	160	6808	14768	-11	16	-24	-12064	7360	9616	23	-12	15	2952	3704	16440	-2	-19	9	127	139	12
-2232	-8412	14308	4	-9	-23	-10840	-8432	8488	-3	-6	-9	3912	-3872	16472	19	1	0	408	7032	14616	-2	15	-18	-11968	7224	10064	21	-8	16	3000	3640	16440	3	-16	16	127	138	12
-2092	-8292	14512	-5	-13	-29	-10888	-8408	8888	-18	-9	-3	3984	-3928	16152	17	0	6	440	6608	14744	-13	17	-26	-11872	7248	9968	13	-5	16	2976	3664	16432	12	-19	19	128	138	12
-2076	-8308	14560	10	-20	-24	-10808	-8552	8344	-15	-16	-12	3992	-3952	16312	19	2	8	328	6824	14784	-12	19	-22	-11888	7152	9984	12	-10	14	2968	3704	16344	11	-10	24	128	138	12
-2020	-8420	14604	12	-20	-21	-10872	-8600	8768	-10	-17	-11	4224	-3976	16200	28	0	11	160	6832	15072	-19	12	-26	-12080	7176	9800	15	-13	20	3024	3584	16264	11	-14	20	127	138	12
-2012	-8720	14520	1	-9	-21	-10904	-8672	8536	-17	-15	-15	4136	-3872	16096	34	-3	12	520	6904	15048	-2	11	-16	-12080	7080	10120	15	-7	14	2912	3544	16560	10	-14	20	126	138	12
-1792	-8392	14600	-5	-14	-30	-10848	-8696	8520	-21	-21	-14	4312	-3848	16144	33	4	15	664	6640	14952	4	6	-16	-11968	7032	9840	23	-25	22	3096	3624	16400	15	-18	16	127	138	12
-1836	-8340	14644	0	-14	-29	-10576	-8688	8520	-13	-25	-14	4304	-3880	16296	32	-7	14	680	6592	14792	6	8	-18	-11904	7048	10136	25	-29	23	3432	3760	16256	21	-20	7	127	139	12
-1804	-8400	14460	-1	-12	-35	-10600	-8752	8944	-11	-28	-17	4448	-3928	16272	25	4	6	760	6992	14784	5	12	-14	-11928	7072	9928	38	-37	26	3472	3824	16320	29	-24	3	127	138	12
-1896	-8788	14440	3	-17	-29	-10504	-8992	9056	-4	-20	-11	4496	-4040	16360	29	6	-7	696	6880	14608	5	15	-14	-11904	7256	10120	28	-30	31	3272	3744	16392	23	-26	4	127	139	12
-1756	-8416	14348	-2	-12	-29	-10568	-8664	8904	5	-21	-15	4480	-3936	16048	24	7	-12	608	6656	14880	4	13	-14	-11888	7048	10280	19	-18	26	3624	3888	16608	17	-24	1	127	138	12
-1888	-8464	14540	1	-24	-21	-10656	-8720	8936	-4	-14	-4	4376	-3904	16440	22	-2	-11	664	6416	14936	-5	14	-24	-11968	7216	10248	21	-16	25	3528	3832	16248	10	-25	10	126	138	12
-1808	-8436	14632	10	-17	-20	-10544	-8848	8944	-2	-8	1	4440	-3896	16208	25	-3	-5	584	6752	14760	-5	13	-24	-11960	7240	10152	12	-15	24	3296	3744	16672	7	-19	11	126	138	12
-1944	-8728	14432	9	-5	-20	-10768	-8616	8784	-4	-7	2	4368	-3880	16080	25	-12	0	696	6992	14920	1	11	-26	-11784	7224	10304	36	-10	22	3360	3928	16592	2	-22	13	126	138	12
-1692	-8416	14252	17	-5	-19	-10376	-8864	8856	0	-2	-2	4384	-3920	15952	25	-9	0	520	6720	14912	4	16	-24	-11840	7200	10184	29	-5	17	3352	3896	16312	14	-19	17	126	137	12
-1732	-8384	14312	14	-14	-24	-10592	-8760	8904	-3	-6	5	4408	-3912	16392	25	-2	2	632	6728	14896	-11	16	-34	-11824	7368	10120	15	-2	20	3088	3856	16376	14	-15	21	126	138	12
-1896	-8452	14596	32	-16	-20	-10680	-8632	8904	-6	3	-2	4328	-3856	16040	28	-2	6	824	6720	14560	-13	17	-29	-11744	7104	10024	12	-1	18	3440	3664	16432	15	-13	23	126	137	12
-1696	-8448	14532	25	-17	-20	-10624	-8576	8704	-1	-10	4	4200	-4000	16208	30	3	2	440	6816	14896	-10	13	-23	-11920	7216	9880	24	-4	19	3216	3656	16128	17	-15	19	127	138	12
-1732	-8440	14248	16	-7	-19	-10656	-8496	8840	1	-9	4	4288	-3904	16272	32	4	0	584	6936	14968	4	10	-24	-11680	7040	10024	33	-8	21	3248	3904	16104	12	-16	19	126	139	12
-1652	-8584	14304	22	-13	-28	-10496	-8528	8704	-6	-11	4	4472	-3856	15840	37	3	2	832	6896	14688	10	16	-20	-11728	7184	10048	30	-19	24	3288	3736	16416	16	-13	11	126	139	12
-1716	-8292	14696	19	-21	-25	-10536	-8696	9080	-6	-12	2	4336	-3976	16032	35	7	-4	816	6824	14608	4	13	-26	-11760	6968	10128	23	-19	28	3384	3704	16064	25	-13	9	126	138	12
-1872	-8640	14724	28	-16	-22	-10776	-8808	9064	-7	-19	-1	4432	-3880	16200	56	-3	-3	856	6664	15184	-1	7	-30	-12000	7240	10248	22	-22	28	3360	3832	16648	21	-12	4	126	138	12
-1796	-8696	14760	21	-21	-23	-11408	-8880	8984	10	-18	-1	4640	-3888	16328	45	-10	-4	776	7096	15032	-3	2	-14	-12128	7368	10344	30	-30	27	3040	3832	16728	15	-20	1	127	139	12
-1632	-8564	14664	24	-12	-18	-10824	-8664	9120	10	-28	-11	4400	-3864	16384	52	-3	-8	672	6872	15232	11	9	-14	-11928	7288	10368	27	-28	29	3360	3984	16656	15	-24	3	126	138	12
-1640	-8516	14516	9	-17	-30	-10664	-8752	9456	-6	-11	-4	4544	-3712	16472	51	-6	1	712	6904	14920	20	12	-14	-11880	7216	10336	26	-21	25	3472	3984	16480	19	-26	13	126	138	12
-1680	-8280	14644	11	-18	-25	-10480	-8688	8984	-4	-11	-2	4536	-3864	16224	36	-6	-2	752	6872	14600	7	13	-21	-11624	7344	10240	32	-18	22	3568	4000	16432	22	-17	11	125	137	12
-1900	-8656	14816	21	-15	-22	-10568	-8784	9312	4	0	2	4528	-3768	16376	22	-7	1	976	6968	14496	-6	13	-27	-11784	7208	10176	16	-12	23	3496	4072	16648	15	-15	12	126	137	12
-1840	-8604	14608	20	-10	-19	-10824	-8624	8992	19	-7	3	4392	-3752	16392	13	-2	-4	744	7096	15064	-18	9	-29	-12000	7512	10424	24	-2	25	3152	4072	16688	15	-23	14	126	138	12
-1760	-8480	14524	18	-4	-16	-10696	-8728	9256	5	-7	-4	4304	-3800	16472	17	-4	-3	456	6920	15008	-15	16	-35	-11992	7464	9992	7	0	19	3040	4072	16832	5	-27	17	126	139	12
-1788	-8260	14440	17	-14	-28	-10856	-8384	8968	15	0	0	4384	-3640	16224	17	-2	-4	760	6904	14904	-4	18	-30	-11744	7296	10080	22	-4	15	3216	3944	16304	-2	-28	14	126	138	12
-1648	-8256	14360	10	-3	-21	-10600	-8472	9040	1	-1	8	4328	-3776	16024	15	-4	-5	600	6616	14552	-12	19	-32	-11680	7152	10000	16	-7	9	3336	3920	16128	-1	-22	18	127	138	12
-1856	-8132	14412	12	-11	-18	-10344	-8624	8952	-2	2	3	4288	-3648	16032	10	0	-6	704	6744	14536	-10	17	-29	-11320	7264	10080	26	-6	8	3336	3784	16216	5	-12	15	127	138	12
-1712	-8332	14328	9	-1	-22	-10456	-8416	8672	-6	-2	-2	4408	-3672	15928	8	11	-9	688	7088	14824	-16	19	-33	-11408	7176	9944	23	-4	10	3168	3848	16440	12	-8	14	127	137	12
-1636	-8472	14088	9	-3	-27	-10656	-8552	8776	0	0	-18	4184	-3568	15936	13	3	-5	448	6832	15024	-19	17	-38	-11864	7216	9952	-9	-1	14	3128	3720	16560	4	-10	8	127	138	12
-1880	-8096	14604	4	-15	-28	-10752	-8376	9040	5	2	-18	4136	-3768	16024	14	3	-2	600	6632	14704	-18	21	-35	-12152	7048	9880	-11	-3	9	2912	3720	16528	-11	-15	6	127	139	12
-2016	-8188	14660	1	-5	-28	-10792	-8528	8888	-12	2	-15	4328	-3848	16080	21	5	8	832	6440	14576	-14	15	-29	-11992	7272	10016	20	-6	0	2968	3800	16488	-11	-21	9	127	139	12
-1856	-8428	14396	3	0	-27	-10496	-8632	8848	-20	1	-17	4360	-3704	15976	26	7	8	392	6728	14464	-15	12	-24	-11776	7312	10040	36	-9	5	3352	3816	16456	-14	-18	6	127	139	12
-1752	-8496	14284	-1	0	-30	-10560	-8680	8960	-6	2	-18	4400	-3760	16216	21	2	9	608	7224	14824	-13	12	-23	-11912	7424	10152	30	-13	14	3216	3864	16488	-7	-17	6	127	138	12
-1668	-8224	14416	4	-3	-21	-10904	-8736	9064	0	3	-23	4144	-3792	16216	6	1	7	376	6936	14968	-21	22	-30	-11856	7232	10152	-5	-3	12	3080	3968	16488	-3	-11	16	127	138	12
-2016	-8216	14656	6	-12	-19	-10816	-8680	8856	7	7	-16	4184	-3856	16392	9	-2	6	488	6816	14696	-23	20	-33	-12016	7416	10000	-10	-3	4	3056	3928	16456	-2	-20	15	126	138	12
-2028	-8176	14696	9	-7	-17	-11016	-8432	8856	-3	11	-2	4192	-3760	15952	11	1	8	440	6848	14664	-13	20	-32	-11752	7248	9976	3	12	-1	3112	3832	16360	-3	-15	16	126	138	12
-1892	-8172	14320	2	4	-21	-10664	-8304	8760	-11	8	2	4192	-3576	15808	11	6	5	480	7152	14552	-14	20	-28	-11272	7272	9944	27	8	0	3072	3824	15984	1	-18	21	127	137	12
-1804	-8424	14324	4	-2	-23	-10512	-8488	8728	-11	3	4	4176	-3600	16104	12	7	4	616	7112	14568	-24	22	-36	-11616	7416	9408	26	5	7	3184	3912	15896	6	-15	18	127	138	12
-1964	-8304	14584	10	-13	-21	-10752	-8488	8656	-2	4	-5	4080	-3648	16248	5	5	-2	488	6808	14624	-35	21	-41	-11848	7312	9568	10	-6	15	2704	4024	16304	2	-18	16	127	139	12
-2252	-8248	14544	9	-12	-15	-11000	-8544	8704	5	9	-13	3824	-3560	16304	9	2	-8	224	6616	14792	-35	17	-39	-11936	7344	9528	6	7	8	2760	3856	16336	-12	-20	15	127	139	12
-2168	-8336	14436	9	-1	-26	-10904	-8376	8640	10	8	-10	3832	-3504	16016	13	3	-6	200	7088	14672	-32	21	-41	-11968	7224	9856	23	3	1	2752	3864	16496	-22	-27	10	128	139	12
-2060	-8416	14340	-3	-1	-26	-11056	-8328	8432	-1	6	-13	3832	-3648	16264	10	0	-3	176	6944	15192	-32	17	-38	-12200	7480	9896	14	4	-2	2816	3848	16720	-22	-31	5	127	139	12
-2120	-8548	14540	-11	-3	-33	-11088	-8584	8424	-15	-3	-27	3776	-3768	16432	4	-9	0	128	6264	15072	-40	22	-46	-12408	7128	10112	6	-6	-5	2848	3784	16728	-27	-29	4	128	138	12
-2340	-8232	14692	-14	-6	-35	-10920	-8744	8624	-13	9	-42	4016	-3808	16496	-1	-3	6	136	6480	15080	-37	14	-43	-12456	7272	9688	4	-7	-14	2928	3592	16768	-33	-30	7	127	138	12
-2380	-8676	14476	-15	3	-34	-11088	-8768	8416	-6	10	-38	3976	-4016	16480	-8	2	10	-16	6736	15080	-29	13	-39	-12376	7328	9496	-2	4	-14	2824	3560	16632	-37	-19	9	127	139	12
-2416	-8632	14452	-17	4	-34	-11072	-8752	8488	-13	12	-43	3832	-4088	16328	-7	2	15	176	6912	15072	-31	16	-37	-12184	7232	9968	0	3	-15	2864	3432	16800	-30	-14	9	128	139	12
-2180	-8356	14504	-13	3	-34	-10856	-8944	8368	-20	11	-35	3872	-4272	16416	4	5	17	72	6576	14856	-26	21	-40	-12080	7016	9784	-3	6	-11	2760	3272	16456	-16	-8	17	127	138	12
-2252	-8332	14416	-15	-3	-34	-10856	-9048	8448	-19	4	-30	3720	-4472	16208	3	6	16	224	6304	14880	-30	18	-38	-12304	6936	9680	-10	0	-1	2736	3264	16216	-3	-10	14	127	137	12
-2280	-8580	14504	0	-2	-31	-10896	-9008	8616	-3	8	-24	3808	-4336	16144	11	6	6	304	6536	14800	-12	16	-38	-12080	6864	9616	-2	0	-1	2832	3296	16336	-3	-13	16	127	138	12
-2244	-8584	14328	0	-2	-38	-10760	-8872	8520	4	3	-13	3912	-4456	16144	18	4	-3	240	6872	14632	-9	19	-33	-11944	7032	9456	20	-11	8	2744	3288	16256	9	-18	9	127	137	12
-2140	-8256	14128	5	-5	-30	-10800	-8608	8416	20	1	-10	3816	-4256	16104	26	7	-5	256	6736	14704	-4	15	-30	-11816	6880	9520	27	-9	21	2880	3224	16144	17	-17	8	127	138	12
-2164	-8520	14208	11	-20	-28	-10712	-8760	8496	19	-2	0	3832	-4240	15624	35	-2	-7	248	6736	14536	-2	23	-30	-11968	6968	9656	20	-12	27	2776	3288	16312	15	-21	5	127	138	12
-2488	-8212	14416	13	-19	-24	-10888	-8640	8544	13	-4	0	3824	-4016	16240	38	-6	-11	120	6480	14312	-6	9	-29	-12168	7024	9480	18	-16	33	2728	3424	16320	16	-22	3	126	138	12
-2528	-8476	14444	19	-15	-25	-11040	-8672	8424	8	-4	4	3888	-3936	16264	46	-12	-8	48	6680	14936	-2	6	-29	-12464	7248	9480	28	-13	32	2584	3368	17040	7	-34	-1	127	139	12
-2400	-8484	14284	19	-11	-23	-11176	-8656	8240	9	-3	8	3872	-4104	16648	44	-17	-4	-160	6920	15344	7	13	-30	-12520	7352	9896	27	-13	36	2728	3744	17168	0	-38	3	127	138	12
-2388	-8644	14488	17	-15	-26	-11320	-8896	8576	12	7	9	3872	-4120	16472	44	-21	-1	-64	6464	15048	12	22	-29	-12720	7488	9688	17	-16	28	2608	3688	17096	9	-30	2	127	138	12
-2540	-8500	14588	19	-5	-17	-11288	-8760	8376	20	7	8	3968	-4064	16568	38	-9	-2	32	6776	14944	3	14	-25	-12416	7336	9784	31	-8	26	2720	3736	16952	15	-22	8	126	137	12
-2476	-8344	14688	28	0	-16	-11048	-8792	8304	14	16	12	4048	-3864	16672	28	6	-1	128	6912	14952	9	15	-31	-12296	7280	9880	43	-4	15	2824	3800	16720	26	-5	7	127	137	12
-2444	-8360	14400	23	11	-17	-10944	-8440	8352	13	9	8	3904	-3856	16168	19	19	-4	-8	7064	14840	-3	21	-33	-11872	7496	9640	36	8	12	2808	3960	16552	29	2	13	127	136	12
-2464	-8516	14416	22	-4	-22	-10864	-8608	8344	13	19	9	3784	-3712	16352	17	26	-3	128	6760	14936	-10	24	-40	-12048	7472	9656	19	7	16	2744	3920	16280	18	0	13	126	137	12
-2464	-8304	14492	21	2	-20	-11120	-8488	8400	1	12	0	3744	-3648	16248	14	24	-2	40	6632	14608	-13	23	-37	-12184	7280	9552	-1	5	10	2576	3840	16256	11	4	12	127	139	12
-2488	-8172	14648	27	2	-20	-10928	-8200	8368	1	10	-2	3784	-3568	16328	21	27	0	40	6648	14632	-13	21	-33	-12048	7464	9464	17	2	6	2536	3856	16392	-2	3	11	128	139	12
-2268	-7964	14280	20	5	-19	-10992	-8248	8368	-12	10	1	3656	-3760	16048	24	25	-5	16	7088	14704	-3	16	-29	-11728	7232	9584	38	-2	6	2528	3768	15984	3	-3	10	127	138	12
-2192	-7904	14256	17	-3	-25	-10664	-8280	8432	-17	3	4	3720	-3696	15960	29	27	-11	176	6960	14424	-5	20	-32	-11744	7392	9232	31	-13	12	2704	3840	16024	4	2	7	127	137	12
-2452	-8144	14532	17	-12	-24	-11032	-8440	8656	-3	2	-7	3672	-3360	16144	27	18	-13	56	6776	14440	-22	22	-42	-11800	7584	9680	4	-8	18	2600	3816	16320	7	-2	3	127	138	12
-2520	-7956	14844	33	-11	-16	-11264	-8432	8296	16	2	-13	3608	-3448	16544	24	9	-15	192	6800	14608	-16	16	-38	-12112	7496	9432	1	-3	24	2464	3816	16056	2	-15	-4	127	139	12
-2568	-8312	14748	23	-12	-26	-11376	-8240	8552	25	6	-7	3568	-3536	16952	22	0	-10	-152	6984	14848	-23	14	-35	-12208	7488	9384	17	-5	20	2352	3824	16656	-12	-31	-3	127	139	12
-2564	-8140	14652	11	5	-26	-11592	-8360	8320	11	6	-4	3352	-3592	16904	20	-15	-8	-200	7336	15488	-28	14	-38	-12568	7584	9968	32	-2	15	2504	4024	17112	-23	-39	-4	127	140	12
-2576	-8712	14740	6	-5	-33	-11576	-8832	8584	6	1	-9	3544	-3576	16744	13	-24	-2	-152	6744	15504	-25	25	-45	-12968	7520	9808	16	-7	10	2424	3968	17128	-30	-46	0	127	140	12
-2708	-8844	14992	-11	-9	-37	-11552	-8888	8416	14	8	-26	3560	-3792	16992	-3	-25	0	-160	6872	15736	-23	12	-39	-13032	7520	9944	3	-9	-1	2464	3792	17248	-30	-47	6	127	139	12
-2792	-8428	14940	-11	-9	-36	-11648	-8912	8712	20	6	-35	3584	-4184	16792	-10	-23	6	-240	6608	15512	-30	10	-36	-12968	7576	9520	-7	-8	-14	2464	3704	17528	-32	-45	6	127	138	12
-2732	-8836	14748	-13	0	-43	-11488	-8968	8240	9	-3	-35	3504	-4336	16568	-16	-18	5	-264	6632	15272	-30	6	-38	-12640	7384	9472	-9	3	-25	2728	3504	17056	-24	-27	24	127	137	12
-2648	-8708	14284	-16	-1	-45	-11240	-8896	8048	-15	-8	-34	3568	-4576	16384	-20	-8	3	24	6960	15112	-28	1	-35	-12136	7112	9512	-17	4	-20	2880	3216	16856	-12	-18	29	127	137	12
-2448	-8672	14132	-18	-3	-48	-10936	-9000	8128	-9	-1	-35	3560	-4560	16200	-20	3	5	-240	6720	14992	-36	9	-41	-12336	6840	9464	-20	8	-21	2800	3024	16504	-9	-10	36	127	136	12
-2644	-8828	14212	-9	-18	-47	-11008	-9136	8112	-9	-3	-34	3448	-4552	16080	-6	7	5	-248	6344	14928	-50	11	-50	-12560	6936	9232	-36	4	-9	2376	2864	16352	-8	-9	40	127	138	12
-2820	-8452	14312	5	-23	-44	-11136	-8824	7944	-1	-3	-38	3480	-4664	16008	11	2	2	-424	6352	14856	-44	9	-45	-12688	6656	9080	-26	-1	-2	2104	2648	16016	-4	-21	37	127	138	12
-2612	-8132	14224	15	-23	-37	-10880	-8672	7960	-5	-16	-26	3504	-4512	15872	40	-8	3	-288	6256	14336	-21	-4	-32	-12304	6568	9088	11	-19	8	2176	2576	16448	11	-31	28	127	137	12
-2632	-8224	13884	18	-10	-38	-10656	-8752	7920	3	-15	-8	3568	-4400	15728	59	-16	-2	-360	6680	14776	-3	-12	-21	-12208	6560	9232	51	-28	22	2464	2616	16104	31	-35	22	127	137	12
-2204	-8260	13932	18	-24	-31	-10656	-8720	8216	5	-19	-3	3720	-4008	15896	61	-19	-5	-192	6904	14640	24	-2	-18	-12328	6672	9224	42	-45	40	2584	2848	16080	50	-33	-1	128	137	12
-2324	-8344	13984	26	-25	-35	-10640	-8728	8320	26	-14	6	3944	-4000	16032	59	-15	-16	-8	6480	14464	32	-4	-18	-11912	6832	9120	41	-55	46	2552	3216	16208	57	-30	-21	127	137	12
-2520	-8336	14396	26	-23	-34	-10928	-8640	8464	41	-7	12	3688	-3880	16088	49	-5	-27	168	6448	14432	34	-3	-15	-12024	7064	9392	31	-56	58	2624	3528	16152	55	-28	-32	126	138	12
-2584	-8060	14456	40	-24	-25	-10800	-8408	8464	47	-9	19	3832	-3552	16152	44	3	-35	248	6528	14176	48	-7	-12	-12016	7416	9456	41	-53	62	2688	3872	16312	44	-31	-43	126	138	12
-2372	-7960	14348	41	-18	-18	-10952	-7976	8536	47	-3	16	4064	-3384	16032	29	15	-33	312	6728	14216	43	-4	-8	-11696	7488	9504	56	-46	51	3016	4136	15920	39	-23	-42	126	138	12
-2176	-8128	14148	33	-11	-24	-10744	-8064	8368	19	-3	25	3960	-3432	15800	21	9	-33	376	7088	14416	31	-9	-10	-11576	7552	9952	80	-41	46	3056	4296	16144	29	-26	-33	126	139	12
-1928	-8128	14140	27	-12	-21	-10696	-8216	8696	-3	-8	13	4048	-3320	16048	16	15	-26	336	7304	14624	9	2	-13	-11352	7832	9864	31	-29	40	2960	4408	16048	39	-18	-19	127	138	12
-2120	-8284	14284	14	-18	-27	-10888	-8144	8496	15	-1	-9	3952	-3184	16248	18	1	-21	288	7272	14656	-5	5	-28	-11264	7760	9840	37	-30	37	2992	4688	16608	15	-24	-6	127	138	12
-2160	-8320	14484	6	-15	-33	-10856	-8104	8616	7	-6	-28	3912	-3384	16216	14	-8	-16	208	6392	14888	-30	8	-37	-11912	7776	9896	6	-18	8	3032	4640	16544	-9	-32	9	127	138	12
-2428	-8380	14748	-4	-18	-42	-11104	-8240	8696	-8	-3	-30	3984	-3232	16416	16	-15	-2	744	6840	15056	-29	6	-37	-12088	7624	10152	11	-10	-17	3008	4216	16664	-30	-34	20	127	139	12
-2212	-8316	14900	-23	-8	-51	-11072	-8160	8672	-11	-5	-35	4064	-3536	16272	19	-17	7	544	7136	14976	-45	10	-42	-12136	7624	10080	-9	-7	-23	2928	3992	16704	-31	-36	35	128	139	12
-2372	-8312	14856	-25	-3	-48	-11056	-8616	8936	-22	-8	-53	4200	-3752	16392	7	-15	16	464	6704	14560	-51	7	-41	-12136	7336	10136	-16	-1	-25	3192	3896	16712	-25	-29	33	127	138	12
-2156	-8288	14432	-28	2	-43	-10712	-8664	8624	-10	-6	-55	4384	-4040	16312	-6	-9	26	368	6752	14736	-46	12	-47	-11960	7064	10000	-6	8	-30	3288	3656	16720	-17	-25	36	127	139	12
-1888	-8732	14268	-17	8	-50	-10512	-8976	8736	-9	3	-48	4384	-4200	16160	-11	-2	24	296	6960	14936	-55	19	-51	-12112	7064	10144	9	14	-25	3208	3328	16264	-17	-21	31	127	139	12
-1884	-8888	14392	-28	3	-50	-10656	-9200	8920	-4	5	-41	4232	-4400	16144	-14	4	17	216	6640	14832	-56	24	-53	-12232	6864	9968	-22	17	-20	3136	3360	16336	-14	-22	26	127	139	12
-2060	-8552	14420	-23	0	-45	-10528	-9016	8456	8	7	-44	4216	-4584	16128	-9	2	7	344	6584	14800	-43	16	-41	-12152	6688	9832	-19	8	-10	2776	3200	16416	-17	-24	13	126	139	12
-2044	-8356	14324	-22	-15	-41	-10456	-9048	8216	15	11	-29	3960	-4472	15920	6	-4	0	296	6576	14928	-21	8	-36	-12136	6544	9624	11	-12	-1	2824	2880	16240	-16	-34	8	127	139	12
-1952	-8828	13684	-8	-13	-36	-10472	-8912	8120	12	0	-12	4056	-4424	15704	16	-12	-5	176	6456	14880	-18	3	-37	-11856	6648	9432	26	-22	9	2792	2928	15968	-3	-32	8	127	138	12
-2036	-8732	14112	4	-15	-43	-10440	-8968	8080	16	1	-4	3928	-4232	15736	20	-17	-14	480	6520	14824	-7	2	-35	-11920	6784	9680	20	-29	13	2912	3128	16128	7	-39	-1	127	137	12
-2312	-8708	14492	20	-22	-35	-10624	-8864	8496	13	-8	-12	3936	-4248	16048	32	-22	-23	384	6536	14976	-13	-7	-34	-12368	7128	9648	6	-37	29	2792	3240	16680	8	-43	-4	127	138	12
-2280	-8816	14656	32	-25	-33	-11264	-8800	8560	24	-10	-21	4008	-4232	16608	41	-23	-28	392	6640	15216	4	-12	-27	-12520	7192	9776	8	-39	30	2904	3368	16992	12	-39	-16	127	137	12
-2136	-8620	14836	19	-22	-40	-11136	-8808	9064	8	-11	-5	4112	-4104	16648	48	-18	-28	512	6600	14712	32	-15	-19	-12432	6888	9952	28	-50	24	3240	3624	16672	22	-36	-20	127	137	12
-2048	-8332	14572	12	-13	-47	-10632	-8816	8832	0	-11	4	4368	-4104	16624	35	-1	-25	672	7072	14728	21	-12	-22	-11912	7088	10240	68	-60	27	3360	3904	16544	38	-27	-26	127	136	12
-2156	-8884	14584	23	-19	-38	-10608	-9176	8984	11	-15	-3	4376	-3880	16336	17	8	-27	888	6952	14960	4	-13	-25	-12104	7760	10568	55	-50	31	3520	4040	16784	42	-25	-24	127	136	12
-1996	-8804	14548	16	-18	-38	-10760	-8912	8992	41	-3	-22	4464	-3544	16264	1	11	-26	600	7000	15192	0	-10	-29	-12128	7744	10528	28	-39	19	3448	4432	16920	31	-29	-15	127	137	12
-1952	-8556	14984	14	-12	-38	-11040	-8760	9112	42	0	-30	4432	-3648	16600	3	5	-29	584	6504	15024	-22	-4	-28	-12264	7760	10400	1	-32	5	3264	4336	16856	2	-32	-13	127	139	12
-2036	-8484	14736	14	-4	-32	-11232	-8408	9056	22	-4	-34	4256	-3848	16304	0	1	-18	336	6792	14768	4	-11	-25	-11584	7496	9976	2	-8	-7	3272	4368	16240	-15	-26	3	128	139	12
-1652	-8300	14632	-7	-12	-42	-10728	-8336	8840	-3	-1	-20	4360	-3664	15984	11	-10	-7	608	6824	14744	-9	-3	-32	-11576	7384	10304	40	-18	-13	3656	4056	16392	-16	-29	7	128	138	12
-1640	-8268	14232	-1	-4	-39	-10528	-8472	8792	-37	-10	-24	4432	-3752	16048	1	-8	0	496	6856	14400	-25	7	-36	-11040	7544	9784	16	-12	-10	3664	3952	15976	-9	-21	17	127	137	12
-1840	-8076	14288	2	-5	-34	-10480	-8472	8928	-11	2	-30	4136	-4024	15832	-9	1	-6	776	6752	14376	-49	11	-45	-11352	7184	9920	-9	2	-5	3184	3792	15784	2	-17	26	127	137	12
-1892	-7912	14296	0	-6	-39	-10384	-8528	8904	5	2	-25	4288	-3968	15760	-8	5	-4	648	6968	14552	-53	14	-48	-11528	7056	9928	4	3	-10	3048	3544	16040	-1	-16	27	127	139	12
-1980	-8312	13960	-8	-5	-43	-10400	-8640	8552	17	4	-23	4136	-3832	15976	3	3	-6	312	6696	14720	-51	20	-52	-11896	6800	9600	-5	9	-11	3024	3384	16376	-11	-30	28	127	139	12
-1828	-8488	14212	0	-6	-42	-10592	-8616	8616	19	5	-26	4080	-4024	15808	5	-4	-2	552	6288	15088	-51	17	-52	-12288	6680	10088	7	8	-12	3144	3408	16576	-21	-38	21	127	140	12
-2004	-8944	14032	-14	-5	-44	-10648	-9024	8536	15	5	-32	3920	-3944	16168	12	-10	-4	440	6344	15048	-38	12	-51	-12376	6904	10128	23	-9	-12	3000	3280	16776	-33	-42	15	127	139	12
-1708	-9060	14212	-10	-3	-41	-10744	-9008	8552	7	6	-40	4192	-4120	16120	10	-17	5	520	6624	15472	-31	10	-40	-12464	6856	10256	26	-22	-8	3288	3232	16760	-35	-39	9	127	139	12
-1924	-8816	14308	-19	11	-45	-10600	-9088	8568	-12	1	-42	4176	-4472	16160	3	-18	8	248	6632	15264	-19	12	-38	-12280	6824	10280	-3	-14	-11	3312	3200	16768	-28	-28	-2	128	138	12
-1960	-8960	14344	-7	-10	-45	-10664	-9200	8544	-9	1	-34	4384	-4408	16136	4	-9	10	576	6688	15072	-9	7	-37	-12072	7032	10080	-15	-19	-6	3240	3160	16496	-6	-14	-2	127	137	12
-1976	-9040	14344	-1	-12	-43	-10480	-8992	8504	-11	1	-27	4448	-4552	16152	10	-4	8	488	6576	14704	8	9	-29	-11640	6920	9760	-18	-15	6	3200	3056	16224	18	-11	10	127	137	12
-2032	-8676	14312	9	-17	-42	-10520	-9000	8456	-6	4	-14	4240	-4640	16256	18	3	1	456	6720	14432	0	7	-36	-11704	6992	9824	-5	-12	21	2992	3080	15856	35	-11	10	127	137	12
-2208	-8560	14244	24	-15	-38	-10856	-9216	8560	18	1	-3	4032	-4408	16256	37	-5	-11	224	6888	14760	-12	5	-48	-11960	6912	9488	15	-19	27	2592	3296	16104	30	-23	12	127	138	12
-2312	-9072	14712	31	-22	-36	-11080	-9216	8464	34	1	1	3728	-4280	16568	40	-14	-18	424	6664	15216	-19	2	-44	-12440	7176	9688	32	-26	35	2680	3440	17128	17	-45	5	126	140	12
-2200	-9036	14648	40	-29	-35	-11480	-9072	8648	47	-3	5	3696	-4144	16664	52	-24	-31	192	6640	15584	-13	2	-40	-13088	7184	9896	57	-44	38	2664	3584	17408	-3	-62	-12	127	140	12
-2448	-8592	14860	28	-5	-34	-11480	-9048	8640	42	-5	7	3984	-4144	17000	51	-30	-33	-24	6336	15488	23	2	-31	-12816	7272	9848	63	-40	24	3168	3864	17464	-5	-58	-25	128	139	12
-2468	-8660	14568	7	2	-33	-11104	-8952	8656	21	3	15	4376	-3952	16776	35	-8	-36	512	6616	15368	22	6	-26	-12488	7360	10400	75	-34	18	3552	3896	17632	4	-37	-31	127	138	12
-2352	-9024	14552	11	3	-39	-10952	-9000	8888	-5	6	9	4664	-3776	16616	-2	12	-31	344	6984	15232	7	13	-29	-12296	7456	10632	49	-18	9	3800	4200	17096	16	-5	-28	127	135	12
-2552	-8660	14392	9	20	-22	-10704	-8760	8280	1	21	-8	4576	-3928	16648	-31	36	-21	296	6208	15216	-8	19	-46	-12080	7480	10472	-16	6	6	3616	4112	16848	2	17	-14	127	136	12
-2044	-8784	14212	8	14	-22	-10816	-8576	8336	3	32	-20	4168	-3904	16376	-41	52	-7	312	7096	14472	-10	30	-45	-11920	7128	9688	-37	32	-13	3128	3952	16400	-12	27	1	127	138	12
-2304	-7660	14040	4	24	-19	-10568	-8240	8256	-6	41	-21	3800	-4184	15672	-31	59	4	120	6896	14312	-24	29	-48	-11464	6984	9464	-16	44	-19	2848	3448	15640	-27	29	19	127	138	12
-2216	-8100	13864	9	20	-26	-10648	-8232	8072	-2	40	-16	3792	-4184	15144	-7	45	17	8	6680	13568	-24	29	-58	-11240	6872	8992	12	45	-18	2536	3280	15544	-32	21	40	127	138	12
-1964	-7376	13732	28	11	-18	-10296	-8032	7856	-3	31	-7	3392	-4232	14936	17	37	21	8	6856	13360	-37	32	-59	-11088	6944	8768	25	38	-2	2304	3176	14904	-12	16	52	126	138	12
-2308	-7424	13832	17	10	-24	-10368	-8224	7688	14	25	5	3216	-3944	15504	51	12	14	-472	6296	13968	-56	34	-70	-11408	6896	8616	27	32	8	1944	3048	15304	-2	-4	56	126	136	12
-2752	-8168	13784	34	-8	-26	-10984	-8336	7672	24	15	-6	2872	-3736	15888	78	-14	8	-480	6504	14632	-64	28	-76	-12376	6888	8520	18	21	12	1432	3024	16128	-1	-26	44	127	139	12
-2764	-8464	14332	36	-12	-25	-11488	-8600	7960	26	12	-5	2800	-3696	16384	79	-32	-6	-568	6592	15392	-44	18	-58	-12432	6896	8752	23	28	9	1440	3160	16832	-5	-51	16	127	139	12
-2936	-8152	14388	24	0	-24	-11656	-8584	7968	34	1	-12	3160	-3592	16448	61	-36	-18	-768	6296	15584	-7	21	-47	-13160	6912	9080	26	-24	16	1816	3328	16960	-8	-54	-18	128	139	12
-3064	-8124	14084	0	12	-32	-11376	-8376	7760	46	18	4	3504	-3536	16592	38	-28	-26	-512	6760	14880	29	25	-31	-12768	6912	8952	68	-30	11	2560	3536	16728	-13	-52	-39	128	138	12
-3044	-8276	14060	0	22	-29	-10952	-8528	8232	12	24	12	3736	-3728	16192	-4	-7	-26	-424	6616	14592	35	31	-27	-12136	7160	9352	80	-32	6	3024	3512	16760	1	-22	-48	127	138	12
-3236	-8544	14080	5	16	-30	-10792	-8672	7872	3	40	6	3752	-3768	16400	-46	19	-29	-592	6832	14440	6	34	-40	-12056	7680	9416	33	-13	17	2952	3744	16920	-5	1	-50	127	138	12
-3388	-8564	14244	14	8	-15	-11512	-8720	7800	16	42	-6	3400	-3976	16512	-67	31	-20	-656	6984	14784	-24	38	-57	-12616	7680	9200	-40	27	23	2264	3680	16944	-20	15	-35	127	140	12
-3404	-8172	14532	10	16	-12	-11928	-8248	7720	21	52	-11	2872	-4256	16968	-54	31	-12	-704	7184	14936	-41	37	-57	-12952	7408	9120	-52	45	0	1584	3840	16744	-40	4	-15	127	140	12
-3652	-7916	14540	8	16	-15	-12264	-8400	7648	4	46	-11	2664	-4392	16240	-17	24	3	-1040	6392	14544	-24	33	-59	-12736	7400	8544	-30	52	-16	1704	3472	16352	-49	0	16	127	139	12
-3440	-7828	14060	4	14	-30	-11464	-8048	7248	-9	45	3	2504	-4224	15848	21	17	17	-1328	6752	14176	-24	32	-54	-12408	7240	8016	28	46	-19	1680	3096	16288	-39	1	36	126	138	12
-3320	-7956	13888	13	14	-21	-11336	-8184	6824	-19	37	4	2344	-4088	15872	34	10	23	-1216	7152	14384	-42	26	-61	-12432	7280	8080	62	36	-14	1400	2912	16080	-13	6	50	127	135	12
-3440	-8040	14212	30	3	-19	-11640	-8440	7176	6	21	-11	2008	-4120	16008	37	1	12	-1224	7016	15064	-50	28	-61	-12624	7312	8304	50	19	3	944	3152	16488	8	7	53	128	136	12
-3736	-8064	14332	34	-1	-15	-12200	-8440	7176	32	11	-16	1992	-4136	16736	45	-3	6	-1480	6776	15144	-55	29	-59	-13272	7360	7968	9	16	15	744	2896	16792	13	4	45	128	138	12
-3784	-8136	14636	28	3	-21	-12496	-8232	7576	25	5	-17	2112	-4024	16800	55	-3	4	-1400	6352	15008	-26	18	-50	-13440	7040	8376	7	8	12	800	2992	16688	13	-15	27	128	139	12
-3724	-8116	14456	6	8	-33	-12240	-8352	7552	-12	-2	-3	2496	-3832	16912	57	-4	0	-1496	6424	14944	-8	23	-38	-13480	7120	8496	14	-8	9	1232	2928	17008	3	-25	6	129	138	12
-3920	-8256	14184	2	6	-31	-11912	-8560	7200	-14	2	0	2544	-3848	16448	39	2	1	-1400	6512	15000	17	17	-25	-13264	6944	8416	29	-22	18	1456	3232	16824	1	-25	-9	128	138	12
-3688	-8308	14360	9	-2	-25	-11424	-8536	7664	-9	6	5	2776	-3936	16632	14	13	-1	-1048	6952	14592	35	17	-19	-12904	7336	8352	50	-33	24	1896	3248	16928	17	-12	-22	128	138	12
-3780	-8068	14200	14	1	-24	-11816	-8296	7432	24	15	3	2768	-3936	16400	5	19	-9	-1136	6856	14568	18	15	-18	-12648	7520	8504	21	-26	35	1656	3472	16712	25	4	-21	127	138	12
-3748	-8072	14336	27	-5	-16	-11976	-8224	7456	35	21	4	2472	-3792	16416	-1	24	-9	-1040	6672	14616	13	9	-24	-12712	7608	8504	16	-3	35	1440	3560	16392	19	2	-14	127	138	12
-3504	-8536	14460	25	-3	-23	-11984	-8248	7224	10	16	12	2544	-3848	16480	14	22	-10	-1168	6752	14368	-2	18	-29	-12784	7728	8456	-7	-4	27	1280	3696	16552	7	-4	-5	127	138	12
-3480	-7804	14208	22	1	-18	-11736	-7952	7192	-1	8	3	2432	-3640	16264	26	14	-6	-1272	6672	14336	-8	11	-29	-12616	7408	8248	10	10	15	1296	3776	16312	0	-21	1	127	137	12
-3580	-7404	13972	19	4	-14	-11616	-8112	7080	-11	6	1	2464	-3728	15904	32	7	-5	-1488	6776	14440	-13	18	-31	-12632	7592	8208	44	0	13	1200	3640	16256	-7	-22	17	127	137	12
-3436	-7864	14024	17	-4	-23	-11624	-8088	7360	-2	5	2	2336	-3720	16208	26	3	-6	-1288	6912	14352	-22	18	-38	-12456	7480	8376	49	-13	7	1328	3760	16352	-3	-19	25	127	137	12
-3716	-7696	14008	8	-8	-17	-11720	-7952	7000	14	6	-8	2280	-3408	16368	12	2	-2	-1408	6808	14632	-34	20	-43	-12584	7544	8360	36	-7	8	1152	3560	16528	2	-13	27	127	138	12
-3664	-7784	14096	17	-6	-23	-11800	-7928	7512	12	4	-26	2144	-3376	16352	3	0	-11	-1488	7008	14640	-41	21	-39	-12808	7416	8144	0	0	-2	1128	3456	16480	3	-18	23	128	138	12
-3824	-7368	14184	-8	-2	-32	-12024	-7720	7304	6	7	-25	2352	-3512	16280	0	0	-5	-1280	6120	14688	-33	22	-42	-12640	7120	8216	-14	4	-12	1344	3288	16488	-4	-22	19	127	138	12
-3656	-7940	13800	-13	6	-37	-11520	-8096	7392	-22	-2	-23	2464	-3728	15904	4	2	5	-1256	6224	14120	-13	22	-33	-12464	7016	8160	-13	4	-17	1528	3224	16000	-12	-21	11	127	138	12
-3632	-7640	13672	-21	8	-35	-11216	-7904	7312	-27	8	-20	2600	-3904	15704	-5	13	6	-1232	6904	13848	-15	22	-40	-12448	6904	8000	-3	4	-17	1720	3152	15800	-9	-14	6	127	138	12
-3696	-7380	13536	-19	8	-33	-11360	-8432	7232	-6	19	-15	2488	-3816	16040	-9	5	11	-1344	6896	14256	-35	27	-44	-12680	7232	8216	4	4	2	1448	3304	16432	-14	-17	11	127	138	12
-4168	-8300	14216	11	-13	-24	-11784	-8536	7280	9	14	-32	2368	-4072	16632	1	-5	15	-1240	6936	14904	-60	24	-53	-13320	7480	8224	-16	9	7	1168	3232	17008	-38	-24	13	127	139	12
-4184	-8048	14768	7	-6	-22	-12696	-8664	7168	8	15	-36	2208	-4400	16952	23	-20	10	-1480	6464	14976	-42	26	-45	-13744	7464	8072	-37	13	6	992	3048	17272	-46	-31	11	127	139	12
-4248	-7720	14528	-13	9	-28	-12448	-8208	7136	4	14	-21	2304	-4240	16728	38	-12	9	-1744	6224	14784	-19	26	-30	-13376	7128	8176	5	13	-5	1344	2976	17120	-38	-23	8	127	138	12
-4124	-7936	14200	-11	17	-25	-11584	-8544	7024	-29	10	5	2488	-4280	16120	24	0	15	-1360	6424	14528	-5	25	-25	-12984	7168	8344	60	8	-6	1672	2872	16704	-9	-11	11	128	136	12
-3760	-8224	13940	-2	10	-23	-11352	-8720	7248	-36	7	2	2800	-4240	16104	8	19	10	-1288	6344	14464	-9	28	-33	-12688	7248	8528	47	3	7	1744	2904	16664	0	-5	12	128	136	12
-3744	-8348	13776	25	11	-3	-11536	-8616	7080	7	21	-5	2544	-4168	16512	-8	41	4	-1536	6752	14368	-15	33	-35	-12712	7440	7952	18	20	17	1352	3184	16824	29	29	14	128	137	12
-3772	-7548	14288	35	-1	3	-12080	-8296	7008	23	29	0	2216	-4168	16448	-13	47	-1	-1312	6760	14400	-16	32	-29	-12760	7480	8152	5	25	22	1272	3168	16536	27	25	9	128	138	12
-3764	-7752	14372	30	-5	-4	-12248	-8024	7152	2	17	10	2168	-4176	16216	11	46	-1	-1704	6776	14224	2	31	-27	-12624	7184	7816	-1	23	16	1016	3136	16088	6	17	23	127	138	12
-3692	-7532	13852	26	0	-10	-11912	-7872	6784	-20	8	24	2104	-4024	15912	35	30	6	-1344	6736	14528	2	32	-29	-12320	6984	7880	9	20	22	1280	2952	15696	10	13	22	127	137	12
-3384	-7800	13720	22	-1	-13	-11232	-7944	6928	-28	4	36	2288	-3768	15432	50	23	6	-1200	6496	14200	0	33	-34	-12152	6880	7688	13	5	28	1152	2976	15672	23	4	23	126	137	12
-3836	-8048	13256	24	2	-13	-11320	-7888	6888	9	10	25	1976	-3696	15840	52	12	-3	-1560	6392	14248	-3	30	-31	-12256	6824	7744	31	1	32	1096	3144	15792	32	-2	26	127	137	12
-3716	-7840	13884	34	-13	-16	-11544	-8184	7008	35	12	15	2080	-3648	15936	44	4	-6	-1320	6504	14632	-18	23	-32	-12920	7176	8128	66	-9	31	968	3160	16328	15	-15	10	127	138	12
-4396	-8480	14192	33	-14	-10	-12128	-8240	6920	42	2	-4	1800	-3480	16416	45	-19	-6	-1880	6512	15144	-34	25	-42	-13608	7624	8376	20	-11	41	672	3272	17208	-16	-31	0	127	139	12
-4140	-8476	14620	15	-10	-25	-12720	-8216	7376	32	3	-13	1968	-3736	17048	52	-24	4	-1424	6456	15416	-5	23	-26	-13952	7352	8544	7	-4	23	968	3432	17640	-26	-41	2	127	139	12
-4244	-7876	14672	2	-6	-19	-12464	-8112	7160	-9	-9	-13	2128	-3816	16952	47	-22	9	-1584	6400	14608	8	25	-19	-13392	7664	8040	-11	-9	8	1288	3416	17176	-27	-33	1	127	138	12
-4340	-7756	13988	-11	10	-26	-11864	-8112	7168	-17	5	2	2504	-4032	16352	23	-3	20	-1592	6552	14112	26	22	-13	-12600	7424	8016	-7	5	7	1512	3312	16736	-2	-10	12	127	137	12
-4064	-8116	13936	-1	7	-21	-11608	-8408	7040	-32	3	8	2568	-4000	16136	-5	12	23	-1672	6792	14016	2	21	-27	-12440	7816	8032	12	14	10	1440	3168	16544	25	14	23	127	136	12
-3968	-8076	14088	23	-14	-11	-11840	-8488	7168	-10	8	-3	2264	-4072	16584	-14	20	17	-1648	7264	14608	-41	25	-34	-12960	7680	8176	-15	20	28	1016	3512	16832	36	16	32	126	137	12
-4348	-7612	14600	32	-16	-5	-12520	-8352	7112	23	9	-9	1832	-4136	16800	11	22	11	-2104	6688	14568	-42	32	-38	-13400	7664	7888	-34	28	25	520	3560	16936	9	10	34	126	138	12
-4460	-7704	14280	22	-10	-5	-12648	-8032	6928	15	14	2	1792	-4064	16456	39	18	11	-2080	6184	14464	-8	23	-31	-13240	7280	7752	5	27	12	528	3280	16488	-7	-5	34	126	139	12
-3844	-7572	14100	19	-3	-9	-12184	-7760	6896	-4	5	25	1920	-3912	16384	62	10	4	-1920	7288	14552	-3	29	-24	-12856	7304	7864	75	-1	17	616	3128	16392	-2	-19	30	127	138	12
-3980	-7744	13824	11	-4	-11	-11736	-8144	6944	-9	4	26	1944	-3536	16248	61	-11	6	-1856	7048	14712	-18	31	-24	-12880	7368	7936	66	-2	26	856	3128	16496	18	-20	31	127	137	12
-3996	-7660	14244	21	-23	-8	-11920	-8240	7200	7	7	13	1896	-3424	16424	41	-10	-1	-1824	6520	14736	-9	31	-24	-12952	7496	7952	28	-12	35	760	3352	16584	26	-11	14	128	137	12
-4040	-7776	13880	10	-16	-5	-12336	-7784	6984	32	6	3	1976	-3384	16552	22	1	-9	-2104	7056	14392	-1	26	-22	-12920	7576	7592	-14	-4	36	792	3416	16784	22	-8	7	128	138	12
-4252	-7608	14292	13	-18	-7	-12328	-7808	7088	36	17	7	1904	-3312	16664	15	11	-4	-1696	6848	14536	3	25	-16	-13032	7600	7960	-5	1	15	840	3488	16440	8	-8	3	128	138	12
-4176	-7652	14304	-5	-5	-21	-12264	-7456	7136	-14	3	8	1928	-3320	16304	2	18	0	-1768	6720	14128	12	17	-15	-12648	7448	7904	0	-3	19	912	3560	16376	5	-10	-2	128	138	12
-4260	-7700	14064	-4	-4	-16	-11880	-7528	6856	-20	5	4	2040	-3408	16352	-2	21	1	-1720	7016	14160	2	18	-22	-12752	7528	7656	0	-8	16	1208	3584	16456	-8	-8	2	127	139	12
-4300	-7604	14048	11	-6	-13	-12024	-7824	6976	-22	3	-4	1792	-3464	16336	-5	15	13	-1784	7112	13984	-21	24	-26	-12744	7592	7864	-1	10	16	776	3752	16368	-8	-8	14	128	139	12
-4480	-7828	14296	6	-4	-20	-12368	-7896	6728	-5	12	-8	1736	-3600	16472	0	14	9	-1768	7224	14568	-45	24	-37	-13072	7856	7904	13	12	8	640	3720	17056	-19	-15	23	127	139	12
-4468	-8200	14488	1	-9	-21	-12720	-8064	6888	1	4	-16	1568	-3720	16904	13	-8	12	-2000	6504	15048	-64	20	-44	-13584	7792	7840	-10	12	1	416	3600	17240	-33	-32	25	128	139	12
-4536	-7772	14408	-2	2	-13	-12672	-7984	6896	-18	5	-31	1584	-3864	16784	17	-20	16	-2448	6632	14960	-46	25	-41	-13856	7560	7712	-7	23	-17	728	3384	17360	-39	-35	34	128	138	12
-4480	-7868	14280	-17	10	-24	-12360	-8064	6632	-14	11	-30	1840	-3912	16680	14	-17	22	-2280	6200	14424	-26	30	-29	-13312	7344	7856	5	20	-23	944	3176	16800	-34	-24	38	128	137	12
-4320	-7568	14088	-20	14	-19	-12088	-8224	6672	-36	5	-29	1992	-4168	16272	-1	-4	26	-2176	7064	13952	-23	30	-27	-12872	7440	7856	27	15	-19	1120	2952	16784	-23	-1	33	128	136	12
-4796	-7612	13960	-2	5	-12	-12136	-8376	6560	-26	11	-21	1984	-4104	16744	-13	12	22	-2112	6648	14504	-45	31	-35	-12912	7568	7712	5	26	-2	904	2752	16704	-16	12	38	127	136	12
-4092	-7980	14288	3	-5	-17	-12432	-8424	7016	-20	13	-9	1968	-4208	16368	-20	30	20	-1712	6792	14760	-33	25	-33	-13136	7336	7928	-20	36	-2	712	2784	16432	-3	16	36	127	138	12
-4072	-7644	14128	0	-1	-11	-12208	-8080	6656	-25	2	-8	1856	-4232	16224	-4	36	11	-2240	6816	14264	-35	36	-30	-13096	7208	7480	-59	28	9	400	2720	16344	-6	7	40	127	138	12
-4488	-7624	13976	-2	2	-13	-12032	-8040	6288	-11	7	-1	1672	-4120	16088	9	29	21	-2112	6616	14200	-16	32	-24	-12976	6656	7496	-16	24	4	640	2584	16208	-2	-3	40	127	138	12
-4348	-7860	13740	5	-12	-16	-11640	-7896	6664	-25	3	12	1568	-4088	15912	24	10	17	-2160	6744	14472	-9	25	-20	-13024	6928	7288	41	5	13	448	2528	16200	2	-14	32	127	138	12
-4360	-8152	13976	27	-31	-9	-12128	-8352	6872	-17	-9	2	1672	-4088	16248	35	-9	13	-2016	6776	14560	-17	23	-22	-13232	7216	7424	32	-17	37	472	2768	16552	18	-19	25	127	139	12
-4628	-8160	14396	24	-28	-10	-12776	-8184	6800	21	-14	-3	1400	-4056	16832	52	-30	4	-2104	6760	14960	-16	15	-20	-13744	7472	7672	5	-19	46	320	2928	17096	11	-38	11	128	139	12
-4644	-8160	14648	14	-23	-18	-13040	-8280	6728	17	-16	-6	1608	-4016	17192	60	-33	3	-1840	6136	15104	4	5	-14	-13896	7256	7936	8	-26	38	664	3128	17368	7	-41	2	128	139	12
-4356	-7924	14428	-6	-15	-20	-12608	-8016	7040	0	-27	3	1928	-4032	16712	54	-22	4	-1896	6392	14824	21	10	-2	-13384	7352	8032	19	-30	30	912	3232	17104	5	-41	1	127	137	12
-4144	-7992	14216	-9	-11	-24	-12056	-8480	6968	-23	-23	12	2328	-3720	16496	35	-13	9	-1784	6792	14592	26	12	5	-12888	7464	8040	18	-31	27	1400	3288	16992	26	-28	6	127	137	12
-4216	-7740	14052	3	-21	-15	-11888	-8296	7032	-15	-18	1	2344	-3664	16376	6	0	13	-1888	6968	14480	5	11	2	-12832	7624	7832	9	-19	31	1192	3464	16776	34	-13	13	127	137	12
-4592	-7772	14132	17	-31	-8	-12192	-8328	7088	20	-4	-4	1960	-3776	16456	-8	8	13	-2160	6232	14120	-16	14	-16	-12744	7888	7816	-19	-4	34	928	3800	17000	23	-4	20	127	138	12
-3960	-7596	14248	20	-25	-7	-12480	-7856	6856	16	2	2	1856	-3816	16512	-6	16	7	-1648	6592	14576	-13	14	-14	-12840	7608	7752	-20	14	20	728	3640	16264	7	0	30	127	138	12
-3980	-7472	14128	8	-21	-12	-12184	-7424	6664	-12	-7	14	1960	-3640	16104	7	9	13	-1672	6920	14336	-18	16	-10	-12768	7608	7616	6	12	14	680	3368	16208	0	-12	39	127	137	12
-4000	-7716	13896	5	-24	-15	-11912	-7824	6512	-30	-21	8	1736	-3560	15992	21	-2	11	-2056	6704	14536	-28	13	-21	-12536	7616	7584	2	3	14	792	3344	16152	-1	-25	49	127	137	12
-3996	-7756	13800	7	-22	-14	-11736	-7792	6704	-18	-16	-3	1760	-3480	16024	27	-19	9	-2040	6848	14552	-35	14	-18	-12752	7280	7424	-3	-1	14	600	3272	16144	-3	-31	55	127	138	12
-4000	-7732	13668	9	-26	-14	-12024	-7760	6656	6	-13	-19	1680	-3568	16264	21	-23	9	-2016	6720	14344	-47	15	-22	-12992	7368	7608	10	-9	11	552	3232	16560	-5	-32	37	127	138	12
-3976	-7672	14008	3	-32	-20	-12184	-7688	6848	0	-18	-19	1920	-3504	16120	20	-17	4	-1864	6504	14464	-22	14	-19	-12960	7232	7576	-3	-13	9	760	3064	16464	-6	-34	31	127	137	12
-4268	-7908	13936	-12	-31	-28	-12176	-7792	6824	-3	-16	-18	2096	-3504	16536	22	-19	10	-1904	6672	14608	-29	9	-19	-13120	7272	7800	-15	-18	11	792	3200	16744	-9	-32	21	127	138	12
-4128	-7776	14096	-11	-21	-23	-12048	-7840	7032	-21	-16	-27	1944	-3536	16456	10	-19	18	-1704	6688	14264	-7	12	-9	-13000	7248	7776	-20	-12	9	1008	3112	16376	-11	-29	14	127	139	12
-4176	-7496	14080	-14	-16	-27	-12056	-7912	6944	-26	-17	-24	2136	-4008	16352	7	-10	22	-1848	6304	14096	-6	15	-16	-12536	7368	7832	-21	-8	7	1032	3056	16328	0	-23	17	128	139	12
-4468	-7920	13844	-17	-16	-32	-11816	-7872	6784	-23	-13	-17	2208	-4016	16416	13	-5	24	-1880	6736	14576	-22	14	-25	-12784	7472	7816	-3	-11	16	1128	3208	16704	1	-21	24	128	138	12
-4368	-8380	14292	-2	-23	-24	-12288	-8632	7048	-8	-7	-23	1920	-4056	16864	11	-13	24	-1696	6600	14968	-36	12	-30	-13760	7560	8024	-18	3	23	864	3392	17128	-13	-29	22	128	139	12
-4208	-8064	14528	0	-11	-22	-12840	-8368	7072	18	-3	-31	2008	-4272	17016	17	-20	21	-1992	6392	15240	-34	14	-22	-13864	7536	8168	-13	-6	19	848	3496	17016	-29	-32	14	127	139	12
-4268	-7984	14292	-15	4	-25	-12344	-8352	7224	6	0	-12	2128	-4184	16728	31	-8	11	-1856	6256	14640	-2	14	-9	-13808	7376	8144	-19	-6	17	1040	3240	17112	-30	-29	22	127	138	12
-3788	-7952	14136	-10	-11	-19	-11608	-8224	6872	-31	-7	-4	2408	-4104	16128	20	-3	9	-1448	6664	14608	-6	13	-10	-12656	7224	8336	48	-2	-5	1584	2976	16472	0	-14	26	127	136	12
-3928	-7992	13752	-1	-7	-11	-11544	-8440	6880	-36	-14	-4	2416	-3848	16064	0	9	6	-1616	7232	14248	-14	22	-14	-12456	7384	7912	26	-5	15	1504	2952	16104	15	3	25	127	136	12
-3956	-7952	13852	12	-27	-7	-11832	-8208	6808	-11	-7	-16	2248	-4112	16208	-14	17	4	-1592	6672	14552	-33	20	-22	-12584	7624	8416	-21	11	24	1104	3136	16624	22	9	31	127	138	12
-3812	-7748	14036	18	-21	-7	-12392	-7992	6928	-9	-9	-13	1952	-4064	16592	-6	20	7	-1688	6536	14304	-27	25	-24	-12824	7096	7896	-50	20	17	752	3064	16336	11	-2	36	127	139	12
-3920	-7836	14056	7	-22	-18	-12200	-7872	6872	-26	-10	-3	2008	-3976	16104	25	14	15	-1512	6440	14040	-11	21	-16	-12816	6936	8032	-29	5	9	920	2744	16104	0	-8	40	127	139	12
-4160	-7620	13856	3	-14	-15	-11608	-7992	6800	-34	-12	6	2152	-3728	15832	36	4	17	-1568	6872	13728	-7	26	-16	-12648	6792	7552	6	-1	22	1088	2696	16144	6	-19	32	127	138	12
-4076	-7716	14076	6	-20	-17	-11568	-8176	6792	-16	-4	14	2304	-3960	16144	41	-8	18	-1216	6480	14376	-7	11	-15	-12952	7008	8272	60	-14	31	1160	2856	16376	18	-24	28	127	138	12
-3952	-8216	14240	14	-19	-9	-11792	-8448	7168	2	-19	5	2352	-3904	16376	42	-19	13	-1656	6472	15040	-20	15	-19	-13200	7464	8176	38	-14	43	1176	3184	16896	16	-27	14	127	137	12
-3992	-8112	14168	20	-21	-5	-12488	-8560	6984	43	-10	-13	2136	-4000	17096	46	-24	9	-2224	6440	15368	-15	22	-15	-13624	7704	8456	13	-8	40	1008	3376	17176	1	-34	9	127	139	12
-3764	-8272	14300	0	-18	-13	-12552	-8360	7416	38	-10	-4	2144	-4008	16880	42	-27	10	-1800	6288	15104	6	31	-10	-13416	7424	8560	-8	-7	30	1232	3480	17264	-9	-36	8	127	138	12
-3716	-8188	14016	-8	-12	-16	-11928	-8216	7072	5	1	5	2200	-3968	16704	45	-16	10	-1480	7032	14904	16	23	-3	-12920	7272	8480	15	-5	15	1528	3320	16808	-7	-28	18	127	136	12
-3580	-8244	14088	-17	-18	-14	-11832	-8224	7320	-36	-20	13	2536	-4104	16304	13	2	24	-1328	6984	14264	12	24	-6	-12560	7432	8456	-16	-5	21	1672	3200	16680	21	-5	26	127	137	12
-4204	-8056	14032	-2	-30	-6	-11680	-8440	6872	-21	-8	5	2528	-4120	16376	3	6	24	-1776	7192	14184	-17	26	-14	-12528	7640	7840	-19	0	29	1360	3376	16680	29	1	38	127	137	12
-4032	-8028	14576	18	-37	-1	-12144	-8424	7112	0	-4	3	2200	-4080	16616	8	5	20	-1504	7240	14416	-23	22	-13	-12952	7528	8072	-34	10	37	896	3440	16544	31	1	45	127	139	12
-4100	-7960	14588	15	-37	-13	-12360	-7920	7152	-18	-13	7	2024	-4224	16552	27	7	19	-1640	6784	14560	-12	13	-14	-13064	7544	7744	-4	13	23	832	3192	16344	21	-12	48	127	139	12
-3772	-7936	14160	17	-18	-8	-12048	-7984	7056	-13	-20	16	2288	-4040	16184	49	5	14	-1352	7216	14904	4	10	-8	-12752	7072	7992	22	2	24	1112	3008	16248	30	-22	45	127	138	12
-3596	-7660	13996	12	-17	-13	-11608	-8064	7312	-18	-31	15	2160	-3792	16280	52	-8	10	-1848	6672	14408	-12	17	-9	-12856	7256	8016	34	-17	30	1136	3176	16504	26	-26	39	127	137	12
-3972	-8168	13708	20	-20	-15	-11840	-8376	6792	15	-19	1	2192	-3552	16384	46	-17	6	-1592	6352	14576	2	8	-8	-13136	7056	7880	30	-19	42	1256	3152	16528	26	-29	31	127	138	12
-3756	-7916	14484	32	-36	-7	-12168	-8120	7608	19	-19	2	2328	-3648	16744	43	-19	-3	-1528	6664	14720	-4	12	-16	-13072	7568	8360	34	-27	38	1272	3408	17008	14	-26	13	128	138	12
-3840	-8344	14108	17	-19	-16	-12288	-8128	7440	16	-18	4	2368	-3624	16856	32	-17	2	-1488	6568	14800	15	13	-9	-12992	7288	8256	-14	-9	29	1416	3248	16712	13	-23	4	127	138	12
-3484	-7960	13980	6	-16	-14	-11800	-8000	7192	-6	-10	-2	2496	-3680	16272	19	0	8	-1480	6760	14408	16	14	-7	-12592	7256	8344	-13	-6	25	1296	3456	16504	7	-19	2	127	138	12
-3616	-8052	13552	8	-13	-13	-11440	-8064	7248	-9	-11	5	2528	-3712	16216	11	7	14	-1560	6496	14064	9	19	-12	-12352	7144	8120	-7	0	27	1504	3424	16464	10	-13	12	126	138	12
-3496	-7896	13964	11	-20	-18	-11408	-8144	7088	-17	-4	4	2512	-3816	16144	8	8	15	-1168	6832	14504	-4	19	-16	-12584	7360	8264	15	-1	23	1448	3376	16416	18	-10	24	126	138	12
-3816	-8296	14236	22	-28	-10	-12032	-8432	7528	-23	-13	-5	2168	-4080	16536	16	0	16	-1416	6808	14752	-36	23	-29	-13168	7672	8480	-21	-5	34	1040	3424	16816	5	-20	30	127	139	12
-4088	-7816	14532	19	-25	-13	-12496	-8288	7640	14	-5	-16	2200	-4048	16672	34	-11	15	-1512	6456	14976	-23	24	-25	-13416	7480	8304	-20	2	28	928	3512	16816	-9	-27	35	127	139	12
-3976	-7940	14400	1	-18	-16	-12408	-8160	7072	0	-3	0	2328	-3976	16776	53	-20	15	-1640	6424	14712	-2	28	-14	-13120	7248	8088	-5	5	12	1240	3360	16784	-8	-29	34	127	139	12
-3568	-7936	14240	-2	-12	-19	-11760	-8248	7432	-23	-3	7	2592	-3920	16224	45	-12	12	-1080	6960	14552	11	17	-13	-12816	7288	8608	55	-4	4	1832	3160	16576	14	-21	30	127	137	12
-3796	-8156	14108	-2	-6	-12	-11472	-8352	7552	-27	-18	14	2776	-3672	16376	22	5	11	-1504	6624	14136	-10	29	-20	-12560	7584	8632	14	-4	25	1624	3232	16656	27	-3	21	127	137	12
-3792	-7936	13964	22	-17	-7	-11704	-8320	7432	12	5	-8	2480	-3776	16632	5	9	7	-1352	6968	14336	-8	25	-16	-12816	7424	8536	2	6	26	1320	3592	16496	25	8	17	127	138	12
-3660	-7664	14624	20	-20	-4	-12168	-7920	7360	12	6	3	2424	-3800	16400	0	19	8	-1080	6520	14352	-8	28	-18	-12616	7424	8256	-17	6	29	1304	3368	16328	15	7	17	127	139	12
-3672	-7704	14220	13	-18	-11	-11936	-7952	7184	-11	0	9	2392	-3712	16304	12	18	10	-1456	6256	14168	-10	26	-19	-12496	7344	8248	-25	17	23	1320	3368	16136	-1	0	19	127	139	12
-3764	-7936	13980	11	-10	-18	-11576	-7864	6920	-23	-6	10	2224	-3752	16072	20	11	15	-1416	6792	14208	-6	26	-21	-12656	7384	8088	-5	8	23	1256	3184	16336	-2	-14	20	127	139	12
-3836	-7680	13888	14	-14	-7	-11720	-8256	7160	-18	-4	7	2120	-3808	16128	26	0	15	-1400	6976	14384	-16	24	-19	-12712	7424	8152	20	7	32	1160	3288	16488	-3	-22	24	127	139	12
-4028	-7732	14340	16	-24	-5	-12128	-8400	7392	6	-5	0	1984	-3880	16560	33	-14	11	-1656	6784	14560	-24	26	-24	-13104	7552	7888	15	0	31	920	3328	16792	-2	-26	36	127	139	12
-4120	-8024	14232	19	-18	-7	-12336	-8288	7152	19	-1	10	2104	-4024	16592	38	-14	11	-1616	6112	14696	-17	33	-20	-13144	7248	8080	-9	10	24	968	3392	16856	6	-21	39	127	138	12
-3972	-8048	14224	6	-16	-10	-12048	-8080	6808	12	-1	15	2200	-3808	16728	38	-14	13	-1416	6672	14544	-13	29	-16	-13280	7432	8328	11	9	16	1216	3240	16896	1	-26	35	127	137	12
-4224	-7960	14204	0	-11	-4	-11896	-8208	7264	-9	-11	5	2232	-3760	16568	23	-5	18	-1472	7040	14976	-12	27	-14	-13096	7432	8240	3	12	11	1280	3072	16912	2	-12	39	127	137	12
-3888	-8288	14300	0	-18	-10	-11888	-8280	6928	-5	-8	9	2376	-4008	16432	14	2	24	-1456	5928	14560	-8	29	-10	-12960	7400	7976	-12	11	10	1296	3096	16432	14	-3	38	127	137	12
-3760	-8160	14108	10	-21	-8	-11792	-7968	6920	-23	-16	-3	2352	-3944	16328	12	18	17	-1584	6688	14576	-17	24	-10	-12712	7488	7968	-8	-4	27	1264	3104	16400	16	4	35	127	138	12
-3744	-7716	14224	24	-25	-3	-11992	-8176	7264	-22	-13	4	2112	-4056	16016	17	19	25	-960	7416	14376	1	23	-3	-12584	7168	8000	-18	2	28	1152	3120	16200	34	4	40	127	138	12
-3820	-7328	14384	3	-32	-11	-11864	-7872	7168	-26	-24	12	2200	-3976	16256	36	11	19	-1624	7064	14232	-2	20	-5	-12560	7432	7928	-18	-4	42	1040	3232	16192	32	0	44	127	138	12
-3844	-7404	14192	22	-33	2	-11968	-8112	7232	-25	-24	16	2184	-3760	16048	46	3	16	-1624	6800	14352	-10	16	-5	-12616	7448	7744	-6	0	45	952	3392	16224	34	-9	40	127	138	12
-3884	-7944	14132	14	-34	-8	-12024	-7904	7152	-4	-20	27	2128	-3544	16472	52	-8	13	-1936	6704	14624	-11	11	-4	-12984	7672	8128	35	-8	49	936	3432	16432	37	-12	42	127	138	12
-3944	-8008	13932	24	-20	3	-12136	-8312	7392	4	-28	16	2064	-3552	16296	49	-21	9	-1968	6888	14888	-16	16	-10	-13192	7528	8040	25	-5	46	904	3704	16880	14	-38	29	126	139	12
-3832	-7672	14136	27	-32	1	-12248	-7912	7384	36	-11	14	2040	-3448	16608	41	-26	4	-1688	6752	14736	6	26	1	-12992	7472	8040	32	-24	40	1072	3584	16552	11	-39	22	127	138	12
-3740	-7480	14476	4	-28	-12	-11856	-7816	7304	21	-11	17	2320	-3256	16656	33	-20	2	-1232	6832	14576	3	10	3	-12736	7656	8536	29	-23	28	1256	3800	16632	13	-33	18	127	138	12
-3816	-7524	14252	13	-17	-3	-11856	-7776	7424	-7	-24	9	2368	-3392	16296	21	-7	11	-1416	6400	14000	10	16	0	-12736	7824	8408	16	-23	21	1520	3712	16360	19	-12	17	128	137	12
-3856	-7756	13976	1	-28	-14	-11696	-7608	7112	2	-8	-1	2368	-3304	16320	1	2	12	-1488	6552	14240	-11	18	-11	-12528	7664	8480	-19	-3	24	1312	3736	16560	9	-12	20	127	138	12
-3756	-8104	14244	3	-33	-20	-12008	-7952	7352	-37	-21	-9	2184	-3600	16528	-3	-5	24	-1704	6736	14480	-28	17	-19	-12856	7824	8168	-36	16	24	1160	3624	16872	-7	-17	30	127	139	12
-4076	-8128	14524	-6	-28	-19	-12520	-8080	7232	-28	-6	-24	2264	-3808	17080	10	-13	26	-1368	7072	15080	-33	17	-21	-13352	7744	8264	-21	7	15	936	3672	17072	-30	-30	37	127	140	12
-3672	-7408	14432	-20	-9	-14	-12488	-7984	7576	-33	-15	-21	2232	-3856	16720	27	-11	32	-1552	6048	14896	-29	29	-17	-13208	7464	8376	-20	2	4	1296	3616	16968	-31	-31	35	127	139	12
-3980	-7976	14076	-24	-3	-18	-11840	-8152	6968	-23	-9	-14	2616	-3696	16248	30	-1	32	-1552	6720	14176	-13	21	-8	-12752	7392	8288	26	7	-10	1680	3272	16488	-25	-11	33	127	137	12
-3516	-7972	14004	-14	2	-11	-11472	-8176	7328	-25	-3	-10	2728	-3784	15920	11	9	35	-1112	7064	14160	-12	24	-4	-12432	7360	8632	34	17	-2	1832	3208	16456	11	4	40	127	136	12
-3704	-7896	13972	-12	-9	-3	-11664	-8304	7264	-24	-5	-21	2584	-3928	16200	-6	9	35	-1496	7048	14424	-39	42	-23	-12448	7488	8304	-23	16	13	1624	3376	16552	15	17	35	127	136	12
-3680	-7612	14348	-4	-19	-6	-11896	-8352	7208	3	16	-24	2272	-3968	16488	-5	17	32	-960	7072	14656	-34	36	-19	-12856	7144	8744	-39	34	9	1144	3096	16368	2	8	34	127	138	12
-3772	-8160	14052	-13	-5	-8	-11848	-8024	7352	-22	-1	-4	2160	-4048	16144	14	15	30	-1544	6448	14096	-19	50	-20	-12528	7064	7984	-62	34	6	1176	3120	15992	-23	0	33	127	139	12
-3764	-7868	13752	-17	-9	-12	-11584	-8096	6864	-26	10	-4	2376	-4104	16136	18	13	35	-1656	6744	14168	-31	48	-25	-12656	6976	8272	-5	22	11	1320	2712	15904	-23	-9	41	127	139	12
-3364	-8020	14032	-8	-12	-5	-11536	-8248	7048	-58	-13	16	2448	-4216	15936	29	1	36	-1408	6176	14424	-8	37	-17	-12576	6976	7856	21	9	27	1184	2776	16336	-7	-7	39	127	139	12
-3568	-7800	13948	9	-24	5	-11704	-8400	6984	-27	-8	13	2136	-4328	16248	31	-7	30	-1456	7184	14600	-28	32	-13	-12904	7224	8120	15	3	48	1256	3024	16592	13	-12	36	127	139	12
-3876	-8344	14604	26	-29	0	-12016	-8488	7088	14	-7	13	2304	-4352	16656	47	-14	21	-1112	7312	15136	-24	18	-9	-13504	7368	8632	11	5	48	992	2928	16928	24	-17	36	127	139	12
-3956	-8708	14324	1	-11	-7	-12384	-8480	7032	14	-15	15	2168	-4152	16592	58	-19	22	-1720	6144	15528	-3	16	-2	-13560	7160	8600	-17	6	41	1096	3224	17064	15	-26	34	127	138	12
-3756	-7704	14140	13	-9	4	-11888	-8328	7376	-1	-23	7	2248	-3896	16440	57	-13	24	-1712	6608	15160	10	23	10	-13192	7368	8416	16	-6	35	1440	3272	17064	5	-22	27	127	138	12
-3852	-8064	14164	10	-22	-3	-11584	-8200	7408	-14	-14	24	2640	-3872	16400	46	-12	24	-1528	6968	14576	17	27	3	-13040	7368	8448	32	-15	37	1680	3384	16704	12	-15	26	127	137	12
-3592	-8464	14124	17	-30	4	-11792	-8368	7512	-22	-12	11	2632	-3864	16624	25	-2	28	-1112	6816	14288	14	22	7	-12744	7552	8384	16	-14	46	1736	3504	16384	27	6	30	127	137	12
-3552	-7864	14132	29	-28	3	-11896	-8088	7288	-12	-17	17	2600	-3832	16760	14	17	24	-1288	6880	13984	20	21	7	-12240	7744	8520	-10	3	47	1544	3672	16024	39	13	31	127	137	12
-3764	-7436	14096	20	-24	3	-11936	-7784	7208	-10	-15	25	2360	-3728	16376	25	21	18	-1408	6536	14056	-12	36	-14	-12184	7592	8272	-50	14	43	1264	3704	16200	40	11	37	127	138	12
-3600	-7744	14052	34	-34	6	-11768	-8064	7424	-19	-6	32	2216	-3704	16320	21	17	16	-1184	6704	14376	-22	27	-11	-12688	7424	8168	-11	25	34	1184	3560	16024	30	-3	37	126	138	12
-3476	-8148	14216	18	-23	-6	-11840	-7904	7376	-28	-15	30	2376	-3336	16144	28	0	10	-1184	7192	14456	-22	27	-13	-12832	7472	7952	2	3	31	1008	3520	16504	3	-20	40	127	139	12
-4080	-8136	14276	11	-26	-9	-11984	-7928	7192	1	-12	8	2200	-3472	16480	36	-11	10	-1432	6600	14496	-17	30	-15	-12968	7336	7880	6	-7	32	1136	3624	16264	-7	-30	40	127	138	12
-3640	-7684	14356	16	-25	-3	-11752	-7776	7272	17	-8	5	2200	-3456	16688	33	-14	10	-1400	7192	14688	-8	17	-2	-12760	7464	8272	48	-10	24	1256	3648	16488	-12	-22	30	127	138	12
-3708	-7724	14128	17	-29	-4	-11960	-7856	7384	6	-14	-7	2216	-3272	16184	28	-20	19	-1504	6440	14360	-14	27	-12	-12584	7576	8168	-7	-12	26	1544	3536	16320	-1	-11	28	127	138	12
-3668	-8056	13872	-10	-15	-16	-11704	-7680	7264	-9	-10	-5	2328	-3544	15968	15	-11	29	-1400	6904	13936	7	22	-1	-12416	7424	8144	-24	10	15	1336	3416	16568	8	-7	30	127	137	12
-3836	-7408	14052	-11	-18	-12	-11664	-7800	7248	-39	-15	-9	2248	-3616	16360	11	-9	28	-1792	6952	14672	-29	26	-22	-12728	7600	8224	-36	17	31	1176	3536	16808	-2	-17	37	127	137	12
-3936	-8580	14096	9	-20	-6	-12424	-8408	7264	-22	-3	-7	1992	-3880	16968	19	-22	39	-1960	7360	14864	-52	33	-27	-13440	7760	8088	-41	30	13	760	3384	17152	-18	-27	43	127	139	12
-4460	-7968	14728	6	-28	-5	-12888	-8416	7488	-10	-4	-8	2032	-4088	17144	21	-32	36	-2144	6280	14904	-40	42	-25	-13896	7744	8048	-31	21	20	800	3368	17680	-42	-43	40	127	139	12
-4276	-8268	14376	-10	-6	-9	-12704	-8344	7104	5	7	1	2096	-4144	17056	27	-24	36	-1872	5928	14832	-19	26	-18	-13632	7448	7848	9	15	12	872	3264	17144	-34	-27	40	127	139	12
-4144	-7772	14280	-12	0	-8	-12160	-8240	6712	-14	3	8	2208	-4080	16560	22	-10	36	-1928	6464	14616	-4	29	-15	-13216	7640	7992	48	18	1	1240	3248	16824	-9	-13	40	127	136	12
-4220	-8128	13868	0	-4	7	-11832	-8576	6888	-15	5	9	2088	-3984	16368	-1	-6	30	-1904	6928	14216	-18	52	-20	-12848	7432	7496	-11	24	13	1048	3168	16472	17	11	38	127	136	12
-4492	-7624	13848	0	-2	2	-11904	-8152	6648	17	19	15	1968	-4048	16400	-16	19	14	-1456	7032	14256	-14	31	-16	-12904	7472	7800	-6	36	5	904	3192	16320	30	19	36	128	136	12
-4340	-7708	14332	23	-14	9	-12128	-7944	6392	-14	0	15	1856	-3904	16592	2	30	14	-2312	6824	14160	-30	28	-20	-12944	7616	7776	-30	40	22	584	3096	16376	9	20	42	128	138	12
-4352	-7716	14176	18	-13	1	-12696	-7744	6872	-11	-2	4	1528	-3944	16272	16	25	19	-2024	6968	14440	-12	32	-6	-13144	7152	7400	-46	34	22	264	2928	16592	-6	8	42	127	139	12
-4376	-7468	14096	6	-13	-2	-12352	-7560	6640	-35	-7	13	1736	-3952	16424	34	10	23	-2040	6992	14520	-18	30	-15	-13104	7112	7392	-1	11	29	432	2816	16272	-16	-10	39	127	139	12
-4472	-8076	14116	17	-11	2	-12112	-8176	6752	-51	-12	20	1744	-3856	16168	46	8	30	-2168	6160	14576	-27	32	-25	-13120	7104	7696	40	1	27	528	3040	16880	-8	-14	31	127	139	12
-4636	-8164	13684	4	-10	-5	-12064	-8320	6592	-21	-10	10	1624	-3784	16336	38	-1	24	-2688	6240	14848	-31	33	-26	-13448	7392	7472	22	6	38	528	3064	16848	-1	-16	29	127	138	12
-4172	-7756	14040	11	-13	-1	-12448	-8328	6504	6	6	-1	1584	-3752	16456	35	-1	22	-1984	6368	15096	-5	18	-5	-13520	7392	7864	35	2	30	448	3152	17248	8	-15	18	127	138	12
-4476	-7680	14364	0	-19	-1	-12560	-8000	6848	16	-9	-7	1672	-3816	16880	29	-10	21	-2496	6840	14232	7	39	-7	-13448	7848	7336	-10	-4	27	520	3264	17080	-1	-11	19	127	137	12
-4692	-7952	13892	5	-7	-1	-12544	-7656	6280	28	5	-4	1584	-3904	16768	27	-10	29	-2208	6952	14704	-2	27	-10	-13000	7672	7752	-7	15	24	656	3192	16736	7	-9	31	127	138	12
-4324	-7884	14132	0	-5	2	-12488	-7896	6888	-28	-1	20	1752	-3904	16680	26	-6	37	-2400	7000	14336	-10	35	-11	-13016	7632	7392	-14	21	15	640	3232	16352	12	-5	33	127	137	12
-4472	-7756	14128	5	-6	-4	-12224	-7864	6080	-30	2	11	1608	-3800	16720	12	3	35	-2400	6952	14144	-21	35	-13	-12848	7528	7328	-46	26	24	328	3296	16440	6	-6	50	127	138	12
-4652	-7532	13748	15	-12	5	-12224	-7928	6600	-14	7	16	1312	-3728	16424	9	7	29	-2568	6688	14224	-25	43	-23	-13080	7352	6840	-44	29	16	-40	3248	16232	1	-2	49	127	138	12
-4652	-7812	13924	1	-20	-3	-12304	-7744	6264	7	18	19	1304	-3704	16200	10	10	17	-2376	6880	14224	-23	25	-17	-13152	7296	7016	2	24	6	-160	3184	16312	1	-5	48	127	138	12
-4568	-7684	14012	14	-20	6	-12488	-7664	6352	-13	-4	7	1112	-3552	16296	16	5	10	-2416	6424	13952	-32	30	-16	-13288	7416	6936	11	12	16	-264	3176	16312	2	-11	41	127	138	12
-4932	-7440	13820	-5	-18	-9	-12480	-7440	6016	8	-2	4	1088	-3440	16208	23	-3	9	-2456	6592	14832	-35	18	-18	-13336	7448	7096	32	4	15	-48	3120	16440	2	-26	44	127	138	12
-4624	-8008	13812	8	-15	-5	-12568	-7832	6464	-31	-10	-6	1016	-3512	16264	27	-13	13	-2520	6648	14360	-19	19	-16	-13256	7456	7024	11	5	9	32	3200	16448	-6	-18	31	127	138	12
-4664	-7540	13928	-10	-18	-13	-12368	-7688	6280	-8	-7	-15	1176	-3576	16264	22	-8	17	-2384	6208	14208	-22	18	-13	-13280	7560	7240	-7	-3	15	200	3024	16416	-11	-18	25	127	137	12
-4524	-7104	13956	1	-17	-15	-12424	-7688	6544	-23	-22	-19	1320	-3648	16304	8	-1	15	-2424	6032	13664	-14	23	-14	-12848	7032	6784	-49	-9	10	328	3168	16008	2	-9	21	127	137	12
-5108	-7676	13304	-21	-6	-26	-11856	-7520	6368	-1	-1	-15	1440	-3632	16336	8	6	15	-2128	6312	13904	-20	18	-15	-12888	7000	7176	-11	-7	8	552	2968	16016	0	-14	18	128	137	12
-4672	-7652	13828	-8	-18	-26	-12128	-7968	6544	-28	-15	-17	1504	-3864	16440	-5	8	12	-2464	6384	14416	-38	21	-28	-13528	7272	7464	1	-4	12	416	3080	16872	-7	-27	14	127	138	12
-5240	-8112	13904	-5	-21	-22	-12864	-8152	6216	-11	-7	-31	1304	-4000	16968	11	-11	15	-2736	6480	15280	-48	24	-34	-14152	7480	7664	-12	-2	19	152	3192	17272	-44	-41	14	127	139	12
-4844	-7804	14640	-13	-14	-17	-13368	-8280	6672	-13	2	-31	1232	-4120	17360	28	-29	22	-2608	6136	15080	-26	33	-26	-14296	7448	7408	-17	10	9	96	3064	17552	-53	-40	11	127	140	12
-4992	-8064	14240	-29	4	-26	-12944	-8352	6584	-30	-2	-20	1472	-4056	17032	30	-21	28	-2488	6320	14496	-4	39	-17	-13776	7104	7616	1	2	-7	616	2768	17048	-35	-25	21	126	138	12
-4712	-7636	14112	-32	8	-21	-12224	-8360	6256	-32	-2	-5	1512	-4416	16888	29	-18	32	-2352	5744	13984	-3	32	-19	-13096	7296	7304	3	6	0	800	2576	16696	7	-5	26	127	136	12
-4944	-7896	13528	-16	9	-12	-11720	-8280	6008	-21	2	3	1824	-4240	15976	-3	11	24	-2168	6208	13512	-14	31	-19	-12752	7352	7224	1	25	9	872	2600	16264	37	13	35	127	136	12
-4888	-7864	13644	1	-11	-9	-11872	-8112	5712	17	17	4	1528	-4240	16440	-14	25	17	-2328	6664	14616	-38	25	-34	-13160	7432	7376	11	33	26	384	2832	16792	34	15	40	127	136	12
-4680	-8056	14072	26	-31	1	-12880	-8296	6416	4	2	5	1048	-4464	16584	2	21	18	-2576	6296	14664	-35	27	-26	-13752	7360	7384	-34	35	25	-184	2712	16672	-4	7	45	127	138	12
-4712	-6972	14048	26	-13	11	-12952	-7592	5984	12	5	3	1032	-4264	16672	33	14	15	-3024	6480	14616	-12	27	-25	-13624	7232	6904	-16	30	21	-256	2624	16568	-17	-5	48	127	139	12
-4688	-8088	14012	18	-7	-8	-12680	-7936	5984	-22	-1	34	1056	-3928	16320	59	-4	19	-2640	7016	14520	-3	29	-13	-13664	7080	6728	24	2	33	96	2512	16312	-7	-23	39	126	138	12
-5076	-8136	13820	16	-14	-5	-12256	-8144	6264	-42	-11	24	1176	-3816	16400	52	-10	20	-2672	6880	14864	-13	24	-20	-13696	7168	6920	53	-7	40	24	2656	16840	18	-27	29	126	137	12
-4928	-7936	14120	34	-23	0	-12616	-8376	6128	-26	-16	4	1144	-4016	16720	40	-17	13	-2816	6568	14896	-7	18	-4	-14088	7448	7360	40	-26	47	64	2840	17024	31	-19	18	127	137	12
-5032	-7736	14272	36	-23	0	-13048	-8040	6496	25	-12	7	1296	-3856	16816	35	-13	7	-2920	6736	14880	12	20	-7	-13824	7800	7176	26	-17	48	112	3120	17496	29	-13	6	127	137	12
-4980	-7484	14380	23	-15	-1	-13104	-7992	6592	17	-14	10	1320	-3800	17176	42	-2	13	-2848	6640	14448	25	26	-3	-13360	7584	7176	-11	-10	43	352	3224	17072	17	-10	12	127	138	12
-5084	-7756	14140	4	-4	-11	-12768	-7704	6384	3	-1	16	1152	-3744	16880	28	1	19	-2648	6640	14632	16	25	-9	-13240	7624	7408	-6	5	37	256	3384	16776	8	-7	11	127	138	12
-4912	-7976	13940	8	-10	-11	-12312	-8056	6416	-23	-2	20	1408	-3688	16544	24	4	24	-2584	6368	14248	13	26	-11	-13136	7704	7368	-16	8	27	120	3368	16632	6	-6	23	127	138	12
-4864	-7688	13676	8	-2	-6	-12280	-7768	5944	-6	-2	15	1328	-3720	16280	8	20	20	-2632	6536	14528	-10	25	-18	-12912	7480	7192	-2	21	21	240	3384	16176	10	-3	33	127	139	12
-4616	-7884	13856	12	-15	-9	-12224	-8128	6240	3	4	14	1160	-3776	15928	7	19	16	-2456	6920	14432	-24	28	-24	-12928	7568	7200	1	19	23	-192	3128	16648	10	-8	38	127	137	12
-4832	-7948	13760	14	-15	-7	-12480	-7632	5872	25	8	-1	872	-3800	16368	8	12	12	-2576	6536	14472	-29	20	-26	-13560	7376	6936	24	4	14	8	3096	16632	3	-12	36	127	138	12
-4800	-7804	13856	9	-20	-14	-12480	-7672	6512	-1	-6	-7	944	-3632	16256	23	-1	12	-2720	6256	14784	-34	25	-26	-13536	7352	6688	9	6	4	-88	3144	16568	-8	-15	40	127	138	12
-4728	-8060	13756	5	-17	-22	-12440	-7800	5952	-25	-6	-14	1056	-3592	16192	27	-14	11	-2400	6224	14576	-26	15	-22	-13640	7232	7128	4	7	-1	176	2816	16360	-14	-20	32	128	138	12
-4496	-7200	14076	4	-20	-21	-12464	-8000	6424	-48	-20	-20	1232	-3880	16208	24	-4	4	-2568	6808	13640	-11	20	-17	-13144	7216	6832	-6	-10	6	280	2736	16192	-8	-14	27	127	137	12
-5312	-7272	13448	-4	-18	-17	-12352	-7784	6472	-50	-27	-25	1336	-4016	16336	22	-5	2	-2592	6120	14080	-9	15	-26	-12864	6992	6896	-8	-9	16	320	2688	16400	-6	-20	26	127	137	12
-4580	-7560	13740	13	-26	-18	-12280	-7904	6464	1	-6	2	1328	-3856	16128	14	6	4	-2760	6664	13808	-9	18	-23	-13136	7224	6760	4	0	15	208	2648	16256	9	-14	22	127	138	12
-5092	-7848	13680	4	-22	-22	-12440	-7672	6160	16	0	9	1056	-3920	16728	18	3	4	-2728	6520	14640	-41	18	-34	-13392	7264	7040	-10	7	29	-56	2808	16824	6	-27	20	128	138	12
-5080	-8056	14112	6	-21	-26	-12704	-8232	6128	7	-2	4	984	-3864	16608	21	-9	6	-2896	6280	14944	-27	25	-36	-14104	7272	7096	-11	4	19	-72	2776	16928	6	-31	20	127	140	12
-5192	-8156	14184	11	-18	-16	-12992	-8144	5984	11	-1	-8	1048	-4016	16744	25	-20	9	-2808	6336	15296	-12	17	-28	-14216	7288	7176	19	-9	22	144	2936	17400	-16	-42	7	127	140	12
-4900	-7968	14192	-2	-7	-20	-12872	-8240	6328	17	0	-5	1296	-4016	16776	36	-28	10	-2840	6720	14936	-1	18	-14	-13976	7280	7272	46	-28	16	440	2992	17208	-14	-24	3	127	139	12
-5112	-7616	13696	-1	-3	-25	-12352	-7872	6008	8	3	-10	1608	-4024	16488	22	-13	12	-2464	6368	14336	16	15	-7	-13152	7368	7304	53	-19	13	656	2896	16624	10	-4	8	127	138	12
-4860	-7744	14068	7	-6	-23	-12064	-8104	6144	-22	-4	-7	1584	-4136	16400	9	5	7	-2568	6888	13896	7	19	-11	-12984	7520	7496	17	-13	18	536	2968	16776	32	9	15	127	137	12
-4972	-7208	13768	17	-11	-10	-12440	-7864	5840	-9	0	-5	1320	-4152	16496	2	15	11	-2552	6888	14040	-11	23	-17	-12848	7640	6976	-37	13	28	192	3096	16440	44	14	29	127	138	12
-4912	-7732	14152	26	-18	-8	-12880	-7920	6352	-14	2	9	1136	-4104	16880	14	21	6	-2392	6744	14288	-22	30	-34	-13344	7584	7352	-28	13	23	96	3184	16608	29	5	29	127	138	12
-5024	-7596	14000	12	-8	-6	-12856	-7896	6120	-26	-8	19	1264	-3920	16608	20	18	2	-2632	5824	14256	-28	31	-30	-13360	7064	6992	-26	19	23	-64	3200	16352	-4	-9	27	127	139	12
-4920	-7880	13916	8	-8	-18	-12304	-7968	6336	-22	0	18	1080	-3736	16416	26	15	-2	-2520	6376	14368	-7	22	-24	-13568	7112	6840	33	1	4	176	3032	16400	-21	-23	23	127	139	12
-4964	-7568	13804	13	-6	-10	-12280	-8128	6200	-25	-2	17	1248	-3584	16256	15	9	0	-2704	6792	14344	-27	25	-27	-13496	7560	7264	50	-6	17	40	3096	16936	-19	-25	23	127	139	12
-5236	-8276	13808	11	-21	-18	-12864	-7976	6192	21	10	-17	952	-3672	16744	7	-9	7	-3136	6144	15000	-35	19	-32	-13912	7512	7272	40	-2	11	48	3096	17208	-14	-28	24	127	139	12
-4988	-7772	14188	25	-15	-6	-13248	-7696	6192	10	-8	-22	776	-4064	16920	6	-18	13	-2688	6528	14888	-21	21	-19	-13880	7656	7304	3	3	11	-8	2816	17448	-4	-23	17	127	138	12
-4764	-7764	14564	-1	-8	-20	-13128	-7672	6248	-6	-9	-15	976	-4096	16800	40	-21	25	-2744	7032	14848	-2	20	-15	-13784	7344	7272	-33	7	9	264	2864	17192	-1	-20	29	127	137	12
-4740	-7672	14312	-7	-4	-19	-12736	-7904	6544	-40	-25	-21	1192	-4176	16880	57	-21	40	-2736	6824	14624	-15	21	-16	-13584	7488	7352	-34	2	19	264	2608	16936	8	-18	31	126	137	12
-5180	-7732	14140	-19	-14	-27	-12584	-8456	6280	-31	-16	-11	1312	-4168	16744	40	-10	40	-2648	6664	14824	-21	13	-21	-13896	7360	7168	-5	-3	21	56	2896	16960	15	-15	39	126	137	12
-4980	-7960	14012	7	-18	-16	-12752	-8840	6408	-7	-15	-14	1184	-4368	16840	30	-3	26	-2816	6288	14600	-18	16	-22	-13712	7368	7000	9	-6	26	-72	2976	17008	16	-15	34	126	138	12
-4984	-7824	13988	4	-20	-19	-12752	-8440	6160	34	-6	-6	1184	-4192	16688	21	8	9	-2736	6168	14784	-18	8	-17	-13704	7248	7288	35	-13	22	40	3000	16328	24	-16	27	126	138	12
-4772	-7696	13544	13	-16	-13	-12392	-8072	6200	36	-9	5	1248	-3952	16320	12	16	-4	-2960	6304	14376	-4	15	-13	-13136	7240	6944	27	-9	12	112	2856	16344	24	-12	22	127	138	12
-4844	-7784	13344	5	-9	-21	-12056	-7776	5992	29	0	5	1144	-3608	16104	7	4	-11	-2600	6376	14312	-6	19	-26	-13224	7248	7120	11	-7	17	-8	2968	16560	14	-17	17	126	138	12
-4736	-8020	13560	19	-30	-10	-12464	-7968	5896	-13	-6	6	1096	-3672	16184	2	-6	-12	-2416	7016	14832	-21	16	-19	-13744	7416	7080	6	-6	25	-88	2920	16872	5	-26	12	127	138	12
-5020	-7556	14400	17	-30	-14	-12712	-8000	6336	-29	-14	-11	776	-3896	16704	9	-21	-8	-2792	6784	14872	-14	16	-19	-14016	7664	7168	-21	-17	22	-216	2944	17024	-21	-35	8	127	138	12
-5100	-7616	14388	19	-33	-13	-13424	-7776	6592	-20	-20	-16	1088	-3960	16840	27	-25	-3	-2784	6472	14128	22	16	-9	-13472	7352	6784	-44	-21	26	-104	2864	16624	-20	-30	9	127	139	12
-4728	-6740	14052	-10	-20	-23	-12680	-7464	6560	-5	-14	12	1336	-3944	16552	40	-10	2	-2216	6440	13936	21	8	-5	-12784	7152	7328	29	-30	21	472	2800	16144	17	-21	14	127	137	12
-4872	-7396	13344	-12	-9	-26	-11800	-7848	6264	-24	-17	22	1528	-3568	15808	35	7	7	-2672	6808	13400	12	18	-12	-12280	7256	6856	15	-17	23	640	2848	16048	52	-1	18	127	136	12
-5084	-7656	13020	1	-20	-23	-11704	-7776	5728	21	-1	1	1400	-3560	15920	7	10	5	-2648	6736	13544	3	15	-16	-12696	7328	6984	21	-1	36	48	3208	16176	48	-10	19	127	138	12
-5164	-8312	13904	21	-27	-24	-12544	-8216	6272	41	6	-13	984	-3736	16624	8	-7	5	-2608	6656	14920	-50	5	-35	-14176	7496	7656	44	-1	23	-256	3272	17280	5	-28	16	127	139	12
-5244	-7568	14204	22	-15	-15	-13512	-7984	6312	49	-9	-45	768	-4040	16896	20	-5	-4	-3360	5600	15032	-37	14	-40	-14304	7624	6936	-4	-10	11	-192	3248	17080	-53	-39	6	127	141	12
-4868	-8044	13792	-4	0	-33	-13240	-7696	5832	46	10	-29	968	-3952	16528	39	-19	-1	-2656	6048	14872	5	9	-16	-13704	7256	7360	20	-11	-11	352	2984	16968	-69	-44	13	128	140	12
-4284	-7260	14068	-11	6	-32	-12064	-7528	5928	-54	-12	-8	1616	-3920	15760	26	-10	12	-2096	6928	13880	17	17	-6	-12856	7336	7608	35	-13	-14	816	2600	16440	-19	-21	13	127	137	12
-5092	-7916	13236	-17	3	-27	-11704	-8040	5760	-68	-14	-15	1688	-4040	16256	0	1	25	-2680	6472	13752	-12	23	-20	-12544	7416	7048	-28	3	17	840	2496	16256	27	9	20	127	135	12
-4884	-7560	13744	22	-23	-15	-12240	-8232	6432	-39	-3	-17	1616	-4432	16312	-13	9	24	-2368	7064	14568	-37	22	-32	-13440	7424	7304	-26	23	22	8	2672	16688	45	17	26	127	136	12
-5128	-8208	14064	15	-22	-16	-13104	-8360	6368	-22	-1	-10	1112	-4376	17008	16	9	21	-2984	6736	14720	-46	30	-37	-13976	7272	7040	-49	26	25	-312	2840	17104	10	-4	32	126	139	12
-5208	-7476	14172	20	-15	-7	-13288	-8328	6248	12	11	-6	816	-4304	17000	38	4	14	-3112	6160	14384	-21	31	-29	-13808	7048	6808	-19	19	12	-440	2752	16792	-19	-22	36	126	140	12
-5004	-7472	13908	7	1	-20	-12528	-7864	6024	9	9	19	968	-4152	16168	51	3	12	-2768	5968	14224	6	18	-16	-13328	7048	6880	69	-1	7	-240	2656	16624	-25	-23	37	126	138	12
-4928	-7780	13876	4	0	-18	-12008	-8160	5808	5	0	22	1040	-3904	15984	48	-1	3	-2776	6496	14232	7	18	-21	-12928	7312	6712	86	-11	31	312	2456	16240	13	-14	25	126	137	12
-4832	-8172	13732	22	-20	-15	-12104	-8144	5912	39	4	12	1024	-3976	16448	25	0	-3	-2368	6576	15040	-25	11	-37	-13608	7304	7760	48	-6	38	56	2912	17000	40	-13	18	127	138	12
-5208	-8456	14372	43	-27	-11	-12912	-8376	6280	37	-9	-4	664	-3840	16896	19	-12	-4	-2800	6888	15112	-22	15	-26	-14488	7720	7232	-25	-10	39	-392	2896	17608	17	-22	5	127	139	12
-5204	-7572	14736	20	-22	-17	-13544	-7896	6296	33	-10	-22	872	-4072	17296	28	-22	2	-3008	6128	15344	-3	11	-14	-14336	7360	7160	-43	-12	31	-336	2944	17576	-6	-38	6	127	139	12
-5224	-8376	14488	3	-17	-26	-13144	-7968	6256	-33	-22	0	1128	-4016	16944	49	-28	6	-2744	7016	15232	13	1	1	-14376	7416	7560	16	-23	17	-56	2832	17360	-26	-47	1	127	138	12
-4956	-7796	14196	-5	-14	-28	-12808	-8216	6464	-64	-33	-7	1464	-4016	16760	42	-24	14	-2800	6720	14904	9	9	-6	-13568	7600	7360	9	-31	26	384	3104	17368	1	-39	6	127	137	12
-5068	-8216	14028	0	-20	-26	-12584	-8616	6408	-27	-23	-3	1528	-4056	16848	18	-13	6	-2688	6496	14608	6	9	-13	-13480	7544	7208	27	-32	22	568	3216	16624	26	-20	12	127	137	12
-4676	-7688	13908	15	-19	-19	-12288	-8288	6848	16	-7	-17	1336	-3984	16528	-3	14	2	-2584	6632	13600	7	8	-9	-12784	7728	7096	5	-18	24	432	3232	16392	48	-2	17	127	137	12
-4928	-7680	13420	1	-22	-26	-12520	-7768	5952	58	7	-5	1224	-3696	16272	-8	17	-3	-2784	6888	14200	-26	5	-22	-12848	7368	6864	2	-3	15	192	3272	16336	44	5	30	127	137	12
-4932	-7572	13712	12	-22	-22	-12392	-7856	6200	26	2	-3	976	-3552	16296	-10	11	0	-2608	6576	14616	-39	10	-34	-13400	7288	7208	2	8	0	-248	3112	16224	18	-17	32	127	138	12
-5116	-7912	14192	12	-29	-34	-12728	-7664	6328	1	1	-14	880	-3592	16608	5	-16	-2	-2976	6464	14568	-47	16	-45	-13848	7440	7016	-16	-4	5	-296	3056	16920	-26	-37	30	127	138	12
-5176	-7968	14012	4	-26	-28	-12920	-7840	6296	-3	-9	-22	888	-3944	16736	28	-35	5	-2816	6168	14592	-24	3	-29	-13872	7168	7040	-16	-8	4	-344	2904	16880	-45	-53	20	128	139	12
-4952	-7448	14048	1	-13	-34	-12752	-7776	6240	-20	-9	-23	1104	-3952	16496	38	-36	-1	-2664	6568	14640	-4	-1	-20	-13432	7304	7368	41	-22	-5	208	2608	16504	-25	-45	20	127	138	12
-4876	-7836	13892	-1	-12	-41	-12400	-8144	6408	-22	-23	-23	1440	-4064	16592	31	-24	0	-2640	6272	14064	-3	9	-28	-13216	7256	7032	7	-27	13	536	2472	16328	14	-24	10	127	137	12
-4780	-7268	13388	1	-11	-31	-12304	-7912	6088	9	-12	-24	1272	-4064	16184	13	3	-2	-2688	6352	13920	-10	8	-29	-12832	7160	7048	-16	-10	18	368	2744	16320	42	-8	9	127	136	12
-5040	-7660	13508	2	-15	-36	-12056	-8248	5952	18	0	-9	1432	-3928	16248	8	10	-4	-2896	6136	14008	-7	13	-27	-13328	7128	6928	5	0	14	96	2744	16536	28	-11	8	127	137	12
-4904	-7836	13696	13	-20	-27	-12632	-8192	6216	16	-4	-23	1208	-4256	16336	6	0	-2	-2648	6240	14848	-26	10	-37	-13744	7272	7160	-5	-4	16	96	2864	17096	7	-24	13	127	139	12
-4940	-8504	13980	-1	-16	-37	-12976	-8312	6184	23	0	-11	1024	-4208	16896	23	-10	-5	-2936	6352	15200	-34	13	-40	-14352	7232	7184	12	-17	15	-112	2936	17136	-38	-42	13	127	140	12
-4964	-7448	14328	5	-9	-28	-12824	-8272	6080	-2	-6	-23	1048	-4144	16896	26	-3	-1	-2672	6352	14792	-8	9	-17	-13944	7160	7296	22	-24	0	256	2744	16928	-47	-40	3	127	140	12
-5192	-7648	13952	-6	2	-32	-12320	-7992	5952	10	0	-12	1344	-4144	16392	30	-4	2	-2656	6592	14448	3	10	-13	-13248	7224	7224	36	-23	5	672	2464	16648	-11	-21	11	127	138	12
-4844	-8144	13672	4	-15	-28	-12336	-7960	5720	1	-6	-12	1400	-4240	16352	12	-3	7	-2448	6328	14504	-5	11	-25	-13016	7008	7224	-12	1	5	624	2592	16608	34	2	20	127	136	12
-4920	-7528	13492	-2	-7	-26	-11840	-8104	5808	-21	-2	-12	1424	-4136	16080	-5	10	7	-2752	6664	14080	-28	22	-39	-13216	7144	6880	-29	7	13	208	2696	16696	42	3	25	127	136	12
-5244	-7752	13724	28	-20	-17	-12432	-8288	6048	13	9	-11	1176	-4248	16440	13	4	4	-2464	6616	14688	-27	11	-33	-13888	7456	7008	-9	18	17	-112	2728	16696	21	-7	27	126	138	12
-4876	-7488	14300	22	-16	-14	-12928	-8000	6480	-10	-6	-3	1032	-4168	16824	33	-1	5	-2920	6528	14536	-13	21	-28	-13880	7272	7024	-13	5	19	-232	2832	17000	-9	-25	21	127	139	12
-4832	-7440	14252	15	-17	-16	-12912	-8160	5928	9	3	11	1056	-4064	16760	53	-6	1	-2944	6520	14432	3	20	-23	-13448	6992	6808	9	-6	19	-304	2664	16600	-21	-27	14	127	139	12
-4632	-7252	14080	20	0	-21	-12152	-7720	6232	0	3	27	1432	-4032	16072	39	12	1	-1992	6200	13848	30	14	-17	-12888	7056	7176	87	-18	8	528	2560	16056	18	-11	6	127	138	12
-4852	-7884	13400	5	0	-27	-11728	-7560	5832	1	-7	35	1528	-3624	15640	20	25	-10	-2512	6328	13552	13	22	-25	-12440	7400	6944	44	-29	43	480	2856	15768	57	3	-1	127	137	12
-4560	-7912	13036	26	-7	-12	-11856	-7928	5784	42	1	14	1136	-3424	15904	0	25	-14	-2624	6240	14048	-8	24	-32	-12904	7104	7224	14	-9	46	240	3184	16104	60	5	-1	127	139	12
-4796	-7744	13592	29	-15	-16	-12176	-7696	5904	39	16	6	1112	-3584	16384	-7	20	-17	-2432	6528	14432	-22	20	-36	-13504	7544	7568	21	-6	27	-8	3288	16768	18	-14	-5	128	139	12
-4740	-7788	14076	23	-24	-14	-12904	-7704	6232	24	6	-13	776	-3624	16624	4	2	-13	-2776	6296	14864	-16	16	-31	-13808	7456	7160	-9	-6	25	-96	3328	16680	-35	-29	-7	127	140	12
-4716	-7112	13948	-12	-3	-25	-12912	-7512	6184	-6	-1	-9	1104	-3592	16504	26	-2	-7	-2616	6464	14640	-9	13	-20	-13344	7248	7208	-4	-12	7	256	3208	16616	-51	-39	-4	128	139	12
-4992	-7592	13668	-22	-10	-34	-12104	-7776	6016	-30	-1	-3	1296	-3528	16152	32	-13	1	-2416	6112	14400	-15	16	-30	-13208	7272	7360	32	-19	-7	544	3072	16496	-42	-36	8	127	138	12
-4728	-7764	13696	-13	-8	-30	-12072	-7928	6200	-28	-5	-25	1480	-3904	16536	11	-10	12	-2528	6784	13952	-32	19	-34	-13096	7664	7144	-3	-6	1	472	3152	16712	-9	-18	18	127	138	12
-5212	-7880	13720	-6	-12	-25	-12432	-8080	6104	15	9	-35	1312	-4008	16864	3	-16	16	-2312	6912	14784	-41	14	-34	-13592	7376	7464	-12	12	-3	232	3176	17120	10	-15	30	127	138	12
-4852	-7460	14280	-7	-7	-27	-12976	-8168	6320	-5	5	-29	1160	-4136	16856	1	1	22	-2608	6704	14904	-36	18	-35	-13824	7344	7392	-17	20	-17	-104	2912	16888	5	-8	31	127	138	12
-5128	-7772	13980	-12	6	-24	-12952	-8200	6064	-1	7	-26	1168	-4272	17072	13	-1	20	-3128	6608	14352	-43	26	-36	-13568	7304	6880	-25	13	-16	0	2776	16696	-12	-15	33	127	138	12
-5160	-8052	13716	-3	4	-30	-12456	-8192	5968	-8	12	-16	1104	-4248	16488	7	5	17	-2480	6272	14696	-25	19	-38	-13624	6784	7496	26	9	-13	272	2544	16528	-16	-18	33	127	138	12
-4752	-7800	13980	-8	9	-29	-12360	-8424	6312	-35	10	-12	1424	-4264	16312	7	9	3	-2552	6672	14800	-32	18	-40	-13440	7264	7336	51	-8	-5	424	2520	16632	-15	-13	22	127	138	12
-5304	-8460	13712	10	-7	-23	-12680	-8560	6176	8	4	-23	1088	-4248	16712	0	8	-6	-3096	5976	14672	-35	20	-42	-13768	7368	6840	-23	1	16	56	2416	16896	-10	-9	14	127	138	12
-4920	-7820	14140	19	-11	-20	-12904	-8256	6160	28	14	-8	1104	-4592	16584	-1	10	-8	-2440	6728	15088	-14	7	-34	-14056	7240	7264	14	0	6	-56	2432	17000	-2	-13	6	127	138	12
-4984	-8116	14440	15	-9	-22	-13088	-8192	6280	-5	0	-6	1056	-4112	17096	25	2	-3	-2720	6848	15096	-20	14	-26	-14112	7496	7376	-7	-13	24	48	2616	17168	-3	-21	6	126	137	12
-5424	-7536	13696	-2	-2	-22	-12992	-8000	5928	-13	-6	-12	848	-4048	16592	29	-11	1	-3312	5920	15400	-16	18	-32	-14008	7112	7280	-19	-3	23	-120	2816	17040	-5	-25	4	126	138	12
-4888	-8316	14240	0	-14	-30	-12568	-8408	6368	-34	12	7	1168	-4072	16888	27	-1	0	-2288	7032	15280	10	20	-20	-14064	7192	7528	38	-23	8	232	2856	17064	0	-25	-1	126	138	12
-4964	-7940	14344	8	-13	-24	-12728	-8344	6584	-12	-1	-10	1400	-4104	16816	23	4	-1	-2224	6640	13952	6	31	-23	-13392	7424	7104	-10	-34	26	288	3152	16728	6	-13	-4	127	137	12
-5252	-7308	14220	7	-6	-20	-12520	-7872	6288	36	17	-6	1496	-3744	16384	3	26	-8	-2048	6424	13680	22	6	-15	-12784	7312	7408	43	-20	10	568	3208	16248	28	6	-2	127	137	12
-4608	-7460	13560	-9	14	-24	-12288	-7456	6448	3	-2	5	1568	-3616	16072	-4	42	-8	-2344	6416	13376	4	16	-22	-12224	7264	7136	13	4	3	688	3304	15840	37	19	2	127	137	12
-4824	-7212	12916	10	13	-21	-11656	-7368	5728	1	17	-3	1464	-3424	15568	-18	50	-14	-2592	6760	13336	-8	33	-34	-12144	7024	6824	6	18	-10	568	3216	15376	23	19	12	127	136	12
-4776	-7468	13212	9	-3	-18	-11744	-7456	5792	-2	20	4	1128	-3664	15720	-21	37	-10	-2344	6528	13632	-39	29	-42	-12600	7272	6880	6	20	-2	280	3040	15776	-5	5	16	127	139	12
-4892	-7684	13484	25	-7	-12	-12344	-7680	5968	-23	12	-13	1032	-3688	16152	-3	15	-5	-2576	6272	14040	-56	29	-54	-13360	7072	6960	-3	31	-1	-32	2888	16320	-39	-13	17	127	140	12
-5264	-7604	14096	16	-5	-16	-12704	-7592	6240	4	16	-21	768	-4144	16496	32	-16	-1	-2472	6208	14192	-51	31	-55	-13904	7176	7280	19	22	7	-216	2800	17056	-67	-35	17	127	140	12
-5068	-7932	13988	-5	9	-24	-12984	-8000	6040	-23	0	-14	1000	-4144	16800	58	-23	9	-2712	5696	14472	-26	39	-49	-14144	6696	7176	-2	14	-9	184	2576	17016	-59	-36	18	127	139	12
-4924	-7536	13720	-21	22	-30	-12288	-8160	5752	-23	13	-18	1232	-4344	16144	43	-8	24	-2624	6152	14504	-15	39	-33	-13688	6928	7448	34	11	-13	320	2480	17040	-52	-30	14	127	137	12
-4956	-7936	13396	-20	20	-26	-12080	-8456	6080	-19	9	-14	1408	-4464	16032	18	1	23	-2600	5992	14344	-11	43	-33	-13528	6904	7408	32	4	-12	568	2152	16904	-19	-15	15	127	136	12
-4728	-8036	13656	-13	15	-21	-12016	-8512	6208	3	27	-11	1336	-4736	16024	-3	31	26	-2360	6312	14576	-18	36	-38	-13272	6880	7336	19	22	0	512	2352	16888	28	23	19	127	137	12
-5416	-8480	13700	9	1	-11	-12504	-8800	6056	18	13	-20	1072	-4720	16944	11	31	29	-3280	6648	14632	-38	44	-50	-13984	7392	6904	-42	38	27	-232	2600	17440	-9	21	26	127	139	12
-5288	-8136	14160	31	-3	-8	-13320	-8640	6192	28	32	-18	896	-4976	16608	11	21	30	-2552	6208	15456	-17	27	-28	-14416	7064	7376	-11	43	10	-456	2360	16808	-23	8	35	127	140	12
-4796	-7800	14704	14	-2	-11	-13016	-8288	6296	-33	-1	22	952	-4936	16664	54	15	26	-3000	6464	14456	5	36	-23	-13888	7144	6656	-13	10	25	-336	2152	16920	-4	-6	35	127	138	12
-5304	-7892	13832	24	-5	-7	-12712	-8512	5960	-28	-2	26	1136	-4496	16560	78	0	23	-2624	6184	14568	8	26	-17	-13488	6944	6616	18	3	46	-48	2224	16664	34	-8	32	126	137	12
-4668	-7764	14004	30	-16	-9	-12224	-8496	6208	-27	-11	42	1280	-4200	16264	70	2	8	-2680	7080	14936	16	17	-12	-13568	7064	7016	87	-20	51	104	2336	16560	46	-10	32	127	136	12
-5384	-8252	13800	41	-28	-1	-12608	-8744	6120	19	-8	33	984	-3976	16848	55	-3	-12	-3080	6432	14808	-13	14	-23	-13976	7448	6984	35	-36	78	-320	2880	17296	64	-15	2	126	137	12
-5264	-7492	14176	57	-29	1	-13200	-8208	6408	66	3	21	936	-3664	16944	38	4	-28	-2840	6384	15032	19	13	-13	-14216	7360	6864	47	-23	53	-288	3408	17232	43	-18	-12	127	137	12
-5296	-7716	14400	40	-22	-8	-12984	-7872	6592	47	3	32	1112	-3376	16912	32	6	-38	-2760	6792	14864	29	9	-6	-14120	7800	7336	55	-40	40	-176	3408	17248	8	-32	-22	127	138	12
-4656	-7456	14404	28	-5	-8	-13064	-7376	6584	22	-9	19	1128	-3344	16888	26	8	-22	-2304	6472	14504	46	5	-3	-13400	7648	7328	28	-39	33	168	3640	16472	13	-21	-26	128	138	12
-4580	-7428	13896	1	0	-23	-12328	-7280	6408	-17	-16	20	1240	-3240	16600	25	13	-22	-2584	7056	14008	27	10	-7	-12736	7736	7160	8	-30	30	648	3632	16384	24	-16	-18	127	138	12
-4976	-7448	13656	14	-8	-22	-11968	-7536	6232	-20	-4	0	1480	-3144	15928	-3	23	-1	-2424	6928	13600	10	9	-16	-12560	7648	7088	-14	-11	23	472	3776	15920	21	-1	-6	126	138	12
-4668	-7168	13884	10	-16	-22	-12224	-7336	6280	7	9	-16	1344	-3200	16552	-21	27	2	-2328	6920	13888	-19	7	-27	-12680	7920	7160	-1	-2	14	160	3600	16096	24	0	9	127	138	12
-4988	-7832	13984	4	-22	-28	-12712	-7576	6424	1	4	-24	1008	-3248	16584	-4	8	2	-2584	6400	13760	-41	14	-49	-13104	7616	7008	-34	1	9	-216	3600	16128	-1	-11	19	126	139	12
-4732	-7128	14028	1	-3	-31	-12848	-7312	6360	13	7	-36	840	-3376	16016	10	-5	6	-2232	6608	14264	-46	6	-40	-13160	7296	7104	25	3	-15	32	3480	16160	-28	-31	24	127	140	12
-4852	-7424	13848	-31	1	-47	-12168	-7568	6128	-5	1	-31	1144	-3448	16016	24	-20	1	-2672	6664	14280	-64	16	-44	-13304	7280	7016	30	-10	-24	144	3176	16232	-55	-51	25	127	139	12
-5204	-8152	13332	-24	2	-45	-11968	-7984	5856	1	7	-55	1040	-3416	16216	8	-30	4	-2848	6464	14304	-69	18	-45	-13296	7248	6864	16	6	-37	152	3024	16672	-61	-55	27	127	138	12
-5056	-7900	13884	-21	-18	-42	-12440	-8040	5832	7	7	-65	968	-3912	16632	-20	-35	8	-2704	6496	14920	-71	14	-45	-14056	7464	7352	11	0	-38	184	2712	17368	-63	-58	26	128	137	12
-5108	-8012	14384	-31	-17	-37	-13272	-8352	6400	3	-3	-75	1064	-4368	17208	-22	-36	14	-2848	5960	15056	-63	18	-52	-14288	7256	7448	-71	-1	-28	184	2608	17528	-59	-45	24	129	139	12
-5076	-7904	14052	-42	3	-44	-13096	-8080	5824	-17	-1	-67	1320	-4496	17088	-14	-20	19	-2808	6768	14728	-32	15	-33	-14088	6928	7424	-62	18	-43	400	2120	17264	-50	-35	20	129	138	12
-5044	-7864	14020	-65	14	-53	-12560	-8352	6288	-64	-9	-38	1496	-4696	16600	-11	-6	28	-2816	6224	14704	-29	21	-39	-13648	6744	7200	-37	8	-30	616	2064	16912	-27	-18	21	128	138	12
-5016	-7960	13636	-39	17	-39	-12160	-9040	5880	-65	-7	-38	1696	-5120	16240	-17	8	34	-2832	6112	14496	-27	23	-32	-13360	6640	6992	-4	11	-11	480	2112	16720	5	-1	32	127	138	12
-5080	-8336	13640	-12	-3	-32	-11944	-8896	6088	-15	14	-16	1592	-5144	16536	-4	14	22	-2848	6616	14400	-28	23	-33	-13704	6968	7000	23	10	2	288	2152	16928	17	5	35	127	137	12
-5104	-8164	13896	22	-13	-12	-12832	-9016	6168	32	16	-16	1064	-5160	16616	11	20	19	-2784	6744	14504	-35	21	-39	-13816	7040	6744	10	20	19	-64	2248	16664	10	9	38	126	139	12
-5108	-8008	14040	32	-16	-14	-12784	-8328	6056	40	17	-2	1040	-4872	16480	44	11	7	-2904	6176	14568	-14	11	-35	-13976	7008	7144	28	10	19	-128	2152	16840	4	-5	35	127	139	12
-5216	-8276	13688	24	-8	-15	-12968	-8296	5824	9	1	15	928	-4496	16512	66	-7	2	-3128	5792	14768	-15	17	-41	-13912	6712	6648	4	1	37	-144	2088	16768	-1	-15	19	126	139	12
-5016	-8160	13712	32	-13	-17	-12408	-8344	5608	-5	4	18	1056	-4408	16424	56	-3	2	-2728	5896	14920	2	7	-26	-14024	6816	7040	50	-16	31	8	2224	17136	16	-25	9	127	138	12
-4832	-8252	13764	40	-16	-13	-12360	-8544	5992	-7	-10	22	1040	-4224	16616	42	-5	-9	-2912	6232	14872	18	16	-21	-14112	7160	7088	28	-24	45	-96	2536	17232	22	-12	1	127	138	12
-4792	-7924	14008	36	-19	-15	-12800	-8256	6352	18	-2	16	968	-4016	16632	34	0	-11	-2528	6488	14664	35	4	-7	-13864	7120	7408	38	-33	43	-16	2624	16872	39	-8	-11	128	138	12
-4784	-7688	14208	42	-19	-15	-12600	-8056	6312	7	-19	13	1160	-3912	16792	17	13	-21	-2616	6896	14384	43	10	-5	-13320	7528	7216	28	-44	53	216	2784	16632	52	0	-24	127	138	12
-4960	-7604	14052	27	-22	-19	-12600	-7856	6320	27	-8	14	1240	-3848	16328	21	21	-19	-2288	6272	13960	42	-2	3	-13056	7160	7336	18	-37	54	240	3224	16224	54	-6	-20	127	138	12
-4648	-7340	13868	27	-17	-18	-12256	-7800	6240	7	-20	25	1368	-3696	16184	16	31	-22	-2376	6504	13544	33	0	-1	-12576	7376	7032	28	-34	52	472	3320	16136	47	-10	-9	127	138	12
-4788	-7820	13248	13	-22	-27	-12112	-7648	5944	16	-16	28	1192	-3608	15840	13	20	-18	-2352	6608	13952	6	5	-12	-12528	7400	7184	3	-15	42	376	3616	15968	32	-21	11	126	139	12
-4492	-7368	13452	27	-32	-20	-11888	-7664	6024	20	-11	7	936	-3360	15960	15	-3	-15	-2336	6400	13936	-24	7	-26	-12760	7456	7312	0	-12	23	328	3592	16160	12	-30	24	126	139	12
-5068	-7848	13600	18	-34	-29	-12192	-7568	5936	45	3	-5	976	-3368	16128	22	-23	-9	-2424	6168	14416	-47	6	-36	-13456	7416	7232	4	-7	10	64	3432	16872	-22	-47	27	127	139	12
-4896	-7980	13772	11	-24	-27	-12544	-7656	5944	26	-6	-31	904	-3416	16336	30	-37	-1	-2480	6232	14720	-45	2	-35	-13720	7280	7256	13	-12	-1	88	3328	16840	-43	-57	28	128	139	12
-4820	-7200	13844	-1	-14	-26	-12600	-7344	6080	-5	-17	-37	952	-3768	16312	26	-37	6	-2752	6768	14208	-28	10	-26	-13624	7480	7080	6	-8	-13	208	2992	16680	-43	-56	28	128	138	12
-5008	-7580	13964	-9	-17	-34	-12704	-7768	6232	-13	-14	-28	1304	-3928	16448	21	-34	16	-2520	6424	14552	-20	11	-25	-13360	7232	7816	2	1	-16	480	2888	16584	-14	-35	36	128	137	12
-4708	-7472	13732	-21	-6	-31	-12320	-7864	6320	-48	-23	-31	1320	-4192	16480	14	-16	21	-2984	6472	14032	-24	20	-31	-13088	7224	7232	-38	11	-16	400	2856	16560	6	-19	42	127	136	12
-5040	-7756	13548	-15	-7	-33	-12240	-8328	6120	-17	-5	-33	1352	-4240	16224	0	3	22	-2840	6240	14336	-50	21	-40	-13424	7064	6832	-51	22	-4	200	2720	16328	3	-10	39	127	138	12
-4972	-8012	13488	-8	-3	-32	-12384	-8144	5880	5	3	-26	1304	-4280	16072	-4	14	21	-2664	5928	14520	-36	14	-43	-13584	6776	7240	-8	27	-11	152	2528	16480	-8	-9	43	127	139	12
-4824	-8096	13640	-2	0	-33	-12184	-8496	6240	0	7	-20	1176	-4376	16584	5	12	15	-3016	6688	14672	-46	19	-52	-13888	7088	7008	17	7	-1	-48	2320	16840	-25	-18	32	127	139	12
-5136	-7892	13776	-11	-4	-26	-12832	-8512	6240	17	10	-30	840	-4528	16632	17	-9	15	-2800	6256	14776	-31	17	-46	-13984	6840	6784	4	5	10	-88	2280	17128	-28	-18	22	127	139	12
-5048	-8132	14056	9	-5	-28	-12680	-8216	5784	8	9	-15	984	-4504	16512	25	-8	10	-2600	6472	14864	-8	10	-32	-13800	7040	6992	45	-8	5	-24	2160	16776	-11	-23	7	127	138	12
-5212	-7952	14252	6	-17	-30	-12616	-8344	6040	-3	-2	-7	912	-4520	16992	32	-13	1	-2616	6200	14896	-11	15	-32	-13832	7168	7184	15	-19	25	88	2368	16688	9	-16	0	127	137	12
-5076	-7724	14032	15	-7	-28	-12632	-8384	6136	-10	-7	-6	1088	-4448	16664	32	-8	-2	-2736	6440	14600	10	9	-22	-13648	6904	7032	13	-12	25	96	2272	16672	27	-13	-5	127	137	12
-5284	-8300	13988	24	-13	-26	-12472	-8480	5600	-1	-10	5	1224	-4360	16664	30	-8	-12	-2760	6648	15200	-23	1	-24	-14088	7272	7608	32	-19	41	-56	2688	17280	16	-27	-10	127	137	12
-5176	-8484	14068	27	-23	-26	-13208	-8624	6192	1	-17	-9	1272	-4448	16792	27	-6	-13	-2824	5960	15272	-11	4	-23	-14080	7544	7288	25	-28	41	0	2976	17256	-1	-33	-14	127	138	12
-5124	-8124	14152	9	-6	-28	-12872	-8432	6352	11	-7	-14	1288	-4264	17016	19	6	-18	-2984	6232	15104	9	7	-22	-14096	7456	7040	10	-33	18	224	2976	17440	-15	-38	-14	127	137	12
-5140	-8028	14100	14	-20	-29	-12840	-8472	6344	13	-2	-12	1328	-4168	16672	15	4	-8	-2296	6440	14288	25	8	-9	-13512	7392	7088	26	-35	17	704	2896	16832	-1	-16	-9	127	138	12
-4636	-7488	14028	1	-5	-27	-12440	-7792	6288	1	-2	0	1104	-4264	16768	13	8	-4	-2384	6616	14144	30	10	-6	-12928	7448	7072	35	-20	13	872	2840	16120	35	7	3	127	137	12
-4920	-7456	13900	18	-16	-24	-12056	-8000	6112	-10	-7	4	1448	-4032	16200	4	12	1	-2256	6552	13872	11	14	-20	-12560	7360	7336	16	-11	29	680	2920	15864	58	12	16	127	136	12
-4724	-7404	13772	27	-17	-24	-12200	-7936	6392	1	-11	7	1288	-3984	16224	14	19	6	-2312	6416	13520	-8	17	-25	-12576	7248	6944	-12	8	23	320	2920	15856	61	11	33	127	136	12
-4940	-7820	13364	18	-14	-24	-12216	-7840	6448	3	-13	8	1168	-3880	16144	32	10	-1	-2448	6240	13880	-29	11	-34	-12920	7144	7112	-15	18	25	-32	2888	16160	33	-13	36	127	137	12
-4816	-7596	13628	28	-20	-24	-12312	-7760	5760	14	-3	7	864	-3888	16136	45	-4	4	-2448	6008	14424	-38	12	-39	-13616	6784	6992	14	12	25	-104	2912	16456	-8	-32	39	127	139	12
-4828	-7816	13472	29	-18	-22	-12208	-7776	5968	7	-5	2	952	-3816	16328	60	-18	2	-2752	6048	14416	-25	11	-36	-13592	6920	7032	36	1	20	-96	2624	16632	-29	-44	26	127	139	12
-4948	-7972	13644	13	-19	-32	-12440	-8032	6040	20	-2	-6	1088	-3896	16512	63	-32	1	-2888	6080	14848	-24	16	-34	-13864	6920	7168	29	-7	24	72	2520	16856	-19	-44	17	127	139	12
-5060	-7800	13764	13	-12	-26	-12528	-8232	5712	9	-7	-9	1208	-3944	16656	43	-26	3	-2568	6448	14792	-12	13	-26	-13968	7040	7512	43	-14	18	232	2640	17120	-2	-36	8	127	138	12
-4948	-7940	14152	9	-2	-19	-12704	-8328	6352	6	-11	-16	1440	-4248	16824	30	-13	7	-2752	6824	14944	3	20	-15	-13992	7312	7400	17	-10	21	352	2584	17240	12	-25	-6	127	137	12
-5040	-7920	13864	-5	1	-26	-12800	-8208	6352	-3	-6	-19	1280	-4192	16704	19	-3	15	-3000	6056	14464	16	32	-21	-13568	7224	7432	-22	-6	21	352	2688	17016	15	-8	1	127	138	12
-4796	-7768	13660	-2	1	-24	-12328	-8312	6264	-13	0	0	1640	-4688	16536	7	16	20	-2256	6792	14328	25	27	-14	-13352	7032	7512	16	6	15	392	2376	16816	23	0	8	127	138	12
-4980	-8004	13836	-3	-2	-22	-12304	-8432	6408	-13	3	16	1528	-4552	16736	18	17	20	-2744	6392	14416	3	30	-30	-13352	7400	6984	-14	6	33	264	2648	16648	26	1	20	127	137	12
-4980	-7912	13716	12	-12	-12	-12648	-8432	5808	10	11	10	1184	-4464	16392	25	13	17	-2680	6424	14864	-10	27	-30	-13312	7224	7016	8	15	34	160	2696	16584	29	-5	29	126	138	12
-4828	-8212	14112	18	-12	-16	-12552	-8344	6216	22	16	20	1104	-4416	16584	43	11	8	-2816	6776	14952	-24	19	-36	-13816	7240	6976	29	1	29	-80	2944	16992	16	-14	29	127	138	12
-5204	-8112	13980	38	-24	-9	-13016	-8360	5888	34	9	9	888	-4072	16896	56	3	-1	-2848	6040	14656	-7	16	-32	-13904	7296	6640	26	-2	29	-336	2624	16824	16	-17	22	127	138	12
-5084	-7512	14040	35	-17	-12	-12664	-7816	5968	37	1	17	952	-4008	16312	53	-9	-10	-2760	6672	14920	-1	4	-18	-13776	7248	7000	75	-11	31	32	2600	16712	24	-22	16	128	138	12
-5192	-8360	14232	26	-21	-20	-12864	-7992	6200	0	-13	24	1008	-3928	16536	47	-15	-13	-2608	6200	14920	1	8	-22	-13944	7448	7416	53	-27	37	80	3016	16944	27	-22	4	127	137	12
-4804	-7928	14056	37	-13	-17	-12816	-7992	6208	-6	-22	2	1224	-3800	16736	28	-1	-15	-2536	7088	14880	17	1	-17	-13992	7632	7448	26	-28	33	88	2936	17304	23	-21	-6	128	138	12
-5224	-7676	14188	34	-18	-19	-13024	-8032	6520	0	-17	0	1232	-3888	17080	26	-2	-21	-2832	7064	14696	8	7	-16	-13896	7760	7472	-11	-30	38	64	3168	17176	15	-21	-5	127	138	12
-4996	-7924	14280	33	-17	-20	-13152	-7928	6664	1	-11	-4	1232	-3768	16936	21	5	-8	-2776	6504	14456	19	1	-13	-13648	7272	7240	-20	-20	28	-48	3072	17080	14	-26	-4	127	138	12
-5008	-7308	14272	19	-12	-24	-12600	-7760	6280	-2	-15	9	1248	-3672	16624	20	8	-3	-2496	6448	13944	27	6	-16	-13072	7560	7216	13	-21	27	192	3168	16312	29	-13	2	127	138	12
-4756	-7712	13932	14	-18	-29	-12328	-7704	6408	2	-10	13	1408	-3584	16360	23	15	-3	-2232	6464	14192	10	8	-19	-12992	7408	7192	24	-21	25	400	3392	16088	42	-6	7	127	136	12
-4776	-7572	13440	7	-8	-31	-12032	-7952	6232	11	-3	3	1368	-3536	15976	16	18	-10	-2616	6944	14216	-4	6	-26	-12864	7432	7160	31	-17	17	96	3304	16192	36	-13	13	127	137	12
-4836	-7832	13876	14	-26	-36	-12136	-8160	5968	47	3	-11	984	-3440	16168	-3	7	-13	-2424	6744	14768	-52	-3	-42	-13416	7664	7672	40	-18	22	-56	3440	16760	-5	-35	7	127	139	12
-5004	-8172	13904	11	-21	-32	-12920	-7696	6288	43	-6	-35	912	-3544	16664	2	-23	-15	-2824	6176	14704	-45	3	-40	-13912	7496	7024	-8	-12	0	-304	3376	16928	-49	-56	10	127	139	12
-4936	-7700	14012	1	-14	-36	-12880	-7520	5984	25	1	-35	872	-3816	16568	15	-31	-11	-2528	6504	14704	-27	0	-27	-13584	7384	7368	5	-14	-16	104	2936	17104	-56	-63	14	128	138	12
-4760	-7884	13896	-13	-9	-38	-12688	-7400	6160	21	2	-36	1184	-4000	16472	19	-34	2	-2800	5928	14080	-24	12	-27	-13336	7096	7096	-26	-7	-22	400	2784	16560	-47	-44	21	128	136	12
-4780	-7820	13596	-12	-6	-34	-12144	-7720	5856	-48	-15	-36	1568	-3960	16256	1	-17	10	-2408	6776	14224	-22	13	-28	-12840	7080	7448	-1	-3	-18	688	2608	16736	1	-22	25	128	136	12
-4808	-7892	13768	-21	-9	-40	-12136	-8344	6280	-46	-18	-33	1544	-4272	16552	-13	-3	16	-2720	6344	14376	-44	11	-43	-13288	7112	7400	-24	4	0	368	2584	16896	12	-9	24	128	137	12
-4936	-7884	13804	-10	-8	-29	-12712	-8472	6336	-16	-5	-46	1176	-4600	16880	-11	7	16	-2480	6496	14336	-38	15	-38	-13632	7080	7240	-14	9	-9	184	2456	17096	5	-10	25	127	138	12
-4956	-7692	14024	-8	-11	-29	-12872	-8192	6352	18	14	-21	1152	-4624	16976	8	2	14	-2760	6296	14432	-29	20	-33	-13584	6992	7376	6	4	2	24	2464	16592	-10	-18	24	127	139	12
-5004	-8068	13616	-7	-3	-34	-12504	-8368	5928	11	7	-11	1112	-4512	16544	29	1	16	-2672	5792	14072	-3	21	-33	-13392	6800	6784	6	7	0	120	2400	16216	-3	-11	32	127	138	12
-4700	-7788	13700	8	-6	-28	-12032	-8200	5640	19	9	4	1112	-4576	16168	33	2	17	-2592	6424	13968	11	14	-25	-13048	6944	6848	47	-1	11	288	2024	16048	17	-9	24	126	138	12
-5024	-8000	13548	20	-16	-22	-12088	-8304	5976	21	-4	13	1056	-4480	16048	39	-3	9	-2672	6208	14280	-7	21	-29	-13000	7016	6920	19	-1	42	104	2008	16336	38	-4	26	127	138	12
-4924	-7924	13772	44	-25	-13	-12464	-8360	5912	20	-11	12	928	-4512	16096	43	-8	5	-2784	6296	14432	0	8	-27	-13656	6872	7112	14	-5	49	-56	2216	16688	44	-13	15	128	137	12
-5304	-7940	14092	45	-38	-18	-12736	-8304	5984	22	-13	15	968	-4584	16624	66	-20	-6	-2936	6448	15040	-6	10	-30	-14232	7152	7240	7	-17	66	-320	2248	17352	28	-28	5	127	139	12
-5224	-8256	14008	45	-34	-19	-13248	-8360	6144	12	-19	15	776	-4504	16912	80	-26	-4	-2832	6048	15560	13	4	-20	-14536	6920	7304	16	-19	63	-216	2592	17816	11	-36	5	127	140	12
-5056	-7896	14196	34	-23	-16	-13000	-8448	6424	-10	-30	16	1232	-4504	16968	86	-18	-8	-2920	6744	15592	39	8	-4	-14392	7216	7600	46	-41	54	216	2408	17584	12	-43	-1	127	139	12
-5044	-8264	14052	26	-20	-23	-12696	-8760	6264	-2	-26	15	1424	-4472	16816	68	-11	-3	-2856	6360	14992	50	8	1	-13976	7104	7496	49	-47	60	568	2624	17168	43	-25	0	127	138	12
-5072	-7924	13788	35	-18	-11	-12352	-8344	6288	32	-17	25	1720	-4264	16736	49	1	0	-2912	6008	14832	50	9	-2	-13432	7472	7672	57	-33	56	712	2896	16872	79	-4	2	127	137	12
-4728	-8164	14188	46	-30	-8	-12200	-8496	6256	34	-15	28	1808	-4128	16680	37	16	0	-2368	6920	14608	48	8	-2	-13280	7736	7704	37	-24	71	712	2968	16944	90	7	9	127	136	12
-4808	-7324	14212	58	-34	2	-12464	-8376	6640	41	-16	36	1408	-4152	16560	39	14	5	-2592	6528	14344	42	17	-1	-13008	7488	7144	-28	-3	73	272	3176	16304	85	14	17	126	138	12
-4704	-7048	14004	55	-38	0	-12352	-7448	6280	30	-5	59	1440	-3768	16208	48	19	5	-2328	6680	13616	57	13	0	-12696	7376	6912	-2	-1	64	256	3288	15856	73	8	32	126	137	12
-4644	-7212	13596	47	-34	-4	-11944	-7352	5968	8	-18	70	1240	-3632	15904	68	13	4	-2496	6600	13336	38	17	-3	-12352	7464	6720	17	-6	71	-72	3480	15440	61	-4	37	126	137	12
-4508	-7020	13200	64	-33	4	-11784	-7208	5880	10	-17	68	1312	-3088	15464	67	10	-4	-2288	6824	13664	35	12	5	-12120	7328	6824	53	-14	61	112	3512	15520	72	-12	39	126	138	12
-4436	-7288	13548	52	-47	-2	-11936	-7208	6240	21	-19	62	1128	-2848	15680	75	-8	-14	-2400	6992	13816	-5	13	-16	-12712	7680	7088	61	-24	72	-144	3616	15992	59	-20	26	127	138	12
-4788	-7728	13620	62	-51	-3	-12528	-7296	6336	36	-21	27	944	-2680	16376	67	-17	-17	-2512	6440	14392	-12	10	-22	-13440	7632	7072	22	-22	68	-208	3720	16936	32	-30	17	127	140	12
-4748	-7252	14184	51	-42	-6	-12816	-7000	6256	42	-15	8	744	-2704	16432	60	-24	-16	-2496	6808	14968	-8	-1	-10	-13936	7864	7296	50	-34	44	-352	3688	16856	3	-51	4	127	140	12
