#Activity	sitting 
#ActivityID	5 
#Date 09-07-15-41
acc_rf_x	acc_rf_y	acc_rf_z	gyro_rf_x	gyro_rf_y	gyro_rf_z	acc_rs_x	acc_rs_y	acc_rs_z	gyro_rs_x	gyro_rs_y	gyro_rs_z	acc_rt_x	acc_rt_y	acc_rt_z	gyro_rt_x	gyro_rt_y	gyro_rt_z	acc_lf_x	acc_lf_y	acc_lf_z	gyro_lf_x	gyro_lf_y	gyro_lf_z	acc_ls_x	acc_ls_y	acc_ls_z	gyro_ls_x	gyro_ls_y	gyro_ls_z	acc_lt_x	acc_lt_y	acc_lt_z	gyro_lt_x	gyro_lt_y	gyro_lt_z	EMG_r	EMG_l	act
-9980	-3132	12124	-20	17	-26	-14736	-6288	-4248	12	-19	3	-4032	-5320	15336	0	-29	26	-10056	3896	13096	10	-2	-17	-14872	2680	-5968	-2	-13	-11	-4464	-1944	16504	26	-6	7	126	128	5
-9936	-3140	12296	-20	12	-31	-14776	-6208	-4248	13	-22	2	-3976	-5440	15536	1	-26	29	-9840	3896	12888	11	-1	-15	-14912	2536	-6136	-7	-23	-14	-4464	-1944	16320	25	-7	13	126	128	5
-9960	-3096	12264	-19	16	-28	-14688	-6232	-4088	19	-14	-1	-3688	-5536	15264	-2	-24	29	-9984	3912	13024	13	-6	-17	-15016	2592	-6088	-4	-25	-15	-4392	-1928	16320	20	-2	12	126	128	5
-9892	-3176	12264	-20	16	-30	-14624	-6336	-4088	23	-12	0	-3568	-5672	15576	-5	-23	23	-10000	3656	13008	15	-9	-16	-15136	2672	-6016	-6	-22	-15	-4264	-1936	16504	24	1	9	126	128	5
-9900	-3216	12300	-19	18	-27	-14592	-6352	-4184	23	3	12	-3624	-5640	15080	-12	-20	15	-10000	3848	12824	7	-5	-19	-15080	2672	-5616	-5	-14	-16	-4104	-1920	16208	21	1	6	126	128	5
-9972	-3240	12252	-11	20	-24	-14800	-6440	-3984	20	5	19	-3848	-5712	15064	-10	-16	0	-9952	3912	13000	11	-6	-19	-15080	2520	-5840	-4	-10	-20	-4200	-2048	16152	20	3	6	126	128	5
-9856	-3136	12244	-9	18	-19	-14688	-6240	-3960	6	13	23	-3800	-5528	15240	-13	-9	0	-9968	3832	12848	6	-6	-20	-15064	2584	-5688	5	-4	-18	-4048	-1952	16352	12	0	5	126	128	5
-9908	-3148	12212	-9	17	-17	-14664	-6312	-4248	-1	8	30	-3768	-5448	15256	-13	-7	3	-9968	3784	13008	5	-2	-24	-15208	2584	-5848	4	3	-27	-4240	-2104	16192	3	-1	2	126	129	5
-9904	-3148	12192	-10	21	-21	-14728	-6280	-4048	-6	8	29	-3792	-5536	15376	-5	-11	3	-10016	3904	13008	11	-10	-19	-15008	2640	-5936	11	9	-20	-4272	-2064	16488	4	6	17	126	128	5
-9892	-3116	12148	-12	23	-22	-14672	-6152	-4000	-3	11	25	-3872	-5552	15240	3	-13	22	-10008	3752	13000	12	2	-25	-14976	2576	-5864	11	14	-24	-4280	-2184	16416	8	3	16	126	128	5
-9884	-3148	12136	-10	24	-21	-14680	-6496	-4088	5	10	21	-4144	-5584	15232	15	-19	26	-9848	3712	13016	13	4	-17	-15120	2464	-5944	6	13	-20	-4408	-2264	16240	20	7	14	126	129	5
-9912	-3116	12104	-19	24	-21	-14720	-6352	-4016	3	9	22	-3920	-5520	15208	15	-19	35	-10016	3744	12736	13	2	-20	-14952	2496	-6040	6	12	-16	-4584	-2456	16224	27	0	11	126	129	5
-9904	-3164	12188	-16	19	-27	-14776	-6208	-4184	6	2	18	-4216	-5600	15336	17	-18	36	-9808	3808	13032	17	0	-17	-14968	2296	-6160	5	11	-4	-4712	-2424	16320	34	-4	11	126	129	5
-9976	-3184	12084	-11	21	-23	-14736	-6256	-4304	6	1	21	-4000	-5632	15288	15	-18	29	-10056	3920	12944	15	1	-16	-15048	2344	-5880	-3	1	6	-4632	-2320	16256	39	0	3	126	129	5
-9936	-3168	12224	-11	15	-22	-14776	-6256	-4144	7	-4	20	-4088	-5632	15376	15	-8	27	-9936	3832	13016	21	4	-12	-14952	2368	-6032	-10	-8	10	-4728	-2192	16208	35	-6	-3	125	129	5
-9928	-3216	12252	-8	16	-27	-14728	-6280	-4064	12	-7	27	-4096	-5512	15136	7	-15	21	-10048	3896	12944	25	1	-7	-14928	2504	-5800	-9	-11	20	-4608	-1968	16376	27	-5	-12	125	129	5
-9968	-3140	12080	-12	15	-23	-14672	-6232	-4224	12	-10	25	-4024	-5496	15328	9	-18	14	-10040	3704	12992	24	5	-11	-14976	2512	-6112	-10	-18	19	-4568	-2024	16240	27	-4	-14	125	129	5
-9936	-3164	12156	-10	13	-22	-14680	-6288	-4048	15	-12	24	-4008	-5496	15360	8	-18	13	-10016	3872	13048	21	0	-11	-14936	2712	-5968	-2	-18	22	-4384	-1920	16456	33	-8	-12	125	129	5
-9844	-3160	12248	-9	10	-26	-14640	-6144	-4096	17	-10	23	-3880	-5464	15184	13	-15	17	-10000	3768	12848	22	-3	-14	-14904	2520	-5888	-2	-18	16	-4320	-1880	16248	38	-1	-16	126	129	5
-9940	-3188	12144	-10	12	-20	-14672	-6312	-4248	14	-8	18	-3912	-5440	15368	11	-12	14	-9952	3864	12688	21	1	-15	-14880	2896	-5872	-3	-21	11	-4176	-1848	16184	40	-4	-10	126	129	5
-9884	-3212	12156	-9	17	-23	-14696	-6344	-4192	15	-10	18	-3912	-5368	15112	6	-17	22	-10080	3816	13024	18	-3	-16	-14968	2696	-5792	-2	-8	4	-4208	-1536	16472	27	1	-3	125	129	5
-9900	-3112	12268	-15	17	-27	-14736	-6216	-3968	13	-3	18	-3792	-5480	15352	-2	-15	17	-9960	3864	12872	16	2	-16	-15088	2864	-5792	-2	0	-7	-4040	-1720	16120	23	0	1	125	128	5
-9920	-3120	12176	-17	20	-23	-14712	-6216	-3656	12	-3	15	-3864	-5440	15312	-5	-16	25	-9944	3848	13016	15	-6	-21	-14968	2632	-5640	4	1	-10	-4336	-1776	16376	15	1	4	125	128	5
-9912	-3188	12220	-13	21	-27	-14648	-6320	-4000	8	6	8	-3912	-5360	15264	-3	-14	25	-9944	3848	12824	11	3	-17	-15040	2824	-5808	5	-2	-15	-4200	-1800	16432	11	1	8	126	129	5
-9884	-3088	12116	-16	18	-22	-14808	-6296	-3832	4	3	8	-3896	-5504	15352	-4	-16	28	-10160	3744	13144	8	-5	-20	-15040	2616	-5760	11	5	-21	-4328	-1864	16528	6	-2	14	126	129	5
-9952	-3140	12160	-18	24	-23	-14664	-6280	-3808	4	6	8	-3960	-5552	15256	-6	-18	31	-9984	4024	12968	9	-9	-25	-15000	2568	-6224	9	10	-30	-4392	-1880	16456	8	1	15	125	129	5
-9952	-3136	12092	-15	21	-25	-14664	-6312	-4096	2	5	10	-3848	-5512	15328	-3	-15	30	-10040	4040	12928	10	-3	-31	-15064	2440	-5992	10	6	-27	-4400	-2080	16184	10	3	13	126	129	5
-9876	-3160	12144	-17	20	-29	-14616	-6280	-4048	2	6	9	-4096	-5520	15216	-4	-16	29	-9848	3872	12768	11	-9	-25	-15008	2624	-6008	5	8	-23	-4624	-2184	16352	14	2	12	125	129	5
-9888	-3140	12192	-14	21	-24	-14608	-6304	-4408	6	-1	10	-4112	-5496	15272	2	-17	27	-10232	3888	13032	4	-1	-22	-14968	2440	-6160	1	4	-24	-4584	-2056	16320	12	-2	10	126	129	5
-9984	-3132	12172	-15	20	-30	-14776	-6432	-4352	9	0	13	-4032	-5760	15256	-4	-17	21	-10096	3816	12888	9	-6	-20	-15056	2472	-6056	1	-2	-18	-4624	-2152	16280	22	1	7	125	129	5
-9940	-3188	12212	-14	19	-23	-14664	-6344	-4120	9	-3	9	-3968	-5480	15200	-3	-18	22	-9872	3880	13072	16	-7	-20	-14936	2520	-6088	-2	-7	-11	-4456	-2184	16384	26	0	3	126	129	5
-9944	-3180	12084	-12	19	-29	-14488	-6144	-4080	9	0	15	-3896	-5536	15120	-2	-17	24	-10024	3928	12952	17	-6	-19	-14912	2448	-5944	0	-8	-6	-4360	-2272	16432	25	0	4	126	129	5
-9904	-3164	12084	-10	17	-23	-14864	-6496	-3992	11	1	18	-3968	-5624	15288	-3	-15	24	-9968	3848	12984	15	-6	-14	-15168	2328	-5928	5	-5	-1	-4416	-2184	16512	25	1	-2	126	129	5
-9884	-3108	12268	-12	15	-19	-14656	-6424	-4152	13	-2	16	-3992	-5704	15272	4	-13	17	-9952	3856	13088	18	-1	-12	-15024	2560	-5848	-4	-11	1	-4272	-2080	16336	24	-2	-4	126	129	5
-9960	-3216	12120	-16	16	-26	-14624	-6424	-4184	11	-5	21	-3944	-5576	15328	6	-15	21	-9880	3736	13080	20	-2	-18	-14992	2616	-5952	-6	-5	3	-4448	-1928	16168	28	-4	-6	126	129	5
-9932	-3172	12364	-12	14	-24	-14680	-6328	-4144	12	-3	20	-3880	-5480	15312	10	-12	19	-9976	3872	12872	14	0	-13	-14888	2752	-5792	-8	-9	7	-4384	-2040	16224	27	-4	-3	126	129	5
-9924	-3076	12120	-7	15	-24	-14768	-6184	-4256	13	-5	21	-3848	-5616	15224	5	-15	14	-10000	3816	13144	19	-3	-16	-14936	2608	-5624	-2	-12	5	-4328	-1872	16200	27	-2	-6	126	129	5
-9928	-3148	12180	-8	14	-23	-14664	-6184	-3920	9	-4	28	-3968	-5568	15208	3	-19	17	-10040	3800	12856	17	-7	-16	-14952	2592	-5880	-1	-9	2	-4184	-1880	16616	28	-1	2	126	129	5
-9932	-3128	12160	-11	15	-23	-14672	-6392	-4176	14	4	25	-3896	-5488	15536	5	-14	17	-10024	3944	12800	18	-9	-15	-14984	2696	-6192	1	-7	-2	-4464	-1880	16384	28	-4	2	125	129	5
-9888	-3140	12244	-9	18	-25	-14768	-6256	-4096	12	-5	21	-3888	-5528	15408	2	-13	19	-10008	3920	12872	18	3	-20	-14976	2648	-5720	0	-5	-5	-4264	-1848	16336	25	-2	3	125	129	5
-9912	-3100	12088	-11	18	-25	-14760	-6232	-4296	5	-1	22	-4072	-5480	15248	2	-14	20	-9984	3864	12880	17	5	-14	-15048	2712	-6200	4	-2	-5	-4344	-1904	16328	27	0	4	125	129	5
-9956	-3116	12228	-15	16	-18	-14800	-6312	-3960	6	-2	21	-4024	-5344	15600	5	-15	21	-10096	3760	12864	12	-5	-22	-14872	2688	-6096	6	1	-9	-4200	-1952	16304	19	-1	4	125	128	5
-9856	-3176	12216	-14	17	-25	-14688	-6296	-4064	8	-4	15	-4136	-5384	15304	5	-15	19	-9944	3768	12992	15	0	-20	-14936	2680	-6088	0	-1	-15	-4344	-1832	16384	22	-3	6	125	129	5
-9944	-3160	12180	-9	20	-25	-14664	-6408	-3968	9	-4	13	-4016	-5432	15456	0	-14	22	-9960	3632	12816	10	-1	-19	-14848	2760	-5936	5	-2	-15	-4256	-1888	16256	16	1	4	125	129	5
-9856	-3128	12248	-14	21	-22	-14776	-6120	-3952	7	1	14	-4016	-5312	15200	-3	-18	25	-9912	3784	12968	11	-6	-18	-14936	2592	-5736	4	1	-17	-4384	-2048	16264	16	-2	6	125	129	5
-9880	-3088	12260	-14	19	-24	-14560	-6288	-3952	12	-1	9	-3976	-5440	15440	-1	-18	23	-10000	3864	12976	16	1	-18	-15056	2568	-5840	0	-5	-16	-4432	-1968	16256	20	2	6	126	129	5
-9932	-3132	12208	-14	20	-25	-14608	-6320	-4080	13	-6	9	-3960	-5344	15256	-4	-20	23	-10072	3792	12928	13	-3	-19	-14920	2464	-6000	-1	-4	-13	-4392	-2112	16400	23	1	7	126	129	5
-9956	-3144	12208	-14	19	-25	-14736	-6184	-4280	12	-1	10	-3960	-5440	15296	-4	-19	25	-9968	3776	12872	10	-7	-18	-15072	2600	-5688	-1	-8	-14	-4360	-2144	16352	25	-1	7	125	129	5
-9976	-3176	12168	-12	24	-22	-14656	-6336	-4496	8	-4	10	-3928	-5696	15328	1	-18	24	-10016	3832	12848	9	0	-20	-15016	2720	-6040	3	-7	-12	-4344	-2080	16280	20	1	4	125	129	5
-9920	-3188	12116	-15	19	-29	-14720	-6256	-4248	11	1	12	-3992	-5616	15272	4	-21	21	-9920	3904	12848	11	-8	-18	-14912	2600	-6064	2	-8	-17	-4488	-2120	16440	23	-2	6	125	129	5
-9904	-3116	12212	-13	18	-25	-14704	-6360	-3936	13	-1	15	-3880	-5528	15456	2	-16	24	-9920	3736	12816	14	-5	-17	-15112	2576	-6088	1	-4	-7	-4304	-2080	16504	21	-3	2	125	129	5
-9908	-3264	12144	-17	17	-20	-14792	-6328	-4136	5	-7	14	-3936	-5408	15344	3	-18	18	-9912	3832	13032	12	-3	-16	-15056	2640	-5800	0	-8	-9	-4304	-2016	16144	19	1	4	125	129	5
-9908	-3148	12264	-13	17	-22	-14624	-6408	-4032	9	-4	14	-3968	-5568	15464	5	-17	18	-10112	3816	12848	13	1	-19	-15096	2408	-5992	-3	-7	-5	-4352	-1968	16472	19	0	6	125	129	5
-9928	-3120	12140	-12	17	-26	-14752	-6160	-4040	13	-5	18	-4008	-5672	15336	1	-17	15	-9912	3888	12864	11	1	-12	-14864	2560	-5912	4	-12	-10	-4312	-2072	16312	27	2	1	125	129	5
-9964	-3148	12136	-13	19	-21	-14752	-6424	-4048	18	-3	18	-3904	-5584	15312	3	-16	17	-9968	3896	12968	15	-4	-16	-14880	2712	-6000	-5	-7	-6	-4376	-1976	16400	26	3	-1	125	129	5
-9912	-3200	12232	-14	20	-24	-14608	-6352	-4176	15	-2	22	-4072	-5392	15408	6	-14	17	-10008	3728	12968	15	3	-15	-15024	2488	-5792	-2	-2	-8	-4288	-1872	16480	27	-4	3	125	129	5
-9952	-3136	12224	-7	14	-18	-14640	-6432	-4040	11	-4	19	-3872	-5440	15120	4	-16	20	-10112	3848	13072	16	-1	-16	-14984	2576	-6160	2	-4	-5	-4376	-1928	16400	27	-1	4	126	129	5
-9932	-3176	12140	-16	18	-19	-14632	-6120	-4104	8	-6	20	-3992	-5520	15344	2	-19	17	-9912	3920	12920	18	-5	-12	-14904	2608	-5768	-2	-2	-8	-4256	-1920	16264	23	-4	2	125	129	5
-9924	-3136	12204	-11	18	-20	-14840	-6160	-3968	9	-5	17	-3968	-5400	15336	7	-16	21	-9984	3744	12968	14	-7	-16	-15000	2696	-5936	1	-4	-7	-4248	-1960	16320	17	-1	4	125	129	5
-9956	-3136	12152	-11	20	-22	-14840	-6320	-4016	11	-2	12	-4000	-5496	15272	6	-19	23	-9992	3864	12784	15	-6	-15	-15088	2648	-5864	-1	0	-12	-4360	-1856	16472	16	-3	7	125	129	5
-9956	-3164	12216	-16	17	-27	-14656	-6336	-4280	8	-12	13	-3992	-5320	15376	9	-23	24	-10016	3776	12712	14	-1	-17	-15128	2680	-5920	-4	-2	-13	-4320	-2016	16376	19	-2	13	125	129	5
-9932	-3156	12236	-13	19	-23	-14632	-6344	-4144	8	-6	13	-3904	-5584	15296	6	-17	34	-9968	3744	12784	10	-3	-18	-15064	2624	-5816	1	-1	-17	-4312	-1888	16416	26	-2	12	125	129	5
-9944	-3176	12148	-14	17	-23	-14816	-6368	-4056	10	-4	6	-3848	-5424	15328	5	-15	26	-10024	3736	12928	10	-4	-16	-14960	2600	-5952	5	2	-17	-4520	-1928	16120	27	4	11	125	129	5
-9888	-3160	12152	-15	18	-27	-14656	-6288	-4208	10	0	12	-3896	-5480	15368	-3	-15	23	-9904	3792	13064	9	-5	-20	-14880	2488	-6056	4	-4	-14	-4352	-1944	16544	26	2	7	125	129	5
-9952	-3124	12220	-14	19	-25	-14696	-6280	-4152	9	1	15	-3888	-5584	15464	-6	-15	23	-9912	3816	12792	14	-5	-16	-15024	2632	-5864	2	-5	-14	-4336	-1920	16448	16	3	3	125	129	5
-9948	-3140	12252	-12	20	-24	-14712	-6280	-4144	6	0	18	-4048	-5464	15080	-5	-16	16	-10056	3912	12848	14	-6	-19	-14992	2472	-6032	2	-2	-9	-4464	-2000	16400	16	1	-2	125	129	5
-9896	-3124	12024	-12	19	-20	-14728	-6192	-4040	5	-4	18	-3992	-5456	15416	-1	-10	14	-10120	3872	13072	16	-3	-21	-15056	2544	-6192	-2	-6	-8	-4416	-2040	16424	9	-2	-2	125	129	5
-9900	-3092	12256	-17	15	-24	-14696	-6240	-4128	8	-8	21	-3992	-5464	15472	-1	-16	19	-10032	3824	13048	14	-3	-15	-14992	2472	-6120	-3	-4	-13	-4512	-2264	16416	13	-6	1	125	129	5
-9940	-3188	12296	-11	17	-23	-14728	-6360	-4096	8	-4	19	-3864	-5512	15304	3	-14	24	-9992	3808	13024	11	-4	-20	-14984	2488	-6144	-2	-8	-8	-4264	-2208	16336	23	-3	4	125	129	5
-9924	-3248	12128	-13	16	-24	-14736	-6296	-4128	14	-2	16	-3912	-5552	15328	4	-14	24	-9880	3768	13136	12	-3	-20	-15152	2480	-5848	4	-3	-5	-4328	-2136	16440	29	-1	3	125	129	5
-9920	-3144	12080	-14	19	-23	-14864	-6360	-4296	18	2	17	-3880	-5576	15272	6	-18	23	-10232	3816	13120	15	-7	-20	-15072	2616	-5712	1	-4	-7	-4264	-2056	16376	30	-1	4	125	129	5
-9928	-3164	12124	-17	19	-24	-14632	-6344	-4032	8	-3	14	-3984	-5552	15408	1	-19	26	-10056	3904	12776	17	-4	-18	-14920	2552	-6008	-1	-4	-2	-4472	-1984	16264	32	-3	5	125	130	5
-9996	-3224	12112	-10	16	-20	-14680	-6304	-4000	7	-2	17	-4056	-5560	15272	2	-18	29	-10000	4136	12920	16	-5	-19	-14992	2568	-5872	-6	0	-4	-4304	-1984	16312	31	0	5	125	129	5
-10012	-3096	12120	-14	18	-27	-14728	-6256	-4120	10	-8	18	-3824	-5640	15256	12	-16	24	-10000	3864	12936	16	5	-18	-15000	2520	-6064	-2	-4	0	-4392	-1880	16184	25	-2	1	125	129	5
-9928	-3140	12144	-15	15	-23	-14576	-6304	-4024	12	-7	17	-3928	-5600	15272	12	-17	23	-9888	3680	12840	16	0	-18	-14992	2648	-6024	-5	-2	-1	-4536	-2016	16512	25	-4	3	125	129	5
-9976	-3160	12140	-9	15	-23	-14664	-6304	-4136	13	-9	19	-4008	-5368	15160	11	-17	21	-10088	3824	12992	14	0	-16	-14952	2496	-5776	1	-8	-2	-4216	-1952	16424	23	-3	3	125	129	5
-9960	-3140	12096	-14	16	-25	-14648	-6312	-4160	12	-5	22	-3848	-5456	15464	8	-14	20	-9992	3808	12992	16	-4	-17	-14928	2552	-5864	-1	-8	-4	-4224	-1816	16528	26	-3	1	125	129	5
-9944	-3172	12272	-12	16	-21	-14720	-6280	-3912	10	0	18	-3992	-5360	15360	3	-18	20	-10056	3848	13136	18	-4	-17	-14848	2624	-5880	3	-7	-2	-4328	-1984	16104	25	2	3	125	129	5
-9888	-3152	12248	-12	18	-27	-14776	-6352	-4008	13	-5	18	-3928	-5320	15496	0	-14	21	-10024	3928	13048	13	-2	-17	-15040	2680	-5992	-4	-2	-6	-4240	-1808	15984	26	-2	2	125	129	5
-9968	-3108	12120	-12	21	-21	-14600	-6288	-4184	7	0	15	-3912	-5464	15352	1	-14	19	-9920	3816	12984	13	-1	-19	-14872	2616	-5880	1	-8	-7	-4384	-1888	16104	24	-2	2	125	129	5
-9920	-3128	12096	-9	22	-24	-14680	-6248	-4032	5	0	9	-3880	-5456	15480	1	-19	24	-10016	3848	12864	14	-10	-20	-15016	2744	-5944	1	-1	-16	-4384	-1904	16432	20	1	3	125	130	5
-9880	-3200	12208	-14	21	-29	-14632	-6296	-4352	9	-4	7	-3904	-5512	15304	-5	-18	29	-9824	3856	12832	15	-6	-22	-14856	2704	-5928	-2	-1	-12	-4496	-1920	16416	16	0	9	125	129	5
-9924	-3108	12300	-14	20	-29	-14696	-6200	-4064	7	-5	7	-4136	-5512	15224	-5	-19	28	-9968	3808	12768	11	-5	-19	-15016	2600	-6144	6	-4	-23	-4392	-1976	16320	17	-1	7	125	129	5
-9944	-3164	12112	-17	18	-27	-14872	-6328	-4104	11	-2	7	-3960	-5584	15424	1	-20	26	-10008	3864	12920	7	-6	-22	-14928	2600	-5928	5	1	-15	-4472	-2128	16600	23	-2	5	125	129	5
-9916	-3140	12076	-12	16	-24	-14768	-6344	-4224	11	-1	11	-3808	-5496	15232	1	-17	25	-10008	3768	13048	10	-10	-18	-15016	2624	-5864	2	-5	-17	-4392	-1928	16296	20	2	7	125	129	5
-9892	-3132	12172	-16	20	-24	-14664	-6352	-4024	8	-2	12	-3800	-5608	15256	-3	-17	19	-10040	3784	13000	11	-5	-23	-15048	2584	-6088	1	-5	-11	-4400	-1936	16304	16	0	5	125	129	5
-9984	-3184	12220	-13	18	-29	-14728	-6384	-4160	6	1	14	-3904	-5672	15296	-8	-14	23	-10040	3808	12920	11	-10	-16	-15096	2536	-5960	-1	-4	-13	-4344	-2128	16720	18	1	0	125	129	5
-9940	-3124	12132	-13	22	-24	-14680	-6272	-4080	12	-2	13	-3952	-5616	15440	-5	-19	21	-10000	3784	12816	15	-3	-17	-15024	2552	-6120	2	-6	-11	-4480	-2088	16592	20	-2	-2	125	130	5
-9952	-3136	12244	-9	19	-28	-14728	-6296	-4152	8	-2	16	-4072	-5504	15296	-1	-14	16	-9984	3752	13064	12	-3	-19	-14856	2496	-5952	5	-8	-2	-4336	-2096	15992	24	1	-3	125	129	5
-9932	-3156	12104	-18	20	-26	-14648	-6304	-4120	10	-2	16	-3880	-5688	15336	0	-19	19	-10112	3880	12824	18	-1	-17	-14968	2552	-5928	-1	-11	-5	-4288	-2200	16512	22	-1	1	125	129	5
-9944	-3188	12256	-17	18	-20	-14688	-6248	-4024	7	-3	16	-3816	-5576	15200	0	-17	20	-10056	3952	12856	17	-3	-17	-15080	2464	-5888	-1	-11	-1	-4304	-2016	16456	28	-3	3	125	130	5
-9972	-3164	12188	-12	14	-25	-14688	-6328	-4192	9	-6	19	-3824	-5576	15256	5	-16	21	-9976	3816	12784	18	-2	-14	-14832	2560	-6120	-2	-4	0	-4392	-2080	16336	26	-3	0	125	129	5
-9872	-3196	12244	-16	12	-18	-14648	-6304	-4240	13	-2	20	-3928	-5528	15312	3	-15	22	-10040	3816	13000	18	0	-16	-14992	2584	-5832	-2	-5	0	-4456	-2072	16208	25	5	2	125	129	5
-9884	-3196	12296	-8	12	-21	-14704	-6344	-4008	7	-5	21	-3944	-5528	15304	4	-12	21	-10024	3920	12920	18	-5	-14	-14912	2640	-5872	-3	0	-4	-4288	-1856	16504	27	2	1	125	129	5
-9892	-3176	12220	-11	16	-27	-14696	-6280	-4216	7	-1	22	-3968	-5584	15232	4	-19	16	-9912	3808	13120	12	-1	-19	-14912	2664	-5920	1	-1	-7	-4392	-1920	16424	26	-4	1	125	129	5
-9936	-3208	12328	-11	20	-23	-14592	-6248	-4136	7	-3	19	-4016	-5480	15360	5	-20	22	-10024	3888	13016	14	-7	-20	-14960	2504	-5856	0	-2	-3	-4448	-2072	16376	21	-5	4	125	129	5
-9936	-3140	12172	-16	14	-25	-14776	-6272	-4280	10	-7	21	-4048	-5376	15368	6	-14	25	-10008	3984	12768	11	-4	-20	-15048	2672	-5952	0	-7	-8	-4432	-1928	16368	26	-5	4	125	129	5
-9904	-3108	12264	-12	14	-21	-14816	-6328	-4112	9	-6	18	-3872	-5440	15336	8	-17	24	-10000	3912	12872	8	-3	-16	-14816	2632	-6056	1	-6	-6	-4480	-1792	16472	25	2	4	125	129	5
-9920	-3208	12236	-11	17	-25	-14776	-6208	-4288	13	-3	13	-3728	-5544	15248	7	-18	23	-9984	3760	12976	13	-3	-20	-14992	2584	-5784	3	-4	-12	-4568	-2080	16472	30	-1	7	125	129	5
-9928	-3056	12224	-15	19	-26	-14704	-6304	-4184	11	-5	15	-3928	-5360	15464	8	-19	23	-10080	3800	13072	15	-3	-16	-14888	2664	-5720	0	-6	-5	-4488	-1984	16504	31	1	9	125	129	5
-9928	-3120	12188	-12	16	-27	-14664	-6384	-4064	14	-6	18	-3856	-5464	15240	6	-21	21	-10040	3784	12904	17	-3	-15	-14960	2568	-6040	1	-8	-5	-4384	-1800	16312	28	2	1	125	129	5
-9892	-3104	12244	-13	16	-26	-14720	-6224	-4312	11	-7	13	-3896	-5336	15232	-1	-19	21	-10160	3856	12952	13	-3	-14	-14968	2552	-6080	3	-6	-2	-4376	-1952	16512	25	-1	2	125	129	5
-9904	-3088	12260	-11	16	-24	-14728	-6144	-3936	8	-8	15	-3872	-5424	15328	3	-19	17	-9832	3856	12928	13	-6	-17	-14864	2576	-5864	-1	-9	-12	-4352	-1888	16400	17	-2	5	125	129	5
-9920	-3164	12224	-16	19	-23	-14704	-6192	-4160	7	-3	13	-3872	-5424	15136	-1	-16	23	-9976	3792	12688	18	-10	-18	-14960	2632	-6024	-1	-8	-8	-4376	-1888	16616	20	2	7	125	129	5
-9896	-3108	12072	-19	16	-25	-14704	-6392	-4224	11	-7	7	-3880	-5448	15256	1	-18	20	-10144	3984	13008	16	-3	-17	-14784	2632	-5920	-4	-8	-13	-4360	-1880	16392	22	-1	6	125	130	5
-9916	-3156	12220	-16	17	-28	-14504	-6344	-4200	13	-1	8	-3936	-5224	15408	0	-21	23	-10080	3720	13040	12	-3	-21	-14872	2584	-5904	4	-8	-10	-4392	-1920	16200	18	3	5	125	129	5
-9876	-3100	12220	-18	17	-24	-14720	-6240	-4136	14	-6	4	-4112	-5360	15312	-2	-24	20	-9952	3880	12992	11	-5	-25	-14880	2672	-5704	1	-13	-16	-4416	-2088	16544	25	-1	8	125	129	5
-9928	-3136	12232	-18	18	-30	-14728	-6216	-4056	17	-7	6	-4008	-5392	15096	-5	-24	23	-9992	3776	12856	8	-3	-20	-14960	2680	-5776	-1	-7	-17	-4440	-1888	16376	23	8	8	125	129	5
-9972	-3160	12024	-19	20	-28	-14632	-6184	-4160	16	-17	-2	-3984	-5272	15344	-6	-26	26	-9976	3792	12768	14	-3	-17	-14952	2640	-5856	-3	-9	-21	-4400	-1944	16160	26	6	9	125	129	5
-9932	-3176	12136	-21	17	-27	-14672	-6184	-4128	9	-12	-6	-3992	-5480	15328	-6	-26	32	-9904	3792	12848	9	-8	-17	-15104	2568	-5840	-5	-5	-23	-4488	-2032	16552	22	-2	13	125	129	5
-9856	-3124	12216	-23	19	-30	-14832	-6408	-4144	10	-16	-12	-3840	-5392	15240	-10	-29	32	-9936	3776	13048	9	-10	-23	-14904	2512	-5624	-1	0	-21	-4168	-2128	16240	17	2	14	125	129	5
-9876	-3180	12144	-18	19	-28	-14512	-6328	-3928	8	-5	-9	-3776	-5616	15184	-11	-25	41	-9912	4000	12680	11	-7	-18	-14928	2512	-6064	11	-2	-22	-4144	-2160	16264	21	4	12	125	129	5
-9972	-3156	12196	-17	22	-29	-14696	-6424	-4120	16	0	-3	-3632	-5680	15440	2	-24	38	-9864	3848	12832	14	-5	-25	-15072	2632	-6096	8	1	-18	-4288	-2232	16360	22	6	11	125	129	5
-9932	-3156	12156	-16	24	-25	-14712	-6416	-4040	13	-2	3	-3848	-5712	15312	3	-17	30	-9912	3880	12904	9	1	-21	-14992	2384	-6008	7	-2	-8	-4384	-2176	16248	26	-1	7	125	129	5
-9944	-3168	12136	-16	21	-26	-14640	-6528	-4152	8	-1	14	-4008	-5792	15256	9	-17	25	-10016	3624	12808	16	-2	-21	-15024	2568	-5928	-5	-2	-15	-4360	-2072	16368	24	-3	5	125	129	5
-9864	-3200	12260	-12	17	-23	-14648	-6280	-4256	5	4	17	-3840	-5672	15448	8	-11	21	-10056	3784	12944	16	-4	-20	-14976	2464	-5912	2	-2	-2	-4280	-2304	16360	21	1	-2	125	129	5
-9844	-3128	12212	-7	21	-23	-14704	-6304	-4056	4	4	27	-3792	-5776	15328	2	-13	18	-9848	3936	12968	14	1	-13	-15024	2472	-5856	1	-2	-1	-4376	-2200	16352	21	-4	1	125	129	5
-9908	-3164	12272	-8	16	-25	-14744	-6392	-3888	11	6	28	-3920	-5696	15200	6	-11	14	-9992	3792	12920	17	0	-16	-15080	2480	-5960	-1	-3	7	-4408	-2080	16360	22	0	1	125	129	5
-9888	-3152	12072	-8	13	-21	-14680	-6504	-4120	8	5	33	-3968	-5632	15344	7	-11	13	-9832	3744	13080	19	-2	-10	-14944	2448	-6024	-1	-5	7	-4576	-2128	16160	24	2	-1	125	129	5
-9956	-3136	12168	-4	13	-18	-14560	-6312	-4320	13	5	31	-4016	-5496	15184	13	-9	11	-9872	3856	12920	21	-2	-13	-14984	2544	-5848	-3	-6	10	-4568	-2048	16216	29	-1	-3	125	129	5
-9916	-3160	12184	-2	13	-23	-14720	-6216	-4096	15	5	34	-4072	-5512	15104	15	-11	14	-9936	3880	12872	21	-4	-14	-15016	2680	-6032	-3	-8	13	-4272	-2040	16168	31	-2	-3	125	129	5
-9920	-3148	12100	-10	13	-21	-14704	-6280	-4120	12	-4	30	-4168	-5248	15384	10	-16	13	-9952	3864	12872	19	3	-16	-15008	2536	-6160	-7	-9	9	-4344	-1888	16440	32	-3	-4	125	129	5
-9960	-3132	12216	-14	12	-22	-14840	-6304	-4312	12	-5	25	-4000	-5280	15328	12	-17	12	-10032	3896	12944	22	-6	-12	-15040	2744	-5872	-10	-8	8	-4472	-1952	16512	21	-1	-6	125	129	5
-9904	-3172	12136	-12	16	-21	-14752	-6368	-3952	13	-12	19	-4056	-5256	15192	8	-17	18	-9976	3856	12856	16	-2	-15	-14856	2568	-6168	-5	-9	9	-4176	-1888	16304	13	-4	-5	125	129	5
-9960	-3188	12140	-15	16	-25	-14600	-6136	-3824	10	-5	9	-3984	-5176	15384	7	-23	22	-10032	3912	13096	20	-1	-17	-15056	2744	-5800	6	-7	3	-4192	-1896	16320	18	1	-8	125	129	5
-9972	-3096	12144	-18	18	-28	-14704	-6184	-4200	14	-6	3	-3848	-5200	15360	-4	-22	27	-10008	3768	12888	18	0	-13	-14888	2880	-5856	1	-3	1	-4344	-1768	16248	18	1	-4	125	129	5
-9900	-3108	12276	-22	20	-31	-14880	-6320	-4288	13	-6	1	-3832	-5304	15608	0	-22	34	-10040	3920	12888	16	2	-15	-14928	2696	-5760	-3	2	-4	-4360	-1776	16568	25	4	1	125	129	5
-9928	-3128	12104	-18	25	-28	-14688	-6240	-4176	13	-6	-5	-3728	-5480	15552	-3	-25	37	-9952	3992	12816	16	-1	-22	-15000	2768	-5912	-2	-1	-11	-4312	-1624	16208	24	2	2	125	129	5
-9972	-3152	12252	-21	25	-26	-14672	-6496	-3872	9	-4	1	-3896	-5552	15288	-3	-23	30	-9960	3824	12936	10	-2	-19	-15064	2776	-5840	5	0	-18	-4408	-1952	16280	23	-2	6	125	129	5
-9940	-3244	12212	-17	19	-26	-14584	-6480	-4096	11	-3	5	-3920	-5656	15328	-1	-20	31	-9984	3952	13080	7	-1	-20	-14992	2600	-5840	5	-2	-19	-4392	-1800	16400	20	-1	8	125	129	5
-9960	-3136	12212	-12	21	-27	-14760	-6488	-4128	7	0	11	-3864	-5624	15368	0	-18	23	-9904	3824	12904	10	-5	-18	-14976	2584	-6096	11	1	-20	-4344	-1880	16536	17	1	10	125	129	5
-9924	-3140	12176	-13	18	-29	-14808	-6352	-4224	8	-3	13	-3936	-5488	15328	0	-14	18	-9944	3808	12712	11	-8	-24	-14880	2464	-5760	7	-4	-19	-4400	-2024	16208	18	2	9	125	129	5
-9948	-3148	12120	-10	16	-23	-14640	-6432	-3936	8	-7	14	-3888	-5560	15248	6	-11	13	-10008	3824	13024	7	-2	-20	-15016	2504	-5840	5	-6	-21	-4480	-2056	16256	16	0	7	125	129	5
-9880	-3156	12220	-8	16	-26	-14680	-6360	-4280	7	-4	20	-3904	-5536	15080	4	-13	15	-10048	3768	12712	10	1	-17	-14928	2376	-5864	6	-4	-16	-4240	-2376	16352	24	0	8	125	129	5
-9884	-3172	12124	-11	15	-27	-14704	-6408	-4160	8	0	20	-3936	-5464	15376	3	-12	17	-10008	3856	12936	16	-2	-17	-14920	2496	-5880	7	-4	-9	-4432	-2128	16160	26	0	6	125	129	5
-9992	-3188	12212	-7	18	-17	-14704	-6296	-4272	15	0	20	-3984	-5592	15288	2	-12	20	-10088	3848	12712	15	1	-16	-14960	2496	-6064	-1	-7	-6	-4344	-2304	16384	25	2	3	125	129	5
-9936	-3164	12188	-13	16	-21	-14688	-6296	-4136	12	0	17	-4016	-5528	15472	2	-13	18	-9904	3824	12952	16	-5	-17	-15152	2376	-6072	0	-4	3	-4416	-2080	16264	32	0	-2	125	129	5
-9944	-3164	12312	-11	16	-22	-14712	-6336	-3752	11	-5	17	-3840	-5344	15248	1	-15	24	-9936	3784	12736	18	-1	-13	-14960	2520	-6064	2	-4	5	-4304	-2112	16320	28	-3	-2	125	129	5
-9912	-3184	12208	-13	15	-19	-14824	-6384	-4088	5	-2	19	-3896	-5576	15296	2	-18	28	-9936	3872	13056	17	0	-15	-15048	2464	-5720	-4	0	8	-4256	-2040	16336	13	1	0	125	129	5
-9928	-3232	12204	-17	18	-26	-14688	-6312	-4176	7	-3	15	-3888	-5664	15192	6	-17	25	-10000	3736	12856	19	0	-17	-14904	2552	-5816	-8	5	9	-4344	-1968	16312	9	0	-3	125	129	5
-9956	-3188	12120	-13	22	-23	-14560	-6240	-4248	9	0	18	-3952	-5416	15256	8	-15	25	-9944	3864	12920	17	-1	-12	-15072	2672	-6040	-3	0	7	-4440	-2136	16264	14	-8	-5	125	129	5
-9884	-3232	12004	-9	17	-23	-14664	-6272	-4304	9	2	16	-3800	-5488	15352	5	-15	23	-10032	3816	12840	16	3	-13	-14920	2536	-6016	-2	1	8	-4376	-1824	16264	21	-2	-8	125	129	5
-9912	-3208	12220	-16	15	-27	-14624	-6240	-4184	10	-3	16	-3912	-5520	15544	1	-17	24	-10072	3904	13032	18	-1	-14	-14992	2720	-6008	5	-2	2	-4352	-1968	16168	21	4	-1	125	129	5
-9928	-3160	12184	-13	18	-20	-14776	-6304	-4224	7	-1	21	-4056	-5504	15152	6	-17	20	-10008	3848	12824	14	-4	-18	-14872	2712	-6056	5	-8	-3	-4328	-1896	16592	24	-2	6	125	129	5
-9920	-3276	12176	-9	16	-23	-14712	-6352	-4376	6	2	19	-3872	-5480	15464	1	-12	24	-10008	3952	12888	14	-3	-16	-15024	2720	-6064	5	-3	-6	-4272	-1800	16352	23	-1	4	125	129	5
-9936	-3096	12272	-13	18	-26	-14688	-6320	-4216	11	-1	11	-3992	-5376	15424	5	-18	23	-10128	3808	12920	15	2	-22	-14960	2728	-6104	-2	-7	-6	-4368	-1912	16280	22	2	7	125	129	5
-9872	-3184	12256	-18	18	-22	-14656	-6216	-4008	8	-1	20	-3880	-5448	15408	0	-20	21	-9904	4064	12880	17	-3	-21	-15000	2632	-5912	2	-5	-14	-4248	-1952	16336	23	0	5	125	129	5
-9904	-3208	12200	-10	16	-25	-14792	-6416	-4320	8	-4	15	-3832	-5496	15336	-2	-17	23	-10048	3744	12744	16	-3	-13	-15056	2608	-6008	0	-4	-12	-4392	-1936	16296	22	-6	1	125	129	5
-9992	-3120	12288	-17	13	-24	-14760	-6280	-4064	11	-5	13	-3840	-5392	15264	3	-20	18	-10152	3736	13032	17	-7	-17	-14952	2640	-5936	-2	-7	-16	-4376	-2096	16400	24	-1	7	125	129	5
-9896	-3100	12172	-14	18	-25	-14648	-6280	-4080	12	-3	9	-3936	-5560	15200	2	-15	22	-9920	3808	13000	9	-5	-15	-15072	2648	-6104	-1	-12	-11	-4600	-2048	16456	23	2	7	125	129	5
-9924	-3176	12224	-11	13	-26	-14680	-6392	-4024	12	-4	10	-3944	-5520	15256	-5	-21	23	-10024	3880	12904	15	-3	-22	-14936	2456	-5872	5	-7	-15	-4448	-2064	16296	22	-5	8	125	129	5
-9940	-3168	12184	-13	15	-27	-14616	-6408	-4192	11	2	17	-4008	-5504	15240	-2	-18	26	-9904	3792	12808	14	-9	-16	-14992	2744	-6056	7	-10	-7	-4272	-2144	16280	21	-1	6	125	129	5
-9928	-3132	12232	-15	16	-23	-14712	-6288	-4200	10	-6	11	-3928	-5600	15288	-1	-18	22	-10088	3808	12896	11	-1	-17	-15016	2512	-6040	4	-6	-15	-4480	-2144	16416	21	2	2	125	129	5
-9956	-3152	12128	-10	20	-25	-14712	-6496	-4032	9	-6	17	-3864	-5600	15216	-1	-20	24	-10080	3720	12944	13	-7	-18	-14952	2608	-5688	4	-6	-9	-4216	-2104	16392	16	6	3	125	129	5
-9912	-3116	12056	-13	19	-27	-14712	-6392	-4064	13	-3	11	-3896	-5552	15288	-1	-15	22	-9888	3800	12952	11	-2	-17	-15040	2544	-6008	2	-4	-12	-4480	-2112	16384	19	-3	4	125	129	5
-9916	-3180	12144	-13	19	-25	-14696	-6384	-4032	11	1	12	-3896	-5568	15296	-2	-15	23	-9992	3896	13024	16	-1	-17	-14920	2624	-6080	0	-3	-11	-4448	-2112	16272	17	-1	4	125	129	5
-9940	-3200	12140	-15	16	-25	-14840	-6328	-4368	9	-3	20	-3808	-5648	15192	-1	-15	19	-9872	3824	12936	11	-3	-19	-15056	2616	-5992	0	-5	-8	-4376	-2024	16200	20	-1	0	125	129	5
-10004	-3136	12192	-9	22	-23	-14648	-6320	-4120	12	1	21	-3768	-5648	15512	-2	-13	20	-10024	3800	12992	13	-6	-12	-14880	2592	-6184	0	-6	-5	-4344	-1944	16304	23	1	5	125	129	5
-9940	-3172	12120	-11	18	-25	-14696	-6288	-4064	8	-1	20	-4048	-5504	15408	0	-15	16	-9912	3880	12960	15	-7	-21	-14880	2608	-5792	1	-5	-3	-4464	-1960	16272	22	1	4	125	129	5
-9924	-3168	12196	-10	13	-23	-14536	-6296	-3928	12	-4	20	-3840	-5480	15376	6	-14	20	-9976	3920	12760	14	-5	-13	-15080	2640	-5992	0	-7	-2	-4504	-2080	16248	23	1	4	125	129	5
-9964	-3128	12220	-10	14	-22	-14768	-6368	-4216	9	1	19	-3768	-5688	15224	4	-13	15	-9888	3848	12976	13	-6	-15	-14960	2792	-5808	-2	-1	-9	-4408	-2064	16472	24	-3	5	125	129	5
-9884	-3152	12168	-9	16	-26	-14664	-6272	-4048	12	0	21	-3888	-5424	15512	4	-17	20	-9976	3880	12896	13	1	-17	-15064	2744	-5848	-3	-7	-6	-4312	-2040	16296	21	-2	2	125	129	5
-9904	-3204	12152	-11	19	-22	-14712	-6224	-3920	12	-5	17	-3824	-5496	15632	6	-15	24	-9976	3648	12744	13	0	-16	-14936	2680	-5952	0	-2	-8	-4344	-2080	16296	19	-3	6	125	129	5
-9896	-3180	12212	-11	17	-23	-14656	-6424	-4120	13	2	18	-3912	-5448	15496	0	-16	20	-9936	3888	13128	13	-3	-11	-15016	2704	-5808	-2	-2	-1	-4304	-2032	16216	22	-4	3	125	129	5
-9992	-3136	12204	-10	16	-20	-14704	-6280	-3960	12	-1	17	-3960	-5384	15312	1	-16	18	-10032	3816	13040	12	-2	-16	-14888	2672	-5992	-3	1	-8	-4472	-1984	16216	23	1	5	125	130	5
-9848	-3132	12244	-13	17	-21	-14568	-6296	-3944	10	0	16	-3944	-5512	15352	3	-17	19	-9968	3904	12968	13	-4	-14	-14880	2544	-5960	1	-2	-13	-4408	-1912	16792	22	-1	3	125	129	5
-9968	-3140	12240	-13	17	-22	-14760	-6328	-4152	12	2	15	-3984	-5400	15288	0	-13	23	-9976	3752	12872	15	-2	-18	-15040	2776	-5752	-2	-3	-6	-4648	-2152	16432	25	0	7	125	129	5
-9936	-3136	12176	-13	16	-22	-14712	-6288	-4064	12	4	20	-3984	-5576	15096	1	-14	21	-9992	3856	12832	12	-9	-18	-14968	2824	-5944	2	-4	-9	-4352	-2024	16352	25	2	5	125	129	5
-9928	-3256	12128	-12	19	-24	-14640	-6368	-4304	12	0	16	-3928	-5496	15360	3	-13	22	-9944	3784	13032	17	-8	-17	-14984	2616	-5840	1	-4	-10	-4432	-1992	16256	21	-1	8	125	129	5
-9896	-3132	12244	-11	14	-26	-14736	-6192	-4152	9	-10	16	-4016	-5392	15440	1	-14	23	-9976	3624	12888	11	-8	-13	-15008	2600	-5864	1	-5	-8	-4344	-1984	16456	23	-4	7	125	129	5
-9888	-3140	12144	-11	17	-21	-14576	-6200	-4024	10	-5	16	-3976	-5576	15312	6	-19	22	-10024	3800	12944	16	-10	-15	-14992	2664	-6016	-1	-6	-11	-4448	-2088	16416	21	-6	6	125	129	5
-9888	-3124	12104	-9	17	-27	-14512	-6192	-4032	10	-3	17	-4080	-5552	15480	-2	-19	23	-9912	3800	12920	12	0	-20	-14960	2520	-5904	2	-7	-10	-4416	-2088	16264	24	-3	2	125	129	5
-9884	-3148	12276	-16	19	-21	-14752	-6352	-4192	14	-6	12	-3992	-5440	15448	4	-17	23	-10016	3848	12992	18	-1	-16	-14968	2696	-5936	0	-3	-5	-4112	-2080	16384	24	-2	6	125	129	5
-9896	-3184	12136	-13	16	-27	-14832	-6376	-4104	10	0	17	-3896	-5576	15368	3	-17	22	-10088	3824	12928	12	2	-18	-15048	2504	-6008	-2	-4	-6	-4376	-2104	16560	27	3	3	125	129	5
-9996	-3128	12192	-14	19	-24	-14616	-6288	-4192	12	-8	12	-3992	-5480	15264	4	-21	24	-9912	3952	12952	14	0	-14	-15064	2496	-5848	-3	-3	-4	-4480	-2112	16440	27	-1	5	125	129	5
-9972	-3132	12076	-15	17	-24	-14808	-6344	-4080	12	1	13	-3848	-5632	15432	0	-13	21	-9936	3848	13000	14	-2	-20	-15104	2552	-5808	1	-8	-8	-4344	-2032	16168	22	-2	4	125	129	5
-9892	-3092	12276	-11	19	-23	-14664	-6240	-4088	7	-8	14	-3888	-5392	15312	5	-14	21	-9984	3768	13056	16	0	-19	-15000	2576	-5784	-4	-3	-1	-4456	-1896	16416	22	1	1	125	129	5
-9912	-3208	12144	-12	17	-28	-14712	-6248	-3856	11	-1	14	-3912	-5496	15592	4	-12	21	-10152	3920	13040	12	-1	-17	-14968	2760	-5760	-1	-3	-7	-4360	-1904	16584	20	0	4	125	129	5
-9904	-3120	12224	-11	17	-23	-14728	-6344	-4192	10	-2	17	-3904	-5544	15352	-1	-11	21	-9920	3944	13112	12	-4	-19	-15080	2560	-5848	0	-1	-5	-4280	-1928	16368	21	4	1	125	129	5
-9920	-3176	12180	-9	17	-26	-14632	-6512	-4232	8	2	16	-3968	-5576	15248	0	-15	19	-10024	3752	12744	17	-5	-14	-14984	2568	-5832	-5	0	-10	-4320	-2032	16296	24	1	-3	125	129	5
-9892	-3160	12176	-12	18	-24	-14712	-6208	-4208	12	-1	19	-3888	-5392	15576	3	-13	19	-9896	3808	12968	16	-1	-22	-15000	2520	-6064	2	-2	-10	-4384	-2080	16272	25	0	6	125	129	5
-9928	-3172	12204	-12	14	-21	-14848	-6248	-4232	7	-1	15	-3848	-5424	15232	2	-12	20	-10048	3936	13088	9	-5	-20	-14952	2632	-5880	2	-4	-9	-4448	-2072	16184	22	-2	4	125	129	5
-9880	-3184	12228	-16	18	-30	-14704	-6312	-4112	6	-2	13	-3904	-5376	15464	2	-15	17	-10048	3872	12928	16	-9	-13	-15000	2560	-6224	2	-6	-7	-4312	-2040	16144	22	0	6	125	129	5
-9912	-3168	12160	-15	20	-28	-14816	-6352	-4104	9	-2	14	-4016	-5408	15376	8	-19	25	-10056	3712	13064	10	-5	-18	-14928	2680	-5720	1	-7	-15	-4112	-1992	16256	24	-1	8	125	129	5
-9904	-3108	12136	-18	17	-25	-14640	-6288	-4200	11	-2	13	-4056	-5456	15296	10	-16	27	-9968	3856	12712	14	-1	-18	-14992	2624	-6032	0	-8	-9	-4360	-2056	16384	20	-5	7	125	129	5
-9928	-3172	12176	-9	16	-25	-14616	-6160	-4096	9	-1	10	-4112	-5376	15416	4	-17	25	-10112	3768	12880	15	-8	-16	-14992	2552	-5992	-5	1	-8	-4336	-1960	16352	20	0	0	125	128	5
-9848	-3168	12176	-18	24	-30	-14720	-6328	-3920	7	2	14	-3896	-5432	15288	5	-15	23	-10024	3824	13088	18	-10	-13	-14968	2624	-5840	1	-6	-6	-4384	-1984	16256	23	-5	2	125	128	5
-9932	-3168	12172	-14	19	-19	-14624	-6336	-4304	8	-1	8	-3952	-5464	15304	3	-17	26	-9896	3856	12856	14	-5	-14	-15000	2480	-5912	1	-5	-2	-4384	-2072	16528	20	0	4	126	128	5
-9924	-3192	12224	-11	18	-26	-14496	-6248	-4208	9	-5	13	-3864	-5544	15320	4	-17	24	-10056	3768	12968	21	-5	-15	-15024	2632	-5880	4	-4	-9	-4432	-1984	16360	29	3	0	126	129	5
-9940	-3216	12112	-16	18	-26	-14776	-6272	-4176	15	-1	15	-3904	-5376	15288	0	-17	23	-9904	3952	12848	16	-1	-16	-14968	2600	-5880	0	-8	-3	-4456	-1976	16136	20	1	2	126	128	5
-9944	-3144	12148	-14	21	-24	-14616	-6488	-4304	9	-8	19	-3928	-5736	15312	-3	-18	18	-10024	3920	13008	14	-5	-19	-14888	2552	-6152	-1	-9	-9	-4408	-2048	16264	26	1	4	126	128	5
-9928	-3168	12096	-14	19	-24	-14584	-6360	-4144	12	-3	18	-3904	-5512	15304	5	-17	18	-10008	3888	12808	12	-3	-21	-14920	2456	-6160	4	-8	-10	-4520	-2176	16224	23	2	5	126	129	5
-9916	-3188	12100	-12	13	-28	-14712	-6368	-4000	8	-1	20	-3968	-5568	15360	6	-15	18	-9976	3784	12920	16	-5	-17	-15128	2688	-6320	5	-9	-5	-4448	-2032	16424	18	-4	4	125	128	5
-9984	-3160	12244	-14	16	-28	-14672	-6296	-3984	12	-6	19	-3920	-5392	15328	4	-17	20	-9952	3832	12816	13	1	-15	-14944	2664	-6016	1	-8	-10	-4360	-2064	16184	21	-3	4	126	128	5
-9952	-3172	12076	-14	20	-25	-14608	-6248	-3984	10	-8	16	-3792	-5416	15136	2	-17	17	-9992	3872	12856	16	-1	-19	-15024	2544	-5640	0	-3	-6	-4392	-1952	16472	20	-5	2	126	128	5
-9868	-3208	12184	-12	18	-25	-14464	-6296	-4096	9	-4	15	-3792	-5416	15216	4	-17	20	-9896	3976	13024	17	0	-17	-14952	2664	-5864	-2	-6	-6	-4400	-2120	16392	24	-1	3	126	128	5
-9900	-3176	12268	-15	20	-22	-14640	-6384	-3888	16	-2	14	-3888	-5504	15456	6	-14	25	-10008	3896	13064	16	-6	-16	-14944	2616	-5936	-2	-4	-8	-4232	-2064	16104	27	2	3	126	128	5
-9988	-3144	12156	-12	16	-20	-14736	-6216	-4000	10	-3	15	-3912	-5480	15432	-2	-18	26	-9904	3784	12920	16	0	-21	-14976	2640	-5856	1	3	-8	-4448	-1992	16320	30	0	4	126	128	5
-9944	-3104	12268	-13	18	-23	-14704	-6296	-4024	10	-6	17	-3904	-5472	15368	4	-17	23	-9960	3912	12840	16	0	-18	-15128	2536	-5792	1	0	-7	-4400	-2096	16416	26	2	5	126	128	5
-9956	-3180	12256	-12	14	-24	-14800	-6208	-4216	8	-1	14	-3880	-5448	15248	4	-20	30	-10072	3664	12880	14	-10	-13	-14976	2664	-5880	2	-3	-8	-4520	-1976	16256	20	-5	5	126	128	5
-9900	-3176	12216	-18	19	-26	-14664	-6360	-4136	8	-5	13	-3816	-5520	15304	10	-18	25	-9968	3936	12872	11	-6	-19	-15096	2608	-5968	-1	-6	-4	-4384	-1824	16536	21	-2	0	126	128	5
-9960	-3160	12236	-13	19	-26	-14624	-6368	-4136	9	-7	16	-3832	-5512	15376	9	-13	23	-9936	3872	13040	9	-3	-18	-15056	2824	-6240	-1	-3	-6	-4368	-2024	16432	22	1	1	125	128	5
-9924	-3136	12164	-12	18	-28	-14656	-6256	-4112	5	-2	15	-3824	-5496	15256	9	-15	22	-9864	3760	13072	14	1	-15	-14952	2624	-6096	-3	-7	-6	-4264	-2080	16392	21	3	3	126	128	5
-9980	-3192	12228	-12	20	-21	-14488	-6504	-4232	9	-4	16	-3920	-5456	15488	7	-15	23	-10072	3768	13016	13	-5	-16	-14944	2752	-6104	1	-8	-1	-4408	-1920	16312	23	-1	5	126	128	5
-9948	-3204	12160	-7	15	-26	-14584	-6288	-4024	9	5	14	-3776	-5440	15360	3	-16	20	-9968	3952	12944	15	4	-18	-14928	2776	-6072	-1	-2	-9	-4280	-2032	16336	25	1	3	126	129	5
-9980	-3232	12064	-10	14	-25	-14776	-6400	-4440	12	0	19	-3936	-5576	15344	0	-15	22	-9976	3800	12936	8	2	-19	-15016	2728	-6000	1	-5	-8	-4360	-2000	16128	26	-3	0	126	128	5
-9956	-3160	12304	-11	22	-21	-14776	-6288	-4256	12	-6	20	-3944	-5376	15128	0	-16	19	-9936	3816	12896	15	-3	-18	-15008	2592	-6032	-3	-7	-9	-4408	-2048	16272	21	4	1	126	128	5
-9924	-3196	12176	-14	17	-25	-14576	-6248	-4272	10	-4	17	-3968	-5416	15216	0	-19	19	-9920	3920	12992	14	-4	-16	-14960	2712	-5864	1	-5	-12	-4392	-1992	16280	22	0	6	126	128	5
-9916	-3156	12200	-13	19	-27	-14776	-6376	-4192	13	-6	17	-3872	-5464	15368	0	-18	19	-9968	3864	13064	10	-2	-18	-14944	2616	-6032	3	-4	-9	-4344	-2040	16648	23	-1	6	126	129	5
-9892	-3128	12092	-15	19	-20	-14840	-6368	-4104	11	-3	17	-3944	-5544	15408	4	-13	18	-9912	3832	13168	13	-1	-16	-14912	2680	-6016	-1	-7	-11	-4408	-2112	16328	22	-5	4	126	128	5
-10008	-3168	12228	-12	18	-27	-14704	-6320	-4248	11	0	20	-3896	-5592	15232	6	-16	20	-10016	3768	12864	7	-4	-20	-15128	2672	-5952	-2	-3	-8	-4400	-2024	16368	19	1	5	125	129	5
-9924	-3136	12120	-18	22	-25	-14576	-6336	-4184	13	-3	18	-4000	-5424	15384	3	-16	20	-9968	3736	13144	14	1	-18	-15008	2544	-6000	1	-4	-5	-4312	-2080	16096	16	-5	3	126	128	5
-9908	-3212	12156	-11	21	-21	-14752	-6336	-4184	8	-4	17	-3912	-5520	15432	1	-18	19	-9912	3904	12752	12	-6	-18	-14880	2616	-6008	0	-7	-12	-4272	-1920	16608	21	-1	6	126	128	5
-9880	-3124	12188	-11	17	-27	-14672	-6296	-4040	7	-1	15	-3840	-5456	15248	2	-18	21	-9960	3808	13248	13	-3	-15	-14992	2616	-5808	3	-6	-4	-4416	-2016	16336	23	-1	8	126	128	5
-9964	-3160	12176	-11	19	-24	-14672	-6488	-4080	10	-4	19	-3904	-5664	15296	4	-18	21	-9952	3904	12808	15	1	-15	-15000	2808	-5768	-4	-2	-8	-4392	-1976	16248	26	-1	2	125	129	5
-9908	-3168	12220	-12	16	-24	-14704	-6288	-4288	11	-1	15	-3864	-5528	15320	0	-12	20	-9992	3920	12736	17	0	-15	-14888	2560	-6056	-3	-4	-10	-4328	-2208	16416	23	3	6	126	129	5
-9896	-3220	12240	-17	15	-24	-14688	-6408	-4112	9	-3	11	-3960	-5496	15224	3	-16	24	-9992	3688	13072	17	0	-14	-14960	2792	-5960	0	-3	-9	-4376	-1992	16432	28	-1	5	126	129	5
-9992	-3216	12224	-9	20	-21	-14672	-6456	-4088	15	3	15	-4024	-5552	15048	0	-18	21	-10144	3728	12816	13	-1	-21	-15072	2608	-6248	0	-5	-6	-4312	-2024	16328	25	-2	4	126	129	5
-9848	-3200	12196	-13	14	-23	-14608	-6256	-4152	9	-4	17	-3904	-5528	15320	2	-17	19	-10032	3792	12928	15	-3	-18	-14848	2744	-6032	-1	-8	-11	-4600	-2024	16328	22	1	4	126	129	5
-9936	-3128	12152	-13	17	-26	-14720	-6400	-4016	11	1	17	-3904	-5504	15200	-3	-17	20	-9968	3752	12776	12	-6	-16	-15072	2584	-5864	6	0	-11	-4440	-1928	16184	23	-3	4	126	129	5
-9984	-3112	12184	-9	18	-23	-14664	-6384	-4040	8	-3	17	-4024	-5512	15304	4	-16	22	-9952	3888	12864	16	-9	-19	-15016	2792	-6136	-2	-5	-9	-4448	-2144	16392	21	1	6	126	129	5
-9916	-3148	12232	-18	15	-21	-14864	-6336	-4056	13	-1	22	-3944	-5480	15376	3	-18	20	-10144	3728	12920	17	-7	-18	-15040	2584	-6072	-1	-2	-5	-4448	-2048	16656	22	-2	6	125	128	5
-9948	-3136	12228	-12	15	-23	-14808	-6328	-4232	6	-7	15	-3992	-5448	15456	4	-15	25	-10032	3880	13128	10	4	-18	-15040	2592	-6040	1	-5	-5	-4496	-2056	16152	25	4	5	125	129	5
-9944	-3156	12140	-15	18	-27	-14752	-6224	-4128	11	-4	16	-3976	-5440	15424	5	-16	25	-10040	3888	13000	13	3	-15	-14920	2544	-5816	2	-5	-13	-4416	-2104	16424	26	0	10	125	128	5
-10012	-3188	12200	-12	21	-25	-14688	-6272	-4160	8	0	10	-3952	-5584	15328	6	-18	25	-10000	3888	12984	18	-3	-19	-14952	2576	-6096	-2	-1	-5	-4368	-2104	16352	21	1	7	125	129	5
-9928	-3200	12100	-12	18	-27	-14720	-6224	-3848	11	-3	14	-3992	-5448	15360	-1	-16	24	-10016	3832	12920	15	-3	-16	-15000	2648	-6192	-1	1	-3	-4392	-2040	16456	24	3	8	125	129	5
-9892	-3140	12140	-11	15	-29	-14672	-6232	-4088	10	-6	13	-3992	-5600	15304	4	-15	21	-9912	3864	12936	14	-1	-14	-15024	2640	-5936	-2	-3	-5	-4464	-1920	16272	24	3	5	125	129	5
-10012	-3148	12228	-13	18	-24	-14712	-6368	-4176	12	-5	22	-3888	-5520	15248	3	-18	23	-10040	3760	13024	13	-8	-19	-14928	2608	-5960	-1	-6	-4	-4360	-1792	16360	22	-1	4	125	129	5
-9940	-3204	12196	-14	17	-25	-14736	-6296	-4256	6	-6	19	-3776	-5456	15104	9	-14	21	-9992	3792	12840	16	-7	-13	-14920	2576	-6040	3	-3	-3	-4304	-2024	16336	25	1	2	125	129	5
-9900	-3156	12160	-12	15	-22	-14776	-6336	-3840	9	1	17	-3888	-5536	15408	7	-12	20	-10048	3744	12672	15	-4	-13	-14904	2512	-6144	-4	-5	-4	-4232	-2000	16528	25	-3	6	125	129	5
-9988	-3196	12132	-12	20	-22	-14672	-6408	-4304	3	-1	10	-3880	-5464	15232	7	-14	20	-10016	3824	12936	14	-1	-16	-14944	2552	-5904	1	-6	-7	-4272	-1992	16512	26	-2	0	125	129	5
-9860	-3168	12192	-12	17	-25	-14736	-6408	-3952	8	-4	18	-3912	-5504	15264	6	-15	21	-10080	3928	12776	14	0	-19	-14856	2448	-6104	-1	-4	-13	-4264	-1904	16192	18	0	3	125	129	5
-9912	-3148	12332	-14	19	-21	-14704	-6224	-3984	9	-7	19	-3824	-5408	15072	2	-17	25	-10016	3880	13008	13	-2	-17	-14960	2640	-5960	-2	-1	-6	-4440	-1880	16264	22	-3	5	125	129	5
-9936	-3176	12088	-13	17	-23	-14744	-6256	-4128	9	3	19	-4016	-5528	15304	1	-16	19	-10104	3912	13000	14	4	-17	-14888	2568	-6080	-3	-4	-9	-4336	-2048	16152	23	2	3	125	129	5
-9916	-3152	12172	-15	18	-23	-14592	-6224	-4032	9	-3	17	-3864	-5496	15408	3	-16	22	-10040	3936	12944	16	-7	-20	-14984	2560	-5920	3	-5	-12	-4472	-2024	16320	19	-1	4	125	129	5
-9860	-3184	12208	-10	19	-24	-14624	-6440	-3960	11	1	19	-3944	-5600	15496	4	-17	21	-9936	3848	12856	15	-7	-19	-14928	2576	-6160	3	-1	-13	-4504	-2080	16400	22	2	2	125	129	5
-9952	-3132	12152	-14	16	-21	-14704	-6352	-4224	10	-1	17	-3888	-5472	15432	3	-12	23	-10072	3872	13080	14	0	-20	-15048	2624	-5984	-1	-3	-8	-4336	-1912	16312	33	2	7	125	128	5
-9912	-3176	12192	-16	17	-22	-14616	-6320	-4080	8	0	16	-3952	-5432	15176	5	-13	17	-9944	3872	13008	13	-5	-18	-14976	2536	-6120	-4	-7	-7	-4376	-2024	16488	23	2	2	125	129	5
-9900	-3168	12112	-11	15	-19	-14696	-6400	-4040	8	3	18	-4128	-5368	15296	5	-17	24	-10120	3880	12880	14	-2	-20	-14944	2616	-6120	2	-5	-12	-4304	-2032	16328	22	1	5	125	129	5
-9940	-3092	12232	-11	15	-20	-14720	-6328	-4016	7	-6	14	-3944	-5520	15608	5	-19	19	-9960	3872	12984	15	-8	-16	-14920	2480	-6184	2	-8	-7	-4352	-2064	16544	20	1	5	125	129	5
-9924	-3116	12108	-12	15	-24	-14768	-6216	-4288	7	-8	15	-3888	-5392	15296	5	-17	21	-10088	3760	12888	13	-7	-13	-14920	2592	-6152	0	-5	-9	-4488	-1992	16328	24	-1	5	125	129	5
-9896	-3184	12176	-12	16	-25	-14776	-6280	-4272	8	0	17	-3968	-5528	15208	-1	-16	17	-10040	3792	12824	13	0	-15	-15048	2624	-6016	1	-6	-11	-4432	-2064	16456	22	-3	2	125	129	5
-9920	-3184	12188	-12	17	-26	-14736	-6312	-4080	13	-3	17	-3936	-5424	15232	2	-15	20	-9896	3784	13032	16	0	-15	-15160	2504	-6104	0	-6	-10	-4480	-2104	16272	26	-4	4	125	129	5
-9872	-3148	12132	-12	19	-25	-14624	-6376	-4096	12	-11	12	-4032	-5448	15464	0	-18	24	-9904	3784	12680	12	-9	-18	-14928	2704	-5816	-1	-5	-11	-4264	-2056	16528	27	1	2	125	129	5
-9912	-3156	12116	-10	17	-20	-14616	-6248	-4136	12	-6	12	-3928	-5440	15304	3	-15	23	-10056	3768	12888	11	-8	-13	-14944	2608	-6064	0	-1	-8	-4280	-2048	16400	24	-2	5	125	129	5
-9900	-3136	12184	-9	17	-23	-14624	-6368	-4424	12	-6	14	-3856	-5472	15448	1	-15	26	-9968	3824	13040	13	-6	-17	-15072	2640	-6112	-1	-6	-11	-4272	-1976	16328	20	4	3	125	129	5
-9948	-3216	12248	-13	17	-24	-14704	-6408	-4352	12	-6	13	-3888	-5520	15352	2	-15	19	-10152	3616	12984	13	-8	-16	-14904	2552	-6160	3	-2	-12	-4392	-2096	16544	19	3	5	125	129	5
-9940	-3184	12208	-12	19	-23	-14704	-6304	-4048	6	0	15	-3872	-5488	15304	2	-16	20	-9784	3816	13024	11	3	-20	-14976	2544	-5872	2	-5	-6	-4384	-1992	16136	25	0	5	125	129	5
-9908	-3176	12128	-12	18	-24	-14688	-6352	-4024	7	0	17	-3896	-5448	15224	5	-17	22	-9960	3736	12992	14	-1	-21	-15056	2560	-6000	4	-2	-10	-4464	-2160	16080	14	1	3	125	129	5
-9960	-3196	12276	-8	14	-26	-14680	-6344	-4192	12	-1	16	-3880	-5552	15416	4	-15	19	-9896	3896	13056	13	2	-17	-14952	2520	-6096	-4	0	-11	-4304	-1896	16104	20	1	7	125	129	5
-9904	-3172	12160	-10	14	-22	-14776	-6160	-3760	7	3	21	-4032	-5576	15296	10	-15	20	-10016	3952	12928	16	1	-20	-14920	2496	-5984	-6	0	-8	-4392	-1960	16504	24	-2	4	125	129	5
-9836	-3080	12160	-12	16	-24	-14672	-6360	-4184	7	-2	22	-3904	-5464	15296	2	-12	23	-10048	3872	13048	16	-2	-20	-15072	2552	-6160	-2	-4	-5	-4376	-1872	16328	27	-2	4	125	129	5
-9956	-3156	12180	-9	20	-22	-14752	-6320	-4184	11	1	22	-3864	-5520	15432	0	-16	19	-10144	3792	12832	12	-6	-19	-14944	2520	-6088	5	-5	-14	-4384	-2040	16616	23	-3	8	125	129	5
-9924	-3188	12096	-10	18	-27	-14752	-6360	-4328	12	-3	18	-3856	-5352	15488	3	-14	17	-9912	4016	12944	15	-2	-19	-14936	2640	-5856	4	-2	-9	-4496	-2120	16352	21	-1	3	125	129	5
-9944	-3176	12188	-13	18	-23	-14600	-6376	-4224	10	1	21	-3840	-5560	15216	3	-16	20	-10000	3704	12856	15	0	-12	-15088	2632	-5760	-3	-4	-4	-4472	-1992	16216	22	-7	5	125	128	5
-9928	-3128	12228	-13	16	-23	-14680	-6360	-4304	8	-7	21	-3952	-5408	15296	4	-13	22	-10096	3856	12960	13	-6	-17	-14992	2496	-5904	-3	-7	-5	-4304	-2072	16456	19	1	4	125	129	5
-9928	-3144	12228	-12	18	-19	-14744	-6336	-4128	11	-4	16	-4000	-5472	15384	9	-14	18	-10048	3848	13048	14	-1	-19	-14984	2520	-5984	-1	-4	-6	-4304	-2112	16272	19	-3	6	125	129	5
-9872	-3176	12204	-11	17	-20	-14824	-6296	-4000	8	-6	21	-3920	-5432	15272	7	-20	21	-10008	3784	13096	16	-3	-19	-14976	2576	-6032	-1	-5	-14	-4392	-1872	16400	17	-4	6	125	129	5
-9940	-3168	12184	-13	19	-24	-14768	-6280	-3984	13	-3	18	-3896	-5520	15256	10	-15	23	-9976	3960	12952	13	-3	-18	-14824	2680	-6056	-2	-8	-12	-4320	-2080	16312	26	-1	4	125	129	5
-9928	-3144	12060	-12	20	-23	-14680	-6368	-4008	12	-4	17	-3896	-5488	15440	3	-15	21	-10048	3920	13000	13	0	-17	-15096	2568	-6024	2	-3	-7	-4352	-2032	16312	27	4	6	125	129	5
-9912	-3140	12128	-13	21	-22	-14776	-6368	-4184	9	-4	16	-3896	-5576	15440	7	-18	23	-10096	4000	12920	16	-4	-16	-14952	2512	-6032	-1	-4	-10	-4464	-2048	16368	26	2	3	125	129	5
-9924	-3140	12112	-12	18	-20	-14720	-6336	-4016	7	-1	17	-3944	-5568	15344	-1	-12	25	-10032	3880	12672	14	-2	-17	-14968	2672	-6152	2	-7	-8	-4272	-1936	16160	25	-1	2	125	129	5
-9932	-3132	12156	-9	19	-25	-14752	-6256	-4080	7	0	13	-4024	-5416	15296	-1	-14	22	-9944	3712	13168	19	-6	-20	-14984	2552	-6096	0	-6	-9	-4480	-1920	16248	22	0	5	125	129	5
-9944	-3128	12144	-10	16	-24	-14600	-6168	-4144	15	1	16	-3888	-5464	15216	1	-15	21	-9968	3848	12872	13	-4	-17	-15016	2720	-6096	-1	-7	-8	-4208	-1920	16304	20	-3	4	125	128	5
-9944	-3148	12248	-10	20	-22	-14664	-6224	-4280	13	4	18	-4032	-5432	15304	2	-13	19	-10032	3792	13040	15	-5	-16	-15024	2752	-5960	0	-5	-9	-4440	-2016	16160	20	-3	5	125	129	5
-9900	-3220	12184	-13	16	-24	-14656	-6328	-4128	9	-4	21	-3960	-5512	15232	4	-14	22	-9984	3848	13072	17	-4	-13	-14936	2720	-5840	-2	-2	-6	-4472	-2088	16456	20	-1	3	125	129	5
-9920	-3208	12224	-13	18	-25	-14736	-6296	-4256	9	-1	18	-3944	-5552	15488	7	-15	19	-10032	3752	13072	14	-3	-18	-15008	2520	-5888	5	-6	-10	-4512	-2120	16416	21	-1	1	125	129	5
-9932	-3172	12140	-16	17	-26	-14720	-6160	-4032	8	-2	13	-3968	-5352	15448	0	-15	24	-9920	3832	12976	8	1	-19	-14984	2568	-5904	-1	-2	-10	-4304	-1936	16480	23	3	5	125	129	5
-9860	-3172	12112	-12	14	-25	-14560	-6232	-3864	11	-2	13	-3912	-5568	15064	3	-15	23	-10112	3864	13040	14	4	-19	-14936	2616	-6168	1	-3	-13	-4320	-2176	16376	23	5	9	125	129	5
-9904	-3140	12252	-12	18	-24	-14608	-6344	-4000	12	-6	16	-3840	-5552	15256	4	-16	24	-9960	3832	13096	12	-4	-21	-14944	2568	-6112	-2	-1	-15	-4536	-1992	16360	21	1	11	125	129	5
-9904	-3164	12308	-12	17	-25	-14656	-6296	-3904	10	1	20	-4032	-5544	15240	5	-16	19	-10128	3728	12968	17	-7	-16	-14904	2544	-5848	0	-4	-10	-4344	-2080	16216	23	-5	5	125	129	5
-9964	-3172	12196	-17	19	-22	-14600	-6224	-4248	6	-1	17	-3872	-5400	15448	7	-15	22	-9896	3800	12904	14	-3	-18	-14976	2632	-5936	-5	-9	-12	-4432	-1936	16240	18	-1	6	125	129	5
-9964	-3140	12200	-9	16	-21	-14704	-6256	-4048	8	-4	17	-3848	-5544	15344	6	-17	23	-9976	3856	12800	18	-4	-17	-15008	2480	-6040	0	-4	-7	-4328	-1856	16384	20	-2	2	125	129	5
-9924	-3156	12104	-6	19	-25	-14648	-6384	-4176	7	0	14	-3896	-5432	15528	2	-16	17	-9920	3752	12760	17	-9	-13	-15080	2416	-6120	0	-9	-5	-4496	-2056	16336	24	-1	1	125	129	5
-9920	-3160	12232	-13	21	-25	-14696	-6240	-3920	14	1	14	-3864	-5472	15264	4	-14	19	-9976	3944	12968	15	-1	-22	-15064	2592	-6160	-1	-4	-9	-4456	-2032	16376	20	-3	0	125	129	5
-9936	-3100	12336	-10	17	-26	-14824	-6296	-4272	11	0	19	-4064	-5552	15328	-1	-12	19	-10104	3712	12832	16	-1	-19	-14912	2664	-5984	-1	-2	-6	-4360	-2064	16400	20	1	3	125	129	5
-9972	-3204	12168	-14	15	-25	-14720	-6168	-4240	11	1	16	-3936	-5368	15312	2	-13	20	-9968	3848	12888	14	-3	-17	-14960	2672	-5880	-3	-3	-11	-4384	-1992	16216	12	-5	4	125	129	5
-9928	-3160	12168	-11	20	-25	-14904	-6296	-4080	8	-1	18	-3896	-5440	15248	2	-16	17	-9960	3896	12904	18	-7	-14	-14944	2584	-6064	-2	0	-6	-4432	-1968	16480	17	6	8	125	129	5
-9916	-3152	12184	-11	15	-25	-14648	-6256	-4176	8	3	16	-3960	-5496	15408	0	-12	20	-10000	3880	12800	11	-6	-18	-15072	2568	-5776	-2	-1	-12	-4440	-2112	16600	20	-5	6	125	129	5
-9888	-3208	12276	-12	18	-23	-14704	-6280	-4000	8	1	24	-3952	-5448	15608	4	-13	26	-10000	3928	12896	10	-2	-22	-15000	2728	-5952	2	0	-9	-4336	-1832	16432	24	4	5	125	129	5
-9928	-3184	12132	-13	17	-21	-14696	-6408	-4472	13	-3	21	-4048	-5448	15408	2	-18	22	-10000	3824	12880	10	3	-16	-14776	2536	-5832	-3	-1	-9	-4344	-2016	16584	19	1	10	125	129	5
-9956	-3184	12172	-16	18	-22	-14696	-6248	-4160	11	2	19	-3896	-5512	15528	6	-15	20	-10072	3768	12864	13	-1	-18	-15000	2592	-5816	-1	2	-14	-4328	-1936	16328	21	0	6	125	129	5
-9880	-3068	12120	-10	14	-28	-14672	-6256	-4184	10	2	24	-4064	-5432	15184	3	-13	16	-9976	3920	12872	14	-2	-22	-15040	2664	-6088	2	-2	-12	-4400	-1936	16440	19	-4	5	125	129	5
-9964	-3168	12256	-11	17	-19	-14720	-6256	-4232	7	1	21	-4056	-5448	15328	0	-14	19	-10024	3912	12632	11	-4	-20	-15016	2576	-6056	1	1	-12	-4352	-2024	16312	14	-3	5	125	129	5
-9924	-3192	12256	-9	21	-25	-14592	-6360	-3904	7	-1	18	-4000	-5440	15320	4	-15	21	-9984	3864	12848	15	-6	-15	-14952	2584	-5968	-3	-4	-9	-4360	-2120	16528	19	0	5	125	129	5
-9920	-3136	12096	-11	18	-21	-14744	-6280	-3912	7	-2	22	-3992	-5464	15408	3	-15	23	-9936	3664	12952	14	-5	-18	-14976	2440	-6200	0	-3	-11	-4320	-1976	16424	19	0	8	125	129	5
-9872	-3124	12180	-8	16	-25	-14608	-6304	-3936	10	2	17	-4048	-5520	15072	2	-12	19	-9896	3896	12944	18	-3	-16	-14936	2664	-5944	0	-3	-11	-4368	-2064	16320	20	4	6	125	129	5
-10020	-3152	12232	-12	18	-22	-14584	-6168	-4296	12	-1	22	-3960	-5328	15376	-1	-15	20	-9968	3776	13016	14	-3	-14	-15088	2648	-5872	0	-4	-16	-4360	-2240	16144	23	-1	6	125	129	5
-9872	-3192	12148	-8	18	-20	-14752	-6360	-4048	12	0	17	-4032	-5464	15248	5	-14	17	-10032	3832	12840	13	3	-22	-14888	2488	-5816	4	-1	-10	-4432	-2104	16256	19	-3	5	125	129	5
-9964	-3168	12164	-13	16	-26	-14672	-6272	-4304	9	-2	18	-3920	-5360	15240	3	-18	19	-10048	3824	12960	10	1	-22	-14880	2576	-5792	2	-2	-15	-4272	-2040	16312	21	-5	5	125	129	5
-9944	-3164	12060	-11	17	-21	-14664	-6328	-4200	7	2	19	-4056	-5448	15248	4	-9	19	-9944	3904	12800	10	-2	-17	-15048	2512	-5912	1	-4	-8	-4376	-2184	16296	19	-1	8	125	129	5
-9976	-3104	12188	-12	21	-24	-14696	-6280	-4240	9	2	16	-3872	-5400	15608	0	-13	23	-9952	3984	12864	11	-4	-19	-14952	2392	-5928	2	-5	-9	-4288	-2120	16240	17	-2	5	125	129	5
-9996	-3156	12120	-12	23	-24	-14720	-6256	-4272	12	0	11	-4056	-5448	15104	5	-14	24	-9728	3776	13280	12	-1	-18	-14864	2544	-6088	1	1	-7	-4336	-2152	16392	18	1	4	125	129	5
-9932	-3184	12092	-10	18	-23	-14616	-6304	-4112	9	4	21	-3952	-5408	15264	-3	-14	21	-10080	3752	13080	16	-6	-15	-14976	2736	-5960	1	-3	-10	-4232	-1984	16280	18	-2	0	125	129	5
-9968	-3140	12208	-8	16	-28	-14744	-6312	-4040	9	4	18	-3920	-5496	15232	-1	-16	22	-9936	3984	12800	11	1	-23	-14984	2688	-5808	-1	1	-9	-4408	-2112	16368	16	-1	6	125	129	5
-10000	-3176	12260	-11	19	-26	-14768	-6456	-4152	5	3	19	-3992	-5544	15464	-2	-14	23	-10040	3920	12872	12	-3	-24	-14936	2720	-5960	6	-1	-9	-4288	-2064	16256	18	1	3	125	129	5
-9964	-3176	12132	-13	17	-25	-14680	-6296	-4200	1	4	15	-3880	-5480	15432	-1	-13	23	-9976	3808	13056	10	2	-22	-14888	2704	-5856	6	1	-15	-4528	-2152	16480	18	0	3	125	129	5
-9904	-3092	12224	-17	20	-21	-14864	-6304	-3904	3	5	15	-3960	-5456	15352	-4	-12	23	-9952	3960	12936	16	0	-21	-14944	2664	-5752	6	0	-11	-4384	-2120	16336	14	3	-2	125	129	5
-9988	-3168	12124	-14	21	-22	-14736	-6256	-4104	3	4	17	-4000	-5600	15360	-5	-12	25	-9920	3880	12856	12	-1	-18	-14944	2696	-5880	7	3	-8	-4368	-2000	16296	15	-1	0	125	128	5
-10000	-3128	12204	-12	19	-24	-14800	-6296	-4152	5	8	15	-4096	-5488	15160	0	-16	22	-9944	3888	12816	14	4	-18	-15024	2728	-6088	-1	-2	-14	-4512	-2080	16160	21	-1	-1	125	129	5
-9932	-3164	12136	-11	16	-26	-14792	-6256	-4152	7	1	16	-4256	-5488	15208	-2	-16	21	-9896	3824	12984	12	2	-21	-14904	2632	-6096	3	-2	-17	-4456	-2128	16560	24	-1	2	125	129	5
-9904	-3168	12064	-14	14	-28	-14664	-6272	-4304	8	-3	14	-4128	-5392	15336	1	-17	21	-10024	3808	12952	14	-3	-19	-14960	2672	-5992	3	-8	-7	-4488	-1984	16184	26	-3	2	125	129	5
-9984	-3116	12272	-13	19	-24	-14808	-6280	-4320	12	-12	15	-4072	-5432	15360	1	-21	21	-9888	3776	13064	15	0	-21	-15064	2464	-6080	1	-12	-8	-4576	-1992	16296	27	-2	1	125	129	5
-9956	-3164	12200	-16	17	-31	-14704	-6096	-3960	10	-10	7	-4080	-5448	15544	-2	-24	24	-9984	3896	13128	13	-1	-19	-15008	2584	-5904	-3	-16	-11	-4504	-2200	16472	27	-4	6	125	129	5
-9956	-3124	12096	-13	16	-28	-14712	-6176	-3968	15	-14	5	-3984	-5584	15344	-1	-22	24	-10048	3728	13064	16	2	-18	-14912	2496	-5992	1	-9	-11	-4432	-2312	16568	24	0	0	125	129	5
-9872	-3144	12200	-16	18	-26	-14808	-6328	-4080	13	-14	4	-3872	-5600	15568	-2	-24	24	-10032	3856	13016	13	3	-19	-15064	2600	-5928	0	-13	-7	-4344	-2184	16552	26	-1	3	125	128	5
-9888	-3148	12172	-16	18	-27	-14792	-6424	-3944	15	-9	6	-3784	-5496	15512	2	-25	29	-10008	3752	12832	18	-4	-20	-15144	2624	-5680	1	-4	-7	-4400	-2136	15952	28	2	4	125	129	5
-9856	-3188	12232	-16	21	-28	-14720	-6432	-4128	11	-10	6	-3784	-5448	15360	-3	-19	27	-10016	3856	13112	13	-2	-21	-14960	2552	-6152	-1	-10	-7	-4328	-2104	16296	28	1	1	125	129	5
-9932	-3160	12196	-17	19	-27	-14808	-6368	-3920	11	-4	13	-3816	-5744	15400	0	-19	24	-10152	3856	12816	16	-5	-21	-15128	2592	-5712	-6	-5	-9	-4352	-1976	16416	31	3	1	125	128	5
-9836	-3148	12224	-15	22	-28	-14632	-6424	-4176	10	-4	11	-3864	-5568	15400	-3	-17	22	-10072	3864	12968	19	-4	-19	-15056	2672	-5832	-1	-5	-10	-4352	-2200	16456	28	-1	2	125	129	5
-9908	-3160	12180	-17	19	-27	-14752	-6296	-3912	7	-2	18	-3840	-5464	15328	1	-14	20	-9976	3808	12736	15	-4	-16	-15000	2536	-5840	1	-2	-13	-4256	-2024	16152	20	1	4	125	128	5
-9904	-3052	12228	-12	19	-20	-14608	-6352	-4080	7	1	17	-3864	-5632	15456	-3	-16	19	-9912	3848	12992	12	-1	-24	-15000	2552	-5856	3	-3	-10	-4272	-2032	16304	18	-4	6	125	129	5
-9908	-3112	12100	-13	18	-19	-14808	-6376	-4192	6	-2	18	-3936	-5552	15440	2	-14	16	-10040	3792	13024	16	0	-19	-14880	2576	-6056	5	-1	-8	-4320	-2136	16296	14	-5	4	125	128	5
-9976	-3200	12188	-11	17	-22	-14648	-6320	-4120	5	0	24	-4024	-5400	15200	5	-16	18	-10088	3776	13064	16	-6	-16	-14832	2632	-6104	-1	-2	-13	-4456	-2096	16368	20	-1	1	125	129	5
-9912	-3088	12212	-9	16	-27	-14776	-6320	-4056	12	2	22	-3960	-5568	15272	5	-14	20	-9856	3904	12872	19	-2	-14	-15064	2568	-6016	1	-2	-7	-4368	-2096	16120	25	-1	3	125	128	5
-9964	-3136	12144	-8	17	-22	-14672	-6216	-4096	9	4	21	-4064	-5480	14984	1	-14	16	-10016	3880	12936	17	-5	-17	-14984	2664	-6104	0	-2	-5	-4352	-2216	16280	25	3	1	125	128	5
-9968	-3160	12224	-13	16	-26	-14680	-6240	-4080	8	-2	20	-4048	-5472	15256	1	-14	17	-9984	3784	12880	14	-1	-18	-15016	2672	-5928	1	-7	-4	-4440	-1984	16296	25	3	-1	125	129	5
-9920	-3180	12188	-11	17	-26	-14736	-6216	-4416	11	0	17	-4056	-5520	15320	-3	-15	18	-9976	3704	12944	13	-10	-18	-14944	2600	-5960	-3	-10	-7	-4440	-1976	16080	23	0	-2	125	129	5
-9956	-3124	12156	-14	17	-21	-14760	-6232	-4112	12	-3	15	-4064	-5448	15568	1	-15	18	-9944	3792	12816	21	-1	-15	-14984	2696	-6008	-3	-5	-3	-4448	-2016	16512	22	-2	-2	125	129	5
-9916	-3132	12088	-9	17	-26	-14568	-6232	-3960	9	-6	13	-4048	-5352	15432	0	-17	17	-10000	3920	13008	18	-1	-16	-14936	2648	-5808	-5	-9	-6	-4408	-2000	16384	21	-4	1	125	129	5
-9888	-3168	12192	-12	18	-24	-14664	-6344	-4096	14	-4	14	-4072	-5528	15288	-2	-20	22	-10024	3808	12936	12	-6	-15	-14840	2568	-6096	-2	-6	-6	-4336	-2096	16400	22	0	0	125	129	5
-9888	-3128	12180	-16	20	-27	-14736	-6216	-4040	12	-4	13	-3920	-5536	15544	3	-18	20	-10008	3912	12880	16	-3	-22	-15000	2568	-6008	0	-3	-5	-4256	-2152	16568	24	0	5	125	129	5
-9912	-3144	12180	-13	15	-25	-14760	-6248	-4224	13	-3	8	-3952	-5448	15384	-1	-23	22	-10080	3920	12920	11	-6	-16	-15040	2576	-5808	1	-4	-10	-4216	-1944	16296	24	0	8	125	128	5
-9960	-3256	12292	-18	18	-23	-14696	-6240	-3960	10	-5	11	-3784	-5712	15256	-3	-21	24	-9992	3792	12784	17	-7	-17	-14936	2728	-6024	0	-9	-9	-4384	-2016	16200	26	-8	2	125	129	5
-9956	-3208	12276	-16	18	-24	-14608	-6328	-4200	4	-1	10	-4096	-5544	15464	0	-18	24	-10080	3864	13072	15	-1	-17	-15008	2536	-5816	2	2	-9	-4288	-2000	16168	22	0	5	125	129	5
-9940	-3124	12140	-14	17	-24	-14744	-6352	-4112	8	-1	11	-3928	-5424	15256	2	-19	23	-10040	3824	13016	15	-8	-20	-14880	2536	-5816	5	-7	-10	-4432	-1992	16224	22	-1	3	125	129	5
-9968	-3172	12104	-13	18	-22	-14624	-6352	-4096	6	1	10	-3920	-5600	15192	-3	-16	22	-9976	3848	13000	15	-4	-18	-14880	2544	-5928	1	-3	-9	-4336	-2016	16432	19	-1	5	125	129	5
-9936	-3180	12200	-11	16	-23	-14608	-6424	-4112	7	-2	11	-3968	-5520	15120	-3	-16	21	-9992	3832	13040	12	-1	-13	-14888	2512	-6000	-3	-3	-12	-4400	-2184	16136	23	-4	-1	125	129	5
-9876	-3168	12188	-14	20	-23	-14632	-6248	-4296	11	-4	14	-3880	-5560	15128	-3	-19	17	-10104	3848	13016	10	-5	-19	-14976	2576	-6040	-1	-1	-9	-4408	-1976	16392	26	-3	3	125	129	5
-9964	-3180	12152	-11	16	-25	-14632	-6424	-4144	9	-1	18	-4056	-5600	15160	-1	-15	20	-10088	3768	13000	11	0	-13	-15016	2624	-6040	-2	-9	-6	-4392	-2216	16584	22	-1	2	125	129	5
-9964	-3180	12160	-11	18	-23	-14648	-6336	-3848	11	-4	18	-3856	-5512	15264	5	-20	20	-9992	3744	13120	15	1	-13	-14888	2584	-5816	4	-5	-6	-4464	-2144	16192	26	-3	3	125	128	5
-9900	-3132	12140	-9	17	-26	-14648	-6152	-4024	8	-1	15	-3816	-5576	15328	3	-19	22	-9912	3824	13024	16	2	-13	-14976	2592	-5888	1	-10	-6	-4320	-2024	16224	28	-2	2	125	128	5
-9980	-3108	12164	-9	15	-22	-14624	-6384	-4224	12	-10	15	-3912	-5464	15608	1	-16	21	-10016	3848	12936	19	1	-16	-14912	2616	-5848	2	-4	-5	-4520	-2144	16480	25	-1	4	125	129	5
-9936	-3200	12172	-10	16	-25	-14680	-6320	-4240	13	-3	20	-3880	-5536	15176	2	-21	22	-10000	3872	12920	17	-3	-19	-14984	2584	-5968	-3	-5	-7	-4360	-2056	16392	24	2	3	125	129	5
-9924	-3188	12148	-13	19	-25	-14760	-6432	-3856	10	-4	19	-3968	-5568	15424	3	-15	23	-9976	3904	12864	18	-1	-17	-15080	2608	-6008	4	-9	-5	-4464	-2096	16456	26	-2	2	125	128	5
-9920	-3140	12164	-9	18	-28	-14728	-6384	-4080	10	-2	20	-3824	-5472	15136	1	-17	17	-10016	3856	12816	17	5	-17	-14952	2464	-6224	0	-5	-3	-4304	-2096	16248	21	0	2	125	129	5
-9948	-3224	12296	-11	16	-19	-14560	-6232	-4008	9	-3	19	-3936	-5568	15272	1	-17	21	-9960	3768	13128	17	0	-19	-14920	2552	-6056	2	-5	-5	-4280	-2120	16592	27	-2	4	125	129	5
-9948	-3188	12140	-11	20	-25	-14656	-6256	-3936	5	0	20	-3968	-5544	15352	6	-14	20	-10024	4040	13096	13	-7	-15	-15056	2640	-6120	6	-7	-3	-4376	-2072	16560	25	5	2	125	129	5
-9956	-3144	12064	-9	16	-22	-14680	-6328	-4184	12	0	20	-3976	-5480	15384	4	-14	18	-10032	3816	13088	16	0	-18	-15024	2584	-6120	3	-4	-6	-4360	-2016	16168	23	1	3	125	129	5
-9924	-3144	12116	-11	19	-24	-14584	-6432	-4104	10	-3	18	-4056	-5416	15424	0	-15	20	-9992	3752	12888	17	-4	-16	-15008	2576	-5968	4	-5	-7	-4368	-2048	16320	24	0	2	125	129	5
-9952	-3140	12096	-11	21	-22	-14632	-6336	-4392	7	-2	18	-3984	-5544	15144	-1	-20	18	-9944	3736	13024	13	-1	-18	-15008	2632	-5816	-1	-1	-6	-4448	-2040	16440	24	-2	4	125	129	5
-9936	-3132	12156	-14	18	-22	-14624	-6288	-4144	10	0	15	-3984	-5432	15192	-3	-18	22	-10008	3768	13032	14	-1	-20	-15064	2520	-5888	1	0	-8	-4464	-2128	16320	19	-3	1	125	129	5
-9948	-3216	12124	-11	22	-24	-14608	-6192	-4208	7	-2	14	-3944	-5432	15424	-5	-13	18	-9848	3880	12848	14	-1	-21	-14856	2536	-6064	1	-3	-9	-4128	-2112	16312	19	-1	0	125	129	5
-9908	-3196	12144	-15	20	-22	-14480	-6232	-4088	7	-6	14	-3920	-5648	15336	1	-13	19	-10080	3832	13120	12	-4	-18	-14992	2520	-5928	2	-7	-9	-4416	-2136	16264	26	-1	1	125	128	5
-9920	-3108	12156	-14	16	-24	-14680	-6280	-4216	10	-3	16	-3864	-5424	15232	0	-18	19	-9944	3864	13040	11	-8	-15	-14920	2680	-5848	0	-5	-11	-4456	-2048	16336	21	2	3	125	129	5
-9884	-3108	12208	-15	18	-26	-14688	-6296	-4248	8	-2	16	-3928	-5464	15184	0	-18	19	-10120	3896	12904	10	5	-20	-15056	2320	-5968	1	-6	-10	-4376	-2176	16080	23	-4	5	125	129	5
-9920	-3144	12224	-11	24	-25	-14616	-6344	-4384	10	-4	14	-3904	-5584	15256	7	-16	22	-9904	3864	12800	16	-11	-20	-14952	2768	-5816	-1	-6	-4	-4256	-2112	16824	23	1	4	125	129	5
-9836	-3124	12216	-12	17	-23	-14640	-6304	-4040	10	-4	12	-3848	-5552	15288	0	-17	21	-9904	3832	12944	14	-5	-20	-15040	2584	-5904	-3	-9	-7	-4392	-2176	16256	22	-1	3	125	129	5
-9932	-3176	12200	-12	20	-25	-14608	-6384	-4192	8	-5	12	-3920	-5560	15200	0	-18	26	-9992	3800	12936	14	3	-19	-15072	2592	-5952	-1	-3	-10	-4216	-2072	16336	25	5	5	125	129	5
-9932	-3124	12140	-13	18	-25	-14672	-6288	-4096	10	-3	13	-3832	-5416	15328	7	-18	19	-10008	3920	13080	12	-7	-21	-14840	2592	-5872	0	-8	-9	-4392	-1968	16240	25	-2	0	125	129	5
-9908	-3160	12176	-12	16	-27	-14728	-6384	-4128	11	-2	13	-3920	-5520	15360	-4	-16	19	-9992	3872	12904	12	1	-22	-14960	2704	-6112	3	-6	-10	-4472	-2128	16224	21	2	0	125	129	5
-9948	-3200	12160	-15	19	-27	-14672	-6296	-4096	8	-7	18	-3920	-5440	15272	4	-16	25	-10040	3864	12744	15	-4	-17	-15064	2560	-6032	2	-6	-6	-4304	-2224	16128	22	0	5	125	129	5
-9912	-3152	12328	-10	16	-26	-14720	-6304	-4280	11	-3	20	-3880	-5592	15416	5	-16	21	-10048	3816	12896	14	-4	-14	-14888	2648	-6120	1	-5	-7	-4336	-2072	16240	23	2	6	125	129	5
-9988	-3148	12184	-15	19	-27	-14608	-6288	-4232	9	3	15	-3952	-5544	15248	0	-17	22	-10056	3664	12808	14	-4	-14	-14944	2672	-5928	-1	-3	-12	-4376	-2064	16120	18	1	4	125	129	5
-9960	-3184	12116	-12	20	-20	-14776	-6280	-4176	10	-1	16	-3976	-5488	15352	3	-14	20	-9984	3904	13048	19	-3	-18	-15008	2632	-6000	-1	-1	-1	-4472	-2024	16072	24	-1	3	125	129	5
-10012	-3112	12088	-13	17	-26	-14776	-6256	-4008	10	-2	16	-3992	-5568	15008	5	-18	22	-9976	3832	12824	13	-3	-18	-14992	2648	-6176	4	-4	-7	-4392	-2128	16256	26	-5	5	125	128	5
-9984	-3176	12120	-13	18	-24	-14752	-6144	-4256	10	-3	16	-3872	-5560	15176	3	-16	16	-9912	3872	12896	17	-7	-16	-14936	2616	-5920	-4	-4	-3	-4376	-1984	16136	23	-1	1	125	129	5
-9924	-3180	12192	-7	18	-23	-14656	-6368	-4224	15	-6	20	-3816	-5512	15312	3	-19	19	-9808	3760	12760	15	5	-18	-15000	2576	-5888	4	-6	-6	-4504	-1968	16336	26	-1	1	125	129	5
-9900	-3128	12056	-12	13	-23	-14704	-6272	-4000	7	-2	20	-4016	-5520	15368	4	-15	23	-9952	3904	12976	14	1	-15	-14968	2480	-5832	2	-4	-6	-4456	-2056	16360	23	-5	1	125	129	5
-9952	-3168	12208	-17	19	-25	-14744	-6400	-4160	13	-4	11	-3984	-5440	15560	-1	-19	20	-9976	3856	13080	13	-7	-17	-14976	2592	-5904	2	-4	-11	-4328	-2096	16168	19	1	-1	125	129	5
-9976	-3168	12272	-15	18	-24	-14688	-6248	-4176	10	-4	18	-3952	-5512	15232	6	-18	20	-9976	3896	13080	16	-7	-18	-14888	2584	-6112	0	-5	-9	-4176	-2120	16368	17	1	1	125	129	5
-9908	-3148	12264	-7	20	-25	-14640	-6296	-4064	14	-2	18	-3872	-5504	15224	-2	-18	20	-9944	3752	12864	15	0	-17	-14960	2576	-5880	0	-3	-11	-4384	-2024	16376	25	1	5	125	129	5
-9980	-3168	12116	-12	19	-23	-14608	-6336	-4296	10	-2	14	-3904	-5552	15344	-5	-13	22	-9984	4056	12824	12	-2	-18	-14992	2560	-5856	0	-2	-7	-4464	-2040	16256	29	0	1	125	128	5
-9908	-3144	12100	-12	18	-23	-14840	-6456	-4048	13	3	22	-3864	-5528	15264	-1	-13	19	-9968	3824	12888	11	-5	-21	-14904	2680	-5840	1	-10	-8	-4432	-1904	16280	26	1	5	125	128	5
-9952	-3132	12208	-12	17	-24	-14696	-6392	-4064	13	-5	20	-4088	-5512	15272	6	-16	18	-9984	3824	12816	14	0	-19	-14888	2544	-5960	-3	-9	-9	-4360	-2056	16272	24	-1	6	125	129	5
-9916	-3184	12156	-12	15	-19	-14632	-6320	-4096	11	0	22	-3880	-5624	15200	7	-11	14	-9904	3872	12856	12	-6	-17	-15056	2568	-5712	1	-7	-10	-4352	-2080	16304	24	0	3	125	129	5
-9980	-3196	12152	-13	18	-21	-14744	-6328	-3776	10	-7	17	-3936	-5504	15128	6	-13	18	-9960	3904	12792	13	-9	-18	-15120	2552	-5880	1	-7	-10	-4336	-2080	16320	17	-5	5	125	129	5
-9964	-3156	12272	-12	17	-21	-14808	-6208	-3912	10	-5	22	-3952	-5488	15216	4	-18	17	-10056	3800	13000	11	-4	-16	-14984	2632	-5920	1	-5	-7	-4480	-2136	16304	22	-1	3	125	129	5
-9928	-3216	12188	-11	18	-24	-14624	-6280	-4128	7	-4	19	-3976	-5400	15200	0	-13	20	-9944	3896	12936	17	-2	-19	-15024	2512	-5832	1	-5	-7	-4432	-2064	16192	19	-4	5	125	129	5
-9948	-3120	12120	-14	16	-22	-14760	-6144	-4184	8	-1	16	-3832	-5512	15576	6	-20	25	-9952	3816	12976	14	-1	-16	-14992	2616	-6224	-2	-4	-4	-4288	-2056	16504	20	3	5	125	129	5
-9908	-3140	12248	-12	17	-23	-14680	-6216	-4104	8	-1	12	-3912	-5488	15200	3	-15	27	-9936	3744	12880	14	-6	-15	-15016	2616	-6192	3	0	-5	-4392	-2072	16472	29	2	2	125	129	5
-9916	-3148	12144	-14	22	-24	-14664	-6192	-4216	8	1	15	-3944	-5432	15400	-1	-17	26	-9944	3768	12976	15	1	-14	-15080	2568	-5704	-1	-3	-5	-4368	-1944	16368	29	-3	2	125	129	5
-9924	-3188	12268	-15	22	-26	-14696	-6112	-4288	10	1	11	-3880	-5456	15328	-2	-20	27	-9968	3752	12816	11	0	-14	-15008	2600	-6072	-3	-4	-5	-4432	-1904	16368	21	-1	3	125	129	5
-9932	-3144	12096	-15	18	-30	-14592	-6288	-4296	12	-2	12	-3944	-5472	15344	4	-20	22	-9968	3824	12808	11	-3	-17	-14984	2616	-5912	0	-3	1	-4320	-1984	16272	21	-1	-1	125	129	5
-9896	-3108	12284	-16	19	-23	-14712	-6112	-3920	8	-7	13	-4048	-5440	15224	0	-19	20	-9992	3880	12968	18	-5	-14	-14960	2640	-5984	-3	-7	-9	-4392	-1976	16456	18	-2	0	125	129	5
-9964	-3184	12188	-13	16	-22	-14616	-6248	-4176	10	-7	13	-3960	-5496	15264	2	-13	19	-9976	3936	12928	14	-4	-20	-14840	2608	-6144	1	-5	-10	-4440	-1888	16552	23	1	1	125	129	5
-9992	-3160	12100	-14	16	-25	-14856	-6280	-4336	10	-2	14	-3936	-5560	15232	-1	-15	23	-9952	3880	12904	12	-3	-17	-14968	2792	-5984	-1	-5	-14	-4440	-2032	16368	24	2	4	125	129	5
-9952	-3192	12268	-14	14	-25	-14688	-6280	-4096	13	-7	16	-3912	-5312	15360	3	-19	17	-10032	3904	12824	13	-5	-17	-14920	2576	-5872	3	-8	-16	-4480	-1992	16312	30	-2	5	125	129	5
-9908	-3148	12104	-11	16	-22	-14680	-6208	-4000	12	-7	18	-4032	-5416	15032	2	-18	19	-9976	3792	12744	15	-1	-19	-15056	2520	-5992	2	-4	-12	-4256	-2104	16304	24	0	7	125	129	5
-9928	-3144	12184	-16	16	-27	-14816	-6384	-4184	10	-5	17	-3968	-5424	15288	-2	-21	20	-9936	3936	13088	8	-10	-17	-15104	2640	-6040	-1	-6	-13	-4288	-2128	16152	26	0	8	125	129	5
-9944	-3160	12212	-12	17	-27	-14696	-6232	-4200	13	-9	11	-3904	-5512	15064	-5	-17	23	-9984	3800	13008	12	-3	-16	-14912	2520	-6000	3	-6	-9	-4288	-2032	16424	25	-1	5	125	129	5
-9920	-3120	12084	-14	21	-25	-14608	-6296	-3928	6	-3	10	-3992	-5456	15328	0	-19	22	-9952	3872	13040	12	2	-16	-14976	2560	-6000	7	-8	-6	-4352	-2152	16360	21	0	2	125	129	5
-9912	-3196	12124	-12	19	-24	-14664	-6296	-4056	10	-3	13	-3888	-5592	15264	-2	-19	22	-9872	3696	12696	17	-5	-13	-14960	2632	-5944	-3	-5	-11	-4248	-1952	16248	23	0	2	125	129	5
-9892	-3156	12212	-13	16	-25	-14696	-6408	-4032	11	-4	10	-3896	-5640	15296	-1	-16	22	-10096	3728	13152	15	-7	-17	-14928	2616	-5920	0	-5	-8	-4304	-2040	16208	22	-2	0	125	129	5
-9940	-3196	12172	-15	15	-27	-14704	-6424	-3872	12	-5	12	-3944	-5528	15480	-5	-11	23	-10088	3872	13008	15	-3	-17	-15024	2576	-5912	-2	-6	-9	-4272	-2040	16216	26	0	0	125	129	5
-9944	-3224	12288	-11	17	-26	-14712	-6304	-4152	15	-3	14	-3864	-5600	15400	-3	-18	23	-9976	3848	12936	11	-1	-16	-14992	2632	-5992	-3	-6	-12	-4440	-2144	16208	22	-1	4	125	128	5
-9932	-3184	12116	-12	16	-24	-14656	-6488	-4320	10	0	16	-3864	-5576	15048	2	-14	18	-9968	3800	12872	14	-9	-16	-14928	2512	-6152	0	-6	-4	-4360	-2032	16144	25	-1	2	125	129	5
-9908	-3208	12204	-13	15	-25	-14800	-6416	-4112	8	0	17	-3800	-5456	15384	3	-16	17	-9976	3752	13032	19	-11	-16	-14928	2688	-6120	1	-5	-9	-4360	-2088	16424	19	4	5	125	129	5
-9964	-3112	12216	-10	14	-25	-14704	-6512	-4040	11	-2	20	-3880	-5448	15176	2	-18	21	-10080	3936	12840	14	4	-18	-14832	2600	-5880	3	-2	-9	-4448	-2160	16272	24	0	4	125	129	5
-9932	-3184	12228	-11	19	-22	-14688	-6368	-4112	11	4	18	-3808	-5544	15256	2	-11	22	-10056	3888	12864	11	-6	-17	-14856	2680	-5864	-1	-7	-9	-4472	-2088	16296	21	-4	1	125	129	5
-9924	-3224	12144	-7	17	-20	-14736	-6272	-4016	13	-4	17	-4120	-5472	15248	5	-14	22	-9984	3832	12864	13	0	-20	-14872	2608	-5992	3	-9	-10	-4304	-2088	16184	21	-2	1	125	129	5
-9868	-3152	12072	-11	18	-27	-14680	-6112	-4064	13	-3	17	-3968	-5424	15384	1	-17	17	-9968	3792	13024	15	-3	-18	-14952	2592	-5856	2	-4	-3	-4272	-2048	16120	22	-2	1	125	129	5
-9912	-3160	12108	-11	17	-26	-14640	-6216	-4056	11	-4	15	-4072	-5504	15368	-3	-19	21	-10008	3824	12952	17	-6	-19	-14968	2608	-6064	0	-3	-5	-4480	-2120	16304	23	0	-1	125	129	5
-9916	-3140	12100	-12	18	-24	-14520	-6240	-4136	10	-1	11	-3960	-5520	15096	-3	-15	21	-9880	3864	12968	14	-9	-16	-15008	2624	-6064	-1	-6	-6	-4400	-1960	16320	23	2	-1	125	129	5
-9920	-3176	12196	-14	19	-23	-14592	-6320	-4128	12	-3	15	-3920	-5520	15376	0	-13	23	-9824	3696	12936	15	-1	-14	-14960	2664	-6264	-1	-5	-5	-4440	-1888	16256	26	1	-1	125	129	5
-9924	-3108	12188	-10	18	-28	-14736	-6360	-4008	13	0	15	-4008	-5448	15272	-2	-17	19	-10088	3792	12880	17	-1	-21	-14968	2504	-6056	-1	-3	-4	-4376	-2064	16320	21	-3	1	125	129	5
-9896	-3124	12204	-14	19	-29	-14672	-6400	-4048	11	-2	14	-3952	-5432	15432	-3	-18	22	-10048	3880	12776	12	-3	-14	-14872	2624	-5864	1	-9	-6	-4328	-2048	16392	22	-1	2	125	129	5
-9940	-3168	12248	-9	17	-23	-14696	-6304	-4200	13	1	17	-3968	-5512	15368	0	-19	17	-10008	3808	12904	15	2	-17	-14992	2600	-5944	-1	-8	-10	-4464	-2080	16080	22	2	5	125	129	5
-9996	-3104	12128	-9	17	-22	-14696	-6424	-4224	9	-1	18	-3976	-5560	15368	2	-17	17	-9984	3808	12896	14	-3	-19	-14952	2592	-5856	2	-7	-8	-4512	-2024	16272	23	-2	3	125	128	5
-9992	-3140	12136	-11	17	-26	-14728	-6216	-4120	11	-2	16	-3936	-5576	15200	-1	-20	21	-10088	3896	12808	12	-1	-18	-14968	2592	-6120	0	-7	-16	-4280	-2048	16360	19	-3	5	125	128	5
-9944	-3072	12192	-11	19	-25	-14680	-6360	-3768	9	-8	13	-3920	-5536	15208	4	-20	23	-10008	3896	12832	16	-3	-18	-14976	2664	-6080	-1	-3	-10	-4368	-1984	16448	25	-5	6	125	128	5
-9952	-3100	12252	-17	13	-22	-14656	-6320	-4192	12	-5	13	-3952	-5456	15416	4	-23	23	-9936	3768	12872	12	1	-17	-15000	2544	-6032	1	-5	-11	-4248	-2184	16552	24	-4	6	125	128	5
-9900	-3060	12136	-11	19	-25	-14808	-6296	-3968	11	-3	12	-3960	-5528	15424	2	-18	27	-10096	3800	12584	13	1	-18	-15096	2592	-5912	4	-4	-7	-4392	-2104	16248	28	0	5	125	128	5
-9920	-3164	12132	-13	18	-23	-14792	-6360	-4056	9	-1	11	-3968	-5536	15272	6	-20	29	-9912	3904	12888	17	-11	-18	-14960	2520	-5960	-1	-4	-7	-4408	-2056	16016	23	-3	5	125	129	5
-9964	-3164	12080	-16	17	-21	-14656	-6480	-4120	13	0	12	-3888	-5632	15520	7	-19	23	-9864	3920	13048	17	-4	-15	-15072	2688	-5696	3	-3	-6	-4360	-1952	16336	23	-1	2	125	129	5
-9892	-3116	12260	-15	18	-27	-14648	-6304	-4208	11	-2	15	-3992	-5512	15288	-1	-20	24	-9984	3728	13000	15	-4	-15	-15040	2648	-6040	-1	0	-3	-4408	-2024	16424	21	-1	4	125	129	5
-9984	-3128	12084	-12	17	-25	-14680	-6408	-4064	9	-9	17	-3888	-5528	15176	2	-17	24	-10048	3880	12984	18	-3	-16	-14912	2432	-5808	2	-6	-3	-4320	-2088	16080	25	-3	1	125	129	5
-9948	-3148	12252	-13	18	-23	-14696	-6288	-4088	9	-5	18	-3824	-5568	15384	4	-15	19	-9968	3888	12800	14	3	-17	-15008	2544	-5808	-3	-2	-7	-4488	-2016	16360	27	0	3	125	128	5
-9860	-3128	12164	-13	17	-21	-14776	-6296	-4160	9	0	20	-3872	-5528	15272	1	-16	22	-10072	3776	13096	14	-1	-17	-14936	2576	-6096	1	-5	-7	-4336	-2032	16280	27	0	-1	125	129	5
-9924	-3180	12276	-11	17	-22	-14736	-6328	-4136	9	-2	20	-4024	-5472	15264	4	-14	20	-9888	3752	13184	11	-3	-17	-15104	2728	-5888	3	-9	-6	-4368	-2128	16352	21	-7	2	125	129	5
-9924	-3164	12176	-13	15	-23	-14712	-6184	-3792	8	-1	19	-3888	-5448	15232	6	-12	17	-10048	3848	12856	13	-3	-18	-15088	2608	-6000	2	-4	-2	-4264	-2040	16256	22	-5	2	125	129	5
-9908	-3120	12192	-13	17	-23	-14600	-6328	-4088	7	1	16	-3936	-5544	15424	4	-15	19	-10008	3832	12872	12	-7	-14	-14864	2688	-5888	2	-8	-9	-4304	-2016	16256	22	-3	1	125	129	5
-9952	-3160	12216	-12	17	-23	-14704	-6424	-4184	9	1	14	-3952	-5512	15232	-1	-16	20	-10000	3800	12736	14	1	-11	-15056	2496	-6176	-4	-5	-9	-4320	-2072	16240	20	3	1	125	129	5
-9876	-3124	12152	-12	17	-25	-14792	-6312	-4488	13	-2	19	-3872	-5496	15488	0	-17	20	-9896	3800	13096	14	6	-15	-15088	2616	-5952	-1	-2	-8	-4328	-2040	16384	23	0	1	125	129	5
-9996	-3112	12124	-10	19	-25	-14648	-6320	-4336	16	-1	17	-3912	-5368	15496	0	-16	21	-9976	3800	12936	17	1	-16	-14960	2616	-5840	0	-5	-6	-4432	-1976	16256	25	-2	2	125	129	5
-9948	-3084	12172	-12	18	-25	-14624	-6400	-4064	12	0	12	-3968	-5440	15200	0	-18	23	-9952	3968	12872	11	2	-13	-15056	2632	-5792	1	-7	-8	-4368	-2088	16440	26	-3	6	125	129	5
-9876	-3152	12152	-15	20	-27	-14728	-6160	-4008	8	-2	15	-3896	-5504	15536	3	-19	23	-10032	3808	12736	13	1	-20	-14848	2728	-6152	-1	-5	-10	-4392	-2104	16568	28	-6	5	125	129	5
-9908	-3084	12200	-15	15	-21	-14512	-6368	-4336	8	-6	11	-3952	-5608	15368	1	-19	20	-10000	3736	12904	10	0	-22	-15016	2648	-5800	5	-8	-7	-4408	-2016	16360	21	0	5	125	129	5
-9924	-3144	12156	-16	19	-28	-14712	-6368	-4304	11	-4	10	-3920	-5568	15400	3	-18	26	-10168	3856	12984	16	-1	-20	-15016	2624	-5856	0	-1	-12	-4344	-2024	16432	24	1	8	125	129	5
-9908	-3164	12176	-15	18	-29	-14624	-6320	-3936	8	0	11	-3984	-5592	15328	-3	-20	21	-10088	3776	12832	14	-1	-21	-15008	2520	-5880	1	-9	-13	-4496	-2096	16304	24	0	4	125	129	5
-9928	-3092	12184	-19	19	-26	-14680	-6216	-4024	12	-5	13	-3936	-5464	15400	2	-18	25	-9976	3864	12936	13	-2	-21	-14880	2616	-5952	-2	-4	-9	-4384	-2072	16304	21	-4	5	125	129	5
-9964	-3120	12244	-12	16	-25	-14752	-6304	-4016	10	-3	16	-3864	-5584	15256	2	-18	21	-9984	3808	12776	15	-2	-20	-14856	2560	-6016	-1	-6	-11	-4344	-2064	16248	21	1	6	125	129	5
-9960	-3116	12132	-11	14	-26	-14568	-6328	-3904	14	-5	16	-3944	-5592	15400	6	-17	19	-10056	3864	13064	14	-5	-21	-14936	2520	-5800	2	-9	-8	-4288	-2056	16264	22	-4	5	125	129	5
-9956	-3156	12112	-11	21	-27	-14824	-6424	-4088	9	-5	16	-3848	-5560	15448	0	-17	21	-10168	3760	12824	15	-1	-18	-15040	2552	-6072	-1	-7	-8	-4400	-2064	16328	23	-4	2	125	129	5
-10012	-3116	12248	-13	21	-23	-14664	-6240	-4080	11	-3	15	-3936	-5496	15104	2	-17	18	-10024	3904	12896	12	2	-17	-14944	2640	-5984	-1	-5	-6	-4320	-2192	16256	19	-2	1	125	129	5
-9908	-3164	12156	-11	18	-26	-14592	-6248	-4040	10	-3	17	-3816	-5544	15048	3	-14	17	-9880	3768	12920	17	-1	-19	-14952	2680	-5936	-2	-5	-13	-4368	-2080	16264	22	-6	0	125	129	5
-9952	-3124	12148	-14	21	-21	-14744	-6256	-3968	9	-5	16	-3808	-5464	15152	1	-17	20	-9912	3736	12872	15	-4	-17	-15016	2488	-6080	-3	-3	-4	-4304	-2032	16200	25	-5	1	125	129	5
-9920	-3088	12252	-16	16	-24	-14608	-6336	-4064	7	-4	20	-3896	-5584	15512	2	-17	24	-9888	3768	13112	9	1	-14	-15088	2640	-5760	-3	-4	-8	-4400	-1928	16552	27	-7	5	125	129	5
-9904	-3120	12136	-13	16	-23	-14704	-6368	-4288	8	1	17	-3864	-5480	15328	2	-17	22	-9992	3872	12832	15	-3	-18	-15088	2640	-5864	2	-2	-10	-4336	-2080	16352	22	4	7	125	129	5
-9920	-3164	12184	-14	18	-20	-14736	-6320	-4192	9	-3	20	-3920	-5632	15216	5	-13	25	-9952	3808	12936	12	1	-17	-14960	2664	-5872	6	4	-7	-4392	-1920	16240	24	2	2	125	129	5
-9932	-3180	12176	-9	19	-21	-14720	-6320	-4144	4	2	20	-3912	-5528	15424	0	-13	22	-9976	3720	13080	16	6	-23	-15104	2488	-5832	6	4	-5	-4384	-1976	16264	23	-4	4	125	129	5
-9936	-3092	12216	-14	16	-23	-14736	-6232	-4080	6	2	16	-3960	-5560	15360	4	-14	23	-10048	3856	13192	13	0	-20	-15096	2688	-5992	5	3	-6	-4368	-1872	16552	21	-1	6	124	129	5
-9828	-3156	12148	-12	20	-21	-14720	-6392	-4224	5	0	20	-4064	-5504	15360	-1	-14	14	-9896	3808	13024	15	-5	-16	-14984	2536	-6232	1	-1	-12	-4528	-2016	16296	22	-5	3	125	129	5
-9932	-3116	12104	-16	18	-24	-14656	-6336	-3984	8	1	23	-3984	-5568	15432	-3	-16	17	-9984	3864	12888	13	-1	-22	-14960	2616	-5960	1	-6	-6	-4656	-2056	16400	23	3	2	125	129	5
-9928	-3108	12164	-15	17	-20	-14696	-6376	-4112	10	0	20	-4088	-5408	15344	0	-13	17	-9992	3848	13032	15	-1	-16	-14936	2576	-5768	1	-6	-3	-4416	-1960	16264	23	-2	2	125	129	5
-9968	-3160	12156	-12	17	-24	-14728	-6328	-4080	17	-3	19	-4080	-5536	15224	5	-17	16	-9880	3752	12968	13	1	-18	-15064	2512	-5928	-2	-12	-7	-4432	-2120	16296	22	1	2	125	129	5
-9968	-3184	12236	-11	17	-27	-14776	-6112	-4160	10	-13	18	-4120	-5416	15072	6	-21	16	-10024	3776	12808	13	-5	-16	-14864	2344	-5784	-3	-14	-5	-4408	-2072	16192	28	-4	5	125	128	5
-9972	-3188	12236	-14	15	-22	-14640	-6168	-4128	16	-12	13	-3848	-5504	15448	4	-17	22	-9984	3944	12944	18	-2	-15	-14864	2648	-6112	0	-16	-5	-4328	-2112	16384	26	-3	1	125	129	5
-9932	-3144	12192	-11	16	-25	-14640	-6312	-4064	18	-4	10	-3936	-5600	15472	1	-18	20	-9944	3792	12744	17	-8	-16	-15040	2664	-5864	-5	-13	-2	-4280	-2144	16448	27	-2	0	125	128	5
-9892	-3152	12252	-17	18	-26	-14600	-6336	-3928	16	-7	9	-3992	-5480	15448	2	-18	20	-9912	3792	12824	15	-5	-16	-14976	2600	-5928	-4	-10	-6	-4240	-2048	16256	25	-1	1	125	128	5
-9920	-3176	12204	-14	20	-25	-14704	-6568	-4256	15	-12	9	-3816	-5448	15088	-2	-22	17	-9824	3832	12880	17	-7	-17	-15016	2544	-5728	1	-12	-6	-4264	-1872	16456	26	1	3	125	129	5
-9924	-3168	12248	-17	18	-22	-14632	-6320	-4136	15	-2	16	-3792	-5552	15400	-3	-19	21	-9968	3848	12992	12	-2	-16	-14952	2584	-5776	-7	-5	-8	-4112	-1808	16544	24	-5	2	125	128	5
-9900	-3132	12256	-12	17	-24	-14656	-6248	-3928	7	-7	13	-3760	-5576	15352	-4	-19	23	-10016	3936	12904	13	-5	-17	-15048	2624	-5912	-1	-2	-8	-4136	-1880	16224	20	2	6	125	128	5
-9948	-3168	12108	-16	16	-25	-14776	-6296	-4192	2	-3	16	-3768	-5760	15424	0	-14	23	-10024	3856	13176	13	0	-22	-14984	2640	-5784	3	5	-15	-4272	-1976	16352	16	-1	8	125	128	5
-9944	-3188	12236	-10	20	-23	-14648	-6304	-4320	5	0	17	-3816	-5520	15424	7	-13	29	-10048	3720	12728	14	-6	-20	-15024	2712	-5912	4	7	-10	-4480	-1936	16280	15	0	10	125	128	5
-9952	-3152	12128	-11	17	-22	-14912	-6184	-3992	5	5	14	-3928	-5504	15296	9	-12	23	-9888	3736	12824	10	-1	-21	-15056	2640	-5840	3	8	-17	-4288	-2224	16256	15	0	7	125	129	5
-9884	-3124	12224	-5	22	-23	-14640	-6432	-4144	4	5	21	-4016	-5640	15400	9	-14	25	-9960	3960	12944	12	1	-16	-14968	2416	-5992	3	4	-20	-4624	-2056	16240	16	-3	5	125	128	5
-9924	-3188	12148	-9	20	-22	-14648	-6344	-4440	7	3	23	-4048	-5624	15160	4	-11	19	-9936	3712	12984	12	-6	-18	-14888	2584	-6136	8	4	-8	-4480	-2184	16120	18	3	6	125	129	5
-9928	-3104	12208	-13	20	-24	-14680	-6384	-4248	9	1	24	-4112	-5584	15232	2	-14	15	-9912	3888	12896	15	2	-18	-15016	2488	-6096	-1	1	-7	-4584	-2136	16128	23	3	-1	125	128	5
-9912	-3152	12160	-10	18	-23	-14600	-6240	-4368	10	-2	21	-4208	-5600	15072	2	-15	18	-10048	3856	12808	13	-2	-16	-14968	2488	-5928	-4	-7	-4	-4624	-2144	16248	28	-1	1	125	128	5
-9952	-3184	12180	-14	20	-24	-14656	-6280	-4304	13	-10	19	-4048	-5456	15432	7	-17	21	-10104	3784	13000	13	-8	-14	-14968	2424	-6304	-1	-18	2	-4512	-2288	16256	24	0	0	125	128	5
-9920	-3160	12168	-11	15	-27	-14768	-6272	-4192	14	-6	12	-3952	-5512	15296	5	-19	21	-9992	3712	12872	16	-5	-17	-14928	2680	-5688	-2	-17	2	-4408	-2080	16400	30	-2	3	125	128	5
-9936	-3072	12080	-14	16	-23	-14824	-6352	-4136	21	-11	11	-3952	-5496	15520	9	-22	25	-9920	3848	13016	21	-7	-15	-14800	2632	-6104	-6	-15	4	-4448	-2000	16248	29	-4	2	125	128	5
-9892	-3160	12176	-16	12	-23	-14848	-6200	-4000	18	-13	10	-3824	-5400	15416	8	-22	24	-9952	3824	12880	15	-5	-15	-15000	2744	-6328	-9	-15	0	-4336	-1936	16328	35	1	2	125	128	5
-9968	-3192	12120	-18	15	-29	-14632	-6384	-4040	13	-14	11	-3856	-5520	15080	2	-22	25	-9936	3784	12952	14	2	-12	-14968	2504	-5872	-9	-13	-2	-4384	-1920	16328	38	-3	-2	125	128	5
-9948	-3196	12168	-17	16	-23	-14808	-6240	-4192	18	-10	11	-3712	-5432	15408	2	-20	22	-9920	3872	12896	19	2	-14	-15064	2616	-5840	-1	-10	-2	-4200	-1856	16424	32	4	-3	125	128	5
-9956	-3132	12200	-9	16	-25	-14576	-6368	-4080	8	1	9	-3864	-5528	15384	1	-20	21	-10048	3928	13120	16	-6	-18	-14800	2568	-6000	-3	-9	-3	-4288	-1816	16160	28	-2	2	125	128	5
-9924	-3140	12296	-16	19	-27	-14576	-6288	-4200	10	-3	11	-3736	-5600	15272	0	-18	18	-10104	3736	12728	13	-5	-16	-15016	2672	-5968	-1	-7	-5	-4336	-1888	16632	23	-1	1	125	128	5
-9892	-3144	12236	-10	20	-20	-14648	-6320	-4008	7	0	17	-3768	-5480	15304	-1	-16	21	-9952	3800	12872	11	-2	-18	-14920	2712	-5864	4	-2	-9	-4360	-1896	16552	16	-3	6	126	128	5
-9928	-3224	12092	-11	15	-22	-14648	-6304	-4176	6	-1	16	-3784	-5624	15336	2	-15	19	-9984	3760	12992	14	-6	-20	-14968	2680	-6056	4	0	-13	-4288	-2144	16360	18	0	7	125	128	5
-9888	-3144	12228	-12	18	-26	-14728	-6320	-4208	7	4	14	-3808	-5568	15344	0	-14	22	-9952	3784	13024	12	-3	-19	-15024	2616	-5728	5	1	-14	-4144	-2112	16216	14	5	6	126	128	5
-9912	-3164	12308	-11	16	-23	-14704	-6128	-3984	6	2	16	-3912	-5520	15344	2	-11	22	-9984	3848	13088	12	-3	-22	-15168	2584	-6000	6	0	-15	-4432	-2112	16360	17	-1	4	126	128	5
-9948	-3164	12136	-13	18	-23	-14776	-6360	-3992	6	7	15	-3952	-5592	15088	-3	-13	21	-9984	3784	12864	11	-6	-22	-14968	2480	-5832	9	4	-16	-4344	-2088	16360	18	0	10	126	128	5
-9976	-3140	12136	-14	20	-26	-14680	-6552	-4520	6	1	13	-3912	-5528	15320	-3	-14	24	-10000	3808	12952	10	-5	-17	-14928	2632	-6176	6	4	-14	-4344	-2200	16400	18	3	2	126	128	5
-9940	-3168	12080	-15	22	-24	-14760	-6232	-4104	8	-3	15	-3952	-5448	15368	-1	-16	23	-9768	3904	13072	11	-3	-14	-14904	2552	-6152	2	-2	-12	-4576	-2024	16040	21	3	3	126	128	5
-9984	-3172	12212	-19	22	-23	-14792	-6304	-4272	9	0	16	-3992	-5512	15152	1	-12	22	-9992	3824	13016	14	-2	-16	-14960	2456	-6032	2	-3	-13	-4440	-2152	16376	21	-2	5	126	128	5
-9876	-3204	12188	-14	18	-22	-14640	-6376	-3776	11	3	19	-3944	-5624	15032	3	-15	24	-10008	3832	12744	18	-7	-12	-14960	2608	-6000	-3	-2	-8	-4464	-2152	16192	24	-3	1	126	128	5
-9968	-3172	12168	-13	16	-25	-14424	-6376	-4136	6	-1	12	-3984	-5544	15352	3	-18	22	-10048	3848	13064	13	-8	-15	-14920	2480	-6056	2	-3	-6	-4520	-2208	16600	26	1	2	126	128	5
-9948	-3156	12212	-13	16	-24	-14680	-6440	-4184	11	-6	17	-4000	-5632	15160	7	-20	23	-9952	3872	13064	14	1	-15	-15072	2592	-5920	-1	-13	-6	-4344	-2144	16144	27	0	4	125	127	5
-10004	-3192	12160	-13	18	-24	-14712	-6400	-4240	17	-4	16	-4064	-5688	15224	7	-18	22	-9960	3792	12888	13	0	-17	-14904	2600	-6152	-2	-11	-8	-4288	-1928	16272	26	-3	3	126	127	5
-9924	-3152	12232	-10	17	-23	-14632	-6368	-4176	10	-5	19	-3984	-5480	15304	4	-18	24	-9904	3856	12848	14	-4	-16	-15048	2672	-5888	-6	-6	-5	-4328	-2136	16272	29	-3	7	126	127	5
-9880	-3140	12060	-12	17	-24	-14632	-6256	-3848	13	-4	20	-3832	-5504	15184	4	-18	17	-9968	3872	12840	16	1	-20	-14808	2648	-6016	3	-8	-8	-4400	-1896	16400	33	-1	4	126	127	5
-9888	-3208	12124	-14	14	-25	-14688	-6136	-3832	10	-5	19	-4024	-5576	15208	6	-16	20	-9960	3824	13056	13	-2	-15	-15072	2416	-5888	-1	-10	-6	-4304	-1992	16048	26	0	3	126	127	5
-9876	-3196	12124	-14	19	-21	-14696	-6256	-3928	10	-6	17	-3896	-5592	15320	5	-20	22	-9968	3800	12848	14	-6	-14	-14920	2536	-5960	-1	-4	-5	-4376	-1888	16352	20	-2	3	126	127	5
-9988	-3172	12184	-11	16	-25	-14656	-6224	-4032	12	-5	17	-3968	-5464	15384	2	-19	22	-10040	3824	12944	11	1	-19	-15040	2616	-5872	0	-7	-5	-4320	-1912	16432	26	-1	6	126	127	5
-9868	-3172	12228	-13	16	-24	-14720	-6280	-4136	9	4	16	-3848	-5520	15248	5	-14	22	-9936	3784	12760	15	2	-19	-14984	2672	-5864	-1	-2	-8	-4312	-1944	16280	23	1	4	126	127	5
-9892	-3164	12144	-8	17	-25	-14656	-6216	-4056	10	-1	16	-3912	-5432	15312	3	-15	22	-10104	3784	13064	11	-10	-19	-15048	2648	-6104	0	0	-8	-4376	-2048	16528	21	-2	7	126	127	5
-9964	-3180	12136	-15	17	-19	-14728	-6248	-4152	7	3	13	-3960	-5448	15568	1	-15	21	-9992	3904	12792	11	0	-18	-15040	2632	-5944	1	-1	-11	-4376	-2016	16096	18	-2	5	126	128	5
-9960	-3120	12256	-9	18	-24	-14696	-6304	-3856	5	2	14	-3784	-5568	15240	-3	-12	19	-10120	3928	12856	12	-3	-17	-14976	2560	-5816	5	-2	-13	-4304	-2000	16352	19	0	1	126	127	5
-9916	-3156	12192	-15	23	-25	-14560	-6440	-4200	7	4	15	-3872	-5608	15424	-8	-14	22	-9784	3880	12832	10	-7	-19	-14984	2688	-5768	4	-4	-13	-4376	-1936	16336	20	1	3	126	127	5
-9892	-3172	12176	-12	20	-23	-14800	-6488	-3984	6	-1	20	-4032	-5528	15368	-2	-13	21	-10096	3920	12968	11	1	-19	-15088	2592	-5960	0	1	-13	-4400	-2080	16312	20	1	5	126	127	5
-9948	-3192	12152	-12	19	-27	-14616	-6184	-3984	8	2	10	-3872	-5480	15120	-2	-11	21	-10160	3888	12816	10	-2	-19	-14888	2552	-5984	-1	0	-9	-4240	-2064	16224	21	-1	7	126	128	5
-9976	-3136	12156	-12	17	-25	-14640	-6216	-4088	8	-4	15	-3968	-5592	15424	-2	-15	24	-9976	3776	12976	13	-2	-19	-14976	2632	-5952	1	0	-15	-4280	-2048	16208	19	-3	4	126	127	5
-9912	-3148	12260	-15	16	-25	-14632	-6280	-4080	7	0	18	-3992	-5576	15368	2	-16	16	-9912	3808	13160	12	-4	-20	-14920	2624	-6168	-1	-3	-9	-4504	-1992	16560	18	-5	6	126	127	5
-9972	-3108	12140	-13	19	-23	-14608	-6272	-4160	7	-3	16	-3896	-5472	15480	3	-17	23	-9936	3720	12904	14	-7	-18	-14912	2712	-5792	1	-7	-10	-4504	-2112	16360	19	-3	5	126	127	5
-9912	-3140	12256	-17	17	-25	-14688	-6240	-4032	8	-1	17	-3912	-5552	15368	3	-15	21	-10024	3848	13056	13	-4	-15	-15024	2456	-6152	2	-5	-7	-4368	-2152	16160	22	-1	-1	126	127	5
-9940	-3204	12204	-14	18	-25	-14688	-6240	-4136	9	-4	11	-3896	-5544	15256	1	-20	23	-10000	3816	13152	14	-1	-14	-15000	2576	-5952	0	-9	-8	-4320	-2160	16224	22	-1	-1	126	127	5
-9952	-3180	12148	-11	16	-24	-14624	-6400	-4400	11	-1	14	-3920	-5656	15224	1	-16	25	-9952	3824	13328	18	-1	-14	-14960	2624	-5944	-5	-4	-7	-4392	-1920	16384	29	-3	4	126	127	5
-9976	-3144	12236	-15	22	-22	-14648	-6256	-4216	8	-4	16	-3928	-5632	15176	3	-16	21	-9992	3848	12952	15	-3	-10	-15000	2696	-6096	0	-5	-2	-4232	-2032	16440	27	-3	0	126	127	5
-9936	-3228	12104	-13	15	-25	-14696	-6328	-4336	13	-6	17	-3880	-5568	15424	6	-15	21	-9976	3880	13032	16	1	-20	-15056	2648	-6056	0	-5	-9	-4304	-2040	16352	35	-2	6	126	127	5
-9928	-3116	12132	-8	19	-26	-14688	-6336	-4112	13	-6	17	-4000	-5392	15472	3	-18	23	-9960	3736	13032	15	-2	-17	-14952	2576	-5952	1	-5	-7	-4352	-2088	16080	28	-2	4	126	127	5
-9940	-3168	12156	-9	21	-24	-14696	-6272	-4064	7	-5	18	-3808	-5408	15288	6	-16	21	-9944	3728	13000	16	-5	-17	-15000	2680	-5952	2	-5	-12	-4384	-2000	16416	24	-1	6	126	127	5
-9924	-3164	12172	-8	13	-20	-14656	-6312	-4224	10	-8	18	-3784	-5600	15384	3	-16	19	-9984	3768	13008	14	0	-16	-15000	2520	-5944	9	-10	-3	-4360	-1832	16280	25	-2	4	126	127	5
-9892	-3200	12144	-11	16	-22	-14680	-6312	-4008	9	-1	18	-3960	-5512	15224	4	-14	17	-10080	3832	13064	12	2	-15	-14960	2672	-6184	0	-1	-8	-4272	-2016	16400	21	-1	7	126	127	5
-9888	-3156	12136	-10	14	-24	-14576	-6408	-3984	8	-2	20	-4032	-5624	15312	4	-17	20	-9824	4072	12800	15	-5	-17	-14856	2688	-5904	-2	-4	-8	-4320	-2136	16248	21	-4	4	126	127	5
-9936	-3156	12156	-12	21	-26	-14704	-6352	-4088	11	-6	19	-3960	-5376	15360	3	-15	20	-9904	3712	12888	10	-3	-18	-14992	2680	-6088	1	-9	-4	-4256	-1976	16472	21	-1	3	126	127	5
-10012	-3156	12108	-9	18	-18	-14792	-6160	-4000	11	-3	18	-4056	-5560	15304	5	-16	23	-10000	3824	12728	12	-4	-19	-15040	2632	-5832	2	-3	-5	-4360	-2112	16336	24	-2	6	126	127	5
-9908	-3140	12148	-13	18	-31	-14688	-6216	-4032	9	-3	14	-4000	-5464	15400	3	-17	23	-9912	3824	12920	11	-6	-18	-14928	2816	-6000	5	3	-9	-4224	-2016	16416	23	2	3	126	127	5
-9952	-3132	12144	-13	19	-22	-14768	-6152	-4024	9	-5	18	-3936	-5488	15336	1	-18	22	-9968	3832	12792	15	3	-20	-15040	2520	-6192	5	-8	-9	-4520	-2184	16280	25	2	4	126	127	5
-9928	-3152	12168	-14	17	-30	-14704	-6280	-4104	13	-4	13	-3816	-5552	15440	-1	-16	22	-10096	3800	12904	16	-5	-15	-15064	2544	-6064	5	-3	-1	-4240	-1960	16544	23	-2	6	126	127	5
-10052	-3168	12052	-12	18	-24	-14728	-6272	-4200	13	-6	13	-3984	-5568	15288	2	-16	21	-9888	3792	12960	20	0	-17	-14904	2600	-5832	1	-7	-10	-4320	-2000	16144	26	-5	3	126	127	5
-9868	-3120	12204	-14	20	-25	-14688	-6400	-3920	9	-4	16	-3848	-5448	15272	-1	-16	28	-10032	3896	12952	13	-1	-15	-15008	2560	-5736	3	-4	-9	-4320	-2096	16368	19	-3	4	126	127	5
-9944	-3172	12232	-12	19	-27	-14712	-6360	-4176	9	-3	18	-3960	-5520	15432	3	-14	18	-9984	3832	12968	12	-9	-17	-14936	2584	-5872	-3	-1	-12	-4344	-2128	16216	23	2	0	126	128	5
-9940	-3128	12200	-16	17	-25	-14672	-6368	-4080	9	2	15	-3904	-5544	15472	2	-13	24	-9888	3760	12928	13	-1	-14	-15000	2456	-6056	1	-2	-9	-4368	-2184	16136	22	-1	4	126	128	5
-9900	-3192	12172	-13	18	-27	-14640	-6288	-4064	8	2	17	-3984	-5592	15352	0	-16	18	-9920	3808	12832	12	0	-20	-15000	2704	-5840	1	-8	-8	-4520	-1936	16160	22	-1	2	126	127	5
-9928	-3180	12192	-11	15	-24	-14584	-6304	-4384	9	0	16	-3928	-5592	15184	-2	-15	21	-9984	3712	12800	16	-2	-13	-14920	2496	-6104	2	-6	-11	-4328	-2104	16320	25	-4	4	126	127	5
-9984	-3148	12192	-13	15	-23	-14472	-6296	-4152	9	-1	17	-4088	-5432	15384	2	-10	19	-9920	3872	13024	13	-6	-19	-14912	2384	-5808	1	-6	-8	-4448	-2032	16496	20	0	2	126	127	5
-9900	-3156	12144	-12	20	-27	-14632	-6208	-4112	11	-3	16	-3952	-5616	15312	3	-18	21	-9888	3920	12848	16	-2	-14	-15040	2480	-5912	2	-4	-8	-4472	-2184	16368	24	1	3	126	128	5
-9932	-3112	12140	-11	18	-22	-14640	-6376	-4464	13	-2	20	-3896	-5608	15264	-1	-14	19	-9968	3888	12752	13	-3	-15	-14992	2736	-6256	-2	-3	-9	-4416	-2128	16128	23	-2	3	126	128	5
-9892	-3120	12208	-7	17	-23	-14800	-6240	-4336	11	-5	17	-3992	-5496	15264	9	-16	20	-10016	3856	12704	16	-1	-16	-15016	2512	-5816	0	-7	-1	-4264	-2032	16264	28	0	2	126	128	5
-9944	-3132	12204	-14	18	-22	-14632	-6376	-4080	12	-5	17	-3880	-5528	15272	5	-17	19	-9904	3864	12904	18	-3	-21	-14888	2424	-6008	5	-7	-3	-4408	-2112	16224	25	-1	3	126	128	5
-9936	-3148	12244	-9	18	-26	-14792	-6312	-4080	11	-5	14	-4000	-5528	15232	-1	-12	21	-9968	3760	13192	16	0	-17	-15064	2720	-5992	0	-4	-6	-4368	-2032	16400	25	2	3	126	127	5
-9980	-3176	12176	-13	20	-21	-14712	-6288	-4112	11	-6	16	-4056	-5472	15584	1	-16	22	-9920	3816	12696	13	-4	-19	-14976	2544	-5688	-2	-4	-4	-4320	-2096	16240	25	0	1	126	128	5
-9876	-3160	12168	-12	19	-23	-14720	-6160	-4144	8	-4	14	-3880	-5664	15224	5	-15	23	-9960	3776	13040	17	-3	-20	-15000	2744	-6072	-2	-2	-7	-4464	-2064	16376	22	-4	6	126	128	5
-9864	-3172	12168	-17	15	-26	-14664	-6176	-4096	11	1	18	-3928	-5504	15352	3	-19	20	-9832	3856	13088	13	1	-17	-14888	2688	-6088	2	0	-1	-4512	-2056	16304	20	1	2	126	128	5
-9864	-3112	12216	-10	13	-24	-14816	-6360	-3984	2	-1	14	-3888	-5520	15432	7	-16	24	-9912	3720	12888	16	-2	-17	-14880	2600	-5792	3	-5	-9	-4408	-2016	16376	22	5	5	126	128	5
-9912	-3180	12144	-14	19	-24	-14608	-6216	-4088	10	-2	15	-3928	-5528	15216	0	-17	21	-9984	3720	12936	16	-1	-22	-14992	2576	-6064	1	-4	-8	-4408	-2000	16208	21	-1	4	126	128	5
-9936	-3140	12176	-16	21	-24	-14632	-6248	-4144	8	0	12	-3952	-5400	15328	2	-17	22	-10152	3712	12920	11	-1	-16	-14848	2584	-6040	-1	-5	-10	-4464	-1952	16184	23	0	3	126	128	5
-9928	-3128	12292	-11	18	-27	-14616	-6320	-4320	9	0	13	-4064	-5664	15200	0	-14	19	-9936	3880	13200	17	-1	-16	-15008	2696	-5960	0	-8	-6	-4416	-2072	16088	25	-3	0	126	128	5
-9904	-3196	12232	-10	15	-24	-14688	-6328	-4312	12	-3	16	-3920	-5552	15336	1	-18	19	-10000	3928	12992	11	-2	-19	-14928	2712	-5872	2	-5	-8	-4480	-1896	16448	25	-2	2	126	128	5
-9952	-3144	12120	-12	18	-25	-14648	-6208	-4112	7	-3	15	-3936	-5736	15224	-2	-15	22	-10128	3848	12760	12	-4	-16	-14912	2584	-6032	0	-4	-5	-4400	-2040	16128	23	1	3	125	128	5
-9932	-3156	12212	-15	23	-22	-14752	-6456	-4272	11	0	12	-3944	-5424	15232	0	-17	22	-10048	3856	12856	13	-5	-19	-14928	2736	-6072	-1	-5	-14	-4392	-2192	16296	22	3	3	125	128	5
-9920	-3156	12132	-13	23	-24	-14680	-6312	-4040	8	-4	16	-4024	-5432	15416	-1	-17	20	-10000	3880	13000	13	-1	-19	-14984	2640	-5944	4	-7	-12	-4448	-2136	16528	25	-3	7	125	128	5
-9896	-3168	12212	-11	17	-25	-14736	-6352	-3960	8	1	14	-3808	-5560	15088	0	-15	24	-10088	3832	12816	13	-2	-15	-14952	2608	-5904	-1	-6	-14	-4528	-1912	16384	18	2	5	125	128	5
-9960	-3224	12264	-15	18	-23	-14736	-6200	-4048	12	-5	15	-3840	-5576	15296	1	-17	21	-10032	3920	13056	10	-1	-22	-15000	2616	-6272	0	-4	-13	-4352	-2128	16376	25	-2	2	125	128	5
-9976	-3128	12316	-11	16	-22	-14744	-6408	-4392	12	-7	13	-4120	-5496	15064	3	-15	22	-10048	3752	13120	12	-1	-15	-14952	2624	-5984	0	-8	-13	-4416	-2056	16312	25	-6	6	125	128	5
-9928	-3164	12200	-10	15	-24	-14640	-6224	-4056	12	-2	15	-3832	-5480	15376	3	-12	20	-9992	3856	13016	14	-3	-18	-15040	2544	-6088	4	-6	-6	-4488	-2096	16384	22	-2	4	125	128	5
-9968	-3156	12168	-11	19	-21	-14656	-6408	-4144	10	-4	14	-3984	-5552	15288	5	-11	23	-9856	3904	13000	13	-4	-20	-14904	2672	-5952	-1	-9	-11	-4320	-2048	16248	26	0	6	125	128	5
-9940	-3216	12188	-6	19	-27	-14624	-6376	-4208	10	-6	19	-3976	-5560	15384	2	-14	19	-10088	3792	12816	14	-1	-16	-14992	2664	-5816	-4	-5	-5	-4288	-1976	16336	26	-4	7	125	128	5
-9956	-3156	12240	-11	16	-18	-14720	-6256	-4248	14	-2	16	-3936	-5576	15264	3	-18	20	-9952	3792	12928	18	-5	-20	-14848	2584	-5848	-2	-4	-7	-4256	-2024	16552	28	-1	6	125	128	5
-9912	-3124	12148	-13	15	-27	-14736	-6248	-4080	8	-2	16	-3968	-5520	15480	4	-16	20	-9896	3640	13024	15	-3	-19	-14840	2592	-5776	-4	-3	-7	-4216	-1952	16648	26	-5	1	125	128	5
-9940	-3140	12232	-10	16	-23	-14848	-6392	-4040	10	-2	15	-3944	-5608	15488	1	-17	19	-10096	3808	13112	14	-4	-18	-14968	2664	-5984	-1	-6	-7	-4368	-1984	16312	25	-2	1	125	128	5
-9904	-3152	12228	-17	17	-25	-14792	-6360	-3968	11	-2	21	-3832	-5472	15496	6	-14	21	-9960	3752	13016	16	0	-16	-14952	2520	-5640	0	-8	-8	-4400	-2040	16216	23	-2	3	125	128	5
-9976	-3144	12156	-14	22	-21	-14760	-6240	-4056	8	2	19	-4000	-5416	15216	5	-14	20	-9880	3776	13024	15	3	-16	-14888	2680	-5920	-2	-7	-3	-4416	-1904	16272	20	0	3	125	129	5
-9932	-3148	12124	-12	18	-23	-14768	-6344	-4160	7	-2	20	-3968	-5496	15320	3	-14	23	-10024	3872	12888	15	-10	-14	-15064	2600	-6016	-5	-1	-7	-4320	-2024	16168	23	-5	6	125	129	5
-9924	-3212	12184	-12	18	-27	-14720	-6168	-4216	9	0	17	-3992	-5464	15608	4	-14	23	-10056	3864	13144	13	-4	-18	-14872	2768	-5904	-3	-1	-8	-4432	-1976	16256	24	-1	5	125	128	5
-9900	-3220	12252	-17	17	-26	-14664	-6328	-4240	12	1	19	-3888	-5544	15248	0	-19	20	-10032	3936	12880	15	-8	-17	-14992	2504	-5864	-6	-4	-3	-4336	-2144	16552	21	-2	5	125	128	5
-9964	-3192	12136	-12	16	-20	-14600	-6184	-4304	12	-5	13	-3904	-5440	15744	0	-18	20	-9896	3784	12776	17	-4	-19	-15080	2648	-6024	1	-11	-7	-4336	-2048	16472	25	2	2	125	128	5
-9948	-3208	12280	-15	17	-25	-14640	-6344	-3920	7	-1	16	-4120	-5512	15240	3	-17	22	-9992	3752	12936	13	-3	-13	-14920	2712	-5936	1	-5	-9	-4304	-2048	16200	24	-1	5	125	128	5
-9920	-3184	12140	-17	21	-24	-14696	-6224	-4224	8	-5	18	-3840	-5512	15400	0	-17	24	-10008	3952	12944	15	-3	-19	-14944	2672	-6064	2	-12	-10	-4344	-2000	16200	27	-2	2	125	128	5
-9928	-3136	12112	-13	15	-21	-14664	-6360	-4128	9	0	12	-3856	-5664	15544	1	-15	20	-9856	3808	13016	12	-3	-16	-15056	2512	-5920	0	-6	-12	-4360	-1888	16512	20	-1	5	125	128	5
-9952	-3144	12212	-12	21	-23	-14632	-6240	-4024	12	1	11	-3968	-5576	15232	3	-18	22	-9936	3920	13000	13	-4	-18	-14936	2448	-5904	0	-2	-6	-4480	-1976	16200	22	-2	2	125	128	5
-9924	-3192	12076	-13	18	-21	-14656	-6248	-4224	11	1	13	-3856	-5504	15264	0	-16	25	-9912	3704	12848	10	0	-18	-14800	2664	-5928	2	-7	-7	-4376	-1976	16352	18	0	3	125	129	5
-9964	-3112	12156	-15	21	-22	-14648	-6240	-4160	12	-2	12	-3928	-5552	14960	8	-16	19	-9896	3816	12688	9	0	-20	-14848	2520	-5864	6	-7	-5	-4368	-2152	16280	23	1	1	125	128	5
-9904	-3164	12200	-7	21	-22	-14704	-6440	-4144	8	-2	12	-3928	-5576	15312	4	-18	23	-9952	3808	13040	16	0	-19	-14976	2544	-5776	0	-11	-7	-4384	-2144	16512	23	0	2	125	128	5
-9948	-3172	12088	-12	18	-24	-14664	-6432	-4256	10	-4	14	-3920	-5656	15496	7	-18	17	-10024	3872	13224	13	-6	-18	-14848	2616	-5952	0	-2	-10	-4336	-2152	16128	25	-2	3	125	128	5
-9952	-3132	12132	-15	17	-24	-14688	-6320	-4008	10	-3	16	-3912	-5488	15376	3	-21	22	-10128	3776	12904	12	-2	-19	-15048	2480	-5864	-3	-7	-4	-4392	-1944	16376	23	-3	3	125	128	5
-9888	-3152	12116	-9	18	-26	-14616	-6328	-4184	8	-4	16	-3984	-5592	15440	1	-18	17	-10000	3808	12928	14	-6	-15	-15000	2608	-5904	4	-7	-6	-4232	-1960	16144	24	1	2	125	128	5
-9932	-3220	12176	-9	21	-21	-14688	-6336	-4048	10	1	17	-3872	-5456	15256	-1	-16	21	-10048	3808	13064	13	-8	-15	-15016	2432	-5944	0	-6	-6	-4328	-1880	16328	26	-2	1	125	128	5
-9908	-3180	12124	-10	21	-22	-14632	-6336	-4104	9	2	15	-3992	-5488	15360	4	-15	16	-9944	3880	12856	17	-4	-19	-15064	2576	-5928	-3	-4	-6	-4376	-2032	16472	20	1	3	125	128	5
-9896	-3152	12268	-14	19	-24	-14712	-6208	-4176	12	-5	15	-3960	-5616	15336	2	-20	17	-9968	3864	12648	13	-1	-19	-14912	2648	-6064	1	-2	-7	-4256	-2096	16384	20	-1	3	125	128	5
-9908	-3136	12232	-11	17	-23	-14728	-6248	-4208	9	-9	18	-3976	-5384	15400	-2	-19	21	-10080	3824	12744	14	-5	-18	-15128	2544	-6192	-4	-6	-5	-4328	-1976	16432	22	0	6	125	128	5
-9956	-3136	12220	-8	16	-26	-14632	-6456	-3952	5	-5	25	-4008	-5576	15344	6	-18	20	-9912	3856	13184	8	-2	-20	-14952	2664	-5680	-2	-4	-5	-4416	-2016	16432	25	0	4	125	129	5
-9944	-3264	12216	-15	15	-22	-14656	-6224	-4104	11	-1	15	-4112	-5552	15256	4	-19	21	-9888	3784	13016	12	-5	-17	-15072	2704	-5712	1	-3	-10	-4320	-2024	16320	21	-3	5	125	128	5
-9952	-3228	12176	-15	18	-25	-14720	-6328	-4096	8	-5	18	-3920	-5592	15184	3	-17	27	-9912	3704	12784	9	5	-20	-15016	2728	-5936	-3	-7	-8	-4464	-2048	16224	22	-2	7	125	128	5
-9932	-3152	12232	-15	18	-25	-14680	-6312	-4080	12	-4	12	-3880	-5520	15264	5	-20	25	-10000	3816	12800	14	-1	-19	-15088	2568	-6040	-1	-1	-14	-4272	-1952	16192	25	2	3	125	128	5
-9920	-3120	12208	-10	22	-25	-14656	-6320	-4160	9	2	16	-3856	-5544	15432	0	-15	25	-9984	3824	12960	14	-4	-14	-14920	2584	-6008	1	-6	-12	-4344	-2040	16208	23	-2	2	125	128	5
-9940	-3180	12176	-10	20	-23	-14704	-6280	-4128	9	-1	19	-3872	-5568	15248	-3	-16	21	-9976	3680	12872	15	-6	-14	-15056	2552	-5792	2	-7	-7	-4288	-2128	16128	24	0	6	125	128	5
-9972	-3120	12152	-14	19	-21	-14568	-6344	-4216	9	-5	19	-3880	-5632	15200	4	-13	21	-10056	3800	12976	11	4	-25	-15048	2608	-5944	-4	-10	-9	-4552	-2080	16152	22	1	6	125	129	5
-9912	-3132	12136	-16	16	-24	-14720	-6424	-4224	13	-3	19	-3832	-5320	15416	2	-17	21	-10032	3808	12928	17	3	-19	-14936	2776	-5784	-1	-8	-8	-4376	-2104	16592	24	0	2	125	128	5
-9884	-3140	12084	-17	15	-22	-14736	-6272	-4104	12	-5	17	-3968	-5568	15344	3	-16	18	-9984	3880	13120	12	-3	-16	-15208	2640	-6056	2	-8	-11	-4376	-2176	16448	27	1	6	125	129	5
-9892	-3160	12208	-11	18	-21	-14656	-6336	-4008	10	0	19	-3880	-5536	15256	3	-17	20	-9800	4000	13040	13	-4	-19	-14976	2776	-5840	0	-5	-10	-4208	-1976	16320	23	-5	7	125	128	5
-10000	-3128	12152	-10	18	-22	-14640	-6232	-4296	8	0	17	-3832	-5624	15360	5	-18	20	-9880	3816	12928	18	-6	-17	-15104	2632	-5920	0	-4	-9	-4456	-2136	16384	24	-3	3	125	128	5
-9928	-3144	12208	-15	18	-23	-14728	-6168	-3864	14	-4	17	-4056	-5400	15096	4	-15	20	-10000	3864	12904	15	-3	-20	-14976	2512	-5696	-1	-9	-13	-4312	-2064	16304	24	0	2	125	129	5
-9908	-3140	12156	-15	17	-21	-14640	-6368	-4096	6	1	21	-3968	-5440	15256	5	-17	25	-10056	3808	12840	13	1	-18	-15080	2496	-6056	0	-2	-11	-4416	-2176	16536	22	-4	3	125	128	5
-9912	-3116	12140	-13	16	-24	-14776	-6304	-4224	7	0	16	-4008	-5448	15336	7	-16	20	-10016	3768	12928	16	-4	-16	-14992	2664	-5944	-3	-7	-7	-4272	-1968	16528	22	3	8	125	128	5
-9932	-3148	12244	-15	18	-24	-14752	-6320	-4216	9	-6	17	-3896	-5296	15288	3	-15	22	-9904	4000	12944	15	-6	-15	-14960	2560	-5920	-2	-10	-9	-4328	-2224	16360	21	2	8	125	129	5
-9936	-3136	12212	-12	18	-25	-14656	-6248	-3960	7	2	17	-3880	-5568	15328	1	-16	21	-9904	4024	12952	10	-6	-14	-15008	2488	-5952	-2	-5	-6	-4336	-2016	16680	23	-1	7	125	129	5
-9900	-3148	12184	-12	19	-27	-14680	-6152	-3928	11	0	16	-3960	-5408	15272	1	-16	24	-10088	3848	12920	16	-5	-15	-14864	2576	-6032	-2	-8	-9	-4376	-1952	16320	26	-1	9	125	129	5
-9964	-3180	12220	-10	21	-24	-14648	-6360	-4016	8	-5	16	-3904	-5528	15336	6	-18	23	-9912	3808	12944	13	-6	-16	-14952	2608	-5920	-1	-7	-4	-4448	-2048	16400	24	-2	6	125	129	5
-9972	-3196	12208	-10	13	-25	-14632	-6240	-4320	8	-2	20	-3984	-5544	15264	0	-15	23	-9904	3808	12736	15	-3	-20	-15064	2560	-5800	-4	-7	-11	-4392	-2112	16384	28	4	3	125	129	5
-9928	-3204	12160	-11	18	-24	-14592	-6112	-3928	9	-3	14	-3920	-5464	15288	2	-19	20	-10096	3936	12936	15	-6	-19	-14968	2536	-5992	1	-7	-8	-4432	-2096	16240	18	3	6	125	128	5
-9912	-3092	12140	-12	13	-21	-14776	-6312	-4048	12	-7	19	-3856	-5528	15200	4	-18	23	-9968	3968	13040	14	-2	-16	-14800	2608	-5936	1	-5	-11	-4440	-1912	16376	26	-3	2	125	129	5
-9916	-3156	12144	-11	14	-24	-14696	-6360	-4008	12	-10	20	-3840	-5496	15288	4	-20	22	-9880	3864	13040	13	-3	-20	-14968	2600	-5584	2	-1	-12	-4328	-1904	16488	22	0	5	125	129	5
-10016	-3176	12164	-15	17	-22	-14768	-6352	-4104	10	-4	16	-3936	-5512	15208	4	-17	18	-9960	3808	12832	14	-8	-21	-14928	2544	-5720	1	-6	-12	-4480	-1952	16416	24	-2	3	125	129	5
-9944	-3188	12204	-11	15	-29	-14584	-6296	-4008	14	-8	17	-3824	-5440	15344	1	-17	18	-9944	3856	12936	13	-2	-16	-15016	2536	-6056	-2	-5	-8	-4344	-2080	16280	20	0	3	125	129	5
-9972	-3104	12068	-16	18	-26	-14728	-6280	-4232	13	-5	14	-4048	-5432	15552	0	-16	20	-9920	3656	13048	13	-6	-14	-15056	2664	-6000	-3	-3	-7	-4264	-2056	16368	24	0	3	125	129	5
-9940	-3148	12104	-15	17	-23	-14592	-6312	-4024	12	-3	14	-3968	-5392	15192	3	-18	24	-10000	3888	12968	12	-3	-17	-15008	2504	-6008	-1	-5	-14	-4432	-2040	16400	30	2	5	125	129	5
-9924	-3144	12148	-10	19	-24	-14648	-6248	-4104	9	-1	14	-3944	-5632	15424	5	-16	25	-10128	3800	12760	18	-5	-18	-14952	2728	-5968	-1	-3	-6	-4360	-1968	16264	29	-4	5	125	129	5
-9944	-3176	12060	-13	18	-29	-14752	-6432	-3992	9	-2	14	-4048	-5576	15368	3	-16	19	-10072	3928	13000	13	-5	-18	-14864	2584	-6040	-2	-7	-15	-4392	-2072	16136	24	1	3	125	129	5
-9956	-3144	12132	-8	17	-27	-14688	-6296	-4336	13	-4	16	-3872	-5648	15224	4	-13	20	-9992	3784	12800	15	-6	-16	-15040	2576	-6088	0	-8	-10	-4368	-1936	16360	17	-2	5	125	129	5
-9896	-3180	12300	-13	19	-19	-14632	-6352	-4088	10	-2	20	-3912	-5504	15544	5	-17	19	-9960	4000	12600	13	0	-17	-15104	2584	-5928	1	-6	-9	-4392	-2064	16280	19	-3	3	125	129	5
-9940	-3068	12232	-13	14	-22	-14640	-6360	-4144	11	-4	19	-3888	-5496	15224	1	-13	16	-9880	3832	13032	13	-8	-15	-15048	2592	-5728	3	-6	-8	-4288	-2128	16192	18	3	4	125	129	5
-9920	-3180	12124	-16	20	-20	-14656	-6256	-4112	10	-3	20	-3896	-5400	15216	3	-7	20	-9904	3928	12904	15	2	-18	-15024	2584	-6000	0	-3	-6	-4448	-2040	16440	20	-2	1	125	129	5
-9904	-3192	12168	-11	16	-26	-14608	-6248	-4320	9	3	18	-3872	-5536	15240	2	-14	21	-9864	3896	12936	12	-4	-15	-15128	2504	-5928	-5	-3	-15	-4416	-2064	16208	23	-2	3	125	129	5
-9876	-3172	12184	-17	17	-24	-14664	-6240	-4192	8	0	18	-3976	-5576	15272	5	-14	22	-10016	3968	12728	14	0	-15	-14944	2680	-5920	2	-6	-7	-4432	-2080	16208	30	1	8	125	128	5
-10028	-3160	12256	-12	18	-23	-14680	-6272	-4128	14	-3	13	-3928	-5496	14984	4	-18	18	-10008	3848	12904	15	-5	-19	-15016	2632	-6176	-2	-3	-4	-4384	-1928	16352	29	5	3	125	129	5
-9972	-3164	12216	-17	19	-22	-14600	-6304	-4208	9	-3	19	-3896	-5536	15256	4	-18	23	-10016	3912	12792	14	-1	-16	-15104	2688	-6160	3	-6	-4	-4368	-2024	16200	23	-4	6	125	129	5
-9940	-3180	12180	-17	17	-24	-14728	-6304	-4088	12	-2	14	-3864	-5440	15104	5	-15	20	-10080	3848	13136	13	-1	-17	-15072	2584	-5944	4	-6	-3	-4336	-1968	16432	21	1	9	125	129	5
-9884	-3160	12268	-15	17	-24	-14712	-6432	-4040	6	-7	18	-3976	-5560	15456	2	-17	26	-10008	3744	13152	15	-1	-16	-14976	2496	-5968	-1	-9	-5	-4400	-2016	16360	20	-1	10	125	129	5
-9896	-3152	12104	-11	18	-17	-14720	-6376	-4048	8	-4	17	-3824	-5528	15344	2	-14	24	-9952	3896	12776	16	-2	-15	-15056	2624	-5960	0	-1	-7	-4336	-1984	16416	25	-2	-1	125	129	5
-9896	-3160	12220	-14	17	-23	-14672	-6240	-4112	13	-5	18	-3896	-5616	15424	0	-17	23	-10040	3856	12888	16	0	-18	-14944	2696	-5816	2	-6	-8	-4264	-2032	16320	23	0	3	125	129	5
-9920	-3156	12224	-14	17	-26	-14600	-6256	-4160	8	-2	17	-3984	-5488	15272	1	-17	18	-10104	3888	13176	12	-2	-16	-14952	2640	-5784	-2	-8	-11	-4392	-1992	16216	24	0	3	125	129	5
-9980	-3140	12188	-7	16	-22	-14664	-6328	-4120	11	-6	18	-3872	-5592	15264	2	-17	23	-10056	3696	12808	18	-6	-12	-14944	2496	-5952	3	-3	-9	-4432	-1992	16216	23	3	3	125	129	5
-9940	-3132	12140	-11	16	-29	-14736	-6200	-4248	10	-1	17	-3912	-5560	15440	3	-18	20	-10008	3808	12680	12	-4	-17	-15048	2640	-5848	3	-6	-7	-4240	-2104	16120	25	1	1	125	129	5
-9924	-3052	12164	-15	20	-22	-14688	-6392	-4088	7	-3	17	-3968	-5600	15256	5	-17	20	-9880	3872	12936	13	-5	-15	-14968	2520	-5928	2	-6	-10	-4392	-2048	16376	24	-1	5	125	129	5
-9908	-3228	12192	-9	17	-26	-14752	-6344	-4128	14	-3	15	-3920	-5472	15568	8	-17	20	-9840	3888	12904	20	-2	-17	-15016	2664	-5984	3	-7	-7	-4344	-2016	16272	22	2	3	125	129	5
-9892	-3164	12180	-15	15	-23	-14768	-6464	-3848	12	-2	13	-3872	-5496	15368	7	-17	21	-10000	3928	13032	13	-5	-19	-14944	2672	-6008	0	-6	-7	-4416	-2040	16248	21	-3	4	125	129	5
-9976	-3148	12188	-11	18	-23	-14688	-6336	-4256	12	-7	13	-3832	-5512	15656	6	-18	20	-10168	3664	12904	13	-6	-16	-15104	2608	-6040	-5	-3	-10	-4344	-1968	16592	21	-2	5	125	129	5
-9932	-3184	12212	-9	19	-27	-14688	-6320	-4096	9	-4	13	-3872	-5472	15304	-1	-17	26	-9880	3816	12744	16	-3	-20	-15000	2752	-6064	0	-10	-7	-4368	-2128	16320	19	2	3	125	129	5
-9924	-3124	12096	-18	16	-26	-14672	-6272	-4352	7	2	16	-3904	-5560	15248	7	-18	19	-9960	3864	12928	17	2	-19	-14944	2544	-5832	2	1	-10	-4408	-2016	16192	23	2	5	125	129	5
-9880	-3156	12216	-8	20	-24	-14728	-6248	-3992	11	-1	19	-3856	-5584	15352	2	-18	22	-10104	3776	12824	16	-3	-17	-14912	2696	-6056	-1	-4	-8	-4392	-1984	16336	18	-1	4	125	129	5
-9932	-3184	12152	-10	20	-26	-14728	-6200	-4056	13	1	20	-4016	-5568	15104	1	-15	23	-9888	3856	13064	15	0	-17	-15056	2576	-6120	1	-3	-9	-4312	-1952	16360	21	-2	3	125	129	5
-9888	-3196	12204	-6	17	-23	-14560	-6280	-4040	6	-4	13	-3880	-5576	15760	4	-14	20	-10048	3752	13016	19	-11	-13	-14912	2496	-5992	1	-5	-10	-4336	-2024	16440	19	-3	5	125	129	5
-9932	-3136	12240	-12	16	-23	-14760	-6256	-4096	6	-2	15	-3928	-5424	15048	4	-18	21	-9976	3912	12824	15	0	-19	-14800	2616	-6040	-5	-4	-7	-4336	-2128	16368	22	0	4	125	129	5
-9908	-3120	12264	-10	17	-21	-14632	-6376	-4104	11	-4	20	-3832	-5432	15384	10	-16	22	-9952	3856	12832	16	-4	-19	-14984	2568	-6008	2	-6	-7	-4376	-2064	16256	24	-4	1	125	129	5
-9916	-3124	12292	-16	16	-29	-14840	-6232	-4304	8	0	19	-3936	-5600	15488	5	-15	19	-9976	3904	12728	13	-6	-12	-14904	2584	-6200	3	-6	-5	-4328	-2016	16192	25	0	4	125	129	5
-9960	-3172	12224	-18	18	-26	-14736	-6128	-4056	8	-1	15	-4088	-5464	15408	3	-14	23	-10016	3904	13088	16	-6	-16	-15016	2624	-5760	-2	-7	-9	-4384	-1952	16328	26	0	4	125	129	5
-9904	-3100	12180	-13	15	-24	-14744	-6352	-4208	11	-8	10	-3824	-5552	15376	3	-19	22	-10016	3888	13088	17	-4	-16	-15072	2584	-5920	-3	-6	-10	-4288	-2128	16320	22	-2	0	125	129	5
-9884	-3108	12124	-13	15	-24	-14720	-6312	-4192	11	-5	13	-4016	-5520	15336	1	-17	24	-9904	3888	12784	17	-3	-18	-14952	2568	-5944	-1	-6	-3	-4344	-1992	16328	20	-3	2	125	129	5
-9944	-3204	12220	-13	17	-26	-14688	-6256	-4136	15	-3	12	-4000	-5632	15160	1	-17	21	-9872	3936	12944	18	-4	-16	-15064	2680	-6056	-2	-8	-7	-4320	-2032	16496	26	1	4	125	129	5
-9976	-3160	12164	-13	19	-20	-14648	-6248	-4112	11	-7	16	-3792	-5512	15264	3	-16	24	-10024	3904	12952	13	-4	-20	-15136	2704	-5984	5	-4	-8	-4272	-2072	16416	26	3	5	125	129	5
-9876	-3180	12184	-11	20	-25	-14760	-6328	-4144	13	-1	17	-3976	-5552	15384	2	-20	28	-10096	3928	12928	16	1	-21	-15064	2680	-6104	-1	-4	-5	-4240	-1992	16432	22	-2	5	125	129	5
-9948	-3144	12152	-8	18	-24	-14680	-6256	-4064	9	-3	18	-3848	-5560	15432	5	-16	22	-10136	3872	12736	17	-6	-17	-15056	2544	-5936	4	-3	-10	-4376	-2016	16192	28	-2	3	125	129	5
-9936	-3184	12096	-13	14	-26	-14704	-6392	-4160	12	-2	15	-3824	-5496	15160	1	-10	18	-9880	3760	12728	13	-1	-22	-14880	2472	-5800	7	0	-8	-4336	-2120	16128	19	0	4	125	129	5
-9908	-3152	12188	-13	16	-28	-14872	-6288	-4384	10	-2	17	-3816	-5464	15368	5	-16	23	-10048	3856	12920	13	-2	-20	-14936	2560	-5944	3	-4	-9	-4336	-2056	16208	20	-4	6	125	129	5
-9932	-3140	12196	-13	18	-25	-14648	-6336	-4176	8	-2	21	-3872	-5504	15352	5	-17	18	-9976	3880	12960	13	-2	-18	-14888	2576	-5904	5	-2	-8	-4552	-2056	16376	17	-3	4	125	129	5
-9956	-3124	12076	-10	17	-27	-14688	-6128	-4208	12	1	18	-4080	-5472	15248	4	-16	21	-9968	3616	12616	18	-2	-20	-14952	2520	-5880	2	-1	-10	-4352	-1984	16136	21	-3	5	125	129	5
-9972	-3136	12188	-15	16	-22	-14728	-6352	-4376	9	-5	18	-4088	-5504	15328	2	-17	20	-9992	3952	12976	16	-4	-19	-14824	2624	-6224	0	-7	-10	-4432	-1960	16008	26	-4	5	125	129	5
-9928	-3076	12200	-12	22	-26	-14744	-6384	-4288	9	-9	20	-4064	-5464	15200	2	-19	19	-9984	3688	12840	13	4	-18	-14976	2648	-5912	-5	-4	-9	-4392	-1984	16224	23	-3	2	125	129	5
-9964	-3220	12156	-16	17	-24	-14736	-6256	-4184	13	-5	17	-3872	-5544	15328	-3	-16	21	-10008	3904	13176	16	-9	-18	-15000	2648	-5880	1	-5	-7	-4288	-2184	16376	26	0	6	125	129	5
-9892	-3196	12264	-14	14	-25	-14712	-6400	-4064	9	-3	14	-4056	-5504	15288	3	-17	23	-9944	3816	12992	16	-1	-21	-15080	2664	-5968	-2	-4	-8	-4400	-2040	16240	28	-1	3	125	129	5
-9896	-3108	12224	-13	19	-22	-14704	-6320	-4240	12	-2	13	-3944	-5632	15472	4	-17	24	-10128	3880	13024	13	-3	-18	-14992	2680	-5888	1	-4	-7	-4408	-2104	16088	27	-3	1	125	129	5
-9932	-3104	12288	-10	17	-22	-14744	-6256	-4128	11	-3	12	-3920	-5512	15400	6	-19	25	-9976	3960	13152	14	5	-22	-14904	2552	-6080	0	-2	-5	-4472	-1952	16440	23	-4	6	125	129	5
-9964	-3164	12184	-14	18	-23	-14728	-6368	-4008	9	-2	18	-3896	-5496	15416	7	-17	23	-10048	3776	12984	14	-6	-18	-15040	2624	-5752	1	-10	-9	-4496	-2032	16352	23	2	3	125	129	5
-9912	-3180	12188	-14	18	-26	-14720	-6304	-4384	8	-1	12	-3816	-5464	15400	0	-15	20	-10000	3960	12944	16	-2	-14	-15048	2720	-5920	2	-9	-6	-4440	-2160	16184	18	0	3	125	129	5
-9936	-3256	12160	-14	17	-22	-14680	-6224	-3920	13	-2	17	-4008	-5352	15384	0	-16	19	-9944	3832	12952	13	-4	-17	-15016	2488	-5856	2	-5	-10	-4264	-1992	16456	15	-1	1	125	129	5
-9968	-3132	12168	-11	18	-27	-14696	-6392	-4056	5	2	14	-3968	-5472	15200	0	-15	16	-9976	3832	13000	13	-2	-18	-14992	2648	-6040	-1	-6	-10	-4248	-2032	16440	20	0	2	125	129	5
-9968	-3136	12156	-12	22	-26	-14680	-6200	-4096	7	-1	18	-3888	-5472	15328	-3	-17	21	-10032	3816	12704	15	-3	-18	-14808	2672	-5856	-2	-1	-6	-4416	-2072	16480	25	0	7	125	129	5
-9920	-3220	12188	-12	22	-22	-14688	-6280	-4472	6	-1	16	-3992	-5472	15048	0	-17	21	-9976	3880	12768	11	-2	-21	-14936	2520	-5848	1	-3	-9	-4416	-2072	16320	23	-1	3	125	129	5
-9884	-3172	12100	-14	17	-22	-14680	-6272	-4208	8	-5	17	-3872	-5368	15288	1	-15	19	-10080	3744	12848	16	-3	-19	-14944	2536	-5984	-1	-1	-11	-4384	-2000	16104	25	1	2	125	129	5
-9944	-3136	12132	-15	17	-21	-14552	-6304	-4016	9	0	13	-3760	-5544	15192	1	-17	25	-9960	3792	12832	12	-7	-13	-15000	2536	-5984	3	-2	-10	-4328	-2000	16184	23	0	5	125	129	5
-9872	-3180	12272	-14	17	-26	-14696	-6360	-4368	4	2	12	-3904	-5544	15528	2	-12	22	-9992	3712	12968	17	1	-15	-14920	2600	-6016	5	-5	-9	-4280	-2120	16336	24	-1	6	125	129	5
-9932	-3184	12188	-16	20	-23	-14616	-6288	-4016	9	0	14	-3936	-5480	15224	2	-18	20	-9960	3832	12704	12	-3	-15	-15016	2584	-5888	1	-6	-11	-4384	-2112	16392	19	3	5	125	129	5
-9948	-3116	12236	-17	16	-27	-14624	-6384	-4040	7	1	19	-3968	-5560	15360	2	-19	22	-9912	3904	12808	16	-6	-16	-14960	2512	-5904	1	-7	-8	-4456	-2224	16352	24	-2	5	125	129	5
-9968	-3192	12252	-13	16	-28	-14624	-6296	-4320	6	-1	12	-3928	-5472	15272	-1	-16	23	-9920	3776	12872	10	-3	-16	-14968	2648	-5952	2	-6	-1	-4232	-1992	16336	24	-2	1	125	129	5
-9932	-3136	12216	-17	18	-24	-14616	-6296	-4032	11	-2	14	-3904	-5488	15344	-1	-13	23	-10008	3800	12696	15	-3	-20	-14976	2552	-5848	3	-4	-7	-4336	-2064	16472	22	-1	1	125	129	5
-10008	-3184	12172	-11	16	-25	-14696	-6296	-3936	7	-4	16	-3888	-5488	15520	3	-14	25	-9888	3848	12976	14	0	-17	-14984	2600	-5960	2	-6	-5	-4416	-2016	16256	26	0	4	125	128	5
-9904	-3104	12164	-16	14	-27	-14824	-6248	-3968	7	0	14	-3936	-5608	15088	1	-14	19	-9944	3864	12752	15	-5	-20	-14920	2584	-5864	-3	-5	-7	-4336	-2056	16280	28	1	4	125	129	5
-9960	-3192	12220	-12	21	-28	-14592	-6392	-4152	8	-8	17	-3944	-5448	15408	1	-16	23	-10072	3872	12968	12	-7	-18	-14848	2536	-6080	0	-2	-12	-4472	-1920	16440	26	4	4	125	128	5
-9964	-3156	12068	-13	21	-26	-14720	-6184	-4160	11	-7	16	-3848	-5456	15440	5	-19	24	-9936	3888	12816	14	2	-18	-14952	2736	-5952	0	-5	-7	-4488	-2120	16200	26	-2	2	125	129	5
-9940	-3172	12116	-10	20	-28	-14720	-6296	-3960	12	-3	18	-3896	-5552	15312	2	-14	18	-10024	3792	12696	17	1	-17	-14968	2712	-6080	5	-4	-8	-4272	-2080	16472	26	0	3	125	129	5
-9896	-3144	12228	-15	20	-23	-14688	-6256	-4208	12	-3	17	-3976	-5552	15192	5	-17	20	-10040	3808	12944	13	1	-11	-14832	2736	-5912	1	-5	-10	-4312	-2064	16352	24	-1	3	125	129	5
-9940	-3152	12268	-12	15	-25	-14744	-6272	-4328	11	-5	16	-3896	-5568	15432	4	-16	21	-9912	3744	13080	13	-5	-19	-14928	2560	-5952	-2	-7	-8	-4376	-2184	16416	22	-2	0	125	129	5
-9904	-3092	12240	-18	16	-26	-14744	-6360	-4032	9	-4	17	-3872	-5584	15080	1	-16	24	-9944	3888	13096	15	-1	-17	-14936	2624	-5856	2	-1	-6	-4248	-2072	16384	21	-1	6	125	129	5
-9992	-3156	12092	-9	19	-27	-14728	-6272	-4088	7	-6	13	-4032	-5416	15152	0	-16	22	-9904	3752	12736	14	-1	-21	-14992	2584	-5856	1	-6	-12	-4248	-1904	16584	24	-2	4	125	128	5
-9928	-3180	12216	-14	16	-21	-14744	-6344	-4440	11	-2	14	-4000	-5360	15192	5	-16	21	-10048	3816	13016	14	-6	-15	-14984	2672	-6032	0	-6	-6	-4256	-1952	16104	24	-1	5	125	129	5
-9960	-3156	12176	-12	15	-25	-14768	-6392	-4144	8	-1	16	-3944	-5416	15384	1	-16	22	-10024	3952	12984	21	-3	-17	-14936	2480	-6040	0	-4	-11	-4392	-1960	16264	24	-1	5	125	129	5
-9964	-3132	12228	-15	18	-20	-14736	-6376	-4184	10	-4	18	-3864	-5496	15544	0	-14	18	-9976	3784	12840	16	-8	-22	-14928	2552	-6160	6	-7	-8	-4376	-2024	16192	21	-4	4	125	129	5
-9888	-3220	12092	-14	20	-24	-14600	-6384	-4184	10	2	14	-3872	-5576	15200	2	-15	19	-10080	3824	12888	13	4	-19	-15112	2672	-5760	-1	-5	-9	-4248	-1848	16264	21	-2	5	125	129	5
-9952	-3124	12220	-15	18	-24	-14672	-6304	-3992	6	3	11	-3936	-5664	15256	1	-16	21	-9912	3752	13160	12	-2	-15	-14920	2680	-5992	0	-2	-6	-4304	-2192	16312	21	-3	6	125	129	5
-10000	-3172	12168	-12	21	-23	-14696	-6360	-4184	9	0	15	-3872	-5504	15472	3	-19	22	-10104	3944	12848	13	3	-19	-14912	2792	-5800	4	-4	-10	-4272	-2096	16040	21	0	3	125	128	5
-9928	-3160	12148	-12	19	-21	-14704	-6360	-4216	10	-1	12	-3944	-5544	15200	6	-17	25	-10040	3696	12872	12	0	-15	-14936	2600	-6088	1	-2	-16	-4376	-2096	16352	25	-4	6	125	129	5
-9936	-3128	12248	-14	19	-26	-14536	-6200	-4160	14	-2	18	-3936	-5632	15328	4	-16	26	-9920	3776	13096	12	-4	-17	-15040	2584	-6016	0	-7	-6	-4400	-2096	16264	26	-4	4	125	129	5
-9920	-3176	12160	-14	17	-27	-14712	-6288	-4248	9	-3	17	-4032	-5616	15272	8	-17	21	-9968	3904	12832	12	1	-20	-15096	2576	-5784	3	-4	-6	-4264	-2152	16264	24	1	1	125	128	5
-9900	-3184	12148	-12	19	-24	-14728	-6088	-4064	9	-1	15	-3816	-5544	15176	1	-13	22	-10104	3880	12936	14	4	-20	-15088	2568	-6040	-2	-3	-10	-4432	-1952	16280	22	0	5	126	129	5
-9928	-3152	12196	-17	20	-28	-14696	-6336	-4088	10	-6	15	-3992	-5536	15368	-1	-15	21	-9976	3736	13040	15	2	-17	-15040	2512	-6032	0	-7	-1	-4384	-2016	16296	23	-2	0	125	129	5
-9992	-3164	12148	-10	19	-24	-14760	-6440	-4136	11	-8	13	-3968	-5648	15336	1	-16	19	-10024	3752	12888	15	-4	-12	-14992	2520	-5800	2	-4	-5	-4352	-2048	16512	28	0	0	125	129	5
-9872	-3180	12188	-14	23	-20	-14688	-6288	-3896	9	-6	15	-4064	-5544	15096	3	-19	22	-10136	3800	12832	13	2	-17	-15064	2568	-5984	2	-7	-9	-4480	-1960	16384	23	1	0	125	129	5
-9908	-3160	12096	-12	17	-23	-14624	-6400	-4048	10	-5	16	-3896	-5512	15064	1	-15	23	-9840	3928	13016	16	5	-18	-14984	2568	-6232	-1	-2	-3	-4400	-2024	16392	22	-2	-1	125	128	5
-9860	-3100	12152	-18	19	-23	-14688	-6272	-4200	12	-2	16	-3952	-5496	15432	1	-17	23	-10056	3976	13040	16	4	-12	-14984	2496	-6064	2	-10	-4	-4384	-2040	16192	24	0	0	125	129	5
-9920	-3140	12140	-11	17	-31	-14664	-6280	-4184	11	-3	16	-3944	-5480	15336	7	-16	23	-9984	3824	13072	15	-7	-18	-14928	2536	-5944	0	-6	-9	-4408	-2032	16352	20	-1	1	125	129	5
-9912	-3228	12212	-14	16	-26	-14616	-6296	-4184	8	-2	15	-3864	-5488	15312	2	-18	20	-10032	3784	12800	14	1	-23	-14984	2632	-5952	5	-8	-5	-4352	-2144	16432	23	0	-2	125	129	5
-9936	-3112	12200	-11	19	-28	-14816	-6168	-4120	7	-3	14	-3880	-5344	15424	2	-18	23	-10120	3912	13176	14	-1	-17	-15120	2712	-5904	4	-5	-6	-4216	-1856	16368	23	-1	0	125	129	5
-9956	-3124	12156	-16	18	-22	-14768	-6304	-4248	6	-4	14	-4000	-5576	15224	-1	-14	27	-9976	3880	12968	12	0	-16	-14944	2776	-6064	3	-4	-1	-4288	-1856	16400	23	3	0	125	129	5
-9984	-3096	12100	-15	17	-23	-14768	-6424	-4096	7	2	12	-3920	-5528	15288	0	-16	26	-9976	3832	13016	14	2	-17	-14936	2640	-6144	-1	2	-10	-4528	-1976	16264	24	1	1	125	129	5
-9896	-3224	12168	-15	17	-26	-14720	-6392	-4240	14	-1	10	-4056	-5544	15320	1	-18	27	-10000	3848	12872	16	-6	-16	-14960	2592	-5888	0	-3	-8	-4488	-2160	16352	23	1	5	125	129	5
-9880	-3144	12176	-8	17	-26	-14688	-6208	-3856	9	-3	16	-3936	-5632	15216	0	-18	22	-9960	3896	13048	14	0	-16	-15056	2544	-6080	4	-6	-7	-4568	-2032	16168	25	2	3	125	129	5
-9932	-3124	12172	-10	20	-26	-14680	-6432	-4192	9	0	14	-3936	-5504	15512	0	-18	22	-9976	3872	12888	12	-4	-15	-14944	2664	-6032	1	-6	-13	-4440	-2000	16392	22	-1	1	125	129	5
-9984	-3136	12132	-12	18	-22	-14520	-6272	-4176	13	-7	13	-3992	-5536	15360	2	-14	18	-9856	3816	12856	17	-5	-18	-15040	2608	-5920	1	-11	-5	-4448	-2048	16296	22	-3	1	125	129	5
-9928	-3148	12200	-12	17	-25	-14608	-6368	-4200	13	-10	17	-3992	-5568	15224	2	-13	23	-10120	3848	12976	13	-5	-19	-15128	2496	-6064	-2	-7	-11	-4360	-2152	16416	21	-1	4	125	129	5
-9952	-3112	12148	-15	11	-26	-14560	-6248	-4120	11	-7	11	-4000	-5472	15384	3	-14	19	-10024	3880	12904	13	-1	-17	-15008	2672	-5880	-5	-7	-13	-4432	-1984	16280	23	1	2	125	128	5
-9936	-3164	12204	-17	19	-24	-14648	-6328	-4112	11	-6	14	-3776	-5504	15304	1	-15	22	-10128	3872	13128	15	-1	-16	-14936	2664	-6056	-1	-4	-5	-4280	-2016	16336	27	-1	4	125	129	5
-9916	-3116	12376	-13	16	-25	-14616	-6384	-4144	10	-4	14	-3832	-5384	15432	1	-15	20	-9896	3808	12872	14	-5	-16	-14944	2688	-5904	-3	0	-11	-4264	-2064	16264	25	1	2	125	128	5
-9952	-3100	12088	-13	15	-25	-14704	-6224	-4016	9	3	11	-3784	-5560	15232	0	-18	22	-10056	3880	12824	15	-2	-16	-15064	2672	-6176	2	1	-7	-4272	-1944	16496	22	6	4	125	129	5
-9844	-3196	12120	-14	18	-24	-14632	-6384	-4144	9	0	16	-3816	-5592	15088	-1	-13	22	-10008	3648	12848	17	-2	-18	-14904	2616	-5904	4	4	-8	-4264	-2000	16280	20	1	5	125	129	5
-9904	-3140	12204	-13	18	-23	-14664	-6216	-4064	7	2	14	-3832	-5632	15360	-4	-11	24	-10072	3848	12976	16	-4	-20	-15040	2592	-6104	1	1	-12	-4320	-1944	16544	14	1	7	125	128	5
-9948	-3160	12100	-12	21	-23	-14600	-6224	-4152	7	4	19	-4064	-5600	15360	1	-11	17	-9920	3968	12840	18	1	-18	-15048	2712	-6088	2	4	-11	-4608	-1896	16456	19	-1	7	125	129	5
-9960	-3120	12160	-15	18	-18	-14632	-6280	-3888	2	0	23	-3960	-5504	15264	2	-9	18	-9936	3800	12816	13	2	-22	-15048	2624	-6192	6	2	-10	-4480	-1960	16248	21	0	5	125	128	5
-9932	-3116	12244	-16	15	-23	-14624	-6272	-4128	9	-1	20	-4024	-5536	15160	10	-14	16	-10000	3736	12784	10	0	-15	-14920	2496	-6056	1	-1	-9	-4472	-2048	16584	24	-3	7	125	129	5
-9920	-3164	12172	-14	19	-20	-14600	-6192	-4384	7	1	16	-4016	-5688	15352	8	-14	22	-9984	3768	12872	12	-4	-20	-14920	2552	-6168	0	-6	-14	-4536	-2120	16312	23	-6	8	125	129	5
-9952	-3184	12212	-8	17	-25	-14704	-6232	-4192	6	-7	15	-4176	-5496	15248	10	-16	22	-9960	3896	12872	13	-7	-13	-14928	2576	-6272	2	-13	-7	-4544	-2176	16480	26	-5	5	125	129	5
-9948	-3148	12160	-13	15	-29	-14728	-6368	-4040	12	-7	10	-3976	-5416	15240	0	-20	25	-9920	3944	13152	17	-4	-18	-15040	2488	-6192	-3	-14	-5	-4464	-2112	16256	28	-2	4	125	129	5
-9968	-3100	12192	-16	17	-26	-14656	-6304	-4128	12	-6	16	-3888	-5424	15360	0	-18	23	-9912	3976	12960	13	-4	-17	-14920	2496	-6000	-6	-8	-6	-4328	-2160	16200	29	-2	4	125	129	5
-9908	-3116	12196	-17	20	-26	-14656	-6272	-4216	11	-8	11	-4008	-5336	15336	5	-20	23	-10120	3824	12640	16	-9	-16	-14968	2624	-5936	-8	-11	-5	-4392	-2048	16352	31	-2	3	125	129	5
-9880	-3108	12176	-12	16	-24	-14760	-6232	-4200	6	-7	7	-3960	-5312	15408	-8	-20	29	-9992	3760	12992	13	-2	-14	-15016	2632	-6056	-3	-8	-4	-4176	-2056	16440	25	-2	0	125	129	5
-9928	-3140	12160	-17	20	-26	-14688	-6352	-4176	8	-12	1	-3856	-5624	15336	-11	-19	26	-10024	3848	12856	17	-3	-12	-14920	2680	-5936	5	-11	-6	-4280	-1984	16472	27	-3	1	125	129	5
-9924	-3240	12168	-17	22	-23	-14584	-6392	-3832	13	-7	7	-3968	-5544	15120	1	-18	27	-9992	3936	12816	17	1	-18	-15056	2688	-5768	2	-6	-4	-4248	-1912	16432	28	5	4	125	129	5
-9936	-3172	12088	-14	22	-21	-14696	-6400	-3920	14	-4	12	-3936	-5696	15448	2	-19	25	-9904	3920	12928	11	-3	-18	-14856	2632	-6008	3	-5	-8	-4320	-1872	16360	22	0	4	125	129	5
-9932	-3100	12196	-13	15	-27	-14576	-6432	-3984	8	-2	12	-3928	-5496	15376	0	-18	24	-10080	3888	13024	10	4	-21	-14984	2496	-5792	0	0	-14	-4352	-1944	16160	27	4	5	125	129	5
-9880	-3104	12256	-13	22	-22	-14632	-6432	-3840	4	-1	12	-3920	-5432	15144	3	-19	23	-10000	3808	13016	16	-5	-19	-15112	2560	-6152	5	-2	-15	-4400	-1976	16360	24	3	4	125	129	5
