#Activity	sitting 
#ActivityID	5 
#Date 10-06-17-51
acc_rf_x	acc_rf_y	acc_rf_z	gyro_rf_x	gyro_rf_y	gyro_rf_z	acc_rs_x	acc_rs_y	acc_rs_z	gyro_rs_x	gyro_rs_y	gyro_rs_z	acc_rt_x	acc_rt_y	acc_rt_z	gyro_rt_x	gyro_rt_y	gyro_rt_z	acc_lf_x	acc_lf_y	acc_lf_z	gyro_lf_x	gyro_lf_y	gyro_lf_z	acc_ls_x	acc_ls_y	acc_ls_z	gyro_ls_x	gyro_ls_y	gyro_ls_z	acc_lt_x	acc_lt_y	acc_lt_z	gyro_lt_x	gyro_lt_y	gyro_lt_z	EMG_r	EMG_l	act
-11060	-4600	10672	-128	190	-205	-14004	2360	-8192	-16	-64	-62	-1824	-880	16952	198	-27	31	-11968	1756	11472	111	-27	-191	-15248	780	-6460	74	-7	182	-2428	-560	16612	64	-127	206	125	126	5
-11048	-4584	10600	-111	171	-169	-13992	2348	-8256	-34	-7	-46	-1804	-852	16964	187	-20	46	-11952	1664	11552	150	-15	-157	-15180	904	-6512	49	13	166	-2540	-468	16736	16	-107	197	125	127	5
-11052	-4532	10476	-73	158	-152	-13892	2340	-8236	-7	-56	-35	-1832	-904	17044	204	-26	10	-11888	1756	11604	76	-1	-175	-15272	900	-6600	57	1	192	-2436	-544	16788	19	-121	230	125	126	5
-10952	-4620	10580	-74	200	-153	-13884	2384	-8224	-13	-36	-6	-1816	-900	17048	208	22	-16	-11948	1744	11668	152	-80	-172	-15232	900	-6652	56	-26	192	-2488	-592	16604	-10	-130	226	125	126	5
-11012	-4552	10552	-59	174	-159	-13932	2380	-8224	-4	-50	-17	-1828	-836	17016	240	-1	3	-11964	1740	11564	128	-57	-185	-15236	816	-6496	80	-2	159	-2444	-620	16752	-28	-130	227	125	127	5
-11032	-4548	10636	-74	152	-145	-13944	2344	-8316	33	-31	-34	-1872	-796	16972	196	15	-10	-11960	1800	11644	131	-41	-155	-15236	808	-6496	51	-64	168	-2436	-644	16672	17	-121	228	125	127	5
-11004	-4548	10644	-76	180	-166	-13992	2400	-8252	-11	-11	-55	-1952	-796	17056	208	-23	30	-11924	1720	11588	144	-55	-188	-15260	796	-6580	68	-14	143	-2452	-604	16676	35	-141	227	125	127	5
-11028	-4580	10744	-102	159	-194	-13968	2432	-8200	-4	-24	-18	-1928	-756	17024	222	-7	25	-11968	1720	11568	125	-61	-174	-15240	824	-6652	50	-8	183	-2416	-572	16716	31	-118	202	125	126	5
-11024	-4552	10576	-91	165	-168	-13964	2376	-8288	3	-28	-67	-1908	-796	17020	179	-9	28	-11980	1688	11548	140	-53	-153	-15316	768	-6572	52	-21	183	-2452	-600	16716	46	-159	185	125	126	5
-11004	-4536	10564	-93	147	-145	-13952	2260	-8144	14	-14	-79	-1864	-868	17112	153	-14	12	-11924	1744	11616	145	-57	-113	-15292	868	-6436	72	-11	156	-2452	-516	16592	36	-114	212	125	127	5
-11076	-4524	10548	-126	152	-174	-13960	2352	-8336	-14	-66	-37	-1836	-888	17100	187	10	19	-11968	1696	11500	125	-36	-152	-15256	888	-6464	21	10	148	-2428	-604	16764	48	-121	201	125	126	5
-10984	-4588	10500	-134	133	-171	-13944	2400	-8092	-10	-83	-58	-1892	-908	17024	211	-19	22	-11940	1664	11528	160	-61	-168	-15276	832	-6588	28	-6	199	-2448	-512	16668	20	-125	209	125	126	5
-10996	-4588	10636	-139	153	-151	-13944	2340	-8216	-13	-30	-46	-1852	-860	16868	177	-7	22	-11976	1716	11560	152	-78	-169	-15248	788	-6508	75	-4	115	-2424	-560	16592	53	-141	247	125	127	5
-10992	-4612	10520	-151	141	-176	-13972	2372	-8208	3	-18	2	-1908	-876	16920	218	3	37	-11972	1724	11604	103	-44	-174	-15224	868	-6592	71	-21	158	-2488	-616	16732	-3	-153	244	125	127	5
-10960	-4636	10608	-152	129	-148	-14004	2312	-8272	-9	-7	-86	-1872	-820	17004	214	-15	-1	-11860	1724	11596	107	-58	-158	-15284	788	-6572	49	-2	166	-2416	-672	16564	-23	-187	232	125	126	5
-10948	-4600	10516	-117	129	-145	-13888	2368	-8288	2	-53	-22	-1896	-772	16932	203	8	54	-11972	1772	11584	137	-15	-154	-15208	812	-6548	57	1	160	-2456	-632	16744	7	-142	200	125	126	5
-10968	-4544	10512	-93	154	-163	-13932	2408	-8228	-58	-14	-29	-1912	-688	16996	184	-32	44	-11908	1700	11648	145	-67	-149	-15256	836	-6552	45	-21	173	-2456	-656	16696	33	-136	202	125	126	5
-11084	-4616	10632	-89	158	-145	-13996	2416	-8184	-22	-21	-44	-1904	-800	16980	191	-29	40	-11988	1744	11592	142	-27	-153	-15176	912	-6644	51	-56	174	-2512	-640	16608	67	-137	216	125	126	5
-11044	-4560	10476	-69	172	-167	-13972	2324	-8296	-14	-35	-65	-1928	-796	16964	166	-5	21	-11964	1796	11668	100	-11	-182	-15296	800	-6628	48	-58	174	-2512	-540	16740	56	-113	235	125	126	5
-10956	-4592	10520	-90	149	-162	-13948	2372	-8348	-1	-75	-28	-1836	-996	17048	287	-34	52	-11956	1704	11540	107	-53	-149	-15240	740	-6576	55	-53	172	-2480	-568	16584	42	-136	239	125	126	5
-11016	-4584	10608	-78	165	-146	-13940	2340	-8260	-21	-60	-58	-1868	-956	16928	215	-27	43	-11916	1732	11516	113	-17	-124	-15284	740	-6592	79	-58	150	-2396	-596	16700	40	-140	226	125	126	5
-11044	-4580	10656	-110	159	-189	-13964	2432	-8172	-2	-78	-65	-1824	-804	17044	189	-37	33	-11912	1664	11568	89	-39	-111	-15288	856	-6528	45	-50	172	-2364	-504	16616	6	-168	245	125	126	5
-11060	-4588	10580	-47	152	-150	-14012	2348	-8248	-32	-61	-34	-1776	-784	17048	159	-29	35	-11896	1784	11636	114	-26	-170	-15296	828	-6412	66	-52	168	-2364	-556	16672	18	-145	198	125	126	5
-11036	-4576	10620	-94	163	-147	-13916	2388	-8300	30	-62	-36	-1828	-816	16924	175	-45	33	-11940	1740	11616	156	-29	-152	-15284	768	-6584	11	-39	148	-2348	-608	16636	-17	-130	204	125	127	5
-11052	-4584	10512	-70	156	-141	-13996	2416	-8060	-6	-20	-58	-1860	-732	17008	159	-19	27	-11892	1816	11492	117	-32	-133	-15312	864	-6472	60	28	152	-2392	-604	16740	-1	-128	212	125	127	5
-10976	-4596	10548	-95	163	-176	-13920	2380	-8144	-28	-31	-66	-1876	-848	16960	179	-36	45	-11920	1776	11500	125	16	-141	-15260	844	-6576	86	41	147	-2364	-540	16748	11	-145	208	125	126	5
-11032	-4588	10608	-116	166	-156	-13964	2316	-8236	14	-21	-51	-1884	-860	17136	177	-19	43	-11976	1756	11612	96	-36	-180	-15192	796	-6488	87	22	165	-2500	-532	16652	-7	-127	261	125	127	5
-11036	-4556	10492	-151	160	-141	-13912	2272	-8160	-32	9	-53	-1924	-864	17036	180	-26	42	-11920	1780	11496	119	-47	-187	-15308	796	-6456	49	14	134	-2412	-544	16732	-48	-106	214	125	126	5
-11056	-4528	10472	-67	139	-160	-13952	2336	-8200	-2	-29	-69	-1900	-756	17092	164	-2	16	-11928	1724	11496	110	-49	-195	-15204	800	-6632	65	25	155	-2460	-640	16680	-16	-144	244	125	126	5
-11016	-4492	10648	-115	173	-147	-13900	2316	-8192	-3	-39	1	-1880	-860	17060	201	11	53	-11928	1732	11632	105	-35	-178	-15280	884	-6616	50	-68	148	-2508	-684	16668	-11	-125	212	125	126	5
-11012	-4604	10548	-86	151	-165	-13968	2300	-8204	7	-20	11	-1928	-788	17028	153	-14	22	-11876	1720	11476	133	-77	-165	-15204	728	-6676	64	-4	147	-2460	-664	16720	16	-157	204	125	127	5
-10972	-4516	10568	-149	153	-176	-13892	2428	-8120	-20	-53	-45	-1884	-796	16956	144	-16	27	-11920	1640	11500	127	-37	-182	-15212	732	-6532	54	-52	146	-2488	-668	16648	3	-130	187	125	126	5
-11040	-4528	10548	-111	149	-195	-13956	2348	-8180	-16	-50	-54	-1900	-828	17000	167	-73	26	-11924	1736	11532	133	-25	-177	-15236	856	-6484	69	-54	177	-2432	-648	16720	42	-145	247	125	126	5
-10996	-4580	10600	-145	162	-177	-13944	2344	-8200	-2	-60	-57	-1872	-840	17020	170	-46	27	-11980	1720	11576	125	-50	-193	-15264	808	-6592	59	-25	141	-2444	-616	16684	40	-143	200	125	126	5
-11020	-4604	10624	-95	170	-174	-13940	2316	-8232	-19	-83	-73	-1876	-876	17004	175	-47	48	-11972	1700	11576	134	-71	-183	-15292	812	-6424	64	-55	184	-2408	-572	16728	50	-114	189	125	126	5
-10980	-4588	10600	-101	169	-166	-13968	2336	-8256	-40	-34	-31	-1844	-828	17052	209	-42	23	-11912	1720	11540	148	-35	-112	-15292	788	-6588	58	-18	181	-2416	-548	16724	46	-120	203	125	126	5
-11040	-4600	10536	-100	155	-177	-13948	2392	-8140	-34	-32	-56	-1868	-888	17000	194	5	17	-11920	1768	11592	115	-22	-156	-15272	816	-6616	58	-17	163	-2424	-532	16696	19	-115	237	125	126	5
-10972	-4576	10544	-121	137	-167	-13936	2336	-8132	-2	-44	-24	-1816	-880	17048	183	-39	40	-11932	1756	11496	128	-57	-197	-15276	772	-6500	89	-1	174	-2336	-544	16772	4	-160	198	125	126	5
-11012	-4576	10616	-84	174	-149	-13932	2344	-8212	-4	-14	-46	-1848	-868	17096	184	-7	17	-11912	1680	11520	124	-54	-163	-15276	804	-6472	42	-30	148	-2460	-624	16536	-45	-133	238	125	126	5
-10972	-4540	10652	-99	190	-191	-13968	2324	-8152	-5	-45	-29	-1892	-816	17068	208	-16	43	-11924	1756	11500	115	-52	-186	-15264	812	-6480	53	-1	146	-2468	-612	16628	-4	-145	212	125	127	5
-11036	-4604	10528	-107	145	-119	-13932	2388	-8196	-4	2	-70	-1916	-768	17024	196	-51	5	-11940	1792	11540	98	-31	-159	-15236	836	-6548	61	-5	117	-2412	-592	16592	24	-152	213	125	126	5
-11028	-4552	10584	-82	147	-174	-13976	2372	-8160	-21	-48	-41	-1860	-808	17008	164	-38	18	-11968	1780	11576	139	-22	-164	-15240	764	-6596	56	26	131	-2364	-596	16660	-58	-146	228	125	126	5
-11008	-4564	10500	-102	166	-154	-13940	2424	-8288	14	-47	-37	-1896	-804	16984	158	-18	21	-11948	1724	11596	143	-75	-162	-15180	808	-6484	59	22	161	-2444	-668	16656	-16	-153	236	125	126	5
-11008	-4548	10432	-102	170	-168	-13912	2392	-8284	0	-36	-31	-1956	-740	17032	191	-34	1	-11940	1764	11664	140	-39	-146	-15272	748	-6568	48	-10	167	-2528	-596	16656	43	-144	207	125	126	5
-11052	-4604	10624	-119	174	-195	-13936	2364	-8340	-13	-66	-64	-1892	-844	17020	175	-4	41	-11932	1668	11488	104	-21	-175	-15280	796	-6584	72	-34	158	-2552	-664	16708	56	-165	208	125	126	5
-11008	-4580	10512	-109	132	-165	-13920	2384	-8232	3	-69	-82	-1944	-904	16924	207	-7	27	-11976	1748	11532	130	-94	-144	-15208	880	-6500	53	-50	93	-2492	-652	16736	24	-138	241	125	126	5
-11056	-4624	10532	-114	134	-191	-13932	2336	-8244	-29	-103	-61	-1916	-884	16976	142	-21	40	-11952	1700	11520	106	-47	-149	-15256	748	-6564	45	-77	114	-2444	-616	16608	17	-122	234	125	126	5
-11020	-4624	10556	-123	147	-163	-13944	2348	-8248	4	-100	-80	-1860	-880	16996	186	-23	42	-11932	1728	11488	112	-6	-164	-15296	792	-6556	51	-76	153	-2392	-600	16692	16	-134	201	125	126	5
-11000	-4552	10640	-110	162	-188	-13944	2340	-8084	-30	-72	-12	-1780	-760	16928	138	-35	25	-11892	1720	11656	112	-65	-101	-15244	780	-6616	52	-36	147	-2388	-576	16632	28	-131	220	125	126	5
-11092	-4584	10628	-138	157	-173	-13992	2376	-8052	-35	-52	-12	-1760	-864	17000	140	-9	12	-11944	1756	11668	149	-65	-160	-15320	824	-6440	43	-41	160	-2284	-644	16700	72	-144	212	125	126	5
-11032	-4556	10544	-172	151	-199	-14092	2320	-8196	7	-31	-13	-1724	-896	16864	165	-21	3	-11952	1756	11660	133	-57	-122	-15284	764	-6460	31	-22	207	-2260	-624	16716	40	-118	175	125	126	5
-10952	-4616	10584	-135	151	-182	-14020	2280	-8176	-7	22	6	-1720	-912	16848	190	17	22	-11956	1708	11584	127	-30	-177	-15276	800	-6524	46	-16	207	-2260	-596	16660	23	-120	201	125	126	5
-10996	-4584	10536	-140	171	-157	-13908	2360	-8164	-30	-10	-36	-1716	-900	17056	195	3	10	-11952	1688	11632	104	-57	-154	-15272	768	-6528	52	67	208	-2336	-576	16648	25	-133	171	125	126	5
-11012	-4528	10604	-68	159	-128	-13984	2300	-8048	-24	50	-15	-1852	-912	17032	197	2	-27	-11924	1760	11600	142	-4	-180	-15260	844	-6448	66	52	230	-2416	-580	16656	55	-111	167	125	126	5
-11012	-4592	10496	-67	200	-155	-14004	2420	-8196	10	67	28	-1940	-728	17096	314	84	1	-11968	1776	11656	128	-11	-180	-15260	776	-6544	66	70	234	-2460	-496	16736	26	-142	178	125	126	5
-11060	-4560	10544	-82	210	-108	-13948	2384	-8144	-5	99	-15	-1880	-796	16992	304	124	9	-11912	1720	11552	127	-11	-164	-15252	860	-6584	67	87	223	-2512	-532	16664	36	-107	192	125	126	5
-11008	-4580	10460	-49	215	-147	-13928	2344	-8224	15	38	5	-2116	-716	16904	237	49	32	-11996	1752	11536	82	-3	-159	-15240	900	-6496	12	32	181	-2684	-608	16636	41	-141	219	125	126	5
-11080	-4556	10556	-41	201	-155	-13976	2416	-8356	64	-22	6	-2192	-756	16964	236	-34	39	-11928	1764	11544	68	-10	-179	-15208	876	-6604	42	-3	124	-2736	-532	16644	-6	-132	210	125	126	5
-11036	-4528	10616	-87	184	-180	-13900	2452	-8268	42	-86	-29	-2180	-768	17004	320	5	55	-11988	1660	11576	118	-36	-182	-15172	876	-6688	53	-68	121	-2704	-604	16672	6	-177	230	125	126	5
-11008	-4568	10520	-69	186	-146	-13832	2400	-8372	-26	-137	-93	-2180	-644	16956	152	-58	32	-11948	1696	11596	96	-76	-130	-15260	776	-6540	83	-90	75	-2528	-684	16652	-10	-205	241	124	125	5
-11084	-4556	10628	-91	184	-227	-13868	2460	-8356	11	-203	-131	-2096	-632	16896	109	-62	70	-11948	1732	11576	97	-77	-166	-15156	824	-6656	98	-149	84	-2532	-696	16680	12	-180	278	125	126	5
-11048	-4608	10648	-133	156	-222	-13892	2540	-8224	-36	-188	-159	-1956	-720	16992	119	-82	120	-11908	1744	11564	132	-60	-180	-15260	764	-6636	43	-107	99	-2384	-704	16664	26	-168	292	125	126	5
-10964	-4556	10536	-140	155	-201	-13924	2408	-8144	-19	-194	-203	-1780	-808	16948	149	-46	108	-11880	1732	11656	134	-102	-151	-15308	732	-6560	13	-128	109	-2240	-688	16592	106	-149	250	125	125	5
-10988	-4604	10556	-169	129	-241	-13960	2316	-8140	-5	-151	-244	-1652	-864	17008	97	-59	144	-11912	1804	11640	150	-79	-168	-15296	820	-6528	32	-91	126	-2164	-536	16668	103	-152	260	125	125	5
-11016	-4632	10504	-193	171	-225	-14008	2260	-8144	-13	-158	-187	-1556	-1028	17068	122	-73	104	-11976	1760	11548	122	-53	-133	-15208	860	-6400	67	-32	150	-2076	-588	16624	102	-146	264	125	125	5
-11048	-4632	10620	-148	167	-178	-14056	2176	-8000	-35	-39	-106	-1484	-1076	16832	201	-16	49	-11952	1724	11512	123	-55	-135	-15300	788	-6468	21	22	184	-2160	-608	16644	64	-129	234	125	125	5
-10996	-4596	10516	-129	168	-170	-14004	2160	-8052	-7	-13	-35	-1592	-1120	16932	240	16	88	-11964	1708	11556	136	-19	-189	-15288	760	-6464	69	82	238	-2248	-628	16636	22	-130	208	125	125	5
-11004	-4664	10596	-79	204	-113	-14012	2180	-8116	-31	71	30	-1644	-1088	16916	304	22	2	-11908	1684	11588	116	-48	-167	-15276	776	-6448	73	64	212	-2396	-628	16592	37	-84	212	125	125	5
-11016	-4624	10596	20	184	-120	-13980	2220	-8196	2	81	139	-1808	-992	16888	346	79	-5	-11856	1708	11628	129	-18	-155	-15288	740	-6564	45	45	216	-2532	-644	16724	27	-98	212	125	125	5
-10964	-4596	10532	-64	186	-87	-13960	2312	-8172	-37	97	147	-1936	-856	16952	346	34	-47	-11980	1748	11552	130	-4	-161	-15152	772	-6608	19	34	258	-2576	-696	16676	35	-85	186	125	125	5
-11008	-4508	10608	-31	149	-123	-13908	2316	-8352	12	56	156	-1920	-792	16988	314	38	-61	-11940	1740	11504	148	-40	-143	-15212	764	-6588	41	4	256	-2596	-692	16772	67	-84	168	124	125	5
-11040	-4596	10500	-32	169	-98	-13928	2416	-8200	-50	36	143	-2064	-612	17072	277	77	-82	-11936	1728	11648	165	-28	-126	-15228	760	-6576	84	-59	284	-2492	-720	16652	51	-117	164	124	125	5
-11048	-4524	10660	-9	139	-111	-13928	2452	-8408	6	32	85	-2100	-556	17060	248	9	-56	-11944	1672	11548	160	-2	-113	-15252	852	-6612	41	-44	220	-2512	-628	16828	67	-164	138	124	125	5
-11028	-4508	10592	-61	185	-137	-13900	2480	-8248	22	-53	32	-2108	-576	17084	213	-3	-1	-11892	1680	11476	168	-21	-121	-15236	904	-6536	84	-75	221	-2556	-508	16660	59	-151	141	124	125	5
-11064	-4460	10480	-75	158	-140	-13872	2496	-8304	-34	-95	-54	-2020	-552	17104	180	-3	30	-11936	1752	11464	146	-64	-135	-15244	940	-6588	59	-71	171	-2484	-488	16736	72	-140	188	125	125	5
-11040	-4532	10492	-143	140	-193	-13972	2484	-8356	-54	-137	-97	-1992	-624	16992	186	-50	60	-11892	1800	11552	106	-28	-129	-15288	944	-6624	27	-87	142	-2468	-428	16708	112	-136	243	125	125	5
-11024	-4560	10632	-135	153	-223	-13928	2332	-8224	-27	-89	-158	-1944	-672	16944	105	-37	91	-11916	1748	11604	91	-85	-134	-15280	844	-6452	13	-50	67	-2436	-444	16660	48	-158	237	125	125	5
-11052	-4608	10636	-145	149	-211	-13948	2360	-8192	37	-107	-146	-1852	-788	17012	103	-45	93	-11936	1716	11588	87	-62	-205	-15236	856	-6532	59	-26	116	-2396	-496	16700	-46	-158	277	124	125	5
-11028	-4556	10540	-116	178	-178	-13940	2284	-8136	20	-90	-135	-1824	-832	16956	139	-53	57	-11944	1768	11520	91	-66	-187	-15264	780	-6416	111	-33	119	-2372	-440	16756	-71	-137	257	124	125	5
-10992	-4556	10608	-183	151	-184	-13940	2276	-8228	-38	-52	-114	-1716	-880	16956	186	-18	40	-11968	1732	11676	68	-43	-214	-15212	856	-6536	73	-27	64	-2336	-576	16588	-63	-142	266	124	125	5
-11060	-4628	10512	-113	177	-148	-14012	2184	-8228	-32	22	-105	-1708	-964	16920	173	-26	26	-11932	1684	11544	82	-33	-161	-15300	824	-6488	20	17	94	-2360	-680	16756	-34	-123	246	124	125	5
-11040	-4552	10436	-94	153	-193	-14004	2260	-8232	13	-8	-50	-1796	-912	16956	147	-29	33	-11956	1736	11676	112	-47	-209	-15244	712	-6560	65	20	147	-2372	-728	16680	2	-88	247	124	125	5
-11020	-4572	10540	-71	168	-200	-13972	2284	-8152	10	-22	-20	-1728	-968	16980	189	-23	-1	-11996	1720	11508	91	-35	-143	-15220	756	-6576	29	-6	137	-2356	-748	16620	22	-128	208	124	125	5
-11000	-4572	10656	-101	157	-146	-13924	2312	-8228	27	67	32	-1932	-912	16952	228	-8	-7	-11952	1660	11572	120	-29	-165	-15188	716	-6632	35	9	177	-2420	-680	16736	60	-124	204	125	125	5
-11064	-4552	10680	-112	169	-164	-13948	2264	-8240	-20	-13	2	-1880	-880	16976	226	24	-15	-11920	1672	11572	124	-23	-163	-15208	728	-6532	41	-25	248	-2496	-672	16696	41	-135	192	125	125	5
-10988	-4584	10480	-125	129	-154	-13972	2288	-8236	-4	5	25	-1884	-820	16928	224	8	15	-11952	1712	11504	187	-48	-153	-15244	760	-6492	41	-8	213	-2496	-612	16696	47	-135	135	124	126	5
-10992	-4556	10580	-116	123	-153	-13908	2396	-8292	10	10	8	-1940	-808	16988	229	-12	3	-11940	1728	11580	138	39	-135	-15232	868	-6608	43	-30	216	-2460	-672	16704	53	-98	170	124	126	5
-10976	-4488	10660	-100	180	-142	-13932	2360	-8240	5	0	-4	-1928	-732	17036	224	27	19	-11928	1856	11552	121	-29	-124	-15204	908	-6556	39	-41	229	-2504	-544	16664	89	-107	189	124	125	5
-11020	-4524	10532	-131	174	-163	-13924	2320	-8268	6	13	-61	-1864	-772	16892	220	-23	19	-11972	1772	11488	126	3	-137	-15296	924	-6540	29	-42	199	-2452	-460	16676	104	-113	219	124	126	5
-10988	-4544	10556	-128	185	-144	-13940	2388	-8244	-43	-35	-21	-1916	-760	17012	208	13	11	-11960	1740	11572	121	-11	-166	-15216	792	-6540	89	-29	194	-2416	-480	16688	81	-138	240	124	125	5
-10968	-4624	10496	-96	169	-132	-14000	2388	-8272	0	-71	-17	-1976	-688	17016	174	-29	22	-11928	1720	11600	84	-57	-144	-15280	888	-6448	74	-55	165	-2480	-416	16728	-4	-119	230	124	126	5
-11044	-4596	10620	-109	182	-183	-14004	2332	-8264	1	-29	-60	-1932	-752	17080	164	-28	32	-11948	1800	11556	108	-69	-166	-15224	908	-6520	59	7	100	-2472	-368	16596	-39	-154	206	124	126	5
-11008	-4548	10580	-76	168	-164	-13956	2368	-8180	-5	-42	-53	-1968	-804	17000	189	-17	13	-11936	1768	11576	105	-29	-196	-15304	908	-6504	65	-46	131	-2440	-524	16732	-29	-141	220	125	126	5
-10992	-4560	10504	-87	165	-194	-14020	2320	-8232	-4	-56	-62	-1964	-788	17064	101	-9	27	-11972	1708	11608	72	-32	-172	-15248	864	-6544	29	-30	83	-2384	-520	16632	-24	-127	244	125	126	5
-11000	-4552	10628	-71	156	-163	-13976	2340	-8224	-6	-50	-79	-1856	-792	16972	107	-51	27	-11936	1736	11616	100	-42	-197	-15208	764	-6448	52	-15	79	-2360	-560	16668	-33	-123	249	125	126	5
-11000	-4576	10616	-82	162	-205	-13908	2320	-8156	0	-25	-82	-1768	-828	16976	154	-17	46	-11880	1780	11552	93	-18	-226	-15272	820	-6416	55	43	88	-2368	-620	16692	-36	-137	247	125	126	5
-10984	-4556	10556	-149	170	-186	-14040	2364	-8056	1	1	-86	-1708	-844	17016	188	17	44	-11944	1724	11588	74	-31	-193	-15264	744	-6600	51	25	133	-2388	-640	16660	-19	-141	251	124	126	5
-11060	-4616	10568	-115	200	-146	-14072	2292	-8036	14	-35	-72	-1860	-944	16912	184	-14	46	-11880	1716	11512	83	-17	-175	-15336	812	-6660	84	18	172	-2428	-660	16592	-7	-130	224	125	126	5
-11056	-4532	10684	-137	165	-157	-13932	2336	-8112	5	7	-64	-1792	-980	16952	178	-15	34	-11972	1704	11576	125	-42	-147	-15232	768	-6604	49	43	159	-2484	-644	16692	14	-114	226	124	126	5
-11032	-4680	10528	-83	204	-153	-14028	2332	-8212	3	7	-56	-1956	-976	16988	188	14	16	-11944	1684	11564	133	-27	-173	-15204	844	-6648	41	3	202	-2544	-660	16648	45	-87	202	124	126	5
-11056	-4552	10588	-111	164	-143	-13944	2292	-8356	7	34	30	-2004	-912	16892	195	-21	-5	-11912	1656	11552	152	-54	-155	-15252	800	-6564	49	-35	163	-2544	-692	16648	47	-127	158	124	126	5
-10984	-4524	10480	-114	161	-146	-13936	2364	-8260	17	-2	-9	-2028	-856	17040	187	-13	-20	-11864	1764	11608	137	-66	-148	-15200	816	-6596	56	-56	195	-2528	-680	16684	19	-115	155	124	126	5
-10936	-4548	10668	-84	158	-170	-13988	2352	-8112	-12	-68	2	-2000	-840	17008	195	-10	19	-11976	1700	11560	132	-39	-146	-15248	844	-6660	68	-49	165	-2468	-564	16688	86	-165	194	124	126	5
-11052	-4532	10696	-127	172	-177	-13948	2384	-8228	-13	-82	-5	-1888	-752	16972	212	-14	37	-11964	1724	11492	164	-37	-123	-15264	800	-6476	64	-55	161	-2408	-584	16768	76	-108	238	124	126	5
-11052	-4564	10560	-125	120	-163	-13940	2440	-8352	-4	-61	-60	-1924	-824	16976	203	-8	32	-11932	1820	11644	124	-71	-141	-15244	864	-6468	50	-40	147	-2360	-580	16692	60	-134	236	125	126	5
-11036	-4632	10588	-94	162	-177	-13912	2372	-8208	-4	-49	-60	-1868	-776	16984	207	-41	31	-11924	1740	11488	167	-55	-147	-15280	900	-6524	11	-63	136	-2336	-508	16676	87	-126	248	125	126	5
-11020	-4544	10612	-103	147	-173	-13960	2336	-8324	11	-70	-18	-1900	-852	17032	174	-17	43	-11932	1804	11560	125	-90	-144	-15288	876	-6604	-1	-32	120	-2344	-512	16732	79	-131	272	124	126	5
-11020	-4548	10512	-118	146	-156	-13968	2344	-8216	2	-53	-65	-1780	-816	17016	260	-14	41	-11936	1680	11580	123	-45	-193	-15256	848	-6576	52	3	99	-2332	-524	16688	31	-121	255	124	126	5
-10984	-4596	10560	-104	171	-185	-14004	2404	-8264	-6	-55	-44	-1796	-800	16944	242	-18	30	-11940	1784	11512	84	-47	-172	-15276	780	-6568	102	-12	107	-2380	-584	16640	-7	-130	221	125	126	5
-10984	-4612	10528	-98	140	-175	-13932	2344	-8120	-45	-36	-33	-1864	-788	16944	211	-32	64	-11912	1712	11680	100	-67	-181	-15280	832	-6416	77	28	134	-2356	-600	16760	15	-155	240	124	126	5
-10996	-4556	10496	-108	187	-148	-13968	2332	-8172	-3	-39	19	-1848	-744	16996	211	-1	32	-11928	1720	11520	114	-47	-173	-15244	852	-6548	51	11	139	-2396	-576	16708	-14	-94	213	125	126	5
-11048	-4560	10624	-91	232	-116	-13976	2392	-8200	0	-17	-22	-1872	-808	17076	171	11	-14	-11968	1752	11564	143	-53	-190	-15244	768	-6568	26	47	158	-2472	-588	16648	14	-119	205	125	126	5
-11076	-4564	10532	-96	193	-156	-13944	2320	-8284	24	-15	-36	-1920	-740	17088	204	-7	6	-11964	1688	11512	111	-46	-203	-15256	864	-6652	50	-5	154	-2468	-668	16608	51	-131	231	124	126	5
-11044	-4568	10548	-118	191	-155	-13960	2360	-8252	-4	-49	-7	-1908	-844	17080	204	17	29	-11924	1660	11536	125	-16	-158	-15236	800	-6556	77	1	170	-2524	-592	16756	51	-118	231	124	126	5
-11060	-4576	10644	-111	179	-159	-13920	2264	-8188	-5	-48	3	-1948	-852	17016	204	-2	38	-11928	1788	11584	141	-66	-142	-15240	788	-6520	63	-11	171	-2484	-572	16724	22	-148	215	124	126	5
-10984	-4572	10440	-87	153	-134	-13984	2280	-8284	-22	-55	-17	-1932	-820	17148	182	50	16	-11968	1720	11636	127	-35	-125	-15296	828	-6616	69	-51	128	-2448	-532	16776	31	-134	260	125	126	5
-11040	-4572	10520	-78	181	-153	-13996	2360	-8188	2	-41	-66	-1908	-772	17092	179	-24	3	-11936	1680	11624	93	-72	-175	-15232	812	-6420	38	-41	143	-2448	-612	16776	50	-118	196	125	126	5
-10916	-4564	10524	-109	186	-201	-13984	2328	-8132	11	-66	-41	-1860	-748	17024	178	-29	26	-11932	1696	11576	110	-17	-168	-15244	764	-6648	45	-29	156	-2456	-584	16688	38	-151	198	124	126	5
-10972	-4584	10512	-68	174	-169	-13916	2360	-8276	13	-43	-30	-1908	-784	16884	176	20	39	-11888	1616	11516	148	-51	-144	-15276	816	-6676	93	-61	149	-2456	-576	16648	-10	-149	158	125	126	5
-11012	-4524	10516	-88	137	-162	-13936	2428	-8328	-38	-10	-62	-1912	-740	16876	186	-25	6	-11980	1736	11552	124	-30	-173	-15248	820	-6644	89	-46	192	-2416	-496	16612	61	-172	201	125	126	5
-11048	-4524	10592	-158	145	-149	-13924	2356	-8148	-37	-9	-90	-1936	-792	17080	200	-32	70	-11964	1788	11580	130	-68	-132	-15256	880	-6628	18	-37	142	-2392	-568	16680	15	-138	271	125	127	5
-10956	-4568	10512	-204	151	-165	-14024	2332	-8248	22	-14	-47	-1828	-836	17076	180	-33	40	-11928	1720	11576	122	-37	-148	-15264	804	-6472	29	-31	195	-2328	-576	16740	44	-126	198	125	127	5
-11012	-4592	10548	-110	177	-180	-13936	2392	-8168	43	-61	-34	-1836	-852	17060	203	-25	52	-12000	1716	11560	159	-70	-174	-15296	744	-6720	60	5	186	-2384	-632	16632	21	-94	217	124	126	5
-11064	-4568	10568	-185	157	-155	-13904	2312	-8212	-23	-70	-56	-1952	-860	16976	226	-18	63	-11916	1816	11572	120	-62	-186	-15300	864	-6468	64	3	181	-2444	-644	16652	18	-123	172	124	127	5
-10996	-4584	10556	-103	152	-162	-13956	2336	-8176	-17	-28	-60	-1884	-840	16924	202	-4	27	-11948	1780	11576	133	-57	-136	-15276	844	-6672	79	-25	175	-2496	-600	16624	45	-126	184	125	127	5
-11048	-4592	10532	-121	141	-171	-13920	2364	-8208	-22	-38	-4	-1916	-856	16960	123	-37	1	-11844	1716	11644	162	-32	-131	-15280	872	-6452	56	-17	149	-2472	-624	16668	14	-133	205	124	127	5
-11040	-4600	10532	-78	158	-173	-13952	2296	-8232	9	-38	-24	-1892	-744	17036	151	-29	10	-11920	1708	11532	100	-5	-168	-15300	876	-6632	30	-36	170	-2428	-628	16656	30	-135	201	124	126	5
-11016	-4512	10652	-87	185	-142	-13980	2420	-8228	19	-47	-17	-1888	-780	17012	184	-20	25	-11948	1708	11552	71	-4	-169	-15200	796	-6580	50	-13	166	-2332	-584	16616	13	-153	212	125	126	5
-10968	-4564	10616	-37	179	-176	-13960	2360	-8152	-63	-47	-40	-1876	-808	16984	236	14	13	-11924	1716	11596	137	-62	-129	-15264	800	-6496	99	-18	169	-2504	-632	16580	21	-140	187	124	127	5
-11032	-4584	10632	-62	181	-156	-13992	2368	-8128	-77	-90	-61	-1876	-700	16884	198	-23	35	-11952	1728	11592	103	11	-164	-15220	884	-6540	103	-27	204	-2444	-540	16600	51	-156	217	125	127	5
-10976	-4540	10616	-94	210	-168	-13872	2400	-8240	-20	-34	-49	-1848	-684	16896	197	-7	25	-11880	1724	11608	113	-30	-149	-15252	856	-6532	18	-38	202	-2392	-552	16728	20	-131	254	124	127	5
-11076	-4576	10572	-80	189	-152	-14032	2308	-8164	14	-37	-73	-1824	-788	17048	167	-8	34	-11988	1776	11508	79	-79	-141	-15212	852	-6532	20	-30	147	-2384	-516	16540	15	-142	225	125	126	5
-11000	-4636	10576	-108	141	-133	-13932	2428	-8248	9	-49	-71	-1868	-836	17032	190	-33	38	-11936	1736	11620	135	-23	-177	-15200	788	-6556	82	-15	163	-2472	-524	16700	18	-147	200	125	127	5
-10972	-4572	10540	-102	161	-156	-13952	2384	-8072	-5	-37	-66	-1844	-820	17016	179	-21	23	-11916	1744	11532	113	-29	-185	-15252	880	-6620	50	24	124	-2392	-496	16624	-35	-128	211	125	127	5
-11052	-4608	10624	-87	171	-170	-13928	2332	-8168	19	-31	-2	-1860	-836	17028	152	2	13	-11916	1756	11584	104	-85	-188	-15228	888	-6476	57	18	141	-2408	-524	16692	-6	-110	223	125	127	5
-11020	-4536	10584	-112	181	-167	-13976	2356	-8196	-8	-32	-44	-1876	-860	16948	137	-10	8	-11960	1708	11584	79	-48	-188	-15268	840	-6616	14	26	102	-2404	-508	16660	-66	-125	270	125	127	5
-11040	-4532	10608	-125	180	-174	-13960	2372	-8164	38	-21	-43	-1940	-892	17092	162	-19	14	-11968	1760	11552	95	-54	-205	-15252	764	-6524	66	31	95	-2464	-660	16760	-38	-147	230	125	126	5
-11056	-4540	10572	-127	152	-196	-13948	2368	-8300	6	-48	-53	-1936	-792	17152	192	-33	41	-11952	1740	11664	103	-21	-179	-15192	760	-6532	91	0	129	-2448	-664	16668	-35	-163	240	125	126	5
-11024	-4524	10532	-100	128	-190	-13916	2380	-8216	-9	-44	-91	-1912	-804	17052	180	-25	9	-11920	1740	11600	99	-14	-138	-15260	780	-6464	84	-27	113	-2480	-708	16616	-27	-149	227	125	126	5
-11016	-4512	10484	-111	150	-132	-13908	2352	-8188	-24	-59	-42	-1908	-804	17008	156	-54	40	-11948	1724	11504	147	-39	-169	-15316	796	-6524	69	-21	120	-2424	-724	16752	18	-151	215	124	127	5
-11008	-4536	10560	-134	157	-171	-13916	2420	-8232	4	-43	-70	-1888	-808	17044	145	-30	42	-11948	1732	11564	134	-66	-162	-15248	756	-6452	36	-61	192	-2464	-736	16660	0	-150	217	125	127	5
-11020	-4576	10520	-120	152	-190	-13988	2340	-8120	-8	-23	-65	-1856	-792	16968	169	-30	35	-11988	1696	11632	114	-26	-149	-15248	832	-6572	63	-32	191	-2372	-624	16664	61	-173	183	125	127	5
-11040	-4564	10572	-105	174	-159	-13940	2332	-8140	-29	-37	-84	-1792	-900	16988	177	6	69	-11976	1712	11496	168	-3	-130	-15260	796	-6528	57	-34	161	-2448	-496	16728	113	-112	227	125	126	5
-10996	-4608	10560	-94	146	-162	-13988	2296	-8204	-31	-56	-48	-1872	-916	17028	181	-29	37	-11968	1668	11480	121	-35	-152	-15236	884	-6564	8	-53	206	-2416	-524	16560	90	-124	238	125	126	5
-10952	-4564	10568	-85	192	-157	-13964	2312	-8156	38	-63	8	-1860	-888	17132	222	5	24	-11940	1724	11660	147	-98	-145	-15228	816	-6624	88	-11	180	-2452	-508	16628	57	-112	221	125	126	5
-11052	-4588	10548	-69	154	-175	-13956	2320	-8152	-10	-79	10	-1816	-784	17016	205	4	1	-11888	1732	11556	136	-46	-186	-15276	864	-6560	76	37	163	-2456	-496	16668	2	-103	211	125	126	5
-10984	-4580	10612	-104	178	-127	-13960	2336	-8180	-46	1	-10	-1880	-836	17024	205	-21	7	-11896	1708	11484	118	-82	-176	-15272	808	-6584	55	-3	145	-2392	-544	16644	-39	-143	244	124	126	5
-11056	-4592	10668	-85	178	-168	-13956	2384	-8236	-45	-52	30	-1824	-752	17024	260	9	19	-11968	1708	11472	121	-25	-174	-15288	800	-6608	47	-16	154	-2464	-596	16636	-20	-133	220	124	126	5
-11040	-4560	10648	-99	158	-153	-13920	2416	-8212	-21	-38	-19	-1896	-768	16900	197	-11	15	-11924	1752	11616	114	-62	-179	-15228	800	-6536	70	22	174	-2424	-616	16660	4	-134	210	125	126	5
-10996	-4552	10580	-84	172	-143	-13904	2356	-8308	-9	-17	-69	-1816	-744	17096	215	-14	7	-11900	1640	11596	118	-13	-183	-15252	792	-6492	50	-24	168	-2440	-544	16668	54	-134	234	125	126	5
-10964	-4612	10544	-95	174	-177	-13928	2416	-8260	12	-14	-39	-1924	-740	16956	201	-7	35	-11968	1780	11516	116	-89	-159	-15232	832	-6540	44	-12	145	-2484	-560	16716	35	-121	233	125	126	5
-11012	-4572	10524	-100	180	-184	-13960	2292	-8280	20	-44	-70	-1916	-748	17008	170	-28	46	-11936	1692	11560	132	-32	-161	-15252	820	-6516	60	1	158	-2468	-592	16704	59	-143	211	125	126	5
-11000	-4532	10508	-154	185	-153	-13976	2328	-8244	-29	-58	-74	-1920	-828	16928	186	-37	53	-11980	1736	11532	130	-38	-172	-15304	768	-6540	87	-26	150	-2500	-596	16680	7	-146	239	125	126	5
-11064	-4580	10596	-146	155	-199	-13948	2304	-8252	-25	-58	-81	-1868	-780	17048	186	-39	53	-11908	1768	11596	127	-34	-161	-15248	868	-6548	67	-25	139	-2452	-544	16584	11	-159	233	125	126	5
-10980	-4604	10524	-87	166	-162	-13968	2284	-8228	5	-51	-91	-1792	-900	17072	188	-9	40	-11964	1732	11620	142	-61	-145	-15252	748	-6616	70	-16	159	-2464	-564	16656	0	-161	251	124	126	5
-11024	-4584	10504	-116	131	-158	-14020	2344	-8128	-25	-41	-111	-1836	-892	17012	119	-2	12	-11912	1716	11676	103	-71	-158	-15236	784	-6400	48	24	159	-2416	-556	16648	14	-119	240	125	126	5
-11092	-4528	10632	-114	198	-155	-13940	2332	-8180	0	-61	-28	-1848	-916	17036	123	-63	13	-11952	1696	11556	91	-45	-185	-15220	880	-6500	49	-4	161	-2352	-572	16672	27	-118	236	125	126	5
-11008	-4604	10516	-116	191	-183	-13956	2332	-8224	-5	-57	-22	-1860	-920	16980	201	-12	2	-11936	1724	11632	136	-34	-140	-15232	812	-6576	52	45	133	-2404	-616	16732	11	-106	214	125	126	5
-10984	-4544	10520	-173	169	-154	-13904	2376	-8200	-7	5	-7	-1880	-912	17104	209	4	7	-11944	1784	11540	133	-53	-170	-15272	760	-6532	63	11	150	-2504	-588	16648	-9	-121	221	125	126	5
-10972	-4604	10572	-121	171	-158	-14032	2324	-8196	-4	12	7	-1952	-852	16860	204	-15	7	-11928	1760	11608	122	-106	-205	-15292	828	-6684	42	-13	141	-2460	-676	16600	-13	-128	215	124	126	5
-11056	-4572	10596	-123	162	-197	-13948	2388	-8280	19	-23	-11	-1944	-816	17088	224	-47	7	-11944	1696	11480	129	-94	-138	-15236	768	-6564	84	16	140	-2428	-656	16704	-23	-134	205	124	126	5
-11064	-4572	10520	-140	184	-159	-13920	2448	-8296	-20	-54	-62	-1936	-712	16948	209	23	8	-11944	1716	11584	115	-49	-173	-15236	784	-6528	53	-70	161	-2400	-684	16680	0	-129	225	125	126	5
-11056	-4568	10568	-102	193	-169	-13960	2428	-8188	4	-22	-29	-1984	-688	17044	172	-37	33	-11884	1720	11524	105	-58	-140	-15256	852	-6544	70	10	196	-2500	-712	16676	55	-120	222	124	126	5
-11000	-4552	10576	-133	171	-184	-13940	2372	-8276	-21	-90	-46	-1956	-812	17008	191	-48	37	-11980	1744	11476	132	-81	-135	-15240	884	-6572	22	-25	185	-2476	-644	16628	42	-106	194	125	126	5
-11012	-4548	10540	-105	177	-144	-13932	2344	-8316	-28	-7	-81	-1900	-896	16976	172	-23	44	-11916	1756	11584	118	-34	-145	-15240	780	-6500	39	-29	187	-2420	-520	16668	75	-109	189	124	126	5
-11004	-4540	10484	-110	160	-204	-13960	2276	-8212	0	-82	-36	-1852	-872	17076	187	-13	65	-11952	1696	11564	128	-26	-146	-15240	828	-6552	43	-45	163	-2400	-516	16708	28	-160	241	125	126	5
-10960	-4628	10508	-101	166	-185	-13968	2324	-8200	-44	-67	-48	-1884	-892	16992	205	-20	36	-11912	1712	11496	119	-40	-175	-15260	792	-6520	65	-13	191	-2440	-596	16764	1	-149	252	124	126	5
-11036	-4572	10584	-69	166	-133	-14008	2300	-8280	-47	-39	19	-1848	-876	16828	207	23	29	-11996	1736	11564	94	-30	-131	-15300	784	-6496	84	-16	164	-2436	-600	16672	6	-145	205	125	126	5
-11044	-4600	10524	-66	159	-167	-14004	2304	-8268	-1	-39	21	-1836	-804	16948	254	-13	51	-11864	1724	11536	96	-37	-185	-15252	784	-6588	26	-49	190	-2372	-692	16636	47	-126	221	125	126	5
-11056	-4628	10612	-77	167	-163	-13936	2360	-8152	-32	-45	-38	-1868	-876	16932	230	-8	31	-11888	1716	11564	83	-42	-172	-15240	804	-6528	44	-48	199	-2444	-616	16656	66	-136	221	125	126	5
-11032	-4620	10596	-75	191	-141	-13988	2428	-8200	-10	-26	4	-1908	-756	16944	243	-17	13	-11936	1716	11616	128	-44	-165	-15280	824	-6452	56	-11	165	-2420	-604	16728	58	-133	202	125	126	5
-10924	-4532	10548	-113	161	-159	-13984	2380	-7984	-30	-44	-5	-1804	-752	17036	229	-19	-13	-11916	1712	11616	99	-41	-132	-15252	716	-6508	64	-14	198	-2380	-620	16632	13	-148	196	125	126	5
-11012	-4596	10552	-116	121	-149	-13960	2404	-8248	-14	-50	-53	-1892	-680	16864	182	-35	16	-11936	1708	11644	152	-49	-121	-15324	800	-6640	69	-35	196	-2432	-568	16668	-1	-154	193	125	126	5
-10996	-4556	10476	-109	161	-165	-13936	2376	-8288	-34	-38	-40	-1880	-748	17096	163	-12	17	-11908	1688	11584	133	-39	-145	-15260	820	-6472	76	-27	154	-2452	-556	16692	31	-141	177	125	126	5
-10956	-4560	10528	-107	166	-207	-13928	2384	-8108	4	-72	-59	-1900	-804	16924	158	-20	29	-11912	1792	11544	123	-88	-149	-15228	868	-6652	72	-24	167	-2428	-516	16728	4	-146	204	124	126	5
-11004	-4604	10588	-121	155	-142	-13944	2392	-8148	-40	-26	-61	-1884	-808	16944	165	29	13	-11980	1720	11592	94	-55	-158	-15284	912	-6496	64	8	143	-2424	-456	16676	-16	-137	262	125	126	5
-10992	-4608	10656	-120	136	-153	-13940	2332	-8136	11	-68	-58	-1824	-824	17000	198	-3	6	-11912	1724	11588	101	-58	-179	-15236	864	-6480	43	22	121	-2372	-560	16648	4	-133	240	125	126	5
-11016	-4596	10604	-148	184	-191	-13976	2324	-8224	13	17	-127	-1900	-840	17056	167	-22	41	-11932	1752	11576	97	-20	-157	-15232	808	-6504	75	25	123	-2488	-584	16688	0	-161	273	125	126	5
-11044	-4604	10552	-80	161	-170	-14012	2292	-8156	-11	-35	-76	-1920	-816	16952	196	-11	42	-11952	1696	11620	98	-45	-165	-15216	804	-6556	58	18	136	-2480	-596	16692	-4	-131	253	125	126	5
-11076	-4576	10620	-125	173	-185	-13992	2304	-8196	16	-24	-58	-1904	-852	17040	176	-21	25	-11988	1676	11544	108	-22	-215	-15220	744	-6632	37	-22	149	-2416	-676	16712	0	-105	261	125	126	5
-11004	-4560	10500	-137	166	-179	-13984	2320	-8160	-4	-71	-61	-1828	-808	17100	151	-16	22	-11948	1720	11524	142	-28	-162	-15212	848	-6572	51	20	161	-2388	-644	16676	13	-140	223	125	126	5
-11012	-4612	10568	-104	133	-166	-13944	2312	-8208	-23	-28	-42	-1880	-844	16964	190	-21	50	-11916	1732	11624	83	-17	-169	-15176	744	-6592	53	-8	167	-2452	-612	16756	-7	-111	213	125	126	5
-11060	-4564	10536	-90	173	-151	-14000	2280	-8256	-12	-84	-47	-1892	-868	17056	145	-3	3	-11940	1796	11504	156	-34	-144	-15212	772	-6560	31	-27	192	-2432	-652	16640	38	-131	209	125	126	5
-11040	-4596	10568	-101	193	-154	-14000	2328	-8132	-11	-42	-18	-1880	-796	16964	150	1	1	-11916	1780	11596	122	-32	-163	-15292	872	-6552	62	-21	165	-2464	-596	16648	48	-130	209	125	126	5
-10976	-4588	10628	-108	153	-194	-13932	2344	-8152	0	-80	-21	-1912	-872	17040	186	-9	32	-11956	1792	11536	128	-29	-183	-15252	856	-6572	69	-18	195	-2456	-584	16692	47	-130	224	125	126	5
-11040	-4600	10508	-71	137	-195	-13944	2356	-8156	-41	-41	-22	-1864	-776	17000	216	-22	26	-11944	1708	11480	132	-42	-153	-15260	752	-6544	49	-33	184	-2396	-572	16712	51	-95	229	125	126	5
-11024	-4592	10660	-68	157	-170	-13988	2348	-8308	-6	-46	-10	-1892	-804	17028	214	7	4	-11956	1764	11600	113	-15	-152	-15220	796	-6464	29	-11	152	-2388	-600	16600	8	-119	206	125	127	5
-11000	-4496	10504	-87	188	-147	-13992	2348	-8144	-21	-34	-28	-1824	-828	16940	195	26	32	-11984	1752	11572	105	-40	-192	-15308	800	-6612	53	-1	148	-2420	-468	16588	29	-146	215	125	126	5
-11008	-4504	10592	-91	143	-153	-13904	2336	-8216	-10	-37	-49	-1876	-812	16968	183	-27	56	-11932	1712	11616	103	-44	-177	-15252	840	-6624	11	26	137	-2484	-540	16628	34	-115	261	125	127	5
-11000	-4584	10500	-112	183	-188	-14032	2288	-8184	11	-13	-29	-1920	-840	17112	191	13	37	-11964	1788	11616	89	-68	-171	-15336	792	-6576	38	-23	153	-2400	-564	16728	-5	-150	231	124	127	5
-11008	-4560	10532	-119	189	-130	-13964	2344	-8288	-3	-28	-44	-1900	-848	17060	188	-12	25	-11956	1744	11588	103	-10	-167	-15260	792	-6576	37	7	148	-2524	-492	16716	6	-151	247	125	127	5
-11068	-4612	10552	-105	181	-167	-13964	2352	-8276	-58	-65	-18	-1948	-896	17048	185	5	18	-11912	1736	11524	78	-33	-143	-15272	800	-6576	44	-4	127	-2468	-628	16756	20	-137	226	125	127	5
-11008	-4536	10572	-97	147	-169	-13952	2348	-8184	23	-48	-22	-2020	-796	16968	202	-1	3	-11948	1752	11552	126	-61	-178	-15272	868	-6632	78	-16	121	-2496	-632	16720	-15	-133	220	125	126	5
-10996	-4544	10616	-94	144	-170	-13916	2368	-8228	0	-109	-54	-1940	-860	16876	218	-26	18	-11956	1684	11576	116	-107	-145	-15296	768	-6608	45	-69	148	-2512	-644	16584	17	-187	222	125	127	5
-11012	-4488	10612	-153	145	-185	-13952	2376	-8324	-29	-67	-64	-1896	-748	16964	191	-22	12	-11944	1724	11564	122	-19	-174	-15240	812	-6544	33	-32	149	-2376	-672	16648	34	-155	257	125	126	5
-11044	-4552	10548	-167	135	-189	-13940	2368	-8280	-4	-80	-43	-1812	-808	16940	156	-43	65	-11988	1776	11452	144	-46	-164	-15300	784	-6524	29	-43	183	-2380	-604	16704	37	-136	228	125	127	5
-10992	-4564	10540	-178	131	-184	-13968	2376	-8160	8	-70	-72	-1704	-824	16908	170	-38	76	-11908	1728	11496	155	-49	-147	-15220	820	-6596	64	-53	167	-2348	-604	16580	80	-106	204	125	127	5
-11008	-4568	10608	-135	150	-196	-13964	2348	-8076	-35	-46	-66	-1684	-884	17020	148	10	48	-11896	1772	11588	147	-62	-127	-15312	812	-6456	55	-43	195	-2292	-560	16692	116	-132	235	125	127	5
-10992	-4612	10484	-96	164	-194	-14012	2272	-8172	-34	-57	-46	-1784	-964	16968	159	-24	31	-11936	1716	11596	121	-52	-131	-15308	772	-6512	65	-23	173	-2360	-524	16600	79	-104	216	125	127	5
-11028	-4564	10572	-55	171	-171	-13972	2276	-8120	-28	8	27	-1764	-904	16940	211	24	5	-11952	1756	11580	107	-59	-149	-15264	840	-6460	81	39	187	-2400	-440	16676	18	-122	213	125	127	5
-11024	-4632	10528	-73	187	-128	-13904	2348	-8216	-13	30	31	-1812	-848	17096	223	36	-24	-11932	1736	11624	113	-11	-163	-15236	872	-6480	78	4	166	-2464	-488	16696	0	-140	184	124	127	5
-11044	-4612	10620	-85	185	-112	-13980	2388	-8180	-8	25	50	-1860	-700	16912	246	47	-45	-11912	1736	11608	90	-17	-171	-15280	824	-6612	80	57	187	-2460	-492	16692	-42	-136	164	125	127	5
-10992	-4532	10620	-34	183	-128	-13968	2392	-8276	-2	38	21	-1932	-748	17024	234	23	-51	-11916	1632	11544	125	-23	-184	-15276	880	-6504	73	27	184	-2472	-592	16664	-53	-136	195	125	126	5
-11036	-4588	10648	-39	175	-166	-13932	2404	-8188	0	35	-13	-2020	-740	17052	172	-6	-2	-11908	1732	11608	106	-18	-167	-15268	816	-6588	40	29	197	-2460	-656	16660	-9	-91	176	125	127	5
-11040	-4536	10480	-107	213	-177	-13892	2368	-8304	24	-5	-37	-2020	-704	16864	175	17	-21	-11940	1748	11512	95	-24	-172	-15256	808	-6616	105	17	152	-2480	-624	16716	2	-139	202	125	126	5
-11016	-4588	10592	-77	167	-192	-13904	2412	-8320	38	25	-35	-2004	-676	16984	174	-17	34	-11972	1764	11652	95	-34	-169	-15224	880	-6592	80	9	153	-2520	-588	16648	2	-121	207	125	127	5
-11024	-4544	10520	-104	155	-196	-13896	2408	-8164	0	-52	-106	-2040	-736	16972	120	29	52	-12012	1684	11556	75	-45	-170	-15232	892	-6680	24	3	150	-2520	-568	16616	-30	-177	252	125	127	5
-11068	-4528	10488	-117	166	-194	-14012	2432	-8228	32	-57	-77	-2024	-796	17004	136	-49	63	-12016	1704	11524	98	-35	-152	-15236	876	-6560	51	-30	91	-2484	-608	16804	-9	-139	255	125	127	5
-10992	-4576	10568	-127	162	-186	-13956	2384	-8188	-21	-90	-111	-1988	-840	16964	197	-3	35	-11928	1724	11576	119	-74	-184	-15212	860	-6508	59	-31	122	-2476	-624	16456	-50	-156	265	125	127	5
-11000	-4564	10700	-132	170	-181	-13932	2352	-8224	-19	-104	-86	-1900	-928	16956	185	-71	87	-11932	1748	11572	100	-61	-174	-15236	836	-6504	67	-60	106	-2460	-768	16696	9	-146	254	125	127	5
-11048	-4584	10504	-82	143	-166	-13932	2356	-8260	-39	-101	-88	-1916	-868	16924	184	-29	42	-11940	1692	11512	106	-83	-163	-15308	756	-6564	99	-44	129	-2380	-792	16680	51	-177	298	125	127	5
-10992	-4600	10580	-144	141	-168	-13976	2316	-8168	-51	-131	-110	-1888	-908	17000	187	0	70	-11956	1688	11532	111	-64	-170	-15260	760	-6512	50	-94	165	-2440	-676	16636	105	-173	249	125	127	5
-11028	-4544	10536	-138	160	-173	-13976	2392	-8240	-1	-103	-65	-1824	-888	17016	154	-55	8	-11892	1736	11644	147	-39	-129	-15252	772	-6552	19	-24	128	-2416	-592	16788	102	-129	246	125	127	5
-11040	-4604	10584	-124	159	-175	-13940	2224	-8196	-16	-131	-45	-1812	-916	17040	225	-3	32	-11912	1688	11608	139	-64	-123	-15256	788	-6580	34	-101	199	-2360	-616	16672	94	-121	257	125	126	5
-11040	-4592	10508	-63	129	-170	-13976	2328	-8104	-46	-84	-1	-1808	-904	16980	256	4	31	-11852	1708	11528	142	6	-178	-15220	832	-6436	2	-64	186	-2428	-552	16668	91	-122	209	125	126	5
-11040	-4568	10544	-62	166	-171	-14032	2260	-8216	-34	-65	-14	-1700	-896	16952	368	-30	30	-11884	1720	11500	91	-15	-157	-15232	800	-6448	77	-13	226	-2436	-604	16728	83	-126	241	125	126	5
-11028	-4524	10480	-78	181	-152	-13984	2344	-8092	-31	10	-7	-1728	-792	16956	207	-33	39	-11912	1744	11604	158	-65	-151	-15184	840	-6532	77	-28	210	-2372	-540	16624	72	-144	229	125	126	5
-10960	-4576	10516	-64	165	-139	-13996	2332	-8204	-29	-15	34	-1796	-756	16992	276	25	-11	-11948	1772	11612	117	-78	-149	-15220	832	-6528	71	23	224	-2480	-492	16656	67	-89	221	125	126	5
-11052	-4588	10548	-126	181	-131	-14000	2384	-8260	0	21	17	-1932	-768	17048	192	7	4	-12008	1780	11532	128	-11	-134	-15292	880	-6600	49	30	155	-2472	-384	16728	81	-107	176	125	127	5
-10976	-4584	10556	-55	208	-131	-13924	2392	-8264	12	11	1	-1932	-700	16980	176	35	-13	-11896	1740	11524	131	-40	-161	-15240	884	-6540	42	-28	174	-2512	-496	16652	18	-81	185	125	126	5
-10956	-4584	10584	-84	196	-184	-13952	2372	-8204	21	2	-36	-1928	-748	16944	156	-2	-24	-11908	1688	11524	109	-20	-157	-15268	932	-6552	68	11	141	-2460	-444	16748	-3	-126	190	125	127	5
-11024	-4596	10548	-74	184	-140	-13948	2424	-8172	4	-4	-7	-1928	-680	16888	167	-43	14	-11984	1692	11608	94	-34	-166	-15252	880	-6572	81	-9	123	-2496	-428	16756	-29	-150	223	125	126	5
-11092	-4516	10580	-130	167	-144	-14016	2380	-8124	-18	-2	-20	-1892	-728	17012	185	-14	19	-11944	1740	11516	97	-112	-156	-15304	932	-6492	72	-15	102	-2484	-556	16720	-85	-159	231	125	126	5
-10996	-4548	10596	-61	139	-186	-13964	2408	-8244	-2	-6	-39	-2008	-816	17036	167	-43	24	-11940	1764	11556	102	-33	-181	-15260	828	-6584	83	-34	80	-2428	-620	16596	-74	-163	242	125	126	5
-11036	-4532	10620	-101	180	-178	-13928	2368	-8176	45	-68	-102	-1976	-784	17068	103	-8	21	-11984	1764	11588	101	-96	-186	-15304	792	-6544	55	8	127	-2388	-672	16636	-26	-135	192	125	126	5
-11072	-4588	10492	-99	179	-184	-13956	2392	-8260	17	-50	-74	-1912	-768	17008	115	-28	20	-11984	1740	11580	93	3	-161	-15220	812	-6604	61	-28	71	-2328	-680	16652	-12	-120	219	125	127	5
-11108	-4520	10604	-141	171	-180	-13908	2376	-8180	4	-78	-107	-1864	-832	17092	107	-50	46	-11944	1724	11532	142	-49	-174	-15252	776	-6648	26	-7	123	-2380	-700	16688	-33	-141	227	125	126	5
-11060	-4588	10544	-143	174	-210	-13944	2404	-8224	-76	-32	-90	-1848	-868	16916	166	-38	37	-11956	1740	11660	79	-16	-181	-15168	788	-6516	75	-18	156	-2360	-672	16664	-23	-150	273	125	126	5
-11000	-4620	10556	-116	172	-165	-14008	2284	-8140	-22	-32	-88	-1752	-972	17068	186	-4	40	-11892	1728	11572	114	-81	-186	-15256	824	-6516	64	44	127	-2292	-596	16624	9	-120	238	125	126	5
-11056	-4636	10632	-107	167	-186	-14004	2336	-8144	-29	-17	-107	-1792	-936	16944	132	12	40	-11864	1708	11548	128	-87	-197	-15312	764	-6568	51	38	149	-2456	-700	16700	50	-68	231	125	126	5
-11000	-4572	10596	-92	169	-182	-14032	2308	-8348	47	17	-32	-1816	-1020	17028	154	-13	28	-11952	1700	11644	109	-28	-198	-15244	808	-6584	25	26	161	-2448	-656	16640	89	-98	242	125	126	5
-10968	-4604	10660	-120	165	-138	-13952	2344	-8164	-45	6	45	-1852	-980	16960	263	-4	-10	-11948	1732	11508	129	-50	-145	-15256	772	-6640	34	-2	140	-2508	-648	16624	-17	-108	220	125	127	5
-11000	-4516	10584	-98	129	-138	-13972	2288	-8224	-68	-17	33	-1904	-960	16932	287	-11	-34	-11912	1740	11488	148	-63	-165	-15284	760	-6548	63	-15	181	-2480	-672	16684	0	-134	183	125	126	5
-11004	-4568	10464	-167	128	-151	-13912	2360	-8292	-38	-3	36	-1920	-824	16980	231	25	-10	-11948	1732	11524	167	-30	-171	-15252	752	-6652	93	-39	184	-2460	-676	16640	0	-138	196	125	126	5
-11016	-4604	10472	-104	152	-134	-13948	2404	-8196	4	5	37	-1928	-720	17104	189	-19	-30	-11940	1744	11584	128	-71	-138	-15276	808	-6620	73	2	236	-2440	-604	16640	40	-128	187	125	127	5
-11016	-4608	10640	-102	168	-129	-13948	2428	-8284	-8	-39	38	-1928	-760	16936	231	-43	2	-11912	1696	11600	146	-4	-167	-15292	800	-6472	36	-55	185	-2532	-668	16656	72	-136	173	125	126	5
-11044	-4560	10524	-43	156	-176	-13940	2428	-8344	-22	-38	-28	-2004	-716	16936	216	1	24	-11888	1716	11572	111	-58	-131	-15260	828	-6600	82	-43	176	-2496	-576	16596	71	-123	199	125	126	5
-11072	-4632	10568	-66	173	-198	-13984	2432	-8188	-29	-71	-31	-2004	-696	16992	196	-19	26	-11896	1724	11504	151	1	-148	-15196	840	-6660	70	-62	212	-2476	-504	16744	52	-139	205	125	126	5
-11000	-4512	10496	-87	181	-142	-13888	2424	-8272	-20	-97	-76	-1980	-760	17056	169	-3	35	-11968	1784	11556	129	-48	-123	-15252	868	-6552	100	-20	155	-2460	-480	16692	31	-144	234	125	126	5
-11056	-4544	10592	-86	136	-209	-13904	2404	-8124	-25	-85	-96	-1924	-780	16884	136	-9	79	-11976	1788	11536	92	-30	-137	-15280	868	-6528	29	-69	133	-2420	-488	16728	33	-137	247	125	126	5
-11048	-4592	10584	-90	151	-205	-13964	2392	-8256	4	-89	-78	-1828	-800	17124	123	-45	66	-11988	1756	11560	73	-39	-183	-15304	852	-6488	19	-43	106	-2416	-476	16632	47	-101	235	125	126	5
-11008	-4592	10496	-84	198	-182	-13940	2324	-8160	-9	-78	-101	-1824	-912	16892	145	-19	58	-11968	1764	11444	116	-72	-170	-15264	872	-6464	27	-88	113	-2308	-468	16604	16	-130	272	125	126	5
-11032	-4548	10532	-48	180	-154	-13948	2320	-8248	9	-64	-40	-1760	-916	17060	177	-44	25	-11964	1764	11556	78	-67	-185	-15244	764	-6520	71	-20	90	-2360	-620	16688	-3	-154	254	125	126	5
-11024	-4616	10548	-76	179	-192	-13972	2332	-8232	-47	-60	-73	-1756	-864	17012	213	-27	22	-11908	1816	11600	87	-9	-145	-15288	812	-6568	99	6	156	-2416	-652	16732	-28	-146	249	125	126	5
-10964	-4548	10580	-112	171	-170	-13968	2336	-8196	-45	-29	-59	-1764	-812	16972	170	-5	15	-11908	1736	11548	94	-24	-177	-15304	792	-6572	84	41	162	-2304	-668	16648	-20	-148	202	125	127	5
-11024	-4604	10544	-53	180	-171	-14020	2300	-8180	8	2	-8	-1816	-824	17036	175	33	23	-11948	1720	11616	109	-46	-181	-15284	776	-6588	48	-5	175	-2372	-664	16664	-2	-131	171	125	127	5
-10972	-4528	10524	-68	255	-177	-13956	2340	-8176	40	13	-2	-1796	-868	16988	210	15	2	-11916	1756	11484	105	-15	-164	-15264	812	-6472	38	22	178	-2440	-644	16648	41	-152	169	125	127	5
-10976	-4580	10640	-100	167	-176	-13964	2344	-8272	15	17	-12	-1968	-840	16812	198	5	2	-11956	1736	11500	166	-24	-157	-15252	800	-6448	54	-24	182	-2448	-704	16608	52	-125	142	125	126	5
-10984	-4552	10576	-120	165	-184	-13952	2396	-8340	-6	-5	-12	-1976	-804	17096	221	9	21	-11940	1776	11592	134	-39	-171	-15188	804	-6636	63	-22	171	-2548	-652	16576	44	-146	201	125	126	5
-11056	-4536	10520	-114	166	-146	-13984	2376	-8276	-17	-9	-18	-2020	-812	17012	204	-3	23	-11908	1684	11540	136	-22	-144	-15220	920	-6612	78	-46	197	-2552	-632	16672	34	-152	224	125	126	5
-11036	-4532	10540	-105	154	-154	-13940	2296	-8240	7	-50	-5	-1956	-876	16936	229	-31	20	-11968	1696	11580	97	-28	-153	-15328	880	-6580	32	-36	175	-2536	-600	16692	58	-122	218	125	126	5
-11008	-4608	10596	-98	156	-153	-13920	2356	-8312	-8	-80	-70	-1976	-880	16964	215	-20	40	-11920	1704	11528	128	-40	-159	-15288	848	-6624	52	-78	173	-2448	-604	16740	62	-145	251	125	126	5
-10992	-4620	10640	-104	105	-169	-13876	2340	-8220	-22	-95	-3	-2004	-824	16920	199	-2	35	-11944	1744	11544	124	-40	-132	-15244	776	-6480	-1	-64	179	-2480	-660	16768	54	-146	242	125	126	5
-11064	-4528	10512	-89	133	-153	-13920	2476	-8248	-50	-88	-10	-1892	-788	17072	218	-36	36	-11964	1676	11604	112	-37	-153	-15220	804	-6448	43	-112	173	-2448	-632	16724	57	-171	232	125	126	5
-10972	-4544	10564	-78	130	-158	-13956	2356	-8176	-38	-118	-6	-1884	-708	17064	205	-21	25	-11940	1756	11548	128	-64	-139	-15212	752	-6524	47	-31	176	-2360	-564	16692	42	-145	271	125	126	5
-11008	-4516	10612	-67	140	-157	-13908	2436	-8144	-18	-77	-56	-1816	-700	16920	184	-41	24	-11928	1692	11488	118	-27	-121	-15252	808	-6436	65	-55	166	-2364	-608	16640	54	-183	213	125	126	5
-10968	-4556	10696	-94	167	-165	-14024	2356	-8212	12	-46	-100	-1740	-796	17036	158	22	4	-11904	1724	11640	137	-55	-168	-15260	804	-6508	48	-20	193	-2340	-524	16716	43	-133	176	125	126	5
-10940	-4516	10580	-95	147	-178	-13992	2400	-8180	15	-22	-48	-1752	-780	17040	171	-1	53	-11936	1696	11484	104	-31	-162	-15256	908	-6412	52	-11	168	-2416	-480	16656	88	-115	165	125	126	5
-10960	-4608	10552	-81	192	-143	-13912	2316	-8268	25	-6	-48	-1952	-792	16832	80	-53	8	-11932	1720	11528	109	-59	-166	-15244	832	-6536	45	2	158	-2464	-404	16540	20	-108	212	125	126	5
-11016	-4520	10484	-88	169	-147	-13972	2316	-8104	-19	27	-58	-1904	-924	16968	88	-34	-1	-11948	1736	11532	99	-41	-164	-15236	940	-6536	61	64	126	-2516	-428	16712	-8	-121	221	125	126	5
-10940	-4568	10564	-82	170	-176	-13892	2300	-8292	-2	6	-14	-1892	-916	17092	201	44	21	-11880	1772	11520	104	-64	-173	-15248	888	-6644	18	35	73	-2512	-512	16660	-75	-133	276	125	126	5
-10972	-4592	10540	-81	140	-168	-13932	2404	-8364	-5	-24	19	-1988	-848	17080	257	-31	7	-11940	1732	11600	105	-51	-218	-15232	788	-6584	78	15	91	-2536	-680	16624	-79	-152	242	125	126	5
-11044	-4536	10660	-94	141	-170	-13928	2452	-8304	-4	-62	-20	-2056	-804	16988	203	9	57	-11900	1736	11512	101	-62	-170	-15204	760	-6544	83	55	139	-2516	-784	16712	-54	-139	230	125	126	5
-11088	-4528	10660	-89	151	-231	-13888	2380	-8292	-25	-84	-51	-1932	-680	16852	200	-13	48	-11912	1684	11572	139	-81	-162	-15224	732	-6572	64	10	123	-2516	-800	16580	23	-133	250	125	126	5
-11040	-4496	10524	-106	154	-166	-13884	2408	-8132	3	-76	-46	-1920	-716	17064	171	-34	70	-11888	1680	11560	94	-34	-157	-15188	824	-6548	37	-79	170	-2436	-740	16656	46	-130	231	125	126	5
-11048	-4656	10516	-124	164	-184	-13940	2392	-8220	26	-40	-54	-1900	-808	16904	147	-31	32	-11960	1728	11524	118	-52	-146	-15284	744	-6600	38	-60	176	-2436	-632	16600	81	-174	202	125	126	5
-11024	-4580	10588	-135	169	-186	-13900	2392	-8308	-8	-65	-115	-1932	-868	16972	122	-3	16	-11980	1756	11644	116	-29	-160	-15256	804	-6516	32	-36	198	-2388	-564	16560	100	-143	169	125	126	5
-11008	-4616	10504	-103	128	-203	-13932	2284	-8220	35	-93	-72	-1908	-916	16980	169	-51	42	-11920	1740	11544	126	-42	-150	-15240	832	-6552	61	-31	150	-2464	-520	16736	59	-97	174	125	126	5
-11020	-4584	10504	-99	152	-189	-13952	2292	-8096	-46	-43	-60	-1796	-960	17004	189	-16	49	-11972	1736	11564	159	-50	-144	-15256	840	-6588	74	-7	210	-2392	-500	16676	22	-149	218	125	126	5
-11040	-4540	10528	-104	178	-169	-13908	2292	-8328	-42	-23	-32	-1768	-940	17004	251	-24	0	-11944	1760	11580	124	-29	-147	-15224	800	-6460	77	-18	141	-2428	-524	16652	-5	-137	260	125	126	5
-11012	-4584	10500	-127	138	-147	-13920	2344	-8240	-16	-20	30	-1776	-832	16920	213	4	-5	-11908	1804	11728	128	-83	-157	-15276	796	-6668	28	15	154	-2396	-612	16640	-13	-138	273	125	126	5
-11008	-4576	10552	-150	165	-181	-13960	2384	-8200	-18	-18	8	-1932	-864	16988	217	-5	-11	-11936	1780	11608	133	-65	-151	-15216	756	-6520	22	-2	144	-2408	-628	16748	67	-113	243	125	126	5
-11048	-4624	10560	-147	150	-169	-13900	2368	-8208	-14	-22	27	-1872	-824	17036	227	5	7	-11948	1712	11628	158	-39	-169	-15236	752	-6604	23	20	183	-2416	-636	16640	89	-118	224	125	126	5
-11056	-4564	10600	-122	171	-177	-13960	2412	-8196	1	-8	-13	-1916	-796	16968	224	-12	21	-11844	1688	11544	137	-45	-128	-15292	832	-6552	42	25	236	-2444	-568	16736	57	-105	207	125	126	5
-11028	-4596	10652	-116	163	-156	-13988	2392	-8164	-42	-19	-11	-2024	-540	16984	58	12	-28	-11860	1756	11580	120	-44	-178	-15224	832	-6580	63	-25	208	-2492	-616	16612	58	-122	186	125	126	5
-11008	-4632	10560	-108	189	-209	-13920	2424	-8220	15	-21	5	-1972	-788	16928	53	-35	-29	-11900	1660	11452	163	-23	-143	-15252	792	-6468	93	-7	201	-2404	-600	16604	43	-145	201	125	126	5
-11004	-4584	10564	-82	207	-155	-13940	2376	-8252	-7	-44	-26	-1864	-768	17112	237	63	3	-11908	1720	11576	144	-16	-153	-15284	816	-6520	72	-29	157	-2428	-544	16656	52	-123	183	125	126	5
-11024	-4576	10596	-78	200	-167	-13916	2404	-8296	-17	-76	-72	-1968	-780	16960	195	-26	9	-11848	1756	11604	86	-57	-126	-15280	880	-6600	35	-81	206	-2408	-548	16696	63	-144	205	125	126	5
-11044	-4492	10552	-53	159	-155	-13940	2348	-8312	18	-91	-81	-1888	-772	17000	185	14	53	-11928	1796	11480	103	-5	-188	-15268	840	-6604	33	-16	167	-2460	-564	16676	-4	-120	231	125	126	5
-10988	-4544	10560	-99	162	-174	-13952	2344	-8236	-18	-56	-106	-1900	-840	17096	168	-3	82	-11980	1796	11468	100	-29	-151	-15276	844	-6524	44	-20	133	-2440	-500	16592	-7	-142	232	125	126	5
-10976	-4624	10584	-84	157	-133	-13968	2396	-8228	-21	-44	-78	-1880	-836	17076	172	-18	20	-11900	1784	11636	89	-87	-154	-15156	884	-6556	74	-38	144	-2436	-520	16708	5	-118	256	125	127	5
-11004	-4612	10584	-75	182	-179	-13984	2408	-8220	30	-18	-62	-1948	-816	16928	209	-3	21	-11940	1708	11560	101	-28	-157	-15236	836	-6564	92	-12	136	-2460	-500	16696	16	-130	210	125	126	5
-10980	-4600	10548	-87	151	-141	-13948	2388	-8204	-32	-102	-63	-1932	-748	17012	150	-25	2	-11948	1780	11608	106	-7	-146	-15268	848	-6636	54	-27	132	-2456	-524	16740	-32	-148	201	125	127	5
-11072	-4556	10588	-93	153	-188	-13876	2416	-8216	-16	-70	-20	-1876	-876	17060	163	-25	19	-11908	1756	11676	110	-50	-180	-15284	832	-6536	2	-39	134	-2404	-568	16728	-36	-107	239	125	126	5
-11024	-4600	10516	-80	152	-145	-13948	2400	-8360	24	-55	-38	-1840	-816	16960	189	-28	15	-11880	1684	11584	80	-40	-173	-15208	776	-6608	21	-3	139	-2400	-648	16724	50	-147	232	125	126	5
-11032	-4544	10628	-122	184	-165	-13916	2364	-8164	-5	-58	-85	-1916	-776	17060	174	0	41	-11964	1760	11632	115	-89	-182	-15256	744	-6600	102	-29	159	-2460	-620	16616	45	-150	237	125	126	5
-10968	-4652	10520	-115	166	-182	-13996	2380	-8276	-14	-58	-87	-1844	-752	17008	227	-16	39	-11952	1740	11580	106	-89	-148	-15264	824	-6528	50	7	159	-2472	-652	16744	30	-148	216	125	126	5
-11032	-4632	10576	-106	151	-171	-13940	2360	-8260	7	-58	-34	-1868	-844	16968	173	-20	13	-11892	1708	11580	116	-53	-185	-15232	836	-6504	71	-24	155	-2392	-588	16648	66	-105	192	125	126	5
-11048	-4552	10580	-143	176	-177	-13952	2340	-8252	24	-43	-71	-1884	-820	16976	185	-10	61	-11964	1740	11568	108	-1	-158	-15244	868	-6496	20	23	173	-2432	-624	16768	60	-129	211	125	126	5
-11008	-4560	10628	-97	176	-183	-13940	2308	-8264	39	-8	-26	-1828	-892	17004	193	-27	19	-11896	1724	11504	88	-64	-159	-15296	784	-6544	39	-14	177	-2520	-588	16756	57	-131	225	125	126	5
-10956	-4600	10596	-111	150	-153	-13976	2316	-8216	-34	-32	-27	-1916	-880	16932	298	28	38	-11972	1804	11584	117	-1	-153	-15188	808	-6528	56	12	179	-2436	-632	16684	-10	-101	215	125	127	5
-11072	-4600	10588	-118	166	-176	-13976	2352	-8184	14	-22	-24	-1800	-824	17176	234	-45	9	-11884	1728	11588	94	-30	-135	-15252	804	-6592	45	-6	186	-2492	-564	16716	26	-145	225	125	126	5
-10988	-4640	10552	-81	175	-155	-13916	2316	-8164	0	-9	7	-1896	-828	17040	219	31	-9	-11924	1772	11604	144	-40	-163	-15200	844	-6488	97	-4	197	-2452	-568	16632	-8	-147	195	125	126	5
-11020	-4588	10544	-91	167	-144	-13868	2420	-8204	4	-25	31	-1972	-792	16968	193	-19	-12	-11948	1760	11428	133	-62	-154	-15228	824	-6672	44	-40	230	-2468	-556	16656	25	-139	201	125	126	5
-11028	-4548	10624	-74	119	-126	-14032	2376	-8136	-3	-57	-49	-1972	-784	17028	187	23	22	-11932	1732	11536	108	-9	-157	-15260	868	-6632	69	-21	178	-2512	-652	16696	34	-121	206	125	126	5
-11004	-4576	10620	-83	158	-150	-13972	2368	-8208	-5	-27	-35	-1928	-760	17016	202	0	64	-11916	1776	11528	145	-31	-180	-15292	836	-6460	79	7	181	-2448	-616	16652	32	-148	193	125	127	5
-11076	-4592	10508	-83	188	-172	-13904	2400	-8244	-17	-58	-47	-1888	-772	17028	168	14	46	-11968	1708	11608	114	-57	-139	-15236	852	-6588	54	-2	169	-2464	-556	16692	59	-142	224	125	126	5
-10948	-4528	10584	-137	171	-185	-13980	2396	-8256	-20	-46	-79	-1904	-836	16940	132	-13	31	-11972	1736	11568	130	-73	-177	-15284	816	-6540	61	-62	170	-2504	-464	16780	31	-154	244	125	127	5
-11044	-4600	10524	-109	170	-188	-13992	2300	-8200	19	-45	-82	-1888	-884	16960	140	7	25	-11920	1808	11492	111	-43	-167	-15320	840	-6548	44	-20	127	-2480	-532	16780	65	-150	238	125	126	5
-11108	-4556	10548	-99	157	-174	-13948	2328	-8240	-24	-81	-26	-1896	-856	16972	182	-36	0	-11936	1716	11524	88	-72	-169	-15256	832	-6624	87	-60	136	-2456	-604	16588	1	-152	263	125	126	5
-11040	-4516	10612	-80	139	-176	-13996	2308	-8204	-31	-95	-22	-1848	-836	17120	202	19	28	-12000	1680	11568	97	-35	-148	-15288	776	-6588	99	-33	135	-2360	-656	16704	4	-142	264	125	126	5
-11044	-4600	10540	-110	167	-170	-14004	2380	-8140	-35	-64	-42	-1868	-764	17032	195	-37	49	-11956	1728	11556	117	-68	-186	-15320	828	-6460	59	-39	137	-2396	-628	16716	4	-153	233	125	126	5
-11032	-4552	10548	-83	154	-159	-13888	2360	-8256	6	-42	-39	-1836	-756	16908	187	-39	30	-11996	1712	11624	116	-20	-176	-15288	776	-6544	26	-29	160	-2304	-660	16664	37	-149	217	125	126	5
-11008	-4596	10568	-64	181	-188	-13992	2360	-8064	-10	-33	-54	-1812	-840	16908	195	-14	38	-11936	1728	11512	98	-69	-161	-15260	824	-6476	40	3	182	-2384	-596	16744	31	-122	204	125	126	5
-11012	-4516	10556	-99	177	-171	-14000	2332	-8180	-11	23	-53	-1768	-840	17084	180	-26	19	-11956	1788	11604	131	-22	-137	-15268	808	-6536	21	-18	181	-2384	-568	16740	83	-98	178	125	126	5
-11016	-4624	10432	-109	146	-158	-13984	2304	-8252	-3	-14	-31	-1872	-856	16936	188	-22	7	-11944	1740	11628	138	-17	-189	-15228	804	-6468	63	-21	207	-2516	-584	16668	35	-93	181	125	126	5
-10988	-4548	10596	-104	193	-166	-13968	2352	-8200	-14	-11	-12	-1980	-840	17012	205	7	4	-11980	1760	11544	110	-17	-174	-15228	804	-6616	101	-4	164	-2540	-488	16672	18	-132	210	125	126	5
-11016	-4524	10520	-94	152	-175	-13900	2344	-8124	-30	22	-8	-1944	-844	17044	247	11	3	-11924	1728	11532	102	-44	-169	-15252	756	-6696	99	-14	187	-2540	-556	16648	31	-92	207	125	126	5
-11084	-4560	10524	-95	158	-178	-13892	2420	-8296	-7	-22	-17	-1940	-856	16920	205	27	-16	-11916	1736	11584	112	-57	-125	-15232	792	-6524	77	-22	114	-2524	-644	16604	-8	-143	218	125	126	5
-11024	-4528	10600	-143	154	-144	-13880	2376	-8332	-12	-44	-25	-1960	-720	17100	219	24	20	-11952	1692	11568	95	-59	-145	-15204	788	-6624	23	-32	156	-2460	-656	16684	-14	-144	207	125	126	5
-10992	-4520	10584	-137	144	-151	-14016	2392	-8256	-32	-62	-53	-1872	-688	17032	173	17	8	-11880	1696	11548	162	-93	-169	-15264	852	-6504	47	-56	160	-2368	-576	16680	46	-127	183	125	126	5
-10992	-4572	10600	-176	134	-202	-13928	2452	-8144	-23	-62	-97	-1896	-740	16920	168	-10	48	-11904	1764	11620	141	-41	-151	-15232	856	-6520	35	-51	183	-2368	-552	16676	90	-114	204	125	126	5
-11056	-4544	10504	-153	165	-175	-14012	2352	-8268	41	-40	-82	-1804	-836	16908	188	-8	43	-11892	1744	11552	126	-38	-147	-15256	828	-6536	33	-64	211	-2416	-476	16676	76	-162	219	125	126	5
-10988	-4584	10544	-152	183	-157	-13964	2396	-8116	-3	5	-75	-1876	-816	17056	184	-10	16	-11960	1788	11536	128	-19	-170	-15268	884	-6584	60	5	157	-2456	-400	16592	12	-141	239	125	126	5
-11032	-4516	10576	-109	140	-146	-13896	2320	-8208	-13	-16	-99	-1920	-908	17088	200	-13	33	-11912	1788	11536	120	-36	-178	-15292	968	-6548	41	27	125	-2548	-452	16736	-16	-132	246	125	126	5
-11012	-4532	10624	-57	174	-187	-13916	2352	-8308	-1	-38	-53	-1964	-876	17032	162	-3	33	-11932	1692	11436	89	-102	-173	-15216	916	-6588	52	11	84	-2556	-456	16640	-34	-129	242	125	126	5
-11040	-4588	10532	-57	141	-182	-14008	2292	-8244	19	-65	-60	-1940	-856	17024	164	-13	7	-11876	1756	11560	82	-90	-150	-15252	808	-6552	38	-77	59	-2504	-612	16688	-42	-172	267	125	127	5
-11024	-4568	10592	-80	162	-151	-13968	2368	-8304	-8	-66	-64	-1920	-836	16988	193	6	43	-11924	1708	11504	47	-22	-155	-15200	840	-6520	17	-12	124	-2396	-824	16628	-21	-139	289	125	126	5
-11024	-4544	10660	-92	140	-146	-13944	2380	-8188	-40	-25	-78	-1932	-760	16972	192	-13	44	-11956	1660	11596	80	-95	-173	-15256	728	-6568	90	-13	108	-2388	-752	16640	-26	-142	240	125	126	5
-11068	-4564	10576	-67	165	-189	-13876	2408	-8164	-18	-54	-58	-1920	-792	16996	218	-2	57	-11956	1712	11592	122	-57	-158	-15264	788	-6568	83	-13	184	-2340	-772	16664	1	-134	200	125	126	5
-11004	-4504	10600	-89	167	-184	-13980	2408	-8292	-16	-50	-67	-1840	-856	16964	183	15	46	-11948	1784	11676	113	-10	-136	-15192	776	-6560	37	-25	224	-2500	-624	16696	81	-141	187	125	126	5
-11020	-4492	10648	-111	208	-142	-13996	2280	-8244	14	-17	-94	-1792	-904	17000	166	-10	59	-11920	1696	11600	116	-27	-157	-15288	852	-6548	-1	-46	226	-2404	-648	16604	138	-99	212	125	126	5
-11012	-4600	10508	-75	176	-177	-13984	2284	-8192	1	5	-31	-1924	-1008	17136	157	23	25	-11976	1768	11540	135	-37	-169	-15276	792	-6604	30	-39	242	-2412	-548	16668	112	-110	197	125	126	5
-10960	-4648	10604	-86	164	-152	-13940	2288	-8320	10	-53	-26	-1896	-1012	17104	221	-29	45	-11916	1676	11584	114	-7	-147	-15260	852	-6532	72	-27	183	-2400	-480	16596	54	-105	213	125	126	5
-11024	-4572	10596	-80	131	-137	-13948	2272	-8268	-43	-20	11	-1860	-920	16996	228	15	22	-11932	1760	11480	129	-15	-188	-15312	848	-6492	84	-21	190	-2496	-504	16656	19	-126	248	125	126	5
-10988	-4604	10508	-98	163	-133	-13884	2356	-8212	-47	-24	40	-1848	-928	17024	273	-21	-7	-11964	1712	11552	139	-65	-154	-15284	820	-6512	65	-21	173	-2428	-504	16684	-7	-125	220	125	126	5
-10948	-4552	10584	-99	151	-121	-13924	2412	-8204	-17	-3	5	-1880	-732	17012	152	19	-18	-11900	1688	11644	86	-5	-150	-15216	860	-6496	82	23	154	-2428	-576	16660	5	-122	229	125	126	5
-11056	-4576	10648	-68	174	-164	-13920	2392	-8220	-11	-48	16	-1912	-644	16940	204	6	0	-11864	1732	11512	120	-66	-144	-15156	856	-6532	23	1	147	-2460	-596	16700	-7	-141	185	125	126	5
-11024	-4560	10540	-93	148	-170	-13924	2444	-8220	2	6	-56	-2012	-752	17108	203	30	48	-11960	1736	11600	130	-42	-166	-15252	792	-6576	25	-33	158	-2432	-532	16656	32	-121	203	125	126	5
-11028	-4560	10552	-119	192	-150	-13972	2484	-8324	13	-29	-13	-1948	-724	17048	215	2	47	-11900	1756	11544	109	-30	-176	-15220	844	-6432	65	-46	187	-2448	-628	16656	29	-100	202	125	126	5
-11044	-4532	10512	-121	164	-156	-13856	2384	-8252	4	-58	-69	-1864	-756	16940	152	-34	51	-11920	1696	11612	127	-10	-169	-15252	816	-6488	89	12	134	-2496	-520	16676	61	-112	233	125	126	5
-11020	-4560	10576	-106	189	-175	-13984	2380	-8236	-51	-57	-90	-1972	-872	17040	179	-5	29	-11948	1740	11588	108	-34	-153	-15272	892	-6564	38	-14	130	-2500	-484	16756	33	-132	251	125	126	5
-11056	-4596	10480	-82	196	-163	-14016	2368	-8200	-31	-54	-94	-1840	-904	16996	209	-18	68	-11896	1716	11444	115	-66	-200	-15280	876	-6584	50	-5	124	-2500	-512	16664	10	-141	259	125	126	5
-11004	-4568	10564	-146	140	-156	-13948	2296	-8152	18	-51	-52	-1960	-932	17072	148	-9	9	-11956	1768	11608	114	-61	-161	-15256	772	-6640	60	-20	139	-2420	-592	16628	-25	-150	208	125	126	5
-10988	-4588	10636	-131	195	-180	-13940	2308	-8172	-13	-52	-56	-1924	-820	16980	189	-6	33	-11976	1740	11616	68	-50	-209	-15224	836	-6596	50	-8	130	-2440	-572	16656	19	-142	231	125	126	5
-11000	-4488	10580	-109	148	-190	-14028	2416	-8276	-47	-36	-22	-1880	-868	17048	160	-18	7	-11928	1716	11548	118	-69	-191	-15236	836	-6636	49	-15	145	-2476	-624	16616	-1	-136	250	125	126	5
-11052	-4512	10584	-98	168	-167	-14000	2360	-8160	-38	-51	-24	-1824	-736	17024	169	-3	39	-11944	1684	11528	128	-54	-136	-15212	844	-6508	31	-47	123	-2376	-612	16628	24	-149	242	125	126	5
-11064	-4580	10536	-104	129	-188	-13980	2360	-8188	0	-35	-66	-1832	-784	17008	149	-20	30	-11904	1720	11588	129	-31	-167	-15284	784	-6544	64	16	151	-2352	-672	16688	-15	-115	238	125	126	5
-11052	-4568	10576	-89	144	-165	-13976	2352	-8220	15	-40	-45	-1792	-896	17020	197	-12	26	-11920	1728	11576	112	-48	-150	-15256	824	-6416	17	14	183	-2340	-648	16628	53	-129	204	125	126	5
-11032	-4592	10548	-82	150	-168	-14000	2376	-8188	11	-28	-60	-1828	-860	17016	225	-5	49	-11988	1736	11676	130	-44	-144	-15312	728	-6548	43	-20	174	-2380	-616	16744	73	-114	182	125	126	5
-11048	-4536	10520	-137	178	-160	-13896	2360	-8180	-44	32	-39	-1880	-920	16900	225	-6	26	-11964	1744	11580	149	-53	-136	-15244	820	-6568	70	21	205	-2392	-556	16556	50	-104	137	125	126	5
-11032	-4520	10592	-68	198	-157	-13944	2296	-8340	-41	15	-35	-1828	-836	16972	183	-21	0	-11960	1684	11604	123	-30	-155	-15244	948	-6528	78	16	200	-2468	-456	16776	58	-126	195	125	126	5
-10980	-4664	10548	-79	166	-129	-13936	2356	-8268	-13	-18	7	-1952	-872	17056	222	8	-2	-11928	1716	11636	140	-48	-153	-15284	860	-6484	36	-5	178	-2476	-448	16656	29	-136	206	125	126	5
-11084	-4572	10600	-104	167	-159	-13948	2344	-8160	20	-50	-9	-1936	-828	16848	182	25	-2	-11988	1712	11536	106	-28	-159	-15216	784	-6508	36	0	121	-2500	-520	16768	2	-99	208	125	126	5
-11016	-4620	10632	-87	200	-158	-13984	2360	-8228	-17	-14	13	-1936	-868	16932	204	23	-12	-11908	1712	11668	109	-55	-187	-15264	852	-6572	53	-27	176	-2528	-648	16580	-9	-110	215	125	126	5
-11032	-4572	10548	-55	157	-169	-13952	2400	-8224	-35	-28	-10	-2000	-732	16956	219	-2	35	-11948	1752	11616	124	-31	-151	-15260	800	-6572	80	-15	176	-2452	-636	16772	26	-132	223	125	126	5
-10984	-4500	10572	-117	158	-143	-13920	2408	-8160	-55	-41	-44	-1956	-700	17004	203	-6	27	-11924	1736	11540	123	-91	-156	-15232	832	-6484	90	18	140	-2460	-688	16776	-20	-178	235	125	126	5
-10972	-4560	10588	-130	147	-177	-13980	2488	-8100	-35	-80	-74	-2004	-684	16976	209	0	67	-11956	1752	11544	103	-6	-163	-15276	824	-6612	84	-9	168	-2492	-720	16632	51	-134	233	125	126	5
-11048	-4560	10580	-206	176	-202	-13916	2420	-8148	-18	-71	-125	-1896	-804	16968	143	-25	69	-11892	1700	11548	163	-13	-123	-15216	872	-6632	56	-51	174	-2412	-580	16680	72	-132	234	124	126	5
-11104	-4508	10508	-206	152	-206	-13932	2352	-8224	31	-73	-94	-1840	-892	16984	171	13	62	-11948	1740	11564	135	-39	-152	-15200	816	-6584	61	-54	169	-2372	-596	16696	66	-116	199	125	126	5
-10968	-4596	10572	-158	146	-186	-14028	2300	-8204	17	-95	-84	-1852	-928	16980	174	-43	46	-11880	1792	11560	139	-33	-149	-15220	788	-6436	27	0	179	-2380	-564	16756	60	-128	206	125	126	5
-11056	-4608	10700	-125	139	-165	-13972	2328	-8228	2	-88	-66	-1964	-744	16868	84	-32	-38	-11900	1768	11432	134	-73	-175	-15232	856	-6496	71	-35	171	-2468	-552	16708	80	-154	202	125	126	5
-11032	-4572	10524	-106	165	-187	-13968	2332	-8228	-7	-63	-16	-1868	-896	16876	26	-81	-9	-11912	1724	11496	109	-24	-135	-15252	876	-6540	13	-23	172	-2468	-532	16584	27	-130	252	125	126	5
-11004	-4636	10604	-76	150	-147	-13948	2292	-8228	-20	-9	-17	-1752	-888	17044	264	37	-2	-11924	1768	11640	102	-42	-151	-15312	832	-6516	90	19	152	-2440	-528	16704	7	-117	225	125	126	5
-11012	-4540	10700	-56	144	-179	-13940	2372	-8152	4	-64	-24	-1840	-880	17064	250	-51	25	-11892	1704	11652	152	-30	-147	-15240	808	-6384	81	16	134	-2404	-604	16760	-24	-122	230	125	126	5
-11044	-4564	10580	-84	187	-166	-13924	2420	-8220	1	-67	17	-1904	-824	16880	233	23	41	-11988	1680	11504	93	-37	-186	-15260	812	-6552	67	42	174	-2424	-716	16624	7	-124	204	125	126	5
-11112	-4572	10640	-68	158	-157	-13916	2384	-8272	-9	-30	-1	-1904	-756	16916	213	17	6	-11948	1716	11556	127	-90	-168	-15280	760	-6568	62	-10	154	-2480	-624	16768	39	-123	227	125	126	5
-11004	-4560	10608	-63	184	-160	-13960	2360	-8248	-8	-47	15	-1924	-752	16920	185	26	-6	-11932	1712	11484	94	-1	-116	-15312	796	-6636	66	8	198	-2456	-664	16696	15	-144	180	124	126	5
-11076	-4500	10732	-65	175	-192	-13908	2380	-8316	33	18	-52	-2000	-768	17060	156	-32	11	-11932	1816	11636	110	-41	-162	-15264	912	-6572	50	-19	185	-2500	-588	16624	56	-144	198	124	126	5
-11032	-4572	10584	-120	192	-209	-13916	2376	-8224	-18	-47	-70	-1920	-840	16988	175	-17	57	-11964	1720	11520	129	-30	-123	-15240	836	-6484	23	-78	206	-2524	-544	16780	42	-130	204	125	126	5
-11020	-4604	10544	-110	191	-189	-13904	2368	-8176	14	-20	-63	-1880	-792	17020	203	10	74	-11924	1716	11588	93	-42	-146	-15308	868	-6500	56	-59	163	-2492	-564	16676	40	-128	242	125	126	5
-10996	-4576	10700	-123	147	-162	-13904	2340	-8220	-14	-60	-72	-1896	-748	16988	155	-41	38	-11896	1704	11464	130	-75	-175	-15320	884	-6588	65	-31	173	-2484	-516	16676	4	-133	261	125	125	5
-10996	-4540	10576	-119	184	-176	-13996	2304	-8152	26	-69	-51	-1828	-828	17008	170	-10	38	-11864	1728	11504	128	-32	-208	-15240	816	-6596	67	6	116	-2436	-488	16648	12	-140	214	125	126	5
-11000	-4616	10572	-119	171	-162	-13948	2360	-8272	-21	-50	-79	-1840	-796	16860	148	-51	11	-11940	1728	11484	102	-44	-178	-15252	804	-6612	53	9	142	-2448	-568	16668	-1	-136	230	125	126	5
-10996	-4496	10576	-119	155	-196	-13944	2404	-8276	5	-55	-43	-1904	-828	16996	193	18	7	-11952	1720	11580	128	-53	-155	-15312	800	-6472	61	-2	166	-2396	-576	16608	-32	-137	190	125	126	5
-11020	-4548	10588	-152	164	-181	-13948	2412	-8132	13	-71	-59	-1956	-876	16980	159	-36	6	-11936	1772	11588	105	-50	-162	-15264	844	-6624	51	-9	147	-2504	-572	16564	29	-140	234	124	126	5
-11016	-4556	10504	-123	147	-174	-13924	2336	-8272	-22	-50	-36	-1876	-888	17124	174	0	34	-11932	1788	11484	128	-24	-185	-15264	856	-6656	43	-16	121	-2436	-640	16596	49	-133	223	125	126	5
-11056	-4496	10688	-93	168	-190	-13988	2412	-8300	-15	-52	-41	-1864	-912	17036	202	-16	43	-12000	1728	11624	119	-94	-178	-15216	796	-6616	46	-4	171	-2420	-668	16648	69	-101	242	125	126	5
-11024	-4544	10592	-97	155	-149	-13992	2340	-8200	-50	-76	-72	-1884	-780	17052	227	-11	39	-11912	1692	11512	139	-74	-138	-15248	780	-6580	52	-90	194	-2452	-636	16608	8	-128	246	125	126	5
-11008	-4548	10588	-84	145	-160	-14068	2292	-8216	-31	-47	4	-1856	-832	17044	189	12	34	-11904	1736	11528	142	-11	-185	-15260	784	-6428	89	-34	215	-2452	-648	16640	11	-155	183	125	126	5
-11104	-4612	10580	-110	148	-165	-13956	2340	-8212	19	-10	-8	-1916	-792	16964	157	-1	7	-11888	1752	11576	135	-16	-135	-15268	840	-6600	74	-42	205	-2472	-592	16684	65	-135	165	124	126	5
-11000	-4580	10620	-114	170	-162	-14004	2360	-8196	-22	-53	-9	-1908	-816	16944	213	-24	19	-11940	1724	11596	84	-20	-129	-15300	860	-6460	11	-32	186	-2448	-504	16696	28	-156	203	124	126	5
-11036	-4556	10664	-76	206	-201	-13924	2388	-8244	-13	-67	-24	-1944	-800	16976	193	-3	2	-11956	1744	11536	118	-19	-173	-15268	896	-6492	9	-19	172	-2432	-540	16808	59	-127	201	124	126	5
-10984	-4496	10572	-114	123	-209	-13916	2476	-8152	21	-60	-23	-1944	-760	17008	211	0	58	-11948	1772	11580	114	-38	-150	-15216	852	-6568	46	-57	152	-2432	-508	16700	32	-128	246	125	126	5
-11064	-4456	10532	-102	152	-161	-13992	2320	-8176	-31	-61	-49	-1900	-836	17052	212	-27	52	-11948	1772	11540	104	-59	-128	-15260	868	-6528	123	-33	139	-2448	-532	16668	27	-104	249	124	126	5
-10972	-4532	10580	-87	175	-171	-14008	2320	-8352	28	-25	-60	-1884	-804	16984	147	-20	41	-11948	1744	11576	104	-72	-164	-15264	860	-6412	72	-19	120	-2364	-420	16724	44	-136	227	125	126	5
-10940	-4540	10568	-99	171	-195	-14020	2408	-8200	2	-41	-51	-1860	-772	17012	169	-16	43	-11900	1788	11496	140	-73	-167	-15296	832	-6460	33	-8	151	-2356	-468	16736	-69	-119	233	125	126	5
-11068	-4516	10412	-90	184	-179	-13928	2360	-8204	54	-41	-86	-1852	-792	17060	133	-41	29	-11948	1788	11504	71	-100	-180	-15256	884	-6556	6	27	119	-2444	-560	16676	-24	-124	224	125	126	5
-10964	-4572	10688	-121	166	-160	-13976	2380	-8136	-13	-34	-97	-1932	-852	16988	148	-29	13	-11904	1748	11508	146	-68	-158	-15236	776	-6508	73	25	108	-2440	-524	16528	-62	-116	239	124	126	5
-11100	-4536	10488	-68	178	-200	-13956	2380	-8244	-44	-29	-37	-1900	-820	17132	206	-20	39	-12084	1752	11504	91	-65	-152	-15256	796	-6612	73	-11	139	-2508	-688	16668	-11	-160	241	125	126	5
-11064	-4520	10520	-133	163	-159	-13920	2308	-8144	-32	-49	-74	-1940	-828	17120	176	-18	41	-11900	1792	11476	90	-36	-161	-15264	804	-6656	62	-14	125	-2440	-704	16616	28	-152	263	125	126	5
-10912	-4524	10504	-144	163	-162	-13884	2336	-8244	29	-50	-73	-1884	-804	16948	146	1	27	-11960	1772	11544	116	-61	-181	-15208	800	-6640	96	-42	158	-2484	-628	16632	43	-142	232	125	126	5
-11020	-4564	10516	-92	196	-174	-13976	2352	-8108	15	-37	-56	-1824	-916	16948	204	-18	21	-11920	1728	11588	142	-46	-160	-15244	840	-6612	25	-63	162	-2436	-708	16732	70	-138	201	125	126	5
-11088	-4588	10660	-94	183	-101	-13992	2332	-8208	24	-26	-21	-1864	-856	16980	194	-37	-11	-11912	1668	11596	156	-21	-150	-15200	792	-6476	28	-59	220	-2428	-652	16608	65	-147	188	125	126	5
-11000	-4508	10536	-122	186	-163	-13984	2392	-8188	-9	8	6	-1756	-892	16916	183	5	-36	-11872	1756	11532	156	-68	-164	-15288	832	-6596	41	-20	225	-2416	-648	16768	43	-160	145	125	126	5
-11012	-4564	10608	-154	121	-163	-14004	2284	-8212	1	-27	-6	-1940	-928	17044	209	20	-22	-11976	1720	11452	167	-10	-185	-15308	916	-6552	65	-44	230	-2440	-616	16620	8	-134	141	124	126	5
-11084	-4556	10480	-75	185	-127	-13976	2316	-8240	35	-31	63	-1928	-888	16912	203	4	15	-11976	1760	11628	124	8	-148	-15284	832	-6520	49	-28	229	-2480	-544	16664	42	-161	215	125	126	5
-11036	-4504	10624	-86	162	-141	-13928	2412	-8180	-17	-26	-11	-1924	-744	17060	220	38	25	-11912	1720	11608	111	-44	-186	-15244	908	-6496	41	26	190	-2528	-508	16736	57	-108	239	124	126	5
-11036	-4572	10544	-97	181	-129	-13892	2420	-8228	-54	-40	-1	-1988	-788	17024	286	11	43	-11932	1712	11524	89	-94	-116	-15164	920	-6528	31	4	153	-2508	-536	16668	87	-144	280	125	126	5
-10952	-4560	10424	-71	177	-165	-13924	2364	-8192	-36	-55	-5	-1960	-872	17000	237	-7	57	-11996	1752	11500	113	-26	-140	-15228	804	-6608	34	-40	182	-2520	-588	16624	71	-135	262	124	126	5
-11064	-4520	10552	-48	188	-137	-13972	2392	-8208	-5	-121	-53	-1996	-772	17036	233	-4	53	-11968	1712	11544	113	-13	-151	-15260	916	-6452	57	-38	172	-2528	-596	16684	58	-131	274	124	126	5
-10968	-4524	10568	-99	158	-145	-13976	2384	-8236	7	-47	-25	-1908	-748	16964	213	-13	19	-11912	1768	11596	132	-53	-139	-15192	804	-6576	83	-92	191	-2476	-648	16640	13	-132	211	124	126	5
-10936	-4540	10608	-79	156	-187	-13932	2428	-8152	-13	-71	-62	-1912	-740	17032	162	-6	38	-11940	1692	11576	125	-38	-147	-15244	816	-6592	90	-99	170	-2468	-560	16716	71	-152	194	125	127	5
-11008	-4612	10632	-76	147	-168	-13944	2356	-8120	-24	-59	-97	-1896	-728	17012	159	-48	16	-11892	1776	11540	126	-43	-181	-15280	904	-6548	38	-58	155	-2436	-520	16764	67	-135	226	125	126	5
-11032	-4564	10484	-60	187	-171	-13956	2360	-8200	27	-74	-80	-1860	-860	16988	140	-6	19	-11972	1796	11540	91	-61	-125	-15312	828	-6492	54	-49	159	-2360	-452	16656	73	-116	199	125	127	5
-10940	-4532	10476	-69	155	-168	-13900	2312	-8196	51	-43	-43	-1880	-880	16996	120	-9	2	-11916	1764	11576	136	-75	-156	-15252	860	-6532	44	-17	148	-2400	-460	16688	13	-129	193	125	127	5
-11024	-4604	10648	-117	137	-170	-14000	2424	-8236	21	-47	-57	-1824	-824	17012	165	-29	9	-11984	1756	11580	101	-69	-196	-15260	836	-6424	106	19	144	-2368	-476	16516	11	-152	225	125	127	5
-11060	-4540	10528	-84	183	-157	-13940	2412	-8200	-26	-11	-48	-1844	-796	17044	220	-3	26	-12008	1776	11484	111	-44	-146	-15204	924	-6580	67	5	139	-2468	-508	16632	-39	-145	236	125	127	5
-10988	-4556	10516	-78	132	-164	-13932	2396	-8256	-42	-75	-47	-1908	-804	16984	241	-20	51	-11920	1736	11468	83	-37	-191	-15236	848	-6484	41	37	127	-2376	-604	16628	-34	-158	266	125	127	5
-11068	-4564	10540	-77	198	-180	-14000	2316	-8168	-16	-18	-63	-1900	-756	16976	167	14	38	-11928	1716	11552	85	-30	-190	-15256	824	-6580	56	54	157	-2440	-680	16776	9	-121	257	125	127	5
-11028	-4540	10648	-110	173	-195	-13928	2364	-8232	7	-70	-48	-1912	-796	17012	161	-11	40	-11940	1704	11588	90	-24	-166	-15264	752	-6524	53	18	169	-2492	-728	16652	33	-141	198	125	127	5
-11004	-4528	10564	-166	147	-157	-13976	2348	-8212	-33	-66	-41	-1908	-864	16880	210	3	34	-11916	1776	11652	109	-84	-143	-15252	852	-6520	61	24	194	-2484	-708	16632	39	-116	220	124	127	5
-10980	-4568	10496	-132	168	-143	-13888	2360	-8192	-75	-35	-40	-1928	-820	17048	217	-13	30	-12016	1752	11572	118	-71	-146	-15276	776	-6644	72	9	200	-2488	-604	16708	67	-155	205	125	127	5
-10984	-4596	10576	-116	153	-175	-14004	2260	-8176	-10	-25	-28	-1836	-896	16844	148	-28	31	-11976	1760	11616	134	-57	-155	-15276	844	-6728	43	-30	186	-2504	-576	16664	27	-163	209	125	127	5
-10992	-4576	10616	-114	153	-150	-13952	2348	-8212	23	-39	-39	-1916	-900	16964	159	-9	-9	-11892	1732	11560	146	-30	-169	-15200	836	-6596	30	-37	181	-2440	-584	16616	28	-98	209	125	127	5
-11024	-4564	10576	-104	198	-187	-14016	2368	-8244	19	-44	-5	-1932	-864	17140	197	17	1	-11956	1720	11592	128	-31	-173	-15272	860	-6536	46	-42	167	-2548	-488	16568	-24	-145	176	125	127	5
-11060	-4608	10528	-92	151	-169	-13900	2316	-8144	-12	-45	-12	-1924	-848	17012	186	0	-36	-11916	1688	11508	161	-83	-134	-15216	832	-6528	75	-61	180	-2468	-456	16700	-7	-161	185	125	127	5
-10988	-4568	10516	-74	123	-164	-13984	2352	-8264	15	-54	11	-1896	-812	17000	181	-5	-36	-11920	1784	11592	157	-36	-151	-15300	752	-6584	92	-44	175	-2428	-552	16660	21	-162	198	125	127	5
-10984	-4600	10576	-106	180	-174	-13964	2420	-8208	-32	-41	-3	-1864	-724	16964	178	-15	2	-11948	1792	11732	90	-45	-105	-15232	820	-6600	66	-26	154	-2364	-616	16724	-12	-166	192	124	127	5
-11036	-4548	10504	-49	157	-167	-13912	2412	-8196	2	-18	-13	-1836	-764	16996	171	-27	-4	-11932	1744	11608	115	-81	-154	-15288	808	-6416	82	3	182	-2344	-500	16660	7	-163	217	125	127	5
-11060	-4568	10584	-30	149	-149	-13984	2392	-8212	-7	-13	-49	-1864	-704	16904	172	-11	20	-11900	1768	11604	104	-52	-160	-15272	828	-6508	69	-7	167	-2408	-632	16604	42	-126	179	125	127	5
-11004	-4524	10552	-101	177	-176	-13940	2392	-8104	18	-15	2	-1884	-776	17060	205	25	46	-11940	1800	11640	129	2	-138	-15196	812	-6440	63	-2	185	-2508	-516	16684	48	-112	236	125	127	5
-10992	-4592	10616	-69	190	-175	-13988	2388	-8196	-40	-26	-52	-1928	-832	17044	190	14	35	-11940	1692	11484	112	-23	-162	-15184	856	-6560	65	15	191	-2544	-568	16772	2	-145	229	125	127	5
-10996	-4516	10500	-102	189	-164	-13920	2360	-8160	-16	-3	-42	-2012	-908	17052	193	12	45	-11896	1792	11544	93	-54	-128	-15276	860	-6552	76	-37	184	-2596	-628	16692	16	-137	242	125	127	5
-11008	-4548	10460	-59	135	-174	-13956	2364	-8260	-42	-47	-101	-1996	-864	16980	185	-23	11	-11904	1720	11556	119	-55	-140	-15216	852	-6596	99	-39	145	-2548	-588	16716	-35	-176	210	125	127	5
-11076	-4564	10568	-73	148	-126	-13900	2404	-8268	-3	-73	-28	-2012	-784	17012	208	-22	-5	-11924	1724	11556	143	-36	-167	-15268	820	-6580	65	-29	131	-2532	-572	16764	0	-169	210	125	127	5
-11100	-4512	10608	-117	150	-178	-13924	2412	-8280	-6	-89	-39	-1860	-756	16888	161	-45	25	-11944	1696	11580	126	-76	-147	-15264	836	-6460	64	-102	132	-2480	-568	16684	19	-147	222	125	127	5
-10972	-4556	10604	-110	149	-174	-13924	2384	-8308	-13	-110	-26	-1880	-776	16984	141	-21	14	-11904	1748	11624	121	-61	-149	-15324	804	-6448	35	-45	110	-2396	-520	16700	-13	-149	250	125	127	5
-11040	-4572	10504	-80	143	-196	-13960	2308	-8208	-14	-56	-77	-1852	-728	17032	148	-48	58	-11980	1736	11636	152	-76	-155	-15268	768	-6416	68	-45	127	-2360	-608	16536	-24	-147	242	125	127	5
-11028	-4632	10544	-131	146	-177	-14008	2388	-8108	-15	-60	-76	-1868	-764	17012	177	-78	32	-11896	1744	11528	138	-67	-169	-15288	744	-6564	112	6	178	-2460	-572	16652	-1	-137	207	125	127	5
-10988	-4576	10600	-157	180	-176	-13968	2308	-8248	6	-14	-57	-1844	-844	17012	177	-9	35	-11912	1772	11468	124	-2	-146	-15352	952	-6520	107	-3	167	-2452	-556	16764	4	-175	167	125	127	5
-10952	-4604	10552	-142	132	-187	-13968	2388	-8124	-27	-8	-95	-1816	-832	17060	206	-7	30	-11940	1780	11544	145	-55	-151	-15264	828	-6476	64	-46	118	-2452	-516	16716	-7	-179	163	125	127	5
-11068	-4596	10604	-130	177	-143	-13960	2340	-8220	6	-18	-33	-1932	-840	17056	147	-1	-7	-11948	1760	11472	129	-64	-174	-15272	832	-6540	59	4	145	-2452	-528	16644	-65	-180	218	125	127	5
-11076	-4624	10484	-137	184	-147	-13908	2332	-8196	17	-6	-68	-1888	-896	16964	149	-32	-1	-11972	1820	11416	110	-19	-180	-15232	836	-6472	69	-8	136	-2440	-500	16708	-52	-188	219	125	127	5
-10984	-4544	10544	-111	174	-150	-13932	2344	-8152	7	-5	-59	-1956	-788	17008	216	-27	27	-11908	1688	11608	107	-23	-187	-15268	804	-6636	123	23	113	-2376	-620	16728	-51	-132	217	125	126	5
-11012	-4568	10580	-62	165	-160	-13952	2428	-8352	-20	-13	-57	-1912	-856	16960	227	-46	53	-11932	1688	11640	117	-19	-187	-15272	816	-6620	105	36	126	-2528	-640	16664	-2	-130	240	125	127	5
-11036	-4556	10600	-105	161	-174	-13904	2328	-8168	-28	-32	-87	-1840	-848	16824	173	-24	46	-11920	1700	11528	94	20	-180	-15264	864	-6512	65	0	71	-2432	-580	16672	-9	-154	265	125	127	5
-10980	-4564	10572	-100	176	-159	-13964	2384	-8348	26	-58	-54	-1924	-844	16976	136	-21	50	-11992	1756	11588	95	-25	-184	-15292	900	-6580	59	-13	96	-2420	-580	16732	-33	-147	251	125	127	5
-11036	-4568	10512	-95	180	-160	-13920	2404	-8204	14	-77	-91	-1892	-880	17004	182	-48	24	-11932	1768	11556	112	-67	-185	-15240	736	-6584	39	-47	134	-2432	-696	16672	4	-158	228	125	127	5
-11044	-4580	10576	-112	151	-147	-13952	2364	-8272	3	-81	-70	-1892	-920	16868	159	-38	15	-11932	1724	11496	94	-75	-159	-15292	760	-6644	76	-9	122	-2452	-688	16612	8	-149	207	125	127	5
-10960	-4640	10528	-91	182	-148	-13960	2348	-8148	-22	-61	-51	-1832	-880	17008	193	-29	15	-11996	1716	11720	134	-54	-149	-15296	744	-6516	109	-19	139	-2388	-688	16696	6	-165	226	125	127	5
-11032	-4596	10612	-89	146	-194	-13988	2332	-8196	-24	-45	-57	-1820	-920	17012	169	-9	24	-11884	1768	11536	103	-55	-147	-15160	720	-6548	122	-11	152	-2404	-656	16700	18	-169	180	125	127	5
-11008	-4612	10580	-101	151	-157	-13936	2340	-8284	-6	-29	-13	-1832	-852	17160	161	-14	25	-11904	1784	11608	121	-62	-154	-15276	824	-6560	56	-32	188	-2360	-636	16672	43	-142	195	125	127	5
-11028	-4584	10544	-125	166	-167	-13956	2328	-8152	9	-52	-66	-1836	-820	17020	182	-53	12	-11988	1744	11532	124	-25	-168	-15244	784	-6520	32	-52	168	-2352	-604	16624	37	-114	203	125	127	5
-11000	-4572	10604	-132	182	-172	-13952	2320	-8212	-5	-22	-56	-1852	-888	16828	220	-23	36	-11896	1752	11648	94	-36	-141	-15240	828	-6444	22	-15	180	-2472	-576	16640	77	-125	229	125	127	5
-11040	-4576	10628	-117	137	-163	-13984	2320	-8192	-25	-27	9	-1824	-840	16896	228	-38	48	-11960	1724	11572	121	-50	-142	-15300	876	-6532	63	-47	172	-2424	-544	16660	94	-153	255	125	127	5
-11044	-4560	10624	-98	147	-166	-14008	2324	-8200	-30	-32	-12	-1860	-880	16964	195	-44	6	-11956	1732	11472	150	-30	-184	-15244	832	-6524	74	12	144	-2480	-524	16752	17	-147	224	125	127	5
-11004	-4572	10564	-78	152	-162	-13924	2396	-8220	-21	-25	-3	-1916	-860	17028	226	-51	-11	-11856	1696	11556	123	8	-177	-15220	836	-6484	112	-13	164	-2444	-568	16628	-13	-149	214	125	127	5
-11000	-4488	10512	-130	143	-150	-13932	2380	-8112	-13	-10	4	-1816	-872	16972	226	-17	50	-12012	1780	11544	122	-40	-139	-15316	864	-6624	49	21	181	-2456	-472	16640	-55	-155	230	125	126	5
-10980	-4564	10540	-101	164	-163	-13980	2348	-8212	9	-7	16	-1916	-868	16932	288	9	14	-11908	1768	11568	93	-20	-172	-15276	812	-6668	45	12	130	-2428	-512	16708	-13	-136	220	125	127	5
-11076	-4528	10540	-91	176	-159	-13928	2384	-8296	11	-58	-42	-1920	-756	16956	143	-67	40	-11908	1768	11636	132	-44	-178	-15212	860	-6536	69	-9	151	-2416	-612	16688	41	-136	215	125	127	5
-10992	-4592	10520	-135	148	-188	-13960	2484	-8200	5	-23	-48	-1960	-728	16996	150	-19	33	-11916	1724	11596	121	-75	-134	-15292	812	-6432	98	-6	155	-2492	-652	16708	-26	-153	192	125	127	5
-11028	-4552	10612	-124	150	-172	-13952	2388	-8248	-17	-52	-81	-1840	-728	16872	264	-33	37	-11908	1672	11520	84	11	-175	-15284	812	-6576	95	25	189	-2336	-628	16572	-27	-152	198	125	127	5
-11008	-4504	10572	-149	147	-197	-13892	2460	-8200	6	-19	-83	-1936	-720	16936	265	-7	80	-11992	1776	11532	116	-72	-153	-15268	800	-6580	97	13	151	-2400	-620	16636	-36	-166	219	125	126	5
-10988	-4600	10532	-134	182	-206	-13904	2352	-8228	10	-43	-117	-1896	-832	17060	124	-57	58	-11948	1736	11544	124	-23	-140	-15284	824	-6668	63	28	165	-2460	-528	16640	-10	-119	219	125	127	5
-11012	-4536	10548	-96	179	-188	-13980	2332	-8192	47	-13	-114	-1840	-840	17032	125	-29	48	-11908	1732	11596	87	-24	-188	-15248	828	-6532	30	-30	144	-2516	-596	16692	-2	-131	226	125	127	5
-10972	-4620	10696	-134	167	-208	-13896	2336	-8224	0	-28	-101	-1832	-960	17100	176	-28	56	-11872	1724	11648	107	-46	-150	-15240	792	-6496	36	-4	124	-2376	-596	16676	2	-129	232	125	127	5
-11016	-4536	10580	-110	187	-190	-13952	2280	-8276	26	-27	-45	-1772	-1020	17044	187	-61	49	-11936	1672	11584	95	-28	-168	-15168	820	-6480	51	1	142	-2384	-644	16564	5	-131	244	125	127	5
-11016	-4616	10612	-83	155	-193	-13940	2232	-8208	-2	-37	-59	-1844	-964	17060	247	5	10	-11928	1752	11580	107	-71	-188	-15268	844	-6544	88	3	141	-2432	-604	16664	-31	-165	244	125	127	5
-10980	-4584	10520	-94	144	-195	-13944	2272	-8168	-17	-47	-18	-1860	-888	17028	141	-2	-14	-11948	1692	11608	135	-84	-190	-15248	756	-6644	60	-19	131	-2460	-676	16608	-26	-151	241	125	127	5
-11040	-4528	10648	-69	170	-140	-13908	2376	-8056	-25	-19	-10	-1900	-896	16924	166	22	11	-11932	1700	11500	110	-46	-150	-15192	752	-6680	56	-33	148	-2436	-752	16528	-23	-132	227	125	127	5
-11028	-4552	10564	-69	176	-170	-13928	2380	-8216	-13	-62	52	-1948	-840	16904	183	1	9	-11892	1732	11564	129	-25	-154	-15252	780	-6660	72	1	157	-2392	-760	16584	38	-107	203	125	126	5
-11016	-4612	10692	-132	177	-143	-13964	2388	-8164	-26	-33	-49	-1912	-676	17092	210	13	11	-11952	1768	11536	149	17	-142	-15228	828	-6612	37	-52	177	-2448	-636	16684	86	-121	209	125	127	5
-11032	-4608	10660	-138	177	-147	-13988	2352	-8168	-13	-58	-56	-1868	-820	16980	261	-14	23	-11952	1700	11536	141	-14	-154	-15272	820	-6568	42	-9	211	-2416	-600	16652	61	-118	214	125	127	5
-11028	-4560	10536	-160	179	-153	-13912	2364	-8156	-17	-70	-50	-1812	-804	17024	140	-35	11	-11964	1760	11528	137	-73	-115	-15288	868	-6592	45	-18	159	-2428	-496	16660	73	-110	203	125	127	5
-10952	-4536	10512	-152	154	-176	-13972	2336	-8264	10	-60	-61	-1796	-900	16996	165	-23	39	-11964	1748	11588	131	-69	-155	-15276	920	-6456	31	-30	173	-2516	-400	16760	76	-141	209	125	127	5
-11068	-4568	10528	-165	154	-183	-13940	2304	-8196	29	-29	-61	-1932	-856	16908	187	-18	49	-11932	1772	11532	102	-60	-151	-15280	844	-6464	68	-16	152	-2452	-476	16684	11	-110	251	125	127	5
-10996	-4620	10572	-133	142	-177	-13900	2340	-8324	-25	-33	-65	-1900	-788	16984	256	-2	30	-11916	1756	11448	102	-77	-155	-15272	812	-6428	58	-19	146	-2496	-524	16668	-11	-131	239	125	127	5
-10976	-4600	10472	-63	171	-158	-13952	2276	-8252	-34	-61	-26	-1848	-812	16996	200	-51	31	-11948	1792	11608	88	-56	-171	-15264	752	-6560	81	34	110	-2424	-536	16648	-29	-129	215	125	127	5
-11016	-4560	10596	-78	169	-199	-13912	2384	-8204	11	-42	-80	-1856	-736	17028	184	-6	42	-11916	1728	11524	128	-89	-154	-15216	820	-6524	112	26	150	-2424	-516	16704	-35	-153	220	125	127	5
-10972	-4580	10508	-82	156	-168	-13960	2356	-8132	15	-54	-44	-1896	-712	17024	102	-32	8	-11872	1744	11504	96	-52	-169	-15256	756	-6584	61	-6	141	-2412	-600	16644	-45	-125	251	125	127	5
-11032	-4608	10620	-68	197	-170	-13916	2356	-8220	7	-56	-104	-1836	-704	16940	167	26	36	-11992	1736	11532	79	-68	-162	-15228	824	-6632	20	-4	115	-2372	-688	16720	27	-109	235	125	127	5
-10964	-4588	10564	-73	170	-163	-13944	2316	-8252	16	-53	-68	-1848	-820	17008	205	-1	46	-11988	1760	11524	120	-99	-132	-15212	760	-6528	35	3	130	-2456	-576	16700	40	-129	196	125	126	5
-10980	-4520	10624	-75	204	-209	-13944	2336	-8268	-14	-33	-70	-1928	-892	17032	140	-45	32	-11936	1712	11464	110	-74	-141	-15248	840	-6540	57	-6	121	-2496	-560	16700	23	-122	244	125	127	5
-10996	-4600	10496	-99	203	-175	-13964	2336	-8236	-8	-34	-49	-1816	-920	16992	180	-59	48	-11940	1772	11580	104	-29	-150	-15252	812	-6516	72	-18	127	-2412	-616	16592	15	-147	228	125	127	5
-11040	-4608	10492	-110	157	-189	-13916	2288	-8248	-17	-50	-35	-1916	-884	17100	215	11	24	-11840	1712	11612	143	-85	-145	-15252	776	-6444	66	21	144	-2420	-612	16676	-20	-126	245	125	127	5
-11020	-4496	10560	-87	164	-180	-13988	2304	-8240	-8	-18	-47	-1896	-872	16976	173	1	40	-11932	1764	11624	99	-56	-149	-15228	764	-6516	30	0	131	-2468	-616	16660	-37	-136	234	125	127	5
-11016	-4556	10560	-71	164	-180	-13936	2276	-8296	-24	-19	-62	-1916	-848	16884	69	-55	37	-11916	1700	11540	124	-46	-179	-15304	760	-6564	39	13	152	-2420	-628	16676	-13	-123	224	125	127	5
-11008	-4588	10576	-98	168	-152	-13952	2272	-8228	-38	-35	-30	-1920	-804	16992	183	3	-1	-11896	1732	11552	125	-47	-142	-15236	780	-6600	92	16	165	-2472	-684	16680	39	-123	219	125	127	5
-11020	-4520	10552	-102	168	-159	-13960	2276	-8228	-12	-33	-16	-1868	-808	16992	215	-10	2	-11924	1736	11556	120	-56	-170	-15280	824	-6528	43	-23	155	-2516	-652	16712	45	-131	206	125	127	5
-11040	-4536	10564	-152	157	-173	-13940	2336	-8224	-20	-50	-11	-1880	-788	16936	172	-32	8	-12000	1744	11700	117	-39	-137	-15304	776	-6516	38	-12	169	-2368	-636	16716	27	-130	215	125	127	5
-10984	-4556	10636	-126	180	-139	-13944	2340	-8292	-1	-31	-9	-1872	-860	17064	176	-12	6	-11944	1744	11568	104	-19	-184	-15252	792	-6580	50	-17	212	-2340	-596	16656	82	-143	177	125	127	5
-11016	-4644	10520	-132	182	-140	-13968	2384	-8308	-39	-31	-42	-1896	-808	17032	190	-18	27	-11904	1664	11624	115	-37	-153	-15228	796	-6500	71	-36	162	-2456	-524	16648	23	-112	193	125	127	5
-10992	-4588	10460	-69	165	-221	-13908	2332	-8188	-5	-28	-74	-1880	-792	16956	229	-10	24	-11964	1748	11540	126	-26	-153	-15256	816	-6516	60	-19	176	-2432	-548	16636	30	-137	209	125	127	5
-11016	-4540	10484	-76	165	-211	-13960	2356	-8304	-22	-32	-17	-1904	-780	17028	193	-14	19	-11948	1744	11552	106	-45	-167	-15248	868	-6564	79	-30	182	-2476	-620	16652	24	-166	206	125	127	5
-11060	-4568	10568	-83	137	-163	-13948	2356	-8236	-32	-15	-44	-1968	-804	17036	171	0	46	-11988	1732	11624	92	-28	-141	-15212	864	-6596	66	-52	165	-2524	-624	16644	7	-126	247	125	127	5
-11036	-4532	10504	-115	156	-169	-13856	2308	-8164	34	-25	-33	-1964	-860	17004	202	-22	46	-11928	1704	11528	66	-64	-142	-15264	748	-6520	70	-48	123	-2476	-632	16724	34	-114	223	125	127	5
-11036	-4592	10456	-96	133	-170	-14028	2312	-8288	-14	-94	-48	-1952	-872	16928	172	-4	20	-11908	1756	11504	120	-14	-163	-15276	824	-6576	28	-7	141	-2508	-608	16608	-1	-148	242	125	127	5
-11000	-4548	10608	-97	180	-177	-13908	2356	-8236	-9	-58	-44	-1872	-816	17028	204	-21	38	-11944	1752	11496	97	-22	-157	-15212	764	-6612	64	-45	130	-2432	-624	16712	47	-132	240	125	127	5
-11008	-4508	10536	-107	171	-191	-13964	2296	-8236	-6	-68	-89	-1828	-788	16976	196	-56	32	-11940	1764	11520	91	-61	-157	-15332	776	-6552	57	-59	137	-2376	-628	16696	29	-133	194	125	127	5
-10996	-4572	10552	-118	171	-160	-13956	2336	-8244	4	-69	-37	-1856	-820	16856	198	-11	34	-12024	1784	11520	122	-62	-142	-15216	816	-6576	74	-23	204	-2360	-624	16692	31	-146	211	125	127	5
-10944	-4588	10520	-113	154	-143	-13944	2328	-8132	22	-44	-57	-1812	-876	16948	180	-19	26	-11940	1760	11536	137	-48	-161	-15264	808	-6624	18	6	176	-2424	-564	16708	34	-145	226	125	127	5
-11012	-4580	10624	-106	159	-175	-13964	2344	-8216	0	-30	-65	-1824	-940	16912	211	-9	25	-11948	1744	11540	114	-29	-171	-15276	856	-6512	62	-13	164	-2428	-596	16612	48	-118	197	125	127	5
-11028	-4580	10604	-94	187	-170	-13924	2376	-8080	-32	-29	-31	-1828	-868	16976	171	21	13	-11920	1760	11600	116	-35	-176	-15308	776	-6428	61	-7	134	-2420	-608	16716	25	-131	220	125	127	5
-11028	-4548	10532	-71	180	-152	-13948	2264	-8168	-16	-17	-1	-1880	-884	16960	203	9	2	-11940	1740	11580	97	-53	-141	-15260	844	-6556	52	-51	181	-2420	-540	16692	46	-145	209	124	127	5
-11012	-4544	10612	-85	160	-156	-13892	2328	-8264	8	-12	-22	-1836	-856	16968	184	20	17	-11888	1716	11612	99	-41	-181	-15300	848	-6516	18	-8	151	-2444	-600	16644	55	-141	218	125	127	5
-11036	-4584	10580	-140	184	-149	-13964	2348	-8184	-32	-19	-46	-1816	-776	16916	206	-3	19	-11876	1724	11584	129	-61	-192	-15244	780	-6616	45	-28	184	-2380	-556	16660	40	-123	241	125	127	5
-10968	-4528	10528	-165	164	-185	-13948	2380	-8292	-8	-45	23	-1936	-784	17048	204	19	22	-11940	1744	11600	129	-86	-140	-15336	760	-6440	40	8	181	-2424	-584	16672	11	-111	222	125	127	5
-11004	-4576	10500	-143	181	-153	-13960	2404	-8232	-47	-48	0	-1900	-796	16980	204	8	31	-11924	1736	11596	170	-47	-166	-15280	820	-6436	59	-14	159	-2408	-632	16756	1	-139	212	125	127	5
-11008	-4580	10572	-133	142	-191	-13968	2324	-8276	6	-64	-21	-1824	-720	17016	218	-24	51	-11908	1700	11584	143	-27	-169	-15208	764	-6520	70	-8	139	-2364	-692	16756	24	-121	210	125	127	5
-11080	-4540	10540	-117	152	-191	-13952	2328	-8252	-4	-55	-34	-1912	-812	17016	167	3	39	-11880	1688	11592	115	-53	-160	-15252	800	-6436	84	-27	171	-2472	-612	16584	26	-144	228	125	126	5
-10988	-4524	10536	-95	148	-161	-13964	2400	-8272	3	-79	-53	-1884	-816	16964	185	-26	33	-11928	1732	11528	126	-58	-165	-15232	840	-6564	34	-53	167	-2488	-596	16708	30	-143	191	125	127	5
-11040	-4628	10520	-92	153	-166	-13948	2340	-8212	-13	-33	-64	-1868	-788	16964	163	-14	28	-11972	1676	11588	80	-14	-167	-15252	832	-6504	24	-17	191	-2492	-508	16652	5	-155	204	125	127	5
-11028	-4600	10560	-110	140	-178	-13952	2324	-8148	-23	-40	-77	-1824	-848	16920	160	1	14	-11968	1752	11596	101	-21	-126	-15224	828	-6536	71	-74	158	-2396	-584	16668	36	-126	218	125	127	5
-11000	-4592	10652	-112	173	-209	-13960	2264	-8324	2	-32	-61	-1836	-824	16940	218	-26	28	-11880	1732	11592	109	-72	-120	-15240	808	-6576	77	-24	110	-2480	-524	16668	43	-133	232	125	127	5
-10984	-4588	10548	-92	197	-135	-14020	2324	-8284	12	-59	-28	-1844	-904	17048	158	24	26	-11892	1728	11480	66	-18	-180	-15228	780	-6592	73	-51	148	-2368	-688	16692	-2	-138	238	125	127	5
-11032	-4556	10608	-85	187	-158	-14012	2364	-8240	-4	-60	-20	-1896	-792	17028	157	-14	21	-11964	1752	11552	107	-65	-145	-15296	780	-6524	79	-50	135	-2392	-636	16716	8	-133	213	125	127	5
-11012	-4620	10520	-81	158	-191	-13996	2324	-8148	1	-66	-49	-1832	-872	16936	183	3	20	-11900	1732	11596	99	-45	-122	-15260	864	-6548	33	-16	113	-2396	-628	16656	-5	-128	238	125	127	5
-11020	-4568	10548	-113	184	-172	-13976	2332	-8176	-18	-16	-16	-1812	-804	16940	185	-14	32	-11956	1792	11640	94	3	-165	-15276	772	-6480	33	-51	144	-2404	-688	16616	15	-129	221	125	127	5
-10980	-4608	10632	-73	187	-152	-13892	2320	-8220	8	-7	-26	-1820	-852	16992	213	-44	28	-11900	1736	11564	143	-19	-159	-15228	764	-6576	61	-22	157	-2400	-680	16664	36	-126	216	125	127	5
-11064	-4584	10644	-91	174	-160	-13912	2360	-8240	-27	-60	3	-1872	-860	16980	201	-16	19	-11944	1788	11544	83	-17	-157	-15280	840	-6516	64	52	159	-2480	-592	16668	50	-104	183	125	127	5
-10984	-4616	10580	-117	138	-163	-14032	2312	-8236	-5	-26	3	-1900	-924	16968	240	-12	14	-11892	1708	11548	141	16	-155	-15268	844	-6520	45	18	198	-2468	-632	16652	84	-106	217	125	126	5
-11028	-4492	10588	-116	185	-171	-13972	2400	-8332	15	-10	10	-1900	-908	16972	218	2	23	-11948	1684	11556	98	-59	-166	-15260	804	-6496	50	1	176	-2496	-568	16568	89	-144	225	125	127	5
-11052	-4592	10584	-93	162	-142	-13908	2364	-8260	-41	-50	-2	-1892	-852	17004	223	5	12	-11968	1668	11568	109	-79	-167	-15288	800	-6492	58	-11	157	-2496	-564	16776	8	-143	221	125	126	5
-11036	-4572	10564	-91	144	-154	-13948	2368	-8268	-6	-57	-30	-1896	-816	16980	219	-16	-10	-11928	1748	11528	113	-15	-124	-15188	792	-6632	46	-26	157	-2492	-660	16664	24	-146	216	125	126	5
-11068	-4584	10536	-118	142	-174	-13896	2348	-8232	-31	-66	-40	-1944	-788	16944	178	-10	36	-11908	1756	11516	151	-95	-152	-15228	856	-6608	26	-58	123	-2480	-652	16748	8	-146	199	125	126	5
-11012	-4564	10636	-96	148	-174	-13936	2352	-8304	-3	-106	-35	-1940	-700	17052	161	-20	23	-11976	1796	11600	128	-31	-139	-15272	864	-6508	38	-52	151	-2396	-592	16560	45	-135	229	125	127	5
-10988	-4572	10444	-110	149	-183	-13956	2272	-8212	-6	-58	-57	-1836	-828	17016	187	-31	42	-11932	1752	11632	126	-39	-140	-15200	836	-6508	61	-58	166	-2368	-568	16708	78	-135	212	125	126	5
-10988	-4552	10632	-98	169	-161	-13976	2392	-8204	8	-38	-75	-1820	-820	16888	172	-5	21	-11964	1772	11500	133	-42	-169	-15276	784	-6508	35	-52	187	-2396	-524	16600	37	-138	209	125	126	5
-11000	-4600	10600	-130	153	-184	-14008	2356	-8156	-18	-76	-60	-1888	-800	17016	175	7	10	-11936	1760	11588	101	-54	-161	-15300	844	-6472	85	-23	163	-2420	-532	16688	16	-121	182	125	127	5
-10984	-4540	10604	-117	172	-137	-13976	2344	-8144	3	-40	-63	-1804	-864	16964	193	6	8	-11940	1772	11476	121	-70	-161	-15216	812	-6440	42	-9	128	-2432	-560	16768	15	-130	202	125	127	5
-11044	-4608	10592	-117	158	-200	-13888	2308	-8324	-23	-36	-52	-1848	-912	16896	176	-53	20	-11932	1748	11540	84	-9	-193	-15228	840	-6484	29	-19	121	-2400	-512	16748	-9	-135	217	125	126	5
-11024	-4568	10552	-133	150	-178	-13892	2336	-8300	2	-92	-56	-1852	-952	16916	180	-24	48	-11876	1744	11488	103	-36	-201	-15244	816	-6440	63	14	152	-2396	-600	16676	-4	-134	248	125	127	5
-10980	-4548	10544	-97	154	-144	-13992	2244	-8228	-32	-53	-45	-1796	-848	17008	179	-20	38	-11936	1668	11556	127	-51	-188	-15296	808	-6488	55	-2	107	-2376	-684	16620	-10	-95	250	125	127	5
-11036	-4572	10604	-84	158	-181	-14012	2316	-8208	-9	-37	-5	-1848	-836	17000	203	-26	28	-11964	1740	11540	112	-49	-172	-15256	788	-6492	61	-3	146	-2404	-704	16756	-5	-92	229	125	126	5
-11020	-4596	10616	-76	180	-155	-13960	2320	-8144	1	-6	-64	-1892	-828	16896	169	-1	2	-11924	1728	11496	126	-50	-158	-15212	820	-6636	82	-9	155	-2452	-644	16660	25	-123	195	125	126	5
-11012	-4548	10480	-98	162	-182	-13940	2352	-8208	10	9	-10	-1872	-876	17036	193	-14	27	-11976	1760	11512	150	-36	-169	-15340	784	-6476	35	-19	160	-2484	-716	16692	47	-111	215	125	127	5
-11040	-4512	10620	-114	202	-181	-13984	2300	-8300	6	-29	-20	-1808	-852	16968	218	4	1	-11888	1796	11468	133	10	-190	-15256	772	-6596	48	-3	161	-2432	-628	16696	21	-129	193	125	127	5
-11012	-4564	10508	-164	146	-166	-13884	2348	-8156	34	2	-26	-1932	-900	16976	220	17	5	-11908	1772	11532	130	-47	-157	-15264	880	-6436	21	-9	154	-2440	-600	16764	46	-90	204	124	126	5
-11000	-4544	10484	-115	130	-140	-13968	2320	-8200	28	2	18	-1960	-844	16972	188	19	37	-11968	1704	11636	144	-74	-147	-15252	792	-6528	58	-14	207	-2452	-600	16696	91	-115	214	125	126	5
-11020	-4568	10604	-120	112	-166	-13904	2304	-8280	-15	-43	-18	-1912	-828	17004	195	-9	33	-11976	1756	11684	109	-62	-145	-15264	800	-6572	71	1	216	-2420	-548	16728	45	-114	200	125	126	5
-11000	-4584	10572	-149	154	-151	-13968	2368	-8212	30	-39	-17	-1868	-808	17148	236	-4	43	-12036	1736	11592	131	-20	-172	-15300	844	-6536	41	17	160	-2468	-572	16696	45	-124	232	125	126	5
-10988	-4560	10556	-115	161	-181	-13944	2372	-8288	-27	-22	-8	-1976	-812	16884	207	10	30	-11932	1808	11520	128	-45	-161	-15268	856	-6716	53	9	156	-2492	-556	16616	20	-130	231	125	126	5
-11040	-4556	10684	-95	172	-128	-13944	2276	-8152	3	-39	-23	-1936	-784	17092	219	-25	48	-11948	1728	11468	88	-38	-158	-15260	876	-6516	35	-25	133	-2464	-588	16824	27	-129	265	125	126	5
-11000	-4524	10516	-91	177	-166	-13948	2360	-8224	-15	-36	-28	-1928	-780	17044	208	-19	5	-11936	1720	11568	113	-128	-151	-15232	880	-6592	35	7	167	-2496	-604	16644	53	-113	228	125	127	5
-10968	-4552	10640	-80	200	-146	-13984	2332	-8208	11	-45	-26	-1932	-772	17016	148	-24	62	-11928	1760	11484	84	-34	-168	-15236	804	-6588	24	-49	176	-2424	-560	16512	37	-120	219	125	127	5
-11024	-4596	10620	-69	149	-158	-13956	2372	-8276	-10	-71	-78	-1876	-784	17020	175	-40	23	-11936	1776	11552	123	-22	-195	-15236	832	-6496	92	-57	138	-2484	-628	16732	19	-127	240	125	126	5
-10988	-4544	10644	-78	164	-175	-14012	2384	-8204	28	-46	-65	-1876	-756	17140	147	-13	34	-11924	1760	11592	95	-38	-133	-15220	768	-6560	91	-31	135	-2464	-552	16640	-33	-193	191	125	126	5
-10944	-4572	10520	-113	188	-175	-13956	2328	-8268	5	-60	-56	-1884	-784	16980	154	-33	10	-11892	1700	11644	114	-39	-169	-15228	880	-6544	68	1	121	-2384	-516	16596	-16	-167	202	125	126	5
-10996	-4604	10592	-93	199	-171	-13944	2340	-8200	-14	-43	-42	-1880	-828	17048	157	-27	50	-11884	1712	11516	100	-25	-133	-15272	756	-6548	53	-26	163	-2476	-488	16568	16	-131	235	125	126	5
-10972	-4540	10520	-117	158	-179	-13952	2364	-8204	-7	-53	-79	-1912	-784	16936	155	-29	5	-11904	1744	11612	143	-95	-155	-15216	844	-6536	63	-25	128	-2400	-592	16584	27	-85	261	125	126	5
-10980	-4544	10628	-121	168	-191	-14020	2316	-8180	-26	-55	-88	-1968	-856	16996	141	-6	51	-11896	1732	11536	103	-31	-177	-15216	844	-6576	51	29	132	-2420	-620	16748	27	-122	245	125	127	5
-11024	-4532	10580	-106	165	-143	-13984	2276	-8260	-36	-114	-60	-1808	-888	16976	169	-30	46	-11904	1720	11556	100	-61	-172	-15248	748	-6600	53	-6	104	-2372	-620	16736	43	-133	246	125	126	5
-11088	-4576	10608	-130	179	-207	-13988	2256	-8204	-39	-71	-79	-1732	-892	17044	203	-19	65	-11932	1724	11576	108	-56	-162	-15292	772	-6488	75	-21	163	-2388	-608	16652	-9	-126	246	125	126	5
-11012	-4600	10644	-120	146	-174	-13984	2348	-8184	-33	-25	-70	-1728	-848	16940	205	-49	69	-11884	1732	11652	108	-36	-159	-15240	816	-6568	81	0	173	-2328	-628	16636	21	-123	195	125	127	5
-10952	-4592	10592	-115	176	-170	-13988	2284	-8180	25	-7	-20	-1752	-948	17044	198	18	-7	-11920	1672	11584	130	-40	-163	-15200	728	-6480	75	-30	189	-2384	-616	16672	33	-148	175	125	126	5
-10988	-4600	10504	-108	185	-132	-13920	2280	-8300	60	-18	12	-1804	-932	17104	159	24	-7	-11936	1708	11488	119	8	-144	-15256	784	-6532	54	-79	177	-2460	-540	16736	38	-104	169	125	126	5
-11028	-4572	10496	-104	136	-187	-13944	2288	-8228	32	21	25	-1888	-932	17048	198	10	-49	-11884	1740	11736	109	-60	-139	-15284	912	-6584	58	-32	154	-2560	-524	16564	12	-98	211	125	126	5
-10996	-4568	10552	-68	161	-138	-13920	2320	-8324	-16	-9	-8	-2008	-884	17020	189	25	-22	-11948	1768	11488	151	-76	-167	-15300	800	-6640	48	-18	138	-2504	-608	16684	6	-112	235	125	127	5
-11028	-4636	10576	-73	189	-143	-13852	2448	-8264	-4	-58	-33	-2016	-800	17044	195	-23	13	-11932	1732	11584	115	-96	-150	-15184	828	-6648	85	-8	112	-2388	-604	16600	-1	-131	252	125	127	5
-10952	-4548	10460	-90	143	-155	-13952	2380	-8416	-15	-48	-2	-1908	-736	16952	237	-17	34	-11916	1708	11504	126	-75	-164	-15308	864	-6608	73	-31	161	-2396	-672	16676	16	-156	241	125	126	5
-11040	-4524	10396	-49	171	-153	-13992	2336	-8196	-33	-58	-53	-1844	-700	17020	202	-8	54	-11856	1732	11532	108	-13	-167	-15260	780	-6564	44	-35	201	-2364	-672	16612	33	-153	233	125	126	5
-11000	-4612	10576	-76	169	-189	-14016	2284	-8252	-6	-84	-64	-1808	-748	16964	212	-7	48	-11852	1704	11700	115	-90	-139	-15280	812	-6532	21	-34	179	-2380	-612	16684	82	-142	211	125	126	5
-11060	-4572	10628	-114	161	-181	-13992	2356	-8124	-38	-56	-93	-1788	-844	16996	195	-41	25	-11900	1720	11520	91	-5	-143	-15216	848	-6512	10	-37	186	-2400	-564	16696	78	-93	178	125	127	5
-10988	-4532	10652	-86	189	-175	-13976	2328	-8220	23	-50	-60	-1784	-912	16928	192	14	49	-11924	1748	11560	122	-70	-161	-15276	820	-6580	12	15	171	-2504	-500	16672	112	-106	204	125	127	5
-10984	-4576	10600	-94	156	-181	-13952	2304	-8240	24	5	-49	-1804	-964	16924	180	-5	22	-11968	1772	11680	91	-32	-205	-15272	800	-6600	85	0	159	-2532	-416	16628	6	-112	206	125	126	5
-10976	-4668	10572	-104	174	-163	-13960	2256	-8116	-3	-14	-6	-1848	-916	17036	242	7	8	-11912	1756	11576	119	-67	-171	-15156	864	-6632	70	-8	148	-2480	-572	16720	-10	-140	243	125	126	5
-11008	-4556	10632	-84	159	-152	-13972	2340	-8264	-13	-29	-5	-1984	-888	16996	238	40	21	-11848	1716	11652	112	-73	-204	-15212	804	-6660	102	-2	124	-2616	-524	16688	-39	-83	213	125	126	5
-11064	-4560	10556	-88	149	-139	-13992	2304	-8324	-2	-49	4	-2064	-800	17012	156	65	-22	-11880	1772	11548	98	-9	-187	-15268	804	-6580	74	-65	121	-2536	-684	16684	-28	-143	223	125	126	5
-11004	-4592	10504	-90	157	-134	-13936	2396	-8228	7	-86	9	-1968	-776	17004	185	-19	13	-11912	1700	11652	148	-56	-140	-15280	756	-6584	65	-59	114	-2452	-768	16704	-29	-158	206	125	126	5
-11008	-4524	10532	-150	153	-179	-13936	2444	-8280	12	-121	-38	-1956	-604	16940	150	-1	1	-11968	1672	11628	167	-101	-146	-15256	756	-6592	31	-88	124	-2420	-768	16660	-2	-173	230	125	126	5
-11008	-4620	10604	-165	149	-158	-13992	2432	-8152	-2	-93	-87	-1804	-700	17028	158	-41	58	-11932	1740	11596	154	-70	-126	-15260	764	-6468	8	-29	217	-2252	-680	16632	68	-160	256	125	127	5
-11028	-4588	10640	-212	157	-177	-14016	2404	-8184	-3	-75	-153	-1800	-776	16980	146	-30	72	-11948	1828	11628	165	-56	-159	-15304	784	-6460	45	-51	199	-2308	-724	16776	114	-154	237	125	126	5
-10988	-4580	10664	-176	141	-164	-14000	2316	-8124	2	-102	-108	-1692	-956	16916	186	-8	119	-11920	1748	11536	152	-83	-133	-15256	824	-6448	47	-41	151	-2404	-520	16772	143	-95	249	125	126	5
-11024	-4608	10576	-138	171	-148	-13992	2220	-8164	-33	-44	-83	-1716	-984	16976	209	-12	64	-11912	1768	11552	115	-47	-170	-15260	788	-6472	57	28	194	-2392	-500	16656	84	-128	215	125	127	5
-11012	-4588	10652	-98	174	-191	-13984	2336	-8064	20	-30	-50	-1804	-1008	16988	193	-18	18	-11896	1732	11584	105	-21	-181	-15264	800	-6520	63	-53	230	-2420	-576	16604	-21	-149	220	125	126	5
-11056	-4556	10652	-39	162	-175	-13964	2252	-8184	-45	55	47	-1784	-1000	17072	225	47	-35	-11920	1760	11556	99	-46	-161	-15264	852	-6580	55	-8	163	-2432	-576	16612	-67	-170	204	125	127	5
-11008	-4568	10536	-32	174	-130	-14008	2280	-8308	-22	4	23	-1856	-852	17072	257	29	-13	-11928	1724	11512	100	14	-158	-15292	844	-6676	28	39	189	-2440	-632	16752	-73	-151	181	125	126	5
-10988	-4600	10464	-58	163	-107	-13916	2376	-8204	7	-3	49	-1880	-788	17056	211	68	-11	-11988	1752	11616	113	-6	-207	-15196	748	-6564	27	-4	210	-2424	-720	16660	24	-111	156	125	126	5
-11032	-4580	10580	-52	170	-120	-13916	2392	-8216	37	2	31	-1900	-728	17024	218	10	-14	-11928	1800	11592	129	3	-185	-15280	748	-6672	70	-27	214	-2468	-748	16676	69	-122	179	125	126	5
-10992	-4516	10536	-31	166	-131	-13960	2424	-8168	6	-3	21	-2004	-704	16992	182	2	7	-11992	1696	11508	124	-23	-147	-15208	860	-6672	89	-28	229	-2536	-640	16752	77	-140	212	125	127	5
-11020	-4508	10544	-37	160	-165	-13964	2284	-8268	3	-57	-27	-2000	-696	17012	173	-32	33	-11992	1720	11564	130	-47	-135	-15256	856	-6544	33	-32	158	-2472	-576	16632	84	-149	224	125	126	5
-10980	-4548	10564	-82	180	-151	-13988	2368	-8272	-35	-31	-20	-1972	-780	17048	129	-39	3	-11928	1672	11520	130	-26	-138	-15236	844	-6636	-17	-40	186	-2392	-480	16680	69	-118	242	125	126	5
-11028	-4600	10592	-123	160	-193	-13980	2400	-8364	-1	-33	-58	-1940	-756	16980	155	-40	49	-11892	1752	11616	150	-93	-156	-15272	760	-6480	42	-32	182	-2428	-500	16624	38	-135	196	125	126	5
-11020	-4568	10548	-103	158	-149	-13920	2368	-8228	-28	-55	-50	-1892	-876	17052	159	-66	48	-11916	1764	11580	77	-62	-124	-15308	860	-6612	105	-5	162	-2460	-472	16652	34	-162	205	125	126	5
-11064	-4580	10620	-114	152	-171	-13964	2340	-8284	-5	-39	-38	-1936	-852	16908	209	-10	54	-11932	1808	11504	128	-36	-176	-15256	848	-6476	75	12	144	-2436	-552	16764	31	-142	208	125	126	5
-10956	-4608	10516	-149	164	-171	-13932	2360	-8260	11	-60	-37	-1864	-872	16936	176	-1	11	-11896	1716	11528	117	-56	-133	-15248	856	-6548	69	-24	147	-2416	-604	16760	-13	-159	276	125	126	5
-11004	-4604	10536	-162	166	-157	-13880	2328	-8100	3	-32	-47	-1820	-836	17088	173	-11	9	-11928	1712	11620	101	-39	-182	-15236	780	-6556	44	-28	135	-2380	-640	16636	5	-143	240	125	126	5
-10944	-4536	10572	-148	152	-140	-13992	2360	-8152	-26	-25	-40	-1852	-888	16960	180	9	23	-11852	1752	11584	91	-35	-176	-15244	828	-6484	46	22	179	-2436	-664	16604	27	-159	220	125	127	5
-10988	-4556	10572	-110	176	-198	-13964	2328	-8208	-32	-43	-33	-1816	-880	17060	203	-23	13	-11916	1712	11632	136	-29	-151	-15252	836	-6576	56	9	120	-2440	-600	16648	0	-115	221	125	126	5
-11076	-4584	10576	-96	162	-191	-13956	2304	-8184	5	-58	-52	-1864	-944	17044	161	-16	37	-11860	1748	11572	120	-59	-166	-15280	756	-6552	55	-1	146	-2404	-632	16732	28	-106	229	125	126	5
-10996	-4600	10644	-74	168	-182	-13912	2328	-8228	19	-21	-15	-1920	-916	16852	216	-2	20	-11904	1756	11556	117	-60	-145	-15236	820	-6576	61	-62	162	-2512	-668	16624	10	-151	222	125	127	5
-11060	-4604	10580	-87	174	-149	-13908	2356	-8372	20	-28	-14	-2000	-808	17052	215	25	-12	-11920	1744	11544	118	-70	-161	-15220	840	-6640	46	-37	185	-2536	-636	16752	26	-178	196	125	127	5
-11020	-4544	10528	-100	138	-147	-13876	2388	-8216	-32	-95	-33	-1960	-732	16916	219	-41	36	-11940	1684	11732	129	-87	-108	-15292	808	-6508	111	-53	160	-2472	-616	16760	7	-180	190	125	127	5
-11004	-4520	10552	-52	137	-190	-13956	2352	-8260	-53	-48	-43	-1880	-732	17016	193	-18	26	-11972	1772	11632	137	-51	-131	-15220	872	-6488	44	-107	181	-2384	-508	16672	44	-161	216	125	127	5
-11064	-4536	10512	-100	145	-159	-13924	2328	-8216	14	-86	-41	-1808	-752	16812	177	-45	15	-11904	1728	11536	144	-54	-110	-15324	764	-6460	36	-44	154	-2320	-544	16700	53	-136	202	125	127	5
-10940	-4592	10668	-85	145	-159	-13996	2416	-8224	7	-100	-41	-1800	-740	16968	178	-19	35	-11896	1704	11492	106	-42	-161	-15264	920	-6416	8	-9	145	-2316	-448	16736	129	-121	202	125	127	5
-10988	-4600	10532	-90	170	-185	-13936	2352	-8160	2	-24	-92	-1680	-820	16912	243	5	63	-11920	1736	11484	103	-42	-154	-15240	872	-6412	16	2	148	-2364	-452	16632	97	-57	254	125	126	5
-11020	-4608	10540	-109	186	-154	-13960	2316	-8076	0	4	-63	-1692	-756	16984	214	9	70	-11896	1788	11616	88	-8	-171	-15272	860	-6532	57	19	137	-2380	-544	16668	71	-89	231	125	127	5
-11048	-4504	10652	-108	158	-149	-14040	2364	-8096	20	35	-51	-1888	-800	16952	164	1	2	-11924	1712	11548	94	-34	-190	-15260	784	-6520	110	63	148	-2480	-472	16740	-13	-115	236	125	127	5
-10992	-4592	10536	-102	175	-163	-13972	2312	-8276	36	14	-3	-1820	-984	17020	262	48	2	-11888	1708	11568	88	-32	-176	-15288	840	-6592	92	-1	138	-2632	-476	16736	-64	-101	219	125	126	5
-11020	-4544	10540	-82	189	-137	-13956	2304	-8340	-17	15	-31	-1984	-816	17004	187	11	-52	-11920	1708	11512	91	-67	-151	-15288	824	-6524	42	-13	120	-2664	-592	16652	-73	-147	196	125	127	5
-11032	-4536	10612	-81	204	-183	-13892	2332	-8292	16	7	-35	-2068	-772	16976	136	-7	4	-11908	1708	11552	82	-82	-180	-15264	792	-6536	33	-26	114	-2552	-644	16648	-93	-171	187	125	126	5
-10944	-4584	10516	-90	174	-185	-13888	2428	-8276	16	-64	-59	-2012	-692	17052	117	-32	5	-11912	1728	11632	109	-58	-208	-15276	756	-6508	56	-9	111	-2448	-736	16588	-72	-212	219	125	126	5
-11028	-4512	10552	-171	139	-163	-13896	2464	-8160	5	-75	-74	-2020	-744	16960	171	-87	8	-11936	1724	11520	118	-75	-155	-15268	764	-6616	44	-33	113	-2416	-772	16696	-21	-157	233	125	127	5
-11024	-4576	10632	-125	162	-187	-13992	2404	-8232	11	-90	-106	-1880	-852	17008	181	-40	67	-11900	1744	11540	149	-64	-160	-15312	732	-6396	78	-39	133	-2344	-692	16712	96	-141	235	125	127	5
-11040	-4528	10640	-156	146	-231	-13948	2304	-8160	-14	-105	-163	-1836	-904	16992	108	-32	111	-11924	1740	11716	102	-49	-143	-15232	824	-6384	27	-49	174	-2360	-668	16640	106	-118	234	125	126	5
-11056	-4684	10520	-166	135	-176	-14020	2272	-8236	-2	-98	-95	-1800	-988	17044	184	-62	72	-11912	1672	11632	141	-62	-176	-15240	796	-6532	34	-27	172	-2436	-564	16732	65	-138	217	125	127	5
-10992	-4572	10612	-172	182	-150	-13964	2248	-8232	-17	-77	-96	-1732	-1016	16956	207	-20	64	-11920	1728	11560	162	-78	-114	-15252	804	-6588	10	-31	154	-2500	-512	16640	13	-111	230	125	127	5
-11052	-4604	10424	-102	123	-184	-13984	2292	-8124	-24	-56	-41	-1824	-1032	16980	208	-7	28	-11920	1732	11580	130	-76	-168	-15268	796	-6460	50	-17	177	-2360	-576	16752	16	-111	219	125	126	5
-11028	-4568	10520	-56	190	-111	-14016	2244	-8200	-34	-53	24	-1756	-956	16972	267	3	-3	-11904	1772	11512	108	-109	-165	-15296	796	-6624	64	-33	194	-2408	-560	16688	29	-118	217	125	127	5
-11052	-4640	10640	-58	157	-129	-13916	2336	-8192	-2	-46	47	-1804	-944	17028	252	9	0	-11912	1760	11584	113	-54	-164	-15220	776	-6568	79	34	183	-2428	-608	16648	38	-120	215	125	127	5
-10992	-4572	10460	-50	115	-140	-13932	2244	-8156	-4	-20	34	-1852	-752	16964	249	36	4	-11908	1732	11452	151	-32	-159	-15264	764	-6492	101	-1	191	-2392	-612	16616	-4	-126	199	125	127	5
-10988	-4656	10496	-77	166	-146	-13960	2456	-8208	-37	-11	31	-1900	-776	16972	242	-11	-13	-11952	1688	11588	128	-39	-98	-15284	868	-6448	79	-14	206	-2424	-604	16616	33	-139	162	125	126	5
-10968	-4596	10580	-37	156	-175	-14008	2400	-8184	-40	-9	32	-1948	-700	17044	241	0	9	-11888	1720	11628	149	-90	-132	-15276	852	-6640	52	1	217	-2472	-556	16712	68	-136	222	125	126	5
-11052	-4532	10572	-88	168	-154	-13924	2304	-8252	0	16	-15	-1944	-800	16956	206	-31	31	-11936	1792	11580	117	-2	-160	-15252	912	-6384	22	-35	185	-2468	-488	16712	83	-113	217	125	127	5
-11012	-4592	10584	-54	178	-164	-13948	2368	-8136	45	-42	12	-1960	-816	17052	175	-44	20	-11964	1732	11564	131	-3	-156	-15272	864	-6508	45	-30	149	-2496	-448	16624	95	-110	233	125	127	5
-11000	-4628	10612	-109	154	-207	-13912	2404	-8204	30	-60	-34	-1980	-804	17056	154	3	2	-11960	1780	11524	115	-46	-160	-15268	824	-6420	65	-26	168	-2456	-452	16784	23	-101	248	125	126	5
-11040	-4564	10476	-87	193	-166	-13924	2344	-8196	-62	-24	-48	-1948	-748	17072	183	9	33	-11936	1716	11632	109	-58	-139	-15272	792	-6512	64	-9	115	-2468	-448	16648	-39	-147	258	125	127	5
-11028	-4536	10556	-113	136	-165	-13904	2312	-8180	-35	-65	-53	-1940	-708	16992	218	-53	44	-11964	1764	11608	111	-44	-215	-15260	884	-6532	58	6	102	-2492	-504	16688	-53	-176	239	125	127	5
-11012	-4548	10680	-139	179	-183	-13996	2320	-8240	-9	-42	-62	-1924	-740	16960	174	-56	35	-12040	1732	11596	100	-51	-189	-15308	772	-6568	67	-37	144	-2464	-656	16652	-48	-163	194	125	126	5
-11016	-4560	10580	-119	196	-188	-13924	2368	-8192	-29	-79	-109	-1940	-720	17036	120	-39	30	-11940	1708	11556	100	-34	-181	-15260	772	-6480	61	-27	140	-2404	-676	16680	23	-144	206	125	126	5
-11028	-4640	10576	-156	169	-215	-13908	2296	-8324	22	-53	-128	-1900	-760	16952	108	-34	42	-11860	1776	11572	92	-48	-173	-15308	820	-6552	43	-29	95	-2396	-592	16636	27	-132	208	125	126	5
-10968	-4592	10564	-130	162	-189	-13900	2412	-8200	-31	-39	-142	-1836	-848	17044	145	-8	38	-11932	1764	11492	122	-54	-151	-15292	844	-6548	55	-17	155	-2400	-580	16628	1	-142	233	125	126	5
-11004	-4596	10552	-143	145	-181	-13908	2344	-8328	-18	-30	-131	-1836	-988	17000	147	-27	73	-11952	1828	11576	137	-71	-180	-15256	832	-6504	36	-11	144	-2392	-568	16676	25	-124	234	125	127	5
-10968	-4588	10632	-106	173	-209	-13992	2320	-8356	11	-18	-152	-1752	-1020	16964	156	-23	52	-11940	1736	11664	118	-61	-165	-15316	832	-6584	9	13	151	-2396	-520	16644	21	-156	230	125	127	5
-10944	-4544	10560	-121	192	-157	-13956	2276	-8252	47	-27	-51	-1832	-1084	16968	179	-12	3	-11912	1688	11480	91	-45	-203	-15268	768	-6560	51	-16	132	-2392	-592	16632	30	-132	224	125	126	5
-11036	-4612	10580	-61	159	-165	-13956	2268	-8196	-22	-46	-21	-1872	-1044	17008	242	-16	32	-11952	1792	11564	131	-89	-177	-15232	720	-6528	63	24	167	-2516	-648	16636	-36	-153	232	125	126	5
-11036	-4524	10640	-76	188	-131	-14004	2256	-8432	-26	-47	0	-1824	-928	16996	242	36	-13	-11908	1804	11600	96	-82	-173	-15216	744	-6476	98	8	163	-2452	-764	16684	18	-167	230	125	126	5
-11024	-4560	10520	-48	158	-128	-13932	2352	-8296	-32	-45	44	-1912	-776	17004	216	26	2	-11872	1740	11624	139	-14	-169	-15320	772	-6436	64	-43	186	-2492	-744	16788	65	-99	193	125	126	5
-11064	-4636	10580	-80	145	-131	-13948	2400	-8188	-10	-37	31	-1916	-732	16796	202	-11	13	-11960	1744	11560	160	-79	-157	-15248	736	-6576	32	-31	216	-2460	-684	16616	95	-142	223	125	126	5
-10964	-4508	10620	-81	163	-154	-13980	2400	-8212	11	-25	-15	-1920	-736	16972	198	-45	38	-11972	1744	11628	141	-47	-128	-15272	772	-6512	21	-51	229	-2440	-544	16612	103	-77	188	125	126	5
-11032	-4548	10444	-112	168	-170	-13900	2340	-8152	-42	-50	-58	-1940	-764	16996	214	19	36	-11896	1776	11500	145	-33	-130	-15336	836	-6488	24	-80	229	-2460	-488	16712	125	-114	209	125	127	5
-10940	-4568	10568	-112	157	-165	-13928	2356	-8200	-17	-73	-40	-1932	-820	16924	198	-42	36	-11940	1748	11532	145	-36	-115	-15240	896	-6432	52	-67	203	-2480	-476	16696	49	-165	211	125	127	5
-11012	-4548	10600	-58	145	-168	-13948	2396	-8168	-16	-69	-25	-1912	-792	16924	159	-10	31	-11912	1816	11524	121	-44	-114	-15268	868	-6596	53	16	189	-2512	-460	16772	57	-145	177	125	127	5
-11060	-4576	10564	-101	146	-155	-13920	2336	-8168	-29	-51	-51	-1884	-800	16852	178	-23	36	-11928	1800	11568	116	-46	-157	-15204	876	-6552	100	-13	173	-2468	-476	16696	27	-167	231	125	126	5
-10996	-4564	10468	-89	134	-180	-13968	2356	-8184	-45	-99	-46	-1896	-796	16988	174	9	34	-11936	1788	11572	113	-23	-207	-15236	908	-6504	62	-61	117	-2432	-468	16648	-57	-144	230	125	127	5
-10996	-4596	10568	-105	195	-168	-13964	2368	-8152	5	-55	-69	-1872	-792	17088	174	11	5	-11924	1700	11532	95	-88	-195	-15312	848	-6408	19	-32	120	-2348	-484	16692	-23	-127	234	125	126	5
-11036	-4572	10496	-135	163	-174	-14008	2392	-8200	-6	-71	-109	-1904	-696	16948	153	-1	22	-11932	1756	11568	103	-14	-201	-15204	840	-6568	29	-1	140	-2376	-564	16704	-7	-124	240	125	127	5
-11004	-4500	10560	-121	160	-198	-13928	2440	-8316	-3	-64	-67	-1792	-820	17004	150	-38	49	-11916	1800	11596	108	-93	-215	-15284	812	-6636	36	20	120	-2364	-560	16740	15	-157	255	125	127	5
-10996	-4524	10500	-113	191	-189	-13932	2364	-8264	24	-23	-50	-1868	-836	17056	118	-37	38	-11948	1716	11496	98	-24	-194	-15228	824	-6520	50	34	123	-2396	-612	16716	-19	-162	248	125	127	5
-10984	-4620	10524	-115	181	-180	-13968	2372	-8156	27	-37	-52	-1828	-856	16976	166	-10	29	-11896	1700	11616	93	-25	-186	-15208	784	-6592	52	52	122	-2416	-672	16680	-44	-140	234	125	127	5
-11012	-4596	10632	-94	159	-196	-13992	2336	-8044	-11	-15	-69	-1888	-872	16828	187	-18	23	-11956	1732	11576	107	-16	-169	-15248	784	-6476	68	12	122	-2448	-672	16688	6	-137	219	125	127	5
-11028	-4528	10568	-132	184	-150	-13896	2324	-8200	23	-19	-51	-1852	-868	17004	159	-39	44	-11908	1732	11564	129	-79	-132	-15228	788	-6532	47	6	175	-2440	-688	16548	10	-151	234	125	126	5
-10976	-4604	10532	-99	165	-146	-13952	2364	-8256	-18	-29	-75	-1896	-912	16948	183	-6	35	-11924	1764	11548	140	-42	-155	-15228	816	-6608	45	-2	159	-2516	-700	16652	58	-136	220	125	127	5
-11008	-4640	10512	-145	141	-178	-13932	2292	-8108	-39	-46	-89	-1936	-864	17024	209	24	28	-11972	1744	11624	120	-87	-156	-15216	812	-6612	23	-25	194	-2472	-648	16612	48	-159	224	125	126	5
-11048	-4600	10648	-174	161	-134	-13972	2344	-8176	-10	-65	-67	-1872	-888	16964	156	3	37	-11924	1712	11660	148	-70	-145	-15296	800	-6504	34	-8	196	-2468	-656	16656	53	-99	215	125	126	5
-11064	-4580	10516	-172	164	-155	-13948	2328	-8276	41	-76	8	-1888	-924	17028	188	-69	54	-11912	1724	11464	131	-40	-150	-15260	792	-6632	22	-28	189	-2464	-548	16748	33	-137	239	125	126	5
-11028	-4644	10508	-118	153	-186	-13888	2316	-8332	-67	-113	-64	-1880	-784	17056	198	-14	13	-11904	1676	11564	133	-50	-147	-15244	832	-6528	32	-67	149	-2472	-516	16772	38	-129	267	125	127	5
-11056	-4648	10580	-76	148	-198	-13960	2404	-8364	-65	-56	-50	-1868	-804	17016	177	22	33	-11936	1808	11512	120	-32	-145	-15280	860	-6632	45	-21	151	-2448	-560	16708	25	-148	267	125	126	5
-11036	-4600	10488	-116	146	-190	-13928	2336	-8144	-50	-86	-77	-1844	-796	16832	159	-45	43	-11944	1784	11568	125	-66	-168	-15288	840	-6520	74	-66	138	-2472	-544	16736	33	-109	246	125	126	5
-11056	-4636	10612	-96	195	-191	-13988	2344	-8156	-20	-55	-54	-1804	-816	16780	124	-25	4	-12012	1744	11604	124	-43	-178	-15256	872	-6544	90	-27	145	-2404	-580	16716	31	-121	173	125	126	5
-10976	-4564	10564	-72	168	-167	-13988	2356	-8092	20	-46	-65	-1808	-828	16888	160	-49	-4	-11968	1732	11572	124	-75	-169	-15244	816	-6528	61	-37	129	-2428	-488	16716	-42	-154	153	125	126	5
-11052	-4596	10484	-77	167	-163	-13988	2332	-8248	-8	-16	-38	-1852	-820	17004	141	-16	-18	-12000	1780	11696	112	37	-196	-15300	716	-6512	75	-4	172	-2356	-508	16628	-23	-155	172	125	126	5
-11004	-4564	10572	-77	171	-142	-14008	2392	-8152	-20	7	-69	-1820	-840	17008	147	-13	-3	-11908	1764	11632	108	-45	-201	-15288	816	-6492	88	24	184	-2416	-528	16704	-61	-183	176	125	126	5
-10980	-4588	10564	-100	171	-154	-13928	2400	-8156	14	6	-6	-1880	-820	17024	153	-24	-27	-12008	1784	11568	94	-2	-193	-15268	840	-6512	76	64	115	-2544	-548	16540	-63	-142	187	125	126	5
-11040	-4652	10572	-69	194	-172	-13908	2304	-8316	36	-13	-56	-2076	-884	17028	157	-31	7	-11944	1772	11572	98	-47	-158	-15276	876	-6472	49	37	113	-2496	-616	16652	-34	-141	219	125	127	5
-11048	-4584	10600	-97	197	-168	-13948	2332	-8252	-9	-39	-58	-2000	-868	16964	180	22	4	-11904	1720	11548	58	-24	-177	-15296	800	-6688	40	23	97	-2432	-620	16712	20	-136	270	125	127	5
-11016	-4540	10628	-99	160	-179	-13916	2372	-8248	-20	-79	-63	-1980	-916	16896	126	-19	34	-11896	1732	11548	109	-41	-168	-15244	820	-6624	50	3	134	-2496	-704	16552	-11	-144	286	125	126	5
-10964	-4512	10612	-124	160	-198	-13904	2376	-8228	-26	-111	-89	-1904	-796	16916	228	-44	69	-11912	1684	11644	98	-12	-186	-15280	756	-6580	58	5	119	-2416	-704	16584	16	-185	280	125	126	5
-11056	-4560	10516	-121	161	-147	-13932	2320	-8168	-18	-119	-50	-1884	-936	17140	160	-102	39	-11932	1712	11540	105	-66	-182	-15260	756	-6668	53	-2	158	-2424	-744	16660	40	-176	251	125	127	5
-11004	-4632	10544	-122	159	-182	-14016	2288	-8228	-15	-48	-93	-1860	-964	16948	208	-27	45	-11972	1772	11612	95	-81	-158	-15224	776	-6584	53	-29	175	-2412	-712	16608	130	-163	196	125	126	5
