#Activity	sitting 
#ActivityID	5 
#Date 08-27-17-19
acc_rf_x	acc_rf_y	acc_rf_z	gyro_rf_x	gyro_rf_y	gyro_rf_z	acc_rs_x	acc_rs_y	acc_rs_z	gyro_rs_x	gyro_rs_y	gyro_rs_z	acc_rt_x	acc_rt_y	acc_rt_z	gyro_rt_x	gyro_rt_y	gyro_rt_z	acc_lf_x	acc_lf_y	acc_lf_z	gyro_lf_x	gyro_lf_y	gyro_lf_z	acc_ls_x	acc_ls_y	acc_ls_z	gyro_ls_x	gyro_ls_y	gyro_ls_z	acc_lt_x	acc_lt_y	acc_lt_z	gyro_lt_x	gyro_lt_y	gyro_lt_z	EMG_r	EMG_l	act
-10196	-4292	11608	-104	157	-225	-16044	-2084	1352	10	-13	-4	-736	-5176	16288	0	-14	26	-9952	6024	12024	14	-2	-22	-16544	2320	-1128	6	-3	17	-2216	-2568	16944	24	-2	0	118	130	5
-10228	-4272	11728	-97	130	-183	-16056	-2040	1244	8	-28	-61	-584	-5240	16160	-2	-14	27	-9896	6072	12584	13	0	-19	-16464	2312	-1248	5	-5	22	-2224	-2520	16600	21	-1	2	119	130	5
-10204	-4180	11648	-96	150	-212	-16012	-2008	1220	-2	-25	-58	-632	-5288	16080	1	-11	24	-10008	6024	12296	14	-6	-20	-16368	2424	-1344	5	-6	18	-2288	-2448	16584	24	0	3	120	130	5
-10212	-4192	11664	-125	172	-179	-16056	-2008	1244	11	-41	-79	-672	-5272	16320	-7	-10	18	-9816	6048	12184	17	-8	-20	-16544	2272	-1520	5	-4	15	-2160	-2456	16832	19	-3	8	119	130	5
-10180	-4296	11664	-70	120	-196	-16088	-2052	1404	20	-36	-81	-712	-5128	16240	-3	-15	20	-9832	5920	12264	15	-7	-26	-16424	2336	-1224	6	-7	9	-2104	-2472	16880	20	3	7	120	130	5
-10236	-4248	11548	-135	143	-206	-16084	-2044	1236	19	-40	-99	-736	-5208	16128	-6	-18	23	-10072	6032	12168	9	-9	-21	-16552	2336	-952	7	-6	13	-2208	-2424	16936	22	0	8	118	130	5
-10152	-4216	11604	-126	131	-230	-15996	-1984	1324	-25	-52	-111	-728	-5192	16160	-1	-18	22	-9904	6088	12072	11	-3	-23	-16488	2264	-1456	9	-8	18	-2096	-2560	16888	25	3	7	121	130	5
-10196	-4220	11692	-142	132	-234	-15976	-2064	1308	-22	-55	-104	-600	-5376	16160	-3	-15	23	-9968	6008	11912	12	-7	-22	-16480	2208	-1240	15	-11	18	-1976	-2568	16800	19	5	0	119	130	5
-10204	-4268	11720	-95	159	-215	-16032	-2056	1516	-25	-44	-94	-488	-5424	16144	-5	-12	21	-10016	5928	12280	13	0	-16	-16376	2304	-1008	14	-11	17	-2112	-2616	16680	16	3	0	120	130	5
-10196	-4244	11620	-99	147	-213	-15984	-2132	1384	-8	-34	-88	-632	-5384	16168	-2	-10	17	-9952	5904	12000	13	-4	-19	-16472	2304	-1424	8	-7	14	-2080	-2616	16664	20	-1	-4	120	130	5
-10188	-4252	11616	-61	114	-205	-16024	-2080	1360	39	0	-57	-640	-5200	16160	-1	-10	17	-10000	6024	12144	9	-8	-19	-16472	2344	-1288	5	1	15	-1968	-2616	16680	18	1	0	121	130	5
-10196	-4268	11700	-62	136	-193	-16000	-2036	1376	57	9	-74	-640	-5184	16288	-4	-10	17	-9896	6008	12152	10	-3	-21	-16648	2336	-968	4	0	17	-2168	-2592	16776	21	-2	-1	118	130	5
-10252	-4212	11648	-129	152	-189	-16020	-2036	1348	-5	-23	-49	-624	-5192	16016	-5	-15	20	-9896	6176	12200	19	-3	-21	-16544	2256	-1128	0	-2	11	-2176	-2528	16856	24	1	5	120	130	5
-10208	-4224	11616	-112	127	-207	-16040	-2040	1316	40	-6	-52	-720	-5296	16088	-7	-19	23	-9880	6064	12208	14	-1	-19	-16440	2352	-1280	-1	5	17	-2192	-2584	16832	26	-1	4	119	130	5
-10272	-4268	11616	-124	181	-195	-16044	-2060	1272	2	10	-82	-736	-5296	16232	-1	-14	23	-9968	6032	12112	14	-3	-25	-16464	2352	-1160	7	-2	15	-2248	-2560	16744	26	-4	4	121	130	5
-10232	-4272	11640	-162	146	-234	-16052	-2028	1336	-12	-2	-51	-728	-5224	16280	4	-16	28	-9832	5920	12072	14	-3	-21	-16584	2328	-1128	6	6	17	-2024	-2584	16880	28	-2	5	118	130	5
-10204	-4232	11684	-149	127	-196	-16052	-2068	1276	-2	-15	-63	-624	-5264	16360	7	-15	25	-9904	5944	12216	17	-1	-21	-16584	2312	-1040	10	0	20	-2176	-2448	16664	27	-1	5	120	130	5
-10200	-4232	11640	-126	154	-208	-16028	-2108	1460	21	-56	-76	-792	-5296	15992	12	-18	24	-9920	5904	12416	14	-1	-21	-16424	2352	-1144	9	-3	15	-2104	-2448	16560	26	-5	5	120	130	5
-10200	-4260	11604	-91	127	-215	-16000	-2064	1284	30	5	-124	-656	-5216	16128	2	-13	26	-9864	5976	12224	16	-4	-20	-16416	2328	-1160	10	-2	18	-2288	-2528	16704	22	-4	2	121	130	5
-10212	-4240	11712	-118	150	-194	-15992	-2108	1280	2	-26	-48	-640	-5248	16200	-2	-9	19	-10024	6104	12184	11	-6	-19	-16480	2472	-1208	10	-2	17	-2296	-2600	16832	26	-4	6	119	130	5
-10204	-4260	11692	-90	147	-183	-15976	-2104	1196	12	-25	-36	-584	-5128	16064	-5	-11	18	-9960	6000	11992	11	-3	-23	-16592	2248	-1264	7	-4	15	-2080	-2480	16968	19	-4	4	119	130	5
-10224	-4268	11680	-100	137	-224	-16068	-2084	1368	10	-30	-53	-720	-5200	16096	-5	-12	19	-10000	6000	12336	9	-6	-28	-16424	2240	-1368	4	-5	16	-2160	-2672	16784	22	-3	5	119	130	5
-10204	-4232	11700	-105	132	-205	-16032	-2028	1372	6	-47	-101	-672	-5184	16016	-1	-17	18	-9864	5920	12240	10	-6	-21	-16520	2312	-1264	6	-4	17	-2096	-2544	16568	21	-1	6	120	130	5
-10240	-4260	11600	-119	122	-176	-16080	-2080	1384	-42	-27	-81	-616	-5256	16120	-3	-14	26	-9856	6024	12272	10	-6	-22	-16568	2488	-1432	9	-7	17	-2144	-2520	16936	16	3	-1	121	130	5
-10232	-4316	11584	-104	115	-218	-15992	-2100	1272	-36	-57	-66	-672	-5136	16104	0	-18	18	-10024	5944	12280	12	-5	-25	-16496	2280	-1192	9	-8	20	-2176	-2552	16912	19	0	2	119	130	5
-10172	-4180	11556	-121	183	-211	-16016	-2136	1404	25	-42	-59	-664	-5112	16272	3	-11	16	-9888	6040	12048	11	-10	-24	-16616	2352	-1168	13	-12	18	-2176	-2560	16688	20	2	-1	120	130	5
-10204	-4232	11584	-66	154	-210	-16040	-2052	1360	56	-27	-71	-608	-5176	15888	2	-14	20	-9864	5888	12248	14	-8	-22	-16536	2424	-1224	10	-4	18	-2200	-2656	16840	18	0	4	120	130	5
-10236	-4236	11584	-90	111	-244	-16056	-2120	1352	47	-39	-78	-512	-5192	16088	1	-12	22	-9888	5872	12096	11	-8	-17	-16488	2304	-1248	11	-8	16	-2168	-2520	16880	17	1	0	118	130	5
-10172	-4244	11688	-90	123	-180	-16036	-2032	1400	12	-33	-91	-504	-5288	16424	-1	-14	21	-9856	6008	12080	15	-2	-24	-16496	2312	-1192	6	-5	14	-2040	-2576	16704	20	3	0	119	130	5
-10248	-4248	11616	-125	143	-201	-16060	-2156	1296	1	2	-72	-616	-5296	16200	-5	-14	20	-9880	6064	12304	12	-1	-21	-16408	2408	-1328	3	2	15	-2104	-2536	16544	23	-2	2	118	130	5
-10180	-4256	11616	-103	139	-197	-16032	-2044	1268	25	-2	-66	-720	-5280	16240	-4	-16	22	-9952	5968	12024	15	-6	-25	-16512	2312	-1208	5	-1	19	-2168	-2688	16552	20	-4	2	120	130	5
-10188	-4216	11592	-135	156	-206	-16064	-2020	1256	4	-9	-88	-608	-5272	15936	-12	-15	23	-9952	6040	12184	13	-2	-22	-16496	2328	-1240	4	-1	14	-2240	-2608	16744	20	1	6	118	129	5
-10192	-4292	11576	-120	165	-202	-16032	-2040	1344	27	6	-76	-632	-5384	15984	-4	-16	17	-9944	6072	12144	13	-1	-23	-16552	2248	-1296	8	-6	13	-2152	-2744	16488	22	-2	5	118	130	5
-10216	-4232	11648	-161	163	-204	-15992	-2100	1356	45	25	-85	-648	-5088	16136	0	-19	20	-9776	6016	12120	11	3	-22	-16592	2224	-1224	9	-1	17	-2200	-2464	16632	20	-4	2	120	130	5
-10236	-4284	11728	-117	153	-179	-15992	-2048	1284	-32	-14	-84	-608	-5304	15984	-3	-14	23	-9768	6112	12128	11	-6	-21	-16408	2400	-1008	8	2	15	-2152	-2560	16880	20	1	1	119	130	5
-10252	-4200	11688	-137	154	-175	-16012	-2096	1388	-26	18	-58	-784	-5136	16248	0	-17	25	-9824	5920	11920	13	-8	-23	-16504	2232	-1072	10	-1	16	-2168	-2632	16504	18	-3	2	117	130	5
-10180	-4248	11596	-131	142	-210	-15968	-2108	1320	17	-27	-86	-664	-5128	16168	-2	-14	25	-9872	6112	12056	14	-10	-22	-16464	2392	-1184	5	-7	14	-2232	-2616	16864	21	-3	1	119	130	5
-10212	-4320	11668	-109	138	-224	-15960	-2072	1280	59	-33	-98	-768	-5360	16104	-4	-12	24	-9936	6040	12360	10	-2	-16	-16448	2176	-1064	12	-2	10	-2216	-2640	16840	23	1	5	119	130	5
-10168	-4328	11616	-107	146	-204	-16064	-2040	1248	50	-29	-95	-720	-5360	16328	-5	-15	23	-9832	5904	12176	11	-5	-22	-16464	2232	-1208	6	-4	14	-2232	-2672	16776	25	1	5	120	130	5
-10268	-4208	11660	-130	115	-181	-16016	-2084	1252	24	-29	-108	-672	-5144	16096	-3	-14	20	-9896	6088	12216	11	-6	-22	-16520	2256	-1176	8	-6	15	-2232	-2536	16728	22	-2	5	120	130	5
-10260	-4264	11716	-111	122	-202	-15976	-2056	1416	3	-24	-90	-640	-5256	16272	-4	-14	21	-9848	6024	12256	11	0	-17	-16616	2272	-1232	11	-7	15	-2328	-2616	16768	19	3	-2	121	130	5
-10236	-4304	11652	-118	128	-187	-16060	-2096	1372	-19	-33	-56	-728	-5192	15976	-5	-13	24	-9976	6000	12232	17	-8	-19	-16640	2272	-1368	8	-6	19	-2176	-2624	16720	15	-4	4	120	129	5
-10252	-4228	11608	-148	185	-157	-16064	-2116	1376	-19	-46	-80	-576	-5296	16192	-4	-13	24	-9992	5920	12120	13	-5	-21	-16464	2240	-1048	10	0	14	-2168	-2632	16504	18	4	6	119	130	5
-10260	-4308	11608	-133	168	-188	-16080	-2060	1296	-15	-33	-67	-488	-5312	16032	-3	-13	24	-9896	6088	12112	11	-5	-19	-16688	2136	-1032	9	-2	17	-2064	-2632	16792	19	-1	5	120	130	5
-10176	-4236	11600	-97	129	-201	-15984	-2092	1336	-10	-7	-53	-488	-5280	16000	-4	-9	23	-9976	6056	12168	12	-6	-24	-16520	2256	-1232	5	-1	14	-2016	-2496	16744	23	-1	4	121	130	5
-10212	-4296	11644	-79	139	-198	-16000	-2144	1352	16	-18	-24	-592	-5320	16136	-3	-12	20	-9848	5960	12056	12	-3	-20	-16504	2192	-1392	7	-2	16	-2072	-2680	16480	29	-1	4	120	130	5
-10232	-4248	11660	-149	170	-183	-16032	-2076	1304	31	4	-75	-536	-5248	15984	4	-13	19	-9896	5912	12176	13	-6	-21	-16552	2264	-1336	8	-7	19	-2192	-2584	16856	27	0	0	118	130	5
-10192	-4312	11596	-106	142	-156	-16080	-2064	1344	60	20	-47	-656	-5304	16120	6	-14	18	-10008	5848	12152	17	0	-18	-16520	2232	-1248	8	-3	21	-2192	-2712	16880	23	-4	0	121	130	5
-10176	-4240	11720	-111	150	-191	-16080	-2012	1224	40	-15	-71	-624	-5160	16040	2	-15	22	-9904	6080	12200	13	-2	-19	-16488	2256	-1152	9	-6	20	-2088	-2592	17112	22	-2	4	119	130	5
-10232	-4256	11616	-115	120	-169	-16064	-2056	1296	5	-9	-95	-824	-5264	16128	-1	-11	24	-9896	5848	12000	13	2	-20	-16544	2336	-1248	4	1	20	-2152	-2672	16648	15	-1	-2	118	130	5
-10228	-4232	11748	-113	147	-194	-16028	-2084	1256	-32	-7	-52	-616	-5144	16248	-5	-13	20	-9808	6184	12120	13	-4	-18	-16552	2288	-1128	8	-3	18	-2160	-2712	16768	24	-2	5	121	129	5
-10176	-4256	11616	-55	170	-194	-15984	-2100	1388	-29	-27	-96	-672	-5296	16200	0	-11	24	-9904	6064	12032	13	-6	-18	-16400	2312	-1208	3	-5	15	-2288	-2592	16944	26	1	2	118	130	5
-10228	-4328	11660	-86	98	-185	-15972	-2136	1340	25	-3	-68	-616	-5344	16544	-6	-16	22	-10000	5944	12000	13	-6	-22	-16496	2216	-1112	2	-3	18	-2040	-2512	16736	27	-1	2	120	130	5
-10224	-4252	11584	-121	144	-189	-16016	-2044	1416	2	-24	-77	-592	-5312	16144	2	-15	24	-9944	5888	12272	10	1	-23	-16344	2288	-1160	3	0	13	-2336	-2456	16632	25	-2	5	119	130	5
-10228	-4216	11568	-124	149	-176	-16016	-2008	1348	53	-19	-63	-592	-5240	16192	-2	-15	21	-9920	6016	12016	10	-3	-19	-16488	2424	-1336	8	-9	17	-2328	-2640	16744	19	-2	2	119	130	5
-10224	-4224	11660	-123	89	-194	-16068	-2092	1296	6	-17	-90	-704	-5112	16136	-1	-13	22	-9960	6008	12320	14	-5	-19	-16384	2320	-1168	11	-5	17	-2032	-2576	16672	15	-3	-2	120	130	5
-10216	-4284	11656	-93	153	-214	-16028	-2040	1388	46	-20	-57	-592	-5248	16144	0	-15	16	-9816	5944	12056	14	-5	-22	-16472	2256	-1080	9	-5	20	-2072	-2536	16736	22	0	-5	120	130	5
-10272	-4208	11644	-103	147	-182	-16040	-2096	1332	51	-26	-87	-616	-5184	16360	-1	-11	16	-10008	6032	12296	15	-1	-23	-16456	2392	-1440	10	0	19	-2008	-2592	16904	21	-4	-3	119	129	5
-10240	-4200	11672	-116	152	-184	-16032	-2052	1292	46	10	-84	-640	-5256	16288	-1	-13	19	-9920	5880	12248	18	0	-25	-16368	2248	-1168	3	-10	21	-2112	-2576	16784	21	-3	-2	119	130	5
-10212	-4264	11596	-93	155	-216	-16036	-2048	1400	19	2	-69	-752	-5128	16168	-10	-14	14	-9960	5944	12160	9	-3	-19	-16536	2264	-944	2	-4	18	-2208	-2688	16736	28	1	-5	119	130	5
-10300	-4288	11656	-121	127	-215	-15988	-2052	1228	23	-24	-76	-648	-5280	16032	-13	-9	19	-10008	6000	12192	15	-5	-18	-16632	2288	-1200	4	-5	14	-2240	-2616	16792	19	-2	2	118	130	5
-10212	-4260	11804	-103	108	-194	-16072	-2044	1256	17	-22	-89	-648	-5280	16112	-4	-17	23	-9864	5984	12248	17	-7	-19	-16456	2232	-1304	7	0	16	-2176	-2552	16856	17	-4	4	120	130	5
-10208	-4164	11760	-139	142	-201	-15964	-2004	1312	-10	-66	-96	-664	-5376	16112	-3	-17	29	-9920	6040	11984	11	-5	-18	-16400	2280	-1184	3	-4	15	-2104	-2616	16848	22	-1	7	120	130	5
-10248	-4280	11580	-141	134	-207	-16068	-2104	1372	-18	-29	-110	-512	-5200	16024	-1	-18	23	-9880	5984	12408	12	-2	-22	-16376	2336	-1296	10	-4	17	-2192	-2680	16840	18	3	6	120	129	5
-10144	-4284	11636	-126	130	-210	-16016	-2132	1208	17	-45	-83	-688	-5280	16032	1	-19	25	-9816	5928	11992	16	-8	-16	-16616	2184	-1264	10	-2	17	-2136	-2712	16712	24	-2	1	120	129	5
-10228	-4260	11620	-132	125	-188	-16032	-2140	1288	44	0	-78	-560	-5376	15936	4	-12	24	-9896	5880	11984	9	-4	-21	-16576	2176	-1248	13	0	18	-2152	-2648	16512	24	1	3	120	130	5
-10188	-4328	11608	-99	138	-219	-15968	-2124	1368	34	-19	-63	-600	-5312	16000	7	-10	22	-9896	6080	12112	14	-4	-18	-16552	2240	-1304	7	-5	20	-2160	-2512	16448	21	-4	1	121	130	5
-10176	-4288	11580	-74	172	-191	-15988	-2152	1324	33	7	-12	-616	-5240	16192	11	-14	20	-9952	5976	12184	12	-4	-19	-16528	2376	-1096	10	-2	20	-2200	-2632	16712	22	-3	5	120	130	5
-10196	-4208	11692	-49	149	-154	-16048	-2132	1268	40	5	-46	-584	-5352	16104	7	-10	22	-9856	5840	12112	16	1	-19	-16360	2264	-1480	6	-2	18	-2192	-2592	16544	28	-1	2	121	130	5
-10208	-4240	11688	-60	131	-192	-16048	-2068	1332	-21	-17	-41	-672	-5160	16064	3	-10	21	-9848	5984	12096	16	-6	-19	-16512	2200	-1208	5	-6	20	-2208	-2680	16664	30	-1	4	121	129	5
-10180	-4272	11704	-64	123	-162	-16044	-2132	1324	-43	-14	-46	-672	-5200	16096	2	-14	20	-9864	5904	12304	14	-2	-17	-16448	2256	-1000	9	-2	19	-2264	-2648	16496	28	3	-2	120	130	5
-10184	-4288	11732	-54	127	-170	-15964	-2068	1212	-13	-12	-40	-608	-5240	16160	2	-11	21	-9888	6064	12056	14	-3	-24	-16528	2416	-1040	10	-8	26	-2224	-2632	16792	28	1	-1	120	130	5
-10216	-4272	11644	-128	138	-183	-16012	-2096	1352	-39	17	-12	-520	-5328	16000	5	-10	18	-9888	5968	12280	16	-1	-22	-16512	2312	-1040	8	-3	28	-2136	-2528	17000	26	-7	-2	119	130	5
-10184	-4224	11692	-96	172	-163	-16020	-2076	1352	4	18	-17	-664	-5336	16448	7	-14	22	-9992	5912	12080	18	0	-23	-16472	2336	-1080	8	-3	23	-2112	-2520	16720	32	-4	2	122	130	5
-10192	-4296	11692	-63	144	-161	-16024	-2040	1252	38	18	-26	-640	-5240	16264	13	-9	20	-9824	6064	12120	18	1	-20	-16424	2208	-1176	10	-2	21	-2112	-2528	16840	30	-4	1	118	130	5
-10188	-4248	11688	-56	136	-176	-16028	-2020	1264	61	-1	-35	-616	-5200	16096	13	-16	23	-9848	6024	12144	14	-4	-21	-16464	2360	-1224	4	-1	20	-2112	-2472	16680	31	-4	4	122	129	5
-10212	-4280	11620	-87	163	-185	-16032	-1992	1304	36	-9	-34	-736	-5088	16152	6	-18	22	-9872	6000	12152	15	1	-20	-16464	2328	-1368	7	-6	20	-2152	-2512	16560	32	-4	1	118	129	5
-10124	-4216	11556	-98	187	-194	-16060	-2016	1324	7	26	-7	-672	-5112	16040	-1	-19	15	-9952	5976	12120	15	-4	-22	-16600	2432	-1152	11	-7	17	-2072	-2528	16912	21	-7	1	119	130	5
-10176	-4248	11660	-100	175	-188	-15988	-2088	1204	31	2	-73	-600	-5184	16080	-9	-16	19	-9944	5944	12232	17	-4	-20	-16496	2336	-1288	10	-4	16	-2304	-2544	16664	18	-5	-1	117	130	5
-10172	-4188	11696	-92	135	-206	-16008	-2136	1364	-12	-23	-69	-712	-5224	16312	-10	-14	20	-9896	6056	12048	14	-8	-21	-16552	2352	-1080	5	-1	19	-2264	-2472	16936	23	-8	4	121	130	5
-10204	-4180	11812	-140	155	-211	-15976	-2084	1360	11	13	-36	-616	-5128	16112	-7	-10	20	-10040	5800	12064	8	0	-21	-16600	2144	-1264	7	-5	17	-2144	-2432	16856	22	-6	3	120	130	5
-10196	-4320	11688	-140	182	-213	-16016	-2012	1256	0	-13	-98	-728	-5304	16088	-3	-15	18	-9976	6000	12272	10	-3	-20	-16552	2080	-1056	5	-8	18	-2000	-2512	16712	21	-2	2	120	130	5
-10252	-4224	11704	-136	151	-212	-16044	-2036	1384	-13	-44	-37	-648	-5328	16080	0	-12	21	-9936	5864	12072	13	-2	-19	-16584	2272	-1176	8	-7	15	-2024	-2608	16880	20	2	7	120	129	5
-10160	-4252	11664	-98	139	-201	-16024	-2132	1292	-19	-28	-65	-616	-5168	16360	4	-10	21	-9872	5920	12280	8	-10	-28	-16512	2368	-1368	12	-3	18	-2160	-2656	16600	17	-4	3	119	130	5
-10216	-4272	11668	-103	143	-188	-16044	-2116	1288	4	-28	-73	-608	-5224	16168	-3	-12	27	-9952	6192	12120	14	-5	-21	-16472	2280	-1416	12	-9	15	-2200	-2640	16648	19	1	7	119	130	5
-10232	-4292	11684	-96	152	-171	-16024	-2120	1284	59	-26	-50	-600	-5296	16136	-4	-11	20	-9912	5976	11992	11	-3	-20	-16504	2208	-1328	7	-7	17	-2128	-2608	16544	22	-5	6	118	130	5
-10164	-4240	11704	-76	169	-193	-16008	-2076	1344	45	-21	-26	-488	-5192	16152	-4	-10	17	-9920	6016	12168	13	-2	-20	-16472	2272	-1248	5	-5	19	-2096	-2736	16952	24	-1	6	122	130	5
-10184	-4256	11628	-108	151	-192	-15992	-2060	1292	3	-9	-57	-608	-5512	16008	1	-12	18	-10096	6032	12248	15	-7	-23	-16544	2312	-1208	5	-1	17	-2128	-2624	16504	31	2	4	118	129	5
-10252	-4228	11656	-81	127	-178	-16060	-2104	1388	-7	-1	-19	-584	-5392	16016	11	-9	21	-9952	6096	12056	18	-5	-20	-16584	2192	-1136	8	-2	20	-2176	-2616	16688	31	-3	2	120	129	5
-10232	-4260	11632	-50	149	-172	-15964	-2048	1372	-12	-4	-41	-608	-5304	15992	9	-14	21	-10008	6056	12064	17	-4	-20	-16584	2408	-1224	9	0	22	-2192	-2672	16784	26	-1	-3	118	130	5
-10140	-4244	11568	-60	145	-163	-16016	-2088	1396	-1	2	-29	-504	-5160	16000	9	-13	23	-9848	6008	11992	17	-9	-17	-16472	2256	-1240	9	-2	21	-2200	-2464	16664	24	-2	2	120	130	5
-10268	-4248	11668	-49	152	-145	-15988	-2116	1336	-12	9	-6	-776	-5112	16056	7	-14	20	-10008	6016	12272	19	1	-24	-16528	2360	-1200	7	1	22	-2208	-2640	16816	27	-4	0	118	130	5
-10200	-4260	11648	-51	166	-155	-16088	-2076	1220	54	34	-33	-632	-5160	15888	4	-13	13	-9744	6000	12248	19	-8	-19	-16496	2344	-1136	8	1	19	-2136	-2488	16760	35	-6	7	119	130	5
-10236	-4324	11648	-74	138	-171	-16016	-2004	1292	17	11	-26	-632	-5176	16344	10	-12	15	-9912	6000	12272	13	-3	-21	-16504	2240	-1168	5	1	24	-2272	-2480	16864	33	-1	4	119	129	5
-10264	-4220	11720	-81	123	-178	-16020	-2008	1284	4	8	-43	-640	-5320	16016	14	-10	20	-10024	6008	12096	14	-6	-19	-16544	2376	-1344	9	0	22	-2256	-2600	16592	34	-4	3	119	130	5
-10132	-4224	11652	-123	157	-198	-15996	-2072	1272	-42	25	-11	-672	-5296	16016	10	-15	25	-9976	6072	12096	16	-2	-24	-16384	2336	-1232	8	-1	21	-2232	-2328	16976	28	-4	2	121	129	5
-10160	-4216	11620	-91	156	-176	-15964	-2140	1408	-15	18	-10	-712	-5104	15992	13	-19	30	-9984	5880	12128	12	0	-23	-16512	2264	-1096	6	0	21	-2136	-2464	16704	25	-2	3	120	129	5
-10252	-4240	11612	-101	138	-177	-16028	-2080	1364	15	-13	-8	-656	-5184	16120	1	-17	24	-9912	5920	12344	15	-3	-21	-16392	2272	-1032	6	-1	19	-2256	-2496	16744	21	-4	3	121	129	5
-10144	-4312	11640	-102	150	-196	-16000	-2088	1268	46	-27	-88	-808	-5192	16272	-5	-15	16	-9904	6064	12104	14	-8	-19	-16472	2240	-1200	4	-2	19	-2328	-2448	16800	21	-5	5	120	129	5
-10184	-4220	11720	-86	140	-197	-15996	-2068	1308	49	-44	-58	-656	-5168	16168	-9	-13	18	-9800	5984	12040	17	-9	-17	-16472	2376	-1136	8	-8	18	-2208	-2456	16784	25	-1	5	118	130	5
-10236	-4208	11572	-114	173	-209	-15964	-2060	1292	-27	-31	-104	-536	-5104	16304	-1	-12	14	-9824	6048	12032	15	-9	-20	-16440	2272	-1256	12	-8	15	-2136	-2544	16688	20	2	-2	121	129	5
-10164	-4160	11620	-112	129	-201	-16044	-2048	1240	9	-30	-105	-672	-5192	16168	-3	-14	17	-9992	5968	12144	12	0	-18	-16472	2280	-1208	12	-8	15	-2152	-2528	16800	16	-1	-1	119	129	5
-10208	-4240	11784	-98	159	-209	-15960	-2084	1308	14	-37	-63	-472	-5184	16128	-2	-16	18	-10032	5960	12176	10	-7	-23	-16496	2328	-1112	12	-4	19	-2040	-2512	16648	19	0	-1	120	130	5
-10188	-4240	11648	-134	157	-220	-16028	-2024	1432	-7	-30	-51	-584	-5408	16192	-8	-15	22	-9896	6008	12256	11	-2	-15	-16520	2312	-1272	13	-4	16	-2168	-2408	16936	20	-2	0	120	129	5
-10168	-4204	11700	-133	132	-201	-16032	-2032	1404	14	8	-93	-544	-5240	16320	-8	-12	18	-9952	5952	12064	16	-10	-23	-16520	2288	-1064	5	-5	19	-2032	-2552	16584	21	-3	1	120	130	5
-10200	-4280	11636	-126	157	-224	-16008	-2100	1332	49	-24	-104	-680	-5272	16096	-10	-16	22	-10032	5960	12200	12	-7	-20	-16568	2248	-1304	2	0	18	-2200	-2584	16824	23	-3	0	121	130	5
-10192	-4268	11704	-100	161	-221	-16044	-2080	1420	92	17	-93	-736	-5264	15984	-3	-18	17	-9848	5936	12224	13	-4	-25	-16552	2360	-1104	2	-2	14	-2168	-2560	16704	19	-4	-2	119	130	5
-10168	-4244	11684	-129	140	-192	-15972	-2080	1296	44	-32	-108	-616	-5376	15936	-7	-20	16	-10000	5944	12120	13	-3	-21	-16488	2176	-984	4	2	15	-2176	-2600	16760	23	-3	0	121	129	5
-10228	-4276	11684	-124	152	-201	-16060	-2092	1280	-11	-39	-123	-656	-5080	16088	1	-14	18	-9848	6008	12000	15	-7	-21	-16504	2328	-984	8	-1	14	-2216	-2648	16864	24	-3	4	119	129	5
-10180	-4312	11656	-138	136	-204	-15992	-2108	1332	3	-23	-62	-688	-5240	16024	-2	-19	21	-9936	5936	12048	11	-5	-24	-16464	2344	-1184	9	-4	13	-2072	-2536	16648	26	-5	-1	121	129	5
-10256	-4312	11656	-109	153	-202	-16104	-2052	1368	-48	-17	-146	-608	-5368	16104	-9	-16	19	-10056	5984	12120	13	-4	-22	-16528	2208	-1344	8	3	17	-2192	-2496	16712	21	-9	0	120	130	5
-10212	-4276	11648	-97	166	-196	-15992	-2088	1500	-50	-16	-70	-648	-5408	16064	-7	-12	23	-9984	6024	12064	14	0	-20	-16536	2344	-1136	11	0	14	-2320	-2680	16616	15	-5	5	119	130	5
-10236	-4272	11556	-125	165	-166	-16044	-2072	1272	-9	-52	-37	-552	-5312	16216	-8	-17	22	-9736	6024	12032	14	-3	-21	-16392	2256	-1168	4	-5	21	-2008	-2752	16864	20	-3	2	118	129	5
-10252	-4256	11700	-82	127	-218	-16036	-2160	1308	13	-19	-25	-648	-5432	16104	-1	-13	17	-9960	5920	12312	13	-8	-17	-16336	2312	-1160	5	-3	18	-2144	-2672	16888	31	0	4	118	130	5
-10240	-4312	11740	-71	145	-167	-16004	-2108	1304	9	-56	-19	-568	-5416	16104	7	-9	27	-9968	5880	12224	13	-4	-19	-16472	2256	-1424	5	-4	14	-2040	-2584	16864	30	0	7	120	130	5
-10168	-4284	11644	-89	151	-180	-16064	-2036	1444	24	-19	1	-616	-5248	16152	3	-8	29	-9888	6000	12184	17	-2	-21	-16456	2304	-912	10	-6	20	-2128	-2496	16624	25	0	5	117	129	5
-10224	-4264	11576	-81	138	-184	-16060	-2092	1248	46	-6	-28	-488	-5344	16056	9	-11	26	-9912	6056	12256	15	3	-19	-16416	2288	-1288	8	-1	20	-2288	-2472	16704	26	2	3	122	129	5
-10292	-4188	11612	-75	123	-175	-15988	-2096	1452	38	-34	5	-704	-5400	16176	14	-8	24	-9912	6024	12352	17	1	-18	-16560	2272	-1184	5	-4	25	-2008	-2512	16800	28	1	2	118	130	5
-10192	-4292	11696	-90	142	-183	-16024	-2056	1328	30	-16	40	-544	-5192	16096	17	-8	22	-10040	5936	12104	19	-5	-17	-16480	2192	-1288	12	-6	21	-2160	-2480	16728	35	2	5	118	130	5
-10228	-4244	11632	-49	118	-147	-15980	-2076	1312	19	-14	-8	-728	-5264	15936	13	-10	17	-9904	5952	12168	19	-2	-19	-16488	2328	-1136	10	-2	20	-2136	-2456	16760	38	0	3	119	129	5
-10184	-4244	11704	-71	93	-168	-16004	-2048	1344	9	2	-18	-600	-5056	15896	12	-13	26	-9976	6168	12208	17	-2	-16	-16376	2336	-1304	3	-10	23	-2128	-2456	16840	36	-1	1	120	129	5
-10172	-4204	11716	-66	139	-136	-16084	-2032	1196	-45	3	-37	-592	-5104	16224	7	-18	21	-9912	6008	12104	12	1	-21	-16456	2328	-1200	4	2	18	-2112	-2424	16896	28	-5	2	118	129	5
-10244	-4208	11652	-98	98	-172	-16064	-2056	1304	-39	13	-92	-632	-5096	16264	-3	-16	17	-9880	5984	12264	15	-3	-17	-16440	2448	-1184	3	-1	20	-2152	-2464	16448	22	-6	-2	120	129	5
-10164	-4236	11724	-121	156	-210	-16068	-2024	1300	-35	-9	-47	-664	-5112	16176	-9	-20	15	-9992	6088	12000	14	1	-22	-16560	2360	-1264	4	-3	15	-2144	-2416	16680	19	-7	4	121	130	5
-10152	-4220	11612	-107	148	-210	-16032	-2000	1380	14	8	-86	-520	-5080	16080	-7	-19	16	-9960	6024	12304	10	-6	-20	-16496	2424	-1280	6	-2	15	-2264	-2456	17000	17	-7	-2	120	129	5
-10196	-4184	11652	-132	183	-203	-16000	-1976	1244	40	-10	-94	-712	-5216	16272	-5	-19	20	-9960	5968	12152	12	-4	-23	-16512	2280	-1016	9	-2	13	-2208	-2512	16960	17	-7	1	120	129	5
-10192	-4224	11636	-159	142	-199	-16012	-2032	1324	7	10	-102	-608	-5184	15920	-11	-20	23	-9968	6032	12088	9	-5	-23	-16480	2360	-1384	18	-4	13	-2064	-2424	16848	15	-2	-2	118	129	5
-10236	-4272	11576	-145	151	-203	-16032	-2112	1232	43	5	-136	-536	-5264	16120	-11	-16	22	-9872	6032	12192	11	-4	-22	-16440	2320	-1232	12	-4	13	-2216	-2592	16800	21	-1	0	120	129	5
-10220	-4300	11624	-134	141	-248	-16020	-2072	1356	54	13	-105	-712	-5296	16032	-6	-12	22	-9944	6128	12088	9	-4	-24	-16424	2392	-1176	14	-7	15	-2320	-2592	16784	22	-3	4	121	129	5
-10244	-4260	11604	-107	172	-193	-16032	-2116	1240	42	-12	-70	-680	-5136	16112	-13	-9	23	-9968	6088	11968	8	-9	-26	-16608	2392	-1376	9	1	11	-2320	-2528	16840	19	3	4	119	130	5
-10184	-4252	11572	-115	151	-194	-15968	-2072	1332	44	-61	-97	-624	-5432	16080	-6	-8	23	-9952	5880	12072	11	-5	-20	-16408	2280	-1296	6	-5	14	-2256	-2568	16736	19	3	4	121	130	5
-10200	-4180	11644	-110	155	-198	-16008	-2072	1308	0	-19	-64	-680	-5336	15944	-6	-7	22	-9936	5976	12096	11	-10	-20	-16544	2304	-1536	8	-7	18	-2176	-2576	16736	16	5	5	120	129	5
-10224	-4272	11688	-67	131	-190	-16044	-2048	1344	-27	3	-78	-616	-5192	16176	-5	-9	19	-10008	5976	12288	12	-2	-25	-16496	2280	-1416	7	-6	13	-2144	-2696	16744	16	6	3	121	129	5
-10236	-4280	11652	-106	120	-206	-16008	-2084	1412	-28	-6	-62	-656	-5312	16216	-2	-13	21	-9832	6024	12232	10	-8	-20	-16368	2304	-1168	8	-5	17	-1984	-2552	16624	21	3	4	121	129	5
-10220	-4256	11648	-87	139	-194	-16028	-2112	1384	-55	-33	-84	-552	-5520	16264	0	-11	23	-9872	5920	12152	11	-4	-18	-16552	2184	-1480	9	-4	13	-2072	-2648	16632	21	0	-3	122	129	5
-10188	-4236	11724	-95	149	-177	-15976	-2108	1332	-31	-30	-65	-600	-5264	16232	-3	-9	23	-10152	5936	11984	17	-2	-17	-16488	2256	-1256	8	-5	18	-2168	-2704	17000	24	2	1	121	129	5
-10152	-4320	11652	-102	136	-168	-16004	-2136	1468	64	-48	-29	-584	-5264	16016	5	-15	20	-9848	6024	12168	17	2	-19	-16560	2248	-1232	11	-4	17	-2056	-2480	16728	27	3	4	121	129	5
-10248	-4284	11652	-88	156	-219	-16028	-1992	1308	63	8	-22	-520	-5224	15944	6	-18	17	-9856	5984	12064	16	-2	-19	-16424	2336	-1320	9	3	19	-2248	-2512	16728	29	-5	3	119	129	5
-10208	-4260	11660	-79	128	-189	-16064	-2024	1384	64	8	-67	-528	-5296	16240	4	-20	15	-9896	5984	12368	14	-2	-18	-16528	2424	-1256	6	1	22	-2160	-2496	16616	34	-5	2	119	129	5
-10200	-4272	11644	-113	145	-212	-16020	-2044	1260	36	13	-60	-552	-5256	16448	3	-19	14	-9920	5912	12168	14	-7	-22	-16584	2408	-1352	7	-1	18	-2168	-2536	16456	30	-8	1	121	129	5
-10252	-4196	11592	-127	152	-169	-15988	-2008	1332	-29	-14	-62	-752	-5192	16128	0	-21	19	-9840	5864	12064	12	-1	-19	-16464	2392	-1248	8	-1	16	-2200	-2480	16728	26	-9	0	119	129	5
-10164	-4288	11576	-115	185	-211	-16084	-2112	1176	-69	-8	-54	-680	-5320	16192	-3	-17	24	-9896	6040	12192	15	-4	-20	-16360	2408	-1280	8	-5	15	-2136	-2408	16840	21	-12	4	121	129	5
-10228	-4316	11628	-101	159	-183	-16012	-2052	1232	-19	-6	-57	-536	-5144	15992	-10	-11	24	-9896	5968	11992	13	-4	-22	-16424	2392	-1032	7	-2	19	-2344	-2392	16800	19	-2	4	121	129	5
-10168	-4256	11568	-93	183	-158	-15984	-2076	1268	19	-11	-61	-728	-5256	16136	-10	-14	21	-9904	5936	12088	11	-6	-23	-16440	2368	-1200	0	-4	18	-2232	-2552	16880	18	-1	3	119	130	5
-10224	-4220	11704	-86	140	-186	-16040	-2088	1276	32	-69	-21	-600	-5256	16088	-11	-20	20	-9824	5848	12168	12	-1	-24	-16384	2264	-1288	6	-9	20	-2280	-2608	16624	21	1	5	119	130	5
-10220	-4288	11592	-143	123	-217	-16012	-2032	1400	37	-32	-57	-552	-5280	16104	-3	-11	20	-9984	6008	12152	13	-5	-20	-16480	2472	-1232	15	-9	15	-2288	-2488	16712	19	5	6	117	129	5
-10224	-4196	11664	-77	146	-226	-16020	-2092	1360	10	-41	-38	-664	-5288	16464	1	-11	26	-10016	5864	12184	7	-3	-19	-16416	2240	-1376	13	-9	17	-2024	-2552	16800	22	3	1	119	129	5
-10152	-4236	11628	-113	143	-198	-16068	-2156	1368	-6	-55	-54	-584	-5328	16400	1	-11	26	-9848	6088	12360	14	-5	-18	-16528	2304	-1224	9	-9	19	-2088	-2560	16840	17	4	-1	120	130	5
-10252	-4252	11604	-100	144	-205	-16108	-2084	1328	38	-46	-55	-560	-5224	16208	3	-8	22	-9848	5960	12184	12	-1	-21	-16496	2240	-1352	8	-8	20	-2008	-2608	16840	20	8	3	119	129	5
-10144	-4204	11640	-72	170	-205	-16016	-2096	1224	57	2	-37	-552	-5264	16216	-1	-7	25	-9880	5912	12288	11	-3	-22	-16560	2320	-1104	7	-3	15	-2032	-2584	16904	27	9	0	120	130	5
-10188	-4208	11588	-72	184	-177	-16012	-2076	1244	17	6	-60	-584	-5256	16224	5	-5	23	-9872	6048	12024	15	0	-20	-16480	2216	-1000	5	-2	21	-2040	-2720	16888	29	4	2	120	130	5
-10204	-4256	11720	-121	159	-193	-16032	-2084	1348	53	-5	-44	-608	-5264	16208	2	-12	23	-9840	6000	12296	18	-4	-19	-16504	2240	-1160	-1	2	20	-2240	-2584	16784	26	-3	-2	118	130	5
-10196	-4196	11596	-92	139	-186	-16060	-2048	1348	-28	8	-78	-584	-5352	15984	0	-11	21	-9864	6072	12160	14	1	-21	-16504	2336	-1256	2	2	16	-2104	-2600	16760	26	1	1	120	129	5
-10196	-4248	11752	-115	136	-227	-15944	-2136	1420	-6	9	-72	-720	-5240	15936	0	-15	23	-9848	5936	12096	17	3	-24	-16456	2368	-1072	-1	4	15	-2248	-2616	16960	25	-5	0	118	130	5
-10216	-4260	11560	-140	152	-208	-16036	-2068	1336	10	44	-73	-760	-5264	16160	-2	-15	21	-9840	5976	12104	15	-1	-25	-16440	2232	-1304	0	0	17	-2136	-2544	16568	24	-6	3	119	130	5
-10140	-4256	11604	-116	111	-188	-16032	-2112	1236	-12	52	-69	-664	-5120	15984	-4	-18	14	-9824	6112	12064	18	-1	-24	-16536	2336	-1144	4	2	17	-2296	-2480	16544	25	-1	3	118	130	5
-10228	-4248	11664	-96	136	-202	-16004	-2080	1208	40	33	-61	-704	-5264	16192	7	-17	19	-9912	5920	12032	12	-6	-18	-16528	2384	-1248	9	0	16	-2224	-2656	16976	25	-9	-1	119	129	5
-10268	-4212	11676	-132	134	-172	-16048	-1980	1356	-24	19	-66	-648	-5216	15976	6	-17	19	-9920	5984	12200	14	-1	-20	-16424	2168	-1264	11	-1	17	-2344	-2560	16536	21	-2	-1	120	130	5
-10140	-4260	11656	-135	151	-172	-16028	-2072	1348	14	-6	-81	-608	-5200	16232	9	-14	25	-10000	6080	12256	14	-3	-18	-16528	2288	-1056	14	-4	17	-2232	-2584	16488	20	-3	3	120	130	5
-10180	-4176	11648	-148	152	-174	-16128	-2080	1232	-47	-59	-94	-672	-5160	16176	5	-14	24	-9864	5944	12344	15	-1	-25	-16408	2432	-1320	10	-7	20	-2056	-2616	16944	24	-6	2	118	130	5
-10164	-4248	11552	-96	153	-173	-15976	-2092	1336	-33	-32	-68	-800	-5208	16200	-2	-16	32	-9856	6024	12080	12	-2	-23	-16488	2376	-1272	3	-3	19	-2280	-2624	16536	26	1	4	121	129	5
-10188	-4208	11684	-88	93	-192	-16016	-2128	1372	18	-64	-103	-632	-5160	16200	-9	-12	21	-9848	5856	12016	11	-2	-21	-16408	2344	-1336	7	-7	18	-2120	-2632	16936	24	-3	7	119	129	5
-10240	-4316	11636	-81	161	-215	-16100	-2084	1192	18	-78	-36	-632	-5240	16056	-12	-10	17	-10016	6048	12192	11	-4	-21	-16480	2280	-952	8	-7	18	-2072	-2520	16816	25	0	4	122	130	5
-10196	-4244	11684	-97	136	-173	-16012	-2064	1352	14	-73	-84	-600	-5336	16008	-2	-10	13	-9872	6032	12128	16	-2	-23	-16536	2312	-1368	6	-11	18	-2040	-2448	16712	26	2	2	120	130	5
-10244	-4240	11640	-63	152	-214	-16024	-2040	1400	4	-26	-57	-680	-5296	16256	-1	-8	13	-9952	5944	12232	14	1	-24	-16440	2304	-1016	9	-12	18	-2152	-2640	16688	21	2	-1	118	130	5
-10216	-4288	11652	-90	119	-191	-15992	-2032	1304	-11	-21	-52	-624	-5368	16304	7	-13	17	-9952	6040	12224	10	-4	-17	-16520	2264	-1072	9	-8	18	-2144	-2512	16680	16	1	-1	120	130	5
-10164	-4268	11620	-71	138	-214	-16020	-2036	1404	14	-7	-59	-592	-5256	15912	4	-12	23	-9896	5888	12048	13	-4	-20	-16384	2248	-1240	13	-3	20	-2016	-2680	16736	17	-3	4	121	130	5
-10196	-4284	11680	-124	137	-206	-16072	-2068	1436	-24	-8	-53	-504	-5176	16232	3	-10	26	-9936	6040	12216	15	-3	-18	-16440	2360	-976	13	-9	17	-2160	-2416	16656	24	1	4	118	130	5
-10228	-4240	11704	-134	181	-179	-16032	-2064	1348	-20	-33	-35	-656	-5280	16192	-2	-13	24	-10016	6064	12008	16	-2	-21	-16424	2256	-1328	6	-4	16	-2240	-2712	16880	25	-2	3	120	130	5
-10176	-4292	11664	-77	166	-182	-16044	-2124	1348	9	-10	-23	-584	-5344	16112	-4	-14	21	-9832	6024	12264	13	-7	-18	-16464	2416	-1248	4	-1	15	-2128	-2600	16592	29	-7	0	119	130	5
-10200	-4272	11644	-112	131	-236	-16044	-2064	1328	54	5	-42	-624	-5168	16216	1	-17	15	-9848	5952	11992	17	-1	-22	-16512	2280	-1512	-5	1	17	-2216	-2608	16728	30	-3	4	122	130	5
-10168	-4268	11596	-139	132	-197	-16068	-2064	1308	72	16	-29	-680	-5288	16112	-3	-16	15	-9920	5944	12120	13	-3	-25	-16584	2312	-976	1	1	17	-2072	-2552	16480	30	-4	3	120	129	5
-10208	-4212	11716	-110	135	-197	-16048	-2016	1196	22	7	-49	-712	-5224	16120	3	-15	20	-9840	5944	12176	11	4	-21	-16552	2272	-1128	3	-3	17	-2056	-2536	16920	22	-2	2	120	130	5
-10220	-4248	11596	-127	176	-186	-16020	-2116	1256	-62	-24	-58	-736	-5152	16104	0	-14	23	-9968	5936	12008	8	0	-21	-16392	2336	-1088	8	1	15	-2216	-2488	16568	24	-2	3	118	130	5
-10124	-4252	11696	-88	165	-232	-16060	-2104	1220	-48	-6	-80	-592	-5272	16160	-3	-16	30	-9848	5760	12120	14	-5	-18	-16472	2408	-1184	14	-6	20	-2280	-2528	16728	21	-6	1	118	130	5
-10232	-4256	11644	-104	139	-216	-16012	-2112	1496	-6	21	-46	-792	-5224	16120	1	-14	29	-9848	5952	12384	16	-4	-14	-16464	2232	-1192	6	-4	20	-2104	-2544	16664	18	1	4	119	130	5
-10196	-4244	11716	-121	156	-196	-16004	-2140	1344	46	-16	-7	-632	-5248	16280	-3	-16	24	-10048	5944	12176	11	1	-25	-16352	2288	-1184	8	-4	16	-2232	-2496	16920	24	-3	3	117	130	5
-10204	-4272	11528	-84	145	-212	-16044	-2056	1384	67	0	-62	-680	-5312	16200	-3	-11	19	-10016	6080	12056	10	0	-23	-16464	2240	-1240	5	-2	18	-2264	-2528	16784	21	2	4	120	130	5
-10196	-4228	11656	-117	115	-223	-15972	-2128	1356	38	-27	-69	-616	-5312	16288	-1	-13	20	-9960	6008	12112	8	-2	-24	-16392	2384	-1200	7	-2	15	-1960	-2616	16968	21	1	3	120	130	5
-10252	-4208	11780	-119	157	-208	-16032	-2080	1280	29	-50	-50	-664	-5336	15968	5	-8	17	-9936	6072	12192	12	-8	-18	-16552	2320	-1352	7	-6	17	-2176	-2704	16664	23	2	4	122	129	5
-10196	-4296	11664	-82	102	-203	-16044	-2136	1256	21	-19	-67	-744	-5264	16312	0	-13	22	-9960	5984	12120	12	-5	-21	-16488	2288	-1320	9	-8	20	-2192	-2512	16816	24	3	-1	121	130	5
-10232	-4284	11672	-107	138	-209	-15988	-2056	1404	4	-3	-99	-616	-5168	16112	-2	-15	26	-9952	5952	12232	14	-4	-20	-16472	2288	-1376	11	-6	21	-2040	-2480	16744	26	-5	0	120	129	5
-10184	-4264	11712	-96	125	-209	-16044	-2060	1372	-15	-32	-39	-592	-5264	16312	-4	-17	18	-9848	5976	12216	15	-8	-21	-16464	2368	-1328	11	-6	18	-2096	-2688	16768	23	-3	-1	120	130	5
-10260	-4292	11724	-80	135	-217	-15980	-2156	1320	1	-41	-58	-528	-5272	16000	1	-14	18	-9896	6056	12160	16	-3	-23	-16472	2360	-1248	10	-8	17	-2144	-2696	16736	20	-1	-7	121	130	5
-10196	-4232	11644	-115	120	-199	-16008	-2064	1340	11	-46	-103	-608	-5272	15928	-3	-14	14	-9848	6072	11912	10	0	-20	-16456	2384	-1008	5	-2	14	-2192	-2448	16680	20	-4	-5	121	130	5
-10220	-4308	11700	-127	168	-192	-16036	-2084	1404	40	-19	-60	-688	-5248	16312	1	-14	15	-9960	6016	12088	16	-8	-21	-16560	2288	-1368	2	-3	15	-2360	-2480	16736	16	-3	1	120	130	5
-10216	-4292	11752	-104	154	-188	-16024	-2084	1200	33	-10	-91	-680	-5224	16192	2	-14	21	-10080	6032	12256	9	-4	-22	-16480	2200	-1152	2	-6	10	-2376	-2616	16784	15	-9	-4	118	130	5
-10256	-4212	11684	-95	165	-201	-16044	-1964	1248	-7	-17	-91	-584	-5056	16216	0	-16	17	-10032	6008	11880	6	-6	-25	-16440	2344	-1264	-2	-2	12	-2248	-2488	16816	14	-9	2	120	130	5
-10216	-4228	11712	-126	146	-191	-16064	-2024	1284	-23	-58	-108	-712	-5216	16224	-7	-17	16	-9848	5944	12104	9	-2	-24	-16520	2376	-1424	5	-3	13	-2136	-2608	16736	13	-11	3	120	130	5
-10236	-4168	11652	-148	162	-237	-16096	-2076	1324	-30	-16	-101	-664	-5272	16136	-19	-22	21	-9960	5912	12168	12	-4	-23	-16504	2256	-1440	6	-10	15	-2272	-2624	16736	16	-14	9	120	130	5
-10228	-4160	11608	-163	147	-222	-16020	-2200	1368	-32	-16	-106	-608	-5312	15984	-20	-17	20	-10000	5968	12152	8	-11	-19	-16496	2072	-1200	13	-4	17	-2216	-2776	16832	31	-16	9	119	130	5
-10224	-4292	11600	-142	118	-190	-15988	-2184	1284	52	-50	-104	-744	-5368	15928	-15	-17	16	-9824	6048	12256	12	-4	-22	-16448	2144	-1488	15	-12	19	-2272	-2824	16736	43	-6	5	120	129	5
-10176	-4224	11668	-109	98	-231	-15996	-2140	1276	106	-81	-70	-632	-5440	16056	-9	-12	6	-9920	5760	12216	17	-7	-19	-16504	2272	-1000	20	-15	23	-2272	-2576	16272	58	-1	4	121	130	5
-10208	-4252	11632	-83	127	-202	-16048	-2108	1304	79	-64	-41	-672	-5464	16112	1	-10	2	-9952	6008	12248	20	-8	-19	-16456	2168	-1232	22	-14	28	-2128	-2680	16656	39	-1	-5	118	129	5
-10156	-4316	11656	-38	116	-205	-16004	-2104	1384	88	-19	-15	-552	-5256	16152	6	-14	1	-9768	5928	11896	22	-10	-23	-16440	2344	-1376	18	-19	32	-2080	-2464	16568	47	1	-22	121	130	5
-10220	-4292	11652	-54	141	-180	-16040	-2144	1240	99	-19	-9	-584	-5240	16168	5	-15	4	-9784	6040	11848	29	-9	-15	-16472	2376	-1392	12	-17	32	-2096	-2368	16688	33	0	-18	121	129	5
-10200	-4264	11648	-16	105	-157	-16076	-2104	1376	30	-24	11	-584	-5136	16016	6	-15	12	-9968	5944	12192	23	-6	-13	-16584	2288	-1072	7	-17	29	-2128	-2400	16816	16	0	-21	119	129	5
-10204	-4276	11672	-21	136	-168	-16016	-2112	1280	90	-36	14	-640	-5256	16136	1	-12	11	-9904	6064	12088	23	-8	-13	-16520	2280	-1328	2	-9	28	-2080	-2472	16800	5	-7	-15	119	130	5
-10196	-4172	11652	-39	126	-158	-16016	-2036	1424	73	-24	-4	-632	-5176	16240	11	-10	13	-9960	6040	12080	23	-5	-14	-16496	2352	-1160	4	-9	23	-2152	-2648	16680	16	-3	-3	120	130	5
-10232	-4212	11684	-27	130	-149	-16076	-2012	1308	23	-24	6	-584	-5288	16240	11	-6	12	-9880	6040	12240	19	-1	-18	-16384	2424	-1080	4	-8	26	-2088	-2552	16744	25	-3	4	121	129	5
-10184	-4196	11716	-48	105	-205	-16036	-2064	1400	-9	-44	-4	-616	-5144	16024	8	-11	15	-9912	5984	12048	14	-7	-16	-16552	2336	-1176	5	-6	19	-1944	-2464	17016	36	4	10	119	130	5
-10180	-4212	11636	-49	157	-191	-16028	-2080	1376	-44	-16	-32	-576	-5184	16088	6	-16	23	-9888	5960	12032	18	-7	-21	-16464	2320	-1048	6	-6	23	-2168	-2464	16816	44	-2	8	121	130	5
-10184	-4296	11584	-73	105	-191	-16036	-2016	1500	19	-29	-61	-584	-5144	16200	2	-18	27	-9744	5984	12024	18	-5	-18	-16440	2152	-1112	16	-1	17	-2088	-2440	16776	43	-6	11	120	130	5
-10132	-4180	11680	-98	115	-216	-16004	-1988	1264	7	-15	-66	-672	-5224	16168	3	-19	33	-9840	5888	12080	15	-5	-21	-16488	2336	-1168	17	-2	14	-2072	-2440	16656	33	-4	11	121	130	5
-10172	-4168	11596	-142	119	-216	-16016	-1964	1304	20	-6	-58	-656	-5128	16352	4	-19	26	-9984	6064	11920	14	-3	-24	-16368	2440	-1128	12	3	19	-2072	-2512	16656	25	-6	8	121	130	5
-10152	-4228	11628	-116	134	-186	-16036	-1992	1380	4	-33	-52	-728	-5288	16088	6	-21	28	-9968	6104	11920	11	-5	-21	-16512	2432	-1248	2	6	14	-1888	-2200	16744	23	-3	8	122	130	5
-10276	-4176	11608	-145	134	-155	-16020	-2076	1260	-11	-23	-102	-640	-5088	16304	7	-16	35	-9832	6056	12024	10	2	-24	-16552	2416	-1344	-5	6	13	-2216	-2440	16656	19	-2	8	120	130	5
-10172	-4204	11652	-131	159	-181	-16028	-1980	1392	-30	-42	-103	-632	-5184	16008	-6	-15	29	-10000	6048	12104	7	-8	-23	-16488	2384	-1240	-7	4	11	-2136	-2528	16784	14	0	10	119	129	5
-10168	-4264	11548	-118	149	-231	-16024	-2024	1292	-89	-36	-142	-624	-5056	16280	-17	-15	30	-9880	6072	12088	11	3	-28	-16456	2288	-1176	-5	2	11	-2080	-2480	16624	13	-3	6	120	130	5
-10208	-4284	11580	-155	180	-220	-16084	-2136	1332	-79	-14	-108	-432	-5264	16088	-22	-9	23	-9992	5936	11992	10	-2	-22	-16440	2176	-1296	6	3	15	-2328	-2816	16584	10	1	7	119	130	5
-10196	-4304	11600	-142	162	-198	-15980	-2180	1396	-34	19	-114	-664	-5280	16088	-19	-8	24	-9816	6088	11848	17	-8	-25	-16392	2320	-1392	15	-2	15	-2256	-2752	16560	15	10	5	120	130	5
-10192	-4240	11588	-113	157	-186	-16012	-2152	1316	55	29	-68	-728	-5432	16224	-1	-8	25	-9936	5904	12272	12	-8	-23	-16448	2344	-1280	24	-11	22	-2088	-2712	16800	20	13	3	121	130	5
-10212	-4240	11644	-85	153	-196	-15988	-2084	1372	100	-1	-34	-816	-5384	15992	9	-3	21	-10008	6024	12168	14	-3	-18	-16544	2272	-1264	20	-7	25	-2168	-2560	16584	32	12	-3	122	129	5
-10288	-4264	11652	-103	149	-174	-16020	-2116	1256	71	3	-38	-688	-5208	16256	12	-2	17	-9800	5960	12144	14	-2	-18	-16360	2280	-1384	12	-4	24	-2272	-2576	16776	41	12	-4	121	129	5
-10252	-4260	11688	-57	134	-157	-16008	-2088	1224	41	43	-17	-568	-5264	16312	12	-4	16	-9944	5952	12200	16	-2	-18	-16544	2384	-1296	3	-7	22	-2128	-2496	16768	30	6	-2	120	130	5
-10192	-4284	11780	-61	102	-166	-16024	-2024	1336	10	19	-10	-728	-5096	16008	7	-3	19	-10040	5920	11888	19	-8	-19	-16528	2248	-1112	-1	-8	26	-2040	-2528	16600	28	10	-3	118	130	5
-10204	-4244	11640	-54	134	-191	-16000	-2060	1336	-9	-25	-25	-608	-5160	16160	9	-5	21	-9904	6024	12048	17	-2	-18	-16528	2368	-1280	-2	-5	25	-2128	-2672	16656	26	6	2	120	130	5
-10196	-4256	11724	-54	124	-169	-16000	-2008	1380	-18	19	-34	-616	-5152	15968	5	-14	21	-9816	6072	12152	18	-3	-17	-16552	2368	-1232	-2	-4	18	-2280	-2560	16840	27	6	-2	119	130	5
-10172	-4276	11648	-89	149	-157	-16052	-2064	1436	15	10	-85	-504	-5144	16320	3	-18	18	-9744	5960	11960	20	-6	-19	-16576	2224	-1336	4	-8	23	-2168	-2624	16856	25	-5	-7	120	130	5
-10196	-4184	11680	-72	171	-182	-16008	-2020	1396	49	4	-46	-712	-5032	15936	4	-18	9	-9848	5968	12096	19	-5	-15	-16600	2256	-992	18	-6	21	-2296	-2368	16688	26	0	-15	121	130	5
-10276	-4220	11664	-104	166	-213	-16012	-2040	1228	28	-6	-94	-640	-4952	16024	-3	-18	12	-9856	5944	12200	4	-13	-27	-16472	2328	-1208	19	-3	35	-2088	-2672	16688	22	-1	-24	121	130	5
-10184	-4252	11664	-125	179	-195	-16000	-1976	1280	-36	-12	-144	-672	-4904	16248	-1	-17	21	-10008	5984	12184	21	-10	-22	-16616	2368	-1320	24	-5	32	-2208	-2568	16672	29	-4	-20	118	130	5
-10204	-4136	11696	-148	165	-245	-16080	-1936	1204	-19	-85	-172	-824	-5128	16176	-20	-14	28	-9864	5936	12168	17	-6	-14	-16472	2440	-1336	34	-1	23	-2136	-2480	16848	36	-1	-5	117	130	5
-10228	-4208	11716	-213	158	-269	-16044	-2072	1276	-66	-66	-168	-608	-5176	16040	-35	-16	28	-9784	6240	11920	10	-3	-20	-16368	2560	-1136	0	-1	22	-2024	-2640	16744	26	1	-1	121	130	5
-10220	-4204	11636	-254	140	-245	-16012	-2104	1316	-34	-61	-151	-600	-5312	15976	-38	-14	23	-9912	6032	12208	8	-4	-24	-16496	2344	-1384	-13	6	20	-2104	-2544	16768	31	3	-6	123	130	5
-10184	-4280	11764	-169	141	-250	-15972	-2120	1392	74	-81	-118	-480	-5432	16104	-25	-10	13	-9760	5944	12256	8	-5	-25	-16496	2336	-1304	-4	10	17	-2160	-2360	16592	33	5	-7	119	130	5
-10196	-4216	11660	-175	126	-235	-15964	-2200	1396	123	-71	-33	-592	-5592	16048	-11	-4	7	-9912	6048	12064	11	3	-24	-16496	2312	-1392	12	11	10	-2016	-2352	16664	29	7	-4	118	130	5
-10260	-4304	11656	-157	118	-213	-16000	-2240	1532	95	-60	-53	-664	-5600	16112	12	-8	11	-10000	5952	12080	6	-9	-22	-16464	2360	-1400	8	1	15	-2280	-2448	16912	19	3	2	119	130	5
-10192	-4280	11680	-100	88	-205	-16008	-2104	1240	118	-40	-57	-552	-5264	16208	19	-13	22	-9976	6024	12264	6	-4	-24	-16560	2416	-1032	2	5	13	-2160	-2480	16824	10	-1	0	119	130	5
-10208	-4272	11676	-37	133	-204	-16068	-2032	1368	-89	-41	-44	-648	-5264	15952	20	-17	33	-9984	5960	12072	7	-4	-20	-16496	2384	-1392	3	6	15	-2376	-2640	16776	11	2	8	119	130	5
-10256	-4268	11596	-80	172	-158	-16016	-2092	1416	-157	2	-40	-488	-5208	16136	12	-18	27	-9848	6040	12288	12	-4	-29	-16592	2152	-1112	10	6	15	-2064	-2608	16584	11	3	13	121	130	5
-10176	-4296	11580	-85	145	-173	-15936	-2232	1404	-138	32	26	-648	-5208	15976	10	-16	19	-10080	5968	12288	9	-2	-28	-16480	2304	-1208	13	8	18	-2104	-2640	16672	22	0	10	118	130	5
-10224	-4220	11680	-34	106	-140	-16016	-2184	1404	95	16	12	-496	-5264	15976	12	-16	11	-9864	6016	12256	12	-13	-26	-16528	2280	-1384	8	7	17	-2112	-2576	16560	35	3	3	119	130	5
-10240	-4292	11704	-32	95	-140	-16012	-2108	1264	195	40	31	-688	-5072	16136	15	-15	-2	-9960	5952	12200	10	-4	-23	-16488	2248	-1328	3	0	24	-2192	-2672	16840	39	5	-4	121	130	5
-10140	-4200	11628	-20	116	-127	-16032	-2028	1264	167	49	20	-576	-5128	16280	18	-9	-6	-9960	5960	12192	12	-1	-23	-16392	2344	-1144	1	4	21	-2152	-2520	16568	38	0	-6	119	130	5
-10204	-4252	11588	-47	166	-187	-15976	-1996	1316	103	-13	7	-704	-5112	16096	15	-12	6	-9960	6056	12184	16	-3	-23	-16648	2336	-1296	-1	3	22	-2360	-2408	16856	31	2	-10	118	130	5
-10172	-4252	11752	-73	180	-183	-16072	-1972	1292	38	19	-22	-528	-5088	16216	10	-14	18	-9912	6008	12112	15	-2	-23	-16640	2304	-1360	6	-7	26	-2304	-2448	16544	17	5	-10	119	129	5
-10180	-4248	11688	-117	123	-187	-16088	-1956	1296	-17	-28	-76	-728	-5120	16088	-4	-15	29	-9784	6024	12152	18	-5	-17	-16552	2240	-1336	13	-10	21	-2344	-2536	16744	13	5	-11	118	130	5
-10196	-4212	11632	-104	158	-201	-16040	-1976	1308	-21	-33	-81	-624	-5088	15896	-15	-17	33	-9856	6016	12320	21	-1	-20	-16488	2400	-1248	13	-8	26	-2304	-2496	16840	15	3	-8	120	129	5
-10196	-4256	11716	-126	170	-214	-16064	-2168	1268	-4	-39	-66	-584	-5296	16304	-16	-10	20	-9976	6176	12096	18	-4	-18	-16416	2264	-1320	7	-13	24	-2096	-2536	16824	27	0	-1	117	129	5
-10248	-4192	11720	-115	138	-213	-16016	-2076	1340	29	-23	-77	-784	-5360	15992	-19	-6	16	-9960	6064	12160	20	-9	-20	-16536	2408	-1280	11	-15	24	-2120	-2616	17112	36	5	1	120	130	5
-10216	-4280	11688	-85	94	-195	-16052	-2056	1212	64	-83	-70	-752	-5248	16224	-15	-7	10	-9984	6016	12224	17	-2	-22	-16536	2312	-1264	6	-12	26	-2120	-2560	16776	39	3	-2	121	129	5
-10192	-4224	11548	-85	145	-211	-15976	-2144	1408	-11	-47	-50	-680	-5352	16080	-11	-10	17	-10000	5936	12072	21	-5	-18	-16360	2376	-1320	11	-13	28	-2128	-2448	16672	25	-4	-10	122	129	5
-10216	-4260	11640	-91	133	-208	-15972	-2056	1388	-11	-60	-31	-536	-5376	15952	-2	-17	21	-9904	5984	11928	20	-5	-19	-16384	2368	-1112	13	-13	25	-2296	-2560	16824	24	-7	-11	121	130	5
-10184	-4292	11592	-70	130	-198	-16012	-2104	1408	58	-29	-31	-576	-5360	16200	7	-17	25	-9808	5944	12248	21	-2	-15	-16544	2376	-1304	8	-16	27	-2040	-2552	16856	22	-3	-6	121	130	5
-10184	-4284	11676	-37	121	-193	-15960	-2156	1436	25	-21	-50	-568	-5328	15952	12	-13	17	-9848	6000	11872	16	-4	-17	-16464	2400	-952	9	-13	25	-2016	-2640	16840	28	-7	-2	119	130	5
-10176	-4268	11624	-13	112	-151	-16004	-2116	1348	83	-12	44	-608	-5304	16416	7	-14	12	-9824	6064	12064	21	-1	-13	-16544	2320	-1160	8	-9	21	-2096	-2576	16480	30	-3	-5	120	130	5
-10192	-4220	11756	-3	95	-165	-15964	-2056	1280	99	22	54	-568	-5168	16160	12	-10	3	-9840	6040	11992	21	-8	-15	-16480	2240	-1392	14	-7	27	-2080	-2608	16688	39	-1	-8	121	130	5
-10156	-4224	11716	3	137	-112	-16060	-2012	1440	65	27	28	-520	-5304	16008	12	-8	3	-9896	6072	12160	21	-1	-20	-16560	2328	-984	16	-2	29	-2016	-2696	16688	42	-7	-7	118	130	5
-10188	-4244	11580	-40	162	-154	-16088	-1964	1296	29	26	58	-592	-5280	16048	14	-10	8	-9864	6136	12088	21	0	-19	-16528	2520	-1224	14	-3	30	-2008	-2608	17096	37	0	-7	120	130	5
-10156	-4188	11604	-45	131	-151	-16032	-2016	1324	-10	45	-1	-752	-5064	16248	15	-12	18	-9912	6104	12080	23	-1	-21	-16464	2240	-1184	12	0	29	-2216	-2448	17032	42	-3	-3	120	130	5
-10236	-4184	11648	-57	120	-156	-16036	-1972	1340	-16	16	-31	-600	-4992	16000	7	-13	19	-9952	6048	11984	18	4	-16	-16576	2352	-1480	8	0	26	-2104	-2400	16504	28	-2	1	121	130	5
-10184	-4184	11592	-71	141	-185	-16036	-1968	1340	-96	20	-51	-608	-5144	16456	6	-16	25	-9848	5952	12184	18	0	-19	-16408	2344	-1264	5	2	22	-2232	-2432	16680	23	2	2	119	130	5
-10172	-4268	11688	-114	138	-173	-16024	-2040	1236	-24	8	-9	-656	-5064	16088	-2	-6	25	-9816	6008	12304	15	-5	-20	-16496	2440	-1240	1	4	21	-2024	-2384	16672	21	1	0	120	130	5
-10184	-4272	11700	-71	144	-172	-16016	-1996	1360	38	8	-54	-656	-5032	16144	-29	12	42	-10000	6056	12256	16	-7	-23	-16344	2328	-1384	-1	0	19	-2136	-2392	16840	24	5	5	121	130	5
-10160	-4172	11692	-104	157	-145	-16012	-1980	1252	61	-3	-28	-784	-4984	16040	-55	-38	14	-9904	6120	12120	17	-1	-18	-16464	2456	-1264	5	1	20	-2240	-2600	16832	27	-3	8	120	130	5
-10252	-4308	11568	-72	164	-220	-16072	-2112	1404	74	-25	-68	-528	-5464	16352	-9	-7	22	-9784	6032	12320	14	4	-25	-16528	2440	-1136	11	-3	14	-2280	-2384	16840	25	1	6	122	129	5
-10248	-4180	11656	-93	153	-196	-16096	-2048	1284	82	-5	-96	-648	-5384	15888	-9	-5	38	-9816	5944	11872	10	0	-22	-16472	2376	-1232	11	-1	10	-2136	-2312	16672	21	2	5	119	130	5
-10232	-4176	11640	-126	177	-209	-16036	-2004	1416	-14	-48	-81	-680	-5352	16232	14	-28	42	-9904	6048	12096	8	-7	-26	-16400	2392	-984	2	-1	22	-2160	-2528	16728	16	1	-5	119	130	5
-10216	-4212	11720	-127	169	-195	-16064	-2064	1332	-93	-35	-67	-368	-5448	16088	22	-26	30	-9952	6024	12104	10	-3	-23	-16464	2320	-1536	11	3	12	-2128	-2448	16720	18	-2	-1	118	130	5
-10232	-4292	11656	-126	185	-171	-16004	-2072	1440	-53	-34	-72	-488	-5160	16328	8	-25	22	-9904	6104	12016	11	-2	-23	-16464	2400	-1416	11	-5	11	-2224	-2496	16952	14	0	0	120	130	5
-10256	-4284	11748	-183	136	-216	-16028	-2092	1288	-39	11	-35	-536	-5136	16008	-10	-28	1	-10024	6056	11952	8	-4	-22	-16496	2392	-1112	6	-6	12	-2136	-2528	16672	10	3	-4	119	130	5
-10232	-4304	11628	-72	171	-179	-16016	-2124	1376	4	46	-83	-592	-5008	16104	-25	-17	-16	-9896	6136	12080	16	3	-20	-16456	2416	-1288	11	-5	19	-2208	-2544	16664	15	3	-6	120	130	5
-10208	-4264	11652	-55	139	-201	-16000	-2056	1240	130	26	-64	-792	-5200	16024	-43	-9	-19	-9896	5936	12128	15	-2	-20	-16496	2400	-1192	11	1	17	-2128	-2360	16608	19	6	-6	119	130	5
-10164	-4244	11676	-59	142	-154	-16036	-1972	1252	152	15	-13	-656	-5424	16080	-43	-14	-19	-9968	6088	12032	15	-4	-24	-16504	2320	-992	9	-9	17	-2240	-2528	16584	18	2	-5	120	129	5
-10228	-4228	11672	-57	162	-174	-16020	-2036	1312	87	4	-44	-432	-5552	15896	-18	-10	0	-9984	6064	12096	14	-1	-22	-16640	2440	-1192	14	-4	19	-2128	-2528	16744	16	3	-3	120	129	5
-10208	-4140	11712	-127	157	-163	-15996	-1952	1216	-40	-3	-49	-768	-5448	16080	20	-20	18	-9848	6096	12120	16	-4	-17	-16504	2376	-1256	14	-3	14	-2256	-2584	16792	23	11	-5	119	129	5
-10200	-4196	11600	-106	188	-199	-16088	-1940	1208	-41	-27	-62	-632	-5360	16320	43	-24	21	-9888	6152	11968	13	-1	-24	-16648	2472	-976	6	-2	16	-2096	-2528	16656	21	8	-8	118	130	5
-10232	-4216	11636	-118	153	-235	-16076	-2096	1296	-89	-21	-73	-736	-5280	16192	64	-18	36	-10104	6040	12096	17	-5	-20	-16408	2320	-1168	10	-5	16	-2208	-2472	16672	22	8	-2	120	129	5
-10216	-4232	11616	-114	182	-200	-16048	-2052	1416	-22	-27	-75	-760	-5072	15952	53	-16	19	-9960	6096	12280	12	-4	-20	-16464	2472	-1272	10	-2	18	-2144	-2456	16904	18	12	1	120	129	5
-10156	-4312	11568	-148	125	-253	-16008	-2048	1248	36	-16	-78	-584	-4992	15896	2	-17	17	-9920	6064	12200	14	-10	-18	-16616	2408	-1064	10	-10	14	-2320	-2480	16440	18	7	3	120	129	5
-10236	-4252	11680	-111	123	-177	-16048	-1948	1320	42	-37	-85	-472	-5016	16264	-35	-27	19	-9888	5960	12128	16	-9	-22	-16520	2360	-1232	9	-6	17	-2192	-2544	16864	8	6	3	119	129	5
-10160	-4272	11596	-153	160	-207	-16044	-2064	1376	68	-18	-69	-392	-5272	16328	-16	-13	12	-10024	6136	12056	11	-6	-22	-16400	2344	-1008	9	-4	14	-2080	-2656	16920	9	7	-2	121	129	5
-10256	-4228	11668	-75	131	-200	-16060	-2168	1432	38	-19	-59	-552	-5304	16168	-17	-15	1	-10016	6048	12160	10	-7	-21	-16488	2288	-1248	10	-6	15	-2088	-2640	16672	19	12	-3	120	129	5
-10220	-4248	11676	-104	155	-202	-15988	-2144	1476	55	-12	-28	-536	-5352	16112	-14	-6	-13	-9904	6048	12104	14	-7	-23	-16504	2312	-1288	15	-6	16	-2120	-2536	16712	21	9	-6	121	129	5
-10224	-4260	11628	-56	146	-187	-16032	-2096	1344	97	31	-25	-520	-5480	16088	-22	0	12	-9960	5904	12088	11	-6	-16	-16512	2392	-1008	12	-4	19	-2008	-2624	16736	25	5	-9	120	129	5
-10208	-4252	11760	-50	143	-149	-16040	-2072	1416	50	23	-29	-312	-5552	16432	16	-9	2	-9888	5920	12264	14	-4	-21	-16376	2328	-1280	9	-1	21	-2200	-2552	16672	22	4	-4	119	129	5
-10156	-4236	11596	-41	141	-163	-16028	-2076	1240	-52	27	2	-256	-5544	16120	12	-14	4	-9976	5928	12216	16	0	-21	-16472	2392	-1160	6	2	20	-2104	-2632	16496	22	2	-5	120	129	5
-10176	-4212	11648	-63	143	-140	-16036	-2064	1384	-98	49	3	-568	-5512	16216	26	-11	12	-9896	5896	11928	18	-6	-21	-16456	2392	-1344	5	-4	21	-2104	-2616	16816	23	4	-3	120	129	5
-10168	-4216	11752	-25	152	-188	-15996	-2136	1340	-52	70	-13	-680	-5440	15920	26	-18	23	-10000	6136	12120	16	-1	-18	-16512	2264	-1320	8	-7	24	-2208	-2704	16568	26	5	-4	119	129	5
-10248	-4212	11728	-44	135	-148	-15980	-2116	1380	80	39	27	-720	-5144	16000	27	-15	17	-9920	5928	12040	17	-5	-22	-16440	2312	-1072	14	1	26	-2352	-2760	16672	31	5	-2	120	129	5
-10212	-4248	11672	-30	129	-170	-16072	-2092	1156	166	51	48	-632	-5208	16160	26	-6	10	-9816	6072	12248	22	-5	-16	-16504	2552	-1152	16	-5	25	-2160	-2536	16840	37	8	-5	118	129	5
-10240	-4292	11676	20	113	-126	-16024	-2000	1216	182	54	62	-672	-5168	16144	21	-11	0	-9872	6016	12088	22	-7	-16	-16472	2520	-1248	11	1	28	-2304	-2456	16744	38	3	-9	119	129	5
-10288	-4216	11676	-3	101	-133	-16044	-1980	1312	169	11	63	-648	-5024	16032	10	-11	1	-10016	6168	12144	23	-5	-16	-16544	2408	-1176	8	0	30	-2200	-2544	16584	42	1	-5	119	129	5
-10240	-4180	11604	-19	108	-182	-16108	-1888	1232	58	12	18	-680	-5032	16112	11	-13	-3	-9984	5968	12272	20	-3	-19	-16496	2320	-1232	6	-2	30	-2200	-2488	16840	43	2	-8	121	129	5
-10184	-4160	11692	-54	133	-148	-16052	-1872	1268	-53	-7	7	-640	-5144	16128	10	-15	5	-9968	6032	12088	23	-2	-19	-16424	2432	-1256	2	0	29	-2248	-2600	16792	31	1	-8	118	129	5
-10204	-4224	11712	-108	134	-131	-16068	-1904	1124	-51	2	-7	-608	-4992	16336	8	-18	11	-9872	6048	11976	23	-2	-16	-16376	2384	-1256	1	0	27	-2192	-2448	16632	34	-1	-9	120	129	5
-10188	-4132	11680	-92	136	-195	-16012	-1960	1320	-98	-39	-20	-624	-5152	16320	7	-25	23	-9976	6040	12016	24	1	-13	-16440	2424	-1232	2	1	23	-2112	-2408	16664	34	-2	-7	120	129	5
-10180	-4136	11668	-136	163	-222	-15988	-2028	1368	-93	-17	-57	-632	-5152	16192	13	-21	25	-9832	6064	12080	22	-1	-13	-16488	2448	-1128	3	-2	25	-2208	-2368	16688	34	-4	-7	121	129	5
-10192	-4156	11676	-170	139	-198	-16044	-2004	1352	-1	-24	-88	-584	-5176	16192	17	-20	24	-9968	6064	12152	21	0	-19	-16520	2424	-1368	4	2	26	-2248	-2440	16648	37	1	-4	121	129	5
-10180	-4208	11568	-125	164	-182	-16036	-2096	1320	65	24	-98	-568	-5112	16136	13	-20	16	-9960	6136	12232	15	4	-16	-16520	2552	-1336	3	1	20	-2264	-2368	16968	36	-3	0	118	128	5
-10180	-4224	11644	-134	164	-207	-16032	-1968	1340	102	18	-56	-472	-5088	16064	3	-20	20	-9936	6008	12152	19	-7	-15	-16376	2344	-1184	3	6	19	-2256	-2448	16688	33	-2	2	119	128	5
-10196	-4228	11740	-157	179	-226	-15988	-1964	1440	93	22	-97	-536	-5120	16056	-6	-14	21	-9904	6072	12040	15	2	-20	-16376	2496	-1360	2	1	22	-2160	-2392	16744	29	-2	0	120	128	5
-10252	-4196	11740	-154	167	-209	-16068	-1996	1176	41	3	-103	-576	-5392	16176	-11	-11	23	-10032	6072	12080	18	-1	-19	-16384	2368	-1200	7	-2	20	-2112	-2368	16760	25	-3	-2	120	129	5
-10248	-4212	11612	-118	153	-193	-16004	-2128	1192	5	-9	-68	-608	-5192	16136	-15	-4	13	-9976	6032	12088	11	-3	-22	-16584	2392	-1336	4	3	16	-2176	-2472	16880	19	1	0	118	129	5
-10212	-4244	11640	-87	157	-192	-15976	-2060	1240	-25	2	-66	-728	-4952	16032	-56	-22	3	-9912	6056	12112	12	-7	-18	-16408	2640	-1104	6	3	10	-2416	-2344	16728	12	3	3	120	129	5
-10244	-4236	11724	-80	147	-205	-16028	-2028	1276	-13	-46	-58	-568	-5208	16280	-48	-10	4	-9888	6040	12232	8	-5	-23	-16440	2440	-1432	-1	-6	9	-2256	-2408	16648	11	0	7	119	128	5
-10260	-4196	11680	-100	151	-244	-16012	-1968	1256	-91	-41	-66	-552	-5352	16432	-39	-8	11	-9912	6080	12096	5	-7	-24	-16632	2456	-1128	6	-6	9	-2328	-2400	16592	3	1	11	121	128	5
-10188	-4192	11692	-130	169	-201	-16020	-2032	1288	-104	-74	-75	-488	-5512	16248	-19	-7	16	-9944	6144	12240	7	-2	-25	-16424	2392	-1392	7	-5	11	-2248	-2520	16832	12	-4	11	120	128	5
-10184	-4308	11636	-117	148	-204	-16036	-2060	1300	-117	-44	-98	-968	-5224	15776	-35	15	57	-9776	6008	12000	4	1	-24	-16504	2176	-1032	8	-4	11	-2128	-2616	16736	11	2	12	120	128	5
-10216	-4256	11728	-80	130	-213	-16064	-2112	1348	-42	-36	-92	-512	-5360	16368	-13	-21	37	-9872	6016	12384	10	-3	-24	-16536	2416	-1256	10	-6	12	-2208	-2488	16504	18	4	9	120	129	5
-10256	-4256	11604	-80	143	-174	-15988	-2108	1400	88	-32	-59	-256	-5280	16136	2	-23	24	-9800	6064	12064	7	-5	-24	-16472	2304	-1152	11	-11	12	-2192	-2672	16720	20	4	7	119	128	5
-10212	-4212	11736	-52	155	-181	-15952	-2068	1352	185	20	-38	-304	-5280	16120	6	-13	25	-9952	6008	12320	8	0	-22	-16560	2392	-1104	8	-7	18	-2240	-2496	16768	21	2	0	118	128	5
-10224	-4216	11676	-59	143	-196	-16116	-2016	1360	121	-39	-23	-704	-5272	15936	14	-18	34	-9960	5976	12304	15	-7	-23	-16384	2392	-1240	15	-6	20	-2240	-2648	16504	24	2	-2	120	128	5
-10132	-4232	11696	-85	118	-177	-15952	-1960	1324	84	24	29	-968	-5264	16096	26	-10	35	-9816	5976	12160	14	-1	-21	-16488	2320	-1272	7	-5	21	-2104	-2568	16680	25	0	-5	120	128	5
-10160	-4216	11708	-45	150	-187	-16012	-2016	1324	79	28	31	-704	-5008	16112	24	-18	22	-10024	5960	12088	16	-7	-20	-16416	2376	-1128	7	-6	20	-2208	-2448	16744	29	1	-5	120	128	5
-10156	-4204	11736	-70	126	-164	-16072	-2008	1388	51	19	-15	-488	-5128	16176	14	-13	20	-9912	6128	11928	20	-6	-17	-16504	2320	-1272	3	-3	20	-2208	-2424	16648	29	0	-8	121	128	5
-10208	-4112	11716	-53	139	-169	-16052	-1932	1264	5	15	-13	-408	-5104	16280	9	-27	8	-10008	6200	12296	22	-2	-20	-16400	2280	-1432	5	-6	26	-2248	-2552	16720	29	0	-11	122	129	5
-10308	-4212	11704	-92	167	-194	-16032	-1872	1268	-66	30	-56	-552	-5264	16384	29	-22	7	-9944	6136	12408	18	-4	-17	-16488	2424	-1240	10	-6	24	-2328	-2456	16728	28	2	-9	122	129	5
-10228	-4156	11824	-92	161	-177	-16056	-2024	1228	-92	-43	-80	-640	-5272	16208	48	-18	18	-9920	6040	12032	22	-6	-19	-16456	2328	-1200	16	-8	25	-2232	-2384	16816	22	-3	-6	121	128	5
-10204	-4148	11576	-125	156	-175	-16072	-2012	1244	-34	-33	-99	-744	-4992	16032	63	-24	17	-10096	6096	12128	19	-6	-18	-16456	2568	-1280	14	-3	24	-2304	-2440	16896	23	-3	2	120	128	5
-10272	-4128	11608	-122	148	-194	-16020	-1992	1328	43	-50	-67	-496	-4920	16080	54	-17	13	-9840	6048	12056	16	-4	-20	-16536	2552	-1272	7	-2	17	-2096	-2384	16840	23	0	4	120	128	5
-10208	-4204	11708	-158	136	-256	-15960	-1964	1308	47	-33	-99	-512	-4632	15896	6	-5	-4	-9960	5944	12096	13	-8	-21	-16600	2360	-1256	5	-5	14	-2128	-2368	16760	27	3	9	121	129	5
-10220	-4216	11680	-162	137	-213	-16060	-2076	1308	25	-55	-126	-648	-5144	16160	-62	-7	24	-9936	6024	12008	15	-4	-21	-16416	2440	-1288	4	-2	10	-2080	-2392	16608	19	-2	14	119	129	5
-10208	-4252	11648	-171	200	-238	-15988	-2112	1164	79	-92	-130	-432	-5464	16344	-75	-9	38	-10016	6264	12096	10	-7	-19	-16416	2488	-1208	2	-1	7	-2224	-2344	16864	17	-1	13	122	129	5
-10224	-4204	11684	-169	178	-255	-16036	-1912	1380	-4	-88	-151	-328	-5280	16136	-49	-18	27	-9872	5976	12016	5	-5	-27	-16496	2384	-1168	0	-3	3	-2320	-2376	16592	2	-3	12	122	129	5
-10184	-4284	11820	-201	142	-256	-15984	-2016	1316	-68	-65	-178	-432	-5464	16264	-9	-14	16	-9824	6048	12080	4	-6	-26	-16488	2408	-1200	6	-3	4	-2344	-2440	16784	-7	-7	12	121	129	5
-10180	-4196	11608	-143	135	-223	-16004	-2052	1380	-118	-84	-151	-736	-5456	16008	5	-12	25	-9840	6032	12184	5	-4	-28	-16464	2360	-1368	8	-2	9	-2152	-2600	16888	-5	-7	13	122	129	5
-10228	-4300	11596	-121	200	-222	-15984	-2116	1308	-61	-51	-97	-552	-5240	16264	13	-19	30	-9968	6056	11800	9	-4	-24	-16352	2432	-1248	9	-2	5	-2136	-2640	16456	6	-7	10	120	129	5
-10220	-4224	11612	-115	134	-223	-16016	-2080	1280	-23	-38	-107	-480	-5328	16120	9	-22	30	-9888	5928	12192	4	-2	-29	-16400	2224	-1208	10	-4	13	-2280	-2712	16736	15	0	9	118	129	5
-10172	-4300	11648	-91	145	-174	-16004	-2144	1316	24	17	-86	-376	-5376	16080	3	-19	19	-9960	6048	12008	12	-11	-25	-16696	2368	-1344	10	-2	14	-2336	-2640	16792	21	0	3	122	129	5
-10228	-4264	11624	-94	165	-202	-16012	-2104	1464	0	14	-59	-608	-5264	15904	-7	-19	18	-9984	6032	12112	10	-3	-18	-16480	2416	-1288	14	-4	23	-2240	-2672	16880	27	-2	3	119	129	5
-10168	-4296	11624	-82	157	-170	-16008	-2116	1280	26	-9	-60	-744	-5336	16224	-8	-18	22	-9904	6016	12112	18	-8	-25	-16520	2440	-1208	12	-6	25	-2152	-2608	16816	30	-2	-3	121	129	5
-10224	-4208	11724	-92	135	-169	-16008	-2024	1236	11	24	-16	-264	-5368	16376	6	-9	29	-9920	5936	12288	19	-1	-20	-16464	2248	-1296	11	-4	25	-2192	-2584	16568	36	-4	-4	118	129	5
-10168	-4292	11688	-71	140	-182	-16032	-2112	1316	15	4	-35	-608	-5248	16080	-40	2	56	-9896	6048	12184	24	-1	-11	-16512	2504	-1152	7	-11	33	-2264	-2640	16656	39	-4	-5	118	129	5
-10224	-4264	11748	-79	127	-204	-16044	-2112	1168	2	-1	3	-584	-4984	16160	-24	-19	27	-10040	6048	12304	27	0	-13	-16464	2496	-1176	6	-8	34	-2176	-2632	16720	40	1	-6	120	129	5
-10180	-4244	11640	-37	103	-157	-16068	-2104	1276	93	1	-13	-672	-4944	16128	-41	-14	7	-9920	6104	12080	28	-6	-10	-16512	2512	-1232	9	-10	39	-2200	-2560	16888	46	1	-14	120	129	5
-10248	-4304	11696	-36	118	-157	-16028	-2064	1304	102	28	62	-576	-5384	16208	-47	-5	-7	-9992	6072	12080	29	-2	-16	-16408	2472	-1320	15	-11	36	-2304	-2464	16720	43	7	-12	121	129	5
-10184	-4268	11564	22	104	-127	-16080	-2012	1280	127	27	66	-392	-5416	15976	-21	-10	-3	-9832	6032	12040	30	-3	-9	-16568	2432	-1184	17	-8	36	-2200	-2400	16720	44	1	-17	121	129	5
-10200	-4280	11704	-2	120	-178	-16044	-1972	1192	45	28	24	-456	-5448	16080	42	-16	3	-10048	6048	12216	27	-1	-14	-16440	2488	-904	14	-8	34	-2200	-2296	16680	41	0	-12	118	129	5
-10228	-4188	11704	-34	118	-170	-16008	-1956	1208	-13	2	-5	-512	-5352	16088	94	-14	14	-9872	6200	12232	23	-6	-16	-16464	2424	-1288	9	-6	29	-2152	-2256	16720	31	-1	-6	118	129	5
-10196	-4204	11608	-70	144	-217	-16056	-1980	1276	-60	9	1	-464	-5040	16144	109	-14	25	-9832	6192	11976	21	0	-16	-16440	2488	-1104	4	-5	21	-2072	-2304	16704	32	-2	-5	119	129	5
-10192	-4192	11604	-110	149	-181	-16104	-1964	1260	-18	35	-20	-808	-4808	16064	84	-13	30	-10048	6064	11888	16	-5	-16	-16512	2520	-1136	-5	-1	14	-2024	-2304	16920	30	-3	0	121	129	5
-10176	-4188	11700	-152	150	-182	-16044	-1960	1280	25	16	-96	-672	-4752	16240	-5	-16	28	-9800	6112	12024	12	-3	-18	-16488	2488	-1168	-3	0	20	-2128	-2288	16728	26	-3	8	120	129	5
-10216	-4144	11784	-126	136	-226	-16100	-1980	1140	8	-38	-68	-480	-4952	16192	-44	-23	12	-9968	6152	11920	11	0	-24	-16552	2552	-1344	1	4	14	-1992	-2456	16664	18	-3	13	120	129	5
-10172	-4220	11684	-139	116	-240	-16020	-1996	1292	95	-28	-95	-520	-5256	16248	-48	-7	22	-10040	5952	12232	3	-5	-19	-16424	2544	-1048	2	5	3	-2168	-2424	16736	21	-4	12	119	129	5
-10184	-4156	11680	-189	123	-194	-16056	-1936	1220	77	-50	-130	-368	-5208	16200	-32	-21	18	-9880	6048	11960	1	-2	-30	-16496	2608	-1272	1	9	2	-2224	-2328	16784	8	-2	22	121	129	5
-10192	-4192	11724	-175	127	-253	-16072	-1920	1288	-20	-38	-142	-576	-5344	16160	-12	-16	26	-10040	6104	12256	0	-11	-30	-16544	2368	-1264	3	5	2	-2240	-2408	16688	4	1	20	120	129	5
-10240	-4276	11584	-207	215	-244	-16084	-2008	1364	-96	-45	-129	-568	-5320	16048	-4	-17	24	-10104	6064	12176	4	-6	-29	-16392	2344	-1240	7	0	5	-2256	-2640	16768	-2	-4	12	120	129	5
-10144	-4252	11680	-221	182	-221	-16104	-2028	1320	-72	-41	-134	-560	-5216	16160	-2	-18	33	-9960	6016	12184	4	-10	-28	-16448	2392	-1192	10	-4	6	-2224	-2600	16768	2	-2	12	121	129	5
-10216	-4288	11684	-173	147	-263	-16028	-2132	1320	-56	-71	-162	-624	-5304	15992	-12	-10	36	-9848	6064	12096	4	-3	-23	-16512	2352	-1184	7	-4	3	-2440	-2600	16712	12	-1	9	122	129	5
-10224	-4264	11712	-178	164	-225	-16044	-2184	1280	-39	-23	-127	-792	-5256	15912	-64	-13	42	-9984	5984	12128	1	-5	-21	-16568	2368	-1304	2	-7	9	-2248	-2600	16680	14	4	8	119	129	5
-10204	-4340	11568	-127	144	-218	-15972	-2072	1312	-60	-63	-123	-704	-5168	16080	-75	-2	15	-9888	5928	12216	16	-8	-22	-16568	2448	-1464	8	-2	11	-2240	-2656	16896	20	0	7	119	129	5
-10216	-4292	11592	-90	129	-188	-15964	-2184	1288	98	-26	-31	-416	-5088	16192	-103	-23	-18	-9880	6016	12264	12	-7	-19	-16464	2320	-1392	10	-8	16	-2256	-2616	16512	19	1	3	120	129	5
-10192	-4256	11712	-73	137	-175	-16080	-2112	1288	169	-41	-23	-424	-5592	16360	-106	-31	-11	-9992	6024	12224	15	0	-17	-16440	2304	-1264	13	-8	23	-2240	-2712	16688	23	4	-1	120	129	5
-10232	-4212	11788	-21	107	-135	-16052	-1976	1308	105	-12	-4	-456	-5720	16232	6	0	-1	-9736	5968	12120	16	-7	-20	-16560	2376	-1072	14	-8	26	-2208	-2584	16664	29	2	-5	118	130	5
-10232	-4236	11708	-64	139	-190	-16012	-1936	1284	-32	-53	-39	-584	-5704	16080	88	4	20	-9880	6016	12112	17	-7	-16	-16496	2408	-1144	12	-13	31	-2152	-2640	16704	32	1	-5	120	129	5
-10204	-4188	11656	-59	160	-185	-16088	-2044	1328	-101	-30	14	-792	-5536	16088	117	-11	45	-10000	6064	12024	23	0	-14	-16488	2528	-1320	11	-11	30	-1960	-2688	16776	42	-4	-6	120	129	5
-10208	-4232	11616	-90	143	-191	-15992	-2048	1268	-119	-3	-28	-376	-5304	15880	137	-24	52	-9944	6104	12152	23	-6	-15	-16400	2360	-1184	5	-2	32	-2056	-2528	16704	45	-2	-4	121	129	5
-10204	-4256	11716	-70	140	-165	-16072	-2020	1288	-62	-1	-26	-488	-4696	16152	94	-23	13	-9968	6072	12008	20	2	-17	-16400	2448	-1208	5	1	28	-2200	-2464	16832	47	-3	-4	121	129	5
-10204	-4188	11688	-61	132	-170	-15980	-2060	1272	0	15	-24	-704	-4776	16304	-3	-34	14	-9848	5968	12216	24	2	-14	-16592	2384	-1192	-1	1	29	-2120	-2488	16888	39	-2	-3	120	129	5
-10272	-4244	11692	-55	126	-173	-16024	-2020	1336	112	20	-18	-616	-4944	16344	-23	-11	20	-9896	5960	12168	21	-4	-14	-16488	2504	-1416	3	-2	23	-2224	-2328	16888	31	0	-2	120	129	5
-10200	-4220	11652	-83	148	-168	-16112	-1980	1268	177	58	-4	-360	-5224	16056	-39	-10	23	-9920	6128	12000	15	5	-18	-16448	2488	-1336	9	-2	26	-2256	-2240	16736	22	0	-3	120	130	5
-10180	-4132	11672	-87	150	-197	-16024	-1920	1260	91	25	-40	-408	-5360	16232	-21	-2	16	-9936	6104	12176	15	-1	-22	-16504	2336	-1144	8	1	23	-2136	-2408	16528	19	-1	-4	120	130	5
-10216	-4248	11664	-110	184	-171	-16036	-2004	1284	54	31	-26	-736	-5112	16256	-33	-12	0	-9800	6072	11984	9	-5	-26	-16520	2592	-1264	11	-4	20	-2288	-2464	16560	17	-4	-1	119	130	5
-10232	-4216	11696	-83	151	-203	-16080	-1992	1260	61	-25	-58	-936	-4984	16000	-73	-15	-2	-9816	6016	11992	8	-2	-18	-16552	2352	-1136	8	0	13	-2296	-2560	16584	21	-4	1	121	130	5
-10212	-4176	11644	-112	131	-189	-16056	-1992	1316	-4	3	-92	-800	-5128	15928	-106	-21	-2	-9992	6056	12376	9	-4	-24	-16424	2496	-1128	12	-5	13	-2272	-2400	16848	20	-2	6	117	130	5
-10244	-4248	11656	-91	154	-177	-16044	-2016	1384	-81	-90	-91	-600	-5544	16088	-77	-14	6	-9944	5976	12088	7	-6	-26	-16504	2488	-1168	14	-7	4	-2216	-2360	16920	17	0	5	117	130	5
-10216	-4184	11708	-100	152	-183	-16084	-2012	1308	-74	-71	-95	-520	-5736	16032	3	-9	36	-9992	5976	12288	7	-8	-26	-16368	2464	-1112	9	-4	10	-2208	-2544	16672	20	-2	11	118	130	5
-10144	-4192	11636	-95	164	-193	-16020	-2016	1236	-63	-101	-81	-640	-5832	16064	89	-3	53	-9976	6032	12016	9	-4	-22	-16560	2440	-1448	7	-4	10	-2144	-2496	16536	16	0	12	122	130	5
-10168	-4212	11648	-143	170	-221	-15964	-2012	1236	-44	-52	-50	-560	-5608	16096	147	-13	60	-9944	5984	12176	7	-3	-22	-16512	2320	-1096	3	-3	10	-2040	-2528	16952	13	1	10	121	130	5
-10200	-4208	11652	-158	141	-224	-16040	-2076	1400	-44	-83	-97	-416	-4672	15952	132	-23	28	-9912	5968	12016	11	-3	-24	-16464	2416	-1416	6	-2	9	-2128	-2432	16568	19	2	9	120	130	5
-10180	-4224	11664	-111	138	-215	-15972	-2088	1348	62	-51	-72	-568	-4848	16056	25	-33	16	-9976	6016	11880	10	-10	-18	-16496	2344	-952	6	2	17	-2088	-2600	16432	20	-3	4	120	130	5
-10196	-4160	11540	-105	119	-191	-16052	-2088	1400	133	1	-29	-616	-5056	16272	-53	-9	30	-9888	6080	12240	13	-3	-18	-16648	2304	-1152	11	-2	20	-2248	-2576	16880	22	-1	4	120	130	5
-10240	-4252	11628	-139	148	-186	-16084	-1964	1340	125	2	-67	-216	-5288	16344	-70	-9	19	-9920	6096	12120	13	3	-23	-16648	2344	-1088	8	-3	16	-2384	-2520	16824	28	0	4	119	130	5
-10232	-4252	11604	-147	162	-184	-16068	-2032	1268	62	19	-43	-288	-5328	15976	-61	3	-1	-9896	6024	12040	16	-2	-22	-16456	2416	-1112	4	-4	20	-2272	-2544	16616	24	0	3	120	130	5
-10200	-4264	11752	-122	169	-180	-15996	-2052	1320	-20	33	-24	-512	-5416	15624	-27	19	17	-9864	6032	12192	15	-2	-24	-16384	2456	-1320	3	0	19	-2176	-2408	16768	28	1	-1	119	130	5
-10244	-4272	11596	-109	165	-176	-16072	-2012	1288	-44	27	-30	-768	-5120	16160	-50	-25	-12	-9936	5976	12200	15	-1	-23	-16384	2416	-1296	5	-4	19	-2336	-2416	16848	29	-3	-1	120	130	5
-10184	-4240	11664	-120	106	-184	-16004	-2092	1328	-75	13	-47	-624	-5152	15976	-64	-36	-25	-10152	6000	12168	15	-5	-21	-16416	2368	-1232	11	-7	21	-2336	-2432	16568	31	-4	-6	119	130	5
-10188	-4260	11596	-56	148	-186	-16048	-2132	1224	-57	-22	-69	-544	-5536	16344	-53	-16	4	-9952	6096	12008	17	-5	-17	-16464	2360	-1344	14	-5	19	-2376	-2544	16616	28	-9	-5	119	130	5
-10236	-4216	11820	-67	117	-173	-16024	-1988	1416	-6	-20	-28	-560	-5640	16032	1	-2	40	-10024	6144	12040	13	-2	-18	-16464	2472	-1528	13	-10	21	-2296	-2424	16568	21	-5	-1	121	130	5
-10204	-4248	11708	-78	153	-151	-16060	-2032	1288	25	3	-25	-720	-5664	16176	73	-7	45	-9912	5976	12248	11	-5	-21	-16344	2368	-1096	6	-4	20	-2088	-2488	16840	29	-6	9	118	130	5
-10160	-4132	11616	-96	159	-193	-16056	-1980	1096	57	-71	-16	-520	-5448	16112	142	-11	53	-9880	6192	12128	10	-4	-22	-16616	2416	-1224	6	-4	19	-2208	-2560	16728	24	-4	11	121	130	5
-10216	-4152	11640	-90	126	-202	-16024	-2016	1304	28	-81	-49	-712	-4784	15944	181	4	21	-9920	6008	12056	15	-8	-24	-16496	2400	-1136	10	-4	23	-2152	-2440	16896	31	0	9	121	130	5
-10220	-4224	11696	-57	139	-210	-16064	-2032	1436	10	-66	-49	-568	-4768	16080	46	-36	22	-9944	6032	12112	13	-4	-19	-16568	2504	-1448	14	-7	18	-2200	-2400	16856	27	1	1	120	130	5
-10196	-4296	11668	-110	121	-175	-16032	-2000	1332	39	-53	-48	-384	-4664	16368	-6	-11	23	-9832	6048	12064	13	-3	-20	-16400	2472	-1152	9	-5	16	-2088	-2352	16736	24	1	-1	120	130	5
-10228	-4252	11608	-99	154	-183	-16036	-1996	1244	121	-65	-35	-328	-4944	16152	-62	-11	22	-9960	6016	12296	9	2	-20	-16528	2488	-1168	4	6	19	-2128	-2368	16744	25	1	2	122	130	5
-10224	-4228	11612	-98	120	-167	-16108	-1984	1300	74	-16	-55	-536	-5040	16304	-64	-2	6	-9880	6040	11928	13	-8	-20	-16584	2336	-1136	1	0	13	-2096	-2368	16848	23	2	4	118	130	5
-10196	-4112	11624	-141	166	-217	-15996	-1892	1336	-25	-11	-87	-528	-5368	16176	-38	-7	8	-9912	6096	11984	14	-2	-22	-16296	2464	-1056	-4	2	11	-2144	-2440	16952	18	2	6	119	130	5
-10164	-4148	11792	-148	157	-223	-16120	-2016	1352	-120	-12	-107	-576	-5384	16472	-6	-8	20	-9968	6072	12256	9	-6	-21	-16400	2544	-1008	-5	-2	10	-2072	-2376	16824	12	-1	9	119	130	5
-10216	-4140	11708	-222	151	-204	-16092	-1996	1312	-126	-58	-138	-616	-5288	16160	6	-13	30	-9912	5968	12016	5	0	-24	-16384	2496	-1160	0	4	7	-2168	-2392	16736	13	1	6	120	130	5
-10228	-4236	11704	-182	125	-249	-16088	-2032	1312	-95	-39	-112	-608	-5136	16264	-4	-16	32	-9824	6072	12000	7	-12	-26	-16696	2320	-1080	3	2	5	-2232	-2360	16744	17	-1	10	118	130	5
-10192	-4256	11656	-225	159	-212	-16024	-2200	1332	7	-29	-120	-648	-5096	16040	-19	-21	38	-9936	6056	12080	4	-5	-26	-16304	2456	-1472	4	6	1	-2192	-2296	16864	12	0	13	120	130	5
-10192	-4304	11688	-183	160	-241	-16048	-2076	1336	76	32	-159	-560	-5264	16248	-21	-18	27	-9952	5960	12056	4	-4	-27	-16544	2416	-1304	4	2	4	-2232	-2480	16944	12	3	15	121	130	5
-10196	-4280	11732	-139	157	-230	-16008	-2016	1216	129	-25	-134	-672	-5264	16136	-1	-17	25	-9952	6000	12040	2	-13	-28	-16336	2376	-1224	6	-1	5	-2216	-2624	16936	-3	-1	9	118	130	5
-10192	-4200	11632	-161	153	-252	-16008	-2032	1184	59	-27	-118	-528	-5320	16128	13	-14	29	-9952	6112	12120	4	-9	-24	-16408	2456	-1304	12	-3	3	-2176	-2512	16792	-3	-1	17	121	130	5
-10276	-4252	11812	-165	163	-263	-16048	-2004	1272	-37	-60	-124	-560	-5144	16168	7	-14	32	-9976	6048	12080	0	-4	-21	-16480	2440	-1512	7	-6	1	-2248	-2648	16680	5	-5	14	121	130	5
-10228	-4216	11628	-132	145	-194	-16060	-2116	1280	-51	-42	-125	-552	-5056	16144	-16	-11	32	-9824	5968	12208	5	-5	-23	-16392	2336	-1512	2	-1	4	-2136	-2600	16744	16	0	15	117	130	5
-10200	-4284	11676	-177	182	-234	-16004	-2060	1300	-17	-46	-98	-528	-5192	16040	-44	-7	28	-10008	6120	12032	3	-6	-24	-16528	2272	-1240	-1	-6	9	-2264	-2680	16864	24	-2	9	118	130	5
-10184	-4256	11612	-98	131	-193	-16024	-2032	1204	-3	-80	-99	-488	-5384	16200	-48	-10	14	-10096	6112	11848	10	1	-25	-16384	2360	-1224	4	-11	12	-2408	-2800	16496	17	1	7	118	130	5
-10208	-4248	11644	-96	157	-197	-16064	-1964	1224	-58	-85	-57	-632	-5448	15936	-31	-8	12	-9856	5872	12112	17	-2	-24	-16416	2088	-1344	10	-9	17	-2120	-2632	16912	16	0	2	119	130	5
-10196	-4300	11564	-107	122	-189	-16004	-2060	1316	-82	-47	-81	-528	-5504	15888	5	-8	23	-9808	6016	12232	17	-4	-19	-16496	2280	-1288	19	-9	21	-2216	-2688	16688	16	5	3	118	130	5
-10216	-4216	11664	-85	114	-186	-16068	-2072	1232	49	-7	-47	-584	-5360	16016	20	-10	32	-9976	6016	12032	22	-4	-19	-16496	2352	-1208	21	-14	23	-2112	-2760	16672	23	-3	-4	120	130	5
-10212	-4252	11668	-86	138	-215	-16076	-2072	1364	80	-32	-25	-488	-5152	16200	30	-10	27	-9952	6088	12256	18	-3	-15	-16528	2336	-1160	15	-16	28	-2144	-2824	16456	35	-4	-8	119	130	5
-10168	-4216	11652	-87	138	-222	-16080	-2028	1264	56	-51	-21	-680	-5272	16128	20	-11	36	-10000	5904	12064	21	-2	-19	-16488	2512	-1368	8	-11	33	-2200	-2568	16864	49	-3	-9	120	130	5
-10180	-4280	11604	-123	139	-207	-16032	-2040	1336	81	8	-48	-600	-5072	15968	3	-18	29	-9864	6088	12272	24	0	-15	-16480	2184	-1168	5	-6	29	-2128	-2544	16632	46	2	-6	120	130	5
-10188	-4264	11720	-73	129	-170	-15976	-2100	1372	-17	-11	-67	-616	-5104	16288	-6	-18	19	-9920	6024	12208	25	-3	-16	-16464	2352	-1016	10	-2	29	-2224	-2424	16880	41	-2	-3	119	130	5
-10184	-4240	11740	-49	145	-175	-16028	-2072	1348	66	17	-35	-448	-5288	16344	-15	-21	17	-10048	6184	12032	25	-4	-14	-16520	2488	-1320	10	-4	31	-2072	-2224	16760	32	-2	-4	122	130	5
-10204	-4232	11660	-94	112	-199	-16068	-2016	1220	81	36	-43	-472	-5176	16128	-20	-14	13	-10016	6056	12208	20	-7	-17	-16408	2440	-1088	9	-3	35	-2104	-2544	16880	29	-4	-11	120	130	5
-10220	-4216	11612	-72	124	-175	-16016	-2016	1312	2	11	-35	-648	-5336	16136	-12	-9	20	-9952	6016	12176	26	-2	-16	-16552	2408	-1256	14	-4	31	-2144	-2536	16648	29	-7	-13	119	130	5
-10204	-4224	11652	-94	159	-131	-16056	-2004	1348	-26	55	-17	-664	-5376	16000	-2	-8	21	-9968	6040	12128	25	-4	-14	-16512	2512	-1272	11	-4	25	-2120	-2496	16568	36	-8	-9	120	130	5
-10252	-4240	11556	-56	120	-158	-16100	-2048	1268	-40	8	-40	-672	-5352	15880	18	-9	24	-9984	6136	12176	15	-4	-17	-16496	2424	-1288	9	-4	25	-2240	-2328	17128	33	-6	-2	117	130	5
-10196	-4260	11616	-96	131	-180	-16048	-2092	1328	-53	0	-28	-648	-5352	16064	18	-12	28	-9952	6112	12104	12	-7	-20	-16576	2544	-1128	4	-5	24	-2240	-2480	16888	41	-2	-2	118	130	5
-10212	-4244	11632	-106	142	-161	-16064	-2116	1280	31	39	-15	-496	-5200	16304	4	-13	25	-9960	6008	12064	15	-3	-17	-16480	2432	-1248	5	-4	22	-2192	-2480	16448	39	-6	7	118	130	5
-10168	-4248	11668	-111	112	-182	-15956	-2100	1304	103	55	-33	-536	-5056	15968	-3	-12	25	-9960	6048	12072	17	-6	-20	-16648	2376	-1264	10	-4	20	-2376	-2392	16776	33	-2	7	120	130	5
-10168	-4256	11620	-94	132	-178	-16096	-2020	1216	178	2	-4	-688	-5328	16032	1	-6	28	-10088	6208	12176	11	2	-21	-16464	2616	-1224	12	-8	20	-2192	-2472	16728	26	-8	9	118	130	5
-10160	-4196	11708	-76	153	-200	-16044	-1948	1328	106	-60	1	-672	-5152	16168	11	-5	27	-9896	6056	12200	11	-6	-19	-16512	2336	-1224	7	-5	17	-2208	-2544	16800	26	-11	13	120	130	5
-10228	-4224	11628	-121	156	-204	-16000	-2008	1300	-41	-55	-38	-712	-5272	15952	9	-13	31	-9968	6048	12048	11	-3	-23	-16600	2488	-1016	2	-8	15	-2224	-2584	16712	30	-16	16	119	130	5
-10244	-4220	11604	-126	130	-191	-16036	-2044	1352	-46	-69	-71	-600	-5168	16312	6	-8	31	-10008	6096	12208	11	-11	-20	-16504	2512	-952	6	-6	17	-2176	-2576	16824	38	-15	17	119	130	5
-10204	-4264	11624	-91	140	-207	-16116	-2020	1372	-48	-90	-40	-504	-5304	16368	-3	-10	34	-9840	5952	12144	12	-7	-19	-16472	2352	-1096	0	-4	18	-2256	-2576	16600	41	-20	16	118	130	5
-10196	-4268	11732	-92	163	-176	-16032	-2068	1216	-8	-83	-21	-584	-5200	16288	-3	-13	36	-10032	6008	12256	14	-7	-22	-16520	2424	-1064	0	-9	19	-2224	-2520	16968	40	-18	16	120	130	5
-10172	-4244	11740	-111	111	-196	-16040	-2032	1384	18	-66	-69	-672	-5312	16104	5	-13	31	-9856	5960	12160	9	0	-17	-16400	2344	-1200	1	-5	20	-2160	-2464	16736	33	-18	15	121	130	5
-10208	-4216	11756	-116	150	-182	-15984	-2024	1288	13	-100	-69	-528	-5320	16160	13	-18	36	-9920	6000	12288	11	2	-20	-16480	2464	-1176	0	-5	19	-2104	-2472	16672	29	-18	11	118	130	5
-10252	-4188	11800	-115	149	-220	-16016	-2000	1252	-19	-94	-26	-536	-5128	16144	15	-22	40	-9976	6136	12072	14	-8	-18	-16384	2408	-1048	6	-6	21	-2168	-2464	16816	24	-21	14	119	130	5
-10184	-4240	11664	-134	164	-212	-16036	-2080	1244	-12	-97	-82	-680	-5296	16112	8	-20	40	-9944	6056	12008	12	0	-18	-16600	2352	-1232	2	-8	15	-2256	-2344	16832	33	-17	11	118	130	5
-10196	-4228	11720	-138	129	-187	-15996	-2128	1180	0	-94	-34	-472	-5080	16104	6	-16	37	-9872	6008	12224	12	-4	-22	-16336	2336	-1184	0	-5	20	-2136	-2576	16880	40	-18	8	117	130	5
-10152	-4352	11588	-109	167	-211	-16032	-2052	1276	11	-76	-39	-560	-5208	16000	-3	-17	31	-10112	6192	11968	12	0	-22	-16584	2544	-1208	-2	-6	23	-2216	-2728	16992	42	-14	9	120	130	5
-10204	-4316	11620	-102	127	-213	-16016	-2064	1340	31	-74	-53	-624	-5160	16248	-1	-16	29	-9968	6128	12144	13	-1	-17	-16416	2272	-1080	5	-5	23	-2144	-2552	16744	43	-11	2	121	130	5
-10228	-4256	11724	-98	125	-216	-15992	-1992	1396	45	-65	-76	-576	-5144	16152	0	-16	20	-9944	6048	12304	16	-9	-18	-16488	2272	-1272	10	-6	19	-2040	-2264	16936	32	-12	-1	121	130	5
-10240	-4236	11680	-76	106	-183	-15996	-2040	1296	-3	-80	-34	-544	-5168	16216	2	-13	18	-9824	6088	12096	13	-5	-20	-16464	2416	-1280	14	-5	24	-2080	-2280	16912	22	-11	-1	121	130	5
-10196	-4240	11632	-111	151	-218	-16036	-2024	1456	23	-37	-12	-496	-5216	16160	10	-6	17	-9768	5912	12064	16	-1	-19	-16496	2512	-1288	14	-5	23	-1952	-2280	16944	22	-7	-6	121	130	5
-10176	-4264	11568	-83	144	-203	-16048	-2128	1408	29	-3	-14	-552	-5256	16256	4	-7	17	-9920	6248	12096	16	-4	-22	-16448	2376	-1200	11	-3	20	-1912	-2280	16944	22	-5	-3	120	130	5
-10208	-4228	11636	-26	120	-152	-15996	-2080	1392	70	-37	-19	-552	-5192	16312	-2	-8	12	-9872	6056	12056	12	-5	-24	-16536	2512	-1344	1	3	16	-2104	-2288	16760	28	1	-7	118	130	5
-10164	-4212	11680	-81	138	-165	-16060	-1964	1340	81	27	-42	-352	-5208	16176	-6	-11	8	-9904	6040	12144	9	-6	-21	-16408	2528	-1272	-5	1	15	-2088	-2328	16720	25	0	-6	120	130	5
-10216	-4164	11644	-58	138	-166	-16060	-1976	1364	64	9	-49	-552	-5272	16280	0	-6	13	-9960	6192	12080	11	-9	-23	-16560	2400	-1296	0	2	8	-2200	-2384	16728	16	1	-1	118	130	5
-10212	-4224	11760	-84	129	-185	-16032	-1972	1272	54	35	-62	-480	-5200	16088	5	-8	16	-9992	6056	12104	8	0	-21	-16480	2304	-1320	3	-2	10	-2080	-2320	16968	3	-3	2	120	130	5
-10156	-4196	11636	-133	139	-206	-16036	-1912	1364	-17	38	-57	-528	-5248	16176	9	-10	19	-9976	5976	12088	11	-5	-20	-16440	2344	-1256	8	4	12	-1992	-2400	16784	1	-4	22	119	130	5
-10156	-4188	11660	-126	146	-201	-15996	-2004	1308	-60	13	-90	-632	-5016	16104	6	-7	23	-9872	6016	12112	2	-6	-26	-16344	2312	-1176	7	0	7	-2304	-2392	16840	5	-7	21	120	130	5
-10172	-4240	11696	-122	125	-230	-16060	-1976	1216	-51	-20	-90	-648	-5096	16112	-10	-18	26	-9904	6184	12112	1	-7	-27	-16448	2304	-1184	5	-3	5	-2232	-2480	16936	26	0	16	119	130	5
-10228	-4240	11720	-145	134	-180	-16076	-1988	1304	26	13	-127	-568	-5176	15832	-9	-17	30	-10032	6008	12232	5	-5	-27	-16480	2264	-1160	5	0	8	-2192	-2648	16712	18	-2	3	118	130	5
-10228	-4204	11580	-182	172	-254	-16024	-2040	1256	-3	-17	-97	-672	-5376	16064	-9	-9	27	-9880	6016	12048	9	-7	-23	-16592	2160	-1320	14	-6	9	-1912	-2728	16608	32	1	5	122	130	5
-10208	-4352	11740	-134	143	-226	-15988	-2092	1248	-20	3	-122	-608	-5264	16152	-1	-11	20	-9920	5944	12024	15	-3	-23	-16424	2224	-1208	23	-4	12	-1896	-2592	16912	28	14	15	120	130	5
-10220	-4268	11700	-129	150	-187	-16016	-2060	1412	71	-33	-119	-528	-5128	16112	-8	-14	16	-9872	6032	12280	21	-2	-14	-16608	2368	-1232	34	-4	18	-2024	-2296	16656	11	13	3	120	130	5
-10216	-4172	11708	-97	160	-180	-16068	-1952	1348	50	17	-133	-456	-5184	16064	-21	-11	23	-9936	6096	12144	23	-5	-19	-16512	2344	-1392	15	-1	20	-2080	-2152	16896	4	9	-10	118	130	5
-10164	-4164	11628	-139	181	-198	-15976	-1996	1376	-55	-18	-127	-504	-5336	16264	-26	-11	28	-9776	6144	12184	17	-2	-19	-16568	2536	-1048	-5	0	19	-2464	-2552	16784	6	-7	-19	121	130	5
-10228	-4152	11704	-164	151	-197	-16016	-2084	1300	-121	-12	-109	-568	-5248	16240	-29	-6	33	-9888	6104	12184	18	-3	-23	-16400	2504	-1112	-20	10	17	-2088	-2640	16960	16	-2	-3	118	130	5
-10136	-4280	11676	-157	185	-205	-16060	-2064	1388	-122	19	-90	-568	-5568	16136	-17	3	34	-10080	6040	12288	13	-1	-17	-16544	2520	-1224	-12	7	20	-2104	-2544	16744	29	21	16	119	130	5
-10152	-4304	11676	-117	165	-192	-16056	-2132	1368	-34	-8	-60	-664	-5472	16024	4	2	30	-10016	6040	12176	16	-1	-21	-16376	2408	-1456	2	7	19	-2176	-2392	16664	41	23	25	120	130	5
-10156	-4272	11624	-66	148	-200	-16032	-2164	1296	62	16	-32	-704	-5320	15912	22	-1	28	-9912	6120	12096	19	1	-24	-16504	2272	-1240	10	2	24	-2280	-2416	16560	45	14	13	121	130	5
-10212	-4304	11624	-76	154	-193	-16012	-2120	1320	40	17	-17	-648	-5200	16216	24	-8	24	-9888	6184	12080	15	-8	-18	-16504	2376	-1160	19	-5	30	-2256	-2328	16512	38	-1	-2	120	130	5
-10200	-4252	11664	-67	135	-157	-15948	-2072	1240	55	-28	-11	-584	-5264	15984	17	-11	20	-9952	6064	12088	14	-3	-18	-16512	2320	-1296	25	-3	27	-2192	-2424	16712	40	-2	-6	118	130	5
-10212	-4252	11676	-13	127	-153	-16016	-2064	1260	60	44	-3	-704	-5096	16088	15	-15	17	-9952	6056	12264	10	-5	-22	-16320	2392	-1144	22	-4	16	-2192	-2256	16648	32	1	-3	121	130	5
-10196	-4196	11768	-56	142	-168	-16064	-2040	1472	71	16	-9	-736	-5160	16016	15	-19	18	-10096	6088	12120	7	-5	-23	-16456	2608	-1264	6	-6	16	-2176	-2288	16848	23	-2	0	122	130	5
-10212	-4220	11576	-76	130	-187	-16040	-1976	1368	-5	-40	17	-848	-5024	16256	14	-15	16	-9912	6120	11960	9	-7	-22	-16472	2432	-1080	-5	2	13	-2096	-2248	16760	21	-7	4	122	130	5
-10176	-4236	11712	-86	154	-144	-16040	-1916	1364	-84	15	-51	-552	-5096	16176	8	-16	11	-9952	6104	12200	7	-2	-25	-16512	2424	-976	-11	3	13	-2032	-2400	16712	21	-5	9	119	130	5
-10204	-4220	11832	-101	146	-169	-16000	-1952	1244	-109	13	-59	-624	-5088	16352	-3	-19	20	-9960	6032	12040	8	-3	-22	-16424	2408	-1424	-10	2	9	-2136	-2360	16720	11	-10	9	119	130	5
-10200	-4196	11628	-117	122	-217	-16048	-1988	1280	-95	-30	-77	-656	-5056	16216	-6	-16	24	-9976	6056	12184	6	-3	-21	-16464	2440	-1032	-5	1	11	-2024	-2480	16648	14	-10	9	118	130	5
-10176	-4244	11648	-165	153	-230	-16004	-1972	1216	-19	-24	-96	-672	-5304	16400	-13	-15	27	-9856	6072	12048	3	-5	-27	-16568	2376	-1320	5	6	13	-2120	-2592	16800	22	-4	8	121	130	5
-10200	-4220	11656	-143	178	-197	-16000	-1968	1368	40	9	-83	-688	-5240	16168	-5	-16	25	-9888	6072	12224	7	-1	-22	-16520	2328	-1032	16	-7	16	-2192	-2456	16760	23	4	4	119	130	5
-10240	-4252	11648	-162	160	-209	-15964	-1984	1100	15	-17	-95	-560	-5248	15968	1	-15	28	-10000	6008	12208	11	-3	-25	-16464	2392	-1464	21	-6	19	-2168	-2408	16656	26	6	5	121	130	5
-10184	-4216	11772	-80	169	-203	-16052	-2116	1452	80	-78	-100	-520	-5288	16104	2	-13	25	-9856	6120	12032	8	-4	-21	-16560	2440	-1384	14	-6	16	-2296	-2368	16792	18	3	5	120	130	5
-10204	-4224	11616	-97	148	-202	-16032	-2064	1360	73	-31	-64	-536	-5200	16104	9	-12	23	-10008	6072	12080	11	0	-22	-16368	2448	-1360	6	-5	11	-2216	-2520	16664	2	-2	0	120	130	5
-10200	-4228	11704	-94	170	-182	-16016	-2076	1372	20	10	-100	-392	-5288	16256	-1	-9	23	-10008	6024	11960	3	-3	-21	-16520	2288	-1224	-3	-2	14	-2096	-2440	16688	-3	-9	2	120	130	5
-10208	-4156	11780	-132	118	-187	-15968	-2088	1336	-23	3	-40	-480	-5224	16232	-12	-7	18	-9952	6064	12448	12	-9	-19	-16512	2280	-1232	-1	-8	10	-2000	-2752	16608	10	-3	12	119	130	5
-10264	-4252	11660	-83	163	-189	-15996	-2076	1344	-52	29	-62	-496	-5304	16144	-20	-8	14	-9848	5888	12200	12	0	-22	-16496	2344	-1040	5	-2	19	-2368	-2656	16688	8	-6	6	121	130	5
-10220	-4264	11660	-95	149	-179	-15972	-2088	1192	13	17	-60	-672	-5344	16112	-13	-5	15	-9856	6048	12104	14	-8	-14	-16568	2312	-984	18	-5	24	-2056	-2560	16608	33	10	-1	121	130	5
-10232	-4296	11664	-55	116	-179	-16024	-2092	1404	1	18	-51	-656	-5384	16120	0	-1	15	-9856	6072	12184	21	-5	-14	-16488	2248	-1264	24	-8	27	-2088	-2536	16760	43	1	-5	121	130	5
-10188	-4280	11800	-75	119	-121	-15984	-2080	1400	-14	38	-10	-608	-5376	15984	3	-14	15	-9840	5976	12032	23	-1	-17	-16608	2256	-1200	29	0	28	-2088	-2528	17000	35	3	-12	121	130	5
-10172	-4260	11760	-57	157	-157	-16004	-2156	1284	1	38	8	-544	-5264	15928	12	-16	17	-9976	6112	12040	23	-4	-18	-16480	2472	-1272	17	-2	31	-2192	-2312	16680	29	-1	-15	120	130	5
-10208	-4256	11616	-42	145	-157	-15992	-2004	1336	78	67	-13	-448	-5120	15976	18	-15	16	-9816	6080	12240	23	0	-15	-16400	2504	-1280	2	3	26	-2112	-2344	16608	28	1	-6	118	130	5
-10176	-4236	11604	-58	132	-143	-15964	-2008	1332	96	50	10	-584	-5176	16320	17	-16	13	-9992	6032	12160	21	-1	-16	-16512	2456	-1192	-6	3	25	-2080	-2432	16600	30	2	-6	119	129	5
-10192	-4236	11652	-83	124	-157	-16064	-2004	1364	72	44	7	-552	-5144	16360	13	-17	16	-9768	6024	11984	21	0	-15	-16472	2376	-1008	-2	0	25	-2208	-2400	16776	38	2	-7	120	129	5
-10188	-4228	11636	-37	131	-160	-16012	-2028	1276	74	37	18	-672	-5112	16104	9	-13	21	-9992	5976	12200	22	1	-20	-16520	2496	-1112	6	-1	24	-2208	-2416	16824	31	0	-4	118	129	5
-10220	-4176	11760	-71	132	-177	-15948	-1948	1316	-37	19	-24	-672	-5168	16024	7	-11	22	-9800	6104	12008	18	-2	-23	-16536	2528	-1128	14	-4	23	-2232	-2288	16672	30	3	-4	122	130	5
-10228	-4244	11708	-84	129	-189	-16072	-1972	1340	-78	-27	-28	-608	-5104	16288	4	-13	21	-9912	6072	12040	17	-4	-21	-16472	2416	-1200	14	-3	24	-2152	-2440	16744	30	1	3	121	129	5
-10152	-4292	11632	-91	163	-175	-16052	-2036	1268	-23	-26	-60	-720	-5032	16144	1	-15	19	-9848	6080	11912	13	3	-24	-16544	2528	-1088	14	-3	22	-2024	-2424	16728	31	-1	6	121	130	5
-10184	-4268	11636	-89	157	-175	-16104	-1972	1304	2	-50	-73	-544	-5152	15904	-8	-14	20	-9912	6120	11976	11	-5	-18	-16512	2432	-1136	8	-4	17	-2136	-2376	16704	24	1	11	121	129	5
-10180	-4144	11708	-120	144	-225	-16028	-2068	1264	23	-34	-90	-672	-5216	16024	-8	-16	25	-10040	6008	12024	10	0	-21	-16480	2456	-1048	4	-2	16	-2152	-2344	16912	26	-3	8	119	130	5
-10180	-4208	11816	-145	145	-215	-16036	-2016	1328	10	-54	-89	-592	-5168	16024	-6	-12	29	-9888	6064	12048	10	-1	-21	-16456	2408	-1296	-1	-2	12	-2176	-2256	16784	17	-3	7	118	129	5
-10184	-4188	11724	-145	146	-250	-16100	-1952	1212	-4	-66	-139	-584	-5128	16056	-6	-16	33	-9984	5920	12208	9	-6	-20	-16560	2496	-1240	-5	-1	11	-2176	-2400	16736	10	-1	7	120	130	5
-10144	-4240	11636	-165	161	-206	-16032	-1996	1324	-27	-51	-119	-624	-5128	16176	-7	-16	31	-9976	6128	11880	9	-5	-21	-16464	2368	-1264	-2	-1	8	-2104	-2568	16920	3	-4	9	122	130	5
-10160	-4184	11732	-152	162	-223	-16020	-2008	1360	-40	-43	-119	-632	-5104	16200	-7	-15	27	-10016	6112	12232	6	-5	-25	-16464	2392	-1256	2	-2	9	-2192	-2536	16904	12	-3	10	118	130	5
-10188	-4224	11692	-161	151	-225	-16052	-2032	1392	-34	-61	-132	-720	-5160	15992	-21	-13	23	-9832	6088	12048	8	-4	-25	-16512	2368	-1248	7	-1	12	-2208	-2360	16784	18	-7	8	121	130	5
-10240	-4224	11612	-171	140	-216	-16036	-2088	1308	1	-40	-107	-456	-5160	16240	-9	-14	23	-9816	5928	12104	9	-2	-23	-16512	2504	-1192	15	-4	10	-2208	-2520	16920	20	-4	9	119	129	5
-10244	-4300	11688	-125	146	-198	-16032	-2084	1348	22	-17	-93	-704	-5208	16312	-8	-11	19	-9872	6056	12272	10	-8	-28	-16496	2368	-1128	16	-5	18	-2144	-2552	16768	25	-3	3	119	130	5
-10248	-4232	11592	-132	162	-228	-15996	-2072	1264	8	-4	-51	-648	-5192	16288	-2	-15	19	-9752	6136	12312	8	-10	-25	-16384	2512	-1440	13	-9	12	-2256	-2472	16840	26	-1	4	121	129	5
-10132	-4252	11672	-113	147	-178	-16056	-2004	1240	6	-9	-57	-536	-5312	15976	1	-14	20	-9976	6000	12312	13	0	-25	-16416	2240	-1400	8	-4	15	-2096	-2432	17032	23	-3	2	118	130	5
-10248	-4272	11664	-99	142	-180	-16032	-2020	1268	-47	-48	-51	-536	-5360	16136	6	-15	21	-9984	6064	11992	8	-3	-17	-16584	2344	-1192	8	-3	17	-1976	-2376	16608	20	2	5	119	130	5
-10172	-4296	11660	-76	170	-199	-16032	-2140	1384	-34	-24	-5	-600	-5408	16320	9	-12	17	-10096	6080	12264	16	-1	-19	-16480	2264	-1064	3	-6	21	-2096	-2456	16832	22	-2	1	118	130	5
-10296	-4192	11660	-72	144	-205	-16028	-2084	1388	13	-7	-26	-560	-5240	16232	12	-9	20	-10056	6016	12104	18	-5	-18	-16456	2384	-1112	8	-4	20	-2072	-2576	16864	20	1	-3	118	129	5
-10176	-4244	11660	-64	152	-170	-15952	-2012	1252	37	2	-34	-632	-5320	15872	9	-12	17	-9768	5984	12096	18	-3	-22	-16544	2488	-1264	5	-4	26	-2104	-2424	16824	29	-4	-2	118	130	5
-10180	-4236	11620	-60	146	-163	-15972	-2012	1292	56	-71	11	-480	-5256	16048	14	-14	16	-10032	6000	12312	20	-4	-21	-16472	2384	-1184	10	-7	22	-2224	-2640	16736	31	3	-3	117	130	5
-10180	-4188	11680	-80	133	-158	-16044	-2004	1404	46	-3	-11	-600	-5080	16248	9	-7	17	-9968	6040	12072	17	-3	-20	-16416	2416	-1392	10	-7	23	-2096	-2552	16672	30	-1	-3	118	130	5
-10168	-4264	11616	-72	183	-174	-16004	-1996	1256	18	-22	-43	-768	-5184	16096	4	-14	19	-9832	6272	12128	17	-4	-21	-16456	2424	-1264	12	-4	26	-2096	-2408	16888	31	-2	0	118	130	5
-10212	-4252	11680	-97	151	-162	-16060	-2024	1356	24	-2	15	-576	-5136	16240	7	-14	23	-9960	5976	11968	20	-3	-22	-16400	2400	-1176	7	-4	24	-2056	-2408	16784	31	2	2	120	130	5
-10188	-4216	11740	-94	123	-175	-16076	-2004	1272	-9	-41	-42	-720	-4976	15832	1	-15	21	-9880	6056	11912	15	-3	-17	-16464	2384	-1336	1	-5	24	-2096	-2368	16960	29	3	6	120	130	5
-10180	-4216	11696	-75	142	-191	-16064	-2016	1328	23	16	-26	-712	-5184	16160	-3	-17	20	-9808	6048	12088	16	2	-22	-16360	2528	-1104	-1	-5	20	-2080	-2320	16680	24	-1	3	120	130	5
-10272	-4232	11756	-109	159	-187	-16016	-2004	1392	35	5	-57	-712	-5256	16336	-2	-14	19	-9968	5952	12008	13	-2	-22	-16360	2376	-1352	6	-4	18	-2032	-2368	16544	26	0	-2	120	130	5
-10172	-4264	11636	-144	152	-191	-15992	-2024	1296	34	-15	-55	-640	-5064	16120	3	-11	19	-9880	5984	12112	16	-4	-19	-16456	2536	-1280	10	-7	17	-2128	-2488	16736	16	-6	0	120	130	5
-10212	-4256	11636	-102	139	-188	-16032	-2016	1208	6	1	-69	-536	-5256	16200	4	-14	20	-10000	6048	11832	11	-7	-19	-16312	2400	-1144	5	-5	19	-2128	-2544	16968	12	-2	-1	120	130	5
-10216	-4216	11696	-124	161	-209	-16040	-2056	1272	-27	-38	-78	-616	-5144	16088	3	-16	22	-9888	6040	12144	9	-7	-21	-16632	2408	-1200	9	0	18	-2168	-2568	16728	17	-2	1	121	130	5
-10244	-4180	11688	-125	155	-189	-16024	-2008	1356	-2	-16	-71	-608	-5024	16208	-6	-12	21	-9968	5984	12272	8	-2	-25	-16464	2400	-1208	9	-1	13	-2136	-2312	16448	18	-4	4	120	130	5
-10208	-4200	11664	-118	149	-196	-15996	-1968	1280	4	-36	-53	-640	-5176	16064	-7	-15	22	-9856	6032	12224	11	-3	-22	-16464	2392	-1440	6	-3	14	-2152	-2536	16768	21	4	9	119	130	5
-10184	-4164	11796	-145	115	-199	-16052	-2044	1296	-5	-43	-74	-600	-5280	16224	-12	-12	22	-9952	5960	11976	10	-4	-22	-16472	2424	-1128	7	-3	14	-2168	-2344	16896	21	0	10	121	130	5
-10204	-4252	11720	-156	165	-180	-16012	-2000	1396	-28	-7	-101	-576	-5256	16024	0	-11	25	-9776	5936	12080	13	0	-19	-16544	2384	-1200	7	3	14	-2088	-2536	16760	23	1	5	119	130	5
-10236	-4200	11668	-95	147	-179	-15996	-2112	1340	11	-54	-58	-552	-5256	16120	-1	-12	26	-9896	6120	12112	14	-10	-18	-16368	2440	-1304	8	-5	17	-2064	-2432	16800	22	-1	7	118	130	5
-10160	-4236	11684	-109	130	-227	-16056	-2068	1324	22	9	-47	-584	-5192	16328	-3	-14	22	-9992	5920	12080	14	-9	-23	-16448	2400	-1208	3	-1	17	-2144	-2440	16896	26	1	4	118	130	5
-10156	-4224	11752	-105	142	-190	-15932	-2028	1344	30	-21	-53	-512	-5288	16128	1	-11	20	-9920	6008	12096	15	-4	-19	-16576	2312	-1160	3	3	15	-2280	-2656	16840	21	0	3	120	130	5
-10244	-4228	11780	-62	137	-167	-16060	-2036	1264	31	13	-38	-528	-5256	15920	6	-10	19	-9824	5928	12096	18	-1	-17	-16496	2424	-1240	9	-1	19	-2120	-2488	16792	27	-5	-2	121	130	5
-10228	-4212	11724	-85	147	-199	-16076	-2016	1336	23	0	-49	-656	-5144	16064	8	-14	23	-9680	6040	12128	15	-2	-17	-16520	2352	-1256	10	-5	22	-2112	-2544	16768	22	-5	1	121	130	5
-10212	-4244	11696	-102	144	-160	-16020	-2012	1284	-8	5	-50	-608	-5184	16144	5	-11	19	-9952	5944	12240	17	-8	-19	-16408	2400	-1184	4	-2	19	-2280	-2352	16672	28	-1	4	118	130	5
-10172	-4264	11552	-65	118	-195	-16020	-2064	1344	25	-4	-76	-776	-5288	16112	0	-14	21	-9960	5936	12216	18	2	-20	-16448	2352	-1256	7	-6	22	-2232	-2464	16824	28	-2	2	118	130	5
-10196	-4204	11700	-13	143	-157	-16116	-2012	1300	27	15	-18	-560	-5224	16440	-1	-18	19	-9904	6000	12208	17	-1	-16	-16392	2400	-1280	8	-6	21	-2288	-2312	16664	32	0	1	120	130	5
-10220	-4180	11704	-84	159	-165	-16064	-1968	1264	64	7	-57	-488	-5216	16144	2	-15	18	-10040	6088	12040	18	0	-22	-16536	2376	-1288	11	-2	17	-2168	-2488	16704	27	0	-3	122	130	5
-10200	-4280	11696	-51	112	-205	-16004	-1976	1224	0	-18	-35	-576	-5088	16312	3	-13	10	-9920	6216	12152	17	-3	-21	-16480	2352	-1088	7	-3	22	-2088	-2352	16792	23	1	0	121	130	5
-10160	-4212	11696	-84	147	-166	-16120	-2016	1268	-28	-30	-62	-856	-5128	16032	0	-18	17	-10024	6176	12224	17	-3	-16	-16472	2432	-1448	9	-7	18	-2168	-2464	16736	25	-1	6	121	130	5
-10172	-4176	11600	-110	138	-203	-15992	-2040	1296	-38	-13	-33	-680	-5000	16336	1	-18	15	-9952	5968	11984	13	1	-23	-16448	2416	-1104	9	-9	20	-2256	-2432	16600	23	-2	6	120	130	5
-10184	-4268	11612	-132	171	-185	-16032	-2016	1312	-15	-58	-64	-624	-5072	16152	-8	-14	28	-9752	6120	12088	12	-5	-21	-16512	2448	-1080	7	-7	19	-2224	-2488	16688	23	-2	5	119	129	5
-10152	-4240	11784	-99	127	-201	-16020	-2028	1316	47	-19	-80	-704	-5128	16240	-9	-18	26	-9968	6016	12016	13	-2	-21	-16376	2384	-1040	13	-6	12	-2128	-2496	16656	19	0	5	118	130	5
-10224	-4196	11732	-95	156	-174	-16112	-2032	1272	12	-29	-58	-584	-5296	16168	-8	-11	20	-9880	6088	12312	9	-11	-22	-16456	2464	-1424	10	-6	18	-2144	-2464	16560	14	3	5	121	130	5
-10216	-4200	11696	-104	125	-184	-16016	-2020	1400	24	-32	-79	-488	-5200	16096	8	-11	18	-9784	6096	12088	7	-7	-24	-16616	2464	-1088	9	-8	16	-2016	-2472	16800	12	2	4	117	130	5
-10208	-4180	11696	-49	139	-181	-16044	-2016	1392	46	-4	-36	-624	-5184	16080	1	-7	13	-9880	6096	12304	12	-7	-22	-16560	2464	-1224	6	-4	16	-2200	-2520	16744	23	0	3	121	130	5
-10220	-4232	11668	-84	153	-170	-16048	-1984	1384	44	8	-67	-488	-5184	16008	-1	-8	15	-9960	6104	12384	13	-3	-23	-16488	2424	-1232	3	-1	16	-2072	-2488	16664	23	2	6	119	129	5
-10208	-4248	11656	-94	127	-211	-16084	-2092	1408	32	31	-80	-584	-5344	15904	-8	-11	20	-9888	6104	11880	16	-5	-20	-16456	2408	-1416	5	1	17	-2200	-2424	16864	20	3	8	119	130	5
-10180	-4296	11628	-105	138	-192	-16024	-2012	1228	42	12	-67	-704	-5264	16000	-8	-10	22	-9968	6056	12016	10	2	-26	-16472	2280	-1096	3	2	15	-2176	-2608	16944	26	4	6	122	130	5
-10200	-4276	11656	-89	128	-197	-16028	-1952	1292	34	2	-29	-576	-5216	16080	-3	-14	21	-9912	6008	12288	16	1	-20	-16544	2432	-1240	3	5	17	-2024	-2520	16824	39	-5	5	119	130	5
-10256	-4176	11660	-121	125	-167	-16056	-2044	1320	27	43	-28	-544	-5368	16120	5	-11	18	-9952	6080	12064	16	4	-23	-16568	2392	-1256	4	5	17	-1976	-2520	16656	33	-5	2	120	130	5
-10136	-4248	11528	-76	136	-176	-16012	-2020	1196	8	31	-27	-632	-5296	16040	10	-9	20	-9896	5984	12256	17	-5	-22	-16456	2432	-1192	8	2	18	-2208	-2416	17128	24	-3	-2	121	130	5
-10184	-4232	11632	-113	163	-192	-16024	-2088	1240	41	39	-50	-720	-5296	16352	11	-9	21	-9856	6016	12272	19	-4	-26	-16424	2248	-1608	-19	2	24	-2272	-2360	16832	27	-9	4	119	130	5
-10140	-4248	11644	-96	127	-173	-16020	-2076	1252	50	37	-37	-600	-5168	16160	8	-14	14	-9856	6200	11880	15	-4	-16	-16352	2504	-1112	8	1	13	-2192	-2280	17056	28	-7	17	120	130	5
-10148	-4348	11732	-57	166	-168	-15996	-1992	1376	45	15	-53	-640	-5144	15832	9	-16	15	-10056	6200	11920	13	-5	-23	-16448	2568	-1032	-10	-2	18	-2224	-2408	16800	24	-12	9	120	130	5
-10188	-4192	11652	-18	138	-131	-16068	-1980	1204	51	26	-67	-616	-5184	16328	-2	-17	18	-10024	5944	12184	10	-6	-23	-16512	2360	-1432	-5	-7	17	-2272	-2296	16648	14	-8	8	118	130	5
-10188	-4200	11692	-79	144	-163	-16016	-1988	1220	45	29	-33	-704	-5088	16128	0	-20	13	-10104	5976	12096	9	-9	-22	-16608	2328	-1112	18	-2	11	-2224	-2368	16896	15	-8	12	120	130	5
-10216	-4260	11636	-93	109	-193	-16028	-2032	1268	-31	-63	-46	-880	-5168	16264	-1	-18	15	-9896	5960	12192	14	-3	-25	-16424	2408	-1248	17	-9	7	-2008	-2408	16936	13	-10	16	120	130	5
-10188	-4160	11720	-83	138	-203	-16032	-2012	1288	-44	-29	-13	-736	-5336	16224	12	-15	8	-9992	5936	12176	9	-9	-21	-16464	2448	-1168	1	-5	9	-1848	-2448	16664	15	-11	18	119	130	5
-10196	-4252	11680	-96	166	-187	-16012	-2056	1360	3	-61	-25	-576	-5264	16152	12	-13	15	-9768	6040	12008	4	3	-27	-16464	2384	-1176	-1	-9	8	-2248	-2560	16680	18	-12	14	119	130	5
-10140	-4244	11724	-68	153	-192	-16048	-2028	1332	46	-29	-15	-608	-5168	15904	2	-13	14	-9936	6112	12080	6	-6	-26	-16592	2312	-1432	0	-15	8	-2352	-2648	16680	23	-7	15	120	130	5
-10160	-4160	11648	-55	143	-195	-16072	-1964	1276	31	-34	-32	-760	-5136	16248	-2	-14	17	-9944	5936	12096	12	-1	-21	-16512	2184	-1176	14	-11	9	-2240	-2496	16600	36	-3	21	117	130	5
-10196	-4184	11732	-106	117	-200	-15988	-1968	1404	81	-23	-30	-688	-5136	16176	-1	-19	17	-9944	6048	11992	16	-10	-20	-16464	2360	-1392	19	-9	8	-2280	-2560	16664	57	-4	19	121	130	5
-10208	-4212	11736	-111	137	-230	-16048	-1980	1352	78	-52	1	-688	-5288	16032	10	-21	11	-9784	5984	12104	14	-6	-18	-16448	2352	-1200	7	-12	9	-2288	-2328	16704	45	-16	3	120	130	5
-10224	-4280	11636	-134	134	-239	-16080	-2016	1268	72	-49	-17	-624	-5264	16320	17	-16	-1	-10096	6000	11848	12	-5	-22	-16512	2312	-1096	4	-15	10	-2192	-2272	16632	27	-30	-5	122	130	5
-10140	-4124	11764	-115	166	-201	-15976	-1996	1308	165	-51	-65	-808	-5136	16136	15	-20	2	-9944	6232	11928	6	-5	-16	-16528	2424	-1304	-15	-24	13	-2144	-2488	16592	10	-31	-5	121	130	5
-10184	-4180	11696	-69	137	-219	-16072	-1956	1248	85	-70	-51	-776	-5008	16376	0	-21	6	-9872	5944	12056	14	-11	-15	-16568	2448	-968	0	-4	-1	-2080	-2320	16912	-6	-34	-2	120	130	5
-10220	-4212	11752	-101	122	-254	-16052	-1916	1300	-26	-112	-82	-688	-5096	16120	-4	-24	6	-10016	6096	11992	11	-7	-24	-16472	2424	-1104	2	-11	9	-1816	-2784	16880	-7	-40	19	120	130	5
-10144	-4184	11588	-93	108	-168	-16028	-1948	1400	-76	-79	-114	-400	-5128	16376	-15	-24	21	-9944	5968	12008	6	-8	-24	-16344	2320	-1232	-7	-5	5	-1800	-2736	17136	14	-34	26	119	130	5
-10140	-4116	11660	-183	167	-224	-16072	-1956	1328	-67	-67	-104	-424	-5312	16232	-14	-20	40	-10008	6144	11896	1	-10	-19	-16544	2200	-1168	-9	-2	12	-1736	-2736	17096	37	-28	40	119	130	5
-10128	-4216	11800	-116	112	-245	-16072	-1956	1448	-83	-36	-94	-272	-5264	16168	2	-26	58	-9688	6184	12176	10	-1	-19	-16512	2176	-896	-3	11	11	-1672	-2472	16904	51	-27	42	122	130	5
-10128	-4184	11744	-177	130	-170	-16124	-2008	1380	-129	-30	-96	-408	-5344	16232	18	-23	68	-9776	6112	12144	9	3	-28	-16456	2288	-1304	2	11	20	-1856	-2528	16840	69	-27	34	118	130	5
-10196	-4180	11668	-142	167	-198	-16056	-2100	1288	-54	-13	-58	-520	-5200	15976	32	-18	73	-10016	5944	12104	14	1	-24	-16512	2328	-1056	-11	14	18	-2000	-2480	16784	78	-21	35	117	130	5
-10216	-4184	11700	-147	142	-209	-16072	-2008	1312	-40	-50	-81	-728	-5152	15992	32	-14	69	-9824	6056	12184	9	0	-15	-16496	2320	-1328	-9	11	21	-2032	-2376	16784	77	-18	32	119	130	5
-10136	-4180	11616	-142	151	-180	-16044	-2028	1204	-38	-24	-76	-752	-5256	16088	24	-12	61	-9960	6088	12040	13	8	-19	-16376	2408	-1200	-10	12	27	-2424	-2400	16736	62	-14	39	121	130	5
-10176	-4264	11604	-140	109	-196	-16040	-2156	1340	-40	-55	-24	-584	-5144	16040	14	-13	51	-9872	5944	12176	16	1	-24	-16464	2472	-1184	-15	6	22	-2304	-2320	16656	48	-16	38	122	130	5
-10148	-4280	11720	-110	115	-179	-16016	-2096	1196	-40	-74	25	-640	-5184	16040	12	-13	36	-9944	6016	12280	15	-4	-15	-16512	2240	-1328	-15	-2	22	-2120	-2272	16712	43	-17	31	120	130	5
-10244	-4260	11680	-81	134	-168	-16020	-2088	1372	11	-39	73	-560	-5120	16248	12	-15	29	-9936	6032	12072	15	-6	-15	-16456	2400	-1232	-7	-3	26	-2288	-2384	16648	41	-20	19	118	130	5
-10184	-4236	11716	-15	77	-127	-16024	-2028	1356	35	-30	71	-536	-5152	15824	25	-12	18	-10008	6104	11912	17	-11	-16	-16384	2336	-1344	6	-11	26	-2176	-2280	17000	45	-20	4	120	130	5
-10212	-4188	11708	-32	99	-118	-15972	-2012	1336	19	0	61	-464	-5192	16264	31	-16	15	-10032	5968	12216	14	-2	-22	-16552	2280	-1168	13	-13	29	-2128	-2264	16680	43	-23	-7	120	130	5
-10244	-4316	11756	-11	97	-169	-16012	-1996	1472	6	-3	60	-496	-5280	16168	39	-18	16	-9888	6040	12088	14	1	-17	-16536	2376	-1224	22	-12	26	-2000	-2312	16816	39	-16	-8	120	130	5
-10164	-4228	11776	-8	113	-140	-16104	-2020	1312	24	-1	44	-544	-4976	16112	35	-11	17	-9888	5896	12080	25	-6	-17	-16648	2408	-824	22	-13	28	-2136	-2384	16864	37	-12	-3	119	130	5
-10216	-4192	11628	-4	142	-116	-16100	-1972	1408	50	39	45	-664	-4784	16344	27	-10	15	-9864	6000	12080	24	-5	-20	-16480	2504	-1168	11	-18	28	-2064	-2320	16992	37	-11	-5	117	130	5
-10212	-4224	11716	-8	128	-141	-16080	-1976	1332	143	64	16	-592	-4968	16160	12	-12	10	-9960	6040	12184	18	-7	-14	-16536	2424	-1096	-2	-23	21	-2088	-2224	16608	42	-7	-8	121	130	5
-10140	-4188	11652	-1	148	-163	-16024	-1888	1432	147	100	-1	-544	-4936	16088	1	-10	7	-9984	6072	12320	22	-2	-19	-16400	2552	-1152	1	-19	21	-2136	-2152	16736	35	-3	-12	120	130	5
-10168	-4192	11684	-70	149	-146	-16060	-1908	1204	117	69	12	-720	-5024	16160	-7	-9	4	-9848	6064	12008	19	-5	-16	-16632	2496	-1152	7	-17	19	-2128	-2112	16936	17	-2	-14	119	130	5
-10196	-4120	11692	-82	156	-166	-16036	-1904	1224	80	64	-27	-712	-4920	16232	-3	-6	8	-9880	6136	12152	15	-4	-20	-16400	2472	-1360	12	-23	22	-1960	-2112	16912	-6	-3	-20	121	130	5
-10188	-4192	11660	-85	147	-181	-16112	-1928	1288	77	40	-88	-776	-4896	16440	-9	-10	11	-9872	6168	12024	14	-10	-17	-16480	2456	-1336	17	-23	13	-2096	-2160	16568	-13	-5	-17	118	130	5
-10236	-4160	11616	-134	212	-199	-16012	-1948	1212	95	-18	-107	-840	-4904	16232	-20	-11	15	-10016	6088	12448	8	-10	-22	-16392	2448	-968	15	-34	16	-2032	-2304	17048	-18	-9	-15	121	130	5
-10192	-4232	11728	-124	174	-224	-16076	-1972	1112	51	-87	-67	-736	-4984	16224	-27	-8	14	-10032	6056	12056	6	-11	-23	-16368	2472	-1488	13	-34	7	-2088	-2352	16736	-18	-12	-6	122	130	5
-10228	-4184	11592	-94	144	-217	-16076	-1960	1164	44	-106	-111	-744	-5032	16288	-28	-11	8	-9960	6024	12160	1	-11	-22	-16472	2384	-984	10	-35	8	-2136	-2400	16840	-16	-4	-1	118	129	5
-10200	-4128	11636	-118	116	-210	-16036	-1948	1384	-5	-145	-83	-688	-5128	16248	-22	-6	14	-9832	6032	12168	4	-14	-23	-16472	2384	-1248	8	-32	2	-1904	-2432	16936	-6	5	5	120	129	5
-10212	-4180	11696	-117	138	-196	-16028	-1932	1320	-37	-122	-136	-624	-5112	16304	-10	-8	14	-9960	6032	12112	4	-17	-21	-16456	2472	-1088	9	-35	6	-1832	-2512	16896	-3	10	13	121	129	5
-10148	-4172	11792	-114	134	-221	-16056	-2036	1376	-5	-142	-123	-328	-5136	16104	-7	-5	25	-9952	5848	12176	2	-8	-23	-16424	2432	-1000	7	-30	5	-1840	-2432	16936	-2	13	13	121	130	5
-10180	-4228	11696	-124	142	-241	-16008	-2012	1304	45	-88	-117	-432	-5168	16200	-9	-6	25	-10072	6056	12384	2	-5	-24	-16680	2416	-976	13	-27	8	-1856	-2424	16600	-4	12	10	121	129	5
-10120	-4252	11648	-133	160	-214	-16016	-2060	1476	143	-62	-60	-544	-5200	16256	-20	-4	23	-9768	6112	12104	7	-2	-20	-16544	2432	-928	12	-19	8	-1768	-2584	16816	-5	15	-4	121	129	5
-10208	-4124	11616	-68	129	-213	-15988	-1984	1336	162	-26	-66	-536	-5224	16096	-14	3	16	-9840	6080	12208	3	-6	-30	-16552	2568	-928	6	-21	10	-1848	-2656	16720	-5	5	-9	121	129	5
-10224	-4176	11648	-85	128	-236	-16016	-2008	1436	157	1	-24	-528	-5264	16320	-16	6	12	-9936	5960	12008	0	-3	-33	-16424	2504	-872	-17	-15	11	-1848	-2696	16584	2	5	-3	119	129	5
-10184	-4252	11716	-108	107	-216	-16060	-1968	1380	90	-14	-51	-576	-5296	16272	-5	6	7	-9960	6032	12272	9	-11	-18	-16560	2312	-1096	-3	5	2	-1744	-2520	16888	8	8	5	120	130	5
-10204	-4232	11672	-89	135	-196	-16032	-1896	1372	-1	-3	-62	-456	-5136	16176	1	0	16	-9920	6032	12088	6	-8	-23	-16520	2384	-832	3	7	10	-1952	-2568	16912	8	3	7	120	129	5
-10160	-4240	11796	-129	118	-216	-16024	-1944	1316	-74	62	-43	-544	-5136	16304	4	-5	23	-9816	5840	12168	8	-10	-22	-16496	2464	-1040	-2	9	10	-1872	-2512	16712	22	12	10	119	129	5
-10144	-4148	11756	-140	151	-225	-16052	-1940	1316	-80	22	-56	-560	-5184	16104	7	-12	32	-9864	5960	12432	6	-3	-21	-16456	2344	-1072	2	14	12	-1816	-2520	17024	29	12	14	120	129	5
-10196	-4220	11700	-115	138	-200	-16060	-1884	1372	-95	13	-89	-776	-5080	16280	6	-11	41	-9872	6072	12000	10	-7	-18	-16456	2264	-1160	9	14	7	-1880	-2352	16664	29	10	15	120	129	5
-10188	-4120	11688	-170	191	-198	-16048	-1896	1312	-90	-6	-89	-720	-5024	16192	11	-12	37	-9944	6032	12040	10	-4	-25	-16424	2512	-1088	5	18	10	-1968	-2296	16552	22	3	14	119	129	5
-10188	-4172	11692	-148	175	-219	-16024	-1936	1272	-75	46	-97	-744	-5032	16328	7	-14	36	-9880	5968	12120	7	-2	-24	-16584	2408	-1416	0	17	15	-2120	-2488	16712	21	0	14	119	130	5
-10232	-4208	11736	-169	177	-225	-16116	-1980	1316	-52	-20	-104	-800	-5096	16280	2	-11	35	-9856	5832	12128	6	-5	-30	-16520	2312	-888	-8	17	7	-2056	-2368	16920	21	-4	17	121	129	5
-10224	-4216	11656	-163	154	-215	-15964	-1976	1244	0	-20	-116	-592	-4952	16208	-12	-7	33	-10000	6064	12112	5	-5	-26	-16568	2272	-1280	-9	18	7	-2120	-2376	16848	21	0	20	120	129	5
-10196	-4276	11716	-167	182	-223	-16004	-2068	1392	-19	28	-183	-680	-5032	16216	-22	-12	28	-9904	6000	12064	6	2	-25	-16616	2368	-1104	1	16	11	-2208	-2480	16744	23	5	12	121	129	5
-10236	-4220	11720	-236	161	-203	-16120	-1996	1448	10	16	-144	-536	-5216	16376	-27	-9	29	-9968	6048	12104	6	-4	-23	-16424	2400	-1192	5	2	10	-2192	-2472	16832	22	7	12	120	129	5
-10256	-4236	11660	-196	172	-207	-16020	-2040	1364	6	-3	-132	-752	-5376	16264	-12	-12	29	-9984	5896	12024	12	-6	-18	-16576	2360	-1112	10	0	14	-2192	-2464	16656	17	5	6	121	129	5
-10144	-4256	11692	-180	191	-183	-15968	-2112	1296	9	57	-114	-680	-5352	16024	-1	-9	34	-9920	6080	12088	13	-5	-24	-16472	2192	-1432	13	0	12	-2248	-2392	16688	15	3	-2	120	129	5
-10220	-4228	11700	-100	174	-174	-16012	-2040	1324	45	10	-79	-872	-5056	15816	10	-10	31	-9896	6024	12272	14	-3	-18	-16480	2344	-1352	16	-3	17	-2200	-2416	16816	12	-1	-2	118	129	5
-10208	-4292	11596	-82	157	-169	-16060	-2104	1112	21	-17	-46	-816	-5272	15984	9	-10	26	-9864	5872	12128	15	-2	-18	-16464	2336	-1248	11	-12	20	-2328	-2552	16728	19	5	-5	120	129	5
-10156	-4176	11728	-79	165	-173	-16064	-2084	1364	-18	-42	-55	-840	-5032	16152	4	-10	18	-9968	5976	12336	14	-8	-21	-16568	2440	-1336	13	-16	21	-2272	-2736	16784	23	-1	-6	120	129	5
-10208	-4168	11744	-80	141	-171	-16032	-1996	1228	34	-48	-37	-656	-5104	16048	1	-11	11	-9912	6048	12064	22	-5	-17	-16608	2280	-1200	12	-18	27	-2152	-2632	16816	35	-1	-7	119	129	5
-10224	-4212	11592	-69	124	-194	-16060	-2032	1204	16	-96	-29	-616	-5160	16176	-5	-11	8	-9848	5880	11920	17	-2	-17	-16440	2208	-1040	12	-18	27	-2096	-2472	16776	38	-5	-3	121	128	5
-10204	-4232	11760	-75	102	-212	-15992	-2092	1264	36	-95	-9	-832	-5128	16216	-4	-11	5	-9952	5976	12088	23	-3	-14	-16440	2400	-1152	8	-17	32	-2056	-2544	16712	37	-5	-4	120	129	5
-10196	-4176	11588	-50	96	-188	-16048	-1996	1280	63	-96	21	-760	-5296	16160	4	-13	13	-10032	5976	12256	25	-7	-16	-16560	2392	-960	9	-19	29	-2064	-2496	16920	39	-7	-4	122	129	5
-10228	-4168	11772	-45	104	-197	-16040	-1948	1388	26	-116	3	-776	-5152	15928	12	-12	27	-9864	6024	12176	22	-7	-17	-16536	2288	-1072	12	-20	32	-2016	-2392	16608	43	0	-1	119	128	5
-10192	-4144	11664	-74	118	-209	-16104	-1976	1400	-25	-143	-26	-584	-5096	16144	11	-14	27	-9840	5928	12080	21	-3	-15	-16512	2352	-896	12	-13	26	-1728	-2424	16736	43	3	-2	120	128	5
-10260	-4308	11632	-91	108	-167	-16004	-2000	1328	-13	-111	-51	-648	-5072	16088	4	-15	31	-9752	6088	12112	17	-2	-14	-16480	2352	-1136	11	-9	27	-2032	-2224	16832	43	6	-3	121	128	5
-10184	-4176	11716	-77	122	-195	-16012	-2016	1456	4	-32	-56	-512	-5120	16016	3	-13	23	-9872	6024	12176	21	0	-17	-16560	2456	-1224	3	-4	25	-1872	-2240	16704	37	-2	4	121	128	5
-10172	-4232	11768	-112	152	-181	-15996	-1972	1336	17	-46	-41	-472	-4984	16208	0	-13	25	-9960	6032	12168	13	-4	-18	-16464	2496	-1304	3	0	22	-1808	-2296	16784	33	-4	6	121	128	5
-10128	-4212	11620	-82	116	-193	-16020	-1960	1400	-15	-6	-77	-440	-4992	16256	0	-12	21	-9816	6120	12024	15	-7	-21	-16424	2360	-1088	4	0	22	-1976	-2272	16800	30	-1	6	118	128	5
-10200	-4208	11580	-149	128	-193	-15992	-1932	1408	-32	22	-91	-440	-5176	16264	-1	-12	19	-9784	5968	12032	15	-5	-23	-16464	2360	-952	4	7	13	-2032	-2264	16992	24	-1	8	120	128	5
-10152	-4220	11676	-117	117	-179	-16056	-1928	1472	-61	27	-56	-584	-5160	16080	-1	-10	22	-9856	6056	12160	15	-4	-25	-16456	2448	-1008	9	7	12	-1872	-2280	17136	18	3	1	119	128	5
-10132	-4288	11660	-126	167	-187	-15988	-1936	1368	-34	40	-60	-712	-5216	16040	-2	-11	27	-9856	6072	12096	11	-5	-26	-16496	2360	-1208	13	6	17	-1936	-2312	16816	13	1	5	119	128	5
-10252	-4216	11768	-110	158	-194	-16016	-2028	1344	-7	33	-61	-672	-5112	15944	-4	-12	26	-9912	5952	12024	13	-2	-27	-16504	2408	-1080	8	8	15	-2080	-2384	16856	16	-2	4	119	128	5
-10144	-4212	11632	-129	169	-190	-15968	-2048	1380	-6	17	-72	-624	-5008	15936	-5	-13	24	-9784	5984	12104	10	2	-23	-16520	2432	-1096	4	9	11	-2088	-2256	16688	18	1	3	122	128	5
-10172	-4200	11768	-147	177	-177	-16032	-2008	1360	-34	59	-87	-568	-4944	16336	-2	-13	23	-9952	5912	12160	11	-3	-21	-16464	2440	-1368	3	2	13	-2136	-2520	16856	21	3	5	118	128	5
-10196	-4248	11756	-162	162	-196	-16012	-2024	1288	10	54	-102	-856	-5152	16448	-9	-18	23	-9952	5896	12088	13	-2	-21	-16608	2344	-1192	7	6	18	-2168	-2352	16824	22	5	5	120	128	5
-10212	-4144	11652	-137	138	-176	-16060	-2016	1300	34	12	-96	-816	-5016	16376	-6	-11	29	-9840	5912	12120	9	-3	-24	-16536	2264	-1176	8	3	15	-2144	-2400	16536	23	5	7	121	128	5
-10284	-4260	11624	-124	179	-219	-16072	-2100	1304	10	-20	-91	-928	-5280	16152	-3	-10	26	-9944	6088	11992	13	-3	-22	-16552	2424	-1136	10	-3	18	-2128	-2400	16736	21	-1	3	120	128	5
-10204	-4276	11664	-114	146	-224	-16040	-2032	1340	51	-3	-58	-688	-5168	16064	-4	-14	18	-9808	6056	12056	13	-1	-21	-16464	2256	-1200	7	-2	15	-1976	-2424	16688	26	-4	-3	118	128	5
-10240	-4164	11804	-115	163	-166	-16004	-2016	1244	25	-8	-82	-640	-5128	16080	-8	-15	19	-9848	6016	12056	14	-4	-19	-16496	2152	-1256	13	-3	21	-2144	-2264	17008	18	-2	-2	121	128	5
-10224	-4268	11628	-107	141	-191	-16020	-1988	1328	-13	-4	-75	-512	-5360	16112	-7	-18	16	-9872	6080	12152	14	-10	-18	-16504	2344	-1112	10	-5	21	-2136	-2392	16832	18	-5	-4	120	128	5
-10280	-4220	11800	-69	150	-204	-16056	-2012	1284	-1	-30	-70	-688	-5176	16176	0	-16	12	-9920	6072	12392	17	-2	-18	-16528	2256	-1232	9	-9	21	-2016	-2496	16904	26	-2	-4	119	128	5
-10212	-4264	11676	-39	126	-137	-16040	-1976	1348	40	-21	-65	-712	-5264	16392	9	-12	20	-9904	5944	12192	19	-7	-16	-16384	2216	-1136	8	-11	20	-2096	-2384	16888	22	4	2	120	128	5
-10256	-4252	11684	-71	131	-174	-16044	-2016	1360	23	-17	-60	-712	-5120	15976	6	-17	19	-9944	6072	12088	14	-4	-21	-16456	2440	-1136	11	-11	20	-1944	-2512	16760	18	2	-4	120	128	5
-10188	-4148	11684	-64	117	-165	-16024	-1932	1216	-18	-61	-30	-560	-5152	16088	0	-11	18	-9840	5968	12216	18	-7	-16	-16624	2368	-1136	11	-8	22	-2056	-2296	16688	19	3	-3	119	128	5
-10228	-4212	11652	-88	167	-166	-16040	-1960	1372	-12	-50	-83	-592	-5056	16080	-1	-12	14	-10024	6040	12200	12	-2	-19	-16424	2344	-1248	15	-7	18	-1936	-2368	16840	16	8	-3	121	127	5
-10172	-4240	11748	-88	130	-169	-16064	-1960	1416	-26	-57	-86	-456	-5024	16224	-2	-5	24	-9848	6032	12072	11	-8	-20	-16536	2472	-1056	9	4	18	-1912	-2368	16936	12	1	-2	119	128	5
-10180	-4240	11704	-133	164	-222	-16016	-1972	1340	-15	-49	-92	-712	-5112	16200	-1	-8	24	-9912	6144	12144	11	-5	-22	-16488	2384	-976	9	-4	19	-1832	-2512	16976	11	4	0	119	128	5
-10180	-4160	11720	-114	124	-215	-16068	-1892	1292	28	-35	-98	-584	-5072	16272	-3	-15	23	-9944	6032	11920	9	-6	-21	-16520	2328	-1104	2	2	17	-2016	-2528	16936	9	6	-2	121	128	5
-10168	-4260	11644	-173	151	-199	-15996	-1996	1336	39	-15	-149	-544	-5016	16024	-13	-12	32	-9912	6192	12208	11	-3	-24	-16488	2312	-1144	-6	5	18	-1872	-2632	17064	14	7	-4	120	128	5
-10180	-4180	11736	-190	169	-230	-16016	-1888	1348	14	-41	-164	-704	-5032	16256	-20	-20	34	-9856	6024	12152	14	-4	-18	-16544	2160	-1336	9	4	22	-2072	-2464	16920	26	7	-4	120	128	5
-10192	-4232	11724	-209	165	-252	-16060	-1952	1400	-58	-27	-216	-616	-5112	16064	-23	-16	37	-9960	6016	12032	19	-7	-24	-16624	2384	-896	20	5	16	-2008	-2520	16744	25	10	-1	119	128	5
-10116	-4176	11652	-173	186	-242	-16012	-1988	1404	-133	-21	-199	-704	-5048	16152	-24	-19	39	-9936	6016	11864	19	-10	-19	-16448	2400	-1360	13	4	25	-2288	-2472	16792	24	9	-4	119	127	5
-10204	-4268	11612	-209	186	-251	-16012	-2100	1356	-120	-60	-238	-816	-5184	16168	-17	-13	41	-9976	6032	12112	19	-5	-20	-16512	2448	-1048	8	3	24	-2072	-2456	16824	24	11	-8	118	127	5
-10176	-4220	11676	-180	190	-240	-16044	-2056	1288	-7	-45	-208	-664	-5120	16248	-20	-19	41	-9960	6120	12208	20	-6	-17	-16480	2240	-1144	7	2	24	-2272	-2464	16960	24	10	-14	121	128	5
-10212	-4244	11672	-187	174	-255	-16076	-2072	1320	3	-36	-163	-552	-5240	16160	-21	-15	30	-9896	6080	12120	19	-7	-20	-16448	2504	-1208	16	1	25	-2096	-2400	16648	26	10	-11	120	127	5
-10152	-4336	11656	-172	174	-253	-16056	-2100	1312	-22	-64	-202	-784	-5320	16192	-22	-14	28	-10024	5920	12112	21	-7	-20	-16616	2432	-1176	12	-1	20	-2072	-2480	16848	28	3	-10	121	128	5
-10208	-4300	11648	-126	174	-240	-15984	-2084	1480	-37	-18	-136	-552	-5336	16088	-23	-12	21	-9896	6144	12264	20	-6	-18	-16512	2432	-1432	11	0	23	-2144	-2480	16672	25	4	-9	121	127	5
-10204	-4296	11732	-115	161	-223	-15992	-2120	1396	33	-4	-105	-616	-5184	16128	-17	-10	21	-9856	6072	12216	16	-5	-19	-16592	2280	-960	13	-2	24	-2056	-2408	16688	22	7	-3	121	128	5
-10180	-4256	11696	-70	152	-181	-16052	-2072	1428	68	10	-48	-528	-5408	16056	-7	-14	20	-9880	5936	11960	20	-4	-20	-16448	2544	-968	21	1	23	-1984	-2536	16800	28	7	-4	118	128	5
-10296	-4300	11624	-89	126	-181	-15992	-2100	1360	-21	-8	-46	-608	-5384	16216	0	-12	18	-9968	6016	12088	16	2	-19	-16504	2464	-984	15	0	27	-2032	-2440	16824	28	12	-6	119	127	5
-10168	-4240	11732	-71	170	-170	-15944	-2092	1348	8	2	-27	-624	-5248	16112	7	-13	15	-10008	6048	12048	17	-3	-20	-16472	2424	-1032	12	0	21	-2136	-2480	16952	31	6	-6	121	128	5
-10212	-4264	11780	-68	174	-143	-16060	-2068	1280	-14	42	8	-664	-5328	16112	12	-8	13	-9992	6040	12192	14	-5	-19	-16472	2392	-696	13	3	20	-2248	-2536	16472	30	6	-5	118	128	5
-10224	-4160	11688	-70	171	-180	-16016	-2072	1336	-55	41	19	-656	-5400	16344	3	-4	18	-9880	6120	12224	16	-3	-17	-16520	2520	-1056	9	3	16	-1888	-2512	16656	27	4	-4	120	128	5
-10236	-4148	11600	-75	171	-161	-15968	-2044	1440	6	23	-50	-720	-5080	16288	6	-3	21	-9784	6040	12128	17	-2	-22	-16544	2488	-1376	8	6	21	-1912	-2408	16592	31	4	2	119	128	5
-10176	-4188	11724	-52	157	-131	-16012	-2040	1280	37	52	5	-776	-5160	16200	2	-10	22	-9944	6048	12272	13	-3	-20	-16536	2328	-920	0	10	19	-2112	-2416	16616	34	-1	7	121	128	5
-10132	-4188	11560	-56	152	-162	-16004	-2000	1268	9	-2	-3	-648	-5088	16008	8	-9	22	-9936	6024	12216	18	1	-24	-16496	2400	-1296	-1	11	16	-2224	-2392	17056	29	3	9	122	128	5
-10212	-4204	11652	-97	141	-157	-16028	-2048	1228	-39	12	-47	-736	-5096	16048	11	-13	24	-9984	6024	12160	17	1	-29	-16552	2472	-1128	2	9	19	-2192	-2408	17024	30	-1	14	118	128	5
-10188	-4216	11636	-81	167	-194	-16036	-2068	1336	-23	30	-49	-656	-5192	16256	8	-12	26	-9960	6168	12216	18	-1	-23	-16400	2408	-1192	5	9	19	-2248	-2376	16824	27	2	10	120	128	5
-10152	-4264	11656	-115	143	-196	-16004	-2060	1372	-8	36	-41	-680	-5048	16224	7	-12	29	-9944	6064	12240	13	-2	-22	-16536	2256	-1176	5	-2	18	-2304	-2312	16864	26	1	7	120	128	5
-10196	-4244	11676	-95	178	-186	-16080	-2012	1404	45	10	-29	-712	-5160	16144	3	-16	27	-9904	6072	12088	15	-4	-21	-16424	2232	-1272	7	2	16	-2232	-2536	16664	24	3	4	120	128	5
-10176	-4204	11696	-109	142	-207	-16064	-2048	1252	-24	4	-53	-648	-5144	16144	1	-14	24	-9896	6016	12192	15	-5	-17	-16424	2440	-1064	12	-3	22	-2296	-2400	16568	26	-1	5	120	128	5
-10216	-4260	11684	-106	124	-187	-16012	-2028	1368	-49	32	-58	-808	-5056	15976	-2	-14	18	-9896	6064	11960	15	-2	-21	-16488	2408	-1112	13	-2	21	-2216	-2432	16888	26	1	3	119	128	5
-10236	-4236	11672	-94	130	-195	-16028	-2020	1328	10	3	-60	-664	-5176	15992	-2	-11	17	-9936	6016	12256	15	-9	-18	-16464	2456	-1088	11	-5	23	-2216	-2328	16832	27	1	1	121	128	5
-10232	-4252	11692	-94	162	-206	-16004	-2084	1288	13	-5	-51	-800	-5400	16168	0	-11	14	-9888	5976	12184	15	-5	-21	-16392	2344	-1144	13	-4	18	-2232	-2408	16648	24	-2	0	119	128	5
-10188	-4252	11624	-99	129	-176	-15972	-2040	1360	26	-26	-92	-672	-5176	16176	-7	-9	10	-9936	5904	11976	16	-3	-21	-16408	2424	-1112	10	-4	22	-2248	-2528	17008	24	-3	-2	118	128	5
-10192	-4244	11652	-107	171	-181	-16048	-2080	1280	3	-58	-12	-560	-5248	16200	-9	-9	12	-9992	5936	12008	17	-1	-20	-16344	2368	-1048	12	-4	23	-2128	-2568	16648	32	-4	0	119	128	5
-10180	-4236	11704	-79	153	-211	-15980	-2016	1268	67	-9	-11	-792	-5024	16224	-3	-12	19	-9896	6032	11984	13	-6	-20	-16640	2432	-1280	14	-10	21	-2088	-2416	16952	34	-3	2	120	128	5
-10184	-4300	11712	-76	155	-163	-16064	-2052	1340	7	-17	-20	-712	-5360	16136	3	-13	18	-10000	6048	12256	16	-5	-22	-16368	2400	-1008	14	-6	24	-2096	-2424	16960	36	-3	1	120	129	5
-10196	-4228	11628	-90	126	-152	-16008	-2072	1276	-11	3	-11	-688	-5344	16040	10	-11	18	-9952	6024	12152	19	0	-19	-16456	2392	-1128	11	-3	27	-2040	-2440	17088	34	-3	6	122	128	5
-10204	-4212	11708	-59	154	-173	-16068	-2084	1380	37	19	2	-800	-5288	16216	14	-11	21	-9904	6272	12008	18	-2	-21	-16440	2392	-1280	9	-5	23	-2176	-2360	16648	34	0	3	119	129	5
-10188	-4236	11612	-55	112	-157	-16020	-2060	1308	35	28	7	-544	-5088	16200	13	-14	22	-9960	6032	11952	17	-8	-19	-16512	2504	-1192	5	2	24	-2232	-2392	16776	32	-8	1	120	129	5
-10196	-4264	11640	-34	116	-163	-16012	-1960	1252	17	-3	-15	-728	-5200	16192	17	-11	18	-9960	6024	12200	19	2	-22	-16536	2304	-1224	8	-4	23	-2248	-2304	16912	32	-7	-1	121	129	5
-10212	-4248	11752	-77	161	-157	-15984	-2008	1336	-6	-26	-11	-800	-5112	16024	12	-18	18	-9880	5952	12208	19	-5	-18	-16360	2304	-1072	8	0	26	-2104	-2480	16768	34	-5	1	120	129	5
-10264	-4212	11616	-72	127	-137	-15996	-2048	1320	-25	-31	21	-736	-5064	16192	6	-17	22	-10016	6104	12256	19	-4	-18	-16520	2424	-1032	10	-4	28	-2208	-2456	16840	27	-6	4	119	129	5
-10164	-4220	11720	-56	149	-160	-16136	-2056	1272	-24	-6	43	-736	-5048	16224	5	-14	20	-9896	6048	12232	17	-1	-18	-16464	2536	-1088	13	-9	26	-2160	-2488	16656	33	-8	2	120	129	5
-10180	-4180	11696	-114	152	-179	-16056	-1932	1200	-4	-25	8	-760	-5120	16088	3	-12	19	-9976	6016	12360	15	-1	-24	-16560	2528	-1096	11	-4	30	-2064	-2368	17056	37	-9	-1	119	129	5
-10172	-4244	11692	-46	120	-199	-16068	-2056	1312	38	-18	-12	-600	-5200	16200	7	-11	20	-9920	6032	12344	15	-2	-18	-16400	2448	-1136	4	-2	25	-2008	-2400	16584	35	-1	3	121	129	5
-10204	-4188	11632	-87	102	-157	-16048	-1948	1256	-10	-12	-5	-736	-5240	16048	15	-13	19	-9920	6200	12096	19	-6	-16	-16552	2336	-1256	4	-5	23	-1976	-2304	16728	40	-2	3	118	129	5
-10228	-4180	11692	-79	152	-174	-16052	-1976	1316	17	-46	-14	-616	-5160	16264	13	-11	25	-10008	6168	11912	15	-2	-18	-16576	2440	-1448	8	-9	24	-2160	-2304	17080	38	1	3	118	129	5
-10212	-4172	11632	-118	119	-165	-16044	-1956	1196	-16	-7	18	-608	-5096	16208	13	-10	27	-9976	5960	12192	15	-4	-18	-16496	2456	-1248	13	-1	22	-2008	-2296	17032	30	0	0	119	129	5
-10156	-4236	11660	-79	157	-174	-16028	-2036	1312	33	-33	-25	-712	-5000	16232	3	-8	26	-9856	5984	12128	20	-1	-20	-16480	2648	-968	14	-3	22	-2112	-2296	16992	29	-2	1	118	129	5
-10152	-4180	11648	-77	126	-176	-16048	-1996	1408	83	18	-8	-736	-5064	16216	2	-12	17	-9968	6016	11984	13	-2	-22	-16416	2448	-1136	6	-6	26	-2064	-2328	16720	26	-6	0	121	129	5
-10224	-4176	11764	-101	125	-196	-16040	-1980	1264	60	4	-32	-720	-5096	16120	-7	-11	16	-9920	6056	12216	17	-8	-21	-16472	2456	-1200	2	-4	20	-2192	-2400	16712	27	-4	-2	120	129	5
-10208	-4156	11656	-145	131	-225	-16032	-1968	1344	-8	-12	-45	-768	-5216	16144	-1	-14	16	-9888	6016	12024	13	-3	-17	-16520	2440	-984	3	-1	22	-2000	-2464	16744	27	-8	1	119	129	5
-10240	-4236	11620	-116	159	-211	-16024	-1992	1340	-11	1	-41	-776	-5152	16232	4	-14	22	-9832	6120	12088	11	1	-21	-16384	2472	-1064	-2	-1	16	-2032	-2368	16688	31	-7	3	122	129	5
-10172	-4204	11692	-135	135	-201	-16056	-2028	1292	-41	-2	-60	-752	-5168	16224	7	-17	28	-10000	5976	12176	15	-9	-19	-16448	2344	-1208	5	2	24	-2080	-2280	16800	30	-5	9	118	129	5
-10224	-4228	11580	-135	161	-230	-16060	-1988	1268	-9	11	-86	-616	-5032	16096	8	-17	30	-9896	6120	12008	7	0	-21	-16560	2496	-1136	7	-1	23	-2152	-2320	16856	25	-8	4	119	129	5
-10204	-4248	11628	-130	136	-225	-15980	-2020	1320	-33	-26	-41	-792	-5024	16256	3	-18	29	-9840	6088	12208	12	-7	-23	-16448	2344	-1344	5	-1	18	-2144	-2376	16936	30	-7	2	119	129	5
-10244	-4300	11648	-137	118	-196	-16052	-1996	1292	10	19	-99	-576	-5104	15952	1	-12	26	-10016	5928	12104	12	-5	-21	-16400	2328	-1384	5	0	16	-2200	-2360	16584	28	-4	0	119	129	5
-10208	-4244	11608	-138	151	-199	-15956	-2028	1224	39	-1	-65	-672	-5112	16192	-5	-16	20	-9912	6064	12120	12	-9	-18	-16504	2432	-1200	11	-4	21	-2160	-2376	16856	23	-7	4	119	129	5
-10188	-4256	11696	-156	128	-200	-15976	-1976	1260	7	-55	-89	-592	-5048	16136	1	-16	23	-9984	5968	11904	8	6	-21	-16408	2496	-1152	8	-10	17	-1976	-2376	16560	25	-5	8	120	129	5
-10212	-4192	11648	-123	116	-197	-15992	-2032	1316	-7	-53	-52	-920	-5128	16120	-4	-11	24	-9816	6072	12168	13	-6	-17	-16424	2496	-1184	6	-8	21	-2264	-2344	16776	26	-5	3	122	129	5
-10224	-4252	11636	-121	165	-231	-16080	-2068	1328	-37	-28	-64	-824	-5048	16056	-6	-14	28	-9992	5904	12056	15	0	-19	-16480	2680	-1072	4	-8	13	-1944	-2384	16768	27	-1	5	118	129	5
-10188	-4216	11652	-119	162	-198	-16076	-1964	1236	-27	-44	-98	-680	-5096	16208	-6	-18	30	-9896	6096	12176	10	-6	-20	-16480	2272	-1200	3	-4	15	-2360	-2232	16776	17	-5	4	119	129	5
-10184	-4216	11716	-106	143	-190	-16008	-2020	1304	-20	-89	-80	-616	-5240	16216	-3	-16	24	-9984	6016	12264	13	-11	-20	-16544	2280	-1264	6	-12	19	-2056	-2304	17024	14	-5	1	121	129	5
-10200	-4220	11712	-90	98	-210	-16008	-2040	1376	-73	-66	-61	-624	-5184	16112	-4	-12	23	-9984	6008	12160	10	-2	-19	-16480	2336	-1288	11	-12	21	-2040	-2552	16936	18	-3	3	120	129	5
-10176	-4324	11700	-109	134	-174	-16004	-2060	1176	-2	-18	-81	-584	-5216	16080	1	-13	21	-10104	6016	11880	11	-4	-19	-16536	2352	-1072	13	-5	20	-2112	-2384	16992	24	3	2	117	129	5
-10144	-4304	11672	-102	143	-182	-16024	-1956	1372	30	-53	-81	-560	-5224	16120	5	-7	24	-9776	6152	12184	10	-1	-24	-16520	2456	-1352	16	-10	22	-1952	-2480	16728	28	4	-2	120	129	5
-10172	-4264	11736	-99	149	-221	-16048	-1988	1320	42	-51	-75	-672	-5112	16136	-3	-10	24	-9904	6104	12128	13	-3	-22	-16464	2424	-1168	11	-8	16	-2056	-2344	16632	27	0	3	120	129	5
-10136	-4148	11712	-79	154	-210	-15972	-1972	1316	39	-47	-107	-664	-5000	16104	-5	-18	23	-9912	6016	12032	13	-4	-17	-16400	2568	-1208	2	-5	15	-2064	-2328	17016	28	0	-2	119	129	5
-10120	-4248	11680	-110	129	-192	-16028	-2060	1332	47	10	-86	-616	-5040	16104	-6	-9	21	-9824	6040	12240	8	-5	-26	-16440	2464	-1176	0	-4	15	-2096	-2288	16664	20	-2	3	120	129	5
-10252	-4204	11652	-124	161	-203	-16044	-2008	1196	-2	-33	-82	-648	-5064	16024	-7	-15	20	-9880	5960	12120	12	-1	-21	-16488	2368	-1264	3	0	15	-2104	-2408	16784	20	0	10	120	129	5
-10220	-4220	11744	-118	133	-259	-16004	-1964	1320	8	-44	-76	-584	-5216	16064	-9	-13	18	-9816	6120	12192	11	-2	-18	-16440	2624	-1072	4	0	7	-1896	-2264	16664	17	-1	3	120	129	5
