#Activity	sitting 
#ActivityID	5 
#Date 09-27-15-43
acc_rf_x	acc_rf_y	acc_rf_z	gyro_rf_x	gyro_rf_y	gyro_rf_z	acc_rs_x	acc_rs_y	acc_rs_z	gyro_rs_x	gyro_rs_y	gyro_rs_z	acc_rt_x	acc_rt_y	acc_rt_z	gyro_rt_x	gyro_rt_y	gyro_rt_z	acc_lf_x	acc_lf_y	acc_lf_z	gyro_lf_x	gyro_lf_y	gyro_lf_z	acc_ls_x	acc_ls_y	acc_ls_z	gyro_ls_x	gyro_ls_y	gyro_ls_z	acc_lt_x	acc_lt_y	acc_lt_z	gyro_lt_x	gyro_lt_y	gyro_lt_z	EMG_r	EMG_l	act
-9168	-3444	13464	123	-66	-168	-15172	928	-5844	-14	-35	-23	-2564	-3576	16100	16	-143	202	-8172	4256	13012	-106	124	-217	-15576	2220	-5436	64	-35	122	-2652	6628	15616	220	-7	40	126	123	5
-9180	-3428	13416	131	-92	-153	-15240	876	-5680	-18	-31	0	-2552	-3508	16208	24	-139	185	-8084	4344	13172	-72	168	-234	-15652	2264	-5412	83	-4	149	-2604	6640	15616	233	-40	42	126	124	5
-9216	-3416	13460	143	-60	-139	-15224	876	-5788	12	-56	30	-2512	-3556	16124	15	-122	187	-8208	4396	13092	-45	163	-224	-15608	2120	-5536	46	-15	155	-2556	6684	15640	192	7	29	126	124	5
-9180	-3408	13428	122	-66	-154	-15172	900	-5892	29	-58	7	-2584	-3600	16132	69	-164	176	-8204	4312	13120	-80	153	-242	-15628	2188	-5428	49	-16	126	-2592	6668	15548	215	-4	75	126	124	5
-9264	-3436	13488	138	-115	-161	-15248	956	-5816	-8	-61	-19	-2596	-3416	16168	99	-170	181	-8192	4316	13032	-70	162	-216	-15628	2276	-5528	32	-74	134	-2616	6652	15660	223	-39	59	126	123	5
-9244	-3440	13412	161	-80	-134	-15160	912	-5868	-31	-73	22	-2640	-3416	16136	61	-164	174	-8220	4248	13064	-86	155	-235	-15588	2216	-5516	59	-68	150	-2572	6608	15720	172	-37	45	126	123	5
-9240	-3452	13504	136	-83	-165	-15224	956	-5680	-11	-100	-21	-2636	-3396	16228	82	-180	161	-8192	4280	13092	-100	176	-207	-15636	2148	-5436	67	-67	158	-2612	6632	15636	173	-49	45	126	124	5
-9200	-3392	13460	141	-64	-159	-15180	1060	-5800	-3	-86	-72	-2484	-3416	16184	69	-160	177	-8180	4292	13048	-89	152	-191	-15568	2284	-5436	99	-94	155	-2472	6652	15636	187	-69	7	126	123	5
-9260	-3416	13468	125	-115	-184	-15208	1024	-5748	-3	-98	-54	-2520	-3348	16164	32	-162	185	-8164	4388	13004	-88	131	-226	-15592	2272	-5352	67	-51	156	-2460	6740	15588	177	-79	30	126	124	5
-9192	-3424	13464	123	-2	-195	-15312	936	-5808	-23	-36	-62	-2444	-3404	16276	40	-153	157	-8180	4336	13036	-73	163	-220	-15592	2300	-5400	98	-43	110	-2436	6808	15572	183	-43	41	126	124	5
-9232	-3428	13420	128	-67	-120	-15308	1008	-5796	11	-41	-81	-2624	-3412	16192	-16	-157	193	-8140	4308	12988	-99	170	-208	-15668	2284	-5496	80	-5	89	-2496	6844	15576	200	3	36	126	123	5
-9172	-3492	13572	97	-6	-176	-15264	892	-5868	-31	-15	-62	-2548	-3548	16244	-11	-147	188	-8204	4388	13036	-107	154	-220	-15596	2296	-5420	41	-8	95	-2556	6700	15544	193	-19	48	126	123	5
-9192	-3508	13396	109	-11	-182	-15192	868	-5852	-5	-67	-39	-2492	-3552	16132	19	-117	204	-8208	4296	13128	-90	175	-246	-15588	2256	-5484	51	-8	102	-2588	6740	15620	196	-13	76	126	123	5
-9216	-3460	13436	143	-53	-124	-15204	908	-5764	-46	-49	-33	-2572	-3564	16232	39	-165	143	-8184	4336	13048	-101	158	-212	-15592	2176	-5480	32	28	53	-2576	6664	15664	146	-43	75	126	124	5
-9208	-3428	13436	123	-65	-152	-15128	928	-5820	21	-76	-73	-2508	-3548	16168	30	-173	151	-8176	4256	13140	-122	157	-205	-15632	2120	-5496	56	-28	110	-2584	6572	15732	139	-8	44	126	123	5
-9220	-3408	13492	151	-68	-122	-15276	984	-5760	38	-58	-27	-2664	-3456	16192	104	-146	159	-8152	4272	13136	-94	121	-216	-15580	2064	-5480	83	-53	115	-2548	6464	15680	184	-16	29	126	123	5
-9260	-3428	13480	170	-73	-121	-15096	1028	-5776	-29	-78	-75	-2500	-3448	16196	94	-145	181	-8248	4272	13104	-76	185	-198	-15568	2076	-5388	161	-43	179	-2500	6540	15748	172	-78	19	126	124	5
-9228	-3392	13380	136	-125	-154	-15164	1000	-5780	-47	-70	-48	-2480	-3464	16228	48	-153	160	-8200	4260	13032	-59	120	-215	-15624	2192	-5328	73	-17	173	-2436	6600	15652	228	-33	0	126	123	5
-9232	-3512	13500	143	-67	-137	-15204	956	-5740	-14	-27	-60	-2448	-3408	16268	32	-114	183	-8188	4348	13012	-71	149	-199	-15644	2212	-5320	51	-6	163	-2452	6652	15668	259	-34	30	126	124	5
-9172	-3360	13468	153	-45	-126	-15248	916	-5836	-13	-49	-59	-2484	-3564	16120	6	-77	208	-8180	4324	13044	-58	178	-185	-15584	2236	13540	75	11	149	-2496	6696	15552	270	-8	16	126	123	5
-9216	-3460	13392	137	-70	-140	-15208	812	-5744	24	-12	-21	-2508	-3568	16152	42	-73	193	-8196	4328	13008	-119	165	-201	-15608	2256	-5360	86	-20	118	-2508	6648	15608	237	40	19	126	124	5
-9204	-3428	13464	157	-36	-150	-15200	908	-5796	15	-35	13	-2512	-3548	16232	89	-98	161	-8176	4340	13020	-99	162	-221	-15644	2224	-5448	121	29	139	-2592	6712	15616	231	5	-2	126	123	5
-9192	-3420	13476	118	-57	-117	-15216	928	-5772	9	-26	73	-2540	-3452	16132	77	-53	173	-8152	4288	13056	-150	200	-198	-15592	2316	-5480	71	34	125	-2596	6700	15628	231	5	24	126	123	5
-9184	-3396	13500	147	-64	-173	-15264	952	-5784	-51	-20	9	-2680	-3428	16132	55	-105	138	-8176	4296	13056	-123	201	-202	-15596	2280	-5588	65	-3	132	-2640	6684	15648	177	0	12	126	123	5
-9244	-3464	13380	99	-64	-115	-15136	1056	-5868	25	-38	-27	-2708	-3344	16116	2	-119	156	-8208	4284	13060	-155	178	-179	-15600	2196	-5532	71	3	119	-2624	6656	15616	182	-13	25	126	124	5
-9216	-3360	13424	125	-93	-173	-15132	1080	-5852	-17	-67	-30	-2668	-3308	16252	27	-168	170	-8140	4356	12988	-121	158	-216	-15596	2292	-5432	113	-6	125	-2624	6692	15564	170	8	36	126	124	5
-9244	-3388	13456	133	-72	-156	-15152	1080	-5728	25	-27	-44	-2632	-3376	16108	18	-178	176	-8176	4308	13032	-80	144	-206	-15660	2256	-5380	82	-58	138	-2576	6656	15660	177	-64	39	126	124	5
-9200	-3440	13484	104	-52	-147	-15196	1000	-5664	-20	-52	-91	-2580	-3424	16176	10	-177	216	-8180	4336	13164	-105	109	-226	-15576	2204	-5508	68	-38	141	-2644	6652	15616	173	-53	36	126	123	5
-9220	-3392	13476	127	-54	-161	-15180	980	-5744	-88	-54	-86	-2648	-3480	16172	25	-140	193	-8168	4332	13096	-90	146	-200	-15556	2292	-5516	88	-35	108	-2556	6688	15564	130	-89	33	126	123	5
-9236	-3392	13444	132	-122	-173	-15160	944	-5776	-17	-66	-56	-2456	-3536	16096	14	-165	197	-8248	4284	13088	-121	117	-195	-15640	2252	-5464	53	-21	138	-2536	6648	15720	143	-43	23	126	123	5
-9180	-3444	13356	131	-66	-161	-15200	844	-5824	29	-71	-64	-2584	-3552	16196	-4	-152	205	-8168	4352	13052	-84	149	-198	-15632	2160	-5460	72	-12	93	-2572	6636	15640	155	-92	32	126	123	5
-9208	-3484	13508	118	-24	-182	-15228	864	-5736	-2	-93	-13	-2600	-3604	16268	-2	-148	145	-8156	4296	13024	-54	133	-216	-15520	2180	-5548	90	-60	135	-2624	6540	15680	176	-92	5	126	123	5
-9272	-3484	13380	145	-103	-144	-15224	868	-5800	-4	-81	-53	-2564	-3644	16104	55	-132	148	-8136	4280	12964	-61	127	-211	-15516	2100	-5544	96	-118	165	-2468	6588	15580	183	-123	34	126	124	5
-9260	-3392	13308	173	-77	-189	-15232	844	-5780	34	-88	11	-2552	-3536	16208	46	-109	128	-8152	4300	12960	-48	154	-197	-15400	2124	-5504	180	-98	145	-2524	6520	15580	180	-107	14	126	123	5
-9212	-3452	13412	150	-107	-184	-15112	960	-5884	-8	-102	-5	-2524	-3456	16184	84	-153	162	-8148	4328	13096	-39	179	-203	-15792	2116	-5364	74	-70	148	-2400	6576	15724	249	-79	6	126	123	5
-9220	-3416	13568	151	-109	-171	-15308	980	-5656	-26	-81	-4	-2600	-3360	16192	54	-123	169	-8212	4308	13028	-78	194	-214	-15624	2168	-5312	25	-58	174	-2652	6656	15600	245	-23	17	126	124	5
-9208	-3384	13448	168	-108	-155	-15184	940	-5860	6	-72	-4	-2464	-3360	16208	79	-172	191	-8148	4324	13104	-77	169	-192	-15572	2256	-5384	114	-70	169	-2680	6828	15692	269	-83	33	126	123	5
-9212	-3432	13516	152	-85	-137	-15200	964	-5888	34	-58	-23	-2632	-3388	16104	44	-197	152	-8120	4396	13088	-58	177	-192	-15552	2292	-5408	105	-38	150	-2480	6852	15656	203	-96	30	126	124	5
-9248	-3488	13436	155	-51	-154	-15208	1064	-5820	27	-72	-57	-2500	-3364	16236	28	-160	131	-8168	4360	13052	-81	148	-189	-15588	2268	-5388	104	-25	180	-2528	6856	15512	98	-105	18	126	123	5
-9228	-3436	13512	85	-56	-169	-15284	992	-5776	-30	-42	-106	-2676	-3340	16124	14	-150	208	-8188	4392	12936	-127	157	-210	-15640	2284	-5432	34	-2	98	-2644	6764	15672	142	40	44	126	124	5
-9184	-3464	13368	57	-25	-198	-15204	1016	-5712	-16	-37	-165	-2620	-3476	16132	-13	-162	190	-8148	4300	12928	-114	150	-248	-15572	2216	-5548	79	-5	36	-2636	6688	15456	155	30	68	126	124	5
-9224	-3424	13572	103	-61	-173	-15160	944	-5936	-16	-89	-104	-2644	-3552	16088	-24	-158	171	-8176	4300	13080	-137	141	-254	-15596	2160	-5412	107	-7	67	-2684	6708	15672	133	-23	76	126	123	5
-9224	-3472	13556	94	-95	-181	-15216	856	-5888	-18	-56	-92	-2608	-3532	16136	-15	-148	172	-8172	4336	13088	-121	135	-235	-15624	2204	-5484	93	-68	70	-2600	6544	15668	165	-32	34	126	124	5
-9200	-3436	13408	108	-79	-195	-15172	872	-5876	2	-81	-93	-2524	-3568	16028	44	-188	173	-8212	4340	12984	-123	148	-236	-15596	2136	-5456	80	-71	93	-2644	6488	15688	111	-59	46	126	123	5
-9240	-3388	13352	112	-63	-146	-15188	928	-5824	-8	-111	-58	-2488	-3604	16116	54	-186	185	-8108	4308	13088	-111	145	-209	-15632	2188	-5372	81	-74	120	-2516	6500	15716	179	-37	39	126	124	5
-9184	-3432	13448	123	-82	-146	-15188	872	-5856	30	-97	-52	-2508	-3500	16092	101	-187	188	-8156	4268	13028	-136	145	-224	-15580	2136	-5308	50	-56	158	-2480	6504	15660	225	-58	65	126	124	5
-9244	-3456	13500	125	-92	-185	-15216	900	-5808	-18	-75	-43	-2504	-3516	16144	55	-163	204	-8160	4196	13088	-95	173	-190	-15644	2076	-5508	45	-33	170	-2500	6560	15632	257	-34	49	126	124	5
-9192	-3440	13540	126	-59	-141	-15264	1012	-5872	27	-89	-33	-2496	-3536	16224	70	-138	203	-8140	4300	13104	-111	178	-209	-15636	2200	-5444	51	-57	171	-2540	6672	15772	236	-28	28	126	123	5
-9188	-3436	13484	116	-46	-176	-15284	924	-5720	-19	-88	-29	-2532	-3484	16132	130	-139	198	-8156	4332	13040	-95	179	-193	-15572	2284	-5388	11	-55	124	-2560	6684	15512	222	-22	30	126	123	5
-9244	-3400	13404	123	-99	-163	-15272	896	-5836	-16	-68	-23	-2508	-3416	16296	85	-155	164	-8228	4288	12972	-150	174	-169	-15616	2272	-5588	-58	-83	168	-2628	6820	15596	245	-34	19	126	124	5
-9180	-3444	13472	162	-86	-127	-15280	908	-5720	-19	-35	3	-2508	-3384	16276	55	-184	189	-8208	4304	12996	-121	168	-192	-15584	2276	-5508	-28	-65	126	-2548	6820	15604	181	-91	35	126	123	5
-9200	-3352	13548	126	-35	-147	-15236	944	-5652	6	-59	-34	-2544	-3420	16200	44	-176	138	-8200	4300	12984	-117	175	-201	-15588	2296	-5420	88	-64	104	-2476	6832	15616	89	-88	19	126	123	5
-9216	-3432	13408	165	-32	-145	-15256	1100	-5768	8	-27	-67	-2584	-3276	16260	10	-166	139	-8164	4344	13016	-70	159	-181	-15648	2280	-5484	87	-69	106	-2504	6844	15656	108	-44	-9	126	124	5
-9196	-3392	13528	139	-60	-145	-15224	1100	-5828	-12	-16	-54	-2528	-3288	16272	-26	-171	140	-8204	4280	12988	-108	106	-214	-15632	2248	-5400	68	-31	60	-2516	6772	15516	75	-9	-2	126	123	5
-9176	-3440	13492	110	-84	-162	-15196	976	-5744	-35	-21	-108	-2512	-3320	16132	-64	-156	183	-8256	4304	13076	-99	128	-209	-15576	2224	-5356	92	-19	33	-2572	6688	15600	116	27	17	126	123	5
-9160	-3444	13496	110	-59	-162	-15208	1004	-5844	-41	-8	-112	-2524	-3496	16204	-78	-183	165	-8172	4296	13004	-99	143	-230	-15620	2180	-5468	71	-3	50	-2460	6604	15584	111	-13	0	126	123	5
-9248	-3448	13456	85	-42	-190	-15200	884	-5852	-8	-41	-109	-2572	-3552	16128	-53	-137	219	-8228	4328	13132	-61	141	-245	-15612	2232	-5420	87	13	88	-2496	6624	15652	126	27	26	126	124	5
-9240	-3476	13392	110	-28	-191	-15188	936	-5800	-35	-6	-117	-2512	-3564	16124	0	-137	205	-8192	4284	13044	-45	135	-249	-15612	2160	-5404	109	19	31	-2552	6604	15628	132	8	39	126	124	5
-9176	-3468	13436	119	-30	-159	-15248	840	-5928	-16	-58	-74	-2528	-3716	16192	-19	-142	177	-8128	4264	13100	-98	127	-232	-15616	2164	-5400	115	4	95	-2612	6572	15696	156	-3	28	126	123	5
-9212	-3400	13540	106	-39	-158	-15172	856	-5844	6	-15	-42	-2388	-3652	16152	17	-140	180	-8120	4288	12996	-72	114	-226	-15584	2136	-5444	87	20	129	-2584	6508	15772	132	27	32	126	123	5
-9228	-3520	13352	111	-57	-163	-15192	804	-5796	-21	-34	-17	-2504	-3708	16080	50	-119	198	-8108	4236	13060	-76	137	-227	-15648	2052	-5436	140	30	124	-2532	6452	15712	200	-16	51	126	123	5
-9232	-3456	13476	134	-33	-160	-15152	868	-5820	2	-36	-35	-2520	-3628	16220	90	-79	186	-8144	4308	12948	-31	171	-190	-15568	2096	-5520	125	-18	151	-2568	6504	15680	242	-12	46	126	123	5
-9172	-3364	13572	163	-86	-108	-15144	892	-5788	5	-15	28	-2524	-3552	16172	91	-112	194	-8144	4264	12996	-54	187	-218	-15632	2108	-5408	90	3	154	-2636	6580	15692	224	-29	9	126	123	5
-9176	-3456	13476	160	-62	-148	-15320	956	-5756	-13	-37	25	-2588	-3500	16172	97	-122	162	-8248	4372	13092	-54	170	-209	-15640	2216	-5452	68	-37	201	-2620	6644	15460	215	-8	-9	126	123	5
-9228	-3456	13468	160	-44	-162	-15196	1004	-5820	25	-81	42	-2560	-3420	16132	50	-108	164	-8200	4216	13000	-52	172	-209	-15608	2244	-5488	116	-11	190	-2552	6704	15564	210	-10	7	126	124	5
-9212	-3496	13464	149	-28	-144	-15100	984	-5748	7	-44	42	-2640	-3428	16236	54	-154	154	-8164	4408	13068	-55	122	-199	-15640	2320	-5392	142	-45	153	-2584	6768	15624	191	-11	17	126	124	5
-9184	-3424	13428	132	-92	-135	-15112	1088	-5784	3	-61	10	-2572	-3388	16204	29	-160	172	-8220	4348	12940	-67	173	-233	-15584	2284	-5400	74	-3	164	-2544	6780	15600	180	4	27	126	124	5
-9200	-3476	13464	135	-95	-147	-15216	1008	-5728	-22	-50	-11	-2604	-3440	16216	51	-148	201	-8188	4316	12988	-104	123	-206	-15600	2276	-5456	109	-8	126	-2544	6788	15628	183	12	49	126	123	5
-9240	-3400	13400	136	-60	-183	-15152	1008	-5836	-32	-54	-18	-2560	-3396	16128	48	-153	194	-8180	4332	12988	-81	113	-222	-15652	2236	-5488	52	-12	84	-2588	6624	15656	154	14	45	126	124	5
-9228	-3380	13564	120	-85	-189	-15152	908	-5864	-5	-55	-60	-2600	-3412	16132	73	-149	219	-8196	4312	13012	-99	133	-215	-15592	2208	-5448	63	23	85	-2652	6616	15692	192	-5	37	126	124	5
-9224	-3520	13416	138	-41	-199	-15252	948	-5904	6	-74	-73	-2664	-3460	16284	49	-147	175	-8100	4348	12992	-78	168	-243	-15612	2132	-5400	14	9	93	-2576	6620	15580	182	-27	49	126	123	5
-9156	-3396	13480	129	-45	-162	-15212	912	-5804	12	-35	-37	-2596	-3432	16264	5	-152	174	-8164	4312	13044	-119	129	-250	-15548	2140	-5484	137	-59	124	-2616	6560	15568	133	-21	23	126	124	5
-9224	-3500	13392	122	-36	-140	-15196	892	-5800	16	-67	-57	-2548	-3508	16068	8	-136	167	-8128	4304	13056	-104	107	-234	-15624	2180	-5464	92	-44	127	-2580	6648	15620	177	-26	59	126	124	5
-9212	-3432	13512	111	-23	-129	-15092	924	-5720	-13	-80	-13	-2524	-3528	16080	22	-178	168	-8224	4320	13116	-53	109	-218	-15652	2188	-5416	76	-39	137	-2596	6608	15604	187	4	39	126	123	5
-9212	-3452	13568	156	-89	-151	-15204	936	-5836	-7	-2	-59	-2540	-3440	16232	54	-136	151	-8168	4300	13124	-75	169	-208	-15584	2296	-5480	88	-26	100	-2592	6664	15668	182	-16	17	126	124	5
-9236	-3388	13396	148	-77	-162	-15240	908	-5724	-15	-26	-36	-2592	-3452	16272	51	-141	180	-8156	4336	13000	-92	144	-203	-15672	2192	-5384	44	-28	131	-2496	6616	15604	182	-20	23	126	123	5
-9176	-3484	13472	151	-79	-138	-15240	952	-5836	-15	-73	-62	-2572	-3460	16224	54	-159	170	-8152	4320	13080	-86	139	-207	-15628	2228	-5356	101	-10	116	-2580	6692	15588	209	-32	34	126	124	5
-9204	-3420	13488	118	-52	-154	-15236	984	-5748	-49	-77	-74	-2540	-3476	16232	39	-132	212	-8204	4364	13092	-84	157	-221	-15608	2236	-5468	106	-17	137	-2588	6628	15688	184	-17	39	126	123	5
-9152	-3420	13580	143	-36	-181	-15140	976	-5748	-21	-56	-59	-2508	-3428	16036	27	-129	187	-8132	4276	13048	-70	140	-247	-15608	2208	-5596	73	-24	130	-2552	6668	15604	210	1	48	126	124	5
-9248	-3416	13464	118	-78	-112	-15200	988	-5736	-50	-41	-58	-2544	-3480	16064	55	-140	208	-8256	4284	13084	-86	130	-214	-15636	2156	-5412	99	-22	117	-2516	6628	15652	207	7	53	126	123	5
-9236	-3424	13448	127	-110	-129	-15228	940	-5736	-51	-92	-83	-2504	-3496	16192	63	-151	207	-8200	4276	12968	-90	159	-215	-15584	2196	-5304	113	-25	132	-2492	6608	15596	179	10	32	126	124	5
-9184	-3400	13440	143	-127	-143	-15220	944	-5736	-25	-80	-40	-2440	-3536	16180	78	-156	194	-8200	4304	12996	-103	129	-200	-15592	2184	-5468	64	-8	124	-2480	6648	15628	234	11	44	126	123	5
-9216	-3468	13384	148	-67	-126	-15236	888	-5748	4	-53	-38	-2492	-3540	16252	64	-95	186	-8128	4296	12972	-92	151	-247	-15656	2252	-5292	54	22	160	-2544	6660	15668	244	-32	59	126	123	5
-9184	-3456	13424	142	-45	-135	-15252	908	-5724	-9	-33	-15	-2464	-3488	16176	44	-84	188	-8172	4296	13064	-71	188	-231	-15644	2220	-5524	40	27	120	-2528	6700	15604	211	19	20	126	123	5
-9120	-3464	13472	140	-83	-167	-15228	928	-5744	-19	-30	-22	-2564	-3484	16092	11	-51	173	-8172	4356	13072	-91	171	-170	-15628	2176	-5572	76	43	117	-2624	6688	15572	213	37	13	126	123	5
-9232	-3444	13476	149	-36	-102	-15220	876	-5668	23	1	-14	-2532	-3464	16128	43	-107	155	-8160	4304	13164	-145	183	-212	-15620	2268	-5544	86	0	149	-2584	6684	15620	223	-10	15	126	123	5
-9192	-3428	13524	143	-64	-151	-15168	900	-5816	-8	-17	-6	-2580	-3560	16128	48	-110	168	-8172	4340	13068	-117	178	-176	-15608	2224	-5500	123	-19	125	-2716	6636	15740	179	-11	22	126	123	5
-9236	-3444	13548	138	-79	-128	-15224	908	-5820	32	-24	3	-2692	-3536	16280	3	-129	134	-8216	4256	13040	-104	182	-206	-15560	2224	-5564	100	-3	121	-2700	6672	15680	188	-19	3	126	123	5
-9244	-3456	13432	164	-64	-126	-15228	1012	-5864	-3	-23	23	-2628	-3404	16160	39	-144	139	-8204	4296	12932	-78	153	-191	-15552	2228	-5504	97	-68	131	-2672	6672	15516	198	-68	17	126	123	5
-9192	-3404	13464	164	-75	-113	-15128	1096	-5880	39	-102	-13	-2664	-3420	16112	24	-181	143	-8208	4336	13048	-105	149	-230	-15616	2248	-5428	115	-61	130	-2596	6652	15616	160	-77	1	126	123	5
-9272	-3424	13364	154	-90	-202	-15172	1092	-5904	-4	-146	-63	-2616	-3464	16208	62	-197	201	-8156	4344	13020	-75	132	-191	-15616	2236	-5484	97	-107	141	-2544	6696	15636	162	-50	59	126	123	5
-9208	-3388	13452	124	-153	-147	-15192	1056	-5680	-90	-158	-115	-2624	-3404	16236	118	-198	225	-8244	4292	13012	-82	113	-218	-15636	2228	-5436	25	-68	78	-2528	6616	15700	222	-49	72	126	124	5
-9180	-3380	13396	109	-117	-162	-15220	944	-5796	-31	-130	-109	-2436	-3464	16156	114	-238	255	-8104	4340	12956	-73	178	-237	-15652	2168	-5328	69	-52	132	-2476	6596	15660	213	-41	115	126	123	5
-9200	-3440	13416	109	-81	-198	-15256	808	-5728	-70	-95	-78	-2404	-3600	16112	129	-209	248	-8172	4220	13164	-90	155	-187	-15680	2112	-5408	54	-59	156	-2444	6560	15704	245	-11	82	126	123	5
-9216	-3492	13508	157	-104	-146	-15296	708	-5688	-26	-74	-25	-2348	-3572	16264	96	-176	201	-8240	4292	13168	-69	154	-218	-15648	2180	-5376	124	-26	135	-2440	6648	15636	244	-35	61	126	124	5
-9184	-3448	13456	154	-59	-116	-15280	864	-5656	31	-14	3	-2408	-3492	16144	15	-169	179	-8180	4312	12956	-43	152	-202	-15568	2280	-5360	77	14	147	-2488	6808	15604	193	-30	6	126	123	5
-9272	-3440	13500	154	-86	-102	-15276	888	-5700	22	0	32	-2388	-3448	16224	47	-122	134	-8152	4348	13024	-57	150	-206	-15520	2300	-5500	76	-16	150	-2476	6800	15572	203	-9	-30	126	123	5
-9196	-3456	13532	169	-84	-135	-15176	980	-5812	27	0	31	-2472	-3328	16260	8	-91	110	-8268	4320	13032	-34	154	-218	-15560	2320	-5464	121	-35	132	-2556	6928	15632	163	17	-54	126	124	5
-9276	-3360	13540	116	-24	-130	-15076	1148	-5848	72	-27	-22	-2592	-3332	16244	-47	-40	143	-8208	4316	13164	-93	123	-229	-15648	2388	-5300	164	13	99	-2428	6812	15508	118	58	-17	126	124	5
-9180	-3324	13472	127	-45	-156	-15176	1088	-5732	-21	-41	-53	-2580	-3208	16172	-1	-71	172	-8184	4380	13100	-136	145	-234	-15672	2368	-5176	72	106	44	-2400	6776	15660	132	119	11	126	123	5
-9172	-3384	13476	134	-96	-156	-15252	1044	-5812	-63	15	-116	-2444	-3328	16228	-15	-46	241	-8168	4296	13108	-138	171	-259	-15620	2288	-5432	-17	101	31	-2476	6656	15660	189	159	87	126	123	5
-9168	-3452	13564	89	-54	-152	-15312	940	-5656	-42	46	-132	-2544	-3468	16252	11	4	269	-8104	4316	13008	-150	190	-231	-15684	2100	-5524	5	118	63	-2596	6460	15700	218	161	94	126	123	5
-9196	-3424	13452	100	-9	-175	-15252	784	-5660	-13	65	-87	-2484	-3628	16160	24	-64	246	-8112	4320	13024	-124	171	-238	-15672	2040	-5424	85	106	61	-2720	6472	15632	213	123	63	126	123	5
-9188	-3476	13348	79	16	-152	-15256	648	-5788	-29	69	-50	-2664	-3776	16092	50	-87	202	-8188	4308	13088	-104	216	-228	-15612	2048	-5532	78	104	138	-2772	6468	15548	205	20	9	126	124	5
-9216	-3476	13432	158	-6	-104	-15224	676	-5948	53	34	-2	-2672	-3760	16076	3	-96	151	-8308	4300	13048	-86	183	-206	-15520	2076	-5692	119	74	141	-2828	6572	15648	176	-22	-30	126	123	5
-9248	-3428	13448	168	-94	-123	-15132	888	-5984	-14	-31	46	-2704	-3604	16128	13	-123	98	-8212	4260	13020	-72	127	-245	-15588	2128	-5636	150	-9	139	-2652	6612	15696	132	-77	-96	126	123	5
-9208	-3436	13472	165	-97	-137	-15208	1032	-5772	-1	-80	49	-2712	-3368	16148	-14	-172	82	-8168	4264	13020	-55	143	-183	-15636	2244	-5496	160	-64	154	-2692	6588	15592	94	-80	-23	126	123	5
-9256	-3356	13452	109	-87	-151	-15132	1180	-5932	33	-86	-25	-2708	-3328	16168	52	-221	139	-8156	4296	12952	-69	184	-198	-15664	2220	-5492	110	-60	145	-2560	6740	15596	170	-69	25	126	124	5
-9264	-3480	13448	150	-102	-138	-15124	1220	-5848	11	-84	-117	-2736	-3212	16272	98	-234	238	-8164	4344	13000	-81	92	-212	-15640	2280	-5388	93	-88	105	-2564	6720	15524	191	-62	73	126	123	5
-9220	-3368	13556	72	-74	-212	-15164	1092	-5900	-87	-111	-171	-2632	-3320	16248	102	-240	250	-8148	4344	12980	-104	136	-203	-15616	2264	-5448	27	-77	83	-2532	6624	15604	214	-46	97	126	123	5
-9212	-3456	13416	61	-53	-185	-15184	916	-5808	-123	-81	-183	-2496	-3392	16328	116	-223	265	-8148	4308	13048	-111	112	-198	-15588	2208	-5420	52	-61	97	-2508	6660	15548	204	-55	95	126	123	5
-9184	-3500	13544	124	-151	-191	-15280	848	-5772	-30	-73	-153	-2420	-3608	16180	59	-187	234	-8144	4264	12984	-104	134	-226	-15560	2228	-5396	91	-68	113	-2460	6716	15592	179	-61	37	126	123	5
-9228	-3416	13588	89	-108	-177	-15336	808	-5792	-10	-69	-92	-2348	-3640	16124	27	-192	199	-8144	4228	13084	-102	128	-211	-15552	2128	-5448	107	-67	91	-2508	6656	15644	139	-41	10	126	123	5
-9168	-3456	13400	123	-74	-171	-15276	808	-5752	5	-47	-58	-2368	-3572	16332	22	-175	162	-8184	4368	12980	-62	137	-204	-15608	2236	-5404	80	-59	123	-2476	6616	15564	120	-70	11	126	123	5
-9220	-3440	13468	134	-36	-154	-15168	772	-5768	-8	-38	-66	-2428	-3632	16056	-1	-133	154	-8188	4284	13024	-113	154	-204	-15688	2132	-5320	51	-24	108	-2468	6600	15668	203	-17	57	126	124	5
-9144	-3436	13512	147	-79	-149	-15228	888	-5676	-4	-24	14	-2496	-3600	16136	17	-124	158	-8156	4304	13084	-88	176	-214	-15564	2148	-5452	4	1	116	-2560	6560	15684	235	-33	48	126	124	5
-9192	-3392	13472	154	-63	-146	-15180	836	-5872	-4	-60	19	-2504	-3624	16096	42	-117	122	-8196	4300	13052	-86	166	-184	-15644	2248	-5464	82	-53	105	-2564	6556	15596	223	-22	63	126	123	5
-9256	-3456	13472	177	-80	-138	-15188	964	-5876	-13	-74	68	-2556	-3468	16292	91	-146	185	-8184	4284	13052	-75	151	-225	-15696	2176	-5472	47	-46	148	-2584	6512	15660	215	10	28	126	124	5
-9192	-3416	13448	162	-73	-130	-15208	900	-5920	-5	-43	36	-2552	-3436	16292	116	-119	200	-8116	4296	12956	-84	148	-212	-15612	2160	-5420	83	-12	165	-2568	6608	15668	260	-3	6	126	123	5
-9188	-3432	13524	126	-89	-190	-15256	968	-5884	-16	-85	-9	-2504	-3420	16216	44	-131	193	-8180	4272	13032	-66	153	-212	-15596	2176	-5396	56	-13	195	-2460	6628	15752	231	-15	43	126	123	5
-9196	-3340	13468	147	-61	-118	-15280	996	-5680	-35	-81	0	-2536	-3380	16188	62	-95	196	-8164	4284	13080	-76	175	-200	-15584	2192	-5456	92	-70	208	-2528	6672	15648	240	-68	4	126	123	5
-9188	-3436	13488	110	-56	-138	-15152	952	-5660	-10	-35	8	-2500	-3392	15976	48	-154	171	-8136	4256	13064	-71	136	-188	-15612	2288	-5320	105	-19	186	-2488	6788	15588	229	-21	8	126	123	5
-9200	-3440	13460	127	-98	-166	-15224	984	-5692	-16	-8	-27	-2468	-3404	16180	31	-148	200	-8120	4300	13024	-82	189	-194	-15552	2328	-5344	82	-24	164	-2452	6848	15512	200	25	5	126	123	5
-9208	-3440	13480	145	-22	-161	-15284	968	-5684	-2	-22	-59	-2544	-3376	16320	39	-112	181	-8204	4364	13012	-106	157	-213	-15652	2340	-5400	36	-9	121	-2624	6904	15496	222	37	27	126	124	5
-9284	-3452	13372	124	-89	-122	-15220	976	-5884	-38	-82	-69	-2628	-3432	16152	14	-109	185	-8188	4364	13048	-116	173	-233	-15652	2260	-5484	105	6	53	-2600	6812	15608	197	40	55	126	124	5
-9236	-3468	13460	144	-80	-121	-15152	976	-5760	-67	-46	-36	-2508	-3520	16216	12	-159	183	-8128	4424	13028	-112	165	-214	-15620	2348	-5432	60	26	71	-2624	6740	15572	163	10	44	126	123	5
-9180	-3396	13440	121	-80	-122	-15228	928	-5816	44	-28	-26	-2576	-3440	16140	38	-203	163	-8180	4304	13104	-110	132	-221	-15584	2212	-5528	72	-10	51	-2568	6608	15620	140	-11	58	126	124	5
-9212	-3420	13416	135	-120	-173	-15224	1024	-5864	-15	-29	-72	-2592	-3448	16160	17	-131	174	-8228	4276	13016	-101	125	-228	-15568	2084	-5540	49	-31	91	-2552	6580	15592	131	-10	42	126	124	5
-9248	-3456	13432	128	-66	-153	-15260	908	-5768	-27	-25	-62	-2640	-3472	16204	26	-123	154	-8212	4304	13072	-85	128	-213	-15604	2100	-5444	92	2	55	-2668	6564	15572	153	-12	44	126	123	5
-9136	-3420	13388	95	-62	-163	-15180	852	-5888	-45	-15	-68	-2516	-3572	16148	-14	-155	168	-8184	4328	13080	-77	93	-246	-15612	2112	-5424	105	-36	145	-2636	6484	15756	180	1	23	126	123	5
-9296	-3452	13520	121	-70	-160	-15172	980	-5792	-7	-39	-92	-2524	-3480	16068	9	-149	192	-8128	4284	13076	-48	187	-213	-15592	2180	-5436	102	-5	123	-2580	6500	15724	213	-70	25	126	123	5
-9204	-3468	13348	139	-101	-185	-15212	908	-5824	4	-56	-68	-2468	-3596	16120	54	-151	182	-8224	4296	13088	-66	169	-225	-15596	2096	-5472	109	-38	126	-2492	6572	15508	204	-37	42	126	123	5
-9196	-3436	13584	150	-54	-165	-15196	868	-5900	-23	-57	-51	-2524	-3576	16268	63	-165	160	-8188	4268	13092	-76	128	-163	-15636	2132	-5392	84	-26	179	-2504	6640	15628	214	-3	31	126	124	5
-9232	-3464	13440	146	-55	-162	-15268	860	-5764	-14	-55	-40	-2500	-3576	16188	103	-117	208	-8144	4292	13036	-67	173	-207	-15644	2084	-5496	41	-13	154	-2620	6624	15664	251	-4	24	126	123	5
-9116	-3448	13476	151	-97	-147	-15224	800	-5832	-22	-52	0	-2552	-3532	16060	88	-111	171	-8132	4340	12976	-75	168	-188	-15644	2184	-5492	85	-10	144	-2600	6604	15548	228	-26	49	126	123	5
-9252	-3516	13520	140	-63	-110	-15212	876	-5712	14	-100	32	-2596	-3512	16156	24	-146	172	-8164	4304	13064	-78	137	-195	-15600	2216	-5476	114	-40	151	-2536	6688	15540	188	-39	28	126	124	5
-9140	-3496	13492	179	-75	-147	-15240	920	-5832	1	-72	-11	-2548	-3328	16284	61	-134	161	-8176	4308	13108	-65	156	-201	-15580	2220	-5504	97	-41	175	-2556	6696	15676	206	-16	43	126	123	5
-9236	-3444	13444	157	-78	-100	-15224	1036	-5796	26	-65	-5	-2600	-3376	16188	60	-143	160	-8164	4336	12992	-97	155	-229	-15588	2208	-5496	91	-14	134	-2556	6688	15628	203	-23	26	126	123	5
-9200	-3436	13428	174	-73	-150	-15232	1108	-5832	6	-48	-6	-2580	-3340	16184	51	-147	204	-8160	4316	12984	-47	159	-190	-15584	2280	-5468	57	-32	88	-2584	6720	15552	193	-13	14	126	123	5
-9180	-3400	13576	137	-52	-108	-15136	1068	-5728	-36	-38	-78	-2608	-3344	16196	55	-132	182	-8208	4312	13096	-90	162	-217	-15568	2264	-5488	77	-51	89	-2592	6708	15572	148	-20	9	126	123	5
-9268	-3364	13484	128	-30	-159	-15192	988	-5792	-8	-44	-36	-2576	-3368	16144	27	-154	165	-8228	4336	13000	-99	157	-203	-15620	2224	-5452	65	-11	103	-2496	6716	15644	132	-47	20	126	124	5
-9172	-3432	13464	113	-80	-151	-15132	916	-5900	-28	-103	-104	-2504	-3412	16176	4	-158	171	-8112	4304	13048	-75	169	-220	-15676	2196	-5424	81	-43	101	-2524	6724	15648	146	3	5	126	124	5
-9232	-3360	13488	142	-82	-146	-15236	928	-5788	-6	-21	-50	-2528	-3444	16196	-19	-89	183	-8136	4316	13040	-58	117	-227	-15688	2100	-5436	60	9	91	-2484	6624	15696	173	-1	30	126	123	5
-9232	-3464	13448	102	-40	-183	-15208	896	-5692	-59	-64	-77	-2552	-3568	16152	17	-126	191	-8152	4336	13012	-111	143	-245	-15612	2180	-5348	95	-33	108	-2520	6632	15572	166	18	12	126	124	5
-9208	-3428	13564	131	-69	-148	-15216	852	-5812	-34	-22	-40	-2524	-3560	16128	27	-106	171	-8200	4312	13056	-95	138	-264	-15608	2184	-5544	61	-41	94	-2512	6540	15704	176	-12	1	126	123	5
-9276	-3472	13508	131	-24	-143	-15124	908	-5772	-6	-33	-94	-2568	-3556	16160	51	-141	200	-8176	4356	13012	-74	144	-204	-15616	2204	-5460	79	22	88	-2556	6620	15496	213	21	39	126	123	5
-9220	-3412	13476	122	-22	-158	-15256	928	-5748	-37	-58	-56	-2504	-3544	16076	79	-101	186	-8164	4280	13068	-83	166	-219	-15536	2200	-5372	30	-4	151	-2592	6632	15624	188	42	7	126	123	5
-9196	-3392	13532	168	-37	-111	-15252	896	-5796	-125	-39	8	-2452	-3552	16172	76	-103	174	-8188	4248	13068	-76	182	-205	-15640	2136	-5400	53	-22	140	-2548	6636	15560	201	7	24	126	124	5
-9224	-3396	13516	261	-15	-161	-15236	896	-5768	-103	15	-33	-2564	-3428	16176	43	-120	189	-8168	4264	12952	-89	150	-187	-15636	2208	-5416	103	-4	133	-2568	6612	15640	207	41	12	126	124	5
-9184	-3380	13520	243	-15	-164	-15196	896	-5804	-37	-81	3	-2556	-3408	16236	22	-118	195	-8168	4340	13020	-76	168	-216	-15632	2228	-5408	25	6	124	-2572	6644	15700	233	-8	46	126	123	5
-9220	-3432	13404	178	-72	-153	-15200	1008	-5800	-68	-51	-23	-2668	-3404	16308	29	-102	167	-8192	4308	13108	-90	142	-209	-15632	2204	-5464	20	24	121	-2592	6648	15556	191	32	36	126	124	5
-9224	-3460	13428	149	-50	-140	-15196	984	-5768	-29	-53	-61	-2608	-3440	16204	36	-140	202	-8172	4304	13156	-87	145	-233	-15652	2192	-5448	57	-21	150	-2572	6612	15592	227	1	78	126	123	5
-9304	-3424	13416	124	-112	-154	-15164	1084	-5960	-26	-72	-33	-2612	-3476	16140	52	-158	171	-8168	4324	13120	-70	159	-187	-15584	2260	-5432	50	-23	128	-2572	6632	15544	226	-13	66	126	123	5
-9168	-3448	13388	124	-80	-173	-15196	908	-5796	-18	-64	-31	-2576	-3460	16160	72	-168	200	-8172	4312	13048	-73	130	-177	-15608	2148	-5460	96	-32	143	-2580	6708	15676	219	-1	60	126	123	5
-9212	-3460	13388	101	-98	-142	-15280	948	-5676	55	-112	-77	-2596	-3420	16216	98	-165	177	-8176	4272	13084	-116	126	-199	-15556	2244	-5528	40	20	117	-2648	6612	15544	178	-33	56	126	124	5
-9264	-3408	13472	69	-140	-141	-15200	964	-5728	80	-112	-62	-2632	-3412	16208	34	-189	226	-8144	4388	13052	-101	166	-202	-15616	2184	-5460	54	25	109	-2576	6656	15568	192	1	62	126	124	5
-9164	-3412	13376	104	-77	-136	-15164	1000	-5680	7	-101	-72	-2560	-3440	16136	61	-176	188	-8144	4276	13028	-160	232	-202	-15628	2200	-5412	61	-27	78	-2712	6656	15628	180	-2	51	126	124	5
-9188	-3436	13484	106	-41	-148	-15156	896	-5720	51	-79	-38	-2584	-3448	16228	18	-175	213	-8172	4256	12960	-142	186	-222	-15568	2164	-5400	48	-33	125	-2640	6672	15648	198	-36	72	126	123	5
-9244	-3420	13404	88	3	-133	-15220	900	-5748	30	-82	-22	-2520	-3504	16144	74	-170	176	-8180	4296	13032	-90	171	-208	-15636	2168	-5488	67	-65	113	-2560	6668	15612	193	-5	44	126	124	5
-9180	-3444	13328	141	-94	-117	-15216	992	-5784	-20	-65	-45	-2492	-3464	16144	80	-189	185	-8140	4256	13012	-118	141	-198	-15672	2196	-5456	90	-23	103	-2512	6632	15552	134	-49	42	126	123	5
-9180	-3428	13424	111	-104	-154	-15164	908	-5696	-13	-51	-62	-2392	-3416	16160	41	-168	180	-8200	4300	13108	-113	151	-228	-15664	2148	-5296	64	-52	133	-2416	6608	15756	159	-50	43	126	123	5
-9220	-3432	13532	138	-58	-144	-15304	900	-5688	-39	-46	-18	-2432	-3424	16232	14	-146	166	-8224	4336	13044	-94	133	-242	-15592	2168	-5420	75	-66	115	-2416	6568	15592	172	-55	9	126	124	5
-9176	-3452	13464	139	-71	-131	-15224	844	-5708	17	-16	-73	-2400	-3500	16236	17	-127	175	-8208	4284	13028	-92	151	-200	-15596	2260	-5376	108	-3	115	-2452	6648	15508	198	15	9	126	124	5
-9232	-3436	13476	169	-64	-155	-15184	848	-5768	-7	-1	-32	-2448	-3484	16048	-19	-125	195	-8236	4276	13092	-40	173	-169	-15616	2188	-5464	117	-19	133	-2496	6648	15676	226	12	34	126	123	5
-9200	-3400	13392	166	-86	-167	-15120	884	-5736	-4	2	13	-2568	-3524	16284	23	-114	180	-8148	4324	13120	-74	144	-220	-15652	2228	-5380	91	0	123	-2608	6640	15580	188	11	41	126	124	5
-9240	-3440	13412	144	-65	-154	-15204	956	-5924	-26	-19	-4	-2556	-3492	16284	65	-103	192	-8124	4344	12996	-37	156	-214	-15572	2188	-5488	40	-14	114	-2588	6620	15660	218	26	41	126	124	5
-9176	-3428	13492	117	-65	-141	-15208	968	-5772	-13	-40	-23	-2568	-3452	16264	88	-123	167	-8188	4324	13020	-73	140	-189	-15644	2196	-5424	85	-5	132	-2596	6704	15620	198	19	28	126	123	5
-9164	-3468	13572	122	-74	-140	-15272	972	-5716	-12	-46	-41	-2536	-3404	16260	33	-100	161	-8192	4268	13068	-89	152	-224	-15564	2232	-5500	36	5	89	-2568	6660	15620	214	4	42	126	123	5
-9228	-3508	13492	118	-60	-133	-15196	1016	-5724	42	-49	-5	-2524	-3372	16252	42	-125	176	-8208	4240	13052	-104	156	-191	-15632	2180	-5528	54	-36	116	-2604	6656	15660	186	3	-11	126	123	5
-9208	-3424	13532	140	-77	-164	-15252	972	-5808	37	-12	-42	-2568	-3500	16144	-34	-118	150	-8160	4340	13064	-101	174	-212	-15656	2208	-5344	95	-14	141	-2592	6716	15548	138	-15	45	126	123	5
-9204	-3416	13480	100	-22	-172	-15260	992	-5748	19	-34	7	-2568	-3472	16108	-19	-115	173	-8196	4340	13104	-113	156	-194	-15652	2216	-5468	94	-7	119	-2548	6604	15604	174	-1	29	126	123	5
-9200	-3432	13480	122	-40	-159	-15172	888	-5852	46	-44	-40	-2516	-3508	16188	38	-134	158	-8168	4320	13000	-93	163	-211	-15668	2172	-5396	87	32	80	-2616	6632	15676	181	-9	19	126	123	5
-9212	-3452	13436	109	-65	-105	-15144	968	-5888	6	-36	-41	-2580	-3480	16104	80	-138	173	-8152	4328	13024	-115	168	-181	-15584	2228	-5456	75	-18	113	-2556	6660	15656	189	12	-3	126	123	5
-9228	-3408	13412	135	-63	-184	-15224	884	-5860	-2	-34	-40	-2612	-3608	16108	82	-135	182	-8144	4356	13028	-67	152	-214	-15664	2200	-5572	35	16	118	-2640	6636	15600	216	-26	1	126	123	5
-9236	-3456	13372	123	-137	-130	-15216	824	-5836	18	-35	-45	-2548	-3488	16232	74	-175	187	-8136	4280	13000	-67	147	-197	-15636	2128	-5532	79	-19	99	-2552	6564	15632	206	-2	5	126	124	5
-9196	-3412	13504	127	-48	-172	-15188	900	-5700	-5	-38	-21	-2476	-3476	16228	12	-160	200	-8120	4268	13036	-90	115	-222	-15592	2200	-5400	108	-40	151	-2552	6600	15540	190	11	30	126	123	5
-9272	-3416	13472	123	-92	-168	-15184	940	-5728	-8	-76	-57	-2532	-3464	16144	48	-127	164	-8144	4256	13044	-62	155	-206	-15656	2248	-5396	88	-20	153	-2600	6624	15584	188	-33	58	126	124	5
-9148	-3424	13412	120	-52	-142	-15332	952	-5692	25	-24	-12	-2564	-3472	16192	45	-128	154	-8172	4292	13048	-99	147	-179	-15648	2196	-5580	71	-28	127	-2596	6608	15584	217	-34	53	126	123	5
-9220	-3420	13444	121	-75	-139	-15136	956	-5820	-18	-67	-42	-2532	-3476	16176	34	-168	195	-8168	4324	13000	-59	161	-180	-15688	2200	-5412	88	-43	148	-2560	6704	15740	240	-57	18	126	124	5
-9200	-3432	13508	147	-88	-110	-15140	876	-5804	-30	-55	-25	-2592	-3476	16092	107	-133	164	-8180	4248	13040	-81	153	-158	-15600	2268	-5412	69	-50	158	-2584	6652	15480	190	-70	48	126	124	5
-9212	-3408	13444	124	-87	-146	-15232	916	-5780	-9	-52	-56	-2596	-3460	16244	55	-167	136	-8144	4284	13064	-100	146	-199	-15632	2184	-5424	107	-50	160	-2532	6672	15620	165	-70	33	126	124	5
-9192	-3464	13384	162	-95	-131	-15272	976	-5896	-12	-83	-10	-2440	-3432	16192	44	-128	122	-8184	4296	13164	-68	121	-226	-15628	2220	-5360	67	-42	130	-2488	6628	15632	155	-95	26	126	124	5
-9264	-3436	13480	118	-30	-179	-15152	980	-5724	-54	-83	-40	-2432	-3412	16240	16	-177	142	-8192	4276	13052	-68	150	-178	-15640	2196	-5392	161	-49	143	-2376	6708	15556	130	-46	17	126	123	5
-9248	-3448	13448	123	-37	-172	-15236	996	-5652	0	-22	-73	-2428	-3380	16304	37	-159	175	-8232	4344	13040	-102	165	-201	-15656	2304	-5260	103	12	111	-2484	6724	15568	142	0	19	126	124	5
-9200	-3360	13460	112	-93	-128	-15208	1012	-5732	-12	-25	-51	-2408	-3384	16236	36	-132	215	-8120	4340	13064	-80	136	-235	-15612	2312	-5436	1	22	80	-2336	6744	15416	208	96	67	126	124	5
-9228	-3340	13480	111	-33	-140	-15156	1016	-5768	-46	-23	-75	-2396	-3472	16192	24	-114	223	-8136	4256	12960	-96	128	-212	-15584	2232	-5324	18	73	68	-2440	6680	15608	230	82	36	126	124	5
-9160	-3464	13488	111	-72	-187	-15208	912	-5768	-40	-11	-101	-2448	-3524	16276	57	-80	224	-8176	4372	13016	-155	186	-269	-15648	2248	-5392	10	73	71	-2492	6696	15648	254	120	61	126	124	5
-9208	-3456	13396	113	-57	-182	-15196	860	-5780	-28	23	-76	-2384	-3576	16148	28	-89	252	-8168	4212	12928	-91	182	-230	-15596	2156	-5496	44	97	86	-2592	6648	15708	256	120	47	126	123	5
-9216	-3468	13432	107	-28	-143	-15256	780	-5744	-20	20	-42	-2516	-3628	16176	14	-38	192	-8128	4268	12956	-78	163	-246	-15608	2020	-5524	31	78	62	-2636	6628	15780	191	101	22	126	124	5
-9148	-3428	13500	150	-73	-160	-15256	812	-5800	46	29	-31	-2564	-3612	16124	14	-55	162	-8180	4352	13156	-124	191	-219	-15584	2192	-5524	78	82	94	-2612	6556	15564	184	56	18	126	123	5
-9152	-3448	13380	124	-7	-106	-15156	884	-5820	-11	-14	48	-2612	-3540	16100	2	-62	143	-8248	4260	13060	-78	191	-221	-15620	2092	-5492	55	48	129	-2732	6548	15600	192	59	-8	126	123	5
-9180	-3440	13388	176	-33	-157	-15128	960	-5804	19	9	40	-2672	-3524	16104	22	-87	176	-8152	4308	13028	-73	197	-234	-15584	2088	-5528	50	73	102	-2664	6596	15700	215	58	12	126	124	5
-9188	-3416	13556	158	-69	-147	-15128	964	-5876	-2	-34	-9	-2740	-3460	16172	27	-130	142	-8212	4296	13120	-75	176	-206	-15640	2164	-5468	96	-2	165	-2732	6552	15712	212	-24	25	126	123	5
-9272	-3420	13492	162	-81	-113	-15172	1040	-5944	-11	-96	-52	-2652	-3368	16120	73	-130	176	-8196	4368	13116	-62	167	-198	-15520	2180	-5548	91	-24	143	-2668	6580	15596	210	-35	34	126	123	5
-9180	-3400	13540	143	-58	-169	-15152	984	-5780	-37	-76	-57	-2660	-3396	16164	76	-195	163	-8144	4376	12980	-49	156	-188	-15584	2188	-5468	110	-74	135	-2640	6624	15636	182	-73	38	126	123	5
-9172	-3420	13528	114	-64	-142	-15252	960	-5720	-12	-82	-19	-2644	-3452	16156	72	-152	197	-8172	4348	13068	-60	135	-208	-15640	2228	-5392	70	-55	112	-2648	6732	15668	211	-88	25	126	123	5
-9184	-3428	13488	100	-115	-128	-15224	884	-5652	0	-69	-36	-2580	-3468	16172	37	-199	181	-8176	4304	13092	-79	159	-189	-15584	2280	-5472	77	-87	148	-2692	6700	15532	186	-55	19	126	124	5
-9232	-3380	13504	155	-81	-177	-15264	896	-5812	-23	-83	-79	-2560	-3456	16204	11	-180	173	-8208	4256	13012	-92	116	-208	-15568	2268	-5408	139	-94	155	-2580	6696	15544	171	-95	12	126	123	5
-9252	-3504	13512	126	-62	-139	-15236	944	-5828	-2	-66	-50	-2588	-3508	16224	4	-177	159	-8176	4364	12972	-54	140	-206	-15640	2196	-5456	86	-97	133	-2556	6744	15640	142	-103	11	126	124	5
-9244	-3412	13412	140	-101	-157	-15148	920	-5732	-23	-41	-23	-2552	-3432	16080	18	-194	158	-8156	4332	13052	-102	95	-221	-15664	2236	-5416	106	-64	106	-2524	6696	15536	97	-90	3	126	124	5
-9212	-3432	13388	141	-134	-134	-15164	1020	-5716	9	-61	-83	-2540	-3380	16128	-19	-228	131	-8100	4304	12996	-76	126	-183	-15632	2176	-5368	151	-91	135	-2592	6700	15664	109	-60	44	126	124	5
-9228	-3444	13412	122	-45	-149	-15268	968	-5704	1	-50	-90	-2520	-3420	16268	-9	-171	155	-8188	4360	13012	-88	138	-238	-15640	2188	-5372	97	-47	124	-2504	6620	15656	147	-41	20	126	124	5
-9212	-3448	13500	124	-80	-144	-15160	964	-5772	-20	-60	-94	-2548	-3456	16160	-10	-173	208	-8168	4380	13012	-92	132	-207	-15612	2144	-5472	125	-27	111	-2532	6604	15624	179	-20	58	127	123	5
-9208	-3460	13500	123	-59	-158	-15160	892	-5696	-21	-52	-32	-2504	-3588	16164	-1	-169	166	-8184	4332	13120	-113	122	-223	-15588	2228	-5456	84	-9	122	-2652	6684	15624	198	-50	48	126	124	5
-9180	-3468	13504	113	-84	-196	-15168	848	-5896	-11	-44	-61	-2468	-3672	16168	49	-120	214	-8084	4304	13104	-88	144	-218	-15640	2080	-5512	56	-43	92	-2504	6552	15664	230	-39	45	126	123	5
-9236	-3460	13300	140	-89	-144	-15180	824	-5832	-4	-64	-68	-2504	-3644	16216	54	-146	192	-8168	4320	13100	-106	153	-235	-15568	2124	-5436	83	-49	146	-2564	6564	15636	202	-18	61	126	124	5
-9208	-3496	13464	140	-56	-158	-15196	920	-5816	-12	-67	-6	-2440	-3588	16204	99	-133	194	-8136	4272	13068	-73	120	-222	-15560	2108	-5468	136	-28	172	-2548	6532	15624	191	-44	23	126	123	5
-9204	-3404	13456	146	-70	-137	-15288	860	-5772	-25	-58	4	-2428	-3484	16288	124	-152	180	-8144	4304	13028	-48	173	-216	-15668	2112	-5304	120	-63	157	-2512	6556	15664	177	-25	14	126	123	5
-9236	-3500	13348	141	-114	-129	-15228	912	-5848	-46	-72	9	-2368	-3484	16224	73	-110	178	-8148	4308	13040	-77	148	-221	-15628	2224	-5320	82	-33	153	-2484	6672	15564	269	-9	2	126	123	5
-9180	-3452	13460	144	-85	-145	-15220	876	-5700	14	-69	-13	-2436	-3444	16172	44	-112	198	-8172	4368	12980	-71	194	-209	-15640	2184	-5484	39	-7	200	-2428	6644	15660	264	7	28	126	123	5
-9204	-3432	13432	126	-24	-149	-15192	928	-5780	34	-28	3	-2520	-3476	16140	42	-106	182	-8264	4240	13008	-71	159	-191	-15564	2196	-5448	59	-23	182	-2520	6752	15564	249	12	5	126	124	5
-9204	-3432	13488	163	-52	-163	-15240	972	-5800	-12	-29	10	-2528	-3428	16272	70	-135	190	-8176	4292	13064	-83	124	-216	-15600	2296	-5456	94	11	153	-2536	6828	15524	246	41	45	126	123	5
-9208	-3484	13592	128	-79	-137	-15188	980	-5740	-49	-12	-20	-2540	-3384	16228	61	-109	156	-8124	4304	13008	-116	126	-221	-15612	2304	-5380	117	9	142	-2548	6812	15496	174	19	22	126	123	5
-9196	-3436	13440	129	-36	-116	-15248	1020	-5696	-10	-63	-37	-2584	-3440	16104	63	-119	138	-8140	4292	12976	-100	131	-254	-15656	2264	-5380	30	19	91	-2572	6720	15552	232	17	24	126	124	5
-9208	-3452	13444	126	-33	-144	-15204	984	-5784	20	-38	-38	-2616	-3328	16140	25	-102	192	-8164	4344	13132	-100	155	-197	-15628	2288	-5472	5	12	91	-2584	6688	15656	200	60	33	126	123	5
-9172	-3416	13428	107	-64	-169	-15204	996	-5744	-1	2	-32	-2560	-3432	16172	6	-109	194	-8156	4368	13128	-129	134	-225	-15624	2272	-5472	47	24	117	-2612	6568	15680	161	52	60	126	124	5
-9240	-3392	13476	143	-12	-182	-15188	952	-5764	-17	-40	-45	-2556	-3448	16120	-26	-145	174	-8152	4308	13072	-90	113	-200	-15552	2160	-5428	64	5	67	-2660	6604	15596	164	31	48	126	123	5
-9172	-3472	13516	112	-82	-152	-15196	936	-5804	-22	-34	-67	-2664	-3432	16176	12	-142	194	-8172	4372	13080	-74	129	-228	-15616	2092	-5460	108	34	69	-2644	6560	15548	170	-25	38	126	123	5
-9152	-3476	13408	102	-49	-145	-15224	908	-5848	-53	-57	-70	-2564	-3532	16156	44	-144	159	-8116	4360	13056	-69	138	-191	-15536	2104	-5540	42	-40	109	-2624	6600	15592	165	-20	36	126	124	5
-9184	-3436	13428	95	-68	-146	-15244	896	-5740	-57	-53	-48	-2536	-3504	16252	62	-161	177	-8164	4308	12928	-97	146	-226	-15592	2112	-5452	79	-27	132	-2644	6592	15660	159	-25	21	126	124	5
-9248	-3428	13456	101	-44	-166	-15212	852	-5732	10	-44	-33	-2560	-3568	16120	7	-150	164	-8132	4316	12968	-83	149	-204	-15568	2152	-5488	106	-54	141	-2652	6592	15600	169	-50	16	126	123	5
-9220	-3400	13464	148	-98	-131	-15176	976	-5888	51	-66	-17	-2520	-3552	16184	-28	-175	165	-8152	4324	13216	-101	136	-182	-15660	2112	-5420	145	-58	200	-2552	6612	15592	166	-87	-15	126	124	5
-9200	-3408	13460	142	-87	-159	-15184	964	-5844	-11	-67	-41	-2524	-3472	16216	58	-144	150	-8128	4328	13100	-61	133	-219	-15632	2236	-5380	95	-53	188	-2576	6720	15596	177	-27	-15	126	123	5
-9236	-3480	13444	154	-77	-128	-15172	972	-5888	-11	-79	4	-2500	-3488	16144	57	-110	163	-8180	4336	12988	-58	168	-200	-15632	2232	-5372	67	-4	144	-2476	6744	15704	242	-16	39	126	124	5
-9228	-3316	13480	129	-48	-151	-15192	980	-5640	-46	-51	-41	-2532	-3444	16052	73	-155	213	-8164	4340	13060	-102	169	-200	-15596	2288	-5444	55	-27	136	-2568	6648	15472	212	-1	56	126	123	5
-9240	-3456	13488	106	-43	-155	-15196	968	-5732	-37	-53	-77	-2552	-3432	16160	109	-157	206	-8180	4352	12932	-124	174	-225	-15648	2252	-5480	52	-26	107	-2620	6732	15652	226	-13	60	126	124	5
-9260	-3456	13448	95	-58	-143	-15172	900	-5832	23	-58	-18	-2532	-3508	16184	34	-132	220	-8148	4332	13180	-120	161	-189	-15576	2304	-5440	52	-33	127	-2584	6744	15496	195	-55	36	126	124	5
-9232	-3448	13548	116	-79	-184	-15232	872	-5808	-17	-34	-62	-2484	-3492	16256	25	-155	170	-8164	4328	13064	-59	149	-223	-15508	2144	-5340	74	-58	101	-2588	6748	15576	140	-41	17	126	123	5
-9188	-3436	13584	112	-63	-172	-15152	872	-5812	14	-78	-35	-2548	-3448	16180	-1	-154	134	-8156	4340	13028	-76	134	-228	-15588	2220	-5484	98	-86	111	-2524	6652	15720	115	-39	27	126	123	5
-9168	-3428	13552	155	-78	-138	-15188	960	-5752	2	-89	-42	-2448	-3488	16244	-5	-161	150	-8148	4260	12988	-76	117	-243	-15620	2172	-5408	107	-48	139	-2476	6640	15576	124	-46	17	126	124	5
-9268	-3428	13472	145	-113	-137	-15244	912	-5748	28	-45	-40	-2460	-3524	16164	19	-132	183	-8160	4252	13028	-105	114	-223	-15664	2276	-5492	121	21	112	-2448	6576	15616	181	-39	-2	126	123	5
-9224	-3428	13412	130	-29	-146	-15232	948	-5712	6	-19	-26	-2520	-3488	16120	26	-121	221	-8156	4288	13156	-30	143	-201	-15708	2208	-5424	120	9	114	-2472	6608	15672	192	-19	24	126	123	5
-9180	-3448	13556	121	-59	-150	-15196	948	-5780	14	-9	-57	-2520	-3480	16176	37	-107	216	-8188	4396	12936	-89	145	-207	-15680	2192	-5344	52	-6	117	-2492	6584	15652	249	40	56	126	124	5
-9204	-3452	13428	144	-49	-166	-15180	964	-5776	-29	-11	-45	-2528	-3556	16152	44	-115	190	-8180	4336	13092	-53	148	-227	-15552	2180	-5428	77	31	83	-2624	6620	15592	218	12	35	126	124	5
-9224	-3416	13484	105	-98	-130	-15204	872	-5808	5	-47	-30	-2560	-3560	16148	49	-117	184	-8140	4276	13060	-48	143	-205	-15624	2200	-5432	66	-12	143	-2616	6608	15756	217	28	49	126	123	5
-9200	-3420	13448	123	-52	-149	-15196	872	-5864	-52	-66	3	-2556	-3532	16060	44	-158	199	-8156	4316	13100	-67	114	-221	-15588	2172	-5384	105	-17	147	-2620	6612	15568	237	-8	60	126	123	5
-9244	-3396	13452	166	-105	-150	-15176	924	-5832	-10	-68	-34	-2560	-3544	16100	38	-140	183	-8184	4340	13040	-66	148	-221	-15624	2188	-5428	51	-34	131	-2604	6612	15524	184	-14	35	126	124	5
-9240	-3448	13456	127	-66	-142	-15184	940	-5788	2	-53	-48	-2612	-3468	16224	64	-155	202	-8220	4272	12968	-62	135	-223	-15608	2156	-5488	45	1	156	-2616	6676	15476	215	-25	48	126	123	5
-9140	-3432	13464	127	-64	-157	-15160	988	-5864	-8	-93	-36	-2568	-3400	16240	93	-178	195	-8132	4312	13080	-93	124	-186	-15612	2196	-5436	64	-20	131	-2640	6648	15632	223	-6	52	126	124	5
-9216	-3432	13388	149	-78	-163	-15224	948	-5796	-43	-75	-6	-2560	-3408	16212	99	-149	198	-8200	4368	12972	-93	150	-181	-15616	2168	-5360	56	-13	156	-2576	6660	15608	202	-21	20	126	124	5
-9264	-3448	13488	134	-105	-149	-15184	944	-5820	-28	-44	-20	-2500	-3388	16208	113	-140	169	-8144	4308	13016	-85	159	-217	-15568	2212	-5392	84	-35	152	-2608	6604	15676	172	-37	1	126	123	5
-9180	-3392	13460	145	-68	-155	-15180	952	-5756	7	-75	-57	-2592	-3400	16252	55	-138	194	-8228	4244	13012	-84	152	-221	-15600	2176	-5580	99	-58	151	-2572	6688	15588	176	-63	10	126	123	5
-9200	-3472	13420	128	-45	-150	-15160	964	-5756	-17	-62	-51	-2512	-3408	16252	-17	-166	155	-8168	4340	12964	-77	142	-200	-15548	2184	-5428	122	-55	176	-2584	6696	15648	155	-50	-18	126	124	5
-9144	-3492	13488	139	-101	-164	-15272	912	-5720	-1	-27	-56	-2524	-3428	16188	32	-149	160	-8188	4296	13016	-57	127	-192	-15620	2248	-5372	87	-29	158	-2476	6712	15556	185	-35	-11	126	123	5
-9204	-3432	13388	147	-96	-175	-15256	892	-5760	-5	-28	-55	-2488	-3472	16140	-11	-159	191	-8188	4308	13000	-92	119	-210	-15644	2308	-5292	107	-15	116	-2576	6780	15692	147	-28	-4	126	124	5
-9260	-3452	13440	126	-75	-174	-15224	984	-5768	-20	-44	-81	-2452	-3536	16156	-18	-161	217	-8200	4260	13152	-94	134	-241	-15568	2320	-5400	105	-11	81	-2536	6696	15704	165	-15	-6	126	124	5
-9228	-3460	13372	114	-28	-169	-15144	960	-5788	-42	-1	-38	-2500	-3484	16080	-4	-163	208	-8204	4324	12984	-128	122	-233	-15604	2228	-5432	90	-42	106	-2548	6644	15624	114	9	34	126	123	5
-9184	-3440	13364	150	-73	-140	-15228	912	-5824	21	-22	-52	-2544	-3540	16224	-4	-155	191	-8160	4364	13008	-101	152	-232	-15588	2220	-5368	76	38	85	-2636	6636	15616	152	11	40	126	124	5
-9212	-3424	13460	137	-8	-149	-15168	952	-5864	9	-35	-44	-2612	-3560	16056	41	-147	161	-8172	4268	12968	-124	120	-225	-15524	2136	-5536	81	-12	116	-2568	6556	15604	152	-10	37	126	124	5
-9220	-3372	13456	158	-69	-158	-15176	928	-5724	-2	-21	-66	-2552	-3484	16212	33	-128	179	-8136	4332	13056	-84	140	-209	-15572	2032	-5360	88	-8	85	-2632	6576	15764	176	-32	29	126	123	5
-9280	-3428	13552	143	-110	-171	-15216	860	-5876	-70	-67	-79	-2476	-3536	16088	53	-138	170	-8188	4320	13088	-96	103	-238	-15584	2096	-5460	124	-53	126	-2576	6520	15668	187	-37	18	126	124	5
-9252	-3456	13532	150	-95	-144	-15176	1024	-5836	-20	-40	-55	-2532	-3432	16224	15	-139	187	-8164	4268	12980	-97	73	-200	-15652	2136	-5368	93	-29	139	-2528	6504	15744	189	-23	30	126	124	5
-9228	-3436	13516	98	-91	-154	-15224	964	-5784	0	-52	-81	-2480	-3552	16148	28	-146	190	-8156	4320	13060	-58	134	-222	-15612	2196	-5456	85	-46	181	-2568	6620	15720	221	-4	33	126	123	5
-9252	-3420	13536	129	-93	-156	-15240	924	-5752	-25	-67	-20	-2492	-3580	16180	60	-143	188	-8172	4304	13028	-51	137	-222	-15600	2164	-5316	130	-40	157	-2584	6636	15600	232	-33	28	126	124	5
-9208	-3408	13360	164	-91	-157	-15108	896	-5828	-36	-65	-49	-2536	-3560	16100	56	-134	210	-8112	4296	13008	-58	172	-212	-15648	2208	-5468	108	-31	146	-2540	6680	15652	192	-58	36	126	124	5
-9224	-3412	13516	151	-88	-160	-15152	816	-5756	-12	-37	18	-2504	-3568	16100	77	-130	190	-8192	4276	13092	-82	153	-208	-15584	2204	-5416	60	-41	135	-2528	6600	15668	225	-10	6	126	123	5
-9204	-3448	13492	162	-140	-123	-15244	980	-5784	14	-42	9	-2500	-3564	16240	69	-126	175	-8152	4264	13100	-77	126	-215	-15588	2180	-5440	113	-75	195	-2652	6592	15636	219	-62	31	126	124	5
-9208	-3476	13544	157	-43	-147	-15196	888	-5704	-11	-89	27	-2480	-3476	16224	44	-118	192	-8140	4264	13076	-81	143	-226	-15596	2128	-5484	110	-59	196	-2556	6564	15580	155	-45	0	126	124	5
-9148	-3436	13544	132	-92	-110	-15232	872	-5712	-17	-63	-12	-2492	-3432	16140	31	-124	196	-8160	4332	13132	-61	134	-195	-15676	2076	-5372	133	-54	217	-2512	6520	15608	165	-82	-32	126	123	5
-9184	-3408	13364	145	-75	-127	-15208	904	-5792	9	-22	41	-2484	-3428	16212	23	-106	143	-8148	4244	13100	-66	130	-212	-15564	2080	-5372	156	-58	229	-2544	6544	15552	249	-71	-58	126	123	5
-9188	-3396	13592	139	-72	-160	-15256	964	-5748	10	-12	16	-2548	-3412	16284	-5	-103	171	-8160	4336	13056	-77	168	-142	-15672	2252	-5372	115	-15	236	-2528	6636	15680	265	-57	-27	126	124	5
-9240	-3412	13540	118	-68	-148	-15172	916	-5780	20	31	44	-2588	-3488	16152	31	-99	208	-8172	4284	13164	-75	184	-204	-15636	2328	-5412	64	-18	241	-2508	6828	15608	310	-19	-6	126	123	5
-9192	-3404	13480	126	-85	-138	-15148	1000	-5896	-22	-24	28	-2584	-3548	16060	61	-119	196	-8136	4316	13164	-108	179	-173	-15656	2384	-5428	46	-3	187	-2532	6848	15600	326	-24	19	126	123	5
-9208	-3436	13468	147	-43	-185	-15116	964	-5800	-3	-63	8	-2692	-3456	16104	89	-132	175	-8136	4324	13024	-115	172	-214	-15648	2348	-5352	103	-21	156	-2588	6864	15584	343	-6	76	126	123	5
-9224	-3404	13444	151	-99	-121	-15224	996	-5780	-45	-57	6	-2612	-3384	16176	140	-201	196	-8240	4344	13020	-107	174	-220	-15564	2344	-5432	96	-1	116	-2632	6940	15516	238	-3	34	126	123	5
-9248	-3400	13416	155	-90	-167	-15280	1024	-5756	-52	-99	-31	-2576	-3268	16200	95	-178	213	-8208	4320	12920	-83	127	-213	-15540	2328	-5500	98	-94	125	-2636	6864	15572	133	-37	46	126	123	5
-9236	-3432	13456	119	-86	-120	-15196	1104	-5868	-24	-73	-105	-2544	-3220	16164	83	-199	184	-8156	4312	13216	-128	130	-221	-15632	2332	-5532	98	-64	75	-2604	6804	15564	107	-12	19	126	124	5
-9168	-3416	13416	142	-75	-176	-15184	1036	-5716	-31	-55	-115	-2476	-3252	16260	-2	-223	158	-8128	4300	13016	-147	118	-222	-15620	2160	-5404	120	-62	44	-2464	6676	15656	77	-62	15	126	123	5
-9240	-3448	13424	94	-115	-213	-15256	1024	-5656	39	10	-131	-2464	-3264	16236	-84	-216	156	-8124	4296	13000	-118	125	-210	-15600	2184	-5376	162	-62	53	-2372	6636	15776	93	-42	10	126	123	5
-9224	-3392	13476	69	-91	-184	-15268	1020	-5744	-4	0	-146	-2480	-3464	16168	-113	-159	159	-8152	4232	13024	-113	131	-247	-15688	2212	-5268	76	-7	59	-2488	6628	15580	88	9	29	126	123	5
-9172	-3432	13408	112	-64	-177	-15224	936	-5792	-51	22	-164	-2468	-3568	16100	-62	-150	156	-8160	4288	13048	-84	118	-245	-15688	2284	-5428	104	22	63	-2484	6572	15548	151	-4	-12	126	123	5
-9176	-3416	13416	70	-66	-171	-15204	884	-5732	-41	46	-136	-2480	-3684	16144	-77	-134	228	-8180	4420	13060	-99	146	-220	-15576	2252	-5384	104	42	42	-2584	6552	15628	152	51	34	126	123	5
-9184	-3512	13472	66	-43	-163	-15244	788	-5768	-16	39	-134	-2516	-3720	16104	-21	-131	218	-8164	4364	13084	-105	136	-231	-15580	2136	-5416	65	42	55	-2620	6532	15656	163	27	80	126	123	5
-9200	-3452	13332	131	-82	-189	-15188	756	-5836	32	32	-43	-2412	-3720	16080	43	-98	202	-8132	4288	13132	-93	145	-226	-15608	2044	-5436	71	43	62	-2604	6424	15780	167	19	41	126	123	5
-9184	-3480	13396	138	-97	-136	-15196	816	-5848	24	30	5	-2568	-3736	16188	25	-100	157	-8172	4240	13044	-99	167	-212	-15636	2064	-5400	117	-14	113	-2648	6432	15680	160	10	6	126	124	5
-9236	-3428	13464	158	-90	-157	-15180	840	-5872	8	12	46	-2572	-3708	16208	41	-88	156	-8152	4276	12996	-116	175	-205	-15592	2084	-5548	100	24	160	-2592	6456	15740	199	-13	12	126	124	5
-9256	-3444	13536	145	-80	-99	-15256	880	-5852	-37	-3	70	-2548	-3548	16200	46	-80	116	-8168	4348	12980	-89	153	-179	-15612	2092	-5396	101	6	173	-2560	6480	15700	221	5	2	126	123	5
-9248	-3392	13448	150	-68	-101	-15200	964	-5872	14	-15	60	-2552	-3484	16192	-8	-105	157	-8124	4320	13008	-78	172	-198	-15676	2196	-5472	75	-21	196	-2596	6552	15680	215	-30	16	126	123	5
-9256	-3428	13508	176	-106	-122	-15188	972	-5856	0	-33	37	-2600	-3448	16252	59	-118	159	-8140	4316	13000	-59	165	-197	-15572	2188	-5468	65	-40	184	-2624	6600	15584	248	-38	33	126	123	5
-9220	-3412	13432	135	-64	-164	-15156	968	-5812	31	-45	59	-2676	-3392	16164	88	-104	153	-8164	4348	13040	-61	141	-194	-15536	2240	-5524	149	-77	223	-2644	6692	15588	231	-42	21	126	123	5
-9216	-3408	13456	141	-105	-141	-15172	1016	-5828	11	-59	15	-2572	-3460	16140	104	-150	189	-8164	4292	13076	-51	130	-188	-15632	2212	-5504	78	-25	192	-2660	6732	15596	219	-46	49	126	123	5
-9248	-3408	13396	146	-34	-142	-15108	1032	-5848	0	-67	43	-2624	-3440	16256	24	-120	183	-8128	4288	13000	-63	160	-192	-15604	2232	-5436	100	-50	148	-2656	6744	15528	182	-49	41	126	124	5
-9232	-3424	13424	159	-109	-145	-15196	996	-5808	-44	-124	9	-2600	-3384	16136	48	-121	201	-8176	4396	13108	-91	159	-217	-15588	2280	-5376	100	-26	139	-2568	6708	15592	155	-33	48	126	124	5
-9212	-3436	13376	148	-116	-127	-15144	1012	-5720	-50	-78	-46	-2652	-3396	16180	47	-127	169	-8200	4356	13024	-112	172	-197	-15628	2264	-5448	74	-32	141	-2540	6648	15532	223	-23	52	126	124	5
-9224	-3408	13540	115	-98	-170	-15208	932	-5748	-65	-43	-44	-2556	-3376	16140	69	-170	198	-8140	4352	13056	-99	144	-220	-15596	2232	-5308	62	-46	138	-2524	6668	15572	198	-25	86	126	123	5
-9236	-3464	13472	123	-83	-158	-15200	948	-5828	-28	-80	-83	-2500	-3424	16180	98	-201	184	-8184	4312	13160	-100	146	-222	-15600	2196	-5464	101	-56	132	-2496	6600	15692	254	-28	67	126	123	5
-9220	-3392	13484	93	-90	-166	-15224	972	-5780	-31	-41	-67	-2548	-3444	16120	44	-167	188	-8164	4360	13096	-95	157	-206	-15564	2220	-5440	73	-31	102	-2552	6724	15636	236	-19	67	126	124	5
-9168	-3428	13396	132	-73	-160	-15224	896	-5780	-56	-61	-82	-2504	-3488	16140	30	-150	200	-8108	4316	13068	-74	167	-234	-15556	2152	-5492	99	-38	124	-2632	6660	15672	182	-37	40	126	124	5
-9260	-3392	13468	119	-104	-176	-15248	880	-5868	-31	-53	-10	-2588	-3496	16156	27	-150	206	-8164	4344	13072	-76	140	-231	-15568	2188	-5420	118	-57	127	-2556	6644	15652	186	-30	12	126	123	5
-9244	-3448	13452	159	-87	-144	-15244	936	-5816	-22	-45	-49	-2532	-3428	16032	58	-139	157	-8152	4336	13040	-110	114	-198	-15644	2240	-5356	97	-47	119	-2492	6672	15588	174	-58	14	126	123	5
-9244	-3448	13516	130	-98	-154	-15204	928	-5724	-60	-89	-79	-2524	-3496	16132	35	-135	181	-8120	4284	12984	-97	168	-207	-15580	2212	-5328	111	-38	114	-2424	6640	15696	173	-24	24	126	123	5
-9216	-3424	13512	125	-67	-140	-15224	924	-5640	-14	-22	-73	-2524	-3472	16220	34	-131	198	-8176	4324	13088	-76	144	-213	-15664	2196	-5396	86	-26	110	-2480	6588	15628	188	-7	3	126	123	5
-9196	-3368	13460	105	-62	-149	-15288	1020	-5732	-23	-32	-128	-2480	-3436	16124	19	-130	167	-8228	4372	13052	-116	150	-221	-15608	2200	-5432	105	-19	147	-2512	6624	15644	203	11	13	126	123	5
-9132	-3384	13392	112	-51	-134	-15264	952	-5852	-5	26	-54	-2500	-3440	16176	6	-80	154	-8220	4324	13088	-86	142	-252	-15624	2256	-5308	133	23	144	-2568	6608	15604	157	27	0	126	124	5
-9204	-3440	13412	131	-52	-134	-15132	972	-5812	-54	6	-76	-2492	-3504	16140	-36	-119	165	-8180	4352	12992	-96	137	-252	-15668	2216	-5388	108	-32	103	-2600	6672	15636	147	-21	10	126	123	5
-9180	-3428	13444	156	-46	-163	-15140	996	-5720	-17	-12	-53	-2552	-3540	16212	-4	-114	168	-8148	4332	13056	-100	166	-207	-15572	2280	-5304	76	-29	95	-2552	6576	15628	181	-16	6	126	124	5
-9204	-3456	13444	115	-93	-161	-15176	940	-5812	-34	-19	-80	-2580	-3536	16244	17	-107	187	-8144	4328	13072	-103	144	-214	-15600	2184	-5356	131	-11	122	-2608	6600	15664	209	55	39	126	123	5
-9200	-3444	13420	127	-79	-163	-15264	948	-5772	-10	-23	-73	-2592	-3528	16156	40	-111	197	-8140	4344	12992	-146	146	-229	-15660	2216	-5416	65	15	102	-2552	6560	15724	196	30	44	126	123	5
-9188	-3436	13476	114	-82	-150	-15184	952	-5768	-19	-44	-44	-2580	-3620	16176	98	-164	205	-8164	4352	13012	-119	179	-218	-15624	2116	-5416	31	10	123	-2576	6560	15704	228	5	53	126	123	5
-9204	-3416	13340	84	-41	-168	-15204	948	-5840	1	-44	-35	-2472	-3528	16320	81	-137	178	-8136	4340	13164	-104	172	-232	-15612	2096	-5344	83	14	152	-2564	6460	15588	143	-8	-7	126	123	5
-9132	-3444	13448	107	-98	-152	-15328	940	-5800	-13	-51	-81	-2508	-3476	16196	60	-163	179	-8200	4272	13024	-98	168	-234	-15556	2120	-5412	146	-26	189	-2560	6384	15656	166	-73	-40	126	123	5
-9168	-3408	13532	97	-26	-185	-15216	1000	-5808	-38	-60	-57	-2556	-3368	16220	22	-140	179	-8204	4268	13028	-86	195	-199	-15660	2128	-5372	220	1	224	-2624	6452	15716	228	-46	-29	126	123	5
-9216	-3376	13500	104	-82	-159	-15196	960	-5780	-34	-10	-63	-2532	-3456	16164	17	-144	206	-8168	4296	13068	-12	170	-184	-15656	2260	-5340	163	-18	233	-2624	6648	15580	276	-75	-13	126	123	5
-9232	-3416	13424	118	-90	-146	-15212	932	-5772	-2	-36	-106	-2600	-3456	16104	-6	-168	196	-8168	4348	13092	-52	155	-222	-15628	2296	-5424	59	-30	235	-2560	6720	15624	273	-60	31	126	123	5
-9216	-3416	13452	107	-30	-161	-15184	892	-5820	-12	-64	-75	-2504	-3596	16188	0	-188	175	-8164	4276	13072	-67	140	-179	-15664	2288	-5384	51	5	188	-2620	6724	15560	303	-63	33	126	123	5
-9176	-3452	13352	138	-19	-142	-15136	860	-5872	4	-50	-65	-2564	-3688	16048	68	-184	190	-8120	4288	13000	-58	93	-210	-15612	2372	-5460	99	-28	144	-2536	6832	15524	254	-34	63	126	123	5
-9264	-3444	13420	154	-102	-138	-15132	812	-5824	1	-70	-32	-2540	-3624	16136	68	-151	192	-8164	4344	12968	-94	134	-216	-15660	2436	-5456	72	-44	104	-2408	6876	15552	193	-7	47	126	123	5
-9188	-3452	13496	140	-91	-132	-15180	856	-5760	-35	-70	12	-2472	-3544	16116	118	-159	163	-8160	4352	12924	-106	92	-216	-15664	2396	-5356	40	4	79	-2468	6808	15644	168	5	112	126	123	5
-9204	-3428	13488	148	-88	-162	-15184	972	-5844	-26	-105	-17	-2504	-3440	16240	94	-127	168	-8116	4332	12960	-102	120	-243	-15620	2316	-5288	29	-8	66	-2468	6688	15696	182	40	78	126	123	5
-9204	-3428	13436	156	-121	-134	-15196	1112	-5692	3	-73	5	-2496	-3324	16148	59	-126	191	-8176	4284	13008	-100	147	-253	-15628	2232	-5360	47	7	73	-2424	6624	15680	208	61	84	126	123	5
-9220	-3408	13540	132	-81	-130	-15180	1028	-5756	-47	-52	-40	-2464	-3256	16236	54	-127	199	-8148	4340	13088	-115	168	-233	-15632	2208	-5276	73	6	39	-2424	6568	15564	230	107	81	126	123	5
-9168	-3328	13456	122	-75	-197	-15260	1044	-5660	-40	17	-73	-2548	-3212	16204	27	-88	208	-8144	4224	12904	-102	162	-241	-15608	2188	-5344	45	89	30	-2456	6640	15644	213	113	51	126	123	5
-9228	-3420	13560	78	-81	-166	-15152	976	-5860	-44	43	-122	-2484	-3324	16244	4	-65	226	-8108	4324	13160	-78	176	-242	-15692	2224	-5336	15	153	56	-2540	6632	15576	205	121	18	126	123	5
-9196	-3436	13456	96	-47	-167	-15220	1012	-5820	-38	41	-119	-2552	-3400	16176	-18	-76	247	-8192	4304	13000	-113	165	-237	-15588	2304	-5452	26	124	80	-2596	6704	15676	240	121	50	126	124	5
-9204	-3396	13444	68	4	-166	-15172	876	-5880	-28	44	-138	-2584	-3608	16152	-13	-109	243	-8200	4356	13000	-147	194	-240	-15608	2276	-5568	11	97	39	-2640	6768	15628	232	114	90	126	123	5
-9212	-3448	13372	111	-87	-164	-15208	916	-5856	-34	57	-133	-2592	-3656	16144	26	-113	251	-8160	4356	13124	-108	162	-225	-15552	2224	-5456	9	99	49	-2788	6652	15548	211	102	110	126	123	5
-9280	-3428	13544	87	-71	-172	-15212	760	-5904	-14	-31	-107	-2608	-3740	16108	53	-127	209	-8144	4280	13016	-126	172	-243	-15592	2140	-5612	23	11	39	-2876	6568	15572	147	70	95	126	124	5
-9188	-3528	13476	122	-82	-171	-15220	764	-5816	4	-15	-71	-2676	-3732	16068	71	-160	200	-8252	4276	13116	-132	147	-241	-15580	2092	-5616	60	-32	38	-2760	6404	15616	113	-21	80	126	123	5
-9244	-3444	13412	137	-102	-156	-15272	768	-5988	12	-86	-49	-2628	-3652	16084	33	-155	145	-8124	4280	13092	-83	122	-171	-15576	2028	-5572	160	-74	98	-2664	6392	15716	105	-72	27	126	123	5
-9164	-3428	13448	143	-100	-163	-15252	812	-5884	8	-104	-3	-2528	-3492	16148	61	-202	113	-8128	4280	13108	-97	146	-206	-15560	2068	-5420	104	-106	163	-2596	6372	15656	105	-120	-29	126	124	5
-9260	-3480	13420	117	-75	-135	-15256	896	-5812	-8	-74	-30	-2536	-3460	16244	42	-193	109	-8160	4284	13136	-51	137	-192	-15596	1984	-5472	152	-108	173	-2560	6404	15816	117	-158	-31	126	124	5
-9176	-3408	13552	132	-63	-135	-15216	872	-5772	17	-27	9	-2520	-3404	16244	3	-185	94	-8100	4224	13156	-72	152	-206	-15608	2124	-5448	160	-117	238	-2572	6532	15648	170	-150	-15	126	123	5
-9152	-3456	13452	146	-107	-161	-15232	932	-5840	4	-53	-28	-2560	-3456	16136	-42	-160	159	-8168	4296	13060	-32	125	-214	-15648	2172	-5472	140	-92	201	-2544	6548	15632	164	-162	-25	126	123	5
-9208	-3472	13468	154	-57	-163	-15208	940	-5772	21	-64	15	-2532	-3540	16224	-29	-127	131	-8144	4232	13120	-50	115	-191	-15640	2136	-5448	163	-135	223	-2548	6676	15568	187	-148	-18	126	123	5
-9236	-3468	13368	118	-33	-152	-15128	960	-5836	3	-65	-16	-2552	-3568	16128	24	-135	163	-8140	4272	13036	-76	161	-181	-15664	2268	-5456	84	-91	219	-2536	6736	15664	207	-124	18	126	124	5
-9200	-3408	13484	173	-125	-174	-15156	880	-5724	-38	-53	-35	-2432	-3636	16104	87	-112	164	-8152	4280	13064	-63	134	-230	-15540	2228	-5432	76	-84	200	-2492	6648	15564	206	-143	4	126	123	5
-9216	-3476	13460	146	-72	-156	-15240	800	-5632	-5	-68	50	-2416	-3516	16088	71	-122	142	-8136	4324	13000	-26	154	-147	-15672	2160	-5356	159	-96	188	-2496	6704	15668	167	-169	-8	126	123	5
-9236	-3504	13416	148	-50	-158	-15260	808	-5732	54	-30	76	-2360	-3508	16288	50	-91	110	-8108	4304	13032	-9	141	-202	-15736	2212	-5352	183	-85	179	-2380	6688	15692	165	-146	-8	126	123	5
-9184	-3460	13436	162	-90	-151	-15204	880	-5732	37	-49	49	-2432	-3484	16320	44	-30	110	-8140	4324	13000	-60	141	-232	-15696	2316	-5336	102	-48	206	-2376	6708	15604	141	-71	-7	126	123	5
-9184	-3432	13460	130	-68	-157	-15256	980	-5820	-38	-17	51	-2584	-3520	16240	-34	-63	189	-8212	4380	12964	-81	186	-210	-15740	2284	-5308	59	4	155	-2476	6632	15644	198	17	52	126	123	5
-9172	-3460	13440	161	-37	-119	-15172	988	-5740	-42	-49	39	-2644	-3532	16096	22	-72	237	-8112	4328	13052	-96	192	-195	-15616	2264	-5444	29	39	133	-2552	6648	15668	312	51	133	126	123	5
-9224	-3468	13372	148	-87	-118	-15124	1032	-5944	-13	-55	3	-2632	-3544	16172	160	-144	247	-8216	4296	13132	-50	177	-206	-15560	2236	-5544	7	69	123	-2560	6576	15688	323	64	101	126	124	5
-9180	-3448	13496	170	-110	-133	-15168	988	-5668	-53	-102	-34	-2580	-3552	16172	261	-156	276	-8180	4284	13068	-61	163	-225	-15572	2168	-5496	-5	-20	146	-2700	6572	15624	344	58	120	126	124	5
-9196	-3412	13428	166	-129	-158	-15260	840	-5828	-48	-148	-27	-2560	-3532	16176	224	-156	210	-8168	4300	13044	-59	164	-201	-15556	2136	-5452	-4	-25	136	-2672	6580	15688	248	-21	77	126	124	5
-9240	-3408	13456	164	-108	-158	-15184	852	-5740	-16	-109	28	-2588	-3408	16108	168	-159	167	-8188	4208	13064	-97	151	-184	-15612	2116	-5524	82	-76	180	-2544	6564	15660	150	-106	14	126	124	5
-9140	-3484	13368	152	-110	-123	-15236	1004	-5744	33	-107	45	-2528	-3276	16300	20	-212	157	-8200	4260	13168	-122	194	-191	-15632	2128	-5368	122	-67	203	-2480	6624	15636	216	-145	-55	126	123	5
-9136	-3408	13488	160	-16	-118	-15308	1032	-5724	45	-96	-23	-2496	-3248	16256	-31	-155	112	-8140	4344	13092	-74	179	-191	-15648	2328	-5348	176	-73	212	-2384	6748	15560	198	-106	-59	126	123	5
-9236	-3340	13500	149	-36	-142	-15212	1116	-5812	3	-43	-62	-2504	-3304	16240	-40	-122	127	-8076	4376	12996	-60	125	-186	-15620	2336	-5428	151	-84	231	-2380	6820	15568	177	-61	-31	126	123	5
-9184	-3376	13420	109	-19	-152	-15188	1096	-5848	-26	-55	-59	-2572	-3304	16228	-38	-148	189	-8196	4352	13060	-103	141	-209	-15652	2404	-5356	88	-28	146	-2468	6860	15496	195	-47	39	126	124	5
-9224	-3416	13512	83	-95	-147	-15240	964	-5896	-59	-22	-62	-2548	-3452	16112	50	-110	245	-8228	4364	12996	-86	152	-218	-15624	2380	-5392	65	-32	129	-2512	6724	15436	204	11	90	126	124	5
-9224	-3436	13460	132	-74	-212	-15228	812	-5724	-46	-33	-71	-2480	-3628	16224	56	-94	217	-8180	4296	13052	-93	137	-241	-15588	2228	-5328	68	-18	105	-2584	6676	15712	179	10	74	126	123	5
-9228	-3444	13392	142	-61	-135	-15204	752	-5888	9	-34	-14	-2516	-3704	16180	31	-104	201	-8140	4300	13108	-72	122	-191	-15564	2136	-5436	93	-26	131	-2488	6576	15748	192	-3	60	126	123	5
-9232	-3448	13440	133	-94	-163	-15248	772	-5812	-10	-53	-6	-2428	-3692	16156	33	-131	176	-8176	4296	13068	-90	126	-226	-15648	2136	-5432	96	-15	119	-2528	6468	15784	187	-51	37	126	123	5
-9196	-3440	13500	163	-90	-160	-15176	824	-5788	23	-46	67	-2504	-3648	16164	81	-117	171	-8064	4304	13088	-93	121	-209	-15572	2112	-5392	100	-56	200	-2420	6500	15680	216	-46	62	126	123	5
-9220	-3452	13420	182	-91	-117	-15228	928	-5724	-5	-69	75	-2588	-3464	16088	96	-81	149	-8216	4332	13100	-79	121	-189	-15660	2100	-5424	109	-33	152	-2464	6492	15496	256	-49	22	126	124	5
-9280	-3432	13516	149	-116	-111	-15216	988	-5832	-8	-79	34	-2480	-3344	16204	101	-133	135	-8124	4332	13036	-10	147	-197	-15628	2224	-5324	93	-24	209	-2424	6672	15620	295	-65	12	126	123	5
-9268	-3388	13412	171	-108	-149	-15252	1032	-5660	-15	-47	47	-2576	-3312	16184	111	-104	122	-8184	4292	12968	-89	140	-205	-15600	2304	-5356	112	-41	219	-2628	6688	15608	305	-33	4	126	123	5
-9196	-3424	13428	141	-56	-124	-15148	1032	-5752	-6	-29	30	-2532	-3296	16232	71	-124	135	-8136	4324	12944	-66	160	-214	-15472	2284	-5416	100	7	184	-2248	7012	15584	235	-84	-18	126	123	5
-9172	-3356	13412	114	-54	-110	-15376	972	-5620	45	-19	-25	-2656	-3192	16076	-46	-179	143	-8176	4344	13008	-116	137	-211	-15600	2348	-5360	100	13	166	-2516	6872	15572	100	-7	-28	126	124	5
-9216	-3404	13396	121	-29	-142	-15040	1100	-5880	-45	29	-76	-2452	-3316	16284	-36	-150	152	-8156	4392	12948	-55	164	-230	-15656	2400	-5344	55	-6	95	-2464	6948	15572	158	-35	-11	126	123	5
-9200	-3404	13516	123	-69	-161	-15200	1116	-5840	-53	-6	-94	-2584	-3184	16220	20	-114	172	-8184	4360	13040	-100	150	-261	-15524	2396	-5356	123	-33	65	-2424	6964	15488	118	33	-31	126	124	5
-9224	-3404	13472	128	-58	-158	-15176	1108	-5756	-8	-3	-142	-2588	-3276	16228	-104	-153	159	-8168	4328	13036	-137	156	-216	-15600	2396	-5384	89	-4	32	-2468	6892	15540	67	115	10	126	124	5
-9164	-3396	13484	91	-95	-169	-15148	1180	-5736	-43	-4	-210	-2560	-3264	16232	-62	-150	201	-8164	4356	13044	-183	121	-281	-15656	2408	-5308	31	62	-60	-2420	6840	15556	141	130	38	126	124	5
-9232	-3372	13452	46	-80	-189	-15184	1020	-5768	-98	26	-206	-2480	-3464	16228	-62	-113	221	-8152	4316	12968	-183	146	-251	-15592	2252	-5344	-18	90	-71	-2496	6684	15560	106	79	67	127	124	5
-9240	-3404	13516	58	-42	-201	-15196	964	-5832	-41	-12	-207	-2504	-3508	16172	-41	-136	241	-8128	4316	13008	-182	141	-237	-15564	2208	-5488	19	156	-75	-2576	6504	15604	121	123	125	126	123	5
-9188	-3456	13408	53	-18	-185	-15232	816	-5760	-28	53	-197	-2508	-3704	16184	-11	-133	234	-8140	4280	13084	-145	202	-270	-15624	2176	-5492	25	94	-54	-2592	6456	15548	129	124	124	127	124	5
-9252	-3464	13460	91	-32	-177	-15224	808	-5768	-58	33	-164	-2564	-3780	16072	20	-133	232	-8148	4284	13104	-135	163	-244	-15516	2048	-5576	57	68	-26	-2724	6396	15696	120	113	80	126	123	5
-9192	-3456	13404	79	-61	-169	-15204	700	-5776	-29	20	-108	-2600	-3784	16064	4	-110	214	-8164	4252	12996	-122	152	-238	-15612	1940	-5540	53	29	43	-2756	6264	15688	173	71	42	126	123	5
-9188	-3432	13504	90	-13	-169	-15252	720	-5860	11	-37	-64	-2520	-3792	16192	43	-121	173	-8112	4288	12920	-103	128	-214	-15544	1948	-5604	93	-17	109	-2732	6188	15776	162	-27	3	126	124	5
-9216	-3432	13504	128	-80	-117	-15220	768	-5916	1	-45	-39	-2584	-3808	16056	36	-135	174	-8188	4296	13024	-91	127	-212	-15600	2000	-5548	109	-33	177	-2704	6344	15716	241	-61	-3	126	124	5
-9196	-3496	13488	134	-80	-130	-15212	860	-5916	18	-86	32	-2568	-3756	16064	40	-161	145	-8192	4288	13064	-37	142	-178	-15568	2032	-5536	106	-86	236	-2588	6348	15708	247	-104	17	126	123	5
-9140	-3492	13492	158	-96	-115	-15260	904	-5864	20	-93	49	-2616	-3620	16100	84	-149	196	-8168	4232	13120	-57	159	-177	-15568	2096	-5452	132	-73	252	-2540	6484	15620	279	-107	6	126	123	5
-9192	-3476	13424	185	-126	-111	-15216	880	-5840	-5	-105	81	-2544	-3572	16128	190	-171	197	-8124	4296	13032	-6	151	-149	-15624	2188	-5428	56	-97	301	-2548	6560	15644	324	-97	28	126	123	5
-9228	-3420	13428	205	-110	-112	-15136	960	-5864	12	-158	89	-2516	-3424	16156	136	-155	219	-8148	4276	13080	-12	119	-172	-15548	2240	-5428	123	-107	283	-2564	6752	15660	335	-111	21	126	123	5
-9204	-3440	13452	164	-98	-94	-15252	948	-5676	-18	-84	77	-2492	-3348	16164	126	-167	196	-8172	4360	13088	-33	152	-199	-15564	2316	-5452	87	-79	256	-2524	6888	15528	306	-74	7	126	123	5
-9228	-3464	13488	128	-94	-117	-15264	964	-5860	-10	-103	40	-2592	-3308	16336	59	-132	131	-8192	4236	13132	-58	134	-209	-15616	2364	-5424	95	-43	197	-2492	6932	15564	244	-85	-1	126	124	5
-9192	-3476	13384	153	-57	-122	-15248	1000	-5748	-18	-80	29	-2528	-3264	16208	36	-153	125	-8152	4360	13148	-101	148	-179	-15640	2404	-5300	171	-99	195	-2496	6936	15468	195	-39	10	126	123	5
-9220	-3356	13436	166	-72	-124	-15204	1060	-5752	-13	-68	-24	-2620	-3248	16152	-7	-163	174	-8140	4324	13124	-72	140	-199	-15612	2476	-5416	117	-42	117	-2496	6956	15412	176	-36	37	126	123	5
-9240	-3396	13460	91	-47	-140	-15168	1096	-5816	-17	-59	-52	-2568	-3212	16180	11	-164	198	-8148	4356	13092	-129	151	-233	-15664	2472	-5336	49	-32	72	-2476	6884	15560	142	-15	64	126	123	5
-9220	-3404	13528	104	-23	-176	-15192	1064	-5808	-25	-53	-143	-2556	-3296	16104	17	-156	195	-8124	4344	13136	-130	145	-243	-15632	2320	-5332	24	20	32	-2496	6740	15608	158	30	80	126	124	5
-9188	-3404	13540	85	-50	-165	-15168	1024	-5740	-38	-68	-116	-2536	-3404	16240	37	-173	220	-8168	4356	13120	-165	176	-249	-15624	2256	-5416	46	12	1	-2512	6676	15712	156	2	113	126	123	5
-9204	-3344	13388	95	-39	-164	-15160	976	-5724	-55	-14	-154	-2508	-3544	16240	2	-166	228	-8180	4292	13056	-118	142	-218	-15652	2132	-5400	49	6	17	-2532	6512	15520	191	63	104	126	123	5
-9144	-3412	13488	72	-25	-191	-15264	816	-5820	-38	-30	-158	-2480	-3632	16212	2	-122	206	-8144	4316	13088	-140	139	-233	-15540	2144	-5520	66	4	29	-2496	6520	15656	181	56	54	127	123	5
-9252	-3436	13464	86	-29	-207	-15240	796	-5824	-3	-59	-114	-2448	-3688	16200	15	-147	170	-8232	4288	13028	-87	163	-233	-15592	2120	-5484	34	11	76	-2528	6480	15688	214	24	25	126	124	5
-9188	-3492	13456	134	-55	-178	-15208	756	-5944	-19	-60	-67	-2468	-3704	16180	38	-135	171	-8144	4260	12996	-112	178	-209	-15624	2064	-5408	88	9	131	-2576	6456	15704	196	35	49	126	124	5
-9216	-3412	13436	107	-80	-139	-15220	860	-5844	-39	-45	-16	-2492	-3628	16112	73	-127	195	-8144	4272	13092	-93	171	-174	-15612	2176	-5424	93	-29	129	-2564	6592	15780	226	-7	-5	126	123	5
-9168	-3416	13468	122	-67	-162	-15200	856	-5936	-37	-41	3	-2520	-3592	16236	109	-111	178	-8164	4236	13152	-68	147	-201	-15648	2136	-5480	77	8	162	-2532	6528	15544	224	18	27	126	124	5
-9204	-3380	13536	136	-42	-135	-15236	880	-5848	4	-66	30	-2456	-3496	16208	101	-104	182	-8144	4324	12960	-67	158	-176	-15636	2116	-5424	72	8	181	-2548	6576	15600	259	-8	26	126	123	5
-9172	-3436	13496	144	-104	-125	-15196	940	-5796	-11	-41	14	-2452	-3472	16180	68	-120	200	-8076	4344	13052	-48	169	-179	-15632	2196	-5348	65	-41	214	-2500	6608	15660	273	-9	20	126	124	5
-9184	-3388	13508	183	-69	-152	-15264	944	-5804	0	-75	10	-2520	-3424	16240	118	-100	172	-8172	4292	13144	-77	145	-225	-15612	2248	-5440	112	12	194	-2564	6752	15564	280	-46	9	126	123	5
-9220	-3436	13572	154	-13	-138	-15172	860	-5820	-33	-32	20	-2556	-3476	16148	110	-113	196	-8212	4320	12992	-50	172	-232	-15588	2236	-5380	103	-46	191	-2564	6776	15520	267	-35	51	126	124	5
-9112	-3440	13460	185	-110	-136	-15200	956	-5940	24	-36	3	-2624	-3420	16240	53	-140	193	-8196	4324	13148	-42	138	-205	-15576	2332	-5448	123	-37	174	-2480	6852	15488	189	-19	22	126	124	5
-9204	-3440	13440	133	-70	-113	-15128	944	-5832	15	-87	14	-2632	-3396	16172	50	-131	165	-8156	4324	13004	-42	141	-187	-15660	2312	-5404	110	-63	132	-2592	6924	15512	197	-8	-14	126	124	5
-9192	-3444	13424	157	-79	-150	-15252	996	-5788	-4	-39	-35	-2584	-3376	16304	14	-109	163	-8140	4312	13080	-45	137	-247	-15588	2288	-5392	77	-17	141	-2504	6856	15648	187	5	35	126	123	5
-9184	-3412	13484	125	-56	-134	-15232	996	-5740	-22	-93	-39	-2592	-3356	16184	20	-120	153	-8108	4392	13016	-100	155	-235	-15596	2356	-5448	77	-8	97	-2556	6712	15524	159	8	15	126	124	5
-9192	-3408	13476	177	-47	-132	-15152	1060	-5756	-13	-39	-44	-2564	-3372	16324	19	-105	192	-8100	4264	12980	-94	153	-227	-15656	2264	-5492	62	-20	81	-2500	6664	15612	143	-13	49	126	124	5
-9116	-3420	13532	134	-17	-181	-15164	988	-5860	-57	10	-93	-2536	-3364	16160	3	-115	197	-8128	4384	13116	-99	138	-238	-15628	2260	-5396	84	-13	106	-2488	6636	15676	164	5	26	126	123	5
-9252	-3396	13468	135	-38	-146	-15196	1008	-5744	-30	-18	-85	-2520	-3492	16144	34	-154	201	-8200	4320	12948	-79	154	-239	-15628	2160	-5396	91	14	114	-2544	6660	15672	179	11	25	126	124	5
-9148	-3376	13464	112	-73	-157	-15228	928	-5856	-60	-6	-35	-2516	-3532	16216	42	-127	194	-8068	4320	13092	-138	134	-224	-15536	2192	-5392	81	-10	100	-2620	6584	15616	199	-3	22	126	124	5
-9168	-3420	13452	121	-38	-179	-15196	880	-5804	-31	-9	-55	-2592	-3608	16080	16	-111	191	-8192	4304	12976	-129	141	-206	-15572	2192	-5420	71	24	129	-2596	6584	15584	219	-5	41	126	123	5
-9172	-3488	13388	134	-126	-144	-15168	884	-5712	-24	-73	-30	-2524	-3644	16128	29	-102	155	-8156	4296	13112	-75	155	-194	-15600	2228	-5444	74	-4	158	-2604	6652	15620	242	-40	41	126	124	5
-9224	-3496	13568	134	-70	-125	-15164	884	-5816	20	-17	7	-2516	-3596	16116	77	-154	174	-8140	4296	13008	-89	166	-203	-15664	2244	-5460	84	-30	173	-2608	6604	15668	221	-29	28	126	124	5
-9196	-3428	13356	149	-47	-113	-15200	872	-5924	-8	-44	11	-2524	-3568	16152	92	-134	145	-8108	4312	12940	-65	152	-193	-15632	2112	-5324	80	-24	150	-2540	6592	15668	230	-26	50	126	123	5
-9192	-3532	13492	125	-97	-146	-15168	892	-5704	4	-92	6	-2548	-3528	16192	97	-147	170	-8176	4288	13036	-76	159	-206	-15576	2240	-5496	107	-35	160	-2524	6568	15552	232	-47	26	126	123	5
-9240	-3444	13460	169	-66	-127	-15212	976	-5808	-23	-75	34	-2616	-3408	16176	114	-107	179	-8172	4312	13088	-106	140	-166	-15620	2252	-5400	100	2	188	-2620	6604	15516	197	-6	38	126	124	5
-9188	-3432	13444	138	-46	-148	-15176	964	-5764	-33	-38	1	-2588	-3324	16132	93	-168	198	-8148	4268	13108	-40	120	-211	-15632	2284	-5536	90	-16	199	-2536	6652	15716	249	-46	33	126	123	5
-9232	-3476	13564	159	-70	-147	-15224	1052	-5776	-36	-82	-33	-2452	-3356	16124	66	-166	192	-8180	4292	13060	-81	150	-182	-15636	2300	-5388	74	-58	162	-2480	6832	15552	211	-35	30	126	124	5
-9212	-3428	13480	150	-109	-156	-15176	1044	-5704	-38	-59	-70	-2544	-3336	16260	45	-132	187	-8136	4276	13088	-58	170	-195	-15616	2296	-5520	117	-44	140	-2512	6732	15520	214	-47	27	126	124	5
-9272	-3432	13500	152	-70	-144	-15088	1040	-5884	-5	-47	-58	-2500	-3384	16224	26	-144	159	-8200	4312	13088	-82	157	-215	-15592	2328	-5444	66	-50	127	-2448	6824	15616	206	13	19	126	123	5
-9208	-3432	13536	116	-96	-160	-15204	952	-5764	-18	-42	-67	-2572	-3408	16120	25	-175	167	-8088	4324	13048	-87	145	-228	-15604	2296	-5296	53	10	97	-2496	6776	15532	171	-14	26	126	124	5
-9160	-3384	13456	99	-62	-153	-15248	952	-5732	18	-78	-61	-2496	-3476	16184	17	-112	167	-8116	4348	13176	-72	143	-219	-15632	2308	-5408	109	-46	147	-2488	6740	15620	161	1	23	126	123	5
-9176	-3392	13544	108	-82	-143	-15220	892	-5804	-23	16	-86	-2588	-3496	16096	-10	-146	193	-8184	4336	13056	-118	164	-246	-15568	2248	-5436	65	26	108	-2504	6724	15508	183	37	35	126	124	5
-9204	-3404	13560	101	-59	-196	-15200	884	-5864	-13	12	-110	-2564	-3476	16172	19	-121	182	-8168	4268	13052	-102	113	-202	-15608	2200	-5436	60	-4	85	-2648	6696	15648	195	-8	31	126	124	5
-9240	-3400	13456	140	-41	-150	-15152	976	-5856	-5	-55	-74	-2588	-3556	16188	-6	-117	174	-8116	4336	13096	-120	128	-226	-15576	2252	-5540	107	-11	70	-2612	6648	15692	152	-18	27	126	124	5
-9212	-3444	13480	129	-90	-99	-15200	932	-5796	-27	-41	-55	-2596	-3456	16120	6	-101	147	-8124	4340	13056	-115	139	-206	-15668	2200	-5480	91	-21	95	-2544	6568	15660	190	-16	20	126	124	5
-9236	-3496	13472	113	-77	-170	-15152	884	-5760	30	-45	-63	-2568	-3476	16288	49	-143	165	-8076	4332	13164	-100	135	-228	-15600	2264	-5508	87	-4	121	-2556	6548	15708	165	-41	19	126	123	5
-9180	-3464	13460	84	-51	-175	-15160	916	-5776	-2	-52	-35	-2528	-3532	16180	63	-132	162	-8068	4324	13024	-54	163	-209	-15652	2184	-5328	68	8	122	-2576	6632	15740	186	-1	34	126	123	5
-9228	-3400	13432	146	-106	-149	-15196	880	-5836	-7	-50	-22	-2596	-3504	16264	47	-152	160	-8160	4276	13056	-84	160	-227	-15580	2212	-5476	69	-42	136	-2596	6624	15604	202	-26	47	126	124	5
-9192	-3452	13504	131	-60	-138	-15260	932	-5900	-7	-61	-40	-2580	-3496	16340	40	-128	182	-8108	4320	13124	-68	169	-206	-15612	2228	-5432	85	7	155	-2540	6644	15584	219	-19	34	126	124	5
-9192	-3380	13428	158	-20	-130	-15268	892	-5780	-4	-64	-43	-2576	-3504	16100	38	-134	181	-8144	4328	13036	-89	131	-238	-15584	2264	-5372	80	-28	112	-2620	6636	15616	211	-5	44	126	124	5
-9160	-3440	13524	154	-88	-127	-15264	936	-5796	6	-41	-15	-2476	-3420	16172	46	-142	196	-8108	4304	13036	-37	147	-244	-15624	2164	-5348	76	-34	136	-2572	6644	15612	177	-61	33	126	123	5
-9240	-3400	13436	128	-75	-156	-15240	956	-5848	19	-39	4	-2536	-3404	16232	69	-164	181	-8140	4332	13048	-74	166	-215	-15616	2288	-5392	86	-21	136	-2440	6728	15648	200	-9	30	126	123	5
-9208	-3440	13464	101	-71	-133	-15232	984	-5696	-2	-57	-50	-2568	-3456	16184	85	-106	175	-8128	4320	12956	-96	150	-227	-15636	2204	-5504	64	9	119	-2532	6668	15504	248	31	29	126	123	5
-9240	-3432	13428	142	-45	-153	-15212	984	-5764	-38	-26	-27	-2532	-3412	16128	77	-137	207	-8188	4260	13012	-98	164	-231	-15592	2228	-5364	44	16	155	-2560	6696	15632	236	5	22	126	123	5
-9212	-3380	13372	144	-37	-136	-15196	936	-5736	-39	-33	-85	-2528	-3444	16216	58	-123	188	-8120	4344	13088	-97	188	-238	-15608	2288	-5456	59	65	101	-2528	6684	15752	205	-1	28	126	123	5
-9228	-3428	13420	108	14	-140	-15196	940	-5728	-47	-46	-78	-2580	-3440	16208	45	-130	188	-8180	4316	13036	-109	189	-219	-15616	2232	-5444	115	1	130	-2596	6672	15668	190	-12	48	126	124	5
-9264	-3404	13396	127	-45	-161	-15128	936	-5740	-23	-50	-42	-2620	-3504	16216	64	-128	201	-8260	4276	13012	-109	135	-214	-15568	2300	-5412	96	20	139	-2528	6608	15596	158	-46	12	126	124	5
-9204	-3404	13452	122	-81	-170	-15172	932	-5776	5	-60	-10	-2608	-3460	16288	58	-165	193	-8180	4292	13160	-80	182	-220	-15612	2264	-5388	101	-19	165	-2584	6696	15676	220	-45	40	126	124	5
-9172	-3460	13440	120	-61	-189	-15252	956	-5672	19	-45	-42	-2536	-3480	16008	50	-125	186	-8180	4296	13136	-83	163	-216	-15592	2168	-5424	74	4	130	-2564	6700	15584	200	-58	11	126	123	5
-9216	-3368	13528	130	-121	-159	-15192	948	-5784	-59	-29	-102	-2548	-3488	16136	55	-143	172	-8132	4292	13176	-93	116	-213	-15572	2272	-5504	94	-49	151	-2528	6664	15616	218	-65	24	126	124	5
-9168	-3448	13496	139	0	-166	-15280	896	-5884	-26	-43	-35	-2564	-3456	16188	37	-161	170	-8148	4348	13016	-37	158	-214	-15608	2276	-5320	70	-5	164	-2560	6724	15660	212	5	35	126	124	5
-9208	-3428	13536	143	-98	-145	-15216	836	-5796	-12	-78	-39	-2548	-3492	16076	38	-149	189	-8188	4316	13028	-57	122	-221	-15492	2284	-5504	65	-15	146	-2628	6644	15588	220	-19	16	126	123	5
-9152	-3420	13512	157	-131	-142	-15200	864	-5816	2	-68	-21	-2512	-3548	16140	29	-159	168	-8188	4300	13116	-31	153	-220	-15604	2260	-5496	108	-65	169	-2508	6664	15544	188	-46	46	126	124	5
-9248	-3436	13508	151	-112	-144	-15152	896	-5764	-7	-47	-5	-2560	-3536	16200	48	-165	160	-8240	4288	13120	-72	133	-211	-15660	2236	-5296	113	-50	138	-2568	6660	15552	191	-19	25	126	123	5
-9216	-3432	13488	171	-59	-115	-15224	964	-5764	16	-65	-6	-2560	-3408	16180	81	-174	140	-8172	4324	13024	-55	171	-229	-15576	2228	-5468	88	-22	137	-2500	6624	15660	188	-74	19	126	124	5
-9224	-3352	13576	155	-102	-141	-15156	1008	-5848	-2	-96	-21	-2476	-3472	16164	58	-155	194	-8140	4344	12896	-84	135	-207	-15560	2264	-5336	92	-65	154	-2484	6660	15564	193	-26	27	126	123	5
-9184	-3408	13368	142	-82	-148	-15156	940	-5804	-55	-81	-36	-2548	-3384	16176	52	-161	210	-8148	4380	13120	-93	162	-201	-15648	2252	-5452	67	-37	161	-2440	6668	15720	208	-20	16	126	124	5
-9216	-3452	13472	117	-57	-156	-15196	1024	-5792	-25	-90	10	-2456	-3312	16196	39	-178	196	-8164	4356	13020	-97	177	-149	-15624	2264	-5260	59	-95	144	-2532	6688	15556	208	-21	23	126	124	5
-9228	-3492	13500	108	-13	-176	-15228	948	-5724	-42	-52	-111	-2444	-3396	16280	15	-136	198	-8188	4376	13032	-111	178	-219	-15608	2276	-5348	89	18	143	-2476	6744	15596	224	12	36	126	124	5
-9244	-3408	13484	107	-9	-202	-15196	864	-5760	-11	-34	-46	-2480	-3404	16232	25	-141	184	-8092	4376	13076	-71	163	-192	-15620	2292	-5312	58	17	114	-2464	6776	15556	222	28	33	126	124	5
-9196	-3412	13484	153	-33	-164	-15296	904	-5716	-25	0	-80	-2480	-3468	16120	-29	-141	164	-8204	4328	13036	-101	187	-210	-15568	2300	-5332	114	4	103	-2596	6740	15484	166	67	22	126	123	5
-9204	-3456	13468	155	-58	-127	-15212	896	-5776	9	-5	-35	-2476	-3452	16120	-48	-139	125	-8204	4384	13092	-128	162	-241	-15604	2260	-5496	110	-2	64	-2564	6768	15680	135	36	14	126	124	5
-9192	-3388	13464	111	-25	-138	-15212	960	-5776	-7	3	-82	-2564	-3444	16196	-26	-139	117	-8108	4328	13124	-82	152	-225	-15548	2252	-5416	68	7	116	-2536	6704	15688	136	-7	-12	126	124	5
-9236	-3428	13528	98	-35	-147	-15144	980	-5784	-35	-18	-60	-2644	-3416	16288	-63	-127	158	-8152	4332	12924	-99	150	-228	-15588	2304	-5436	77	8	80	-2532	6680	15588	112	2	30	126	123	5
-9204	-3432	13576	105	-48	-198	-15176	1032	-5724	7	-41	-92	-2612	-3380	16180	-10	-136	159	-8136	4368	13044	-100	143	-257	-15640	2260	-5444	84	10	104	-2576	6684	15616	140	50	45	126	124	5
-9148	-3376	13544	77	-28	-156	-15116	1016	-5772	-37	-8	-74	-2560	-3488	16140	8	-112	190	-8100	4336	13028	-113	141	-221	-15580	2220	-5436	70	30	57	-2572	6576	15612	164	78	22	126	124	5
-9220	-3500	13416	82	-110	-186	-15180	1012	-5844	-25	-22	-154	-2560	-3460	16108	25	-150	228	-8184	4320	13004	-102	91	-221	-15664	2124	-5460	70	-3	91	-2568	6556	15672	180	40	24	126	124	5
-9216	-3432	13456	115	-36	-151	-15180	884	-5924	-28	-22	-103	-2556	-3604	16084	26	-108	205	-8140	4328	13112	-92	139	-206	-15588	2180	-5368	48	35	124	-2628	6504	15668	221	34	57	126	123	5
-9220	-3420	13396	115	-56	-161	-15176	828	-5908	-25	-67	-84	-2520	-3724	16184	66	-130	237	-8144	4360	13112	-107	164	-226	-15584	2144	-5496	41	1	154	-2528	6472	15692	227	7	57	126	123	5
-9196	-3452	13412	103	-76	-169	-15252	788	-5748	-38	-75	-29	-2504	-3664	16104	88	-155	196	-8120	4380	13072	-93	155	-204	-15588	2128	-5452	48	-45	134	-2596	6500	15736	274	-2	54	126	123	5
-9200	-3472	13468	153	-100	-152	-15192	796	-5848	-47	-84	-42	-2580	-3660	16124	113	-158	231	-8148	4344	13140	-44	160	-217	-15600	2204	-5356	82	-47	167	-2572	6548	15744	257	-67	51	126	124	5
-9172	-3456	13404	140	-106	-129	-15208	868	-5764	-18	-95	30	-2480	-3580	16040	143	-159	210	-8140	4316	13116	-23	141	-190	-15628	2180	-5544	51	-80	219	-2624	6752	15724	203	-49	20	126	124	5
-9236	-3472	13432	150	-41	-128	-15228	928	-5836	-18	-96	74	-2500	-3492	16048	136	-159	176	-8184	4316	13048	-80	160	-208	-15620	2216	-5428	96	-63	209	-2516	6636	15580	252	-47	-17	126	124	5
-9224	-3400	13556	171	-62	-111	-15160	1012	-5716	-27	-97	20	-2628	-3288	16232	123	-156	181	-8180	4372	12956	-57	150	-178	-15636	2304	-5364	126	-82	223	-2524	6804	15592	284	-68	6	126	124	5
-9232	-3416	13432	137	-55	-104	-15172	1028	-5788	9	-79	38	-2548	-3264	16228	44	-148	162	-8060	4296	13072	-58	134	-171	-15564	2360	-5376	89	-54	194	-2440	6940	15472	220	-62	16	126	124	5
-9204	-3384	13396	139	-57	-168	-15236	968	-5768	-30	-65	-30	-2628	-3156	16128	33	-159	179	-8164	4328	13044	-83	178	-201	-15600	2444	-5336	76	-55	146	-2540	6860	15516	178	-39	-13	126	124	5
-9188	-3436	13400	140	-87	-155	-15220	1072	-5840	-25	-58	-64	-2556	-3192	16260	-9	-130	165	-8148	4352	13128	-110	130	-213	-15624	2340	-5344	96	-22	93	-2512	6816	15492	170	14	13	126	124	5
-9224	-3408	13396	117	-78	-141	-15224	996	-5744	-37	-73	-105	-2568	-3288	16292	-3	-156	183	-8136	4340	13152	-105	165	-220	-15608	2396	-5436	41	8	86	-2520	6816	15748	190	12	36	126	124	5
-9280	-3448	13384	86	-43	-188	-15232	988	-5844	-9	-20	-127	-2516	-3400	16180	0	-165	189	-8136	4332	13056	-88	146	-199	-15632	2292	-5464	39	-10	79	-2568	6748	15508	179	60	46	126	124	5
-9196	-3440	13508	113	-59	-175	-15212	932	-5800	-7	-35	-116	-2500	-3488	16196	15	-120	182	-8088	4348	13136	-103	175	-210	-15620	2256	-5556	77	19	42	-2432	6692	15672	146	40	39	126	123	5
-9204	-3412	13504	99	-58	-189	-15248	900	-5840	-5	-57	-112	-2520	-3500	16156	-26	-166	177	-8168	4304	13060	-146	188	-260	-15628	2248	-5268	69	2	39	-2552	6608	15644	144	-15	35	126	123	5
-9168	-3432	13540	118	-83	-146	-15212	796	-5864	2	-25	-69	-2500	-3484	16200	10	-143	157	-8140	4316	12972	-137	175	-254	-15628	2164	-5436	71	23	50	-2532	6644	15680	139	21	72	126	124	5
-9248	-3412	13524	146	-30	-150	-15256	892	-5832	-24	-1	-21	-2556	-3540	16124	14	-110	140	-8152	4272	13120	-115	146	-237	-15680	2180	-5456	106	19	62	-2560	6648	15696	154	37	34	127	123	5
-9216	-3420	13436	144	-50	-166	-15176	920	-5828	-6	-5	-44	-2544	-3456	16228	-40	-128	177	-8132	4312	13032	-120	160	-241	-15644	2220	-5532	126	-5	107	-2568	6560	15640	180	9	7	126	123	5
-9216	-3436	13416	108	-62	-153	-15228	1004	-5812	-16	-28	-68	-2544	-3484	16192	24	-137	181	-8108	4372	13092	-75	126	-233	-15680	2232	-5436	42	0	87	-2588	6596	15632	233	-2	45	126	123	5
-9168	-3436	13416	125	-35	-119	-15152	916	-5796	-33	-20	-58	-2532	-3564	16168	14	-150	170	-8148	4328	13140	-97	147	-218	-15596	2152	-5560	23	-16	111	-2608	6636	15548	196	17	12	126	123	5
-9172	-3416	13384	136	-12	-151	-15184	916	-5880	-3	-31	-53	-2556	-3512	16136	35	-169	153	-8160	4276	13048	-90	115	-217	-15608	2196	-5448	95	-22	90	-2572	6660	15540	157	21	1	126	124	5
-9248	-3356	13440	114	-49	-161	-15184	920	-5772	-15	-57	-63	-2540	-3488	16044	26	-131	179	-8184	4320	13028	-58	129	-231	-15592	2232	-5316	108	-41	149	-2572	6576	15612	141	-3	21	126	124	5
-9196	-3460	13368	97	-25	-162	-15200	880	-5744	-30	-26	-74	-2508	-3480	16128	81	-141	193	-8168	4304	13016	-60	160	-184	-15628	2232	-5432	118	14	166	-2536	6568	15588	162	-31	37	126	124	5
-9228	-3512	13440	145	-115	-161	-15212	868	-5816	2	-43	-104	-2528	-3508	16148	23	-142	210	-8152	4336	13152	-60	158	-229	-15628	2188	-5464	104	-54	108	-2592	6692	15680	194	16	42	126	123	5
-9176	-3484	13444	172	-56	-175	-15220	896	-5792	-41	-59	-27	-2556	-3528	16216	47	-126	205	-8156	4280	13096	-41	122	-205	-15732	2172	-5536	78	-23	145	-2572	6688	15608	206	-17	43	126	123	5
-9196	-3408	13404	129	-33	-123	-15260	952	-5780	-11	-55	-29	-2500	-3572	16128	56	-114	212	-8152	4328	13000	-74	140	-232	-15648	2284	-5404	68	-60	163	-2496	6728	15516	85	58	17	126	123	5
-9160	-3452	13432	158	-85	-148	-15168	856	-5820	-57	-24	-36	-2476	-3464	16144	54	-146	169	-8180	4284	13024	-104	144	-212	-15636	2308	-5396	134	-42	132	-2556	6704	15480	257	5	11	126	124	5
-9252	-3432	13496	162	-147	-131	-15160	920	-5872	-9	-42	16	-2524	-3376	15940	39	-111	169	-8180	4364	13104	-117	130	-217	-15636	2368	-5520	18	-29	125	-2588	6696	15816	144	11	63	126	124	5
-9208	-3444	13512	133	-89	-129	-15212	980	-5940	7	-54	-20	-2592	-3332	16156	48	-142	187	-8080	4328	13084	-113	159	-200	-15664	2200	-5396	84	-30	120	-2528	6696	15680	280	4	23	126	123	5
-9216	-3400	13400	131	-85	-132	-15216	944	-5820	-11	-63	-42	-2524	-3320	16240	36	-117	201	-8140	4380	13092	-82	143	-220	-15540	2236	-5396	70	25	124	-2508	6648	15704	221	36	72	126	123	5
-9244	-3452	13448	146	-41	-169	-15248	976	-5728	-18	-34	-51	-2524	-3396	16048	36	-130	179	-8160	4304	12948	-126	160	-182	-15588	2172	-5384	51	0	117	-2536	6680	15564	222	9	17	126	124	5
-9132	-3392	13480	113	-81	-158	-15224	904	-5736	-33	-50	-47	-2556	-3396	16068	30	-121	195	-8176	4280	13120	-66	174	-240	-15652	2256	-5400	96	0	132	-2536	6620	15624	251	-8	21	126	124	5
-9196	-3480	13448	131	-90	-154	-15208	908	-5852	-3	-18	-35	-2572	-3468	16212	0	-185	186	-8156	4260	13052	-76	171	-208	-15644	2228	-5496	89	-22	143	-2516	6720	15676	134	-1	-1	126	124	5
-9184	-3440	13604	139	-30	-153	-15228	848	-5788	9	-25	-39	-2524	-3480	16184	46	-154	191	-8092	4276	13032	-104	143	-196	-15600	2328	-5468	137	-26	149	-2532	6712	15496	187	-42	7	126	124	5
-9192	-3408	13548	114	-65	-155	-15176	880	-5832	-16	-75	-39	-2560	-3596	16164	44	-118	155	-8176	4320	12960	-120	157	-191	-15596	2264	-5544	53	-14	133	-2492	6736	15508	214	-18	29	126	124	5
-9172	-3356	13468	124	-32	-170	-15212	956	-5912	13	-59	11	-2612	-3452	16148	19	-157	180	-8188	4328	13088	-58	115	-216	-15520	2232	-5340	74	-8	67	-2552	6728	15712	165	-1	38	126	123	5
-9224	-3396	13388	148	-88	-154	-15244	960	-5740	-13	-56	-64	-2580	-3432	16184	-7	-169	158	-8192	4276	13056	-94	149	-224	-15628	2248	-5392	104	-53	110	-2532	6632	15652	162	-8	46	126	124	5
-9180	-3408	13344	121	-79	-133	-15208	964	-5768	-25	-48	-67	-2564	-3400	16252	-8	-165	161	-8132	4336	13064	-101	163	-245	-15616	2216	-5416	74	-11	81	-2584	6572	15652	165	-12	63	126	124	5
-9188	-3484	13524	123	-59	-184	-15228	916	-5768	-28	-56	-33	-2488	-3424	16124	47	-158	188	-8148	4244	13012	-87	153	-235	-15688	2180	-5488	86	-21	98	-2564	6616	15616	218	9	43	126	123	5
-9200	-3364	13528	157	-118	-160	-15332	888	-5848	-26	-24	-42	-2540	-3440	16152	44	-161	177	-8112	4332	13044	-83	166	-231	-15632	2144	-5332	63	-35	128	-2516	6620	15632	213	-22	64	126	124	5
-9252	-3416	13544	122	-50	-149	-15264	896	-5792	0	-26	-48	-2512	-3452	16224	-5	-134	210	-8164	4288	13044	-96	133	-205	-15596	2252	-5488	99	-11	158	-2556	6624	15656	160	-4	49	126	124	5
-9140	-3428	13488	132	-89	-150	-15168	904	-5872	-27	-46	-69	-2560	-3544	16252	48	-141	166	-8208	4220	13004	-82	154	-211	-15532	2228	-5480	110	-11	124	-2564	6708	15516	202	-5	30	126	124	5
-9272	-3416	13488	112	-45	-137	-15188	792	-5692	-54	-73	-32	-2496	-3568	16116	20	-134	162	-8116	4372	13092	-96	170	-209	-15640	2288	-5368	57	-6	150	-2508	6744	15700	211	10	1	126	124	5
-9236	-3480	13496	144	-44	-112	-15184	908	-5828	-12	-79	-24	-2464	-3512	16048	47	-141	191	-8148	4392	13068	-75	174	-208	-15628	2268	-5388	63	-18	153	-2540	6676	15640	253	-16	53	126	123	5
-9160	-3424	13392	163	-90	-126	-15228	960	-5816	1	-60	-50	-2608	-3472	16160	53	-160	200	-8200	4316	13044	-36	148	-226	-15568	2236	-5316	113	-22	118	-2480	6700	15684	209	17	50	126	123	5
-9184	-3408	13444	87	-98	-134	-15220	984	-5808	10	-53	-26	-2556	-3444	16188	59	-149	193	-8156	4280	13040	-134	140	-209	-15664	2244	-5384	102	-7	115	-2548	6580	15596	194	-12	50	127	124	5
-9188	-3452	13544	123	-33	-135	-15168	964	-5796	-12	-67	1	-2512	-3396	16180	88	-161	179	-8076	4300	13084	-87	148	-235	-15604	2252	-5392	81	-47	137	-2528	6644	15584	199	12	52	126	124	5
-9248	-3444	13396	123	-76	-185	-15204	900	-5844	1	-66	-39	-2544	-3440	16220	-1	-141	193	-8172	4308	13096	-80	154	-180	-15608	2240	-5416	101	-10	113	-2492	6648	15700	202	-25	25	126	123	5
-9192	-3408	13380	119	-58	-191	-15188	1012	-5716	9	4	-59	-2500	-3420	16152	3	-150	172	-8140	4344	13060	-99	144	-218	-15660	2264	-5476	81	-40	158	-2572	6672	15500	186	7	12	126	123	5
-9164	-3352	13520	126	-57	-132	-15260	964	-5764	-7	-33	-73	-2580	-3484	16136	30	-149	175	-8148	4312	13132	-98	146	-213	-15640	2296	-5456	87	5	133	-2536	6708	15632	203	4	11	126	123	5
-9220	-3440	13484	119	-40	-158	-15180	960	-5808	-33	-107	-63	-2596	-3436	16280	40	-110	193	-8176	4316	13036	-103	187	-241	-15576	2280	-5368	62	-11	113	-2568	6688	15504	212	7	41	126	124	5
-9200	-3444	13400	115	-53	-162	-15160	912	-5844	-2	-62	-37	-2548	-3496	16188	97	-113	173	-8192	4308	13112	-175	149	-211	-15660	2256	-5528	54	7	101	-2624	6652	15560	216	41	43	126	124	5
-9184	-3448	13408	111	-78	-140	-15172	840	-5892	-7	-15	-37	-2512	-3504	16204	35	-131	183	-8172	4344	13060	-140	177	-209	-15668	2296	-5516	59	12	71	-2544	6680	15540	195	12	41	126	123	5
-9200	-3380	13448	119	-40	-177	-15264	900	-5844	-3	-45	-44	-2536	-3460	16256	46	-168	167	-8152	4288	13024	-142	165	-215	-15592	2184	-5528	47	-14	105	-2568	6624	15608	200	1	48	126	123	5
-9184	-3468	13540	124	-77	-112	-15184	928	-5740	62	-56	-13	-2588	-3480	16208	51	-116	173	-8168	4352	13120	-110	172	-221	-15624	2236	-5452	111	-21	127	-2588	6688	15680	215	0	55	126	123	5
-9204	-3440	13512	118	-16	-176	-15216	876	-5768	-11	-41	-18	-2568	-3400	16088	68	-148	178	-8160	4356	13020	-105	156	-235	-15600	2244	-5396	80	-24	148	-2628	6708	15552	192	-8	19	126	124	5
-9176	-3424	13484	159	-107	-174	-15220	972	-5716	-35	-57	-28	-2508	-3476	16100	46	-112	176	-8124	4276	13096	-97	178	-212	-15644	2288	-5288	41	15	109	-2552	6632	15624	188	-4	30	126	123	5
-9152	-3404	13408	121	-100	-175	-15216	1004	-5812	1	-45	-68	-2532	-3508	16208	37	-152	194	-8104	4320	13060	-97	106	-208	-15568	2252	-5380	66	-9	120	-2536	6684	15564	175	-17	39	126	123	5
-9200	-3424	13440	127	-37	-132	-15224	976	-5828	-11	-63	-50	-2560	-3520	16136	31	-145	213	-8164	4340	13128	-82	156	-249	-15576	2308	-5344	57	-3	146	-2632	6688	15568	204	28	24	126	124	5
-9232	-3492	13584	118	-40	-161	-15204	944	-5800	13	-54	-45	-2552	-3568	16100	26	-176	179	-8132	4332	13136	-80	111	-207	-15604	2188	-5492	40	-8	119	-2516	6720	15584	205	-31	38	126	123	5
-9220	-3440	13472	143	-36	-174	-15216	940	-5824	-18	-72	-21	-2516	-3516	16120	61	-127	168	-8128	4348	13052	-95	102	-241	-15576	2216	-5500	55	-61	141	-2568	6652	15700	185	-1	57	126	124	5
-9196	-3428	13528	123	-73	-152	-15212	916	-5824	5	-86	-41	-2564	-3496	16224	63	-132	169	-8144	4304	13032	-74	157	-236	-15640	2236	-5344	75	-24	132	-2544	6616	15628	194	-1	25	126	124	5
-9212	-3412	13488	137	-88	-155	-15204	920	-5840	16	-94	-47	-2500	-3464	16216	10	-133	187	-8132	4284	13112	-43	154	-239	-15548	2192	-5456	70	-59	99	-2532	6620	15600	211	-3	27	126	124	5
-9192	-3416	13520	127	-90	-161	-15132	1004	-5764	19	-27	-21	-2520	-3392	16256	64	-150	157	-8164	4252	13100	-54	142	-213	-15592	2216	-5508	85	-14	113	-2504	6688	15676	194	-31	4	126	123	5
-9208	-3444	13524	149	-80	-154	-15236	952	-5836	-24	-64	-48	-2564	-3360	16160	56	-144	201	-8176	4320	13100	-56	172	-208	-15616	2176	-5312	77	-12	105	-2520	6680	15676	214	-38	6	126	123	5
-9164	-3452	13488	121	-69	-164	-15256	996	-5724	-41	-42	-48	-2560	-3456	16308	-3	-127	174	-8104	4356	13032	-73	169	-215	-15616	2316	-5408	74	-6	129	-2504	6740	15572	230	-2	38	126	123	5
-9232	-3440	13456	90	-47	-162	-15204	928	-5880	-14	-33	-83	-2500	-3476	16168	-4	-143	216	-8160	4300	13012	-88	140	-211	-15660	2308	-5524	44	8	134	-2576	6768	15624	237	-20	48	126	124	5
-9204	-3408	13500	109	-4	-151	-15180	948	-5828	-20	-48	-25	-2544	-3508	16204	7	-133	156	-8132	4280	13108	-136	155	-177	-15608	2256	-5436	95	-7	116	-2504	6692	15492	172	-3	45	126	123	5
-9144	-3420	13420	114	-41	-158	-15244	972	-5880	-15	-18	-29	-2512	-3488	16268	48	-141	187	-8156	4264	13080	-140	136	-218	-15616	2220	-5540	75	-25	104	-2600	6712	15628	162	-8	33	126	124	5
-9236	-3400	13540	132	-73	-174	-15188	884	-5796	-40	-30	-57	-2508	-3528	16092	41	-133	200	-8180	4304	13092	-91	162	-223	-15572	2260	-5448	91	-46	104	-2532	6628	15572	183	0	49	126	123	5
-9252	-3436	13408	96	-69	-132	-15192	956	-5816	-26	-45	-33	-2580	-3468	16208	56	-161	161	-8072	4336	13068	-85	138	-231	-15676	2244	-5408	73	-17	100	-2528	6656	15588	163	7	15	126	123	5
-9232	-3420	13496	84	-65	-134	-15272	924	-5792	-5	-33	-6	-2544	-3476	16220	22	-154	171	-8168	4300	13008	-77	149	-188	-15648	2200	-5344	81	-11	125	-2504	6668	15564	171	1	45	126	123	5
-9228	-3432	13396	124	-44	-154	-15236	932	-5820	-67	-34	-38	-2568	-3444	16180	14	-144	185	-8192	4336	13048	-72	144	-221	-15636	2188	-5516	57	-24	126	-2544	6580	15612	191	-1	49	126	124	5
-9204	-3468	13404	122	-42	-160	-15188	912	-5792	-60	-40	-64	-2540	-3452	16064	14	-139	204	-8116	4292	12996	-110	161	-197	-15588	2216	-5384	59	-25	145	-2556	6640	15628	235	0	36	126	123	5
-9224	-3420	13500	158	-100	-141	-15212	896	-5832	-19	-47	-20	-2552	-3552	16200	45	-148	188	-8204	4260	13076	-96	166	-236	-15620	2172	-5484	86	-62	138	-2540	6624	15620	219	-20	43	126	124	5
-9216	-3432	13432	126	-96	-145	-15192	932	-5844	-43	-28	-25	-2516	-3488	16072	32	-113	151	-8200	4348	13032	-54	140	-205	-15692	2288	-5368	107	-34	123	-2556	6636	15632	204	-8	8	126	123	5
-9236	-3376	13560	152	-66	-143	-15172	924	-5892	-6	-84	-2	-2596	-3488	16232	79	-135	173	-8080	4288	13072	-66	146	-222	-15644	2212	-5548	71	-49	150	-2608	6652	15628	181	-12	21	126	123	5
-9244	-3440	13480	179	-110	-172	-15252	936	-5864	-42	-34	-33	-2552	-3408	16188	46	-152	217	-8156	4308	13152	-79	134	-199	-15684	2228	-5316	73	-20	140	-2528	6692	15608	209	-48	1	126	123	5
-9196	-3400	13460	137	-65	-148	-15208	960	-5872	-8	-51	-26	-2576	-3448	16220	92	-130	187	-8084	4296	13076	-69	167	-202	-15616	2236	-5456	84	-10	112	-2536	6624	15684	220	0	54	126	123	5
-9160	-3328	13456	105	-55	-136	-15208	932	-5844	8	-69	-21	-2540	-3492	16316	87	-119	169	-8140	4352	13020	-68	138	-196	-15604	2248	-5484	103	8	130	-2544	6748	15584	217	-28	19	126	123	5
-9200	-3392	13416	150	-57	-153	-15208	864	-5676	8	-57	-23	-2484	-3468	16272	53	-123	203	-8136	4328	13136	-86	190	-154	-15580	2232	-5440	98	4	129	-2524	6680	15640	248	15	33	126	123	5
-9204	-3424	13492	150	-44	-138	-15228	912	-5728	-32	-55	-51	-2536	-3452	16196	44	-127	160	-8188	4316	13112	-77	163	-217	-15600	2192	-5496	100	13	126	-2560	6728	15632	176	18	19	126	123	5
-9208	-3436	13344	146	-80	-141	-15180	900	-5788	-8	-21	2	-2580	-3492	16220	45	-124	191	-8148	4372	13120	-92	120	-252	-15640	2284	-5392	98	-8	119	-2484	6684	15528	197	9	65	126	123	5
-9144	-3396	13432	122	-43	-132	-15200	984	-5820	10	-32	-6	-2556	-3432	16232	23	-132	168	-8120	4248	12972	-59	113	-229	-15484	2244	-5496	80	-20	96	-2592	6736	15644	201	-27	69	126	124	5
-9200	-3392	13504	159	-70	-136	-15164	984	-5856	-51	-36	-52	-2572	-3484	16260	40	-132	179	-8176	4264	12976	-83	162	-231	-15604	2228	-5356	102	0	120	-2612	6720	15564	186	33	11	126	123	5
-9256	-3336	13416	136	-36	-180	-15220	952	-5776	2	-44	12	-2572	-3380	16124	35	-145	167	-8192	4360	12984	-73	147	-200	-15572	2260	-5404	69	-51	124	-2516	6620	15612	173	-19	15	126	123	5
-9280	-3388	13424	125	-84	-166	-15200	976	-5732	-11	-30	-85	-2528	-3384	16116	40	-137	176	-8152	4232	13072	-76	140	-240	-15636	2288	-5392	125	-36	102	-2524	6588	15696	159	4	14	126	124	5
-9156	-3444	13548	109	-50	-169	-15252	984	-5800	25	-37	-49	-2508	-3464	16292	36	-145	189	-8172	4224	13032	-77	154	-213	-15588	2252	-5472	66	-4	97	-2524	6644	15636	196	1	31	126	123	5
-9120	-3424	13428	103	-30	-136	-15192	912	-5812	3	-36	-39	-2536	-3472	16108	3	-102	181	-8232	4292	13128	-150	152	-195	-15620	2248	-5372	41	16	104	-2488	6644	15632	214	-16	29	126	124	5
-9144	-3408	13416	92	-26	-122	-15216	900	-5780	-7	-46	-62	-2536	-3608	16156	-3	-128	195	-8164	4348	13044	-123	171	-222	-15588	2284	-5444	121	4	133	-2556	6704	15496	183	14	51	126	124	5
-9240	-3372	13444	122	-48	-140	-15172	840	-5796	47	-28	-31	-2568	-3624	16136	28	-129	176	-8100	4336	12892	-138	147	-214	-15596	2216	-5440	61	-7	100	-2600	6672	15536	188	8	54	126	124	5
-9208	-3416	13504	148	-66	-176	-15196	860	-5784	9	-8	-19	-2548	-3544	16148	85	-103	200	-8188	4352	13040	-106	151	-210	-15572	2200	-5380	103	31	113	-2560	6664	15664	206	15	37	126	124	5
-9180	-3440	13452	126	-58	-167	-15224	908	-5872	25	-48	-53	-2596	-3524	16200	49	-120	146	-8176	4300	13104	-89	162	-225	-15652	2248	-5444	69	-4	122	-2556	6612	15664	161	12	15	126	124	5
-9176	-3432	13388	143	-78	-134	-15180	984	-5884	-26	-52	-57	-2540	-3464	16176	88	-150	150	-8144	4380	12984	-94	149	-207	-15652	2176	-5404	96	-9	117	-2580	6612	15652	203	2	48	126	123	5
-9160	-3456	13500	136	-39	-158	-15200	940	-5828	-20	-65	-14	-2560	-3420	16252	57	-153	168	-8188	4312	13076	-52	152	-224	-15624	2216	-5344	61	-23	119	-2548	6620	15672	216	-5	38	126	124	5
-9164	-3440	13508	144	-111	-131	-15236	988	-5872	-27	-29	-59	-2540	-3508	16296	35	-116	191	-8132	4320	13092	-70	147	-237	-15648	2200	-5380	84	-31	160	-2508	6672	15688	213	0	30	126	123	5
-9184	-3484	13572	128	-54	-162	-15196	972	-5848	-47	-37	-33	-2592	-3464	16252	37	-143	202	-8124	4296	13052	-70	114	-210	-15560	2200	-5460	67	-6	145	-2580	6712	15532	239	-19	33	126	124	5
-9224	-3468	13528	116	-66	-152	-15136	924	-5768	15	-74	-41	-2544	-3460	16168	56	-153	171	-8104	4304	13216	-50	136	-226	-15596	2288	-5468	100	-74	144	-2512	6796	15588	177	-32	46	126	123	5
-9216	-3404	13488	135	-108	-164	-15196	952	-5836	22	-42	3	-2588	-3436	16164	57	-167	215	-8156	4292	13088	-81	121	-185	-15588	2272	-5372	75	-39	153	-2540	6696	15640	170	-23	48	126	124	5
-9200	-3436	13496	147	-104	-129	-15172	888	-5756	6	-109	-37	-2568	-3508	16124	29	-149	166	-8152	4296	13016	-104	154	-220	-15664	2220	-5360	104	-48	122	-2564	6740	15508	193	-20	10	126	124	5
-9148	-3456	13588	118	-56	-157	-15236	936	-5836	-34	-80	-56	-2508	-3500	16192	43	-156	176	-8180	4284	13080	-85	118	-215	-15620	2300	-5416	110	-60	122	-2480	6704	15664	183	-3	54	126	123	5
-9196	-3400	13500	164	-128	-115	-15164	916	-5888	0	-53	-43	-2508	-3456	16176	33	-145	162	-8112	4264	13060	-89	140	-208	-15640	2244	-5404	64	-3	109	-2528	6648	15648	224	15	44	126	124	5
-9256	-3472	13440	102	-89	-158	-15240	940	-5812	-33	-58	-41	-2540	-3460	16136	31	-144	190	-8096	4300	13052	-68	159	-189	-15612	2260	-5432	56	6	103	-2492	6660	15612	201	3	49	126	123	5
-9216	-3376	13432	136	-39	-158	-15188	1044	-5788	-15	-14	-42	-2552	-3404	16192	31	-150	198	-8144	4320	13060	-80	182	-229	-15656	2264	-5416	62	-33	86	-2532	6656	15604	232	6	62	126	124	5
-9236	-3384	13456	118	-86	-161	-15236	948	-5812	-18	-22	-25	-2584	-3484	16140	41	-137	163	-8104	4296	13144	-111	157	-199	-15584	2268	-5472	81	16	111	-2528	6684	15524	211	11	49	126	124	5
-9172	-3416	13468	135	-68	-161	-15192	900	-5764	-27	-25	-56	-2496	-3492	16244	41	-121	235	-8136	4324	13152	-75	158	-204	-15596	2264	-5500	65	-13	103	-2548	6656	15664	203	32	20	126	124	5
-9188	-3360	13452	132	-48	-155	-15236	900	-5844	-20	-15	-23	-2560	-3452	16248	35	-144	177	-8128	4268	13008	-89	168	-192	-15624	2200	-5480	100	-26	117	-2520	6644	15584	223	3	20	126	123	5
-9212	-3436	13516	138	-40	-183	-15176	936	-5760	-4	-28	-13	-2540	-3548	16236	28	-117	166	-8140	4308	12996	-70	154	-203	-15580	2184	-5396	73	-37	135	-2564	6684	15604	232	12	12	126	124	5
-9160	-3436	13500	153	-35	-137	-15176	972	-5792	15	-64	-11	-2548	-3532	16324	29	-129	167	-8096	4364	13148	-66	140	-251	-15624	2252	-5420	80	-33	123	-2580	6664	15624	175	-39	13	126	123	5
-9124	-3412	13456	143	-45	-134	-15256	936	-5828	2	-41	3	-2512	-3476	16244	15	-129	161	-8152	4308	13088	-80	159	-215	-15564	2252	-5468	74	-3	109	-2548	6708	15576	214	9	10	126	124	5
-9164	-3352	13408	141	-51	-154	-15160	952	-5760	-31	-18	-6	-2532	-3404	16096	53	-101	184	-8216	4312	13120	-71	135	-227	-15568	2268	-5388	53	2	113	-2520	6656	15632	198	-15	60	126	124	5
-9148	-3448	13404	119	-30	-151	-15232	948	-5788	-22	-49	-34	-2528	-3436	16192	26	-110	180	-8112	4332	12964	-67	158	-221	-15544	2212	-5464	83	13	132	-2512	6652	15720	181	-13	41	127	124	5
-9224	-3424	13472	132	-20	-184	-15204	964	-5732	-4	-41	-22	-2496	-3516	16200	62	-142	164	-8196	4300	13064	-91	148	-199	-15664	2224	-5316	71	-8	121	-2536	6668	15580	169	-7	33	126	123	5
-9184	-3380	13536	119	-54	-182	-15168	988	-5736	12	-49	-18	-2576	-3504	16216	76	-145	192	-8120	4364	13064	-72	164	-220	-15668	2188	-5440	95	-47	133	-2572	6700	15696	201	-51	17	126	123	5
-9208	-3360	13408	150	-102	-133	-15200	928	-5828	10	-42	-42	-2528	-3428	16220	9	-128	154	-8140	4272	13100	-82	131	-194	-15588	2272	-5512	84	-16	129	-2516	6728	15632	178	-27	26	126	123	5
-9228	-3436	13412	161	-62	-170	-15252	952	-5880	19	-31	13	-2560	-3476	16236	24	-142	179	-8120	4268	13088	-65	165	-237	-15668	2256	-5424	92	-59	144	-2556	6744	15528	192	9	21	126	123	5
-9208	-3468	13524	120	-47	-140	-15192	920	-5748	-43	-27	-52	-2572	-3436	16152	27	-146	156	-8180	4352	12964	-99	138	-224	-15592	2252	-5424	84	3	124	-2540	6712	15608	202	6	14	126	123	5
-9252	-3420	13412	136	-60	-154	-15196	960	-5816	-5	-51	-73	-2612	-3508	16168	15	-142	168	-8152	4336	12968	-90	133	-196	-15640	2292	-5400	72	-17	102	-2564	6720	15608	180	-25	57	126	124	5
-9140	-3464	13484	122	-82	-135	-15208	952	-5776	-56	-45	-78	-2540	-3500	16108	58	-118	192	-8192	4324	13120	-81	162	-244	-15644	2224	-5324	73	-7	113	-2548	6680	15504	202	11	46	126	124	5
-9256	-3424	13468	121	-57	-148	-15208	964	-5780	-33	-63	-26	-2540	-3484	16168	48	-152	171	-8212	4332	13060	-90	135	-251	-15572	2212	-5412	93	-33	109	-2520	6620	15612	140	-20	39	127	123	5
-9188	-3440	13404	97	-95	-130	-15228	976	-5800	11	-59	-60	-2520	-3492	16340	75	-168	144	-8128	4312	12980	-84	149	-190	-15616	2280	-5536	82	9	115	-2556	6660	15592	148	-35	19	126	123	5
-9168	-3400	13444	123	-91	-161	-15204	948	-5832	-38	-16	-10	-2536	-3444	16220	18	-124	146	-8168	4304	13084	-98	157	-208	-15532	2228	-5460	83	17	104	-2588	6636	15624	176	-62	26	126	124	5
-9248	-3468	13508	108	-22	-158	-15224	960	-5812	-14	-45	-22	-2572	-3504	16216	-31	-164	165	-8136	4284	13052	-68	143	-214	-15640	2244	-5372	91	-32	119	-2528	6712	15652	180	-49	-3	126	124	5
-9212	-3476	13536	123	-79	-130	-15192	896	-5868	5	-49	10	-2584	-3424	16244	1	-142	154	-8084	4240	13036	-101	160	-228	-15648	2264	-5424	72	-26	129	-2528	6644	15644	191	-14	12	126	124	5
-9272	-3392	13556	135	-102	-152	-15228	900	-5904	-17	-47	-45	-2528	-3412	16124	9	-130	160	-8116	4320	13112	-81	126	-222	-15560	2268	-5384	66	-17	107	-2480	6660	15756	195	-36	3	126	124	5
-9288	-3464	13488	147	-75	-138	-15212	968	-5912	-14	-57	-29	-2520	-3512	16120	53	-109	120	-8144	4316	12996	-77	164	-220	-15552	2228	-5460	69	28	117	-2540	6720	15620	210	-21	7	126	124	5
-9216	-3384	13448	121	-25	-164	-15204	900	-5716	-1	-34	-32	-2540	-3524	16224	80	-132	174	-8148	4328	13180	-127	167	-217	-15640	2292	-5508	69	-16	116	-2568	6684	15584	181	11	3	126	124	5
-9180	-3452	13500	130	-103	-151	-15224	948	-5828	5	-47	-37	-2560	-3504	16108	41	-131	190	-8172	4320	13128	-137	187	-226	-15604	2212	-5468	66	-28	99	-2588	6672	15460	137	17	50	126	123	5
-9188	-3372	13568	127	-38	-136	-15236	940	-5836	52	-84	7	-2512	-3500	16076	-11	-170	154	-8088	4324	13040	-109	184	-239	-15648	2236	-5404	65	-31	108	-2576	6612	15748	162	-4	15	126	123	5
-9128	-3432	13408	119	-35	-171	-15228	888	-5868	13	-67	-35	-2440	-3412	16188	14	-133	169	-8124	4380	12984	-92	159	-233	-15624	2200	-5320	89	-6	144	-2492	6620	15688	169	-23	48	126	124	5
-9112	-3344	13500	118	-27	-123	-15144	928	-5828	-32	-24	-40	-2532	-3436	16156	43	-178	140	-8128	4288	13124	-134	173	-196	-15588	2268	-5364	99	-42	129	-2496	6688	15828	200	1	3	126	124	5
-9224	-3412	13460	117	-78	-152	-15240	960	-5804	-11	17	-27	-2528	-3444	16132	31	-150	155	-8052	4296	13016	-65	179	-191	-15676	2240	-5476	80	-39	112	-2544	6700	15632	194	-34	16	126	123	5
-9216	-3416	13488	146	-73	-117	-15208	1000	-5896	-5	-21	-57	-2596	-3504	16212	29	-129	177	-8144	4328	13144	-78	150	-219	-15596	2268	-5516	88	-12	138	-2564	6684	15540	184	-32	-3	126	124	5
-9240	-3424	13360	132	-55	-121	-15200	980	-5908	-2	-50	-48	-2588	-3540	16136	7	-109	155	-8144	4308	13064	-92	131	-220	-15612	2228	-5408	76	-8	94	-2588	6612	15592	225	-13	18	126	124	5
-9208	-3480	13488	120	-82	-160	-15160	972	-5836	-54	-48	-50	-2624	-3500	16192	23	-165	176	-8172	4364	13008	-76	135	-219	-15604	2252	-5348	76	-17	137	-2560	6652	15680	157	-10	44	126	123	5
-9204	-3460	13508	150	-65	-155	-15160	952	-5908	-36	-102	-37	-2540	-3508	16120	59	-133	218	-8204	4296	13176	-61	163	-236	-15604	2188	-5416	60	-19	96	-2584	6684	15640	192	3	34	126	124	5
-9228	-3448	13492	134	-75	-133	-15176	836	-5812	-31	-56	-18	-2496	-3532	16256	69	-145	174	-8096	4336	12976	-96	145	-186	-15636	2216	-5492	76	-44	116	-2500	6560	15736	199	7	34	126	124	5
-9160	-3472	13516	111	-118	-133	-15244	908	-5844	-51	-43	-28	-2448	-3512	16160	123	-145	196	-8160	4256	13052	-78	140	-198	-15596	2236	-5360	62	-24	124	-2496	6648	15672	193	26	54	126	124	5
-9184	-3432	13528	101	-42	-122	-15244	900	-5836	-38	-80	-60	-2548	-3504	16248	73	-142	178	-8184	4328	13076	-71	121	-173	-15644	2208	-5468	61	-2	141	-2592	6616	15676	234	-9	31	126	123	5
-9192	-3360	13552	175	-104	-131	-15292	944	-5820	-32	-75	26	-2556	-3512	16076	17	-146	199	-8172	4344	13148	-74	157	-235	-15628	2232	-5436	77	-13	148	-2528	6596	15588	251	-16	4	126	123	5
-9204	-3492	13556	143	-64	-108	-15232	932	-5760	-18	-39	16	-2512	-3536	16132	52	-115	170	-8136	4272	13056	-55	145	-205	-15644	2292	-5412	70	-9	162	-2640	6728	15688	241	2	33	126	123	5
-9184	-3448	13516	149	-83	-137	-15172	976	-5872	37	-45	-41	-2608	-3488	16104	69	-104	158	-8120	4340	13140	-116	147	-223	-15644	2248	-5456	101	2	152	-2520	6720	15636	193	-18	68	126	123	5
-9176	-3400	13416	130	-36	-173	-15252	964	-5768	33	-25	5	-2556	-3468	16268	66	-126	191	-8096	4292	13060	-104	149	-203	-15620	2252	-5408	79	-11	150	-2520	6744	15556	233	-22	59	126	123	5
-9188	-3444	13364	138	-84	-170	-15176	1016	-5828	-13	-76	-29	-2580	-3400	16228	78	-140	188	-8168	4252	13056	-106	156	-228	-15580	2236	-5392	49	-1	126	-2568	6764	15556	205	-13	44	126	123	5
-9252	-3464	13444	92	-32	-181	-15272	944	-5828	-56	-55	-33	-2544	-3328	16168	44	-106	157	-8112	4328	12964	-100	132	-182	-15684	2284	-5400	71	-17	125	-2528	6728	15588	187	2	42	126	124	5
-9240	-3440	13404	122	-55	-143	-15272	992	-5692	-27	-45	-78	-2540	-3400	16224	3	-137	185	-8100	4312	12988	-113	138	-200	-15640	2300	-5540	91	-22	98	-2572	6724	15520	179	-14	3	126	124	5
-9168	-3432	13488	119	-22	-155	-15168	944	-5860	-31	-40	-30	-2552	-3444	16212	17	-138	188	-8104	4316	13000	-102	145	-203	-15600	2236	-5432	61	-41	114	-2568	6672	15588	165	-28	28	126	123	5
-9192	-3412	13492	76	-42	-158	-15244	1020	-5920	-41	-25	-73	-2632	-3528	16232	-14	-151	180	-8152	4316	13136	-105	174	-217	-15580	2200	-5368	87	-7	87	-2612	6728	15624	169	-33	49	126	124	5
-9240	-3460	13476	112	-124	-153	-15136	980	-5716	-46	-38	-57	-2536	-3488	16208	38	-171	148	-8132	4268	13012	-94	138	-205	-15560	2192	-5528	109	23	97	-2600	6696	15672	171	-4	61	126	124	5
-9208	-3424	13436	98	-81	-147	-15212	924	-5900	-36	-31	-82	-2616	-3488	16160	1	-159	191	-8136	4308	13052	-65	144	-201	-15560	2280	-5484	108	-10	100	-2560	6620	15684	164	5	44	126	124	5
-9200	-3436	13396	104	-46	-145	-15188	932	-5824	-17	-1	-95	-2596	-3528	16156	49	-120	194	-8120	4356	13044	-87	178	-205	-15624	2224	-5444	75	-21	116	-2556	6616	15556	193	-14	36	126	123	5
-9256	-3472	13492	132	-33	-159	-15136	900	-5840	-33	-62	-70	-2540	-3480	16272	19	-176	178	-8188	4312	13024	-81	122	-226	-15644	2208	-5460	55	-41	112	-2608	6636	15556	170	-4	44	126	123	5
-9168	-3420	13400	113	-95	-138	-15180	936	-5812	-52	-36	-45	-2536	-3532	16152	44	-170	189	-8180	4344	13060	-106	135	-211	-15620	2148	-5336	34	-40	94	-2500	6624	15644	175	-18	60	126	124	5
-9232	-3480	13484	124	-83	-169	-15124	856	-5752	-67	-90	-51	-2464	-3516	16164	53	-180	208	-8104	4232	13096	-74	136	-200	-15668	2188	-5348	64	-10	141	-2552	6680	15628	194	-42	46	126	124	5
-9164	-3468	13500	96	-44	-164	-15260	920	-5732	-48	-58	-42	-2472	-3552	16208	70	-153	180	-8128	4272	13108	-86	163	-209	-15620	2236	-5280	54	-12	151	-2528	6608	15600	211	27	38	126	123	5
-9192	-3420	13404	119	-99	-118	-15236	824	-5732	29	-32	-38	-2556	-3484	16148	34	-137	178	-8140	4348	13112	-96	133	-221	-15624	2224	-5520	87	8	148	-2512	6596	15728	215	14	44	126	124	5
-9192	-3488	13428	131	-107	-152	-15172	888	-5708	1	-39	-7	-2508	-3540	16212	45	-179	202	-8152	4292	13048	-64	145	-243	-15592	2224	-5464	83	-42	164	-2520	6744	15520	208	5	15	126	123	5
-9204	-3416	13504	137	-77	-156	-15220	992	-5828	5	-29	-11	-2540	-3424	16200	50	-133	193	-8108	4356	13136	-83	165	-213	-15620	2268	-5500	83	3	101	-2568	6776	15652	204	3	24	126	123	5
-9188	-3436	13404	123	-43	-133	-15156	988	-5752	12	-67	-17	-2584	-3484	16224	49	-79	188	-8120	4364	13004	-101	148	-202	-15640	2284	-5404	105	-27	107	-2520	6664	15520	190	23	17	126	123	5
-9216	-3468	13508	109	-9	-143	-15216	988	-5788	-36	-46	-24	-2552	-3472	16156	78	-136	187	-8160	4224	13040	-72	168	-210	-15640	2236	-5452	60	-22	135	-2516	6708	15532	189	7	49	126	123	5
-9268	-3344	13452	140	-54	-156	-15232	936	-5620	-3	-51	-53	-2492	-3448	16188	75	-136	217	-8132	4272	13104	-74	157	-238	-15600	2148	-5384	60	10	133	-2512	6716	15604	250	28	55	126	123	5
-9208	-3476	13568	116	-42	-150	-15208	920	-5752	-28	-9	-26	-2548	-3488	16104	56	-113	184	-8148	4292	13040	-92	150	-203	-15584	2224	-5508	42	6	136	-2512	6676	15656	235	-3	46	126	124	5
-9148	-3396	13456	109	-37	-163	-15212	868	-5816	20	6	5	-2500	-3544	16224	35	-46	186	-8116	4296	13100	-92	159	-229	-15640	2288	-5468	37	-13	117	-2532	6708	15556	214	6	10	126	124	5
-9196	-3440	13388	109	-80	-148	-15232	924	-5928	14	-51	3	-2564	-3448	16148	13	-97	180	-8108	4324	13028	-134	180	-231	-15580	2204	-5448	65	31	111	-2628	6668	15604	205	8	28	126	124	5
-9280	-3452	13472	98	-19	-124	-15184	1012	-5860	-27	-30	-21	-2588	-3528	16148	39	-107	175	-8160	4360	12984	-103	155	-202	-15648	2284	-5420	56	-15	134	-2612	6720	15692	193	-12	26	126	124	5
-9228	-3440	13496	135	-62	-138	-15292	964	-5816	19	-30	-34	-2648	-3460	16148	38	-103	149	-8216	4328	13016	-77	188	-225	-15624	2264	-5476	74	1	120	-2584	6700	15536	150	-33	5	126	123	5
-9132	-3452	13536	112	3	-117	-15208	1024	-5704	14	-50	-34	-2612	-3392	16252	35	-136	177	-8128	4344	13012	-102	174	-202	-15584	2268	-5480	102	-20	88	-2616	6712	15576	176	-48	22	126	123	5
-9168	-3504	13348	120	-82	-122	-15196	944	-5784	-11	-38	-54	-2608	-3388	16120	44	-131	184	-8140	4332	12976	-112	131	-243	-15568	2308	-5448	77	12	118	-2548	6608	15688	192	-29	28	126	124	5
-9160	-3420	13480	107	-43	-173	-15216	1020	-5812	-43	-67	-49	-2624	-3412	16204	29	-162	202	-8100	4320	13148	-87	136	-259	-15568	2200	-5384	85	-51	97	-2520	6632	15680	180	-43	49	126	123	5
-9216	-3412	13456	151	-114	-145	-15204	928	-5940	13	-43	-64	-2572	-3464	16132	3	-173	180	-8148	4264	13072	-44	147	-245	-15620	2244	-5452	82	11	118	-2592	6664	15620	182	-2	24	126	123	5
-9204	-3416	13460	143	-48	-147	-15196	944	-5848	-64	-66	-49	-2492	-3436	16200	9	-169	177	-8216	4288	13092	-44	152	-212	-15548	2220	-5500	82	-36	104	-2568	6608	15592	180	-32	27	126	124	5
-9164	-3460	13392	113	-23	-158	-15204	896	-5804	-42	-60	-65	-2488	-3536	16088	13	-154	164	-8112	4312	13016	-105	101	-215	-15628	2256	-5484	52	-11	133	-2568	6640	15728	163	-59	6	126	123	5
-9164	-3460	13340	137	-77	-167	-15248	932	-5808	-10	-59	-49	-2524	-3568	16224	17	-168	153	-8208	4372	13204	-79	117	-217	-15576	2200	-5412	111	-38	102	-2540	6624	15624	149	-61	47	126	123	5
-9232	-3416	13420	131	-72	-142	-15200	872	-5824	-14	-73	-22	-2552	-3544	16108	38	-175	173	-8188	4312	13072	-69	133	-186	-15628	2252	-5452	80	-81	131	-2508	6660	15616	188	-33	22	126	123	5
-9180	-3408	13484	120	-65	-117	-15192	904	-5676	-21	-69	-24	-2500	-3488	16196	41	-155	174	-8152	4264	13096	-40	119	-210	-15604	2240	-5428	80	-57	170	-2476	6600	15644	180	6	55	126	123	5
-9180	-3420	13356	117	-44	-165	-15280	928	-5796	-30	-56	-69	-2468	-3452	16124	51	-170	190	-8096	4300	13036	-82	142	-210	-15644	2200	-5448	84	-4	139	-2468	6636	15660	225	-24	43	126	124	5
-9164	-3452	13428	168	-74	-170	-15300	884	-5832	-25	-56	-17	-2508	-3480	16092	80	-137	207	-8108	4328	12980	-95	177	-216	-15584	2288	-5372	58	-39	160	-2572	6680	15488	199	9	26	126	124	5
-9128	-3420	13472	110	-74	-144	-15272	928	-5812	-32	-44	-5	-2524	-3464	16148	81	-110	183	-8188	4300	13016	-41	173	-216	-15612	2244	-5508	76	-25	145	-2464	6652	15700	205	-3	10	126	124	5
-9252	-3424	13544	139	-63	-130	-15196	988	-5704	-41	-42	-24	-2588	-3444	16160	23	-142	181	-8192	4332	13060	-84	148	-216	-15572	2256	-5480	98	-24	132	-2504	6732	15608	270	-4	40	126	123	5
-9220	-3468	13508	134	-53	-137	-15188	1004	-5808	13	-60	-19	-2544	-3500	16128	34	-119	206	-8108	4336	13104	-72	151	-206	-15564	2300	-5500	75	-27	150	-2524	6708	15668	199	9	51	126	123	5
-9228	-3464	13460	132	-82	-121	-15196	1000	-5832	-11	-50	-30	-2548	-3480	16216	34	-109	155	-8100	4284	13168	-75	186	-216	-15600	2316	-5452	98	-25	114	-2532	6712	15596	212	-29	44	126	124	5
-9192	-3456	13436	151	-55	-111	-15164	924	-5792	-32	-63	-2	-2540	-3424	16176	61	-102	180	-8168	4252	13012	-75	150	-225	-15644	2212	-5404	56	-23	133	-2532	6744	15560	153	-10	19	126	124	5
-9184	-3444	13436	105	-87	-132	-15164	984	-5640	-33	-14	-36	-2512	-3436	16220	62	-120	210	-8192	4288	13048	-107	158	-204	-15604	2300	-5428	85	-9	155	-2488	6668	15620	159	21	24	126	123	5
-9236	-3408	13456	129	-80	-128	-15212	952	-5756	17	-34	-79	-2516	-3376	16216	29	-137	172	-8108	4264	13012	-132	133	-233	-15584	2228	-5516	95	-32	127	-2560	6756	15704	222	12	5	126	124	5
-9184	-3388	13428	133	-29	-153	-15244	960	-5768	4	-35	-37	-2564	-3464	16220	2	-103	177	-8160	4300	13060	-101	167	-224	-15588	2256	-5428	82	-3	128	-2528	6716	15528	194	-22	57	126	123	5
-9236	-3424	13280	112	-89	-158	-15232	892	-5812	11	-37	-82	-2604	-3528	16080	40	-119	170	-8100	4336	13048	-64	152	-251	-15580	2248	-5400	92	13	113	-2592	6676	15660	185	-40	61	126	123	5
-9192	-3400	13456	83	-66	-191	-15244	884	-5816	-12	-50	-65	-2516	-3564	16100	25	-138	148	-8176	4288	13112	-89	164	-242	-15624	2212	-5336	89	-19	102	-2548	6664	15508	208	-12	5	126	123	5
-9168	-3392	13468	103	-50	-145	-15136	892	-5852	-39	-48	-5	-2532	-3568	16176	9	-139	156	-8164	4220	13044	-67	132	-221	-15640	2212	-5504	95	-45	128	-2588	6692	15628	189	-36	64	126	124	5
-9180	-3428	13396	138	-54	-130	-15232	900	-5876	17	-23	-18	-2572	-3532	16004	48	-143	195	-8128	4288	13072	-71	136	-227	-15644	2208	-5340	77	-27	118	-2540	6584	15624	170	-47	68	126	123	5
-9184	-3368	13480	133	-73	-172	-15232	864	-5788	18	-51	-4	-2540	-3528	16164	83	-156	156	-8212	4312	13124	-61	141	-197	-15612	2208	-5420	84	-41	145	-2580	6596	15580	198	-25	55	126	123	5
-9196	-3364	13452	142	-61	-146	-15184	928	-5864	16	-63	16	-2476	-3444	16184	65	-179	202	-8136	4332	13132	-78	134	-207	-15568	2252	-5456	75	-35	156	-2556	6660	15556	202	-29	18	126	124	5
-9232	-3416	13496	133	-69	-139	-15252	928	-5724	-16	-54	36	-2580	-3428	16160	38	-138	138	-8152	4324	13084	-45	144	-213	-15636	2228	-5372	98	-21	154	-2552	6732	15628	213	-59	26	126	124	5
-9220	-3380	13412	139	-64	-129	-15176	932	-5816	3	-37	-15	-2528	-3520	16228	16	-127	124	-8136	4204	13088	-92	146	-225	-15636	2232	-5420	95	-19	143	-2452	6768	15600	166	-33	15	126	123	5
-9204	-3452	13440	123	-86	-127	-15140	932	-5792	28	-69	-26	-2516	-3432	16204	-11	-112	165	-8128	4308	13028	-79	172	-226	-15596	2264	-5332	110	-41	146	-2524	6764	15516	168	-25	36	126	123	5
-9192	-3448	13452	171	-91	-148	-15164	976	-5784	31	-23	8	-2532	-3476	16276	73	-134	170	-8180	4352	12940	-98	142	-238	-15604	2320	-5404	73	11	110	-2420	6860	15592	211	7	56	127	124	5
-9172	-3484	13440	134	-82	-167	-15188	932	-5864	36	-26	-4	-2472	-3376	16036	17	-146	175	-8224	4348	13048	-96	141	-210	-15624	2304	-5356	68	1	84	-2508	6792	15664	181	18	56	126	124	5
-9236	-3420	13504	132	-10	-158	-15208	988	-5740	19	-26	-51	-2524	-3476	16292	26	-103	199	-8112	4292	13024	-92	172	-232	-15608	2268	-5408	65	24	84	-2480	6700	15668	167	39	65	126	123	5
-9192	-3392	13340	136	-98	-145	-15192	944	-5892	-23	-24	-35	-2488	-3540	16256	5	-100	181	-8200	4356	13076	-130	181	-258	-15604	2240	-5308	53	35	52	-2508	6620	15640	216	52	36	126	124	5
-9220	-3448	13556	117	-21	-146	-15260	904	-5724	-10	-36	-39	-2452	-3512	16168	32	-67	174	-8148	4300	13032	-55	158	-238	-15616	2176	-5404	35	39	74	-2552	6632	15600	205	43	54	126	124	5
-9164	-3420	13460	108	-20	-183	-15176	972	-5708	10	-42	-26	-2504	-3432	16220	54	-115	164	-8164	4284	13096	-129	158	-239	-15580	2200	-5396	56	13	82	-2588	6612	15632	164	54	19	126	124	5
-9168	-3412	13468	94	-65	-178	-15152	852	-5788	-10	-23	12	-2528	-3508	16152	31	-99	181	-8120	4344	13160	-148	162	-209	-15640	2192	-5468	36	-15	72	-2624	6624	15592	205	23	27	126	124	5
-9256	-3452	13504	128	-95	-167	-15248	948	-5756	6	-26	11	-2592	-3444	16200	33	-104	171	-8220	4324	12984	-145	167	-240	-15564	2180	-5472	48	50	128	-2580	6620	15636	212	24	2	126	123	5
-9204	-3376	13400	103	-19	-180	-15192	940	-5792	34	-28	-17	-2620	-3484	16140	18	-155	171	-8140	4252	13056	-130	170	-248	-15576	2236	-5444	61	11	116	-2568	6624	15692	197	13	11	126	124	5
-9240	-3436	13436	127	-61	-109	-15192	1020	-5728	8	-41	-45	-2592	-3472	16168	7	-129	194	-8144	4352	13048	-83	177	-170	-15672	2244	-5436	102	-22	100	-2664	6660	15592	178	-13	35	126	123	5
-9184	-3432	13548	133	-61	-142	-15232	996	-5924	-48	-38	-35	-2640	-3448	16172	33	-155	193	-8140	4312	13140	-68	125	-221	-15628	2256	-5472	64	-42	101	-2652	6640	15500	172	-18	78	126	124	5
-9212	-3456	13440	95	-97	-174	-15224	1032	-5848	-28	-70	-87	-2628	-3468	16108	64	-163	173	-8148	4340	13124	-79	116	-199	-15644	2224	-5488	92	-41	126	-2592	6572	15552	171	-55	25	126	124	5
-9168	-3440	13516	107	-51	-156	-15176	1008	-5752	-19	-48	-72	-2524	-3532	16212	51	-180	195	-8172	4276	13012	-60	135	-189	-15636	2160	-5420	122	-62	90	-2504	6712	15648	186	-15	38	126	124	5
-9260	-3448	13568	114	-56	-122	-15144	900	-5756	-11	-56	-57	-2532	-3460	16144	24	-189	155	-8148	4336	13080	-54	132	-213	-15532	2228	-5596	88	-59	106	-2608	6692	15608	166	-37	34	126	124	5
