#Activity	standing 
#ActivityID	8 
#Date 10-10-17-59
acc_rf_x	acc_rf_y	acc_rf_z	gyro_rf_x	gyro_rf_y	gyro_rf_z	acc_rs_x	acc_rs_y	acc_rs_z	gyro_rs_x	gyro_rs_y	gyro_rs_z	acc_rt_x	acc_rt_y	acc_rt_z	gyro_rt_x	gyro_rt_y	gyro_rt_z	acc_lf_x	acc_lf_y	acc_lf_z	gyro_lf_x	gyro_lf_y	gyro_lf_z	acc_ls_x	acc_ls_y	acc_ls_z	gyro_ls_x	gyro_ls_y	gyro_ls_z	acc_lt_x	acc_lt_y	acc_lt_z	gyro_lt_x	gyro_lt_y	gyro_lt_z	EMG_r	EMG_l	act
-9768	-3100	12108	-150	197	-195	-16068	488	536	-8	48	-68	-15612	1392	-3808	22	45	149	-9228	3584	13568	91	-21	-212	-16536	-392	136	10	78	14	-15596	-224	-4244	71	89	-85	126	128	8
-9664	-3040	12152	-93	144	-173	-16108	696	492	195	64	-73	-15700	1296	-3904	-94	8	50	-9244	3484	13496	74	-65	-185	-16572	-380	8	77	136	27	-15612	-76	-4388	190	122	-49	127	127	8
-9776	-3048	12160	-89	143	-177	-16316	740	408	200	34	-79	-15740	1256	-3920	-76	-48	-37	-9200	3468	13500	117	-75	-190	-16752	-408	100	56	125	-42	-15672	-136	-4512	319	96	-63	126	127	8
-9708	-3056	12196	-161	132	-173	-16404	804	252	15	-40	-84	-15848	1248	-4004	-94	29	-82	-9320	3500	13440	90	-27	-177	-16804	-328	36	-65	109	-8	-15700	-16	-4768	251	129	-61	127	127	8
-9804	-3056	12064	-160	198	-202	-16336	744	364	-303	-94	-121	-15676	1116	-3976	-75	82	-17	-9252	3512	13468	110	8	-172	-16616	-560	-68	-112	80	-68	-15616	-208	-4736	220	50	-53	126	127	8
-9692	-3124	12132	-134	176	-200	-16128	576	492	-450	-101	-84	-15504	724	-3880	13	52	37	-9340	3436	13544	88	-19	-138	-16548	-664	64	164	41	-33	-15588	-316	-4708	367	-71	-19	127	127	8
-9704	-3156	12232	-89	117	-199	-16096	368	596	-301	-86	-63	-15740	608	-3744	-45	51	-32	-9240	3468	13592	104	-63	-158	-16688	-612	0	363	98	4	-15600	-504	-4596	432	-141	17	127	127	8
-9756	-3128	12172	-77	71	-171	-16164	368	804	193	7	-92	-15892	760	-3512	253	98	202	-9216	3560	13420	155	-41	-133	-16660	-448	-52	294	81	60	-15572	-364	-4556	463	-188	103	127	127	8
-9724	-3188	12104	-23	36	-199	-16248	588	764	204	55	-67	-16040	860	-3588	485	57	355	-9156	3508	13436	85	-65	-161	-16676	-508	64	180	43	39	-15580	-328	-4700	465	-238	168	127	127	8
-9700	-3044	12140	-39	63	-193	-16144	704	812	66	146	-59	-15888	820	-3496	603	119	443	-9176	3432	13540	143	-27	-104	-16648	-524	-168	152	65	46	-15568	-188	-4764	613	-298	195	127	127	8
-9700	-3136	12184	26	32	-175	-16180	660	752	79	200	-57	-15968	916	-3536	683	184	599	-9240	3524	13448	167	-20	-149	-16724	-492	-152	210	-27	69	-15568	-200	-4976	655	-276	260	126	127	8
-9752	-3048	12244	12	53	-195	-16288	660	732	250	269	-89	-15884	1204	-3652	624	276	615	-9208	3528	13460	154	-33	-128	-16644	-616	-272	191	-71	73	-15468	-348	-4772	756	-296	257	126	127	8
-9676	-3084	12180	13	90	-185	-16240	604	464	310	320	-105	-15776	1448	-3768	559	249	566	-9248	3512	13492	179	-26	-151	-16796	-680	-200	486	-145	116	-15380	-264	-4828	901	-333	317	126	127	8
-9604	-3076	12304	-38	98	-199	-16332	700	484	308	248	-96	-15664	1492	-3808	283	224	366	-9296	3476	13512	184	-12	-129	-16804	-476	-384	673	-202	178	-15380	-56	-4880	746	-253	375	126	127	8
-9624	-3060	12268	-51	151	-184	-16396	680	476	274	177	-99	-15716	1480	-3892	120	258	226	-9272	3556	13504	152	1	-166	-16660	-432	-200	536	-290	171	-15316	16	-4748	673	-201	279	126	126	8
-9644	-3124	12216	-98	156	-171	-16228	732	172	230	111	-147	-15748	1372	-4000	-10	88	204	-9212	3560	13576	190	8	-160	-16716	-400	-64	388	-281	157	-15480	60	-4612	564	-126	268	126	126	8
-9632	-3132	12284	-123	185	-167	-16268	768	104	-66	109	-95	-15656	1188	-4240	55	73	123	-9228	3552	13536	108	32	-188	-16676	-436	40	313	-412	223	-15540	212	-4536	404	-67	206	126	127	8
-9680	-3180	12152	-101	209	-157	-16216	668	272	-176	35	-105	-15628	1000	-4248	67	-2	143	-9240	3444	13512	150	30	-183	-16760	-568	44	267	-314	214	-15548	72	-4376	405	6	91	126	126	8
-9652	-3092	12196	-131	176	-192	-16168	388	140	90	24	-122	-15652	1040	-4136	94	23	196	-9332	3504	13436	171	10	-191	-16540	-456	196	241	-324	209	-15596	-76	-4304	179	10	-39	126	126	8
-9640	-3020	12148	-162	144	-152	-16268	748	276	339	-36	-159	-15628	1076	-4128	160	2	240	-9216	3496	13444	128	-66	-156	-16608	-360	428	117	-276	191	-15744	-36	-4116	-115	-7	-59	126	125	8
-9664	-3176	12164	-132	181	-201	-16244	984	204	108	-42	-180	-15696	1264	-4148	135	-80	224	-9256	3532	13448	150	-52	-150	-16584	-248	356	-266	-169	177	-15800	-52	-3984	-135	73	-99	126	126	8
-9684	-3068	12208	-184	196	-200	-16300	564	184	-82	-73	-169	-15676	1248	-4060	292	-120	117	-9224	3564	13492	118	-48	-113	-16660	-380	420	-363	-126	163	-15752	-116	-4036	-201	48	-126	126	127	8
-9768	-3088	12224	-180	169	-204	-16232	368	300	-23	-128	-135	-15688	1280	-4032	144	-165	-31	-9284	3516	13556	131	-78	-206	-16592	-364	288	-244	-121	165	-15736	-32	-4228	-233	123	-106	126	126	8
-9704	-3076	12184	-135	159	-192	-16240	464	312	154	-166	-131	-15696	1188	-4004	-70	-228	-119	-9240	3528	13408	79	-53	-194	-16584	-380	324	-208	-11	130	-15712	20	-4124	-144	66	-147	127	127	8
-9680	-3132	12212	-140	134	-232	-16264	716	368	-164	-192	-100	-15852	1212	-3876	-331	-279	-201	-9212	3536	13472	100	-63	-167	-16732	-436	232	-219	-36	137	-15660	-160	-4292	-60	95	-131	127	127	8
-9644	-3156	12160	-166	164	-205	-16336	672	524	-629	-288	-89	-15752	1068	-3696	-649	-311	-221	-9300	3448	13472	71	-63	-231	-16784	-540	-48	-205	15	106	-15652	-308	-4572	-96	100	-127	127	127	8
-9680	-3092	12192	-204	174	-165	-16256	464	584	-819	-292	-53	-15780	940	-3776	-751	-302	-201	-9256	3508	13536	130	-4	-188	-16568	-492	-40	-256	10	122	-15544	-388	-4564	-76	60	-123	127	127	8
-9692	-3084	12104	-150	166	-192	-16092	416	580	-498	-203	-75	-15796	840	-3748	-626	-238	-162	-9336	3456	13568	155	-47	-133	-16540	-492	104	-128	-3	126	-15544	-160	-4532	11	41	-80	127	127	8
-9732	-3128	12204	-177	113	-163	-16228	572	536	-168	-157	-97	-15788	872	-3784	-327	-169	-102	-9264	3600	13360	91	-86	-165	-16560	-512	-16	15	44	130	-15540	-128	-4468	22	-52	-8	127	127	8
-9732	-3120	12240	-100	132	-210	-16176	572	500	56	-134	-85	-15816	864	-3784	-59	-162	19	-9356	3488	13552	123	-51	-170	-16708	-420	44	19	-9	141	-15712	-168	-4592	68	-29	10	127	128	8
-9772	-3176	12124	-86	134	-184	-16240	652	504	36	-66	-71	-15820	856	-3884	205	-167	70	-9228	3484	13520	111	-39	-162	-16728	-456	20	59	-49	162	-15616	-228	-4600	67	-16	-34	127	127	8
-9688	-3112	12244	-121	115	-220	-16236	480	508	176	-77	-71	-15776	812	-3912	329	-135	188	-9288	3436	13480	162	-51	-171	-16596	-468	32	88	-85	140	-15648	-88	-4556	153	-18	4	127	127	8
-9680	-3104	12220	-90	120	-177	-16216	520	484	214	-56	-100	-15792	900	-3980	331	-174	231	-9224	3440	13392	164	-2	-135	-16540	-280	36	20	-73	106	-15544	-144	-4548	129	-38	17	127	127	8
-9732	-3132	12164	-55	142	-183	-16312	600	432	191	-49	-67	-15788	1072	-3828	286	-177	259	-9200	3580	13536	136	-33	-140	-16536	-380	128	-125	-52	140	-15552	-220	-4496	210	-135	72	127	127	8
-9692	-3204	12144	-101	144	-193	-16212	664	508	69	-47	-32	-15824	1140	-3764	46	-160	204	-9288	3532	13496	97	-20	-137	-16812	-596	-80	109	-87	151	-15612	-360	-4480	367	-82	92	127	127	8
-9716	-3100	12196	-97	127	-192	-16296	596	472	-34	-114	-64	-15764	1204	-3860	-105	-133	197	-9268	3556	13668	132	-17	-148	-16792	-560	164	418	-107	138	-15596	-212	-4516	382	-78	73	127	127	8
-9632	-3100	12168	-139	129	-208	-16156	512	468	-193	-91	-37	-15768	1164	-3864	-84	-109	103	-9268	3560	13548	166	-39	-101	-16720	-328	4	404	-116	170	-15648	-16	-4488	360	-23	134	127	128	8
-9664	-3144	12132	-55	107	-236	-16244	624	644	-176	-83	-49	-15784	1052	-3880	-55	-132	24	-9260	3504	13544	148	-25	-133	-16624	-244	168	167	-136	164	-15636	-176	-4404	313	-60	129	127	128	8
-9632	-3156	12212	-75	112	-200	-16160	472	504	-64	-78	-66	-15828	1020	-3804	-32	-161	57	-9300	3544	13608	154	1	-105	-16632	-572	184	142	-85	128	-15612	-172	-4332	297	-101	94	127	127	8
-9700	-3068	12124	-79	131	-186	-16204	480	572	35	-66	-55	-15832	936	-3840	19	-218	114	-9232	3512	13488	144	-19	-123	-16580	-388	256	211	-46	153	-15716	-128	-4260	243	-43	59	127	127	8
-9704	-3116	12224	-49	119	-154	-16240	620	460	115	-21	-64	-15860	91092	-3884	142	-74	174	-9196	3600	13524	150	-38	-185	-16620	-460	128	-46	-28	100	-15656	-128	-4392	142	-64	29	127	128	8
-9628	-3104	12156	-86	127	-206	-16172	556	420	-75	-8	-71	-15668	1152	-3860	95	-84	186	-9336	3496	13464	124	-38	-158	-16676	-448	100	125	-30	118	-15576	-208	-4452	241	-111	-4	126	128	8
-9668	-3096	12128	-34	59	-221	-16236	592	556	-38	11	-46	-15744	1188	-3928	18	-127	141	-9248	3504	13540	131	-73	-151	-16628	-408	136	176	27	107	-15584	-204	-4392	264	-164	26	127	128	8
-9672	-3104	12112	-77	78	-182	-16240	592	552	-79	-2	-51	-15712	1192	-3932	-57	-206	88	-9344	3508	13480	143	-32	-165	-16776	-412	144	146	22	132	-15680	-172	-4332	231	-84	81	127	127	8
-9644	-3064	12232	-59	79	-202	-16260	612	512	-90	-17	-39	-15768	1252	-3824	-143	-180	13	-9224	3424	13524	166	-73	-109	-16720	-500	116	-2	37	60	-15644	-184	-4444	280	-93	76	126	128	8
-9696	-3084	12184	-79	107	-206	-16276	668	428	-207	-35	-65	-15764	1180	-3756	-238	-170	-8	-9216	3492	13504	145	-12	-168	-16748	-476	48	111	-62	116	-15580	-92	-4404	333	-58	68	127	128	8
-9640	-3128	12196	-90	113	-180	-16304	680	548	-228	-62	-40	-15732	1012	-3780	-261	-183	-36	-9264	3496	13560	138	-19	-151	-16572	-380	88	117	10	103	-15576	-20	-4492	265	32	41	127	128	8
-9652	-3132	12108	-122	115	-171	-16212	512	532	-258	-58	-65	-15736	892	-3836	-140	-142	48	-9244	3596	13568	137	-16	-147	-16604	-380	180	130	-57	81	-15604	-84	-4412	286	-33	50	126	127	8
-9660	-3096	12144	-125	145	-200	-16304	600	484	-101	-99	-68	-15844	1096	-3868	-78	-102	105	-9204	3548	13552	112	-85	-175	-16676	-476	48	162	-34	109	-15592	-44	-4536	313	-92	9	126	128	8
-9720	-3100	12156	-151	169	-167	-16184	672	480	-70	-85	-119	-15856	1048	-3924	-7	-93	188	-9212	3496	13436	108	-37	-155	-16748	-316	72	93	-29	133	-15620	8	-4476	293	-94	-16	127	128	8
-9680	-3096	12240	-158	139	-211	-16260	628	532	-66	-63	-70	-15848	944	-3800	61	-76	180	-9316	3496	13504	140	-52	-185	-16824	-580	-16	28	-73	109	-15484	-240	-4540	265	44	14	126	128	8
-9644	-3068	12200	-116	131	-204	-16192	580	644	58	-77	-39	-15708	900	-3780	90	-12	215	-9264	3556	13512	122	-6	-167	-16612	-516	-56	92	-77	113	-15560	-192	-4540	202	10	45	126	128	8
-9736	-3140	12168	-131	133	-227	-16200	556	412	78	-52	-90	-15756	1032	-3872	116	-42	214	-9212	3536	13588	147	-73	-131	-16624	-460	72	220	-131	151	-15640	-160	-4344	210	-22	77	126	128	8
-9612	-3104	12100	-51	117	-169	-16260	576	388	91	-43	-27	-15776	1164	-3824	160	-53	164	-9276	3508	13540	136	-52	-121	-16700	-428	260	158	-48	121	-15676	-120	-4280	222	-28	40	126	128	8
-9732	-3136	12208	-102	147	-184	-16352	628	464	-31	-38	-101	-15852	1368	-3820	117	-75	130	-9268	3444	13580	126	-38	-133	-16692	-376	344	170	-25	142	-15708	-140	-4348	193	-46	61	126	128	8
-9688	-3104	12196	-120	153	-194	-16140	608	416	-50	-27	-30	-15784	1116	-3804	45	-126	88	-9152	3520	13468	101	-21	-148	-16592	-364	352	25	-86	141	-15708	-156	-4192	223	2	26	126	128	8
-9628	-3136	12200	-81	153	-166	-16180	556	496	-29	-54	-108	-15700	900	-3840	-55	-134	100	-9232	3520	13544	153	-50	-163	-16728	-380	96	52	3	81	-15720	-84	-4384	272	-40	21	126	128	8
-9704	-3052	12188	-104	86	-174	-16188	520	444	14	-2	-81	-15760	1032	-3768	-64	-169	53	-9224	3572	13500	111	-63	-173	-16604	-424	208	57	-35	90	-15620	-56	-4340	241	25	47	126	129	8
-9720	-3076	12156	-84	124	-162	-16240	508	480	8	-27	-68	-15796	1144	-3864	-75	-164	40	-9176	3492	13432	125	-40	-165	-16652	-456	172	111	-44	150	-15596	-144	-4360	204	45	-13	126	128	8
-9672	-3064	12164	-92	147	-193	-16288	548	280	-117	-60	-24	-15716	1148	-3988	-178	-148	61	-9184	3512	13444	160	-25	-163	-16708	-536	136	111	-16	89	-15652	-152	-4364	232	-55	36	126	128	8
-9656	-3104	12228	-116	134	-183	-16184	512	420	-200	-76	-59	-15676	984	-3936	-113	-149	89	-9316	3520	13588	129	-20	-154	-16624	-440	164	140	-12	152	-15624	-204	-4416	167	-60	-11	127	128	8
-9700	-3116	12196	-100	102	-183	-16180	424	468	-196	-88	-43	-15680	876	-3876	-21	-190	71	-9160	3548	13464	181	-65	-131	-16708	-420	88	15	-70	91	-15592	-204	-4456	166	-33	48	126	128	8
-9732	-3148	12268	-73	91	-213	-16216	420	520	-8	-94	-24	-15764	944	-3928	66	-187	89	-9272	3540	13424	156	-20	-170	-16748	-372	228	-12	-51	123	-15588	-204	-4496	170	-35	4	126	128	8
-9620	-3072	12300	-93	114	-181	-16236	588	444	95	-5	-46	-15812	1040	-3764	52	-141	150	-9252	3500	13552	136	1	-145	-16664	-560	28	-20	-75	141	-15560	-200	-4480	210	17	55	126	128	8
-9668	-3072	12232	-107	136	-209	-16276	704	456	44	-45	-100	-15808	1040	-3752	-12	-149	180	-9192	3440	13580	170	1	-109	-16636	-484	84	91	-66	181	-15592	-172	-4468	258	11	7	126	128	8
-9724	-3152	12184	-100	95	-206	-16284	684	508	-133	-72	-35	-15736	1032	-3852	-6	-78	136	-9260	3508	13584	127	-26	-111	-16660	-392	24	165	-16	180	-15680	-104	-4420	243	16	58	126	128	8
-9676	-3124	12088	-110	129	-211	-16320	512	536	-187	-65	-57	-15752	936	-3820	88	-74	169	-9256	3500	13580	158	-43	-94	-16664	-424	232	201	-92	120	-15692	-36	-4416	230	-26	83	126	128	8
-9652	-3220	12180	-131	121	-194	-16088	348	516	8	-60	-36	-15756	908	-3696	73	-90	124	-9256	3480	13624	153	-19	-153	-16656	-344	312	230	-12	148	-15720	-112	-4240	239	-4	76	126	128	8
-9660	-3120	12172	-69	104	-202	-16252	504	580	94	-18	-30	-15820	984	-3800	48	-147	122	-9240	3592	13524	140	-24	-151	-16728	-356	228	172	-19	111	-15600	-80	-4352	323	-18	74	126	128	8
-9688	-3124	12272	-94	123	-135	-16232	648	584	140	-49	-36	-15800	1072	-3756	-15	-156	165	-9264	3568	13544	146	-54	-175	-16680	-472	108	-20	-6	133	-15588	-216	-4312	247	60	54	126	128	8
-9636	-3124	12212	-92	175	-195	-16380	644	456	1	-89	-46	-15824	1204	-3708	-107	-83	197	-9248	3512	13476	120	-21	-173	-16724	-460	12	67	-41	141	-15544	-92	-4500	203	55	84	127	128	8
-9716	-3020	12288	-122	179	-180	-16280	600	344	-187	-134	-70	-15724	1052	-3932	-42	-37	132	-9244	3588	13548	152	22	-198	-16652	-400	112	89	-77	131	-15612	-44	-4368	219	65	47	126	128	8
-9712	-3136	12220	-153	181	-180	-16072	488	564	-62	-112	-20	-15688	1016	-3888	46	-98	150	-9228	3432	13532	147	-23	-167	-16592	-432	120	187	-25	118	-15548	-72	-4244	266	28	84	126	128	8
-9732	-3180	12148	-122	185	-143	-16260	476	600	168	-84	-40	-15892	972	-3832	190	-157	111	-9296	3536	13472	113	5	-166	-16600	-364	120	240	-55	170	-15592	-132	-4356	243	17	62	127	128	8
-9652	-3096	12208	-109	190	-134	-16276	672	608	242	-6	-98	-15960	1148	-3624	167	-249	231	-9272	3516	13472	142	-43	-178	-16796	-420	132	145	-31	156	-15672	-144	-4444	338	53	38	127	128	8
-9596	-3104	12168	-121	220	-113	-16388	720	640	102	-36	-80	-15992	1152	-3816	235	-276	151	-9252	3512	13624	135	25	-181	-16792	-468	0	109	-58	122	-15604	-92	-4580	206	64	39	127	128	8
-9676	-3072	12176	-120	239	-149	-16200	664	664	-143	59	-112	-15832	1120	-3632	99	-284	172	-9304	3492	13512	119	-39	-177	-16712	-488	108	119	-68	176	-15576	-84	-4484	152	89	39	127	128	8
-9852	-3184	12168	-105	215	-130	-16124	264	636	-36	118	-60	-15732	960	-3736	71	-268	206	-9272	3508	13472	185	-37	-178	-16728	-376	56	60	-77	166	-15636	-136	-4500	130	63	23	127	128	8
-9724	-3136	12144	-69	147	-134	-16232	384	392	270	72	-9	-15728	936	-3812	81	-244	154	-9240	3496	13508	165	26	-165	-16732	-328	120	-70	-56	149	-15732	-224	-4524	89	49	47	127	128	8
-9692	-3124	12220	-59	152	-145	-16312	660	396	351	105	-37	-15776	1068	-3860	100	-169	115	-9240	3488	13588	174	-3	-129	-16684	-428	120	-75	-18	168	-15676	-148	-4112	146	-18	48	127	128	8
-9700	-3120	12240	-74	172	-146	-16216	788	188	-17	50	-40	-15680	1248	-3988	-148	-177	125	-9292	3556	13520	137	24	-185	-16660	-412	56	111	-29	160	-15736	-108	-4236	226	11	70	127	128	8
-9692	-3104	12228	-106	133	-202	-16228	636	272	-259	48	-33	-15596	1020	-3952	-241	-103	157	-9272	3592	13504	110	-22	-157	-16572	-332	224	202	41	108	-15724	-8	-4252	304	-25	115	127	128	8
-9652	-3144	12140	-73	117	-165	-16208	436	296	-276	-19	-36	-15588	916	-4044	-31	-89	72	-9160	3500	13536	144	-120	-162	-16680	-368	160	138	11	128	-15596	-160	-4404	422	73	121	127	128	8
-9696	-3072	12204	-99	101	-166	-16180	496	432	0	-63	-2	-15740	936	-3988	47	-105	139	-9240	3544	13520	102	-20	-172	-16692	-432	100	194	28	120	-15644	28	-4428	335	97	73	127	128	8
-9736	-3136	12200	-78	90	-181	-16112	428	336	-13	-39	-27	-15820	1052	-3788	30	-117	173	-9252	3472	13432	135	-50	-163	-16748	-408	-76	101	-33	136	-15548	72	-4388	246	112	49	127	128	8
-9680	-3120	12316	-41	88	-189	-16316	628	328	-14	-65	-6	-15864	1148	-3608	24	-24	216	-9248	3556	13592	128	-38	-217	-16632	-392	100	3	-25	100	-15516	36	-4460	212	121	9	127	128	8
-9712	-3092	12048	-146	128	-213	-16188	656	480	-78	-76	-40	-15832	1152	-3744	69	-27	186	-9276	3492	13468	136	-72	-182	-16620	-264	192	-80	13	132	-15672	-80	-4456	-48	47	-91	127	128	8
-9700	-3068	12232	-138	133	-199	-16180	524	548	-11	-35	-70	-15828	1180	-3620	44	-49	167	-9296	3544	13548	94	-30	-163	-16656	-368	260	-143	27	111	-15648	-76	-4388	-42	11	-50	127	128	8
-9680	-3088	12252	-89	121	-185	-16224	468	416	97	-3	-11	-15836	1144	-3716	13	-49	121	-9244	3488	13540	161	-93	-117	-16760	-416	160	-99	59	78	-15632	-148	-4272	-10	-8	-78	127	128	8
-9628	-3088	12068	-87	124	-210	-16212	508	372	102	24	-42	-15812	1248	-3828	-112	-64	33	-9244	3540	13456	144	-74	-170	-16684	-380	124	-2	63	121	-15664	-152	-4272	65	53	-35	127	128	8
-9664	-3064	12112	-96	120	-221	-16216	608	420	-93	10	13	-15804	1292	-3884	-73	-82	76	-9244	3556	13632	98	-71	-136	-16736	-328	192	6	41	120	-15608	-172	-4388	157	82	-32	127	128	8
-9692	-3136	12124	-107	95	-199	-16252	672	416	-233	-3	-39	-15740	940	-3856	-236	-140	48	-9196	3560	13612	100	-18	-186	-16696	-420	184	20	39	101	-15700	-168	-4344	221	62	72	127	128	8
-9704	-3096	12100	-71	90	-224	-16244	508	404	-330	-41	-57	-15676	876	-3892	-249	-119	74	-9320	3496	13492	80	-8	-146	-16724	-472	56	42	58	94	-15660	-140	-4368	287	86	59	126	128	8
-9608	-3240	12144	-105	131	-180	-16324	548	448	-290	-133	2	-15800	976	-3812	-200	-71	66	-9276	3604	13608	150	-18	-155	-16672	-460	52	117	23	130	-15536	-48	-4508	240	77	51	127	128	8
-9668	-3072	12120	-102	116	-186	-16300	580	524	-290	-82	-71	-15764	996	-3876	-184	-79	49	-9284	3512	13536	113	21	-165	-16560	-480	48	198	21	63	-15524	-40	-4576	260	44	19	126	128	8
-9700	-3168	12244	-116	169	-177	-16192	708	764	-195	-80	14	-15900	1100	-3652	4	-157	151	-9252	3568	13548	141	-30	-162	-16720	-424	168	156	8	93	-15568	-72	-4516	147	58	-17	127	128	8
-9700	-3124	12176	-119	170	-200	-16264	372	632	35	-5	-23	-15848	960	-3696	39	-142	215	-9188	3464	13568	126	-28	-232	-16700	-316	128	1	29	109	-15568	44	-4328	42	120	-43	127	128	8
-9680	-3160	12180	-126	165	-153	-16168	372	560	401	19	-29	-15828	924	-3628	148	-87	182	-9300	3544	13600	118	7	-172	-16692	-480	4	-120	-5	147	-15592	-64	-4496	48	136	-54	127	128	8
-9696	-3100	12124	-117	171	-137	-16228	644	464	218	72	-34	-15824	960	-3740	194	-78	185	-9268	3504	13504	142	-5	-156	-16684	-476	-24	-40	38	108	-15660	-208	-4444	11	125	-43	127	128	8
-9648	-3144	12140	-65	135	-175	-16220	608	460	0	-12	-21	-15748	992	-3760	111	-16	202	-9188	3552	13404	122	-5	-139	-16688	-400	52	15	-54	145	-15640	-212	-4328	48	133	-2	127	128	8
-9752	-3140	12148	-70	112	-171	-16316	572	308	-158	-52	-15	-15740	1084	-3872	-37	-24	213	-9184	3508	13476	141	-48	-170	-16608	-412	68	106	19	114	-15580	-132	-4308	174	72	17	126	128	8
-9680	-3080	12192	-114	125	-140	-16232	604	612	-194	-11	14	-15752	1188	-3940	-45	-19	211	-9252	3428	13428	105	-53	-159	-16676	-440	68	146	53	93	-15628	-156	-4476	290	79	44	127	128	8
-9640	-3092	12088	-75	151	-172	-16252	488	504	15	-17	-30	-15760	1160	-3684	-31	-112	174	-9216	3496	13504	116	-2	-201	-16704	-400	76	149	15	133	-15648	-76	-4464	322	79	58	126	128	8
-9668	-3064	12188	-123	136	-135	-16228	592	448	107	-38	27	-15792	1120	-3788	30	-111	160	-9260	3528	13488	108	-17	-180	-16672	-336	8	100	44	66	-15656	-56	-4356	255	73	60	126	128	8
-9684	-3200	12172	-93	161	-146	-16240	648	516	82	-3	-7	-15792	1120	-3796	14	-129	163	-9312	3472	13504	126	-70	-173	-16768	-548	164	98	9	106	-15540	-52	-4484	265	81	32	126	129	8
-9728	-3028	12228	-120	175	-182	-16284	752	408	-62	-42	-11	-15776	1060	-3832	75	-118	185	-9284	3532	13532	159	-25	-165	-16704	-544	40	70	38	122	-15564	-112	-4580	169	130	3	126	128	8
-9676	-3064	12220	-80	168	-162	-16224	512	448	-125	13	-26	-15756	1144	-3776	114	-82	164	-9252	3528	13500	115	-12	-150	-16608	-404	28	-4	44	97	-15576	-48	-4552	40	110	30	126	128	8
-9700	-3128	12244	-78	185	-159	-16180	464	436	42	21	-53	-15720	1048	-3700	34	-64	214	-9308	3420	13444	117	-85	-146	-16636	-424	0	-55	31	104	-15620	-12	-4524	31	97	-16	126	128	8
-9636	-3108	12252	-50	137	-176	-16264	576	436	190	14	-26	-15756	996	-3856	23	-12	205	-9212	3584	13592	99	-48	-164	-16680	-388	116	-11	57	119	-15564	-28	-4412	21	113	-25	126	128	8
-9692	-3128	12108	-62	155	-181	-16312	588	300	144	8	-8	-15772	1152	-3924	22	-62	157	-9284	3500	13560	114	-41	-203	-16660	-324	188	38	-6	129	-15624	32	-4436	29	94	-35	126	129	8
-9572	-3064	12184	-81	161	-199	-16168	544	376	-64	-34	9	-15708	1164	-3884	-34	-121	141	-9272	3484	13452	109	-68	-148	-16680	-516	-20	5	78	141	-15636	-348	-4436	81	145	-38	126	128	8
-9668	-3112	12236	-70	135	-183	-16216	600	424	-149	-69	-18	-15724	1128	-4000	-125	-106	155	-9244	3472	13644	116	-6	-158	-16652	-552	80	72	55	117	-15668	-352	-4420	125	125	-24	126	128	8
-9680	-3108	12236	-116	133	-195	-16236	604	240	-103	-67	-1	-15736	1200	-3872	-135	-53	150	-9320	3460	13620	134	-36	-115	-16724	-320	140	25	20	111	-15708	-256	-4540	119	132	19	127	129	8
-9672	-3076	12148	-122	147	-199	-16312	664	372	-203	-116	54	-15812	1192	-3792	-252	-146	98	-9264	3592	13448	144	-8	-207	-16748	-400	272	49	23	106	-15724	-156	-4460	131	158	25	126	128	8
-9616	-3136	12184	-135	150	-212	-16280	524	376	-255	-119	1	-15744	1048	-3884	-186	-110	65	-9308	3504	13476	151	44	-177	-16680	-504	104	48	95	121	-15592	-32	-4488	104	94	46	126	128	8
-9692	-3096	12048	-118	139	-181	-16152	468	552	-207	-109	51	-15852	940	-3804	-69	-141	58	-9264	3540	13500	167	0	-141	-16536	-332	72	120	96	143	-15516	8	-4468	137	109	40	127	128	8
-9684	-3232	12244	-110	124	-187	-16072	400	672	-94	-45	18	-15756	840	-3716	-57	-122	117	-9208	3496	13492	163	-45	-184	-16668	-424	-20	46	129	112	-15544	-140	-4656	134	130	40	126	128	8
-9640	-3224	12124	-48	110	-171	-16176	568	532	26	-13	18	-15872	936	-3856	-58	-88	199	-9260	3452	13552	122	-63	-128	-16632	-464	-112	-38	111	113	-15488	-52	-4780	74	171	-6	126	128	8
-9716	-3144	12160	-53	71	-157	-16256	712	448	13	-23	12	-15952	1064	-3932	-99	-113	285	-9252	3488	13484	141	6	-178	-16732	-436	-184	-25	-1	148	-15536	20	-4700	-3	168	23	126	129	8
-9692	-3128	12248	-86	118	-158	-16364	808	428	-134	-54	35	-15804	1220	-3884	-107	-74	251	-9244	3460	13580	118	8	-173	-16660	-368	-252	-45	6	160	-15476	16	-4704	18	121	26	126	128	8
-9636	-3164	12204	-109	149	-183	-16236	624	572	-220	-71	-1	-15748	1140	-3656	-16	-60	262	-9268	3516	13680	125	9	-176	-16680	-412	-88	170	-17	93	-15596	4	-4528	93	118	-5	126	128	8
-9648	-3092	12168	-60	145	-155	-16176	672	596	-20	-34	4	-15672	1104	-3832	104	-69	259	-9272	3540	13532	93	-63	-173	-16700	-224	140	234	-56	139	-15656	36	-4460	-12	120	2	126	128	8
-9652	-3104	12128	-92	145	-180	-16148	568	456	170	-24	23	-15844	1260	-3876	186	-74	219	-9228	3528	13464	102	-33	-163	-16580	-376	308	108	27	75	-15664	156	-4340	-20	100	13	126	128	8
-9708	-3104	12240	-75	155	-179	-16272	692	424	245	-5	3	-15856	1380	-3748	193	-91	150	-9204	3496	13492	107	-25	-233	-16608	-336	300	64	89	82	-15772	-24	-4316	-29	90	-6	126	128	8
-9736	-3112	12236	-96	152	-192	-16260	740	556	123	7	-13	-15828	1236	-3736	189	-117	199	-9220	3540	13432	99	-10	-214	-16648	-424	256	-21	117	106	-15684	-108	-4384	-8	115	-73	126	128	8
-9688	-3172	12168	-146	184	-208	-16248	644	476	-153	-7	-10	-15828	1132	-3680	-22	-68	132	-9296	3544	13480	103	-57	-170	-16552	-372	88	-131	171	61	-15548	-120	-4632	59	129	-103	126	128	8
-9656	-3132	12140	-65	170	-210	-16192	528	536	-242	8	-15	-15764	1080	-3752	-184	-47	90	-9324	3536	13456	77	-77	-210	-16704	-424	-80	-255	148	61	-15440	-276	-4792	95	109	-55	127	129	8
-9704	-3116	12176	-114	119	-193	-16172	576	364	-206	-15	-42	-15660	1132	-3808	-334	-107	88	-9228	3448	13520	91	-59	-204	-16668	-540	-232	-214	70	99	-15452	-160	-4852	44	78	-57	126	128	8
-9588	-3040	12312	-63	64	-165	-16176	632	580	-241	81	22	-15712	1176	-3848	-294	-180	38	-9292	3448	13456	129	-49	-180	-16624	-604	-100	20	17	95	-15512	-216	-4744	12	-5	47	126	129	8
-9620	-3036	12244	-53	63	-172	-16212	676	272	-61	40	-16	-15760	1312	-3920	-379	-160	-8	-9312	3528	13548	108	-54	-154	-16604	-644	-100	70	46	85	-15416	-108	-4816	185	10	104	126	128	8
-9696	-3112	12148	-85	84	-153	-16320	892	308	-208	-19	-27	-15716	1232	-3896	-271	-230	66	-9252	3428	13520	104	-51	-139	-16636	-492	-132	242	-1	169	-15504	-64	-4900	234	-19	6	126	128	8
-9684	-3156	12116	-98	118	-180	-16184	724	256	-284	-18	-27	-15604	1060	-3960	-168	-157	51	-9272	3504	13516	148	-53	-136	-16776	-500	-80	97	-51	182	-15420	-108	-4756	167	-35	-20	126	128	8
-9712	-3108	12196	-87	115	-197	-16220	528	176	-214	-30	-11	-15656	972	-3932	-48	-118	78	-9256	3468	13420	148	-31	-129	-16752	-540	-24	-146	-68	161	-15576	-308	-4776	104	-9	4	126	129	8
-9688	-3064	12100	-77	90	-228	-16248	604	328	138	-42	-64	-15744	1028	-4164	145	-143	121	-9320	3472	13512	158	-27	-128	-16632	-488	-4	-124	-107	197	-15588	-212	-4488	-28	-4	16	126	129	8
-9596	-3068	12188	-78	104	-248	-16204	692	416	226	-74	-73	-15788	1120	-3904	201	-225	149	-9212	3444	13424	178	-23	-139	-16584	-336	140	-63	-73	225	-15644	-28	-4448	20	25	25	126	128	8
-9668	-3084	12168	-115	123	-223	-16336	696	412	142	-66	-53	-15836	1164	-3900	226	-167	159	-9156	3532	13480	129	-55	-150	-16748	-280	64	-121	-55	153	-15708	112	-4516	143	-26	6	126	128	8
-9684	-3116	12132	-103	101	-237	-16252	608	392	-5	-116	-54	-15812	1140	-3644	150	-134	185	-9240	3556	13596	141	-19	-141	-16704	-432	-116	-101	-35	196	-15632	36	-4584	185	-48	12	126	128	8
-9732	-3056	12168	-64	83	-206	-16256	476	468	-136	-63	-52	-15712	1072	-3688	123	-92	116	-9264	3496	13480	144	-47	-150	-16748	-432	-72	85	-103	146	-15632	-156	-4464	265	-75	-3	126	128	8
-9652	-3172	12164	-82	97	-230	-16116	456	704	-42	-41	-68	-15772	1088	-3596	24	-100	129	-9256	3460	13508	120	-27	-156	-16696	-468	184	205	-27	90	-15596	-152	-4328	286	-52	48	126	129	8
-9708	-3088	12148	-77	85	-199	-16268	608	628	3	-107	-22	-15924	1232	-3656	-101	-96	70	-9220	3512	13468	132	-35	-107	-16680	-448	52	262	-58	123	-15616	-96	-4508	291	26	70	127	128	8
-9672	-3120	12244	-74	115	-199	-16368	708	560	-47	-117	-80	-15952	1252	-3748	-231	-50	133	-9312	3468	13508	162	-33	-178	-16720	-412	232	283	-56	149	-15632	-44	-4496	315	-22	31	126	128	8
-9676	-3048	12232	-114	154	-174	-16300	856	536	-210	-88	-28	-15916	1276	-3772	-213	-3	119	-9280	3508	13484	159	-46	-200	-16744	-332	-4	17	-42	122	-15560	-16	-4616	237	22	77	126	128	8
-9676	-3028	12224	-136	141	-133	-16240	628	500	-200	-36	-62	-15672	1116	-3668	-125	39	145	-9244	3520	13496	143	46	-175	-16700	-540	-152	-14	-52	160	-15632	-76	-4624	276	-20	78	126	128	8
-9700	-3132	12140	-109	133	-219	-16052	400	584	85	-45	-20	-15628	860	-3796	73	67	174	-9232	3464	13472	118	-42	-123	-16608	-480	36	224	-48	155	-15664	-268	-4440	351	-79	75	126	128	8
-9676	-3160	12192	-51	93	-209	-16156	440	532	386	9	-54	-15776	744	-3844	276	72	170	-9256	3544	13488	134	-47	-162	-16620	-428	88	324	-6	132	-15568	-172	-4312	380	-61	119	126	128	8
-9576	-3088	12208	-53	110	-185	-16256	708	448	437	-11	-11	-15852	1012	-3864	331	9	253	-9268	3504	13540	120	-47	-176	-16624	-380	120	254	-11	141	-15504	-20	-4580	288	-59	118	126	128	8
-9704	-3056	12204	-103	92	-168	-16288	828	468	70	8	-42	-15936	1128	-3840	193	-88	341	-9248	3424	13512	130	-96	-156	-16676	-440	40	23	-3	119	-15564	-28	-4492	299	-33	93	126	128	8
-9640	-3220	12128	-62	121	-190	-16272	608	424	-175	11	-38	-15716	1080	-3836	86	-89	234	-9268	3476	13500	146	-24	-154	-16784	-568	-44	-40	-75	172	-15588	-228	-4588	316	-9	62	126	128	8
-9636	-3156	12064	-61	117	-173	-16180	480	444	28	-26	-14	-15672	1092	-3912	298	-76	357	-9264	3444	13536	146	-26	-164	-16736	-440	-96	80	-58	113	-15580	-196	-4524	321	-4	102	126	128	8
-9680	-3112	12172	-96	130	-113	-16224	752	388	231	-18	-75	-15796	1436	-3904	143	-106	239	-9216	3532	13436	170	-4	-166	-16720	-300	-180	141	-91	136	-15612	-68	-4476	313	3	112	126	128	8
-9652	-3092	12240	-61	164	-204	-16204	808	432	27	2	2	-15736	1560	-3776	177	-77	201	-9220	3548	13476	126	20	-149	-16600	-332	8	238	-110	134	-15520	4	-4460	300	-9	127	126	128	8
-9712	-3144	12228	-52	112	-204	-16204	688	432	70	4	-26	-15728	1248	-3844	192	-106	133	-9288	3464	13436	140	-50	-161	-16604	-440	76	284	-54	155	-15620	80	-4496	356	-36	99	126	129	8
-9640	-3120	12148	-51	118	-177	-16116	576	536	222	10	-41	-15796	1056	-3736	119	-107	200	-9252	3492	13448	112	-15	-182	-16712	-320	64	226	-30	168	-15640	132	-4444	322	-30	78	126	128	8
-9672	-3052	12276	-69	103	-193	-16176	684	496	251	38	-59	-15912	1000	-3924	215	-134	160	-9244	3584	13540	144	11	-165	-16756	-424	-60	-130	-41	125	-15572	-40	-4592	173	80	-42	126	128	8
-9716	-3184	12224	-76	130	-196	-16284	732	424	31	23	-23	-15768	1096	-3932	168	-64	177	-9280	3520	13460	137	-60	-159	-16612	-352	-84	-259	26	94	-15532	-48	-4604	104	116	-43	126	128	8
-9692	-3080	12228	-67	133	-183	-16232	696	368	-159	-18	-44	-15788	1204	-3984	146	-46	135	-9280	3528	13480	101	-65	-173	-16712	-392	-100	-76	-9	114	-15544	16	-4384	126	83	7	126	128	8
-9704	-3124	12136	-133	125	-190	-16160	620	312	-148	-16	-57	-15676	1128	-3988	-1	-97	177	-9212	3508	13456	117	-93	-126	-16620	-388	92	133	-25	110	-15636	-116	-4520	133	13	23	126	128	8
-9628	-3092	12156	-81	105	-191	-16156	652	524	-21	-34	-45	-15840	1200	-3928	85	-138	144	-9268	3556	13536	121	-69	-158	-16696	-292	104	162	12	88	-15680	-16	-4396	265	-80	-6	126	128	8
-9640	-3068	12156	-75	103	-190	-16280	696	424	134	-29	-71	-15860	1212	-3880	159	-152	111	-9236	3420	13528	149	-69	-157	-16672	-412	-44	137	-11	113	-15664	32	-4332	256	-12	9	126	128	8
-9696	-3076	12208	-137	115	-202	-16244	684	476	94	12	-58	-15876	1240	-3684	127	-129	84	-9336	3472	13564	94	-50	-166	-16656	-436	64	14	12	83	-15548	-32	-4592	190	30	-10	126	128	8
-9704	-3084	12164	-57	126	-200	-16220	672	476	14	-10	-35	-15816	1208	-3880	-65	-93	79	-9228	3416	13584	131	-6	-160	-16724	-552	24	-11	19	78	-15532	-200	-4592	185	27	-27	126	128	8
-9664	-3036	12176	-104	111	-194	-16284	704	348	-92	56	-99	-15716	1176	-3860	-88	-64	105	-9292	3472	13488	147	-87	-171	-16648	-424	32	89	-39	107	-15532	-132	-4620	172	-6	6	126	128	8
-9676	-3084	12184	-65	139	-167	-16212	644	356	-128	-19	-74	-15712	1208	-3932	-40	-105	47	-9232	3464	13576	144	10	-156	-16660	-364	-136	11	-17	110	-15528	-48	-4620	161	29	12	126	128	8
-9688	-3152	12228	-108	116	-194	-16304	652	412	-86	8	-58	-15692	1152	-3904	3	-111	29	-9260	3472	13524	121	-32	-143	-16708	-480	36	-44	-65	63	-15524	4	-4760	180	-50	9	126	128	8
-9716	-3120	12156	-54	114	-180	-16260	616	340	16	-37	-84	-15752	1216	-3788	-43	-98	58	-9196	3472	13516	104	7	-195	-16656	-504	-4	97	-58	102	-15596	12	-4572	122	-48	-15	126	128	8
-9660	-3112	12204	-86	100	-157	-16208	612	452	67	-31	-81	-15804	1096	-3808	-22	-96	90	-9228	3468	13484	121	-25	-189	-16668	-364	20	187	-68	106	-15548	0	-4620	165	-54	1	126	128	8
-9688	-3168	12188	-85	125	-200	-16248	632	256	37	-49	-56	-15772	1108	-3892	18	-98	102	-9236	3512	13512	129	-58	-154	-16672	-328	80	50	-43	112	-15616	-24	-4624	232	-27	-45	127	129	8
-9688	-3080	12088	-127	139	-191	-16316	784	536	-18	-72	-75	-15756	1056	-3892	112	-60	106	-9216	3584	13576	127	-68	-190	-16672	-396	48	21	-90	75	-15680	-104	-4576	164	-6	-33	126	128	8
-9696	-3048	12192	-82	127	-215	-16188	664	488	-9	-43	-98	-15800	1164	-3764	134	-67	166	-9268	3544	13392	129	2	-164	-16672	-460	20	65	-38	80	-15580	-168	-4492	163	3	-44	127	129	8
-9692	-3164	12204	-135	141	-177	-16216	652	404	71	-7	-131	-15768	1216	-3676	117	-53	134	-9252	3568	13568	120	-3	-176	-16724	-364	16	72	-54	73	-15580	-144	-4520	217	-4	8	127	129	8
-9656	-3108	12188	-80	126	-201	-16212	608	244	134	-27	-110	-15692	1212	-3808	104	-37	116	-9288	3476	13624	131	-79	-193	-16640	-380	76	124	-49	99	-15632	-136	-4460	118	-33	22	127	128	8
-9668	-3072	12184	-75	132	-215	-16248	588	316	125	-32	-113	-15808	1144	-3812	117	-94	75	-9212	3512	13468	139	-76	-142	-16708	-464	144	51	-46	118	-15652	-104	-4456	220	-26	-19	126	128	8
-9672	-3120	12112	-96	155	-144	-16256	628	392	107	-53	-115	-15740	1260	-3840	-35	-145	43	-9236	3476	13564	110	-32	-158	-16740	-456	-28	-52	-20	98	-15540	-164	-4584	237	-37	7	126	128	8
-9684	-3140	12244	-126	145	-216	-16308	660	412	-142	-65	-73	-15764	1192	-3824	-119	-125	19	-9256	3428	13532	136	-27	-161	-16720	-516	-120	12	-63	128	-15572	-88	-4524	167	-23	-27	126	128	8
-9632	-3076	12164	-115	122	-165	-16224	612	384	-222	-42	-101	-15776	1052	-3952	-106	-148	43	-9252	3452	13532	127	-2	-158	-16664	-440	-56	84	-35	82	-15496	-96	-4464	202	27	13	126	128	8
-9660	-3160	12192	-122	156	-198	-16256	624	432	-134	-119	-71	-15816	968	-3788	-111	-94	105	-9196	3528	13420	116	-45	-163	-16672	-476	12	145	-87	113	-15548	-116	-4612	265	76	43	126	129	8
-9616	-3176	12192	-80	143	-182	-16200	664	588	-30	-131	-68	-15816	996	-3952	86	-127	149	-9300	3468	13520	124	-18	-198	-16668	-496	4	190	-74	110	-15576	-148	-4456	233	39	48	127	129	8
-9640	-3048	12160	-112	157	-172	-16284	560	348	165	-86	-47	-15884	1032	-3756	160	-77	207	-9240	3464	13416	114	1	-178	-16604	-380	36	93	-103	145	-15616	-92	-4492	223	49	33	126	128	8
-9676	-3112	12228	-131	157	-161	-16228	648	404	206	-62	-62	-15920	1108	-3852	228	-133	214	-9220	3484	13640	125	0	-182	-16640	-436	108	92	-75	129	-15616	-68	-4412	144	30	16	126	128	8
-9640	-3140	12248	-135	187	-164	-16236	632	484	234	-74	-91	-15816	1128	-3784	239	-78	216	-9292	3504	13528	143	-29	-150	-16568	-504	148	95	-46	121	-15572	-148	-4420	118	7	41	127	128	8
-9716	-3148	12152	-95	182	-159	-16140	576	308	155	-29	-34	-15720	1092	-3824	177	-109	176	-9268	3496	13504	116	-27	-174	-16628	-448	204	162	-18	140	-15608	-116	-4400	116	-21	-7	126	128	8
-9664	-3096	12140	-86	119	-168	-16164	592	328	65	-14	-75	-15720	1032	-4000	126	-89	165	-9228	3520	13556	130	-26	-162	-16724	-356	216	115	-25	142	-15648	-132	-4452	168	-47	-11	127	128	8
-9668	-3100	12184	-87	95	-181	-16320	648	288	-1	-30	-49	-15784	1152	-4028	34	-156	146	-9224	3532	13464	143	14	-162	-16780	-380	20	-111	4	136	-15640	-236	-4516	169	34	12	126	128	8
-9644	-3116	12148	-117	118	-164	-16300	772	280	-142	-69	-41	-15760	1296	-3840	-103	-170	80	-9304	3504	13576	126	-44	-141	-16720	-652	92	1	-48	132	-15552	-208	-4608	259	-11	51	126	128	8
-9660	-3088	12140	-76	129	-192	-16188	620	396	-251	-81	-72	-15752	1196	-3872	-161	-233	80	-9248	3468	13488	155	-16	-184	-16620	-468	56	171	-62	179	-15528	-68	-4456	226	9	48	126	129	8
-9712	-3068	12120	-111	120	-188	-16172	596	564	-195	-13	-72	-15772	1144	-3712	-96	-212	56	-9288	3536	13492	188	-60	-141	-16616	-292	192	176	-45	138	-15528	-32	-4452	230	-56	64	126	129	8
-9668	-3100	12196	-102	127	-193	-16244	628	412	6	-70	-95	-15816	1088	-3824	-64	-129	82	-9200	3448	13548	115	-34	-157	-16680	-408	28	5	0	135	-15620	-40	-4528	218	-40	71	127	128	8
-9660	-3048	12244	-119	157	-205	-16268	620	544	18	-61	-49	-15740	1012	-3848	80	-94	103	-9260	3400	13528	126	-36	-138	-16744	-460	68	4	-59	148	-15632	-4	-4612	171	-20	29	127	128	8
-9696	-3076	12144	-107	125	-210	-16284	652	448	80	-64	-67	-15720	860	-3768	105	-83	174	-9300	3524	13444	117	-77	-158	-16676	-472	48	66	-85	153	-15616	-16	-4552	129	7	-12	126	128	8
-9672	-3112	12104	-141	126	-173	-16148	572	460	68	-58	-70	-15756	984	-3804	124	-80	201	-9280	3396	13552	145	-46	-175	-16628	-552	-52	34	-45	131	-15564	-104	-4540	138	39	-19	126	128	8
-9592	-3036	12220	-104	136	-207	-16236	684	344	22	-53	-77	-15812	1164	-3772	90	-117	234	-9220	3592	13560	132	-54	-129	-16684	-404	24	75	-67	160	-15604	-156	-4420	110	33	11	126	129	8
-9648	-3060	12168	-138	110	-182	-16212	632	500	38	-75	-51	-15780	1288	-3808	88	-132	198	-9180	3456	13484	128	-43	-155	-16608	-340	60	-31	-68	140	-15624	-184	-4576	135	9	17	126	129	8
-9728	-3112	12204	-115	136	-206	-16264	696	516	-43	-30	-68	-15752	1336	-3892	66	-124	151	-9200	3472	13512	144	-58	-145	-16728	-384	264	17	-42	140	-15704	-48	-4376	221	-47	35	126	128	8
-9668	-3032	12056	-132	143	-179	-16208	688	444	-53	-58	-73	-15824	1200	-3804	-30	-189	95	-9228	3508	13500	121	-56	-137	-16696	-408	100	150	-19	129	-15736	-84	-4444	187	-73	55	127	129	8
-9648	-3088	12172	-78	149	-190	-16252	592	476	3	-50	-95	-15756	1132	-3956	7	-183	101	-9252	3492	13416	112	-59	-152	-16684	-416	120	154	13	121	-15588	-92	-4356	195	-15	45	126	128	8
-9692	-3084	12152	-78	146	-203	-16196	616	544	59	-12	-44	-15740	1116	-3852	20	-177	68	-9284	3480	13432	170	-54	-153	-16676	-420	168	83	-10	133	-15624	-84	-4428	167	48	-11	126	129	8
-9732	-3092	12148	-94	130	-171	-16248	580	352	23	-23	-98	-15820	1096	-3948	-42	-157	79	-9240	3500	13500	114	-83	-136	-16656	-476	60	9	5	126	-15584	-176	-4376	192	6	-10	126	129	8
-9684	-3088	12152	-86	123	-194	-16272	692	400	-138	-52	-41	-15744	1124	-3924	-118	-111	122	-9244	3508	13472	162	-31	-173	-16656	-380	92	-14	2	134	-15592	-116	-4656	138	-10	3	126	128	8
-9652	-3164	12252	-97	162	-222	-16220	640	360	-207	-38	-63	-15772	1100	-3940	-128	-121	100	-9252	3512	13492	140	-61	-152	-16692	-456	-56	-58	17	151	-15584	-76	-4716	110	-47	9	126	129	8
-9708	-3096	12168	-97	125	-195	-16208	544	440	-135	-109	-67	-15696	1100	-3888	-14	-198	93	-9260	3472	13496	118	-45	-168	-16752	-440	-12	41	-25	73	-15600	-92	-4532	130	-21	36	126	129	8
-9688	-3140	12108	-99	119	-212	-16180	580	456	-98	-61	-80	-15728	1068	-3880	-6	-214	75	-9272	3472	13468	141	-15	-130	-16692	-436	-24	135	-84	167	-15524	-84	-4576	144	-21	36	126	129	8
-9620	-3140	12272	-66	112	-202	-16280	588	404	70	-41	-17	-15824	1104	-3752	43	-194	109	-9184	3592	13564	151	-6	-128	-16712	-388	164	136	-99	127	-15596	-16	-4504	215	0	33	126	129	8
-9684	-3108	12196	-53	108	-196	-16292	736	376	30	-98	-28	-15832	1116	-3920	4	-123	135	-9232	3460	13648	139	-66	-142	-16752	-424	104	-30	-42	165	-15644	-100	-4628	158	13	-16	126	129	8
-9660	-3088	12268	-114	149	-205	-16296	712	456	-79	-104	-55	-15812	1148	-3892	58	-140	125	-9268	3444	13468	126	-24	-176	-16664	-488	104	-6	-40	157	-15616	-128	-4540	68	23	-6	126	129	8
-9648	-3120	12252	-102	181	-198	-16172	588	344	-56	-99	-69	-15748	1056	-3820	28	-119	170	-9360	3488	13504	135	-23	-151	-16620	-404	96	51	-45	134	-15592	-140	-4480	99	16	-22	126	129	8
-9628	-3128	12220	-94	146	-206	-16140	636	412	-31	-63	-52	-15748	1140	-3644	-45	-142	139	-9240	3500	13496	132	-16	-134	-16584	-396	104	16	-6	139	-15616	-212	-4248	129	-6	33	126	129	8
-9664	-3108	12316	-57	126	-210	-16228	640	524	109	-48	-61	-15872	1080	-3760	10	-154	142	-9324	3512	13568	127	-58	-159	-16696	-464	136	39	-11	144	-15652	-140	-4524	211	-30	42	126	129	8
-9680	-3080	12220	-99	116	-184	-16332	628	500	28	-52	-49	-15836	1160	-3792	-34	-159	113	-9208	3516	13500	107	-3	-163	-16724	-448	92	43	-11	116	-15652	-124	-4528	210	-48	63	126	129	8
-9668	-3140	12232	-81	115	-163	-16328	684	364	-26	-59	-59	-15772	1180	-3848	-26	-139	109	-9288	3504	13492	142	-21	-93	-16624	-448	12	75	-2	145	-15632	-148	-4540	233	-3	29	126	130	8
-9636	-3116	12180	-81	159	-192	-16240	636	288	-175	-81	-28	-15736	1064	-3916	-83	-158	159	-9296	3508	13460	169	-36	-149	-16720	-424	32	156	-17	150	-15576	-116	-4584	214	18	66	126	129	8
-9676	-3108	12192	-126	118	-160	-16240	580	360	-138	-74	-65	-15768	996	-3896	-52	-117	127	-9328	3576	13632	125	-5	-186	-16740	-396	188	24	-20	153	-15580	-36	-4544	226	13	85	126	130	8
-9668	-3080	12148	-105	114	-202	-16256	524	396	-14	-82	-38	-15688	1088	-3884	-34	-110	117	-9268	3596	13528	145	-46	-162	-16720	-376	16	110	-57	120	-15604	36	-4636	208	17	81	126	130	8
-9644	-3128	12136	-75	117	-168	-16316	720	384	23	-91	0	-15832	1168	-3804	-6	-178	117	-9256	3460	13472	136	4	-148	-16648	-468	76	96	-105	192	-15604	0	-4568	165	-14	83	126	130	8
-9684	-3084	12172	-110	122	-156	-16236	720	576	-28	-95	-72	-15832	1200	-3756	58	-185	156	-9280	3472	13532	130	-36	-176	-16700	-456	-8	69	-58	161	-15628	-136	-4556	160	-6	39	126	130	8
-9720	-3136	12212	-147	141	-182	-16208	608	440	-7	-81	-20	-15696	1064	-3744	73	-158	119	-9260	3512	13484	138	-36	-139	-16644	-356	80	89	-32	151	-15608	-116	-4520	118	14	28	126	130	8
-9628	-3148	12236	-97	128	-173	-16144	516	460	43	-55	-81	-15768	1088	-3624	69	-152	145	-9240	3564	13512	142	-83	-169	-16732	-316	168	-19	-108	167	-15684	-20	-4540	84	24	11	126	130	8
-9656	-3076	12252	-91	117	-138	-16320	628	356	59	-67	-21	-15804	1060	-3976	34	-97	165	-9232	3460	13504	138	-36	-171	-16680	-428	100	-9	-91	144	-15656	-148	-4380	157	13	63	126	130	8
-9688	-3084	12116	-78	128	-161	-16332	732	392	32	-84	-51	-15856	1308	-3912	23	-177	154	-9288	3500	13568	154	-35	-165	-16732	-376	76	101	-47	126	-15672	-216	-4396	188	-8	62	126	130	8
-9684	-3088	12236	-122	184	-199	-16272	700	412	-78	-98	-28	-15768	1228	-3840	-8	-191	127	-9308	3484	13468	137	-2	-156	-16748	-336	12	100	-89	208	-15556	-184	-4520	247	41	62	126	130	8
-9728	-3104	12188	-110	196	-178	-16180	620	376	-119	-98	-39	-15656	1072	-3576	-67	-204	106	-9276	3488	13528	149	-21	-115	-16596	-328	96	104	-41	169	-15588	-80	-4416	187	44	64	126	130	8
-9656	-3116	12236	-120	136	-204	-16160	472	468	14	-90	-51	-15684	1108	-3668	-31	-152	60	-9184	3512	13500	137	-30	-137	-16636	-248	88	13	-51	149	-15536	-20	-4408	256	-14	71	126	130	8
-9668	-3136	12236	-94	129	-134	-16280	688	488	54	-118	-58	-15904	1128	-3860	-9	-135	48	-9256	3508	13440	147	-3	-182	-16636	-468	116	-11	-27	107	-15580	56	-4440	203	-5	53	126	130	8
-9708	-3148	12216	-128	145	-198	-16256	780	448	-17	-81	-93	-15856	1148	-3824	-23	-129	126	-9292	3532	13560	143	-56	-168	-16660	-428	36	104	-62	99	-15580	72	-4472	79	-1	-25	126	130	8
-9664	-3056	12272	-121	155	-190	-16272	764	532	-24	-118	-48	-15872	1044	-3756	39	-131	186	-9264	3424	13500	110	-74	-149	-16616	-308	60	135	-128	121	-15536	56	-4452	142	68	2	126	130	8
-9652	-3168	12208	-118	130	-149	-16208	540	556	46	-97	-85	-15776	1052	-3744	42	-134	200	-9312	3464	13548	132	-16	-179	-16692	-400	28	104	-24	121	-15656	-112	-4540	146	36	-34	126	130	8
-9664	-3120	12172	-133	184	-164	-16308	644	528	193	-95	-111	-15860	1140	-3824	127	-144	188	-9272	3496	13552	124	-16	-177	-16696	-344	232	-1	-26	83	-15624	-112	-4508	78	6	-43	126	130	8
-9684	-3028	12100	-92	174	-181	-16180	772	396	69	-27	-70	-15840	1316	-3744	180	-173	138	-9244	3536	13428	103	-58	-143	-16656	-392	112	13	-48	132	-15632	-160	-4432	175	-36	1	126	129	8
-9752	-3164	12216	-127	207	-202	-16184	556	264	60	-54	-96	-15764	1288	-3764	-15	-158	121	-9260	3560	13528	126	-51	-125	-16684	-400	144	66	-49	86	-15660	-68	-4372	130	10	6	126	130	8
-9684	-3080	12236	-142	178	-185	-16200	644	344	43	-73	-69	-15696	1096	-3864	-80	-137	126	-9236	3476	13456	115	-69	-146	-16692	-392	20	57	-59	110	-15596	-56	-4724	129	39	0	126	130	8
-9716	-3116	12068	-138	148	-186	-16264	640	468	-27	-110	-83	-15732	1060	-3980	-12	-111	69	-9296	3440	13464	145	-26	-139	-16596	-464	84	8	-77	119	-15552	-64	-4540	137	55	10	126	130	8
-9684	-3120	12164	-147	159	-200	-16208	588	368	-5	-82	-103	-15792	1088	-3864	-62	-148	62	-9260	3484	13544	130	-42	-119	-16716	-512	92	108	-114	123	-15720	-232	-4504	263	-11	11	126	130	8
-9704	-3100	12176	-142	171	-177	-16228	688	432	-79	-151	-72	-15756	1068	-3864	31	-167	92	-9316	3476	13500	119	-35	-184	-16700	-372	36	156	-76	146	-15568	-184	-4412	189	-12	52	126	130	8
-9600	-3076	12196	-162	169	-191	-16232	520	484	-17	-87	-76	-15780	1048	-3752	26	-176	103	-9252	3600	13432	143	-46	-189	-16644	-388	108	145	-83	137	-15632	-92	-4460	174	-30	70	126	131	8
-9632	-3184	12112	-105	134	-192	-16200	520	600	37	-76	-58	-15804	1000	-3708	7	-169	144	-9296	3512	13508	156	-11	-162	-16660	-408	156	86	-84	124	-15580	12	-4680	136	1	53	126	130	8
-9704	-3096	12252	-116	157	-160	-16256	636	492	69	-65	-70	-15808	872	-3768	103	-130	153	-9260	3512	13476	150	28	-173	-16652	-404	-4	47	-68	165	-15592	-116	-4376	138	-35	36	126	130	8
-9648	-3096	12092	-104	139	-200	-16184	620	448	59	-44	-66	-15840	1076	-3772	185	-149	172	-9240	3480	13532	141	10	-143	-16624	-436	268	55	-61	160	-15616	-232	-4396	166	-13	38	126	131	8
-9644	-3108	12180	-103	112	-198	-16172	544	424	64	-53	-19	-15748	1108	-3700	181	-129	174	-9300	3500	13508	154	-33	-161	-16648	-332	124	36	-42	174	-15620	-168	-4492	149	-37	36	126	130	8
-9760	-3160	12232	-84	103	-177	-16280	672	376	44	-57	-37	-15684	1116	-3808	28	-119	193	-9268	3588	13420	139	-35	-166	-16740	-316	104	28	-69	139	-15556	-148	-4492	244	13	95	126	130	8
-9676	-3056	12136	-105	122	-230	-16292	584	524	-65	-56	-67	-15776	1172	-3824	-50	-89	159	-9212	3540	13484	156	-30	-169	-16728	-480	-40	57	-99	175	-15592	-104	-4588	166	-5	91	126	130	8
-9620	-3160	12220	-131	166	-173	-16252	564	576	-32	-106	-53	-15860	1156	-3772	-68	-159	103	-9296	3460	13548	145	-14	-172	-16572	-440	-36	168	-100	184	-15592	-4	-4564	280	-18	93	126	130	8
-9704	-3112	12272	-112	156	-169	-16200	656	416	-44	-99	-56	-15852	1224	-3756	-52	-179	66	-9300	3536	13492	136	-37	-170	-16628	-292	176	258	-49	153	-15632	4	-4308	225	3	60	126	130	8
-9664	-3120	12252	-149	157	-172	-16156	636	372	-2	-69	-27	-15652	1080	-3768	-56	-227	114	-9260	3528	13528	119	-28	-131	-16628	-368	120	104	-38	147	-15612	-56	-4428	256	-27	45	126	130	8
-9644	-3152	12064	-143	142	-182	-16148	632	456	15	-63	-71	-15832	1004	-3744	68	-164	107	-9372	3496	13520	146	-46	-180	-16680	-404	252	32	-73	149	-15680	-124	-4392	176	26	28	126	130	8
-9680	-3156	12088	-68	125	-199	-16236	592	560	32	-55	-32	-15824	1116	-3624	98	-81	150	-9328	3508	13548	147	-13	-177	-16716	-504	108	-11	-18	170	-15556	-40	-4452	154	20	13	126	130	8
-9688	-3084	12140	-116	100	-196	-16212	668	436	-38	-73	-38	-15796	1076	-3792	22	-64	210	-9292	3484	13472	140	-46	-150	-16728	-388	92	-9	-13	137	-15560	-76	-4472	110	55	5	126	130	8
-9656	-3104	12164	-86	117	-166	-16244	588	396	-75	-66	-39	-15732	1156	-3688	51	-79	165	-9292	3568	13560	142	-86	-140	-16596	-300	88	12	-27	131	-15608	20	-4276	136	1	7	126	130	8
-9716	-3032	12228	-58	103	-168	-16176	496	416	34	-14	-46	-15700	1116	-3784	64	-142	143	-9240	3508	13432	154	-80	-139	-16672	-320	144	-17	-1	110	-15584	-28	-4436	129	-19	8	126	130	8
-9620	-3100	12156	-87	137	-196	-16272	668	316	129	-3	-21	-15776	1168	-3648	37	-128	137	-9256	3608	13664	108	-46	-145	-16712	-340	120	52	6	131	-15660	-40	-4392	243	-2	36	126	129	8
-9684	-3096	12216	-81	156	-145	-16292	696	552	22	-12	-37	-15828	1180	-3696	16	-88	136	-9276	3504	13508	124	-66	-129	-16808	-468	188	132	-46	137	-15644	-12	-4672	247	42	24	127	130	8
-9628	-3132	12304	-65	128	-208	-16268	684	436	-165	-45	-61	-15708	1144	-3648	-45	-84	119	-9208	3460	13488	121	-23	-186	-16684	-380	88	148	-19	132	-15540	-124	-4412	224	52	18	127	129	8
-9720	-3160	12160	-117	118	-176	-16168	560	484	-122	-9	-14	-15784	1032	-3740	-131	-80	172	-9276	3504	13564	158	-72	-161	-16712	-420	16	153	13	127	-15612	-56	-4424	224	103	29	126	130	8
-9656	-3080	12204	-95	122	-188	-16288	648	492	-63	-25	-39	-15884	948	-3680	-54	-76	141	-9244	3500	13492	151	11	-174	-16688	-336	100	66	-35	134	-15652	-8	-4464	167	51	6	127	130	8
-9684	-3072	12164	-82	121	-202	-16308	676	480	-41	-15	-26	-15816	1104	-3848	-14	-56	144	-9272	3520	13460	146	-12	-173	-16616	-376	132	-53	5	118	-15612	-164	-4364	167	29	14	127	130	8
-9720	-3100	12156	-112	143	-183	-16152	672	356	8	-40	-45	-15768	1204	-3704	-40	-85	157	-9260	3508	13412	136	-39	-140	-16704	-396	164	26	64	89	-15584	32	-4484	141	-18	26	127	130	8
-9684	-3080	12200	-91	144	-143	-16228	600	544	-78	10	-75	-15732	1156	-3836	-29	-56	168	-9252	3548	13404	103	-95	-159	-16700	-296	4	98	-30	98	-15532	76	-4480	177	64	11	127	130	8
-9632	-3096	12068	-85	129	-175	-16248	616	444	6	-11	1	-15768	1212	-3700	89	-51	146	-9264	3472	13552	127	-37	-125	-16624	-376	128	46	6	103	-15588	-12	-4384	231	61	-12	126	129	8
-9648	-3092	12144	-89	148	-184	-16168	620	552	103	-21	-86	-15840	1164	-3856	104	-49	149	-9356	3520	13476	120	-61	-163	-16732	-408	80	138	-9	75	-15608	-4	-4428	213	76	-25	126	129	8
-9704	-3076	12112	-95	125	-167	-16264	772	452	18	11	-64	-15804	1160	-3772	101	-91	142	-9244	3544	13424	124	2	-180	-16656	-356	48	62	1	76	-15600	-32	-4488	170	96	2	127	128	8
-9704	-3100	12244	-85	141	-166	-16292	648	532	-98	-9	-67	-15792	1148	-3696	41	-84	147	-9308	3460	13616	102	-64	-127	-16672	-332	108	52	25	58	-15636	-76	-4516	190	45	-19	126	129	8
-9744	-3132	12176	-74	127	-166	-16200	592	524	-33	-29	-72	-15792	1100	-3724	27	-20	130	-9276	3556	13584	83	-40	-187	-16620	-428	132	87	52	79	-15636	-32	-4400	192	-13	-47	127	129	8
-9724	-3044	12232	-80	109	-187	-16208	608	476	128	25	-33	-15832	1160	-3684	49	8	140	-9272	3476	13476	111	-59	-161	-16672	-416	64	63	-33	94	-15680	-196	-4424	167	-47	-24	126	130	8
-9668	-3116	12096	-117	116	-183	-16228	628	468	88	51	-84	-15824	1192	-3732	45	-27	126	-9276	3512	13488	83	-51	-155	-16732	-368	8	-19	-11	74	-15592	-84	-4428	175	7	-36	126	129	8
-9712	-3096	12236	-83	86	-197	-16196	728	432	-11	23	-69	-15784	1176	-3804	16	-19	102	-9156	3536	13596	133	-67	-198	-16732	-484	48	11	35	85	-15596	-64	-4412	204	31	-25	126	129	8
-9700	-3124	12156	-80	161	-171	-16240	656	392	-21	3	-77	-15756	1156	-3920	-56	-19	92	-9236	3508	13536	100	-28	-181	-16652	-444	-56	103	-60	126	-15608	-140	-4728	198	60	26	127	128	8
-9708	-3056	12212	-110	134	-164	-16164	612	408	-60	15	-37	-15752	1004	-3896	4	-52	112	-9256	3524	13504	140	-37	-148	-16644	-424	48	188	-12	86	-15580	-76	-4492	216	43	16	126	129	8
-9676	-3148	12112	-87	129	-200	-16196	516	564	8	-25	-50	-15788	952	-3860	45	-101	108	-9288	3512	13552	106	-54	-151	-16668	-392	116	232	-29	89	-15640	-48	-4368	233	-26	-1	126	129	8
-9696	-3036	12268	-92	111	-165	-16244	636	504	78	-50	-54	-15828	1060	-3844	56	-71	95	-9208	3528	13516	102	-13	-160	-16628	-296	164	68	-6	138	-15628	-84	-4484	183	54	-4	126	129	8
-9644	-3148	12232	-97	133	-161	-16344	732	420	-35	-28	-75	-15868	1212	-3756	37	-63	140	-9264	3484	13532	118	-67	-185	-16700	-464	124	-14	-8	64	-15616	-124	-4488	182	-8	-21	127	129	8
-9660	-3132	12100	-98	138	-195	-16284	676	484	-15	-40	-61	-15824	1148	-3808	92	-46	170	-9284	3436	13592	129	-10	-155	-16684	-452	152	57	-17	65	-15592	-84	-4420	149	-2	-32	127	129	8
-9712	-3140	12116	-91	146	-208	-16240	620	444	3	-45	-24	-15740	1092	-3768	76	-72	169	-9244	3480	13504	170	-29	-150	-16672	-332	16	75	-29	78	-15584	-116	-4520	206	29	-5	127	128	8
-9744	-3132	12108	-136	110	-162	-16196	548	596	107	-11	-83	-15748	1060	-3740	179	-70	134	-9168	3496	13516	134	-66	-166	-16692	-420	84	80	-3	105	-15520	-48	-4408	211	20	14	127	129	8
-9700	-3124	12212	-64	105	-189	-16272	628	436	154	15	-89	-15792	1088	-3716	124	-83	182	-9196	3544	13664	133	-80	-157	-16684	-368	4	116	-64	98	-15604	-60	-4572	217	37	28	126	129	8
-9684	-3104	12196	-80	142	-162	-16252	664	484	146	-2	-52	-15828	1212	-3804	51	-63	151	-9236	3500	13508	154	-1	-194	-16632	-496	-16	114	-72	112	-15624	-88	-4500	207	43	11	126	129	8
-9700	-3076	12156	-87	155	-178	-16272	640	388	-57	8	-32	-15784	1228	-3780	31	-45	147	-9244	3516	13476	146	-38	-151	-16672	-492	28	213	-48	105	-15596	-156	-4516	257	51	10	126	129	8
-9680	-3156	12304	-112	159	-211	-16192	632	532	-140	-30	-72	-15716	964	-3772	43	-84	137	-9312	3488	13492	140	-22	-148	-16600	-344	112	119	-22	89	-15516	-124	-4472	289	40	8	126	128	8
-9672	-3068	12240	-81	110	-171	-16156	516	372	-19	-5	-60	-15716	1060	-3744	-26	-72	159	-9276	3500	13568	163	-50	-137	-16644	-396	164	113	-43	78	-15624	-88	-4508	241	-16	8	127	128	8
-9688	-3072	12188	-48	108	-167	-16168	648	420	68	-44	-94	-15768	1068	-3780	-22	-76	141	-9236	3476	13524	154	-24	-194	-16636	-340	76	93	-14	105	-15564	-120	-4584	196	-8	50	126	128	8
-9648	-3128	12184	-88	107	-141	-16200	748	380	47	6	-58	-15880	1192	-3948	52	-104	150	-9288	3472	13508	134	-30	-191	-16704	-436	-96	72	-10	138	-15604	-124	-4552	157	9	33	127	128	8
-9684	-3172	12120	-61	154	-155	-16260	744	364	46	-11	-54	-15824	1132	-3876	90	-90	188	-9340	3512	13452	125	24	-144	-16736	-476	8	103	-42	132	-15508	-132	-4552	204	71	2	127	128	8
-9696	-3108	12192	-100	122	-227	-16224	604	472	6	-16	-41	-15748	1012	-3804	140	-36	200	-9284	3512	13492	137	-33	-136	-16592	-380	48	143	-68	140	-15576	-24	-4444	162	23	33	127	128	8
-9672	-3148	12072	-86	134	-190	-16140	548	460	111	-27	-28	-15716	1056	-3844	160	-46	204	-9284	3536	13592	144	-43	-158	-16684	-300	80	81	21	142	-15640	-100	-4388	234	-13	41	126	128	8
-9700	-3152	12220	-68	78	-201	-16228	576	424	213	-42	-41	-15748	1056	-3800	157	-56	181	-9288	3500	13552	155	-92	-157	-16688	-396	24	39	34	152	-15604	-92	-4588	268	-36	50	126	128	8
-9700	-3092	12188	-27	87	-167	-16316	664	464	9	-40	-54	-15856	1284	-3752	19	-89	183	-9192	3488	13508	146	-35	-155	-16824	-436	136	54	22	121	-15692	-152	-4604	183	-31	53	126	128	8
-9684	-3064	12160	-69	162	-188	-16268	708	364	-198	-55	-12	-15908	1336	-3788	-60	-187	150	-9276	3440	13512	169	-30	-177	-16736	-556	80	141	-16	125	-15668	-248	-4568	177	22	38	126	128	8
-9636	-3016	12176	-63	158	-187	-16268	644	348	-223	-18	-36	-15820	1240	-3780	-137	-149	112	-9252	3448	13444	155	-19	-131	-16664	-396	132	156	15	129	-15624	-92	-4480	206	7	23	127	128	8
-9724	-3088	12164	-91	117	-219	-16152	576	356	-270	-91	-30	-15700	1288	-3660	-272	-174	122	-9280	3548	13616	127	-25	-148	-16740	-408	72	71	37	101	-15664	-180	-4420	302	1	67	127	128	8
-9680	-3152	12208	-83	100	-186	-16228	608	388	-399	-71	-17	-15668	1116	-4028	-315	-153	73	-9260	3552	13476	147	-31	-156	-16600	-392	32	116	56	120	-15548	-116	-4424	228	-43	97	127	128	8
-9636	-3164	12220	-86	61	-161	-16300	568	324	-235	-77	-26	-15688	1048	-3952	-340	-180	26	-9288	3488	13636	99	-1	-175	-16664	-364	-68	81	34	137	-15388	-104	-4648	227	-23	149	127	128	8
-9704	-2980	12172	-54	128	-156	-16428	784	332	-238	-89	-54	-15880	1228	-3960	-310	-216	45	-9260	3456	13468	145	-65	-182	-16804	-548	-236	36	20	103	-15452	24	-4644	208	27	83	126	128	8
-9648	-3108	12204	-115	161	-189	-16256	756	420	-272	-91	-24	-15748	1240	-3920	-196	-264	90	-9336	3472	13528	154	-46	-149	-16656	-568	-196	132	-16	153	-15404	76	-4760	223	74	52	126	128	8
-9608	-3164	12224	-148	183	-200	-16332	596	372	-101	-111	-48	-15764	1180	-3792	-20	-203	125	-9348	3492	13528	151	11	-134	-16636	-464	-48	69	-104	134	-15448	-56	-4832	95	91	-19	126	128	8
-9740	-3132	12080	-117	165	-197	-16176	480	508	170	-70	-66	-15684	972	-3792	224	-238	141	-9272	3496	13772	142	1	-137	-16652	-376	80	-7	-57	147	-15652	-64	-4480	41	-32	-70	126	128	8
-9636	-3104	12148	-120	173	-193	-16192	660	384	243	-75	-48	-15708	1016	-3780	246	-219	95	-9248	3484	13624	149	-70	-129	-16652	-356	68	-58	-57	169	-15612	-68	-4296	16	15	-8	127	128	8
-9652	-3152	12136	-104	151	-200	-16252	692	416	119	-79	-69	-15764	1044	-3696	265	-133	181	-9156	3504	13572	164	-40	-124	-16672	-368	140	-74	-75	200	-15660	-168	-4468	168	2	-43	126	128	8
-9708	-3120	12140	-91	134	-210	-16208	608	460	70	-73	-60	-15852	988	-3756	234	-113	213	-9196	3452	13384	137	-104	-139	-16764	-524	48	44	-61	187	-15636	-148	-4528	167	-12	36	127	128	8
-9732	-3132	12180	-83	104	-180	-16228	496	540	94	-44	-39	-15896	1096	-3780	207	-106	240	-9304	3504	13448	144	-79	-166	-16728	-408	-32	114	-56	183	-15584	-116	-4680	220	31	105	127	128	8
-9664	-3128	12160	-107	115	-165	-16236	572	472	191	-17	-47	-15740	1184	-3752	256	-118	200	-9312	3488	13500	146	-41	-162	-16700	-408	64	100	-96	190	-15544	-104	-4660	276	2	72	127	128	8
-9604	-3140	12308	-91	139	-171	-16248	668	424	133	-6	-13	-15816	1336	-3724	111	-158	167	-9292	3564	13560	144	-71	-157	-16664	-304	-16	116	-54	179	-15604	4	-4524	250	-23	99	126	128	8
-9564	-3112	12144	-83	144	-196	-16256	604	380	94	-54	-26	-15792	1296	-3772	7	-190	133	-9240	3504	13500	141	-65	-147	-16684	-476	-48	168	-52	173	-15644	-20	-4428	281	-60	79	127	128	8
-9656	-3092	12168	-45	136	-183	-16180	676	356	-34	-85	-60	-15776	1144	-3716	-119	-71	159	-9252	3556	13468	126	-19	-128	-16624	-332	184	208	-40	155	-15708	-44	-4316	280	-80	42	127	128	8
-9668	-3096	12236	-66	115	-206	-16160	636	432	-92	-69	-62	-15780	1176	-3836	-23	-74	137	-9240	3516	13520	140	-59	-118	-16604	-352	240	142	-39	151	-15608	-48	-4300	209	-19	10	127	128	8
-9688	-3108	12136	-83	132	-165	-16188	552	424	-79	-18	-49	-15764	1128	-3824	83	-94	170	-9280	3556	13428	127	-43	-166	-16576	-348	120	107	-8	135	-15596	4	-4460	191	29	44	127	128	8
-9640	-3116	12236	-80	163	-162	-16220	600	532	112	-27	-48	-15796	1148	-3924	110	-114	173	-9284	3512	13516	158	-79	-185	-16700	-360	72	-31	-34	113	-15664	-28	-4488	122	63	49	127	128	8
-9652	-3064	12228	-47	102	-166	-16240	684	468	120	-11	-47	-15832	1240	-3816	60	-173	166	-9264	3428	13552	142	-14	-217	-16764	-536	52	-20	-40	140	-15604	-56	-4412	136	5	5	127	128	8
-9680	-3140	12116	-57	119	-186	-16300	740	352	39	-46	-41	-15748	1200	-3924	-14	-117	196	-9272	3436	13512	153	-34	-166	-16660	-440	-28	63	-39	147	-15484	-8	-4580	123	12	-6	127	128	8
-9688	-3084	12248	-111	169	-202	-16276	636	308	-39	-67	-66	-15700	1236	-3840	-4	-125	182	-9332	3504	13464	164	-29	-147	-16628	-340	36	32	-8	112	-15532	-52	-4640	57	13	-11	126	128	8
-9732	-3144	12040	-83	135	-221	-16124	556	288	-72	-56	-31	-15812	1176	-3780	60	-127	103	-9320	3568	13492	116	-38	-137	-16648	-360	136	3	-12	114	-15608	-72	-4424	47	-18	-33	126	128	8
-9708	-3128	12196	-113	129	-185	-16272	576	424	23	-40	-68	-15768	1256	-3808	30	-171	77	-9224	3488	13576	135	-17	-174	-16712	-408	148	-12	7	119	-15568	16	-4352	65	-5	-13	126	128	8
-9652	-3152	12160	-69	102	-202	-16156	620	480	12	-119	-43	-15896	1120	-3784	18	-155	79	-9280	3536	13564	127	-25	-158	-16716	-336	24	-43	7	105	-15696	0	-4424	58	7	0	126	128	8
-9744	-2992	12252	-91	111	-169	-16384	788	452	-76	-66	-80	-15920	1224	-3780	-38	-152	94	-9284	3464	13500	148	-27	-150	-16764	-372	12	-9	-15	116	-15672	-20	-4468	15	52	-36	127	128	8
-9716	-3124	12140	-119	184	-189	-16292	632	440	-185	-37	-91	-15892	1204	-3696	-64	-144	99	-9260	3520	13536	129	-46	-165	-16648	-328	48	0	6	79	-15556	-56	-4512	92	79	-36	126	127	8
-9672	-3084	12204	-119	168	-181	-16232	560	524	-87	-51	-65	-15780	1056	-3732	-81	-116	105	-9288	3448	13480	108	-21	-163	-16644	-360	8	-2	40	87	-15600	-96	-4500	156	-8	-22	127	129	8
-9664	-3164	12176	-140	148	-186	-16152	532	488	52	-48	-39	-15712	1080	-3724	-52	-79	120	-9248	3488	13508	136	-14	-163	-16648	-428	116	-12	15	56	-15568	-224	-4420	162	-13	8	127	128	8
-9624	-3128	12212	-89	116	-210	-16176	652	444	71	-83	-47	-15764	1156	-3828	-41	-119	96	-9212	3584	13668	124	1	-158	-16708	-456	-72	57	-27	109	-15540	-216	-4564	208	-20	7	127	128	8
-9648	-3052	12160	-118	109	-188	-16280	784	392	-31	-72	-74	-15772	1268	-3916	-116	-144	94	-9304	3488	13524	106	-39	-168	-16644	-412	-48	101	-55	92	-15460	-60	-4684	192	-5	49	127	128	8
-9708	-3176	12172	-102	156	-193	-16292	740	336	-231	-73	-66	-15780	1216	-3940	-122	-201	69	-9236	3492	13512	115	-27	-198	-16712	-420	-116	140	-84	159	-15536	-40	-4788	159	-3	28	127	129	8
-9696	-3116	12200	-84	146	-185	-16252	736	400	-231	-72	-82	-15804	940	-3804	34	-138	94	-9240	3548	13648	135	8	-137	-16716	-520	-28	79	-91	130	-15548	-92	-4568	146	43	0	126	128	8
-9716	-3108	12112	-118	135	-202	-16208	536	404	107	-68	-72	-15812	916	-3780	178	-83	124	-9276	3516	13504	171	24	-185	-16632	-456	92	89	-103	109	-15580	-132	-4420	137	8	-37	126	128	8
-9652	-3088	12140	-67	132	-178	-16304	644	468	275	-42	-35	-15808	1192	-3748	229	-63	187	-9304	3500	13544	129	-49	-147	-16668	-304	164	32	-134	99	-15680	-68	-4424	77	-2	7	126	128	8
-9692	-3104	12176	-86	160	-204	-16260	680	380	153	-46	-57	-15868	1232	-3760	153	-61	222	-9252	3504	13584	125	-50	-146	-16580	-356	332	-3	-52	114	-15664	-4	-4260	66	-18	36	126	128	8
-9684	-3144	12200	-92	145	-135	-16180	656	508	53	-59	-81	-15776	1120	-3872	133	-69	209	-9232	3508	13540	139	-68	-201	-16712	-380	224	87	-45	96	-15732	-12	-4268	140	-66	-1	126	128	8
-9672	-3172	12236	-68	139	-205	-16196	592	548	2	-43	-61	-15832	1052	-3740	46	-123	167	-9232	3504	13472	133	-1	-144	-16772	-472	16	158	-51	145	-15564	-104	-4728	254	-12	-2	126	129	8
-9668	-3176	12064	-103	134	-178	-16264	532	500	40	-65	-77	-15820	1156	-3780	53	-146	149	-9312	3452	13568	167	-58	-184	-16612	-268	104	66	-24	129	-15556	-192	-4548	202	64	-21	126	129	8
-9700	-3132	12152	-98	140	-189	-16324	648	460	-4	-33	-95	-15808	1212	-3768	29	-174	78	-9284	3488	13564	164	-6	-119	-16652	-392	108	-55	-71	125	-15588	-144	-4416	135	19	18	126	128	8
-9660	-3096	12224	-85	155	-198	-16228	692	360	-125	-39	-85	-15784	1268	-3696	-53	-168	40	-9268	3452	13508	170	9	-143	-16616	-408	104	-2	-54	123	-15628	-76	-4344	160	-48	38	127	129	8
-9684	-3116	12208	-134	148	-209	-16208	528	472	-82	-18	-56	-15704	1100	-3716	-103	-135	65	-9256	3504	13460	120	-43	-174	-16688	-340	68	85	-27	114	-15624	32	-4272	171	-71	17	127	128	8
-9664	-3080	12236	-91	129	-184	-16260	648	584	-27	-51	-82	-15776	1056	-3752	3	-91	75	-9288	3492	13508	151	-75	-163	-16716	-388	16	57	37	94	-15564	0	-4508	243	-38	30	127	128	8
-9708	-3124	12152	-85	110	-193	-16264	572	460	52	-18	-8	-15836	944	-3832	71	-100	100	-9244	3476	13472	111	-54	-152	-16696	-384	4	52	18	124	-15616	-32	-4496	182	19	-12	127	128	8
-9692	-3128	12140	-80	134	-176	-16208	588	504	67	-15	-24	-15764	960	-3720	138	-101	150	-9264	3484	13532	142	-63	-145	-16680	-380	112	34	-19	99	-15560	-80	-4388	138	-14	19	126	128	8
-9672	-3080	12244	-78	74	-173	-16248	672	368	130	-42	-67	-15820	1164	-3828	101	-72	189	-9280	3468	13488	145	-63	-154	-16632	-336	104	-1	12	76	-15576	-120	-4488	153	-57	31	126	128	8
-9696	-3108	12144	-78	103	-187	-16268	636	304	29	-27	-66	-15844	1136	-3912	106	-81	192	-9224	3516	13524	119	-102	-153	-16596	-376	68	-69	55	77	-15600	-144	-4400	218	-99	11	126	128	8
-9680	-3112	12100	-95	100	-220	-16256	600	248	-63	-33	-74	-15768	1192	-3756	124	-117	165	-9284	3460	13536	143	-131	-102	-16764	-480	44	-29	74	128	-15620	-160	-4492	268	-74	48	126	128	8
-9696	-3112	12192	-70	113	-211	-16188	628	376	-37	-1	-51	-15844	1164	-3720	68	-77	148	-9184	3544	13516	152	-75	-124	-16780	-480	-44	104	37	88	-15600	-32	-4456	313	-75	38	127	127	8
-9628	-3132	12168	-89	101	-210	-16092	600	488	-9	-10	-65	-15892	1180	-3676	-20	-113	108	-9300	3544	13504	155	-85	-136	-16756	-256	36	185	29	67	-15548	-8	-4436	259	-56	67	126	128	8
-9716	-3112	12172	-81	94	-202	-16236	576	508	2	-28	-54	-15852	1168	-3632	-8	-214	101	-9168	3556	13428	149	-22	-157	-16720	-196	4	131	-10	139	-15600	80	-4568	238	-26	52	126	128	8
-9664	-3092	12196	-95	107	-179	-16268	716	476	-27	-13	-92	-15908	1100	-3632	-51	-148	135	-9308	3548	13512	117	-34	-184	-16696	-352	88	66	48	103	-15772	16	-4492	130	-78	84	126	128	8
-9640	-3112	12124	-65	104	-182	-16356	576	388	-190	3	-35	-15888	1020	-3640	-46	-130	101	-9280	3472	13496	120	-45	-164	-16780	-504	-108	100	3	128	-15640	-208	-4476	247	-177	74	126	129	8
-9752	-3168	12120	-77	92	-159	-16184	440	456	-191	6	2	-15596	748	-3776	-43	-167	137	-9216	3460	13516	122	-60	-174	-16712	-520	16	281	-31	133	-15472	-436	-4628	303	-146	113	127	128	8
-9688	-3112	12164	-13	112	-149	-16124	528	520	-97	14	-79	-15752	964	-3792	-211	-120	56	-9212	3484	13528	126	-48	-89	-16584	-300	-40	290	-13	126	-15348	-156	-4508	254	-178	171	126	128	8
-9660	-3048	12124	-23	92	-167	-16168	688	300	18	16	-56	-15848	1264	-3868	5	-290	339	-9236	3488	13528	159	-44	-164	-16684	-308	-20	88	20	130	-15416	4	-4552	269	-78	156	126	128	8
-9564	-3184	12400	-74	62	-175	-16344	728	512	-101	19	-68	-15780	1388	-3908	-94	-337	179	-9300	3444	13448	149	-12	-143	-16752	-508	-108	41	-58	168	-15480	-8	-4680	334	-72	105	126	127	8
-9572	-2860	12272	-81	107	-191	-16324	724	132	68	10	-84	-15736	1528	-4024	-325	-235	146	-9276	3476	13480	174	-30	-146	-16736	-456	-104	134	-108	213	-15544	68	-4648	215	-16	25	126	128	8
-9692	-3072	12172	-88	150	-181	-16300	756	212	-42	-138	-98	-15680	1328	-4048	-53	-220	51	-9292	3496	13528	148	9	-138	-16624	-208	-164	191	-121	193	-15492	192	-4400	102	-36	-14	126	128	8
-9580	-3048	12208	-121	181	-212	-16140	772	248	-139	-173	-56	-15696	1180	-3968	109	-233	12	-9240	3644	13480	164	9	-140	-16640	-220	-48	58	-164	140	-15492	188	-4444	45	1	20	126	128	8
-9724	-3088	12216	-117	184	-205	-16232	548	512	52	-201	-98	-15728	1112	-3880	210	-196	-18	-9292	3484	13452	126	5	-194	-16664	-392	72	68	-176	157	-15668	8	-4476	25	-4	-12	127	128	8
-9660	-3124	12272	-160	137	-231	-16276	736	508	149	-159	-123	-15828	1148	-3696	128	-257	59	-9268	3448	13568	127	-1	-150	-16716	-532	148	165	-107	132	-15736	-124	-4240	103	-13	-48	126	128	8
-9668	-3080	12096	-167	180	-222	-16184	716	528	-13	-152	-97	-15824	1072	-3564	34	-301	64	-9248	3472	13524	170	-11	-156	-16644	-272	364	53	-112	156	-15740	-20	-4200	-13	32	-86	127	128	8
-9664	-3136	12268	-160	157	-185	-16260	556	392	-71	-144	-126	-15860	1040	-3468	-69	-212	114	-9208	3544	13452	139	-49	-145	-16564	-160	216	-249	-59	101	-15660	160	-4252	-97	23	-66	127	128	8
-9660	-3132	12208	-155	132	-192	-16232	544	480	-23	-141	-119	-15788	1204	-3608	-164	-122	83	-9156	3564	13520	145	-62	-191	-16756	-300	216	-367	-43	90	-15752	12	-4284	-81	35	-69	127	128	8
-9696	-3136	12220	-104	105	-196	-16248	612	504	-95	-107	-94	-15832	1252	-3672	-121	-137	-43	-9236	3460	13496	142	-36	-208	-16708	-576	-120	-123	-45	66	-15700	-8	-4372	-87	48	-57	127	128	8
-9684	-3084	12208	-139	134	-216	-16280	668	492	-181	-137	-101	-15824	1332	-3556	-202	-186	-100	-9152	3448	13448	138	-25	-198	-16788	-528	-200	156	-111	154	-15496	-176	-4648	119	53	-79	127	128	8
-9676	-3140	12196	-148	152	-200	-16172	664	468	-266	-120	-96	-15824	1140	-3540	-274	-198	-70	-9324	3436	13464	136	-50	-172	-16604	-296	-64	96	-108	152	-15452	-208	-4664	91	112	-82	127	128	8
-9660	-3148	12140	-180	128	-177	-16164	508	496	-249	-99	-105	-15716	896	-3688	-210	-207	-40	-9332	3468	13524	143	-28	-162	-16640	-364	104	-61	-72	90	-15528	-216	-4396	106	10	-18	127	128	8
-9744	-3144	12180	-104	135	-177	-16252	496	488	-6	-108	-78	-15788	776	-3800	-79	-171	42	-9144	3628	13436	127	-62	-149	-16752	-424	116	-90	-106	153	-15628	-172	-4516	84	-12	28	127	128	8
-9704	-3168	12156	-139	156	-196	-16236	540	500	104	-66	-39	-15928	864	-3628	129	-106	111	-9248	3476	13484	154	-65	-170	-16736	-608	0	70	-44	192	-15792	-76	-4464	167	-10	19	127	128	8
-9692	-3104	12144	-95	146	-209	-16256	540	444	143	-66	-63	-15804	936	-3584	165	-36	210	-9272	3496	13520	156	-39	-138	-16592	-304	124	219	-64	194	-15680	-72	-4300	225	-7	58	126	128	8
-9724	-3164	12200	-115	137	-197	-16240	656	524	105	-64	-59	-15884	988	-3652	127	-67	282	-9200	3524	13460	146	-48	-147	-16708	-228	192	138	-87	140	-15564	-60	-4384	270	-20	33	127	128	8
-9732	-3084	12140	-68	135	-142	-16188	644	456	102	-26	-70	-15752	1076	-3688	189	-72	299	-9208	3504	13484	140	-5	-161	-16768	-400	-8	7	-97	168	-15544	-124	-4624	288	-41	94	127	129	8
-9648	-3160	12168	-106	120	-204	-16236	568	376	106	-21	0	-15896	1280	-3780	259	-139	263	-9340	3428	13560	170	-27	-146	-16664	-576	60	177	-89	173	-15568	-216	-4700	328	-10	111	126	127	8
-9692	-3064	12168	-112	124	-169	-16268	572	432	86	-53	-60	-15832	1316	-3756	162	-184	188	-9232	3516	13640	200	18	-140	-16748	-456	-108	320	-112	213	-15600	-116	-4476	354	-30	101	126	128	8
-9660	-3104	12160	-119	159	-219	-16160	648	404	105	-45	-40	-15812	1256	-3700	107	-161	166	-9244	3540	13556	190	24	-150	-16632	-308	100	204	-106	191	-15620	-56	-4452	247	-22	151	127	128	8
-9696	-3044	12256	-74	125	-173	-16164	628	456	3	-74	-26	-15832	1124	-3712	-14	-191	126	-9236	3512	13480	163	-54	-105	-16596	-336	224	129	-59	163	-15692	-12	-4288	194	-37	69	127	128	8
-9668	-3116	12192	-60	158	-191	-16280	640	504	-9	-78	-15	-15744	1068	-3528	17	-92	149	-9264	3500	13460	147	24	-132	-16696	-280	272	41	-45	173	-15656	100	-4312	235	-3	95	127	128	8
-9656	-3152	12128	-94	116	-145	-16144	492	452	-27	-76	-23	-15864	1040	-3660	27	-92	160	-9228	3484	13588	146	3	-159	-16688	-284	152	34	-32	119	-15680	16	-4468	261	8	62	127	128	8
-9700	-3144	12192	-96	121	-204	-16212	440	652	77	-28	8	-15852	860	-3684	160	-81	224	-9340	3524	13596	117	-34	-181	-16688	-452	40	123	-21	167	-15632	92	-4380	206	51	51	127	129	8
-9668	-3132	12188	-81	111	-147	-16256	628	452	134	-18	-22	-15912	888	-3740	166	-98	234	-9288	3492	13476	151	-47	-190	-16684	-256	48	94	-1	130	-15556	-40	-4448	224	29	26	126	128	8
-9624	-3124	12200	-58	104	-181	-16300	716	520	144	-12	-5	-15904	1052	-3612	156	-45	297	-9276	3480	13520	110	-32	-185	-16652	-264	80	-13	0	134	-15560	-16	-4400	249	-22	3	127	128	8
-9688	-3100	12212	-105	125	-192	-16216	744	496	-21	17	-39	-15920	1164	-3568	106	-29	311	-9176	3612	13436	113	-116	-135	-16772	-288	24	-8	-17	150	-15592	-40	-4544	264	-4	48	126	128	8
-9636	-3128	12288	-91	122	-186	-16308	676	420	-95	-3	-42	-15756	1336	-3692	-22	-3	240	-9380	3512	13544	111	-77	-155	-16772	-484	-4	75	-20	125	-15604	-84	-4552	306	45	66	126	128	8
-9640	-3124	12180	-127	140	-202	-16232	516	364	-52	0	-38	-15732	1288	-3664	-23	-50	138	-9284	3532	13468	123	-58	-181	-16672	-436	20	234	-53	114	-15560	-4	-4536	282	-10	60	126	129	8
-9620	-3108	12068	-97	117	-199	-16164	584	468	33	-21	-44	-15776	1144	-3648	107	-111	57	-9236	3524	13472	151	-13	-164	-16748	-400	152	184	-116	130	-15492	-72	-4516	241	48	52	126	128	8
-9644	-3104	12040	-88	123	-164	-16256	696	388	126	-43	-7	-15836	1108	-3872	81	-124	50	-9220	3596	13656	165	-32	-192	-16664	-228	-68	-9	-64	128	-15596	-120	-4568	101	109	12	126	129	8
-9672	-3068	12184	-100	145	-203	-16280	748	332	-94	-50	-57	-15812	1064	-3816	-51	-83	128	-9300	3440	13500	154	-57	-151	-16604	-380	148	-57	-88	146	-15568	-8	-4476	59	51	0	126	128	8
-9756	-3084	12212	-79	137	-196	-16260	604	504	-200	-36	-48	-15832	1080	-3872	-87	-55	194	-9256	3588	13476	112	-32	-166	-16580	-340	128	73	-46	123	-15664	4	-4284	134	-78	-14	126	127	8
-9708	-3156	12152	-86	131	-163	-16252	468	424	-63	-45	-22	-15748	992	-3740	83	-46	182	-9280	3604	13556	111	-22	-166	-16736	-156	108	25	-46	97	-15776	96	-4448	203	-79	-12	126	128	8
-9676	-3128	12164	-78	111	-169	-16192	544	608	162	23	-58	-15804	996	-3668	320	-64	226	-9200	3576	13504	109	-36	-164	-16696	-420	68	34	-46	98	-15656	-72	-4320	204	-17	41	127	128	8
-9640	-3084	12172	-70	124	-171	-16248	740	472	227	-11	-82	-15940	1184	-3676	335	-85	201	-9244	3488	13548	127	2	-151	-16720	-404	64	297	-85	82	-15580	-92	-4412	332	3	19	126	128	8
-9696	-3092	12148	-97	131	-189	-16300	772	412	66	-33	-124	-15892	1364	-3684	177	-92	235	-9260	3512	13584	126	56	-173	-16604	-344	-44	304	-73	71	-15592	12	-4304	342	-34	37	126	128	8
-9680	-3116	12168	-53	139	-207	-16280	688	412	-91	-40	-81	-15752	1312	-3640	59	-83	168	-9232	3492	13468	123	-2	-185	-16688	-240	124	187	-6	97	-15624	-20	-4328	255	-49	39	126	129	8
-9664	-3120	12092	-98	131	-195	-16132	576	528	-49	-37	-57	-15704	1088	-3800	77	-62	126	-9232	3500	13532	85	-66	-163	-16716	-340	168	-5	0	89	-15564	-48	-4580	198	-79	34	126	128	8
-9664	-3120	12208	-84	127	-154	-16184	536	448	47	-23	-78	-15784	1196	-3620	39	-48	73	-9264	3468	13464	100	-28	-167	-16780	-504	60	44	-74	57	-15592	-40	-4436	224	-89	9	126	128	8
-9740	-3112	12180	-85	117	-156	-16272	688	520	105	-29	-102	-15748	1140	-3744	-7	-67	90	-9264	3492	13544	127	13	-143	-16720	-400	24	95	-28	92	-15572	-12	-4488	238	-39	22	126	128	8
-9644	-3036	12196	-115	131	-175	-16316	764	264	-22	-45	-101	-15880	1312	-3864	-107	-85	69	-9280	3568	13496	128	-47	-179	-16672	-292	140	157	-60	80	-15532	76	-4444	202	-62	4	126	128	8
-9640	-3084	12148	-137	166	-182	-16212	700	452	-170	-43	-114	-15788	1208	-3840	-39	-96	70	-9284	3512	13572	148	-65	-108	-16652	-328	124	93	-39	94	-15604	-12	-4548	220	-63	-8	126	128	8
-9696	-3088	12112	-100	149	-221	-16208	536	344	-58	-71	-106	-15776	1000	-3896	68	-147	52	-9292	3504	13480	153	-70	-134	-16620	-384	100	60	-35	95	-15636	-96	-4348	204	-123	-14	126	128	8
-9684	-3084	12160	-136	143	-199	-16148	576	516	60	-53	-107	-15684	824	-3808	174	-127	69	-9224	3544	13444	123	-38	-141	-16688	-364	208	81	-22	40	-15520	-124	-4364	229	-86	-9	126	128	8
-9612	-3128	12220	-76	123	-155	-16200	588	392	183	-68	-153	-15760	952	-3748	207	-138	102	-9252	3488	13540	114	-77	-138	-16692	-364	-80	55	-42	119	-15632	-96	-4352	230	-43	22	126	128	8
-9684	-3156	12200	-132	132	-204	-16300	736	504	74	-52	-148	-15844	1152	-3628	96	-91	161	-9240	3548	13584	147	-100	-149	-16748	-472	32	58	-72	98	-15504	-76	-4512	200	-22	-16	126	128	8
-9660	-3088	12156	-89	113	-198	-16284	660	512	-97	-73	-103	-15912	1224	-3588	142	-77	109	-9248	3580	13508	144	-44	-132	-16684	-368	60	62	-74	119	-15600	-36	-4512	266	-31	-4	127	128	8
-9700	-3112	12156	-109	133	-209	-16240	616	492	-89	-87	-115	-15812	1168	-3636	51	-50	74	-9192	3548	13524	99	-29	-159	-16664	-328	112	94	-33	87	-15652	40	-4344	224	-70	-12	126	128	8
-9636	-3124	12144	-98	122	-214	-16172	540	500	143	-47	-107	-15856	1044	-3680	34	-112	39	-9216	3572	13576	147	-62	-157	-16652	-340	92	70	9	73	-15680	-12	-4260	282	-75	15	127	128	8
-9676	-3120	12068	-96	121	-209	-16252	576	532	107	-25	-121	-15832	1048	-3740	-21	-105	26	-9256	3576	13480	127	-46	-174	-16704	-412	76	122	-43	66	-15656	-84	-4376	238	-10	16	127	128	8
-9692	-3196	12216	-88	124	-185	-16192	568	536	-11	-49	-96	-15864	1028	-3716	-46	-102	45	-9268	3516	13456	101	-55	-161	-16636	-488	-32	117	-85	109	-15628	-40	-4392	242	-27	9	127	130	8
-9656	-3100	12140	-86	128	-164	-16264	648	468	-148	-24	-56	-15816	1036	-3756	-74	-96	58	-9256	3508	13432	141	-44	-164	-16612	-376	204	97	-62	82	-15564	-76	-4300	192	-5	22	127	128	8
-9692	-3144	12192	-113	81	-223	-16196	576	376	-168	-63	-92	-15860	1036	-3832	-108	-117	79	-9264	3520	13336	138	-58	-142	-16596	-376	152	39	-55	107	-15624	32	-4388	219	-60	-24	127	128	8
-9692	-3092	12096	-92	113	-203	-16244	520	424	-112	-52	-106	-15760	1008	-3832	-7	-59	146	-9248	3460	13500	156	-54	-141	-16616	-336	228	61	-32	104	-15660	-116	-4412	195	-75	-7	126	129	8
-9628	-3160	12244	-42	130	-205	-16268	504	356	118	-48	-81	-15872	1076	-3912	81	-62	89	-9272	3480	13556	144	-60	-145	-16732	-396	120	76	-45	109	-15732	-196	-4364	265	-74	11	127	128	8
-9740	-3120	12120	-107	137	-205	-16252	652	252	184	-41	-76	-15744	1192	-3796	107	-118	100	-9220	3484	13524	149	-23	-157	-16756	-460	196	149	-27	98	-15608	-196	-4392	287	-64	2	127	128	8
-9688	-3076	12128	-107	149	-253	-16236	656	416	77	-74	-88	-15736	1196	-3836	14	-185	77	-9324	3520	13532	167	-26	-155	-16664	-420	24	153	-59	150	-15560	-108	-4464	292	0	35	126	129	8
-9704	-3124	12156	-134	134	-210	-16156	580	404	-101	-84	-110	-15740	1112	-3700	-2	-172	64	-9268	3572	13512	138	-44	-156	-16656	-320	132	6	-28	94	-15572	-60	-4484	175	5	71	127	128	8
-9680	-3052	12188	-116	87	-216	-16172	404	464	-82	-112	-71	-15780	1040	-3728	-35	-118	51	-9312	3532	13408	140	-43	-152	-16632	-412	16	-104	-52	142	-15556	-48	-4384	169	11	51	127	128	8
-9720	-3152	12156	-111	106	-198	-16192	552	536	-81	-101	-69	-15800	1052	-3688	-44	-71	44	-9268	3484	13448	125	-73	-130	-16652	-416	168	61	-59	130	-15640	-20	-4528	156	-29	6	127	128	8
-9648	-3092	12224	-69	118	-193	-16192	524	388	-44	-119	-38	-15800	968	-3592	-25	-90	82	-9232	3556	13472	116	-79	-130	-16736	-380	40	137	-73	147	-15644	4	-4296	187	-72	-3	127	128	8
-9672	-3124	12128	-107	94	-193	-16256	564	596	-12	-77	-100	-15860	960	-3620	23	-69	112	-9260	3616	13484	113	-92	-167	-16712	-364	112	120	-30	123	-15696	8	-4332	223	6	-9	127	129	8
-9692	-3124	12208	-117	122	-207	-16228	516	572	33	-37	-68	-15868	1032	-3644	-5	-99	163	-9272	3460	13532	102	-56	-151	-16672	-352	56	87	-40	109	-15672	-108	-4360	133	-5	21	127	128	8
-9664	-3184	12196	-95	84	-226	-16240	556	424	70	-61	-28	-15856	1064	-3648	34	-125	152	-9248	3512	13504	137	-55	-152	-16680	-364	124	-43	-50	88	-15720	-52	-4272	89	46	28	127	128	8
-9616	-3144	12268	-92	154	-188	-16204	624	392	21	-50	-83	-15816	1116	-3780	26	-100	144	-9260	3444	13476	146	-49	-142	-16668	-480	128	-51	20	100	-15620	-116	-4344	160	-60	1	127	128	8
-9664	-3108	12248	-103	106	-195	-16284	608	424	-78	-51	-39	-15764	1132	-3796	8	-113	136	-9240	3572	13444	156	-72	-161	-16688	-312	132	23	0	130	-15668	-52	-4508	161	-27	-2	126	128	8
-9656	-3148	12240	-132	117	-199	-16276	512	352	-51	-81	-58	-15776	1232	-3704	-14	-82	89	-9252	3520	13520	121	-27	-145	-16664	-396	168	64	-44	117	-15552	-12	-4388	159	-16	18	126	128	8
-9660	-3100	12260	-76	102	-210	-16284	612	528	-54	-66	-89	-15796	1164	-3824	-80	-149	85	-9308	3512	13516	139	-41	-157	-16656	-420	16	105	-29	119	-15576	-148	-4480	216	-27	32	126	128	8
-9708	-3120	12212	-108	124	-216	-16216	572	500	-35	-93	-92	-15844	1136	-3680	-74	-186	74	-9244	3512	13520	128	-37	-136	-16656	-368	4	130	-94	142	-15628	-68	-4400	175	-33	26	126	128	8
-9644	-3116	12316	-114	136	-208	-16196	492	472	-26	-69	-100	-15856	1056	-3748	-58	-226	17	-9272	3524	13508	118	-56	-119	-16660	-380	12	113	-9	144	-15652	-28	-4304	177	-20	19	127	128	8
-9708	-3076	12216	-105	138	-196	-16224	584	424	15	-89	-56	-15860	960	-3740	-35	-180	36	-9320	3512	13472	130	-27	-151	-16696	-356	100	38	1	124	-15652	-56	-4464	179	-32	13	127	128	8
-9644	-3168	12264	-83	114	-166	-16192	568	536	-62	-82	-115	-15768	996	-3636	-30	-155	52	-9396	3412	13652	137	-39	-142	-16640	-332	212	54	-18	150	-15700	-32	-4252	96	-58	21	127	129	8
-9640	-3080	12232	-88	129	-183	-16284	604	500	-130	-105	-69	-15896	944	-3756	3	-103	126	-9208	3476	13492	149	-67	-144	-16756	-388	-68	-9	8	123	-15664	-64	-4372	97	-39	11	127	129	8
-9652	-3156	12200	-83	159	-220	-16220	564	452	-17	-68	-71	-15812	1060	-3716	49	-104	135	-9304	3504	13588	131	-46	-124	-16688	-364	-60	41	16	141	-15648	-96	-4344	120	-35	-6	126	128	8
-9644	-3104	12204	-85	113	-193	-16244	536	368	62	-71	-102	-15756	1124	-3712	60	-86	114	-9248	3496	13584	139	-58	-104	-16604	-360	84	1	-29	134	-15620	-104	-4376	177	-70	23	126	128	8
-9716	-3200	12188	-90	139	-187	-16256	560	420	81	-44	-48	-15792	1060	-3740	39	-130	155	-9276	3532	13512	164	-71	-147	-16680	-408	148	-10	24	133	-15672	-52	-4464	216	-126	17	126	128	8
-9680	-3128	12172	-114	111	-184	-16248	584	408	29	-68	-28	-15844	1040	-3732	21	-183	111	-9264	3504	13488	154	-96	-109	-16616	-404	36	68	-11	124	-15656	-160	-4316	201	-125	31	127	128	8
-9688	-3140	12184	-86	150	-172	-16292	612	540	6	-88	-88	-15856	1076	-3724	-26	-158	79	-9240	3508	13576	136	-31	-154	-16680	-408	116	89	30	140	-15636	-80	-4284	288	-111	56	127	128	8
-9660	-3108	12208	-71	138	-213	-16316	724	392	-100	-117	-84	-15812	1184	-3652	-62	-140	109	-9244	3448	13492	158	-105	-72	-16676	-376	88	232	44	71	-15748	-84	-4308	363	-137	60	127	128	8
-9688	-3152	12176	-91	172	-194	-16268	512	512	-124	-109	-65	-15740	1072	-3736	22	-111	93	-9224	3492	13440	154	-75	-104	-16608	-244	80	176	79	168	-15684	-48	-4280	315	-93	108	127	128	8
-9632	-3120	12236	-59	128	-206	-16148	460	576	-4	-108	-74	-15708	988	-3688	94	-126	133	-9212	3588	13540	152	-36	-79	-16744	-428	80	238	85	82	-15656	56	-4264	285	-170	76	126	128	8
-9608	-3172	12184	-100	118	-205	-16160	440	504	220	-69	-68	-15824	988	-3664	88	-137	119	-9184	3544	13592	126	-117	-153	-16800	-348	108	222	43	128	-15552	-8	-4384	358	-109	88	126	128	8
-9712	-3140	12188	-62	120	-223	-16264	564	476	212	-79	-94	-15876	1004	-3708	68	-200	181	-9224	3452	13524	160	-76	-157	-16820	-408	16	116	-30	117	-15632	-52	-4540	320	-52	44	126	128	8
-9664	-3132	12184	-67	95	-192	-16280	688	476	26	-89	-73	-15840	1068	-3688	60	-164	144	-9264	3476	13496	109	-54	-146	-16700	-492	-108	93	-7	125	-15580	-84	-4336	130	-62	64	127	128	8
-9636	-3152	12204	-86	99	-188	-16284	624	552	-133	-66	-79	-15824	1100	-3616	-18	-165	122	-9256	3484	13504	161	-61	-128	-16652	-280	40	74	-53	143	-15608	-4	-4424	189	-32	25	127	128	8
-9704	-3152	12168	-92	109	-201	-16240	548	432	-178	-100	-53	-15832	1072	-3720	-20	-105	109	-9212	3576	13460	155	-24	-116	-16632	-368	68	76	-16	112	-15648	32	-4292	143	-103	-8	127	128	8
-9656	-3188	12156	-61	84	-214	-16188	512	620	-27	-43	-47	-15732	1092	-3648	-29	-116	98	-9204	3552	13504	129	-43	-126	-16680	-376	-24	147	38	92	-15608	-100	-4348	153	-151	35	126	128	8
-9644	-3152	12188	-93	127	-205	-16224	552	508	116	-58	-46	-15808	1140	-3732	2	-185	99	-9212	3580	13528	147	-66	-121	-16652	-344	28	241	29	131	-15656	-80	-4176	184	-64	18	126	128	8
-9692	-3100	12188	-82	137	-229	-16324	556	504	121	-59	-75	-15844	1032	-3740	37	-184	114	-9252	3556	13544	157	-63	-142	-16708	-428	164	212	25	119	-15680	-60	-4204	260	-52	26	127	128	8
-9616	-3088	12244	-68	146	-186	-16184	580	384	67	-49	-78	-15832	992	-3768	19	-130	128	-9240	3512	13552	141	-9	-160	-16704	-364	96	103	-27	161	-15652	-128	-4308	302	-4	79	127	128	8
-9660	-3156	12212	-105	138	-191	-16260	564	356	-36	-49	-60	-15828	1012	-3768	2	-109	186	-9236	3528	13584	123	-81	-156	-16724	-444	20	131	-61	114	-15604	-16	-4300	229	-27	52	126	128	8
-9660	-3148	12204	-72	132	-166	-16264	500	568	-53	-56	-23	-15804	980	-3724	84	-120	141	-9224	3536	13508	156	-3	-149	-16688	-356	-64	114	-33	151	-15612	-44	-4392	255	-7	84	126	128	8
-9648	-3084	12112	-98	153	-194	-16216	548	564	10	-97	-59	-15816	1080	-3708	34	-125	127	-9244	3620	13516	128	17	-131	-16680	-348	-8	53	-29	123	-15688	-32	-4476	213	-35	30	126	128	8
-9748	-3112	12228	-94	114	-215	-16252	648	500	31	-44	-85	-15812	1184	-3668	-67	-157	111	-9140	3508	13456	164	-43	-136	-16632	-404	196	132	-48	129	-15684	-24	-4208	156	-88	31	127	128	8
-9656	-3160	12224	-86	160	-193	-16272	632	560	-46	-57	-62	-15792	1096	-3636	17	-167	69	-9192	3556	13532	142	-72	-140	-16696	-320	140	149	-31	110	-15628	20	-4180	188	-45	33	127	128	8
-9640	-3188	12052	-96	135	-176	-16244	536	536	-8	-48	11	-15808	980	-3480	18	-98	116	-9192	3568	13516	147	-48	-151	-16496	-340	88	46	-58	147	-15588	-56	-4120	153	-40	0	127	128	8
-9672	-3184	12256	-84	160	-196	-16212	576	568	67	-66	-76	-15836	992	-3672	63	-62	130	-9220	3544	13520	134	-31	-154	-16708	-288	136	50	-7	128	-15648	24	-4336	173	18	7	126	129	8
-9632	-3120	12212	-86	112	-179	-16184	600	492	98	-38	-72	-15796	940	-3692	101	-109	120	-9256	3524	13528	100	-7	-163	-16708	-400	116	-51	-20	108	-15608	-80	-4204	183	-9	30	127	128	8
-9700	-3164	12232	-96	114	-160	-16292	588	424	31	18	-40	-15852	1036	-3640	113	-94	175	-9192	3512	13504	143	-39	-144	-16648	-424	84	52	-31	84	-15672	-128	-4224	192	3	27	126	129	8
-9672	-3136	12184	-95	122	-198	-16204	544	400	69	-26	-59	-15816	1112	-3860	64	-70	185	-9208	3516	13536	111	-33	-166	-16620	-404	76	113	-20	108	-15572	-80	-4332	230	-16	25	126	129	8
-9652	-3112	12260	-84	119	-198	-16244	532	540	35	-43	-39	-15832	1080	-3640	35	-76	191	-9312	3540	13588	111	-66	-133	-16664	-312	68	126	-4	96	-15660	84	-4304	244	12	38	126	129	8
-9676	-3148	12252	-121	117	-184	-16288	556	488	14	-46	-83	-15888	1096	-3652	83	-87	124	-9204	3536	13584	127	-105	-140	-16660	-384	44	115	6	121	-15628	8	-4300	251	-26	20	126	129	8
-9700	-3240	12232	-111	106	-232	-16252	556	532	21	-13	-100	-15836	1092	-3640	81	-76	103	-9228	3516	13616	137	11	-185	-16740	-404	80	138	-44	125	-15656	44	-4320	209	4	14	126	129	8
-9736	-3108	12164	-94	126	-184	-16168	496	472	55	-11	-45	-15788	1036	-3524	56	-74	78	-9208	3544	13420	115	-29	-153	-16700	-460	-20	144	-43	115	-15676	-68	-4192	193	102	-46	126	129	8
-9636	-3104	12244	-73	131	-179	-16244	612	452	47	-11	-55	-15848	1064	-3700	-36	-56	142	-9212	3556	13524	131	-32	-194	-16768	-288	128	70	-58	74	-15656	-64	-4292	153	64	-58	126	130	8
-9704	-3152	12148	-107	155	-176	-16244	576	576	-84	-1	-84	-15828	1056	-3676	-122	-68	137	-9200	3460	13544	115	-56	-181	-16648	-436	24	-116	-13	85	-15620	-148	-4304	99	65	-14	126	129	8
-9600	-3132	12256	-90	120	-193	-16244	460	364	-117	-24	-78	-15800	964	-3612	-48	-67	141	-9176	3508	13528	146	4	-195	-16744	-476	-56	11	-79	99	-15592	-180	-4408	181	66	37	126	130	8
-9804	-3096	12104	-58	131	-213	-16220	524	480	-64	-75	-30	-15748	1040	-3680	20	-78	96	-9224	3528	13564	153	4	-174	-16664	-424	-28	87	-93	146	-15632	-144	-4352	260	101	18	126	130	8
-9688	-3124	12188	-106	140	-143	-16192	528	580	50	-53	-55	-15852	940	-3648	95	-116	133	-9284	3592	13580	132	18	-202	-16556	-408	48	241	-107	79	-15692	84	-4288	166	62	43	126	130	8
-9668	-3132	12124	-86	132	-177	-16236	604	560	43	-7	-52	-15872	1056	-3612	80	-157	161	-9148	3536	13476	106	-6	-194	-16768	-344	156	229	-107	121	-15680	76	-4204	214	99	13	126	131	8
-9624	-3160	12068	-99	131	-156	-16276	576	776	-18	12	-49	-15968	900	-3532	165	-186	156	-9120	3472	13492	94	-16	-214	-16776	-320	112	89	-109	144	-15716	-116	-4296	268	155	5	126	130	8
-9688	-3072	12208	-86	168	-120	-16260	600	600	4	23	-75	-15844	932	-3424	94	-139	282	-9268	3476	13548	138	19	-232	-16640	-332	180	-65	-74	143	-15580	-84	-4448	161	91	-22	126	130	8
-9740	-3068	12176	-85	168	-130	-16168	552	680	-16	78	-12	-15884	1108	-3644	98	-132	307	-9288	3572	13456	129	-6	-195	-16596	-224	148	-118	-109	93	-15716	-16	-4224	77	15	5	126	131	8
-9688	-3188	12160	-77	147	-130	-16240	428	404	140	57	-59	-15804	1120	-3616	94	-57	244	-9212	3532	13588	114	-24	-240	-16576	-432	348	-38	-21	151	-15684	-52	-4072	12	-10	-3	126	131	8
-9724	-3064	12152	-71	138	-146	-16304	564	336	140	49	-35	-15696	1148	-3856	157	-7	187	-9192	3540	13548	128	-28	-256	-16744	-340	156	-93	16	146	-15744	-36	-4252	69	-26	-23	126	131	8
-9648	-3048	12152	-99	140	-135	-16280	572	364	97	65	-21	-15804	1088	-3888	101	-50	146	-9248	3476	13584	119	26	-201	-16660	-412	244	-69	35	144	-15644	-168	-4292	109	-13	-57	126	131	8
-9744	-3116	12204	-69	131	-199	-16264	628	288	101	-32	-32	-15712	1132	-3732	-39	-77	186	-9240	3568	13632	102	28	-172	-16648	-360	48	-3	-7	174	-15572	-92	-4292	136	34	18	126	131	8
-9704	-3148	12172	-78	121	-187	-16316	548	392	-88	4	-44	-15808	1028	-3792	-60	-124	150	-9232	3548	13520	125	-4	-177	-16628	-352	-108	-17	31	116	-15560	-96	-4488	223	79	29	126	131	8
-9700	-3132	12248	-79	116	-212	-16228	596	416	-97	-14	-51	-15788	1020	-3756	19	-173	111	-9300	3488	13392	95	-26	-176	-16692	-424	4	-16	32	114	-15564	-128	-4456	278	108	95	126	132	8
-9676	-3128	12272	-55	163	-134	-16232	660	488	-1	-16	-47	-15824	1104	-3672	73	-132	138	-9268	3544	13572	117	-40	-198	-16688	-540	40	80	-62	107	-15532	-164	-4300	294	109	27	126	131	8
-9656	-3136	12188	-111	170	-170	-16252	636	524	-71	-41	-6	-15828	1064	-3712	6	-82	186	-9244	3560	13432	111	-10	-136	-16672	-452	-48	95	8	146	-15692	-52	-4360	223	55	21	126	131	8
-9624	-3104	12160	-104	122	-165	-16192	548	548	-22	-2	-42	-15896	1120	-3760	67	-57	165	-9268	3508	13464	150	-40	-151	-16632	-364	100	75	-16	99	-15616	68	-4212	151	-38	-4	126	132	8
-9692	-3096	12132	-92	121	-175	-16268	552	568	67	8	-39	-15828	992	-3636	147	-69	200	-9228	3520	13560	164	-73	-129	-16660	-432	68	43	21	100	-15664	-88	-4124	13	46	-50	126	131	8
-9636	-3120	12196	-96	102	-177	-16252	548	420	182	4	-53	-15852	1072	-3660	134	-55	177	-9252	3496	13536	136	-35	-190	-16660	-448	-8	62	38	110	-15608	-152	-4292	120	54	-24	126	131	8
-9680	-3168	12156	-59	141	-179	-16292	672	412	148	-1	-60	-15824	1160	-3784	38	-86	203	-9336	3576	13492	158	-22	-191	-16824	-396	164	-55	-68	114	-15624	-80	-4416	141	62	-27	126	132	8
-9664	-3092	12176	-70	116	-198	-16308	632	444	-65	-33	-32	-15760	1092	-3832	-20	-141	174	-9228	3468	13596	165	4	-149	-16648	-468	-28	-61	-55	134	-15692	-196	-4412	126	97	20	126	132	8
-9676	-3120	12192	-102	135	-173	-16208	548	448	-133	-73	-53	-15788	1088	-3896	-72	-110	152	-9260	3496	13580	134	-9	-161	-16612	-416	20	140	-47	142	-15636	-124	-4296	322	-5	23	126	131	8
-9700	-3096	12220	-77	113	-193	-16228	544	480	-129	-93	-64	-15808	1044	-3736	-23	-124	91	-9252	3480	13508	143	-21	-152	-16608	-276	104	236	-63	115	-15696	-112	-4340	338	-23	81	126	131	8
-9692	-3084	12172	-59	135	-198	-16240	520	580	-11	-72	-41	-15796	1088	-3640	12	-116	74	-9248	3476	13552	116	-35	-151	-16588	-368	208	229	-58	142	-15712	4	-4288	275	-32	119	126	131	8
-9612	-3128	12264	-86	89	-200	-16248	548	528	88	-53	-17	-15872	1124	-3600	1	-87	126	-9240	3484	13560	121	-93	-143	-16628	-316	152	169	8	97	-15668	52	-4244	187	-11	90	126	131	8
-9636	-3096	12212	-113	140	-178	-16184	588	484	107	-61	-41	-15856	1044	-3644	6	-103	115	-9268	3516	13572	131	-66	-171	-16708	-408	120	22	-10	115	-15640	176	-4340	197	33	-12	126	130	8
-9720	-3136	12368	-108	142	-182	-16284	660	560	16	-49	-98	-15920	1012	-3768	61	-150	180	-9196	3520	13468	119	-18	-148	-16696	-356	28	-136	-3	116	-15652	-56	-4404	13	51	-61	126	131	8
-9676	-3116	12304	-87	153	-134	-16232	528	580	-47	-24	-109	-15864	1116	-3620	30	-89	195	-9272	3416	13604	135	-14	-202	-16736	-496	120	-104	-4	157	-15592	-168	-4476	26	81	-79	127	131	8
-9732	-3096	12228	-100	161	-180	-16324	608	296	-41	-34	-45	-15740	1152	-3820	12	-46	165	-9176	3448	13444	122	-2	-171	-16640	-488	28	41	-7	168	-15716	-224	-4268	110	-4	-23	126	131	8
-9736	-3116	12268	-127	165	-206	-16252	620	468	-29	-58	-55	-15744	1156	-3740	-82	-88	105	-9216	3548	13508	150	-6	-156	-16688	-264	52	105	-24	113	-15568	-136	-4336	202	-48	26	126	131	8
-9672	-3116	12064	-99	139	-195	-16196	496	472	-48	-99	-50	-15788	1188	-3696	4	-121	93	-9264	3524	13492	162	-41	-144	-16688	-196	92	63	-52	112	-15568	-20	-4380	239	-20	79	126	131	8
-9616	-3116	12108	-116	133	-203	-16200	612	560	-10	-59	-40	-15868	1200	-3632	-28	-181	29	-9204	3552	13496	115	-49	-199	-16712	-480	16	57	-48	116	-15680	-32	-4516	250	61	57	126	131	8
-9660	-3104	12296	-103	140	-181	-16228	620	628	-75	-70	-101	-15896	920	-3676	14	-199	88	-9280	3500	13500	119	-2	-179	-16540	-492	56	233	-87	91	-15660	112	-4252	239	49	42	126	131	8
-9732	-3108	12180	-106	143	-187	-16260	488	552	-61	-15	-79	-15816	856	-3740	87	-113	98	-9228	3504	13528	99	-43	-144	-16668	-332	136	168	-93	144	-15604	-12	-4304	295	55	-6	126	131	8
-9660	-3132	12240	-92	146	-176	-16232	528	428	62	-58	-61	-15796	968	-3664	77	-29	158	-9176	3492	13524	120	-71	-197	-16680	-320	-20	-14	-79	137	-15608	-80	-4532	135	30	-12	127	130	8
-9716	-3164	12192	-96	119	-182	-16192	704	568	74	-11	-69	-15820	1000	-3752	90	-47	245	-9264	3556	13596	141	-63	-157	-16684	-452	120	-48	5	127	-15672	-132	-4252	115	-23	-20	126	131	8
-9700	-3100	12128	-94	111	-158	-16332	572	420	54	-20	-88	-15872	1152	-3760	132	-65	197	-9204	3496	13488	129	-55	-127	-16660	-460	104	38	-43	146	-15684	-116	-4260	97	-70	-26	126	130	8
-9664	-3064	12196	-125	144	-204	-16312	560	556	126	-44	-77	-15796	1252	-3636	136	-127	158	-9256	3484	13400	125	-56	-187	-16712	-436	172	93	-15	115	-15696	-120	-4288	170	-70	34	126	131	8
-9648	-3120	12124	-94	135	-203	-16248	652	436	67	-12	-19	-15800	1184	-3728	58	-131	143	-9220	3520	13492	150	-21	-152	-16720	-412	172	141	-44	107	-15620	-68	-4244	214	-13	93	126	131	8
-9704	-3136	12180	-78	149	-200	-16252	568	384	-26	-31	-59	-15772	1096	-3760	49	-156	114	-9208	3548	13464	110	-77	-159	-16636	-380	52	145	-12	96	-15596	-112	-4196	304	-19	60	126	130	8
-9652	-3112	12144	-71	128	-192	-16268	556	212	-5	-68	-53	-15800	972	-3872	-39	-135	79	-9236	3512	13460	163	-51	-142	-16748	-432	48	105	-19	151	-15588	-56	-4388	266	-15	41	126	130	8
-9676	-3128	12228	-111	136	-190	-16188	576	400	-70	-110	-67	-15780	1040	-3828	-90	-119	83	-9248	3548	13556	150	-68	-134	-16720	-384	-16	55	-102	140	-15648	-60	-4240	236	12	49	127	130	8
-9688	-3096	12212	-116	123	-154	-16232	644	424	-102	-95	-71	-15804	1104	-3768	-77	-169	84	-9224	3504	13524	133	-76	-110	-16600	-320	16	48	-48	109	-15652	-32	-4332	207	18	51	127	130	8
-9676	-3120	12128	-95	141	-190	-16300	624	424	-102	-97	-42	-15836	1148	-3640	-90	-142	116	-9264	3552	13620	141	-27	-152	-16680	-372	124	18	-10	127	-15600	104	-4460	114	-14	28	127	130	8
-9708	-3128	12192	-80	123	-178	-16180	584	656	-91	-78	-34	-15816	1016	-3692	-11	-122	92	-9304	3512	13524	161	-38	-123	-16740	-420	-32	59	-15	121	-15664	104	-4416	79	-13	-13	127	130	8
-9648	-3164	12276	-84	129	-213	-16212	604	456	20	-61	-93	-15820	1068	-3708	25	-107	91	-9312	3424	13508	117	-30	-182	-16656	-396	148	32	-71	155	-15568	-36	-4300	99	22	-31	127	130	8
-9704	-3168	12184	-102	119	-166	-16204	532	472	68	-98	-40	-15840	1124	-3724	51	-97	122	-9216	3456	13592	173	-36	-116	-16720	-408	-72	-3	-79	155	-15572	-124	-4428	57	26	-15	127	129	8
-9720	-3140	12216	-63	130	-173	-16216	588	440	53	-80	-76	-15808	1052	-3752	43	-151	97	-9212	3548	13552	133	-28	-128	-16648	-368	-44	-15	-88	149	-15648	-68	-4492	66	-9	-9	127	129	8
-9720	-3076	12136	-135	107	-156	-16268	692	528	-52	-90	-50	-15812	1144	-3772	-35	-145	118	-9300	3508	13492	156	-77	-133	-16744	-416	156	-15	-85	136	-15692	-144	-4352	151	-3	38	127	129	8
-9684	-3112	12152	-67	146	-195	-16260	600	460	-103	-94	-35	-15816	1156	-3716	-101	-159	136	-9280	3524	13528	143	-78	-111	-16684	-376	100	148	-46	133	-15676	-60	-4328	177	-12	45	127	129	8
-9668	-3076	12312	-140	130	-191	-16220	564	420	-92	-93	-56	-15760	1064	-3728	10	-156	51	-9224	3488	13580	122	-59	-136	-16680	-308	108	200	10	123	-15664	28	-4316	256	-58	82	127	129	8
-9632	-3140	12184	-131	112	-216	-16252	544	604	-10	-104	-60	-15808	1048	-3584	4	-129	80	-9216	3588	13492	115	-70	-135	-16676	-280	112	143	1	115	-15752	96	-4252	265	-23	32	127	129	8
-9708	-3108	12052	-97	145	-197	-16260	636	496	-37	-83	-75	-15816	1100	-3652	29	-130	65	-9288	3584	13432	125	-13	-128	-16728	-388	128	10	-6	127	-15668	-72	-4408	271	5	28	127	129	8
-9624	-3104	12252	-108	140	-227	-16200	628	476	-62	-76	-51	-15844	1048	-3604	-12	-120	102	-9280	3556	13540	170	-45	-161	-16600	-332	64	61	-71	126	-15700	-52	-4400	145	-37	26	127	129	8
-9684	-3168	12208	-101	126	-218	-16240	564	432	-48	-78	-76	-15788	968	-3604	-5	-113	148	-9224	3500	13452	150	-40	-141	-16696	-260	72	-55	-45	118	-15664	-36	-4384	146	-5	10	127	129	8
-9636	-3140	12128	-105	131	-188	-16260	596	508	4	-54	-58	-15840	1076	-3676	12	-81	105	-9248	3520	13492	117	-47	-157	-16708	-284	100	-53	-37	95	-15676	0	-4412	138	-47	29	127	128	8
-9612	-3104	12308	-125	136	-198	-16248	632	548	0	-52	-96	-15780	1096	-3724	9	-131	97	-9248	3508	13492	112	-34	-146	-16676	-484	-12	108	-63	93	-15616	-32	-4324	192	-35	31	127	128	8
-9648	-3136	12164	-118	147	-207	-16176	572	500	-49	-85	-98	-15820	1192	-3660	40	-121	128	-9240	3488	13368	157	-46	-142	-16676	-368	-128	131	-54	160	-15636	-64	-4408	220	28	7	127	128	8
-9744	-3128	12232	-94	109	-204	-16256	532	472	-19	-81	-76	-15832	1124	-3720	-5	-113	92	-9228	3528	13500	135	-75	-130	-16684	-332	24	133	-60	101	-15660	-44	-4332	222	31	5	127	128	8
-9688	-3144	12224	-98	123	-216	-16196	540	556	-28	-65	-92	-15736	1004	-3708	25	-127	113	-9248	3588	13548	135	-39	-148	-16640	-404	144	102	-50	102	-15724	-4	-4224	221	-40	62	127	128	8
-9612	-3104	12180	-106	128	-222	-16204	492	316	10	-82	-88	-15800	988	-3684	25	-94	123	-9232	3484	13580	129	-21	-182	-16692	-396	180	92	-20	150	-15708	-52	-4200	183	-36	43	127	128	8
-9708	-3100	12268	-112	76	-175	-16248	576	468	45	-60	-64	-15820	996	-3644	31	-129	108	-9184	3524	13572	139	-9	-154	-16680	-364	72	126	-44	163	-15700	-64	-4296	205	-20	35	127	128	8
-9664	-3096	12252	-110	127	-208	-16284	604	396	71	-74	-87	-15920	1116	-3520	53	-134	141	-9316	3536	13644	130	-63	-139	-16720	-388	8	41	-61	142	-15628	-80	-4452	203	-12	39	127	128	8
-9668	-3132	12232	-89	142	-170	-16256	644	464	15	-27	-48	-15916	1092	-3720	46	-125	152	-9160	3576	13600	133	-12	-142	-16692	-368	-36	79	-49	129	-15608	-92	-4300	174	20	13	127	127	8
-9708	-3196	12096	-107	118	-172	-16228	500	396	-14	-65	-80	-15740	972	-3632	0	-119	130	-9272	3572	13512	171	-79	-161	-16648	-340	48	143	-35	120	-15652	-4	-4360	188	28	57	127	127	8
-9640	-3156	12120	-84	174	-197	-16180	568	576	35	-42	-51	-15792	1040	-3656	57	-111	140	-9252	3552	13452	129	-44	-156	-16640	-332	116	98	-68	98	-15632	16	-4168	215	11	51	127	127	8
-9700	-3100	12152	-114	148	-165	-16216	616	492	60	-88	-81	-15840	1080	-3768	52	-98	126	-9208	3568	13516	154	-20	-145	-16708	-400	12	57	-86	115	-15588	-36	-4360	229	-15	18	127	127	8
-9664	-3076	12220	-95	95	-178	-16256	756	588	-55	-76	-60	-15820	1156	-3792	9	-159	96	-9264	3508	13580	145	-66	-178	-16684	-480	-92	154	-123	130	-15600	-44	-4456	195	-10	17	127	127	8
-9648	-3112	12248	-99	143	-187	-16248	536	464	-45	-60	-56	-15772	1076	-3752	-30	-141	105	-9256	3508	13440	139	-21	-159	-16656	-320	-44	109	-174	124	-15656	-4	-4440	187	48	-7	127	127	8
-9680	-3132	12160	-68	158	-184	-16220	568	412	49	-72	-47	-15828	1112	-3704	-1	-106	102	-9268	3556	13472	139	-14	-153	-16676	-308	152	18	-109	145	-15732	-116	-4320	155	-26	10	127	127	8
-9640	-3152	12120	-85	145	-205	-16192	604	492	88	-67	-74	-15740	1028	-3704	102	-146	89	-9284	3556	13624	139	-3	-180	-16696	-316	284	32	-92	119	-15684	-88	-4240	177	-24	0	127	127	8
-9680	-3136	12156	-99	149	-245	-16184	508	496	108	-82	-100	-15840	984	-3736	98	-145	125	-9248	3544	13436	147	-22	-147	-16668	-408	136	85	-82	146	-15732	-128	-4232	208	-56	23	127	127	8
-9668	-3148	12176	-86	163	-228	-16292	568	588	11	-97	-60	-15824	1020	-3708	75	-170	109	-9300	3532	13608	158	1	-169	-16620	-320	24	211	-33	125	-15576	8	-4096	250	-9	63	127	127	8
-9668	-3140	12160	-99	167	-177	-16300	568	520	33	-64	-74	-15820	1044	-3660	79	-95	131	-9204	3544	13540	142	7	-145	-16656	-288	96	141	-13	109	-15612	-20	-4280	279	-5	55	127	127	8
-9672	-3044	12080	-87	121	-213	-16192	552	496	-23	-68	-95	-15788	992	-3728	95	-103	139	-9296	3548	13468	151	-8	-147	-16576	-352	208	56	4	125	-15672	40	-4332	275	-2	23	127	127	8
-9716	-3136	12180	-113	127	-191	-16204	468	604	16	-52	-60	-15844	916	-3612	128	-83	149	-9260	3552	13552	124	-8	-144	-16700	-400	108	117	1	143	-15612	-36	-4208	296	-56	32	127	127	8
-9692	-3140	12188	-63	130	-159	-16192	524	608	91	-34	-44	-15876	1024	-3564	44	-88	141	-9296	3572	13448	126	-63	-141	-16704	-324	128	67	-63	124	-15656	-12	-4400	265	35	31	127	127	8
-9644	-3104	12184	-96	114	-170	-16220	580	652	77	-65	-91	-15876	1152	-3572	4	-81	153	-9308	3536	13524	131	-84	-149	-16692	-440	-24	40	-46	81	-15712	-128	-4380	170	25	-5	127	127	8
-9672	-3140	12200	-95	139	-206	-16228	704	492	-6	-19	-61	-15872	1152	-3588	-36	-108	136	-9296	3536	13504	145	-49	-156	-16632	-372	156	-1	-28	126	-15656	-52	-4360	109	-4	4	127	127	8
-9632	-3168	12136	-76	155	-171	-16228	556	504	-106	-20	-98	-15796	1100	-3672	-25	-110	127	-9192	3564	13440	128	-50	-148	-16772	-420	0	-24	2	102	-15692	-116	-4304	169	34	-51	127	127	8
-9668	-3160	12132	-120	141	-188	-16212	576	412	-54	-38	-79	-15692	1076	-3864	2	-67	94	-9216	3556	13572	127	-54	-196	-16632	-400	148	76	-68	91	-15644	-28	-4244	147	13	6	127	127	8
-9640	-3176	12264	-84	124	-198	-16296	564	504	40	-26	-76	-15860	1084	-3820	-13	-123	84	-9184	3488	13348	140	-65	-124	-16676	-300	136	127	-52	131	-15624	0	-4288	158	9	-7	127	127	8
-9648	-3120	12204	-88	159	-157	-16252	508	476	15	-60	-70	-15808	1104	-3668	-5	-101	111	-9188	3560	13440	112	-63	-172	-16620	-328	160	18	27	79	-15624	-104	-4224	111	-39	15	127	127	8
-9640	-3080	12212	-89	146	-200	-16204	568	492	-33	-58	-76	-15812	932	-3712	-20	-134	126	-9272	3512	13524	97	-33	-166	-16668	-316	96	33	-21	92	-15680	-128	-4180	166	50	7	127	127	8
-9696	-3144	12196	-42	123	-196	-16188	524	500	-65	-59	-67	-15804	944	-3684	11	-144	112	-9232	3548	13556	153	-91	-150	-16772	-348	140	79	-3	112	-15700	-72	-4272	201	48	5	127	127	8
-9640	-3168	12124	-95	145	-209	-16216	552	560	-25	-56	-74	-15800	1004	-3684	21	-78	103	-9212	3536	13612	141	-41	-159	-16672	-360	72	40	3	106	-15652	-32	-4344	212	31	27	127	127	8
-9696	-3140	12204	-62	109	-181	-16200	564	544	-95	-28	-85	-15828	1072	-3696	-10	-116	99	-9316	3456	13520	126	-45	-173	-16740	-480	64	76	-38	131	-15656	-80	-4296	184	24	-14	127	127	8
-9636	-3152	12232	-79	146	-177	-16288	496	472	-46	-51	-18	-15816	1088	-3704	-42	-97	107	-9276	3508	13560	124	-17	-177	-16704	-504	-120	107	-50	131	-15580	-24	-4408	118	65	-8	127	127	8
-9656	-3168	12208	-88	154	-192	-16272	580	552	-39	-61	-34	-15844	996	-3728	-44	-96	114	-9260	3520	13412	150	-52	-171	-16644	-336	60	64	-64	107	-15636	-104	-4312	116	4	1	127	127	8
-9616	-3084	12304	-73	122	-160	-16216	512	392	-33	-38	-15	-15848	1016	-3612	-23	-81	109	-9256	3568	13576	150	-20	-171	-16608	-308	124	15	-13	109	-15656	-52	-4248	88	-15	-14	127	127	8
-9696	-3176	12152	-89	111	-185	-16276	472	532	-11	-25	-21	-15808	948	-3704	13	-81	150	-9184	3552	13556	144	-69	-134	-16652	-412	180	0	-34	104	-15708	-68	-4228	124	-10	21	127	127	8
-9672	-3108	12268	-83	126	-152	-16232	512	536	110	-25	-87	-15764	952	-3692	69	-114	157	-9288	3572	13512	146	-4	-167	-16660	-344	176	47	16	127	-15700	-180	-4252	183	16	14	127	127	8
-9628	-3104	12212	-74	139	-175	-16212	596	568	95	-40	12	-15840	1044	-3712	79	-106	146	-9224	3524	13552	158	-30	-159	-16676	-368	84	130	13	133	-15704	-88	-4220	225	25	34	127	127	8
-9672	-3100	12220	-89	134	-197	-16280	620	600	16	-42	-60	-15880	1036	-3840	34	-94	156	-9252	3564	13500	169	-36	-166	-16728	-284	144	58	-21	127	-15660	-108	-4356	283	57	50	127	127	8
-9656	-3116	12140	-74	114	-212	-16272	548	560	-41	-83	-63	-15812	992	-3688	66	-79	188	-9280	3504	13512	161	-63	-177	-16664	-444	-64	68	-30	112	-15676	-60	-4388	226	36	45	127	127	8
-9656	-3152	12228	-111	150	-182	-16304	568	580	-20	-109	-63	-15832	1020	-3720	34	-152	156	-9264	3496	13548	150	-23	-156	-16712	-352	-40	134	-92	143	-15608	-16	-4292	239	40	54	127	127	8
-9712	-3076	12212	-95	139	-208	-16204	536	532	41	-23	-45	-15784	1164	-3700	103	-120	148	-9284	3508	13532	141	12	-138	-16576	-324	156	157	-71	131	-15620	-12	-4332	222	16	44	127	127	8
-9700	-3124	12152	-99	137	-188	-16112	608	552	63	-9	-44	-15808	1104	-3592	64	-123	144	-9196	3476	13496	163	-42	-160	-16620	-336	68	140	-30	79	-15660	32	-4144	143	12	24	127	127	8
-9684	-3108	12152	-98	130	-171	-16352	604	456	33	-49	-77	-15888	1056	-3524	-31	-86	99	-9236	3544	13404	123	-57	-147	-16676	-344	212	83	-29	131	-15672	0	-4292	113	36	5	127	127	8
-9632	-3084	12256	-100	158	-148	-16280	604	448	-2	-51	-34	-15848	1048	-3788	6	-62	174	-9232	3492	13344	137	-81	-139	-16700	-388	188	-19	2	97	-15748	-80	-4308	126	64	-26	127	127	8
-9724	-3136	12176	-86	148	-191	-16240	492	592	-5	-31	-19	-15788	996	-3764	58	-115	115	-9208	3552	13524	134	-26	-166	-16700	-380	144	-41	-24	126	-15704	-108	-4288	166	64	-24	127	126	8
-9668	-3120	12196	-97	125	-177	-16212	588	396	38	-25	-53	-15748	1012	-3724	24	-87	150	-9220	3536	13576	111	-16	-176	-16680	-380	0	20	-5	111	-15684	-80	-4292	179	72	15	127	127	8
-9596	-3104	12144	-109	124	-178	-16312	524	444	31	-47	-44	-15784	1088	-3732	20	-101	144	-9280	3496	13536	150	-43	-174	-16568	-436	80	86	-50	93	-15624	-164	-4248	222	45	31	127	127	8
-9676	-3124	12080	-76	114	-190	-16272	576	452	-29	-91	-68	-15836	1128	-3732	14	-143	141	-9236	3488	13400	132	-34	-164	-16620	-392	136	113	-24	154	-15692	0	-4252	193	10	31	127	127	8
-9676	-3112	12204	-75	143	-194	-16220	580	384	-30	-58	-76	-15848	1092	-3684	-32	-119	129	-9244	3548	13552	123	-8	-148	-16736	-372	156	110	-8	74	-15732	-32	-4300	209	-16	34	127	127	8
-9656	-3164	12148	-83	113	-193	-16252	608	648	-179	-69	-36	-15772	1064	-3584	14	-110	111	-9168	3524	13576	121	-48	-133	-16724	-384	40	5	0	131	-15632	-64	-4424	199	-4	-30	127	127	8
-9656	-3136	12288	-95	161	-214	-16176	552	464	-44	-37	-45	-15816	952	-3684	-9	-106	111	-9244	3532	13460	126	-47	-170	-16748	-440	32	58	-7	113	-15636	-120	-4360	186	24	-12	127	127	8
-9668	-3200	12308	-103	138	-189	-16272	468	432	35	-42	-63	-15804	1052	-3552	-20	-106	94	-9244	3500	13556	135	-13	-148	-16688	-356	144	82	-25	113	-15608	-120	-4348	153	78	16	127	127	8
-9680	-3124	12248	-75	127	-212	-16244	564	588	42	-48	-10	-15808	1040	-3680	58	-137	145	-9256	3504	13616	132	-74	-163	-16640	-316	224	-7	-9	106	-15672	40	-4288	69	52	3	127	127	8
-9604	-3156	12124	-83	124	-208	-16252	580	576	-49	-34	-57	-15908	1064	-3708	-34	-107	150	-9208	3536	13424	118	-56	-167	-16728	-424	136	-73	-14	126	-15608	-32	-4288	140	22	20	127	127	8
-9736	-3116	12280	-64	137	-194	-16208	608	384	-54	-38	-50	-15756	1000	-3724	11	-80	149	-9216	3512	13480	148	-85	-153	-16636	-432	-124	35	-28	134	-15628	-116	-4400	223	-17	27	127	127	8
-9632	-3136	12088	-69	138	-179	-16260	492	520	-84	-70	-38	-15740	1016	-3584	61	-42	153	-9136	3488	13512	153	-44	-137	-16760	-444	36	206	-47	138	-15712	-108	-4356	252	19	32	127	127	8
-9712	-3100	12156	-101	126	-188	-16184	420	440	91	-52	-50	-15828	1036	-3632	78	-93	163	-9184	3572	13460	130	-25	-159	-16676	-412	60	187	-49	133	-15732	-84	-4272	266	25	39	127	127	8
-9672	-3164	12204	-70	115	-226	-16336	576	496	110	-51	-16	-15856	988	-3680	37	-94	128	-9212	3452	13472	126	3	-155	-16596	-320	128	143	3	115	-15760	-16	-4260	190	-35	58	127	127	8
-9696	-3148	12200	-63	137	-201	-16236	608	412	-24	-67	-53	-15836	1136	-3716	-16	-194	156	-9256	3476	13452	146	-52	-181	-16664	-380	168	-8	-46	112	-15680	-72	-4168	220	-40	62	127	127	8
-9664	-3120	12156	-89	146	-214	-16256	556	360	-185	-63	-46	-15856	1000	-3764	-77	-171	163	-9220	3524	13448	175	-44	-154	-16656	-288	72	-54	40	122	-15688	-52	-4212	172	5	21	127	127	8
-9692	-3180	12172	-92	128	-185	-16172	472	600	-82	-64	-30	-15800	988	-3512	91	-93	114	-9212	3496	13548	139	-58	-176	-16704	-388	32	-17	52	153	-15644	-32	-4400	197	44	66	127	127	8
-9708	-3080	12228	-125	148	-187	-16168	576	512	153	-35	-70	-15812	972	-3764	79	-48	164	-9264	3524	13608	143	-38	-145	-16624	-492	-192	85	30	108	-15640	52	-4412	242	-3	26	127	127	8
-9668	-3148	12228	-84	126	-197	-16212	592	440	148	-22	-40	-15808	1000	-3800	152	-68	173	-9252	3540	13580	147	-84	-160	-16664	-356	-8	157	16	144	-15628	32	-4304	225	-7	21	127	127	8
-9640	-3104	12128	-73	118	-190	-16272	584	396	92	-41	-53	-15792	1024	-3800	45	-114	145	-9220	3552	13384	112	-31	-163	-16692	-336	-32	103	-22	94	-15604	-60	-4388	212	8	29	127	127	8
-9680	-3120	12232	-83	107	-240	-16256	552	448	72	-22	-43	-15812	1144	-3728	-19	-73	196	-9240	3548	13524	140	-63	-196	-16688	-396	104	-37	-6	134	-15684	-20	-4360	192	3	36	127	127	8
-9660	-3120	12252	-114	122	-235	-16216	596	412	-50	-56	-52	-15844	1028	-3648	1	-74	157	-9208	3476	13488	128	-16	-145	-16676	-432	92	0	-35	119	-15748	-24	-4124	149	35	6	127	127	8
-9704	-3120	12164	-106	127	-201	-16232	480	556	-43	-78	-75	-15776	992	-3664	19	-96	115	-9236	3536	13480	114	-39	-132	-16700	-376	144	53	-6	129	-15716	-24	-4348	188	41	12	127	127	8
-9652	-3100	12156	-64	76	-171	-16236	628	508	8	-21	-73	-15812	1104	-3700	42	-99	103	-9228	3528	13556	117	-111	-145	-16600	-400	280	62	-5	96	-15716	-36	-4076	190	-34	11	127	127	8
-9608	-3116	12212	-95	101	-204	-16244	616	500	44	-37	-45	-15856	1092	-3684	-13	-135	122	-9244	3500	13484	164	-100	-186	-16704	-316	220	122	43	111	-15676	-76	-4144	230	21	36	127	127	8
-9680	-3160	12164	-75	131	-223	-16280	588	488	36	-20	-63	-15876	1080	-3728	-14	-128	126	-9288	3476	13540	137	-48	-161	-16700	-388	108	105	20	117	-15636	-124	-4308	194	43	32	127	127	8
-9580	-3156	12292	-84	99	-205	-16268	664	532	-80	-29	-53	-15884	1024	-3736	-8	-115	160	-9220	3508	13544	134	-34	-149	-16668	-456	16	89	52	139	-15608	24	-4424	206	45	67	127	127	8
-9644	-3060	12228	-94	140	-182	-16176	496	576	-26	-45	-65	-15816	1008	-3620	-45	-86	140	-9316	3508	13544	146	-58	-186	-16660	-376	116	41	-61	112	-15608	48	-4448	214	66	0	127	126	8
-9676	-3148	12264	-77	126	-187	-16224	516	464	17	-34	-45	-15784	1072	-3736	-35	-105	120	-9264	3528	13384	109	-47	-162	-16740	-408	-64	132	-34	125	-15604	40	-4360	188	93	13	127	127	8
-9688	-3172	12188	-72	101	-168	-16240	616	520	-53	-50	-41	-15888	1160	-3640	-31	-139	118	-9200	3552	13568	120	-20	-180	-16704	-348	112	219	-93	110	-15688	20	-4356	163	39	16	127	127	8
-9680	-3144	12244	-99	145	-171	-16284	572	596	-128	-37	-15	-15860	1024	-3636	-28	-153	118	-9268	3508	13564	172	-46	-155	-16584	-364	192	180	-74	145	-15672	-32	-4288	92	48	-49	127	127	8
-9652	-3144	12124	-84	142	-188	-16220	652	632	-141	-64	-47	-15848	956	-3580	-13	-131	112	-9248	3548	13496	145	-25	-155	-16720	-304	140	-33	-77	149	-15708	-68	-4340	71	70	-57	127	127	8
-9660	-3148	12236	-78	140	-157	-16212	360	504	6	-29	-58	-15876	924	-3664	-54	-84	170	-9260	3496	13592	119	-32	-163	-16664	-436	180	-76	-40	96	-15664	-128	-4308	62	72	-24	127	127	8
-9672	-3068	12184	-75	165	-149	-16224	632	672	165	26	-43	-15788	968	-3640	130	-99	162	-9208	3596	13488	112	-10	-199	-16740	-380	116	-10	-71	90	-15652	-200	-4188	198	65	-4	127	127	8
-9660	-3148	12188	-108	155	-136	-16200	648	540	44	14	-76	-15828	1076	-3720	111	-109	187	-9296	3456	13448	149	11	-187	-16648	-508	204	159	-87	110	-15744	-128	-4312	189	23	44	127	127	8
-9656	-3140	12224	-138	172	-169	-16280	552	468	-1	11	-45	-15772	1108	-3644	41	-92	199	-9248	3572	13528	146	-5	-186	-16688	-320	200	198	-18	134	-15688	-12	-4336	223	28	56	127	127	8
-9732	-3060	12172	-117	183	-168	-16232	632	532	-74	28	-56	-15880	1072	-3744	60	-119	170	-9264	3504	13400	152	-43	-187	-16612	-396	100	80	-8	117	-15616	-76	-4368	230	-14	49	127	127	8
-9684	-3156	12184	-78	184	-178	-16260	556	412	-16	16	-40	-15808	996	-3732	82	-122	178	-9268	3544	13396	134	-28	-209	-16672	-176	100	-9	35	96	-15712	16	-4292	190	30	46	127	127	8
-9684	-3168	12092	-46	151	-180	-16172	548	492	-24	-11	-54	-15824	980	-3668	97	-102	147	-9252	3516	13548	113	12	-178	-16692	-464	16	-54	-60	74	-15632	-16	-4296	193	11	-15	127	127	8
-9696	-3268	12268	-60	132	-162	-16256	588	360	94	36	-10	-15812	1132	-3760	53	-66	161	-9264	3476	13548	120	-29	-162	-16516	-400	-16	57	0	127	-15588	-80	-4300	196	18	-6	127	127	8
-9648	-3228	12176	-84	132	-148	-16180	540	368	30	26	-92	-15856	1144	-3704	-24	-104	169	-9252	3528	13524	139	-47	-196	-16644	-408	12	130	-69	106	-15592	24	-4228	212	10	-8	126	127	8
-9636	-3084	12088	-60	141	-168	-16328	700	464	-63	-29	-65	-15844	1076	-3696	-42	-44	185	-9236	3544	13556	94	-55	-161	-16620	-324	152	20	14	107	-15576	-88	-4392	110	37	25	127	127	8
-9644	-3144	12192	-73	124	-138	-16244	596	468	-159	-41	-63	-15804	1056	-3756	50	-123	155	-9240	3504	13496	133	-42	-156	-16620	-448	92	-27	25	80	-15672	-144	-4268	88	-9	-3	126	127	8
-9648	-3072	12236	-84	168	-182	-16272	512	404	46	-23	-42	-15772	1096	-3740	121	-83	142	-9220	3476	13620	139	-23	-164	-16868	-556	20	100	1	171	-15668	-76	-4488	256	-14	19	127	127	8
-9684	-3140	12120	-132	152	-168	-16188	600	500	133	-38	-38	-15732	1016	-3692	145	-103	110	-9188	3440	13500	144	-33	-148	-16672	-364	-56	102	-12	127	-15544	-104	-4468	214	38	6	127	127	8
-9660	-3100	12232	-110	127	-195	-16280	596	424	107	-39	-40	-15800	1160	-3740	66	-97	156	-9312	3492	13484	140	-57	-161	-16632	-284	52	137	-45	114	-15612	-8	-4284	167	27	9	127	127	8
-9684	-3172	12196	-101	135	-165	-16240	656	452	47	-34	-22	-15848	1152	-3656	-50	-126	132	-9256	3496	13512	144	-30	-158	-16620	-312	12	13	-23	96	-15740	-24	-4256	94	29	24	127	127	8
-9724	-3144	12232	-92	144	-169	-16256	596	464	-30	-55	-59	-15816	1032	-3684	-56	-132	114	-9300	3528	13644	148	-43	-188	-16708	-460	148	-4	-42	78	-15684	-8	-4316	48	55	20	127	127	8
-9628	-3156	12088	-107	116	-208	-16212	516	476	-128	-47	-63	-15772	968	-3652	-1	-129	97	-9284	3544	13468	150	-21	-165	-16656	-456	72	42	-10	108	-15612	-132	-4288	157	-27	-7	127	127	8
-9652	-3080	12292	-47	105	-183	-16172	588	636	-113	-54	-57	-15800	1016	-3696	11	-86	136	-9300	3572	13560	134	-22	-118	-16660	-476	-24	78	19	125	-15608	-60	-4324	175	46	9	127	127	8
-9628	-3100	12140	-113	115	-176	-16264	580	456	-22	-52	-76	-15788	1080	-3640	39	-90	115	-9244	3504	13496	155	-63	-122	-16672	-392	120	50	-7	66	-15664	-100	-4272	204	19	-8	127	127	8
-9668	-3104	12168	-80	134	-158	-16224	624	508	88	-36	-38	-15808	1168	-3804	-34	-90	159	-9196	3464	13560	137	-24	-174	-16664	-376	44	79	-8	131	-15688	-124	-4336	260	13	24	127	127	8
-9720	-3076	12196	-113	129	-164	-16284	680	440	50	-43	-85	-15784	1148	-3812	46	-79	182	-9248	3492	13524	126	-41	-161	-16660	-404	32	122	-11	137	-15640	-52	-4256	239	13	49	127	127	8
-9656	-3132	12172	-106	138	-186	-16232	532	440	-40	-27	-66	-15752	1116	-3740	66	-94	128	-9196	3540	13512	142	-43	-170	-16704	-384	56	141	9	115	-15664	-72	-4436	280	21	54	127	128	8
-9660	-3092	12092	-96	144	-204	-16208	452	508	-4	-41	-83	-15844	1000	-3788	59	-58	132	-9284	3540	13436	144	-34	-139	-16696	-372	24	154	-40	120	-15664	-32	-4396	248	-5	16	127	128	8
-9628	-3076	12228	-103	125	-199	-16256	540	484	91	-43	-36	-15772	1096	-3732	2	-102	96	-9232	3508	13488	166	-22	-139	-16700	-476	-72	44	-71	137	-15620	-136	-4324	172	32	11	127	128	8
-9716	-3084	12164	-94	121	-172	-16248	708	416	-6	-41	-38	-15824	1128	-3720	-65	-128	105	-9296	3440	13516	173	-6	-145	-16724	-464	28	21	-83	135	-15684	-164	-4420	129	17	24	127	127	8
-9640	-3104	12172	-127	128	-178	-16320	688	420	-117	-85	-96	-15772	1112	-3824	-17	-119	82	-9252	3448	13516	158	-74	-131	-16600	-368	140	68	-51	114	-15616	-16	-4336	143	-8	45	127	128	8
-9632	-3132	12256	-113	117	-210	-16212	484	496	-125	-78	-76	-15760	964	-3648	29	-85	107	-9260	3520	13540	138	-77	-138	-16684	-368	140	69	-85	125	-15720	-76	-4304	151	-9	68	126	127	8
-9644	-3132	12212	-112	111	-187	-16212	444	552	133	-45	-77	-15864	936	-3672	105	-46	145	-9220	3564	13608	142	-34	-147	-16732	-400	136	221	-44	122	-15792	-16	-4216	207	-6	62	127	127	8
-9684	-3116	12232	-94	114	-183	-16172	552	436	212	-54	-44	-15884	876	-3672	232	-71	226	-9248	3552	13580	124	-32	-151	-16676	-396	180	193	-6	151	-15704	4	-4272	297	14	39	127	128	8
-9656	-3152	12144	-71	93	-171	-16260	704	556	154	-11	-68	-15896	1052	-3692	252	-83	218	-9236	3500	13548	99	1	-178	-16624	-356	128	128	1	130	-15712	-108	-4236	314	17	-19	127	127	8
-9656	-3156	12160	-94	134	-191	-16260	636	508	57	-7	-68	-15820	1100	-3772	57	-89	249	-9228	3488	13596	133	-55	-174	-16752	-368	8	4	-22	87	-15648	-184	-4376	248	-15	38	126	128	8
-9712	-3144	12184	-68	111	-187	-16184	572	468	-5	-32	-38	-15792	1120	-3716	16	-101	185	-9248	3548	13552	134	-32	-197	-16688	-420	-128	65	-46	115	-15632	-120	-4344	205	19	43	126	128	8
-9648	-3136	12132	-85	115	-212	-16272	580	424	-51	-31	-72	-15680	1148	-3740	23	-92	136	-9268	3536	13524	110	-62	-182	-16656	-408	-76	70	-67	126	-15640	-76	-4404	196	24	48	127	128	8
-9656	-3136	12164	-108	118	-164	-16252	576	440	13	-44	-57	-15776	1200	-3640	53	-71	106	-9272	3500	13468	146	-51	-116	-16668	-348	56	149	-82	137	-15616	68	-4340	253	44	39	126	127	8
-9624	-3120	12228	-92	140	-184	-16308	604	472	-29	-78	-59	-15832	1096	-3744	6	-100	84	-9224	3520	13552	163	-53	-158	-16588	-424	136	202	-54	122	-15648	88	-4332	227	-14	11	127	127	8
-9692	-3092	12176	-135	135	-156	-16232	628	524	-1	-66	-65	-15892	1024	-3772	-11	-123	80	-9264	3576	13572	136	-40	-152	-16700	-316	288	141	-16	155	-15676	44	-4404	163	-1	23	126	127	8
-9628	-3112	12320	-77	113	-197	-16216	504	512	46	-57	-83	-15868	1012	-3708	-24	-141	111	-9260	3500	13544	124	-81	-157	-16684	-240	132	56	-6	133	-15660	-188	-4344	195	-26	-12	126	127	8
-9712	-3128	12264	-67	119	-197	-16236	620	340	39	-84	-32	-15880	1036	-3828	-21	-120	142	-9256	3500	13568	144	-30	-151	-16672	-412	80	-37	-32	167	-15676	-172	-4176	173	18	-7	126	127	8
-9648	-3092	12252	-52	130	-187	-16188	592	384	-15	-53	-64	-15752	1080	-3800	27	-91	129	-9228	3524	13512	145	2	-150	-16684	-468	20	21	-5	141	-15596	-120	-4384	199	-8	38	126	128	8
-9728	-3160	12176	-119	145	-162	-16236	540	480	-51	-86	-64	-15708	1100	-3660	15	-129	138	-9236	3516	13580	144	-45	-137	-16688	-376	76	84	-47	116	-15600	-60	-4420	217	-24	45	127	128	8
-9620	-3116	12288	-77	157	-165	-16204	544	424	-53	-104	-75	-15728	1064	-3684	13	-180	107	-9264	3532	13532	153	-28	-141	-16608	-420	52	94	-19	148	-15676	-4	-4256	251	-6	50	126	128	8
-9644	-3132	12200	-109	113	-187	-16260	540	400	-5	-78	-90	-15852	1112	-3780	-3	-183	67	-9192	3488	13536	150	-27	-133	-16756	-360	40	108	-58	120	-15636	24	-4312	183	-27	74	126	128	8
-9660	-3124	12172	-116	131	-197	-16304	556	492	-87	-77	-64	-15832	1072	-3604	28	-179	61	-9256	3496	13484	156	-59	-163	-16716	-428	100	115	-51	147	-15692	-64	-4428	198	23	4	126	128	8
-9664	-3120	12192	-75	149	-199	-16248	520	520	-12	-92	-58	-15832	1028	-3752	-31	-103	112	-9260	3540	13612	135	-50	-125	-16648	-380	100	88	-44	157	-15660	-80	-4272	113	-26	-9	126	128	8
-9664	-3144	12128	-87	110	-185	-16196	536	516	28	-40	-76	-15856	960	-3684	-4	-91	102	-9260	3480	13544	124	-46	-165	-16596	-316	128	4	-31	136	-15684	-84	-4324	84	-31	-14	126	128	8
-9732	-3136	12216	-76	127	-188	-16228	500	540	40	-55	-49	-15864	1032	-3660	5	-173	119	-9256	3560	13580	131	-22	-151	-16672	-348	120	-64	-27	149	-15692	-84	-4316	125	-20	41	126	128	8
-9660	-3116	12232	-65	132	-179	-16284	632	616	-11	-58	-43	-15864	1036	-3756	2	-176	146	-9232	3524	13492	160	-69	-138	-16636	-492	92	-9	27	138	-15716	-124	-4372	144	-29	43	126	128	8
-9648	-3144	12304	-100	97	-215	-16244	588	412	-82	-80	-71	-15860	1120	-3748	1	-144	143	-9228	3544	13532	148	-43	-165	-16708	-328	32	91	-46	134	-15680	-92	-4336	169	-31	55	126	128	8
-9688	-3116	12304	-91	133	-223	-16188	528	588	-46	-72	-99	-15836	1136	-3728	-7	-102	129	-9240	3400	13400	146	-67	-165	-16652	-320	32	96	-52	170	-15632	24	-4244	268	-41	47	126	128	8
-9712	-3120	12208	-116	120	-193	-16220	548	528	14	-70	-56	-15788	1084	-3708	58	-107	128	-9236	3524	13584	173	-56	-95	-16724	-392	-48	103	-22	157	-15580	-52	-4380	303	-27	59	126	128	8
-9688	-3148	12260	-102	99	-169	-16320	560	456	90	-72	-44	-15748	1048	-3684	78	-113	107	-9232	3556	13496	158	-19	-144	-16708	-480	60	146	-43	139	-15576	-56	-4308	283	-48	60	126	128	8
-9688	-3104	12212	-81	104	-197	-16236	620	352	39	-90	-63	-15888	1092	-3608	27	-167	119	-9268	3480	13460	157	-63	-107	-16644	-388	-8	173	-8	127	-15624	-96	-4272	222	-66	33	126	128	8
-9640	-3124	12204	-72	157	-163	-16196	608	588	6	-79	-55	-15824	1048	-3536	-27	-160	86	-9256	3588	13512	165	-59	-122	-16592	-344	92	65	-15	118	-15668	-8	-4216	143	-71	39	126	128	8
-9616	-3172	12124	-104	131	-207	-16204	608	604	-56	-66	-92	-15880	1080	-3636	15	-130	124	-9284	3476	13576	149	-28	-156	-16732	-388	60	50	-100	115	-15700	28	-4404	142	24	36	126	128	8
-9620	-3140	12148	-79	127	-200	-16248	572	516	-51	-91	-72	-15912	1072	-3612	7	-106	112	-9232	3520	13520	124	-88	-144	-16556	-380	20	89	-64	106	-15648	64	-4236	139	-24	-3	126	128	8
-9644	-3132	12140	-81	116	-197	-16200	476	528	39	-84	-75	-15800	996	-3612	48	-99	133	-9184	3536	13456	130	-69	-135	-16664	-360	132	150	19	67	-15744	-24	-4296	211	-21	5	126	128	8
-9616	-3104	12296	-77	107	-176	-16288	556	580	114	-55	-52	-15772	1004	-3664	42	-108	128	-9184	3580	13536	156	-82	-174	-16728	-344	128	135	-27	88	-15692	-96	-4260	188	-21	-10	126	128	8
-9652	-3080	12284	-110	144	-196	-16232	672	476	22	-59	-66	-15828	1108	-3728	3	-143	136	-9216	3448	13516	147	-61	-129	-16700	-432	-80	96	-57	126	-15656	-128	-4160	247	9	28	126	128	8
-9652	-3108	12196	-101	110	-182	-16272	648	512	-38	-90	-98	-15804	1112	-3640	-30	-129	128	-9244	3544	13492	188	-41	-183	-16748	-428	-32	46	-60	154	-15568	-88	-4424	172	27	35	126	128	8
-9700	-3140	12228	-100	125	-210	-16188	568	584	-91	-54	-15	-15808	1052	-3584	-115	-121	78	-9252	3520	13524	132	-50	-180	-16760	-460	-56	45	-61	124	-15580	-36	-4352	180	18	55	126	128	8
-9648	-3044	12152	-50	115	-205	-16180	532	492	-103	-66	-65	-15816	1008	-3740	-65	-110	36	-9208	3572	13440	143	-41	-170	-16644	-320	64	97	-48	163	-15584	-12	-4376	207	-16	50	126	128	8
-9588	-3144	12248	-80	103	-161	-16252	524	588	-14	-49	-76	-15848	968	-3680	33	-143	99	-9224	3564	13556	173	-20	-170	-16776	-392	216	155	-96	135	-15676	4	-4308	221	24	42	126	128	8
-9656	-3164	12244	-93	111	-173	-16252	564	576	67	-44	-39	-15864	1068	-3628	89	-149	127	-9280	3592	13452	163	-40	-187	-16704	-240	116	171	-59	141	-15680	-32	-4288	201	1	21	126	128	8
-9644	-3116	12200	-129	113	-165	-16292	632	520	24	-57	-74	-15892	1084	-3624	57	-90	171	-9300	3528	13448	141	-36	-156	-16624	-312	132	95	-104	106	-15688	68	-4160	176	15	22	126	128	8
-9656	-3176	12064	-118	156	-203	-16276	644	492	-101	-63	-111	-15804	1044	-3640	38	-75	182	-9212	3544	13488	128	-42	-184	-16720	-332	128	24	-100	109	-15688	-12	-4436	136	34	-33	126	128	8
-9584	-3120	12216	-92	150	-186	-16252	412	548	13	-30	-74	-15860	1032	-3812	76	-47	167	-9280	3548	13616	145	-60	-181	-16656	-472	108	-17	-80	93	-15664	-68	-4308	175	45	3	126	128	8
-9644	-3120	12248	-136	160	-198	-16260	520	592	194	-30	-58	-15712	1072	-3744	93	-91	162	-9248	3528	13500	134	-20	-201	-16640	-420	32	112	-101	134	-15668	-148	-4188	140	17	-19	126	128	8
-9712	-3116	12212	-84	120	-201	-16256	704	488	67	-19	-70	-15700	1200	-3668	-16	-146	90	-9268	3564	13508	137	12	-173	-16608	-424	36	69	-59	104	-15660	-160	-4288	173	-9	45	126	129	8
-9676	-3128	12120	-109	155	-182	-16276	756	420	-172	-62	-70	-15868	1252	-3836	-124	-164	84	-9200	3512	13464	144	-43	-149	-16576	-280	160	22	8	76	-15600	-52	-4240	187	-66	81	126	128	8
-9664	-3148	12232	-121	129	-194	-16252	524	508	-268	-70	-74	-15800	1080	-3608	-59	-160	44	-9284	3516	13504	157	-21	-183	-16736	-300	228	-5	13	145	-15668	60	-4176	213	5	73	126	128	8
-9556	-3164	12144	-97	145	-197	-16160	400	584	8	-71	-90	-15816	956	-3608	50	-90	52	-9264	3520	13488	118	-51	-147	-16636	-480	-76	39	66	106	-15676	108	-4396	266	37	55	126	128	8
-9668	-3172	12264	-85	164	-167	-16156	528	588	193	-56	-76	-15832	804	-3672	170	-80	93	-9252	3540	13344	125	-57	-173	-16728	-344	-88	116	21	101	-15576	156	-4408	270	-9	1	126	128	8
-9720	-3172	12196	-116	119	-195	-16288	676	616	207	-30	-85	-15880	936	-3792	112	-66	149	-9208	3512	13460	115	-80	-190	-16704	-296	-48	56	-81	115	-15668	0	-4264	244	-1	-27	126	128	8
-9588	-3136	12112	-102	146	-179	-16288	636	524	55	-71	-117	-15812	1044	-3764	80	-80	171	-9252	3488	13576	116	-88	-203	-16712	-392	8	39	-47	104	-15740	-160	-4296	164	25	-34	126	129	8
-9652	-3164	12092	-117	148	-173	-16184	528	576	-138	-69	-68	-15772	1028	-3760	56	-146	189	-9240	3524	13560	122	-19	-163	-16708	-508	84	109	-49	128	-15668	-168	-4340	116	-57	10	126	128	8
-9664	-3196	12200	-126	134	-161	-16224	496	496	-70	-46	-69	-15856	1080	-3556	11	-150	141	-9240	3548	13612	131	-48	-166	-16772	-452	92	139	-58	137	-15664	-124	-4280	140	-33	-8	126	128	8
-9716	-3164	12148	-87	118	-203	-16228	588	488	-16	-34	-84	-15824	1132	-3740	31	-118	82	-9236	3512	13520	128	-12	-152	-16672	-376	104	93	-22	152	-15636	-40	-4364	169	-31	18	126	128	8
-9620	-3104	12228	-102	119	-198	-16248	684	388	38	-70	-63	-15812	1236	-3748	-41	-166	63	-9244	3584	13600	149	-70	-148	-16712	-420	12	50	-36	121	-15624	-76	-4392	221	-27	34	126	129	8
