#Activity	running 
#ActivityID	2 
#Date 09-07-16-36
acc_rf_x	acc_rf_y	acc_rf_z	gyro_rf_x	gyro_rf_y	gyro_rf_z	acc_rs_x	acc_rs_y	acc_rs_z	gyro_rs_x	gyro_rs_y	gyro_rs_z	acc_rt_x	acc_rt_y	acc_rt_z	gyro_rt_x	gyro_rt_y	gyro_rt_z	acc_lf_x	acc_lf_y	acc_lf_z	gyro_lf_x	gyro_lf_y	gyro_lf_z	acc_ls_x	acc_ls_y	acc_ls_z	gyro_ls_x	gyro_ls_y	gyro_ls_z	acc_lt_x	acc_lt_y	acc_lt_z	gyro_lt_x	gyro_lt_y	gyro_lt_z	EMG_r	EMG_l	act
-7584	-15184	27940	-39	2840	1956	-32768	-30880	-4200	-304	683	1605	-32768	-3688	-6048	1527	4320	2635	-29544	10904	7608	462	-6486	3203	-12040	952	-19944	452	-7000	422	-10760	13136	-27856	-970	-3262	-560	133	143	2
-8676	-12788	27192	314	5124	2615	-32768	-32768	9800	-468	1210	2278	-32768	-5472	13952	395	3932	1972	-30336	8576	3792	255	-6226	3690	-11736	288	-22520	135	-7274	875	240	7608	-24648	-1937	-2494	-780	147	113	2
-9128	-14868	28452	70	6518	3986	-32768	-32768	21848	-488	412	1911	-32768	-9384	25632	-501	4633	1231	-32768	7432	2104	527	-5557	3926	-10424	2584	-26912	-152	-7138	1198	11456	-5608	-13888	-2465	-691	-699	153	97	2
-17008	-21216	18364	-101	7933	5628	-24160	-32768	28592	-935	560	1663	-21536	-14672	32767	-57	3671	710	-32768	6544	-4640	626	-5018	3921	-10136	7256	-32688	-1037	-6362	1517	11264	-2784	-13336	-905	516	-560	111	114	2
-26664	-21080	19652	-866	7975	5895	10544	-19944	23312	-2114	-16	1414	-7728	-10400	32767	427	1912	285	-32768	3952	-8888	448	-4546	3992	-11040	4984	-32768	-2506	-5683	1575	7904	1184	-11392	-139	305	-737	69	210	2
-32768	-14492	27424	-2985	7546	5428	7632	-20240	12488	-2061	217	1954	-928	-14472	16656	-85	773	694	-32768	-2384	-13992	346	-3949	4201	-14264	-4000	-32768	-2606	-4818	1074	552	3688	-2184	532	-108	-1134	60	201	2
-24904	-32768	18144	-1587	5087	4689	-4008	-20632	5600	-1998	1360	2024	-4744	-10928	17016	1060	-269	-263	-32768	-12760	-21592	451	-2804	4246	-8776	-6248	-32768	-624	-3655	670	-4040	5072	7048	1278	-1220	-918	6	234	2
-32768	-32768	20576	913	2331	1306	-11192	-21272	-672	-1826	2182	1797	-4088	-10120	16368	1140	-365	-326	-32768	-20336	-30344	762	-1952	3051	1552	2640	-32768	1081	-2293	395	-6952	1912	5968	1753	-1545	-416	53	189	2
-15892	-27684	22848	2591	-64	-974	-3080	-28568	15928	219	3611	1012	-10560	-5960	352	1752	-623	-28	-32768	-15600	-31680	667	-1432	343	1624	6728	-32768	1663	-506	600	-2888	-264	10304	1413	-954	549	61	183	2
352	-7992	26308	2450	-98	-229	-9056	-14704	23248	1386	4467	423	-6240	1280	10456	2407	-1738	-404	-32768	-12032	-27008	651	-851	-1828	1144	2216	-32080	1509	947	821	-952	-1480	11168	1460	-654	678	100	118	2
1236	-2544	29772	170	-381	-104	-12520	-208	18912	794	3370	604	-2848	8216	12256	2452	-2038	-593	-32768	-10392	-19304	1426	-120	-1923	2704	-10536	-27880	537	2119	493	9384	-5888	2864	-903	3987	1631	164	46	2
-1536	-5304	28196	-1519	-1534	-175	-14688	-1968	18456	-1269	1458	815	-10840	12168	6256	756	-2225	145	-12192	-8472	-13144	1457	1068	-296	1176	-22072	-12208	350	2608	283	14064	-424	-23592	3091	5399	1641	165	67	2
-5228	-10032	26488	-1502	-2568	239	-14792	-5640	11696	-2937	-385	893	-10632	8544	8752	-354	-2338	336	-32768	-21624	-32768	-4331	7399	-947	528	6784	22328	1885	1751	168	-1280	6184	-32768	5285	2529	-22	168	44	2
-11592	-10252	21652	-1126	-4054	-349	-14752	-5504	8336	-3239	-1083	802	-15872	8840	5544	-557	-2424	39	-32768	-29344	-32768	-8476	-7646	-2840	-32768	32767	-32768	-21945	2113	6220	-32768	9760	-16416	-5761	1821	-1890	127	253	2
-1692	-13456	23476	-838	-3993	-446	-17552	-12840	2648	-1937	-1539	-8	-32768	-15608	-6384	-1706	-1998	-15	-32768	32767	1568	-26	2928	1646	12544	-32768	-32768	9781	8487	1364	-32768	-32768	-32768	-4948	2092	2044	92	253	2
-16652	-23624	22720	277	-4176	-1116	-32768	-29760	-3464	-227	-1525	-360	-32768	1888	-6208	1676	-2665	-1433	-13752	472	10712	326	733	-726	32767	27680	-32768	568	5262	782	32767	-32768	-32768	2096	2968	2265	71	179	2
-13652	-11088	17720	117	-4464	-2001	-25312	-16080	-7936	1953	-1602	-1673	-32768	2456	-11544	1664	-3844	-1390	-19800	112	19144	799	778	-430	-27528	-3072	-30552	-472	3275	333	-16688	13128	-32768	8799	954	-1336	122	105	2
-17492	-10132	16496	-1304	-4024	-2472	-27064	-10104	-12752	2764	-2391	-2095	-32768	5256	-11888	1141	-3815	-1069	-11856	5640	17448	303	1387	-828	-24184	10016	-30920	1246	2360	58	-32768	32767	-32768	2807	5238	-1075	137	253	2
-25836	-10032	19328	-1361	-4218	-3644	-26440	-6936	-15008	2760	-3107	-2655	-30616	5472	-13440	-635	-3496	-1017	-6816	7632	25792	250	2602	-1317	-32768	12624	-20368	1443	1803	-842	-32768	9480	-9024	-3074	4682	-596	132	254	2
-26112	-5336	16032	-1704	-4353	-4004	-22416	-8632	-10712	2574	-3683	-2793	-19648	-2648	-13672	-1338	-3404	-700	-5728	3304	28480	14	5176	-1582	-32768	1400	-9696	892	1073	-1782	-32768	18048	-3632	-1495	4589	-409	112	0	2
-19108	-8688	15532	-1531	-4072	-3738	-19456	-11600	-9504	2678	-4018	-3066	-15320	-4256	-10624	-1366	-2551	-293	2376	9832	24464	-45	6906	-1635	-32768	3552	6416	-117	194	-1023	-32768	-7408	5944	-3104	4064	561	100	0	2
-17988	-3384	16392	-1648	-3716	-3285	-22608	-8400	-8496	2864	-4473	-3036	-12872	-544	-11656	-729	-1720	-385	920	5264	19672	-115	8296	-3474	-32768	-2048	13144	260	-239	-523	-32168	-20248	20848	-1781	4201	777	102	6	2
-22496	-32	17192	-2283	-3816	-2696	-23448	-2856	-10096	2230	-4890	-3057	-6008	5408	-12792	65	-1020	-375	-17880	14864	23952	318	9616	-4118	-32768	2560	21424	893	-306	-141	-18920	-10176	32767	606	3384	855	113	47	2
-28612	228	15588	-2100	-3617	-2448	-23352	-560	-15160	1620	-4890	-3011	-4288	4752	-12584	214	-991	-326	-24912	9408	25712	1087	9262	-4096	-15136	7752	20072	1567	67	-21	-13208	-7720	32767	819	1683	256	117	77	2
-32768	920	9804	-1353	-3725	-2816	-23856	2256	-22728	1884	-4175	-2849	6488	4880	-9824	-218	-525	-28	-32768	5272	32448	2941	7249	-3332	-8144	14664	7384	544	1354	-696	-12904	8528	28824	-463	-270	-195	113	90	2
-32768	14540	-4096	-1100	-3085	-3196	-22288	9240	-29696	2227	-3384	-2661	8712	2896	-8608	-276	55	372	-18840	32767	15216	1358	4803	-2808	-18376	15072	4592	-404	2671	-993	-21024	5936	25064	-1754	-227	-33	110	82	2
-32768	22360	-14496	-1656	-1670	-2689	-24528	11848	-32768	1739	-2554	-2107	5560	1480	-4792	270	-387	-33	-17872	32767	28176	-2157	3297	-1345	-22168	13368	5600	-1411	3753	-704	-8904	-2464	24152	-2654	-737	-75	121	85	2
-32768	28480	-20360	-2381	255	-2404	-22904	18520	-32768	790	-1488	-1116	-2896	3216	5424	-6	-1357	-388	-16464	13256	29600	-2240	1761	84	-22656	1776	17192	-1759	3413	-633	-9384	-8328	24440	-2273	1248	-2978	120	68	2
-32768	25776	-21888	-2537	1560	-2081	-18712	17024	-32768	-771	-591	135	-1912	5368	8640	-1140	-1327	-252	-10024	4248	30544	-314	1203	-648	-22376	-536	25704	355	3349	-581	-9176	-7064	12400	-409	-2421	-352	116	130	2
-32768	17876	-19216	-1471	840	-648	-18216	8736	-32768	-2019	861	679	-2432	5560	21184	-1832	-433	172	-8064	10312	32767	1365	1149	-2107	-23296	696	20240	1305	3110	-606	-4192	-15664	19024	70	-2046	-436	100	129	2
-32768	19024	-32768	1930	2092	4330	-27960	8168	-32768	-1860	2359	876	1120	-792	-9256	-4557	5825	526	-21928	21624	32767	1963	-276	-1813	-27912	872	9320	1675	2899	-750	-17752	-3944	14168	2017	-1622	-897	34	137	2
-32768	-32768	32767	9305	658	3991	-32768	-13360	-28992	-4352	6554	2033	-32768	-26608	15560	-299	191	195	-27176	32767	32767	536	-2487	-867	-32768	6376	1400	1607	2077	-540	-32768	15240	4320	1564	-1779	-1136	173	119	2
32767	32767	32767	263	907	3049	-32296	32767	-1416	954	6939	4540	-32768	27216	-32768	2222	876	-569	-19680	29064	32767	-1646	-4121	484	-32768	4432	-1144	-99	740	-190	-32768	17072	-6608	-318	-2273	-142	240	95	2
16372	18872	23704	449	928	599	-32768	32767	-32768	1044	6719	4470	27376	32767	-13776	-2768	2507	191	-10224	17464	26728	-2311	-4648	1351	-26480	2344	-3520	-445	-918	-201	-32768	11520	-11208	-2764	-3722	410	85	30	2
-13144	-396	17544	180	266	297	-32768	2960	-21840	-3143	2438	687	-27568	3808	-29864	-3971	2033	3507	-21952	13224	22064	-938	-4937	1931	-24808	8296	-17128	-1045	-2503	-231	-32768	4712	-20232	-2281	-3515	158	124	36	2
-17368	-8788	10404	-234	1002	366	-26008	-10456	-32120	-3913	1712	867	-32768	-11720	-32768	-2107	3618	3064	-23752	15024	16272	-145	-6449	2561	-24472	6336	-21568	-1713	-4264	48	-32768	4800	-26352	-1420	-3730	-422	153	45	2
-16320	-14144	14692	-364	1770	544	-21416	-30448	-32768	-2006	848	764	-32768	-11136	-27072	-737	4060	2063	-24232	10496	9584	140	-6819	2605	-17520	2112	-17856	-1123	-5496	464	-32768	8016	-26336	-337	-4790	-1053	161	123	2
-10704	-11628	25224	-84	3078	1386	-29816	-30992	-13824	-738	-217	1123	-32768	-32064	-18504	-1836	4594	3167	-22376	8136	8328	1046	-6114	2883	-17656	-536	-18520	-103	-6254	581	-24384	5856	-28368	-473	-4613	-1216	156	136	2
-6988	-13684	31196	484	5394	2307	-32768	-32768	2928	-580	-415	2409	-32768	-21688	2520	1845	5289	2553	-24064	8120	8464	1792	-5703	3082	-14576	248	-19416	651	-6747	1108	-10320	13336	-28456	-2043	-4210	-871	127	192	2
-6120	-19672	27456	241	6681	3948	-32768	-32768	28384	-27	401	2207	-32768	-2376	26816	1162	5231	1847	-24632	5752	4792	1946	-5314	3270	-8544	608	-22040	681	-6989	1592	6232	4408	-25440	-3189	-3127	-467	80	248	2
-8256	-24916	28176	22	8010	5167	-32768	-32768	32767	-385	781	1639	-32768	-7080	32767	735	4992	1450	-32264	5648	4032	1764	-4752	3493	-2968	3136	-26048	-151	-6765	1953	15880	-1808	-20008	-2167	-1007	-389	117	158	2
-21548	-20396	23556	-356	8853	6004	18688	-16208	32767	-1594	677	1336	-11360	-9472	32767	129	2541	474	-32768	3192	1864	1411	-4117	4015	-10792	-456	-32768	-1529	-6269	2093	15040	280	-16496	522	1026	-706	95	184	2
-32768	-19380	25080	-2262	8465	5323	11544	-23312	11192	-1422	734	1643	-3584	-16952	32767	-122	235	700	-32768	-1176	-5720	928	-3565	4895	-12112	-4424	-32768	-2458	-5445	1842	12320	2056	-16360	437	548	-478	72	173	2
-29252	-32768	18408	-854	5999	4985	-10592	-18864	3808	-1408	2317	2309	-9080	-20744	25168	1296	-774	-546	-32768	-12176	-16264	350	-2875	5578	-7856	-7760	-32768	-2819	-4535	940	736	6576	-2576	255	-1682	-464	127	0	2
-32768	-32768	24944	1939	2426	2386	-20088	-23912	-2896	-2060	2634	2272	-9984	-3784	17272	920	-744	-301	-32768	-17808	-24680	-15	-1812	5058	-2576	-3848	-32768	-1970	-2918	213	-4784	8688	5208	1190	-2571	-374	140	50	2
-21260	-25204	25908	3323	9	301	-9240	-30120	15632	206	4439	1251	-13440	-1376	8032	991	-1254	156	-32768	-19024	-32768	-510	-1006	3036	1584	128	-32768	-794	-942	130	-2616	280	11312	559	-1595	233	214	1	2
-7092	-5652	29012	2630	333	703	-18776	-13096	23672	1000	5228	919	-6200	-4232	7888	1917	-2236	-90	-32768	-16560	-29640	-708	-817	599	4384	-4656	-32768	349	560	527	5488	-10904	15376	-242	1912	1028	224	1	2
-2872	-5364	31428	148	584	955	-17520	-9624	24064	-268	3741	1261	-8144	8344	12048	2316	-2909	-417	-32768	-25160	-24416	1864	-665	271	3664	-15464	-27280	369	1867	367	9120	-10952	-11880	-427	5757	2216	192	9	2
-1140	-15988	32220	-1274	233	1064	-15408	-8224	20424	-1772	1733	808	-13104	12688	9832	1006	-3075	225	32767	-32768	-32768	-45	4518	-2076	7872	-23512	-21592	482	2607	631	5408	-3136	-24760	5167	3653	1183	168	63	2
-6664	-21880	30948	-961	-717	538	-14720	-9104	11296	-2603	328	521	-19336	5984	6632	-211	-2983	222	-32768	32767	-32768	-6255	-931	2482	-32768	32767	-32768	-13749	6161	-676	-32768	-30088	-7728	-3592	454	-1162	166	142	2
-9312	-17204	32767	-607	-1851	-729	-15792	-13848	4232	-1922	-1072	115	-32768	-11088	-520	-1390	-2931	-26	-32768	32767	-31232	-304	1886	2006	26272	-32768	-32768	6634	10420	-778	-32768	-20704	-32768	1169	2595	2079	160	117	2
-12748	-21396	26940	480	-2802	-1692	-31392	-29904	792	-244	-1449	-24	-32768	-7408	-10840	976	-2758	-1441	-2392	-14480	21688	143	1096	-606	21824	27784	-32768	1913	5323	763	32767	-31696	-32768	2791	1970	1493	55	254	2
-14452	-13392	24628	491	-3984	-2274	-22344	-16384	-6904	2548	-1758	-1379	-32768	-120	-19168	2432	-4056	-1809	-13144	15128	15776	649	999	-186	-22992	5400	-18048	-27	3897	182	-14216	17312	-32768	3620	3112	-844	66	222	2
-23768	-8676	20536	-1049	-5508	-3132	-18856	-8920	-14288	3362	-3048	-1958	-32768	9088	-22200	1353	-4251	-1182	-11992	10008	16088	674	1912	-218	-29488	14080	-26504	1126	2795	-247	-32768	32767	-32768	777	5003	-674	64	206	2
-26560	-8548	14856	-1834	-6545	-3857	-22656	-8072	-12192	3014	-4609	-2068	-32768	7736	-24592	-743	-4296	-883	-672	11312	26256	551	3496	-1155	-32768	13304	-18848	938	1825	-861	-32768	4392	-8960	-1723	4270	-517	65	204	2
-24308	-5612	12468	-2000	-6553	-3837	-19560	-6248	-10832	2390	-5932	-2614	-15352	2928	-23696	-1647	-3850	-728	-4104	3888	29984	753	5908	-1608	-32768	-4488	-7440	846	1139	-598	-32768	4712	3104	-1217	4586	115	87	137	2
-26908	-5640	15004	-2604	-6583	-3659	-20288	-6816	-10128	1946	-6646	-3096	-9296	1824	-20984	-1575	-3050	-274	-2120	6568	24880	855	7826	-2299	-32768	3136	9416	522	-278	-142	-32768	-9080	16992	-1656	4358	706	94	103	2
-27380	-4964	15524	-2969	-6686	-3614	-23624	-6368	-12024	1688	-6921	-3521	-3968	2088	-22184	-1375	-1619	-518	-9888	8328	26624	1151	9922	-3777	-32768	4440	18752	1037	-133	-22	-32768	-5344	28488	-6	3847	1428	84	87	2
-32072	-2096	13004	-3117	-6341	-3683	-23872	-5656	-16008	1724	-6866	-3865	4224	5376	-21048	-707	-570	-192	-25240	15168	32240	1128	10335	-4099	-29152	3752	22872	1768	-21	-31	-21976	-3768	32767	827	2256	1095	116	37	2
-32768	168	9324	-3156	-5578	-3656	-25864	-5432	-22488	1976	-6153	-4100	9504	4056	-20240	270	-669	-378	-30552	12384	24992	1544	10220	-3858	-4624	11920	14352	1414	696	-233	-8024	1248	30696	1411	1044	-241	131	153	2
-32768	5716	3764	-3115	-4512	-4068	-32768	4352	-30688	2649	-4760	-4128	7736	4992	-11328	328	-361	7	-30512	27576	19888	4231	5485	-3111	-17248	15336	2240	422	2525	-1061	-15600	4032	28800	-1210	-226	118	127	163	2
-32768	18984	-1668	-3246	-2459	-5078	-32768	8688	-32768	2377	-4097	-3241	9520	-960	-6848	-2	-230	416	-32768	32767	24920	265	4493	-2307	-16816	3720	2616	-507	3138	-576	-9648	-5568	25664	-2238	-615	124	132	149	2
-32768	24400	-10164	-2812	-207	-5155	-32768	14712	-32768	2126	-3015	-2234	1368	-2944	1320	-514	-1719	-363	-16704	21136	27272	-1701	1446	-15	-21928	4928	14864	-829	3146	-391	-7824	-3728	12744	-1183	-764	-156	129	141	2
-32768	20468	-25008	-684	301	-3943	-17280	12848	-32768	905	-1322	-1059	-3696	-1608	16256	-158	-1864	-971	-8112	3528	30344	-663	801	-503	-19544	328	25352	108	3092	-393	-13320	-14472	5864	391	-1299	-557	99	143	2
-32768	32767	-31700	623	260	-1915	-21040	19096	-32768	517	1020	-399	-2448	952	19216	-170	-366	-811	304	6288	32767	1434	706	-1725	-16216	-5224	23824	1506	2766	-412	-4136	-14552	15288	-24	-1863	-473	95	156	2
-32768	32767	-24848	-956	1398	-1087	-21984	23272	-32768	-552	2463	843	9608	9120	17784	-1183	4514	168	-8832	15968	32767	2533	-386	-1966	-17496	-144	14800	2555	2445	-298	-5568	-9432	14000	1293	-1266	-761	103	160	2
-32524	16048	-14656	-402	2531	-277	-19392	16520	-15416	-1224	3211	1481	1824	15296	-32768	-3544	5482	1248	-15736	23424	32767	2007	-2199	-1270	-22288	5896	8528	2806	2133	-337	-13240	-1088	10000	1738	-1541	-1090	151	136	2
24476	32767	-32768	1844	5371	3538	4184	-17176	-32768	-625	2570	1509	-18416	17288	32640	1310	233	36	-22064	25992	29160	332	-3999	-542	-24048	6464	2296	1762	1791	-301	-24272	13032	4832	977	-2011	-758	165	126	2
-32768	-32768	-32768	17030	615	8349	-32768	-32768	-32768	-9333	8625	-2428	-32768	-32768	-32768	1086	4509	-1020	-12776	22992	32224	-740	-4373	369	-32768	4480	-1880	789	493	10	-32768	18032	-16552	1128	872	-535	137	169	2
-32768	-32768	-29160	824	2601	-2938	-32768	32704	15352	-4741	6268	6195	-32768	32767	-32768	4375	1996	-1317	-15616	26376	22680	-1729	-3888	1138	-32768	9840	-11152	-727	-1463	93	-32768	21960	-23920	543	-48	-60	161	37	2
-14732	-20904	8156	-655	1788	-7	20840	-31592	-32768	-2199	4354	1738	32767	32767	-32768	-3135	1657	923	-15984	18032	20368	-1317	-4304	2410	-21216	1144	-14096	-2008	-2649	35	-32768	15832	-23080	-3340	-3859	-63	121	31	2
-2304	-28	24316	-234	1405	357	-32768	-3440	-23096	-991	1456	-91	-32768	1832	-32768	-6172	1143	4268	-14760	17432	19736	-1137	-4348	2602	-25568	3456	-18320	-2202	-4190	83	-32768	-832	-25976	-2698	-4416	-1098	144	69	2
-12252	-6912	14196	-381	1635	978	-32768	-15440	-13384	-4052	718	1099	-32768	-32768	-32768	452	3460	1547	-23272	12880	13152	70	-5424	3844	-14328	2864	-18536	-1110	-5327	588	-31392	728	-28168	-189	-4095	-1070	133	122	2
-14340	-23908	18020	-582	3117	1138	-20008	-32768	-9864	-1628	693	1582	-32768	-280	-7280	2159	5131	2526	-25384	10928	12024	363	-5955	3895	-13168	4440	-17352	-688	-6129	898	-18472	5528	-27608	600	-4098	-118	79	237	2
-8312	-11420	28256	-5	4946	2156	-32768	-32768	8656	-177	703	1622	-32768	-4536	6568	429	3808	2913	-24488	10088	10408	629	-6011	3763	-14536	2800	-18576	-690	-6647	1170	-7352	16056	-30672	-1192	-4017	67	95	178	2
-6056	-14596	27268	-469	6555	3267	-32768	-32768	29080	-969	967	1690	-32768	4848	18728	-31	4411	1452	-28528	7064	6600	1051	-5846	3446	-14408	1480	-21368	-380	-6962	1461	1088	4136	-21688	-2415	-2728	-38	115	134	2
-2724	-18908	17000	-1037	8405	4204	-32768	-32768	29520	-1087	459	1680	-32768	-17976	32767	-1252	4640	1457	-32768	8744	2328	1483	-5310	3195	-12784	3840	-27616	-284	-6601	1884	13304	-6224	-15920	-1863	-517	38	167	105	2
-20836	-24304	24840	-733	9138	5315	1160	-15440	22784	-2195	190	1038	-13136	-18672	32767	-295	3207	750	-32768	10424	-1744	1265	-4333	3460	-11736	5232	-32768	-1514	-5876	2093	14040	3016	-13608	-1407	-326	-253	129	117	2
-32768	-14640	12836	-1737	8147	5040	12408	-14704	9944	-1669	624	1465	-3608	-21224	32767	-192	660	763	-32768	-1832	-10192	1039	-2913	4152	-15784	-6928	-32768	-2499	-5169	1698	3032	4352	-5808	216	-673	-591	114	131	2
-28276	-16932	18240	-978	5512	4450	-10376	-17552	9368	-829	2845	2242	-8736	-24112	26944	1950	-658	-512	-32768	-13336	-18600	1730	-1757	5121	-7448	-9304	-32768	-700	-3896	1210	-5664	5160	-1528	1430	-2121	-1036	107	131	2
-32768	-21728	24644	945	4189	3862	-26624	-12200	272	-1230	3961	2296	-6848	-2216	24936	1919	-902	-582	-32768	-19768	-31144	1472	-788	4642	4848	-248	-32768	-296	-2162	752	-1768	-1320	3976	2431	-2304	-655	89	126	2
-32768	-25988	27088	1917	1462	1514	-19096	-29168	16208	-934	4427	1974	-8896	3256	13640	1549	-1594	351	-32768	-23104	-32768	793	-111	2278	6872	-4976	-32768	169	-203	741	3576	-4336	7792	1293	-72	412	90	138	2
-21656	-15236	32767	2017	951	1733	-23712	-20880	27416	-131	4799	1446	-14248	3712	13216	2239	-2714	-129	-32768	-32768	-32304	1322	168	-77	9464	-18560	-32768	616	1304	910	12304	-21192	-3664	-2146	4556	1759	98	144	2
-14688	-12056	32767	-124	1605	2243	-28872	-13568	25944	-987	3712	1278	-16688	18008	19888	2090	-3702	-167	-16736	-32768	-22144	3891	1727	-1113	5344	-32768	-18848	1494	1819	671	25520	-4696	-27128	4400	5265	2210	108	140	2
-23884	-18444	32767	-1799	599	2139	-28120	-16304	15936	-3146	1844	1097	-26736	22448	16496	3	-3368	290	-32768	32767	32767	-16117	-3488	-9188	15152	31488	-32768	449	3197	-149	-18896	2424	32767	2738	-3645	-26	117	253	2
-22632	-21756	32767	-1846	-1200	1912	-18520	-13064	6920	-4075	481	10	-32768	-2344	-24	-2747	-2853	510	32767	-32768	32767	-4148	-2779	-12107	-32768	-32768	32767	-12536	16463	-424	-32768	32767	-32768	2378	6887	827	102	231	2
-13820	-24472	32767	-1251	-2253	625	-29696	-25160	2408	-2773	-1041	-82	-32768	-23912	-9832	-2357	-2607	-298	-25856	32767	-112	193	1578	46	7928	12272	-18992	3384	4693	1163	752	-32768	-32768	-3181	3135	2133	124	108	2
-7820	-29584	28592	-39	-3552	-1448	-26352	-21136	256	-293	-1799	-410	-32768	-10736	-15608	1065	-3966	-1792	5760	-12864	20984	243	1075	-292	-4048	-2688	-14984	-1863	4549	-747	32767	-29768	-32768	4096	3203	1330	114	97	2
-10416	-15404	16736	206	-5288	-3196	-2744	-10144	-12912	2907	-2404	-2291	-32768	2344	-22712	1460	-4686	-1737	-7416	-2832	18640	507	1140	-125	-11240	-4552	-32768	-1571	4621	-813	-25512	32767	-32768	5990	2800	-2989	105	156	2
-3260	-5544	8456	-554	-5947	-4367	-10056	-3600	-9512	4257	-3349	-2477	-32768	6656	-31328	98	-4183	-1266	-9296	13720	18952	690	2603	-509	-32768	20232	-29296	1835	1939	-529	-32768	32767	-27040	-2656	3413	338	184	69	2
-17392	3372	8672	-1169	-6483	-4244	-9040	-1448	-9584	3587	-4971	-2484	-11408	752	-30536	-1305	-4217	-948	-7520	10928	29432	476	4841	-1608	-32768	14936	-8840	1431	1904	-1240	-32768	-1456	-4096	-3304	4803	-975	179	0	2
-18236	1464	9064	-2697	-6682	-3899	-11400	-1120	-10464	2782	-6506	-2935	-6512	-5552	-25160	-1047	-3399	-147	48	4920	32168	310	7176	-2095	-32768	1728	9664	-157	-3	-756	-32768	-3032	5760	-1214	4712	486	158	1	2
-28400	-3236	10296	-3672	-7302	-4097	-14568	-3576	-12288	1960	-7231	-2932	-4512	-7032	-27976	901	-1705	-273	-2760	10416	22304	790	8930	-2854	-32768	-1336	21360	344	544	32	-32768	-14040	22280	-569	3843	1695	129	0	2
-31476	-4720	7192	-3220	-7568	-4374	-15672	-2216	-17040	1811	-7421	-3239	9912	14904	-24552	1205	-450	-31	-20072	19416	22280	1167	10237	-3578	-27768	616	23784	617	-616	276	-32768	-4248	32767	417	2907	1931	119	10	2
-32768	-1260	3220	-2421	-6865	-4815	-20408	-1400	-21944	2170	-6690	-3883	14312	10560	-20816	1035	-235	155	-32072	12856	32688	1978	9003	-3837	-11960	13432	24488	2297	394	21	-20992	-3608	32767	265	596	-167	114	75	2
-32768	4484	-2736	-1970	-5375	-5102	-26264	-4536	-28000	2516	-5363	-4101	7864	10808	-15792	-7	-85	110	-32768	19680	28064	3511	7097	-3343	-10936	17168	6600	102	2289	-1093	-13976	-912	28160	-254	14	740	110	136	2
-32768	8312	-5564	-1687	-3667	-4991	-32768	-3736	-32768	3042	-3903	-4172	2392	424	-8752	-18	-138	495	32767	13520	-8248	1234	5909	-2403	-13568	18000	9224	-750	3170	-530	-13968	-12936	28000	-1607	65	701	124	143	2
-32768	24792	-12916	-2175	-2011	-5211	-32768	10872	-32768	3719	-2145	-3445	-2616	-3232	3176	-657	-445	-635	-20864	25544	29000	-1626	3859	-541	-24096	9792	5104	-1574	4251	-263	-6344	-6944	23464	-1039	-756	107	119	150	2
-32768	32767	-22876	-1887	555	-5307	-29024	23576	-32768	2130	-1016	-1266	-9200	-2776	11216	221	-1922	-1376	-20888	1536	31808	-587	2354	-39	-24664	-3216	18872	-289	3924	-384	-5320	-2568	11864	-381	-1102	-377	117	163	2
-32768	23464	-31812	121	1120	-3211	-16488	10680	-32768	50	273	86	-6120	3344	20464	485	-1308	-1326	-13784	-1824	32767	1960	1576	-1483	-22208	-5336	21472	2042	3617	-411	-2880	-14336	13320	763	-2583	-464	134	157	2
-32768	32444	-28076	-27	835	-418	-20992	15240	-32768	-795	1934	239	14088	13912	23160	-999	5156	-341	-17832	14208	32767	3207	662	-2693	-23752	440	14712	2944	3520	-603	-6328	-14304	15440	1393	-1606	-613	81	152	2
-32768	29412	-19188	-2037	2063	179	-21160	19560	-17768	-1462	3143	1293	296	24264	-32768	-4508	6466	1054	-20432	27152	32767	2291	-1098	-2396	-27336	3784	9608	2656	3320	-554	-15808	-5888	12848	2279	-1704	-719	113	143	2
-32768	8292	-32768	3184	6342	7264	13568	-32768	-32768	-1061	2594	1637	-27416	1432	32767	635	-3522	347	-16624	29448	32767	359	-2348	-1663	-29480	3472	5360	2004	2573	-441	-32768	17520	5520	2032	-1528	-647	122	187	2
32767	32767	32767	6677	1343	8731	-32768	14968	7432	-9445	10984	-3008	-32768	-15672	-32768	1010	2512	-525	-12088	27472	32767	-685	-2639	-261	-32768	6200	-1760	1082	987	-251	-32768	23552	-15776	1183	-838	-495	245	107	2
21192	32767	32767	-1112	2506	646	32376	-1880	-26216	-5390	6377	2518	-10480	32767	-32768	451	3596	-1665	-10360	31576	29424	-2140	-3683	1160	-27408	10608	-6104	-69	-1318	327	-32768	21288	-16112	-2316	-3434	452	100	17	2
-13620	-18132	6000	-78	1550	420	15616	1648	5480	-2993	4478	-260	28616	27912	-32768	-4345	1729	2985	-9608	15440	20800	-1996	-5120	2561	-14728	10160	-14776	-2908	-2628	6	-32768	17400	-20016	-3025	-3289	436	129	25	2
-16972	-17344	10084	-463	1681	157	-11120	-28120	-20256	-4164	-63	451	-32768	-32768	-32768	-8139	4508	5703	-11520	9344	14424	-853	-5713	3578	-18152	-2504	-14192	-3779	-4850	-300	-32768	3480	-29600	-1949	-4041	-603	122	110	2
-15960	-5744	18256	-640	2509	537	-28864	-32768	-19072	-1029	74	1781	-32768	-8216	-17816	2956	2905	1068	-20784	10384	12672	-296	-6432	3840	-11192	-1360	-14416	-1246	-6101	181	-24992	10088	-30448	-103	-4148	-851	125	175	2
-9392	-11372	32012	73	4123	2106	-32768	-30704	2808	25	306	2007	-32768	-10496	2976	-131	4531	2601	-24112	10312	12352	79	-6952	3921	-13296	4560	-14680	-354	-6863	273	-13616	16936	-32768	-936	-4362	-836	122	172	2
-8256	-15564	32767	-211	5857	3166	-32768	-32768	26992	-1041	1340	2613	-32768	-4904	19216	-47	4269	2045	-24336	10784	13136	233	-7069	3942	-13840	2200	-14784	-669	-7445	433	1856	5912	-28656	-3344	-3602	-488	124	169	2
1700	-16756	21060	-937	7564	4124	-29232	-30880	26392	-760	742	1576	-32768	-7960	32767	-280	4454	1508	-29720	8416	13864	759	-7064	3779	-13448	1344	-19392	-12	-8022	913	11304	-7432	-20504	-2422	-1321	-473	131	96	2
-17256	-20040	27144	-224	9224	5668	-15656	-28144	30200	-1721	439	1121	-15736	-9848	32767	4	3004	995	-32768	10576	8816	1193	-7017	3427	-14384	5624	-24208	195	-7860	1643	12520	-3584	-20784	-1065	60	-565	123	131	2
-30220	-21508	21256	-1099	8450	5571	8040	-15392	14440	-1642	595	1266	-8904	-15680	28456	334	1318	862	-32768	10344	3768	1344	-6478	3270	-18872	3976	-32768	-745	-7381	2011	16800	-3816	-17560	-434	201	-563	124	131	2
-26980	-11320	30316	-1234	6290	5015	-536	-22776	7192	-1048	1764	1624	-3424	-25664	21512	775	211	301	-32768	-1920	-5736	1985	-5224	3914	-21360	-8056	-32768	-1043	-6367	1886	9016	3008	-4504	1437	-910	-824	116	169	2
-32768	64	2104	-1395	4906	6209	-10192	-11976	2384	-1240	2415	2096	-7184	-16232	20904	2204	-597	-719	-32768	-14504	-19720	2329	-3235	4685	-15584	-9784	-32768	-400	-4645	1143	-8200	12080	8784	1459	-2840	-659	64	206	2
-25428	-32768	27420	802	31	1572	-11688	-26280	13456	-1414	3254	1914	-5688	2256	14904	2460	-803	-463	-32768	-23992	-31952	2030	-1159	4548	-2632	-1024	-32768	486	-2516	356	-8336	2368	12920	2184	-3007	-439	84	158	2
-11944	-22460	27388	2431	-785	1384	-10976	-21008	21976	346	3773	1205	-7328	2696	14672	1566	-1442	217	-32768	-14304	-32768	342	-741	2233	7024	3208	-32768	511	-44	472	-1928	-4552	17920	1321	-370	441	100	139	2
-7300	-9072	27640	1418	-149	1176	-20872	-10144	24160	97	3590	1269	-8088	5360	16816	1188	-2258	-3	-32768	-5072	-32768	-1035	2842	-6	3112	-2568	-32768	475	1647	577	14056	-15736	5952	-1330	6058	1687	111	127	2
-12888	-11524	28112	-304	31	886	-20656	-12848	17376	-1405	2433	1332	-13768	9336	15608	480	-2638	189	-32768	-32768	-32768	-221	2703	-2957	2400	2968	-32768	620	4229	-253	3552	632	-13368	5066	3867	1081	119	107	2
-21252	-14700	30224	-1192	-391	704	-26208	-18784	9024	-2808	1234	1310	-30056	-5664	5688	0	-2958	231	-32768	32767	27064	-7159	3382	-2373	-32768	32767	-32768	-2255	9827	2566	-32768	25064	-7680	-679	2992	-1811	133	123	2
-26048	-22096	32767	-782	-1203	329	-31808	-26040	5000	-2309	155	1012	-32768	-7320	2904	480	-2761	-140	-32768	32767	-32768	0	1140	886	-32768	32767	-32768	1394	12584	5777	-21440	-24704	-32768	1149	2526	2379	144	185	2
-14412	-22848	27980	671	-1916	-254	-32768	-24136	2752	-465	-161	341	-32768	4152	-4576	884	-3864	-1288	-23168	4856	11184	-4	815	-71	21808	15008	-32768	2295	5830	285	32767	-25248	-32768	3263	1320	1232	139	142	2
-13364	-17856	23108	499	-2647	-1535	-18096	-13096	-7768	1470	-872	-1006	-32768	-904	-12432	1507	-4099	-1360	-5608	-2704	20912	561	532	-28	21080	7808	-32768	1338	4898	570	-17296	21160	-32768	2497	2886	-1552	120	189	2
-13656	-13428	15624	-329	-4158	-3008	-11832	-10424	-12776	2603	-2220	-1660	-32768	1096	-21584	550	-3985	-1053	-10136	-5520	19896	427	1296	-614	-31928	-8944	-30104	949	2139	61	-32768	29600	-32768	-329	5737	-365	120	160	2
-14924	-9116	10524	-961	-5376	-3844	-12112	-8400	-10616	3096	-3684	-1947	-32768	4280	-27184	-56	-4068	-1454	-5064	11192	23432	720	2933	-724	-32768	12608	-14000	1449	1912	-748	-32768	8968	-11184	-359	4585	-693	137	90	2
-18528	-6688	8292	-1447	-5971	-4008	-10904	-4120	-10088	2979	-4829	-2374	-18152	3248	-25912	-894	-4103	-914	-8488	10368	28752	781	5607	-1664	-32768	5704	-11320	1287	1186	-815	-32768	8472	-1776	-172	4757	-139	146	83	2
-19188	-5532	9724	-1975	-6227	-4090	-12168	-3592	-8632	2702	-5731	-2785	-9856	2424	-23832	-659	-3305	-256	520	11984	26160	914	7725	-2283	-32768	2360	12280	1051	123	-386	-32768	-2408	15496	-639	4465	602	141	109	2
-22208	-5564	10220	-2374	-6330	-4223	-15592	-4336	-10832	2457	-6256	-3042	-3280	2952	-22888	-431	-2376	-410	-928	7696	19608	1400	9846	-3589	-32768	7968	20856	1537	-344	-326	-32768	-4944	31320	525	4000	1169	95	158	2
-27456	-2584	6976	-2464	-6238	-4323	-16592	-5632	-15168	2057	-6492	-3327	-1768	1176	-22904	-448	-2128	-365	-25904	18512	26288	1791	10702	-3797	-23776	4432	25664	1344	-156	-275	-22592	6392	32767	287	2293	1302	90	170	2
-31712	2736	6620	-2761	-5674	-4239	-20248	-104	-18736	2139	-6269	-3546	13824	6264	-23360	495	-275	-556	-32768	15128	19248	3371	9125	-3620	-1680	18448	15968	1566	1112	-638	-3024	2496	32767	128	501	-360	78	170	2
-32768	3228	1632	-3131	-5339	-4502	-20504	104	-21144	2147	-6243	-3550	8264	10272	-22272	861	18	-360	-32768	19264	16816	3424	6077	-3908	-17296	17056	4504	-63	2848	-1310	-18672	7320	24744	-712	-15	41	80	157	2
-32768	7236	-2836	-2606	-3761	-5279	-31400	6840	-32112	2611	-4698	-3633	8240	7112	-11560	-57	-203	426	-32768	32767	22408	429	6084	-3000	-18360	5496	-56	-1113	3714	-994	-6504	-5896	24088	-1840	125	342	110	134	2
-32768	17632	-7340	-2494	-1670	-5723	-32768	5784	-32768	2559	-3890	-3183	-480	-944	-4872	-693	-1170	-345	-19104	28936	28024	-1857	2568	-793	-24304	5944	12312	-1447	3696	-580	-12288	-6904	12672	-1606	-892	-566	103	133	2
-32768	23588	-15580	-1884	-388	-5171	-29672	14512	-32768	1625	-2258	-1645	-8416	-3864	11904	-521	-2331	-1083	-15960	4184	31712	-708	1621	-444	-24376	-3872	22672	51	3505	-461	-5048	-7792	13480	-519	-1709	-120	110	127	2
-32768	26528	-26764	91	-534	-2960	-22464	13688	-32768	561	-229	-607	-3096	-1440	18056	-269	-813	-1040	-8064	6408	32767	1942	1275	-1347	-21736	336	22880	2146	3244	-460	-4496	-10048	14128	615	-1709	-651	106	123	2
-32768	32767	-31212	170	-25	-529	-20912	23592	-32768	-292	1555	209	8064	9184	25312	-1411	3634	30	-15728	20080	32767	2688	131	-1971	-21856	4152	15328	2471	3001	-502	-11072	-11576	13880	1257	-1686	-821	104	134	2
-32768	29704	-32768	646	4561	3190	-18760	7760	-32576	-1915	2514	966	-920	22456	-26408	-2743	5959	1304	-15120	29272	32767	1530	-1685	-1796	-26120	7840	11520	2054	2701	-431	-18816	-2728	13952	2080	-1731	-770	123	119	2
-32768	-32768	32767	14394	-7561	10391	32767	-32768	-32768	-6161	1587	2882	-32768	-32768	32767	-1214	-1856	267	-20160	29776	32767	128	-2852	-1155	-31424	6088	2104	1389	1842	-200	-32768	20384	-2656	2389	-1711	-967	192	177	2
-20740	32767	32767	-402	-1211	7679	-32768	32767	32767	9889	9698	3649	-32768	-30232	-25464	658	-75	-547	-12536	31712	32440	-942	-3542	517	-32768	3776	-1960	318	177	158	-32768	20808	-12096	-385	-2026	111	191	101	2
4380	32767	32767	5302	897	4505	4976	6816	-32768	-3257	9682	2832	7120	32767	-29176	85	3072	-1887	-10088	22512	27576	-1663	-4257	1577	-21112	7584	-5880	-281	-2015	540	-32768	12088	-19416	-3047	-4064	288	143	53	2
-6572	-11192	8824	-130	1417	-273	11456	4272	1096	-3416	4165	1059	8056	27896	-32768	-3664	1176	3803	-13496	13880	19840	-616	-5190	2962	-19760	7392	-15440	-1940	-3269	387	-32768	3640	-22104	-3095	-3848	-509	148	0	2
-12116	-20560	9704	-466	1816	447	-19088	-29912	-28392	-5299	133	811	-32768	-32768	-32768	-5299	4558	5337	-18120	12584	14344	309	-6089	3731	-18912	256	-17320	-1919	-5242	528	-32768	7872	-29240	-1129	-3925	-609	137	31	2
-15876	-652	19464	-792	2219	694	-30288	-27696	-22960	-1797	380	1425	-32768	-8160	-22720	2223	3232	908	-23920	12176	11784	473	-6599	3857	-13016	3952	-15792	-762	-6322	971	-27368	11352	-31424	400	-4090	-713	142	112	2
-10384	-1972	30396	-234	4014	2010	-32768	-22328	-152	-137	381	1753	-32768	-6680	-2736	-211	4957	2621	-28376	14920	12616	622	-6675	4019	-16664	7192	-17192	-712	-6972	1033	-13696	15384	-30448	-582	-4586	96	133	119	2
-10008	-11916	32767	-301	6143	2742	-32768	-32768	21152	-742	1150	2711	-32768	-11160	13704	-397	4384	2202	-30256	16472	12952	673	-6610	4248	-19568	5184	-19528	-992	-7442	1346	-2040	9824	-27768	-2234	-3110	188	138	102	2
-1900	-12468	29664	-997	7756	3671	-32768	-29016	32767	-425	450	1717	-32768	-6464	32472	-268	4690	1436	-32768	12808	9704	1321	-6397	4199	-18712	1232	-24496	-430	-7813	1865	9456	-8408	-22896	-2762	-1336	-153	126	85	2
-23272	-20564	21012	-1428	9722	4435	-20960	-23624	27664	-881	500	1147	-14192	-9752	32767	143	3328	1250	-32768	12064	5192	2213	-5907	4134	-16048	4416	-32536	-268	-7418	2600	14040	-5232	-19720	-1722	-1047	-215	142	99	2
-32768	-21356	32248	-2126	8522	5047	10776	-19880	15072	-1558	261	1411	-10064	-13056	32767	854	1691	942	-32768	8936	-1960	2545	-4953	4410	-18072	-136	-32768	-958	-6639	2650	15160	-2112	-15264	149	-190	-471	134	119	2
-32768	-12632	19384	-790	6906	4639	-2480	-18048	3800	-809	2209	1869	-4704	-24752	24464	1012	82	494	-32768	-7656	-10616	2787	-3095	5300	-20936	-11944	-32768	-1193	-5466	2403	-2928	5384	-696	1437	-1971	-684	129	108	2
-14680	1244	-21876	785	8144	5195	-11192	-13944	2424	-95	3421	2243	-8392	-6136	24000	2237	-443	-376	-32768	-24080	-19144	3180	-1060	5775	-9480	-13080	-32768	-172	-4046	1341	-3448	10312	9528	2359	-3455	-484	116	100	2
-32768	-21124	28476	2260	2826	1313	-23480	-18536	8744	-376	4894	1954	-5240	7600	21024	1978	-1149	172	-32768	-26080	-28272	2147	-21	4090	336	-1056	-32768	586	-1937	745	1688	1656	11216	2285	-1829	365	137	95	2
-24468	-9408	32767	1401	571	1492	-20448	-15080	22048	-331	4872	1456	-8200	8496	6720	1442	-1736	367	-32768	-16112	-32768	-1220	-483	480	4736	1568	-32768	-182	266	803	264	-5320	14544	1334	748	1071	133	88	2
-14008	-5348	32767	-903	-183	2546	-22920	-7440	26512	-1721	3492	1414	-6520	8912	14104	917	-2512	583	-32768	-26112	-24472	-2613	-445	-2118	4088	-16632	-32768	-1091	2086	973	5280	-17832	13752	-2513	3837	2203	145	104	2
-15840	-14764	32767	-2445	-1300	2961	-18904	-12208	20848	-4003	1397	1687	-17032	5744	11400	21	-2377	887	-20376	-29184	-16960	541	1222	-1346	-5848	-32768	-23616	-164	3191	337	8824	-15408	10000	-3233	4584	2441	136	96	2
-11888	-26056	31428	-1862	-2673	2964	-18608	-19696	17344	-4837	320	1681	-15688	-4120	11392	-301	-2610	638	-32768	-30400	-32768	-3303	6298	-4042	2152	32767	-32768	2994	3939	402	-27568	-648	32767	491	-3790	-128	136	191	2
-5944	-26452	27492	-356	-3040	2259	-11824	-16600	9480	-3067	-17	1271	-32768	-24360	-2328	-1211	-2793	233	32767	-32768	32767	-4035	459	-846	-32768	-32768	32767	7927	23022	-3313	-32768	32767	-32768	1399	7545	-2611	132	173	2
-3360	-31900	32767	601	-2739	356	-28736	-28728	7504	-178	-461	974	-32768	-17760	-2368	1201	-2854	-888	16040	-32768	31352	107	1150	-1777	32767	16576	-19920	3350	4634	2573	11672	-32768	-32768	2922	2741	1425	151	170	2
-13296	-32768	22856	2392	-3928	-1777	-23672	-32760	-512	2526	-647	305	-32768	-8888	-11896	3001	-3629	-1653	-9296	3808	13720	322	-180	-821	-15904	-5320	-17632	-417	5733	377	32767	-23272	-32768	6143	975	1372	137	235	2
-8068	-18268	15120	2036	-4897	-3064	-7288	-12128	-11192	4264	-1923	-1075	-32768	1480	-15104	2407	-4134	-1403	-13416	18552	15224	838	767	104	-24448	13920	-20232	1816	3519	143	-32768	32767	-32768	5608	2793	-2028	151	145	2
-17148	-13068	9712	-197	-5955	-3444	-12336	-13272	-14560	4436	-3638	-1400	-32768	3000	-24720	1252	-3963	-1189	-11056	15928	15008	533	1655	-351	-25016	23280	-20120	1493	2319	-264	-32688	20960	-17872	-1984	3243	74	151	253	2
-27252	-18432	9068	-955	-6771	-3597	-16200	-15504	-13792	3558	-5245	-1631	-29984	2368	-28784	36	-4591	-1302	-3088	9368	26240	144	3018	-1448	-32768	7896	-24120	1295	1789	-737	-32768	11600	-9400	-401	4179	-729	161	0	2
-27284	-13104	10784	-1748	-7004	-3842	-16592	-10872	-13720	3025	-6591	-2403	-15384	1128	-24480	-107	-4009	-516	-6456	4864	25096	259	5494	-1672	-32768	6144	-12568	1642	1369	-1302	-32768	15408	1600	444	4440	-321	142	35	2
-30020	-14188	11588	-2793	-7179	-4108	-15872	-12008	-14072	2543	-7120	-3016	-14440	2256	-24928	39	-3843	-404	-5056	13616	26776	565	7791	-2450	-32768	10736	4432	1482	891	-809	-32768	1256	14928	-1117	3996	455	132	34	2
-27936	-8996	11516	-3191	-6861	-4192	-20024	-9096	-14240	2459	-7218	-3754	1136	7272	-25960	-24	-1615	-452	-7112	8552	20600	932	9595	-3922	-32768	2736	17256	1453	-131	-622	-32768	-11288	25072	-133	4183	459	94	53	2
-32768	-5356	13808	-3568	-5849	-4489	-25712	-7152	-17712	2362	-6960	-4277	11096	9904	-19744	-508	-681	22	-26632	14824	31328	1809	10805	-3787	-32768	1944	21376	2468	-562	-441	-24880	3464	32767	872	2988	614	109	85	2
-32768	-3268	19012	-3578	-5067	-4683	-30656	-6368	-27032	2334	-6417	-4697	14936	10280	-15456	-392	-360	-223	-32768	18808	28728	3351	9518	-3819	-9160	19704	22536	2126	-89	-45	-9376	2328	32008	390	496	-409	106	113	2
-32768	5948	11820	-2818	-4923	-5015	-32768	216	-32768	2809	-5028	-4785	5992	5544	-8056	-851	8	-199	-32768	16208	32767	3883	6421	-3682	-12384	16560	10600	207	1893	-1485	-12896	8064	27096	-1085	-452	-399	98	145	2
-32768	28836	-1916	-2191	-3215	-5353	-32768	8632	-32768	2841	-3757	-3773	-1840	-8488	-520	-1349	704	172	-32768	32320	-6488	3616	5886	-5229	-11352	10920	13520	-370	2429	-1043	-6224	-1560	27680	-1767	-503	-4	116	133	2
-32768	32767	-17304	-1846	-738	-4426	-32768	16472	-32768	1619	-2386	-1522	-10040	-9128	13120	-77	-1420	-1529	-17840	32767	31968	-478	823	-1218	-25664	12336	13864	-176	3034	-679	-9376	-12392	23032	-951	-1502	-238	110	123	2
-32768	32120	-32768	228	-760	-1474	-17448	14168	-32768	-121	-28	-382	-14832	4424	22112	492	-2452	-1549	-15832	20280	29336	-1384	-436	-216	-22480	8216	22080	103	3015	-541	-11656	-5904	12064	46	-1727	-420	102	120	2
-32768	32767	-24664	-741	-87	784	-26416	23728	-32768	-1388	2068	716	-12656	5224	22576	415	-2181	-1456	-3920	14152	31848	487	-869	-256	-19864	3112	22648	990	2702	-475	-7608	-12512	11056	575	-2349	-688	93	123	2
-32768	15652	-10008	-604	642	1934	-27472	22480	-32768	-1636	2191	1029	10848	17744	-32768	-4157	6967	1467	-5920	20776	32767	2078	-1835	-418	-17288	4696	15784	1970	2302	-293	-9632	-11352	14400	1520	-1975	-708	129	112	2
-28068	32767	-32768	1719	1360	4944	-7984	12680	30416	-2522	3064	1975	-10840	-5432	17576	-938	172	866	-9888	26320	31696	2168	-3368	-92	-23136	9552	9904	2503	1670	33	-20760	8080	15296	2546	-1997	-933	108	110	2
-32768	-32768	32767	5755	6876	6142	-32768	-32768	-32768	482	4175	2145	-32768	-32768	32767	5633	4144	-1965	-18544	32767	32767	803	-4232	285	-32768	16928	600	2343	653	340	-32768	32472	-6048	2598	-1019	-867	110	124	2
32767	32767	32767	-63	2496	3697	-18344	32767	32767	-1025	8241	5361	-32768	32767	-32768	4888	2446	-1367	-21288	32767	23896	-1897	-4946	1105	-32768	18832	-8888	-1421	-683	400	-32768	22408	-8896	-2387	-3476	1108	179	78	2
-9056	22880	9248	-664	2075	-1065	28864	-5352	-32768	-2405	3554	1315	32767	32767	-32768	-6557	998	446	-13416	19136	18520	-2101	-5553	2168	-20184	5240	-13088	-1907	-2219	280	-32768	16312	-21104	-4555	-3767	758	169	70	2
-6832	-10624	14028	-54	911	456	-30720	-9448	-12176	-1482	2368	-777	-32768	-9280	-32768	-8478	1329	6662	-12344	14064	10472	-476	-5218	2889	-20808	5048	-13576	-1880	-2542	289	-32768	-3272	-21560	-2849	-4121	-576	133	57	2
-5000	-7648	17600	-321	1124	304	-32768	-21136	-5552	-2950	1958	463	-32768	-32768	-32768	1686	2672	1783	-13264	13528	10088	-193	-5180	2922	-14464	4304	-19600	-721	-5070	985	-29176	5968	-24688	223	-4108	-734	132	133	2
-10136	-18732	18464	77	2562	695	-18640	-32008	-10472	-1099	1625	585	-32768	-2704	-15144	1136	4487	1640	-19752	15776	10992	901	-5504	3678	-13464	6720	-18088	-669	-5956	1544	-21240	6568	-26392	1011	-3553	-485	121	178	2
-7920	-17180	26932	481	4624	1299	-32768	-32768	1432	318	749	1364	-32768	-26232	-1688	-461	4421	2191	-24632	16928	11408	839	-5556	3701	-16120	3376	-17560	-1020	-6557	1854	-19768	18464	-32768	-428	-3914	9	126	178	2
-14640	-15528	24916	217	6154	3045	-32768	-32768	16376	-990	868	1863	-32768	-3648	19216	1616	4842	1518	-24736	8696	11448	1686	-5380	4007	-16216	2936	-17664	-1040	-6616	1873	2112	8400	-32264	-3461	-4397	-164	127	137	2
-3404	-11872	24620	-100	7350	5254	-32768	-32768	26784	-1430	835	1711	-32768	-7600	31576	-791	5028	1725	-26128	8240	11416	1777	-5350	3990	-12560	-216	-26096	-652	-6955	2379	16568	-10016	-20472	-2492	-1385	586	94	158	2
-18376	-14140	19412	-771	9707	5693	-22376	-20144	32767	-2322	-60	1291	-27120	-15384	32767	-267	3397	803	-32768	4816	5152	1925	-4226	4035	-15744	-1936	-32768	-1257	-6669	2605	14792	-4664	-15600	-235	364	318	120	118	2
-25324	-21284	21928	-2300	10172	5659	12448	-19320	32104	-3356	153	1727	-6840	-13072	32767	-457	1178	578	-32768	-888	2136	2133	-2849	4527	-22208	-12088	-32768	-1507	-5808	2237	6024	-648	-5288	430	75	-98	105	109	2
-32768	-5408	31208	-3771	7657	4981	-6896	-24992	5944	-1757	1326	2503	-4120	-27600	30488	187	-586	256	-32768	-14816	-7752	2523	-1888	5648	-18520	-16192	-32768	-939	-4344	1415	-2776	4384	7104	771	-1806	-382	94	115	2
32767	-32768	6000	-1340	4718	3697	-13152	-28336	10856	-1442	3069	2791	-11528	-9576	21736	2239	-1312	-684	-32768	-21696	-23720	257	-1285	5124	-552	-3352	-32768	-1294	-2152	593	-5176	6352	11752	1822	-1982	-559	89	115	2
-26896	-32768	27664	3953	1903	324	-12600	-32768	20456	522	4416	1638	-12848	7008	7736	1956	-1236	284	-32768	-27880	-32744	-2490	-792	1947	3232	-6952	-32768	-1699	252	197	-4144	3240	7256	-4	-994	346	109	96	2
-22116	-32768	27844	4143	1859	328	-12480	-17768	29848	2109	5501	533	-13344	6064	6112	1881	-1313	295	-32768	-29360	-23064	-1501	-427	-105	4544	-19040	-32768	-1973	2240	-45	10408	-9960	4504	-3541	4153	1761	109	113	2
-8700	-4884	32767	-1193	458	1954	-14344	-13504	30720	1975	5450	580	-10536	13680	12552	1056	-3116	111	-21744	-21544	-20960	1191	612	347	2616	-27304	-24848	-716	2825	-134	16968	-10088	-32768	2217	5768	1428	119	85	2
-16532	-19144	32767	-3424	-2572	1790	-17304	-11160	17576	-2989	375	768	-18728	6272	9840	-600	-3116	773	-32768	-21264	-32768	563	5348	-1097	4224	14160	-18736	914	2705	-399	-3992	-8560	12392	1628	453	594	125	163	2
-13764	-23764	30004	-2633	-4767	1764	-13104	-14096	12872	-4210	-1725	152	-29200	-9096	1088	-1691	-2906	553	-32768	32767	32767	-9818	3436	-5215	-32768	32767	-32768	-6217	8588	4732	-32768	27472	-32768	1729	5990	-3134	116	180	2
-15300	-23036	30616	-1354	-5218	525	-26368	-24664	5120	-2688	-2907	305	-32768	-27240	-5008	-1042	-2885	-131	-21496	32767	-11144	-510	2339	2509	15328	-32576	-32768	5586	8870	3109	-8544	-25008	-32768	3493	3232	2559	148	141	2
-18044	-32672	16788	840	-5429	-1431	-28264	-32768	-6208	648	-2051	73	-32768	-14936	-12048	2428	-3651	-2141	-3960	-8696	15112	37	301	-941	-8024	7936	-32768	1014	3582	317	32767	-30560	-32768	4390	556	957	123	159	2
-22276	-25524	11664	1366	-5243	-3192	-18208	-20968	-12928	3640	-2250	-1524	-32768	224	-15656	2936	-4561	-1709	-12568	13392	14240	824	1031	-105	-24736	5888	-23248	-796	4929	-199	-32768	23840	-32768	3950	3133	-1272	122	125	2
-26612	-19388	5600	-145	-5449	-4229	-12640	-18248	-19736	3661	-3434	-2027	-32768	5040	-20080	460	-4362	-1113	-9224	7560	17824	902	2239	-254	-28136	13976	-23392	1129	2457	165	-32768	31448	-21488	-1006	4495	-114	129	171	2
-30484	-19600	3060	-1470	-5896	-4571	-16944	-19360	-17320	3383	-4484	-2692	-27752	4672	-23680	-689	-4117	-1328	1240	8352	28592	758	4115	-1228	-32768	5632	-23008	1273	2049	-82	-32768	-2176	-7392	-945	4236	-856	129	109	2
-28500	-14856	3372	-2042	-5761	-4571	-17008	-13640	-15320	3176	-5262	-3558	-14240	1288	-22704	-836	-3738	-879	-8168	7072	31512	938	6695	-1594	-32768	5064	-2912	1258	1114	-333	-32768	6456	1584	442	4166	-426	118	138	2
-27392	-10676	5780	-3155	-5327	-4822	-18144	-7384	-15224	2535	-5593	-3974	-8336	7920	-22760	-513	-2632	-850	-1056	10664	23864	1388	8611	-2626	-32768	9120	7432	1032	481	-133	-32768	2352	11280	-46	4132	943	106	146	2
-28156	-4504	5176	-3810	-4607	-5416	-25488	-2680	-17344	1820	-5860	-4042	-2480	5680	-24248	-272	-1262	-910	-12760	13728	26992	1492	10093	-3568	-32768	4016	15248	1548	8	-107	-31728	1768	23696	1638	4257	921	103	160	2
-32768	2320	5192	-4325	-3749	-5923	-23592	3192	-22408	1335	-6122	-4139	11912	11744	-20352	334	-953	-499	-26712	6944	25848	1783	10342	-3177	-26312	13952	28792	2166	-842	-247	-13160	19096	32767	1993	2703	831	106	154	2
-32768	6412	2524	-4765	-2721	-6109	-27192	5816	-30480	754	-5716	-4139	20048	2608	-15056	-328	-422	-236	-32768	23136	17744	2027	9189	-3617	-5096	25648	16048	297	652	-419	-13968	6648	32767	-1700	-139	116	101	158	2
-32768	11420	-1696	-4263	-1648	-6055	-32768	11896	-32768	845	-4572	-4138	4064	2176	-11912	-1591	177	456	-32768	11536	25296	2382	5736	-3039	-20600	6704	9064	-780	3007	-1499	-17032	-5704	32767	-4105	-965	227	103	134	2
-32768	27116	-8644	-2745	-766	-5479	-32768	14824	-32768	992	-3095	-3191	-5408	-5040	-1904	-1254	-188	-380	-32768	23568	32767	3128	3753	-2614	-29984	-4600	4192	511	4125	-1348	-9624	-22976	24144	-1441	53	-89	107	111	2
-32768	32767	-20072	-786	-328	-3751	-32768	25696	-32768	684	-1106	-1355	-13760	-1752	6992	-1187	-1902	-1456	-16072	32767	32767	1275	1833	-899	-27688	4616	23504	1086	3291	-587	-5456	-26912	18480	513	-1179	-634	115	120	2
-32768	32767	-25476	636	-152	-633	-26264	24800	-32768	-332	773	285	-3816	2032	16144	90	-1217	-1216	-13840	12544	32767	713	1425	-956	-25608	-1912	20608	1926	2927	-240	-9232	-8288	11608	2747	-1696	-1388	104	131	2
-32768	28472	-19200	593	-353	1096	-23208	22784	-32768	-893	2492	892	17720	8664	-4680	-792	6240	-282	-21040	9944	32767	2464	7	-1015	-23552	4464	16232	3230	2933	-483	-15088	-456	10736	2466	-1775	-1125	69	130	2
-9396	1188	7416	2013	1608	1156	-17792	872	-10536	-1216	3088	1568	4616	23752	-32768	-1244	5269	764	-20368	22504	32767	2379	-2361	-1607	-26864	11232	11320	3072	2932	-746	-15376	1720	11840	1620	-2284	-930	107	118	2
-32768	-32768	25928	4945	3726	7511	8472	-32768	-32768	323	2518	1826	-32768	5104	32767	1505	-2723	1100	-18872	26832	32767	904	-4197	-1979	-25912	8600	7072	1682	2155	-504	-32768	19200	6368	1910	-1816	-991	206	177	2
32767	32767	32767	9268	2989	6284	-32768	32767	32767	2968	10419	1083	-32768	-32768	-32768	224	2773	-1229	-8736	29248	32767	-554	-4495	-1113	-32768	8640	1928	587	452	-544	-32768	30312	-11568	313	-1525	-494	199	139	2
-13020	28496	32767	-741	907	248	29640	-32768	-27080	-1771	6340	2577	-3296	32767	-29776	457	3810	-2034	-9704	32767	26072	-2206	-4915	213	-32416	13312	-9064	-565	-1277	-98	-32768	31016	-18280	-3032	-3557	630	46	88	2
-11736	4044	10712	280	1178	1038	-4616	27040	-8848	-2174	4123	849	22656	32767	-32768	-4332	2102	2901	-11672	21640	17968	-2304	-5648	2107	-15344	6592	-13880	-2444	-3080	-418	-32768	10448	-18376	-4970	-4138	-742	120	42	2
-12860	-9936	15192	-483	1383	325	-20224	-23960	-26616	-3610	931	970	-32768	-27432	-32768	-6238	3197	5841	-13424	12584	11768	-791	-6029	3446	-21544	2880	-14832	-2262	-4862	-466	-32768	3672	-25704	-2449	-4228	-701	127	50	2
-13032	-2500	19136	-368	1792	810	-32768	-20400	-21072	-1957	841	1256	-32768	-15328	-28520	2385	2884	965	-23432	15152	11456	251	-6177	3779	-14536	5512	-16952	-663	-6202	105	-27904	8800	-27600	-171	-2998	-969	139	138	2
-6896	-22892	23176	37	3304	1750	-32768	-32768	-8416	-1610	139	1344	-32768	-3056	-8672	-222	3777	3295	-28416	16192	13320	141	-6482	3729	-17984	8256	-17832	-525	-6865	585	-29568	15640	-31840	-904	-3727	-386	130	162	2
-11444	-13716	27688	231	5406	2422	-32768	-32768	10936	-1015	-163	2240	-32768	-16752	8928	-695	4337	2141	-28632	14352	14408	230	-6659	3610	-19904	5528	-18928	-1044	-7369	799	-5816	17232	-32768	-3658	-4284	-842	140	141	2
-6940	-14764	28344	-650	6936	3737	-32768	-32768	23960	-1647	526	2224	-32768	-2776	31096	-694	4399	2082	-30584	10432	14328	1008	-6557	3523	-17128	296	-22352	-704	-8010	1152	9264	-8608	-24656	-4118	-2557	-148	147	118	2
-3224	-15932	26328	-731	6958	3878	-28008	-32768	29112	-1281	240	1736	-23800	-8176	32767	-1446	3738	1651	-32768	13096	10256	1414	-6387	3637	-16904	3328	-29216	-328	-7718	2000	15216	-4976	-20096	-1901	-630	-37	110	141	2
-25688	-14200	19324	-1862	9055	5703	7008	-22552	29144	-2706	-108	1460	-14120	-15472	32767	-1559	2319	1408	-32768	12504	2256	1132	-5706	4197	-15536	4728	-32768	-1626	-6932	2093	12856	-4744	-13448	-412	-177	-532	107	144	2
-32768	-28900	23460	-2609	7077	5154	7312	-26056	-1576	-1949	484	2036	-7128	-27440	20248	-727	889	1118	-32768	-968	-7992	888	-4584	4918	-20848	-8408	-32768	-2134	-5829	1906	5672	-2296	-2920	380	-927	-717	94	138	2
-18792	-18688	11212	-1205	4498	4708	-9576	-20416	3488	-1365	1799	2809	-8000	-30816	17472	2202	-665	-276	-32768	-16920	-20360	1463	-3483	5294	-10328	-5968	-32768	-1410	-4014	1269	-680	3976	7752	266	-1306	-626	67	189	2
-31480	-32768	20792	861	1224	3613	-13480	-18632	-4472	-1528	2800	2766	-3120	-11368	17176	2885	-618	-290	-32768	-25048	-32768	1052	-1818	4364	-120	-3776	-32768	-621	-1514	598	-7512	736	12128	813	-2483	-261	44	204	2
-19648	-32768	20560	3412	-601	2129	-8152	-32216	13384	602	4385	1875	-7696	-5672	12328	2097	-588	235	-32768	-24168	-32768	424	-1003	1317	4968	-1632	-32768	653	336	398	-592	-9016	15064	426	-1603	154	64	160	2
-12032	-15236	25056	3203	-263	1675	-18024	-18456	22520	1407	5012	1423	-8896	-4880	12144	2222	-1324	-88	-32768	-23784	-27080	2322	-639	-362	3576	-11328	-32768	896	2578	245	9600	-14872	-5016	-1566	4278	1372	84	145	2
-7116	-16144	27072	1365	341	1251	-18480	-13736	22040	321	4035	1745	-9496	9384	16952	2502	-2264	-469	-32768	-32768	-16384	2482	5249	-2474	3288	-25208	-32768	363	2641	730	17072	2480	-32768	6526	6573	1939	92	139	2
-12240	-17628	27368	125	331	1033	-20544	-15280	16944	-1167	2630	1221	-15544	12440	13208	1325	-2329	11	-29768	-32768	32767	-5430	5989	-9035	8512	-31616	-32768	475	2953	703	-26256	8248	32767	-1505	-6383	1469	109	176	2
-17488	-18148	32008	-537	-144	763	-19608	-17440	8320	-1963	1222	807	-32768	-11640	1632	-634	-2500	92	32767	-32768	32767	-6664	-3927	-2689	-32768	-32768	32767	-1189	16665	-2554	-32768	19840	-32768	1492	3871	-64	110	211	2
-19800	-31836	32767	127	-827	-172	-32768	-32768	7224	-1758	252	1132	-32768	-1160	720	316	-2716	-580	12496	-32768	32767	-982	1201	-469	632	9944	-29552	2176	6005	3773	21080	-32768	-32768	3214	3113	2019	134	249	2
-18116	-23632	30000	1296	-2120	-1407	-31352	-21968	1376	569	49	8	-32768	-928	-6152	1645	-3623	-1858	-7496	-21240	18248	249	436	-939	1392	-9360	-27056	288	4003	149	32767	344	-32768	6161	846	-509	163	162	2
-7008	-14708	24164	448	-3087	-2806	-14408	-11504	-5480	1966	-1508	-1194	-32768	5976	-13400	1987	-3931	-1651	-14000	12968	15472	704	982	-132	-8008	-11552	-25864	334	4538	87	-32768	32767	-32768	2678	5251	-1709	159	142	2
-11760	-11888	18184	-775	-4665	-3665	-12560	-11688	-9672	2713	-3090	-1672	-32768	4096	-24208	867	-4183	-1183	-8880	5488	20584	588	1673	-341	-28328	12192	-24784	1193	2121	-386	-19128	28976	-13688	-2019	3801	-487	156	141	2
-20332	-11316	14612	-1303	-5963	-4043	-14928	-8592	-10784	2989	-4637	-2179	-30352	5416	-27984	208	-4589	-1314	-5696	7088	26096	859	3483	-904	-32768	9936	-21176	1120	1459	-1070	-32768	9560	-16184	-717	4969	-772	123	185	2
-20872	-8772	13316	-1631	-6753	-4268	-14344	-5488	-9080	3152	-5628	-2847	-16648	4896	-27472	-712	-4338	-738	-5584	11544	28536	717	6097	-1477	-32768	6632	-7488	435	597	-1076	-32768	2648	1896	-955	4521	40	113	118	2
-23056	-8944	15220	-2019	-6939	-4545	-18208	-5680	-6216	3172	-6347	-3234	-10104	3456	-26672	-456	-3379	-337	2232	6776	22056	1017	7907	-2425	-32768	3840	10224	375	-128	-306	-32768	-15832	17368	-1094	4178	1181	71	212	2
-23548	-6700	18152	-2570	-6920	-4657	-22816	-7656	-6968	2872	-7036	-3468	-8168	4920	-27296	-208	-2123	-631	-7944	11320	24088	1266	9748	-3691	-32768	6568	18344	850	-321	289	-32768	-12224	28424	555	3731	1350	65	189	2
-32036	-4328	18532	-3261	-6899	-4603	-27544	-5368	-12688	2104	-7716	-3695	8336	8224	-24936	-324	-957	-259	-27296	11256	32368	1968	10318	-3907	-21984	-616	22192	2049	-131	154	-16120	-3256	32767	2488	1287	1506	57	203	2
-32768	-4000	16512	-3725	-6764	-4658	-25504	-2072	-20936	1742	-7811	-4062	21232	11064	-27072	155	-680	-485	-32768	18088	12648	4127	8552	-3329	-4120	18112	4040	2482	1025	-73	-4048	1560	32767	2744	1089	449	67	196	2
-32768	-5004	7388	-3417	-6105	-4979	-31392	-2496	-31808	1931	-6544	-4624	17184	8536	-19704	474	-910	-245	-29472	14120	4184	4103	5027	-3605	-16672	15128	-3464	1157	2766	-1004	-19392	15568	32767	-974	-465	-139	82	168	2
-32768	14124	236	-2884	-4134	-5485	-32768	11296	-32768	2338	-5116	-4727	12984	3416	-2896	126	-622	308	-32768	32767	16512	1761	2995	-3504	-23520	8248	-7920	1038	4872	-1524	-7472	8272	29240	-1392	109	-140	95	154	2
-32768	32767	-9852	-3758	-1422	-6126	-32768	22424	-32768	2052	-3755	-3324	-2512	-6664	6728	132	-2219	-1168	-24656	30032	19456	-1229	1507	-2283	-27248	13016	11824	86	4539	-1159	-1264	-1376	19168	-1376	175	-153	103	134	2
-32768	32767	-29200	-1122	390	-4279	-25888	19952	-32768	777	-1453	-639	-4000	-2920	27368	-1749	-2367	-1198	-20000	10056	23072	-1397	2025	-2381	-26264	3016	20128	-77	4608	-1236	-3888	-2264	11848	-1161	-1078	-170	114	132	2
-32768	32767	-32528	1304	-378	-307	-24568	25064	-32768	-406	1069	238	-424	4416	17056	-1860	399	-624	-11984	14088	29112	278	2764	-2790	-26128	6232	22920	1136	4701	-1399	-3584	-4136	12376	-964	-1209	-291	140	121	2
-32768	32767	-25196	-549	-47	1476	-28328	27400	-32768	-1623	3582	1572	11344	15968	4256	-1574	6037	685	-14944	26872	32767	1358	2692	-3229	-27384	3808	22592	1092	4328	-1266	-9464	-17448	13832	1293	-1425	-499	58	189	2
-32768	1784	-32768	3619	3396	4044	6728	-32768	11880	-3611	3673	2927	-14512	-1456	32767	-2636	1694	2443	-15152	32767	32767	1189	1252	-2444	-32248	5632	14984	1564	3693	-495	-22880	4472	15104	2978	-1137	-857	72	202	2
-32768	-32768	-32768	10612	5736	7486	-32768	-21424	-32768	-1290	8073	-2209	-32768	-2312	-448	4984	4904	-2720	-19616	32767	32767	453	-243	-576	-32768	10680	7616	1602	1912	-98	-32768	14728	-1528	2353	-404	-1565	126	147	2
32767	32767	32767	-440	2593	4427	-32768	32767	-32768	3458	4511	6101	-14448	32767	-32768	1692	1902	-2030	-12456	32767	32767	-1578	-2150	1348	-32768	11544	1392	-553	1	82	-32768	32328	-11160	-1495	-3619	855	40	159	2
-30128	-31304	-2528	782	2095	-87	32767	29416	-32768	-2263	4163	1640	32767	32767	-32768	-6769	1785	2152	-14232	22360	32767	-1919	-4011	2725	-13416	6224	-6264	-1628	-1565	270	-32768	28424	-11624	-2349	-4024	1036	26	92	2
-10016	-16304	15388	189	987	-116	-32768	-27712	5184	-1439	2050	629	-32768	-32768	-32768	-7537	3579	8566	-18016	9008	25120	-430	-6024	3799	-21384	-72	-16544	-2086	-3944	38	-32768	6616	-24712	-2244	-3767	-413	119	6	2
-10888	-5552	14072	-35	1309	593	-32768	-4272	-4944	-3948	1619	1143	-32768	536	-32768	3821	2903	-663	-24216	10344	17928	500	-7629	4243	-15120	-1792	-15600	-322	-5957	440	-32768	11624	-30792	-1069	-4274	-860	121	110	2
-15656	-16860	15396	-264	2435	818	-19896	-27192	-9072	-1301	1046	1120	-32768	3576	-15040	-945	4490	2547	-31456	11440	15864	535	-8362	3787	-16400	6200	-15616	634	-7127	973	-29912	12136	-32768	-380	-4071	-1128	152	65	2
-11368	-12064	27184	247	4338	1822	-22936	-29920	-5696	-1187	972	1152	-32768	-22152	-7880	-1578	4628	2097	-32016	15768	14320	350	-8692	3677	-20848	4776	-15184	-204	-7707	1207	-20032	10608	-32768	-1406	-4216	-661	137	133	2
-11108	-13492	30044	458	5701	2460	-32768	-32768	13544	-1169	721	2166	-32768	-7912	7328	636	4407	2041	-31896	19560	15608	91	-8352	4142	-22360	3128	-17592	-1112	-8331	1567	888	11144	-32248	-3189	-3397	-651	149	81	2
-5380	-17320	23248	-366	6519	3997	-31120	-32768	23736	-539	404	1741	-32768	2320	18488	-396	5126	2014	-32768	14856	13584	554	-7581	4790	-21288	-880	-23936	-1433	-8631	2075	15712	-5448	-24232	-3018	-2334	-194	142	51	2
-19264	-21052	21756	-303	9017	5458	-32768	-32768	28632	-797	164	1363	-32768	-16568	32767	-995	4504	1776	-32768	13632	11288	1359	-6535	5394	-18784	3848	-32152	-1749	-8328	2206	22256	1200	-26064	-2937	-828	279	108	59	2
-32768	-30488	20384	-786	8128	5429	12016	-17920	7984	-2698	273	1553	-8712	-15728	32767	-325	3533	1046	-32768	11536	8848	1634	-5698	5868	-27288	-2240	-32768	-2916	-7536	2058	18352	-4480	-19632	-712	-106	-434	115	57	2
-32768	3404	14032	-1635	5921	5069	4528	-22608	-5160	-1520	1358	2061	-6280	-27064	32767	1652	318	344	-32768	-5576	344	2043	-4372	6326	-32768	-19912	-32768	-1568	-6597	1819	-272	3984	6984	-30	-1436	-1069	87	107	2
-32768	-9836	-11228	1212	5752	5080	-15520	-18312	-7896	-1191	3633	2594	-11304	-20904	32767	2965	-1229	-918	-32768	-25616	-18608	2478	-2544	5960	-9624	-2912	-32768	353	-4438	957	-8872	-1624	16184	672	-2729	-958	80	111	2
-32768	-32768	17688	3955	2170	1676	-19824	-32768	12032	-337	5772	2089	-9160	5208	14480	1860	209	-467	-32768	-16016	-32768	699	-1559	3197	1992	6192	-32768	-157	-1598	450	-6776	-12624	18056	1111	-2425	-57	90	86	2
-15912	-9416	29364	3872	2883	1617	-23152	-25704	27376	1265	7138	1152	-8912	6904	10112	552	-838	443	-32768	-23432	-32768	-181	-1760	313	9440	-16080	-32768	-827	495	500	152	-13256	16168	504	42	689	101	88	2
-8388	-5912	32767	776	4397	1995	-25328	-7424	30664	56	6130	1431	-7416	6928	17640	1392	-2504	-284	-32768	-25024	-32768	1789	166	848	-328	-28952	-32768	291	2590	193	10168	-18280	2536	-1405	4699	1105	114	78	2
-22176	-15016	32767	-1889	3777	2072	-27400	-11632	18792	-2867	3280	1239	-16320	11648	12144	183	-2554	7	32767	-32768	-22496	809	5348	-840	4840	-27248	-29280	927	3252	-44	22152	7896	-32768	8162	5870	1024	120	110	2
-28208	-27284	32767	-1891	1213	1901	-23088	-22704	9896	-5169	1004	591	-19280	672	9256	-638	-2498	292	-32768	32767	32767	-7692	5622	-12682	3376	32767	-32768	-1926	5547	-800	-32768	1048	32767	-4232	-7943	861	127	219	2
-25016	-24908	32767	-543	-1144	947	-16152	-21288	2472	-3554	-53	322	-32768	-20928	-3920	-1819	-2341	49	32767	-32768	32767	-5818	2652	-5764	-32768	-32768	-13728	-15903	6527	-7415	-32768	21128	-32768	4371	3200	1204	146	144	2
-13380	-29292	32767	826	-1903	-533	-32768	-32768	6784	-535	817	454	-32768	-10784	-3888	702	-3109	-1600	-12984	-32768	26264	-402	395	-1571	32767	29368	-20280	2434	4983	2637	32767	-32768	-32768	2452	2412	2179	157	251	2
-13536	-28664	31856	1069	-2015	-683	-22496	-17864	168	2449	777	-597	-32768	-9632	-4880	980	-3370	-1835	-29744	32767	-7000	-40	719	443	-23144	-6088	-16000	-795	4518	-477	-384	15168	-32768	4286	1483	-1380	145	221	2
-5172	-12956	20732	698	-4152	-3008	-12872	-9752	-7096	3559	-1344	-1536	-32768	6416	-22824	2006	-4047	-1734	-7160	15144	14936	370	1241	-261	-20736	6808	-18976	436	3333	-420	-32768	32767	-32768	1272	7116	-697	123	253	2
-12340	-7964	15660	-606	-5885	-3610	-11272	-6488	-11352	3455	-3648	-1659	-32768	4776	-30072	746	-4668	-1434	-12440	12192	18112	504	2403	-442	-27280	11432	-22264	1395	2385	-798	-25776	9384	-18144	-2200	4324	-164	117	253	2
-18884	-5660	12984	-2033	-7453	-3923	-17648	-7984	-5960	3269	-5562	-1972	-27416	4960	-30544	247	-5094	-1271	-2848	8800	28632	676	4299	-1216	-32768	6320	-16304	1435	1466	-873	-32768	2568	-8600	-898	4778	-639	95	162	2
-22408	-10624	12048	-2492	-7772	-4698	-13056	-6552	2464	2988	-4349	-1849	-15000	2912	-30440	-182	-4614	-622	-5880	9064	31400	993	7023	-2035	-32768	-2656	2104	-173	552	-1260	-32768	-5944	5112	-1266	4396	129	157	32	2
-25388	-8244	15076	-2524	-8042	-4969	-21984	-4488	-6464	2393	-8555	-3710	-10152	7168	-30112	264	-3877	-284	-8448	8048	32632	1439	8762	-3266	-32768	96	14632	282	261	-245	-32768	-18512	17712	-427	4381	1575	142	67	2
-27460	-712	14864	-3530	-7976	-4952	-19696	-1656	-10008	1277	-8952	-3194	232	5672	-29488	402	-2500	-401	-21616	8288	22024	1401	10158	-4157	-32768	-232	19176	545	-353	491	-32768	-8984	30760	1814	3557	1574	131	70	2
-32396	2196	12208	-4432	-7745	-4890	-18424	-56	-17920	1301	-7996	-3949	19928	18624	-27888	-273	-913	-255	-32768	17168	32767	2331	9909	-3773	-17928	14008	25024	3051	-338	-69	-10056	3336	32767	2745	1870	397	133	111	2
-32768	-564	13728	-3657	-7102	-4912	-22400	832	-26400	1997	-6950	-4923	26488	9184	-28600	-1068	-516	-460	-32768	10664	30888	3550	7591	-4136	-9616	22384	7720	998	1793	-525	-11848	10976	27368	535	-109	-170	94	181	2
-32768	10492	7752	-2415	-6176	-5248	-32768	7160	-32768	2950	-5682	-5114	18320	4776	-15992	-1338	-496	162	32767	19928	-1136	3690	5565	-3575	-14208	12968	7024	97	3356	-1517	-12608	5496	32767	-2262	-732	-103	94	155	2
-32768	31116	264	-2572	-4211	-5526	-32768	11568	-32768	2911	-4679	-4325	3776	-4208	-6112	-1510	-552	29	-30832	32767	30856	1385	2660	-3293	-28584	8504	744	590	4710	-1313	-5664	-10368	30784	-3010	-517	-715	147	29	2
-32768	32767	-16908	-2052	-1711	-5003	-32768	21520	-32768	2319	-2581	-2091	-11272	-11488	12600	-1370	-1933	-1519	-24848	24720	27192	-611	1538	-1838	-29976	7032	19240	705	4326	-989	-5016	-9496	14168	-1006	-655	-429	165	19	2
-32768	32767	-32612	259	-125	-2143	-26872	21200	-32768	105	-462	56	-16856	1280	22048	502	-2104	-1419	-12904	17808	31224	-109	1667	-1902	-28144	5912	25720	1067	4262	-1080	-6928	-7576	10312	1565	-1006	-803	157	48	2
-32768	32767	-32768	-666	830	270	-24960	31248	-32768	-1029	2277	881	19024	8720	16824	-2141	5851	654	-8920	20800	32767	1153	1965	-2764	-25400	2544	22160	1429	4000	-957	-11744	-16992	14344	1584	-2169	-628	171	76	2
-32768	32767	-32768	-1778	6125	4542	-31344	22088	-32768	-942	3080	999	3264	27384	-29072	-2970	5759	2340	-17616	28136	32767	2104	586	-2285	-29512	2880	12360	2304	3661	-702	-16952	-5232	13672	2640	-1853	-944	88	71	2
-32768	-32768	32767	14881	-4714	8904	2696	-32768	-32768	-2026	3232	1142	-32768	-32768	32767	-3533	648	255	-24080	32767	32767	1598	-1286	-1451	-32768	7728	624	2511	2235	-213	-32768	17552	-6128	3978	-389	-1574	233	189	2
32767	32767	32767	3476	3716	3505	-32768	32767	32767	11929	12141	8771	-32768	6440	-23440	4534	-596	-217	-13776	32767	32767	-541	-2606	174	-32768	15568	640	649	545	93	-32768	32767	-12528	-82	-2580	23	180	34	2
16584	29932	32767	-190	2486	677	19904	-11768	2384	-6154	9528	2182	32767	32767	-32768	-3061	4274	-1710	-8648	26776	30376	-2464	-4163	1312	-12456	12576	-1656	-1169	-1775	131	-32768	25160	-21360	-3834	-4358	959	145	16	2
-5724	1356	16848	-62	893	262	-32768	-19168	-3072	-3286	3498	309	-21608	12408	-32768	-5470	563	5343	-7360	15400	17504	-1937	-5308	2329	-15056	6960	-10608	-2806	-3182	-218	-32768	992	-18416	-3645	-2695	676	114	44	2
-18260	-19896	6956	-242	1626	879	-15208	-17120	-10712	-3994	815	790	-32768	-32768	-32768	-2829	5577	2866	-14232	10120	11704	-454	-6248	2978	-12968	-2232	-12552	-1836	-5256	-90	-31152	6280	-30176	-1919	-4345	-732	83	125	2
-15396	-12396	20532	-715	2776	785	-22328	-32768	-13216	-1222	355	1619	-32768	4328	-9240	1906	3740	1765	-21880	14744	12984	563	-6946	3519	-11744	4424	-13656	184	-6405	429	-24224	10928	-30024	-116	-3582	-1007	93	194	2
-9588	-7872	30544	308	4583	2280	-32768	-25656	-1664	-441	747	1722	-32768	-4256	3088	-170	4097	2833	-27576	21200	13408	399	-7497	4210	-14968	8352	-14264	-331	-7124	793	-22976	15360	-32768	-1473	-3411	-267	132	94	2
-3868	-19980	27308	21	6274	2929	-32768	-32768	18680	-699	893	1670	-32768	6128	13552	-192	4073	1499	-28776	19360	14152	-310	-7677	4811	-17568	5360	-13968	-1500	-7698	1027	-1496	7544	-32768	-3937	-4075	-351	79	229	2
-2716	-17316	22384	-677	7477	3571	-30136	-26264	21248	-897	573	1438	-32768	-2640	20456	-1577	4735	1593	-32768	16688	14008	240	-7232	5292	-19016	512	-17824	-1574	-8270	1513	13104	-8168	-22752	-3991	-3116	-280	66	194	2
-15760	-19116	23540	-178	8301	4691	-20952	-30256	28464	-1856	467	1231	-23168	-19832	27736	-1551	4346	1562	-32768	17208	10864	845	-6799	5713	-18384	6536	-26440	-1570	-8031	1953	15448	-4576	-21368	-2519	-1107	69	119	40	2
-31148	-18496	20260	-708	7795	4682	8152	-16640	4824	-2214	79	1282	-3800	-17448	32767	-447	2898	1147	-32768	16832	5552	677	-6346	6154	-19120	2864	-32768	-2937	-7526	1983	18512	-1968	-25464	-1637	-580	-239	132	22	2
-32768	3308	21044	-468	6104	4393	1168	-17024	976	-1196	1555	1818	-3888	-31440	27000	1270	166	379	-32768	1416	-8752	695	-5546	6599	-21840	-8992	-32768	-2824	-6538	1953	8000	-2976	-7112	648	-1018	-1207	149	8	2
-32768	11652	-7568	-189	5197	4917	-15472	-14320	-5584	-1134	3477	2633	-12992	-27064	32456	3187	-977	-799	-32768	-17592	-21280	1933	-3633	6725	-16712	-9432	-32768	-929	-4945	1240	3952	-232	-3280	705	-1466	-1170	150	7	2
-32768	-27064	20264	2401	1230	2157	-18608	-31040	8672	-867	5074	2627	-6936	-1416	24496	3180	-466	-26	-32768	-30744	-32768	3254	-1931	5829	1584	-3048	-32768	434	-2143	509	-3792	-8264	19400	1081	-2729	179	157	19	2
-26964	-12460	26244	3785	1408	2254	-27560	-27352	18752	705	6341	1932	-5680	10920	14288	2518	-471	149	-32768	-23216	-32768	2050	-756	1748	7576	-4672	-32768	1136	205	728	3512	-16272	19704	376	-423	515	135	68	2
-23920	-8492	32632	2074	2502	2296	-32768	-18056	22784	-146	6091	2479	-11648	10272	17400	1867	-2111	-202	-32768	-27344	-31784	1979	601	-209	2640	-23952	-32768	792	2652	352	20424	-12296	-11856	-3052	6879	2028	139	103	2
-24700	-14608	32767	-198	2700	2509	-28232	-13504	20720	-2463	4351	1593	-16224	19984	13952	1029	-2399	127	-32768	-32768	-32768	2676	5911	-1959	2328	-6664	-32768	1658	3761	-466	-2360	3440	-22512	7343	2167	977	131	127	2
-25964	-25616	32767	-941	1781	2649	-25512	-13744	18976	-2865	3979	1637	-32768	3784	4520	-1406	-2452	498	-11592	32767	7408	-14679	3803	-3724	-32768	32767	-32768	-4572	10581	2481	-32768	22528	-32768	-857	5990	-2746	143	139	2
-20964	-29516	32767	-694	631	1328	-32768	-32768	7376	-3876	983	1084	-32768	-8400	-2824	-1730	-2459	-19	-28112	32767	-32768	-1947	584	874	32767	-32768	-32768	757	7290	-924	-5928	-16832	-32768	2569	3617	1933	171	232	2
-6360	-32768	32767	1193	-937	-706	-29224	-23448	5744	-1471	247	451	-32768	-7520	-6504	680	-3438	-1463	7680	-24528	31112	-834	264	-1256	-2936	26640	-16480	1854	3851	14	32767	-26872	-32768	1563	109	2395	134	237	2
2568	-19352	26116	794	-2450	-2373	-1728	-16232	-3304	1999	-462	-1578	-32768	-24	-17632	1238	-4211	-1745	-11864	5536	18120	342	1145	-332	-32768	-1872	-29456	-105	4685	-698	-32768	32767	-29296	1760	4537	-1891	112	235	2
-768	-11464	18812	-645	-4410	-3688	-7720	-2872	-8040	3528	-2190	-2369	-32768	10920	-27432	525	-4325	-1121	-6096	12352	18016	533	2150	-420	-29912	864	-32768	367	4759	-934	-28296	28808	-17296	-1533	3888	12	130	196	2
-10484	-6940	16944	-1574	-6311	-4210	-8344	-256	-5256	2987	-4568	-2465	-32768	7512	-32768	-326	-5043	-1108	-224	7096	27808	707	3991	-1044	-32768	7008	-20528	639	1633	-970	-32768	-440	-10752	-1556	4811	-26	70	253	2
-12552	772	15312	-2926	-7241	-4032	-9400	-136	-3768	2798	-6299	-2890	-14840	2880	-30824	-1209	-4884	-716	-1840	11920	31848	890	6563	-1458	-32768	3968	-5760	555	911	-869	-32768	-2360	1408	-629	4548	-257	107	117	2
-19756	-2344	19644	-3832	-7703	-4342	-15312	1176	-4144	2422	-7449	-3129	-9192	4688	-30896	-850	-3766	3	-2968	5864	26824	1269	8505	-2873	-32768	-200	10008	253	3	-166	-32768	-15640	17496	-876	3698	901	86	183	2
-21708	2152	23036	-4007	-8062	-4601	-23744	488	-1528	1696	-8271	-3265	-4200	4768	-28784	-385	-3279	-192	-13720	10024	23304	1295	9905	-4006	-32768	-440	19312	1307	-34	13	-32608	-9344	26000	965	4020	1460	37	253	2
-27284	3148	22460	-4523	-8196	-4441	-22904	-1712	-5672	889	-8729	-3798	8344	4480	-24184	-498	-1868	-157	-30320	4264	26480	1986	9841	-3673	-24808	11568	23960	1964	-122	59	-19328	7536	32767	3190	2438	1182	102	102	2
-32768	-1864	17932	-4101	-8067	-4199	-18720	-728	-15896	743	-8544	-4352	19248	5344	-27640	-1395	-392	-81	-32768	27904	17656	2682	8785	-3614	-6528	20280	5656	932	629	-496	-1568	11504	19752	1913	1695	-252	135	116	2
-32768	-3912	10356	-2885	-7548	-4704	-21384	-1592	-25264	2211	-7027	-4924	19736	4328	-30840	-609	-50	-406	-27360	12696	10560	2725	5512	-3187	-16360	5256	1328	-404	3038	-1274	-20136	14120	26888	-2067	-587	-340	121	129	2
-32768	6248	3992	-2040	-5478	-5650	-32768	3280	-32768	3759	-5292	-5219	20432	3488	-16840	-388	-639	-202	-28168	32767	27160	1565	3334	-2771	-24920	3680	-3064	-80	4226	-1628	-7304	2008	25632	-2941	-120	201	113	109	2
-32768	20944	-1756	-2617	-2970	-6552	-32768	4360	-32768	4076	-3668	-4509	608	-8288	-3664	-1078	-2127	-722	-18832	31264	23504	-982	1517	-1030	-22608	10528	14752	-352	3621	-1097	-5984	-3112	19736	-2623	-985	205	110	126	2
-32768	26188	-20408	-862	-1005	-6095	-32768	18224	-32768	3288	-1663	-2209	-10376	-7968	21288	251	-2032	-1309	-17720	11280	26784	-1734	1205	-1257	-22488	2648	22184	-251	3736	-1044	-2936	-8024	22888	-1449	-1265	-47	94	155	2
-32768	32767	-32768	813	61	-2981	-28120	18144	-32768	618	-44	-559	-5464	-7376	24288	904	-287	-1546	-15744	10208	27832	-1514	1235	-1353	-26888	3712	25608	737	3740	-1155	-10664	-20984	6584	-214	-1692	-376	119	145	2
-32768	32767	-32768	-1486	683	334	-22832	25720	-32768	-1616	2199	799	9568	16520	13824	-1151	6452	704	-9264	20792	32767	1713	1082	-2568	-24864	224	18696	1406	3411	-972	-7640	-22744	17864	1780	-1434	-812	139	162	2
-32768	22728	-32768	-366	6129	2975	-26184	13408	-32768	-2003	3357	1006	-2016	28360	-32768	-2725	4319	1500	-18896	26912	32767	2246	-669	-2156	-26344	3736	9216	2880	2978	-429	-18248	-2440	12848	2735	-1313	-1252	129	123	2
-32768	-32768	32767	13290	-1455	9639	-4568	-32768	-32768	-1990	3670	247	-32768	-32768	32767	-4657	-123	373	-25472	32184	32767	1492	-2303	-1436	-32768	6704	-1752	2806	1962	-28	-32768	20792	-6528	2592	-943	-1887	111	233	2
32767	32767	32767	2340	3068	3921	-32768	32767	32767	8407	9699	7804	-32768	11584	-32768	7528	529	-781	-17384	32767	32767	-280	-3470	11	-32768	11296	-4872	1256	316	395	-32768	32767	-15288	-522	-2488	286	152	97	2
8248	27120	32767	-377	2258	209	10464	-15856	6464	-4902	8275	2064	32767	32767	-31640	-2502	3548	-1120	-12288	26944	26368	-1929	-4546	1384	-17400	14168	-9696	-1440	-1735	379	-32768	15504	-22208	-3946	-4125	225	191	61	2
-6376	2604	19124	-480	999	-69	-30480	-11296	3336	-2684	3705	-19	-21008	11464	-32768	-5731	-39	4443	-11512	15880	16944	-1563	-5311	2907	-21280	5032	-15680	-3015	-3468	161	-32768	4544	-23656	-3519	-4157	-791	132	0	2
-11504	-15876	6520	-361	1441	449	-18336	-12136	-4488	-4391	1566	623	-32768	-32768	-32768	-4077	6613	2878	-19208	12848	10376	-345	-6160	3733	-14456	736	-17456	-1924	-5377	329	-32768	10048	-27080	-643	-4395	-512	123	106	2
-14588	-17732	14756	-642	2511	698	-17712	-32768	-7392	-1519	723	993	-32768	-168	-14728	1041	3714	1810	-23176	16944	10272	257	-6540	3991	-12352	10600	-17016	-637	-6393	604	-30232	9592	-32768	728	-3762	-626	130	106	2
-10104	-6640	31452	60	4579	2065	-32768	-28048	-464	-202	225	1457	-32768	-11688	-4128	-927	4182	2669	-29856	22928	8816	12	-6900	3959	-15136	13632	-19648	-1288	-6955	921	-8192	15832	-31968	-1115	-4703	-133	115	139	2
-9688	-11308	32767	92	6519	3039	-32768	-32768	25888	-1067	976	2336	-32768	-9968	12472	-285	4591	1804	-32768	21920	8880	303	-7426	4041	-15064	8408	-20984	-1244	-7383	1483	-1152	6616	-28776	-2796	-3805	-517	120	96	2
-3028	-15908	25988	-707	7893	3752	-32768	-32768	25104	-816	1166	1487	-32768	-5696	29448	-1052	5205	1398	-32768	15632	2008	1742	-7017	4339	-13904	4160	-24072	-459	-7547	2314	10088	-13464	-23976	-3224	-1888	-138	130	91	2
-18704	-27580	24424	-739	9404	4879	-10192	-27616	32767	-1137	437	837	-15096	-22328	32767	-250	3972	1297	-32768	13880	1880	2722	-5821	4881	-12632	800	-29280	-764	-7085	3045	18592	-10032	-24576	-1677	-612	-474	133	55	2
-32768	-20016	21696	-1967	8650	5180	12816	-13608	15768	-1743	720	838	-8976	-10288	32767	306	1941	775	-32768	-4400	3424	3485	-4291	5793	-18472	-18616	-32768	-1070	-6821	3097	15744	-1032	-16424	454	104	-911	127	52	2
-32768	-2956	14976	-1749	6807	4732	-9944	-17416	-152	-2008	1999	1728	-12416	-23464	32767	2155	-127	-117	-32768	-18160	184	4337	-2776	7217	-12920	-17832	-32768	261	-5608	2337	760	8904	-5008	1396	-1684	-356	103	92	2
-32768	-4236	16732	495	4333	3778	-27888	-6704	-8616	-2737	3346	2174	-8856	-9008	32767	1760	-542	-370	-32768	-23648	-7040	2149	-1292	6934	-9000	-10376	-32768	-822	-4201	1158	-208	19056	9264	2620	-3155	236	103	77	2
-32768	-19312	26240	1563	1417	1864	-24472	-31960	16376	-1999	4635	2280	-3768	15464	16240	1441	-447	382	-32768	-25880	-21496	-1339	-604	4029	-6760	-7944	-32768	-1477	-2030	14	-416	8512	9560	1289	-1461	930	128	71	2
-23332	-4000	32767	1822	1899	2724	-30568	-15952	25640	-427	5967	1886	-8472	4840	3456	889	-1720	346	-32768	-25768	-22672	-1947	-1587	882	8016	-15208	-32768	-2117	-72	-277	1184	-10808	13248	-418	2003	1310	138	51	2
-19528	-7656	32767	-224	2563	3126	-30704	-9360	25112	-2170	4635	2388	-11360	12808	16288	945	-2657	213	-32768	-32768	-32768	398	-1282	-4	4592	-32768	-28608	-1156	1631	9	4640	-13016	17432	-1172	2980	1488	127	75	2
-22904	-20796	32767	-1490	1670	2978	-24904	-16816	17776	-3943	2679	1627	-17072	11960	12120	-27	-2349	509	-32768	-32768	-32768	3702	6028	-2878	-952	-2504	-32768	1802	2641	-599	-3208	-15232	-11984	2531	963	-259	128	116	2
-18968	-31152	32767	-1076	150	2399	-17536	-19064	12056	-4194	1469	1063	-32600	-9600	3216	-2073	-2772	728	32767	32767	32767	-18481	307	-2852	-32768	32767	-32768	-7919	8931	2446	-32768	-8736	-32768	-572	5789	-3633	135	59	2
-14400	-29684	32767	-396	-740	793	-27992	-32352	7592	-2605	-19	892	-32768	-24560	-3296	-1055	-2770	190	3544	32767	-22048	-1148	1504	3193	28064	-32768	-32768	3972	6291	538	-10480	-17992	-32768	3235	3808	3698	158	154	2
-5240	-32768	30468	1224	-2231	-878	-26288	-31248	5128	157	-99	434	-32768	-9008	-11128	1744	-3541	-1612	-14192	-19416	20512	-89	749	-1327	-6952	-9104	-32768	820	4405	114	32767	-25000	-32768	6228	476	1752	115	213	2
-2804	-23800	24116	1042	-3814	-2425	-2760	-12280	-7520	3464	-1068	-1695	-32768	3160	-19520	2043	-4695	-1432	-15216	13800	13896	710	1351	-211	-27048	18232	-29000	-866	4904	-963	-32768	32767	-32768	2983	3027	-2012	125	178	2
-4352	-12980	13436	-156	-5361	-3988	-6560	-3152	-8400	4268	-2938	-1976	-32768	7280	-27576	312	-4273	-880	-13456	-3760	22080	677	2398	-1039	-32768	-856	-27264	1047	2239	-728	-32768	32767	-19192	-3791	4223	-311	92	242	2
-11728	-7704	10788	-1040	-6539	-4500	-10344	-5072	-6520	3045	-5157	-1764	-27872	808	-31752	-542	-4502	-883	-2632	7040	28112	547	4736	-1533	-32768	2680	-16520	1127	1733	-735	-32768	-12032	-4824	-2525	4954	-396	74	220	2
-21672	-7040	12784	-2243	-7518	-4206	-11120	-6424	-7112	2621	-6751	-2292	-11240	-3448	-30232	-1202	-4398	-511	5600	9840	32767	800	6984	-1924	-32768	7376	6352	577	1087	-1033	-32768	1696	4984	-984	4134	-572	146	115	2
-22864	-7276	15608	-3026	-8054	-4152	-14608	-5544	-6816	2289	-7796	-2825	-7232	7536	-28056	-271	-3520	-284	-8800	11224	23744	1515	8760	-2930	-32768	1280	18608	745	460	-664	-32768	-8648	15688	-1085	4094	1651	138	112	2
-28728	-5816	16332	-3694	-8412	-4037	-20128	-7280	-8000	1748	-8300	-3375	-1864	10080	-29528	-316	-2493	-613	-19232	9728	27808	1323	10115	-3989	-32768	7976	14128	682	94	-222	-24608	-7272	27080	770	3841	1601	140	99	2
-32560	-5316	13356	-4338	-8361	-3964	-20520	-5624	-13296	1169	-8316	-4174	16304	13640	-25488	-669	-1215	-165	-30512	22592	32767	1556	9409	-3875	-19640	12128	21816	572	146	-191	4520	384	27976	1562	2821	418	128	149	2
-32768	-6352	10208	-4065	-7461	-4344	-21032	-2880	-23040	1239	-7670	-4890	21136	10240	-28744	-898	-368	-465	-32768	14536	32767	2939	7639	-3777	-2624	17960	14656	225	1432	-1062	-10704	6568	24888	470	383	-454	123	124	2
-32768	44	3784	-3499	-5842	-5400	-32768	1760	-32768	2610	-6080	-5538	17784	13344	-22904	-349	-365	-102	19280	32767	11280	1520	5264	-3193	-15040	17008	9136	-682	2961	-1185	-22824	4264	32767	-2872	-326	-28	127	108	2
-32768	19404	516	-4376	-2954	-6868	-32768	8760	-32768	2662	-4959	-5159	10960	6296	-10648	-1430	-843	219	-18864	32767	32056	-1088	2953	-1620	-27048	10864	7160	-1145	3935	-788	-10080	-6648	30768	-3710	-1695	10	137	85	2
-32768	32767	-9512	-4978	372	-7557	-32768	18712	-32768	2249	-3577	-3432	-9472	-14800	8648	-2148	-2410	-790	-21312	13048	31104	-1353	1615	-559	-29200	3568	25352	-482	3953	-772	-8624	-13080	18568	-2052	-1382	-165	133	73	2
-32768	30892	-22680	-2466	1654	-5670	-30592	22224	-32768	-238	-2148	-719	-13952	-12024	23712	-1200	-1809	-1384	-9424	8448	32767	932	1630	-1812	-27000	-1264	29472	1423	3737	-718	-6888	-22568	16152	332	-2294	-983	118	110	2
-32768	29292	-26052	-1693	1328	-4961	-23888	16824	-32768	-1148	762	151	8088	-2712	23352	-2403	3385	-374	-13576	20008	32767	2629	1198	-2955	-26784	-192	20400	2646	3322	-593	-13712	-21360	13232	2311	-1663	-1015	100	124	2
-32768	12808	-32768	589	3314	2676	-14120	7048	-14496	-1848	2911	1385	2120	27024	-32768	-3547	6024	2134	-19968	29816	32767	2804	-862	-2284	-27952	4392	10632	3198	2865	-455	-20128	-6304	11392	3239	-1882	-1137	94	91	2
-32768	-32768	32767	5478	-263	9803	32767	-32768	-32768	-2703	2358	3022	-32768	-18504	32767	1404	-4248	-150	-22136	32767	32767	1485	-2753	-1290	-31112	6320	760	2888	1928	-16	-32768	24856	-3504	3621	-1882	-1449	246	214	2
32767	32767	32767	8227	2462	7923	-32768	32767	32767	4613	11814	1440	-32768	-32768	-28720	3115	-239	-697	-15136	32767	32767	-223	-3781	322	-32768	10872	-5248	1475	-71	220	-32768	32767	-19568	669	-2062	-104	126	104	2
32767	32767	32767	-878	722	1677	32767	-24672	-32768	-1428	7653	2506	-32768	-16664	-13496	5239	-397	-867	-10696	25816	25432	-1945	-4914	1496	-15824	14048	-5104	-713	-2354	552	-32768	22400	-23544	-3383	-3875	381	114	76	2
-10984	-4668	10060	16	1636	591	-9296	-3784	12520	-2809	3828	357	8040	31568	-32768	-3709	1028	4088	-12032	14152	16184	-1305	-5648	2883	-19136	5296	-15080	-3097	-3900	224	-32768	8944	-26112	-3987	-5159	-374	153	70	2
-19448	-13792	11432	-624	2017	609	-21808	-30952	-32768	-4865	276	936	-32768	-32768	-32768	-5788	4317	5805	-18968	12960	11368	-105	-6104	3978	-17640	-2328	-18496	-2493	-5705	167	-31008	5064	-30792	-1540	-4468	-713	116	142	2
-15816	-1688	19944	-703	2227	1036	-30352	-23376	-21952	-2014	437	1436	-32768	-8880	-20224	2827	2885	960	-28248	12640	12624	342	-6482	4365	-12760	1104	-19520	-826	-6865	748	-16640	17112	-17984	16	-5380	-559	131	159	2
-8100	-7968	29572	-139	3646	2257	-32768	-27328	1760	-932	480	1734	-32768	-4456	-632	12	3979	2909	-32768	11400	11088	941	-7020	4572	-15696	4208	-22384	-272	-7460	1101	-10928	17384	-32768	-334	-3489	-282	131	140	2
-8528	-13128	30440	-122	5732	2672	-32768	-32768	19176	-976	1017	2306	-32768	-9616	11088	-725	4359	2153	-32768	11504	10904	1026	-7114	4594	-14264	2688	-26232	-5	-7778	1383	2864	7440	-32016	-3362	-3365	-124	115	153	2
-3856	-15032	24432	-889	7296	3533	-32768	-32768	24072	-894	22	1865	-32768	-15024	23120	-885	3986	1421	-32768	7824	336	1301	-7115	4115	-12968	1000	-30312	153	-7483	2152	14952	-7448	-19256	-2916	-1777	140	116	129	2
-26668	-23068	20160	-1346	9116	4743	-26888	-32768	25544	-1764	18	1686	-19176	-27008	32767	-936	4010	1348	-32768	10544	-3992	1271	-6194	3970	-14176	6208	-32480	-786	-6581	2707	12416	-3616	-13600	-1686	-179	-32	100	160	2
-29656	-27048	19808	-1870	8250	4909	15560	-19704	17736	-1980	-47	1453	-3720	-14744	32767	985	2101	779	-32768	3968	-6568	1228	-4578	4253	-23144	-3672	-32768	-2147	-5950	2625	5664	-9256	-7544	86	-525	-737	73	169	2
-32768	-16568	23344	-2387	6287	4833	5208	-19800	2224	-1104	1482	1967	-6008	-21472	32552	1531	178	420	-32768	-11216	-12400	2223	-3029	4929	-19528	-14136	-32768	-1504	-4577	2262	-2024	2280	-1880	1087	-679	-688	77	179	2
396	1332	-12424	-665	6181	5971	-2944	-18368	6464	-555	3192	2208	-10416	-7864	25600	2359	-90	-426	-32768	-21824	-21120	2711	-1063	5560	-3872	-13776	-32768	-749	-3396	1448	-8224	2792	4192	1906	-1623	-484	78	143	2
-29704	-32768	22480	2574	2656	1061	-16944	-24208	10400	-116	4650	1553	-7920	2656	20264	1640	-630	-197	-32768	-28288	-27504	1951	544	4509	-552	-8928	-32768	629	-1378	721	-2672	376	8312	1166	-1998	82	85	120	2
-20540	-11716	27756	2764	1572	719	-19864	-18072	20048	772	4959	940	-11848	1360	13272	751	-1326	337	-32768	-24592	-28144	816	645	1697	4880	-1800	-32768	503	159	539	2768	-3568	11512	235	-352	1076	104	105	2
-12708	1388	32767	539	1587	1685	-26032	-8800	26560	-274	4401	1202	-9160	2272	12464	1657	-2123	-194	-32768	-28600	-17264	799	269	-358	4048	-17424	-32768	-299	1940	326	11704	-10584	11512	-1454	3408	1708	99	93	2
-17820	-2964	32767	-1892	993	2393	-22432	-4304	20520	-2552	2445	1773	-9536	3672	11920	1672	-2256	-182	-24696	-26096	-9824	1836	1012	-386	-3024	-30688	-16784	246	2715	-100	18216	736	-28184	4425	6560	1286	118	84	2
-19428	-17128	32767	-2166	-572	2551	-19952	-12648	13920	-4392	925	1562	-16960	8176	10224	563	-2694	289	7824	-11944	2408	1574	4219	-403	-4768	-17744	4328	1219	2298	-600	1448	4928	-32768	5935	2889	-292	108	155	2
-16856	-23868	29032	-829	-2138	2071	-17112	-13088	10568	-3879	620	1264	-17496	5376	12048	-1	-2758	-86	-32768	32767	-32768	-17319	-3393	-1377	32767	32767	-32768	-9900	3778	-1270	-30520	14016	32767	-7686	-6016	-353	112	254	2
-12040	-15144	28864	-76	-2653	1082	-15680	-13904	2368	-2062	7	802	-32768	-32616	-5952	-1586	-2483	389	-32768	-32768	21560	-3298	-2933	-11839	-6560	-32768	-32768	10982	12555	-11877	-32768	7920	-792	-1502	1531	1564	113	253	2
-6972	-25396	26480	403	-2292	-240	-32768	-32768	2152	68	-811	594	-32768	-12248	-15672	2059	-2871	-1141	6608	32000	10008	48	1724	1078	32767	32767	-9728	2881	7357	3000	12128	-32768	-15104	-3404	3318	4041	141	173	2
-17752	-26732	21768	1266	-3869	-1863	-17208	-22624	-13952	2482	-1672	-860	-32768	-4776	-19744	3209	-4903	-1158	-568	4184	15728	665	1004	262	-28248	-24392	-32768	-234	4646	-453	22640	-23512	-32768	9346	520	-871	146	106	2
-17828	-11168	12624	8	-5863	-3661	-10080	-5720	-16640	4122	-2954	-1984	-32768	1960	-21344	1707	-4939	-842	-14680	23752	13248	714	1943	-578	-29528	24872	-32768	611	3319	-280	-32768	32767	-32768	6695	5472	-3824	147	150	2
-19408	-9040	4452	-1049	-6409	-4347	-11312	-5368	-12568	3762	-4254	-1819	-27800	7296	-27048	383	-4223	-1120	-13168	8656	20568	381	3071	-788	-32768	8920	-24496	2211	1659	-598	-23400	17896	-6728	-3716	3495	283	142	208	2
-22876	-5952	5456	-1247	-6488	-4109	-12384	-5216	-11656	3133	-5435	-2246	-13024	2584	-22728	-867	-4036	-509	-4840	976	28488	486	5407	-1776	-32768	3672	-22184	1297	2177	-830	-32768	7696	-1216	-1924	4324	-1154	126	71	2
-23944	-7408	9576	-2109	-6720	-4147	-14584	-7256	-9168	2485	-6515	-2605	-9672	376	-23512	-832	-3180	-75	1472	6672	28384	834	7433	-2012	-32768	-7184	10376	233	467	-189	-32768	-8000	12608	-1709	4313	1174	125	58	2
-23720	-7156	11140	-2458	-6685	-4228	-17400	-8768	-10600	2334	-6999	-3127	-11176	160	-25552	-116	-2245	-430	-304	8456	18160	1345	9676	-3114	-32768	1144	15544	737	-74	176	-28928	-13168	32767	-511	3675	1291	107	100	2
-28288	-2524	7220	-3207	-6610	-4074	-19648	-3408	-15856	1853	-7105	-3547	7256	9856	-25384	-29	-802	-375	-27848	20984	31632	1750	10301	-3827	-23640	2624	25848	1974	-572	321	-5072	-13960	32767	773	2043	1039	101	126	2
-32768	-4140	3720	-3269	-5955	-3920	-16152	-5992	-21968	1460	-6926	-3894	17312	8440	-28680	-490	-153	-333	-32768	15432	18656	3180	8732	-3647	-5472	22280	18360	1777	1067	-628	-10856	8408	31768	1281	647	-488	93	128	2
-32768	-6652	-2276	-2658	-5254	-3863	-18088	-4440	-32768	2339	-5652	-4569	12712	9048	-27008	-699	357	-242	-32488	25056	17464	3234	6242	-4111	-20104	15480	7352	-45	2651	-1163	-14344	3504	24040	-604	431	763	103	143	2
-32768	5236	16	-2711	-3739	-5042	-20312	-3128	-32768	2582	-5336	-4715	12704	10624	-12032	-317	117	472	-32768	31328	22704	317	6783	-3527	-13552	5824	4432	-1167	3213	-855	-10160	-1336	20312	-1401	-579	-146	102	134	2
-32768	21416	-5444	-3786	-2149	-6675	-32768	7968	-32768	2331	-3568	-4199	944	-3984	-248	-1419	-1319	-367	-20336	25824	30104	-1312	3011	-640	-24616	5416	9592	-1267	3559	-770	-3488	5032	16008	-1685	-1108	215	97	133	2
-32768	32767	-18644	-3151	-665	-6293	-32768	9288	-32768	2237	-3386	-3881	-10712	-11416	23120	-2034	-1971	-961	-15608	7608	32232	-719	1333	-290	-22160	616	24440	-79	3318	-682	-6080	-8424	10216	-1773	-1289	-412	136	92	2
-32768	32767	-32768	-1151	334	-1996	-24664	11864	-32768	-1275	-646	-185	-12360	-7984	26608	-1241	394	-1666	-1200	5416	32767	1269	1110	-1560	-19152	-3760	26848	1076	2958	-779	-4432	-17704	14224	-175	-1607	-917	102	145	2
-32768	32767	-27280	-1296	-91	1129	-24112	25816	-32768	-2536	2088	962	-9800	-7912	28272	-1267	778	-1752	-8880	15720	32767	2207	552	-2090	-19184	-3576	17216	1941	2629	-576	-9720	-18304	14488	1056	-1382	-1140	107	128	2
-32768	32767	-29024	-1250	4970	5133	-32768	15912	-32768	-2104	3733	1182	1832	25296	-32768	-5781	5524	2095	-17888	24344	32767	1665	-1463	-1366	-23832	1640	7072	2529	2189	-563	-19080	-2744	11408	2208	-1061	-1173	139	100	2
-32768	-32768	32767	8145	-852	8799	23360	-32768	-9008	-1555	3096	1353	-32768	-32768	32767	-2304	-2646	713	-25072	26624	32767	439	-3410	-682	-30080	6528	-1888	2507	1232	-446	-21984	5768	8312	2204	-1266	-1138	134	198	2
-25612	32767	32767	6286	3370	3567	-32768	32767	32767	6134	11469	4242	-32768	-13208	-27304	6080	-378	-1010	-20472	28048	32560	-1103	-4690	156	-32768	10648	-8200	1081	-558	-217	-32768	27424	-13936	-1422	-2102	-344	184	90	2
23576	32767	32767	-62	1262	737	6496	-17000	-22832	-5926	8596	2954	-32768	12280	-21976	6942	707	-1555	-23624	20248	24376	-2530	-6566	-127	-17632	17120	-9072	-435	-1517	-37	-32768	16776	-14672	-3827	-3308	-761	195	34	2
-8672	460	14628	-144	1141	218	-1408	4896	-5016	-4152	2991	701	-640	30800	-32768	-5488	1008	4024	-23296	18448	22576	-2550	-6814	-102	-24584	5640	-15568	-2358	-3455	-288	-32768	10272	-19312	-3265	-3809	-1072	150	0	2
-17340	-13588	12388	-670	1688	315	-22152	-30896	-28672	-3501	1256	590	-32768	-32768	-32768	-6078	5288	4818	-19632	16896	6088	-354	-7337	1055	-20648	-2536	-18064	-1043	-4983	-135	-32768	1088	-26688	-1205	-3729	-563	113	105	2
-14124	-1532	19780	-891	2135	857	-32768	-18480	-17672	-1754	1338	817	-32768	-6840	-21872	1321	2492	977	-24256	19592	5448	485	-6812	2529	-15584	5592	-19848	427	-5918	389	-27072	21552	-25304	306	-3969	-559	140	122	2
-5592	-14088	25552	-322	3740	1947	-32768	-27888	-736	-2231	251	636	-32768	-1632	-8264	-1143	3645	2766	-32768	21456	7888	728	-6190	3980	-16632	11168	-20432	-173	-6533	828	-17296	11360	-26904	-77	-4274	-361	133	111	2
-8736	-13484	25424	-199	5828	2754	-32768	-32768	5944	-1612	579	1500	-32768	-18912	3656	-1865	4422	1696	-26496	18552	7424	756	-5711	4574	-17192	9136	-20272	-766	-6797	1454	-6712	8176	-24560	-2198	-4508	-387	121	92	2
-4736	-14540	25556	-1049	7246	3702	-28632	-32768	31424	-2286	-263	1766	-32768	-11760	16560	-1293	4312	2227	-32768	14976	6808	1333	-5246	4618	-17408	9112	-20904	-839	-6843	1546	6856	-2120	-15432	-2212	-2231	183	143	63	2
-17412	-14324	20776	-1478	8897	4368	-27536	-32768	22776	-613	151	1914	-25568	-31592	27320	-1787	3872	1923	-32768	15440	2744	1399	-4748	4520	-16232	8552	-30512	-2178	-6373	2266	10344	-3600	-16584	-2134	-97	152	167	0	2
-26720	-18016	17952	-1738	8880	4729	5928	-24744	30712	-877	1236	1701	-8024	-20128	32767	800	3032	1138	-32768	9600	-1840	1208	-4027	4868	-15848	-184	-32768	-3094	-5921	2165	8536	-3216	-15848	-1551	45	-324	158	32	2
-32768	-14512	11892	-2471	7885	4439	4688	-18304	-544	-1216	658	1868	-7184	-22984	32512	1288	617	571	-32768	-4504	-10896	1479	-2761	5524	-16464	-15216	-32768	-1984	-5043	1828	-11400	1096	-1160	-664	-622	-794	141	41	2
-25604	-25276	7124	-984	4330	3464	-8800	-21808	5448	-1213	2397	2351	-13128	-18256	31776	2867	-518	-646	-32768	-16456	-18968	2050	-1217	5838	-6920	-6488	-32768	-180	-3601	1214	-9536	3320	2288	756	-2664	-899	137	60	2
-32768	-32768	14676	841	2581	2442	-20640	-17480	-504	-1652	3274	2282	-7304	2240	26768	2444	-571	-364	-32768	-25720	-27896	2192	-191	4339	-1568	-2504	-32768	366	-2207	911	-2144	-3336	6720	1880	-2784	-863	119	99	2
-27572	-20424	21264	1917	1566	1357	-19984	-23160	-1632	-1475	3528	2213	-11224	6088	12600	1649	-1046	327	-32768	-24120	-27760	2230	-44	1727	5024	-7648	-32768	558	-540	720	5400	-5936	11200	473	-399	173	100	122	2
-20404	-8728	28488	930	1771	1551	-26440	-13240	22936	-28	5033	1423	-9456	8408	8968	1282	-2305	4	-32768	-23840	-20168	2199	-34	355	4392	-18592	-32768	563	1022	568	15688	-10160	-320	-848	3924	2039	104	126	2
-19280	-8452	31720	-867	1488	1933	-26000	-8824	18376	-1907	3556	1196	-13840	11944	10200	952	-2517	89	-32768	-23816	-18560	2237	36	313	-1696	-10304	-7256	1057	1484	195	17896	-7864	-5432	136	4552	2368	112	115	2
-21056	-13520	31976	-1901	269	2146	-21408	-12256	12680	-4001	1687	1277	-19128	12960	8552	222	-2525	167	-32768	-11384	32767	-9036	4084	-13508	10928	25744	-32768	-1023	3989	-809	-32768	-10240	32767	-2661	-7179	302	119	201	2
-18856	-18760	32767	-1855	-1290	1893	-15672	-8416	4832	-3936	415	897	-32768	-9360	-5336	-2030	-2378	288	32767	-32768	32767	-4596	-1422	-10319	-32768	-32768	32767	10426	16086	-8553	-32768	32767	-26560	408	5361	1414	144	161	2
-12224	-28828	32767	-628	-2185	489	-32768	-30600	8048	-2589	-669	728	-32768	-16464	-3360	-365	-2982	-547	-32768	16800	-7912	301	1010	-744	32767	32767	-32768	4111	5109	3008	17152	-32768	-32768	-1214	3245	2978	151	175	2
-10276	-30460	27288	1113	-3526	-978	-24728	-22248	-984	851	-759	-573	-32768	-4480	-10144	2096	-4029	-1864	-8672	5248	15160	163	370	-435	32767	32767	-24192	1870	5406	931	12576	-22008	-32768	6048	1977	-484	141	168	2
-7092	-11172	17328	363	-4900	-2644	-9496	-7520	-8608	2786	-1677	-1946	-32768	1216	-18672	1944	-4565	-1116	-5856	14896	15472	609	1085	204	-26352	19384	-23984	710	3625	-654	-32768	32767	-32768	4923	4398	-2553	140	140	2
-9284	-8036	12072	-1193	-5587	-3938	-12096	-4848	-9976	3534	-3388	-2215	-32768	5224	-28000	688	-4315	-905	-8520	4808	19464	210	1797	-819	-29896	5552	-17096	1011	1898	-420	-24128	32767	-11200	-2377	3128	609	127	136	2
-20932	-9700	9212	-1425	-6545	-4415	-11152	-5536	-12496	3095	-4943	-2400	-24280	2592	-29104	-622	-4433	-938	616	15368	27960	360	3709	-1415	-32768	10288	-10184	1002	2749	-868	-32768	2360	-10800	-928	4547	-1620	108	133	2
-20536	-4744	11992	-1784	-6964	-4591	-13056	-5464	-8368	3326	-6109	-2908	-10272	-6400	-25512	-1019	-4051	-333	-8440	14144	31536	309	6095	-1706	-32768	368	-4472	1153	1140	-879	-32768	4232	3928	-1307	4274	264	49	253	2
-23224	-6996	13740	-2193	-6956	-4665	-18384	-7032	-6304	3071	-6751	-2990	-9448	1592	-25608	-162	-2992	-255	-4992	6240	29816	512	7787	-2645	-32768	-2072	11232	496	513	-22	-32768	-10040	17144	-1473	3912	1178	74	169	2
-24460	-5112	15940	-2479	-6904	-4403	-22096	-8968	-7696	2687	-7165	-3315	-3240	-416	-23880	-65	-1652	-502	-11824	8696	23472	428	9261	-4276	-32768	3808	17144	509	-106	594	-32768	-17864	25664	541	3638	893	104	104	2
-31244	-3604	13112	-3022	-6672	-4141	-22952	-5776	-13880	1971	-7458	-3501	11288	8920	-22504	-355	-398	-182	-24864	14632	27840	1084	9749	-4373	-22776	24	23856	2334	-30	124	-25544	22184	15208	1627	2400	512	109	126	2
-32768	-6376	12032	-2931	-6257	-3890	-22840	-5824	-14984	1821	-7509	-3564	16784	11224	-22792	-29	-409	-266	-32768	18136	22064	3877	9015	-3465	-5840	17952	13392	1817	515	-134	-5344	5472	27248	1611	1614	-500	111	133	2
-32768	-5544	7388	-2762	-5860	-4213	-30600	-5904	-28536	2151	-5867	-4552	11552	9608	-15344	-111	-677	114	-32768	28896	13600	3885	5353	-3883	-12640	13160	-1408	494	2565	-948	-17936	6152	27504	-1313	180	-131	106	128	2
-32768	9448	164	-2755	-4366	-4953	-32768	360	-32248	2502	-4631	-4712	9600	3576	-4168	-208	-360	632	-32768	32767	25776	-54	3757	-2561	-17448	5888	-2952	-503	3625	-873	-6592	-1944	30296	-2117	-238	111	117	97	2
-32768	30464	-3288	-3368	-2020	-5444	-32768	13352	-32768	2585	-3684	-3680	-3840	-5336	3368	-633	-1213	-543	-14120	21848	23384	-1669	1920	-169	-22584	5368	14608	-1087	3294	-622	-6392	-4904	9880	-1482	-468	160	125	48	2
-32768	32767	-11836	-2248	-309	-4680	-25184	16104	-32768	365	-2739	-1119	-9232	-8920	18344	-1788	-1869	-1286	-2472	6952	31488	-1075	2087	-522	-18808	1448	31344	-381	3241	-628	-9088	-8992	3160	710	-813	-526	115	103	2
-32768	23120	-26376	680	-1382	-1431	-18944	7120	-32768	-399	-660	-341	-6864	-6048	20464	-854	-357	-1638	6416	13888	32767	384	2286	-1399	-11912	-8984	25624	514	2590	-541	-2168	-16536	10864	-131	-831	-709	122	101	2
-32768	32767	-32768	-365	-642	185	-23216	25784	-32768	-735	2288	415	-5224	7616	23384	-1772	1315	-617	-6192	14256	32767	1955	-85	-692	-12704	-5272	17080	2211	1559	-191	-5568	-10480	13072	1296	-1360	-1188	105	134	2
-32768	13336	-22032	-619	2891	-381	-25696	16424	-29272	-1177	3623	1645	13376	14560	-30120	-2941	7532	1177	-14472	19152	32767	2520	-3220	-15	-18056	5016	9632	3818	818	-106	-14416	2088	10800	2047	-1727	-1271	82	131	2
-6516	32767	-32768	3046	5247	1725	5568	-17336	-21592	-2054	3571	1455	-2352	2512	9584	-541	654	1201	-31432	23920	32696	1710	-5931	885	-23704	9840	-888	3245	834	-493	-19264	18480	11160	1715	-1946	-1049	164	137	2
-32768	-32768	32767	16147	2957	12453	-32768	-32768	-32768	4497	5060	-3358	-32768	-32768	14200	-863	3084	-3042	-21824	26480	30800	-173	-7185	1123	-32768	15984	2664	1743	-23	-531	-32768	27368	-8520	-84	-722	-889	182	225	2
32767	32767	32767	1265	2747	1647	-32768	32767	32767	1577	8072	5547	-31176	32767	-30112	8261	659	-2038	-13448	30552	15560	-2500	-6192	132	-32768	12152	-1592	-628	-1459	-491	-32768	17008	-12888	-2029	-3318	13	145	80	2
20836	20656	28312	-580	2467	425	7160	3232	7672	-4738	6427	3111	32767	32767	-32768	-3529	1651	-269	-15064	20976	20200	-2886	-5492	271	-27568	4864	-10376	-1441	-2585	-339	-32768	10808	-15448	-3543	-3752	-328	135	43	2
-6632	-1256	13056	-419	990	-146	-32768	-5592	-18712	-2649	2842	134	-27384	16496	-32768	-6354	873	4454	-16128	20776	17280	-991	-5250	1900	-29728	1936	-16752	-1330	-4213	-139	-32768	4816	-20536	-2720	-3903	-938	129	42	2
-16856	-22020	8720	-1046	1905	328	-14912	-29760	-23616	-3457	1502	-129	-32768	-32768	-32768	-4346	4797	3256	-21664	25480	14912	23	-5650	3365	-20616	9112	-19184	-831	-5251	411	-31592	2432	-25880	-1038	-4204	-491	134	99	2
-12416	4432	22264	-1219	2553	708	-32768	-18576	-15792	-1801	1200	509	-32768	-1168	-14032	725	2795	1195	-25784	22336	14968	-184	-5709	3993	-20304	10176	-18832	-1319	-6158	907	-27808	7384	-24952	-411	-3098	-271	133	79	2
-6412	-15060	26388	-536	4259	1908	-32768	-31896	-3768	-2515	325	667	-32768	-6680	-2072	-1665	3659	2731	-22296	19824	16928	578	-5569	4137	-25272	7744	-18072	-1653	-6496	1214	-9736	15904	-23648	-460	-3431	78	116	137	2
-7220	-15724	25468	-374	6246	2725	-31328	-32768	17848	-2356	570	1634	-32768	-13824	7680	-1889	4040	1394	-28432	22008	13816	783	-4995	4431	-26824	7720	-20208	-1707	-6772	1664	-8440	5312	-20792	-1910	-3114	462	136	158	2
-6088	-8012	21176	-1302	7108	3638	-28280	-28024	14248	-1770	0	1497	-32768	-16392	10688	-1714	3430	2065	-32768	17896	12408	1420	-4039	4566	-26392	4952	-26216	-1818	-6713	1954	904	-4200	-14864	-2609	-1910	15	115	144	2
-16248	-11676	19460	-1655	8993	3937	-28056	-29304	19352	-1120	29	1731	-29672	-31528	20488	-2394	4618	2367	-32768	18360	11672	1518	-3919	4645	-19528	6432	-32768	-2039	-6074	2114	7360	-4752	-9872	-2666	-1437	-95	121	151	2
-24872	-18076	15376	-1871	9163	4345	-4720	-30576	24272	-1429	-230	1764	-8184	-32616	32767	-128	3713	1358	-32768	6200	-2960	1485	-2722	5113	-14096	-4448	-32768	-2474	-5095	2003	2816	-3696	-6632	-1942	-862	-606	99	147	2
-32768	-16948	8400	-1483	7719	4585	4528	-19248	-3616	-1458	408	1948	-4488	-25856	32767	1869	578	245	-32768	-9952	-11648	1855	-1825	5285	-13312	-11040	-32768	-1091	-4095	1518	-3640	4512	2624	-226	-2253	-1193	104	125	2
-27072	-18916	9596	-527	4159	3357	-9208	-19864	3640	-818	2944	2559	-12488	-14648	32767	3730	-642	-928	-32768	-20232	-26376	1953	-559	4433	-2432	-3856	-32768	102	-2527	1109	1488	-840	14280	1631	-2056	-720	100	127	2
-32768	-32768	20928	474	2179	2987	-24880	-20008	2672	-1012	4264	2640	-11128	14296	28152	3197	-127	-635	-32768	-22656	-32768	1446	-4	2547	7152	-10208	-32768	-110	-651	812	1552	-5464	3512	1372	-180	301	105	98	2
-32184	-31276	24804	1848	1051	2266	-25960	-30880	20336	-296	4947	1512	-8600	16248	19432	1030	-1573	296	-32768	-24080	-25864	1927	529	1901	6680	-18848	-32768	-337	1201	340	9640	-10664	1816	-1675	2377	1122	121	80	2
-20352	-11044	31544	276	1220	2234	-31456	-13048	26208	-1115	4607	904	-15464	14896	13608	257	-2487	172	-28376	-22248	-19392	804	2072	1825	320	-21832	-21408	-1101	1943	17	22160	7352	-32768	3467	5070	1540	119	120	2
-18372	-15100	32412	-2418	1124	2297	-25320	-15504	21168	-3935	2322	986	-19416	15208	12256	-206	-2715	372	-32768	-32768	-32768	3580	6016	-1176	8824	-17960	-8968	-1480	1968	-658	-2720	4480	-28304	3752	772	-202	122	198	2
-18588	-17428	32296	-2688	999	2345	-18736	-16120	13680	-5321	816	367	-23136	6808	5040	-1768	-2494	486	-32768	32767	-32768	-12177	679	3653	-32768	32767	-32768	-18569	7283	-1530	-32768	28512	9792	-5688	2315	-2084	126	201	2
-16428	-23828	32767	-2486	-791	1379	-20568	-21312	4792	-4266	-678	340	-32768	-23592	-8360	-3440	-2471	569	-32768	32767	-1952	-423	1652	472	32767	-32768	-32768	14705	6678	-6963	-32768	1360	-32768	2268	1953	1253	137	119	2
-9604	-32768	31520	44	-1938	-813	-32544	-26848	2384	-1702	-964	211	-32768	-9688	-11704	810	-3732	-1906	31504	19960	25688	-302	933	-162	22352	32767	-11888	2951	4072	1871	32767	-32768	-22904	840	1377	4201	131	172	2
-3504	-22036	25020	1246	-3397	-2693	-29600	-25784	4480	-818	-771	-95	-32768	-456	-17400	2386	-4561	-2350	-7832	2160	17216	587	909	490	-31688	-9848	-32768	-838	4433	-1493	-24664	-1240	-32768	5782	456	-1275	135	130	2
-8244	-10560	15144	-221	-4873	-4507	-9056	-2552	-8032	4330	-1982	-2716	-32768	7928	-24184	1134	-4216	-1467	-13360	4904	15744	300	1529	-1146	-28120	-6192	-30768	793	3115	129	-32768	32767	-32768	1770	7091	-1966	132	125	2
-12824	-8764	11864	-1285	-5903	-5334	-9960	-4080	-6784	3945	-3930	-2836	-30920	8712	-29384	-215	-4325	-1127	-14192	18752	19616	902	3282	-985	-32768	10952	-19144	2072	1675	-385	-32768	-1336	-6224	-2260	4724	61	137	253	2
-19204	-8480	12220	-1935	-6662	-5104	-12232	-7296	-5872	3197	-5663	-3214	-15712	4240	-28392	-1124	-4083	-990	-5360	12184	26800	1108	5829	-1641	-32768	-2784	-3448	1846	838	-799	-32768	2776	2920	-903	4376	-1267	127	14	2
-21260	-7952	15196	-2486	-6943	-4980	-15920	-7592	-5376	3082	-6600	-3787	-8672	4168	-28552	-1052	-3253	-663	328	-1440	26760	1874	7881	-2169	-32768	-6472	13888	864	-27	-260	-32768	-4760	18360	-880	3907	553	133	45	2
-23248	-3776	19240	-3281	-6907	-4966	-24152	-3576	-5800	2602	-7414	-4061	-2496	6904	-27624	-656	-2349	-858	-11072	5264	19600	2475	10378	-3115	-32768	-3696	22024	1067	212	-423	-30880	-7952	32767	-819	3101	1288	104	94	2
-32768	-180	19628	-5186	-6890	-5018	-28816	-2680	-13672	1122	-8478	-4209	11024	10296	-26984	-964	-728	-473	-32768	14864	29752	3007	10093	-2526	-17952	10848	25488	1837	730	-511	-12520	-6800	32767	1272	2161	392	105	122	2
-32768	-8536	14460	-4920	-6874	-5133	-27984	-5080	-24664	203	-8245	-4660	20488	9992	-29440	-2249	-127	-609	-27096	16208	21112	3018	7016	-3280	-6056	23704	9072	-356	2041	-1238	-5704	3744	28296	1220	610	-601	107	158	2
-32768	-11900	6328	-2725	-6111	-5488	-28768	-11688	-28920	1387	-6240	-5432	8592	8632	-19200	-1235	-283	-286	14776	28120	18624	1379	5451	-3800	-22072	1232	15584	-2057	2398	-1470	-13872	2336	14936	-1562	573	-288	125	130	2
-32768	11860	4616	-1863	-3668	-5958	-32768	-400	-32768	3178	-4086	-5834	9480	-3968	-2456	256	-736	-170	-24880	31624	32767	-876	4166	-3506	-17712	-4752	-2504	-460	3311	-1140	-10888	-4968	20480	-2285	-1108	-503	127	116	2
-32768	32767	-7724	-3156	-1565	-6951	-32768	21744	-32768	3443	-2290	-3960	-2792	-15408	12064	-350	-2325	-1774	-19168	18968	32767	-345	-66	-387	-24360	-2208	17840	482	2657	-1313	-5592	-696	17296	-1393	-634	-598	104	118	2
-32768	32767	-27268	263	341	-5151	-24264	22424	-32768	1687	-321	-944	-11520	-11464	28480	296	-939	-1948	-5568	12048	32767	1070	-1602	-374	-19168	5000	29392	2133	2123	-1288	-7768	-11280	15984	-812	-1181	-1156	125	128	2
-32768	32767	-32768	1288	37	-234	-30016	27520	-32768	-631	1299	-141	-1704	6328	32767	-499	771	-1391	4568	21296	31824	1259	-1764	-1572	-18552	11360	25880	2405	1934	-1153	-6968	-15368	17816	-528	-1302	-1429	127	113	2
-32768	32767	-26216	-3559	1044	1067	-27560	27952	-31584	-3118	2674	1741	10672	32767	-32376	-2886	7511	999	-4304	26072	32767	456	-2592	-2174	-20192	8000	16360	1533	1666	-808	-10512	-12792	17792	1367	-1383	-1435	116	100	2
10140	-31632	11320	2717	5482	158	2736	-18936	16336	-3444	2271	2167	240	26432	-32768	-3288	1627	510	-11624	25576	28840	282	-4169	-1781	-24248	9008	11760	2011	1305	-684	-16432	4984	17784	1978	-1422	-1445	169	87	2
-32768	-32768	32767	11065	-1820	8387	32767	-32768	-32768	3710	-373	1350	-32768	-32768	32767	-4629	-3736	2887	-15832	28824	29936	428	-5093	-1660	-32144	12632	2304	1952	581	-435	-32768	32767	2056	1749	-1378	-1361	187	246	2
-32768	32767	32767	5691	-1766	5957	-32768	32767	32767	7358	10671	1746	-32768	-32768	13872	6081	1886	-3418	-15544	32767	29432	-853	-4991	-1041	-32768	19608	-10672	825	-781	-139	-32768	32767	-19744	-1482	-2055	19	241	138	2
-11784	32767	25208	-79	2413	-73	32767	20840	-32768	-3452	9275	2499	-22112	32767	-19040	3732	2903	-3146	-19888	32767	21200	-3565	-5311	414	-26448	15168	-14648	-1401	-2293	-373	-32768	32360	-26336	-3839	-3488	-425	171	23	2
-6384	-3008	10440	-819	1648	-111	13776	320	8528	-3432	4390	95	32767	32767	-32768	-7540	607	2350	-15168	24744	14408	-2870	-5422	2033	-28408	10256	-20584	-2402	-4514	-243	-32768	-1776	-23968	-5130	-4627	-1382	139	97	2
-8904	-32768	6272	-1221	2352	184	4984	-32768	-32768	-5214	22	-718	-32768	-32768	-32768	-9241	3006	6772	-25712	24672	10896	284	-5730	3696	-22264	6072	-23272	-932	-5772	77	-32768	4944	-30920	-1592	-4639	-928	120	161	2
-14732	7012	23260	-1465	2055	907	-32768	-14816	-9640	-3116	-720	389	-32768	-15096	-30528	2787	2999	1027	-31544	32767	10216	487	-6094	4452	-16624	21184	-26456	-978	-6555	1247	-19920	3904	-30200	-183	-4545	-307	145	86	2
-7376	-3724	31164	-804	4160	2196	-32768	-32768	4928	-1165	550	1799	-32768	-20016	5688	-713	4268	2985	-32768	32767	4536	-226	-5963	5105	-19608	13360	-22960	-2216	-6828	1464	-8376	11704	-25024	159	-4200	315	109	166	2
-6340	-10124	24956	-1466	6452	3233	-31472	-32768	-26808	-1338	-2283	2780	-32768	-22560	1536	-1177	5034	2638	-32768	23576	6792	192	-5269	5503	-22560	9320	-24696	-2712	-6942	1678	-3832	11528	-20152	-1642	-3719	750	124	148	2
-5176	-14268	20232	-1666	8270	4078	-29392	-32768	16680	-424	1402	1794	-32768	-6048	31344	-789	4843	1152	-32768	20280	4696	1068	-4372	5356	-24096	7336	-32768	-2306	-6803	2044	12192	-8592	-16272	-2589	-774	839	113	139	2
-27764	-24080	23304	-1919	8819	4615	-6792	-29472	19960	595	2188	1320	-9472	-24608	32767	-827	3514	1082	-32768	17736	-1616	1504	-3662	5493	-13528	4472	-32768	-2556	-6020	2348	12096	544	-20184	-3514	-367	146	111	147	2
-32768	-28800	19400	-2911	8123	5033	9616	-10896	14664	-1484	544	1081	-8904	-21088	32767	-460	256	818	-32768	-2688	-7200	1903	-2610	6104	-15208	-13416	-32768	-2673	-5219	2024	1344	-2816	-7080	-1656	-1545	-533	93	127	2
-32768	-6356	16336	-3376	6185	4712	-16320	-22320	2088	-3083	1030	1692	-14776	-29936	30400	1590	-804	-542	-32768	-16648	-20456	2645	-998	6306	-9608	-9184	-32768	-728	-3774	1340	-2528	1408	5832	1736	-3528	-1581	101	97	2
-32768	-6876	15756	-3710	3801	5216	-32768	-11000	-2688	-5493	1424	3278	-6928	4032	25760	1718	-662	-140	-32768	-22736	-26664	1880	207	4482	3920	-6408	-32768	-629	-1847	864	4168	1704	9864	2148	-2015	-723	101	118	2
-32768	-32768	25024	-1505	166	3965	-18624	-32768	17112	-5201	2650	3529	-5544	13680	14024	1427	-1201	272	-32768	-18800	-26488	474	-7	2349	3424	-9896	-32768	-691	301	512	-16	-5952	5816	-606	1478	753	102	88	2
-22712	-29688	28372	861	247	3540	-20784	-23448	19376	-1308	4157	1808	-10920	5776	9688	297	-2036	301	-32768	-32768	-26208	536	609	628	3296	-21264	-29232	-1008	1464	460	13848	-12208	-23160	-1061	5591	2647	113	73	2
-16952	-21684	30136	542	860	2263	-24544	-15464	23192	-1858	3904	1772	-17960	6760	12992	337	-2368	88	-32768	-32768	-11120	1606	5804	-4410	5528	-32768	-24240	-988	1515	54	13952	-1696	-32768	5744	3943	1164	104	109	2
-17440	-26044	32767	-2	896	1345	-23008	-21992	17392	-2028	3252	1469	-23440	6464	12560	-24	-2399	105	-32768	32767	-32768	-14393	-7429	-660	21360	32767	-32768	-10405	4948	-2162	-18896	-32768	32767	-7754	-3078	-394	110	253	2
-17724	-20416	32767	-407	440	443	-27080	-15672	8520	-1802	1304	444	-32768	-17584	-4664	-1725	-2460	458	-32768	32767	-32768	-1792	657	-2168	32767	-32768	-32768	11512	8939	-6907	-32768	-8944	-32768	3127	2609	1522	131	72	2
-16236	-28372	32767	53	-929	-937	-32768	-26384	3896	-1473	-84	266	-32768	-11464	-11824	788	-3402	-1141	30200	12888	23752	-188	1081	307	32767	32767	-21592	867	6675	2240	32767	-32768	-26976	36	1585	3868	132	243	2
-8448	-25056	30368	931	-3488	-2209	-15288	-24152	-4080	1659	-1090	-1385	-32768	-5816	-19184	2466	-4469	-1753	-7944	-544	19056	592	746	75	-27280	-4936	-32768	-990	4261	-517	-14088	-1976	-32768	4843	1347	-816	127	174	2
-9316	-10252	18012	-230	-5502	-3591	-7328	-3432	-10656	4236	-2183	-2591	-32768	7008	-26456	1401	-4655	-909	-9376	-5232	18784	296	1647	-1147	-32768	-11480	-22720	211	2444	165	-32768	32767	-32768	1922	6590	-1768	127	142	2
-14724	-7168	10444	-1169	-6324	-4382	-12224	1496	-7160	3967	-4048	-2571	-30488	6192	-30752	42	-4710	-744	-11056	18192	22904	931	3565	-1201	-32768	15272	-10616	1406	1779	-823	-32768	6496	-7264	-3354	4763	469	134	95	2
-18860	-6416	10876	-1727	-6832	-4590	-13928	-4928	-4672	3021	-5783	-2677	-21344	4920	-31056	-778	-4477	-625	-5088	15576	32008	1042	6398	-1621	-32768	568	-5456	1066	949	-1190	-32768	4064	-784	-1827	4544	-773	136	81	2
-20028	-3816	14660	-2556	-6870	-4706	-17656	-4512	-6032	2507	-7075	-3074	-9072	4240	-29960	-521	-3826	-370	-5816	2288	32232	1550	8079	-2253	-32768	-8016	17776	117	-377	-338	-32768	-23760	15800	-1580	4417	1089	130	122	2
-26016	-1076	17288	-3551	-7160	-4753	-18696	-2440	-9296	1763	-7881	-3513	712	6616	-31448	-538	-2759	-507	-21480	11672	27160	1526	10490	-3916	-32768	2944	24952	-719	-124	594	-32768	-18640	32767	-533	3583	1296	108	134	2
-32768	-1180	12640	-3997	-7658	-4540	-17288	-2856	-16168	1102	-7980	-4108	11744	8736	-30872	-717	-1387	-582	-29984	15160	32767	2795	9773	-3358	-12400	1200	27248	1686	942	-74	-12904	-11512	32767	1185	2074	417	116	114	2
-32768	-3972	6996	-2964	-7349	-4375	-15360	-2992	-23688	1401	-7223	-4855	23008	9360	-32368	-1090	-744	-642	-32768	12368	32024	5224	7797	-3183	-7392	17280	15624	925	2245	-1232	-5912	10352	26576	1328	971	-425	106	140	2
-32768	4224	3620	-1409	-6589	-4703	-24888	-24	-29296	3391	-5697	-5587	21736	11792	-26144	-912	-560	-306	-21640	32767	-20008	68	9570	-4205	-13928	13056	12080	-509	2263	-101	-13256	88	19512	-1191	121	-460	106	162	2
-32768	14944	3208	-2205	-4957	-5520	-32768	2512	-32768	3786	-4794	-5319	10544	8152	-12968	-1521	-596	3	-21496	15368	32767	-3700	4345	-545	-22328	3352	5512	-2157	3560	-496	-10720	3264	23256	-1576	-1267	-413	110	151	2
-32768	32767	-1888	-2951	-2987	-5880	-32768	9448	-32768	2927	-3797	-4146	-64	-9488	560	-2688	-1251	-755	-18472	-13856	32767	-655	702	-336	-26472	-7264	26752	-1098	3237	-1013	-6960	2816	3096	-365	-636	-700	118	140	2
-32768	32767	-14800	-2870	-1495	-4198	-32768	11688	-32768	2665	-3642	-3723	-10384	-15464	20944	-2118	-1465	-1245	3776	-7568	32767	3627	-815	-2695	-16040	-18344	31000	2892	2011	-1092	-1896	-16288	8848	-1698	-1753	-1109	96	132	2
-32768	27604	-32768	-263	-782	-683	-23552	15600	-32768	-1470	-1612	-503	-12352	-6392	26552	-658	-623	-1556	-4384	17104	32767	3947	-2549	-3403	-10912	-3712	18800	4910	1022	-1053	-4312	-17432	13080	32	-1179	-1765	116	137	2
-32768	32767	-32768	-2927	471	189	-22168	26584	-32768	-2660	1163	956	-7008	10472	32767	-1488	1264	720	-11200	24312	32767	2114	-4907	-2378	-18240	4424	13936	4772	415	-886	-9912	-4008	14016	1731	-1600	-2134	98	124	2
-32768	6624	-18384	-2200	3236	-3	-25544	6456	-22176	-2644	3045	1864	7744	18272	-32768	-5059	6383	1834	-19032	17664	25392	406	-6543	-1915	-21112	11808	12360	4190	427	-1233	-16872	11864	13408	1956	-2079	-1892	134	111	2
-32768	-32768	-32768	4467	7117	6052	15824	-32768	-32768	-1696	2520	1878	-12936	3048	32767	1687	-1503	-74	-12632	22064	19168	-684	-6914	-2137	-26032	15000	7480	2207	152	-1544	-29832	32767	5240	1077	-2109	-1434	139	186	2
-896	32767	32767	5793	-403	3644	-32768	32767	-28488	-10919	7863	-3795	-32768	-32768	-19824	-423	3795	-2103	-16440	32767	32767	-1441	-5540	-1584	-32768	15904	-5072	301	-1384	-1341	-32768	32767	-24552	-2461	-584	-314	162	123	2
-11532	32767	32767	-530	1185	289	32767	11704	-32768	-1061	8314	3652	-32768	32767	-27528	4741	4121	-3146	-31016	32767	21672	-3952	-5764	1134	-32768	13400	-16784	-2990	-2875	-1096	-32768	14160	-21384	-4443	-3289	-109	80	36	2
-11720	-21872	3556	-964	1808	-213	29344	-3984	23408	-3751	4849	631	32767	32767	-32768	-6210	994	3190	-26376	30888	13616	-3056	-5386	3854	-32768	6320	-20656	-3556	-4457	-769	-32768	1832	-21856	-4991	-4269	-1403	172	24	2
-12352	-29972	7756	-1133	2381	155	3504	-32768	-32768	-4268	658	-90	-32768	-27464	-32768	-9088	2583	6529	-32752	24656	13072	-84	-4675	5113	-29824	7848	-24528	-1639	-5404	-272	-32768	-4776	-28696	-2264	-4494	-1461	116	0	2
-15144	4468	20252	-915	2258	1125	-32576	-15968	-22696	-2311	201	904	-32768	-25160	-32768	2076	2249	882	-32768	30560	13960	-136	-4863	5076	-24120	20168	-27048	-1590	-5956	645	-18080	1560	-20184	-1442	-4691	-312	134	125	2
-9620	-5484	28492	-295	3939	2512	-32768	-27944	-3808	-1083	54	1613	-32768	-12912	-2888	-791	3828	3211	-32768	27392	14192	-808	-5155	4737	-25112	14224	-25224	-2808	-6329	987	-12336	10856	-16520	-216	-2087	626	128	120	2
-9676	-21436	26032	-286	6240	3730	-29888	-32768	15496	-1759	94	1955	-32768	-10032	9952	-892	4022	2060	-32768	22520	11432	-668	-4987	4810	-26040	13032	-25048	-2926	-6383	1024	-21976	7568	-22736	-1940	-2967	-516	141	112	2
-8228	-10172	23408	-839	7316	5085	-32768	-31248	23112	-1442	-362	1526	-32768	-11848	25776	-1706	4841	1885	-32768	17056	6920	259	-4489	4938	-23976	5528	-29416	-2251	-6386	1491	2224	-5536	-16888	-2659	-2748	-147	115	122	2
-18340	-18836	15800	-1820	8656	5176	-18760	-32768	18504	-2884	-48	1577	-20880	-22720	32767	-1758	3635	1590	-32768	12968	368	678	-3820	4893	-15968	7488	-32768	-2466	-5675	1747	7640	-3736	-10592	-2520	-2596	-34	131	122	2
-32768	-27732	16728	-3302	8549	5382	10344	-15176	9224	-3486	-370	1122	-10664	-20040	32767	-697	1261	622	-32768	2728	-8024	840	-2816	4856	-13616	-1824	-32768	-2614	-4954	1551	5984	1344	-9576	-1815	-1855	-520	126	121	2
-32768	-5996	24264	-3463	6025	5292	5624	-27272	800	-3606	331	1886	-4352	-27200	26376	-940	257	385	-32768	-2264	-14760	513	-1836	4740	-7648	-1776	-32768	-2221	-4136	1185	2960	4704	-2384	-377	-1749	-891	129	58	2
-32768	12452	-6212	-3419	3772	6177	-10624	-21504	1240	-3586	1819	2802	-8376	-12400	17576	1104	-350	-929	-32768	-13728	-23720	385	-1085	4249	-1752	-5936	-32768	-1401	-3202	807	3680	1312	1464	744	-1748	-539	148	7	2
-27760	-32768	23044	121	197	2051	-10912	-32768	14568	-3116	3019	2329	-3504	992	11544	1022	-968	-159	-32768	-18496	-32768	376	-874	2987	8440	1104	-32768	-848	-1290	587	3728	3640	-72	895	-533	470	155	25	2
-7172	-29032	24884	2121	491	838	-10312	-27896	20728	54	3888	822	-12376	-10624	6632	709	-1244	-42	-32768	-18728	-30896	439	-473	1053	5792	-6856	-32768	-546	182	539	1432	1248	480	598	124	878	156	47	2
-4652	-16564	26780	992	1177	46	-12232	-18136	24616	252	3821	987	-12944	-1528	10840	2065	-1824	-879	-32768	-21496	-25800	1572	22	285	2832	-13200	-32768	437	1449	329	4616	-2208	-592	-1449	1889	1138	145	58	2
-5564	-20700	32156	-203	804	-8	-12328	-15048	22248	-121	3229	643	-7360	11160	13368	1957	-2472	-876	-18344	-23552	-24120	2110	1280	-24	664	-15696	-16496	807	1878	206	8984	-2192	-29160	1172	4037	1150	130	50	2
-7772	-16372	32767	-796	-303	-393	-16184	-8856	16544	-1180	1816	30	-15208	13120	11864	290	-2822	-450	6784	-24816	-13448	936	3608	-891	7456	-13408	-1264	163	1488	-36	8744	1128	-32768	4462	3232	127	127	113	2
-6024	-12500	30252	-1205	-1336	-749	-19800	-8656	14024	-2176	515	2	-17864	7704	15344	-539	-2688	-464	-32768	-32768	13016	-121	4474	-1194	17288	-4776	-25000	-2273	351	-508	13832	8264	20104	-659	1011	-267	101	253	2
-15888	-5444	26920	-2120	-2326	-803	-22288	-7824	4056	-2842	-189	-188	-32768	-9448	-528	-1497	-2673	-395	32767	-32768	32767	-5014	-5429	740	-32768	32767	-32768	-9839	19055	3823	-32768	-25216	-32768	-7160	13514	-4504	98	253	2
-17012	-27340	32767	-2253	-3391	-1751	-32768	-28560	2344	-1374	-1844	-599	-32768	-3216	-11608	679	-1889	-1233	-32768	-7280	4776	826	2184	-549	32767	27808	-28336	6079	932	3117	32767	-32768	-32768	7923	3039	2983	119	230	2
-13128	-31920	32767	-1510	-3619	-1981	-29032	-24720	-7648	2202	-1782	-1940	-32768	-7360	-16720	1168	-5200	-2557	11240	-14512	25232	447	727	-1207	-11944	-32768	11848	-1514	4829	2648	32767	9440	-32768	11201	-2036	1089	130	219	2
-23596	-1196	25432	-928	-5069	-4232	-25960	-15520	-12136	2860	-1688	-2245	-32768	688	-20272	1536	-5590	-1715	-2512	9336	17760	522	1365	-933	-32768	17464	-10416	916	3483	1005	-32768	32767	-32768	6678	5950	-2714	115	220	2
-28100	-3048	20144	-1342	-5983	-4273	-24680	-4728	-15224	3966	-4488	-2946	-32768	17144	-28664	424	-5151	-1619	-8600	17256	19168	272	2525	-1299	-32768	13352	-17224	865	1508	-337	-32768	2664	-15088	-6210	4447	-748	124	142	2
-23236	1564	17620	-1963	-6416	-3483	-26800	-904	-11864	2822	-5899	-3165	-18272	5488	-26920	-733	-5209	-994	-7680	7360	27872	545	5178	-1674	-32768	-12112	-15696	752	2761	-1192	-32768	-32	-1608	-963	3684	-1722	110	204	2
-32768	436	19716	-3163	-6866	-2885	-26896	-2096	-14464	1549	-7092	-3714	-10432	7168	-27424	-429	-3680	-7	-5664	9176	28592	718	5511	-1735	-32768	1296	5688	559	927	-384	-32768	-11328	14624	-2054	3733	1553	99	196	2
-30940	832	11984	-3725	-6885	-3196	-24944	1496	-16088	1136	-7019	-4280	-3168	12264	-26824	-558	-2653	-343	-3728	11072	27480	1200	9794	-3994	-32768	224	17200	508	-203	155	-32768	-27784	27088	-1026	4114	2438	71	182	2
-32768	3516	8780	-3455	-5178	-4358	-25560	1472	-22472	2085	-6118	-4546	10272	7304	-18952	-222	-2427	-559	-29976	9088	27072	1772	11178	-4753	-32768	-7184	27592	1465	-303	-20	-28528	-5952	32767	647	2744	728	73	159	2
-32768	7828	9288	-2324	-3793	-5217	-25328	1648	-31336	3275	-4397	-4518	17256	6744	-14512	-938	-967	-676	-32768	19080	31776	4697	9442	-3855	-15280	20072	22024	2499	629	-566	9160	2536	32767	1269	1813	-420	72	178	2
-32768	23704	4780	-1860	-3663	-4630	-31000	11136	-32584	3843	-3316	-4238	13632	7224	-17968	-2166	388	487	-24592	27072	27136	5240	6755	-4189	-11552	10408	19032	-123	1950	-1455	-10192	2048	27520	-24	768	-409	85	183	2
-32768	31996	-1668	-2488	-3393	-3312	-32768	20792	-32768	2299	-3381	-3109	4872	3376	-10688	-2064	162	108	-19576	32767	27440	4721	6593	-4237	-16640	-1512	-1648	-394	2633	-1098	-5872	3768	25928	-868	-1235	-587	82	177	2
-32768	32144	-10016	-1511	-2727	-2192	-29648	16400	-32768	-169	-3507	-1720	-3256	1472	-1304	-1743	-1186	-604	-32768	32767	32767	-992	4373	-2589	-24336	2560	20712	-1341	2529	-1127	-11544	4040	7904	-1215	-1309	-427	91	148	2
-32768	29860	-23112	-638	-1858	-432	-20888	11440	-32768	-868	-1752	-892	-5016	-2176	6192	-1020	-1524	-786	-3728	-5688	32767	-484	-341	-545	-19480	-24	32767	-145	2215	-1486	-10072	-4712	6408	-820	-1491	-810	88	143	2
-32768	26852	-26852	-779	-9	23	-21856	18784	-32768	-627	677	-64	-4320	-752	9824	-212	-449	-627	6704	12376	32767	1868	-855	-1685	-13464	-5472	27912	1835	1247	-1362	-3992	-14432	13456	-1104	-1716	-1069	94	128	2
-32768	22660	-26080	-623	2400	-702	-19984	16264	-32768	-499	2853	579	7480	5232	-6344	-1544	5259	370	-5064	29112	32767	1251	-2752	-1256	-14664	7600	16112	2460	410	-885	-7552	-2920	20448	370	-1702	-1737	97	111	2
-19604	27716	-23232	-225	5000	-866	-9944	15552	-14888	-298	3636	1055	2144	15944	-32768	-3016	5539	1558	-18296	30992	32767	-365	-5054	-66	-25536	13368	8016	1823	-12	-803	-16704	12688	19472	383	-2243	-1568	13	114	2
4912	32767	-32768	1344	7156	5893	14656	-32768	-32768	1701	2407	65	-10528	17600	32767	1240	972	730	-28736	23944	21368	-1541	-6834	300	-32768	18104	4992	726	87	-1221	-26584	18160	17784	-1077	-2618	-928	123	93	2
-32768	32767	32767	4911	-3180	2341	-32768	16872	-8024	-10819	7505	-8109	-32768	-32768	-24720	-9318	4050	377	-29288	32344	31000	-1989	-6570	-722	-32768	11672	-7864	-452	-103	-875	-32768	32767	-4880	-932	-1324	-820	201	107	2
-28204	32767	32767	-276	759	242	32767	14088	-32768	-1707	5002	4837	-32768	32767	-8040	7093	-449	-2737	-32768	32767	21792	-4330	-6422	-608	-32768	31968	-22592	-1758	-2125	-941	-32768	18136	-25712	-4253	-2693	29	219	6	2
-7024	19184	17984	-802	1706	-936	5992	640	-13368	-418	5546	1907	32767	32767	-28888	269	3684	938	-28064	32767	17560	-5448	-6413	643	-32768	10080	-32200	-2956	-3588	-876	-32768	-3568	-17592	-5530	-5008	-1270	207	0	2
-23152	-13676	6152	-629	1723	1720	-32768	7920	-32768	-5351	-579	-1659	-32768	9424	-32768	-8079	1264	4166	-31000	24304	6024	-871	-6326	2759	-27672	8464	-31192	-1014	-5431	255	-32768	672	-26336	-2136	-4534	-1795	171	35	2
-17212	-14952	12492	-1409	2672	392	-8832	-32768	-30280	-3173	-851	-17	-32768	-32768	-32768	-3394	5476	2901	-32768	32767	560	1597	-6261	4403	-16688	22648	-32768	149	-5670	1414	-24064	2576	-27400	-424	-4108	-761	129	156	2
-12752	-13556	27080	-334	4892	2443	-30032	-32768	-5744	-323	-131	2000	-27416	-17000	736	-41	3716	2439	-32768	31520	-1768	-29	-5496	4825	-11624	21592	-30768	-1857	-5999	2309	-16736	25128	-22664	1107	-3847	6	134	203	2
-6088	-15728	32767	-716	7113	4100	-32768	-32768	13296	-1124	-194	2350	-32768	-15184	1848	-1848	4140	2836	-32768	21976	-1640	100	-4481	5179	-16456	9776	-27056	-3251	-5813	1933	-13640	22456	-28360	-2219	-2999	193	130	196	2
-12104	-12528	27224	-1361	8894	5010	-32768	-32768	31424	-1171	385	1089	-32768	-14344	32767	-1717	5028	1208	-32136	16112	1120	913	-3326	5551	-19104	3288	-30824	-3336	-5919	1790	9808	-10872	-22288	-5174	-3708	-49	138	188	2
-24680	-29888	29896	-3085	9395	5321	15264	-17000	29184	-2645	-1314	839	-14024	-11064	32767	-236	3367	772	-32768	6944	-800	1693	-2539	5497	-11128	-3672	-32768	-2339	-5543	2319	15728	-2936	-16792	-3100	-1619	-110	137	158	2
-32768	-27184	9384	-5791	9130	4758	-2360	-17680	4144	-3473	-449	701	-13672	-23304	32767	-1444	533	985	-32768	2032	-5808	2221	-2141	5335	-4288	-4720	-32768	-2144	-4800	2258	7840	-3368	-12640	-1527	-1309	-563	176	49	2
-32768	-11248	7840	-4051	5860	4002	-10112	-20376	-160	-4576	886	2148	-10120	-32768	30184	-234	-435	-194	-32768	-1280	-12512	1331	-1311	5164	-6840	-8128	-32768	-2082	-3816	1892	1856	-944	6128	535	-2473	-897	160	53	2
-32768	-32768	18928	-1545	3147	2965	-22528	-23304	-9152	-5100	1695	3312	-4824	-10408	17648	609	-605	-217	-32768	-16592	-23968	601	-751	4012	-1944	-10896	-32768	-630	-2712	1416	1984	3488	3040	2408	-2074	-363	134	82	2
-31200	-23564	21124	1781	1742	1958	-21728	-32768	12368	-1781	4219	2222	-9280	-5128	9872	733	-1126	532	-32768	-17904	-32488	865	-549	2101	5416	-6000	-32768	466	-780	1041	-3016	-4600	-1568	1935	-1246	516	95	138	2
-19864	-9340	25744	1737	2542	1842	-25000	-22488	23552	139	5862	1962	-6752	-5688	6320	2112	-1807	-293	-32768	-11856	-32384	1340	39	420	3064	-10560	-32768	545	1134	905	-1976	-14944	-1480	-612	778	1941	49	217	2
-20320	-11620	31164	327	3167	1858	-21120	-13072	20560	-859	5002	2213	-9360	5352	11872	2650	-2435	-383	-32768	-14072	-23752	2110	947	824	3832	-23000	-27224	-18	2009	989	13848	-5304	-21944	1011	3844	3135	59	128	2
-24992	-19836	32767	-184	2278	1795	-21000	-15976	15592	-2167	3667	1561	-16656	11304	11680	1589	-2548	-130	12824	-32768	-14240	2463	3110	1327	13752	-32768	7840	30	1550	930	10328	4592	-32768	8080	3888	518	71	189	2
-25032	-20668	32767	-150	2019	1767	-21840	-14392	12456	-2507	2340	808	-21568	14544	14080	-165	-2590	269	-32768	32767	32767	-11406	-4013	-11429	30832	-22496	-32768	-3328	1603	-129	32767	7968	32767	-825	-9258	306	95	253	2
-13380	-10848	32767	-438	-549	882	-24720	-5960	5248	-2098	1251	241	-32768	-21216	-3136	-2120	-2279	494	-32768	-32768	32767	-1835	-2536	-8655	-32768	-32768	32767	28937	15501	-8611	-32768	-32768	-21072	212	8605	-983	109	101	2
-12808	-20864	32767	-927	-1493	-481	-32768	-26608	3848	-1420	-655	596	-32768	-16896	-14000	1280	-2899	-463	2456	7352	9304	-187	1730	1507	32767	32767	-25176	2708	3485	-782	32767	-32768	-22152	2592	1827	3935	155	44	2
-12404	-23332	32767	1089	-4373	-1284	-18504	-24720	-7936	1250	-2008	-418	-32768	-1736	-18776	2718	-4731	-1768	-9984	-5416	17096	699	819	-1034	-22456	-32768	-23200	-1975	3849	-150	-9088	4944	-32768	6570	1301	1070	178	78	2
-13064	-1876	20468	409	-7177	-2815	-8280	2128	-11600	4078	-3220	-1819	-32768	432	-26192	1901	-5611	-709	-14624	15168	14440	576	1834	-874	-26280	14352	-21824	1129	2679	-163	-32768	32767	-32768	3216	4793	-1802	149	190	2
-14720	312	13260	-878	-7952	-3373	-14760	648	-8184	3814	-5282	-1414	-32768	5816	-32768	1027	-4987	-674	-14296	24472	16040	1060	2923	-1317	-32768	17336	-14680	2315	2214	-415	-32768	7736	-16704	-1915	4906	-855	39	253	2
-24380	-3268	14644	-1476	-8598	-3105	-8736	-5592	-32768	4901	-6952	-1477	-21472	4392	-32768	265	-5036	-312	-5792	8784	26848	532	5328	-1885	-32768	456	-9968	1522	1568	-1502	-32768	11768	-6648	316	4169	-1259	57	233	2
-30036	-5928	18200	-2251	-9142	-3465	-20984	-5432	-9152	3283	-8133	-2362	-10880	752	-32768	-78	-4393	321	-1608	7336	25688	565	7538	-2268	-32768	1592	1688	432	1209	-897	-32768	7848	1616	-1904	4742	787	64	253	2
-32408	-6620	17608	-2793	-9403	-3895	-22584	-6064	-10056	2381	-9311	-2685	-3984	11016	-30680	367	-3408	185	-3464	11040	22976	415	9362	-3612	-32768	6728	15432	-212	62	-489	-32768	-15968	20416	-2006	4907	1706	71	213	2
-32768	-3760	10192	-3223	-8818	-4136	-22448	-7960	-13936	1968	-8801	-3361	8096	3952	-27200	-655	-1823	193	-31608	14464	28440	773	10315	-4895	-32768	3888	21416	499	209	764	-32768	-28480	32767	-256	3702	1935	35	253	2
-32768	-1600	11992	-3098	-6895	-4137	-26512	-8816	-23504	2658	-7847	-4177	21424	5960	-25272	-286	-921	323	-32768	19736	23568	2465	9415	-4681	-17776	20568	17952	1911	264	-262	-12520	-1168	32767	241	698	-133	67	203	2
-32768	-1164	10872	-3101	-6079	-4315	-29872	-5160	-31792	3279	-6615	-4564	22832	7848	-25784	-24	-276	-136	-32768	17288	16144	4321	7316	-4343	-7872	9936	-2080	269	2174	-1082	-15240	11744	32767	-872	198	-212	97	157	2
-32768	388	8064	-2773	-4811	-5375	-32768	-856	-32768	3849	-5272	-4314	10976	8072	-14440	-869	50	765	-32768	32767	21168	1763	6689	-3173	-15512	2088	-3776	298	3583	-350	-8552	-5192	27848	-1787	191	-446	94	140	2
