#Activity	standing 
#ActivityID	8 
#Date 09-09-18-17
acc_rf_x	acc_rf_y	acc_rf_z	gyro_rf_x	gyro_rf_y	gyro_rf_z	acc_rs_x	acc_rs_y	acc_rs_z	gyro_rs_x	gyro_rs_y	gyro_rs_z	acc_rt_x	acc_rt_y	acc_rt_z	gyro_rt_x	gyro_rt_y	gyro_rt_z	acc_lf_x	acc_lf_y	acc_lf_z	gyro_lf_x	gyro_lf_y	gyro_lf_z	acc_ls_x	acc_ls_y	acc_ls_z	gyro_ls_x	gyro_ls_y	gyro_ls_z	acc_lt_x	acc_lt_y	acc_lt_z	gyro_lt_x	gyro_lt_y	gyro_lt_z	EMG_r	EMG_l	act
-11900	-2792	10288	-9	17	-14	-15560	-3504	-2680	-8	0	23	-15440	-376	-4992	21	-16	39	-12396	4500	10132	263	35	-66	-16272	-2656	-2008	371	3	294	-15952	1208	-3288	511	-49	227	125	127	8
-11952	-2980	10320	-4	18	-21	-15568	-3560	-2824	2	6	21	-15352	-536	-4808	14	-18	42	-12468	4544	10148	242	44	-54	-16340	-2612	-2032	398	-22	277	-15884	1196	-3452	568	-49	232	125	127	8
-11892	-2892	10304	-7	15	-16	-15664	-3536	-2752	-9	4	18	-15536	-336	-4640	20	-18	40	-12444	4492	10148	257	26	-65	-16284	-2624	-1940	405	-29	313	-15892	1292	-3452	636	-42	228	126	127	8
-11832	-2800	10260	-11	17	-11	-15392	-3672	-2736	-11	2	20	-15336	-360	-4976	25	-14	41	-12388	4460	10104	269	34	-77	-16304	-2588	-1912	367	-69	269	-15852	1260	-3360	564	-42	260	125	128	8
-11872	-2856	10324	-9	10	-13	-15608	-3680	-2600	9	8	21	-15288	-440	-4848	18	-13	44	-12380	4488	10128	257	33	-64	-16332	-2696	-2052	299	-58	326	-15920	1244	-3396	604	-60	249	125	127	8
-11896	-2800	10332	-10	19	-19	-15496	-3552	-2960	-1	8	17	-15472	-352	-4968	28	-8	46	-12448	4504	10196	256	0	-66	-16264	-2660	-1864	415	-151	314	-15908	1252	-3308	674	-101	257	125	127	8
-11912	-2740	10380	-9	13	-24	-15480	-3600	-2688	6	3	17	-15456	-392	-4808	27	-13	46	-12488	4492	10228	278	61	-45	-16240	-2652	-1876	465	-78	308	-15912	1300	-3352	692	-113	223	126	127	8
-11904	-2832	10308	-3	17	-24	-15576	-3424	-2840	12	4	18	-15512	-376	-5008	32	-17	45	-12448	4612	10236	296	90	-25	-16344	-2648	-1864	500	-94	303	-15928	1256	-3284	728	-83	239	125	127	8
-11864	-2852	10336	-13	15	-18	-15552	-3616	-2728	9	2	18	-15456	-336	-4768	34	-18	46	-12484	4544	10132	293	29	-38	-16412	-2584	-1876	531	-38	342	-15932	1308	-3188	758	-57	244	127	127	8
-11924	-2920	10356	-8	15	-22	-15528	-3488	-2888	1	3	20	-15568	-456	-4880	34	-19	41	-12400	4536	10064	327	58	-65	-16384	-2588	-1864	470	-130	289	-15912	1196	-3256	801	-81	213	127	127	8
-11864	-2900	10148	-11	15	-22	-15424	-3712	-2760	11	3	16	-15584	-296	-4888	34	-19	45	-12356	4628	10240	297	59	-14	-16292	-2632	-1944	484	18	321	-15856	1240	-3208	783	-95	219	126	127	8
-11896	-2832	10288	-2	14	-17	-15560	-3544	-2640	8	3	19	-15512	-304	-4968	31	-22	44	-12448	4588	10032	327	87	-30	-16308	-2616	-1800	493	-86	302	-15924	1316	-3304	790	-46	211	127	127	8
-11900	-2864	10368	-9	16	-16	-15504	-3504	-2688	4	0	17	-15456	-224	-4992	21	-24	46	-12420	4616	10120	333	85	-26	-16340	-2572	-1808	474	-44	273	-15900	1420	-3284	760	-63	208	126	127	8
-11856	-2788	10376	-10	15	-16	-15432	-3472	-2768	-1	0	13	-15496	-288	-4904	15	-24	38	-12480	4572	9980	304	101	-11	-16328	-2592	-1792	492	-94	314	-15812	1408	-3376	731	-29	228	126	127	8
-11936	-2800	10332	-6	14	-20	-15560	-3504	-3016	-5	-3	12	-15632	-264	-5112	14	-26	39	-12436	4600	10104	312	102	-24	-16348	-2580	-1960	386	-28	298	-15840	1312	-3308	733	-85	154	127	127	8
-11800	-2632	10428	-27	16	-11	-15512	-3496	-2752	4	0	13	-15512	-248	-5048	11	-19	34	-12464	4644	10072	285	148	-55	-16336	-2580	-1884	446	-69	287	-15948	1336	-3192	758	-95	205	127	127	8
-11900	-2828	10380	-15	13	-22	-15560	-3536	-2736	2	-3	13	-15464	-224	-5032	11	-24	35	-12392	4644	10080	300	119	-11	-16268	-2576	-1900	458	-130	267	-15888	1336	-3268	747	-155	186	127	127	8
-11868	-2824	10364	-12	15	-21	-15488	-3480	-2904	-7	-9	10	-15520	-336	-4968	13	-28	31	-12484	4532	10080	323	114	-12	-16304	-2612	-1888	416	-88	293	-15848	1360	-3188	761	-97	165	126	127	8
-11912	-2800	10412	-13	11	-23	-15464	-3552	-2744	1	-9	8	-15552	-264	-4632	14	-24	32	-12416	4708	10020	302	95	-46	-16340	-2568	-1816	437	-69	278	-15884	1396	-3316	766	-75	169	126	127	8
-11888	-2884	10356	-6	12	-24	-15424	-3584	-2680	-6	-8	11	-15432	-392	-4992	16	-33	33	-12484	4664	9956	324	97	-33	-16416	-2484	-1920	349	-59	272	-15884	1388	-3196	710	-103	198	127	127	8
-11892	-2820	10328	-8	12	-22	-15424	-3496	-2816	-1	-2	9	-15536	-272	-5000	17	-27	28	-12468	4620	10108	307	65	-34	-16392	-2540	-1884	340	-93	255	-15888	1388	-3184	678	-75	172	126	127	8
-11940	-2800	10372	-9	12	-21	-15568	-3424	-2648	1	-8	9	-15400	-256	-4696	16	-29	32	-12456	4680	10068	261	38	-9	-16292	-2540	-1848	356	-121	218	-15824	1404	-3236	637	-158	165	127	127	8
-11852	-2876	10304	-12	12	-27	-15544	-3520	-2504	10	-8	5	-15456	-160	-4864	20	-25	30	-12424	4684	10040	225	30	-85	-16328	-2560	-1680	345	-91	262	-15912	1392	-3292	573	-158	185	127	127	8
-11824	-2876	10288	-5	15	-19	-15528	-3496	-2752	7	-7	4	-15512	-184	-4888	13	-24	31	-12436	4712	9984	211	33	-54	-16380	-2504	-1720	303	-67	217	-15864	1380	-3292	542	-142	136	126	127	8
-11872	-2788	10364	-10	9	-21	-15528	-3536	-2864	13	-2	3	-15456	-400	-4824	16	-22	30	-12472	4752	10088	166	50	-76	-16384	-2476	-1772	284	-73	211	-15848	1456	-3192	482	-91	137	126	127	8
-11880	-2764	10344	-15	16	-26	-15552	-3416	-2792	12	-6	4	-15464	-352	-4656	18	-23	31	-12460	4688	10152	221	23	-105	-16328	-2604	-1828	244	-142	204	-15880	1424	-3268	460	-43	145	126	127	8
-11936	-2800	10400	-13	12	-20	-15488	-3408	-2760	-3	-11	1	-15584	-408	-4888	12	-28	29	-12484	4620	9972	207	58	-56	-16308	-2680	-1860	327	-72	222	-15932	1312	-3012	419	-78	124	126	128	8
-11900	-2900	10336	-18	15	-24	-15512	-3560	-2688	-6	-8	1	-15520	-160	-5024	12	-31	27	-12468	4680	10032	202	23	-76	-16296	-2512	-1740	328	-126	197	-15896	1388	-3096	380	-115	113	126	127	8
-11880	-2796	10288	-3	13	-24	-15560	-3560	-2760	-3	-10	-2	-15384	-352	-5000	9	-28	21	-12404	4688	9988	193	-12	-118	-16340	-2488	-1708	219	-43	229	-15896	1368	-3088	384	-79	119	126	127	8
-11872	-2848	10264	-5	17	-23	-15568	-3504	-2888	4	-7	0	-15560	-232	-4920	5	-26	24	-12424	4632	10056	182	-9	-74	-16348	-2548	-1892	70	-132	160	-15972	1416	-3304	318	-102	113	126	127	8
-11856	-2844	10384	-13	15	-25	-15496	-3408	-2768	-7	-14	-2	-15568	-304	-4736	4	-29	20	-12460	4744	10064	191	-7	-134	-16324	-2644	-1824	108	-114	180	-15928	1380	-3244	270	-62	78	126	127	8
-11940	-2808	10268	-11	17	-23	-15384	-3504	-2672	1	-12	3	-15424	-248	-4968	0	-28	18	-12496	4696	9948	173	-9	-77	-16304	-2532	-1784	186	-119	146	-15908	1388	-3280	251	-31	98	126	127	8
-11852	-2808	10320	-12	15	-18	-15400	-3560	-3088	-10	-13	-5	-15480	-224	-4712	1	-32	15	-12508	4696	10064	172	-54	-128	-16336	-2532	-1840	136	-94	151	-15852	1356	-3280	208	-132	65	126	127	8
-11916	-2824	10348	-10	14	-21	-15448	-3464	-2944	-4	-14	-5	-15376	-344	-4592	-4	-32	14	-12412	4748	10112	157	-10	-85	-16376	-2540	-1724	85	-106	145	-16000	1376	-3172	133	-75	41	126	127	8
-11852	-2820	10408	-9	17	-26	-15680	-3424	-2888	-12	-9	-4	-15456	-256	-4896	2	-35	13	-12384	4756	10024	156	5	-112	-16312	-2628	-1648	125	-82	153	-15884	1344	-3212	121	-77	46	126	127	8
-11924	-2828	10328	-7	16	-21	-15584	-3448	-2784	-7	-16	-7	-15520	-400	-5024	-5	-30	15	-12444	4732	9996	143	-13	-97	-16376	-2536	-1764	103	-128	142	-15976	1360	-3224	142	-56	31	126	127	8
-11860	-2864	10296	-14	17	-26	-15576	-3360	-2712	-5	-13	-6	-15384	-200	-4800	-15	-32	15	-12424	4704	10064	125	-30	-115	-16400	-2608	-1952	48	-164	136	-15896	1316	-3272	193	-83	34	127	127	8
-11880	-2816	10308	-13	12	-26	-15632	-3480	-2680	-7	-23	-5	-15496	-136	-4760	-6	-31	11	-12448	4668	10056	168	-62	-108	-16300	-2572	-1892	144	-78	139	-15848	1396	-3296	117	-41	46	127	127	8
-11924	-2852	10348	-9	16	-24	-15424	-3552	-2712	-8	-22	-9	-15576	-96	-5016	-5	-35	11	-12536	4672	9944	134	-64	-103	-16268	-2556	-1736	148	-112	146	-15900	1364	-3144	127	-131	35	127	127	8
-11904	-2728	10376	-17	15	-30	-15536	-3568	-2736	-4	-19	-8	-15488	-272	-4648	-6	-35	12	-12488	4644	10160	109	-19	-108	-16344	-2572	-1792	103	-139	119	-15912	1340	-3176	90	-145	45	126	127	8
-11896	-2780	10424	-13	13	-25	-15648	-3504	-2672	-6	-15	-10	-15608	-392	-4936	0	-28	8	-12460	4752	10112	90	-76	-134	-16332	-2564	-1832	18	-127	135	-15948	1344	-3204	42	-46	24	126	126	8
-11884	-2784	10352	-13	16	-24	-15544	-3456	-2568	-3	-21	-10	-15528	-304	-4624	0	-33	13	-12436	4732	10032	80	-76	-125	-16360	-2580	-1880	-17	-141	111	-15936	1364	-3296	-65	-40	23	125	126	8
-11844	-2860	10348	-12	8	-24	-15536	-3480	-2704	-6	-17	-9	-15632	-440	-4824	0	-33	16	-12392	4680	10076	113	-64	-130	-16312	-2616	-1800	24	-196	105	-15924	1348	-3256	-31	-52	38	125	126	8
-11812	-2800	10320	-10	12	-29	-15632	-3496	-2768	-3	-19	-10	-15560	-352	-4752	-3	-33	10	-12468	4668	10088	85	-49	-121	-16388	-2588	-1756	90	-121	135	-15940	1320	-3140	-28	-88	26	126	126	8
-11852	-2860	10304	-15	13	-24	-15712	-3552	-2592	-12	-20	-11	-15480	-192	-4656	-3	-36	12	-12476	4668	10008	51	-133	-152	-16304	-2516	-1876	69	-135	110	-15880	1352	-3192	12	-87	22	126	125	8
-11828	-2800	10308	-12	10	-25	-15512	-3624	-2736	-3	-20	-9	-15432	-256	-4760	-9	-33	9	-12416	4700	10044	76	-81	-104	-16376	-2580	-1788	16	-150	101	-15844	1320	-3132	18	-86	64	125	126	8
-11884	-2756	10336	-10	13	-24	-15664	-3504	-2720	-4	-20	-12	-15344	-360	-4712	0	-36	10	-12372	4648	9996	60	-55	-98	-16400	-2576	-1792	24	-141	131	-15892	1256	-3192	24	-81	19	126	125	8
-11876	-2844	10296	-9	9	-23	-15552	-3480	-2648	8	-19	-10	-15496	-280	-4704	-1	-35	8	-12504	4616	10032	122	-112	-92	-16228	-2576	-1928	129	-140	142	-15932	1332	-3268	64	-77	20	127	125	8
-11872	-2860	10392	-10	13	-21	-15464	-3544	-2592	-5	-24	-11	-15584	-408	-4592	1	-36	3	-12436	4728	10072	80	-75	-86	-16332	-2600	-1760	173	-135	106	-15888	1216	-3100	73	-53	18	125	125	8
-11860	-2788	10452	-11	13	-25	-15680	-3672	-2560	-4	-19	-8	-15528	-400	-4672	-6	-37	8	-12464	4708	10136	85	-135	-97	-16396	-2568	-1768	244	-116	116	-15984	1340	-2972	82	-55	17	125	125	8
-11884	-2832	10404	-11	16	-22	-15616	-3520	-2736	-15	-24	-8	-15488	-336	-4528	-11	-36	8	-12416	4712	10116	101	-107	-109	-16276	-2656	-1716	119	-104	94	-15888	1264	-3068	86	-22	17	125	125	8
-11832	-2772	10308	-11	15	-22	-15488	-3568	-2480	-16	-27	-12	-15632	-376	-4448	-10	-36	11	-12348	4672	10056	101	-52	-47	-16288	-2632	-1752	71	-118	114	-15948	1264	-3020	159	-39	14	125	124	8
-11880	-2840	10392	-8	14	-25	-15488	-3600	-2496	-22	-21	-7	-15624	-160	-4592	-10	-36	9	-12480	4644	9972	161	-69	-70	-16352	-2624	-1692	121	-86	141	-15936	1280	-3224	280	-36	-2	126	124	8
-11896	-2804	10320	-11	13	-25	-15640	-3488	-2480	-13	-15	-7	-15720	-264	-4760	-13	-37	9	-12476	4704	10088	131	-22	-82	-16380	-2584	-1760	247	-60	183	-15964	1308	-3108	261	-91	25	125	124	8
-11888	-2808	10376	-7	17	-23	-15520	-3464	-2728	-9	-18	-6	-15640	-360	-4568	-13	-34	10	-12440	4688	10096	154	-37	-92	-16284	-2564	-1740	241	-85	161	-15884	1248	-3076	226	-84	56	126	123	8
-11864	-2852	10464	-11	18	-21	-15640	-3536	-2608	-13	-15	-3	-15608	-384	-4736	-14	-32	10	-12388	4728	10024	160	-7	-93	-16280	-2656	-1680	145	-73	140	-15856	1356	-3132	207	-78	27	126	123	8
-11936	-2804	10360	-13	14	-25	-15376	-3472	-2456	-6	-14	-3	-15512	-360	-4600	-12	-33	12	-12436	4760	10172	143	-15	-52	-16348	-2564	-1604	146	-97	145	-15920	1328	-3224	260	-58	22	125	123	8
-11884	-2752	10344	-12	17	-24	-15464	-3368	-2640	-4	-16	-4	-15528	-512	-4640	-14	-36	16	-12420	4640	10076	123	-8	-50	-16360	-2552	-1736	100	-34	152	-15964	1412	-3156	254	-47	49	125	123	8
-11916	-2816	10328	-13	14	-25	-15488	-3488	-2568	-17	-17	-7	-15632	-480	-4792	-5	-31	13	-12460	4696	10060	153	-5	-72	-16316	-2644	-1680	68	-127	159	-15948	1328	-3164	160	-78	64	126	123	8
-11900	-2832	10432	-12	11	-23	-15448	-3480	-2648	-8	-14	-3	-15608	-336	-4712	4	-31	13	-12416	4672	10012	122	-27	-57	-16284	-2596	-1660	180	-36	205	-15960	1344	-3052	226	-61	66	126	123	8
-11904	-2848	10472	-9	13	-20	-15416	-3480	-2640	1	-10	-1	-15640	-440	-4512	5	-30	11	-12380	4720	10044	154	-30	-91	-16352	-2552	-1580	196	-58	212	-15972	1324	-3128	264	-88	87	126	123	8
-11912	-2840	10292	-11	16	-23	-15656	-3408	-2840	1	-10	-2	-15632	-336	-4568	8	-30	18	-12424	4720	10040	138	-31	-94	-16324	-2592	-1636	124	-53	196	-15944	1376	-2956	297	-81	56	125	123	8
-11908	-2844	10340	-9	15	-27	-15552	-3496	-2512	-2	-10	-6	-15592	-408	-4344	4	-27	20	-12420	4772	10012	138	-19	-94	-16284	-2528	-1704	95	-64	168	-15960	1384	-2992	291	-126	52	126	123	8
-11884	-2884	10504	-9	16	-23	-15624	-3472	-2600	-10	-14	-3	-15584	-208	-4400	3	-23	21	-12448	4760	10004	128	-13	-130	-16316	-2616	-1612	183	-70	162	-15912	1368	-3096	250	-56	77	126	123	8
-11888	-2760	10292	-11	16	-21	-15448	-3600	-2624	7	-5	-2	-15328	-288	-4536	1	-16	17	-12432	4692	10064	128	-19	-107	-16364	-2556	-1688	235	-68	187	-15880	1392	-3076	208	-51	86	125	123	8
-11868	-2840	10448	-7	14	-23	-15552	-3464	-2272	8	-8	-5	-15656	-296	-4752	-1	-23	19	-12388	4704	9988	150	-9	-122	-16436	-2612	-1712	131	-30	162	-15872	1360	-3232	202	-19	39	125	123	8
-11936	-2820	10288	-14	18	-21	-15560	-3488	-2744	-1	-12	-2	-15624	-328	-4712	4	-23	20	-12372	4752	10060	161	13	-135	-16356	-2688	-1800	121	-27	151	-16056	1316	-3072	209	-45	64	126	123	8
-11844	-2808	10360	-14	14	-25	-15528	-3400	-2536	-16	-8	0	-15592	-384	-4792	-1	-22	19	-12408	4688	10096	149	33	-100	-16296	-2600	-1676	127	-14	181	-15984	1380	-3020	181	-20	40	125	123	8
-11872	-2832	10396	-11	14	-23	-15656	-3656	-2552	-8	-7	-3	-15424	-352	-4712	-2	-24	17	-12392	4684	10100	189	-14	-100	-16400	-2512	-1588	-8	2	164	-15900	1376	-3188	176	-30	82	125	123	8
-11856	-2812	10444	-10	16	-24	-15584	-3496	-2704	1	-4	0	-15608	-264	-4680	2	-18	17	-12420	4712	10000	165	-16	-114	-16388	-2520	-1568	52	-15	160	-15944	1404	-3092	188	9	70	126	123	8
-11888	-2860	10340	-10	15	-23	-15528	-3448	-2936	-3	-5	-7	-15528	-272	-4576	7	-23	16	-12480	4728	9980	140	-9	-134	-16260	-2516	-1840	135	-7	189	-15872	1388	-3164	217	8	76	126	123	8
-11848	-2852	10356	-8	16	-22	-15568	-3552	-2656	-4	-4	-8	-15600	-256	-4576	-2	-18	18	-12436	4696	10048	141	-26	-87	-16368	-2556	-1816	157	-20	159	-15928	1356	-3068	201	-20	49	126	123	8
-11920	-2788	10336	-13	17	-25	-15536	-3528	-2704	-1	-6	0	-15664	-248	-4520	-6	-20	20	-12460	4652	10048	112	-15	-87	-16296	-2576	-1740	158	-30	157	-16008	1360	-3048	173	-20	45	125	124	8
-11916	-2780	10424	-14	15	-23	-15624	-3528	-2728	0	-3	-6	-15648	-464	-4400	2	-15	23	-12344	4740	10052	142	-35	-116	-16372	-2620	-1632	70	-53	182	-15920	1336	-3112	196	-30	57	125	124	8
-11880	-2812	10344	-13	19	-24	-15520	-3336	-2456	1	0	2	-15648	-392	-4504	2	-10	20	-12492	4720	10112	117	-50	-134	-16404	-2612	-1728	61	-44	182	-15932	1340	-3056	175	15	20	126	123	8
-11876	-2764	10420	-8	18	-22	-15480	-3552	-2704	-1	-1	-3	-15600	-440	-4520	4	-13	19	-12444	4728	10024	140	-21	-108	-16356	-2564	-1596	80	17	142	-15964	1368	-3144	181	48	63	126	123	8
-11816	-2820	10440	-10	11	-24	-15472	-3448	-2800	-2	3	-1	-15488	-304	-4592	10	-12	22	-12420	4708	10200	141	-40	-126	-16380	-2500	-1752	7	11	137	-15920	1352	-3148	180	105	84	126	123	8
-11880	-2812	10320	-12	15	-25	-15536	-3464	-2840	2	-1	-1	-15512	-408	-4472	13	-10	23	-12456	4672	10004	122	8	-160	-16376	-2624	-1780	92	39	161	-15964	1300	-3180	183	71	60	127	123	8
-11860	-2836	10312	-12	18	-24	-15528	-3600	-2720	3	-2	1	-15576	-272	-4704	5	-8	27	-12400	4680	10092	164	39	-148	-16336	-2520	-1788	88	27	169	-15956	1352	-3132	170	63	50	127	123	8
-11844	-2784	10272	-10	17	-25	-15536	-3496	-2640	0	0	-7	-15496	-344	-4592	7	-10	26	-12456	4724	10140	139	-26	-149	-16308	-2516	-1648	79	30	167	-15932	1344	-3188	205	71	73	127	123	8
-11924	-2844	10356	-13	16	-22	-15632	-3456	-2648	5	1	-4	-15544	-280	-4792	6	-13	21	-12440	4716	10104	137	19	-168	-16360	-2552	-1824	71	28	165	-15920	1404	-3260	179	18	28	126	123	8
-11820	-2836	10444	-5	14	-25	-15496	-3600	-2592	1	0	3	-15696	-392	-4896	5	-13	20	-12440	4724	10000	142	21	-127	-16312	-2576	-1740	69	-39	195	-15852	1368	-3140	170	6	59	126	122	8
-11900	-2816	10420	-12	16	-25	-15504	-3448	-2416	1	-3	-1	-15528	-416	-4584	3	-18	22	-12396	4672	10128	132	9	-117	-16336	-2568	-1752	76	21	188	-15892	1308	-3168	144	69	41	126	122	8
-11832	-2732	10440	-16	18	-24	-15584	-3392	-2728	-1	-6	0	-15472	-192	-4600	-3	-14	22	-12456	4740	10032	157	-11	-123	-16400	-2568	-1700	66	6	109	-15928	1312	-3152	167	24	33	126	123	8
-11892	-2784	10428	-15	16	-23	-15568	-3456	-2952	-4	-6	-5	-15496	-192	-4560	-11	-13	20	-12420	4720	10048	149	-9	-100	-16316	-2604	-1600	59	-12	197	-15968	1332	-3264	168	14	40	127	122	8
-11900	-2776	10372	-10	18	-22	-15552	-3504	-2840	-10	-6	-4	-15512	-240	-4688	2	-14	18	-12404	4672	10080	135	-5	-126	-16328	-2504	-1692	100	-10	202	-15920	1312	-3120	147	-1	70	127	123	8
-11868	-2836	10336	-9	17	-20	-15520	-3424	-2504	-5	-9	-4	-15600	-232	-4568	-1	-17	21	-12408	4720	10064	168	20	-77	-16356	-2512	-1692	96	-27	188	-15868	1304	-3152	176	-5	61	127	123	8
-11868	-2784	10340	-12	17	-25	-15432	-3320	-2632	-6	-4	-1	-15568	-424	-4464	7	-21	19	-12416	4712	10064	141	29	-116	-16368	-2556	-1672	61	-45	194	-15932	1320	-3172	168	-17	59	126	123	8
-11808	-2816	10352	-10	17	-22	-15720	-3520	-2784	4	1	-4	-15600	-480	-4552	2	-18	22	-12412	4704	10004	172	14	-114	-16356	-2576	-1788	52	-9	192	-15988	1308	-3196	185	8	63	127	123	8
-11868	-2784	10308	-10	16	-26	-15600	-3592	-2504	-3	-8	1	-15552	-376	-4704	6	-16	24	-12460	4668	10080	135	22	-129	-16328	-2584	-1656	119	-16	177	-15872	1356	-3076	227	19	44	127	123	8
-11904	-2792	10444	-13	20	-24	-15504	-3304	-2744	0	-1	-3	-15528	-480	-4672	4	-13	26	-12464	4740	10048	147	-15	-140	-16400	-2476	-1616	11	-28	164	-15896	1360	-3164	224	30	93	127	124	8
-11872	-2784	10364	-7	17	-24	-15632	-3504	-2320	6	-1	2	-15552	-232	-4472	6	-15	25	-12396	4708	10112	178	14	-155	-16380	-2528	-1660	91	-56	210	-15960	1372	-3128	166	3	77	126	124	8
-11860	-2812	10284	-10	14	-22	-15544	-3480	-2752	6	2	1	-15568	-360	-4704	5	-18	22	-12436	4692	10068	154	64	-121	-16292	-2644	-1680	135	21	201	-15948	1396	-3084	204	9	74	126	124	8
-11828	-2836	10392	-8	14	-23	-15544	-3472	-2504	-3	-2	-1	-15504	-336	-4576	6	-17	24	-12372	4700	10004	174	43	-95	-16328	-2548	-1656	136	-10	207	-16052	1296	-3068	214	-19	95	126	125	8
-11848	-2796	10360	-12	15	-20	-15632	-3528	-2384	0	2	5	-15544	-336	-4656	5	-18	25	-12404	4712	10056	145	-49	-127	-16388	-2548	-1680	95	-6	202	-15944	1360	-3212	196	-27	75	127	126	8
-11820	-2800	10344	-10	16	-15	-15624	-3440	-2536	9	-1	2	-15648	-400	-4784	5	-13	28	-12416	4712	10036	159	-14	-142	-16340	-2632	-1728	53	-59	196	-15920	1304	-3152	178	4	91	127	126	8
-11896	-2836	10280	-13	15	-21	-15536	-3464	-2872	3	-2	4	-15608	-264	-4592	7	-11	30	-12492	4724	10040	143	31	-107	-16316	-2532	-1820	86	17	250	-16004	1264	-3080	207	10	110	127	126	8
-11900	-2724	10304	-7	11	-29	-15696	-3528	-2624	-1	-4	0	-15624	-208	-4648	10	-15	32	-12420	4628	10092	190	-29	-89	-16360	-2560	-1828	93	9	227	-15916	1308	-3172	267	20	76	126	126	8
-11856	-2892	10372	-9	13	-22	-15632	-3488	-2688	-2	-5	-1	-15504	-320	-4672	9	-18	30	-12420	4704	10008	192	-6	-72	-16344	-2560	-1732	190	58	233	-15948	1376	-3196	317	-41	98	125	126	8
-11888	-2848	10356	-11	13	-21	-15584	-3456	-2600	0	-3	4	-15392	-240	-4536	8	-23	28	-12440	4764	9976	200	27	-103	-16448	-2556	-1764	155	23	223	-15932	1368	-3116	337	-56	133	126	126	8
-11916	-2840	10428	-11	16	-25	-15520	-3344	-2728	3	0	7	-15576	-232	-4824	5	-21	25	-12444	4732	10016	231	57	-95	-16360	-2572	-1812	159	19	241	-15968	1272	-3052	348	-25	106	126	126	8
-11924	-2796	10376	-12	16	-21	-15552	-3416	-2528	4	-7	5	-15608	-256	-4544	2	-16	26	-12416	4680	9940	204	79	-57	-16384	-2524	-1740	125	8	236	-15884	1244	-3148	405	-69	113	126	126	8
-11776	-2900	10432	-7	15	-23	-15608	-3368	-2824	-4	-7	4	-15488	-288	-4680	-8	-14	29	-12420	4704	9976	249	58	-47	-16428	-2616	-1736	189	41	256	-15948	1360	-3192	456	-30	119	126	126	8
-11904	-2828	10388	-10	18	-24	-15624	-3392	-2640	-9	-9	4	-15512	-216	-4664	-9	-10	28	-12412	4764	9932	264	63	-67	-16412	-2472	-1748	222	-14	208	-15928	1424	-3236	473	-35	142	126	126	8
-11920	-2904	10404	-16	17	-23	-15528	-3416	-2592	-3	-8	1	-15568	-184	-4432	-5	-18	25	-12400	4752	9980	271	62	-51	-16308	-2476	-1748	216	51	220	-15916	1432	-3252	461	-8	97	125	126	8
-11876	-2852	10340	-6	17	-22	-15648	-3480	-2488	-7	-8	8	-15648	-208	-4560	0	-25	23	-12416	4728	9932	269	79	-99	-16408	-2564	-1876	270	54	227	-15968	1428	-3272	499	-14	112	126	126	8
-11920	-2808	10396	-9	16	-26	-15576	-3568	-2416	-7	-6	0	-15592	-384	-4392	-6	-33	24	-12504	4760	10088	265	49	-52	-16328	-2484	-1724	279	42	259	-15984	1432	-3148	427	-66	100	126	126	8
-11956	-2808	10432	-12	15	-24	-15640	-3408	-2504	-1	-6	3	-15496	-200	-4440	-3	-22	24	-12452	4792	10084	233	42	-46	-16352	-2532	-1752	177	-7	220	-15864	1380	-3124	389	-58	75	126	126	8
-11848	-2808	10336	-8	17	-22	-15664	-3424	-2800	-4	-8	5	-15560	-384	-4800	2	-15	26	-12436	4800	10124	243	16	-70	-16360	-2496	-1668	170	35	219	-15928	1400	-3028	382	-57	114	125	127	8
-11844	-2808	10392	-10	14	-26	-15608	-3496	-2400	4	-1	7	-15504	-344	-4720	-5	-14	27	-12476	4820	10028	236	53	-54	-16396	-2496	-1780	202	-39	232	-15892	1360	-3024	399	4	70	124	126	8
-11884	-2756	10328	-12	20	-28	-15544	-3280	-2816	3	-7	3	-15608	-160	-4776	-2	-18	31	-12420	4784	10048	247	78	-71	-16320	-2460	-1708	356	-4	261	-15932	1420	-3112	394	-54	108	125	127	8
-11844	-2776	10228	-10	13	-24	-15424	-3416	-2760	-7	-7	3	-15512	-328	-4608	5	-21	24	-12440	4768	9932	189	20	-46	-16356	-2508	-1788	286	3	270	-15896	1532	-3028	395	-44	108	126	127	8
-11856	-2788	10340	-10	14	-22	-15464	-3360	-2760	-10	-10	0	-15616	-240	-4664	3	-23	25	-12428	4776	9980	174	-24	-84	-16336	-2264	-1764	55	7	220	-15916	1564	-3084	280	6	98	127	127	8
-11872	-2832	10372	-11	14	-25	-15664	-3472	-2456	3	-11	0	-15664	-272	-4672	-3	-26	20	-12456	4844	9968	157	15	-87	-16312	-2496	-1732	60	-29	179	-15892	1432	-3076	262	-3	132	126	127	8
-11880	-2772	10380	-10	11	-20	-15608	-3456	-2672	8	-6	2	-15552	-248	-4704	-4	-20	24	-12472	4672	9980	164	2	-129	-16404	-2504	-1840	217	14	243	-16020	1440	-3148	212	28	61	125	127	8
-11892	-2744	10336	-7	16	-26	-15648	-3480	-2504	-10	-8	-2	-15624	-320	-4448	-7	-17	23	-12464	4840	9972	165	-60	-105	-16404	-2364	-1632	171	13	211	-15932	1416	-3008	208	-36	19	124	127	8
-11864	-2816	10360	-10	16	-21	-15600	-3432	-2424	-6	-12	-1	-15496	-152	-4552	-7	-21	22	-12456	4820	10008	167	30	-79	-16376	-2388	-1776	9	2	200	-15924	1440	-3064	171	-24	68	124	127	8
-11880	-2796	10348	-8	16	-25	-15696	-3352	-2552	-4	-10	-3	-15488	-200	-4592	-4	-23	23	-12428	4764	10004	146	28	-129	-16316	-2536	-1644	9	-34	187	-15864	1364	-3104	132	-26	37	125	128	8
-11876	-2868	10396	-11	17	-22	-15448	-3400	-2680	-2	-8	-4	-15472	-208	-4832	-10	-25	17	-12444	4748	9952	133	48	-155	-16348	-2520	-1764	33	-47	215	-15932	1352	-3216	186	-26	73	125	128	8
-11896	-2832	10408	-12	17	-22	-15640	-3424	-2536	-8	-15	4	-15576	-152	-4480	-15	-22	20	-12428	4860	9972	175	75	-69	-16344	-2440	-1732	153	-61	222	-15972	1408	-3144	226	2	45	126	127	8
-11900	-2800	10360	-11	16	-21	-15584	-3336	-2704	-15	-9	-1	-15504	-320	-4672	-10	-20	16	-12404	4844	9876	157	-27	-112	-16324	-2428	-1680	178	-10	174	-15940	1444	-3040	234	-34	56	126	127	8
-11872	-2784	10292	-7	17	-25	-15576	-3376	-2720	0	-7	0	-15536	-176	-4536	-8	-25	13	-12504	4844	10008	153	32	-94	-16472	-2464	-1796	15	10	178	-15984	1396	-3124	203	-29	85	125	128	8
-11884	-2784	10324	-9	18	-20	-15560	-3368	-2952	0	-11	-1	-15432	-304	-4696	-2	-23	13	-12364	4752	9952	160	27	-87	-16364	-2484	-1836	45	-48	170	-15900	1472	-3108	161	-64	81	124	128	8
-11872	-2764	10392	-8	16	-25	-15632	-3368	-2488	-9	-11	0	-15504	-184	-4512	-6	-24	20	-12416	4796	9944	159	-11	-114	-16396	-2456	-1700	123	-50	182	-15868	1464	-3156	222	-39	10	124	128	8
-11896	-2780	10464	-10	17	-27	-15600	-3368	-2552	-4	-14	-5	-15512	-264	-4544	-2	-24	18	-12500	4780	9984	124	-28	-116	-16384	-2516	-1820	147	-31	187	-15908	1452	-3196	192	-35	36	125	128	8
-11916	-2808	10276	-8	17	-23	-15432	-3360	-2800	-4	-14	-6	-15640	-240	-4576	-4	-24	17	-12440	4756	10036	139	-20	-104	-16352	-2436	-1824	70	-52	170	-15900	1396	-3208	169	-12	37	125	128	8
-11916	-2804	10440	-15	13	-24	-15576	-3312	-2752	-7	-11	-9	-15432	-184	-4624	-5	-24	15	-12436	4796	9972	121	3	-123	-16340	-2556	-1680	17	-86	145	-15920	1364	-3152	155	6	23	125	128	8
-11920	-2804	10388	-9	15	-24	-15608	-3288	-2728	-10	-6	-9	-15552	-168	-4592	-5	-21	19	-12416	4812	9908	189	-23	-112	-16324	-2436	-1800	86	-56	174	-15960	1428	-3028	238	-60	46	124	128	8
-11884	-2804	10460	-12	14	-22	-15608	-3432	-2784	-3	-4	-6	-15616	-224	-4544	1	-24	15	-12436	4848	9896	110	3	-111	-16392	-2444	-1760	109	-15	177	-15928	1468	-3172	260	-45	54	126	128	8
-11860	-2772	10388	-11	16	-24	-15432	-3328	-2728	1	-9	-4	-15608	-136	-4672	4	-21	15	-12392	4808	9932	153	-17	-126	-16352	-2492	-1708	154	-29	172	-15952	1428	-3084	186	-36	39	125	128	8
-11880	-2808	10420	-14	15	-31	-15528	-3440	-2768	1	-8	-11	-15608	-240	-4512	3	-24	12	-12468	4792	9984	142	-21	-118	-16356	-2468	-1696	43	-32	143	-15868	1340	-3292	206	-4	6	124	128	8
-11860	-2820	10452	-10	17	-26	-15560	-3392	-2640	-6	-5	-10	-15616	-208	-4440	3	-27	14	-12512	4776	10040	151	-50	-155	-16384	-2476	-1768	49	-81	130	-15924	1408	-3232	225	-20	36	124	128	8
-11848	-2772	10420	-12	15	-25	-15600	-3368	-2480	-1	-4	-5	-15648	-168	-4560	2	-20	16	-12472	4780	9836	104	13	-84	-16400	-2388	-1800	87	-73	159	-15876	1492	-3244	249	-35	17	124	128	8
-11872	-2844	10368	-13	11	-23	-15624	-3376	-2592	-2	-6	-9	-15576	-304	-4440	3	-22	16	-12480	4724	9960	107	-36	-128	-16284	-2476	-1780	139	-65	113	-15896	1472	-3068	209	-109	37	124	128	8
-11868	-2744	10424	-12	17	-26	-15520	-3488	-2704	-3	-10	-3	-15472	-128	-4552	3	-21	14	-12424	4780	9960	103	3	-143	-16396	-2444	-1832	100	-57	97	-15924	1480	-3140	152	-63	9	124	128	8
-11916	-2860	10352	-14	17	-23	-15576	-3368	-2520	-3	-15	-9	-15616	-184	-4648	2	-22	9	-12440	4784	9868	106	-11	-127	-16380	-2480	-1752	85	-82	90	-15960	1432	-3080	153	-64	-3	123	128	8
-11884	-2776	10424	-14	14	-26	-15568	-3344	-2472	-8	-8	-13	-15736	-256	-4392	7	-29	14	-12484	4820	9972	97	-44	-137	-16420	-2504	-1756	88	-134	122	-15932	1392	-3008	122	-3	-4	124	129	8
-11888	-2792	10224	-14	13	-27	-15656	-3376	-2552	1	-6	-16	-15568	-104	-4576	-4	-21	12	-12488	4724	9968	117	-38	-76	-16320	-2492	-1700	64	-112	146	-15904	1448	-3152	160	-44	3	124	129	8
-11888	-2760	10344	-10	12	-28	-15640	-3304	-2592	-5	-11	-6	-15584	-304	-4536	-2	-25	12	-12444	4828	9928	124	-61	-114	-16324	-2428	-1704	105	-122	147	-15992	1388	-3008	212	-32	11	124	128	8
-11884	-2820	10388	-6	14	-26	-15576	-3400	-2352	-13	-11	-10	-15640	-288	-4528	-1	-25	4	-12368	4752	9948	132	-22	-105	-16368	-2476	-1680	162	-39	112	-15920	1460	-2936	189	-35	17	125	128	8
-11892	-2768	10296	-14	15	-25	-15584	-3408	-2488	-2	-5	-12	-15608	-296	-4648	7	-22	14	-12500	4844	9964	68	-31	-140	-16364	-2420	-1760	142	-65	101	-15896	1452	-3196	233	-34	50	125	128	8
-11908	-2844	10396	-7	17	-23	-15648	-3336	-2592	10	-7	-14	-15616	-208	-4664	7	-23	10	-12452	4808	10000	134	-44	-150	-16416	-2444	-1844	80	-71	95	-15920	1364	-3144	248	-49	-11	124	128	8
-11908	-2764	10352	-10	17	-25	-15712	-3544	-2448	-1	-9	-14	-15608	-184	-4440	8	-16	12	-12468	4768	9972	108	-27	-112	-16332	-2500	-1692	125	-119	64	-15888	1416	-3188	165	-11	-7	125	128	8
-11864	-2824	10344	-13	18	-26	-15424	-3352	-2552	1	-7	-9	-15544	-280	-4376	10	-21	12	-12416	4712	9964	103	-39	-127	-16356	-2420	-1608	144	-113	94	-15968	1440	-3176	214	-83	24	124	128	8
-11928	-2892	10316	-10	18	-30	-15608	-3312	-2664	-8	-8	-14	-15632	-232	-4296	5	-23	11	-12404	4796	10076	101	-91	-112	-16372	-2468	-1704	138	-117	76	-15980	1428	-3052	217	-62	-24	124	128	8
-11860	-2852	10380	-12	16	-28	-15504	-3440	-2592	0	-1	-12	-15680	-288	-4768	8	-19	14	-12416	4792	9932	88	-87	-131	-16356	-2384	-1728	88	-74	71	-15944	1452	-2988	189	-48	-2	123	128	8
-11864	-2716	10396	-12	19	-24	-15672	-3496	-2384	7	-1	-8	-15632	-224	-4504	5	-14	12	-12448	4808	9956	84	12	-156	-16340	-2512	-1708	68	-58	55	-15996	1396	-2932	140	-4	4	123	127	8
-11836	-2840	10308	-9	16	-22	-15608	-3400	-2728	-1	-4	-15	-15544	-288	-4656	3	-11	11	-12408	4812	9864	88	2	-132	-16304	-2524	-1816	74	-88	112	-15992	1400	-2968	108	26	-12	125	128	8
-11856	-2844	10412	-8	21	-24	-15496	-3368	-2632	-3	-4	-13	-15464	-160	-4528	4	-16	13	-12512	4768	9964	105	-37	-135	-16368	-2572	-1728	100	-41	90	-15912	1356	-3184	105	18	4	126	128	8
-11844	-2764	10312	-13	14	-25	-15648	-3440	-2560	0	-1	-13	-15528	-296	-4608	4	-23	10	-12460	4776	9976	80	-83	-133	-16320	-2396	-1712	111	-27	102	-15896	1440	-3216	88	10	-3	126	128	8
-11852	-2796	10360	-13	14	-25	-15696	-3464	-2512	3	-5	-12	-15536	-336	-4584	8	-23	10	-12444	4800	9948	87	-76	-138	-16424	-2440	-1720	80	-57	65	-15960	1420	-3124	89	-26	-7	125	128	8
-11884	-2748	10388	-11	15	-21	-15656	-3336	-2528	-4	-2	-13	-15720	-264	-4560	3	-23	11	-12436	4772	10024	108	-57	-97	-16340	-2492	-1704	77	-101	72	-15972	1380	-3148	65	-9	-8	125	128	8
-11860	-2716	10412	-12	12	-26	-15632	-3320	-2672	1	-9	-15	-15584	-312	-4600	6	-20	12	-12460	4844	10120	103	-71	-111	-16316	-2544	-1784	91	-60	80	-15868	1340	-3212	65	-31	-39	124	128	8
-11884	-2788	10348	-10	17	-26	-15536	-3432	-2592	-6	-6	-13	-15512	-248	-4704	9	-19	10	-12436	4776	9936	96	-51	-150	-16448	-2464	-1692	139	-66	73	-15984	1380	-3032	114	5	4	124	128	8
-11852	-2848	10344	-14	13	-25	-15696	-3360	-2672	-2	-6	-14	-15440	-152	-4392	3	-18	9	-12376	4836	9960	101	-31	-130	-16360	-2488	-1556	78	-91	99	-15960	1416	-3056	57	-22	-11	124	128	8
-11904	-2812	10328	-8	12	-22	-15608	-3408	-2688	8	-7	-11	-15520	-296	-4624	4	-20	11	-12416	4824	9984	93	-54	-126	-16304	-2552	-1732	52	-94	58	-15984	1308	-3076	43	-20	-27	124	127	8
-11896	-2808	10352	-11	11	-23	-15584	-3272	-2504	-1	-9	-11	-15664	-296	-4704	9	-19	10	-12452	4780	10020	90	-39	-133	-16348	-2564	-1684	33	-71	74	-15936	1268	-2952	100	11	-20	123	128	8
-11852	-2792	10380	-10	13	-28	-15624	-3480	-2624	5	-8	-12	-15544	-392	-4464	6	-20	12	-12404	4708	10084	54	-35	-126	-16388	-2532	-1696	92	-116	54	-16008	1300	-3020	111	22	-32	124	128	8
-11864	-2816	10308	-12	13	-29	-15624	-3368	-2504	-4	-7	-12	-15648	-520	-4664	3	-21	16	-12452	4824	10008	134	-74	-140	-16340	-2548	-1620	164	-69	104	-15968	1284	-2928	195	0	-43	125	128	8
-11804	-2772	10384	-11	12	-24	-15712	-3392	-2552	-4	-5	-12	-15560	-328	-4560	6	-15	9	-12444	4828	9928	94	-43	-119	-16340	-2452	-1676	186	-86	101	-16068	1372	-3144	217	-52	-4	126	128	8
-11912	-2772	10400	-10	15	-27	-15632	-3576	-2432	2	-5	-11	-15616	-376	-4440	3	-18	14	-12488	4744	9984	109	-59	-121	-16356	-2472	-1744	36	-92	104	-15944	1396	-3092	164	-33	20	126	128	8
-11948	-2820	10332	-14	18	-28	-15448	-3440	-2528	0	-6	-11	-15584	-240	-4544	9	-21	13	-12420	4824	9836	97	-46	-117	-16268	-2600	-1684	62	-59	108	-15960	1336	-3092	126	-62	-11	124	128	8
-11920	-2780	10280	-10	13	-24	-15552	-3544	-2600	2	-5	-10	-15584	-224	-4504	5	-21	14	-12388	4772	10092	107	-36	-149	-16352	-2572	-1676	66	-29	133	-15924	1328	-3088	119	-21	-43	125	128	8
-11848	-2820	10480	-11	13	-20	-15616	-3392	-2480	0	-5	-14	-15536	-256	-4560	4	-17	12	-12368	4812	10012	125	-98	-169	-16396	-2564	-1700	113	-88	137	-15988	1336	-3088	151	-40	-2	125	127	8
-11880	-2836	10436	-12	11	-23	-15504	-3496	-2432	-7	-9	-10	-15632	-216	-4640	8	-18	10	-12432	4772	10084	113	-68	-117	-16368	-2536	-1640	89	-83	120	-15952	1344	-3020	155	-30	11	125	128	8
-11892	-2784	10408	-11	15	-22	-15624	-3576	-2520	8	-3	-13	-15552	-264	-4760	10	-18	17	-12384	4744	10084	127	-35	-126	-16296	-2560	-1660	50	-84	84	-15940	1260	-3048	161	-107	-31	125	128	8
-11876	-2756	10444	-11	16	-25	-15640	-3504	-2400	18	-4	-11	-15496	-344	-4784	12	-13	17	-12448	4772	9976	129	3	-148	-16316	-2584	-1768	134	-59	101	-15944	1268	-3132	239	-78	5	125	128	8
-11908	-2816	10296	-13	14	-25	-15640	-3392	-2456	1	-8	-11	-15496	-296	-4464	10	-23	15	-12432	4760	9932	146	-30	-136	-16360	-2544	-1768	135	-63	131	-15964	1316	-3184	287	-42	30	125	128	8
-11876	-2812	10320	-13	19	-25	-15464	-3400	-2384	-8	-8	-13	-15408	-304	-4360	12	-27	15	-12420	4796	9948	125	6	-118	-16404	-2528	-1684	90	-74	103	-15980	1348	-3008	227	-97	17	125	128	8
-11876	-2872	10396	-11	14	-25	-15552	-3544	-2584	-5	-6	-9	-15624	-360	-4528	0	-25	11	-12372	4760	9928	149	-14	-121	-16328	-2568	-1712	115	-58	132	-15988	1368	-3088	227	-39	9	125	128	8
-11844	-2800	10432	-14	11	-28	-15616	-3344	-2504	1	-9	-9	-15672	-392	-4792	6	-24	8	-12456	4800	10024	124	-25	-99	-16332	-2544	-1736	114	-96	150	-15932	1376	-3080	278	-47	-18	125	129	8
-11912	-2824	10300	-10	14	-22	-15544	-3392	-2536	1	-5	-12	-15528	-272	-4368	1	-20	14	-12424	4796	9960	118	-52	-142	-16388	-2604	-1644	72	-70	104	-15980	1384	-3188	209	-58	6	124	129	8
-11868	-2720	10336	-11	13	-26	-15616	-3528	-2560	2	-13	-13	-15672	-232	-4648	-2	-16	17	-12484	4772	10088	145	55	-158	-16408	-2504	-1752	48	-110	91	-15940	1368	-3152	191	-59	12	125	129	8
-11884	-2792	10420	-7	13	-28	-15672	-3536	-2512	6	-7	-13	-15640	-560	-4552	1	-19	11	-12436	4740	9988	108	14	-135	-16340	-2572	-1724	84	-77	124	-15952	1288	-3116	189	-45	8	125	128	8
-11932	-2764	10404	-11	18	-28	-15624	-3400	-2520	-4	-6	-9	-15592	-440	-4288	11	-24	12	-12432	4716	10052	141	-50	-114	-16320	-2568	-1736	118	-57	124	-15908	1312	-3096	207	-94	-1	124	129	8
-11844	-2768	10268	-7	16	-22	-15576	-3528	-2456	-3	-9	-8	-15632	-424	-4528	3	-26	12	-12400	4700	10064	127	-36	-86	-16380	-2536	-1672	139	-41	95	-15916	1256	-3008	268	-72	13	124	129	8
-11904	-2828	10340	-11	13	-21	-15616	-3312	-2496	-11	-5	-11	-15584	-376	-4592	3	-28	10	-12424	4764	10036	144	-45	-122	-16332	-2536	-1640	139	-70	139	-15956	1312	-3092	233	-57	27	125	128	8
-11872	-2800	10468	-11	13	-24	-15632	-3488	-2424	-4	-10	-9	-15712	-256	-4576	6	-22	12	-12404	4808	10008	166	4	-117	-16324	-2580	-1656	162	-66	126	-15928	1328	-3028	257	-29	38	125	128	8
-11832	-2804	10376	-12	18	-24	-15696	-3296	-2664	13	-9	-9	-15552	-256	-4632	6	-17	16	-12468	4720	10040	116	-14	-131	-16356	-2544	-1716	150	-64	142	-15960	1388	-3092	254	-31	28	125	128	8
-11876	-2836	10440	-11	20	-26	-15728	-3392	-2336	18	-3	-9	-15512	-248	-4584	9	-17	16	-12468	4768	9992	116	-6	-143	-16312	-2500	-1736	137	-96	115	-15996	1348	-3068	282	-98	1	125	128	8
-11860	-2844	10296	-11	16	-28	-15528	-3504	-2408	-9	-11	-13	-15488	-504	-4600	10	-19	15	-12468	4780	9912	122	27	-143	-16316	-2504	-1676	117	-73	133	-15944	1352	-2952	327	-76	14	125	128	8
-11832	-2776	10404	-11	15	-25	-15640	-3440	-2624	-7	-7	-7	-15576	-384	-4352	6	-21	12	-12468	4764	10004	126	14	-132	-16332	-2528	-1676	115	-32	120	-15920	1376	-2924	294	-71	24	125	128	8
-11912	-2768	10484	-8	13	-20	-15640	-3568	-2520	-4	-4	-9	-15576	-328	-4592	14	-24	15	-12388	4720	9976	138	-23	-116	-16336	-2600	-1496	141	-51	132	-15940	1400	-3032	267	-65	17	125	128	8
-11900	-2776	10376	-12	16	-25	-15624	-3464	-2520	14	0	-13	-15648	-328	-4552	7	-16	16	-12436	4804	10028	109	-34	-117	-16332	-2568	-1596	149	8	141	-15944	1304	-3020	263	-21	9	124	128	8
-11904	-2836	10396	-10	19	-23	-15608	-3408	-2648	12	-3	-6	-15616	-288	-4376	12	-12	23	-12428	4784	10064	156	-38	-87	-16316	-2540	-1664	89	-73	141	-15956	1400	-3044	208	-27	34	126	128	8
-11860	-2808	10480	-14	19	-23	-15544	-3600	-2440	-3	-3	-11	-15576	-264	-4568	9	-14	19	-12444	4768	9964	139	-39	-108	-16364	-2548	-1656	74	-34	112	-15952	1340	-3008	170	25	25	126	128	8
-11860	-2800	10336	-10	17	-26	-15464	-3408	-2440	-7	-5	-9	-15632	-352	-4536	8	-21	13	-12472	4840	9952	142	-10	-138	-16284	-2540	-1668	148	-86	149	-15824	1364	-3088	183	29	30	125	129	8
-11820	-2800	10432	-14	16	-26	-15504	-3568	-2536	-4	-4	-7	-15600	-304	-4768	5	-20	17	-12448	4764	10024	103	32	-137	-16332	-2556	-1728	144	-15	135	-15964	1380	-3148	248	6	10	125	129	8
-11904	-2784	10412	-10	15	-28	-15680	-3568	-2688	5	-7	-7	-15784	-208	-4800	3	-17	15	-12360	4776	9980	138	-23	-87	-16324	-2528	-1676	105	-22	118	-15972	1320	-3052	246	-18	-4	124	129	8
-11904	-2672	10392	-13	14	-21	-15616	-3304	-2296	1	-7	-6	-15616	-376	-4600	8	-16	13	-12380	4760	10000	150	1	-106	-16360	-2552	-1688	115	-51	106	-15956	1296	-3120	215	-28	6	124	129	8
-11860	-2844	10332	-11	14	-23	-15632	-3480	-2424	-6	-8	-6	-15568	-368	-4832	4	-14	15	-12416	4720	9940	137	-10	-102	-16336	-2564	-1696	97	-65	144	-15980	1392	-2940	207	-27	-14	124	129	8
-11876	-2848	10388	-12	17	-26	-15504	-3480	-2816	5	-1	-6	-15656	-496	-4552	6	-16	20	-12424	4780	10040	158	-60	-142	-16312	-2548	-1624	115	-71	85	-15960	1368	-3068	239	-35	29	124	129	8
-11836	-2796	10344	-16	16	-23	-15584	-3360	-2552	7	-2	-9	-15584	-280	-4504	8	-17	18	-12432	4772	10008	101	2	-129	-16340	-2508	-1736	165	-30	118	-15936	1332	-3080	298	-28	17	124	128	8
-11884	-2820	10308	-11	16	-26	-15584	-3632	-2656	-6	0	-9	-15512	-384	-4568	6	-21	15	-12480	4700	9940	145	-30	-178	-16364	-2628	-1668	122	-60	119	-15980	1348	-3104	275	3	-4	125	128	8
-11928	-2772	10444	-13	13	-26	-15504	-3520	-2600	5	-5	-9	-15504	-368	-4408	9	-20	14	-12464	4776	10012	146	-14	-124	-16344	-2588	-1616	116	-43	94	-15908	1368	-3136	225	-8	24	125	129	8
-11924	-2872	10256	-9	16	-24	-15472	-3544	-2504	5	2	-9	-15568	-464	-4296	12	-18	17	-12356	4776	10008	132	-30	-137	-16360	-2580	-1736	93	-76	132	-16000	1328	-3012	177	-30	21	125	128	8
-11892	-2804	10396	-9	17	-26	-15616	-3416	-2456	2	-1	-8	-15552	-344	-4536	17	-14	20	-12384	4752	10028	151	-36	-89	-16360	-2608	-1544	96	-60	117	-15984	1296	-2976	185	-82	16	124	129	8
-11860	-2876	10348	-7	17	-24	-15584	-3528	-2664	10	2	-7	-15640	-416	-4696	12	-12	19	-12424	4820	9928	117	15	-151	-16360	-2504	-1784	56	-24	94	-15992	1340	-3044	226	-27	7	124	128	8
-11888	-2796	10296	-10	13	-23	-15560	-3528	-2528	3	3	-9	-15640	-232	-4584	13	-15	18	-12432	4696	10064	157	-25	-130	-16336	-2600	-1708	143	-46	103	-16000	1320	-3012	254	2	25	124	129	8
-11860	-2840	10396	-8	18	-25	-15680	-3496	-2472	-4	-4	-12	-15424	-488	-4488	7	-15	16	-12468	4808	9948	104	-27	-102	-16328	-2644	-1644	146	-36	165	-15896	1312	-2924	204	-8	12	126	129	8
-11860	-2816	10428	-10	16	-24	-15648	-3472	-2664	9	-3	-14	-15664	-288	-4552	5	-13	18	-12468	4804	9980	120	-30	-130	-16376	-2524	-1764	161	-30	110	-15944	1328	-3036	245	-58	-10	126	129	8
-11892	-2852	10404	-11	15	-26	-15632	-3400	-2416	2	-3	-5	-15696	-200	-4448	12	-19	15	-12416	4820	10028	113	-11	-136	-16368	-2588	-1640	138	-78	106	-15940	1296	-3072	269	-68	16	125	128	8
-11832	-2844	10332	-13	18	-29	-15560	-3576	-2560	6	-6	-12	-15560	-408	-4680	15	-15	15	-12396	4720	9972	154	-22	-141	-16384	-2596	-1796	71	-51	141	-15904	1304	-3112	231	-57	32	124	128	8
-11840	-2816	10360	-9	14	-25	-15440	-3552	-2680	4	-4	-7	-15528	-336	-4440	9	-19	10	-12456	4752	9980	118	-19	-133	-16292	-2608	-1620	103	-57	133	-15944	1304	-3032	200	-65	6	125	128	8
-11876	-2820	10224	-8	14	-27	-15624	-3312	-2704	3	-4	-11	-15568	-176	-4712	9	-20	15	-12436	4840	10084	136	5	-142	-16380	-2584	-1692	88	-42	132	-15952	1364	-3008	179	-50	-2	125	128	8
-11860	-2832	10392	-15	13	-29	-15568	-3472	-2704	14	-5	-4	-15584	-328	-4520	11	-20	15	-12464	4796	9980	117	-5	-137	-16384	-2536	-1748	57	-57	63	-15988	1272	-2916	174	-15	-5	125	128	8
-11888	-2800	10356	-10	16	-19	-15528	-3528	-2520	5	-6	-15	-15736	-432	-4712	4	-18	15	-12400	4828	10064	138	-54	-148	-16416	-2560	-1660	63	-71	116	-15988	1352	-3132	179	-22	10	124	128	8
-11864	-2808	10352	-12	17	-23	-15464	-3424	-2552	6	-7	-12	-15608	-392	-4312	4	-16	18	-12364	4784	10116	102	-53	-110	-16340	-2592	-1724	129	-28	105	-15960	1304	-3064	238	-49	8	124	129	8
-11864	-2772	10484	-17	15	-25	-15416	-3472	-2496	-4	-4	-9	-15488	-304	-4656	11	-14	18	-12404	4796	10060	124	-17	-145	-16320	-2596	-1632	96	-68	106	-15876	1272	-3040	229	-50	46	124	128	8
-11880	-2828	10400	-14	18	-27	-15432	-3440	-2728	9	-1	-10	-15616	-328	-4584	5	-15	15	-12416	4820	10008	150	9	-137	-16364	-2600	-1652	148	-83	84	-15972	1252	-3096	179	-49	-6	125	128	8
-11848	-2832	10412	-12	14	-23	-15552	-3392	-2336	2	-4	-10	-15552	-352	-4712	10	-13	11	-12376	4776	9960	133	-18	-133	-16332	-2604	-1720	68	-66	119	-15856	1340	-3108	192	-36	5	125	128	8
-11880	-2792	10448	-9	14	-22	-15520	-3552	-2576	1	-8	-14	-15536	-360	-4304	6	-16	14	-12416	4768	9992	126	-3	-117	-16276	-2604	-1700	132	-10	99	-16012	1260	-3048	241	-89	41	125	128	8
-11940	-2792	10360	-13	19	-26	-15392	-3496	-2376	10	-6	-7	-15544	-464	-4696	7	-18	12	-12436	4708	10060	115	-27	-135	-16292	-2560	-1632	132	-49	112	-15980	1300	-2936	205	-58	43	125	128	8
-11872	-2788	10388	-8	12	-26	-15544	-3728	-2624	6	-5	-3	-15576	-448	-4576	13	-13	17	-12400	4744	9932	122	-44	-125	-16344	-2576	-1656	83	-33	84	-15944	1296	-2952	245	-48	13	125	128	8
-11892	-2780	10364	-11	15	-21	-15440	-3464	-2496	6	-3	-10	-15576	-296	-4568	5	-18	17	-12460	4788	9984	146	-59	-88	-16348	-2684	-1604	93	-54	115	-15912	1316	-3072	249	22	59	125	128	8
-11840	-2868	10492	-11	15	-23	-15672	-3504	-2320	-3	-4	-8	-15576	-336	-4392	16	-19	13	-12460	4812	9968	126	-30	-127	-16344	-2620	-1624	151	-39	120	-15944	1300	-2976	205	16	31	125	128	8
-11888	-2848	10472	-11	17	-27	-15488	-3464	-2656	11	4	-14	-15704	-344	-4568	8	-14	15	-12448	4780	9996	139	-40	-148	-16348	-2560	-1596	117	-73	93	-15928	1324	-3052	209	-38	12	125	128	8
-11896	-2828	10356	-13	16	-25	-15608	-3520	-2648	12	-1	-10	-15472	-224	-4624	15	-14	12	-12452	4820	9984	134	-24	-174	-16368	-2664	-1744	130	-78	81	-15964	1332	-3016	201	-43	-12	125	128	8
-11884	-2856	10272	-11	20	-26	-15616	-3528	-2528	5	-4	-10	-15584	-360	-4568	15	-12	16	-12400	4748	9884	119	-49	-151	-16348	-2676	-1664	83	-89	84	-16028	1364	-3024	195	-41	-22	124	128	8
-11892	-2812	10320	-16	15	-27	-15328	-3496	-2560	-3	-3	-8	-15552	-368	-4520	6	-13	11	-12420	4816	9944	113	-58	-173	-16308	-2576	-1572	69	-99	131	-15920	1292	-3092	155	-39	-1	124	128	8
-11880	-2872	10348	-13	16	-25	-15528	-3584	-2448	-7	3	-14	-15800	-464	-4592	2	-18	11	-12468	4744	9880	84	-39	-153	-16368	-2552	-1636	120	-43	86	-15960	1344	-3076	153	-48	7	125	128	8
-11976	-2796	10424	-10	17	-27	-15624	-3568	-2632	-2	-2	-13	-15656	-416	-4752	3	-14	15	-12440	4772	9988	125	-56	-162	-16368	-2604	-1628	135	-27	93	-16052	1376	-3036	102	16	45	125	128	8
-11908	-2844	10304	-10	13	-24	-15624	-3448	-2400	0	-2	-5	-15568	-440	-4712	1	-15	18	-12416	4800	9932	95	-79	-142	-16360	-2592	-1720	91	13	98	-15960	1352	-3080	87	2	28	126	128	8
-11912	-2768	10308	-14	16	-23	-15568	-3488	-2624	4	-6	-13	-15632	-320	-4768	8	-13	15	-12444	4748	9992	120	-34	-154	-16332	-2576	-1604	82	-57	43	-15944	1340	-3044	36	47	65	127	128	8
-11868	-2812	10312	-12	14	-24	-15656	-3616	-2336	5	-3	-10	-15600	-192	-4400	12	-14	15	-12436	4824	9984	88	-2	-166	-16352	-2600	-1508	105	-52	117	-16016	1368	-3016	34	17	18	126	128	8
-11880	-2768	10468	-13	11	-28	-15520	-3504	-2608	10	-1	-15	-15640	-328	-4584	12	-19	12	-12456	4728	10004	133	-64	-155	-16324	-2636	-1804	82	-39	82	-15956	1328	-3060	31	27	22	125	128	8
-11944	-2832	10488	-13	17	-27	-15520	-3488	-2472	3	-5	-6	-15528	-256	-4576	3	-16	17	-12436	4756	9992	140	-1	-161	-16440	-2628	-1564	22	-51	85	-15964	1300	-3044	21	-4	-19	125	129	8
-11888	-2788	10344	-12	15	-29	-15520	-3568	-2808	-18	-10	-13	-15608	-520	-4688	-1	-15	14	-12424	4772	9964	94	-85	-139	-16312	-2652	-1728	11	-39	67	-15968	1216	-3008	79	8	-16	125	128	8
-11808	-2864	10276	-13	17	-26	-15544	-3736	-2528	-14	-11	-14	-15568	-424	-4656	-3	-12	11	-12420	4724	10008	110	-34	-149	-16360	-2592	-1672	54	-93	107	-15972	1248	-3004	138	-30	-2	124	129	8
-11872	-2856	10340	-14	14	-24	-15496	-3480	-2576	-1	-3	-12	-15464	-496	-4504	-1	-16	13	-12464	4828	10068	81	-36	-200	-16256	-2652	-1520	107	-101	113	-15912	1284	-3152	189	-30	22	124	128	8
-11884	-2764	10288	-10	14	-26	-15560	-3328	-2656	-3	-5	-12	-15528	-384	-4640	-4	-16	13	-12356	4772	10104	84	-98	-144	-16424	-2564	-1696	104	-63	120	-15916	1276	-2988	271	-13	41	125	128	8
-11884	-2756	10484	-10	16	-23	-15600	-3584	-2520	6	-5	-13	-15608	-464	-4832	0	-16	16	-12456	4692	10060	93	-91	-162	-16352	-2656	-1644	127	-92	128	-15988	1288	-3112	263	-59	39	125	129	8
-11864	-2788	10472	-12	17	-26	-15520	-3616	-2888	-1	-5	-15	-15528	-360	-4544	3	-20	17	-12408	4764	10044	60	-78	-161	-16364	-2652	-1564	126	-59	129	-16024	1288	-3084	312	-94	25	126	129	8
-11940	-2788	10364	-10	17	-30	-15520	-3488	-2592	-3	-9	-13	-15600	-424	-4360	10	-21	17	-12448	4780	9988	121	-11	-111	-16444	-2656	-1660	102	-74	112	-16036	1340	-2988	229	-64	27	125	128	8
-11924	-2820	10384	-10	13	-27	-15448	-3728	-2456	-5	-10	-11	-15568	-496	-4464	6	-22	13	-12448	4736	9960	102	8	-156	-16312	-2620	-1612	83	-61	131	-15980	1348	-2848	234	-69	4	125	128	8
-11832	-2800	10308	-11	15	-28	-15440	-3656	-2256	4	-11	-9	-15648	-392	-4592	7	-15	18	-12456	4756	10100	108	0	-119	-16344	-2696	-1612	116	-61	127	-15960	1320	-2952	224	-63	19	125	128	8
-11856	-2836	10332	-14	14	-24	-15552	-3608	-2632	-4	-11	-12	-15624	-416	-4792	8	-14	18	-12392	4732	10024	154	-11	-170	-16316	-2640	-1560	106	-82	134	-15952	1296	-2972	216	-60	25	125	128	8
-11860	-2856	10428	-9	19	-28	-15616	-3600	-2576	3	-6	-11	-15592	-320	-4504	9	-16	16	-12388	4772	10064	115	8	-141	-16388	-2624	-1588	121	-61	144	-15920	1304	-3100	221	-25	41	124	128	8
-11844	-2816	10324	-13	18	-26	-15536	-3536	-2584	4	-7	-11	-15688	-368	-4456	1	-19	15	-12328	4716	9984	126	-60	-109	-16316	-2668	-1588	91	-59	137	-15940	1244	-2952	217	-56	18	125	127	8
-11892	-2800	10280	-9	17	-28	-15504	-3520	-2552	-1	-8	-7	-15696	-408	-4584	3	-18	18	-12428	4760	10048	148	-34	-159	-16332	-2592	-1592	58	-82	123	-15968	1296	-3056	204	-38	46	125	128	8
-11848	-2824	10360	-14	12	-25	-15608	-3672	-2384	10	-6	-8	-15520	-640	-4336	2	-19	15	-12416	4724	9912	114	22	-141	-16428	-2592	-1704	91	-97	108	-15916	1272	-2916	244	-33	20	126	128	8
-11852	-2896	10320	-18	14	-24	-15488	-3584	-2624	-1	-11	-10	-15504	-528	-4464	1	-20	12	-12396	4744	9996	120	9	-153	-16360	-2648	-1600	114	-144	131	-15948	1240	-2968	223	-100	40	126	127	8
-11812	-2836	10284	-15	16	-22	-15560	-3576	-2384	-4	-12	-7	-15648	-352	-4504	-7	-14	21	-12360	4768	10040	127	-35	-140	-16308	-2632	-1476	93	-55	141	-15952	1248	-2900	249	-77	43	125	128	8
-11840	-2820	10364	-12	18	-26	-15560	-3632	-2424	-5	-8	-6	-15624	-328	-4720	-6	-12	20	-12368	4784	10064	145	-46	-110	-16328	-2652	-1620	72	-130	145	-15968	1284	-2968	263	-62	44	126	127	8
-11876	-2724	10248	-15	16	-26	-15632	-3488	-2576	0	-15	-12	-15632	-496	-4448	5	-20	19	-12396	4772	10016	153	-37	-138	-16400	-2632	-1608	91	-91	144	-15956	1276	-2936	193	-60	71	125	128	8
-11888	-2780	10336	-13	17	-21	-15520	-3648	-2480	0	-10	-9	-15616	-568	-4416	15	-29	17	-12432	4784	10008	115	9	-117	-16328	-2668	-1580	80	-78	164	-15960	1280	-2944	160	-43	34	126	128	8
-11936	-2792	10420	-14	12	-25	-15344	-3584	-2432	11	-3	-9	-15592	-408	-4592	16	-27	19	-12472	4756	10052	142	-68	-110	-16296	-2588	-1620	49	-68	147	-16004	1320	-2920	186	-39	57	126	128	8
-11868	-2812	10312	-10	12	-24	-15544	-3568	-2104	9	-4	-7	-15736	-592	-4552	10	-21	14	-12464	4728	9984	131	-17	-146	-16336	-2640	-1536	77	-43	155	-15976	1336	-2920	179	-40	69	126	127	8
-11884	-2864	10420	-8	17	-23	-15544	-3616	-2480	-2	-3	-12	-15616	-456	-4392	8	-12	18	-12444	4760	10012	125	4	-115	-16348	-2668	-1620	58	-56	146	-15940	1332	-2856	146	-7	57	126	127	8
-11836	-2820	10372	-10	14	-24	-15656	-3648	-2480	0	-7	-5	-15584	-360	-4544	8	-10	18	-12460	4772	9984	142	-97	-141	-16328	-2620	-1680	42	-73	164	-15980	1264	-2984	146	-13	21	126	127	8
-11872	-2832	10380	-7	12	-21	-15616	-3480	-2424	1	-11	-3	-15712	-360	-4424	8	-21	20	-12408	4760	10036	143	-46	-140	-16384	-2636	-1572	74	-40	125	-16004	1276	-2980	192	6	12	125	127	8
-11904	-2848	10376	-9	18	-27	-15552	-3792	-2480	12	-6	-2	-15616	-400	-4528	8	-23	17	-12444	4784	9956	129	-16	-118	-16260	-2668	-1528	89	-97	136	-16008	1224	-2876	175	-15	46	125	127	8
-11836	-2812	10376	-9	18	-23	-15584	-3576	-2648	-1	-4	-4	-15544	-336	-4472	1	-22	21	-12472	4752	9944	125	-40	-114	-16344	-2660	-1596	74	-65	168	-15972	1224	-3028	177	26	60	125	127	8
-11920	-2800	10480	-12	13	-22	-15544	-3472	-2448	-5	-5	-5	-15520	-472	-4408	0	-23	17	-12400	4736	9996	145	-44	-126	-16392	-2700	-1664	113	-38	175	-16004	1240	-2944	245	-4	52	126	127	8
-11892	-2816	10408	-11	15	-22	-15584	-3696	-2448	-1	-9	-3	-15576	-536	-4696	4	-23	16	-12492	4684	10068	107	29	-116	-16332	-2584	-1668	134	-33	167	-15964	1340	-2936	257	-56	102	127	127	8
-11820	-2800	10392	-14	17	-26	-15560	-3528	-2704	4	-6	-2	-15576	-456	-4400	12	-20	19	-12424	4704	10076	126	-7	-98	-16352	-2632	-1588	169	-47	202	-15892	1292	-2996	211	10	78	127	127	8
-11836	-2796	10392	-9	15	-22	-15496	-3520	-2536	4	-3	-3	-15704	-480	-4144	13	-19	20	-12400	4756	9992	122	-22	-104	-16324	-2620	-1576	117	-42	147	-15964	1284	-2976	169	-63	43	126	126	8
-11944	-2808	10412	-10	19	-22	-15640	-3632	-2272	6	-2	-7	-15584	-424	-4448	7	-16	18	-12448	4704	10100	152	-14	-133	-16412	-2596	-1568	41	-41	193	-15976	1336	-3100	183	-69	24	125	126	8
-11820	-2832	10372	-11	15	-24	-15496	-3488	-2576	-5	-3	-8	-15616	-536	-4456	8	-22	14	-12408	4736	9992	125	-1	-87	-16268	-2688	-1616	46	-46	164	-16044	1292	-2908	165	-27	40	125	126	8
-11844	-2764	10352	-8	17	-23	-15432	-3488	-2512	-5	-6	-5	-15720	-456	-4560	2	-19	16	-12360	4772	10048	125	-15	-121	-16304	-2596	-1576	26	-61	166	-16004	1340	-2912	131	4	30	126	126	8
-11876	-2820	10436	-10	19	-27	-15536	-3568	-2376	-6	-4	1	-15584	-520	-4432	1	-17	16	-12412	4732	10088	147	-50	-123	-16428	-2664	-1600	88	-72	179	-16004	1300	-2840	109	14	54	125	126	8
-11940	-2904	10252	-13	13	-22	-15608	-3576	-2560	-8	-6	-3	-15696	-352	-4544	-4	-17	25	-12416	4776	10016	138	-66	-132	-16356	-2588	-1512	83	-57	167	-16088	1268	-2808	114	64	39	126	126	8
-11840	-2796	10444	-9	18	-22	-15600	-3536	-2528	4	-3	3	-15592	-400	-4640	8	-16	21	-12440	4788	10112	129	32	-115	-16316	-2612	-1628	89	3	157	-15952	1296	-2912	170	73	59	126	126	8
-11860	-2832	10336	-13	12	-23	-15608	-3560	-2296	-5	-3	-6	-15448	-488	-4560	3	-21	24	-12436	4784	10128	163	-7	-113	-16340	-2612	-1620	65	-31	164	-15920	1320	-2956	209	52	57	126	125	8
-11840	-2848	10396	-10	11	-24	-15656	-3648	-2648	-6	-3	-3	-15656	-424	-4472	2	-21	20	-12428	4764	9988	142	-41	-122	-16380	-2676	-1620	55	-47	141	-15988	1324	-2992	259	39	53	126	125	8
-11888	-2832	10336	-9	13	-24	-15616	-3552	-2832	-7	-8	-5	-15544	-408	-4488	8	-22	21	-12436	4748	10104	158	27	-129	-16404	-2640	-1620	105	-86	166	-16000	1244	-2960	246	8	81	126	125	8
-11864	-2816	10456	-12	13	-22	-15440	-3536	-2560	-9	-3	-4	-15576	-264	-4520	13	-22	17	-12396	4732	10116	155	-14	-100	-16368	-2608	-1580	121	-81	146	-15920	1244	-3112	273	-64	65	126	125	8
-11844	-2760	10424	-8	15	-29	-15656	-3664	-2424	4	-3	-1	-15640	-344	-4304	20	-18	15	-12420	4788	10064	142	-30	-119	-16364	-2604	-1720	208	-88	167	-16012	1364	-3076	330	-92	66	126	124	8
-11860	-2828	10352	-8	12	-24	-15696	-3536	-2272	13	-2	-7	-15768	-504	-4576	16	-18	21	-12448	4796	10040	145	-31	-87	-16316	-2612	-1628	219	-35	171	-15964	1316	-2920	334	-118	79	125	124	8
-11872	-2792	10380	-8	15	-27	-15544	-3632	-2568	5	-2	-10	-15600	-376	-4352	15	-13	21	-12412	4760	10060	149	-42	-137	-16380	-2640	-1648	141	8	155	-16012	1300	-2948	292	-61	102	125	123	8
-11872	-2812	10516	-13	16	-27	-15568	-3496	-2816	3	3	-4	-15680	-488	-4528	18	-12	22	-12372	4696	10040	129	-20	-110	-16392	-2604	-1536	87	-71	159	-16000	1264	-2804	271	17	47	126	124	8
-11880	-2836	10376	-7	9	-23	-15528	-3552	-2512	3	-5	0	-15648	-384	-4408	22	-18	27	-12412	4816	9984	138	-31	-126	-16364	-2616	-1508	145	-84	124	-15972	1268	-3004	255	18	38	126	124	8
-11864	-2788	10320	-11	14	-25	-15608	-3544	-2648	5	-3	-6	-15504	-592	-4560	14	-17	20	-12412	4752	10044	146	-12	-158	-16324	-2656	-1564	141	-49	189	-15944	1316	-2996	229	12	51	125	124	8
-11896	-2816	10404	-10	16	-22	-15496	-3360	-2552	2	0	2	-15608	-376	-4504	8	-20	20	-12448	4744	10052	161	-43	-91	-16388	-2652	-1536	116	-51	172	-15936	1344	-3004	230	8	61	125	124	8
-11912	-2848	10356	-8	15	-22	-15728	-3664	-2592	-3	-3	-2	-15472	-312	-4528	5	-18	21	-12472	4780	10040	131	-3	-86	-16268	-2648	-1588	143	-21	128	-15952	1308	-2952	258	-9	37	126	124	8
-11908	-2860	10400	-11	18	-25	-15584	-3648	-2528	-14	-4	-5	-15576	-256	-4768	4	-19	20	-12376	4728	10004	128	-42	-129	-16360	-2600	-1564	80	-59	165	-15944	1304	-2920	257	5	40	125	124	8
-11884	-2804	10364	-12	13	-19	-15608	-3712	-2624	-6	-8	-1	-15560	-440	-4592	7	-19	18	-12448	4732	9928	111	-13	-153	-16320	-2696	-1652	89	-103	155	-15956	1284	-2996	270	-4	51	126	124	8
-11844	-2820	10336	-12	12	-25	-15480	-3464	-2520	-3	-5	-8	-15592	-528	-4480	7	-22	12	-12452	4748	10100	99	-11	-99	-16352	-2664	-1552	177	-53	141	-15984	1272	-3024	249	-16	49	126	123	8
-11840	-2852	10472	-8	15	-23	-15616	-3528	-2576	0	-4	-2	-15592	-376	-4600	8	-23	13	-12376	4776	9976	155	-9	-111	-16336	-2700	-1484	157	-55	141	-16008	1260	-2948	227	-69	18	125	123	8
-11824	-2788	10472	-12	15	-21	-15624	-3568	-2728	-4	4	-6	-15544	-464	-4592	10	-24	15	-12476	4700	10036	120	-60	-115	-16332	-2684	-1476	24	-26	149	-16004	1364	-2956	238	-28	36	125	123	8
-11876	-2820	10340	-9	15	-27	-15664	-3704	-2376	16	1	-7	-15632	-416	-4688	9	-19	19	-12444	4744	10072	113	-2	-130	-16324	-2552	-1612	55	-50	166	-15988	1432	-2892	209	-50	44	126	123	8
-11848	-2804	10316	-8	14	-26	-15680	-3608	-2336	4	1	-5	-15584	-416	-4264	10	-12	24	-12440	4820	9976	157	-33	-140	-16396	-2616	-1592	123	-73	155	-16016	1316	-2944	201	-45	56	126	123	8
-11944	-2776	10360	-13	17	-20	-15528	-3552	-2568	17	2	-3	-15464	-264	-4704	2	-9	21	-12408	4712	10076	135	-19	-102	-16416	-2624	-1664	101	-49	143	-15952	1288	-2932	188	-2	-25	126	123	8
-11796	-2816	10480	-8	18	-25	-15432	-3568	-2568	2	-4	-5	-15480	-392	-4344	5	-13	22	-12456	4708	9948	122	-26	-129	-16368	-2608	-1580	88	-4	89	-16016	1232	-2912	174	6	6	126	123	8
-11900	-2768	10424	-8	15	-31	-15568	-3648	-2472	0	-9	-1	-15584	-240	-4528	9	-21	15	-12424	4792	10016	138	-27	-129	-16348	-2704	-1488	96	-31	160	-15996	1220	-2988	209	2	3	127	123	8
-11832	-2800	10360	-12	17	-25	-15616	-3544	-2816	-3	-3	-8	-15576	-480	-4560	1	-25	18	-12432	4720	10096	170	-15	-138	-16340	-2604	-1556	65	-39	165	-16000	1272	-2948	149	13	11	126	123	8
-11900	-2788	10432	-9	10	-24	-15480	-3424	-2600	-13	-5	-5	-15552	-440	-4304	0	-19	10	-12428	4784	9992	112	8	-111	-16368	-2672	-1572	-22	-52	129	-16036	1284	-2976	184	35	13	127	124	8
-11844	-2840	10364	-12	15	-27	-15424	-3568	-2208	-5	-7	-9	-15584	-336	-4824	-5	-16	15	-12344	4744	10020	124	6	-129	-16448	-2688	-1568	36	-55	150	-15996	1292	-2988	186	-24	18	127	123	8
-11816	-2792	10400	-12	18	-25	-15616	-3536	-2528	-1	-11	-12	-15680	-296	-4592	-3	-18	18	-12412	4764	10076	118	17	-145	-16304	-2676	-1484	93	-25	116	-15912	1352	-2860	206	-76	31	126	123	8
-11896	-2780	10400	-16	18	-24	-15568	-3528	-2592	2	-10	-9	-15536	-312	-4656	-2	-14	15	-12448	4760	10060	132	-86	-117	-16344	-2660	-1500	139	-52	149	-15936	1384	-2960	203	-17	17	127	124	8
-11904	-2876	10376	-14	13	-24	-15464	-3616	-2496	2	-3	-12	-15544	-216	-4584	-3	-14	18	-12380	4804	9992	116	-16	-162	-16312	-2636	-1672	70	-33	117	-15972	1232	-2924	156	-49	-15	127	123	8
-11892	-2836	10376	-17	17	-32	-15600	-3576	-2608	-2	-10	-12	-15672	-536	-4424	-3	-16	19	-12376	4780	9996	136	-56	-160	-16392	-2748	-1540	79	-55	131	-15996	1340	-2940	159	-84	11	127	123	8
-11884	-2788	10356	-11	19	-25	-15576	-3656	-2504	-10	-5	-8	-15640	-592	-4248	6	-18	12	-12392	4796	10076	103	-33	-124	-16376	-2636	-1508	106	-85	162	-16016	1316	-2876	188	-79	-3	127	124	8
-11840	-2876	10328	-14	16	-25	-15616	-3672	-2552	1	-6	-13	-15576	-336	-4400	1	-21	13	-12448	4764	10064	121	8	-131	-16400	-2672	-1616	82	-79	148	-16004	1296	-2940	188	-30	5	127	124	8
-11876	-2820	10284	-14	14	-24	-15584	-3536	-2560	-14	-5	-5	-15600	-256	-4424	-6	-19	16	-12444	4696	10008	127	-38	-103	-16376	-2600	-1540	20	-15	96	-15936	1288	-3036	203	2	24	127	124	8
-11880	-2812	10324	-11	14	-25	-15576	-3696	-2440	-10	-8	-6	-15536	-336	-4400	-14	-13	18	-12404	4796	9956	133	1	-132	-16320	-2696	-1796	131	-75	134	-15940	1260	-2996	244	-22	41	127	124	8
-11832	-2884	10404	-16	17	-24	-15432	-3552	-2600	-6	-7	-10	-15528	-320	-4608	-7	-16	14	-12440	4796	10088	120	-38	-111	-16364	-2580	-1536	167	-47	140	-16016	1280	-3020	314	-57	40	127	124	8
-11848	-2716	10484	-13	18	-25	-15608	-3600	-2568	4	-3	-8	-15504	-384	-4600	-9	-19	16	-12468	4776	9924	136	-11	-121	-16384	-2608	-1644	192	-41	120	-15976	1280	-3012	349	-107	76	126	125	8
-11848	-2748	10412	-15	16	-24	-15488	-3528	-2264	-7	-9	-8	-15608	-512	-4456	-3	-16	16	-12396	4720	9900	129	-34	-105	-16352	-2656	-1596	172	-52	146	-16020	1260	-2892	308	-48	49	126	125	8
-11860	-2800	10344	-13	17	-25	-15624	-3592	-2352	-19	-8	-5	-15504	-664	-4448	4	-12	15	-12344	4828	10048	139	-39	-119	-16324	-2676	-1500	179	-89	139	-15992	1316	-2848	315	-43	80	126	125	8
-11824	-2784	10324	-15	13	-24	-15416	-3584	-2320	-3	-4	-5	-15616	-440	-4416	6	-17	20	-12388	4736	10052	141	-57	-142	-16292	-2576	-1512	213	-57	148	-16024	1320	-2956	314	-56	44	126	125	8
-11916	-2808	10368	-10	15	-26	-15544	-3576	-2480	10	-2	-8	-15688	-424	-4528	11	-17	25	-12288	4764	10056	115	-59	-155	-16316	-2668	-1452	206	-85	130	-15964	1284	-2848	334	-58	64	126	126	8
-11856	-2836	10412	-10	16	-19	-15552	-3632	-2504	4	1	-6	-15632	-480	-4392	16	-18	22	-12404	4732	9984	129	-57	-116	-16288	-2636	-1508	143	-50	117	-15968	1288	-2888	306	-89	58	126	126	8
-11864	-2788	10332	-9	16	-23	-15640	-3624	-2432	-2	-4	-3	-15536	-368	-4400	17	-14	27	-12436	4780	10000	150	-48	-121	-16404	-2672	-1504	121	-88	160	-15920	1308	-2976	305	0	39	125	125	8
-11884	-2816	10428	-10	17	-23	-15552	-3616	-2640	4	-2	-7	-15624	-304	-4392	14	-16	24	-12404	4740	9912	157	-12	-97	-16392	-2664	-1472	108	-90	147	-16016	1264	-3020	280	56	45	126	125	8
-11888	-2816	10420	-13	17	-25	-15552	-3552	-2496	2	-3	-9	-15568	-248	-4664	14	-21	21	-12460	4776	10100	139	-29	-113	-16308	-2656	-1592	129	-73	151	-15972	1280	-2912	246	12	73	125	126	8
-11868	-2824	10360	-8	16	-19	-15584	-3600	-2664	-10	-6	-7	-15616	-496	-4456	4	-21	10	-12368	4772	10088	116	-40	-87	-16348	-2628	-1524	115	-56	174	-15956	1340	-2944	234	9	57	125	126	8
-11896	-2904	10332	-9	14	-20	-15664	-3488	-2352	-7	-5	-2	-15592	-536	-4392	0	-20	17	-12396	4756	9992	114	-14	-104	-16312	-2608	-1540	134	-63	164	-15980	1236	-2940	246	-77	66	126	126	8
-11844	-2780	10304	-11	17	-24	-15488	-3568	-2488	0	-7	-4	-15616	-576	-4368	3	-16	15	-12304	4796	10024	87	-9	-110	-16416	-2640	-1536	125	-73	132	-16024	1312	-2816	278	15	45	125	127	8
-11888	-2828	10400	-9	16	-21	-15640	-3568	-2472	4	-2	-3	-15616	-368	-4592	3	-12	18	-12400	4776	10020	140	-23	-135	-16352	-2656	-1512	134	-34	177	-15984	1304	-2916	240	1	78	125	126	8
-11888	-2788	10376	-13	19	-25	-15712	-3624	-2592	10	-4	-2	-15560	-512	-4512	6	-23	21	-12512	4708	10008	106	-27	-159	-16348	-2636	-1608	66	-52	154	-15992	1280	-2908	210	-45	66	125	127	8
-11920	-2736	10376	-9	14	-24	-15472	-3528	-2384	-1	1	-7	-15608	-496	-4240	11	-26	22	-12448	4796	10112	85	66	-96	-16252	-2644	-1524	73	-58	165	-15972	1288	-2984	209	21	63	124	127	8
-11896	-2820	10384	-12	18	-21	-15672	-3688	-2496	12	-3	-2	-15568	-464	-4672	18	-18	23	-12424	4792	10004	118	-50	-118	-16328	-2656	-1512	70	-51	161	-15972	1320	-2888	221	5	50	124	127	8
-11880	-2724	10432	-6	13	-20	-15544	-3664	-2536	12	-6	5	-15632	-512	-4432	21	-16	20	-12440	4752	10148	150	-46	-107	-16300	-2720	-1484	171	-71	160	-15944	1304	-2888	230	24	44	124	127	8
-11852	-2852	10228	-12	15	-24	-15520	-3576	-2360	6	-2	1	-15568	-416	-4456	24	-16	22	-12440	4744	10016	153	-53	-107	-16376	-2652	-1540	123	-70	162	-16064	1300	-2908	224	-15	37	124	128	8
-11884	-2796	10328	-7	11	-23	-15640	-3576	-2304	5	-4	-5	-15600	-328	-4400	21	-19	22	-12428	4764	10112	103	-12	-128	-16328	-2624	-1432	82	-69	152	-15988	1320	-2864	195	22	56	124	127	8
-11800	-2840	10344	-7	17	-25	-15656	-3600	-2408	11	-1	0	-15576	-488	-4528	19	-20	24	-12412	4808	10112	141	-37	-105	-16392	-2692	-1584	44	-81	176	-15968	1308	-2972	151	8	61	124	127	8
-11852	-2828	10400	-10	17	-22	-15544	-3616	-2512	13	4	1	-15568	-296	-4392	14	-17	20	-12452	4736	10036	134	29	-116	-16312	-2724	-1476	65	2	155	-15996	1304	-3004	164	40	42	125	127	8
-11804	-2832	10420	-6	13	-25	-15504	-3528	-2304	2	-3	-1	-15536	-296	-4592	12	-15	20	-12448	4824	10080	160	-21	-139	-16296	-2592	-1564	108	-66	170	-15948	1384	-2920	154	-23	21	125	127	8
-11868	-2808	10272	-11	17	-24	-15464	-3504	-2440	-3	-2	-2	-15664	-344	-4512	6	-18	18	-12368	4736	10052	115	-4	-116	-16336	-2624	-1552	95	-48	168	-15988	1352	-2868	140	-21	70	125	128	8
-11876	-2784	10396	-8	18	-26	-15520	-3624	-2712	1	1	0	-15640	-504	-4448	8	-17	17	-12396	4784	10060	139	1	-106	-16348	-2652	-1584	79	-55	127	-15920	1356	-2952	190	-23	65	124	128	8
-11888	-2800	10404	-8	13	-25	-15616	-3720	-2520	10	-3	-4	-15632	-344	-4456	13	-22	21	-12420	4700	9956	131	-40	-115	-16316	-2640	-1548	81	-34	177	-15956	1360	-2952	146	22	65	124	128	8
-11876	-2816	10296	-13	19	-24	-15448	-3608	-2336	1	-3	-3	-15520	-456	-4368	13	-21	19	-12396	4752	10020	128	4	-136	-16348	-2656	-1596	93	0	157	-15956	1304	-2984	172	32	42	124	129	8
-11840	-2776	10408	-11	12	-26	-15664	-3592	-2376	2	-3	1	-15488	-352	-4552	7	-24	16	-12404	4768	9968	131	-80	-131	-16320	-2636	-1456	87	-3	133	-16012	1320	-2840	204	21	25	125	128	8
-11896	-2872	10340	-14	14	-25	-15600	-3576	-2608	-3	-5	0	-15640	-432	-4456	6	-18	20	-12424	4716	9980	115	22	-117	-16340	-2608	-1600	64	-11	184	-16000	1296	-2976	172	-20	23	124	128	8
-11828	-2788	10424	-15	16	-25	-15600	-3544	-2384	-4	-2	-3	-15672	-248	-4392	8	-19	21	-12420	4824	10084	115	-8	-142	-16352	-2664	-1584	82	-38	149	-15980	1292	-2988	146	-26	7	124	128	8
-11888	-2836	10336	-17	18	-21	-15432	-3624	-2488	6	-5	-7	-15632	-328	-4504	0	-19	24	-12468	4772	10052	118	16	-111	-16356	-2680	-1596	84	-76	144	-15980	1280	-2980	162	-17	12	124	128	8
-11904	-2800	10388	-9	13	-23	-15576	-3456	-2368	-3	-7	-8	-15664	-432	-4680	5	-20	16	-12436	4744	10128	121	-48	-120	-16360	-2604	-1496	68	-54	148	-15948	1300	-3036	158	-13	4	125	128	8
-11860	-2808	10352	-14	16	-25	-15688	-3544	-2344	-1	-7	-5	-15600	-376	-4576	-1	-29	15	-12376	4692	10024	97	-39	-106	-16320	-2688	-1452	64	-77	110	-15916	1316	-3052	142	-18	4	125	128	8
-11836	-2888	10356	-12	14	-19	-15552	-3560	-2552	-12	-11	-1	-15616	-392	-4432	0	-28	11	-12452	4808	10024	110	-34	-120	-16312	-2644	-1456	80	-45	158	-15944	1324	-2960	108	3	22	125	128	8
-11872	-2864	10488	-14	14	-24	-15560	-3584	-2600	-10	-11	-7	-15784	-392	-4688	-3	-26	11	-12368	4720	10028	126	-14	-66	-16264	-2668	-1468	39	-61	146	-15988	1332	-2964	87	23	-12	124	128	8
-11876	-2756	10404	-16	13	-20	-15520	-3632	-2344	-8	-11	-9	-15640	-416	-4432	-9	-20	10	-12420	4728	9972	109	-27	-113	-16368	-2612	-1424	25	-68	147	-15944	1340	-2980	111	15	7	124	128	8
-11864	-2796	10388	-9	16	-23	-15488	-3456	-2528	-8	-9	-11	-15560	-352	-4424	-1	-21	13	-12464	4720	10020	90	-64	-83	-16312	-2576	-1532	50	-71	83	-15984	1312	-2940	67	-10	-5	123	129	8
-11932	-2788	10356	-15	17	-28	-15608	-3592	-2472	-13	-13	-10	-15552	-384	-4448	-7	-27	10	-12400	4700	10080	101	-73	-97	-16348	-2616	-1540	30	-41	141	-16040	1228	-2904	79	9	-7	124	129	8
-11788	-2852	10356	-15	17	-25	-15560	-3536	-2608	-26	-15	-10	-15600	-296	-4528	-11	-32	9	-12404	4776	10032	122	-32	-123	-16388	-2728	-1536	34	-55	137	-16040	1272	-2940	81	-8	-35	124	129	8
-11888	-2812	10376	-12	15	-28	-15472	-3544	-2640	-17	-19	-6	-15600	-480	-4544	-18	-30	8	-12372	4716	10108	101	-28	-125	-16340	-2632	-1564	43	-66	120	-15956	1264	-2884	56	-26	-4	125	128	8
-11912	-2800	10304	-11	16	-28	-15624	-3616	-2360	-12	-10	-11	-15512	-368	-4584	-22	-27	10	-12356	4724	10008	62	-6	-117	-16328	-2652	-1484	54	-91	128	-15968	1316	-2996	89	-7	-12	125	128	8
-11908	-2784	10400	-12	17	-23	-15536	-3408	-2480	-16	-15	-12	-15552	-376	-4544	-22	-24	7	-12388	4708	10108	95	-52	-117	-16400	-2648	-1500	40	-86	86	-15896	1292	-2976	105	-41	-1	125	128	8
-11844	-2856	10348	-11	17	-25	-15560	-3400	-2488	-19	-19	-12	-15592	-272	-4792	-21	-27	7	-12388	4720	10040	105	-44	-118	-16328	-2716	-1696	89	-100	95	-15976	1180	-3168	176	-74	0	126	129	8
-11868	-2808	10452	-13	15	-30	-15464	-3624	-2536	-24	-17	-15	-15568	-504	-4288	-17	-33	11	-12380	4764	9892	130	21	-141	-16328	-2620	-1560	90	-101	116	-16028	1252	-2896	187	-107	37	125	128	8
-11840	-2848	10268	-8	16	-30	-15416	-3648	-2552	-14	-14	-11	-15664	-472	-4256	-16	-28	10	-12356	4780	10052	112	-39	-128	-16384	-2712	-1536	87	-133	146	-15932	1232	-2912	154	-105	-23	124	129	8
-11896	-2836	10384	-11	13	-23	-15672	-3752	-2600	-11	-15	-9	-15608	-584	-4640	-5	-25	9	-12364	4784	10092	138	1	-107	-16404	-2644	-1520	130	-128	133	-15988	1288	-2904	238	-98	36	124	128	8
-11864	-2832	10352	-12	14	-26	-15608	-3616	-2256	-8	-11	-18	-15696	-648	-4488	-4	-19	12	-12396	4736	10012	108	-18	-120	-16340	-2632	-1556	125	-79	143	-15944	1280	-2992	228	-74	60	124	129	8
-11824	-2844	10308	-11	18	-24	-15488	-3608	-2424	3	-13	-9	-15696	-472	-4448	6	-22	16	-12376	4752	10068	154	5	-134	-16304	-2720	-1360	131	-114	142	-15968	1288	-2944	217	-67	42	124	129	8
-11792	-2812	10412	-8	17	-26	-15560	-3608	-2296	17	-6	-7	-15544	-592	-4472	11	-21	16	-12416	4712	10016	124	-39	-113	-16336	-2680	-1500	126	-78	121	-16008	1228	-2860	239	-38	29	124	128	8
-11856	-2828	10352	-12	18	-23	-15472	-3648	-2344	5	-10	-8	-15632	-440	-4568	12	-25	25	-12356	4800	10104	115	-61	-129	-16292	-2688	-1488	104	-71	139	-15940	1196	-2860	219	-38	32	125	129	8
-11900	-2696	10400	-8	15	-23	-15576	-3480	-2664	-7	-5	-5	-15712	-384	-4400	13	-25	17	-12424	4788	10088	125	17	-120	-16324	-2676	-1476	108	-70	143	-15940	1252	-2864	209	-38	39	125	129	8
-11800	-2820	10344	-13	13	-24	-15488	-3536	-2352	-7	-8	-11	-15576	-320	-4376	7	-26	16	-12420	4804	10112	96	-57	-120	-16400	-2684	-1604	78	-103	129	-15932	1280	-2912	198	-60	44	125	129	8
-11884	-2796	10448	-12	11	-20	-15440	-3656	-2584	-4	-6	-4	-15640	-392	-4352	6	-27	16	-12396	4764	10076	141	31	-154	-16300	-2640	-1484	77	-82	158	-15976	1280	-3008	208	-84	64	126	129	8
-11880	-2840	10356	-6	11	-22	-15480	-3576	-2352	7	-5	-11	-15608	-488	-4288	8	-23	15	-12328	4712	10028	121	17	-139	-16320	-2656	-1568	127	-56	139	-15956	1324	-2836	244	-34	72	126	128	8
-11856	-2844	10476	-11	15	-21	-15504	-3688	-2520	12	-6	-9	-15552	-288	-4504	7	-24	14	-12372	4680	9996	138	-54	-130	-16316	-2660	-1512	167	-91	117	-16016	1272	-3096	212	-89	57	125	128	8
-11884	-2828	10352	-8	14	-22	-15520	-3656	-2448	7	-10	-8	-15592	-440	-4512	6	-22	15	-12380	4804	9972	156	-22	-112	-16348	-2668	-1568	55	-64	137	-16012	1312	-2880	234	-72	79	125	129	8
-11872	-2856	10360	-11	17	-22	-15464	-3600	-2528	8	-9	-9	-15656	-544	-4400	13	-25	23	-12392	4732	10060	133	40	-133	-16332	-2720	-1460	122	-101	143	-15968	1256	-2900	248	-94	80	125	128	8
-11884	-2832	10400	-7	19	-22	-15512	-3624	-2120	8	-8	-8	-15640	-440	-4632	11	-24	22	-12436	4760	9968	127	10	-61	-16368	-2656	-1500	136	-72	138	-16008	1244	-2848	255	-85	81	125	128	8
-11824	-2832	10344	-11	18	-25	-15552	-3568	-2424	10	-8	-5	-15600	-416	-4416	20	-28	23	-12424	4776	10136	146	-37	-76	-16360	-2620	-1420	150	-88	179	-15976	1272	-2888	264	-79	78	124	128	8
-11880	-2828	10392	-12	16	-27	-15672	-3560	-2192	9	-5	-2	-15696	-480	-4472	21	-25	20	-12404	4708	10112	126	-25	-108	-16300	-2632	-1444	176	-45	186	-15980	1304	-2796	203	-66	85	124	128	8
-11868	-2828	10360	-14	17	-20	-15712	-3520	-2376	5	-6	-4	-15696	-400	-4720	23	-24	27	-12408	4780	10120	148	-14	-107	-16376	-2712	-1452	136	-49	171	-16008	1368	-2832	252	-89	59	126	128	8
-11788	-2812	10328	-12	14	-26	-15640	-3656	-2352	7	-7	-1	-15648	-480	-4400	18	-23	26	-12372	4748	10068	147	-42	-122	-16352	-2688	-1568	93	-44	160	-15980	1268	-2840	239	-25	77	126	128	8
-11812	-2764	10276	-13	16	-21	-15520	-3688	-2360	5	-7	-1	-15704	-448	-4472	17	-25	19	-12412	4772	9972	150	18	-121	-16324	-2640	-1576	94	-89	167	-16000	1308	-3096	237	-27	50	126	128	8
-11888	-2776	10356	-11	15	-28	-15576	-3576	-2360	8	-7	-2	-15760	-440	-4200	15	-23	17	-12364	4740	10112	121	-36	-87	-16308	-2632	-1456	64	-101	196	-16024	1288	-2892	220	-29	68	126	128	8
-11832	-2900	10352	-12	14	-22	-15640	-3664	-2512	5	-7	-3	-15640	-424	-4488	9	-25	19	-12336	4756	10156	140	-40	-113	-16344	-2664	-1560	166	-63	178	-16000	1300	-2992	259	-72	83	124	128	8
-11860	-2800	10396	-13	16	-23	-15664	-3544	-2672	3	-6	0	-15640	-392	-4408	10	-23	20	-12324	4808	10004	106	1	-114	-16348	-2616	-1360	159	-93	155	-15976	1316	-2984	248	-71	113	125	127	8
-11864	-2796	10364	-11	14	-28	-15608	-3704	-2344	11	-5	0	-15584	-376	-4512	12	-23	21	-12396	4788	10068	120	-24	-111	-16340	-2680	-1540	108	-56	165	-15988	1280	-2920	231	-94	69	125	128	8
-11836	-2812	10356	-10	17	-23	-15512	-3536	-2480	11	-4	-2	-15584	-512	-4440	6	-22	21	-12448	4756	10052	113	17	-135	-16376	-2692	-1540	151	-86	199	-15988	1292	-2760	257	-69	86	125	128	8
-11932	-2808	10368	-7	19	-22	-15440	-3504	-2448	4	-6	-1	-15608	-376	-4248	10	-29	17	-12388	4740	10036	116	-27	-112	-16336	-2712	-1372	175	-81	198	-16008	1284	-2620	235	-71	54	125	128	8
-11856	-2828	10336	-12	18	-23	-15504	-3544	-2552	1	-9	-3	-15656	-400	-4408	15	-34	20	-12396	4784	10100	146	-5	-101	-16392	-2684	-1488	120	-54	171	-16028	1364	-2848	246	-54	67	125	128	8
-11896	-2872	10384	-8	15	-26	-15440	-3688	-2344	4	-7	-6	-15712	-456	-4192	12	-30	19	-12336	4828	10112	137	1	-116	-16368	-2632	-1316	146	-71	194	-15972	1312	-2776	205	-14	65	125	128	8
-11860	-2776	10296	-8	17	-26	-15672	-3440	-2400	0	-7	-2	-15656	-456	-4320	5	-23	19	-12360	4780	10096	121	-29	-101	-16376	-2640	-1448	56	-111	169	-15992	1400	-2708	155	-6	72	124	127	8
-11900	-2840	10356	-13	19	-22	-15544	-3528	-2568	2	-5	-5	-15712	-312	-4328	4	-19	21	-12364	4796	9996	97	-4	-114	-16352	-2620	-1436	100	-77	172	-16016	1344	-2864	160	-53	56	125	128	8
-11836	-2716	10388	-8	19	-23	-15520	-3568	-2472	1	-7	-5	-15720	-608	-4304	4	-21	23	-12440	4776	9964	118	-51	-98	-16276	-2612	-1408	56	-21	176	-15996	1336	-2864	144	-66	39	125	128	8
-11836	-2784	10324	-9	16	-27	-15464	-3488	-2384	-8	-6	-4	-15536	-608	-4360	-2	-22	18	-12452	4776	10036	99	-30	-115	-16324	-2648	-1480	132	-40	206	-15996	1320	-2924	146	-30	52	125	128	8
-11876	-2800	10392	-13	16	-23	-15608	-3568	-2280	6	-9	-7	-15520	-472	-4424	2	-22	18	-12408	4752	10120	100	-112	-112	-16344	-2640	-1452	129	-23	143	-16000	1276	-2876	216	-34	74	125	128	8
-11892	-2792	10480	-12	19	-24	-15520	-3680	-2264	8	-9	-3	-15592	-416	-4448	4	-22	21	-12396	4696	10060	95	-6	-79	-16404	-2680	-1388	140	-88	154	-15972	1316	-2896	211	-44	64	126	128	8
-11892	-2732	10376	-10	17	-28	-15648	-3584	-2512	-1	-11	-4	-15752	-520	-4200	11	-30	16	-12352	4784	10068	156	19	-115	-16396	-2628	-1532	126	-64	141	-16016	1324	-2924	235	2	72	126	128	8
-11856	-2740	10424	-13	16	-26	-15576	-3536	-2480	-11	-7	-5	-15744	-488	-4488	8	-32	23	-12388	4728	10028	141	-29	-82	-16312	-2700	-1364	202	-71	177	-15884	1348	-2944	220	-53	84	125	129	8
-11884	-2836	10456	-11	16	-20	-15512	-3632	-2408	-3	-7	-1	-15544	-312	-4584	-6	-30	18	-12340	4776	10064	113	4	-85	-16360	-2628	-1532	168	-3	175	-16016	1348	-2908	191	-83	46	126	128	8
-11884	-2760	10388	-10	15	-20	-15560	-3560	-2328	-9	-11	-2	-15616	-304	-4280	-6	-28	18	-12448	4768	10036	141	-25	-71	-16328	-2604	-1492	46	-65	186	-15976	1380	-2856	167	-64	56	127	128	8
-11876	-2756	10448	-7	14	-23	-15496	-3552	-2264	-5	-15	-6	-15648	-344	-4376	-4	-33	14	-12304	4740	9992	114	-91	-69	-16280	-2604	-1544	105	-32	171	-15852	1356	-2836	47	-50	64	126	128	8
-11876	-2776	10452	-10	15	-25	-15440	-3488	-2384	-2	-13	-7	-15800	-312	-4264	-13	-29	12	-12420	4772	10016	122	-39	-123	-16404	-2708	-1452	114	-82	153	-15956	1228	-2832	124	-73	9	126	128	8
-11836	-2784	10460	-10	18	-23	-15616	-3520	-2416	-9	-14	-6	-15776	-368	-4360	-17	-25	11	-12372	4752	10108	157	-10	-98	-16336	-2660	-1436	86	-69	212	-16032	1284	-2904	27	-73	10	127	127	8
-11852	-2764	10476	-12	14	-24	-15552	-3656	-2488	-17	-13	-5	-15576	-520	-4400	-16	-29	16	-12384	4728	10032	131	-64	-61	-16360	-2660	-1428	13	-46	151	-15988	1316	-2856	47	-49	50	126	128	8
-11824	-2796	10352	-10	17	-26	-15616	-3472	-2200	-9	-17	-5	-15744	-592	-4344	-16	-32	17	-12436	4732	10000	95	-87	-48	-16316	-2640	-1368	-68	-79	190	-15908	1308	-2892	45	-83	32	125	128	8
-11836	-2864	10376	-13	20	-28	-15576	-3624	-2416	-11	-17	-4	-15656	-424	-4288	-9	-34	11	-12408	4796	10112	99	-44	-75	-16360	-2624	-1448	41	-71	188	-16024	1332	-2788	88	-54	35	126	128	8
-11840	-2808	10352	-12	18	-25	-15560	-3576	-2576	-12	-15	-7	-15656	-592	-4320	-6	-31	14	-12384	4748	10068	105	-13	-79	-16392	-2540	-1388	81	-49	191	-16000	1324	-2804	81	-49	27	126	128	8
-11836	-2784	10368	-12	17	-22	-15560	-3624	-2568	-17	-19	-6	-15608	-384	-4216	-8	-36	14	-12344	4780	10024	83	-7	-77	-16324	-2648	-1444	74	-7	175	-15968	1368	-2800	72	-41	22	126	128	8
-11824	-2780	10428	-15	16	-19	-15600	-3352	-2368	-17	-11	-7	-15776	-480	-4208	-12	-34	13	-12368	4764	9996	127	-41	-80	-16300	-2676	-1532	15	-33	177	-15992	1292	-2844	76	-43	20	125	128	8
-11872	-2792	10464	-9	12	-24	-15544	-3592	-2320	7	-13	-5	-15648	-456	-4512	-7	-27	13	-12400	4724	10028	86	-49	-102	-16380	-2644	-1544	-26	-47	179	-16000	1312	-2820	61	-65	33	124	128	8
-11880	-2804	10396	-10	15	-23	-15672	-3456	-2576	6	-14	-4	-15680	-392	-4576	-1	-27	12	-12328	4664	9980	100	-42	-101	-16356	-2668	-1568	-30	-73	165	-16064	1348	-2916	125	-127	26	124	128	8
-11836	-2812	10384	-15	18	-27	-15552	-3440	-2376	-2	-10	-4	-15624	-304	-4320	-8	-26	16	-12412	4748	10020	42	-30	-55	-16312	-2632	-1456	19	-42	176	-16012	1296	-2700	59	-105	57	125	128	8
-11900	-2748	10292	-10	18	-30	-15448	-3568	-2560	-10	-19	-4	-15544	-496	-4408	-7	-33	13	-12360	4836	9952	95	-24	-35	-16388	-2596	-1480	72	-40	156	-16028	1392	-2776	91	-78	53	125	128	8
-11892	-2800	10444	-13	15	-25	-15536	-3616	-2384	-14	-11	-6	-15624	-560	-4520	-11	-32	10	-12340	4784	10024	73	-53	-106	-16328	-2616	-1448	93	-9	144	-15948	1300	-2844	128	-81	32	125	128	8
-11872	-2772	10372	-15	15	-23	-15664	-3488	-2304	-11	-17	-7	-15696	-488	-4080	-10	-30	6	-12396	4792	10052	113	-79	-100	-16364	-2548	-1512	97	4	175	-15988	1360	-2916	129	-70	20	124	128	8
-11820	-2800	10464	-11	18	-25	-15616	-3592	-2512	-6	-13	-6	-15672	-488	-4208	-4	-26	15	-12356	4776	10148	104	-74	-83	-16404	-2572	-1348	-51	-34	166	-16048	1332	-2696	93	-54	16	125	127	8
-11952	-2820	10372	-12	15	-31	-15504	-3456	-2376	4	-8	-7	-15760	-472	-4248	4	-25	12	-12348	4824	10172	100	-57	-98	-16364	-2568	-1420	1	-49	173	-16032	1320	-2796	113	-48	47	125	128	8
-11888	-2768	10440	-14	16	-26	-15560	-3576	-2448	5	-8	0	-15616	-528	-4416	3	-21	15	-12368	4808	10060	84	-33	-106	-16404	-2640	-1496	89	-20	125	-16076	1408	-2900	140	-43	44	124	128	8
-11868	-2800	10504	-12	14	-22	-15504	-3584	-2416	-5	-9	-8	-15776	-496	-3904	6	-22	18	-12364	4780	10072	142	-32	-111	-16440	-2544	-1368	79	14	148	-16044	1328	-2764	154	7	25	125	128	8
-11808	-2860	10432	-8	18	-29	-15488	-3624	-2520	-16	-6	-9	-15640	-472	-4080	-3	-27	17	-12376	4744	10128	116	-28	-155	-16428	-2632	-1564	-7	-32	128	-16088	1288	-2844	129	-11	24	125	128	8
-11888	-2816	10352	-10	15	-22	-15544	-3632	-2272	-13	-5	-6	-15496	-416	-4264	-7	-24	11	-12436	4792	10092	169	-62	-137	-16340	-2604	-1484	65	-38	127	-15980	1352	-2808	88	10	13	124	128	8
-11860	-2812	10392	-11	13	-25	-15488	-3568	-2656	1	-5	-6	-15664	-664	-4208	-2	-24	9	-12380	4752	10052	151	13	-136	-16292	-2608	-1596	58	-66	144	-15960	1288	-2840	118	-19	-33	125	128	8
-11864	-2812	10488	-9	15	-25	-15552	-3592	-2360	3	-4	-2	-15632	-440	-4328	-5	-20	16	-12280	4784	10132	136	-1	-135	-16352	-2584	-1484	2	-96	116	-15996	1260	-2852	153	-44	19	124	128	8
-11864	-2772	10296	-10	14	-22	-15576	-3496	-2368	1	-4	-5	-15704	-352	-4136	-1	-16	13	-12408	4720	10016	139	-35	-149	-16324	-2712	-1432	103	-77	131	-15944	1292	-2680	178	-26	23	125	128	8
-11872	-2808	10388	-16	15	-27	-15616	-3464	-2424	3	-6	-8	-15672	-320	-4392	4	-21	18	-12392	4736	10032	101	-14	-168	-16284	-2740	-1488	215	-60	132	-15924	1292	-2768	289	-12	36	125	128	8
-11872	-2812	10364	-12	12	-25	-15696	-3536	-2424	11	-6	-11	-15664	-600	-4368	8	-25	18	-12392	4760	10092	101	-90	-104	-16300	-2656	-1356	182	-18	170	-15988	1244	-2768	297	-8	29	125	129	8
-11836	-2820	10396	-11	15	-24	-15568	-3616	-2440	7	-8	-8	-15520	-520	-4240	15	-22	18	-12352	4772	10168	171	7	-98	-16380	-2620	-1528	99	-53	137	-15976	1300	-2764	275	-43	30	125	128	8
-11852	-2820	10304	-13	17	-23	-15472	-3584	-2368	0	-8	-7	-15592	-448	-4136	14	-23	17	-12424	4824	10112	139	-69	-124	-16384	-2648	-1384	75	-62	146	-16060	1368	-2884	226	-8	40	125	128	8
-11892	-2760	10336	-12	13	-24	-15488	-3584	-2504	-3	-2	-8	-15600	-472	-4320	13	-26	14	-12404	4680	10092	122	22	-118	-16336	-2668	-1508	118	-87	160	-16084	1332	-2796	216	-40	41	124	128	8
-11856	-2756	10476	-6	16	-22	-15616	-3624	-2296	-2	-6	-8	-15792	-456	-4504	12	-24	18	-12296	4724	10044	135	-45	-126	-16376	-2628	-1468	134	-41	134	-16040	1396	-2752	232	-48	38	124	128	8
-11872	-2816	10488	-10	14	-23	-15600	-3480	-2384	8	0	-8	-15696	-336	-4344	10	-24	14	-12332	4764	10052	148	-24	-135	-16332	-2628	-1376	163	4	168	-15956	1340	-2776	200	-28	22	124	128	8
-11948	-2728	10424	-13	16	-26	-15696	-3592	-2416	8	-3	-7	-15664	-440	-4192	2	-19	18	-12384	4764	10016	132	-46	-124	-16344	-2652	-1440	99	-15	145	-15960	1356	-2708	168	-54	5	124	128	8
-11820	-2884	10384	-9	19	-26	-15632	-3608	-2712	-7	-6	-1	-15656	-456	-4464	-2	-19	15	-12364	4784	10068	135	-24	-96	-16356	-2632	-1396	83	-71	143	-16000	1256	-2720	149	-52	2	125	129	8
-11912	-2768	10404	-10	16	-29	-15496	-3552	-2552	-9	-6	-5	-15680	-448	-4224	1	-23	12	-12304	4796	10060	112	-39	-138	-16420	-2644	-1388	43	-33	175	-15984	1248	-2788	141	-60	21	125	129	8
-11864	-2820	10392	-16	14	-20	-15664	-3576	-2528	-2	-1	-9	-15664	-440	-4368	0	-25	17	-12360	4772	10040	104	-19	-106	-16332	-2652	-1404	32	-34	157	-16040	1292	-2824	136	-44	5	124	128	8
-11888	-2820	10384	-6	12	-24	-15512	-3560	-2344	-2	-2	-2	-15640	-616	-4264	-4	-25	16	-12356	4828	10048	140	-19	-145	-16424	-2656	-1444	22	-76	161	-16032	1324	-2868	125	-15	22	124	128	8
-11900	-2772	10484	-4	18	-25	-15712	-3600	-2328	-2	-4	-6	-15552	-416	-4200	-6	-27	13	-12396	4700	10020	110	-46	-138	-16308	-2640	-1428	16	-25	161	-15956	1348	-2900	123	-19	36	125	128	8
-11892	-2848	10480	-12	13	-20	-15632	-3616	-2208	-11	-12	-3	-15480	-416	-4184	-4	-29	13	-12356	4712	10064	89	-30	-102	-16324	-2708	-1512	83	-61	203	-15952	1312	-2872	124	-41	18	125	129	8
-11872	-2780	10396	-11	14	-22	-15648	-3584	-2280	-4	-6	-3	-15608	-464	-4232	1	-31	15	-12384	4780	10112	106	-25	-139	-16396	-2672	-1400	67	-78	186	-15992	1208	-2824	153	-56	19	125	129	8
-11892	-2800	10384	-12	18	-25	-15552	-3656	-2336	-11	-11	-7	-15640	-544	-4288	-2	-30	16	-12324	4760	10064	108	6	-151	-16376	-2616	-1364	60	-51	216	-16016	1308	-2816	142	-110	70	125	129	8
-11908	-2848	10424	-11	17	-21	-15512	-3568	-2168	-7	-8	-4	-15624	-536	-4176	1	-28	13	-12396	4772	10104	103	-35	-148	-16292	-2612	-1440	17	-104	185	-15920	1320	-2740	131	-65	40	125	128	8
-11848	-2756	10344	-8	16	-24	-15600	-3592	-2592	2	-4	-6	-15888	-392	-4168	3	-23	19	-12392	4768	10108	118	-81	-92	-16392	-2640	-1500	-1	-85	192	-16048	1276	-2748	170	-117	50	125	127	8
-11836	-2784	10384	-10	19	-23	-15616	-3632	-2456	-3	-6	0	-15904	-464	-4320	5	-23	18	-12312	4724	10052	110	-29	-132	-16388	-2584	-1460	10	-96	176	-16012	1292	-2704	157	-66	27	124	128	8
-11836	-2732	10372	-11	16	-26	-15472	-3568	-2272	-4	0	0	-15632	-496	-4304	8	-22	23	-12360	4744	10172	93	-20	-95	-16340	-2608	-1528	39	-87	164	-16060	1296	-2728	131	-52	53	124	128	8
-11860	-2812	10288	-9	11	-24	-15568	-3560	-2264	-7	-7	0	-15712	-448	-4176	9	-31	14	-12436	4768	10108	87	-89	-118	-16360	-2580	-1384	67	-97	139	-16072	1388	-2800	155	-69	60	124	128	8
-11796	-2796	10336	-11	12	-23	-15616	-3544	-2232	-1	-1	0	-15744	-400	-4392	9	-39	20	-12352	4828	10036	83	-48	-151	-16432	-2612	-1468	92	-59	172	-16060	1244	-2800	175	-74	70	125	128	8
-11808	-2796	10420	-6	10	-21	-15544	-3592	-2456	0	1	-4	-15696	-472	-4216	13	-36	20	-12324	4744	10184	69	-75	-94	-16336	-2660	-1348	136	-50	217	-16008	1348	-2760	201	-111	69	124	128	8
-11836	-2796	10436	-9	17	-23	-15552	-3632	-2560	-3	0	1	-15696	-408	-4232	12	-37	19	-12356	4776	10096	56	-47	-126	-16284	-2640	-1428	119	-58	171	-15992	1328	-2704	228	-138	46	124	128	8
-11896	-2832	10296	-10	15	-22	-15696	-3632	-2360	-4	-10	-3	-15576	-504	-4128	12	-36	19	-12372	4820	10208	71	-87	-136	-16372	-2580	-1308	35	-120	164	-16008	1400	-2804	235	-164	87	125	128	8
-11884	-2824	10356	-12	13	-26	-15624	-3536	-2352	-5	-8	-1	-15680	-296	-4240	12	-39	19	-12412	4804	10100	76	-25	-127	-16388	-2644	-1512	24	-112	177	-16008	1392	-2796	189	-148	73	125	128	8
-11776	-2792	10388	-9	13	-27	-15672	-3568	-2112	-7	-11	-5	-15680	-416	-4240	11	-36	12	-12388	4772	10104	20	-91	-165	-16400	-2536	-1428	47	-113	167	-16036	1448	-2804	165	-136	84	126	128	8
-11820	-2824	10420	-10	13	-25	-15656	-3544	-2288	-1	-8	-11	-15816	-456	-4152	3	-33	15	-12308	4732	10148	-7	-110	-179	-16320	-2488	-1320	101	-63	193	-16012	1404	-2672	117	-185	77	125	128	8
-11856	-2792	10436	-9	17	-22	-15512	-3360	-2408	-2	-17	-5	-15616	-376	-4104	-6	-33	11	-12332	4804	9996	-61	-193	-231	-16396	-2488	-1492	34	-55	143	-16012	1524	-2616	66	-181	65	125	128	8
-11828	-2744	10320	-12	15	-28	-15616	-3408	-2408	-20	-18	-3	-15768	-368	-4224	-1	-33	11	-12340	4756	10116	-102	-144	-236	-16332	-2532	-1328	-123	-98	138	-16016	1488	-2620	-68	-112	25	125	129	8
-11832	-2824	10460	-10	12	-23	-15624	-3592	-2400	-9	-19	-9	-15824	-416	-4360	-5	-37	8	-12300	4696	10164	-86	-160	-237	-16452	-2620	-1460	-240	-139	154	-16044	1416	-2804	-117	-116	53	124	128	8
-11876	-2752	10496	-5	16	-25	-15712	-3592	-2256	-14	-17	-4	-15664	-600	-4096	-1	-35	9	-12368	4760	10068	-30	-105	-178	-16332	-2720	-1564	-118	-184	128	-16100	1292	-2544	-89	-85	29	125	128	8
-11864	-2828	10396	-9	16	-25	-15432	-3408	-2448	-19	-17	-9	-15664	-592	-4176	0	-39	8	-12320	4704	10060	-40	-100	-196	-16400	-2652	-1408	52	-75	134	-15996	1356	-2676	-75	-109	13	126	128	8
-11864	-2840	10444	-11	15	-24	-15600	-3488	-2208	-15	-11	-8	-15704	-432	-4216	-11	-39	9	-12300	4664	10144	-19	-117	-198	-16344	-2656	-1348	23	-98	117	-16024	1352	-2700	-30	-187	3	125	128	8
-11780	-2824	10388	-11	15	-25	-15712	-3552	-2304	-24	-14	-8	-15704	-464	-4352	-11	-36	6	-12308	4688	10196	22	-110	-183	-16376	-2604	-1364	5	-65	121	-16032	1332	-2612	26	-166	25	126	127	8
-11860	-2832	10364	-12	16	-27	-15544	-3616	-2328	-22	-17	-11	-15656	-456	-4224	-18	-35	1	-12340	4640	10240	-31	-108	-191	-16360	-2592	-1332	-72	-23	126	-16040	1408	-2648	33	-199	3	126	128	8
-11840	-2804	10440	-10	15	-24	-15576	-3584	-2376	-19	-15	-14	-15656	-488	-4104	-19	-37	6	-12312	4652	10132	-2	-100	-182	-16408	-2604	-1524	-130	-38	103	-16000	1344	-2632	31	-137	66	127	128	8
-11852	-2880	10468	-7	11	-24	-15528	-3664	-1984	-16	-12	-9	-15664	-480	-4080	-17	-36	3	-12312	4668	10152	27	-129	-151	-16424	-2700	-1460	27	-57	112	-16004	1312	-2668	63	-113	21	126	128	8
-11852	-2820	10408	-10	14	-24	-15624	-3608	-2344	-14	-12	-7	-15752	-504	-4144	-16	-36	1	-12292	4696	10148	25	-119	-152	-16392	-2672	-1488	118	34	130	-16008	1324	-2776	70	-112	25	126	128	8
-11848	-2800	10380	-8	14	-27	-15528	-3648	-2480	-6	-13	-10	-15624	-472	-4176	-12	-37	5	-12332	4756	10124	40	-172	-175	-16344	-2652	-1408	119	-18	131	-16036	1312	-2756	35	-143	4	125	128	8
-11904	-2780	10456	-7	12	-25	-15608	-3584	-2296	-10	-14	-9	-15704	-520	-4176	-19	-35	8	-12308	4768	10160	35	-89	-180	-16396	-2608	-1372	-45	-70	113	-16016	1368	-2556	-60	-166	3	125	128	8
-11844	-2832	10440	-10	13	-24	-15664	-3608	-2184	-15	-16	-9	-15696	-440	-4208	-12	-39	7	-12296	4668	10256	29	-96	-183	-16424	-2704	-1508	-97	-71	126	-16048	1352	-2616	-4	-134	17	125	128	8
-11892	-2848	10500	-13	13	-27	-15536	-3616	-2104	-10	-15	-5	-15672	-376	-4152	-14	-36	6	-12280	4608	10184	72	-16	-167	-16372	-2620	-1432	-79	-41	94	-15976	1268	-2676	41	-87	11	125	128	8
-11852	-2804	10464	-13	16	-31	-15704	-3496	-2280	-15	-16	-13	-15792	-312	-4088	-10	-35	6	-12280	4696	10184	141	-56	-130	-16368	-2708	-1512	-15	-76	129	-16032	1332	-2624	59	-13	-2	125	128	8
-11872	-2836	10464	-15	18	-21	-15568	-3600	-2480	-21	-15	-13	-15640	-512	-4072	-11	-33	4	-12364	4716	10164	120	-37	-111	-16332	-2648	-1456	112	-41	112	-15996	1368	-2696	118	-52	26	125	128	8
-11880	-2776	10504	-14	15	-23	-15600	-3552	-2280	-18	-18	-12	-15680	-424	-4024	-12	-27	1	-12320	4736	10160	118	-55	-100	-16352	-2620	-1444	61	-65	140	-16004	1320	-2692	100	-67	21	126	128	8
-11852	-2768	10536	-9	11	-22	-15608	-3576	-2320	-8	-12	-12	-15776	-576	-3984	-5	-25	10	-12400	4684	10172	115	-36	-124	-16296	-2712	-1484	94	-77	117	-16068	1292	-2624	65	-72	-24	125	129	8
-11816	-2796	10488	-9	15	-20	-15584	-3584	-2144	-4	-13	-9	-15656	-528	-4072	-9	-29	8	-12320	4616	10156	127	-41	-153	-16384	-2724	-1392	93	-82	153	-16044	1316	-2496	60	-90	-2	125	129	8
-11864	-2816	10448	-8	17	-25	-15632	-3656	-2360	1	-10	-12	-15648	-560	-4128	-5	-27	10	-12384	4660	10276	142	-3	-135	-16412	-2584	-1336	-18	-105	119	-15976	1292	-2636	83	-54	-20	126	128	8
-11820	-2848	10368	-10	12	-23	-15656	-3568	-2248	-7	-13	-13	-15784	-472	-3840	-6	-31	10	-12376	4688	10132	133	-31	-129	-16380	-2652	-1340	-39	-52	157	-16056	1372	-2632	31	-27	18	126	128	8
-11804	-2848	10396	-9	15	-25	-15672	-3688	-2176	-1	-13	-7	-15704	-432	-4096	-5	-28	9	-12292	4708	10240	138	-45	-149	-16360	-2728	-1304	93	-79	131	-16064	1304	-2524	86	-24	30	126	128	8
-11888	-2784	10428	-10	15	-19	-15560	-3600	-2352	-10	-12	-6	-15704	-680	-4200	-4	-28	14	-12300	4608	10240	125	-44	-149	-16364	-2716	-1404	151	-71	169	-16020	1212	-2624	181	-25	17	125	128	8
-11868	-2812	10436	-10	14	-24	-15696	-3648	-2400	-7	-11	-7	-15680	-400	-3976	-7	-28	10	-12308	4628	10160	153	-20	-118	-16364	-2664	-1392	143	-50	161	-16056	1324	-2592	207	-30	10	126	128	8
-11804	-2760	10296	-11	16	-23	-15448	-3592	-2152	9	-9	-14	-15832	-488	-4024	-7	-23	14	-12376	4704	10204	133	-45	-105	-16420	-2596	-1452	79	-86	145	-16024	1356	-2616	165	-32	9	127	128	8
-11908	-2828	10344	-10	16	-27	-15696	-3560	-2152	1	-10	-6	-15776	-560	-3992	-3	-25	10	-12264	4644	10188	106	11	-99	-16320	-2716	-1416	-9	-70	134	-16024	1288	-2760	186	-32	16	126	128	8
-11856	-2800	10364	-11	15	-28	-15712	-3560	-2264	0	-12	-7	-15608	-568	-4080	0	-24	13	-12404	4628	10216	153	-21	-114	-16404	-2608	-1476	73	-60	157	-16012	1400	-2624	185	-43	-12	126	128	8
-11848	-2784	10384	-10	16	-23	-15528	-3688	-2208	-6	-10	-8	-15784	-536	-4024	3	-23	11	-12328	4644	10164	145	-43	-86	-16356	-2680	-1320	79	-75	168	-16016	1356	-2592	163	-50	-5	126	128	8
-11868	-2776	10360	-9	16	-26	-15576	-3616	-2024	-7	-11	-7	-15680	-640	-4040	3	-27	10	-12360	4644	10272	119	-36	-104	-16352	-2644	-1288	90	-73	204	-16056	1300	-2560	103	-2	26	128	128	8
-11816	-2828	10380	-9	14	-26	-15616	-3592	-2176	1	-8	-6	-15824	-528	-3816	0	-20	13	-12324	4720	10272	163	-26	-79	-16372	-2720	-1432	160	-40	196	-16064	1284	-2540	114	-22	1	126	129	8
-11840	-2780	10468	-7	22	-21	-15600	-3592	-2032	-3	-5	-4	-15736	-600	-4024	0	-19	17	-12368	4728	10160	141	7	-142	-16416	-2612	-1436	140	8	183	-16112	1324	-2552	144	16	45	126	129	8
-11884	-2768	10420	-10	15	-21	-15576	-3592	-2024	2	0	-1	-15792	-632	-4016	1	-17	21	-12400	4732	10244	142	8	-130	-16416	-2644	-1384	9	-31	194	-16040	1304	-2540	106	71	17	126	128	8
-11908	-2804	10432	-14	17	-18	-15512	-3528	-2176	6	-3	-9	-15736	-584	-4136	2	-14	22	-12348	4608	10132	125	-16	-96	-16388	-2616	-1432	-30	-44	202	-16036	1280	-2540	152	25	42	126	128	8
-11824	-2828	10476	-6	13	-22	-15584	-3688	-2120	0	-1	-1	-15864	-576	-4176	3	-23	20	-12320	4668	10076	107	16	-120	-16364	-2576	-1520	37	13	157	-15996	1296	-2704	207	66	58	126	128	8
-11864	-2812	10348	-12	14	-20	-15664	-3544	-2296	6	4	2	-15720	-456	-3768	5	-16	22	-12352	4648	10216	157	5	-119	-16328	-2608	-1524	184	-8	209	-15968	1328	-2700	303	44	103	126	128	8
-11880	-2812	10436	-9	15	-23	-15672	-3448	-2264	4	0	-1	-15784	-480	-4240	9	-14	20	-12312	4676	10092	161	-55	-128	-16368	-2668	-1520	247	-20	189	-15960	1328	-2644	303	16	70	125	128	8
-11832	-2776	10340	-9	17	-24	-15632	-3592	-2264	4	0	2	-15792	-592	-4144	9	-9	31	-12280	4700	10288	176	26	-98	-16364	-2664	-1444	231	40	189	-16092	1332	-2668	405	-24	76	125	129	8
-11848	-2784	10412	-7	17	-19	-15576	-3448	-2024	2	-5	-2	-15792	-616	-3960	15	-9	26	-12308	4644	10284	173	41	-115	-16384	-2572	-1444	187	-12	199	-16096	1316	-2636	368	-16	76	125	128	8
-11808	-2764	10444	-15	19	-17	-15752	-3576	-2096	21	5	-6	-15648	-680	-4216	19	-8	28	-12280	4712	10156	190	-17	-96	-16416	-2560	-1324	167	-22	182	-16080	1388	-2772	366	-38	112	125	128	8
-11848	-2720	10400	-10	12	-23	-15616	-3624	-2352	15	7	2	-15736	-456	-3920	31	-7	27	-12352	4676	10300	145	8	-94	-16420	-2532	-1368	179	-16	176	-16088	1496	-2676	378	-7	111	126	128	8
-11860	-2740	10364	-15	18	-24	-15664	-3608	-2056	9	5	-4	-15736	-568	-4080	29	-11	27	-12384	4692	10196	159	-19	-115	-16360	-2580	-1316	155	-8	159	-16024	1412	-2552	349	13	121	125	128	8
-11804	-2764	10496	-15	14	-21	-15632	-3560	-2424	6	1	0	-15720	-584	-4008	22	-11	24	-12320	4676	10224	163	-21	-120	-16408	-2612	-1384	216	-49	174	-15972	1436	-2664	302	-3	47	126	129	8
-11836	-2828	10392	-11	19	-22	-15616	-3416	-2144	10	-1	-6	-15720	-456	-3928	18	-10	23	-12304	4652	10192	175	-7	-123	-16348	-2592	-1528	172	-43	135	-15988	1432	-2684	295	9	45	125	128	8
-11856	-2740	10352	-14	14	-24	-15608	-3552	-2304	3	3	-10	-15736	-424	-4072	13	-11	20	-12416	4648	10212	150	-12	-107	-16352	-2572	-1404	115	-55	119	-16008	1424	-2584	220	9	58	125	128	8
-11836	-2784	10452	-11	16	-23	-15576	-3520	-2440	-1	2	-4	-15760	-360	-4192	17	-16	19	-12308	4684	10148	151	-33	-114	-16320	-2580	-1512	128	-23	150	-16072	1428	-2592	260	-18	29	125	128	8
-11848	-2824	10460	-15	17	-21	-15560	-3488	-2200	1	-3	-9	-15792	-344	-3920	10	-11	16	-12284	4732	10136	136	-81	-85	-16408	-2560	-1436	170	-6	169	-16032	1408	-2620	265	2	61	126	128	8
-11868	-2832	10520	-14	16	-27	-15608	-3464	-2408	5	-3	-7	-15760	-576	-3776	10	-14	19	-12324	4656	10096	121	14	-141	-16364	-2580	-1360	84	-53	150	-16040	1428	-2624	247	38	31	127	128	8
-11860	-2756	10388	-12	15	-23	-15648	-3656	-2224	2	2	-5	-15776	-624	-3944	6	-9	18	-12400	4700	10212	137	-10	-117	-16392	-2620	-1400	59	-3	141	-16140	1392	-2636	201	8	20	127	128	8
-11840	-2740	10492	-13	17	-26	-15584	-3632	-2200	2	6	-7	-15744	-472	-4024	3	-10	17	-12328	4756	10160	141	18	-180	-16376	-2588	-1336	135	12	114	-16024	1360	-2440	191	-5	40	127	128	8
-11876	-2780	10504	-7	17	-25	-15560	-3616	-2064	-7	-2	-10	-15840	-536	-4000	2	-10	17	-12372	4636	10148	173	2	-154	-16272	-2604	-1344	128	27	135	-15984	1472	-2548	202	41	32	126	128	8
-11808	-2808	10408	-8	13	-22	-15664	-3560	-2352	-1	4	-2	-15720	-488	-4000	0	-10	18	-12328	4672	10116	147	73	-161	-16384	-2572	-1376	63	3	112	-15932	1348	-2732	156	39	25	126	128	8
-11860	-2752	10480	-12	18	-19	-15568	-3464	-2480	8	5	-4	-15672	-520	-4176	0	-14	19	-12304	4648	10148	144	-11	-140	-16336	-2620	-1424	13	32	106	-15996	1368	-2628	139	-2	-16	126	128	8
-11852	-2840	10340	-8	16	-23	-15512	-3568	-2280	8	3	-6	-15712	-536	-3984	4	-13	19	-12376	4684	10164	132	3	-139	-16376	-2672	-1460	24	-12	127	-16108	1220	-2724	199	18	35	125	128	8
-11844	-2804	10340	-9	19	-25	-15696	-3592	-2344	9	3	-4	-15784	-560	-4200	14	-6	21	-12348	4708	10148	140	-4	-100	-16288	-2612	-1412	127	7	200	-16092	1360	-2600	212	6	31	126	128	8
-11848	-2808	10400	-13	17	-25	-15488	-3536	-2072	2	-1	-4	-15712	-584	-4320	14	-7	23	-12324	4716	10160	151	34	-154	-16372	-2596	-1392	176	56	162	-16080	1284	-2672	176	2	4	126	128	8
-11892	-2784	10420	-10	18	-24	-15616	-3552	-2272	3	1	-4	-15856	-480	-4248	5	-10	21	-12344	4744	10168	157	-2	-134	-16352	-2588	-1400	71	31	147	-16008	1292	-2600	149	21	59	125	128	8
-11784	-2800	10372	-9	19	-23	-15712	-3624	-2256	-1	0	-9	-15792	-472	-4072	5	-15	16	-12384	4716	10164	179	40	-119	-16364	-2632	-1360	-81	11	132	-16032	1340	-2628	194	15	33	126	128	8
-11836	-2784	10444	-12	21	-22	-15424	-3544	-2328	0	-6	-5	-15664	-384	-4200	3	-16	17	-12356	4672	10112	196	51	-131	-16388	-2740	-1380	-18	36	113	-16000	1384	-2692	231	14	23	125	128	8
-11864	-2764	10396	-11	16	-24	-15656	-3680	-2488	-3	-3	-8	-15760	-384	-4224	-8	-17	14	-12348	4656	10148	196	66	-139	-16300	-2692	-1372	136	1	161	-16056	1332	-2684	213	-49	9	125	128	8
-11828	-2796	10372	-12	21	-26	-15696	-3520	-2288	-1	-3	2	-15688	-456	-4240	-1	-10	17	-12300	4720	10104	174	2	-108	-16392	-2608	-1412	136	-12	135	-15952	1376	-2668	145	-36	16	126	128	8
-11868	-2784	10460	-15	16	-21	-15520	-3704	-2496	7	1	-5	-15696	-632	-3968	0	-12	16	-12292	4612	10264	183	-31	-118	-16420	-2692	-1408	60	-11	137	-15960	1292	-2664	203	-25	-3	126	128	8
-11892	-2768	10436	-13	20	-29	-15512	-3696	-2152	1	-6	-4	-15624	-576	-4088	12	-8	19	-12360	4760	10016	186	-16	-146	-16384	-2724	-1436	109	-34	152	-16052	1348	-2548	163	-24	15	127	128	8
-11864	-2740	10476	-11	19	-25	-15488	-3632	-2152	-4	-4	-8	-15880	-592	-3792	13	-10	22	-12280	4688	10180	188	-12	-93	-16332	-2660	-1368	74	53	159	-16096	1348	-2632	160	-26	5	126	128	8
-11900	-2828	10472	-11	17	-28	-15528	-3576	-2080	5	-1	-4	-15840	-624	-4056	12	-4	27	-12328	4768	10148	135	6	-110	-16308	-2588	-1320	-17	65	154	-16080	1360	-2452	142	31	17	126	128	8
-11888	-2768	10504	-7	21	-23	-15600	-3856	-2112	13	9	-7	-15808	-696	-3960	10	-2	28	-12364	4656	10200	166	-19	-120	-16344	-2668	-1336	9	50	151	-16028	1284	-2560	156	115	20	127	128	8
-11880	-2788	10396	-8	18	-22	-15640	-3488	-2256	5	7	3	-15800	-592	-4112	2	-7	26	-12364	4684	10180	169	63	-116	-16376	-2716	-1448	32	29	190	-16044	1220	-2676	265	133	13	127	128	8
-11824	-2820	10404	-10	17	-22	-15576	-3424	-2424	-8	6	1	-15664	-560	-4352	1	-15	20	-12332	4612	10148	157	22	-48	-16404	-2624	-1360	53	37	187	-16072	1284	-2656	270	42	30	126	128	8
-11864	-2716	10488	-14	19	-22	-15568	-3464	-2360	2	4	-4	-15584	-416	-4320	-5	-23	25	-12296	4768	10204	175	26	-86	-16440	-2612	-1488	0	-26	140	-15992	1284	-2892	257	38	88	127	128	8
-11836	-2772	10412	-9	18	-24	-15664	-3600	-2216	0	5	1	-15680	-416	-4112	-14	-21	23	-12324	4732	10248	171	62	-100	-16392	-2652	-1476	106	-70	165	-15988	1296	-3000	289	-3	83	126	128	8
-11884	-2688	10420	-11	15	-22	-15560	-3576	-2264	-10	-8	-3	-15680	-320	-4312	-2	-25	19	-12308	4672	10104	185	4	-75	-16332	-2544	-1504	177	-69	174	-15956	1296	-3036	312	-51	89	126	128	8
-11872	-2736	10384	-13	14	-24	-15528	-3656	-2496	-6	-12	-11	-15704	-424	-4144	-3	-29	19	-12344	4640	10092	182	-39	-109	-16396	-2612	-1560	237	-109	149	-15984	1280	-2872	389	-151	75	126	129	8
-11864	-2772	10340	-10	15	-28	-15480	-3408	-2504	0	-16	-6	-15744	-464	-4456	6	-31	16	-12360	4732	10152	192	0	-107	-16464	-2644	-1412	225	-137	212	-16004	1276	-2836	385	-156	88	126	128	8
-11812	-2768	10452	-10	15	-24	-15576	-3392	-2416	-2	-21	-9	-15688	-528	-4392	11	-29	18	-12368	4696	9992	159	13	-89	-16436	-2628	-1400	204	-216	179	-15996	1380	-2732	365	-104	108	127	128	8
-11856	-2816	10292	-14	16	-26	-15688	-3488	-2560	11	-18	-11	-15768	-504	-4064	19	-32	22	-12368	4668	10160	191	-34	-91	-16416	-2664	-1500	163	-167	151	-16008	1320	-2752	285	-120	96	127	128	8
-11848	-2768	10484	-15	14	-25	-15720	-3536	-2256	6	-22	-6	-15816	-456	-3984	24	-29	23	-12328	4712	10144	159	7	-93	-16312	-2588	-1388	195	-181	200	-16092	1400	-2568	292	-109	105	126	127	8
-11864	-2784	10416	-7	15	-24	-15632	-3464	-2064	8	-21	-9	-15680	-696	-3944	22	-24	18	-12332	4752	10144	157	-12	-63	-16384	-2564	-1400	267	-140	182	-16092	1468	-2540	324	-98	63	125	127	8
-11824	-2868	10412	-10	13	-26	-15464	-3648	-2328	9	-11	-8	-15656	-520	-4056	21	-26	23	-12328	4736	10060	129	-3	-87	-16348	-2584	-1384	298	-167	146	-16028	1440	-2436	386	-80	45	125	128	8
-11800	-2752	10404	-10	14	-23	-15616	-3544	-2296	14	-8	-8	-15720	-568	-4008	20	-28	19	-12364	4728	10168	140	-29	-151	-16436	-2580	-1308	266	-132	142	-16076	1444	-2396	418	-96	64	125	128	8
-11880	-2828	10452	-8	16	-24	-15608	-3656	-2112	15	-3	0	-15848	-576	-3872	22	-22	16	-12344	4744	10168	149	-111	-108	-16452	-2732	-1300	263	-132	106	-16036	1372	-2564	407	-122	66	126	128	8
-11912	-2736	10372	-12	14	-27	-15616	-3560	-2248	12	-1	-6	-15624	-496	-3864	14	-18	20	-12340	4740	10156	134	-16	-130	-16348	-2588	-1484	244	-125	110	-16020	1316	-2488	471	-140	70	126	128	8
-11868	-2804	10444	-7	17	-20	-15520	-3560	-2328	8	-4	-10	-15648	-496	-4088	12	-18	16	-12336	4784	10112	135	-68	-118	-16448	-2596	-1392	198	-83	88	-16076	1444	-2512	419	-78	44	126	128	8
-11852	-2788	10336	-8	14	-23	-15552	-3544	-2208	4	-2	-4	-15648	-432	-3992	6	-12	18	-12340	4740	10012	131	-67	-145	-16328	-2648	-1304	231	-49	168	-16056	1364	-2540	324	-53	45	126	128	8
-11824	-2772	10432	-15	12	-23	-15712	-3592	-2432	0	-4	-10	-15624	-424	-4216	9	-14	18	-12372	4716	10152	103	-56	-87	-16384	-2624	-1380	246	-67	144	-16112	1388	-2420	264	-23	44	127	128	8
-11828	-2788	10404	-13	16	-23	-15432	-3592	-2344	3	-6	-9	-15864	-560	-4056	7	-21	17	-12344	4744	10132	96	-3	-157	-16400	-2652	-1196	47	-27	148	-16120	1336	-2592	181	-29	47	127	128	8
-11884	-2844	10408	-14	14	-30	-15544	-3528	-2360	-3	-3	-8	-15744	-536	-4184	6	-20	19	-12396	4772	10140	89	-26	-109	-16388	-2688	-1428	18	-33	143	-16068	1284	-2652	124	-16	28	127	128	8
-11788	-2788	10464	-7	14	-22	-15464	-3672	-2376	-7	-12	-9	-15792	-448	-4176	5	-25	16	-12308	4712	10084	159	-57	-125	-16356	-2600	-1364	-32	-53	141	-16016	1392	-2728	110	14	13	127	128	8
-11872	-2820	10348	-12	14	-29	-15600	-3544	-2256	-2	-14	-9	-15768	-536	-4128	5	-29	13	-12352	4696	10132	94	-49	-127	-16380	-2616	-1352	62	-47	136	-15972	1376	-2544	150	-18	46	126	128	8
-11848	-2824	10364	-12	14	-28	-15632	-3488	-2352	-2	-8	-8	-15624	-528	-4120	-2	-30	12	-12336	4728	10200	134	-4	-121	-16376	-2588	-1516	135	-75	127	-15960	1360	-2648	177	-16	13	126	127	8
-11856	-2768	10332	-9	10	-23	-15520	-3592	-2288	2	-12	-4	-15680	-456	-4104	-6	-28	15	-12340	4700	10136	124	-40	-172	-16360	-2580	-1316	159	-72	105	-15964	1388	-2652	232	-78	21	126	127	8
-11900	-2784	10352	-10	14	-28	-15520	-3320	-2224	-13	-13	-7	-15776	-544	-4064	2	-20	12	-12340	4792	10076	112	-71	-130	-16428	-2608	-1196	153	-66	127	-15984	1340	-2568	256	-98	3	126	128	8
-11816	-2720	10388	-15	15	-29	-15664	-3568	-2232	-9	-5	-14	-15704	-528	-3880	9	-20	16	-12340	4724	10216	122	-20	-130	-16388	-2624	-1380	101	-71	124	-16040	1348	-2592	216	-84	9	126	127	8
-11860	-2852	10364	-10	15	-26	-15576	-3648	-2184	-1	-6	-9	-15824	-432	-3960	7	-16	12	-12352	4756	10236	105	-39	-113	-16456	-2616	-1212	97	-77	147	-16044	1368	-2596	237	-85	16	126	128	8
-11852	-2788	10292	-11	13	-25	-15680	-3704	-2048	2	-1	-16	-15776	-440	-4056	11	-19	12	-12352	4724	10160	120	-100	-132	-16320	-2580	-1316	141	-62	115	-16040	1428	-2528	234	-40	-7	126	128	8
-11856	-2732	10428	-11	12	-26	-15528	-3560	-2328	0	0	-9	-15672	-696	-4144	14	-18	10	-12336	4692	10144	76	-109	-116	-16352	-2604	-1288	152	-36	95	-16068	1484	-2544	247	-95	-1	126	128	8
-11868	-2832	10372	-13	15	-24	-15560	-3656	-2208	12	-6	-11	-15712	-416	-3992	11	-18	14	-12320	4684	10204	128	-59	-166	-16440	-2584	-1412	74	-7	107	-16040	1420	-2472	188	-82	-18	126	127	8
-11824	-2812	10352	-12	21	-29	-15616	-3560	-2184	1	-4	-12	-15808	-456	-3976	5	-17	13	-12328	4752	10188	108	-82	-114	-16308	-2660	-1364	66	-36	54	-16040	1432	-2568	108	-83	-5	126	127	8
-11828	-2796	10400	-9	17	-29	-15632	-3600	-2344	-2	-7	-15	-15808	-544	-3968	5	-14	12	-12364	4780	10088	83	-67	-145	-16380	-2628	-1336	20	29	52	-15992	1352	-2652	135	14	-1	125	127	8
-11916	-2788	10344	-12	20	-28	-15464	-3664	-2216	-10	-6	-13	-15680	-592	-3800	-4	-19	7	-12340	4780	10096	115	-33	-133	-16404	-2580	-1380	-36	31	95	-16020	1364	-2664	117	40	-28	126	127	8
-11852	-2812	10416	-13	16	-23	-15648	-3496	-2448	-14	-8	-14	-15776	-528	-4016	0	-19	10	-12308	4756	10108	80	-84	-127	-16440	-2584	-1448	18	-20	87	-16072	1336	-2568	98	-14	-35	126	128	8
-11828	-2784	10336	-10	14	-26	-15640	-3712	-2336	-4	-6	-13	-15952	-488	-4056	-2	-22	9	-12352	4700	10096	75	-66	-127	-16336	-2564	-1344	30	11	100	-16036	1372	-2532	138	-12	-45	126	127	8
-11816	-2804	10300	-12	13	-23	-15536	-3584	-2432	-9	-4	-17	-15744	-536	-4008	-3	-19	4	-12364	4764	10100	32	-114	-180	-16384	-2604	-1336	26	-10	109	-15972	1344	-2584	106	-4	-30	126	127	8
-11872	-2776	10460	-14	16	-29	-15504	-3520	-2208	-2	-1	-19	-15760	-480	-4152	-7	-18	8	-12380	4808	10140	-54	-156	-255	-16332	-2492	-1320	-11	44	115	-16036	1488	-2596	62	-38	14	126	128	8
-11792	-2784	10352	-13	16	-25	-15576	-3464	-2440	-9	-2	-16	-15712	-536	-3984	-4	-17	12	-12364	4876	10092	-191	-265	-371	-16368	-2364	-1304	-89	-69	123	-15960	1596	-2644	-84	18	42	127	127	8
-11836	-2796	10440	-14	16	-26	-15552	-3480	-2448	-18	-7	-16	-15760	-512	-4008	-6	-12	5	-12296	4728	10104	-299	-405	-417	-16308	-2460	-1328	-251	-103	82	-15964	1652	-2576	-247	-25	41	126	127	8
-11844	-2788	10420	-9	11	-26	-15608	-3728	-2280	-9	-2	-17	-15824	-408	-4168	-4	-13	9	-12304	4680	10256	-321	-413	-452	-16392	-2528	-1372	-394	-116	83	-16092	1528	-2468	-452	-4	-24	126	127	8
-11832	-2752	10364	-9	17	-22	-15544	-3704	-2120	-1	-6	-15	-15720	-584	-3848	-2	-14	5	-12256	4644	10404	-268	-375	-400	-16328	-2760	-1304	-439	-157	78	-16060	1472	-2416	-542	-3	-77	126	127	8
-11852	-2816	10528	-11	12	-26	-15528	-3528	-2304	-11	-10	-25	-15776	-568	-4184	-5	-10	-6	-12332	4576	10276	-234	-342	-360	-16356	-2792	-1048	-625	-91	34	-16124	1344	-2424	-634	11	-109	125	128	8
-11796	-2844	10436	-12	16	-25	-15632	-3576	-2112	-11	-6	-21	-15832	-488	-3832	-25	-13	-3	-12308	4548	10284	-107	-105	-236	-16432	-2940	-1408	-777	-89	-69	-16216	1116	-2324	-560	3	-151	127	128	8
-11876	-2816	10420	-11	17	-25	-15632	-3632	-2232	-17	-9	-21	-15752	-504	-3960	-29	-20	-7	-12364	4548	10260	10	-34	-182	-16360	-3084	-1504	-485	34	2	-16148	1068	-2492	-358	134	-171	127	127	8
-11848	-2828	10340	-17	16	-26	-15608	-3744	-2304	-21	-13	-19	-15720	-448	-4336	-33	-24	-11	-12308	4592	10176	77	50	-180	-16296	-2736	-1384	11	158	-26	-16032	1160	-2636	-125	188	-159	128	127	8
-11824	-2788	10392	-15	14	-22	-15584	-3496	-2096	-25	-11	-22	-15776	-560	-4024	-40	-21	-10	-12304	4636	10228	38	-4	-129	-16432	-2576	-1348	-144	52	-42	-15964	1256	-2708	-85	132	-91	128	127	8
-11796	-2764	10404	-11	19	-22	-15512	-3600	-2272	-32	-11	-19	-15864	-616	-4128	-46	-22	-7	-12276	4548	10288	121	-4	-141	-16404	-2808	-1528	-192	5	-33	-15988	1276	-2684	-85	150	-76	127	127	8
-11804	-2752	10424	-18	22	-32	-15560	-3696	-2344	-22	-7	-18	-15808	-648	-4024	-44	-21	-5	-12276	4624	10232	157	20	-96	-16328	-2884	-1580	99	39	7	-16016	1172	-2816	124	104	-155	126	127	8
-11804	-2792	10448	-16	18	-26	-15576	-3792	-2168	-20	-5	-20	-15744	-680	-4000	-40	-17	-1	-12280	4648	10292	165	114	-57	-16356	-2752	-1620	327	87	67	-16052	1288	-2884	252	15	-156	125	127	8
-11852	-2868	10436	-11	19	-29	-15520	-3680	-2368	-19	-2	-17	-15768	-736	-3984	-29	-19	-5	-12308	4612	10256	192	21	-101	-16328	-2616	-1392	308	92	2	-16068	1356	-2732	247	-83	-95	125	127	8
-11868	-2828	10468	-13	17	-27	-15568	-3624	-2256	-16	-3	-15	-15672	-568	-4016	-17	-18	-2	-12360	4688	10320	157	10	-101	-16416	-2580	-1420	142	51	-9	-16016	1364	-2588	230	-53	-105	126	127	8
-11820	-2812	10448	-15	14	-30	-15520	-3576	-2144	-12	-3	-15	-15864	-576	-3928	-13	-24	1	-12280	4632	10184	110	-8	-156	-16376	-2708	-1520	39	-45	44	-16060	1240	-2712	266	-38	-106	127	127	8
-11832	-2800	10492	-16	21	-32	-15560	-3552	-2272	-21	-6	-18	-15600	-560	-3792	-13	-26	4	-12332	4628	10236	120	-36	-140	-16352	-2684	-1408	86	-78	15	-16016	1212	-2708	248	-73	-72	126	127	8
-11876	-2828	10400	-15	20	-25	-15528	-3608	-2176	-27	-7	-20	-15616	-504	-3776	-14	-25	4	-12312	4632	10324	137	32	-114	-16332	-2736	-1460	142	44	62	-16112	1220	-2652	246	-42	-50	126	127	8
-11952	-2856	10472	-17	18	-30	-15536	-3672	-2440	-19	-8	-19	-15736	-624	-4056	-13	-26	2	-12400	4584	10212	121	16	-155	-16352	-2720	-1432	249	7	57	-16092	1280	-2560	197	-30	-38	125	127	8
-11872	-2772	10396	-13	16	-29	-15576	-3576	-2424	-21	-9	-13	-15776	-608	-3976	-18	-22	2	-12316	4600	10192	93	-56	-134	-16368	-2700	-1480	155	-15	67	-16064	1212	-2528	129	-49	-34	125	127	8
-11844	-2824	10508	-14	19	-26	-15408	-3808	-2416	-29	-9	-18	-15672	-688	-4096	-27	-15	4	-12288	4632	10192	93	-77	-165	-16424	-2724	-1280	38	-18	118	-16056	1208	-2564	114	-38	-10	125	127	8
-11832	-2812	10388	-15	19	-25	-15536	-3704	-2152	-40	-10	-14	-15688	-608	-3984	-40	-20	4	-12332	4632	10184	90	-53	-141	-16360	-2720	-1212	-70	-46	63	-16108	1168	-2520	136	-74	-36	124	127	8
-11852	-2844	10404	-13	15	-32	-15464	-3664	-2440	-37	-9	-12	-15832	-752	-3960	-37	-30	5	-12324	4624	10324	135	-10	-125	-16268	-2772	-1452	-55	-25	140	-16132	1152	-2552	166	-95	-2	124	127	8
-11816	-2952	10432	-15	14	-23	-15616	-3856	-2224	-31	-2	-12	-15704	-880	-4168	-27	-29	7	-12340	4556	10184	100	-10	-73	-16316	-2752	-1476	124	45	101	-16064	1160	-2644	250	-38	24	125	127	8
-11816	-2872	10496	-11	13	-20	-15472	-3952	-2200	12	7	-1	-15584	-880	-4088	-7	-28	5	-12348	4620	10244	161	12	-115	-16356	-2780	-1376	230	16	123	-16052	1160	-2576	350	-84	24	126	127	8
-11848	-2800	10436	-6	14	-24	-15600	-3440	-2296	26	7	-8	-15816	-688	-4336	7	-29	15	-12332	4544	10288	119	-29	-115	-16396	-2772	-1436	213	34	130	-16040	1248	-2596	360	-165	80	127	127	8
-11864	-2812	10352	-12	16	-27	-15504	-3592	-2416	0	-3	-8	-15768	-688	-4032	24	-32	24	-12340	4536	10228	138	-4	-123	-16300	-2784	-1388	115	9	101	-16108	1248	-2548	366	-184	108	126	128	8
-11844	-2868	10400	-9	12	-25	-15512	-3816	-2352	1	1	-5	-15624	-832	-4088	34	-30	25	-12252	4676	10152	152	-3	-99	-16392	-2676	-1428	80	61	97	-16048	1220	-2648	439	-179	141	126	127	8
-11852	-2748	10328	-7	12	-25	-15480	-3824	-2136	40	8	0	-15704	-760	-4136	53	-26	27	-12360	4616	10240	171	32	-73	-16248	-3028	-1648	201	-8	141	-16048	1180	-2532	508	-165	101	127	127	8
-11832	-2840	10452	-11	14	-24	-15600	-3704	-2144	60	5	-3	-15768	-672	-4112	70	-20	24	-12280	4552	10208	161	28	-120	-16340	-2724	-1264	560	100	145	-16004	1208	-2564	513	-176	125	127	128	8
-11832	-2824	10436	-6	13	-19	-15416	-3872	-2472	53	5	-5	-15736	-664	-4072	61	-21	27	-12348	4572	10252	185	7	-75	-16332	-2688	-1536	363	10	215	-16080	1176	-2664	553	-211	94	127	128	8
-11840	-2820	10476	-8	20	-26	-15688	-3632	-2456	49	3	-1	-15704	-672	-4232	47	-17	31	-12324	4576	10324	161	15	-77	-16312	-2700	-1292	351	53	154	-16076	1304	-2584	459	-218	114	126	127	8
-11800	-2808	10448	-12	19	-22	-15464	-3568	-2368	17	-8	1	-15792	-848	-4136	42	-20	28	-12272	4628	10088	160	-16	-69	-16360	-2712	-1452	162	-44	212	-16076	1152	-2556	422	-200	149	126	127	8
-11908	-2804	10468	-10	19	-22	-15624	-3664	-2016	2	-17	2	-15688	-592	-4120	26	-23	28	-12316	4612	10216	125	8	-103	-16320	-2744	-1520	137	14	204	-16068	1236	-2540	431	-170	164	126	127	8
-11796	-2820	10384	-13	13	-22	-15568	-3696	-2128	8	-15	9	-15720	-720	-4080	15	-31	29	-12284	4752	10196	143	-32	-66	-16272	-2764	-1344	291	26	193	-16048	1272	-2628	415	-198	165	126	127	8
-11768	-2784	10388	-7	20	-20	-15672	-3528	-2344	21	-18	1	-15816	-632	-4120	20	-27	29	-12276	4600	10140	158	-53	-103	-16300	-2708	-1400	250	42	222	-16100	1312	-2468	325	-264	171	126	127	8
-11824	-2816	10388	-7	17	-20	-15528	-3680	-2360	31	-16	5	-15600	-600	-4192	30	-26	34	-12300	4564	10220	128	-40	-88	-16380	-2736	-1428	51	-10	214	-15964	1316	-2644	316	-210	173	126	127	8
-11864	-2792	10484	-9	16	-21	-15488	-3584	-2208	27	-21	7	-15672	-528	-4016	33	-29	32	-12336	4676	10308	91	-14	-125	-16316	-2752	-1504	-40	-20	236	-16032	1384	-2652	322	-236	185	126	127	8
-11856	-2772	10352	-11	19	-20	-15568	-3632	-2328	18	-23	2	-15776	-512	-3896	40	-37	30	-12304	4664	10264	76	6	-84	-16356	-2724	-1500	-5	-90	201	-15996	1448	-2732	229	-256	176	126	127	8
-11836	-2828	10396	-12	15	-23	-15584	-3560	-2248	11	-27	3	-15768	-584	-4008	31	-39	28	-12320	4556	10236	106	-25	-74	-16400	-2712	-1520	71	-123	206	-16100	1352	-2540	144	-263	143	124	127	8
-11808	-2860	10320	-8	18	-20	-15608	-3808	-2136	18	-17	-1	-15784	-656	-3928	33	-38	22	-12316	4640	10220	92	-57	-122	-16356	-2712	-1432	127	-127	230	-16068	1336	-2628	98	-306	113	125	127	8
-11680	-2848	10232	-11	14	-21	-15496	-3456	-2480	36	-25	1	-15568	-304	-4008	26	-33	20	-12400	4628	10176	90	4	-69	-16300	-2608	-1516	86	-153	221	-16064	1360	-2608	20	-343	148	125	127	8
-11824	-2768	10316	-6	12	-22	-15624	-3632	-2440	11	-27	-8	-15640	-360	-3848	25	-40	17	-12308	4568	10348	73	-68	-117	-16376	-2748	-1444	-48	-188	201	-16008	1396	-2444	86	-371	127	126	127	8
-11900	-2772	10344	-6	8	-18	-15664	-3648	-2016	6	-26	-11	-15856	-392	-3968	11	-39	16	-12316	4692	10208	83	-11	-58	-16356	-2740	-1416	-22	-246	190	-16028	1352	-2468	135	-293	88	126	127	8
-11904	-2808	10392	-9	15	-23	-15528	-3664	-2128	5	-31	-9	-15744	-568	-3944	23	-46	10	-12316	4632	10256	92	-72	-64	-16404	-2736	-1440	158	-188	163	-16004	1368	-2452	173	-271	67	126	127	8
-11844	-2756	10352	-11	14	-23	-15728	-3592	-2320	2	-29	-9	-15832	-544	-3960	5	-42	12	-12348	4636	10288	92	-87	-84	-16372	-2648	-1360	192	-156	138	-16120	1380	-2436	160	-258	88	126	127	8
-11836	-2808	10392	-11	16	-30	-15528	-3536	-2200	0	-28	-13	-15776	-472	-3944	-4	-42	9	-12352	4636	10304	82	-44	-124	-16420	-2740	-1464	209	-216	140	-16164	1424	-2340	180	-367	67	126	127	8
-11776	-2812	10224	-10	16	-27	-15584	-3648	-2512	-5	-27	-14	-15768	-584	-3976	-15	-40	11	-12324	4660	10340	95	-68	-97	-16376	-2656	-1288	178	-140	80	-16092	1396	-2324	155	-280	80	127	127	8
-11860	-2728	10460	-7	13	-23	-15696	-3592	-2168	-17	-29	-16	-15768	-672	-3840	-19	-44	6	-12300	4580	10260	55	-85	-99	-16288	-2640	-1276	100	-167	103	-16136	1432	-2192	89	-312	30	126	127	8
-11776	-2768	10416	-14	19	-29	-15552	-3792	-2208	-22	-28	-18	-15880	-760	-3896	-24	-47	2	-12340	4640	10228	66	-131	-134	-16296	-2708	-1268	88	-142	126	-16100	1416	-2276	42	-285	31	125	127	8
-11816	-2844	10496	-13	10	-27	-15528	-3576	-1864	-15	-27	-13	-15832	-560	-4008	-20	-52	-2	-12260	4648	10320	40	-112	-161	-16392	-2676	-1252	-49	-126	99	-16132	1396	-2236	-46	-224	12	126	127	8
-11872	-2728	10412	-8	10	-27	-15624	-3688	-2208	-21	-33	-16	-15760	-592	-3656	-27	-57	-2	-12360	4632	10272	-43	-187	-193	-16324	-2584	-1408	-136	-137	106	-16100	1380	-2332	-100	-224	26	126	126	8
-11860	-2848	10388	-12	15	-30	-15576	-3592	-2048	-40	-33	-15	-15888	-448	-3744	-33	-55	1	-12284	4720	10280	-67	-213	-236	-16396	-2648	-1344	-170	-133	113	-16048	1468	-2176	-223	-307	32	127	127	8
-11768	-2820	10468	-11	14	-25	-15688	-3744	-2232	-25	-34	-17	-15704	-560	-4072	-38	-46	-2	-12360	4664	10232	-118	-223	-262	-16340	-2684	-1268	-345	-126	116	-16136	1416	-2416	-333	-241	67	127	127	8
-11904	-2812	10384	-11	14	-29	-15488	-3648	-2208	1	-27	-16	-15840	-488	-3888	-23	-44	-5	-12272	4600	10336	-98	-228	-274	-16356	-2732	-1332	-495	-214	125	-16092	1348	-2324	-456	-259	82	127	127	8
-11856	-2792	10340	-12	11	-23	-15664	-3656	-2216	-9	-25	-17	-15720	-680	-3992	-16	-44	-3	-12264	4524	10268	-88	-219	-256	-16364	-2760	-1416	-479	-219	103	-16116	1372	-2304	-490	-204	8	126	127	8
-11820	-2804	10360	-12	13	-25	-15608	-3648	-2000	-21	-29	-15	-15832	-752	-3912	-15	-49	0	-12332	4512	10364	-34	-205	-250	-16332	-2800	-1320	-422	-194	105	-16116	1268	-2428	-502	-144	-41	126	127	8
-11876	-2884	10404	-13	12	-25	-15424	-3816	-2016	-9	-29	-17	-15816	-808	-3832	-14	-51	-6	-12240	4528	10252	-33	-206	-219	-16376	-2716	-1252	-384	-187	123	-16088	1356	-2324	-489	-118	-32	127	127	8
-11896	-2788	10348	-9	11	-26	-15520	-3656	-2104	-8	-29	-13	-15760	-720	-3688	-4	-56	-6	-12300	4596	10312	-31	-164	-200	-16320	-2780	-1448	-498	-218	149	-16108	1408	-2280	-568	-94	3	127	126	8
-11788	-2816	10284	-8	11	-25	-15576	-3840	-1904	-7	-22	-17	-15800	-592	-3744	-6	-52	-2	-12280	4564	10336	39	-115	-188	-16360	-2800	-1284	-432	-250	143	-16060	1280	-2348	-548	-142	0	127	127	8
-11896	-2840	10460	-10	13	-22	-15616	-3680	-2144	-3	-19	-18	-15776	-584	-3688	-16	-53	-1	-12272	4504	10232	12	-117	-161	-16336	-2732	-1432	-431	-164	129	-16124	1336	-2328	-464	-89	-49	127	127	8
-11768	-2804	10528	-5	14	-26	-15640	-3648	-2032	-2	-27	-17	-15768	-648	-3584	-10	-49	-5	-12220	4528	10356	10	-80	-179	-16312	-2752	-1356	-412	-212	104	-16128	1348	-2272	-447	-133	-69	127	127	8
-11812	-2784	10468	-9	13	-24	-15576	-3648	-2032	2	-18	-16	-15776	-728	-3760	-11	-52	-9	-12268	4520	10424	-11	-83	-209	-16336	-2724	-1400	-349	-151	72	-16120	1440	-2268	-446	-113	-63	127	126	8
-11820	-2796	10364	-9	11	-25	-15616	-3568	-1944	4	-24	-22	-15800	-704	-3800	-17	-56	-10	-12252	4560	10384	15	-96	-200	-16376	-2708	-1296	-345	-97	48	-16188	1364	-2276	-402	-133	-42	127	126	8
-11840	-2800	10392	-11	13	-27	-15704	-3792	-2064	-3	-21	-22	-15864	-744	-3872	-19	-51	-10	-12220	4572	10348	5	-141	-163	-16324	-2720	-1296	-315	-66	68	-16124	1344	-2176	-436	-233	-32	125	126	8
-11816	-2808	10392	-16	10	-24	-15496	-3736	-1800	0	-21	-16	-15840	-880	-3624	-16	-55	-7	-12244	4496	10344	43	-89	-185	-16368	-2804	-1260	-263	-118	91	-16108	1316	-2156	-343	-127	-75	126	126	8
-11872	-2752	10476	-12	12	-24	-15664	-3672	-2128	-5	-23	-15	-15760	-744	-3616	-18	-55	-5	-12252	4492	10428	16	-29	-168	-16356	-2660	-1332	-308	-27	63	-16192	1408	-2156	-343	-71	-65	126	126	8
-11832	-2888	10408	-14	12	-28	-15576	-3624	-1984	0	-15	-17	-15928	-608	-3504	-14	-50	-8	-12284	4528	10312	48	-96	-142	-16304	-2728	-1396	-343	-98	69	-16156	1332	-2148	-333	-138	-38	126	126	8
-11828	-2948	10460	-13	16	-27	-15568	-3704	-2016	-6	-17	-12	-15912	-584	-3632	-15	-54	-3	-12260	4548	10328	53	-59	-158	-16360	-2792	-1388	-292	-26	68	-16144	1380	-2236	-327	-126	-66	125	126	8
-11788	-2796	10408	-15	17	-27	-15528	-3760	-2048	-4	-13	-16	-15880	-832	-3864	-12	-57	-10	-12256	4544	10324	30	-54	-154	-16348	-2704	-1348	-292	-23	53	-16132	1292	-2220	-287	-202	-33	126	125	8
-11796	-2804	10512	-12	16	-29	-15616	-3552	-2040	8	-11	-20	-15744	-656	-3400	-18	-54	-4	-12308	4544	10284	63	-64	-140	-16416	-2768	-1500	-295	-55	59	-16080	1184	-2168	-213	-119	-64	126	125	8
-11836	-2828	10360	-14	15	-29	-15520	-3720	-2176	-7	-5	-15	-15840	-728	-3848	-18	-51	-3	-12240	4484	10376	79	-58	-160	-16384	-2764	-1336	-191	-40	112	-16112	1312	-2264	-185	-105	-72	126	125	8
-11832	-2856	10384	-10	18	-25	-15600	-3800	-1984	1	-16	-16	-15768	-832	-3688	-10	-42	-6	-12224	4540	10292	62	1	-150	-16384	-2784	-1392	-238	-30	74	-16100	1320	-2208	-120	-96	-63	125	125	8
-11836	-2868	10308	-12	13	-31	-15576	-3712	-2136	6	-8	-14	-15928	-808	-3576	-11	-46	0	-12212	4424	10352	72	-74	-164	-16340	-2816	-1444	-254	-11	116	-16160	1264	-2112	-176	-130	-23	125	125	8
-11856	-2732	10464	-10	17	-28	-15664	-3504	-1920	3	-11	-19	-15816	-880	-3680	1	-52	2	-12240	4464	10404	76	-42	-136	-16324	-2856	-1460	-245	-46	128	-16068	1208	-2200	-193	-113	-33	124	124	8
-11824	-2752	10532	-12	13	-27	-15560	-3744	-2200	2	-7	-19	-15872	-808	-3648	11	-49	3	-12268	4484	10344	88	-41	-129	-16380	-2780	-1284	-250	-72	125	-16224	1312	-2100	-239	-72	27	125	125	8
-11832	-2892	10468	-14	9	-25	-15544	-3944	-2024	41	-1	-18	-15680	-808	-3648	19	-49	5	-12208	4532	10388	87	-41	-129	-16408	-2672	-1332	-271	-67	124	-15960	1280	-2068	-198	-99	-5	125	124	8
-11896	-2748	10344	-14	9	-25	-15600	-3824	-2048	31	-4	-21	-15752	-904	-3768	28	-51	4	-12260	4544	10276	87	-48	-128	-16312	-2712	-1248	-342	-26	138	-16176	1328	-2108	-183	-65	-19	124	124	8
-11844	-2724	10496	-8	9	-28	-15672	-3456	-2144	7	-8	-17	-15992	-808	-3512	19	-48	12	-12312	4528	10348	81	-28	-124	-16344	-2824	-1428	-305	-81	114	-16204	1280	-2216	-232	-57	-30	125	124	8
-11816	-2872	10368	-11	15	-27	-15552	-3840	-2000	1	-6	-16	-15952	-640	-3304	24	-48	19	-12304	4468	10348	87	-14	-139	-16296	-2780	-1332	-241	-30	170	-16100	1264	-2192	-246	-57	-16	123	124	8
-11800	-3000	10488	-14	16	-32	-15472	-3904	-1984	28	-1	-11	-15872	-880	-3560	35	-41	16	-12252	4508	10456	120	-13	-82	-16268	-2612	-1324	-279	-73	193	-16108	1328	-2196	-238	-119	23	123	124	8
-11780	-2800	10420	-14	13	-28	-15608	-4000	-1816	61	15	-13	-15856	-968	-3456	48	-42	12	-12300	4516	10304	79	-36	-112	-16360	-2640	-1344	-423	-121	168	-16084	1324	-2092	-324	-101	-2	125	124	8
-11820	-2740	10464	-7	14	-27	-15672	-3824	-2184	68	13	-7	-15968	-912	-3504	47	-40	15	-12248	4500	10384	115	-57	-105	-16376	-2716	-1332	-562	-152	190	-16252	1504	-2184	-433	-120	99	126	124	8
-11772	-3000	10352	-10	10	-27	-15672	-3656	-1912	18	10	-3	-15688	-936	-3624	31	-46	18	-12268	4428	10388	112	-48	-107	-16360	-2824	-1364	-487	-124	228	-16084	1236	-2304	-500	-204	125	125	123	8
-11800	-2796	10332	-9	14	-26	-15584	-3816	-2096	-5	2	-5	-15832	-840	-3624	24	-46	19	-12276	4564	10352	49	-43	-91	-16364	-2592	-1420	-529	-68	201	-16076	1232	-2216	-401	-121	60	124	123	8
-11812	-2752	10392	-9	16	-25	-15696	-3864	-2032	7	8	-5	-15856	-816	-3512	20	-50	20	-12252	4588	10260	73	-37	-79	-16220	-2788	-1488	-524	-166	213	-16076	1328	-2276	-253	-61	68	123	122	8
-11888	-2856	10404	-9	11	-25	-15536	-3904	-1952	20	6	6	-15864	-912	-3424	17	-35	23	-12264	4592	10392	92	10	-85	-16352	-2820	-1336	-381	-96	242	-16108	1240	-2232	-287	-72	81	124	122	8
-11848	-2752	10364	-11	10	-27	-15480	-3744	-1912	24	10	5	-15752	-792	-3488	20	-44	29	-12180	4528	10376	129	-15	-107	-16412	-2688	-1508	-373	-150	235	-16052	1228	-2252	-307	-94	57	123	123	8
-11752	-2876	10392	-13	11	-24	-15672	-3672	-1808	20	10	1	-15856	-960	-3528	33	-45	28	-12236	4492	10360	115	-5	-94	-16400	-2700	-1544	-459	-228	248	-16072	1236	-2240	-179	-73	141	122	123	8
-11880	-2892	10384	-10	18	-26	-15648	-3808	-2016	24	18	-2	-15856	-920	-3408	56	-40	33	-12232	4540	10336	154	11	-101	-16312	-2748	-1444	-325	-197	255	-16128	1288	-2172	2	-37	128	123	123	8
-11852	-2788	10432	-8	16	-30	-15624	-3928	-1992	52	19	0	-15976	-1168	-3608	71	-36	39	-12276	4460	10400	150	-6	-58	-16348	-2760	-1416	-66	-164	277	-16112	1272	-2184	107	-86	155	124	123	8
-11824	-2892	10348	-11	16	-28	-15504	-3976	-1944	68	24	8	-15976	-944	-3288	89	-30	39	-12280	4476	10196	129	-19	-89	-16344	-2744	-1372	132	-176	284	-16212	1308	-2184	277	-43	189	124	124	8
-11840	-2844	10488	-6	12	-28	-15520	-3944	-2064	57	23	12	-15696	-872	-3648	97	-39	41	-12204	4560	10408	169	4	-96	-16336	-2640	-1376	162	-189	311	-16180	1388	-2156	301	-93	196	124	123	8
-11788	-2776	10396	-3	13	-18	-15504	-3920	-2064	50	29	10	-15672	-832	-3560	87	-34	43	-12236	4520	10304	234	-50	-109	-16368	-2616	-1300	137	-175	339	-16140	1444	-2052	320	-119	203	124	123	8
-11808	-2844	10400	-3	9	-17	-15512	-3816	-2336	50	22	14	-15928	-928	-3584	94	-45	43	-12224	4552	10324	296	-14	-125	-16360	-2636	-1312	-36	-214	315	-16132	1352	-2200	124	-117	203	123	124	8
-11820	-2812	10448	-5	13	-20	-15632	-4008	-1992	46	23	17	-15832	-720	-3352	104	-45	42	-12192	4564	10344	280	-4	-72	-16372	-2636	-1272	-46	-282	341	-16188	1480	-2068	82	-182	183	124	123	8
-11864	-2784	10348	-2	11	-26	-15664	-3824	-2280	76	22	17	-15888	-712	-3496	93	-42	46	-12228	4628	10452	359	-25	-118	-16312	-2652	-1300	-119	-277	361	-16188	1444	-2212	-55	-175	244	125	124	8
-11892	-2724	10464	-5	13	-22	-15632	-3632	-2224	69	21	20	-15936	-752	-3608	89	-46	45	-12248	4500	10356	428	11	-125	-16348	-2616	-1284	-145	-213	356	-16052	1400	-2096	-99	-208	258	125	123	8
-11844	-2916	10460	-6	16	-24	-15488	-3760	-1840	38	16	14	-15848	-688	-3264	88	-32	45	-12228	4572	10264	390	-10	-120	-16368	-2596	-1400	-113	-233	358	-16096	1380	-2020	-101	-229	250	125	124	8
-11852	-2864	10396	-10	15	-28	-15552	-3840	-2104	45	12	16	-15856	-856	-3320	70	-39	45	-12268	4564	10336	579	-34	-145	-16452	-2592	-1168	83	-303	415	-16152	1456	-2244	-167	-259	267	125	124	8
-11804	-2820	10412	-4	11	-23	-15528	-3816	-2112	55	20	15	-15704	-680	-3424	69	-41	38	-12320	4540	10340	692	-15	-150	-16384	-2596	-1376	125	-285	364	-16232	1504	-2120	-286	-372	257	124	124	8
-11816	-2856	10376	-4	13	-19	-15576	-3720	-1952	40	14	20	-15912	-824	-3376	69	-51	37	-12288	4528	10312	690	-39	-109	-16352	-2588	-1364	13	-258	320	-16160	1604	-1976	-279	-403	265	124	124	8
-11804	-2776	10496	-3	6	-19	-15600	-3880	-2208	42	12	19	-15976	-784	-3544	69	-62	40	-12256	4604	10260	506	80	-140	-16404	-2644	-1356	44	-269	339	-16040	1596	-2132	-169	-371	244	124	124	8
-11756	-2848	10452	-4	11	-19	-15640	-3872	-2032	37	16	18	-15864	-752	-3232	72	-64	36	-12212	4532	10364	438	40	-127	-16364	-2636	-1424	-110	-251	402	-16136	1404	-2176	-80	-370	207	124	125	8
-11804	-2856	10384	-2	6	-17	-15360	-3816	-1952	56	18	22	-15792	-872	-3472	72	-62	40	-12300	4572	10224	345	100	-82	-16456	-2404	-1212	-257	-272	313	-16048	1592	-2068	-47	-294	202	125	125	8
-11932	-2756	10432	-10	10	-22	-15448	-3808	-1960	67	25	17	-16080	-952	-3160	81	-69	31	-12228	4532	10340	373	31	-76	-16432	-2468	-1248	-316	-320	288	-16048	1480	-2044	-36	-236	224	124	124	8
-11748	-2740	10500	-10	17	-22	-15512	-3744	-2120	37	18	22	-15992	-672	-3384	72	-66	36	-12272	4524	10264	382	54	-90	-16368	-2612	-1360	-72	-328	331	-16124	1384	-2016	100	-280	217	124	124	8
-11800	-2772	10280	-11	10	-19	-15440	-3840	-1832	22	18	21	-15840	-824	-3176	50	-63	37	-12208	4640	10292	386	49	-89	-16384	-2632	-1184	296	-346	376	-16056	1496	-2032	225	-239	239	125	125	8
-11984	-2732	10324	-10	20	-21	-15568	-3808	-2112	35	21	23	-15928	-984	-3048	45	-69	31	-12268	4652	10312	317	-36	-76	-16396	-2424	-1256	240	-295	409	-16148	1480	-1940	343	-295	289	126	125	8
-11940	-2796	10536	-8	14	-19	-15656	-3680	-2248	30	20	26	-15832	-904	-3376	42	-67	32	-12372	4604	10324	340	24	-101	-16420	-2472	-1192	314	-223	360	-16172	1552	-1952	310	-266	270	126	125	8
-11776	-2856	10272	-6	13	-23	-15576	-3608	-2144	22	15	21	-15920	-728	-3280	34	-69	30	-12328	4644	10368	473	88	-52	-16336	-2500	-956	483	-189	361	-16164	1560	-1940	278	-253	282	125	126	8
-11780	-2832	10448	-3	15	-15	-15664	-3728	-2248	36	11	23	-15968	-800	-3512	33	-69	33	-12264	4660	10412	554	46	-88	-16304	-2500	-1028	667	139	421	-16156	1656	-1824	159	-328	256	124	126	8
-11860	-2868	10436	-7	10	-14	-15712	-3664	-1880	32	3	26	-15864	-656	-3496	34	-61	35	-12232	4616	10256	538	58	-71	-16416	-2468	-1108	586	120	447	-16176	1736	-1716	0	-364	265	125	126	8
-11828	-2792	10400	-5	12	-15	-15656	-3616	-2208	34	2	19	-15872	-864	-3448	28	-62	33	-12288	4612	10332	481	204	-53	-16432	-2412	-1140	15	-92	364	-16224	1700	-1836	-115	-349	240	126	125	8
-11864	-2848	10356	-7	8	-15	-15664	-3616	-2184	34	0	21	-15888	-696	-3392	32	-61	33	-12348	4564	10332	432	234	-106	-16436	-2464	-1048	-216	-57	325	-16040	1648	-1892	-323	-302	231	125	126	8
