#Activity	sitting 
#ActivityID	5 
#Date 10-07-17-18
acc_rf_x	acc_rf_y	acc_rf_z	gyro_rf_x	gyro_rf_y	gyro_rf_z	acc_rs_x	acc_rs_y	acc_rs_z	gyro_rs_x	gyro_rs_y	gyro_rs_z	acc_rt_x	acc_rt_y	acc_rt_z	gyro_rt_x	gyro_rt_y	gyro_rt_z	acc_lf_x	acc_lf_y	acc_lf_z	gyro_lf_x	gyro_lf_y	gyro_lf_z	acc_ls_x	acc_ls_y	acc_ls_z	gyro_ls_x	gyro_ls_y	gyro_ls_z	acc_lt_x	acc_lt_y	acc_lt_z	gyro_lt_x	gyro_lt_y	gyro_lt_z	EMG_r	EMG_l	act
-11332	-3092	10800	-116	141	-181	-15640	1612	-5456	56	-74	61	-2888	-5188	15680	-38	-192	196	-10584	2100	12956	119	-73	-153	-15152	-1628	-5532	-18	-106	-111	-1172	1044	17028	190	-21	135	125	117	5
-11312	-3104	10736	-118	94	-189	-15632	1584	-5416	23	-70	64	-2604	-5272	15672	-13	-126	218	-10548	2036	12824	85	-32	-175	-15256	-1644	-5380	10	-100	-66	-1140	1040	17108	198	3	121	125	117	5
-11360	-2992	10856	-121	132	-164	-15664	1616	-5340	19	-29	104	-2620	-5228	15596	21	-118	201	-10520	2012	12984	123	-47	-140	-15148	-1600	-5396	-14	-78	-120	-1092	1060	16984	125	42	76	125	116	5
-11356	-3172	10876	-158	130	-151	-15632	1604	-5424	124	-26	119	-2520	-5256	15688	-25	-121	197	-10540	2024	12916	121	-46	-173	-15252	-1616	-5464	-39	-13	-145	-1036	1072	16980	118	-10	18	125	116	5
-11332	-3104	10804	-92	172	-133	-15644	1616	-5344	89	40	149	-2564	-5204	15696	-40	-78	126	-10540	2016	12932	77	-30	-175	-15240	-1640	-5356	25	36	-151	-1128	1044	16944	149	11	12	125	116	5
-11340	-3080	10832	-91	163	-144	-15696	1576	-5384	83	70	178	-2680	-5304	15652	-85	-114	156	-10572	2040	12984	86	-42	-189	-15216	-1628	-5444	46	9	-172	-1236	1024	16976	93	17	-1	124	116	5
-11388	-3164	10772	-84	159	-139	-15564	1668	-5476	68	107	151	-2776	-5220	15580	-69	-110	145	-10576	1996	12944	86	-38	-170	-15260	-1644	-5500	32	22	-134	-1208	956	16988	88	0	19	124	116	5
-11352	-3096	10720	-106	169	-141	-15600	1612	-5520	40	99	166	-2784	-5336	15616	-25	-108	167	-10588	2012	13064	105	-40	-163	-15176	-1676	-5632	94	14	-151	-1308	864	16960	35	-16	70	124	116	5
-11364	-3080	10740	-99	150	-162	-15628	1560	-5632	88	87	152	-2860	-5324	15588	-1	-147	161	-10536	2060	12980	122	-15	-185	-15124	-1716	-5536	103	-25	-147	-1332	820	17008	97	24	75	125	116	5
-11380	-3100	10848	-87	120	-120	-15588	1576	-5700	88	49	156	-2848	-5344	15704	7	-122	158	-10552	2036	12968	82	-7	-158	-15184	-1676	-5668	77	-42	-90	-1352	800	17044	145	6	93	124	116	5
-11380	-3100	10852	-111	144	-181	-15576	1588	-5540	103	-2	149	-2864	-5288	15692	66	-114	191	-10564	2060	12968	74	-3	-172	-15280	-1708	-5540	55	-78	-101	-1428	844	17052	155	-20	73	124	117	5
-11364	-3096	10820	-99	156	-144	-15636	1604	-5568	77	12	112	-2852	-5324	15660	84	-123	167	-10568	2056	12880	108	-37	-142	-15128	-1768	-5464	-3	-80	-57	-1372	748	16976	186	-34	63	124	116	5
-11416	-3052	10880	-99	139	-149	-15620	1644	-5688	53	-49	174	-2884	-5264	15620	91	-120	187	-10584	2048	12956	117	2	-147	-15236	-1764	-5564	-34	-87	-28	-1364	772	17072	188	-18	51	124	116	5
-11360	-3072	10828	-100	146	-138	-15612	1588	-5560	24	-105	105	-2848	-5196	15592	67	-135	164	-10536	2044	12912	132	-32	-121	-15192	-1744	-5524	-47	-138	-1	-1320	828	17068	177	-45	52	124	116	5
-11340	-3152	10812	-110	134	-200	-15656	1620	-5544	49	-125	110	-2772	-5208	15680	63	-126	172	-10548	2024	12956	121	-18	-131	-15232	-1708	-5392	-88	-138	5	-1244	824	16992	203	-45	70	124	116	5
-11360	-3120	10780	-115	121	-171	-15612	1616	-5424	-6	-116	128	-2696	-5232	15584	75	-129	202	-10540	2036	12896	97	-52	-130	-15200	-1688	-5484	-66	-99	9	-1144	908	16916	266	-63	72	124	116	5
-11336	-3112	10864	-125	114	-195	-15676	1600	-5380	21	-122	110	-2608	-5280	15700	25	-130	210	-10520	2036	12936	153	-48	-122	-15216	-1632	-5496	-27	-123	51	-1164	960	17076	270	-34	66	124	116	5
-11400	-3064	10804	-134	111	-161	-15660	1596	-5468	65	-85	108	-2668	-5240	15692	49	-129	181	-10568	2036	12964	128	39	-131	-15260	-1624	-5396	-55	-57	51	-1152	996	17040	275	-42	36	124	117	5
-11368	-3096	10864	-88	111	-157	-15688	1596	-5420	83	-73	166	-2684	-5236	15608	95	-123	139	-10504	2060	12988	129	-7	-147	-15204	-1544	-5548	-20	-60	-14	-1220	1088	17088	259	-46	36	124	116	5
-11368	-3072	10880	-91	114	-161	-15580	1628	-5444	79	-68	177	-2756	-5236	15680	75	-114	133	-10568	2052	12904	120	64	-131	-15172	-1544	-5448	-14	-63	-36	-1252	1080	17016	263	-40	38	124	117	5
-11392	-3088	10844	-104	117	-174	-15648	1680	-5400	24	-87	156	-2620	-5212	15712	-14	-92	152	-10572	2052	12892	94	26	-190	-15196	-1532	-5468	17	-56	-95	-1192	1112	17160	168	2	33	124	116	5
-11376	-3056	10768	-121	128	-174	-15648	1684	-5384	15	-35	147	-2628	-5148	15608	-29	-107	148	-10556	2048	12948	97	-27	-140	-15164	-1528	-5460	-4	-77	-79	-1200	1188	17048	131	-32	98	124	116	5
-11296	-3084	10776	-114	125	-170	-15668	1592	-5412	11	4	139	-2660	-5228	15628	-40	-125	149	-10620	2068	12960	114	-20	-130	-15200	-1644	-5484	3	-85	-137	-1160	1032	16992	100	24	95	124	117	5
-11296	-3112	10816	-104	143	-166	-15584	1620	-5396	9	-9	122	-2648	-5240	15704	8	-89	156	-10556	2032	12900	124	-34	-150	-15236	-1616	-5452	18	-83	-151	-1136	968	16972	146	44	100	125	117	5
-11312	-3072	10820	-77	133	-148	-15600	1564	-5560	69	8	204	-2624	-5232	15660	45	-102	162	-10556	2068	12960	79	-51	-187	-15208	-1648	-5464	34	-27	-164	-1036	964	16940	129	0	61	124	117	5
-11364	-3104	10956	-111	144	-116	-15608	1556	-5484	113	95	180	-2588	-5220	15680	49	-88	160	-10516	2000	12956	87	-28	-139	-15244	-1604	-5420	42	31	-186	-1076	984	16960	121	1	74	125	117	5
-11432	-3092	10872	-103	169	-136	-15652	1604	-5488	145	98	196	-2660	-5164	15604	40	-129	137	-10540	1980	12928	82	-9	-157	-15124	-1600	-5400	59	33	-186	-1172	1040	17040	134	-5	62	124	116	5
-11272	-3148	10796	-89	152	-174	-15672	1568	-5452	101	90	158	-2696	-5264	15720	-25	-97	144	-10596	2072	13004	68	-5	-208	-15212	-1664	-5516	41	18	-196	-1228	932	17076	82	8	37	124	117	5
-11340	-3140	10776	-80	171	-94	-15616	1604	-5524	26	121	161	-2768	-5240	15596	-64	-108	157	-10568	2052	12992	119	-44	-168	-15220	-1676	-5520	49	22	-173	-1300	936	17088	67	1	32	124	116	5
-11352	-3052	10876	-103	152	-161	-15632	1636	-5516	59	80	171	-2864	-5280	15632	-59	-116	158	-10536	2040	12964	100	-100	-161	-15212	-1684	-5636	47	-3	-171	-1324	792	17020	81	5	71	124	116	5
-11312	-3100	10924	-108	142	-149	-15652	1532	-5588	56	75	142	-2836	-5360	15660	-1	-120	167	-10584	1992	12972	78	-52	-170	-15192	-1756	-5476	62	-42	-110	-1372	676	16912	113	6	48	124	116	5
-11400	-3056	10728	-100	166	-147	-15584	1596	-5632	47	42	170	-2840	-5368	15660	10	-109	149	-10580	2084	13008	114	1	-162	-15192	-1740	-5548	59	-23	-107	-1356	772	16924	169	-30	59	124	117	5
-11392	-3104	10812	-122	166	-136	-15724	1592	-5600	111	-4	168	-2860	-5228	15728	57	-94	179	-10580	2048	12944	114	-52	-161	-15172	-1804	-5580	19	-64	-29	-1336	788	17048	178	-9	35	124	116	5
-11340	-3020	10896	-111	148	-170	-15620	1644	-5636	78	-50	158	-2892	-5276	15788	99	-82	163	-10472	2096	12920	126	-30	-140	-15188	-1728	-5548	-15	-73	-8	-1396	792	17072	183	1	32	125	117	5
-11340	-3104	10848	-103	112	-189	-15600	1692	-5660	36	-59	121	-2932	-5256	15724	63	-107	188	-10568	2040	13008	122	-71	-137	-15192	-1736	-5512	-29	-92	-26	-1324	840	17068	207	3	67	124	116	5
-11304	-3056	10812	-100	124	-174	-15612	1624	-5572	19	-134	134	-2864	-5244	15772	61	-81	173	-10564	2024	12876	108	-50	-132	-15156	-1692	-5644	-71	-127	20	-1324	796	16948	238	-10	73	124	117	5
-11364	-3116	10932	-140	126	-166	-15644	1608	-5572	-1	-117	108	-2792	-5252	15628	111	-112	171	-10476	1996	12948	144	20	-121	-15168	-1692	-5604	-44	-158	86	-1212	880	17056	255	-34	66	125	116	5
-11308	-3116	10824	-92	112	-193	-15648	1592	-5456	29	-154	136	-2752	-5236	15640	114	-114	154	-10472	2012	12976	129	-2	-110	-15200	-1668	-5444	-67	-135	61	-1248	944	16972	283	-65	34	125	116	5
-11320	-3092	10736	-121	111	-176	-15612	1604	-5476	16	-125	126	-2744	-5216	15768	79	-117	150	-10520	1992	13032	82	-23	-129	-15216	-1632	-5484	-38	-126	78	-1148	964	16984	344	-41	8	124	116	5
-11376	-3040	10876	-107	136	-158	-15656	1640	-5336	66	-144	169	-2616	-5188	15684	74	-132	124	-10536	2096	12952	139	-32	-122	-15212	-1596	-5364	1	-60	61	-1140	1020	17056	316	-74	-23	124	116	5
-11324	-3100	10716	-124	111	-168	-15656	1668	-5272	76	-77	127	-2612	-5148	15672	84	-128	152	-10524	2084	12984	135	7	-110	-15172	-1544	-5472	-51	-51	23	-1068	1020	17016	266	-54	-9	124	116	5
-11308	-3080	10816	-93	136	-170	-15612	1636	-5372	72	-52	137	-2536	-5148	15664	63	-133	172	-10564	2112	13020	132	-14	-150	-15208	-1500	-5420	-47	-14	-40	-1000	1124	17008	206	38	22	124	117	5
-11308	-3112	10804	-97	143	-170	-15656	1604	-5396	89	35	98	-2560	-5152	15628	-6	-109	179	-10520	2028	12948	103	-13	-148	-15272	-1476	-5440	-48	-8	-82	-1032	1100	17100	163	24	14	125	117	5
-11316	-3068	10848	-125	157	-166	-15640	1660	-5424	114	55	76	-2612	-5232	15652	-73	-133	209	-10536	2036	12968	100	13	-162	-15232	-1564	-5460	-41	38	-105	-1076	1140	16932	162	26	56	125	117	5
-11344	-2992	10876	-75	155	-116	-15644	1668	-5304	98	89	119	-2668	-5220	15640	-76	-158	178	-10576	2060	12832	110	-38	-178	-15236	-1600	-5436	19	52	-123	-1180	1092	16872	147	6	25	124	117	5
-11304	-3092	10888	-92	185	-137	-15596	1604	-5360	101	107	127	-2752	-5324	15732	-58	-137	195	-10476	2036	12888	63	-24	-189	-15212	-1520	-5468	52	49	-163	-1176	988	17064	156	11	75	124	116	5
-11356	-3044	10808	-107	139	-99	-15640	1608	-5404	90	116	207	-2744	-5300	15700	20	-123	183	-10560	2036	13024	98	-46	-163	-15256	-1688	-5496	125	86	-177	-1232	1040	17108	110	1	84	124	116	5
-11376	-3040	10780	-82	134	-149	-15632	1588	-5452	96	121	215	-2820	-5232	15740	34	-136	165	-10568	2124	12804	75	-11	-201	-15160	-1652	-5544	76	26	-190	-1308	984	17052	57	-5	109	125	117	5
-11380	-3092	10796	-75	180	-132	-15584	1604	-5596	75	96	169	-2888	-5328	15532	57	-92	147	-10504	2032	12784	79	-22	-153	-15160	-1692	-5576	88	-5	-210	-1440	932	17068	78	-14	99	124	116	5
-11308	-3104	10808	-106	163	-132	-15624	1660	-5572	57	30	203	-2920	-5288	15640	33	-108	131	-10512	2024	12896	112	-15	-167	-15228	-1672	-5652	38	-26	-148	-1440	856	16948	77	7	126	124	116	5
-11292	-3028	10864	-91	131	-117	-15568	1584	-5704	17	3	196	-2944	-5316	15728	19	-107	120	-10576	2012	12932	83	-82	-168	-15176	-1748	-5592	-2	-88	-134	-1440	876	17076	123	12	135	125	117	5
-11384	-3040	10828	-80	133	-174	-15644	1704	-5520	56	-50	158	-2852	-5240	15756	31	-120	132	-10544	1968	12940	124	-57	-182	-15132	-1756	-5504	-10	-121	-69	-1332	772	17028	164	21	104	124	117	5
-11396	-3076	10828	-90	123	-177	-15580	1648	-5604	42	-82	195	-2888	-5232	15616	50	-120	140	-10572	1980	12936	104	-59	-136	-15132	-1728	-5528	17	-135	-59	-1288	828	17000	128	8	85	124	116	5
-11276	-3064	10884	-112	98	-179	-15640	1628	-5564	64	-105	141	-2816	-5192	15692	60	-100	154	-10524	2072	12944	111	-2	-169	-15208	-1728	-5592	-4	-158	6	-1272	840	17088	108	-28	91	124	116	5
-11336	-3036	10800	-113	136	-154	-15680	1636	-5408	36	-116	130	-2780	-5204	15680	45	-140	145	-10536	2092	12936	128	-12	-110	-15184	-1664	-5496	-66	-101	14	-1172	920	17088	252	-20	38	124	116	5
-11372	-3032	10760	-132	131	-183	-15652	1664	-5444	39	-95	98	-2712	-5144	15696	21	-151	162	-10492	1988	12972	120	-4	-127	-15164	-1668	-5520	-21	-93	18	-1144	944	17160	259	-45	29	124	117	5
-11368	-3116	10784	-151	141	-172	-15588	1684	-5440	34	-50	106	-2676	-5280	15616	2	-151	169	-10620	2032	12828	142	-52	-115	-15220	-1620	-5396	-19	-96	8	-1156	964	16972	268	-38	19	125	117	5
-11404	-3100	10892	-114	116	-162	-15652	1656	-5384	44	-100	82	-2600	-5248	15724	6	-134	199	-10544	2000	12928	119	-23	-115	-15192	-1572	-5476	-54	-75	-33	-1152	968	16980	205	-26	31	125	117	5
-11328	-3104	10920	-120	147	-168	-15648	1620	-5356	52	-61	106	-2680	-5236	15684	-30	-126	171	-10528	2040	13004	107	-27	-127	-15248	-1592	-5560	11	-82	-11	-1172	1044	17068	200	-42	30	125	117	5
-11336	-3068	10848	-136	146	-167	-15636	1572	-5432	58	-9	102	-2672	-5256	15728	-18	-118	174	-10504	2080	13052	141	-16	-130	-15184	-1660	-5544	-9	-34	-70	-1240	1028	16996	200	-1	55	124	117	5
-11284	-3056	10788	-116	140	-169	-15680	1596	-5472	58	-35	129	-2612	-5348	15720	8	-119	146	-10556	1972	12980	113	1	-175	-15188	-1632	-5528	20	-81	-88	-1200	1008	16964	179	-16	51	125	117	5
-11340	-3140	10748	-86	164	-148	-15612	1608	-5564	56	-32	137	-2696	-5288	15536	-11	-100	188	-10528	2032	13044	84	-56	-157	-15216	-1632	-5496	19	-23	-77	-1192	1024	16968	146	1	61	124	117	5
-11320	-3052	10884	-58	158	-164	-15564	1592	-5452	90	79	133	-2676	-5296	15624	-15	-102	125	-10544	2044	12936	59	-9	-159	-15292	-1680	-5416	43	-46	-116	-1096	1024	16988	144	-6	62	124	116	5
-11292	-3160	10868	-110	105	-133	-15596	1612	-5424	55	31	135	-2728	-5296	15680	1	-136	146	-10552	2064	12924	83	-4	-161	-15212	-1664	-5544	25	-38	-85	-1180	936	16980	149	0	50	125	117	5
-11360	-3124	10804	-89	145	-109	-15624	1528	-5492	57	52	177	-2784	-5308	15620	8	-145	106	-10564	2020	12844	104	-6	-149	-15240	-1592	-5448	39	-47	-105	-1216	952	16932	153	-20	86	124	116	5
-11380	-3120	10740	-109	144	-161	-15612	1640	-5448	46	41	185	-2736	-5292	15648	14	-120	151	-10548	2048	12968	110	-55	-161	-15152	-1680	-5608	16	-56	-97	-1272	864	17160	170	-3	55	124	116	5
-11380	-3024	10840	-112	143	-158	-15604	1688	-5528	50	13	179	-2828	-5296	15676	22	-120	114	-10596	1996	12936	86	-33	-161	-15156	-1700	-5452	53	-42	-78	-1284	820	17088	159	0	60	125	116	5
-11328	-3060	10864	-69	145	-112	-15616	1644	-5636	38	-16	168	-2796	-5216	15624	48	-102	123	-10564	2064	12928	98	-23	-159	-15236	-1696	-5492	59	-43	-54	-1376	832	16928	177	-29	53	125	116	5
-11404	-3040	10784	-121	122	-148	-15600	1660	-5620	42	-29	170	-2856	-5248	15632	79	-127	158	-10528	2032	12928	137	-49	-137	-15180	-1696	-5536	35	-71	-16	-1308	872	17040	196	-44	75	124	117	5
-11264	-2988	10808	-114	136	-130	-15588	1644	-5496	38	-3	167	-2888	-5244	15644	102	-132	160	-10548	2088	12904	98	-17	-131	-15264	-1696	-5488	-7	-72	-25	-1252	932	17044	240	-23	78	124	117	5
-11364	-3080	10696	-84	97	-162	-15628	1664	-5400	55	-32	168	-2764	-5172	15664	95	-104	177	-10584	2064	12932	153	-64	-108	-15172	-1628	-5448	-63	-81	-18	-1296	896	16980	257	-3	64	124	117	5
-11340	-3104	10844	-84	149	-158	-15660	1644	-5536	57	-27	192	-2700	-5260	15644	59	-128	148	-10552	2040	12944	103	-8	-162	-15264	-1664	-5492	-40	-83	7	-1172	972	17060	270	-31	16	124	117	5
-11264	-3116	10784	-67	127	-176	-15676	1664	-5456	51	-53	170	-2700	-5216	15740	86	-107	141	-10588	2076	12996	137	-14	-160	-15192	-1628	-5476	-33	-90	3	-1172	984	17056	247	-26	-14	124	116	5
-11336	-3108	10928	-88	91	-160	-15636	1664	-5460	55	-18	169	-2668	-5200	15628	60	-95	157	-10588	2092	12924	113	31	-145	-15244	-1588	-5432	23	-52	11	-1224	1004	17120	226	-42	19	124	116	5
-11344	-3104	10860	-129	117	-158	-15596	1668	-5456	49	8	146	-2660	-5172	15668	62	-94	156	-10548	2068	12944	138	-21	-128	-15188	-1568	-5544	-25	-64	14	-1144	1032	16952	231	-20	-25	124	116	5
-11348	-3064	10792	-99	155	-123	-15584	1644	-5484	22	8	161	-2740	-5208	15748	76	-121	162	-10560	2004	12944	125	7	-144	-15224	-1576	-5424	-15	-32	-10	-1224	1112	17064	194	-32	-11	124	116	5
-11368	-3112	10852	-118	165	-155	-15644	1612	-5572	59	-7	102	-2796	-5124	15744	12	-128	180	-10500	2072	13000	102	-9	-145	-15228	-1528	-5508	0	-47	-31	-1200	1084	17104	215	-28	-7	124	117	5
-11380	-3104	10804	-107	144	-148	-15628	1700	-5576	31	-11	117	-2888	-5192	15680	-2	-121	205	-10552	2040	12896	105	-38	-155	-15164	-1608	-5580	-20	-51	-104	-1176	1032	17064	128	-33	59	125	116	5
-11388	-2996	10756	-151	153	-139	-15592	1704	-5488	55	-51	142	-2860	-5152	15704	-5	-127	242	-10540	2008	12972	102	-67	-117	-15268	-1612	-5508	66	-84	-89	-1268	1056	16984	120	7	69	125	116	5
-11316	-3060	10956	-117	150	-179	-15604	1628	-5492	54	-58	84	-2780	-5232	15760	49	-128	219	-10516	2000	13036	102	-63	-153	-15156	-1548	-5452	47	-71	-86	-1164	1064	16972	105	-16	85	125	116	5
-11324	-3056	10884	-153	163	-155	-15648	1632	-5440	37	-2	90	-2752	-5200	15652	5	-136	205	-10540	2008	12972	84	-25	-164	-15212	-1576	-5484	45	-73	-142	-1160	988	17004	134	9	97	124	116	5
-11320	-3072	10912	-132	161	-140	-15584	1628	-5468	87	-61	88	-2672	-5140	15744	-50	-141	189	-10552	2080	12824	97	-40	-147	-15220	-1612	-5436	7	-64	-149	-1148	1060	17056	66	32	89	125	117	5
-11336	-3116	10824	-111	175	-170	-15592	1648	-5464	64	-26	59	-2700	-5168	15668	-59	-145	180	-10560	1996	12956	101	1	-199	-15220	-1616	-5572	-13	-41	-124	-1088	1000	17012	95	13	45	125	116	5
-11360	-3056	10776	-99	150	-134	-15672	1700	-5516	106	18	69	-2704	-5252	15676	-48	-137	224	-10576	2048	12932	75	-24	-182	-15156	-1732	-5540	-40	-46	-121	-1180	992	17184	29	9	35	124	116	5
-11372	-3064	10780	-119	140	-174	-15660	1696	-5548	109	16	54	-2704	-5168	15616	-76	-133	204	-10572	2028	12828	80	-11	-137	-15160	-1592	-5532	2	-70	-99	-1240	956	17020	-2	33	11	124	116	5
-11360	-3104	10908	-145	175	-178	-15632	1660	-5484	113	6	36	-2808	-5212	15664	-98	-178	215	-10540	1988	12860	70	-5	-180	-15220	-1668	-5428	19	-52	-132	-1240	912	17028	0	24	67	125	117	5
-11344	-3032	10892	-132	149	-177	-15660	1572	-5460	114	-13	9	-2844	-5296	15620	-56	-174	255	-10512	2024	12948	100	-39	-164	-15188	-1604	-5520	15	-74	-174	-1336	972	16944	-33	57	83	125	117	5
-11408	-3116	10824	-107	160	-187	-15672	1636	-5440	89	-28	47	-2824	-5296	15664	-57	-148	250	-10552	2100	12952	94	-10	-159	-15188	-1664	-5564	-9	-71	-155	-1288	876	16984	-48	4	50	125	117	5
-11324	-3032	10664	-178	171	-220	-15604	1532	-5468	43	-29	43	-2872	-5164	15588	-15	-181	202	-10552	2036	12976	112	-103	-138	-15180	-1660	-5428	58	-115	-114	-1264	832	16968	-47	66	126	125	117	5
-11332	-3084	10832	-146	144	-172	-15652	1580	-5500	60	-33	51	-2796	-5268	15560	-80	-160	223	-10588	2012	12916	100	-29	-132	-15180	-1672	-5528	27	-118	-112	-1256	948	16972	-65	74	85	124	116	5
-11324	-3072	10896	-185	196	-183	-15600	1596	-5480	85	-78	61	-2704	-5368	15620	-62	-158	228	-10592	2068	12964	90	11	-162	-15220	-1664	-5528	-17	-162	-120	-1272	912	16936	-91	18	78	125	117	5
-11372	-3112	10716	-131	187	-185	-15652	1584	-5448	75	-62	44	-2756	-5412	15596	66	-141	259	-10568	2036	12884	113	-130	-130	-15216	-1716	-5408	27	-88	-129	-1232	920	17096	-102	41	33	125	117	5
-11344	-3080	10956	-110	171	-174	-15664	1572	-5520	64	-60	48	-2768	-5328	15516	96	-146	257	-10516	1984	12960	122	-67	-148	-15216	-1700	-5416	40	-126	-120	-1212	804	17056	-92	41	47	125	117	5
-11368	-3056	10792	-126	144	-162	-15632	1564	-5460	54	-107	69	-2772	-5272	15572	91	-181	218	-10540	2016	12992	113	-53	-134	-15228	-1688	-5640	34	-138	-94	-1220	872	17080	-104	75	28	125	117	5
-11320	-3072	10756	-137	148	-156	-15620	1516	-5516	38	-109	75	-2724	-5236	15632	-28	-163	165	-10576	2012	13032	121	14	-168	-15172	-1660	-5524	52	-93	-120	-1308	836	17092	-88	72	8	125	116	5
-11332	-2996	10808	-127	146	-192	-15604	1596	-5420	63	-56	81	-2720	-5272	15704	-20	-151	169	-10512	2048	12964	84	-21	-175	-15192	-1608	-5428	29	-113	-94	-1272	772	17048	-73	40	18	125	116	5
-11312	-3096	10840	-115	134	-186	-15616	1624	-5408	61	-65	105	-2712	-5284	15644	-4	-153	171	-10480	2088	12992	114	-70	-155	-15232	-1604	-5476	44	-138	-95	-1144	736	17024	-30	50	70	125	116	5
-11396	-3128	10788	-118	128	-181	-15596	1516	-5444	44	-28	119	-2636	-5360	15660	21	-172	229	-10536	2076	12848	86	-28	-160	-15232	-1624	-5416	6	-122	-76	-1076	704	17044	21	10	98	125	117	5
-11352	-3072	10880	-140	160	-130	-15688	1580	-5448	59	-54	154	-2632	-5312	15640	63	-138	234	-10572	2080	12968	98	-28	-140	-15224	-1628	-5340	6	-79	-92	-1124	804	17084	107	31	61	125	117	5
-11344	-3108	10784	-97	140	-164	-15732	1512	-5464	70	23	162	-2632	-5248	15608	77	-138	189	-10564	2116	12908	92	-40	-125	-15212	-1652	-5312	-19	-42	-115	-1064	764	17016	124	61	95	125	117	5
-11304	-3128	10840	-88	155	-166	-15596	1552	-5388	66	-11	157	-2668	-5264	15732	76	-122	179	-10548	2084	13016	117	-59	-136	-15160	-1656	-5308	22	-16	-126	-1064	824	17048	70	57	53	125	117	5
-11288	-3060	10800	-76	163	-159	-15604	1604	-5312	83	37	180	-2652	-5316	15656	145	-143	159	-10544	2096	12980	114	-28	-156	-15308	-1588	-5388	-36	35	-110	-1132	820	16996	69	61	123	125	117	5
-11344	-3124	10812	-78	138	-117	-15632	1592	-5416	48	59	197	-2696	-5272	15672	100	-141	206	-10532	2096	12980	103	-18	-181	-15224	-1596	-5380	-64	54	-183	-1224	876	17072	79	38	83	125	117	5
-11336	-3108	10896	-81	128	-136	-15652	1592	-5392	61	64	214	-2716	-5260	15648	87	-146	202	-10532	2064	12932	119	-11	-185	-15256	-1608	-5448	-12	54	-144	-1244	964	16956	35	61	65	125	117	5
-11292	-3112	10832	-45	162	-127	-15636	1592	-5476	46	85	191	-2784	-5244	15648	112	-122	149	-10564	2072	12928	64	-22	-159	-15152	-1648	-5452	33	31	-182	-1272	852	17004	11	58	51	125	117	5
-11380	-3156	10756	-42	153	-137	-15600	1608	-5456	30	71	223	-2816	-5276	15636	92	-140	177	-10484	2072	12880	78	-18	-182	-15188	-1664	-5560	56	34	-195	-1384	928	17136	44	60	85	124	116	5
-11340	-3116	10744	-88	120	-125	-15604	1604	-5508	51	62	221	-2800	-5240	15652	83	-127	151	-10576	2032	12948	94	-4	-208	-15240	-1640	-5572	29	21	-208	-1404	912	16980	-19	49	98	124	116	5
-11296	-3028	10792	-109	139	-133	-15644	1532	-5548	22	51	211	-2904	-5200	15696	88	-135	156	-10528	2020	12980	56	-33	-161	-15216	-1584	-5536	26	-63	-234	-1340	876	17024	-60	85	113	125	117	5
-11284	-3088	10820	-104	147	-160	-15612	1720	-5628	60	29	189	-2816	-5196	15768	55	-127	167	-10568	2092	12896	72	-10	-200	-15188	-1696	-5584	46	-84	-289	-1356	952	16928	-49	58	137	125	117	5
-11352	-3036	10808	-109	140	-174	-15592	1600	-5496	63	4	131	-2836	-5120	15672	10	-113	166	-10528	1996	12936	89	-66	-150	-15184	-1640	-5496	73	-97	-280	-1460	904	17008	-121	47	186	124	116	5
-11356	-3028	10776	-100	116	-165	-15544	1660	-5616	65	-14	108	-2828	-5136	15656	-27	-125	193	-10588	2052	13012	79	-113	-139	-15232	-1624	-5392	121	-149	-270	-1440	792	17044	-137	23	225	124	116	5
-11380	-3036	10812	-127	129	-160	-15648	1616	-5552	56	-47	120	-2784	-5248	15788	-42	-133	171	-10548	2032	12980	73	-52	-153	-15184	-1708	-5544	93	-179	-290	-1328	836	17028	-140	34	176	125	116	5
-11368	-3044	10752	-115	163	-140	-15604	1624	-5432	35	-76	74	-2796	-5216	15648	-36	-129	150	-10492	2020	12920	65	-97	-132	-15168	-1708	-5440	105	-212	-294	-1332	780	17020	-169	23	214	125	117	5
-11292	-3052	10860	-128	122	-193	-15588	1596	-5420	67	-64	63	-2780	-5276	15616	-47	-145	166	-10504	1996	12844	53	-68	-160	-15200	-1704	-5516	73	-227	-268	-1348	644	17028	-192	-8	260	125	116	5
-11320	-3048	10804	-107	152	-149	-15672	1580	-5508	75	-81	93	-2696	-5220	15660	-41	-147	148	-10512	2048	12888	92	-60	-152	-15188	-1720	-5416	97	-217	-269	-1296	704	17016	-102	34	269	125	117	5
-11304	-3100	10840	-114	158	-209	-15640	1584	-5332	90	-46	83	-2676	-5244	15656	9	-138	174	-10528	2028	12928	85	-65	-142	-15248	-1808	-5428	88	-206	-272	-1252	660	17056	-64	15	234	125	117	5
-11336	-3052	10920	-86	161	-198	-15604	1516	-5400	60	-36	54	-2708	-5288	15628	11	-147	160	-10544	2032	12812	65	-39	-161	-15208	-1792	-5352	48	-187	-296	-1192	716	16976	-140	30	244	125	117	5
-11340	-3100	10812	-116	150	-160	-15652	1544	-5452	79	5	91	-2684	-5296	15572	31	-133	170	-10536	2024	13036	108	-118	-177	-15208	-1752	-5364	84	-176	-281	-1176	628	17012	-152	110	218	125	117	5
-11408	-3100	10788	-131	138	-155	-15656	1500	-5356	60	-3	128	-2732	-5348	15648	-10	-166	187	-10540	1972	13040	47	-58	-167	-15216	-1708	-5452	111	-169	-255	-1408	656	17072	-164	58	228	125	117	5
-11336	-3064	10776	-129	169	-162	-15644	1532	-5436	40	-21	134	-2784	-5296	15668	22	-117	171	-10512	2052	13032	70	-92	-157	-15192	-1728	-5464	66	-210	-235	-1316	624	17012	-129	36	214	125	117	5
-11296	-3064	10732	-89	129	-145	-15640	1504	-5464	58	11	170	-2752	-5412	15704	44	-116	112	-10508	2048	13080	94	-67	-171	-15192	-1796	-5440	64	-165	-222	-1252	652	17040	-93	48	224	125	116	5
-11340	-3132	10836	-78	124	-169	-15592	1600	-5484	46	1	207	-2732	-5252	15712	80	-109	98	-10544	2112	12900	88	-82	-157	-15260	-1844	-5400	112	-193	-231	-1276	576	17152	-92	2	186	125	117	5
-11392	-3092	10856	-71	127	-131	-15624	1592	-5520	52	-13	239	-2680	-5264	15688	101	-100	70	-10496	2032	13000	86	-56	-173	-15212	-1848	-5340	82	-165	-219	-1280	480	17044	-121	44	145	125	117	5
-11316	-3064	10796	-80	127	-122	-15640	1612	-5464	56	-22	221	-2728	-5232	15656	117	-129	104	-10512	2020	13000	61	-37	-191	-15228	-1848	-5312	64	-152	-181	-1220	548	17088	-48	-38	135	125	117	5
-11312	-3160	10900	-116	126	-136	-15664	1552	-5544	69	-25	232	-2756	-5228	15660	124	-115	68	-10532	2016	12980	67	-52	-143	-15228	-1860	-5384	46	-134	-195	-1284	480	17024	-39	23	140	125	117	5
-11364	-3020	10784	-46	133	-164	-15608	1668	-5604	53	-4	223	-2744	-5224	15708	126	-99	140	-10596	1960	12988	59	-15	-128	-15196	-1848	-5408	-8	-121	-172	-1180	432	17088	-22	-2	143	125	117	5
-11392	-3104	10820	-102	124	-132	-15656	1632	-5588	63	-38	187	-2784	-5180	15632	111	-89	133	-10496	2024	12852	70	-26	-141	-15248	-1904	-5376	28	-81	-109	-1272	516	17052	-31	21	134	125	117	5
-11332	-3028	10852	-120	128	-160	-15616	1640	-5504	59	-15	123	-2844	-5172	15640	65	-89	154	-10548	1988	12788	98	-31	-139	-15200	-1896	-5416	38	-112	-131	-1392	384	17012	49	-22	56	125	117	5
-11360	-2976	10864	-105	135	-139	-15640	1656	-5424	63	-25	149	-2900	-5304	15620	135	-110	169	-10492	1996	12984	105	17	-179	-15240	-1864	-5308	73	-106	-121	-1364	476	17120	65	173	21	125	117	5
-11296	-3044	10772	-88	144	-197	-15544	1680	-5532	39	-91	125	-2824	-5200	15696	72	-120	159	-10640	1988	12980	89	0	-156	-15248	-1832	-5392	41	-121	-62	-1396	356	17132	159	-15	80	125	117	5
-11296	-3160	10776	-120	149	-168	-15620	1600	-5544	71	-62	74	-2760	-5188	15676	30	-143	157	-10548	2036	13016	91	-19	-167	-15228	-1896	-5268	16	-130	-12	-1308	424	17024	215	-43	56	125	117	5
-11376	-3088	10880	-95	146	-166	-15632	1664	-5444	50	-70	132	-2724	-5112	15656	14	-149	196	-10536	2064	12924	135	-68	-145	-15164	-1824	-5448	-15	-159	-5	-1372	520	16992	218	-1	41	125	117	5
-11312	-3076	10980	-128	166	-168	-15612	1640	-5428	57	-58	103	-2740	-5236	15672	34	-143	181	-10544	1992	13032	140	5	-147	-15212	-1844	-5432	-6	-128	-36	-1256	536	17076	175	-4	21	125	117	5
-11368	-3064	10804	-114	148	-176	-15604	1584	-5496	68	-50	78	-2664	-5232	15568	15	-150	196	-10480	2016	12948	116	-18	-148	-15260	-1832	-5364	5	-129	-9	-1308	576	17000	191	-28	36	125	117	5
-11356	-3104	10832	-100	161	-181	-15648	1600	-5484	64	-21	126	-2740	-5348	15688	5	-160	198	-10564	2044	12980	120	-33	-123	-15252	-1736	-5404	10	-122	12	-1232	544	16976	157	-49	28	125	117	5
-11376	-3120	10788	-91	129	-156	-15700	1576	-5440	74	-52	130	-2656	-5376	15636	10	-167	203	-10588	2004	12916	111	-73	-141	-15252	-1784	-5268	-43	-91	10	-1204	608	17032	215	-21	50	125	117	5
-11312	-3044	10800	-119	143	-150	-15668	1552	-5420	34	-44	155	-2700	-5380	15636	75	-120	161	-10480	2024	12952	124	19	-135	-15252	-1740	-5316	-15	-90	-4	-1184	588	17052	251	-68	57	125	117	5
-11324	-3084	10880	-118	90	-173	-15644	1576	-5516	48	-39	156	-2676	-5336	15588	107	-94	135	-10552	2056	13020	131	-35	-164	-15200	-1664	-5272	-30	-68	-39	-1156	664	17020	216	-8	72	125	116	5
-11392	-3060	10880	-126	112	-128	-15604	1596	-5488	49	-46	184	-2752	-5332	15696	138	-76	123	-10492	2076	13024	115	-35	-161	-15192	-1668	-5268	1	-63	-67	-1212	740	17032	215	-44	63	125	116	5
-11324	-3096	10764	-124	129	-124	-15628	1572	-5348	51	-7	222	-2664	-5264	15688	123	-73	89	-10604	2004	12948	96	-10	-170	-15272	-1680	-5340	-14	-40	-119	-1292	768	16940	195	-49	104	125	117	5
-11312	-3036	10924	-81	147	-146	-15640	1556	-5336	48	-15	208	-2668	-5232	15716	104	-86	112	-10536	2052	12956	56	-24	-141	-15268	-1700	-5384	24	-85	-124	-1288	712	17040	137	-39	133	125	117	5
-11304	-3108	10892	-77	106	-129	-15620	1684	-5460	71	-39	219	-2696	-5292	15772	97	-99	123	-10576	2056	12928	97	21	-152	-15220	-1680	-5380	15	-113	-168	-1296	744	17044	84	-13	170	125	117	5
-11296	-3064	10868	-91	143	-155	-15644	1656	-5468	56	7	241	-2784	-5256	15760	91	-113	116	-10564	2044	12872	74	-63	-179	-15288	-1716	-5392	20	-58	-186	-1216	688	17120	74	-69	190	125	117	5
-11320	-3116	10792	-89	131	-192	-15584	1712	-5476	58	-36	248	-2752	-5208	15716	129	-81	128	-10616	2048	12964	46	-6	-182	-15280	-1804	-5384	29	-110	-188	-1316	704	17032	29	-48	212	125	117	5
-11320	-3040	10860	-91	118	-150	-15636	1676	-5632	35	-34	198	-2736	-5192	15708	115	-95	113	-10556	2004	12928	48	-79	-160	-15284	-1764	-5312	29	-100	-193	-1316	588	17028	30	-41	269	125	116	5
-11416	-3136	10860	-76	121	-163	-15600	1608	-5460	38	-48	195	-2744	-5212	15748	95	-107	126	-10496	1992	13048	44	-53	-161	-15240	-1864	-5352	92	-113	-190	-1304	612	17088	30	-45	261	124	116	5
-11336	-3128	10836	-92	121	-157	-15636	1672	-5452	60	-19	194	-2664	-5144	15688	104	-91	116	-10536	2036	13100	27	-59	-176	-15120	-1824	-5360	56	-99	-242	-1376	612	16976	72	-93	265	124	117	5
-11324	-3096	10848	-111	132	-133	-15580	1720	-5428	35	-46	205	-2716	-5168	15768	99	-81	110	-10472	2000	12824	52	-43	-170	-15228	-1884	-5380	98	-124	-176	-1280	596	16920	136	-48	244	125	116	5
-11360	-3088	10760	-121	106	-150	-15608	1616	-5448	34	-61	212	-2760	-5184	15660	71	-117	126	-10592	2008	12916	66	-40	-187	-15308	-1848	-5264	52	-103	-136	-1256	484	17016	48	-42	229	124	117	5
-11352	-3100	10816	-95	110	-138	-15668	1648	-5376	36	2	199	-2732	-5188	15696	54	-81	133	-10564	2004	12912	57	-66	-129	-15204	-1900	-5308	58	-111	-191	-1160	424	17112	85	-49	215	125	117	5
-11388	-3112	10856	-83	117	-145	-15700	1672	-5436	42	-24	213	-2748	-5220	15688	34	-84	164	-10520	2036	12972	85	-67	-170	-15248	-1892	-5276	60	-45	-134	-1168	412	16980	134	-36	142	124	116	5
-11348	-3112	10856	-89	133	-192	-15640	1616	-5328	53	-17	162	-2700	-5104	15704	48	-95	177	-10488	2064	13052	92	-22	-153	-15152	-1836	-5276	36	-30	-131	-1188	420	17100	168	-78	121	124	116	5
-11348	-3140	10748	-116	120	-145	-15608	1656	-5468	59	-26	154	-2680	-5180	15732	54	-117	153	-10508	2020	12956	102	-26	-154	-15176	-1944	-5224	14	5	-133	-1168	396	17048	183	-29	90	124	117	5
-11368	-3116	10812	-64	154	-153	-15544	1708	-5448	42	21	174	-2676	-5128	15656	28	-80	187	-10540	2048	12924	88	-42	-142	-15252	-1892	-5380	31	60	-56	-1260	364	17016	210	-61	66	125	117	5
-11284	-3044	10808	-129	161	-141	-15656	1688	-5368	75	43	160	-2720	-5068	15756	-44	-136	195	-10572	2028	13004	98	-2	-159	-15160	-1792	-5264	0	69	-62	-1148	384	16952	291	-43	24	125	117	5
-11368	-3088	10800	-110	123	-162	-15608	1708	-5480	52	5	113	-2696	-5132	15556	-37	-160	211	-10560	1944	12948	109	-66	-144	-15196	-1944	-5260	-41	97	-54	-1276	424	16952	364	5	-12	125	116	5
-11300	-3080	10776	-120	133	-166	-15700	1692	-5480	61	41	136	-2764	-5180	15584	-24	-164	216	-10532	1944	13060	110	-30	-170	-15196	-1896	-5352	-7	126	3	-1236	424	17020	400	-58	-60	125	117	5
-11360	-3072	10716	-109	136	-125	-15664	1648	-5332	35	47	118	-2764	-5268	15652	-30	-148	202	-10500	1992	12996	117	-33	-167	-15180	-1840	-5336	-87	131	8	-1288	428	17064	396	-36	-59	124	116	5
-11312	-3044	10852	-130	148	-132	-15664	1712	-5412	44	77	104	-2708	-5164	15584	-32	-127	221	-10520	1992	13036	79	30	-179	-15212	-1928	-5356	-65	179	-1	-1324	496	17100	448	-7	-93	124	116	5
-11320	-3100	10788	-135	179	-163	-15640	1648	-5380	47	40	82	-2756	-5244	15588	-11	-148	241	-10568	1976	12928	130	-4	-133	-15192	-1840	-5352	-86	124	40	-1312	520	17072	451	-40	-109	124	116	5
-11328	-3056	10740	-96	163	-169	-15644	1628	-5572	57	20	118	-2748	-5192	15728	-11	-113	250	-10540	2044	12892	126	-35	-136	-15196	-1888	-5356	-78	140	54	-1328	560	17080	447	-57	-159	124	116	5
-11368	-3080	10756	-138	124	-174	-15616	1640	-5392	90	-6	132	-2720	-5196	15680	-7	-89	239	-10584	2016	12928	142	-20	-150	-15260	-1828	-5428	-66	140	60	-1368	624	16972	426	-40	-143	124	116	5
-11384	-3088	10804	-145	138	-158	-15608	1604	-5556	45	-3	143	-2740	-5248	15664	18	-104	196	-10496	2016	12932	146	35	-148	-15272	-1772	-5532	-88	102	74	-1288	700	17048	465	-66	-148	124	116	5
-11364	-3096	10812	-114	159	-140	-15648	1664	-5536	63	-24	135	-2784	-5272	15656	8	-88	206	-10540	2008	12920	129	-19	-158	-15276	-1772	-5388	-103	104	34	-1292	628	17076	471	-72	-111	124	116	5
-11288	-3104	10760	-89	156	-150	-15572	1648	-5600	73	3	140	-2696	-5276	15668	-23	-140	212	-10584	2020	12984	118	38	-113	-15236	-1748	-5516	-108	109	63	-1304	752	17012	484	-115	-104	124	116	5
-11372	-3032	10760	-110	144	-140	-15564	1620	-5448	33	-44	152	-2704	-5244	15636	108	-158	259	-10612	2044	13036	125	10	-120	-15220	-1856	-5400	-68	108	61	-1340	684	17036	460	-82	-69	124	116	5
-11336	-3116	10868	-67	127	-146	-15680	1644	-5456	72	-13	149	-2748	-5180	15756	125	-153	240	-10548	2028	12996	134	17	-135	-15268	-1828	-5488	-115	66	101	-1300	708	17092	438	-101	-62	124	116	5
-11368	-3068	10836	-60	122	-171	-15596	1572	-5664	100	1	160	-2700	-5188	15684	130	-150	243	-10560	2028	12944	133	-1	-134	-15136	-1772	-5408	-95	40	88	-1380	688	17112	425	-32	-65	124	116	5
-11348	-3064	10840	-130	163	-154	-15660	1588	-5408	80	44	180	-2728	-5184	15652	54	-131	161	-10508	1980	12916	130	9	-140	-15132	-1720	-5436	-23	46	120	-1332	700	17068	417	-27	-81	124	116	5
-11300	-3060	10892	-83	158	-151	-15636	1596	-5524	97	41	180	-2708	-5212	15668	36	-130	136	-10556	1988	13056	128	34	-121	-15248	-1764	-5344	-28	32	113	-1280	756	17156	433	-13	-153	124	116	5
-11320	-3132	10832	-99	138	-146	-15652	1596	-5516	83	55	198	-2752	-5232	15696	4	-82	92	-10552	2032	12880	136	-9	-126	-15240	-1708	-5504	-27	-10	98	-1212	860	17120	397	-38	-196	124	116	5
-11312	-2988	10912	-87	137	-152	-15644	1608	-5528	66	39	217	-2724	-5236	15788	95	-71	110	-10536	2008	12884	121	2	-135	-15236	-1684	-5460	-12	-5	104	-1252	888	16992	363	-51	-168	124	116	5
-11312	-2988	10816	-99	158	-129	-15612	1628	-5480	76	21	183	-2708	-5276	15612	130	-51	122	-10608	2008	13080	159	-29	-131	-15228	-1644	-5424	-15	9	81	-1220	736	17124	272	-38	27	124	117	5
-11356	-3064	10764	-60	162	-140	-15644	1624	-5520	120	11	184	-2780	-5232	15636	212	-78	97	-10560	1988	12884	131	-8	-143	-15228	-1688	-5552	-80	-21	73	-1304	836	17008	250	-48	-66	124	116	5
-11384	-3132	10788	-125	113	-165	-15612	1700	-5704	151	37	170	-2816	-5208	15592	239	-107	100	-10548	2100	13016	120	-3	-138	-15208	-1672	-5432	-18	-72	-4	-1324	936	16948	236	-36	-20	124	116	5
-11312	-3012	10812	-71	131	-193	-15596	1752	-5576	160	-20	198	-2820	-5076	15708	204	-115	141	-10580	2048	12964	118	-25	-122	-15256	-1660	-5504	2	-54	19	-1380	840	16960	196	-41	21	124	116	5
-11348	-3068	10828	-103	151	-178	-15604	1784	-5440	112	-60	173	-2848	-5104	15704	63	-121	180	-10548	2000	12976	141	-49	-174	-15184	-1640	-5588	47	-97	-16	-1388	820	17000	178	-50	91	124	116	5
-11332	-3072	10840	-111	154	-159	-15584	1692	-5432	63	-101	137	-2780	-5092	15696	-30	-93	213	-10560	2012	12840	86	-43	-141	-15152	-1712	-5408	56	-114	-36	-1288	816	17124	203	-37	97	124	116	5
-11340	-3120	10872	-97	144	-166	-15628	1640	-5528	-14	-71	97	-2788	-5156	15660	-38	-114	186	-10548	1996	12992	117	-43	-133	-15212	-1664	-5448	71	-153	-83	-1188	736	17080	201	-50	99	124	116	5
-11348	-3036	10892	-134	142	-203	-15664	1700	-5528	-44	-85	64	-2768	-5200	15696	3	-107	188	-10588	2032	12852	140	-83	-151	-15228	-1728	-5360	41	-93	-83	-1192	664	17060	176	-42	88	124	117	5
-11340	-3136	10812	-119	128	-158	-15624	1600	-5540	-17	-82	78	-2660	-5152	15584	29	-119	171	-10528	2080	12940	74	-22	-154	-15160	-1748	-5452	23	-75	-66	-1144	680	17036	176	-34	95	124	117	5
-11348	-3104	10800	-119	125	-197	-15608	1632	-5480	49	-87	131	-2688	-5168	15728	35	-116	205	-10556	2040	12888	99	-3	-149	-15164	-1664	-5356	-27	-29	-64	-1148	636	16996	198	-45	53	124	116	5
-11376	-3052	10864	-138	134	-168	-15576	1660	-5388	50	-69	116	-2596	-5152	15704	-13	-129	233	-10568	1996	12960	116	-39	-141	-15232	-1756	-5332	-16	-60	-56	-1200	660	17000	198	-19	65	125	117	5
-11312	-3080	10804	-110	157	-180	-15636	1652	-5456	93	-50	121	-2628	-5160	15668	-15	-152	245	-10568	2064	12940	104	-56	-163	-15244	-1692	-5340	12	19	-45	-1148	652	16988	277	-41	29	124	116	5
-11368	-3056	10820	-96	125	-165	-15660	1624	-5452	54	-36	120	-2660	-5164	15712	-16	-118	213	-10604	2028	12944	110	-22	-176	-15224	-1708	-5404	-30	18	-54	-1188	712	17032	270	-23	16	125	116	5
-11300	-3092	10816	-126	146	-154	-15596	1656	-5576	19	-12	147	-2704	-5180	15680	7	-125	212	-10596	2008	12972	82	45	-155	-15252	-1676	-5428	-18	62	-52	-1192	700	17040	287	-33	-3	124	116	5
-11336	-3044	10888	-103	133	-172	-15680	1608	-5324	2	23	117	-2708	-5252	15664	-40	-120	183	-10548	2044	12968	102	-24	-166	-15196	-1732	-5512	-13	55	-36	-1236	760	17084	296	-29	4	124	116	5
-11308	-3108	10828	-89	139	-131	-15616	1584	-5464	-18	-16	118	-2728	-5200	15692	18	-128	175	-10524	1992	12976	136	-25	-155	-15224	-1648	-5404	-29	41	-9	-1184	832	17064	263	19	-46	124	117	5
-11376	-3124	10752	-78	147	-152	-15604	1620	-5444	48	8	170	-2728	-5164	15800	10	-140	204	-10556	2028	12896	114	-59	-172	-15188	-1724	-5532	-36	48	4	-1224	744	17084	235	-35	-14	125	117	5
-11284	-3108	10748	-99	152	-180	-15640	1572	-5624	54	5	123	-2808	-5184	15632	42	-141	224	-10556	1992	12956	124	0	-145	-15188	-1704	-5532	-64	45	18	-1328	840	16960	298	-31	-18	124	117	5
-11328	-3096	10864	-100	130	-167	-15644	1672	-5532	45	15	158	-2860	-5084	15672	14	-122	182	-10540	1972	12900	116	26	-163	-15192	-1696	-5556	9	17	-3	-1332	756	17056	233	-7	-22	124	117	5
-11284	-3080	10856	-96	126	-173	-15608	1696	-5500	72	9	138	-2808	-5124	15676	22	-139	200	-10576	1992	12972	133	0	-169	-15192	-1700	-5412	-11	21	-36	-1344	844	17016	236	4	-6	124	116	5
-11412	-3100	10848	-92	153	-166	-15556	1684	-5548	43	-43	89	-2860	-5092	15780	-3	-106	176	-10548	2076	12960	98	-35	-174	-15216	-1676	-5476	26	-18	-14	-1352	832	17040	268	-15	2	124	117	5
-11312	-3000	10800	-119	176	-189	-15640	1676	-5524	28	-51	79	-2792	-5088	15644	-67	-117	190	-10580	2020	12960	159	-57	-132	-15276	-1656	-5632	-1	-25	16	-1336	868	16964	253	-58	-19	124	116	5
-11356	-3060	10832	-132	149	-175	-15556	1632	-5336	58	-36	62	-2768	-5196	15620	-72	-98	158	-10520	1988	12936	112	-3	-135	-15156	-1680	-5484	11	-53	-20	-1336	800	17036	226	13	-3	124	116	5
-11356	-3048	10852	-137	135	-174	-15616	1672	-5540	78	-93	85	-2776	-5224	15744	-56	-97	179	-10540	2064	12948	141	-5	-147	-15260	-1728	-5436	-9	-81	-10	-1280	792	17076	225	-32	-40	124	116	5
-11308	-3060	10808	-149	131	-201	-15608	1608	-5556	83	-81	15	-2720	-5236	15592	-59	-102	198	-10560	2028	12976	141	9	-130	-15220	-1672	-5516	-14	-83	-20	-1260	816	17008	216	-18	-24	124	116	5
-11388	-3104	10984	-147	135	-183	-15648	1580	-5448	70	-87	73	-2704	-5176	15692	-12	-95	185	-10520	2016	12964	124	-15	-169	-15308	-1720	-5464	2	-88	-48	-1208	760	17036	204	-4	10	124	116	5
-11380	-3048	10808	-148	134	-175	-15568	1616	-5352	106	-50	39	-2764	-5180	15560	-51	-131	225	-10572	1960	12908	117	-53	-173	-15236	-1696	-5556	19	-52	-47	-1196	796	16924	232	-28	45	125	117	5
-11352	-3092	10824	-149	137	-185	-15596	1560	-5380	64	-59	60	-2668	-5176	15644	-64	-144	226	-10560	2000	12872	119	-29	-136	-15172	-1648	-5500	13	-88	-27	-1196	724	16968	218	-19	84	125	117	5
-11296	-3100	10864	-105	135	-176	-15600	1520	-5512	33	-46	71	-2736	-5228	15612	-76	-185	220	-10560	2088	12892	137	-35	-154	-15216	-1712	-5376	61	-83	-34	-1220	784	17096	211	-38	70	125	116	5
-11320	-3152	10812	-115	142	-185	-15628	1536	-5484	32	-28	69	-2700	-5236	15664	-43	-188	200	-10544	2028	12972	111	-28	-169	-15212	-1668	-5556	40	-98	-32	-1288	832	17108	194	-46	56	124	116	5
-11356	-3024	10868	-131	130	-165	-15584	1572	-5400	37	-58	117	-2644	-5196	15680	-70	-126	189	-10512	2100	12940	113	-51	-152	-15224	-1608	-5552	-1	-94	-38	-1304	852	16980	182	-9	29	124	116	5
-11360	-3148	10728	-104	161	-169	-15592	1560	-5492	73	-24	82	-2752	-5280	15608	-46	-162	174	-10572	2032	12872	139	-41	-141	-15288	-1700	-5416	61	-124	-25	-1348	872	16896	163	-32	17	125	117	5
-11340	-3068	10844	-121	165	-145	-15640	1576	-5448	69	-8	117	-2772	-5308	15712	-15	-105	101	-10584	2052	12916	113	-13	-153	-15192	-1648	-5396	14	-107	-28	-1288	856	17112	166	-16	-6	124	116	5
-11392	-3068	10840	-117	134	-129	-15600	1644	-5480	57	-33	118	-2760	-5236	15632	-53	-131	78	-10504	2084	12908	84	-13	-147	-15184	-1632	-5408	-14	-115	-72	-1192	860	17008	145	-7	4	125	117	5
-11312	-3080	10820	-102	148	-163	-15584	1644	-5376	77	-30	124	-2720	-5228	15648	-45	-128	110	-10548	1988	12900	92	-46	-136	-15176	-1612	-5448	-8	-98	-56	-1204	816	17064	117	-16	-10	125	117	5
-11316	-3068	10760	-135	155	-165	-15584	1668	-5404	70	2	112	-2676	-5248	15620	3	-151	115	-10580	2052	13032	84	-51	-153	-15192	-1604	-5460	-35	-74	-43	-1192	824	16988	77	-10	16	125	116	5
-11316	-3044	10888	-85	137	-172	-15608	1656	-5424	87	-45	160	-2660	-5228	15740	5	-185	149	-10492	2064	12944	118	-5	-124	-15228	-1652	-5336	-1	-66	-86	-1164	740	16996	85	2	22	125	116	5
-11372	-3080	10840	-85	131	-157	-15608	1600	-5460	81	21	123	-2728	-5152	15676	-24	-153	155	-10496	2096	13020	93	41	-167	-15264	-1664	-5392	44	-48	-82	-1160	732	17048	106	31	21	125	117	5
-11320	-3100	10836	-124	140	-155	-15708	1592	-5432	111	10	99	-2716	-5192	15592	-58	-139	169	-10536	2072	13112	117	-35	-163	-15216	-1628	-5460	-27	-24	-118	-1216	776	17020	132	2	74	125	117	5
-11356	-3072	10840	-110	131	-185	-15628	1640	-5468	102	-3	77	-2764	-5212	15564	-58	-163	194	-10532	2036	12960	90	0	-170	-15192	-1680	-5424	-1	-14	-120	-1188	812	16996	206	25	42	124	116	5
-11368	-3032	10892	-134	141	-166	-15620	1524	-5576	70	-20	64	-2752	-5228	15748	-77	-166	201	-10564	1948	12876	95	-24	-192	-15180	-1680	-5348	25	-41	-140	-1216	768	17064	207	-2	83	124	117	5
-11336	-3040	10828	-90	158	-167	-15640	1612	-5508	30	-22	62	-2820	-5220	15644	-78	-152	247	-10600	1984	13016	56	-25	-141	-15208	-1644	-5484	-18	-42	-94	-1260	880	16976	202	20	98	124	117	5
-11344	-3056	10732	-118	189	-207	-15596	1588	-5528	34	-34	44	-2804	-5220	15664	-17	-171	210	-10548	2028	13004	105	-44	-155	-15212	-1636	-5544	-7	-42	-76	-1268	764	16992	188	0	93	124	116	5
-11356	-3116	10856	-137	147	-198	-15644	1616	-5360	73	-24	23	-2732	-5308	15648	-26	-149	203	-10568	2080	12932	115	-42	-147	-15240	-1616	-5468	-26	-49	-132	-1256	820	17068	131	24	109	124	116	5
-11380	-3156	10844	-126	154	-187	-15660	1568	-5436	64	-72	67	-2676	-5292	15736	-34	-152	206	-10556	2000	12960	101	-33	-172	-15168	-1648	-5456	9	-60	-99	-1236	836	17080	127	-6	118	124	116	5
-11272	-3096	10840	-130	128	-168	-15628	1536	-5464	55	-64	77	-2732	-5248	15768	-45	-140	209	-10584	2084	13024	65	6	-174	-15268	-1696	-5352	-20	-58	-132	-1220	792	16884	121	5	116	124	116	5
-11372	-3104	10852	-123	125	-147	-15584	1480	-5368	31	-81	62	-2720	-5320	15584	15	-117	202	-10504	2080	12940	86	-34	-151	-15280	-1744	-5412	14	-42	-120	-1328	780	17096	140	-7	118	124	116	5
-11380	-3136	10868	-112	146	-169	-15632	1608	-5548	56	-60	45	-2708	-5220	15612	11	-115	171	-10516	2016	12980	88	-30	-160	-15200	-1740	-5364	61	-87	-94	-1240	740	17068	151	-5	132	124	117	5
-11360	-3136	10804	-125	157	-178	-15632	1540	-5476	34	-60	70	-2700	-5264	15716	-35	-151	178	-10476	2040	12840	119	-66	-148	-15168	-1712	-5328	23	-56	-129	-1272	760	16976	155	-8	81	124	116	5
-11312	-3076	10812	-141	158	-150	-15656	1596	-5364	79	-56	65	-2640	-5268	15656	-16	-137	182	-10496	2028	12948	79	-9	-190	-15196	-1716	-5408	32	-43	-38	-1256	764	17004	154	-1	79	124	116	5
-11384	-3072	10812	-87	153	-181	-15656	1588	-5404	85	-78	91	-2716	-5260	15788	3	-125	155	-10564	2112	12884	116	-70	-166	-15244	-1700	-5472	24	-51	-87	-1232	700	17028	174	-3	38	124	116	5
-11372	-3048	10804	-112	143	-149	-15688	1556	-5348	72	-21	135	-2732	-5300	15724	-19	-138	170	-10512	2032	12932	100	-41	-174	-15276	-1728	-5484	9	-29	-49	-1248	736	17008	185	12	6	124	117	5
-11348	-3112	10768	-142	157	-141	-15636	1580	-5484	79	-7	137	-2740	-5304	15644	-20	-137	142	-10560	2040	12956	145	-36	-156	-15256	-1756	-5432	-4	-54	-9	-1240	732	17032	194	4	-14	124	116	5
-11332	-3060	10808	-99	127	-187	-15640	1560	-5492	55	6	124	-2744	-5272	15648	-6	-143	130	-10472	2052	12952	115	4	-173	-15204	-1700	-5424	-12	-57	-59	-1276	720	17032	164	-37	-5	124	117	5
-11324	-3096	10880	-106	134	-173	-15612	1564	-5524	70	3	117	-2732	-5236	15628	-17	-118	162	-10612	2056	13108	105	5	-167	-15208	-1748	-5376	4	-38	-59	-1224	748	16960	162	-14	-5	125	117	5
-11376	-3080	10744	-133	137	-166	-15660	1552	-5404	69	28	149	-2748	-5256	15600	-38	-139	152	-10528	2024	13012	111	-53	-148	-15220	-1696	-5372	30	3	-64	-1220	764	17064	128	-4	23	124	116	5
-11340	-3136	10760	-81	141	-150	-15664	1544	-5552	77	-15	122	-2704	-5276	15664	-16	-144	177	-10616	2080	12952	111	-33	-147	-15240	-1668	-5460	-26	-57	-46	-1224	716	17104	169	-23	33	124	117	5
-11360	-3072	10768	-117	143	-157	-15632	1532	-5404	69	16	142	-2740	-5352	15644	-10	-138	181	-10504	2024	13020	97	2	-142	-15268	-1668	-5632	19	-58	-70	-1196	768	17196	177	-7	38	124	116	5
-11316	-3124	10756	-117	120	-146	-15680	1548	-5404	39	31	136	-2728	-5344	15692	40	-116	159	-10660	2004	13004	101	-23	-162	-15280	-1696	-5444	13	-65	-21	-1248	816	17040	196	-33	58	124	116	5
-11392	-3088	10804	-113	122	-135	-15648	1524	-5492	77	-23	180	-2676	-5324	15564	42	-111	121	-10588	2012	12892	96	-30	-152	-15208	-1680	-5412	4	-38	-24	-1280	744	17084	153	-11	28	124	116	5
-11340	-3108	10756	-85	124	-140	-15632	1588	-5476	63	25	182	-2768	-5272	15716	40	-91	135	-10512	2020	12988	113	-80	-136	-15248	-1652	-5448	10	-65	-69	-1244	744	17052	192	-22	50	124	116	5
-11372	-3124	10808	-86	155	-176	-15692	1592	-5508	59	-33	172	-2756	-5300	15636	22	-109	134	-10524	1996	13004	120	-49	-132	-15240	-1644	-5388	12	-47	-64	-1220	812	17008	195	-33	64	124	116	5
-11408	-3104	10752	-80	129	-130	-15732	1556	-5472	38	-25	173	-2724	-5344	15696	96	-92	135	-10540	2048	12888	137	-29	-161	-15200	-1688	-5436	-3	-61	-46	-1204	748	17020	153	-35	72	124	116	5
-11328	-3096	10768	-95	139	-140	-15660	1588	-5480	16	-52	175	-2828	-5268	15636	46	-128	146	-10500	2100	12920	84	23	-145	-15184	-1748	-5516	-1	-62	-41	-1284	708	17036	193	-18	53	124	116	5
-11408	-3056	10736	-90	137	-127	-15584	1628	-5572	35	-52	139	-2804	-5204	15684	59	-132	175	-10560	2044	12968	109	-44	-133	-15252	-1676	-5432	15	-51	-37	-1304	708	16940	216	-50	72	124	117	5
-11372	-3060	10784	-70	117	-171	-15624	1604	-5372	33	-72	176	-2800	-5196	15684	66	-111	181	-10560	2068	12948	100	-6	-162	-15236	-1688	-5528	-55	-68	-94	-1208	744	16908	234	-27	90	124	117	5
-11400	-3096	10816	-139	141	-188	-15616	1640	-5516	-8	-72	77	-2752	-5180	15608	44	-136	181	-10512	2036	12864	118	-15	-159	-15232	-1640	-5468	-13	-59	-82	-1244	848	17080	246	-3	122	124	117	5
-11340	-3064	10836	-91	122	-203	-15600	1620	-5416	1	-87	109	-2712	-5152	15604	11	-151	225	-10564	1996	12948	122	-9	-138	-15196	-1644	-5388	-10	-51	-86	-1204	872	17140	218	-14	98	125	117	5
-11384	-3136	10804	-136	119	-133	-15616	1596	-5424	49	-60	79	-2704	-5204	15632	26	-153	225	-10492	2044	12816	126	-21	-168	-15196	-1616	-5412	-19	-47	-90	-1224	784	17092	201	4	67	125	117	5
-11284	-3108	10892	-147	128	-192	-15656	1616	-5392	40	-64	116	-2664	-5212	15752	-27	-163	222	-10572	1988	12848	115	1	-145	-15208	-1680	-5364	10	19	-109	-1248	788	17024	173	-17	50	125	117	5
-11316	-3128	10788	-106	160	-176	-15680	1540	-5268	66	18	143	-2600	-5256	15712	-28	-123	200	-10540	2128	12956	137	-89	-169	-15296	-1628	-5416	28	-30	-77	-1188	828	17124	161	11	46	125	117	5
-11376	-3124	10784	-107	169	-145	-15660	1504	-5340	69	-1	102	-2676	-5220	15684	-35	-110	170	-10584	1996	12912	100	-34	-173	-15208	-1616	-5500	8	-6	-112	-1172	836	17024	108	-2	76	125	116	5
-11344	-3140	10884	-119	156	-166	-15644	1572	-5512	20	66	157	-2656	-5328	15708	-33	-136	155	-10576	2060	12916	100	-29	-162	-15200	-1672	-5484	33	-49	-87	-1260	796	17120	133	-27	43	125	117	5
-11308	-3024	10800	-103	151	-161	-15664	1568	-5404	72	28	178	-2700	-5340	15692	-68	-122	130	-10572	2064	13056	85	-27	-179	-15204	-1604	-5508	54	-48	-131	-1276	816	17056	139	18	23	125	117	5
-11344	-3084	10856	-99	132	-169	-15712	1504	-5440	68	42	186	-2756	-5288	15560	-9	-89	89	-10580	2016	12992	109	-35	-162	-15244	-1708	-5564	32	-25	-127	-1276	796	17044	88	-32	29	125	117	5
-11308	-3144	10780	-96	114	-135	-15648	1556	-5404	83	41	224	-2756	-5316	15696	-9	-109	130	-10540	2008	12932	97	-54	-170	-15212	-1672	-5460	16	-24	-60	-1236	764	17076	136	-7	43	125	116	5
-11332	-3080	10836	-78	122	-142	-15664	1600	-5532	69	5	235	-2760	-5232	15584	46	-95	104	-10560	2064	12856	87	-55	-143	-15168	-1768	-5488	15	-24	-81	-1224	700	17020	113	14	56	125	117	5
-11416	-3096	10792	-103	143	-159	-15660	1620	-5436	71	66	185	-2716	-5328	15756	39	-113	132	-10620	2020	12996	57	-53	-158	-15164	-1700	-5288	12	-33	-115	-1244	712	17144	141	-29	82	125	117	5
-11372	-3100	10928	-111	126	-147	-15588	1552	-5540	74	36	182	-2804	-5260	15676	61	-141	161	-10568	2044	12856	113	-1	-159	-15172	-1736	-5388	-28	-5	-92	-1348	704	17008	158	10	60	125	117	5
-11340	-3144	10844	-61	103	-174	-15628	1608	-5536	44	63	140	-2808	-5236	15564	59	-123	174	-10580	2000	13080	121	-40	-150	-15204	-1700	-5424	6	-31	-68	-1284	748	16996	214	-44	65	125	116	5
-11300	-3124	10796	-138	137	-185	-15592	1660	-5624	32	-14	175	-2884	-5240	15656	23	-114	172	-10540	2000	12812	117	7	-137	-15236	-1684	-5408	24	-25	-62	-1336	664	17076	218	-30	28	125	117	5
-11320	-3112	10820	-102	139	-164	-15640	1644	-5548	42	-21	131	-2788	-5228	15780	5	-128	190	-10620	2008	12960	96	0	-131	-15216	-1684	-5444	-6	-69	-38	-1320	784	17116	243	-56	65	125	117	5
-11360	-3112	10852	-119	135	-161	-15616	1616	-5472	28	-79	175	-2764	-5260	15628	3	-119	172	-10528	2056	12852	128	-21	-119	-15188	-1708	-5464	-17	-79	-49	-1280	764	17036	228	2	67	125	117	5
-11304	-3048	10772	-141	151	-153	-15632	1612	-5412	56	-44	95	-2732	-5192	15672	40	-115	180	-10528	2052	13012	111	-16	-153	-15252	-1648	-5372	-15	-55	-48	-1292	776	16972	217	-3	71	125	117	5
-11376	-3104	10764	-123	137	-147	-15616	1564	-5560	64	-71	144	-2736	-5308	15660	74	-123	175	-10568	2036	12908	104	-22	-140	-15244	-1708	-5372	-21	-100	-16	-1192	808	17060	166	4	81	125	117	5
-11320	-3096	10788	-116	178	-158	-15628	1512	-5384	44	-70	140	-2660	-5240	15608	50	-103	195	-10488	2056	12924	111	-41	-146	-15272	-1640	-5508	-15	-72	-91	-1216	800	17176	168	-6	39	125	117	5
-11424	-3112	10824	-121	135	-175	-15652	1584	-5536	58	-68	134	-2704	-5248	15676	53	-126	162	-10492	2092	13008	133	-51	-176	-15172	-1636	-5448	32	-86	-21	-1192	808	17004	178	-29	38	126	117	5
-11352	-3056	10748	-124	154	-169	-15636	1552	-5464	46	-50	117	-2696	-5232	15664	13	-96	137	-10536	2060	12952	97	-15	-131	-15220	-1624	-5464	-7	-83	-53	-1256	820	17024	197	-33	40	126	117	5
-11256	-3012	10836	-115	183	-172	-15716	1528	-5468	57	-45	136	-2720	-5212	15672	28	-83	146	-10524	2020	12944	107	19	-158	-15224	-1644	-5472	10	-65	-42	-1212	840	17080	142	4	54	126	117	5
-11336	-3092	10792	-81	144	-170	-15672	1616	-5388	27	-70	114	-2724	-5244	15612	19	-118	139	-10572	2024	12920	91	-23	-140	-15224	-1696	-5496	46	-67	-42	-1192	852	17060	134	10	62	126	117	5
-11296	-3092	10828	-80	127	-148	-15608	1552	-5348	43	-41	146	-2688	-5260	15640	-12	-106	155	-10560	2076	12860	104	-1	-159	-15240	-1652	-5456	11	-48	-54	-1212	764	17024	159	-30	74	126	117	5
-11332	-3036	11044	-95	118	-158	-15632	1648	-5500	60	3	146	-2716	-5268	15648	50	-108	174	-10600	2020	12944	96	-15	-153	-15272	-1668	-5256	5	-63	-95	-1192	788	17060	126	-10	85	126	117	5
-11364	-3076	10684	-125	137	-169	-15648	1596	-5532	58	9	133	-2708	-5332	15628	69	-109	197	-10552	2064	12900	81	-18	-189	-15188	-1624	-5396	15	-40	-98	-1192	736	17100	143	-2	53	126	117	5
-11300	-3116	10740	-118	142	-181	-15668	1604	-5436	79	-15	159	-2748	-5280	15520	25	-122	168	-10584	2032	12896	123	-64	-148	-15200	-1680	-5340	18	13	-70	-1232	708	16960	144	8	83	126	117	5
-11304	-3116	10804	-90	149	-147	-15644	1564	-5496	53	15	162	-2740	-5240	15700	57	-138	164	-10560	2096	12916	104	-41	-158	-15244	-1608	-5516	27	-8	-119	-1300	792	17060	187	1	55	126	117	5
-11356	-3120	10804	-66	126	-143	-15620	1568	-5472	54	1	158	-2792	-5304	15676	12	-144	156	-10548	2056	12964	87	-27	-164	-15272	-1668	-5424	20	-1	-87	-1252	704	16972	187	13	18	126	117	5
-11324	-3148	10852	-97	131	-160	-15620	1536	-5380	47	11	173	-2792	-5236	15688	20	-132	152	-10500	2040	12936	75	-61	-122	-15196	-1656	-5488	9	18	-51	-1304	760	16996	172	10	50	126	117	5
-11316	-3080	10896	-123	159	-180	-15576	1544	-5556	82	-31	169	-2752	-5272	15660	23	-140	140	-10580	2020	12872	76	-74	-135	-15200	-1724	-5576	-12	5	-83	-1248	724	17088	204	-21	19	126	117	5
-11388	-3084	10796	-92	136	-127	-15668	1604	-5428	77	32	135	-2728	-5348	15780	50	-121	139	-10564	2072	12868	125	-8	-151	-15232	-1692	-5420	-21	-32	-67	-1304	736	17100	187	1	65	126	117	5
-11360	-3080	10792	-79	139	-164	-15564	1648	-5520	57	-4	183	-2756	-5320	15644	40	-124	144	-10568	2040	12908	124	-10	-180	-15276	-1644	-5464	9	-78	-63	-1320	748	17132	167	2	35	126	117	5
-11392	-3008	10900	-99	139	-187	-15656	1592	-5416	60	32	190	-2784	-5300	15608	41	-118	138	-10528	2008	12908	104	-9	-150	-15236	-1624	-5456	-30	-40	-85	-1264	860	17072	145	-19	68	126	117	5
-11284	-3220	10776	-88	135	-137	-15640	1644	-5600	63	-31	186	-2720	-5280	15656	43	-116	178	-10544	2024	12912	119	-26	-139	-15240	-1712	-5352	26	-50	-37	-1228	732	17064	178	-28	72	126	117	5
-11336	-3104	10808	-90	127	-155	-15636	1676	-5456	69	-7	176	-2752	-5240	15596	68	-111	188	-10576	2060	12992	110	-31	-154	-15240	-1644	-5380	-18	-52	-50	-1216	764	17052	180	-11	89	126	117	5
-11320	-3116	10936	-142	113	-127	-15664	1596	-5484	35	-7	179	-2776	-5228	15768	49	-90	156	-10572	2032	12908	129	-3	-119	-15300	-1644	-5376	-7	-49	-107	-1220	832	17160	172	-16	50	126	117	5
-11388	-3080	10756	-136	146	-164	-15628	1596	-5460	40	-18	160	-2748	-5248	15656	63	-124	129	-10584	2032	12948	116	-8	-149	-15264	-1676	-5520	9	-51	-73	-1200	800	17036	162	22	56	126	117	5
-11348	-3080	10792	-101	147	-137	-15604	1644	-5456	35	-31	156	-2732	-5224	15644	30	-105	166	-10616	2064	12912	113	-42	-159	-15200	-1580	-5436	12	-26	-101	-1252	752	17136	164	35	58	126	117	5
-11356	-3140	10828	-108	139	-173	-15672	1620	-5512	48	-28	130	-2792	-5228	15632	65	-109	140	-10560	2052	12948	111	-17	-150	-15180	-1712	-5436	27	-61	-78	-1168	812	17060	120	-1	35	126	117	5
-11356	-3092	10848	-94	135	-176	-15652	1664	-5384	54	-16	169	-2724	-5184	15640	76	-126	167	-10464	2048	12972	96	-30	-141	-15216	-1644	-5468	-13	-12	-83	-1216	756	16992	170	-39	61	125	117	5
-11380	-3124	10800	-120	138	-175	-15636	1620	-5524	7	-22	188	-2788	-5252	15728	45	-112	182	-10564	2060	12884	107	-20	-146	-15224	-1740	-5500	21	-49	-91	-1260	816	16988	174	-30	79	126	117	5
-11392	-3128	10828	-94	136	-174	-15628	1628	-5596	64	5	121	-2732	-5196	15660	19	-119	182	-10560	2104	12980	118	-34	-167	-15212	-1692	-5440	23	0	-39	-1200	744	17160	219	-35	63	126	117	5
-11360	-3092	10804	-98	180	-190	-15620	1604	-5420	59	25	171	-2744	-5232	15704	29	-128	161	-10536	2048	12948	150	-23	-157	-15224	-1648	-5400	31	-33	-57	-1208	764	17060	205	-34	65	125	117	5
-11352	-3112	10800	-92	169	-148	-15592	1572	-5436	77	-26	145	-2688	-5260	15732	25	-138	168	-10576	2084	13000	96	-6	-167	-15224	-1648	-5488	-10	-45	-65	-1188	792	17112	197	13	60	125	117	5
-11316	-3040	10896	-81	124	-166	-15588	1624	-5532	69	-23	155	-2712	-5272	15692	29	-96	185	-10548	2048	12912	100	-74	-152	-15220	-1672	-5448	-28	-35	-78	-1280	764	16936	171	-10	50	125	117	5
-11412	-3144	10804	-115	134	-165	-15624	1632	-5428	17	-63	125	-2720	-5312	15632	63	-94	173	-10608	2072	12956	88	-16	-176	-15228	-1692	-5500	-25	-38	-66	-1296	780	17056	182	16	55	125	117	5
-11356	-3092	10828	-111	153	-163	-15624	1520	-5428	39	13	165	-2816	-5308	15728	63	-108	186	-10508	2056	12972	110	-30	-130	-15252	-1612	-5340	-3	-48	-68	-1260	820	16964	199	16	35	125	117	5
-11384	-3032	10832	-127	138	-151	-15648	1596	-5424	59	-26	172	-2716	-5284	15692	19	-105	146	-10492	2076	12844	109	-48	-138	-15160	-1688	-5436	-38	-15	-37	-1240	788	17032	218	-26	61	125	117	5
-11312	-3064	10696	-85	118	-141	-15612	1612	-5404	58	35	167	-2752	-5316	15672	41	-118	158	-10576	2028	12888	128	-29	-161	-15224	-1680	-5444	5	-34	-62	-1216	864	17024	219	7	37	125	117	5
-11300	-3052	10880	-78	143	-115	-15624	1640	-5496	63	-32	188	-2724	-5196	15724	44	-106	139	-10616	2076	13072	99	12	-180	-15112	-1676	-5484	-5	-40	-54	-1176	800	17028	192	3	15	125	117	5
-11320	-3060	10832	-92	139	-149	-15656	1672	-5336	66	-29	179	-2656	-5224	15676	72	-147	177	-10580	2048	12888	66	13	-151	-15228	-1632	-5420	-8	-14	-98	-1240	820	17092	141	-28	28	125	116	5
-11328	-3116	10804	-110	132	-151	-15632	1592	-5472	88	63	192	-2660	-5252	15680	30	-115	185	-10500	2016	13004	90	-17	-163	-15284	-1672	-5452	-50	0	-92	-1236	732	17064	175	-8	24	125	117	5
-11328	-3028	10896	-93	181	-135	-15652	1604	-5408	130	52	127	-2720	-5264	15704	42	-104	174	-10536	2044	12996	124	-12	-100	-15200	-1716	-5488	-49	-38	-104	-1240	836	16980	178	-29	14	125	117	5
-11304	-3048	10820	-81	125	-148	-15600	1604	-5400	91	-1	176	-2788	-5172	15728	43	-123	174	-10592	2032	13036	92	16	-147	-15224	-1628	-5376	-35	-22	-82	-1324	764	17008	186	-1	13	125	116	5
-11300	-3044	10828	-105	120	-157	-15612	1608	-5552	66	15	172	-2772	-5220	15640	48	-81	159	-10628	2060	12984	106	-65	-140	-15220	-1624	-5528	-3	-36	-73	-1292	836	17104	178	4	52	125	116	5
-11384	-3128	10768	-78	117	-140	-15628	1648	-5480	57	5	160	-2772	-5196	15668	-13	-129	145	-10568	2048	12880	123	-39	-131	-15220	-1628	-5544	37	-49	-68	-1240	808	17028	167	-15	51	125	117	5
-11296	-3036	10836	-109	117	-157	-15644	1684	-5444	46	-34	108	-2780	-5264	15688	9	-101	153	-10552	2084	12884	114	-13	-163	-15224	-1656	-5556	33	-48	-79	-1284	856	17024	162	-8	91	124	117	5
-11340	-3032	10852	-119	142	-170	-15652	1600	-5488	39	-25	116	-2760	-5248	15580	34	-110	154	-10596	2000	12928	127	-65	-141	-15220	-1636	-5460	35	-60	-73	-1264	776	16968	169	-7	80	124	116	5
-11352	-3032	10760	-114	154	-144	-15656	1576	-5456	48	-30	104	-2732	-5252	15656	16	-117	187	-10516	2060	12964	105	-53	-146	-15216	-1680	-5484	48	-77	-68	-1272	728	17068	130	-38	101	124	116	5
-11308	-3064	10748	-117	124	-168	-15588	1604	-5456	71	-47	162	-2720	-5260	15700	78	-92	153	-10516	1980	12896	129	-23	-159	-15212	-1728	-5416	17	-68	-103	-1236	724	17084	144	12	101	124	116	5
-11292	-3132	10888	-122	138	-160	-15632	1628	-5416	41	-33	117	-2724	-5276	15748	58	-114	198	-10520	2060	13044	79	-16	-154	-15228	-1624	-5420	51	-45	-35	-1224	740	17060	143	-33	68	124	116	5
-11360	-3064	10792	-92	99	-162	-15604	1548	-5456	65	-53	164	-2756	-5224	15616	35	-98	173	-10508	1976	13012	107	-47	-158	-15256	-1684	-5492	30	-66	-42	-1268	784	17036	189	-23	49	124	116	5
-11348	-3072	10764	-103	126	-165	-15636	1616	-5456	49	-13	134	-2672	-5248	15660	29	-97	138	-10592	2096	12912	136	-36	-178	-15204	-1652	-5404	-5	-68	-63	-1268	788	16996	207	-22	69	124	116	5
-11344	-3068	10824	-94	130	-200	-15584	1584	-5488	60	-21	132	-2744	-5228	15588	49	-118	173	-10580	2100	12872	119	-49	-158	-15236	-1668	-5444	-32	-91	-49	-1272	804	17076	195	-27	24	124	116	5
-11356	-3076	10904	-110	124	-183	-15648	1568	-5492	65	-25	149	-2684	-5268	15652	33	-102	168	-10528	2068	12956	101	-33	-124	-15228	-1656	-5440	-9	-58	-64	-1204	792	17048	195	-20	61	124	116	5
-11276	-3140	10924	-108	121	-148	-15636	1612	-5532	41	-36	143	-2744	-5196	15588	42	-112	180	-10532	2024	12852	133	-49	-155	-15160	-1620	-5472	-26	-32	-69	-1224	792	17004	192	-47	36	124	116	5
-11280	-3096	10876	-98	156	-153	-15724	1588	-5456	66	-51	158	-2688	-5240	15620	52	-87	133	-10624	2064	13016	75	-31	-184	-15140	-1692	-5464	4	-50	-61	-1176	752	17024	198	-1	43	124	116	5
-11304	-3120	10772	-91	126	-152	-15672	1596	-5388	72	-28	167	-2712	-5260	15632	59	-108	141	-10516	2128	12912	110	-5	-138	-15212	-1592	-5472	4	-19	-81	-1156	780	17100	226	15	63	124	116	5
-11304	-3112	10884	-91	113	-126	-15688	1560	-5528	73	-18	167	-2728	-5220	15592	62	-122	175	-10540	2076	12992	73	-29	-131	-15232	-1656	-5420	-2	-30	-59	-1232	820	17012	193	-12	40	124	116	5
-11320	-3116	10796	-87	115	-152	-15600	1588	-5496	63	-19	160	-2700	-5224	15600	46	-108	170	-10564	2048	12912	119	-35	-138	-15192	-1612	-5424	34	-45	-76	-1252	832	17036	187	13	49	124	116	5
-11304	-3084	10868	-94	135	-144	-15580	1584	-5424	58	-32	159	-2788	-5176	15652	13	-142	150	-10528	2040	12932	98	-44	-133	-15216	-1656	-5488	0	-7	-88	-1244	824	17032	198	-30	38	124	116	5
-11364	-3136	10876	-114	153	-123	-15648	1608	-5420	40	8	152	-2764	-5224	15628	-7	-127	104	-10568	2044	12940	100	-25	-147	-15216	-1580	-5432	17	-34	-76	-1216	796	17092	148	-48	74	124	116	5
-11288	-3088	10940	-118	109	-144	-15624	1596	-5384	53	-17	127	-2780	-5236	15560	30	-128	127	-10628	2040	12884	114	-24	-151	-15272	-1660	-5528	20	-25	-91	-1232	848	17020	159	-3	39	124	116	5
-11372	-3036	10860	-92	152	-163	-15688	1632	-5424	79	30	144	-2796	-5232	15556	26	-124	159	-10560	1984	12948	98	-5	-146	-15212	-1644	-5480	24	-29	-71	-1260	840	17184	153	-17	34	124	116	5
-11332	-3132	10760	-137	156	-129	-15640	1592	-5504	39	-39	167	-2792	-5232	15632	15	-127	156	-10572	2036	12952	122	-21	-148	-15192	-1656	-5476	15	-41	-100	-1220	844	17076	170	15	36	124	116	5
-11380	-3084	10684	-87	161	-178	-15628	1648	-5560	58	-28	130	-2832	-5260	15648	58	-138	186	-10532	2068	13020	71	-54	-170	-15204	-1716	-5340	23	-53	-84	-1272	756	17016	169	4	76	124	116	5
-11308	-3092	10732	-95	157	-165	-15680	1612	-5504	43	-20	147	-2828	-5260	15736	45	-110	164	-10508	2092	12988	71	-25	-130	-15224	-1660	-5444	22	-70	-73	-1152	816	17112	196	-49	47	124	116	5
-11320	-3012	10740	-113	143	-185	-15632	1628	-5392	63	2	145	-2696	-5216	15628	11	-137	179	-10580	2040	12852	132	-69	-143	-15180	-1704	-5408	-4	-72	-50	-1208	756	16968	181	-18	82	124	116	5
-11392	-3068	10944	-105	102	-168	-15648	1580	-5516	20	-29	144	-2676	-5212	15756	-14	-105	166	-10580	2028	12964	117	-16	-166	-15172	-1644	-5500	7	-38	-83	-1216	768	16988	166	-1	47	124	116	5
-11344	-3116	10852	-112	146	-171	-15640	1608	-5360	56	-61	134	-2708	-5228	15716	16	-128	183	-10540	2112	12980	94	-32	-154	-15196	-1720	-5404	-24	-25	-79	-1136	772	17064	164	24	39	124	116	5
-11344	-3060	10708	-115	159	-159	-15572	1532	-5408	55	-25	156	-2716	-5272	15668	34	-126	184	-10588	2048	12924	121	-70	-150	-15244	-1712	-5468	-21	-74	-94	-1168	808	17056	167	-6	56	123	116	5
-11356	-3072	10772	-110	123	-160	-15628	1556	-5492	53	17	157	-2736	-5256	15728	43	-96	159	-10552	2040	12980	111	-8	-161	-15236	-1612	-5448	-3	-30	-61	-1260	728	16992	189	7	85	124	116	5
-11316	-3100	10812	-88	155	-186	-15620	1584	-5472	69	-16	144	-2676	-5232	15752	12	-136	172	-10524	2072	12900	121	-15	-155	-15200	-1660	-5468	-17	-9	-57	-1212	804	16920	210	-16	71	124	116	5
-11352	-3104	10816	-81	133	-144	-15680	1572	-5600	78	-40	150	-2728	-5212	15676	39	-114	155	-10492	2076	12896	103	-72	-180	-15228	-1728	-5544	-13	-18	-85	-1188	856	17108	205	-19	58	124	116	5
-11340	-3068	10800	-126	146	-152	-15580	1604	-5480	68	6	143	-2732	-5224	15588	38	-98	150	-10568	2028	13008	152	-62	-163	-15240	-1644	-5484	-6	-8	-110	-1284	856	17104	174	12	70	124	116	5
-11404	-3132	10724	-98	132	-133	-15620	1564	-5464	63	17	147	-2760	-5184	15592	14	-132	150	-10572	2024	12916	122	-48	-155	-15224	-1660	-5496	-29	-30	-92	-1256	832	17156	149	-8	63	124	116	5
-11356	-3088	10836	-88	93	-149	-15596	1624	-5496	88	-5	137	-2804	-5268	15640	40	-135	186	-10536	2080	12972	110	0	-168	-15296	-1620	-5492	3	-34	-78	-1248	796	17032	134	10	68	124	116	5
-11336	-3096	10760	-77	129	-114	-15632	1588	-5456	63	-49	163	-2808	-5204	15664	17	-119	171	-10600	2004	12908	98	-13	-140	-15220	-1636	-5356	4	-34	-77	-1288	804	17180	166	-54	89	124	116	5
-11320	-3112	10856	-105	119	-160	-15672	1652	-5432	57	-22	159	-2848	-5212	15676	56	-125	150	-10596	2088	12896	95	-15	-162	-15252	-1648	-5440	11	-81	-97	-1288	776	17056	190	14	47	124	116	5
-11392	-3064	10720	-126	132	-138	-15652	1652	-5564	54	-65	156	-2788	-5228	15668	50	-135	139	-10580	2048	12904	65	-9	-156	-15144	-1684	-5316	23	-56	-74	-1288	872	17100	196	-53	59	124	116	5
-11388	-3092	10792	-77	129	-153	-15632	1564	-5488	25	-4	124	-2768	-5160	15628	11	-145	154	-10572	1992	13000	99	20	-149	-15172	-1632	-5448	25	-58	-60	-1252	820	16948	178	-26	75	124	116	5
-11304	-3028	10860	-140	155	-163	-15680	1612	-5480	43	-32	108	-2784	-5204	15820	9	-131	168	-10536	2000	12924	74	-17	-131	-15216	-1660	-5608	3	-101	-72	-1260	884	17060	171	-31	105	123	116	5
-11384	-3068	10852	-134	140	-152	-15596	1636	-5472	48	-82	110	-2744	-5236	15596	-28	-124	166	-10512	2024	12864	117	-59	-121	-15236	-1584	-5424	-22	-93	-69	-1252	800	16988	138	-22	87	123	116	5
-11324	-3100	10864	-148	104	-147	-15656	1556	-5388	57	-77	93	-2728	-5252	15800	-1	-137	163	-10540	2032	12928	117	-77	-159	-15232	-1628	-5332	-5	-90	-86	-1216	852	17020	170	11	91	123	116	5
-11360	-3116	10760	-114	156	-188	-15676	1616	-5360	95	-33	100	-2692	-5240	15676	8	-129	168	-10492	2056	12948	114	-28	-174	-15228	-1668	-5296	-28	-59	-97	-1116	784	17156	158	7	91	123	116	5
-11296	-3076	10824	-131	118	-185	-15648	1624	-5484	93	24	118	-2672	-5196	15576	23	-131	160	-10496	2112	13020	88	10	-196	-15212	-1652	-5368	-35	-54	-88	-1188	840	17004	136	-2	50	123	116	5
-11344	-3084	10796	-80	135	-124	-15696	1616	-5436	97	-26	153	-2632	-5296	15632	11	-129	179	-10488	2096	13008	123	-29	-155	-15196	-1672	-5372	-33	-35	-135	-1148	800	17032	139	-5	37	123	116	5
-11300	-3064	10788	-113	124	-172	-15636	1536	-5484	92	26	115	-2668	-5248	15648	-16	-147	157	-10552	2084	12972	75	-5	-175	-15244	-1552	-5376	-10	7	-144	-1204	808	17076	142	-20	77	123	116	5
-11340	-3068	10768	-70	149	-122	-15672	1624	-5332	101	39	121	-2752	-5240	15620	-40	-113	153	-10592	2096	12868	109	-8	-142	-15208	-1652	-5536	-22	-41	-114	-1188	788	17048	158	3	37	124	116	5
-11384	-3076	10808	-110	128	-149	-15652	1616	-5528	50	29	102	-2812	-5240	15632	-45	-142	169	-10476	2004	13024	109	-59	-165	-15172	-1652	-5368	26	11	-72	-1240	780	16992	140	-18	44	123	116	5
-11360	-3060	10708	-131	132	-148	-15652	1588	-5468	36	54	132	-2768	-5268	15616	-32	-133	184	-10544	2092	13004	86	-31	-151	-15180	-1648	-5496	34	-31	-111	-1288	768	17048	148	-21	64	123	116	5
-11328	-3044	10848	-135	134	-159	-15648	1572	-5400	42	-16	101	-2804	-5212	15740	9	-141	168	-10564	2004	12848	99	1	-147	-15268	-1652	-5452	38	-42	-56	-1292	784	17040	147	11	78	123	116	5
-11396	-3068	10760	-157	126	-177	-15708	1588	-5556	49	-50	147	-2776	-5272	15624	49	-104	160	-10648	2032	12984	130	-34	-147	-15176	-1688	-5592	2	-37	-99	-1272	804	16988	135	-6	72	123	116	5
-11356	-3044	10832	-125	140	-170	-15652	1624	-5476	40	-16	145	-2776	-5272	15608	56	-110	155	-10588	2060	12912	131	-32	-146	-15232	-1640	-5536	25	-85	-107	-1312	828	17028	136	1	120	124	116	5
-11348	-3040	10840	-96	174	-178	-15620	1608	-5456	72	-66	103	-2764	-5260	15668	33	-132	197	-10508	2048	12852	109	-39	-138	-15160	-1688	-5628	-16	-113	-118	-1272	836	17076	145	-42	67	124	116	5
-11340	-3080	10816	-121	125	-162	-15636	1584	-5544	40	-61	95	-2732	-5228	15700	7	-84	137	-10608	2044	12960	104	-47	-152	-15216	-1672	-5436	26	-79	-91	-1248	780	16972	149	-37	64	123	116	5
-11340	-3076	10784	-94	161	-166	-15580	1600	-5432	68	-64	108	-2748	-5244	15672	-8	-101	176	-10560	2060	12968	133	-48	-138	-15276	-1664	-5328	-12	-99	-76	-1252	756	16868	149	6	50	124	116	5
-11348	-3116	10824	-118	136	-176	-15600	1628	-5516	49	-49	108	-2688	-5232	15676	-11	-117	159	-10584	2068	13008	98	10	-150	-15200	-1676	-5440	8	-93	-99	-1172	772	16832	149	28	58	124	116	5
-11292	-3084	10872	-93	130	-173	-15612	1616	-5380	24	-53	110	-2684	-5244	15636	-3	-124	159	-10584	2028	13004	107	-55	-150	-15224	-1636	-5484	46	-32	-106	-1216	820	17028	128	-4	73	124	116	5
-11376	-3096	10848	-120	158	-165	-15712	1548	-5408	65	-26	145	-2724	-5312	15644	-10	-121	177	-10564	2104	12952	116	-64	-143	-15212	-1628	-5412	6	-65	-78	-1188	748	16964	131	-5	23	124	116	5
-11304	-3040	10756	-154	155	-170	-15692	1580	-5384	77	-4	116	-2720	-5240	15640	9	-134	191	-10540	2008	12952	102	-57	-162	-15200	-1672	-5400	-4	-45	-113	-1264	816	16952	130	-42	47	124	116	5
-11344	-3136	10796	-123	137	-187	-15640	1512	-5388	99	-56	117	-2728	-5276	15644	-7	-145	208	-10500	2036	12916	122	-47	-143	-15220	-1600	-5548	-8	-47	-74	-1248	820	17072	169	15	75	124	116	5
-11332	-3120	10848	-82	142	-163	-15696	1592	-5348	89	-58	158	-2708	-5288	15604	-9	-129	210	-10572	2040	12848	90	10	-150	-15204	-1636	-5448	-22	-29	-92	-1216	780	17192	165	-19	73	124	116	5
-11384	-3060	10836	-69	143	-151	-15588	1584	-5488	70	4	137	-2736	-5244	15664	5	-104	185	-10552	2016	12928	98	-1	-169	-15176	-1704	-5460	-20	7	-79	-1216	780	17188	169	-22	35	124	116	5
-11372	-3112	10836	-94	154	-164	-15684	1552	-5432	76	8	136	-2792	-5272	15676	2	-103	226	-10548	2020	12952	89	-53	-149	-15256	-1668	-5316	-7	-43	-71	-1236	768	17072	155	39	7	124	116	5
-11324	-3100	10820	-97	150	-151	-15660	1588	-5520	75	-27	145	-2752	-5288	15648	33	-135	195	-10496	2080	12976	105	-64	-150	-15196	-1684	-5440	-16	-39	-102	-1268	796	17080	177	-4	42	124	116	5
-11356	-3096	10684	-90	130	-151	-15680	1600	-5368	41	-26	132	-2796	-5260	15792	31	-111	182	-10528	1996	12968	98	17	-152	-15184	-1648	-5468	-3	-52	-73	-1288	800	17032	193	-19	36	123	116	5
-11376	-3108	10796	-101	132	-153	-15624	1552	-5536	22	1	157	-2832	-5232	15660	22	-89	173	-10508	2060	12984	92	-31	-156	-15228	-1640	-5500	-39	-51	-44	-1356	840	16992	195	-20	64	123	116	5
-11336	-3120	10796	-129	125	-130	-15632	1604	-5488	55	-23	148	-2784	-5256	15608	53	-114	193	-10492	2052	12904	111	-32	-134	-15220	-1636	-5460	-37	-8	-78	-1312	828	17028	196	-23	89	123	116	5
-11352	-3096	10836	-68	124	-165	-15604	1580	-5540	41	-44	128	-2720	-5284	15704	58	-132	156	-10596	2044	12832	114	11	-164	-15188	-1740	-5424	-4	-52	-83	-1240	836	16996	234	-30	36	123	116	5
-11412	-3088	10864	-92	168	-159	-15624	1584	-5400	45	-52	171	-2788	-5216	15660	32	-93	143	-10540	2024	13000	142	-33	-177	-15188	-1636	-5380	5	-49	-82	-1212	848	16964	167	-19	55	123	116	5
-11340	-3096	10772	-141	146	-161	-15644	1628	-5456	28	-32	147	-2728	-5204	15668	22	-118	161	-10576	2016	12884	108	-32	-144	-15248	-1660	-5344	38	-89	-51	-1248	868	16952	165	-33	55	123	116	5
-11360	-3096	10664	-98	120	-196	-15636	1604	-5444	14	-47	138	-2744	-5188	15832	50	-112	182	-10564	2016	12888	133	-22	-153	-15244	-1656	-5488	-2	-25	-37	-1276	820	17008	159	-31	64	123	116	5
-11344	-3092	10904	-102	133	-152	-15684	1652	-5332	44	-27	125	-2752	-5212	15652	18	-117	186	-10592	2068	12968	111	-43	-148	-15196	-1640	-5456	9	-59	-49	-1284	808	17012	142	18	63	123	116	5
-11316	-3116	10832	-98	159	-150	-15604	1592	-5492	46	-57	87	-2684	-5212	15728	-13	-128	166	-10508	2008	12924	112	-68	-129	-15256	-1684	-5400	-42	-85	-73	-1284	776	17088	179	-13	85	123	116	5
-11324	-3068	10832	-107	145	-150	-15672	1600	-5356	62	-25	133	-2712	-5244	15644	-2	-116	169	-10568	2092	12868	105	-57	-137	-15232	-1608	-5416	12	-92	-81	-1248	756	16996	188	-15	77	123	116	5
-11332	-3096	10800	-96	142	-191	-15660	1584	-5400	57	-29	92	-2780	-5276	15596	6	-130	205	-10548	2060	12920	129	5	-142	-15228	-1588	-5484	0	-31	-99	-1248	800	17100	178	-49	85	123	116	5
-11348	-3156	10844	-82	129	-159	-15620	1608	-5468	60	-29	137	-2704	-5300	15584	16	-134	190	-10516	2032	12992	96	-45	-156	-15244	-1704	-5424	10	-53	-90	-1200	844	16940	185	-22	65	123	116	5
-11328	-3140	10792	-94	120	-172	-15688	1588	-5304	95	23	122	-2748	-5304	15740	8	-115	203	-10552	1980	12944	95	-27	-156	-15184	-1664	-5512	0	-60	-129	-1292	792	17160	148	33	72	123	116	5
-11372	-3140	10844	-106	125	-137	-15624	1564	-5364	68	-33	133	-2760	-5292	15572	23	-92	172	-10588	2040	12988	110	-67	-139	-15188	-1676	-5472	-11	-34	-121	-1296	732	16992	111	-5	76	123	116	5
-11368	-3132	10740	-101	104	-173	-15640	1612	-5536	47	8	164	-2716	-5248	15604	24	-112	175	-10588	2020	12936	111	-31	-137	-15204	-1672	-5392	1	-53	-62	-1332	740	17088	152	-16	78	123	116	5
-11332	-3096	10776	-92	106	-169	-15732	1560	-5480	59	6	153	-2768	-5304	15636	6	-102	139	-10572	1944	12848	90	-10	-177	-15172	-1660	-5388	-5	-27	-78	-1316	760	17180	202	-55	66	123	116	5
-11344	-3088	10772	-115	130	-159	-15652	1612	-5512	62	-27	155	-2736	-5340	15624	24	-115	148	-10540	2068	12940	102	-38	-153	-15180	-1716	-5408	14	-37	-51	-1256	744	17056	179	-33	70	123	115	5
-11344	-3148	10736	-119	122	-138	-15616	1584	-5440	59	-9	167	-2776	-5368	15716	89	-110	169	-10536	2024	13032	107	-27	-120	-15212	-1660	-5520	24	-42	-65	-1204	756	17016	203	-18	19	123	116	5
-11316	-3096	10732	-98	145	-164	-15624	1584	-5540	37	-13	179	-2724	-5220	15632	91	-138	129	-10560	2028	12952	113	-24	-147	-15260	-1660	-5328	-8	-55	-32	-1236	756	17084	202	10	44	123	116	5
-11352	-3104	10824	-137	142	-156	-15672	1664	-5464	62	-6	179	-2784	-5192	15640	39	-109	178	-10580	2108	12932	104	-28	-184	-15224	-1700	-5492	-29	-72	-13	-1260	804	17008	178	-34	30	123	116	5
-11332	-3092	10860	-112	111	-157	-15628	1608	-5628	82	-22	174	-2824	-5216	15684	57	-111	133	-10556	2052	12948	106	2	-156	-15224	-1624	-5432	-14	-47	-64	-1216	796	17116	234	-7	22	123	116	5
-11368	-3092	10896	-81	149	-160	-15612	1664	-5484	48	-3	181	-2776	-5264	15604	59	-133	168	-10600	2108	13012	120	-17	-154	-15224	-1720	-5368	-48	-16	-68	-1248	804	16936	214	-25	63	123	116	5
-11368	-3072	10776	-128	122	-147	-15628	1580	-5484	56	7	166	-2756	-5244	15704	58	-109	181	-10500	2136	13008	80	-26	-151	-15180	-1628	-5492	17	-30	-51	-1232	804	16980	232	-28	81	123	116	5
-11352	-3140	10772	-98	140	-152	-15612	1632	-5516	72	-19	154	-2692	-5256	15692	74	-99	179	-10540	2060	12920	78	-27	-165	-15252	-1580	-5388	1	-71	-85	-1204	808	17052	196	-26	49	123	116	5
-11280	-3092	10820	-124	130	-173	-15608	1652	-5476	52	-11	169	-2764	-5204	15604	54	-144	152	-10564	2020	12936	64	-16	-146	-15176	-1632	-5460	0	-74	-45	-1268	784	17084	207	-45	55	123	116	5
-11336	-3048	10792	-90	101	-206	-15648	1636	-5520	67	-10	157	-2768	-5176	15592	18	-141	149	-10532	2072	12948	116	-74	-164	-15232	-1656	-5472	26	-62	-102	-1264	808	17020	211	7	98	123	116	5
-11364	-3076	10788	-135	120	-163	-15676	1572	-5432	63	-3	130	-2688	-5232	15720	23	-117	144	-10516	2008	12984	103	0	-164	-15216	-1628	-5448	40	-25	-72	-1304	828	17124	198	-13	89	123	116	5
-11300	-3136	10776	-101	179	-180	-15604	1616	-5452	43	4	135	-2740	-5240	15708	11	-117	172	-10600	2008	12876	122	-25	-148	-15184	-1704	-5456	34	-74	-93	-1172	768	17028	193	-29	90	123	116	5
-11364	-3044	10804	-109	167	-160	-15672	1604	-5468	52	-35	157	-2664	-5232	15664	-8	-126	156	-10556	2012	12960	95	-45	-136	-15200	-1668	-5416	-14	-43	-85	-1144	824	17088	188	7	62	123	116	5
-11392	-3016	10792	-65	152	-147	-15612	1548	-5496	84	4	163	-2660	-5248	15672	14	-99	156	-10512	2040	13032	97	11	-157	-15240	-1588	-5412	4	-21	-108	-1168	832	16980	173	15	17	124	116	5
-11368	-3112	10756	-110	169	-149	-15672	1600	-5476	79	-5	153	-2700	-5232	15612	15	-151	140	-10488	2048	12868	110	-30	-183	-15120	-1576	-5520	-21	0	-109	-1156	884	17048	180	-26	44	123	116	5
-11284	-3116	10876	-117	111	-156	-15652	1668	-5340	101	31	158	-2696	-5276	15628	33	-148	191	-10552	2008	13028	125	-37	-141	-15252	-1676	-5552	-23	20	-95	-1252	832	17148	142	-3	49	123	116	5
-11376	-3120	10724	-106	150	-158	-15608	1624	-5484	90	-10	136	-2768	-5240	15704	34	-112	217	-10568	2020	12960	103	-67	-138	-15220	-1676	-5484	7	40	-143	-1296	792	17016	134	-24	85	123	116	5
-11304	-3036	10780	-102	109	-140	-15652	1568	-5480	74	11	141	-2860	-5240	15692	76	-128	195	-10544	2056	12844	114	-25	-166	-15172	-1644	-5472	-2	-7	-114	-1296	780	17024	153	-21	82	123	116	5
-11348	-3096	10812	-120	124	-161	-15712	1556	-5608	69	5	123	-2860	-5236	15712	37	-116	184	-10564	2100	12948	102	4	-162	-15224	-1740	-5476	4	-40	-79	-1400	752	16968	200	1	107	123	116	5
-11340	-3104	10820	-99	116	-183	-15584	1524	-5540	76	-43	153	-2784	-5256	15652	37	-98	173	-10552	2028	12864	76	23	-171	-15208	-1656	-5532	17	-80	-69	-1368	740	17000	195	10	81	123	116	5
-11420	-3088	10784	-134	126	-168	-15648	1624	-5524	54	-51	158	-2804	-5224	15668	0	-133	122	-10580	2040	12812	127	-22	-150	-15272	-1664	-5556	47	-75	-32	-1308	716	16920	207	-30	46	123	116	5
-11288	-3160	10924	-117	140	-164	-15620	1612	-5476	86	-70	146	-2724	-5216	15664	22	-101	153	-10620	1996	12940	107	-15	-157	-15220	-1660	-5576	-19	-75	-5	-1244	872	17060	212	-38	26	123	116	5
-11348	-3076	10772	-98	123	-172	-15656	1636	-5312	81	-41	147	-2744	-5260	15728	46	-139	184	-10576	2028	12968	122	-16	-103	-15212	-1604	-5328	-30	-95	-36	-1284	888	17116	178	6	22	123	115	5
-11300	-3080	10780	-106	168	-173	-15644	1620	-5492	45	-50	142	-2720	-5232	15672	41	-90	149	-10548	2048	12848	124	-3	-156	-15156	-1612	-5428	-29	-106	-43	-1212	828	16928	90	28	51	123	116	5
-11428	-3080	10840	-132	159	-192	-15688	1600	-5392	-8	-56	104	-2684	-5200	15680	24	-116	165	-10492	2032	12908	128	-23	-148	-15244	-1572	-5428	-1	-108	-56	-1132	840	16988	123	-1	42	123	116	5
-11320	-3108	10896	-132	129	-151	-15700	1564	-5384	63	-30	133	-2764	-5264	15704	-11	-138	165	-10600	2088	12856	87	-10	-161	-15184	-1600	-5384	32	-82	-72	-1160	848	17104	176	9	39	123	116	5
-11324	-3080	10840	-126	128	-125	-15636	1612	-5516	65	-37	138	-2732	-5232	15672	21	-109	170	-10532	2016	12824	60	-15	-189	-15244	-1572	-5332	12	-50	-89	-1188	848	17028	202	-29	81	123	116	5
-11344	-3108	10844	-131	149	-161	-15700	1628	-5460	54	-32	118	-2704	-5192	15672	33	-133	174	-10552	2052	12960	125	-63	-158	-15208	-1652	-5432	95	-66	-101	-1140	852	17004	204	-17	81	123	116	5
-11344	-3080	10800	-97	162	-160	-15600	1624	-5404	50	3	131	-2688	-5228	15720	63	-113	150	-10556	2036	12876	102	35	-151	-15256	-1600	-5588	16	-56	-107	-1264	828	17100	118	-28	73	123	116	5
-11296	-3056	10792	-113	152	-175	-15628	1596	-5384	39	-43	124	-2752	-5212	15756	36	-136	149	-10544	2088	12916	95	-57	-173	-15200	-1596	-5348	12	-60	-106	-1244	852	17012	115	21	62	123	116	5
-11320	-3200	10744	-64	160	-165	-15684	1548	-5396	35	-15	101	-2728	-5236	15692	-10	-142	179	-10560	2044	12976	122	-81	-128	-15288	-1628	-5500	-1	-74	-97	-1252	808	17056	126	1	43	123	116	5
-11332	-3112	10900	-110	167	-161	-15644	1620	-5452	52	-46	144	-2632	-5220	15724	5	-125	160	-10536	2024	13000	114	-45	-159	-15248	-1660	-5356	-20	-70	-106	-1260	812	17108	136	-9	56	123	116	5
-11344	-3072	10880	-142	163	-153	-15692	1668	-5392	68	-69	138	-2716	-5156	15692	43	-155	203	-10604	1984	13004	102	-8	-170	-15240	-1672	-5416	16	-39	-106	-1248	804	16936	149	0	76	123	116	5
-11340	-3128	10924	-126	158	-153	-15668	1620	-5368	63	-5	112	-2788	-5196	15704	-7	-118	169	-10520	2032	12828	120	-47	-143	-15196	-1672	-5536	18	-43	-91	-1288	832	16968	165	7	55	123	116	5
-11296	-3100	10928	-101	137	-206	-15688	1592	-5512	113	-12	117	-2764	-5264	15588	-27	-126	170	-10572	1992	13032	81	16	-169	-15156	-1724	-5468	30	-44	-52	-1192	760	17060	146	-11	57	123	116	5
-11376	-3088	10780	-111	143	-174	-15588	1580	-5360	80	-34	139	-2736	-5316	15524	-25	-120	152	-10576	2020	12872	74	-10	-117	-15220	-1664	-5484	6	-40	-96	-1280	812	17084	164	0	55	123	115	5
-11356	-3068	10792	-95	174	-152	-15644	1516	-5512	46	17	116	-2724	-5332	15568	-28	-136	172	-10592	2020	12840	106	-29	-146	-15176	-1636	-5440	16	-50	-30	-1252	808	17036	148	15	78	123	116	5
-11388	-3088	10808	-93	92	-176	-15632	1572	-5524	69	-45	131	-2768	-5304	15604	-9	-145	173	-10608	2064	12976	103	-67	-121	-15168	-1692	-5536	-8	-54	-61	-1332	764	16928	132	-55	78	123	116	5
-11384	-3116	10752	-131	139	-170	-15640	1488	-5468	21	-25	106	-2764	-5292	15608	28	-149	179	-10556	2040	12912	118	-89	-171	-15220	-1672	-5500	6	-63	-91	-1264	764	17032	167	-47	81	123	116	5
-11400	-3092	10880	-89	134	-152	-15656	1572	-5452	34	-15	107	-2700	-5256	15656	20	-101	179	-10536	2028	12916	115	-43	-154	-15180	-1704	-5516	9	-69	-63	-1200	780	16980	228	-16	98	123	116	5
-11304	-3124	10800	-85	146	-169	-15644	1536	-5500	81	-18	144	-2696	-5292	15644	51	-142	145	-10612	2000	12896	88	-54	-139	-15144	-1648	-5556	33	-97	-79	-1236	860	17024	200	-31	85	123	116	5
-11304	-3096	10828	-148	143	-146	-15648	1612	-5392	65	-27	157	-2704	-5240	15604	73	-82	129	-10552	1996	12812	103	31	-151	-15252	-1636	-5432	4	-50	-63	-1148	788	17064	223	-23	77	123	116	5
-11328	-3100	10828	-115	93	-139	-15652	1652	-5392	58	1	174	-2668	-5196	15660	-17	-115	140	-10568	2056	12980	95	-42	-174	-15196	-1572	-5460	5	-19	-75	-1132	840	17040	231	-17	48	124	116	5
-11332	-3108	10780	-102	132	-140	-15620	1632	-5432	74	26	136	-2692	-5180	15676	1	-129	143	-10532	2048	12880	110	-6	-180	-15300	-1624	-5432	-43	7	-101	-1248	804	17064	241	13	42	123	116	5
-11356	-3080	10904	-89	142	-151	-15648	1588	-5392	41	30	163	-2660	-5228	15604	-56	-160	135	-10568	2016	12952	122	-72	-155	-15216	-1692	-5512	8	-30	-106	-1140	708	16992	243	-28	74	123	116	5
-11284	-3120	10812	-105	142	-162	-15632	1580	-5468	68	14	132	-2720	-5260	15596	-80	-129	167	-10500	2060	12868	74	-54	-161	-15156	-1668	-5532	1	-38	-67	-1256	824	17024	283	-50	81	123	116	5
-11320	-3092	10832	-104	147	-143	-15620	1592	-5556	71	31	143	-2752	-5372	15496	-22	-132	169	-10472	2028	12900	117	-41	-150	-15212	-1612	-5416	0	-19	-103	-1216	804	17124	286	-37	75	124	116	5
-11348	-3084	10824	-104	167	-138	-15612	1620	-5436	48	19	170	-2800	-5292	15640	29	-125	182	-10560	2088	12892	123	-45	-148	-15212	-1632	-5520	0	-9	-89	-1264	868	17124	255	-31	111	123	116	5
-11348	-3072	10860	-83	141	-151	-15648	1616	-5432	52	-2	158	-2828	-5316	15508	56	-102	163	-10552	2028	12808	80	-38	-140	-15216	-1640	-5516	-9	-55	-94	-1284	924	17048	203	15	102	124	116	5
-11332	-3100	10844	-65	150	-185	-15616	1500	-5400	62	3	186	-2760	-5324	15604	95	-99	167	-10608	2040	12988	102	-34	-147	-15220	-1620	-5508	-13	-54	-85	-1200	844	17080	174	-16	80	124	116	5
-11304	-3108	10792	-105	120	-116	-15624	1580	-5448	81	-5	208	-2716	-5304	15656	88	-113	132	-10524	2056	12988	99	-23	-156	-15192	-1660	-5464	-19	-51	-74	-1212	800	16988	167	-6	60	124	116	5
-11312	-3124	10816	-55	125	-132	-15644	1608	-5476	81	-9	172	-2720	-5284	15752	72	-103	112	-10528	2052	12884	84	-111	-156	-15280	-1668	-5448	-31	-68	-59	-1296	836	17092	146	15	35	124	116	5
-11308	-3076	10876	-88	136	-126	-15668	1664	-5348	57	-36	230	-2680	-5312	15708	97	-120	143	-10504	2100	12884	119	-28	-165	-15244	-1696	-5476	14	-39	-90	-1208	804	17080	123	-24	37	123	116	5
-11320	-3084	10864	-83	133	-129	-15644	1652	-5484	32	21	188	-2740	-5264	15628	63	-96	177	-10580	2088	12864	116	-36	-144	-15240	-1740	-5448	0	40	-84	-1188	804	17016	144	26	16	123	116	5
-11324	-3108	10836	-61	111	-130	-15644	1676	-5444	35	-4	163	-2772	-5192	15728	164	-121	176	-10552	2076	12992	99	-5	-167	-15200	-1632	-5480	-1	-13	-69	-1284	796	16992	117	19	28	123	116	5
-11328	-3064	10812	-87	168	-162	-15592	1644	-5448	26	-7	144	-2792	-5100	15764	175	-119	190	-10524	2100	12916	121	-39	-127	-15240	-1704	-5400	6	-24	-60	-1336	788	17016	168	7	-16	124	116	5
-11280	-3068	10940	-144	138	-113	-15616	1760	-5476	31	-10	103	-2868	-5096	15640	76	-114	201	-10540	2052	12860	73	11	-162	-15248	-1688	-5460	30	-109	-17	-1368	804	17008	139	13	16	123	116	5
-11344	-3124	10912	-124	123	-205	-15640	1640	-5556	80	-60	65	-2824	-5136	15604	51	-149	217	-10596	2080	12956	114	45	-174	-15176	-1712	-5504	-24	-88	-63	-1324	876	17112	168	11	10	124	116	5
-11344	-3092	10884	-144	135	-201	-15600	1640	-5428	70	-72	74	-2844	-5156	15700	-29	-135	198	-10624	2056	12928	110	33	-185	-15200	-1672	-5456	-25	-106	-52	-1288	812	17112	98	19	32	124	116	5
-11336	-3088	10884	-137	174	-180	-15668	1644	-5404	107	-79	38	-2740	-5176	15672	-20	-136	187	-10680	2008	13012	92	10	-132	-15188	-1708	-5484	-7	-93	-40	-1152	824	17056	91	-24	-7	124	116	5
-11340	-3076	10692	-107	195	-195	-15580	1608	-5528	94	-63	2	-2716	-5168	15764	-50	-118	233	-10592	2000	12880	108	-14	-180	-15168	-1656	-5412	-53	-75	-43	-1136	868	17052	53	40	29	124	116	5
-11452	-3084	10740	-172	146	-203	-15668	1592	-5380	82	-63	2	-2664	-5340	15704	-17	-181	241	-10532	2020	12796	111	-31	-158	-15164	-1596	-5324	-23	-43	-87	-1180	848	17088	34	-9	-3	124	116	5
-11348	-3160	10812	-129	163	-219	-15688	1552	-5428	120	-28	79	-2628	-5376	15628	44	-134	228	-10588	2104	12948	107	-8	-145	-15268	-1600	-5388	-14	-47	-87	-1208	888	17148	85	24	27	124	116	5
-11340	-3084	10840	-123	149	-211	-15628	1504	-5448	115	-22	95	-2700	-5336	15700	5	-119	235	-10532	2044	12944	75	-9	-160	-15212	-1608	-5436	-5	-53	-95	-1256	860	17044	81	30	-2	124	116	5
-11320	-3048	10692	-101	152	-141	-15652	1460	-5516	108	22	92	-2700	-5304	15652	9	-105	222	-10536	2056	12944	84	-11	-157	-15264	-1632	-5472	37	-57	-95	-1284	736	17044	74	11	69	124	116	5
-11360	-3108	10848	-119	118	-161	-15664	1504	-5468	63	-54	145	-2792	-5372	15612	4	-121	221	-10548	2096	13032	93	-16	-144	-15188	-1628	-5484	25	-67	-98	-1276	784	16944	80	-39	84	124	116	5
-11332	-3056	10728	-80	123	-183	-15732	1524	-5488	48	-20	170	-2816	-5372	15592	38	-129	168	-10532	1976	12904	97	-11	-164	-15256	-1640	-5612	61	-111	-96	-1372	768	17152	96	13	75	124	116	5
-11328	-3088	10732	-91	137	-159	-15676	1580	-5468	40	-34	158	-2820	-5400	15608	133	-106	168	-10544	1960	12924	107	-37	-143	-15220	-1632	-5476	73	-155	-95	-1392	832	17096	80	-26	92	124	116	5
-11348	-3144	10840	-109	124	-157	-15632	1504	-5516	33	-38	203	-2800	-5316	15592	204	-81	129	-10564	2056	13060	114	-52	-165	-15184	-1604	-5528	0	-153	-94	-1444	860	16964	3	-34	112	124	116	5
-11320	-3108	10784	-94	105	-144	-15668	1532	-5396	50	-52	274	-2772	-5324	15664	198	-97	80	-10572	2040	12876	110	-116	-108	-15232	-1632	-5428	12	-200	-85	-1344	888	17040	16	26	155	124	116	5
-11276	-3104	10756	-89	118	-137	-15620	1544	-5488	30	-91	273	-2764	-5348	15720	191	-91	54	-10536	1980	12900	108	-69	-123	-15184	-1648	-5604	3	-278	-88	-1368	976	17104	-31	-39	135	124	116	5
-11324	-3132	10828	-81	104	-145	-15692	1572	-5500	43	-82	287	-2868	-5224	15776	158	-105	46	-10528	2016	12948	102	10	-151	-15204	-1688	-5496	33	-328	-138	-1308	1036	17124	-124	-59	192	124	116	5
-11360	-3112	10764	-76	98	-163	-15616	1656	-5580	54	-110	256	-2820	-5192	15708	183	-107	40	-10532	2044	12968	93	-28	-165	-15336	-1552	-5616	101	-329	-148	-1396	1084	17076	-118	-79	287	124	116	5
-11376	-3056	10776	-98	92	-191	-15644	1680	-5468	43	-137	250	-2892	-5232	15704	176	-62	27	-10604	2008	12924	64	-68	-146	-15108	-1516	-5520	110	-365	-182	-1220	808	16832	-140	-67	329	124	116	5
-11312	-3092	10744	-126	94	-190	-15668	1640	-5432	27	-179	263	-2828	-5164	15724	175	-105	7	-10576	2020	13032	80	-111	-120	-15188	-1604	-5280	157	-382	-282	-956	744	17080	-26	-47	400	124	116	5
-11348	-3124	10836	-88	100	-149	-15696	1600	-5452	21	-198	199	-2740	-5112	15824	206	-89	74	-10580	2080	12860	51	-58	-155	-15224	-1600	-5216	163	-303	-311	-872	756	17152	-85	3	463	124	116	5
-11244	-3180	10828	-118	81	-155	-15748	1748	-5388	-8	-186	241	-2712	-5084	15688	239	-74	103	-10572	2020	12960	37	-94	-169	-15252	-1724	-5136	168	-228	-384	-988	728	17100	-169	-1	337	124	116	5
-11352	-3032	10748	-74	119	-189	-15608	1668	-5264	-7	-98	188	-2384	-4968	15592	113	-95	158	-10472	1932	12860	57	-73	-156	-15232	-1644	-5316	163	-200	-343	-1028	660	16964	-266	28	229	124	116	5
-11348	-3104	10860	-143	130	-145	-15716	1620	-5232	84	-53	162	-2556	-5048	15668	30	-108	166	-10512	1988	12980	96	-58	-170	-15240	-1732	-5220	117	-85	-387	-1140	516	17000	-278	-10	209	124	116	5
-11256	-3140	10932	-104	143	-154	-15624	1684	-5256	44	-16	136	-2604	-5076	15776	-5	-120	152	-10492	2032	12960	52	-128	-190	-15240	-1832	-5256	58	-67	-297	-1100	320	16936	-221	44	218	124	116	5
-11332	-3060	10840	-133	154	-206	-15692	1636	-5408	85	10	112	-2652	-5064	15724	-31	-108	190	-10476	2008	13028	83	-65	-161	-15236	-1828	-5360	41	-18	-272	-1220	212	17036	-39	-1	208	124	116	5
-11240	-3148	10836	-105	189	-161	-15640	1600	-5360	60	99	77	-2716	-5124	15696	-100	-162	203	-10512	2016	13028	99	-28	-174	-15232	-1864	-5268	48	-23	-269	-1180	232	17004	155	0	151	124	116	5
-11356	-3100	10812	-122	161	-176	-15620	1556	-5400	101	113	76	-2744	-5224	15724	-113	-225	225	-10588	2028	12992	92	-35	-161	-15196	-1980	-5280	118	12	-106	-1340	236	17128	276	-20	16	124	116	5
-11292	-3140	10920	-114	162	-151	-15704	1580	-5372	99	107	83	-2768	-5232	15744	-105	-166	219	-10540	2036	12976	117	-72	-135	-15164	-1964	-5356	72	22	-31	-1348	304	17060	322	-5	-66	124	116	5
-11344	-3136	10848	-94	150	-166	-15648	1612	-5484	91	75	99	-2812	-5180	15644	-88	-137	243	-10488	2044	12912	140	-14	-134	-15212	-1888	-5380	-28	53	5	-1276	316	16984	302	-12	-110	124	116	5
-11412	-3088	10776	-131	167	-152	-15648	1664	-5560	90	72	94	-2772	-5280	15656	-72	-139	193	-10576	2052	13016	134	4	-159	-15248	-1788	-5380	-114	69	75	-1236	444	16872	331	-6	-180	124	116	5
-11320	-3096	10940	-84	143	-163	-15592	1552	-5560	57	23	144	-2752	-5324	15608	-115	-161	195	-10548	1976	12944	128	14	-132	-15248	-1744	-5348	-228	101	135	-1236	480	16988	437	-20	-181	123	116	5
-11352	-3112	10784	-137	160	-169	-15588	1556	-5560	40	34	142	-2808	-5292	15660	-56	-147	178	-10516	2072	13028	146	24	-144	-15236	-1776	-5276	-195	139	100	-1188	548	17056	496	14	-154	123	115	5
-11304	-3160	10784	-138	139	-150	-15592	1620	-5536	26	32	145	-2720	-5360	15728	26	-130	184	-10572	2016	12956	161	-8	-117	-15260	-1772	-5468	-126	96	124	-1172	660	16984	537	-18	-127	123	116	5
-11368	-3112	10796	-103	166	-148	-15716	1520	-5424	20	48	176	-2752	-5320	15516	78	-111	200	-10520	2024	12920	186	29	-142	-15284	-1756	-5384	-83	100	157	-1104	612	17012	514	-15	-120	123	116	5
-11308	-3116	10688	-114	140	-135	-15604	1584	-5356	38	12	202	-2660	-5280	15696	101	-149	182	-10512	2068	13036	150	45	-149	-15184	-1656	-5448	-38	93	45	-1160	908	17004	511	2	-61	123	116	5
-11368	-3112	10780	-99	110	-138	-15672	1560	-5400	48	-8	237	-2628	-5336	15688	57	-117	164	-10572	1988	12968	139	22	-165	-15200	-1572	-5412	-26	85	10	-1236	940	17124	436	13	-33	123	116	5
-11368	-3068	10780	-110	113	-155	-15660	1644	-5484	31	55	225	-2708	-5272	15768	107	-135	145	-10540	2124	12940	106	36	-137	-15232	-1588	-5432	-75	80	-5	-1240	1020	17092	401	-40	1	123	116	5
-11340	-3100	10788	-96	134	-153	-15608	1636	-5352	42	52	207	-2780	-5160	15652	112	-107	184	-10512	2052	12904	85	-53	-168	-15268	-1640	-5476	-100	54	-57	-1200	1020	16984	293	-22	16	123	116	5
-11312	-3124	10888	-93	154	-121	-15620	1668	-5596	11	80	204	-2772	-5152	15672	102	-99	161	-10572	2072	12892	100	-18	-136	-15276	-1620	-5528	-54	44	-98	-1292	1000	17024	197	11	26	123	116	5
-11352	-3184	10804	-61	133	-165	-15668	1620	-5460	49	73	126	-2756	-5160	15636	105	-132	82	-10528	2108	12960	108	11	-175	-15192	-1672	-5472	-4	-5	-140	-1280	944	16964	95	4	45	124	116	5
-11392	-3064	10852	-90	151	-121	-15688	1696	-5544	231	129	40	-2696	-5348	15896	292	-84	-5	-10592	2048	12852	90	-34	-165	-15220	-1636	-5516	44	-6	-129	-1292	780	17036	124	6	70	124	116	5
-11276	-3004	10844	-101	144	-171	-15512	1704	-5452	269	82	75	-2916	-5316	15580	1063	0	0	-10520	2028	12972	125	-15	-193	-15240	-1628	-5496	52	-24	-115	-1308	776	17148	164	-15	152	123	116	5
-11312	-3064	10844	-142	134	-206	-15720	1576	-5504	486	-7	235	-2872	-4856	15648	1149	-32	84	-10540	2092	12856	89	-63	-165	-15264	-1716	-5504	74	-34	-151	-1316	776	17048	180	10	158	123	116	5
-11356	-3136	10864	-126	165	-202	-15660	1632	-5412	659	-1	172	-2672	-4548	15684	290	-201	285	-10556	2040	13040	132	-87	-179	-15220	-1700	-5404	57	-48	-170	-1272	748	16968	213	-26	187	124	116	5
-11328	-3092	10900	-141	211	-192	-15640	1836	-5524	428	20	59	-2616	-4832	15844	-473	-316	407	-10548	2036	12984	116	-44	-129	-15204	-1700	-5436	21	-88	-147	-1220	716	17068	175	9	197	124	116	5
-11348	-3080	10820	-166	169	-185	-15528	1820	-5596	-88	8	-143	-2668	-5088	15744	-561	-148	408	-10616	2032	12900	113	-38	-153	-15224	-1768	-5432	36	-107	-98	-1172	672	17060	122	29	142	124	116	5
-11324	-3064	10812	-157	169	-173	-15656	1564	-5460	-480	15	-244	-2780	-5288	15680	-426	-120	238	-10544	2032	12832	113	-17	-155	-15256	-1784	-5312	1	-74	-73	-1288	704	17016	91	4	109	123	116	5
-11312	-3116	10772	-149	162	-222	-15700	1256	-5368	-244	-30	-98	-2756	-5436	15680	-366	-186	243	-10548	2044	12860	129	-34	-164	-15188	-1744	-5412	7	-48	-90	-1264	676	17004	129	11	52	123	116	5
-11340	-3148	10808	-123	147	-168	-15616	1300	-5476	58	2	65	-2752	-5412	15616	-403	-157	247	-10516	2072	13016	128	-18	-142	-15196	-1768	-5376	-18	-46	-55	-1220	660	17188	149	-11	19	124	116	5
-11312	-3136	10780	-117	160	-171	-15676	1420	-5408	184	-66	210	-2668	-5460	15652	-302	-166	251	-10556	2060	13024	98	-31	-168	-15208	-1780	-5336	-28	-17	-59	-1160	636	17024	186	-18	13	124	116	5
-11360	-3144	10856	-100	120	-140	-15624	1452	-5608	170	-58	260	-2648	-5500	15612	-232	-145	225	-10524	2028	12968	119	18	-145	-15208	-1772	-5356	-28	-29	-71	-1240	652	17060	239	-28	15	123	116	5
-11316	-3064	10832	-72	114	-126	-15656	1540	-5576	62	-49	292	-2696	-5364	15504	-90	-135	168	-10496	2056	12912	93	0	-156	-15148	-1768	-5372	-56	-31	6	-1344	676	17068	242	-36	-12	123	116	5
-11360	-3080	10876	-85	121	-117	-15676	1580	-5420	-26	-93	243	-2764	-5312	15596	62	-99	82	-10560	2044	12988	127	-5	-174	-15188	-1716	-5444	-23	-5	17	-1360	680	17132	280	-50	-3	123	116	5
-11340	-3056	10828	-66	138	-98	-15624	1656	-5496	-182	-86	228	-2816	-5216	15720	113	-96	61	-10576	2068	12940	90	6	-136	-15228	-1664	-5552	-28	-74	33	-1252	788	17112	327	-25	-16	123	116	5
-11420	-3096	10832	-61	107	-125	-15636	1592	-5404	-220	-90	173	-2780	-5100	15688	54	-71	32	-10564	2020	12948	148	-35	-152	-15228	-1656	-5448	-19	-55	60	-1268	736	16928	354	-53	-2	124	116	5
-11356	-3132	10860	-80	106	-120	-15664	1560	-5544	-109	-99	228	-2740	-5136	15696	2	-62	24	-10524	1984	12908	107	-1	-146	-15312	-1636	-5432	7	-49	32	-1240	880	17016	328	-42	11	124	116	5
-11340	-3080	10908	-104	108	-139	-15680	1620	-5520	24	-95	255	-2724	-5172	15732	38	-67	69	-10520	2024	13020	112	7	-130	-15200	-1600	-5508	-28	-43	15	-1132	896	17104	197	7	48	124	116	5
-11316	-3084	10860	-81	123	-151	-15620	1652	-5384	131	-49	276	-2688	-5176	15744	46	-70	91	-10492	2044	13032	138	26	-147	-15196	-1612	-5392	-70	-62	-39	-1144	936	17068	146	18	21	124	116	5
-11368	-3096	10840	-74	152	-151	-15580	1660	-5396	209	-63	243	-2676	-5068	15744	80	-75	142	-10512	2076	12964	139	-64	-142	-15212	-1608	-5464	-22	-40	-53	-1136	888	17060	127	4	28	124	116	5
-11340	-3100	10840	-80	112	-134	-15620	1756	-5332	130	7	182	-2688	-5060	15784	88	-127	192	-10548	2100	12860	111	-81	-151	-15276	-1540	-5332	4	0	-83	-1064	864	17020	177	-36	44	124	116	5
-11308	-3104	10904	-123	137	-157	-15672	1792	-5448	38	4	118	-2664	-5100	15784	14	-131	204	-10568	2056	12868	104	-73	-146	-15220	-1648	-5412	18	-48	-145	-1124	780	16968	188	0	94	124	116	5
-11288	-3136	10832	-123	154	-159	-15612	1696	-5416	-53	8	71	-2708	-5172	15728	-48	-144	255	-10584	2052	12956	121	-86	-184	-15220	-1684	-5408	56	-29	-150	-1172	840	17072	157	-5	135	124	116	5
-11296	-3088	10848	-145	157	-163	-15652	1616	-5472	-23	38	67	-2780	-5260	15660	-93	-158	260	-10576	1984	12920	86	-39	-170	-15256	-1704	-5384	52	-6	-132	-1244	816	17008	154	24	127	124	116	5
-11332	-3148	10860	-109	149	-145	-15624	1536	-5468	60	18	78	-2772	-5244	15688	-76	-153	231	-10560	2084	13008	86	-68	-150	-15256	-1728	-5328	41	5	-118	-1276	796	16896	128	-24	145	124	116	5
-11360	-3104	10868	-77	176	-184	-15628	1444	-5384	101	-15	146	-2840	-5288	15592	-42	-119	161	-10480	1992	12912	96	-55	-134	-15232	-1700	-5500	46	1	-133	-1320	716	17096	133	-20	95	124	116	5
-11360	-3092	10816	-112	133	-145	-15648	1564	-5560	115	-25	179	-2772	-5316	15760	54	-144	187	-10512	2036	12964	92	-39	-153	-15180	-1708	-5456	43	-49	-72	-1380	732	16956	156	-42	111	124	116	5
-11380	-3084	10784	-116	151	-168	-15664	1640	-5428	90	-42	150	-2832	-5228	15684	71	-105	190	-10548	2040	12944	103	-48	-141	-15188	-1748	-5432	-6	-85	-81	-1376	708	17028	167	2	97	124	116	5
-11396	-3076	10852	-119	125	-210	-15640	1576	-5392	55	-47	162	-2808	-5300	15632	88	-78	154	-10532	2012	12940	113	14	-178	-15264	-1736	-5428	17	-128	-62	-1232	752	17028	175	-18	95	124	116	5
-11340	-3068	10904	-87	144	-158	-15672	1564	-5520	1	-22	170	-2720	-5264	15636	62	-70	116	-10544	1984	12888	137	-54	-118	-15268	-1724	-5384	-26	-76	-55	-1300	780	17064	217	14	97	124	116	5
-11352	-3116	10812	-122	124	-187	-15632	1636	-5356	30	-24	163	-2788	-5216	15716	55	-96	133	-10572	2028	12968	141	-5	-173	-15292	-1672	-5336	-11	-82	-46	-1188	716	17000	195	26	69	124	116	5
-11364	-3052	10900	-106	116	-140	-15636	1540	-5384	9	-61	177	-2768	-5232	15772	43	-106	123	-10564	2012	12972	100	-39	-148	-15240	-1696	-5360	-3	-92	-41	-1176	712	17020	179	-11	84	124	116	5
-11316	-3144	10876	-69	128	-158	-15644	1636	-5496	61	-39	203	-2660	-5208	15804	121	-107	184	-10540	2112	12940	92	-44	-154	-15180	-1676	-5340	52	-56	-33	-1104	716	16988	187	20	51	124	116	5
-11352	-3096	10860	-76	112	-146	-15656	1640	-5380	55	-11	209	-2688	-5224	15700	125	-132	153	-10556	2012	12940	101	-16	-139	-15236	-1684	-5192	-10	-77	-74	-1160	712	17020	210	15	31	124	116	5
-11300	-3072	10816	-113	158	-141	-15616	1640	-5352	68	6	221	-2692	-5256	15624	144	-138	167	-10520	2040	12808	122	4	-167	-15268	-1736	-5288	-26	-30	-64	-1196	724	17008	219	-2	44	124	117	5
-11340	-3140	10812	-60	137	-128	-15668	1604	-5384	104	30	190	-2756	-5128	15624	81	-146	179	-10488	2044	12928	92	-38	-129	-15228	-1688	-5368	-21	41	-56	-1144	860	17008	229	21	22	124	116	5
-11300	-3060	10936	-62	136	-173	-15608	1660	-5488	23	34	162	-2788	-5068	15692	27	-125	187	-10524	2052	12956	109	-12	-173	-15216	-1652	-5376	-42	49	-49	-1224	892	17028	244	-28	2	124	116	5
-11252	-3036	10816	-139	145	-142	-15636	1684	-5576	22	34	132	-2780	-5068	15596	5	-130	173	-10492	2048	12976	105	-29	-151	-15224	-1660	-5472	-29	-24	-59	-1256	884	17128	214	1	14	124	116	5
-11340	-3024	10800	-126	152	-191	-15588	1624	-5480	38	-5	67	-2852	-5148	15716	-5	-135	169	-10480	2056	13016	116	-54	-152	-15244	-1596	-5412	36	-55	-79	-1288	932	17056	131	10	-2	124	116	5
-11380	-3120	10748	-121	164	-158	-15604	1676	-5508	49	-1	77	-2920	-5072	15688	6	-158	180	-10572	2012	12868	79	-67	-144	-15204	-1612	-5476	14	-92	-44	-1308	852	17124	126	27	54	124	116	5
-11380	-3068	10824	-160	146	-149	-15704	1640	-5460	63	-24	48	-2776	-5116	15652	-39	-129	197	-10536	2072	12936	80	-22	-138	-15232	-1688	-5528	-5	-111	-108	-1292	912	17120	79	3	85	124	116	5
-11356	-3184	10840	-169	155	-216	-15620	1624	-5428	77	-78	23	-2820	-5156	15652	-73	-125	179	-10616	2044	13020	156	-41	-161	-15176	-1652	-5456	-5	-113	-120	-1320	812	17000	76	7	134	124	116	5
-11304	-3060	10924	-174	149	-179	-15624	1652	-5480	86	-88	63	-2756	-5128	15696	-71	-129	190	-10520	2060	12840	86	-32	-141	-15196	-1676	-5476	60	-123	-143	-1244	812	17064	54	1	138	124	116	5
-11320	-3100	10776	-136	165	-201	-15688	1576	-5476	92	-48	44	-2608	-5248	15724	-96	-124	163	-10564	2056	13032	94	-27	-152	-15216	-1660	-5368	74	-132	-163	-1108	756	17036	35	-26	118	124	116	5
-11304	-3128	10852	-134	143	-167	-15656	1596	-5380	75	-72	27	-2624	-5204	15700	-104	-117	194	-10480	2020	12880	62	-49	-162	-15244	-1672	-5368	58	-111	-123	-1108	672	17064	48	-1	74	124	116	5
-11328	-3132	10972	-137	151	-160	-15660	1588	-5364	80	-29	26	-2592	-5320	15788	-90	-139	216	-10620	2088	13000	110	-50	-135	-15220	-1688	-5344	51	-35	-166	-1108	696	16988	66	23	68	124	116	5
-11340	-3092	10808	-141	148	-180	-15692	1528	-5444	45	19	80	-2652	-5308	15600	-76	-148	218	-10576	2016	12924	61	-23	-150	-15236	-1716	-5404	42	-11	-117	-1140	664	16976	129	36	71	124	116	5
-11312	-3100	10776	-132	156	-146	-15620	1528	-5412	74	32	123	-2688	-5388	15580	-21	-123	201	-10520	2068	12912	57	-46	-158	-15192	-1760	-5416	-2	14	-150	-1200	584	17156	111	8	72	124	116	5
-11328	-3156	10876	-59	134	-151	-15612	1540	-5448	84	75	116	-2704	-5312	15732	-11	-119	181	-10544	1984	12888	79	-32	-171	-15224	-1724	-5320	-10	38	-112	-1204	648	17088	159	-3	37	124	116	5
-11392	-3080	10700	-117	166	-123	-15664	1560	-5432	63	71	179	-2740	-5396	15668	92	-144	190	-10564	2068	12924	80	-1	-161	-15248	-1780	-5364	-27	10	-104	-1332	668	17076	165	8	20	124	116	5
-11340	-3088	10824	-86	143	-129	-15688	1564	-5488	83	16	167	-2808	-5308	15668	96	-147	164	-10604	1964	13032	89	3	-166	-15236	-1816	-5436	-19	15	-64	-1276	652	17008	189	3	35	124	116	5
-11336	-3092	10796	-64	149	-166	-15608	1604	-5468	37	28	209	-2856	-5256	15704	116	-132	155	-10488	2056	12980	126	-4	-164	-15172	-1776	-5416	-7	-24	-40	-1344	732	17124	196	-13	48	124	116	5
-11316	-3060	10896	-87	118	-135	-15664	1584	-5552	22	-31	180	-2828	-5212	15784	100	-112	120	-10544	2028	12896	109	-20	-143	-15164	-1684	-5440	16	-39	-47	-1352	740	17132	232	2	61	124	116	5
-11324	-3044	10840	-100	98	-148	-15600	1628	-5420	14	-22	182	-2864	-5140	15740	49	-126	103	-10568	2064	12976	107	-35	-138	-15264	-1708	-5484	-21	-54	-48	-1280	764	17084	247	-37	75	124	116	5
-11352	-3092	10872	-76	99	-141	-15680	1596	-5336	-9	-55	141	-2828	-5184	15684	48	-92	134	-10544	2084	12968	133	-61	-144	-15184	-1680	-5376	-37	-51	-43	-1244	712	17076	219	-26	75	124	116	5
-11328	-3060	10932	-112	130	-179	-15656	1608	-5456	83	-38	179	-2748	-5172	15604	65	-84	158	-10576	2084	12968	101	-6	-136	-15164	-1680	-5452	-15	-39	-55	-1156	712	17016	223	16	42	124	116	5
-11404	-3044	10792	-134	150	-158	-15672	1640	-5456	79	-58	108	-2716	-5152	15700	61	-123	155	-10508	2056	12896	62	5	-151	-15224	-1700	-5440	-43	-53	-45	-1208	780	16940	193	-24	17	124	116	5
-11324	-3076	10932	-115	103	-147	-15652	1668	-5428	76	-15	180	-2660	-5180	15672	42	-133	200	-10588	2036	12924	106	-4	-127	-15256	-1608	-5428	-57	6	-35	-1232	828	16924	145	-32	23	124	116	5
-11316	-3044	10780	-100	130	-168	-15644	1656	-5420	108	11	155	-2676	-5156	15752	5	-151	186	-10600	2036	12972	120	-19	-168	-15284	-1680	-5372	-23	-12	-84	-1256	788	16968	172	-34	25	124	116	5
-11372	-3084	10892	-102	153	-166	-15736	1572	-5416	76	8	137	-2740	-5176	15724	-48	-120	216	-10540	2032	13008	89	-13	-150	-15260	-1652	-5344	-26	-41	-65	-1216	772	16980	207	-26	22	124	116	5
-11336	-3136	10748	-78	170	-160	-15656	1644	-5496	98	4	99	-2716	-5244	15704	-23	-136	214	-10524	2028	12812	94	-35	-125	-15204	-1736	-5372	13	-20	-93	-1240	776	17028	194	-28	35	124	116	5
-11388	-3072	10800	-106	140	-162	-15600	1536	-5512	38	22	101	-2780	-5280	15632	-52	-116	194	-10532	2068	12856	104	17	-157	-15240	-1708	-5464	28	-29	-44	-1276	764	17032	206	-10	51	124	116	5
-11360	-3112	10756	-131	156	-189	-15640	1608	-5556	73	-13	80	-2748	-5252	15584	23	-95	213	-10528	2052	12940	125	-31	-129	-15208	-1676	-5432	45	-14	-59	-1252	788	17004	209	-47	15	124	116	5
-11376	-3104	10756	-95	159	-169	-15632	1620	-5460	77	21	109	-2748	-5252	15648	50	-124	189	-10528	2084	12932	113	-22	-181	-15200	-1676	-5516	-4	-11	-90	-1280	856	16916	203	-14	52	124	116	5
-11388	-3116	10844	-102	148	-160	-15676	1564	-5440	71	-46	114	-2772	-5284	15632	62	-108	152	-10576	2048	12928	92	2	-129	-15288	-1680	-5404	-57	-35	-117	-1232	800	17080	127	-8	62	124	116	5
-11312	-3100	10956	-108	134	-200	-15644	1588	-5572	48	-10	138	-2796	-5276	15656	89	-115	150	-10536	2040	12836	127	-85	-146	-15204	-1712	-5464	-25	-76	-96	-1256	800	17132	150	5	15	124	116	5
-11336	-3100	10792	-135	148	-153	-15612	1588	-5440	55	-27	183	-2716	-5236	15744	36	-96	145	-10564	2040	12912	120	-26	-178	-15236	-1692	-5464	-2	-26	-89	-1240	780	17024	152	-3	49	124	116	5
-11380	-3100	10828	-118	127	-165	-15628	1616	-5440	50	-9	146	-2708	-5292	15624	32	-107	146	-10508	1968	12972	114	-64	-179	-15228	-1684	-5504	39	-69	-47	-1240	752	17124	174	-12	47	124	116	5
-11380	-3132	10808	-97	123	-192	-15612	1624	-5384	39	-35	163	-2716	-5220	15640	52	-96	126	-10540	2084	13008	114	32	-152	-15232	-1704	-5356	7	-46	-63	-1244	752	16952	133	-14	56	124	116	5
-11344	-3060	10896	-96	144	-157	-15628	1652	-5400	37	-10	137	-2804	-5216	15656	54	-96	143	-10580	2060	13012	110	-42	-131	-15312	-1696	-5296	43	-73	-38	-1232	776	16960	169	-34	61	124	116	5
-11348	-3072	10948	-62	133	-174	-15672	1600	-5380	53	-41	162	-2760	-5248	15572	29	-108	162	-10600	2008	13060	103	-38	-141	-15256	-1684	-5352	8	-49	-96	-1252	756	17000	187	-48	54	124	116	5
-11332	-3068	10744	-125	126	-122	-15648	1644	-5364	33	-38	159	-2808	-5160	15720	103	-124	165	-10516	2032	12944	120	-28	-176	-15148	-1668	-5308	-11	-46	-65	-1204	768	16968	185	-36	48	124	116	5
-11360	-3084	10764	-82	127	-165	-15692	1676	-5444	68	6	183	-2732	-5156	15780	104	-145	185	-10520	2016	13020	114	13	-157	-15180	-1680	-5464	-1	-48	-44	-1248	760	17116	202	-25	27	124	116	5
-11316	-3064	10808	-81	127	-185	-15644	1652	-5436	54	-1	146	-2796	-5180	15744	30	-121	196	-10488	2076	12992	113	-14	-164	-15236	-1644	-5468	-13	-59	-31	-1252	808	17004	189	-37	37	124	116	5
-11336	-3064	10828	-93	113	-152	-15644	1628	-5528	54	-40	141	-2756	-5172	15676	3	-113	169	-10516	1988	12952	76	20	-143	-15220	-1632	-5432	2	-41	-33	-1288	756	17148	214	-22	53	124	116	5
-11384	-3032	10712	-128	172	-183	-15664	1640	-5504	50	-4	110	-2768	-5184	15712	17	-104	175	-10512	2036	12984	84	-25	-170	-15264	-1688	-5400	-55	-77	-74	-1272	764	17020	160	-14	23	124	116	5
-11344	-3052	10876	-58	118	-151	-15648	1640	-5464	47	-52	155	-2788	-5236	15620	7	-125	203	-10576	2020	12908	124	-11	-154	-15220	-1668	-5492	16	-34	-44	-1208	744	17044	165	14	46	124	116	5
-11384	-3068	10800	-114	132	-165	-15588	1648	-5424	58	-15	105	-2740	-5252	15688	26	-118	179	-10564	2028	12824	115	-41	-145	-15284	-1652	-5436	5	-50	-84	-1228	732	17060	206	-30	31	124	116	5
-11316	-3104	10868	-102	149	-190	-15680	1608	-5536	43	-41	148	-2712	-5264	15700	22	-125	204	-10560	2028	12948	126	15	-168	-15204	-1668	-5612	10	-30	-40	-1216	792	17152	191	9	73	124	116	5
-11348	-3064	10728	-113	117	-165	-15684	1540	-5376	66	-7	167	-2692	-5232	15644	73	-121	175	-10552	2104	13012	148	-43	-149	-15248	-1616	-5488	6	-39	-58	-1196	800	17068	189	-14	61	124	116	5
-11380	-3124	10716	-80	142	-149	-15652	1608	-5516	88	15	162	-2792	-5240	15588	11	-124	180	-10528	2052	12912	109	-27	-142	-15156	-1712	-5396	16	17	-120	-1224	828	17112	214	-13	67	124	116	5
-11396	-3132	10864	-104	139	-163	-15696	1636	-5604	59	-17	168	-2756	-5200	15692	3	-115	174	-10572	2020	12912	113	-31	-155	-15232	-1720	-5480	5	-31	-129	-1320	824	16868	132	-27	73	124	116	5
-11336	-3100	10768	-105	151	-140	-15632	1676	-5496	25	-35	122	-2808	-5164	15692	39	-127	173	-10540	2084	12912	89	-57	-161	-15168	-1700	-5492	57	-73	-104	-1300	752	17052	144	-27	66	124	116	5
-11360	-3080	10784	-112	123	-152	-15716	1596	-5420	51	-8	136	-2796	-5236	15700	54	-142	168	-10572	1972	12932	90	1	-221	-15244	-1656	-5484	-5	-48	-98	-1204	764	17236	163	1	64	124	116	5
-11380	-3024	10952	-105	141	-180	-15652	1668	-5440	19	-19	131	-2712	-5232	15676	25	-114	174	-10512	2004	12940	88	-20	-175	-15244	-1668	-5420	18	-49	-131	-1272	728	17148	180	-16	39	124	116	5
-11364	-3120	10772	-95	167	-154	-15596	1572	-5412	38	-17	126	-2604	-5200	15644	58	-102	150	-10496	2108	12788	117	-30	-162	-15272	-1696	-5312	-22	-18	-109	-1196	720	17052	176	-3	47	124	116	5
-11280	-3120	10732	-93	135	-169	-15652	1660	-5404	100	9	121	-2668	-5188	15632	16	-121	210	-10500	2028	12940	106	-20	-141	-15224	-1700	-5396	26	-9	-66	-1188	780	17072	177	-3	66	124	116	5
-11356	-3140	10960	-86	158	-125	-15640	1648	-5444	70	-11	167	-2672	-5156	15724	-1	-111	171	-10536	2004	12876	95	-51	-123	-15232	-1720	-5336	-28	-12	-84	-1184	708	17036	157	-8	50	124	116	5
-11332	-3104	10856	-109	137	-158	-15624	1616	-5444	82	51	108	-2760	-5172	15760	-10	-113	225	-10544	2020	12924	110	-63	-171	-15292	-1664	-5352	13	-14	-57	-1240	752	16976	187	-7	35	124	116	5
-11360	-3152	10888	-103	136	-143	-15684	1624	-5484	41	41	124	-2780	-5244	15644	-14	-133	136	-10460	2044	12940	125	11	-139	-15196	-1696	-5364	-16	-43	-100	-1356	756	16984	196	15	49	124	116	5
-11396	-3084	10804	-117	151	-143	-15624	1560	-5492	42	16	92	-2812	-5260	15692	4	-137	181	-10572	2076	12972	111	-1	-147	-15264	-1632	-5552	3	-65	-73	-1344	776	17004	158	18	79	124	116	5
-11364	-3088	10816	-117	137	-178	-15656	1612	-5540	58	-36	143	-2828	-5268	15672	38	-127	179	-10588	2052	12868	102	-18	-174	-15240	-1676	-5468	-15	-24	-65	-1292	760	17040	205	-22	75	124	116	5
-11360	-3072	11020	-117	134	-178	-15668	1592	-5448	46	20	135	-2796	-5260	15616	46	-170	157	-10536	2068	12880	118	-10	-147	-15200	-1676	-5540	-1	-56	-69	-1264	784	16932	185	-11	62	124	116	5
-11388	-3080	10764	-93	133	-162	-15632	1560	-5352	66	-70	145	-2820	-5308	15580	94	-122	158	-10480	2008	12924	94	-10	-154	-15200	-1684	-5532	27	-66	-99	-1296	748	17144	153	-3	60	124	116	5
-11352	-3116	10828	-128	141	-144	-15644	1580	-5452	20	-85	147	-2700	-5164	15632	51	-130	147	-10568	2028	12944	102	-76	-138	-15244	-1672	-5364	18	-97	-52	-1272	764	17180	158	9	53	124	116	5
-11340	-3080	10848	-95	127	-193	-15596	1664	-5408	40	-56	150	-2748	-5136	15712	50	-97	174	-10516	2080	12864	118	-52	-115	-15288	-1652	-5400	-12	-70	-80	-1312	788	17068	156	-26	41	124	116	5
-11304	-3120	10756	-88	121	-165	-15700	1648	-5432	84	-59	136	-2716	-5104	15672	-1	-123	167	-10488	2036	12888	85	-17	-173	-15228	-1724	-5472	-10	-71	-42	-1204	824	17172	158	-41	66	124	116	5
-11336	-3112	10876	-114	121	-146	-15712	1604	-5440	45	-42	139	-2736	-5108	15632	-23	-113	146	-10492	2000	12968	107	-21	-153	-15208	-1692	-5304	14	-81	-54	-1240	792	17052	167	-23	52	124	116	5
-11392	-3084	10872	-108	116	-157	-15636	1596	-5412	31	20	127	-2704	-5124	15616	-30	-92	180	-10528	2056	12956	126	0	-151	-15180	-1708	-5452	-8	-44	-68	-1208	800	17052	197	-9	62	124	116	5
-11336	-3116	10924	-123	144	-130	-15668	1664	-5480	75	35	129	-2696	-5280	15688	-4	-105	175	-10532	1984	12896	124	-20	-152	-15236	-1716	-5380	2	-64	-69	-1188	772	17148	146	-34	39	124	116	5
-11304	-3020	10864	-116	161	-150	-15668	1660	-5456	41	12	125	-2696	-5196	15640	-10	-117	208	-10544	2080	12928	103	-4	-161	-15244	-1644	-5324	11	-41	-82	-1224	812	17152	138	-27	51	124	116	5
-11308	-3104	10888	-117	139	-152	-15608	1648	-5400	82	-15	121	-2748	-5272	15540	7	-125	200	-10496	2028	12904	120	-14	-169	-15244	-1692	-5372	13	-56	-104	-1252	732	17012	160	-4	71	124	116	5
-11340	-3048	10756	-96	145	-145	-15672	1564	-5456	87	26	124	-2752	-5172	15704	11	-132	204	-10540	2040	13012	108	-45	-174	-15200	-1708	-5448	-33	-3	-135	-1220	692	16892	194	-20	55	125	116	5
-11348	-3084	10904	-84	150	-166	-15704	1576	-5500	83	66	131	-2640	-5244	15612	17	-139	210	-10580	2084	12812	95	-21	-143	-15212	-1724	-5448	-38	-27	-61	-1256	760	16952	167	13	43	124	117	5
-11304	-3076	10868	-116	147	-148	-15620	1540	-5456	95	21	172	-2764	-5244	15644	22	-149	181	-10520	2084	12932	115	-43	-157	-15220	-1704	-5464	-24	-7	-111	-1284	744	17036	197	-54	13	124	116	5
-11336	-3064	10904	-72	140	-161	-15676	1616	-5404	101	34	139	-2748	-5172	15696	62	-117	205	-10564	2008	12932	103	22	-136	-15276	-1724	-5456	1	-24	-64	-1248	700	17108	175	-12	-13	124	116	5
-11368	-3148	10852	-101	122	-155	-15640	1632	-5560	56	-29	126	-2788	-5188	15684	34	-133	136	-10516	2028	12908	92	26	-134	-15244	-1776	-5416	24	12	-54	-1340	780	17012	173	22	5	124	116	5
-11332	-3088	10788	-138	142	-168	-15628	1580	-5356	40	-31	124	-2764	-5212	15648	-4	-112	187	-10624	2040	13000	107	-17	-175	-15208	-1616	-5552	17	4	-24	-1340	708	17048	220	-16	19	124	116	5
-11376	-3068	10788	-122	133	-163	-15576	1640	-5440	48	3	138	-2732	-5204	15620	-62	-139	170	-10556	2020	12760	148	-42	-137	-15236	-1648	-5452	-57	-31	-41	-1284	772	17116	227	-23	55	124	116	5
-11332	-3072	10776	-125	123	-179	-15620	1580	-5428	50	-81	122	-2820	-5308	15716	-2	-131	179	-10532	2048	12892	110	-27	-134	-15172	-1676	-5476	3	-70	-14	-1228	776	16992	214	-19	75	124	116	5
-11376	-3128	10864	-115	164	-163	-15664	1648	-5456	86	-57	127	-2776	-5240	15700	53	-132	191	-10548	2096	12924	119	-59	-120	-15260	-1684	-5428	-57	-49	-93	-1264	888	17100	239	3	51	124	116	5
-11384	-3092	10816	-109	138	-159	-15660	1632	-5536	54	-35	102	-2696	-5172	15628	60	-139	207	-10592	2064	12912	101	0	-130	-15244	-1708	-5408	-13	-89	-22	-1216	832	17028	148	-8	35	124	116	5
-11304	-3104	10880	-140	118	-180	-15644	1592	-5444	23	-79	133	-2752	-5132	15520	62	-93	172	-10508	1968	12980	111	-23	-108	-15268	-1660	-5484	12	-75	-39	-1240	868	17024	182	10	41	124	116	5
-11360	-3060	10748	-93	141	-153	-15656	1632	-5508	36	-39	99	-2712	-5208	15628	42	-110	161	-10556	2068	12956	145	-25	-150	-15304	-1656	-5344	24	-63	-33	-1244	828	17096	191	-3	37	125	116	5
-11328	-3088	10744	-148	132	-158	-15668	1616	-5420	27	-84	167	-2700	-5240	15700	-7	-122	137	-10540	2000	12928	99	-36	-141	-15144	-1652	-5432	12	-94	-54	-1192	812	17112	151	19	65	124	116	5
-11304	-3080	10776	-107	103	-186	-15600	1616	-5296	4	-43	154	-2696	-5192	15700	8	-93	144	-10504	2044	12992	129	-24	-141	-15232	-1644	-5324	60	-82	-35	-1196	836	16932	124	-13	50	124	116	5
-11332	-3076	10788	-98	145	-134	-15624	1568	-5444	65	-46	138	-2644	-5220	15648	-3	-127	170	-10588	2004	13008	112	3	-144	-15172	-1648	-5416	44	-46	-58	-1208	776	17080	156	-24	53	124	116	5
-11356	-3136	10904	-115	156	-152	-15704	1520	-5332	49	1	133	-2744	-5212	15708	48	-115	153	-10564	2056	12972	129	-62	-145	-15252	-1752	-5464	4	-53	-105	-1236	740	16992	128	20	65	124	116	5
-11340	-3080	10812	-120	145	-168	-15672	1612	-5524	61	3	138	-2724	-5228	15628	19	-89	178	-10564	2060	12932	78	-31	-125	-15248	-1700	-5340	12	-70	-82	-1224	856	17120	132	-17	74	124	116	5
-11368	-3132	10852	-143	177	-133	-15596	1588	-5448	65	0	171	-2700	-5204	15684	27	-103	182	-10536	2028	13000	102	-7	-163	-15260	-1652	-5412	0	-25	-86	-1224	776	17036	155	-9	45	124	116	5
-11368	-3108	10748	-111	109	-121	-15604	1620	-5468	69	23	141	-2784	-5204	15692	-42	-123	145	-10568	2076	12940	95	-1	-139	-15256	-1696	-5388	35	-53	-95	-1224	800	17120	159	4	51	124	116	5
-11352	-3124	10808	-144	133	-182	-15616	1540	-5568	62	2	120	-2784	-5232	15620	12	-121	164	-10528	2084	12960	117	-44	-178	-15260	-1720	-5400	-1	-42	-57	-1304	748	17164	152	23	77	125	116	5
-11288	-3088	10764	-105	138	-170	-15632	1544	-5440	53	-52	124	-2848	-5256	15648	41	-103	218	-10584	1980	12948	88	5	-134	-15220	-1688	-5564	-18	-98	-68	-1324	728	17048	182	-6	77	124	116	5
-11424	-3088	10784	-91	119	-178	-15632	1596	-5540	40	-40	115	-2832	-5212	15744	32	-134	183	-10532	2036	12948	92	-19	-123	-15196	-1696	-5452	24	-96	-52	-1324	740	17044	190	-20	59	125	116	5
-11352	-3056	10812	-97	101	-196	-15588	1668	-5488	6	-50	176	-2776	-5256	15628	78	-123	156	-10528	2092	12928	90	-83	-134	-15212	-1760	-5352	54	-101	-20	-1216	744	16988	174	-40	41	124	116	5
-11328	-3036	10912	-121	138	-147	-15660	1584	-5476	52	-97	106	-2704	-5228	15724	37	-107	173	-10560	2032	12988	99	-50	-140	-15200	-1692	-5412	24	-94	-58	-1184	776	17088	175	-20	45	124	117	5
-11352	-3072	10752	-100	116	-163	-15604	1568	-5384	57	-53	114	-2644	-5260	15652	32	-122	148	-10544	2092	12936	83	-40	-112	-15176	-1640	-5380	9	-35	-106	-1164	752	17040	150	-21	8	124	116	5
-11352	-3148	10908	-74	146	-141	-15700	1532	-5316	74	-15	146	-2676	-5192	15684	8	-119	170	-10524	2064	12932	130	-4	-166	-15268	-1656	-5360	-18	-55	-44	-1180	744	17008	190	2	45	124	116	5
-11288	-3120	10796	-108	167	-143	-15680	1608	-5332	63	8	153	-2704	-5236	15768	-21	-136	171	-10544	2032	13004	108	-10	-171	-15188	-1668	-5424	15	-12	-46	-1200	796	16964	173	19	44	124	116	5
-11396	-3036	10812	-105	146	-115	-15668	1608	-5404	16	-9	120	-2744	-5252	15676	-24	-105	175	-10524	2036	12848	102	-24	-173	-15248	-1656	-5420	-22	-38	-58	-1224	728	17008	183	-16	69	124	116	5
-11404	-3100	10892	-111	126	-171	-15644	1672	-5496	55	-17	152	-2720	-5248	15660	20	-93	197	-10524	2044	13048	110	-23	-152	-15300	-1676	-5316	20	-47	-53	-1200	824	16984	202	-19	68	125	116	5
-11376	-3152	10828	-97	168	-156	-15640	1592	-5568	56	-6	146	-2764	-5228	15680	78	-114	198	-10544	1956	12944	88	-42	-151	-15244	-1664	-5380	2	-26	-103	-1224	760	17064	198	5	98	124	116	5
-11384	-3048	10776	-124	147	-132	-15612	1592	-5384	104	-53	134	-2740	-5264	15736	45	-142	162	-10512	2040	12932	104	0	-173	-15220	-1664	-5328	-9	18	-62	-1268	804	17040	209	-9	79	124	116	5
-11380	-3056	10864	-92	118	-174	-15616	1556	-5432	71	5	151	-2784	-5264	15716	38	-118	184	-10540	2008	12852	114	-13	-173	-15244	-1664	-5500	-12	-37	-80	-1296	796	17012	198	-24	65	124	116	5
-11308	-3136	10792	-96	131	-149	-15644	1568	-5376	85	-14	172	-2700	-5200	15740	41	-107	211	-10576	2012	12908	130	23	-159	-15224	-1652	-5352	28	-2	-109	-1236	732	17060	202	29	53	124	116	5
-11340	-3144	10904	-103	134	-163	-15704	1588	-5372	34	26	139	-2688	-5204	15736	51	-131	173	-10548	2084	12880	76	-29	-157	-15196	-1716	-5404	27	-94	-64	-1260	836	16996	178	-3	66	124	116	5
-11308	-3088	10840	-119	141	-122	-15672	1548	-5464	45	25	161	-2680	-5272	15676	23	-110	155	-10556	2076	12940	93	-27	-126	-15212	-1624	-5304	13	-25	-73	-1264	796	17024	146	-18	40	124	116	5
-11380	-3100	10896	-92	148	-148	-15604	1544	-5380	62	-6	138	-2680	-5168	15572	28	-123	151	-10524	2052	12984	72	-62	-169	-15236	-1704	-5544	-8	-14	-112	-1252	780	17028	167	20	62	124	116	5
-11356	-3080	10804	-111	148	-141	-15628	1612	-5420	67	27	142	-2640	-5240	15576	14	-118	147	-10544	2004	12816	109	-69	-156	-15184	-1712	-5420	-11	-32	-84	-1192	732	17048	214	7	63	124	116	5
-11348	-3172	10880	-142	126	-127	-15648	1572	-5440	87	24	165	-2760	-5248	15816	-17	-113	161	-10536	2056	12920	125	-45	-159	-15244	-1680	-5380	-20	-12	-106	-1260	752	16992	178	-18	45	124	116	5
-11364	-3076	10892	-78	132	-136	-15648	1628	-5532	78	28	151	-2868	-5228	15744	-15	-137	145	-10620	1968	12972	79	-25	-159	-15216	-1692	-5500	15	-43	-43	-1304	784	17124	179	-5	14	124	116	5
-11392	-3152	10804	-80	150	-182	-15640	1628	-5612	92	-33	175	-2836	-5220	15668	48	-95	164	-10580	2056	12948	113	-67	-170	-15200	-1660	-5512	2	-30	-94	-1304	792	17008	215	3	51	124	116	5
-11404	-3144	10900	-132	151	-164	-15676	1604	-5512	59	-9	137	-2860	-5256	15640	53	-101	169	-10564	2040	13032	132	23	-142	-15204	-1664	-5512	-23	-81	-72	-1312	764	17252	201	-21	57	124	116	5
-11324	-3128	10828	-96	144	-171	-15616	1632	-5584	28	-89	110	-2880	-5224	15676	89	-113	175	-10568	2004	12944	117	-75	-146	-15260	-1708	-5512	10	-63	-60	-1324	784	16948	158	-23	106	124	116	5
-11336	-3068	10828	-101	171	-171	-15636	1608	-5460	15	-90	113	-2816	-5228	15800	3	-130	144	-10560	2040	12876	122	-23	-137	-15232	-1684	-5412	27	-94	-42	-1252	804	17088	185	-17	134	124	116	5
-11364	-3084	10828	-142	141	-162	-15684	1588	-5408	29	-99	111	-2672	-5148	15720	-7	-149	170	-10560	2076	12984	124	-35	-149	-15156	-1704	-5532	25	-106	-42	-1156	728	16972	149	-10	115	124	116	5
-11288	-3064	10856	-114	106	-189	-15660	1612	-5400	46	-83	107	-2612	-5236	15780	-19	-129	153	-10524	2068	12996	128	-66	-158	-15224	-1688	-5344	-2	-84	-71	-1108	820	16944	205	1	85	125	116	5
-11300	-3080	10844	-122	135	-172	-15676	1612	-5332	80	-37	152	-2628	-5204	15568	58	-111	159	-10552	2052	12928	106	-13	-174	-15224	-1632	-5224	-25	-27	-53	-1128	756	17096	199	-6	33	124	116	5
-11308	-3100	10836	-123	154	-144	-15676	1628	-5388	74	2	136	-2652	-5148	15704	23	-139	210	-10556	2056	12968	88	-23	-165	-15204	-1652	-5452	-41	-36	-86	-1120	752	16968	213	-62	26	124	116	5
-11360	-3116	10812	-94	182	-175	-15624	1592	-5388	72	-10	89	-2644	-5128	15784	3	-136	185	-10552	2044	12956	98	-13	-175	-15296	-1568	-5432	-48	-26	-103	-1216	792	16932	183	-6	29	124	116	5
-11332	-3116	10708	-118	171	-147	-15620	1640	-5316	86	24	108	-2680	-5204	15720	3	-143	176	-10576	2040	12884	86	-23	-142	-15196	-1664	-5408	-3	29	-113	-1280	764	17100	178	-17	44	124	116	5
-11340	-3096	10776	-54	136	-215	-15636	1548	-5388	110	40	145	-2780	-5244	15708	-55	-138	188	-10552	2072	12920	79	15	-160	-15188	-1640	-5508	-24	-5	-127	-1304	748	17020	170	-8	81	125	116	5
-11312	-3100	10788	-85	172	-127	-15700	1508	-5428	87	22	118	-2792	-5188	15584	-20	-156	204	-10520	2068	12940	102	-41	-176	-15224	-1680	-5400	30	-37	-90	-1340	784	17132	202	-7	101	124	116	5
-11368	-3080	10780	-96	136	-159	-15648	1548	-5416	74	-24	140	-2780	-5308	15668	-24	-130	175	-10592	2040	12872	114	5	-162	-15248	-1688	-5548	0	-33	-108	-1340	776	17068	267	-26	146	125	117	5
-11360	-3124	10724	-146	171	-152	-15700	1572	-5492	43	-17	144	-2804	-5392	15596	6	-145	127	-10616	1996	12944	81	-25	-121	-15208	-1688	-5516	-23	-50	-55	-1368	892	16988	272	-38	209	125	116	5
-11344	-3056	10744	-84	128	-146	-15612	1580	-5532	32	-14	156	-2812	-5324	15660	55	-126	163	-10488	1992	12880	91	4	-149	-15264	-1636	-5480	32	-119	-69	-1356	880	16996	242	-59	210	125	116	5
-11380	-3060	10840	-110	120	-181	-15580	1628	-5448	51	-38	214	-2608	-5256	15620	54	-62	170	-10576	1968	12992	69	23	-120	-15232	-1584	-5452	66	-193	-131	-1428	1068	17200	185	-36	296	125	116	5
-11312	-3020	10700	-106	92	-193	-15604	1588	-5436	22	40	210	-2556	-5256	15664	66	-1	144	-10616	2060	12980	73	-57	-168	-15280	-1524	-5536	-23	-230	-89	-1420	1108	17068	90	32	349	125	117	5
-11304	-3104	10824	-95	92	-152	-15660	1584	-5340	-46	67	239	-2584	-5280	15724	40	78	183	-10612	2080	12904	52	-51	-134	-15292	-1520	-5628	-125	-304	-179	-1456	1080	17172	79	29	468	124	116	5
-11264	-3076	10796	-120	91	-106	-15580	1824	-5148	-2	111	173	-2492	-5056	15888	-42	228	293	-10524	2076	12892	61	-22	-157	-15464	-1424	-5724	-161	-485	-229	-1572	1144	17232	35	40	622	125	116	5
-11320	-3024	10824	-178	131	-163	-15528	2004	-5088	-155	243	153	-2048	-4900	15788	-85	275	553	-10548	2088	12948	69	0	-137	-15392	-1432	-5672	-359	-663	-315	-1572	1200	17204	-115	-17	843	124	116	5
-11304	-3124	10740	-152	212	-179	-15592	1688	-5080	-233	501	65	-2216	-5056	15580	-100	288	576	-10524	2220	12964	-33	83	-141	-15644	-1512	-5608	-279	-766	-443	-1784	1356	17268	-467	23	935	124	116	5
-11432	-3208	10768	-114	169	-230	-15608	1148	-5208	19	683	282	-2328	-5352	15304	-422	218	461	-10436	2220	13108	-174	196	-190	-15764	-1396	-5288	-203	-894	-475	-1528	1516	17312	-300	20	961	125	117	5
-11316	-3192	10780	-124	118	-203	-15728	1036	-5592	358	702	528	-2964	-6296	15392	80	136	388	-10296	2076	13244	-692	577	-57	-16236	-1712	-4948	-295	-1241	-609	-1312	1712	17828	-635	-107	878	125	117	5
-11420	-3212	10764	-48	106	-77	-15592	960	-5716	545	543	726	-3232	-6372	15256	780	223	329	-10380	2304	13412	-1144	1237	111	-16604	-1908	-4856	-174	-1575	-1032	-1220	1648	18164	-1513	406	1068	126	117	5
-11388	-3144	10680	-10	20	-85	-15752	1356	-5852	453	452	868	-3264	-6028	15324	1216	143	399	-10156	2028	13596	-1684	1890	171	-16640	-1708	-4784	-659	-1652	-1268	-1332	1736	18148	-1609	372	1004	125	117	5
-11392	-3096	10752	42	-48	-28	-15636	1488	-5856	69	341	909	-3056	-5544	15428	1264	110	321	-10536	2288	13552	-1897	2564	152	-16316	-1620	-5152	-1329	-1722	-1277	-1548	924	17724	-2465	257	902	124	116	5
