#Activity	standing 
#ActivityID	8 
#Date 09-24-16-01
acc_rf_x	acc_rf_y	acc_rf_z	gyro_rf_x	gyro_rf_y	gyro_rf_z	acc_rs_x	acc_rs_y	acc_rs_z	gyro_rs_x	gyro_rs_y	gyro_rs_z	acc_rt_x	acc_rt_y	acc_rt_z	gyro_rt_x	gyro_rt_y	gyro_rt_z	acc_lf_x	acc_lf_y	acc_lf_z	gyro_lf_x	gyro_lf_y	gyro_lf_z	acc_ls_x	acc_ls_y	acc_ls_z	gyro_ls_x	gyro_ls_y	gyro_ls_z	acc_lt_x	acc_lt_y	acc_lt_z	gyro_lt_x	gyro_lt_y	gyro_lt_z	EMG_r	EMG_l	act
-7224	-2800	14048	-107	163	-188	-16448	896	-3036	77	-22	102	-16044	2732	-1936	159	35	-51	-8524	2344	14196	125	-37	-151	-15560	1112	-4612	13	59	-87	-16148	-388	-1580	-3	-54	140	126	127	8
-7188	-2816	14016	-139	165	-221	-16336	888	-3140	96	33	120	-16048	2664	-2004	176	3	-49	-8572	2376	14244	122	-63	-178	-15504	1068	-4616	-21	59	-99	-16236	-404	-1488	1	-106	131	126	127	8
-7216	-2812	14060	-124	133	-249	-16304	944	-3044	67	9	61	-15972	2740	-1872	191	13	-24	-8552	2292	14220	98	-77	-199	-15604	1004	-4528	-58	52	-88	-16176	-396	-1624	62	-136	115	127	127	8
-7208	-2820	13980	-119	148	-200	-16372	912	-3084	63	35	45	-16064	2728	-1864	167	66	-36	-8548	2276	14324	111	-46	-200	-15604	1084	-4616	10	47	-57	-16136	-400	-1716	59	-48	175	126	126	8
-7216	-2792	13904	-86	115	-239	-16344	868	-3016	115	-6	60	-16052	2700	-1972	158	58	-77	-8508	2328	14200	78	-78	-136	-15544	1092	-4572	39	72	-59	-16292	-424	-1492	-81	-82	88	126	128	8
-7192	-2680	13996	-51	145	-235	-16384	908	-3028	-1	78	61	-16056	2680	-1968	193	16	-40	-8404	3184	14228	142	-21	-94	-15456	980	-4604	-4	86	-97	-16140	-336	-1640	-35	-111	132	127	125	8
-7232	-2828	14012	-111	118	-188	-16412	776	-3148	50	44	81	-16044	2660	-1920	146	-20	-29	-8600	2348	14252	107	-28	-184	-15504	924	-4696	10	107	-66	-16120	-428	-1632	-7	-104	124	127	127	8
-7156	-2828	14020	-111	178	-191	-16380	876	-2996	85	28	91	-16040	2600	-1980	185	27	-36	-8512	2320	14284	138	-88	-168	-15564	1080	-4528	76	104	-37	-16144	-440	-1820	15	-32	160	126	127	8
-7212	-2812	14012	-123	133	-224	-16384	844	-3224	61	13	74	-15984	2640	-2068	146	55	-45	-8636	2264	14348	109	-108	-165	-15540	1116	-4684	-55	77	-70	-16124	-428	-1400	-127	-9	227	127	127	8
-7228	-2760	13956	-105	153	-187	-16392	848	-3212	19	-6	75	-16092	2612	-1992	161	68	-2	-8644	2268	14360	149	-99	-45	-15512	968	-4188	-83	127	-89	-16228	-256	-1460	-58	-224	260	127	127	8
-7244	-2772	14004	-81	166	-212	-16308	812	-3148	123	-14	101	-16084	2636	-2140	184	91	-28	-8404	2076	14432	84	-88	-268	-15560	1160	-4416	26	203	-36	-16088	-536	-1292	-24	-59	331	127	127	8
-7192	-2808	13964	-109	142	-200	-16364	920	-3096	111	-4	108	-15968	2636	-2056	208	37	6	-8684	2300	14356	191	-86	-132	-15488	868	-4052	21	301	-33	-16032	-392	-1164	-5	-198	391	127	127	8
-7168	-2804	14016	-89	147	-194	-16372	812	-2996	123	11	129	-16084	2632	-1944	177	-25	-6	-8680	2148	14344	180	-70	-158	-15604	1092	-4012	164	430	7	-15956	-540	-1004	57	-32	555	127	127	8
-7184	-2800	13984	-97	162	-193	-16356	900	-3036	177	23	95	-16100	2624	-2036	202	33	14	-8532	2812	14192	235	-40	-99	-15508	1076	-3952	4	619	-14	-16416	-224	-592	-176	-342	484	127	127	8
-7228	-2784	13996	-72	136	-199	-16376	848	-3000	153	27	86	-16020	2644	-1976	188	4	-2	-8536	2496	14296	212	388	-80	-15636	1264	-4104	-288	728	28	-16368	-232	-1080	249	-625	355	127	126	8
-7236	-2824	14020	-78	110	-202	-16336	988	-3156	27	60	74	-16028	2704	-1900	129	31	-9	-8968	2168	13980	112	278	-219	-15516	940	-4432	-24	870	87	-16400	-304	-972	38	-973	260	127	127	8
-7176	-2748	14104	-114	128	-189	-16404	772	-3068	70	-17	160	-16048	2708	-1988	81	19	24	-8180	2760	14296	-97	-1	-237	-15552	1176	-4372	148	940	152	-16448	-164	-1468	69	-1493	113	127	127	8
-7284	-2744	13920	-82	125	-194	-16364	928	-3128	90	36	89	-15988	2732	-2048	150	88	-20	-8916	2556	14192	37	219	-286	-15636	1232	-5088	43	946	115	-16300	-260	-1616	167	-1564	56	127	125	8
-7240	-2816	14004	-103	155	-184	-16396	912	-3200	-21	-17	80	-16004	2800	-2068	125	48	-10	-8308	2560	14204	148	135	-272	-15544	1180	-5088	109	825	95	-16168	-292	-2016	199	-1277	191	127	129	8
-7268	-2852	14012	-136	142	-231	-16400	828	-3104	25	-44	53	-15988	2612	-2040	88	54	-20	-8524	2264	14340	35	-13	-410	-15388	1128	-5388	6	687	51	-16164	-416	-2352	349	-974	130	127	131	8
-7236	-2788	13876	-106	138	-191	-16356	888	-3124	15	-11	82	-16036	2748	-1960	125	105	-45	-8464	2452	14360	29	-24	-366	-15416	1064	-5568	103	555	70	-16040	-308	-2268	147	-852	11	127	126	8
-7208	-2824	14032	-107	120	-181	-16416	868	-3064	39	-9	23	-16012	2688	-1932	98	89	-82	-8760	2192	14196	116	47	-248	-15468	1312	-5804	-10	287	-31	-15996	-200	-2580	87	-523	-8	126	127	8
-7192	-2832	14012	-136	114	-202	-16388	932	-3024	-8	-9	38	-16016	2708	-2052	80	119	-64	-8552	2368	14360	46	-70	-220	-15404	1084	-5560	-109	156	-95	-16052	-196	-2392	-230	-215	90	126	125	8
-7264	-2880	14084	-112	127	-215	-16376	868	-2976	-61	-17	64	-16016	2656	-1888	49	102	-65	-8620	2232	14196	52	-70	-138	-15376	1112	-5416	-178	-21	-115	-16232	-252	-2096	-457	-35	44	126	124	8
-7244	-2816	13956	-133	150	-203	-16340	804	-3080	-27	2	90	-16044	2600	-1976	51	87	-80	-8556	2256	14244	85	-123	-116	-15524	1108	-5204	-198	-90	-158	-16156	-452	-1868	-455	69	34	126	126	8
-7212	-2848	13924	-93	148	-213	-16380	868	-3064	30	13	55	-16024	2572	-1904	108	96	-94	-8468	2324	14224	88	-33	-130	-15484	980	-5024	-165	-180	-188	-16244	-596	-1420	-417	61	77	127	127	8
-7152	-2844	14008	-105	150	-184	-16292	820	-3076	19	39	65	-16052	2656	-2052	94	108	-64	-8592	2364	14316	120	-89	-130	-15488	1036	-4856	-22	-165	-95	-16256	-500	-1428	-136	60	36	127	127	8
-7236	-2800	13984	-120	172	-205	-16348	944	-2972	25	75	105	-16004	2524	-1956	96	84	-12	-8628	2280	14200	85	-60	-123	-15488	1000	-4768	59	-146	-90	-16204	-564	-1248	-42	-3	137	127	128	8
-7216	-2912	14040	-128	183	-176	-16348	712	-3116	26	74	97	-16064	2444	-2148	188	75	32	-8496	2296	14268	81	-54	-163	-15400	980	-4640	112	-97	-66	-16172	-580	-816	55	-57	154	127	126	8
-7232	-2792	14036	-86	158	-205	-16372	736	-3192	203	-24	98	-16004	2488	-2144	302	47	-12	-8564	2320	14336	125	-123	-142	-15472	1004	-4612	131	-3	-21	-16272	-496	-968	172	-101	183	127	126	8
-7272	-2796	14008	-85	151	-208	-16320	808	-3164	221	-9	117	-16000	2564	-2224	427	23	20	-8612	2392	14236	92	-18	-191	-15520	1020	-4664	107	39	-33	-16332	-464	-932	320	-122	164	126	127	8
-7184	-2860	14044	-101	153	-180	-16384	768	-3248	178	19	150	-16028	2620	-2084	488	41	58	-8588	2220	14308	154	-49	-197	-15496	1136	-4644	111	36	-20	-16236	-500	-1236	409	-170	190	126	126	8
-7264	-2792	14044	-89	148	-187	-16376	888	-3104	197	8	174	-15976	2648	-1980	427	37	84	-8544	2284	14244	109	-82	-182	-15488	1068	-4944	149	63	-7	-16188	-296	-1544	458	-118	219	126	126	8
-7316	-2812	13968	-131	180	-209	-16388	888	-3136	139	-17	142	-16012	2712	-1936	377	40	58	-8612	2336	14132	120	-4	-187	-15412	1128	-5068	118	77	1	-16132	-224	-1540	289	-139	202	127	129	8
-7228	-2824	13936	-83	156	-182	-16352	784	-2896	128	12	151	-15976	2712	-1880	312	84	46	-8600	2276	14256	120	-34	-205	-15420	1168	-4972	45	16	-15	-16124	-220	-1536	76	-49	183	127	125	8
-7244	-2840	14032	-68	146	-198	-16336	944	-3124	70	15	106	-15996	2728	-2072	224	11	0	-8580	2324	14212	111	-86	-126	-15424	1080	-4988	-90	9	-35	-16152	-292	-1612	-51	-12	159	126	127	8
-7240	-2780	14100	-100	133	-206	-16368	880	-3072	-19	39	134	-15984	2780	-2008	151	34	-18	-8576	2312	14296	85	-52	-178	-15436	1064	-5016	-107	-18	-46	-16200	-420	-1344	-191	10	123	127	125	8
-7232	-2884	14100	-109	130	-167	-16328	852	-3076	-39	50	108	-15952	2688	-2060	56	49	-23	-8608	2288	14328	104	-41	-154	-15448	1044	-4956	-76	-48	-27	-16240	-400	-1384	-225	-46	99	127	126	8
-7164	-2808	14084	-125	141	-176	-16388	908	-3168	-62	29	120	-16008	2700	-2052	49	41	-10	-8480	2336	14164	101	-30	-150	-15536	1056	-4780	-114	11	-51	-16280	-396	-1284	-179	-40	164	126	126	8
-7332	-2804	14032	-110	148	-212	-16368	792	-3084	10	5	127	-16076	2644	-2148	-16	98	-19	-8568	2280	14256	145	-95	-146	-15476	1076	-4804	-137	27	-58	-16240	-452	-1188	-220	-78	171	126	127	8
-7224	-2812	13992	-98	146	-191	-16364	788	-3020	-28	42	80	-15984	2588	-2024	62	50	-25	-8628	2388	14144	95	-83	-160	-15524	1092	-4836	-107	89	-24	-16128	-456	-1196	54	-15	186	127	128	8
-7276	-2800	13880	-145	139	-186	-16336	772	-3160	31	32	106	-16004	2512	-2168	197	33	-13	-8928	2592	14232	162	-60	-91	-15384	868	-5020	25	54	-52	-16100	-452	-1156	98	-37	207	126	125	8
-7208	-2888	13988	-87	180	-224	-16348	872	-3072	149	40	164	-16080	2508	-2084	287	-25	29	-8496	2216	14460	82	-110	-227	-15492	1092	-4872	83	172	30	-16220	-308	-1132	178	-53	246	127	127	8
-7140	-2812	14008	-94	191	-216	-16288	848	-3024	116	77	145	-16052	2612	-1916	295	1	66	-8436	2096	14204	18	-42	-233	-15424	1140	-4972	-11	136	-29	-16252	-336	-1328	119	-5	243	127	125	8
-7184	-2796	13948	-121	154	-207	-16300	836	-3044	132	82	147	-16016	2584	-1924	224	21	64	-8572	2324	14260	135	-132	-163	-15432	944	-4916	57	176	6	-16224	-396	-1484	130	-54	217	127	127	8
-7168	-2852	14060	-138	145	-195	-16384	760	-3072	130	63	140	-16028	2664	-1964	226	44	81	-8592	2268	14176	88	-75	-180	-15448	1100	-4988	59	173	11	-16284	-452	-1504	-52	-116	273	127	128	8
-7212	-2848	14052	-163	187	-154	-16388	884	-3128	66	122	147	-16076	2584	-1924	227	26	43	-8500	2332	14272	103	14	-153	-15600	1232	-4980	-82	152	26	-16324	-360	-1540	-36	-81	236	127	126	8
-7220	-2788	14040	-182	186	-158	-16368	784	-3076	73	137	142	-16000	2640	-1992	235	41	28	-8588	2248	14272	103	-127	-184	-15544	948	-5032	-80	91	26	-16300	-496	-1592	-79	-142	197	126	126	8
-7212	-2972	13868	-179	195	-201	-16312	996	-3064	49	153	161	-16028	2648	-2040	218	27	36	-8712	2312	14188	130	-117	-159	-15520	1096	-5104	-9	70	14	-16120	-412	-1728	24	-68	176	126	126	8
-7244	-2768	14060	-168	214	-170	-16348	752	-3112	108	105	168	-16016	2620	-2096	210	31	35	-8608	2304	14308	123	-30	-166	-15340	1132	-5092	6	42	6	-16112	-316	-1676	-33	13	255	127	127	8
-7280	-2784	13932	-217	212	-161	-16312	892	-3236	123	147	158	-15936	2548	-2072	230	-5	25	-8592	2276	14328	116	-7	-156	-15404	1148	-5012	63	14	7	-16284	-312	-1372	-73	-7	242	127	126	8
-7224	-2880	14104	-245	250	-176	-16288	800	-3116	99	107	184	-16052	2592	-2056	340	13	48	-8708	2324	14284	116	-82	-155	-15536	1188	-4856	-19	-16	24	-16156	-396	-1520	83	-15	231	127	126	8
-7232	-2888	14044	-206	214	-155	-16320	820	-3152	142	98	177	-16080	2612	-2176	381	59	73	-8568	2336	14212	144	-82	-117	-15396	1072	-4908	71	34	-8	-16224	-296	-1356	118	-22	239	127	127	8
-7300	-2856	14008	-152	184	-131	-16348	880	-3168	211	134	190	-16056	2632	-2064	345	33	106	-8608	2284	14252	133	-34	-147	-15524	1140	-4896	-3	56	30	-16244	-360	-1248	11	-27	245	127	127	8
-7276	-2760	13964	-130	170	-155	-16368	824	-3196	211	91	182	-15992	2672	-2076	334	27	127	-8576	2308	14268	141	-54	-154	-15452	1016	-5028	20	65	-20	-16228	-316	-1272	26	-99	169	127	125	8
-7292	-2860	13944	-178	203	-197	-16316	908	-3152	177	167	182	-16092	2748	-2140	360	-50	104	-8452	2288	14220	143	-13	-178	-15504	1132	-5112	39	52	46	-16268	-368	-1436	85	-174	156	127	127	8
-7284	-2796	14008	-136	189	-172	-16328	788	-3312	208	130	150	-16056	2732	-2064	310	1	63	-8568	2260	14268	100	193	-133	-15464	1112	-5012	-29	82	3	-16176	-456	-1492	136	-111	210	127	127	8
-7176	-2800	14040	-147	194	-129	-16372	884	-3260	88	141	155	-15992	2684	-2136	288	24	31	-8532	2276	14144	146	33	-172	-15424	1044	-4948	-31	34	30	-16208	-380	-1572	31	-28	246	127	124	8
-7268	-2812	14048	-113	227	-157	-16304	964	-3136	33	101	193	-15928	2700	-2060	296	58	32	-8592	2332	14344	148	-41	-142	-15512	1160	-5028	19	56	24	-16228	-200	-1444	1	15	207	127	127	8
-7308	-2948	13976	-91	156	-140	-16340	872	-3140	59	101	170	-15980	2644	-2084	220	30	59	-8592	2344	14232	120	-6	-134	-15476	1216	-4944	15	36	52	-16148	-268	-1432	-19	25	220	127	128	8
-7276	-2880	13976	-100	169	-145	-16340	920	-3248	16	134	181	-15972	2656	-2072	218	37	46	-8572	2324	14268	102	10	-160	-15408	1124	-5060	-81	5	-34	-16184	-288	-1688	67	-23	175	127	126	8
-7224	-2784	13980	-131	187	-147	-16332	932	-3272	41	85	202	-16052	2680	-2172	139	35	31	-8556	2284	14268	116	15	-148	-15484	1112	-4948	-49	2	2	-16156	-392	-1576	-48	47	264	127	127	8
-7228	-2816	14004	-173	258	-149	-16332	808	-3240	59	85	182	-16012	2668	-2172	165	0	45	-8620	2336	14252	125	4	-185	-15372	1096	-5108	34	11	18	-16204	-296	-1200	-220	41	235	127	127	8
-7248	-2788	13908	-177	234	-139	-16316	884	-3252	19	94	201	-16036	2656	-2216	257	12	30	-8584	2328	14260	136	-44	-147	-15492	1172	-5016	-1	-10	-32	-16200	-248	-1512	42	16	191	127	127	8
-7312	-2840	13852	-153	231	-142	-16240	900	-3308	50	92	175	-15972	2676	-2212	235	37	48	-8560	2256	14276	130	52	-171	-15436	988	-4992	-14	11	-39	-16148	-392	-1528	66	13	190	127	126	8
-7264	-2868	14128	-133	220	-162	-16312	852	-3320	138	27	120	-15996	2672	-2140	177	41	71	-8636	2308	14256	174	25	-178	-15372	1132	-4912	71	12	7	-16152	-376	-1472	74	27	186	127	126	8
-7292	-2788	13992	-118	198	-147	-16324	864	-3324	137	32	181	-15968	2640	-2236	147	79	57	-8588	2376	14224	148	-42	-154	-15396	1232	-5032	-31	47	-39	-16152	-268	-1412	73	77	235	127	126	8
-7192	-2888	14068	-105	199	-126	-16336	968	-3324	73	9	161	-16008	2696	-2148	161	11	26	-8548	2296	14300	104	41	-165	-15344	1116	-4924	-2	50	-2	-16160	-304	-1344	12	128	257	127	127	8
-7268	-2904	13884	-117	188	-95	-16300	948	-3172	93	32	149	-16036	2708	-2144	184	-10	55	-8604	2284	14316	141	-33	-160	-15408	1100	-4908	-17	120	6	-15976	-332	-1480	83	386	267	127	126	8
-7324	-2856	13924	-156	210	-140	-16344	888	-3264	132	32	103	-16020	2696	-1996	204	-15	70	-8584	2320	14280	127	-61	-156	-15448	1160	-4860	-87	132	-31	-16112	-428	-1136	-42	85	257	127	126	8
-7224	-2828	13940	-115	218	-114	-16288	928	-3244	153	69	141	-15956	2760	-2180	155	17	32	-8628	2300	14244	87	-55	-167	-15456	1132	-4868	-44	93	9	-16068	-356	-1428	176	222	393	127	127	8
-7248	-2848	13864	-177	224	-146	-16376	920	-3316	113	49	111	-16052	2740	-2020	127	4	66	-8796	2120	14172	80	-50	-189	-15504	1164	-4836	-147	211	8	-16024	-352	-1408	354	442	479	127	127	8
-7248	-2812	14008	-164	256	-167	-16360	892	-3340	124	2	136	-15996	2780	-2084	118	17	-1	-8440	2248	14248	4	425	-178	-15352	1012	-5080	-194	273	-3	-15972	-444	-1268	270	635	649	127	127	8
-7324	-2948	13956	-150	301	-158	-16332	940	-3376	194	26	86	-15944	2696	-2172	159	11	11	-8380	2408	14360	114	176	-108	-15504	968	-4784	-98	312	-20	-15828	-432	-1272	109	886	786	127	127	8
-7292	-2868	13864	-130	298	-123	-16320	880	-3192	166	19	110	-16052	2712	-2248	132	-5	63	-8344	2384	14384	124	-30	-153	-15364	1116	-4688	-261	480	21	-15864	-344	-972	-194	1079	925	127	127	8
-7248	-2860	13964	-91	270	-124	-16292	944	-3456	212	-4	117	-16008	2776	-2156	139	-38	20	-8572	2388	14320	-61	115	-228	-15380	1264	-4884	-354	528	8	-15984	-128	-1024	-502	1087	896	127	127	8
-7388	-2896	14012	-133	247	-136	-16240	932	-3428	217	-5	81	-15968	2828	-2248	179	-68	27	-8620	2520	14244	88	171	-123	-15432	1168	-5052	-494	595	-67	-16220	0	-1120	-679	767	803	127	127	8
-7296	-2812	13852	-95	223	-179	-16276	832	-3376	158	43	80	-15908	2852	-2156	87	-108	16	-8652	2108	14148	66	123	-248	-15344	1272	-4784	-346	642	22	-16440	284	-1464	-570	338	567	127	126	8
-7348	-2832	13764	-109	204	-168	-16316	908	-3348	132	26	99	-15876	2800	-2244	44	-88	8	-8784	2132	14356	109	0	-201	-15432	1276	-4964	-414	672	-44	-16524	304	-2068	-215	33	324	127	127	8
-7324	-2812	13964	-144	187	-189	-16324	880	-3404	39	-20	84	-15996	2764	-2260	-9	-55	-19	-8760	2180	14256	44	6	-236	-15544	1132	-5196	-336	679	-4	-16596	188	-2204	-307	-249	244	127	126	8
-7364	-2848	13928	-111	172	-212	-16316	928	-3352	2	-35	53	-15992	2800	-2264	-51	-41	-44	-8636	2156	14288	10	162	-279	-15496	1212	-5472	-321	579	20	-16628	108	-2192	-581	-409	229	127	126	8
-7320	-2860	13892	-131	146	-186	-16272	956	-3384	-1	-51	73	-15948	2900	-2208	-155	-15	-39	-8564	2160	14376	-35	147	-293	-15420	1096	-5560	-240	524	25	-16464	140	-2188	-731	-636	146	127	127	8
-7320	-2828	13892	-117	160	-202	-16340	928	-3292	-142	-72	19	-15916	2772	-2048	-192	-28	-74	-8656	2104	14292	38	76	-177	-15396	1180	-5512	-368	481	27	-16208	-24	-2136	-698	-736	135	127	126	8
-7388	-2868	13944	-156	169	-213	-16340	820	-3300	-170	-103	20	-16080	2628	-2132	-251	-20	-56	-8700	2668	14156	53	162	-130	-15388	1196	-5492	-393	354	-53	-15980	-280	-2132	-581	-533	89	127	126	8
-7344	-2824	13912	-109	130	-140	-16304	868	-3140	-152	-34	39	-16044	2588	-2032	-228	-51	-78	-8792	2196	14236	54	89	-177	-15224	1180	-5760	-382	240	-58	-15896	-264	-2016	-607	-301	103	127	126	8
-7324	-2912	13960	-98	137	-198	-16296	740	-3164	-111	-24	28	-16044	2512	-1932	-182	-76	-88	-8600	2268	14268	125	-42	-133	-15124	1236	-5524	-334	169	-83	-16140	-52	-1904	-527	-362	61	127	128	8
-7252	-2796	13884	-58	117	-204	-16316	748	-3248	0	-27	53	-15940	2516	-1884	-80	-63	-71	-8600	2408	14232	51	-92	-154	-15384	1304	-5276	-472	138	-86	-16676	220	-2284	-216	-768	35	127	126	8
-7288	-2728	13912	-44	100	-209	-16228	872	-3244	51	27	84	-15976	2664	-2076	27	3	-47	-8616	2344	14248	17	-9	-189	-15492	1108	-5412	-412	73	-119	-16492	-76	-2112	-64	-1159	65	127	127	8
-7372	-2912	13940	-77	77	-180	-16348	920	-3308	-34	30	68	-15976	2688	-2060	57	5	4	-8696	2292	14268	62	-49	-170	-15304	1040	-5440	-146	-35	-71	-15824	-428	-1680	-119	-934	133	127	127	8
-7328	-2840	14040	-85	111	-190	-16372	736	-3340	-54	26	71	-16060	2572	-2096	68	-2	-25	-8652	2212	14300	99	-17	-149	-15248	1312	-5408	-67	-21	-122	-15752	-500	-1412	-366	-145	252	127	127	8
-7316	-2892	13980	-45	104	-189	-16272	840	-3268	47	8	105	-16088	2568	-2108	188	-76	15	-8708	2268	14176	55	-80	-118	-15240	1256	-5316	-171	-3	-158	-16536	-164	-1232	-676	-453	206	127	124	8
-7312	-2852	13996	-13	150	-195	-16276	816	-3312	45	-25	74	-15924	2616	-1948	217	-117	34	-8636	2292	14324	66	-97	-137	-15356	1224	-5256	-211	-29	-95	-16844	180	-1600	91	-1407	-42	127	126	8
-7276	-2820	13864	-60	131	-189	-16324	872	-3340	28	15	118	-15988	2592	-2120	186	-33	35	-8604	2328	14220	65	-88	-213	-15544	996	-5304	-112	-33	-5	-16364	-160	-1968	1046	-1516	-188	127	126	8
-7324	-2900	13900	-17	131	-180	-16308	824	-3252	97	-11	107	-16036	2736	-2072	195	-25	37	-8660	2156	14228	101	5	-183	-15352	1124	-5520	175	-77	-8	-15668	-592	-1812	394	-1036	146	127	127	8
-7300	-2792	13944	-81	139	-217	-16308	888	-3452	14	3	116	-15968	2704	-2184	189	-62	3	-8688	2264	14192	112	-9	-132	-15224	1312	-5400	-3	-141	-88	-15792	-488	-1452	-492	-178	346	127	127	8
-7388	-2776	13956	-61	146	-229	-16256	872	-3272	27	1	121	-15980	2672	-2120	160	-63	15	-8616	2208	14292	77	-92	-90	-15280	1184	-5248	-174	-163	-78	-16376	28	-868	-638	-320	221	127	126	8
-7352	-2864	13868	-62	138	-219	-16236	816	-3332	0	-16	144	-15940	2688	-2080	125	-36	37	-8608	2376	14228	113	-121	-131	-15412	1292	-5160	-135	-142	-98	-16448	32	-1500	112	-773	-16	127	129	8
-7340	-2860	13912	-73	128	-210	-16292	752	-3224	60	-33	147	-16020	2620	-2060	157	-84	-3	-8568	2388	14256	55	-107	-180	-15420	1236	-5376	-39	-172	-8	-16260	-140	-1880	827	-659	-87	126	126	8
-7272	-2832	13940	-68	120	-205	-16384	816	-3384	5	-94	132	-16052	2604	-2020	123	-113	10	-8592	2300	14124	76	-107	-193	-15252	1252	-5284	95	-218	-57	-15796	-476	-1644	250	-438	122	127	126	8
-7320	-2824	13932	-86	101	-174	-16380	884	-3296	7	-37	156	-16024	2652	-2020	70	-149	43	-8544	2244	14312	82	-176	-148	-15180	1148	-5300	105	-205	-61	-16252	-104	-1228	-301	-280	210	126	126	8
-7356	-2856	13984	-100	124	-231	-16292	824	-3252	-12	-53	139	-16020	2692	-2236	6	-126	20	-8664	2244	14216	102	-170	-144	-15412	1264	-5276	-129	-217	-80	-16296	-140	-1460	-320	-226	58	126	123	8
-7332	-2868	13952	-116	134	-242	-16392	768	-3352	57	-83	131	-16052	2656	-2112	81	-49	37	-8680	2340	14192	107	-66	-125	-15380	1240	-5152	-155	-216	-84	-16248	-396	-1584	43	-175	124	126	125	8
-7360	-2832	13968	-95	112	-229	-16280	752	-3332	62	-97	147	-16056	2572	-2120	100	-78	44	-8624	2160	14280	102	-145	-149	-15328	1132	-5288	-76	-209	-28	-16156	-300	-1260	173	-14	209	127	126	8
-7336	-2868	14000	-67	138	-206	-16300	852	-3364	88	-121	176	-16000	2604	-2240	196	-99	25	-8664	2248	14212	113	-100	-131	-15304	1092	-5084	59	-220	-25	-16152	-396	-1312	232	-56	173	127	126	8
-7344	-2804	13880	-111	158	-259	-16320	904	-3308	71	-104	165	-16012	2612	-2052	198	-161	21	-8664	2268	14308	166	-127	-142	-15256	1196	-5000	116	-220	-2	-16544	-152	-944	9	-348	70	126	124	8
-7340	-2816	13940	-63	120	-237	-16356	760	-3176	196	-110	207	-16016	2700	-2124	305	-161	32	-8604	2172	14348	159	-141	-178	-15380	1280	-5356	-92	-174	-1	-16212	-304	-1452	152	-370	62	126	126	8
-7312	-2808	14008	-65	105	-237	-16332	880	-3304	65	-151	189	-16004	2604	-2108	265	-122	49	-8556	2284	14356	135	-101	-100	-15316	1044	-5176	37	-144	2	-16204	-332	-1508	265	-343	182	126	124	8
-7324	-2844	13932	-61	84	-234	-16336	888	-3376	98	-190	214	-16028	2676	-2328	254	-35	99	-8528	2264	14236	148	-130	-139	-15324	1224	-5216	146	-166	18	-16228	-88	-1416	157	-276	302	126	127	8
-7324	-2832	13900	-51	71	-255	-16348	860	-3392	120	-198	195	-15936	2616	-2240	284	-40	88	-8556	2220	14232	104	-125	-164	-15404	1344	-5468	14	-191	-6	-16212	-88	-1528	378	-239	204	126	124	8
-7300	-2812	13864	-17	92	-234	-16308	844	-3260	49	-219	236	-16036	2740	-2100	327	-41	75	-8652	2156	14324	134	-160	-173	-15312	1048	-5380	82	-277	1	-16020	-284	-1784	401	-65	234	126	125	8
-7320	-2840	13924	-60	63	-213	-16292	888	-3248	119	-197	227	-16028	2736	-1904	333	-109	87	-8536	2220	14272	80	-107	-71	-15340	1148	-5420	102	-290	-29	-16224	-104	-1480	181	-78	191	126	124	8
-7292	-2784	14004	-81	105	-220	-16380	928	-3252	142	-193	193	-16024	2732	-1852	264	-187	85	-8516	2160	14344	123	-138	-98	-15348	1100	-5092	19	-300	-66	-16404	-40	-1288	54	-205	195	126	123	8
-7304	-2796	13968	-67	128	-210	-16284	912	-3092	118	-194	192	-16016	2828	-1876	286	-171	84	-8564	2360	14264	168	-27	-95	-15400	1276	-5084	-191	-225	-71	-16312	-196	-1088	4	-241	201	126	128	8
-7308	-2852	13972	-49	150	-222	-16304	872	-3120	119	-146	171	-15996	2764	-1936	212	-114	66	-8620	2388	14108	186	-66	-118	-15472	1240	-5456	47	-296	-29	-16124	-288	-1588	190	-109	147	126	123	8
-7336	-2836	13860	-78	88	-198	-16348	928	-3084	124	-179	157	-16104	2780	-1908	180	-95	34	-8664	2360	14300	124	-47	-121	-15372	1200	-5196	110	-306	-13	-16136	-212	-1532	75	-107	229	126	126	8
-7268	-2812	13972	-84	119	-224	-16364	848	-3236	69	-144	161	-16116	2748	-2040	170	-124	28	-8476	2304	14236	144	-79	-87	-15360	1340	-5040	-7	-276	-40	-16264	-72	-1240	39	-122	290	126	128	8
-7272	-2836	13908	-88	120	-206	-16348	904	-3272	82	-154	186	-16032	2724	-2076	159	-147	44	-8588	2300	14204	136	-65	-110	-15416	1188	-5208	5	-262	-68	-16228	-120	-1116	36	-303	175	126	127	8
-7356	-2860	13964	-83	113	-253	-16328	944	-3224	157	-155	183	-16036	2636	-1980	276	-146	31	-8588	2248	14244	124	-86	-162	-15436	1216	-5092	3	-210	-38	-16332	-124	-1268	375	-321	129	126	124	8
-7328	-2788	13996	-56	131	-245	-16288	932	-3248	159	-139	161	-16008	2720	-2096	277	-131	51	-8532	2176	14256	141	-28	-157	-15388	1260	-5168	20	-224	-31	-16128	-296	-1528	344	-98	171	126	125	8
-7324	-2848	13916	-62	112	-216	-16312	816	-3308	187	-139	196	-16044	2676	-1924	278	-167	75	-8520	2284	14332	136	-135	-112	-15320	1116	-5196	156	-263	-9	-16276	-168	-1188	110	-252	255	126	126	8
-7360	-2832	13936	-93	95	-191	-16280	880	-3228	202	-110	160	-16028	2732	-2040	295	-125	60	-8560	2348	14332	118	-63	-129	-15496	1376	-5196	-4	-288	-94	-16224	-28	-1536	206	-189	205	126	125	8
-7300	-2800	13868	-82	112	-240	-16348	964	-3212	92	-196	180	-15912	2740	-1912	277	-125	36	-8576	2248	14180	157	-12	-144	-15440	1244	-5040	-52	-299	-112	-16252	-128	-1348	-56	-286	130	126	127	8
-7300	-2832	13948	-90	97	-188	-16360	828	-3124	127	-173	157	-16032	2836	-1976	282	-122	31	-8728	2044	14080	146	-65	-87	-15448	1424	-5304	-90	-336	-123	-16096	-136	-1588	173	-138	73	126	125	8
-7316	-2828	13856	-57	151	-201	-16320	1004	-3132	81	-202	123	-15992	2840	-1932	209	-153	14	-8684	2336	14192	110	-27	-126	-15324	1028	-5204	51	-377	-74	-16156	-172	-1568	174	-75	168	127	124	8
-7232	-2776	14000	-119	169	-224	-16316	996	-3120	9	-190	167	-16084	2740	-2052	191	-133	-2	-8432	1896	14296	134	-99	-167	-15356	1272	-5036	141	-407	-57	-16284	0	-1092	43	-209	132	126	128	8
-7332	-2840	13948	-128	148	-202	-16396	892	-3256	-36	-185	143	-15984	2716	-2052	136	-106	-16	-8608	2200	14320	127	-123	-145	-15424	1216	-5300	-58	-405	-126	-16200	-176	-1396	52	-244	45	126	126	8
-7296	-2876	13864	-84	147	-253	-16260	920	-3152	51	-208	141	-16012	2664	-2028	145	-165	10	-8796	2416	14212	122	-54	-75	-15392	1152	-4964	-134	-398	-90	-16164	-232	-1580	1	-190	147	126	128	8
-7292	-2888	13972	-95	154	-220	-16340	948	-3152	0	-234	102	-16112	2720	-1996	37	-141	8	-8608	2496	14208	115	-12	-105	-15396	1320	-5152	28	-436	-136	-16152	-144	-1212	-28	-133	128	126	126	8
-7272	-2860	13980	-68	158	-213	-16316	880	-3172	25	-258	119	-15992	2672	-2048	57	-146	2	-8428	2212	14328	124	-115	-129	-15396	1220	-4668	14	-423	-108	-16232	-136	-1436	212	-84	90	126	124	8
-7288	-2784	13912	-66	138	-241	-16356	924	-3300	61	-250	118	-16024	2704	-2040	183	-120	-1	-8608	2440	14288	157	-112	-75	-15476	1252	-4880	-22	-364	-108	-16324	-176	-1024	35	-193	124	126	126	8
-7384	-2708	13884	-115	131	-244	-16324	1020	-3200	23	-297	149	-16024	2716	-2076	200	-155	-1	-8556	2336	14200	166	-44	-110	-15536	1136	-5032	66	-407	-159	-16120	-184	-1492	220	-235	142	126	123	8
-7376	-2900	13964	-92	112	-256	-16340	852	-3176	69	-318	146	-15932	2760	-1948	226	-113	0	-8368	2284	14256	119	-49	-147	-15440	1132	-4864	-39	-384	-103	-16196	-180	-940	-102	-161	181	126	127	8
-7372	-2816	13900	-94	113	-228	-16348	884	-3040	35	-325	129	-16028	2704	-1972	156	-67	4	-8540	2448	14300	118	-24	-151	-15452	1224	-4832	-24	-337	-107	-16280	-120	-1200	28	-82	173	126	124	8
-7260	-2908	13944	-93	96	-264	-16320	944	-3180	31	-352	132	-16072	2676	-2072	82	-53	-21	-8536	2300	14296	151	-74	-106	-15408	1180	-4844	-30	-348	-65	-16556	-56	-1264	7	-252	20	126	124	8
-7340	-2864	13976	-76	64	-283	-16368	908	-3328	-27	-333	120	-16052	2768	-2204	-52	27	-55	-8424	2360	14264	89	-88	-119	-15424	1284	-4936	78	-338	-68	-16232	-176	-1376	99	-269	76	127	127	8
-7280	-2920	13948	-71	42	-241	-16368	1052	-3176	-71	-363	134	-16020	2748	-2048	-76	30	-46	-8572	2272	14252	100	-49	-155	-15356	1132	-5084	44	-349	-138	-16100	-72	-1396	133	-296	50	126	126	8
-7256	-2920	13940	-56	44	-268	-16396	820	-3148	-104	-445	160	-16016	2732	-2164	-201	172	-47	-8496	2524	14236	91	7	-143	-15460	1312	-5032	85	-371	-140	-16504	180	-1152	-26	-64	-2	126	127	8
-7224	-2804	13964	-58	27	-246	-16348	976	-3148	-180	-492	141	-15920	2784	-2252	-158	223	-70	-8804	2380	14208	31	-8	-122	-15620	1232	-4696	-118	-337	-175	-16232	-244	-1404	-66	-136	144	126	126	8
-7188	-2916	13972	-77	36	-259	-16420	920	-3216	-174	-578	126	-16032	2760	-2320	-126	226	-73	-8616	2092	14108	92	-130	-108	-15428	1196	-5076	-8	-352	-129	-16092	-348	-1240	-31	-133	119	126	128	8
-7332	-2656	14124	-92	47	-259	-16352	968	-3152	-188	-594	115	-15948	2760	-2112	-69	189	-71	-8552	2220	14328	124	-5	-131	-15488	1232	-4976	71	-421	-109	-16380	-92	-1384	299	-48	36	126	127	8
-7296	-2740	13972	-138	79	-313	-16420	928	-3016	-245	-664	172	-15976	2784	-2088	-24	169	-69	-8352	2312	14384	142	-24	-127	-15520	1144	-4884	50	-454	-155	-16280	-100	-1308	98	46	72	126	128	8
-7380	-2868	13960	-154	128	-330	-16396	980	-3228	-286	-692	160	-15988	2740	-2144	-14	154	-47	-8444	2272	14280	85	35	-129	-15572	1284	-5296	-125	-483	-190	-16208	-224	-1884	47	172	22	126	128	8
-7264	-2720	14024	-131	79	-291	-16416	940	-3128	-358	-712	148	-15992	2748	-1952	-76	214	-78	-8312	2028	14212	149	-85	-159	-15560	1008	-4672	-49	-594	-174	-16072	-276	-1432	28	259	97	127	126	8
-7272	-2988	14044	-207	100	-258	-16360	912	-2876	-320	-701	99	-16044	2656	-1968	-56	217	-65	-9020	2424	14088	174	-33	-13	-15580	1096	-4908	-27	-608	-247	-16240	-252	-1500	2	181	29	126	126	8
-7212	-3104	13960	-184	117	-344	-16436	956	-2756	-300	-626	145	-16136	2732	-1844	-32	177	-118	-8484	2008	14304	164	-38	-146	-15508	1216	-4680	-16	-695	-177	-16148	-228	-1452	140	248	-49	127	129	8
-7140	-2924	13964	-200	128	-292	-16388	944	-2848	-268	-626	117	-15968	2752	-1792	-2	167	-89	-8736	2492	14200	213	-83	-69	-15540	1124	-4924	-21	-684	-186	-16288	-280	-1388	-121	141	0	127	128	8
-7236	-3224	13956	-170	118	-317	-16396	968	-2748	-236	-585	99	-16104	2672	-1708	69	87	-86	-8452	2120	14332	141	-66	-129	-15488	1184	-4780	34	-736	-163	-16068	-284	-1364	-108	14	13	127	125	8
-7116	-3124	14064	-130	148	-270	-16332	840	-2392	-257	-510	104	-16024	2676	-1764	89	20	-55	-8572	2560	14312	181	-107	-32	-15448	1184	-4544	92	-677	-182	-16172	-388	-1004	-56	-49	27	126	126	8
-7256	-3000	14020	-156	171	-298	-16412	892	-2612	-89	-535	82	-16068	2636	-1860	237	-81	-93	-8592	2748	14312	113	-2	-45	-15432	1192	-4460	168	-631	-159	-16152	-328	-992	13	-156	15	126	126	8
-7292	-2780	13852	-164	156	-288	-16448	948	-3020	144	-467	112	-16072	2608	-1892	233	-87	-53	-8312	2692	14396	36	-29	-55	-15448	1196	-4312	133	-539	-147	-16116	-196	-1108	387	-183	17	126	130	8
-7264	-3244	13944	-200	102	-266	-16472	884	-2480	67	-406	98	-15948	2612	-1848	343	0	-31	-8600	2072	14144	121	-117	-156	-15512	1068	-4132	185	-481	-129	-16192	-228	-888	351	-227	27	126	125	8
-7072	-2756	13940	-106	86	-273	-16412	920	-2424	124	-400	86	-16064	2588	-1720	396	-59	-22	-8548	2460	14272	150	-173	-39	-15604	1180	-4248	225	-350	-146	-16516	-44	-728	63	-490	94	127	126	8
-7228	-2584	14056	-83	118	-248	-16412	904	-2336	199	-351	73	-16004	2648	-1924	469	-23	-29	-8452	2448	14240	90	-50	-129	-15644	1180	-4312	144	-265	-132	-16352	-208	-892	232	-535	70	127	125	8
-7176	-2588	14104	-82	108	-279	-16320	948	-2400	206	-348	100	-16120	2692	-1852	443	-139	2	-8420	2252	14336	112	-94	-203	-15624	1112	-4392	122	-229	-88	-16204	-360	-1012	421	-475	-1	127	127	8
-7180	-2792	14000	-92	106	-251	-16412	888	-2392	180	-300	59	-16096	2772	-1752	357	-121	-7	-8552	2340	14256	82	-73	-178	-15628	1080	-4612	252	-211	-98	-16152	-384	-1280	413	-399	44	127	131	8
-7268	-2924	13892	-97	135	-239	-16388	896	-2396	177	-269	81	-16052	2744	-1700	323	-169	-54	-8592	2348	14188	94	-44	-176	-15600	1168	-4788	212	-248	-116	-16084	-204	-1252	266	-399	52	127	126	8
-7260	-2896	13924	-83	123	-218	-16384	968	-2556	144	-229	83	-16056	2684	-1720	180	-197	-99	-8572	2276	14320	65	-47	-182	-15576	1124	-4656	164	-230	-139	-16276	-256	-1564	166	-477	-20	127	125	8
-7248	-2884	13964	-112	101	-246	-16496	992	-2720	54	-216	48	-15984	2740	-1780	32	-179	-100	-8520	2260	14244	48	-88	-125	-15540	1124	-4804	47	-276	-139	-16064	-364	-1428	78	-471	-116	127	126	8
-7308	-2776	13888	-102	136	-227	-16408	952	-2644	49	-193	14	-16032	2748	-1936	38	-164	-116	-8596	2292	14348	51	-71	-151	-15488	1016	-4616	60	-287	-142	-16084	-192	-1412	24	-438	33	127	127	8
-7324	-2780	13844	-150	131	-237	-16444	864	-2616	39	-227	39	-15972	2644	-1992	-31	-154	-158	-8528	2316	14192	84	-65	-135	-15700	1132	-4720	121	-304	-172	-16200	-376	-1068	-184	-366	92	127	123	8
-7280	-2816	13972	-110	123	-225	-16488	920	-2728	33	-215	21	-15972	2644	-2056	1	-183	-92	-8504	2244	14328	79	-128	-207	-15612	808	-4352	150	-240	-133	-16292	-396	-928	-122	-493	31	127	130	8
-7288	-2888	14056	-122	150	-210	-16452	864	-2788	110	-264	38	-16036	2560	-2112	40	-192	-128	-8464	2396	14316	98	-93	-171	-15740	1104	-4448	150	-242	-172	-16424	-440	-1304	181	-574	-107	127	127	8
-7272	-2988	13976	-133	168	-254	-16376	908	-2736	114	-252	60	-16056	2612	-1984	146	-220	-108	-8664	2532	14316	130	-15	-153	-15572	1044	-4616	149	-296	-158	-16208	-388	-1104	199	-495	17	127	127	8
-7180	-2788	13912	-126	175	-220	-16456	828	-2624	86	-265	56	-16052	2636	-1936	171	-262	-65	-8440	2372	14316	78	-44	-165	-15616	1188	-4604	371	-308	-110	-16164	-348	-1388	281	-311	82	127	125	8
-7268	-2912	13856	-98	166	-227	-16392	844	-2580	115	-275	52	-16000	2576	-1808	202	-299	-51	-8708	2348	14260	139	-95	-172	-15588	1032	-4544	201	-370	-123	-16268	-412	-1176	193	-447	18	127	129	8
-7212	-2832	13920	-122	188	-242	-16380	860	-2712	120	-301	107	-16004	2668	-1864	264	-289	-73	-8552	2356	14296	133	-77	-115	-15620	1056	-4568	382	-340	-125	-16300	-376	-1376	350	-489	-33	127	124	8
-7280	-2896	13948	-154	154	-232	-16488	876	-2668	150	-291	78	-15976	2720	-1792	217	-223	-89	-8684	2376	14316	56	-95	-154	-15704	1004	-4552	179	-432	-110	-16284	-392	-1348	295	-338	-60	127	127	8
-7288	-2948	13992	-138	156	-242	-16424	972	-2496	62	-301	73	-16060	2644	-1792	158	-255	-59	-8488	2196	14320	118	-41	-116	-15712	880	-4476	208	-419	-122	-16304	-280	-1276	160	-439	-12	127	127	8
-7316	-2964	13928	-131	143	-225	-16504	916	-2488	0	-314	92	-16104	2664	-1784	113	-206	-85	-8256	2288	14276	151	-102	-179	-15628	948	-4328	202	-484	-148	-16296	-196	-1224	-72	-382	-74	127	127	8
-7240	-2892	13944	-101	165	-260	-16428	984	-2460	-37	-262	37	-16096	2588	-1800	82	-293	-109	-8236	1856	14252	127	-50	-191	-15596	1032	-4324	-58	-506	-139	-16168	-552	-1228	-90	-554	-202	127	127	8
-7256	-2912	13972	-115	153	-255	-16420	832	-2532	19	-284	83	-16092	2588	-1672	101	-305	-69	-8500	1924	14212	181	-169	-108	-15600	880	-4056	26	-516	-154	-16340	-396	-1264	-20	-720	-202	127	127	8
-7200	-2880	14000	-115	142	-247	-16488	892	-2504	96	-316	77	-16124	2628	-1748	82	-368	-68	-8716	2032	14340	206	-135	-100	-15568	1136	-4308	137	-479	-136	-15976	-516	-912	-83	-781	-136	128	128	8
-7256	-2880	13964	-128	187	-216	-16500	956	-2520	87	-291	79	-16060	2580	-1692	62	-341	-78	-8460	2328	14324	104	-49	-127	-15572	1104	-4148	117	-455	-129	-16152	-448	-684	-62	-612	1	127	123	8
-7180	-2808	13932	-149	121	-248	-16508	804	-2564	44	-283	71	-16148	2556	-1968	-61	-309	-43	-8460	2356	14324	136	-109	-96	-15596	1012	-3960	-46	-378	-189	-16120	-408	-752	-78	-763	8	126	127	8
-7256	-2860	13916	-92	132	-258	-16444	904	-2472	40	-311	68	-16224	2468	-2056	-52	-449	48	-8596	2320	14312	70	-113	-151	-15624	940	-4120	9	-314	-71	-16224	-464	-808	93	-736	42	127	126	8
-7252	-2816	14064	-107	145	-250	-16500	936	-2528	80	-290	73	-16128	2596	-2064	41	-519	65	-8596	2376	14196	88	-18	-108	-15652	940	-4248	19	-260	-104	-16108	-452	-592	-49	-692	192	127	126	8
-7240	-2880	13964	-132	167	-283	-16444	924	-2588	-14	-314	64	-16100	2604	-1808	-59	-621	160	-8420	2336	14368	117	-50	-106	-15684	1008	-4064	53	-181	-81	-16308	-432	-620	-89	-589	205	127	127	8
-7276	-2964	13916	-103	149	-278	-16472	884	-2392	-2	-328	92	-16164	2668	-1616	-189	-559	138	-8412	2376	14312	83	-95	-151	-15728	1024	-4160	-59	-185	-79	-16448	-460	-1076	-8	-560	73	127	127	8
-7320	-2900	14012	-100	129	-294	-16484	860	-2328	37	-288	99	-16080	2584	-1364	27	-664	61	-8420	2316	14336	153	-99	-133	-15728	992	-4392	-241	-195	-68	-16244	-468	-1184	23	-619	133	128	127	8
-7200	-2912	13968	-95	96	-247	-16496	744	-2212	131	-282	106	-16264	2584	-1416	-71	-651	115	-8468	2204	14296	121	7	-103	-15580	1036	-4976	-41	-278	-47	-16200	-396	-1368	38	-519	141	127	128	8
-7196	-2852	13948	-95	117	-218	-16548	976	-2476	241	-298	112	-16300	2524	-1760	-255	-505	240	-8644	2160	14296	123	-111	-126	-15604	972	-4548	-151	-358	-94	-16328	-524	-1348	-156	-439	138	128	126	8
-7388	-2248	14052	-72	126	-157	-16544	924	-2420	-52	-311	114	-16704	2536	-1560	-384	-690	479	-8544	2176	14244	149	-63	-92	-15652	912	-4680	-10	-433	-88	-16304	-532	-1072	-156	-479	54	126	125	8
-7168	-2876	13972	-108	143	-258	-16552	688	-2616	247	-348	172	-17096	2564	-1828	-72	-992	943	-8412	2256	14244	148	-56	-97	-15688	936	-4488	41	-529	-75	-16252	-648	-1024	-200	-574	72	125	127	8
-7120	-3160	13864	-176	136	-231	-16364	992	-2356	112	-348	63	-17132	2752	-1976	537	-955	1280	-8388	2240	14168	220	-47	-80	-15652	968	-4284	35	-560	-47	-16760	-260	-780	-5	-415	86	133	128	8
-7188	-3008	14008	-124	185	-276	-16560	968	-2084	-20	-375	161	-16544	2864	-1428	592	-467	1494	-8524	1852	14524	151	-92	-146	-15600	984	-4148	83	-520	-73	-16284	-508	-964	-90	-403	98	128	129	8
-7204	-2660	14056	-169	151	-226	-16432	736	-2400	11	-370	132	-17152	2652	-1856	98	-20	1857	-8240	1940	14620	174	8	-186	-15600	1128	-4092	-17	-562	-97	-16760	-256	-512	-22	-274	47	126	128	8
-7524	-2716	13988	-131	186	-184	-16536	1056	-2344	-43	-418	137	-16032	2748	-1684	566	-17	1751	-8520	1944	14372	132	-30	-101	-15592	1060	-4044	-28	-569	-87	-16264	-472	-980	-244	-548	68	134	126	8
-7360	-3108	13888	-195	142	-225	-16376	792	-2040	-287	-395	151	-16532	2900	-1464	1157	293	1601	-8588	1932	14304	118	-126	-65	-15668	1040	-3912	-98	-587	-73	-16220	-356	-784	-395	-668	53	126	128	8
-7412	-3080	13856	-117	188	-256	-16484	812	-2192	27	-470	126	-14820	3076	-1364	2292	-496	1463	-8388	2048	14296	154	-81	-65	-15760	1076	-4320	-171	-577	-79	-16108	-548	-1048	-293	-633	40	128	125	8
-7296	-2928	13812	-73	194	-211	-16512	848	-2964	27	-454	215	-14008	3264	-2112	1699	-746	999	-8328	2792	14268	90	-107	-58	-15708	992	-4328	-206	-590	-43	-16380	-364	-980	-348	-579	141	128	128	8
-7060	-3300	14048	-50	61	-257	-16372	620	-2440	139	-542	198	-15312	3468	-2028	1393	-140	581	-8540	2848	14296	124	-25	-42	-15640	892	-4208	-206	-629	-68	-16184	-464	-964	-840	-671	132	136	128	8
-7268	-2824	14040	-9	138	-240	-16708	1188	-2676	-54	-667	170	-15688	3364	-2344	733	-85	588	-8668	2464	14192	4	-21	-60	-15772	900	-3924	-259	-677	-120	-16180	-468	-1044	-697	-722	64	135	125	8
-7296	-2696	13924	-95	176	-307	-16556	1088	-2732	-530	-761	159	-15616	3216	-2032	-139	155	430	-8620	2412	14324	91	-72	2	-15736	924	-4064	-377	-680	-54	-16776	-612	-636	-502	-499	22	125	126	8
-7212	-2904	13956	-81	186	-337	-16488	768	-2464	-614	-790	140	-15856	3016	-1484	-156	-38	162	-8608	2220	14284	169	-94	-28	-15708	980	-4224	-258	-708	-64	-16224	-560	-824	-504	-648	74	132	130	8
-7304	-2996	13896	-142	256	-386	-16464	812	-2072	-373	-797	177	-15980	3064	-952	-88	-367	119	-8448	2516	14236	96	-194	42	-15728	1076	-4136	-123	-768	-89	-16208	-292	-760	-436	-463	-6	128	122	8
-7144	-3100	13972	-80	210	-384	-16444	824	-1588	-377	-698	148	-16156	2960	-888	-26	-307	148	-8508	2460	14276	84	-67	20	-15680	1056	-4016	-170	-796	-113	-16196	-364	-792	-467	-358	2	129	128	8
-7316	-2988	14000	-58	235	-322	-16516	752	-2044	-176	-621	179	-15864	2876	-1348	-111	-473	77	-8696	2344	14324	-34	-207	82	-15732	1068	-3972	-253	-802	-98	-16176	-332	-496	-575	-419	67	131	126	8
-7244	-3024	13916	-73	186	-337	-16480	760	-1996	90	-598	235	-16036	3000	-1036	5	-575	29	-8440	2576	14432	-112	-66	94	-15668	1096	-3856	-320	-772	-123	-16316	-472	-316	-585	-556	105	130	125	8
-7344	-3004	13944	15	195	-265	-16612	720	-2068	-2	-547	206	-15956	3044	-1348	123	-584	9	-8372	2332	14284	-37	-54	124	-15728	868	-3556	-325	-712	-135	-16164	-508	-496	-659	-759	101	126	126	8
-6980	-3188	13936	72	149	-228	-16616	1100	-2156	-81	-527	201	-16060	3236	-1488	-74	-490	70	-8364	2492	14156	-47	-137	31	-15888	1008	-3524	-286	-663	-99	-16440	-704	-288	-587	-766	163	128	124	8
-7388	-2928	13956	15	190	-212	-16612	1152	-2640	-144	-627	210	-15948	3220	-1364	-134	-334	42	-8404	2284	14320	-34	-63	-52	-15868	1008	-3636	-345	-647	-93	-16352	-556	-356	-352	-742	140	124	129	8
-7236	-2776	13948	-38	253	-231	-16544	932	-1960	-261	-602	175	-15912	3056	-1224	-77	-352	77	-8400	2780	14260	18	-108	-51	-15812	928	-3836	-199	-654	-53	-16856	-160	-464	-15	-631	132	130	126	8
-7308	-2756	13988	-5	232	-261	-16488	720	-1772	-157	-552	217	-16068	3220	-860	136	-563	50	-8772	2724	14104	-19	30	-51	-15752	900	-3656	-19	-667	-45	-16304	-424	-624	-143	-701	214	128	133	8
-7252	-2936	13972	103	220	-311	-16500	952	-1892	-7	-426	192	-16080	3140	-712	73	-566	41	-8464	2560	14492	-12	-89	-85	-15808	1092	-3732	-152	-669	-81	-16116	-660	-532	-173	-550	133	131	127	8
-7408	-2948	13940	164	228	-237	-16348	916	-1396	92	-309	184	-16076	3076	-644	126	-632	-29	-8316	2036	14364	59	-187	-53	-15772	1012	-3636	-156	-648	-84	-16232	-312	-436	-422	-794	176	127	129	8
-7300	-3052	13812	187	264	-258	-16536	816	-1356	84	-203	127	-16208	3188	-676	-20	-706	-82	-8428	2192	14364	68	-101	73	-15688	1028	-3400	-176	-605	-102	-16232	-360	-224	-449	-817	125	126	124	8
-7328	-2984	13820	268	264	-193	-16512	896	-1548	159	-90	99	-15896	3088	-692	-63	-713	-96	-8508	2220	14408	20	-73	49	-15784	1100	-3348	-220	-557	-143	-16316	-316	-28	-474	-825	170	125	120	8
-7356	-2840	13984	333	265	-188	-16412	1060	-1676	120	19	100	-16144	3196	-424	-43	-758	-176	-8588	2380	14348	-158	-89	47	-15688	964	-3436	-234	-441	-85	-16236	-308	76	-401	-806	204	125	123	8
-7132	-2768	14052	336	284	-176	-16600	908	-1560	273	129	93	-16008	3228	-444	-80	-941	-185	-8668	2480	14300	-149	-140	143	-15752	1024	-3208	-96	-367	-96	-16164	-480	392	-222	-807	273	132	129	8
-7212	-2788	13884	366	265	-127	-16428	896	-1736	382	259	92	-15960	3148	-620	-133	-1022	-156	-8448	2304	14296	-198	-237	182	-15704	944	-3440	-41	-356	-49	-16288	-396	256	7	-949	191	129	122	8
-7328	-2924	14024	381	209	-128	-16520	872	-1936	380	301	132	-16060	2928	-632	-70	-779	-211	-8260	2536	14400	-299	-224	156	-15816	1120	-3156	169	-130	-42	-16388	-284	400	181	-932	241	130	121	8
-7184	-2864	14012	353	209	-141	-16556	948	-1788	339	367	121	-16420	3096	-1184	27	-876	-161	-8332	2296	14348	-344	-208	-29	-15828	1016	-3096	-41	-22	-44	-16272	-432	376	135	-1042	290	126	131	8
-7312	-2824	14032	384	182	-72	-16628	816	-2028	494	311	100	-15928	3024	-904	281	-949	-228	-8516	2536	14364	-310	-225	-15	-15820	1048	-3568	52	66	-14	-16376	-328	276	185	-1100	316	127	121	8
-7252	-2780	13928	384	184	-71	-16568	976	-2160	503	273	132	-15724	3064	-1076	356	-890	-153	-8164	2208	14140	-276	-222	-112	-15820	1020	-3260	20	118	21	-16184	-352	220	227	-1183	287	126	123	8
-7228	-2636	14052	310	181	-119	-16632	1012	-2432	400	172	135	-16040	3344	-1236	231	-634	-109	-8132	2040	14528	-334	-238	-193	-15820	1024	-3096	121	179	-18	-16272	-404	40	70	-1095	278	126	125	8
-7524	-2584	14060	269	180	-89	-16552	1112	-2236	338	119	93	-16020	3120	-1244	277	-491	-120	-8664	2380	14500	-267	-223	-166	-15856	1012	-4152	51	189	-11	-16220	-408	32	168	-1062	304	125	130	8
-7180	-2628	13960	163	166	-101	-16552	1108	-2156	133	75	74	-15728	3068	-900	252	-702	-29	-8644	2500	14388	-235	-154	-60	-15848	968	-3756	85	214	-2	-16172	-332	-32	72	-900	289	132	129	8
-7252	-2648	13892	91	126	-155	-16516	932	-2124	77	104	112	-16200	3072	-704	372	-473	-108	-8572	2816	14460	-192	-116	-84	-15860	992	-3700	76	168	-30	-16252	-432	-172	35	-774	236	128	122	8
-7304	-2908	13832	25	161	-207	-16476	812	-1696	232	207	105	-16112	3100	-436	389	-551	-85	-8404	2668	14452	-55	-4	-113	-15784	888	-4088	51	164	-26	-16384	-384	136	-85	-810	255	127	115	8
-7452	-2736	14040	67	160	-205	-16420	904	-1536	288	192	78	-16052	3052	-384	220	-876	5	-8132	2628	14376	31	-87	-155	-15856	1112	-3552	89	146	-11	-16316	-328	-100	117	-638	121	124	124	8
-7308	-2504	13964	76	117	-168	-16516	828	-1764	290	305	115	-16308	3064	-424	173	-460	-150	-8324	2196	14532	36	-239	-224	-15876	1084	-3632	-81	102	-36	-16180	-456	-204	-44	-526	206	131	127	8
-7236	-2732	14024	90	114	-150	-16548	900	-1856	302	332	61	-15756	2952	-492	114	-669	-114	-8444	2112	14420	-67	-39	-250	-15808	904	-4008	37	77	-33	-16276	-448	-48	-87	-466	184	130	129	8
-7396	-2764	14080	147	124	-157	-16552	960	-2056	235	344	83	-16308	3124	-656	120	-386	-169	-8480	2212	14512	-46	12	-179	-15740	924	-3840	164	41	-29	-16236	-588	168	-147	-454	190	129	125	8
-7404	-2812	13888	152	106	-127	-16504	1040	-2068	87	341	67	-16064	3112	-832	-19	-325	-130	-8368	2592	14468	98	-71	-120	-15848	932	-3608	352	23	-82	-16288	-408	164	6	-448	159	139	125	8
-7320	-2732	13852	89	106	-144	-16556	1044	-1924	114	290	81	-15936	2844	-896	-5	-321	-78	-8168	1972	14452	147	-173	-156	-15816	1060	-3404	162	79	-23	-16316	-428	400	-91	-493	133	128	126	8
-7208	-2516	14040	90	133	-189	-16576	896	-2240	183	263	81	-15976	2808	-928	-4	-268	-94	-8100	1812	14524	44	-205	-186	-15716	976	-3428	74	154	-16	-16324	-404	444	-108	-479	224	128	128	8
-7308	-2560	14004	64	76	-90	-16500	876	-2288	347	231	116	-16172	3000	-740	326	-214	-63	-8816	2308	14560	-67	-12	-170	-15736	1148	-3708	26	191	-40	-16304	-560	276	94	-510	216	136	121	8
-7188	-2608	14040	24	89	-164	-16520	1048	-2124	329	224	115	-16028	3004	-768	398	-323	27	-8372	2568	14624	61	90	-154	-15752	816	-3856	48	258	37	-16388	-428	376	201	-468	208	128	128	8
-7400	-2384	13996	-5	133	-117	-16648	896	-2124	333	212	131	-16228	2964	-800	395	-117	-62	-8160	2192	14488	88	-140	-191	-15884	940	-3512	237	240	34	-16252	-316	288	228	-487	189	129	128	8
-7276	-2648	13996	-8	141	-175	-16456	848	-2480	385	190	132	-16060	3040	-820	411	-155	46	-8308	2200	14456	54	-110	-227	-15920	1176	-3612	106	250	1	-16276	-316	128	246	-376	246	126	125	8
-7388	-2616	14040	-43	76	-189	-16504	836	-2220	394	148	141	-16052	3092	-724	562	-28	1	-8284	2040	14236	37	-72	-263	-15696	1116	-3784	-58	226	0	-16260	-288	84	291	-334	226	127	134	8
-7404	-2564	13920	-70	87	-221	-16492	1060	-2208	180	111	118	-16048	2952	-744	528	-58	5	-8408	2200	14376	59	-7	-284	-15836	1072	-4000	60	173	-14	-16332	-232	-28	148	-254	228	127	127	8
-7184	-2628	13960	-67	81	-149	-16540	840	-2128	223	87	107	-16020	3076	-792	223	-65	13	-8316	2124	14436	140	-59	-247	-15788	1044	-3880	56	117	-33	-16312	-308	160	-82	-223	223	126	131	8
-7372	-2640	14056	-94	48	-178	-16500	976	-2084	157	-4	99	-16076	3008	-796	152	22	-51	-8344	2228	14480	181	-44	-240	-15660	1052	-3872	-76	118	-54	-16276	-304	260	-131	-123	187	128	123	8
-7196	-2716	13880	-204	14	-146	-16556	1260	-2300	9	16	110	-16168	3048	-768	169	43	-38	-8352	2268	14336	248	23	-219	-15752	980	-3700	-145	124	-56	-16312	-428	236	-357	-127	189	125	130	8
-7012	-2468	14028	-395	-55	-230	-16588	828	-2360	288	-182	123	-16104	3088	-1300	197	21	28	-8408	2276	14332	196	-44	-224	-15832	1120	-3836	-266	100	-53	-16272	-392	168	-261	-124	189	123	123	8
-7256	-2608	14052	-554	-39	-244	-16592	920	-2444	418	-255	198	-16068	3012	-1196	233	72	31	-8312	2160	14368	193	35	-272	-15808	992	-3872	-404	63	-68	-16296	-368	44	-176	-97	170	128	124	8
-7400	-2476	14044	-540	-22	-250	-16624	1008	-2612	45	-397	115	-16148	3048	-1500	153	251	79	-8484	2220	14436	166	-66	-224	-15728	960	-3824	-68	36	-60	-16328	-396	156	-167	-66	142	130	127	8
-7288	-2568	13928	-488	68	-269	-16636	844	-2668	5	-524	127	-16112	2940	-1628	167	207	135	-8476	2192	14412	187	-54	-180	-15708	988	-3768	-63	38	-68	-16264	-472	236	-196	-63	166	124	129	8
-7520	-2580	13928	-439	138	-292	-16584	1008	-2612	-97	-592	148	-16148	3016	-1172	241	299	117	-8412	2204	14440	169	-63	-135	-15632	1092	-3680	11	52	-86	-16288	-448	340	-229	-196	171	125	125	8
-7404	-2820	14000	-397	194	-297	-16616	888	-2228	-328	-647	198	-16156	2996	-1172	242	319	141	-8380	2488	14400	140	-40	-167	-15744	1124	-3616	-65	127	-45	-16396	-376	332	-136	-206	188	123	126	8
-7388	-2520	14124	-337	192	-264	-16544	928	-2216	-302	-538	124	-16260	3024	-468	174	283	140	-8436	2224	14328	89	-17	-231	-15768	1164	-3836	-175	135	-6	-16320	-344	88	-91	-238	187	127	124	8
-7316	-2484	13996	-306	216	-243	-16440	940	-1868	-387	-520	135	-16224	3196	-136	39	71	148	-8332	2272	14368	62	184	-191	-15740	1040	-3828	-150	127	-56	-16336	-284	-16	-206	-214	178	126	127	8
-7256	-2800	14024	-308	224	-301	-16404	864	-1776	-235	-339	152	-16260	3148	-56	-38	-71	75	-8324	2156	14520	119	34	-173	-15800	1084	-3992	-225	54	-27	-16420	-320	-152	-175	-236	154	128	127	8
-7172	-2768	14008	-229	179	-225	-16476	852	-1568	-392	-165	152	-16232	3104	-112	-293	-88	10	-8412	2176	14508	129	-33	-185	-15804	944	-4024	-166	-1	-66	-16344	-408	-112	-395	-214	189	126	128	8
-7348	-2840	14004	-129	169	-209	-16496	804	-1752	-231	-107	134	-16088	2916	-332	-409	-205	-30	-8292	2184	14404	121	-55	-122	-15852	980	-3924	-264	-48	-92	-16408	-396	-32	-458	-186	223	127	129	8
-7272	-2764	14084	-69	117	-177	-16504	904	-1732	-278	12	149	-16196	3000	-432	-415	-186	-53	-8348	2196	14368	135	-15	-148	-15804	1004	-3812	-272	-57	-51	-16320	-472	8	-374	-181	182	133	124	8
-7328	-2712	14004	-87	161	-171	-16596	884	-1936	-304	55	150	-16164	3032	-676	-425	-184	-39	-8372	2136	14408	102	45	-145	-15812	1020	-3828	-302	-126	-47	-16336	-468	152	-364	-137	191	127	125	8
-7272	-2748	14024	-65	146	-192	-16592	840	-2116	-169	17	157	-16124	2928	-856	-372	-274	-45	-8444	2200	14492	137	-4	-103	-15712	1040	-3828	-278	-152	-69	-16268	-516	184	-243	-104	175	130	125	8
-7368	-2668	14052	-74	120	-185	-16516	820	-2228	-173	21	156	-16028	2928	-820	-380	-229	-11	-8364	2144	14428	171	-8	-106	-15780	996	-3856	-162	-166	-44	-16308	-552	276	-140	-96	206	130	132	8
-7312	-2740	13992	-47	114	-195	-16532	940	-2188	-125	-63	158	-16156	2952	-1064	-57	-132	21	-8312	2176	14368	190	21	-104	-15824	856	-3856	-114	-147	-52	-16324	-388	388	-85	-150	206	127	128	8
-7244	-2716	14056	-112	144	-212	-16608	880	-2228	-25	-112	189	-16148	2888	-1012	124	-180	43	-8364	2212	14360	187	51	-114	-15716	1052	-3744	-85	-127	-44	-16340	-460	340	-22	-217	210	130	130	8
-7288	-2780	13972	-153	150	-188	-16588	852	-2232	201	-169	223	-16088	2980	-948	402	-194	70	-8320	2296	14368	171	-29	-130	-15876	1016	-3548	-131	-104	-3	-16360	-276	312	-81	-315	217	126	124	8
-7316	-2708	13976	-147	110	-231	-16572	1020	-2080	154	-194	203	-15988	3116	-880	452	-145	52	-8428	2256	14364	216	-66	-169	-15812	1144	-3756	-96	-84	-1	-16308	-224	300	129	-234	210	125	125	8
-7248	-2696	14028	-175	117	-257	-16556	1048	-2108	59	-179	195	-16196	3176	-668	410	-109	83	-8440	2232	14284	157	-46	-166	-15772	1080	-3672	-98	-83	-14	-16256	-380	228	37	-211	246	129	126	8
-7344	-2684	14028	-153	142	-180	-16520	968	-1792	-11	-180	197	-16120	3144	-600	260	-83	89	-8416	2224	14440	148	-86	-175	-15792	1064	-3736	-28	-107	-10	-16340	-248	228	35	-144	207	127	125	8
-7316	-2716	13900	-141	119	-188	-16584	984	-1964	-30	-157	200	-16168	3216	-436	98	-16	52	-8332	2208	14412	148	-40	-131	-15776	1120	-3788	-109	-95	-51	-16328	-256	220	-120	-226	243	127	124	8
-7272	-2704	14048	-109	130	-175	-16592	980	-1924	-153	-134	186	-16112	3132	-564	-5	-145	27	-8292	2220	14516	106	-34	-153	-15780	1156	-3736	-274	-70	-49	-16348	-192	240	-234	-187	234	127	123	8
-7256	-2756	13976	-118	129	-239	-16504	1024	-1980	-183	-108	157	-16172	3128	-600	-77	-99	33	-8352	2268	14384	114	-4	-132	-15808	1132	-3720	-294	-104	-50	-16280	-240	320	-257	-209	254	125	125	8
-7232	-2688	13900	-106	107	-195	-16604	964	-1936	-118	-91	107	-16096	3032	-600	-46	-108	14	-8424	2276	14384	103	-40	-167	-15836	1032	-3876	-346	-121	-58	-16300	-284	264	-165	-100	168	125	123	8
-7268	-2788	13908	-107	184	-178	-16564	912	-1972	-102	-85	118	-16088	3104	-468	-144	-46	18	-8400	2228	14436	90	21	-185	-15808	1072	-3564	-197	-106	-90	-16372	-284	296	-313	-153	177	126	126	8
-7292	-2736	14000	-103	184	-212	-16512	948	-2004	-98	-71	148	-16136	3104	-752	-164	-99	-5	-8368	2268	14448	114	-50	-147	-15800	1140	-3708	-303	-50	-78	-16268	-360	332	-319	-164	273	130	127	8
-7268	-2756	13948	-127	183	-225	-16540	928	-1996	-131	-121	125	-16216	3092	-520	-34	-80	18	-8288	2380	14512	104	-52	-156	-15812	1048	-3608	-312	-41	-121	-16336	-448	236	-189	-177	217	126	130	8
-7244	-2736	13924	-124	144	-230	-16560	932	-2060	-3	-90	126	-16136	3016	-840	-5	-129	34	-8344	2240	14428	71	-73	-177	-15752	1024	-3764	-277	-16	-59	-16404	-424	328	-109	-206	225	126	123	8
-7344	-2760	13864	-99	189	-210	-16476	976	-2020	-4	-125	160	-16080	2988	-684	168	-123	46	-8392	2264	14400	127	45	-120	-15760	1064	-3704	-128	-41	-71	-16288	-444	120	-147	-267	191	125	129	8
-7300	-2712	13972	-103	170	-219	-16532	904	-1820	-11	-123	139	-16164	3056	-704	142	-106	100	-8368	2280	14352	72	-20	-184	-15828	1116	-3900	-135	-36	-52	-16288	-392	228	-8	-198	220	130	125	8
-7320	-2776	13892	-110	187	-237	-16544	940	-1956	59	-129	125	-16112	3016	-448	155	-85	72	-8344	2168	14404	126	-81	-159	-15852	1024	-3792	-71	-80	-50	-16252	-436	216	2	-206	231	123	128	8
-7296	-2804	13944	-113	130	-223	-16488	1000	-1932	43	-106	149	-16140	3016	-256	148	-59	54	-8312	2232	14352	94	-17	-160	-15820	1012	-3708	-23	-58	-29	-16388	-428	104	96	-217	212	127	120	8
-7256	-2744	13988	-119	149	-207	-16508	852	-1816	162	-74	157	-16192	3024	-524	197	-55	34	-8388	2156	14404	136	-53	-143	-15784	1088	-3856	10	-54	-18	-16272	-432	324	242	-184	206	128	124	8
-7236	-2760	13944	-79	139	-209	-16552	800	-1788	201	-118	138	-16256	3064	-484	211	-157	50	-8368	2188	14424	103	-24	-136	-15784	1080	-3704	64	-99	-24	-16428	-320	172	89	-218	229	127	127	8
-7272	-2748	13968	-62	145	-206	-16508	960	-1924	147	40	147	-16112	3104	-616	260	-154	40	-8376	2248	14468	133	34	-158	-15784	1172	-3844	-36	-63	-7	-16232	-252	184	57	-254	256	130	126	8
-7320	-2768	13988	-53	137	-194	-16604	892	-2004	165	-17	142	-16076	3028	-512	279	-90	47	-8316	2204	14444	157	-46	-132	-15772	1080	-3680	-96	-106	-98	-16312	-400	244	104	-207	218	125	126	8
-7336	-2756	13952	20	133	-172	-16576	940	-1924	237	-9	136	-16120	2988	-464	290	-129	53	-8356	2216	14384	141	-54	-127	-15800	968	-3700	76	-112	29	-16348	-296	368	287	-207	189	127	130	8
-7272	-2692	13972	-40	94	-194	-16512	892	-2000	257	-12	144	-16256	3080	-592	360	-90	49	-8396	2204	14376	175	20	-126	-15784	1184	-3876	100	-121	-8	-16324	-324	104	253	-187	241	128	125	8
-7268	-2708	13996	-32	124	-197	-16556	976	-2004	298	-34	134	-16084	3116	-628	343	-89	32	-8364	2248	14416	157	12	-139	-15764	1040	-3788	26	-129	-14	-16308	-248	200	273	-208	219	126	128	8
-7284	-2784	13956	-45	124	-189	-16556	988	-2048	295	-78	176	-16136	3032	-704	427	-69	78	-8308	2332	14444	148	-40	-127	-15828	1032	-3820	134	-181	2	-16252	-340	136	284	-202	220	125	125	8
-7296	-2712	14088	-47	140	-177	-16500	972	-1952	227	-15	159	-16204	3060	-656	496	-60	89	-8356	2424	14324	127	28	-147	-15816	1280	-3796	91	-150	-45	-16352	-164	160	341	-135	194	125	125	8
-7312	-2748	13992	-20	148	-196	-16596	924	-1924	359	-38	154	-16140	3108	-616	473	-84	48	-8364	2320	14428	136	46	-122	-15760	1048	-3764	17	-197	-47	-16336	-392	308	161	-171	231	125	127	8
-7304	-2760	14004	-58	123	-207	-16548	968	-1868	402	-74	187	-16160	3104	-500	419	-63	52	-8432	2392	14216	133	75	-116	-15808	1020	-3776	52	-213	-32	-16304	-356	268	240	-185	187	127	126	8
-7252	-2740	13956	-41	132	-219	-16516	976	-1920	356	-46	153	-16104	3124	-628	432	-84	60	-8252	2204	14476	148	56	-150	-15756	960	-3824	171	-209	-45	-16276	-232	300	199	-173	214	125	127	8
-7320	-2800	13880	-80	137	-193	-16556	1028	-1984	210	-60	141	-16192	3012	-692	445	-76	71	-8380	2084	14368	174	-27	-128	-15808	1172	-3624	3	-181	-53	-16232	-272	432	158	-170	200	125	125	8
-7288	-2792	13948	-87	124	-189	-16492	904	-1940	254	-33	157	-16040	3016	-556	438	-58	15	-8288	2144	14608	186	-26	-136	-15764	1096	-3572	26	-157	-71	-16328	-240	420	142	-202	206	129	128	8
-7272	-2676	13964	-22	125	-188	-16520	1000	-1988	298	-43	162	-16228	3140	-656	495	-79	45	-8392	2184	14296	198	-14	-147	-15816	1156	-3492	-40	-139	-28	-16264	-364	456	117	-276	201	127	125	8
-7320	-2684	13976	-38	147	-193	-16544	968	-1904	301	-57	145	-16136	3160	-576	446	-55	56	-8384	2240	14496	158	2	-131	-15740	1092	-3672	82	-146	-47	-16284	-436	304	308	-221	229	125	131	8
-7348	-2664	14028	-16	147	-159	-16552	944	-1960	287	-39	143	-16032	3164	-640	463	-76	74	-8336	2344	14396	156	2	-192	-15776	1064	-3608	225	-142	-45	-16344	-392	200	374	-183	229	126	125	8
-7244	-2724	13948	-38	186	-240	-16476	1048	-1896	274	-28	160	-16200	3028	-460	484	-80	55	-8372	2232	14420	158	-31	-149	-15872	960	-3576	207	-203	-57	-16264	-128	260	477	-167	220	127	123	8
-7344	-2700	13952	3	108	-199	-16544	956	-1900	225	-5	133	-16100	3088	-484	505	-85	30	-8372	2312	14380	163	-17	-136	-15824	1184	-3660	204	-138	-47	-16320	-112	244	345	-181	177	125	126	8
-7300	-2688	13988	-16	88	-177	-16520	968	-1872	279	6	121	-16128	3052	-452	539	-95	41	-8320	2344	14384	162	18	-159	-15844	1220	-3752	-65	-157	-78	-16320	-240	364	225	-208	181	126	127	8
-7288	-2752	14048	3	92	-199	-16528	1000	-1936	286	-10	164	-16096	3184	-484	461	-167	29	-8456	2076	14344	135	-25	-141	-15832	944	-3616	-56	-120	-57	-16276	-284	368	145	-191	194	128	125	8
-7288	-2684	13984	-27	112	-180	-16532	988	-1924	216	50	127	-16168	3112	-520	397	-60	18	-8356	2184	14392	151	16	-133	-15828	1000	-3596	119	-136	-63	-16320	-280	436	127	-202	171	124	133	8
-7340	-2720	13980	1	105	-205	-16496	1060	-1908	165	67	94	-16188	3120	-436	427	-131	0	-8328	2348	14452	137	-29	-175	-15860	1192	-3548	119	-90	-71	-16316	-300	448	230	-192	220	129	123	8
-7272	-2692	14012	-8	128	-213	-16460	992	-1936	193	93	120	-16152	3148	-452	393	-144	15	-8428	2304	14448	132	-15	-157	-15800	1140	-3508	56	-114	-59	-16328	-304	316	253	-244	174	124	127	8
-7392	-2724	13884	10	103	-174	-16564	936	-1796	141	120	121	-16180	3184	-512	330	-171	1	-8388	2376	14380	105	-39	-147	-15788	1068	-3676	103	-111	-107	-16300	-256	428	337	-169	198	124	128	8
-7188	-2772	14028	53	136	-195	-16612	912	-1976	216	114	115	-16176	3028	-488	298	-188	-59	-8320	2264	14372	145	38	-191	-15804	1016	-3644	163	-139	-78	-16252	-316	272	343	-173	161	128	124	8
-7180	-2704	13984	3	112	-204	-16540	980	-1936	272	140	61	-16116	2952	-436	310	-132	-32	-8340	2352	14436	124	-16	-141	-15788	1124	-3600	207	-105	-59	-16356	-336	468	288	-210	149	122	126	8
-7304	-2680	13964	-7	136	-192	-16576	876	-1992	222	137	89	-16112	2956	-588	396	-133	-43	-8312	2332	14484	108	-91	-131	-15860	1116	-3428	88	-101	-114	-16412	-284	304	187	-241	133	135	125	8
-7280	-2732	14092	49	132	-169	-16544	904	-2128	345	108	122	-16040	3124	-644	401	-171	-13	-8420	2240	14396	103	-7	-171	-15812	1108	-3632	94	-97	-82	-16236	-212	396	286	-223	127	128	121	8
-7332	-2712	13944	7	158	-155	-16516	956	-2164	285	83	81	-16120	3192	-732	422	-138	-39	-8352	2308	14312	108	-14	-169	-15884	1156	-3608	144	-123	-81	-16304	-260	240	234	-187	113	124	126	8
-7296	-2580	13980	31	160	-235	-16588	984	-2164	285	73	128	-16084	3008	-660	446	-64	-33	-8416	2240	14384	125	-47	-159	-15764	1088	-3748	196	-95	-88	-16304	-300	424	319	-115	135	125	122	8
-7312	-2644	13996	24	139	-183	-16616	1028	-1980	209	35	66	-16228	3200	-724	461	-8	13	-8432	2188	14448	114	-43	-172	-15756	1116	-3660	183	-147	-111	-16280	-260	308	225	-131	186	126	128	8
-7320	-2588	14000	9	136	-172	-16616	904	-2064	165	39	132	-16108	3124	-624	351	-57	-4	-8344	2224	14284	154	-69	-121	-15868	1064	-3596	217	-88	-92	-16368	-244	460	193	-145	139	126	123	8
-7256	-2624	14044	2	115	-190	-16528	980	-2104	147	24	61	-16124	3036	-536	390	-47	-31	-8192	2164	14344	151	-22	-165	-15800	968	-3500	205	-61	-103	-16360	-220	568	144	-171	134	126	132	8
-7324	-2560	13992	16	143	-133	-16556	976	-2016	145	17	80	-16172	3068	-464	377	-52	-30	-8448	2280	14440	123	1	-183	-15860	1088	-3536	206	-61	-94	-16252	-236	572	229	-170	75	123	126	8
-7264	-2596	13924	-2	172	-228	-16576	932	-1948	128	50	63	-16308	3308	-544	359	-69	-18	-8392	2256	14416	99	-48	-199	-15824	1088	-3484	82	-34	-98	-16340	-208	424	235	-187	60	126	123	8
-7272	-2744	13972	-15	145	-228	-16532	952	-2008	130	40	80	-16076	3108	-544	327	16	-8	-8412	2268	14432	121	-27	-163	-15764	1080	-3672	146	-43	-122	-16316	-244	392	131	-116	129	127	127	8
-7332	-2684	13984	10	185	-179	-16516	976	-1960	129	13	98	-16148	3064	-364	323	-3	-40	-8372	2232	14368	94	-85	-195	-15748	1080	-3716	167	-20	-69	-16272	-388	408	49	-159	102	129	120	8
-7228	-2636	14068	-50	179	-220	-16568	936	-1976	9	22	55	-16264	3044	-536	261	14	-11	-8384	2248	14416	125	-45	-166	-15852	1000	-3612	232	0	-80	-16272	-288	508	117	-132	68	126	127	8
-7328	-2680	14080	-14	132	-204	-16552	800	-1844	60	50	30	-16080	2984	-588	236	33	-52	-8308	2356	14456	108	-44	-160	-15860	1096	-3716	189	-25	-86	-16300	-360	496	217	-107	75	126	129	8
-7252	-2564	14044	41	131	-183	-16532	884	-1976	176	82	50	-16156	3060	-380	276	74	-115	-8340	2264	14388	81	8	-165	-15768	1020	-3640	79	19	-107	-16320	-272	372	164	-122	103	126	127	8
-7264	-2564	14072	38	161	-135	-16520	1020	-1992	75	132	38	-16180	3068	-536	206	1	-103	-8384	2264	14404	104	-37	-172	-15856	976	-3516	163	4	-110	-16340	-336	480	116	-104	91	126	128	8
-7176	-2580	14092	-44	120	-160	-16600	996	-2056	15	125	41	-16112	3000	-532	173	116	-47	-8388	2268	14468	93	-20	-175	-15824	984	-3632	215	28	-102	-16324	-400	372	81	-120	61	124	125	8
-7332	-2556	14016	-32	161	-170	-16540	804	-2012	121	83	19	-16088	3016	-388	299	54	-72	-8308	2136	14400	143	-19	-231	-15824	1000	-3580	190	-7	-86	-16244	-332	536	131	-115	104	125	124	8
-7348	-2552	14012	-10	133	-155	-16516	976	-2052	199	127	38	-16076	2964	-576	239	24	-26	-8324	2208	14328	144	-63	-201	-15848	1060	-3564	158	61	-86	-16236	-336	580	255	-39	98	127	133	8
-7132	-2668	13988	-7	119	-182	-16456	876	-2232	127	88	63	-16236	3024	-500	244	33	-18	-8472	2208	14412	107	-83	-216	-15832	1080	-3528	90	50	-129	-16356	-376	452	242	-86	94	127	123	8
-7292	-2736	13912	-48	129	-200	-16468	816	-1996	146	121	52	-16128	3012	-704	321	32	-28	-8396	2236	14400	77	-22	-188	-15872	908	-3684	149	137	-144	-16360	-276	416	257	-133	115	127	125	8
-7232	-2584	14068	-71	108	-179	-16528	936	-2048	185	106	17	-15908	2976	-620	190	-53	-20	-8376	2340	14316	77	-61	-204	-15792	1068	-3604	144	74	-89	-16336	-228	304	203	-106	55	128	125	8
-7348	-2512	14012	-45	107	-158	-16620	904	-2136	50	69	37	-16140	3016	-628	207	56	-32	-8432	2240	14492	85	-41	-228	-15840	1016	-3832	92	78	-120	-16248	-380	300	110	-169	137	133	126	8
-7236	-2692	14016	-68	117	-180	-16488	932	-2192	67	85	69	-16112	3052	-756	161	121	-41	-8416	2196	14392	101	-80	-202	-15808	956	-3804	142	73	-97	-16204	-380	324	116	-69	114	130	125	8
-7200	-2628	13956	-87	113	-200	-16476	828	-2100	105	38	75	-16116	2972	-620	188	86	-62	-8308	2232	14404	91	-55	-203	-15844	988	-3704	157	58	-105	-16324	-268	412	165	-36	62	128	125	8
-7200	-2696	13964	-129	107	-213	-16536	984	-2136	37	13	60	-16100	3012	-764	127	134	-32	-8396	2228	14372	120	-3	-164	-15860	996	-3624	35	35	-112	-16324	-356	292	48	5	97	126	127	8
-7308	-2564	14068	-141	131	-194	-16588	812	-2272	22	41	75	-16152	3024	-568	178	90	-14	-8380	2276	14456	112	-46	-131	-15844	976	-3620	96	69	-103	-16336	-340	456	-26	-12	137	125	127	8
-7248	-2600	13988	-105	121	-244	-16488	888	-2020	-32	28	54	-16112	2964	-576	186	126	6	-8404	2220	14464	104	-38	-153	-15780	976	-3580	90	64	-65	-16408	-360	432	-108	-50	72	127	129	8
-7264	-2604	14016	-111	123	-219	-16532	860	-2056	19	69	83	-16224	2916	-532	195	145	-24	-8388	2308	14428	101	-43	-195	-15828	1032	-3548	41	112	-46	-16336	-328	516	42	15	75	129	130	8
-7256	-2620	14056	-82	109	-196	-16540	860	-2044	102	41	70	-16144	3044	-488	169	54	-57	-8388	2284	14532	91	-58	-221	-15748	1044	-3676	35	99	-113	-16272	-392	336	23	-36	69	128	123	8
-7340	-2564	13980	-90	104	-183	-16544	1000	-2108	36	58	97	-16040	3072	-512	137	126	-38	-8360	2216	14536	69	-91	-225	-15776	988	-3800	-9	81	-77	-16272	-372	416	3	-29	104	134	124	8
-7264	-2620	13992	-76	112	-231	-16464	904	-2096	-54	82	32	-16140	2996	-584	140	133	-4	-8364	2236	14400	77	-68	-196	-15752	920	-3712	151	85	-68	-16320	-304	376	44	-20	60	129	125	8
-7220	-2556	14036	-102	105	-202	-16532	840	-2056	-37	110	26	-16076	2964	-468	175	136	-25	-8380	2232	14396	73	-37	-219	-15812	1092	-3616	75	141	-100	-16288	-356	380	-8	-70	57	128	125	8
-7180	-2604	13960	-114	147	-212	-16544	764	-2020	94	77	75	-16152	2916	-576	156	111	-50	-8400	2260	14376	83	-43	-164	-15764	980	-3632	62	102	-103	-16356	-444	392	-49	-19	115	121	126	8
-7264	-2604	13972	-86	71	-191	-16516	916	-2072	105	120	64	-16132	2972	-536	246	89	-36	-8384	2312	14432	71	-54	-172	-15808	992	-3664	-1	139	-100	-16292	-424	476	103	-21	86	122	125	8
-7284	-2596	13996	-110	103	-197	-16512	924	-2120	164	99	60	-16140	2976	-668	261	88	-8	-8408	2260	14368	69	-60	-202	-15764	844	-3608	114	123	-80	-16252	-452	412	161	-36	145	128	127	8
-7204	-2636	13900	-85	108	-201	-16484	892	-1940	176	152	55	-16040	2948	-644	316	64	-4	-8360	2228	14328	90	-74	-187	-15780	964	-3804	88	134	-104	-16348	-448	240	225	-28	149	130	123	8
-7252	-2736	13888	-119	139	-194	-16544	824	-2096	277	129	76	-16160	3020	-612	370	120	-9	-8392	2260	14444	108	-55	-189	-15748	936	-3772	154	124	-69	-16292	-428	288	264	-11	113	129	127	8
-7268	-2684	14052	-117	159	-194	-16520	876	-2256	234	115	46	-16156	3028	-732	287	140	-3	-8380	2240	14428	102	-58	-172	-15768	952	-3716	163	116	-57	-16260	-400	416	281	-5	128	130	131	8
-7336	-2612	13900	-98	124	-218	-16528	928	-2232	151	83	83	-16152	2920	-632	315	140	-20	-8304	2312	14348	145	-43	-141	-15820	980	-3652	210	120	-59	-16268	-400	516	306	33	157	133	133	8
-7336	-2584	13960	-146	122	-221	-16504	800	-2208	236	84	46	-16076	2984	-568	410	118	-15	-8388	2296	14456	113	-72	-177	-15844	1036	-3612	234	164	-60	-16212	-368	408	460	42	163	126	128	8
-6992	-2548	14044	-117	106	-204	-16536	892	-2048	114	154	62	-16184	3020	-452	394	138	17	-8364	2388	14504	82	-14	-179	-15704	1000	-3740	152	140	-72	-16308	-272	292	437	64	211	122	121	8
-7288	-2716	14076	-101	99	-194	-16536	796	-2036	212	199	49	-16208	3036	-616	311	135	-18	-8272	2324	14500	96	-67	-153	-15716	912	-3836	147	139	-78	-16360	-396	412	394	27	159	128	127	8
-7184	-2680	14068	-94	89	-218	-16496	920	-2240	200	148	46	-16048	2972	-668	226	172	-35	-8412	2196	14396	133	-42	-148	-15776	1048	-3532	103	201	-107	-16304	-436	352	384	125	153	130	122	8
-7236	-2428	13988	-74	131	-182	-16504	848	-2116	83	188	41	-15972	3040	-616	255	165	-10	-8216	2128	14620	130	-81	-192	-15804	956	-3732	62	166	-101	-16496	-252	164	267	1	120	126	126	8
-7336	-2692	14044	-136	115	-213	-16448	856	-2112	142	211	44	-16024	3020	-528	335	77	-7	-8424	2200	14408	90	-61	-201	-15836	976	-3884	48	156	-63	-16316	-312	112	182	1	117	128	129	8
-7236	-2708	14024	-85	96	-237	-16508	760	-2136	128	237	38	-16232	2996	-556	162	143	-21	-8360	2188	14388	75	-57	-223	-15760	948	-3800	96	154	-93	-16316	-376	244	81	-48	152	130	122	8
-7260	-2692	13804	-74	111	-188	-16548	740	-2232	136	207	13	-16112	2944	-704	235	101	-63	-8580	2172	14352	95	-104	-136	-15728	880	-3720	42	186	-85	-16500	-316	440	-139	-179	112	125	126	8
-7460	-2752	14156	-104	104	-203	-16520	768	-2224	200	193	63	-16236	2996	-728	234	57	-30	-8324	2320	14340	131	-45	-205	-15872	1052	-3776	77	203	-102	-16352	-496	368	-87	-141	99	126	122	8
-7296	-2592	13948	-138	133	-215	-16528	764	-2276	128	203	71	-16168	2984	-628	269	178	-39	-8380	2060	14320	138	5	-236	-15768	964	-3792	-63	208	-84	-16332	-448	416	-50	-167	71	129	128	8
-7104	-2556	14180	-151	120	-228	-16544	764	-2160	156	213	36	-16468	2936	-848	209	7	20	-8276	2300	14312	122	-50	-221	-15824	964	-3788	-56	205	-56	-16220	-396	196	254	-108	136	122	126	8
-7212	-2580	13964	-135	111	-211	-16504	784	-2156	172	213	38	-16120	3024	-532	130	-59	60	-8196	1980	14564	74	-137	-210	-15708	820	-3800	72	196	-37	-16316	-548	176	227	-141	148	128	125	8
-7360	-2572	13964	-80	114	-223	-16504	708	-2324	347	197	99	-16216	2912	-788	339	-41	-6	-8512	1956	14332	103	-95	-226	-15868	980	-3912	148	188	-52	-16404	-444	388	235	-152	188	124	124	8
-7300	-2696	14044	-97	104	-212	-16540	804	-2168	341	198	128	-16088	2956	-772	384	50	-13	-8436	2012	14280	101	-48	-179	-15792	952	-3980	99	164	-48	-16308	-424	156	307	-22	180	124	129	8
-7288	-2712	14032	-120	119	-210	-16536	776	-2372	218	200	93	-16128	2872	-788	387	66	-11	-8292	2108	14436	123	-87	-197	-15876	912	-3924	99	147	-46	-16284	-428	344	311	-27	183	128	131	8
-7316	-2376	14088	-90	102	-174	-16528	816	-2332	232	152	85	-16184	2964	-888	395	71	-25	-8384	2296	14528	80	-37	-186	-15784	900	-3876	68	131	-64	-16276	-408	396	434	124	212	124	128	8
-7184	-2628	13964	-121	103	-196	-16496	772	-2268	169	161	88	-16220	2904	-848	350	103	-10	-8496	2216	14316	62	14	-184	-15776	960	-3752	85	110	-64	-16272	-464	268	459	238	215	128	120	8
-7208	-2652	13992	-115	104	-164	-16588	828	-2368	174	153	85	-16212	3012	-932	282	111	23	-8420	2276	14436	140	-71	-167	-15804	940	-3872	32	80	-72	-16272	-412	180	441	225	249	126	126	8
-7236	-2472	13992	-135	107	-173	-16456	848	-2540	129	71	117	-16172	2872	-912	280	114	49	-8388	2196	14356	166	-102	-141	-15844	868	-3836	15	91	-71	-16268	-484	324	438	273	247	127	122	8
-7224	-2648	14080	-175	93	-210	-16536	764	-2312	62	51	116	-16176	2896	-824	284	114	55	-8368	2252	14336	117	-20	-171	-15780	812	-3824	-12	115	-39	-16464	-528	272	204	45	280	130	127	8
-7304	-2604	14064	-161	117	-242	-16488	744	-2216	107	81	147	-16108	2844	-708	329	114	30	-8400	2200	14440	147	1	-230	-15820	892	-3780	23	83	2	-16272	-440	376	368	86	249	125	124	8
-7328	-2692	13992	-133	98	-212	-16464	636	-2256	165	49	169	-16088	2808	-684	277	202	70	-8324	2244	14428	126	76	-203	-15780	956	-3940	23	82	3	-16268	-464	172	420	181	251	126	122	8
-7192	-2708	14072	-109	98	-208	-16492	708	-2312	255	92	152	-16156	2860	-680	282	109	36	-8368	2144	14324	153	-27	-170	-15784	884	-3904	46	76	-19	-16312	-296	188	307	197	221	123	125	8
-7240	-2676	13996	-140	91	-196	-16528	812	-2260	209	120	167	-16096	2864	-584	329	97	59	-8380	2192	14384	167	-72	-165	-15800	944	-3864	18	86	45	-16316	-324	296	128	150	236	124	127	8
-7284	-2624	14188	-95	58	-183	-16504	756	-2192	159	102	170	-16168	2908	-724	273	143	68	-8324	2260	14304	161	-26	-187	-15804	956	-3820	0	96	19	-16284	-432	360	104	156	304	125	125	8
-7276	-2720	14036	-39	84	-164	-16516	780	-2328	143	105	172	-16128	3028	-740	258	129	73	-8244	2256	14404	151	-7	-191	-15772	980	-3812	-96	132	-23	-16340	-332	196	156	99	233	120	126	8
-7264	-2740	14072	-40	100	-186	-16436	928	-2464	58	129	155	-16076	3036	-756	242	132	99	-8456	2064	14364	144	11	-199	-15744	944	-3976	-127	141	28	-16364	-400	224	113	74	249	121	127	8
-7280	-2680	14028	-84	102	-181	-16612	824	-2436	18	103	193	-16136	2964	-792	159	127	89	-8268	1992	14432	141	-29	-201	-15824	852	-3988	-73	147	51	-16252	-360	144	14	27	205	125	123	8
-7188	-2568	14092	-78	93	-147	-16472	720	-2436	68	167	197	-16092	2868	-1008	113	141	73	-8452	2188	14464	184	-35	-226	-15844	904	-3988	-19	88	26	-16316	-460	60	94	25	203	126	125	8
-7212	-2652	13872	-63	123	-152	-16568	736	-2380	118	122	226	-16120	2984	-700	235	2	65	-8340	2168	14416	162	-54	-198	-15792	952	-3996	-62	109	30	-16208	-440	144	36	48	233	121	124	8
-7260	-2584	13944	-93	113	-199	-16580	804	-2352	80	147	197	-16128	2928	-772	212	12	61	-8440	2184	14420	217	-32	-196	-15728	908	-4004	-33	105	37	-16264	-384	292	41	30	229	121	127	8
-7296	-2512	14056	-72	126	-161	-16444	648	-1860	-35	156	250	-16180	2852	-884	93	93	70	-8372	2288	14356	200	-76	-196	-15796	1092	-3860	-111	126	36	-16316	-408	196	123	63	236	124	126	8
-7320	-2680	14068	-52	105	-160	-16440	800	-2336	188	103	232	-16140	2956	-888	123	61	70	-8424	2244	14328	135	137	-217	-15740	1044	-3900	-214	105	7	-16268	-320	92	139	129	267	131	121	8
-7284	-2564	14000	-36	111	-160	-16512	848	-2352	-46	116	251	-16180	3048	-948	159	85	79	-8332	2204	14340	178	42	-164	-15736	972	-3900	-139	115	17	-16336	-276	-64	64	149	344	124	122	8
-7240	-2532	14012	-35	125	-125	-16456	824	-2384	7	113	222	-16192	3004	-772	122	0	69	-8388	2284	14344	159	-101	-189	-15688	1032	-4064	-167	121	22	-16284	-408	40	63	190	317	124	124	8
-7264	-2696	14084	-65	116	-176	-16448	848	-2300	81	55	224	-16124	3012	-872	143	-11	71	-8396	2232	14312	122	-59	-162	-15740	1064	-3948	-177	99	19	-16420	-280	168	11	142	290	121	123	8
-7180	-2572	14028	-23	132	-199	-16404	836	-2356	-13	87	242	-16188	3040	-688	89	-13	68	-8348	2192	14408	163	-11	-136	-15764	1036	-3900	-123	104	49	-16284	-340	128	31	148	289	123	123	8
-7280	-2692	14044	-40	130	-164	-16440	832	-2328	23	28	262	-16120	3124	-768	-74	-43	92	-8364	2344	14300	155	39	-134	-15668	1068	-3772	-238	166	23	-16372	-304	160	-88	65	245	122	125	8
-7212	-2624	14008	-46	130	-196	-16476	872	-2276	-111	117	227	-16200	2928	-684	-82	-27	77	-8536	2192	14380	138	-19	-123	-15660	1016	-3772	-267	161	30	-16348	-284	416	-163	7	338	121	124	8
-7144	-2400	14092	-48	118	-137	-16496	856	-2444	-49	99	178	-16152	3108	-644	-31	-117	64	-8380	2344	14340	97	-53	-181	-15588	1152	-3800	-209	191	64	-16392	-336	308	-82	18	339	122	124	8
-7316	-2712	13968	-67	129	-178	-16452	876	-2308	-2	149	232	-16184	3060	-596	-6	-126	45	-8452	2408	14384	59	-43	-194	-15708	1060	-3848	-293	172	17	-16444	-216	92	-22	14	331	122	125	8
-7008	-2552	13896	-85	135	-136	-16388	920	-2400	22	183	203	-16096	3220	-560	-1	-226	105	-8420	2204	14384	57	-63	-244	-15856	1028	-4044	-248	199	56	-16384	-228	-52	-14	-56	256	129	122	8
-7268	-2804	13928	-61	140	-187	-16516	752	-2568	74	208	230	-16160	3036	-660	-68	-78	87	-8572	2220	14388	82	15	-181	-15764	984	-3996	-171	153	46	-16384	-320	-32	-61	-45	266	121	125	8
-7328	-2764	13988	-60	124	-152	-16344	880	-2608	-70	215	217	-16068	2972	-880	-55	-161	89	-8352	2292	14400	169	-46	-117	-15692	1052	-4036	-84	169	14	-16368	-320	104	-263	-73	267	122	124	8
-7280	-2740	14000	-78	72	-188	-16528	816	-2176	-136	171	195	-16160	3028	-920	-10	-21	39	-8420	2320	14392	92	-84	-161	-15700	1128	-4004	-190	144	28	-16308	-320	88	-265	-84	248	124	127	8
-7212	-2680	13980	-55	122	-178	-16600	796	-2476	-40	201	206	-16104	3068	-1084	-79	24	37	-8476	2424	14408	118	-54	-192	-15720	1068	-4040	-203	158	33	-16220	-312	72	-144	-35	249	125	124	8
-7196	-2692	13980	-79	80	-195	-16492	956	-2648	7	68	183	-16072	3116	-1028	28	-16	49	-8540	2260	14464	120	-3	-190	-15780	996	-3916	-198	112	-1	-16328	-296	124	-36	-20	240	126	128	8
-7232	-2460	14068	-127	84	-169	-16508	884	-2520	-107	110	197	-16172	3040	-916	72	-25	82	-8440	2268	14416	111	52	-175	-15744	1020	-4076	-136	121	64	-16388	-240	220	-22	48	241	119	126	8
-7288	-2676	14052	-129	129	-217	-16504	744	-2472	-26	40	171	-16196	2976	-920	10	-4	104	-8460	2244	14352	140	-95	-158	-15700	1100	-3884	-198	80	32	-16268	-304	-32	-75	37	201	123	125	8
-7264	-2624	14052	-128	173	-192	-16428	772	-2480	12	25	182	-16176	2976	-988	8	102	121	-8376	2280	14472	121	58	-185	-15716	1040	-4076	-120	149	20	-16320	-316	16	-212	-4	265	123	125	8
-7220	-2572	13972	-114	120	-186	-16508	884	-2460	3	20	217	-16024	2980	-756	46	80	81	-8224	2344	14296	-8	-47	-167	-15792	968	-3860	-171	153	53	-16352	-176	44	-232	-36	215	118	126	8
-7228	-2580	13960	-130	139	-181	-16464	952	-2444	-99	22	196	-16120	3140	-752	-6	26	137	-8604	2288	14216	101	-31	-203	-15684	1044	-3996	-189	167	19	-16296	-224	60	-254	-65	223	124	122	8
-7200	-2584	14040	-91	158	-207	-16484	888	-2524	-113	28	229	-16128	3040	-732	-73	28	108	-8348	2272	14364	109	60	-190	-15752	1132	-4072	-186	161	77	-16376	-280	136	-226	1	205	126	125	8
-7164	-2532	14120	-160	141	-167	-16472	872	-2304	-214	29	205	-16096	2980	-528	-73	84	93	-8376	2220	14368	119	-75	-221	-15728	1100	-4084	-237	117	71	-16272	-300	-132	-62	72	248	124	127	8
-7208	-2648	14064	-127	104	-174	-16432	860	-2404	-167	48	225	-16072	2944	-528	-137	61	92	-8380	2164	14376	118	-133	-162	-15776	980	-4200	-151	119	49	-16196	-308	-236	-213	68	294	125	129	8
-7196	-2668	14064	-126	74	-165	-16432	796	-2340	-90	82	225	-16196	2940	-608	-122	79	114	-8336	2232	14420	160	-63	-163	-15704	1036	-4032	-237	111	54	-16328	-308	44	-385	24	218	124	124	8
-7280	-2772	14080	-103	115	-159	-16412	924	-2428	28	100	224	-16096	2980	-736	-131	26	82	-8332	2276	14568	157	-26	-185	-15732	1088	-4080	-203	134	53	-16328	-308	-44	-327	4	190	125	125	8
-7248	-2628	14072	-65	130	-164	-16472	912	-2468	-110	95	200	-16104	3036	-892	-135	105	106	-8500	2304	14360	163	85	-183	-15732	1156	-4016	-296	113	32	-16292	-292	-80	-352	-3	219	124	127	8
-7184	-2588	14108	-59	100	-157	-16532	880	-2632	-172	61	213	-16076	2944	-836	-166	107	110	-8408	2224	14460	217	12	-181	-15676	1060	-4172	-240	110	50	-16256	-280	20	-212	72	230	126	124	8
-7232	-2540	14132	-124	113	-166	-16444	932	-2548	-140	35	208	-16072	3000	-728	-21	107	125	-8296	2180	14384	213	-63	-179	-15736	1036	-4128	-66	69	70	-16380	-288	-152	-148	88	222	124	126	8
-7156	-2616	14032	-66	102	-190	-16508	928	-2544	-161	81	227	-16140	3004	-788	-43	143	138	-8396	2236	14384	236	-41	-176	-15740	1072	-4080	-100	85	52	-16308	-276	32	-164	52	254	128	127	8
-7204	-2656	14052	-63	108	-192	-16448	864	-2448	-25	98	239	-16152	3028	-708	31	105	150	-8364	2256	14532	226	-16	-139	-15692	1148	-4052	-163	93	76	-16308	-256	-4	-239	58	242	132	127	8
-7176	-2620	14116	-78	117	-167	-16496	944	-2472	-28	92	247	-16176	2972	-908	56	135	154	-8420	2288	14364	176	25	-199	-15696	1132	-3972	-248	120	42	-16320	-300	-60	-185	11	284	126	131	8
-7348	-2588	13984	-59	133	-155	-16488	1000	-2552	-15	57	228	-16116	3152	-744	82	95	113	-8344	2148	14304	158	-60	-198	-15716	1060	-4164	-169	117	76	-16332	-220	-180	-163	-19	280	124	128	8
-7180	-2608	13956	-102	112	-211	-16476	1016	-2556	-59	68	255	-16108	3096	-804	68	130	152	-8424	2244	14412	199	138	-123	-15728	1120	-4268	-47	91	86	-16288	-148	-44	-82	-4	237	128	127	8
-7228	-2516	14108	-122	118	-206	-16432	956	-2444	22	63	223	-16084	3096	-824	103	102	143	-8292	2204	14420	145	57	-209	-15684	1160	-4072	-25	61	75	-16304	-200	-56	-102	-7	266	128	132	8
-7244	-2608	14104	-77	113	-185	-16452	884	-2492	85	50	246	-16072	3044	-836	93	67	144	-8400	2228	14448	168	-36	-207	-15708	1228	-4224	-137	64	36	-16292	-280	-188	-59	21	250	126	126	8
-7196	-2604	14028	-128	135	-161	-16428	988	-2540	-5	58	223	-16084	3100	-864	104	104	154	-8408	2204	14352	208	-10	-183	-15736	1144	-4192	-134	44	52	-16284	-264	-88	-33	51	260	125	130	8
-7272	-2588	14064	-118	122	-173	-16444	948	-2492	-11	60	210	-16120	3020	-756	161	83	148	-8336	2200	14360	209	-16	-160	-15760	1100	-4144	-43	47	65	-16344	-204	-144	-38	18	266	125	127	8
-7192	-2616	14040	-118	152	-139	-16492	912	-2592	35	37	241	-16108	3148	-864	172	80	155	-8420	2268	14272	187	25	-167	-15620	1156	-3992	47	47	75	-16360	-152	-16	-61	-2	266	127	125	8
-7200	-2568	14020	-87	100	-196	-16456	976	-2428	61	18	232	-16060	3096	-716	221	64	138	-8396	2268	14380	195	-1	-190	-15612	1276	-4160	-67	40	86	-16284	-88	-148	63	21	229	125	128	8
-7188	-2580	14132	-93	137	-181	-16448	948	-2556	57	62	218	-16100	3140	-856	145	135	123	-8420	2212	14428	185	-25	-187	-15700	1196	-4132	-166	75	53	-16400	-180	-64	38	-3	210	122	134	8
-7256	-2576	14036	-71	132	-172	-16496	992	-2524	48	42	210	-16148	3140	-872	242	74	101	-8468	2192	14368	175	5	-174	-15608	1144	-4084	-25	49	73	-16304	-236	-196	86	-22	264	128	129	8
-7248	-2620	14084	-91	101	-181	-16480	984	-2556	16	29	236	-16176	3120	-1004	83	149	129	-8332	2264	14472	188	-41	-152	-15700	1192	-4044	72	18	51	-16356	-172	-172	2	-79	284	126	131	8
-7224	-2616	14040	-91	110	-190	-16456	936	-2628	58	42	224	-16064	3140	-952	203	60	128	-8416	2288	14376	166	-4	-144	-15708	1176	-3996	-11	32	76	-16368	-156	-40	-97	-72	234	126	134	8
-7244	-2640	14128	-124	123	-201	-16436	1048	-2540	90	12	217	-16108	3140	-912	256	24	125	-8236	2288	14288	167	168	-124	-15688	1256	-4124	-29	52	60	-16340	-208	-164	3	-35	214	128	132	8
-7248	-2632	14032	-109	148	-168	-16496	996	-2504	83	79	220	-16140	3184	-712	238	91	131	-8476	2288	14348	177	2	-165	-15676	1224	-4236	-57	69	84	-16232	-204	-72	117	-14	229	129	131	8
-7252	-2560	14044	-100	129	-198	-16444	960	-2496	69	60	225	-16040	3144	-796	191	22	126	-8360	2256	14320	179	-68	-140	-15680	1168	-4076	21	37	113	-16376	-84	-124	108	-1	254	131	131	8
-7204	-2580	14076	-44	105	-219	-16432	1004	-2432	76	89	178	-16144	3184	-748	224	18	94	-8420	2264	14308	151	-49	-124	-15660	1316	-4164	-11	28	55	-16348	-216	-8	21	-83	273	127	134	8
-7176	-2580	14096	-98	144	-155	-16496	1036	-2484	78	39	239	-16112	3232	-820	237	-19	124	-8372	2284	14440	170	-44	-143	-15696	1200	-4132	-54	55	54	-16284	-236	-36	-16	-163	259	129	135	8
-7204	-2604	14060	-85	107	-170	-16500	968	-2664	107	22	202	-16156	3136	-812	179	69	125	-8408	2236	14352	176	-63	-183	-15688	1204	-4256	-25	15	79	-16236	-200	-112	101	-87	237	127	130	8
-7216	-2540	13996	-76	112	-204	-16508	996	-2588	70	25	216	-16112	3104	-1076	185	75	129	-8440	2208	14436	194	-36	-125	-15704	1260	-4152	98	39	51	-16332	-112	-228	61	-99	231	128	130	8
-7244	-2592	14036	-65	122	-160	-16460	1024	-2556	92	11	222	-16156	3212	-1012	257	49	112	-8356	2220	14356	170	-42	-153	-15732	1292	-4192	109	-38	33	-16348	-100	-264	204	-32	250	125	134	8
-7188	-2564	14092	-118	155	-190	-16496	988	-2516	48	14	256	-16036	3200	-952	219	108	104	-8348	2300	14264	190	14	-180	-15700	1268	-4308	-50	-25	62	-16348	-156	-164	180	-14	236	131	133	8
-7236	-2544	14132	-58	146	-207	-16456	1008	-2616	95	-41	232	-16140	3228	-952	231	20	128	-8364	2256	14408	219	-6	-146	-15692	1088	-4212	-25	-53	22	-16272	-264	-256	142	-104	211	128	128	8
-7196	-2556	14024	-61	147	-212	-16476	1068	-2592	87	-57	202	-16024	3232	-892	233	3	87	-8404	2216	14460	211	-2	-130	-15668	1148	-4188	170	-83	63	-16300	-212	-176	50	-105	200	129	131	8
-7172	-2572	13996	-122	137	-206	-16428	1004	-2520	68	-10	196	-16056	3188	-864	295	21	89	-8436	2276	14396	212	-11	-117	-15712	1344	-4112	15	-87	84	-16280	-36	-80	27	-126	221	128	137	8
-7224	-2608	14032	-89	129	-211	-16476	1040	-2456	159	11	215	-16112	3140	-880	356	26	93	-8432	2312	14272	201	28	-147	-15644	1232	-4004	26	-29	27	-16240	-76	48	98	-96	260	127	133	8
-7216	-2556	14072	-88	133	-251	-16424	1028	-2476	177	-6	184	-16096	3200	-788	378	62	105	-8412	2300	14328	170	3	-150	-15728	1364	-4128	23	-29	33	-16260	-76	-120	284	-70	250	126	128	8
-7240	-2624	13968	-105	178	-215	-16452	968	-2448	167	35	212	-16136	3216	-764	375	54	95	-8384	2284	14316	203	-29	-167	-15660	1220	-4268	90	-52	28	-16356	0	-128	339	-94	175	131	129	8
-7196	-2568	13992	-40	141	-230	-16456	972	-2520	216	27	204	-16136	3204	-912	298	64	125	-8416	2316	14488	197	-19	-189	-15732	1312	-4104	128	-65	50	-16304	-28	-64	225	-107	222	132	134	8
-7200	-2588	14012	-75	142	-207	-16500	1024	-2572	163	8	177	-16116	3200	-1004	385	28	64	-8444	2324	14348	157	-45	-192	-15652	1260	-4100	91	-13	13	-16252	-36	-4	141	-117	224	126	130	8
-7200	-2564	14028	-68	132	-190	-16432	1124	-2488	133	11	170	-16056	3280	-968	415	24	69	-8332	2320	14400	157	-38	-166	-15712	1288	-4008	87	-31	-9	-16348	40	-100	121	-115	200	125	131	8
-7236	-2604	14092	-79	103	-215	-16456	1100	-2512	129	-23	150	-16128	3308	-784	290	61	43	-8348	2308	14284	125	5	-196	-15692	1372	-4192	38	-22	-38	-16348	-48	-172	204	-125	142	129	132	8
-7260	-2608	14032	-124	126	-182	-16448	1092	-2452	120	-5	183	-16108	3344	-892	199	84	40	-8416	2364	14268	119	-31	-158	-15652	1288	-4204	56	-14	2	-16252	40	-168	94	-105	201	128	128	8
-7200	-2580	14116	-99	121	-253	-16440	1140	-2484	55	7	157	-16088	3256	-960	137	71	33	-8404	2384	14360	101	-17	-172	-15760	1368	-4144	24	2	-51	-16352	52	-160	-12	-119	168	131	131	8
-7188	-2556	14220	-120	141	-205	-16472	948	-2708	65	-15	113	-16108	3184	-1008	116	22	27	-8476	2380	14420	78	-21	-172	-15776	1340	-4120	-152	-9	-75	-16248	-128	-8	-19	-156	160	128	128	8
-7148	-2532	14008	-80	183	-175	-16428	1100	-2580	55	-44	106	-16116	3256	-1028	167	-8	-12	-8432	2216	14416	84	-1	-153	-15644	1092	-4200	40	-5	-72	-16264	-144	-72	-95	-158	140	132	134	8
-7192	-2520	14108	-128	175	-218	-16428	1108	-2564	-1	-85	100	-16012	3316	-852	132	27	8	-8400	2320	14400	122	-56	-111	-15728	1304	-4160	-7	-33	-90	-16276	-112	-4	-47	-113	129	127	130	8
-7244	-2572	14076	-122	184	-212	-16420	1124	-2600	-21	-89	95	-16108	3332	-924	113	26	34	-8396	2344	14444	68	-15	-166	-15652	1292	-4180	-113	-20	-74	-16268	-36	-32	69	-89	149	134	129	8
-7152	-2592	14012	-143	151	-230	-16508	1052	-2524	15	-68	117	-16156	3164	-888	28	73	-15	-8444	2276	14348	74	-57	-165	-15620	1324	-4196	11	8	-117	-16320	-52	-140	90	-58	106	128	127	8
-7268	-2624	14008	-110	161	-221	-16380	1044	-2604	-3	-64	78	-16156	3220	-728	89	32	-47	-8460	2312	14420	64	-27	-150	-15668	1264	-4068	21	-13	-76	-16344	-132	-160	-95	-140	168	128	138	8
-7280	-2584	14036	-112	154	-218	-16476	1056	-2516	-10	-74	90	-16032	3248	-756	106	71	-21	-8388	2224	14316	66	-4	-180	-15736	1224	-4208	8	-38	-101	-16308	-140	-108	-107	-123	126	131	129	8
-7212	-2656	14104	-152	126	-217	-16412	1032	-2540	41	-58	111	-16184	3144	-868	175	28	-3	-8340	2312	14412	88	-41	-178	-15632	1208	-4196	-9	-45	-58	-16340	-124	-252	-85	-145	123	128	129	8
-7216	-2516	14036	-137	123	-253	-16464	1052	-2676	118	-35	83	-15996	3088	-740	163	74	16	-8416	2276	14388	98	-12	-143	-15616	1220	-4188	52	-33	-130	-16340	-196	-220	-28	-128	85	128	125	8
-7224	-2576	13988	-121	164	-237	-16432	1096	-2536	78	-6	70	-16084	3260	-872	113	68	-18	-8452	2352	14396	81	42	-175	-15684	1304	-4076	13	-55	-117	-16328	-52	-76	-39	-144	112	127	127	8
-7136	-2576	14032	-145	128	-219	-16376	1052	-2468	11	-48	56	-16140	3200	-884	152	25	-28	-8444	2356	14416	97	3	-152	-15676	1268	-4084	9	-37	-121	-16384	-168	-44	1	-185	103	128	124	8
-7228	-2532	14044	-138	128	-213	-16420	1008	-2620	52	-1	48	-16036	3212	-920	216	-29	-48	-8360	2256	14344	98	-49	-153	-15684	1168	-4148	37	-18	-87	-16324	-152	-72	7	-213	98	134	127	8
-7224	-2580	14072	-122	166	-262	-16476	1032	-2564	93	-66	84	-16088	3116	-968	202	43	-16	-8392	2272	14468	93	21	-180	-15624	1200	-4208	104	-48	-116	-16312	-220	-160	86	-131	89	124	129	8
-7212	-2632	14096	-156	143	-237	-16480	996	-2644	80	-31	82	-16124	3224	-960	182	-4	-50	-8380	2280	14400	88	-50	-148	-15628	1172	-4196	73	-38	-68	-16308	-200	-156	14	-190	116	125	127	8
-7140	-2620	14040	-124	163	-223	-16412	1016	-2576	58	-65	86	-16124	3120	-940	143	-8	-44	-8476	2328	14344	112	-14	-142	-15728	1316	-4080	35	-60	-89	-16308	-172	-160	68	-135	121	127	130	8
-7288	-2620	14084	-120	191	-223	-16428	1088	-2540	92	-93	74	-16168	3140	-904	271	1	-50	-8404	2244	14308	107	-43	-159	-15672	1224	-4280	8	-58	-134	-16252	-192	-232	6	-148	147	127	127	8
-7208	-2596	14044	-145	149	-206	-16528	1004	-2576	149	-92	56	-16024	3224	-884	255	-30	-81	-8328	2232	14412	75	-54	-189	-15720	1212	-4124	32	-73	-106	-16348	-140	-140	21	-198	92	133	130	8
-7180	-2680	14048	-131	190	-249	-16388	1064	-2548	65	-117	81	-16024	3272	-960	137	0	2	-8388	2308	14420	70	-2	-190	-15732	1288	-4060	67	-60	-90	-16340	-148	16	9	-223	92	130	127	8
-7252	-2592	14032	-140	154	-254	-16448	1004	-2488	15	-93	53	-16176	3144	-1036	125	-10	-39	-8384	2320	14340	33	-29	-198	-15656	1228	-4100	-84	-51	-111	-16304	-184	4	-138	-210	87	127	126	8
-7216	-2628	14040	-134	148	-242	-16456	964	-2488	86	-60	87	-16104	3172	-824	203	0	-49	-8480	2248	14344	83	-34	-190	-15680	1220	-4196	-33	-57	-113	-16284	-252	-160	-46	-194	126	127	128	8
-7176	-2656	14040	-139	161	-187	-16468	980	-2524	56	-51	68	-16108	3136	-984	101	-17	-38	-8404	2316	14328	82	-11	-160	-15760	1172	-4144	60	-38	-95	-16340	-208	-160	-51	-252	123	131	124	8
-7212	-2628	14164	-135	143	-220	-16464	1004	-2488	11	-110	61	-16060	3044	-880	20	-16	-44	-8372	2244	14352	60	-65	-154	-15720	1192	-4116	42	-32	-87	-16276	-184	-220	36	-209	92	129	127	8
-7152	-2616	14004	-88	150	-230	-16432	1084	-2472	31	-86	75	-16048	3124	-960	111	-10	-21	-8404	2232	14320	78	-51	-187	-15688	1140	-4232	83	-45	-68	-16268	-232	-140	99	-182	137	126	124	8
-7192	-2576	14120	-156	156	-251	-16432	1032	-2588	-3	-83	69	-16068	3072	-900	136	24	-37	-8436	2256	14400	82	-93	-181	-15672	1160	-4136	17	-47	-85	-16420	-296	-56	17	-194	142	125	127	8
-7012	-2712	13984	-149	136	-213	-16416	920	-2592	27	-105	54	-16116	3120	-996	165	-8	-35	-8384	2312	14364	71	-41	-183	-15744	1108	-4156	12	-56	-103	-16324	-224	-88	64	-193	117	128	130	8
-7220	-2768	13960	-140	146	-250	-16432	996	-2496	78	-123	99	-16092	2984	-900	244	-54	-13	-8368	2252	14400	88	-1	-142	-15712	1176	-4288	120	-110	-81	-16292	-212	-172	22	-266	134	127	125	8
-7164	-2628	14044	-75	104	-230	-16516	960	-2384	131	-88	102	-16116	3044	-756	304	-2	42	-8376	2288	14456	105	-87	-135	-15740	1248	-4180	-11	-48	-100	-16264	-248	-172	23	-193	153	127	125	8
-7176	-2688	14044	-108	118	-174	-16436	984	-2368	135	-52	85	-16156	3184	-692	299	-43	-30	-8372	2256	14448	122	-1	-160	-15712	1132	-4188	85	-49	-99	-16340	-164	-76	48	-214	137	125	125	8
-7196	-2616	14004	-63	123	-191	-16436	1008	-2276	137	18	92	-16036	3316	-796	234	-62	-38	-8364	2308	14396	136	-81	-152	-15736	1252	-4152	30	-104	-51	-16368	-116	-164	63	-192	129	124	125	8
-7196	-2632	13988	-82	122	-203	-16520	1044	-2556	56	2	88	-16180	3208	-1008	104	-2	2	-8384	2228	14372	128	-30	-165	-15648	1268	-4284	-63	-61	-113	-16292	-88	-104	-4	-192	125	125	124	8
-7192	-2684	14000	-53	150	-190	-16536	932	-2588	37	-47	99	-16044	3264	-1212	42	-49	-12	-8380	2276	14432	107	1	-161	-15616	1256	-4188	-14	-93	-92	-16344	-176	-176	21	-201	139	130	124	8
-7216	-2556	14088	-56	167	-176	-16476	1048	-2780	-8	-55	91	-16072	3244	-1276	-51	-28	-11	-8452	2336	14396	146	-36	-184	-15792	1252	-4216	-93	-124	-128	-16292	-292	-208	-67	-145	137	129	123	8
-7232	-2540	14112	-95	155	-195	-16520	1032	-2700	-174	-155	123	-16144	3188	-1300	-20	-4	5	-8408	2216	14380	130	21	-140	-15696	1028	-4364	-38	-147	-99	-16272	-352	-148	-89	-103	80	124	124	8
-7188	-2536	14064	-153	153	-220	-16456	932	-2664	-100	-225	116	-16168	2956	-976	8	-35	38	-8384	2220	14372	151	24	-125	-15664	1120	-4236	144	-215	-128	-16236	-332	-136	5	-39	115	128	125	8
-7236	-2556	14168	-144	180	-239	-16472	876	-2484	12	-216	108	-16028	3080	-864	217	-97	77	-8468	2280	14364	164	32	-96	-15716	1232	-4084	28	-185	-41	-16252	-196	220	17	-46	123	126	127	8
-7212	-2656	14056	-136	115	-219	-16412	1024	-2344	86	-146	134	-16064	3012	-576	272	-22	73	-8344	2292	14412	179	5	-135	-15664	1156	-3796	24	-117	-91	-16336	-164	180	101	-15	158	129	123	8
-7204	-2616	14136	-158	145	-272	-16392	960	-2180	136	-108	171	-16040	3044	-480	331	-6	70	-8396	2296	14308	139	-73	-152	-15640	1184	-3956	-14	-121	-60	-16312	-288	124	156	-69	183	128	128	8
-7436	-2744	13984	-73	189	-213	-16336	996	-2296	132	-73	124	-16088	3096	-332	401	15	63	-8360	2288	14348	131	10	-144	-15640	1108	-3924	130	-72	-3	-16252	-296	200	159	-161	176	135	127	8
-7240	-2772	13964	-67	150	-254	-16424	800	-2152	192	67	156	-16148	2996	-336	473	51	34	-8372	2296	14320	143	-57	-171	-15684	1124	-3928	210	-41	16	-16352	-232	276	207	-234	162	127	122	8
-7212	-2672	14044	-54	79	-174	-16420	944	-2200	410	92	165	-16156	3188	-496	515	-61	38	-8380	2364	14360	136	-33	-199	-15644	1176	-4004	233	11	37	-16340	-144	100	350	-185	176	125	128	8
-7232	-2620	14096	-17	82	-163	-16496	1008	-2452	257	170	148	-16052	3176	-560	360	-17	43	-8404	2296	14400	135	-63	-179	-15752	1324	-4076	75	18	-5	-16240	-148	-4	419	-167	222	124	125	8
-7172	-2644	14080	-7	103	-163	-16492	968	-2472	173	182	168	-16176	3076	-972	350	-8	35	-8512	2212	14388	105	-85	-222	-15700	1208	-4136	164	-12	34	-16300	-160	-176	389	-182	219	129	130	8
-7140	-2640	14096	-16	94	-173	-16464	1020	-2672	229	128	151	-16180	3124	-1048	344	-32	-6	-8412	2240	14280	118	-57	-210	-15716	1148	-4276	216	30	49	-16336	-160	-48	142	-221	205	129	127	8
-7236	-2524	14052	-32	103	-158	-16492	1036	-2684	291	66	173	-16112	3316	-1152	287	-116	11	-8400	2284	14408	146	-58	-186	-15704	1248	-4220	66	-30	-8	-16360	-116	-188	70	-181	182	127	126	8
-7244	-2512	14116	-66	115	-176	-16516	1072	-2848	177	21	139	-16028	3152	-1292	231	30	-3	-8412	2220	14384	116	-5	-158	-15688	1244	-4224	-65	-11	-69	-16332	-124	-212	12	-192	175	122	130	8
-7200	-2512	14016	-96	108	-192	-16536	1048	-2728	114	-60	173	-16096	3216	-1300	207	-8	33	-8400	2260	14392	132	-62	-168	-15736	1204	-4160	-69	-43	-47	-16356	-212	-280	-26	-202	199	128	128	8
-7144	-2620	14064	-103	135	-235	-16468	992	-2668	63	-91	121	-16148	3216	-1236	144	3	58	-8396	2260	14388	129	-44	-167	-15688	1184	-4308	-51	-96	-36	-16356	-176	-76	32	-107	137	131	127	8
-7240	-2552	14056	-121	154	-201	-16404	1060	-2632	-31	-140	155	-16044	3232	-1000	53	-74	42	-8468	2232	14344	136	-56	-116	-15732	1192	-4144	85	-92	-66	-16344	-148	-112	-28	-132	155	129	129	8
-7232	-2592	13980	-119	164	-216	-16528	992	-2508	-77	-151	107	-16124	3144	-1128	52	-35	44	-8396	2284	14296	135	22	-120	-15716	1216	-4208	-113	-141	-59	-16360	-148	-100	-112	-128	137	124	123	8
-7204	-2644	14080	-113	157	-216	-16412	1008	-2464	-46	-191	119	-16112	3116	-760	96	-74	54	-8396	2256	14336	159	-21	-127	-15648	1196	-4152	-31	-124	-88	-16344	-208	32	-149	-183	114	125	125	8
-7132	-2640	14068	-114	140	-220	-16444	968	-2388	-49	-194	133	-16128	3184	-796	70	-75	17	-8356	2364	14420	130	-18	-134	-15700	1224	-4020	-98	-112	-60	-16328	-268	32	-159	-209	153	130	130	8
-7176	-2656	14056	-109	130	-192	-16412	1048	-2328	-23	-133	117	-16100	3200	-708	45	-45	27	-8464	2332	14432	105	-1	-147	-15692	1144	-3988	-40	-104	-53	-16324	-112	4	-41	-196	185	127	127	8
-7248	-2548	14088	-160	164	-231	-16464	1016	-2368	19	-94	142	-16056	3164	-644	98	-78	-1	-8404	2264	14364	93	-5	-169	-15688	1208	-4012	1	-41	-50	-16312	-312	-16	25	-192	154	130	129	8
-7176	-2588	13980	-93	151	-248	-16448	932	-2320	-9	-97	149	-16164	3072	-660	194	-72	-4	-8456	2272	14440	124	1	-184	-15740	1228	-4016	-11	-73	-26	-16288	-252	104	25	-182	155	127	126	8
-7216	-2612	14068	-98	136	-212	-16428	920	-2396	109	-23	147	-16112	3164	-892	198	-57	18	-8412	2264	14416	143	22	-160	-15676	1216	-3972	-13	-58	-53	-16340	-208	28	13	-257	172	125	123	8
-7240	-2572	13992	-51	125	-204	-16448	960	-2508	151	-39	116	-16020	3104	-924	175	-51	15	-8424	2300	14456	126	-49	-162	-15660	1164	-4040	99	-97	-35	-16344	-204	-88	56	-264	179	123	127	8
-7316	-2604	13984	-93	121	-190	-16464	1024	-2524	83	-44	145	-16008	3128	-856	259	-31	28	-8400	2332	14344	143	-44	-171	-15732	1224	-4140	59	-61	-15	-16380	-184	-56	171	-191	179	127	122	8
-7144	-2616	14120	-109	126	-198	-16432	960	-2400	141	-12	139	-16204	3116	-812	368	-62	47	-8412	2204	14400	139	-40	-144	-15664	1136	-4108	135	-74	-56	-16324	-100	-44	150	-197	150	128	124	8
-7176	-2572	14048	-77	122	-232	-16432	928	-2484	215	-5	134	-16124	3192	-780	438	-80	43	-8380	2268	14380	139	-56	-144	-15724	1216	-4056	164	-122	-41	-16276	-208	108	102	-186	145	128	131	8
-7192	-2584	14056	-66	141	-206	-16448	912	-2424	265	-1	121	-16096	3200	-816	362	-77	4	-8444	2356	14436	133	-12	-161	-15744	1296	-3892	35	-57	-50	-16376	-212	20	61	-249	161	125	125	8
-7184	-2624	14048	-57	135	-211	-16416	1052	-2520	186	-53	154	-16092	3240	-876	283	-62	17	-8436	2272	14300	97	-16	-173	-15720	1132	-4128	-11	-91	-41	-16300	-232	-56	54	-248	159	128	124	8
-7184	-2568	14112	-50	125	-198	-16476	1012	-2480	117	-16	131	-16120	3176	-840	238	-84	26	-8372	2304	14280	130	-37	-168	-15660	1120	-4144	172	-90	-28	-16220	-136	28	46	-174	169	129	126	8
-7248	-2632	14068	-99	136	-192	-16468	1032	-2492	62	-26	97	-16084	3240	-980	266	-101	-33	-8452	2288	14324	141	-40	-126	-15688	1352	-4064	89	-61	-115	-16300	-56	164	16	-186	124	130	127	8
-7216	-2640	14016	-49	162	-223	-16508	1008	-2520	100	-28	117	-16196	3180	-936	78	-51	-17	-8352	2292	14372	100	-30	-117	-15712	1296	-3964	-49	-29	-83	-16384	-56	216	-44	-186	115	124	125	8
-7212	-2580	13948	-51	139	-168	-16396	1016	-2508	83	-86	136	-16048	3176	-892	20	-103	3	-8412	2320	14496	61	-62	-192	-15664	1264	-3996	-97	-40	-68	-16272	-160	44	-110	-254	163	127	126	8
-7224	-2588	14060	-82	135	-216	-16464	1052	-2532	-10	-19	139	-16116	3240	-852	25	-109	9	-8480	2328	14396	60	-72	-149	-15672	1160	-4180	-104	-36	-50	-16280	-200	-64	-73	-231	167	131	126	8
-7184	-2552	14116	-77	156	-168	-16468	1044	-2412	-82	-39	59	-16100	3164	-804	90	-75	9	-8364	2204	14432	54	-32	-185	-15700	1168	-4032	-42	-41	-89	-16300	-228	16	-146	-190	203	128	122	8
-7188	-2632	14008	-102	169	-204	-16404	968	-2468	-7	-10	102	-16104	3148	-632	60	-101	-10	-8332	2312	14360	84	-12	-164	-15700	1184	-4120	-97	-31	-85	-16292	-192	-16	-119	-207	116	121	127	8
-7228	-2560	14080	-78	148	-247	-16524	972	-2564	31	-45	100	-16132	3152	-788	31	-116	-44	-8408	2276	14368	98	-60	-176	-15764	1180	-4000	-93	-27	-60	-16324	-256	68	-186	-198	140	126	123	8
-7144	-2636	14020	-94	165	-190	-16404	952	-2484	3	-65	92	-16088	3068	-812	-59	-114	16	-8452	2276	14368	129	-71	-116	-15720	1152	-4000	-57	-25	-61	-16248	-244	160	-122	-218	155	130	128	8
-7216	-2552	14116	-110	144	-198	-16532	972	-2504	22	-43	118	-16100	2992	-804	86	-33	28	-8324	2280	14400	54	-41	-142	-15704	1148	-4064	22	-27	-42	-16328	-280	8	-7	-214	175	123	127	8
-7256	-2688	14040	-74	170	-203	-16436	920	-2548	35	-31	121	-16164	2972	-856	210	-136	-21	-8392	2316	14396	78	-70	-179	-15728	1184	-3996	-42	-38	10	-16444	-200	104	2	-240	212	127	132	8
-7184	-2600	14068	-57	143	-190	-16388	908	-2432	138	-48	151	-16204	3064	-776	306	-125	15	-8432	2288	14360	87	-71	-199	-15760	1220	-4120	-26	-36	-56	-16348	-284	-48	137	-163	237	131	127	8
-7208	-2576	14032	-91	130	-191	-16448	972	-2312	107	-47	159	-16100	3188	-800	209	-28	70	-8412	2284	14408	122	-6	-182	-15756	1136	-4236	-7	-80	-27	-16408	-296	-372	84	-200	194	123	126	8
-7172	-2584	14040	-106	130	-184	-16428	936	-2432	140	-96	176	-16100	3092	-820	188	-72	57	-8404	2228	14352	173	-4	-139	-15768	1064	-4220	96	-77	-11	-16340	-304	-100	126	-199	170	125	122	8
-7172	-2652	14020	-79	140	-219	-16476	1020	-2488	63	-36	165	-16140	3040	-932	208	-87	50	-8380	2276	14480	142	-3	-146	-15672	1216	-4160	95	-128	-10	-16292	-256	-60	101	-195	172	127	126	8
-7180	-2580	14144	-81	119	-177	-16464	1016	-2624	140	-79	164	-16096	3056	-908	266	-104	44	-8436	2304	14372	150	7	-134	-15760	1268	-4060	34	-137	-51	-16356	-180	-140	90	-196	171	129	125	8
-7176	-2588	14020	-78	126	-215	-16464	1036	-2432	124	-55	152	-16120	3200	-796	243	-67	49	-8440	2348	14416	180	2	-108	-15756	1248	-4024	2	-133	-21	-16368	-188	-132	130	-143	227	125	130	8
-7168	-2624	14060	-48	132	-214	-16440	1028	-2484	124	-50	171	-16116	3180	-792	245	-107	59	-8408	2312	14248	166	58	-142	-15696	1248	-4128	-17	-166	-63	-16284	-152	20	94	-178	230	129	125	8
-7232	-2600	14020	-76	141	-229	-16444	1080	-2504	78	-99	186	-16076	3144	-688	298	-96	67	-8364	2224	14388	183	-32	-144	-15748	1192	-4060	61	-203	-45	-16332	-132	108	75	-161	153	128	126	8
-7168	-2572	14044	-67	140	-211	-16512	972	-2512	174	-92	193	-16096	3076	-904	277	-91	60	-8412	2204	14336	193	-37	-129	-15700	1164	-4056	64	-196	-21	-16292	-204	252	68	-174	162	128	127	8
-7208	-2596	14084	-99	147	-185	-16408	1064	-2500	171	-68	157	-16136	3152	-716	317	-79	50	-8420	2320	14432	148	24	-115	-15748	1188	-4084	91	-177	-50	-16208	-288	120	97	-228	181	122	124	8
-7252	-2624	13960	-78	129	-206	-16452	980	-2516	116	-74	177	-16108	3180	-772	287	-94	8	-8360	2304	14464	177	19	-137	-15596	1212	-3928	107	-161	11	-16316	-120	172	191	-198	205	125	127	8
-7180	-2572	14152	-95	163	-209	-16416	1036	-2500	144	-98	182	-16028	3184	-888	238	-152	59	-8496	2256	14288	167	-58	-134	-15704	1208	-3980	55	-142	-21	-16340	-196	120	182	-200	219	128	126	8
-7216	-2608	13992	-98	139	-245	-16420	1032	-2352	163	-73	197	-16128	3112	-776	302	-62	88	-8476	2296	14412	172	-30	-174	-15752	1184	-3984	47	-142	2	-16332	-156	8	132	-228	181	127	125	8
-7152	-2560	14080	-89	134	-169	-16516	1036	-2612	149	-92	172	-16160	3148	-932	275	-88	57	-8300	2240	14296	163	-4	-202	-15716	1164	-4144	20	-140	-14	-16292	-152	12	111	-237	166	127	130	8
-7192	-2532	14084	-101	161	-186	-16484	1068	-2520	110	-154	145	-16128	3048	-804	188	-87	68	-8472	2240	14464	150	45	-158	-15724	1232	-4068	15	-150	-41	-16336	-152	-96	85	-219	210	127	128	8
-7204	-2568	14056	-123	184	-188	-16436	1016	-2524	45	-157	156	-16064	3144	-908	171	-121	36	-8328	2260	14508	147	-11	-147	-15752	1244	-4100	-4	-231	-63	-16424	-156	-96	65	-184	165	125	128	8
-7168	-2624	13984	-147	152	-204	-16476	1036	-2432	62	-123	141	-16104	3112	-852	152	-85	59	-8420	2092	14556	200	-11	-164	-15708	1208	-4068	-21	-208	-23	-16260	-208	-12	121	-132	198	128	125	8
-7228	-2544	14028	-138	139	-201	-16444	1080	-2396	43	-168	147	-16104	3252	-796	229	-85	47	-8428	2256	14416	207	-43	-147	-15716	1236	-3968	28	-239	-34	-16280	-200	-12	86	-167	163	131	124	8
-7180	-2604	14112	-129	160	-185	-16420	1072	-2544	49	-131	170	-16148	3208	-884	130	-88	49	-8396	2204	14468	218	-14	-147	-15736	1188	-4016	84	-252	-31	-16384	-260	168	111	-198	119	128	126	8
-7184	-2560	14068	-149	170	-205	-16500	1028	-2488	19	-173	118	-16108	3144	-788	153	-79	20	-8432	2188	14324	191	-30	-89	-15692	1220	-3980	113	-207	-79	-16228	-172	236	113	-211	197	125	125	8
-7244	-2604	14108	-134	167	-258	-16524	1044	-2412	66	-130	145	-16108	3120	-708	269	-117	67	-8504	2256	14376	158	-48	-97	-15736	1228	-3876	37	-208	-56	-16392	-180	300	55	-188	213	131	124	8
-7224	-2628	14028	-90	137	-237	-16552	996	-2476	119	-129	183	-16144	3116	-708	360	-112	29	-8392	2292	14468	166	-62	-122	-15784	1112	-3896	95	-142	-44	-16292	-120	440	187	-209	211	127	128	8
-7284	-2624	14052	-66	154	-218	-16432	988	-2352	250	-178	124	-16152	3200	-784	343	-58	38	-8428	2364	14416	114	16	-167	-15708	1252	-3816	84	-143	-20	-16372	-8	468	180	-285	154	128	124	8
-7192	-2540	13996	-57	163	-219	-16388	1096	-2420	114	-160	155	-16072	3232	-748	269	-35	76	-8372	2404	14372	143	-65	-112	-15704	1304	-3756	84	-75	-26	-16296	-100	272	178	-282	154	124	127	8
-7144	-2540	14020	-113	145	-199	-16556	992	-2380	53	-163	122	-16160	3184	-660	313	-118	49	-8448	2380	14536	119	-49	-123	-15760	1308	-3764	17	-52	-38	-16396	-112	332	9	-302	224	125	131	8
-7216	-2616	13896	-101	195	-195	-16472	1012	-2320	120	-133	111	-16104	3176	-616	266	-74	12	-8424	2272	14296	78	-56	-191	-15680	1208	-3968	-11	-74	-53	-16224	-144	32	107	-268	209	123	131	8
-7172	-2600	13952	-64	144	-201	-16500	1072	-2348	57	-115	174	-16092	3216	-772	150	-114	0	-8468	2372	14388	105	-64	-188	-15724	1128	-4072	12	-111	-43	-16360	-128	132	67	-268	160	132	127	8
-7232	-2584	14064	-49	188	-250	-16464	1144	-2352	-35	-72	77	-16144	3180	-816	151	-92	14	-8368	2280	14352	71	-18	-122	-15744	1168	-3976	74	-123	-46	-16380	-44	112	37	-273	173	124	124	8
-7120	-2620	14080	-23	188	-203	-16488	912	-2276	7	-92	110	-16152	3164	-672	131	-84	-18	-8384	2276	14348	111	3	-125	-15800	1224	-4016	-17	-128	-75	-16276	-92	180	-61	-249	118	124	128	8
-7140	-2516	14084	-33	138	-191	-16428	972	-2440	79	-118	109	-16096	3192	-828	58	-97	-6	-8332	2368	14304	157	-45	-142	-15788	1212	-3992	-59	-117	-113	-16288	-120	232	-102	-208	131	127	130	8
-7256	-2520	14112	-56	157	-213	-16448	1092	-2392	-18	-82	108	-16044	3232	-788	7	-39	-18	-8428	2408	14452	108	6	-149	-15816	1244	-4020	-146	-126	-103	-16392	-132	208	-98	-194	121	130	127	8
-7168	-2528	14060	-87	163	-182	-16488	1104	-2384	-84	-134	126	-16112	3096	-744	71	-82	14	-8436	2332	14344	107	-8	-150	-15696	1172	-4008	-1	-111	-59	-16200	-196	180	20	-210	149	127	127	8
-7180	-2612	14068	-112	177	-213	-16456	956	-2428	2	-112	117	-16092	3088	-912	75	-95	-7	-8160	2140	14480	97	-57	-192	-15744	1320	-3648	74	-117	-70	-16348	-76	220	38	-117	143	130	131	8
-7228	-2548	14156	-91	174	-195	-16412	996	-2412	96	-122	134	-15992	3128	-576	217	-94	6	-8472	2112	14284	183	-89	-143	-15676	1188	-3852	-46	-141	-109	-16268	-144	236	-111	-191	151	125	125	8
-7192	-2656	14080	-131	170	-264	-16476	1068	-2348	99	-93	100	-16136	3208	-636	214	-66	-38	-8496	2428	14296	138	-60	-130	-15720	1224	-3884	0	-107	-98	-16384	-196	368	49	-203	156	128	129	8
-7164	-2612	14156	-101	142	-219	-16480	1056	-2208	19	-124	82	-16088	3160	-588	202	-89	-10	-8428	2328	14228	130	-3	-200	-15700	1240	-3800	-24	-102	-95	-16360	-184	264	48	-184	155	125	125	8
-7196	-2596	13956	-92	160	-204	-16420	1004	-2272	78	-75	88	-16144	3224	-696	249	-54	-12	-8332	2288	14392	122	-13	-187	-15740	1036	-3968	99	-86	-68	-16252	-112	228	95	-251	136	126	127	8
-7220	-2548	14044	-86	140	-210	-16476	1036	-2416	112	-78	87	-16044	3120	-672	220	-92	-14	-8468	2360	14352	125	-72	-163	-15732	1340	-3936	129	-51	-81	-16320	-132	204	82	-184	107	127	127	8
-7248	-2532	13972	-130	146	-258	-16456	1072	-2324	48	-60	81	-16184	3220	-656	218	-14	-47	-8468	2328	14264	57	-26	-180	-15768	1356	-3932	-41	-75	-107	-16344	-28	-28	92	-154	125	125	125	8
-7204	-2644	14124	-90	167	-240	-16452	1008	-2260	110	-62	75	-16104	3184	-580	201	-68	-12	-8436	2296	14300	64	-48	-126	-15676	1196	-3984	-22	-93	-142	-16264	-144	108	8	-213	110	125	127	8
-7216	-2616	14048	-99	159	-219	-16456	1052	-2356	109	-58	75	-16068	3124	-620	189	-6	-65	-8476	2280	14388	78	-45	-154	-15740	1192	-3928	73	-109	-121	-16368	-188	284	-53	-215	123	127	128	8
-7140	-2660	14020	-73	125	-202	-16492	988	-2216	119	-64	72	-16084	3164	-832	159	-15	-35	-8348	2324	14408	79	-50	-165	-15816	1224	-3800	62	-75	-127	-16320	-148	212	-35	-292	145	128	130	8
-7244	-2496	14020	-68	135	-228	-16524	1028	-2412	140	-47	89	-16156	3132	-672	128	-1	-63	-8408	2336	14380	47	6	-153	-15740	1264	-3928	26	-33	-100	-16336	-172	332	-13	-254	133	123	131	8
-7176	-2608	14100	-28	128	-232	-16464	1012	-2476	183	-59	80	-16132	3228	-924	267	-35	-29	-8412	2284	14268	78	-66	-182	-15696	1160	-4024	8	-60	-136	-16340	-200	284	73	-181	109	126	127	8
-7216	-2496	13936	-34	146	-222	-16552	1136	-2356	10	-127	39	-15940	3060	-852	227	-108	-36	-8416	2256	14328	41	29	-157	-15708	1116	-3880	36	-98	-163	-16340	-140	120	-22	-271	132	127	126	8
-7256	-2600	13960	-85	184	-192	-16488	956	-2336	49	-63	77	-16212	3016	-776	221	-73	-9	-8420	2316	14316	46	-49	-174	-15708	1100	-3900	57	-3	-118	-16396	-224	200	-30	-277	90	124	127	8
-7236	-2640	13928	-38	169	-213	-16388	956	-2160	109	-33	46	-16172	3164	-636	264	-47	-66	-8372	2292	14360	93	-54	-140	-15756	1188	-3964	-14	-26	-86	-16312	-236	200	1	-269	76	128	125	8
-7328	-2628	14032	-43	151	-216	-16488	960	-2252	73	-27	92	-16096	3152	-560	259	-68	-81	-8348	2284	14348	49	-75	-161	-15716	1132	-3908	-29	-83	-105	-16264	-248	32	51	-251	131	127	126	8
-7284	-2664	14088	9	159	-199	-16480	960	-2160	74	26	57	-15952	2976	-712	243	-76	-63	-8432	2236	14400	52	-43	-184	-15772	1100	-4016	41	-56	-125	-16300	-252	180	69	-214	123	131	127	8
-7116	-2572	13988	26	138	-167	-16436	940	-2248	98	43	53	-16184	3032	-604	310	-165	-63	-8404	2300	14280	44	-39	-116	-15776	1124	-3956	76	-59	-96	-16352	-216	172	72	-227	110	124	124	8
-7252	-2548	14024	73	142	-183	-16504	1052	-2296	86	38	85	-16400	3228	-748	167	-187	1	-8400	2384	14380	69	-39	-195	-15736	1116	-3920	24	-125	-125	-16260	-320	268	82	-232	115	131	125	8
-7220	-2516	13976	-3	176	-175	-16452	988	-2376	30	95	86	-16080	3096	-408	254	-59	-53	-8400	2284	14324	100	-35	-167	-15800	1116	-3880	154	-83	-123	-16308	-356	256	187	-248	157	124	125	8
-7268	-2644	14096	19	174	-200	-16460	944	-2324	155	78	67	-16120	3008	-520	406	-103	-43	-8396	2332	14420	88	-16	-134	-15808	1124	-3908	147	-78	-136	-16356	-248	236	293	-223	103	129	125	8
-7112	-2636	14024	18	144	-200	-16388	956	-2288	216	116	147	-16144	3020	-484	427	-209	17	-8416	2248	14348	99	-11	-149	-15764	1092	-3856	198	-93	-71	-16368	-276	236	234	-250	134	125	128	8
-7180	-2492	14092	16	125	-191	-16536	896	-2304	368	136	131	-16108	3000	-356	563	-126	-54	-8476	2320	14396	66	-24	-133	-15732	1064	-3900	224	-50	-82	-16276	-296	456	259	-242	108	128	133	8
-7140	-2528	14088	82	75	-135	-16452	1088	-2440	357	159	121	-16100	3208	-416	613	-143	-57	-8416	2308	14412	118	-15	-147	-15760	1064	-3800	274	-27	-86	-16236	-240	396	309	-260	106	121	127	8
-7308	-2364	14180	64	130	-155	-16456	1052	-2432	253	153	112	-15832	2976	-652	482	-50	-19	-8400	2416	14376	99	-48	-155	-15820	1292	-3748	214	-45	-51	-16336	-136	340	305	-260	110	127	129	8
-7184	-2528	14044	-6	125	-167	-16440	968	-2436	288	180	110	-16176	3120	-688	521	-114	-41	-8424	2348	14328	97	-66	-189	-15820	1256	-3816	138	-6	-72	-16352	-124	360	224	-258	150	131	130	8
-7244	-2580	13964	42	136	-193	-16472	872	-2400	330	175	116	-16252	3164	-704	313	-96	10	-8448	2288	14364	67	-28	-146	-15772	1172	-3892	157	-7	-59	-16276	-200	244	279	-201	159	126	124	8
-7264	-2428	14136	-17	110	-172	-16468	984	-2568	288	95	86	-16120	3176	-696	405	-22	-72	-8380	2292	14356	105	-42	-144	-15696	1084	-3792	197	-21	-67	-16284	-136	384	160	-212	126	126	126	8
-7280	-2404	14124	-13	160	-198	-16452	1084	-2352	143	113	94	-16032	3144	-716	362	-49	-39	-8380	2344	14320	53	-65	-204	-15772	1144	-3788	133	18	-53	-16320	-76	256	68	-251	113	126	127	8
-7192	-2496	14032	-12	157	-202	-16524	904	-2416	111	132	95	-16284	3120	-860	313	-26	-17	-8420	2296	14352	121	-2	-193	-15728	1168	-3964	1	13	-82	-16308	-232	208	110	-177	116	124	130	8
-7284	-2360	14140	-16	143	-179	-16520	1032	-2520	244	87	101	-16120	3096	-580	257	29	-43	-8448	2296	14368	71	-54	-140	-15740	1088	-3972	28	-2	-72	-16292	-136	356	14	-169	100	126	131	8
-7284	-2548	13948	-33	123	-195	-16476	976	-2612	98	107	94	-16156	3216	-696	252	-32	-58	-8460	2320	14456	112	-54	-176	-15732	1036	-3832	46	-36	-98	-16304	-144	364	-32	-120	125	124	127	8
-7172	-2472	14016	-44	164	-211	-16408	1100	-2488	76	88	96	-16028	3176	-792	258	13	-8	-8384	2308	14392	93	-82	-172	-15808	1160	-3852	16	43	-74	-16372	-144	456	-5	-125	69	128	128	8
-6988	-2312	14188	-73	139	-174	-16524	928	-2528	45	55	41	-16064	3116	-792	124	69	-23	-8364	2324	14332	106	-56	-158	-15776	1176	-3856	-43	56	-86	-16256	-172	344	-72	-137	124	123	133	8
-7176	-2420	14060	-89	171	-195	-16516	904	-2632	88	38	53	-16116	3060	-624	180	39	-6	-8380	2316	14356	39	-74	-183	-15744	1184	-3816	-15	47	-91	-16324	-236	268	1	-132	162	124	129	8
-7196	-2516	14120	-126	138	-207	-16496	980	-2516	43	30	50	-16120	3092	-580	250	52	-47	-8344	2320	14380	72	-86	-195	-15800	1060	-3952	80	55	-80	-16280	-320	280	-3	-131	93	128	124	8
-7132	-2540	14056	-100	124	-228	-16516	920	-2476	79	49	63	-16100	3004	-660	266	122	5	-8352	2252	14292	82	17	-195	-15716	1028	-3924	106	76	-92	-16312	-272	156	93	-95	83	125	128	8
-7188	-2576	13992	-122	122	-223	-16472	836	-2388	160	24	77	-16204	2996	-832	289	92	9	-8308	2248	14412	121	-43	-217	-15784	1112	-3856	55	51	-101	-16276	-392	316	141	-102	116	127	127	8
-7280	-2544	14064	-110	130	-197	-16476	908	-2432	238	21	76	-16160	3008	-632	342	129	0	-8432	2264	14408	88	-43	-205	-15768	1048	-3956	160	42	-73	-16328	-292	116	216	-97	114	127	122	8
-7252	-2540	14032	-122	122	-211	-16420	944	-2480	209	37	108	-16104	3004	-772	410	91	-8	-8516	2256	14448	108	-11	-213	-15724	1084	-3984	174	-6	-29	-16248	-328	252	245	-102	141	125	127	8
-7236	-2472	14088	-99	105	-189	-16428	956	-2380	238	44	73	-16080	3008	-416	543	107	36	-8420	2256	14312	117	-31	-182	-15688	1048	-3924	279	-5	-46	-16356	-268	148	295	-134	108	122	126	8
-7204	-2576	14084	-149	134	-236	-16420	920	-2232	298	132	103	-16204	2984	-512	639	87	49	-8436	2296	14188	114	-43	-197	-15668	1068	-3844	277	15	-34	-16312	-212	400	326	-170	142	129	129	8
-7160	-2500	14084	-91	120	-202	-16460	744	-2416	484	86	141	-16176	3060	-680	685	132	68	-8440	2272	14340	98	-26	-165	-15784	1132	-3892	183	41	-49	-16352	-244	440	390	-187	148	126	126	8
-7228	-2440	14052	-55	113	-208	-16416	948	-2500	435	115	124	-16040	2984	-768	666	5	75	-8252	2144	14420	158	-82	-171	-15768	1020	-3832	201	22	-65	-16344	-308	444	252	-189	163	127	123	8
-7160	-2536	14072	-34	116	-217	-16448	964	-2556	337	179	120	-16072	3060	-588	637	143	54	-8372	2284	14368	167	-87	-163	-15760	932	-3956	322	51	12	-16352	-248	292	320	-184	115	128	129	8
-7140	-2508	14032	-47	91	-216	-16408	948	-2500	359	183	129	-16184	3100	-680	636	154	32	-8448	2284	14364	126	-30	-224	-15744	1152	-3908	387	46	20	-16360	-56	348	170	-237	74	130	127	8
-7188	-2588	14124	-26	131	-190	-16472	920	-2512	362	147	101	-16076	3068	-708	552	92	-36	-8392	2336	14416	154	-9	-153	-15796	1260	-3888	169	77	-75	-16360	-148	432	58	-164	90	128	128	8
-7128	-2528	14116	-66	111	-183	-16460	1020	-2556	354	210	72	-16236	3148	-836	578	57	-6	-8392	2252	14448	100	-39	-238	-15800	1164	-3956	22	39	-39	-16320	-196	252	-26	-165	99	126	131	8
-7240	-2388	14084	-50	142	-181	-16480	1060	-2788	320	144	86	-15920	3296	-680	371	-210	78	-8308	2180	14432	128	-100	-208	-15716	1108	-3920	96	78	-39	-16280	-168	336	-14	-208	85	130	123	8
-7252	-2476	14032	-72	107	-201	-16568	936	-2492	224	145	90	-16144	3176	-852	309	145	-30	-8316	2244	14448	144	-99	-239	-15720	1100	-3868	105	57	-83	-16280	-188	436	-74	-103	95	129	126	8
-7064	-2476	13872	-116	114	-241	-16436	1008	-2552	61	156	65	-15984	3184	-956	205	132	4	-8392	2328	14316	68	-2	-198	-15700	1168	-3820	87	92	-93	-16280	-252	312	-61	-125	121	127	123	8
-7352	-2484	14120	-133	100	-228	-16492	920	-2792	55	87	52	-16124	3128	-872	252	139	-33	-8428	2316	14436	115	-89	-200	-15732	1136	-4060	14	92	-90	-16212	-436	252	-1	-65	151	127	121	8
-7152	-2448	14088	-179	144	-189	-16444	988	-2640	16	106	49	-16112	3032	-896	188	157	15	-8384	2236	14356	93	-73	-191	-15764	1040	-3984	82	48	-88	-16372	-292	156	147	-16	66	122	129	8
-7160	-2524	14068	-124	136	-230	-16504	812	-2632	85	57	74	-16136	2988	-908	232	138	-10	-8444	2204	14280	90	-59	-174	-15728	1096	-4016	168	70	-106	-16232	-264	328	240	11	109	125	124	8
-7208	-2568	14160	-100	125	-223	-16468	840	-2484	198	53	84	-16164	2968	-792	316	103	1	-8352	2312	14424	105	-54	-181	-15688	1140	-3836	185	56	-75	-16332	-244	420	128	-61	157	129	127	8
-7256	-2552	14028	-140	131	-188	-16408	856	-2496	218	70	87	-16212	2932	-612	438	115	12	-8392	2268	14376	126	-40	-187	-15708	1048	-3916	111	66	-98	-16356	-320	344	134	-68	120	127	127	8
-7104	-2532	14084	-135	96	-201	-16420	824	-2436	260	116	106	-16152	3096	-652	479	113	-37	-8444	2212	14472	111	-47	-188	-15728	1012	-3920	164	97	-66	-16324	-276	360	4	-108	107	127	130	8
-7096	-2508	14124	-121	99	-248	-16464	900	-2492	246	99	108	-16076	3084	-744	433	24	-2	-8368	2212	14324	107	-78	-162	-15816	1136	-3984	129	102	-81	-16332	-224	368	143	-83	141	129	127	8
-7220	-2500	14064	-111	116	-186	-16472	924	-2264	194	125	80	-16140	3100	-700	388	107	1	-8340	2284	14452	75	-56	-213	-15828	1128	-4052	9	58	-79	-16304	-336	180	122	-86	126	131	124	8
-7124	-2592	14172	-109	93	-209	-16472	904	-2688	194	87	88	-16164	3096	-824	325	122	5	-8424	2248	14400	42	-43	-208	-15704	932	-4180	80	50	-88	-16300	-220	272	83	-31	133	132	125	8
-7244	-2460	14088	-86	110	-180	-16516	852	-2648	157	77	93	-16108	3000	-688	282	130	-12	-8412	2260	14420	78	-73	-161	-15692	1036	-3872	99	48	-52	-16384	-320	328	-14	-19	165	130	127	8
-7196	-2580	14056	-124	157	-193	-16464	888	-2676	119	79	116	-16140	3060	-992	192	172	3	-8400	2332	14372	137	-76	-163	-15724	1044	-3852	28	40	-50	-16344	-204	360	-63	-43	57	126	128	8
-7164	-2508	14044	-127	133	-204	-16436	912	-2696	36	25	75	-16148	3016	-852	158	58	-46	-8268	2308	14444	88	6	-180	-15760	1176	-3956	-41	79	-75	-16304	-300	252	-84	-37	164	121	129	8
-7128	-2496	14124	-104	152	-189	-16448	788	-2476	97	61	91	-16060	3072	-856	223	91	-21	-8548	2132	14376	130	-77	-203	-15676	1028	-3960	-19	96	-51	-16292	-284	272	46	-49	130	131	123	8
-7148	-2536	14032	-152	130	-227	-16496	936	-2728	78	25	79	-16164	3104	-876	157	93	-5	-8416	2256	14224	112	-18	-170	-15716	1092	-4032	136	68	-31	-16304	-188	264	75	-22	150	130	126	8
-7228	-2500	14132	-151	119	-186	-16448	844	-2640	64	-2	108	-16036	3044	-848	180	59	9	-8436	2324	14384	94	6	-198	-15768	1196	-3916	-6	116	-83	-16368	-256	324	3	-64	168	125	127	8
-7200	-2484	14116	-128	150	-227	-16416	920	-2616	21	16	89	-16116	3068	-768	160	112	6	-8360	2236	14420	88	-83	-176	-15732	1052	-4084	-8	72	-129	-16388	-292	208	-39	-19	142	124	124	8
-7124	-2576	14020	-125	141	-224	-16424	868	-2524	31	17	94	-16196	3084	-728	185	80	4	-8408	2204	14468	64	-24	-187	-15728	964	-4112	-23	32	-100	-16368	-368	-8	29	-49	112	131	128	8
-7208	-2504	14060	-135	135	-199	-16440	812	-2604	106	17	99	-16088	3020	-956	165	109	7	-8360	2188	14428	91	-24	-189	-15760	1020	-4096	6	15	-91	-16348	-344	156	55	-65	139	122	131	8
-7260	-2568	13996	-120	144	-218	-16424	904	-2556	133	-8	129	-16068	2984	-908	218	90	-18	-8440	2268	14316	107	-41	-195	-15688	1072	-4048	139	10	-60	-16352	-228	244	-5	-44	115	127	126	8
-7216	-2584	13968	-112	120	-256	-16492	864	-2748	109	-9	97	-16120	2952	-980	177	38	-28	-8428	2284	14400	108	-84	-184	-15772	1164	-4104	-61	0	-83	-16296	-344	248	2	-22	139	127	126	8
-7164	-2476	14036	-122	126	-159	-16480	888	-2764	75	1	76	-16080	3104	-992	147	44	-4	-8436	2288	14388	88	-51	-171	-15768	1000	-3976	-51	10	-85	-16340	-264	164	5	-76	140	129	123	8
-7228	-2544	14036	-123	127	-221	-16436	912	-2652	47	23	95	-16120	3036	-948	195	68	-15	-8400	2212	14404	109	-22	-158	-15772	1012	-4072	59	-6	-94	-16464	-344	200	25	-55	130	135	125	8
-7144	-2508	14200	-160	106	-179	-16500	840	-2604	66	-31	131	-16132	3036	-1132	147	46	-11	-8380	2252	14412	84	-13	-203	-15764	1068	-4108	30	-3	-89	-16356	-308	240	55	-63	130	126	122	8
-7152	-2572	13996	-152	157	-195	-16464	904	-2716	154	-108	109	-16088	3060	-1112	168	32	29	-8396	2180	14332	105	-28	-170	-15796	1056	-4036	16	-21	-88	-16376	-248	156	18	-84	153	131	129	8
-7168	-2556	14128	-143	140	-240	-16424	856	-2732	108	-122	87	-16036	2964	-1060	262	43	50	-8380	2236	14432	102	-56	-184	-15716	988	-4024	12	-69	-105	-16248	-344	124	23	-14	123	125	125	8
-7264	-2504	14092	-184	160	-221	-16412	956	-2784	-6	-138	116	-16088	3064	-904	191	-16	23	-8404	2236	14328	141	-19	-159	-15724	1016	-4096	-49	-46	-81	-16328	-312	216	21	-33	128	123	126	8
-7224	-2512	14096	-150	140	-240	-16440	884	-2600	-53	-145	95	-16144	3168	-788	177	39	-3	-8360	2248	14360	132	0	-140	-15688	1044	-4072	-16	-25	-56	-16340	-284	248	-23	-81	151	126	124	8
-7148	-2572	14048	-159	163	-229	-16436	868	-2556	38	-116	99	-16184	3088	-604	147	-4	30	-8368	2344	14452	111	-30	-199	-15680	1096	-4020	-86	-29	-90	-16404	-336	332	-102	-123	166	127	128	8
-7144	-2608	14024	-184	150	-232	-16432	816	-2472	45	-75	108	-16184	3076	-740	47	10	24	-8444	2220	14404	95	-66	-157	-15732	980	-3956	-135	-80	-68	-16364	-292	144	-69	-103	132	123	123	8
-7252	-2564	14032	-144	147	-191	-16472	872	-2648	40	-111	118	-16096	3056	-868	-12	-32	-12	-8400	2216	14316	108	-41	-180	-15676	940	-4040	-14	-24	-61	-16332	-260	80	-85	-127	136	128	127	8
-7280	-2564	14088	-104	140	-243	-16448	936	-2636	-161	-90	125	-16152	2984	-888	19	-49	25	-8368	2244	14300	104	-50	-133	-15712	1104	-4040	-64	-63	-58	-16336	-272	288	-45	-95	141	127	123	8
-7148	-2636	14108	-123	159	-178	-16436	868	-2592	-52	-55	105	-16180	2944	-952	68	-103	36	-8372	2232	14388	119	-45	-162	-15708	1048	-3924	-173	-42	-82	-16360	-376	228	-128	-166	156	126	126	8
-7212	-2568	14172	-112	178	-220	-16468	856	-2496	63	-68	137	-16072	3080	-860	100	-91	-13	-8304	2184	14308	142	-26	-154	-15756	984	-4044	-101	-14	-48	-16292	-428	180	-85	-178	157	124	125	8
-7148	-2580	14056	-116	106	-206	-16488	868	-2700	62	-58	125	-16064	3064	-824	-5	-70	21	-8424	2152	14476	142	-28	-162	-15708	1036	-4084	-66	-62	-78	-16340	-292	84	61	-147	174	129	123	8
-7172	-2508	14184	-131	124	-173	-16412	868	-2648	-52	-85	119	-16024	3136	-904	53	-30	48	-8440	2224	14368	126	-38	-154	-15772	1012	-4120	10	-70	-40	-16356	-284	-52	-1	-180	161	126	125	8
-7232	-2548	14068	-159	159	-197	-16456	816	-2584	-32	-50	91	-16200	2988	-1004	91	-38	36	-8368	2272	14352	155	-9	-155	-15812	1040	-4008	-14	-77	-38	-16316	-336	172	-17	-182	165	128	122	8
-7188	-2556	14012	-81	150	-218	-16480	864	-2680	64	-120	117	-16120	2936	-988	154	-58	78	-8404	2324	14384	149	16	-143	-15732	1032	-4000	-20	-97	-70	-16276	-320	220	19	-164	159	124	129	8
-7168	-2532	14044	-146	128	-200	-16432	948	-2576	67	-91	152	-16056	3016	-936	301	-94	48	-8460	2256	14400	115	-30	-121	-15732	1064	-3976	-77	-85	-92	-16408	-352	256	-66	-160	185	127	131	8
-7168	-2628	14080	-97	136	-195	-16404	832	-2552	128	-163	148	-16168	3068	-792	248	-89	49	-8336	2296	14428	163	9	-164	-15800	1068	-4044	27	-97	-29	-16368	-228	324	29	-161	203	126	127	8
-7208	-2516	14056	-129	127	-190	-16412	924	-2492	41	-107	106	-16136	3104	-720	188	-71	34	-8452	2264	14348	142	-71	-125	-15712	1048	-3996	-14	-107	-63	-16372	-320	164	74	-162	200	125	128	8
-7236	-2584	14116	-109	130	-214	-16488	792	-2484	73	-122	115	-16024	3100	-944	141	-110	29	-8400	2244	14388	152	-71	-139	-15712	1092	-4072	11	-147	-59	-16300	-148	280	63	-162	202	129	123	8
-7180	-2500	14044	-116	115	-196	-16464	928	-2580	73	-135	117	-16016	3028	-780	112	-79	41	-8368	2236	14460	129	-74	-120	-15776	1060	-3960	-30	-112	-93	-16376	-188	188	-9	-220	128	130	127	8
-7140	-2556	14152	-106	118	-232	-16492	892	-2576	-12	-137	147	-16140	3072	-864	93	-97	18	-8364	2228	14372	107	-18	-164	-15708	1140	-3960	-110	-92	-60	-16220	-304	396	-115	-218	178	130	126	8
-7132	-2544	14052	-107	147	-214	-16448	940	-2576	10	-130	162	-16088	3004	-960	76	-98	35	-8416	2212	14304	141	-48	-104	-15712	1072	-3972	-92	-73	-81	-16304	-292	344	-33	-201	215	127	124	8
-7132	-2532	13988	-92	161	-197	-16480	876	-2536	27	-138	128	-16020	3152	-892	125	-158	3	-8368	2280	14260	96	-34	-140	-15728	1064	-4076	-84	-62	-58	-16308	-388	292	-10	-168	164	124	126	8
-7188	-2564	14036	-103	153	-214	-16412	948	-2680	22	-174	165	-16100	3168	-764	147	-188	-2	-8420	2304	14348	123	-14	-126	-15768	968	-3968	-10	-130	-63	-16376	-360	236	26	-208	179	123	127	8
-7148	-2560	14020	-115	147	-190	-16412	928	-2568	-69	-166	113	-16092	3060	-768	36	-133	16	-8432	2168	14340	109	-15	-149	-15724	1096	-4000	-72	-124	-66	-16272	-328	264	-62	-245	183	129	130	8
-7144	-2564	14076	-83	181	-214	-16432	896	-2588	-23	-165	152	-16160	2980	-860	-20	-119	41	-8396	2244	14256	117	4	-139	-15676	1092	-3912	-154	-139	-56	-16276	-328	208	-79	-261	186	127	121	8
-7156	-2580	14040	-99	159	-208	-16412	860	-2544	-63	-175	153	-16164	3004	-808	54	-150	18	-8424	2244	14480	143	-61	-122	-15696	1028	-3992	-50	-110	-47	-16308	-352	324	-126	-243	228	128	126	8
-7252	-2624	14104	-113	164	-218	-16476	908	-2584	-16	-140	133	-16044	3016	-680	23	-115	47	-8428	2308	14288	127	-44	-93	-15764	1072	-3900	-58	-99	-21	-16304	-268	276	-84	-213	195	124	130	8
-7168	-2556	14020	-105	180	-204	-16468	872	-2452	-84	-141	173	-16184	3020	-860	36	-107	56	-8476	2200	14272	152	-73	-112	-15756	1032	-3916	-160	-113	-64	-16384	-356	384	-65	-212	226	130	127	8
-7212	-2620	13968	-87	178	-214	-16516	768	-2464	-39	-149	160	-16216	2996	-656	-6	-137	50	-8412	2204	14364	128	-48	-152	-15704	1088	-3916	-111	-120	-5	-16364	-424	356	-23	-218	226	124	128	8
-7228	-2568	14060	-100	167	-196	-16448	860	-2540	-18	-149	155	-15972	2956	-652	60	-121	23	-8440	2192	14364	163	-51	-156	-15684	964	-4028	-83	-125	-7	-16280	-368	216	-69	-210	210	128	127	8
-7124	-2576	14108	-78	152	-207	-16400	840	-2484	-79	-144	164	-16124	3084	-532	92	-119	56	-8436	2244	14408	140	-41	-93	-15756	1048	-3972	-43	-154	-26	-16344	-368	112	11	-216	221	137	125	8
-7252	-2592	14020	-61	159	-171	-16396	932	-2368	-21	-86	173	-16060	2992	-516	69	-147	44	-8360	2224	14476	156	-48	-108	-15704	1000	-4112	-36	-144	-32	-16312	-292	420	-137	-218	205	127	126	8
-7232	-2512	13980	-65	148	-185	-16420	900	-2344	4	-13	191	-16016	2948	-524	60	-135	60	-8452	2304	14420	181	-34	-108	-15776	1072	-3916	-49	-132	-42	-16304	-332	392	-35	-208	202	129	127	8
-7144	-2588	14060	-51	133	-188	-16376	836	-2244	113	79	198	-16208	3036	-264	245	-196	44	-8424	2276	14428	155	-48	-151	-15628	1000	-3808	-31	-106	26	-16360	-280	524	-6	-290	220	132	126	8
