#Activity	standing 
#ActivityID	8 
#Date 08-18-11-09
acc_rf_x	acc_rf_y	acc_rf_z	gyro_rf_x	gyro_rf_y	gyro_rf_z	acc_rs_x	acc_rs_y	acc_rs_z	gyro_rs_x	gyro_rs_y	gyro_rs_z	acc_rt_x	acc_rt_y	acc_rt_z	gyro_rt_x	gyro_rt_y	gyro_rt_z	acc_lf_x	acc_lf_y	acc_lf_z	gyro_lf_x	gyro_lf_y	gyro_lf_z	acc_ls_x	acc_ls_y	acc_ls_z	gyro_ls_x	gyro_ls_y	gyro_ls_z	acc_lt_x	acc_lt_y	acc_lt_z	gyro_lt_x	gyro_lt_y	gyro_lt_z	EMG_r	EMG_l	act
-9656	-2904	13188	302	-206	-88	-15800	2688	-3536	1091	-113	-35	-15896	-1132	-3388	1662	192	186	-9480	5280	12008	-6	22	-30	-15944	3800	-2568	85	-44	13	-16040	1944	-280	114	-23	-6	122	120	8
-9624	-2864	13192	321	-267	-93	-15792	2732	-3512	1079	-56	-90	-15772	-844	-3484	1396	320	160	-9496	5160	12312	-9	23	-31	-16016	3856	-2616	50	-44	10	-16144	2112	-104	84	-17	-10	124	123	8
-9696	-2820	13236	346	-307	-34	-15652	2796	-3356	854	-32	-80	-15996	-784	-3772	1390	148	201	-9520	5048	11760	-8	19	-28	-16224	3544	-2688	14	-21	11	-16072	2000	-48	75	-4	-3	125	122	8
-9684	-2776	13400	372	-274	-42	-15728	2728	-3672	958	-58	-16	-15776	-992	-3344	972	116	140	-9432	5224	11928	-3	26	-27	-16208	3360	-2688	28	-28	8	-16248	1864	256	81	-1	-4	131	117	8
-9664	-2768	13332	394	-279	-22	-15596	2676	-3396	968	-46	-29	-15784	-972	-3532	848	93	112	-9528	5240	11832	-3	27	-26	-16032	3800	-2328	29	-25	16	-16384	1976	144	80	-6	-2	122	121	8
-9636	-2800	13316	451	-315	-57	-15704	2664	-3508	1016	-19	-27	-15896	-1064	-3500	1086	61	17	-9440	5352	12056	-1	19	-30	-15856	3736	-2536	0	-4	8	-16224	2256	72	63	-1	2	124	116	8
-9636	-2812	13236	509	-352	-7	-15656	2820	-3576	872	39	-27	-15764	-1220	-3388	1090	49	97	-9344	5176	11944	-11	22	-34	-16024	3640	-2704	-12	8	8	-16312	2088	16	46	-6	3	123	119	8
-9612	-2796	13320	471	-376	-34	-15676	2712	-3444	998	23	-6	-15852	-1192	-3500	1156	14	130	-9536	5208	12048	-5	30	-34	-16184	3632	-2712	-2	2	14	-16304	1864	-312	20	9	1	126	120	8
-9592	-2644	13380	506	-386	3	-15800	2824	-3624	1103	6	-15	-15952	-924	-3372	1008	34	167	-9280	5216	11816	-5	25	-33	-16104	3560	-2624	14	6	8	-16344	1832	-296	44	6	-5	123	121	8
-9600	-2732	13368	488	-328	33	-15728	2792	-3592	992	20	-33	-15856	-1040	-3608	856	108	122	-9416	5152	11960	-5	27	-33	-16016	3648	-2808	22	-3	14	-16080	2096	-200	52	3	-2	125	117	8
-9592	-2756	13340	487	-298	-19	-15656	2740	-3624	898	53	-14	-15804	-920	-3392	918	-15	44	-9496	5208	11984	-10	24	-34	-16024	3632	-2888	4	-1	12	-16216	1776	-432	53	8	1	123	119	8
-9576	-2644	13448	435	-299	-46	-15652	2860	-3564	741	90	7	-15796	-956	-3448	701	39	86	-9464	5256	11992	-10	19	-34	-16112	3608	-2936	0	5	16	-16328	1776	-272	62	14	-1	118	117	8
-9568	-2680	13412	391	-270	-32	-15712	2820	-3556	694	128	-23	-15892	-920	-3308	280	70	143	-9568	5112	12032	-9	21	-26	-16176	3624	-2872	44	-8	16	-16336	1776	112	87	26	-6	117	115	8
-9508	-2632	13292	300	-171	-83	-15804	2908	-3568	488	157	-21	-15924	-1044	-3336	28	177	175	-9536	5256	12120	-7	31	-29	-16224	3816	-2640	25	-4	17	-16328	2024	-80	75	30	-2	120	122	8
-9552	-2668	13468	240	-95	-85	-15772	2852	-3552	195	250	-36	-15912	-1072	-3484	-72	182	158	-9448	5440	11760	-10	36	-40	-16096	3800	-2664	5	0	15	-16368	2272	-176	56	36	-2	121	116	8
-9560	-2684	13356	207	-60	-110	-15764	2692	-3516	281	273	-23	-15868	-1108	-3352	-195	196	161	-9376	5288	11736	-8	39	-35	-16080	3744	-2544	25	-4	11	-16096	2048	-128	44	30	-3	121	116	8
-9500	-2680	13376	164	34	-81	-15752	2740	-3728	313	240	-64	-15852	-1016	-3580	-331	197	206	-9432	5192	11768	-3	41	-39	-16168	3616	-2912	18	5	15	-16360	1944	-96	44	29	-11	120	116	8
-9540	-2628	13356	132	17	-75	-15804	2960	-3656	-124	283	-96	-15832	-880	-3684	-409	334	229	-9608	5192	11976	-10	44	-39	-16072	3584	-2944	32	10	12	-16040	1832	-8	73	28	-5	121	114	8
-9536	-2696	13364	92	128	-123	-15656	2676	-3864	-260	361	-111	-15832	-816	-3668	-585	378	189	-9560	5120	11832	-13	30	-38	-15816	3840	-2840	52	13	13	-16120	2072	-16	97	30	0	119	115	8
-9536	-2592	13372	54	40	-166	-15580	2672	-3780	-145	308	-51	-15788	-920	-3592	-712	383	197	-9512	5216	11952	-16	28	-43	-16048	3848	-2616	28	16	14	-16392	2088	16	103	23	-1	118	112	8
-9624	-2728	13332	41	119	-149	-15616	2844	-3636	-219	300	-136	-15764	-1056	-3724	-763	397	187	-9496	5280	11960	-12	37	-47	-16232	3824	-2752	21	13	16	-16480	1864	-352	83	27	-1	119	114	8
-9616	-2768	13228	-27	149	-164	-15840	2744	-3724	-399	369	-100	-15928	-1088	-3716	-714	363	222	-9480	5312	11696	-15	39	-50	-16024	3648	-2656	21	25	5	-16264	2080	-152	52	33	-3	120	114	8
-9612	-2716	13360	-30	200	-158	-15800	2652	-3732	-288	381	-173	-15892	-1156	-3524	-729	412	261	-9480	5128	11816	-20	37	-47	-15760	3760	-2752	33	25	12	-16256	2088	-72	50	33	4	118	114	8
-9508	-2700	13348	-49	249	-180	-15632	2760	-3580	-407	390	-91	-15868	-1200	-3444	-721	294	286	-9496	5248	11944	-23	40	-54	-15896	3736	-2664	39	29	10	-16280	2152	-48	51	21	3	116	115	8
-9556	-2860	13444	-56	210	-142	-15740	2736	-3448	-293	494	-224	-15972	-1156	-3584	-622	145	244	-9536	5240	12096	-24	45	-60	-16304	3736	-2920	-16	31	14	-16504	2064	-424	52	34	6	115	115	8
-9584	-2688	13336	-138	376	-135	-15944	2580	-3720	109	399	-201	-16072	-840	-3584	-133	73	246	-9432	5088	12016	-21	42	-68	-16096	3704	-2680	-1	21	6	-16160	2152	-552	45	41	10	119	114	8
-9500	-2680	13244	-145	380	-134	-15604	2860	-3752	-43	422	-162	-15824	-852	-3692	-370	224	150	-9664	5184	12080	-36	35	-71	-15808	3848	-2712	14	15	11	-16088	2120	-672	38	41	10	119	112	8
-9668	-2816	13248	-137	406	-116	-15512	2620	-3984	-309	456	-174	-15676	-880	-4016	-649	161	285	-9664	5160	11848	-44	27	-80	-15832	3920	-2888	-51	21	5	-16128	2400	-560	4	42	16	120	113	8
-9592	-2748	13328	-113	351	-122	-15632	2468	-3908	-278	418	-139	-15620	-1056	-4060	-783	99	265	-9664	5088	11944	-55	24	-90	-15872	3936	-2952	-137	36	-7	-16096	2304	-552	-29	41	26	119	113	8
-9712	-2740	13216	-90	306	-89	-15564	2684	-4000	-374	355	-111	-15648	-1088	-4156	-666	124	213	-9752	4952	11752	-44	25	-80	-15984	3136	-3392	-173	52	-10	-16152	1888	-64	-79	42	22	119	113	8
-9612	-2784	13332	-44	225	-114	-15616	2624	-4092	-374	295	-70	-15704	-932	-4376	-632	53	125	-9736	4896	12008	-26	26	-62	-16232	2728	-2856	-12	37	6	-16256	1072	-440	-29	42	-2	119	117	8
-9752	-2800	13224	-37	224	-102	-15488	2648	-3988	-283	219	-89	-15544	-992	-4296	-220	-65	104	-9728	4936	11864	-22	33	-55	-16072	3584	-2976	37	11	23	-16352	1544	-408	-9	33	-4	121	111	8
-9728	-2716	13252	-45	165	-146	-15540	2628	-4148	-212	102	-77	-15556	-1112	-4248	-421	-2	144	-9672	5080	11824	-23	26	-49	-15912	3664	-2920	-57	44	13	-16136	1832	-624	11	44	5	122	115	8
-9708	-2688	13364	-14	161	-203	-15580	2720	-4232	-214	77	-66	-15632	-904	-4232	-451	74	166	-9776	5112	12016	-21	30	-51	-16056	3616	-2840	-102	50	9	-16336	2048	-664	1	47	15	121	114	8
-9712	-2800	13224	-24	142	-192	-15576	2532	-4060	-538	-19	-40	-15660	-996	-4184	-605	89	113	-9680	5056	11816	-21	28	-53	-16008	3760	-2936	-62	31	14	-16216	2272	-848	-32	51	15	121	118	8
-9700	-2764	13228	26	107	-171	-15524	2692	-3856	-590	-23	-36	-15784	-1260	-4040	-406	-167	68	-9432	5144	11832	-28	16	-56	-15888	3816	-3320	-53	18	19	-15968	2288	-424	-60	61	14	124	120	8
-9684	-2728	13152	80	69	-179	-15440	2612	-3748	-504	-14	-15	-15704	-1100	-3740	-420	-271	4	-9672	4984	11808	-40	-3	-57	-15800	3920	-3080	-55	22	14	-16072	2216	-616	-107	60	15	121	120	8
-9700	-2784	13184	83	27	-160	-15612	2676	-3800	-324	5	11	-15704	-796	-3476	-384	-302	69	-9552	5040	11952	-43	-5	-60	-15856	4024	-2768	-127	36	5	-16160	2184	-736	-122	53	17	122	117	8
-9648	-2736	13204	114	-3	-151	-15688	2608	-3796	-252	22	23	-15856	-956	-3996	-400	-125	86	-9696	4768	11784	-41	-9	-60	-16040	3424	-3160	-164	51	4	-16232	1848	-592	-120	46	20	125	119	8
-9748	-2856	13200	112	-6	-159	-15736	2936	-3904	-299	0	-45	-15828	-1040	-4052	-466	-184	93	-9640	4920	12024	-35	-13	-56	-16200	3112	-3168	-104	32	17	-16328	1664	-552	-80	45	22	126	118	8
-9692	-2800	13292	120	-4	-226	-15492	2560	-3892	-819	-252	-119	-15640	-1204	-3952	-1225	-443	-159	-9624	4856	12128	-9	14	-40	-15784	3984	-2992	-62	29	3	-16088	2384	-880	-83	33	-14	130	119	8
-9688	-2812	13148	102	5	-232	-15624	2676	-3868	-693	-337	-53	-15708	-1080	-3676	-1022	-457	-91	-9656	4880	11920	-13	10	-42	-15872	3824	-2712	-111	49	3	-16216	2224	-816	-135	46	-13	131	120	8
-9676	-2872	13240	98	-22	-228	-15660	2844	-3704	-719	-331	-66	-15940	-1132	-3776	-840	-381	-120	-9528	4928	11992	-16	12	-42	-15864	3576	-3008	-92	34	2	-16144	2232	-1128	-144	35	-12	132	122	8
-9668	-2864	13228	117	2	-219	-15540	2812	-3760	-749	-336	-122	-15848	-844	-4060	-690	-480	-105	-9496	4952	12008	-19	8	-44	-15976	3880	-3280	-99	33	6	-16128	2120	-1280	-157	17	-15	131	123	8
-9736	-2764	13180	152	-38	-223	-15652	2804	-3828	-699	-309	-117	-15912	-824	-3944	-614	-538	-108	-9640	4888	11808	-18	6	-45	-16056	3592	-3088	-115	39	-4	-16160	2128	-960	-166	25	-5	132	124	8
-9704	-2700	13180	102	-5	-261	-15532	2752	-3752	-708	-345	-61	-15640	-848	-3628	-1230	-783	-208	-9648	4992	11944	-23	7	-43	-16176	3504	-3168	-96	26	2	-16400	1992	-952	-153	21	-14	133	121	8
-9720	-2816	13144	108	9	-257	-15704	2728	-3832	-599	-354	-92	-15956	-1216	-3820	-1338	-725	-223	-9720	4936	11936	-20	6	-37	-16056	3552	-3096	-58	18	8	-16144	1568	-904	-126	32	-16	133	124	8
-9588	-2812	13248	128	-25	-193	-15684	2848	-3572	-675	-355	-80	-15848	-1352	-3984	-1083	-786	-229	-9648	4960	11992	-19	4	-37	-15968	3552	-2968	-32	1	8	-16384	1880	-1216	-91	29	-9	130	126	8
-9740	-2816	13212	137	-35	-192	-15692	2820	-3800	-640	-334	-78	-15720	-1108	-3668	-725	-853	-201	-9632	4896	11960	-19	8	-38	-16032	3944	-3392	-59	-4	7	-16144	1976	-792	-82	15	-5	132	125	8
-9640	-2808	13184	101	-12	-225	-15580	2868	-3708	-560	-388	-103	-15640	-1076	-3452	-540	-753	-118	-9608	5000	11992	-27	-5	-37	-15944	3728	-3080	-68	0	8	-16280	2088	-1248	-80	23	-5	130	123	8
-9712	-2740	13328	92	-44	-224	-15616	2736	-3616	-442	-375	-55	-15664	-1128	-3644	-608	-715	-26	-9736	4848	11800	-22	-10	-36	-15872	3768	-3032	-84	-10	4	-16256	2088	-840	-91	14	-1	133	121	8
-9696	-2836	13136	134	-78	-243	-15676	2596	-3644	-193	-405	-57	-15788	-1276	-3608	-585	-624	-50	-9552	4824	12024	-21	-6	-37	-16064	3608	-3272	-66	-9	9	-16304	1936	-960	-110	23	-1	132	123	8
-9644	-2840	13240	148	-75	-196	-15808	2724	-3684	-47	-426	-48	-15936	-1196	-3724	87	-585	-98	-9600	4984	11960	-22	-6	-38	-15928	3664	-3064	-57	-16	7	-16304	1896	-656	-94	18	-5	135	129	8
-9668	-2832	13224	172	-72	-185	-15564	2944	-3472	-210	-424	-17	-15792	-936	-3232	17	-600	-65	-9696	4816	11792	-16	-10	-34	-15992	3904	-3184	-55	-18	17	-16112	1856	-768	-74	7	-5	131	126	8
-9684	-2852	13252	158	-52	-221	-15580	2772	-3452	-295	-379	-61	-15796	-988	-3472	-347	-605	5	-9600	4928	11760	-16	-2	-33	-15992	3696	-3256	-81	-12	7	-16224	2112	-968	-52	17	2	128	122	8
-9664	-2836	13196	160	-87	-252	-15604	2728	-3600	-301	-367	-42	-15984	-1116	-3404	-253	-635	34	-9544	4696	11688	-17	2	-29	-15992	3608	-2976	-44	-14	11	-16312	1824	-880	-40	20	1	135	126	8
-9628	-2808	13344	156	-65	-192	-15736	2736	-3508	-121	-330	-39	-15988	-1144	-3364	-30	-773	6	-9584	4880	12104	-10	5	-32	-16096	3608	-3088	12	-24	22	-16216	1624	-640	-19	9	-3	134	127	8
-9644	-2888	13276	217	-41	-212	-15668	2644	-3340	-140	-229	26	-15880	-1292	-3436	-24	-818	-18	-9584	4928	12080	-8	12	-24	-15944	3712	-3168	15	-34	22	-16112	1904	-784	22	16	-5	137	126	8
-9716	-2876	13180	195	-53	-150	-15680	2676	-3384	-98	-294	-1	-15756	-1172	-3160	-28	-905	15	-9568	4736	12176	-2	18	-24	-16024	3896	-3056	-22	-23	25	-16136	2072	-584	14	21	-5	132	128	8
-9648	-2820	13240	207	-111	-179	-15708	2868	-3488	-128	-200	-7	-15916	-920	-3288	40	-740	-36	-9472	4800	12224	-5	19	-24	-16040	3664	-2760	-27	-10	20	-16328	2104	-800	-8	23	-6	131	128	8
-9724	-2816	13264	241	-73	-157	-15724	2912	-3484	-117	-211	-11	-15984	-904	-3248	-14	-775	14	-9520	4936	12080	-6	15	-27	-15776	3848	-2728	10	-24	21	-16128	2120	-800	2	10	-5	131	128	8
-9692	-2820	13300	218	-49	-177	-15604	2780	-3416	57	-191	-50	-15828	-1060	-3280	46	-863	28	-9696	4888	11736	-13	6	-34	-15984	4104	-3008	4	-20	18	-16176	2264	-720	9	1	-1	136	128	8
-9688	-2812	13268	174	-16	-187	-15704	2776	-3500	187	-213	-18	-15820	-992	-3388	33	-953	41	-9504	4976	12096	-14	11	-32	-16048	3872	-2624	-26	-9	11	-16336	2168	-968	-7	-5	1	138	126	8
-9656	-2840	13208	186	16	-186	-15792	2808	-3604	59	-227	-22	-15920	-844	-3384	-73	-837	-20	-9496	4792	12096	-14	7	-32	-16048	3688	-2824	-25	-10	9	-16136	2152	-600	-11	-5	-2	125	123	8
-9652	-2856	13332	196	-50	-147	-15528	2860	-3640	-171	-246	-55	-15848	-940	-3644	-175	-827	-54	-9568	4920	12120	-14	6	-31	-16016	3792	-3064	-18	-13	7	-16304	2232	-1024	-15	-7	-9	134	131	8
-9648	-2872	13224	202	-106	-162	-15436	2876	-3668	-183	-226	-39	-15628	-988	-3440	-3	-926	-75	-9488	4792	11952	-17	1	-31	-15792	3832	-3280	-35	-12	4	-16264	2152	-1024	-30	-22	-7	130	123	8
-9724	-2820	13412	219	-86	-182	-15584	2848	-3692	10	-341	-72	-15868	-1016	-3308	132	-873	-64	-9536	4960	11856	-20	-7	-35	-15912	4000	-2704	-20	-13	3	-16064	2520	-1024	-36	-18	-9	136	131	8
-9688	-2784	13324	187	-88	-205	-15624	2916	-3712	88	-400	-76	-15800	-984	-3392	171	-855	-73	-9512	4816	11872	-22	-12	-31	-15920	3968	-2792	-41	-13	-7	-16240	2504	-856	-79	-30	-5	142	126	8
-9724	-2844	13244	216	-116	-192	-15620	2968	-3612	96	-422	-123	-15936	-836	-3308	199	-845	-32	-9720	5000	12128	-25	-13	-31	-16112	3752	-2776	-107	1	-8	-15984	2120	-856	-121	-15	-5	132	127	8
-9644	-2780	13312	235	-130	-194	-15700	2808	-3596	26	-459	-146	-15808	-1084	-3236	117	-856	-89	-9552	5048	11880	-23	-7	-36	-16048	3400	-3168	-81	3	-5	-16384	1792	-760	-104	-12	-21	135	130	8
-9640	-2860	13320	200	-129	-211	-15824	2636	-3380	94	-482	-151	-15912	-1116	-3252	396	-852	-142	-9536	4880	11952	-14	3	-31	-16216	3752	-2912	-33	-18	-4	-16304	2112	-776	-85	-7	-32	135	131	8
-9620	-2828	13228	212	-114	-206	-15768	2892	-3536	63	-548	-131	-15996	-952	-3168	480	-738	-174	-9480	4904	12032	-11	0	-31	-16072	3968	-3056	-47	-19	-1	-16168	2344	-560	-92	-10	-26	133	127	8
-9648	-2832	13284	196	-166	-198	-15708	2984	-3492	-254	-475	-163	-15936	-772	-3156	58	-746	-225	-9608	4880	12160	-10	-4	-28	-16056	3952	-2920	-82	-5	-16	-16064	2192	-536	-112	-12	-23	134	128	8
-9688	-2736	13164	181	-85	-194	-15700	2804	-3540	-456	-490	-185	-15944	-700	-3008	-324	-608	-216	-9584	4936	11824	-18	-1	-34	-16088	4000	-2808	-51	-14	-6	-16296	2240	-544	-104	-17	-23	133	126	8
-9648	-2776	13168	132	-105	-240	-15868	2860	-3416	-530	-495	-152	-16076	-748	-3176	-851	-711	-266	-9512	4880	12016	-18	-4	-37	-16024	3920	-2840	-40	-13	-15	-16176	1896	-552	-82	-31	-29	131	130	8
-9620	-2824	13308	136	-55	-225	-15728	2880	-3508	-757	-474	-203	-15916	-932	-2848	-1128	-740	-290	-9536	4944	12008	-22	-6	-40	-16016	3968	-2808	-55	-4	-18	-16280	2112	-464	-70	-29	-27	138	127	8
-9588	-2792	13196	142	-69	-240	-15648	2888	-3372	-925	-435	-224	-15916	-888	-2736	-1467	-706	-280	-9480	4824	12056	-18	-4	-39	-16080	3496	-3112	-64	0	-22	-16312	1912	-640	-91	-22	-26	134	133	8
-9720	-2892	13288	87	-41	-271	-15712	2800	-3324	-1033	-409	-250	-15964	-992	-2736	-1542	-643	-315	-9456	4696	12056	-23	0	-38	-16048	3696	-2704	-25	3	-20	-16304	1856	-704	-76	-36	-35	131	128	8
-9672	-2876	13276	80	-38	-260	-15712	2844	-3216	-1010	-390	-258	-15948	-1048	-2744	-1575	-587	-269	-9496	4720	12016	-18	1	-40	-16088	3944	-2712	-30	-2	-16	-16408	1984	-1000	-66	-41	-35	126	127	8
-9636	-2892	13248	105	-45	-246	-15732	2764	-3224	-879	-322	-255	-15940	-1160	-2836	-1494	-611	-319	-9640	4872	12232	-18	-1	-36	-16072	3736	-3032	-63	5	-24	-16128	1888	-1128	-70	-30	-33	128	130	8
-9612	-2792	13320	84	-12	-260	-15808	2844	-3440	-906	-342	-261	-15948	-1016	-2924	-1369	-448	-251	-9480	4928	12008	-22	-3	-31	-16136	3576	-2880	-36	-7	-22	-16288	1928	-696	-55	-31	-30	135	130	8
-9648	-2760	13228	19	60	-308	-15656	3120	-3372	-1452	-263	-285	-15840	-900	-2964	-1859	-396	-186	-9616	4880	12024	-18	1	-34	-16048	3640	-2856	-30	-12	-20	-16208	1752	-432	-75	-28	-31	134	128	8
-9564	-2848	13360	-10	-16	-324	-15828	2660	-3220	-1894	-207	-338	-15892	-1584	-2924	-2326	-380	-152	-9352	4736	12008	-16	11	-39	-16088	3696	-2856	-48	1	-17	-16176	1536	-720	-56	-30	-33	133	130	8
-9692	-2960	13172	40	21	-250	-15944	2432	-3040	-1348	-293	-292	-15824	-1992	-2708	-2116	-281	-105	-9560	4736	11944	-19	12	-36	-16024	3352	-2808	-20	-8	-14	-16112	1464	-488	-16	-30	-26	133	129	8
-9616	-2948	13188	52	-26	-271	-15748	2576	-2928	-627	-379	-192	-15952	-1992	-2524	-1209	-68	-99	-9520	4712	12080	-18	11	-33	-16208	3648	-2688	28	-11	-8	-16312	1488	-496	19	-38	-25	133	126	8
-9600	-2948	13384	40	6	-235	-15812	2896	-2984	-412	-338	-175	-16028	-1704	-2616	-585	-164	17	-9528	4808	12184	-15	17	-33	-16056	3624	-2768	21	-16	0	-16304	1624	-416	57	-45	-14	131	126	8
-9548	-2976	13216	-4	65	-247	-15836	2736	-2972	-379	-275	-150	-15876	-1708	-2564	-428	-157	93	-9624	4880	12088	-19	16	-35	-16184	3696	-2856	15	-17	-2	-16488	1584	-784	85	-47	-12	135	126	8
-9612	-2900	13256	28	95	-227	-15828	2596	-3084	-98	-311	-155	-15892	-1644	-2848	-23	-133	134	-9640	4944	11784	-15	13	-36	-16024	3456	-2784	32	-27	1	-16296	1680	-1008	95	-37	-2	131	128	8
-9668	-2952	13212	32	47	-189	-15848	2604	-3096	314	-351	-157	-15828	-1664	-2772	429	47	121	-9512	4656	12176	-15	10	-31	-15872	3560	-3048	77	-37	7	-16128	1616	-912	95	-38	-2	132	125	8
-9676	-2944	13252	69	17	-173	-15604	2752	-3032	388	-379	-150	-15768	-1576	-2664	988	107	150	-9584	4784	12048	-20	1	-30	-15864	3608	-2944	69	-44	10	-16152	1704	-736	103	-53	-1	136	128	8
-9600	-2884	13244	107	-29	-152	-15684	2644	-3092	584	-326	-144	-15864	-1664	-2644	1685	265	222	-9488	5104	12088	-28	0	-27	-16080	3848	-3016	43	-36	9	-16144	1872	-480	102	-50	-4	132	125	8
-9484	-2868	13364	123	-23	-140	-15892	2832	-3108	943	-356	-167	-15916	-1320	-2636	2102	371	337	-9560	4752	12088	-35	-13	-33	-16040	3536	-2792	24	-41	2	-16208	2088	-536	85	-51	9	131	126	8
-9612	-2912	13236	111	-32	-157	-15740	2760	-2916	1063	-375	-118	-15796	-1380	-2936	2032	336	365	-9480	4760	12112	-30	-4	-35	-16088	3584	-2936	16	-35	3	-16160	1792	-120	75	-53	10	135	129	8
-9728	-2916	13264	125	-9	-162	-15728	2572	-2988	1155	-374	-157	-15844	-1348	-2596	2053	390	470	-9448	4824	12224	-28	-8	-32	-16232	3488	-2640	49	-32	9	-16240	1520	-544	107	-61	2	128	131	8
-9620	-2980	13200	190	-94	-139	-15840	2660	-2884	1124	-296	-125	-15996	-1388	-2732	2107	425	435	-9640	4832	12360	-26	-4	-34	-16168	3736	-2560	65	-46	16	-16392	1736	-248	127	-63	10	130	127	8
-9580	-2940	13220	138	-116	-145	-15764	2792	-2848	1034	-205	-114	-15948	-1216	-2592	2028	454	421	-9504	4752	12360	-29	-4	-33	-16136	3712	-3056	68	-44	14	-16304	1600	-192	156	-66	9	134	126	8
-9600	-2864	13280	144	-58	-148	-15736	2660	-2912	936	-116	-70	-16024	-1136	-2680	1805	350	440	-9416	4648	12224	-21	3	-30	-16200	3440	-2864	78	-34	15	-16240	1728	-88	193	-67	10	134	128	8
-9604	-2972	13288	183	-121	-116	-15936	2676	-2932	942	-36	-69	-16016	-1120	-2864	1459	311	394	-9400	4808	11984	-24	4	-29	-16096	3672	-2856	128	-47	19	-16248	2000	-504	227	-71	12	127	128	8
-9624	-2888	13208	158	-54	-125	-15808	2720	-3172	847	22	-39	-15788	-1292	-2908	1279	383	377	-9400	4768	12120	-24	-1	-32	-15992	3736	-2616	94	-36	15	-16160	2032	-480	187	-72	13	131	126	8
-9572	-2864	13192	120	-51	-141	-15744	2680	-3192	782	40	-84	-15848	-1368	-2860	1319	457	447	-9480	4904	12088	-17	3	-31	-16056	3616	-2720	46	-24	16	-16384	1920	-328	145	-72	19	134	131	8
-9632	-2940	13260	139	20	-134	-15948	2588	-3056	777	86	-65	-15964	-1380	-3100	1344	458	491	-9432	4928	12064	-18	10	-33	-16256	3464	-2680	57	-27	16	-16496	1832	-336	118	-57	16	129	135	8
-9612	-2908	13316	152	-55	-120	-15804	2536	-2988	787	34	-45	-16024	-1392	-3176	1357	396	449	-9488	4800	12232	-22	11	-36	-16112	3696	-2768	70	-31	19	-16232	1848	-616	116	-43	9	131	138	8
-9648	-2884	13204	187	-106	-103	-15716	2620	-3248	792	93	-10	-15892	-1368	-3076	1380	370	389	-9640	4712	12024	-19	13	-38	-16024	3432	-2848	47	-24	19	-16112	1824	-672	136	-48	8	127	136	8
-9580	-2860	13316	171	-125	-112	-15748	2660	-3252	532	71	-37	-15900	-1192	-3220	1425	444	390	-9528	4728	12272	-11	15	-24	-16072	3360	-2776	67	-30	20	-16200	1920	-248	134	-35	12	131	134	8
-9616	-2784	13364	166	-74	-118	-15740	2692	-3256	413	108	-47	-15892	-1068	-3076	1306	410	434	-9432	4816	12016	-9	19	-29	-16136	3352	-2848	94	-34	27	-16280	1928	-88	134	-28	9	133	134	8
-9568	-2876	13272	189	-59	-133	-15800	2652	-3264	423	120	-47	-15976	-852	-3112	925	400	440	-9456	4640	11944	-10	26	-24	-16232	3632	-2640	79	-29	27	-16272	1824	-144	110	-30	10	131	132	8
-9604	-2856	13320	150	-65	-162	-15840	2728	-3224	150	196	-25	-15916	-924	-3152	410	274	438	-9424	4768	12360	-3	26	-27	-16152	3736	-2776	47	-16	23	-16224	1776	-104	117	-33	12	130	140	8
-9652	-2960	13248	138	-39	-143	-15808	2512	-3120	-19	239	-52	-15912	-1412	-3024	179	270	332	-9448	4544	12200	-6	23	-26	-16048	3456	-2792	71	-20	22	-16192	1888	-280	141	-29	9	133	133	8
-9604	-2888	13236	222	-33	-122	-15816	2500	-3208	158	206	-12	-15860	-1572	-3092	546	291	321	-9512	4664	12232	-15	15	-31	-15928	3616	-2848	84	-20	25	-16040	2120	-584	144	-19	13	130	129	8
-9596	-2860	13324	191	-45	-126	-15740	2668	-3104	467	178	-31	-15812	-1156	-3036	930	296	345	-9336	4800	12112	-15	16	-29	-16152	3656	-2512	57	-18	19	-16272	2360	-40	95	-16	12	129	133	8
-9588	-2940	13296	146	-6	-147	-15732	2836	-3132	288	224	-56	-15928	-992	-3100	746	314	448	-9480	4832	12104	-9	17	-32	-16112	3656	-2560	20	-6	17	-16224	1992	224	62	-10	10	133	130	8
-9640	-2924	13248	146	-34	-146	-15740	2540	-3088	153	267	-52	-15988	-1188	-3176	391	315	398	-9440	4744	12136	-3	25	-32	-16024	3488	-2664	26	0	16	-16328	1776	72	57	-13	4	127	130	8
-9584	-2956	13276	187	-24	-127	-15836	2476	-3272	334	238	-50	-15928	-1348	-3372	465	125	325	-9400	4800	11968	-7	30	-36	-16208	3560	-2792	38	0	21	-16392	1576	-80	77	-14	7	131	133	8
-9540	-2872	13348	245	-84	-131	-15792	2628	-3316	263	222	17	-15816	-1168	-3352	431	89	177	-9432	4680	11936	-4	29	-28	-16000	3608	-2656	55	-2	18	-16008	1808	-176	94	-10	10	129	134	8
-9560	-2820	13392	178	-36	-144	-15684	2804	-3260	-3	268	0	-15796	-1064	-3352	233	208	237	-9432	4816	12272	-4	29	-24	-16032	3568	-2640	44	5	23	-16232	2072	-136	98	-14	5	128	134	8
-9596	-2820	13284	170	-78	-142	-15716	2708	-3168	-26	232	-45	-15844	-1032	-3244	203	230	287	-9480	4792	12040	-1	27	-26	-16032	3432	-2584	47	3	23	-16272	1904	-560	105	-11	1	127	130	8
-9636	-2844	13372	142	-58	-118	-15848	2528	-3232	123	187	-29	-15928	-1316	-3428	154	149	308	-9560	4728	12280	1	20	-27	-16072	3568	-2720	34	3	22	-16248	1832	-240	75	-5	4	131	128	8
-9580	-2872	13400	179	-58	-134	-15856	2536	-3252	267	140	-7	-15888	-1316	-3372	307	49	183	-9376	4608	12104	3	30	-21	-16176	3440	-2536	44	7	27	-16408	1904	-312	53	-4	0	133	131	8
-9576	-2872	13220	208	-55	-118	-15764	2652	-3228	153	164	-2	-15844	-1272	-3404	216	29	179	-9480	4808	12288	2	38	-27	-16152	3688	-2624	44	1	25	-16392	1960	-136	57	-7	0	132	125	8
-9640	-2884	13296	237	-83	-107	-15820	2544	-3356	82	184	-12	-15832	-1280	-3296	207	10	195	-9536	4840	12176	3	27	-27	-15944	3728	-2472	19	3	24	-16192	2160	-136	43	0	8	130	127	8
-9564	-2792	13312	221	-120	-123	-15652	2624	-3368	338	121	26	-15768	-1312	-3404	315	126	233	-9464	4928	12152	-6	24	-27	-16008	3544	-2688	-2	15	19	-16152	2144	-440	39	3	6	128	127	8
-9668	-2832	13264	180	-49	-119	-15728	2792	-3344	269	95	7	-15856	-1028	-3248	222	95	279	-9464	4736	12136	-3	30	-32	-16104	3520	-2864	0	9	17	-16336	1904	-40	7	-4	4	126	128	8
-9632	-2836	13348	197	-45	-112	-15800	2648	-3268	205	156	2	-15976	-1228	-3260	121	-2	277	-9496	4720	12096	6	34	-29	-16200	3512	-2880	5	7	21	-16376	1760	-304	-15	-1	3	129	133	8
-9552	-2812	13324	202	-57	-110	-15772	2520	-3352	282	106	20	-15860	-1236	-3436	214	-41	160	-9464	4808	12032	3	31	-25	-15984	3520	-2792	13	10	22	-16344	1456	-280	-1	-2	2	128	130	8
-9572	-2812	13284	182	-38	-124	-15728	2660	-3332	223	71	10	-15748	-1084	-3324	260	5	174	-9520	4792	11832	-2	29	-29	-16104	3640	-2664	25	11	23	-16080	1848	-504	32	-5	4	130	130	8
-9580	-2880	13336	141	-52	-145	-15708	2792	-3396	-69	151	-8	-15764	-1188	-3364	-122	93	221	-9504	4824	12184	-9	22	-29	-15928	3864	-2504	25	4	24	-16312	1952	-656	66	-10	13	127	129	8
-9584	-2856	13236	161	-28	-119	-15756	2556	-3372	-7	60	4	-15932	-1288	-3388	-129	62	253	-9528	4824	12016	-9	24	-31	-16096	3744	-2584	27	0	24	-16296	2000	-512	72	-7	14	126	128	8
-9620	-2860	13316	169	-61	-147	-15776	2604	-3280	222	57	36	-15868	-1276	-3480	115	62	189	-9336	4832	11976	-7	22	-29	-16056	3608	-2672	28	2	21	-16144	2016	-488	78	2	16	128	130	8
-9608	-2816	13228	172	-41	-153	-15808	2724	-3324	115	47	39	-15740	-1332	-3240	117	-43	230	-9520	4808	12304	-12	18	-31	-16088	3472	-2824	30	-3	22	-16120	1944	-600	66	4	11	127	128	8
-9588	-2820	13236	192	-102	-126	-15720	2656	-3256	137	104	32	-15840	-1292	-3184	181	72	253	-9544	4592	12232	-3	18	-33	-16168	3592	-2944	19	-9	20	-16360	2032	-424	35	4	13	128	131	8
-9592	-2772	13316	184	-6	-131	-15836	2520	-3248	242	102	35	-15984	-1216	-3208	228	64	265	-9528	4800	12096	-6	15	-28	-16352	3528	-2672	-5	0	21	-16216	1672	-272	21	6	4	129	123	8
-9612	-2896	13452	193	-85	-121	-15788	2592	-3216	438	99	25	-16004	-1168	-3320	263	-38	245	-9528	4824	12080	-12	20	-29	-16056	3640	-2936	9	2	24	-16072	1792	-360	22	1	8	128	127	8
-9564	-2864	13316	145	-74	-137	-15668	2664	-3400	337	145	39	-15836	-1084	-3372	284	-131	201	-9472	4712	12064	-8	17	-32	-15968	3544	-2584	12	-3	22	-16128	1856	-568	45	6	11	128	130	8
-9572	-2772	13272	221	-76	-120	-15672	2736	-3404	153	169	36	-15784	-1128	-3284	100	-52	182	-9432	4912	12016	-4	22	-26	-16152	3576	-3088	13	0	26	-16464	2024	-496	51	0	8	129	125	8
-9548	-2864	13356	253	-103	-105	-15760	2552	-3360	233	126	5	-15836	-1260	-3528	100	-69	222	-9512	4696	12248	-6	24	-31	-15984	3504	-2776	21	-7	25	-16304	1936	-184	49	3	6	126	125	8
-9608	-2848	13304	248	-98	-84	-15724	2536	-3592	462	82	36	-15788	-1128	-3568	148	-104	219	-9504	4920	12144	2	28	-24	-16024	3680	-2840	15	3	22	-16408	1864	-304	47	3	7	127	128	8
-9596	-2848	13236	231	-93	-120	-15692	2680	-3560	295	33	36	-15804	-1204	-3544	188	-68	197	-9544	4768	12280	-9	19	-31	-16120	3592	-2424	26	0	24	-16200	1832	-184	65	-6	2	127	133	8
-9576	-2860	13288	235	-116	-109	-15772	2616	-3436	267	33	11	-15764	-1300	-3496	269	7	229	-9520	4912	12280	-9	20	-31	-16040	3632	-2824	35	-8	23	-16328	1960	-488	47	-15	10	127	129	8
-9584	-2872	13336	252	-105	-108	-15796	2624	-3260	391	5	8	-15820	-1304	-3412	470	8	224	-9752	4984	12128	-10	21	-29	-16112	3672	-2912	14	2	19	-16368	2000	-280	55	-14	10	128	131	8
-9528	-2808	13316	288	-110	-90	-15724	2580	-3432	548	19	25	-15820	-1104	-3372	666	-85	208	-9520	4840	11928	-11	19	-33	-16128	3616	-3144	-12	0	15	-16072	1824	-656	52	-6	10	126	131	8
-9580	-2788	13376	285	-118	-109	-15716	2772	-3424	463	12	10	-15792	-1076	-3364	444	-67	251	-9496	4832	12088	-5	25	-28	-16064	3376	-2728	-1	-18	18	-16208	1912	-424	50	-7	11	124	134	8
-9560	-2804	13276	226	-84	-112	-15696	2664	-3444	246	14	3	-15764	-1072	-3528	383	-21	203	-9680	4968	12096	11	32	-22	-16072	3288	-2864	40	-20	24	-16336	1952	-512	37	-7	4	132	130	8
-9536	-2784	13356	221	-76	-96	-15776	2668	-3604	315	-41	-38	-15824	-1104	-3424	404	-17	143	-9488	4784	12296	5	30	-23	-16184	3712	-2704	47	-22	23	-16416	1632	-408	61	1	-7	131	129	8
-9560	-2832	13336	224	-60	-131	-15716	2544	-3452	306	-43	36	-15804	-1376	-3568	502	-42	221	-9488	4736	12032	3	27	-20	-15992	3616	-2848	56	-23	24	-16176	1880	-744	85	-10	0	130	126	8
-9536	-2788	13324	243	-90	-153	-15656	2552	-3492	455	-132	-3	-15788	-1372	-3416	762	-55	207	-9560	4672	12104	-1	24	-21	-15968	3664	-2840	50	-33	23	-16168	2008	-368	77	-13	6	127	126	8
-9616	-2792	13344	260	-139	-112	-15712	2660	-3496	434	-130	9	-15820	-1172	-3380	818	-30	206	-9616	4768	12096	-2	23	-21	-16224	3848	-2640	47	-28	25	-16392	2048	-304	90	-10	2	131	129	8
-9488	-2752	13364	283	-114	-119	-15592	2660	-3400	420	-90	-15	-15808	-1068	-3320	718	-48	217	-9440	4808	12184	-2	20	-22	-16024	3704	-2688	48	-26	20	-16200	1904	-200	73	0	2	127	129	8
-9496	-2732	13316	229	-48	-130	-15788	2692	-3420	468	-89	-4	-15928	-1164	-3104	596	-30	284	-9528	4840	12208	-5	17	-30	-15976	3704	-2808	49	-28	22	-16272	1976	-128	65	-6	6	117	128	8
-9540	-2868	13428	189	-57	-157	-15816	2768	-3320	315	-53	-21	-16040	-1148	-3372	567	-13	222	-9472	4832	12216	-10	16	-31	-16064	3696	-2464	25	-23	18	-16376	2072	-264	62	-15	7	130	127	8
-9536	-2832	13364	180	-31	-144	-15856	2708	-3324	296	-40	-39	-15920	-1132	-3460	621	-52	199	-9456	4872	12112	-10	18	-28	-16224	3696	-2584	10	-12	18	-16240	1984	-104	51	-3	5	127	127	8
-9584	-2764	13372	208	-39	-144	-15656	2604	-3472	221	-19	-13	-15728	-1072	-3476	430	-33	208	-9536	4880	11960	-8	19	-32	-15912	3616	-2816	25	-9	15	-16272	1976	-376	49	-18	2	127	128	8
-9584	-2732	13360	129	-3	-153	-15680	2692	-3592	177	-37	-9	-15744	-1016	-3464	130	51	223	-9640	4760	12032	-9	15	-30	-16048	3592	-2840	32	-12	24	-16104	1928	-176	52	-1	3	126	126	8
-9532	-2720	13424	121	-4	-145	-15724	2732	-3444	-39	-3	-36	-15932	-1148	-3388	46	14	265	-9584	4744	12224	-11	18	-30	-16168	3624	-2640	39	-16	22	-16256	1760	-240	64	12	4	127	124	8
-9500	-2836	13352	131	-42	-149	-15740	2544	-3260	-147	-12	-69	-15948	-1156	-3436	-158	-18	196	-9584	4752	12048	-10	17	-27	-15920	3680	-2912	44	-21	21	-16112	1880	-384	65	9	1	122	131	8
-9544	-2760	13344	118	1	-180	-15784	2540	-3400	10	-7	-42	-15844	-1196	-3352	-37	-139	161	-9456	4880	12216	-5	16	-25	-16008	3832	-2584	28	-13	20	-16008	2104	-376	71	7	2	127	127	8
-9576	-2764	13420	111	-46	-188	-15700	2656	-3532	26	-34	-73	-15692	-1160	-3312	7	-45	136	-9472	4736	12040	-10	18	-32	-16112	3696	-2680	4	-8	12	-16296	2272	-304	48	2	5	127	127	8
-9604	-2788	13420	116	8	-130	-15716	2708	-3308	-155	10	-33	-15812	-1028	-3472	-203	-1	187	-9448	4816	11992	-12	17	-29	-16224	3568	-2520	4	-5	13	-16360	2144	-32	15	4	-2	130	127	8
-9528	-2824	13336	117	-7	-156	-15796	2520	-3420	-52	4	-56	-15992	-1260	-3480	-196	-51	113	-9608	4832	12144	-13	20	-29	-16072	3656	-2856	-1	-3	10	-16200	1904	128	-6	12	-5	129	127	8
-9464	-2712	13360	149	-29	-194	-15776	2676	-3412	11	22	-67	-15784	-1260	-3404	-92	-82	59	-9432	4832	12192	-8	19	-33	-16064	3632	-2696	3	9	13	-16264	1920	-160	5	7	-4	130	129	8
-9420	-2748	13400	122	-8	-150	-15788	2700	-3340	-107	5	-78	-15744	-1184	-3332	-135	-54	118	-9560	4896	12160	-8	19	-31	-15976	3664	-2688	-1	9	17	-16256	1928	-248	2	13	-1	130	127	8
-9464	-2728	13428	90	50	-148	-15628	2656	-3452	-138	31	-61	-15872	-1064	-3272	-110	-72	132	-9560	4768	11960	-8	16	-32	-15976	3536	-2472	5	13	16	-16272	1960	-272	23	8	-2	128	126	8
-9548	-2820	13368	80	41	-198	-15764	2636	-3384	-57	39	-87	-15888	-1192	-3332	-271	-40	143	-9536	4888	12096	-13	20	-33	-16032	3672	-2712	5	13	10	-16432	2088	-264	28	10	-4	123	123	8
-9572	-2804	13404	96	38	-184	-15728	2584	-3340	-204	79	-67	-15860	-1204	-3552	-343	0	134	-9464	4888	11968	-11	21	-35	-16256	3560	-2768	0	17	14	-16368	1984	-488	27	8	1	127	128	8
-9536	-2784	13412	68	48	-162	-15676	2596	-3424	-207	88	-78	-15876	-1248	-3304	-320	-4	117	-9472	4672	11968	-15	18	-34	-15968	3560	-3080	7	17	9	-16136	1896	-240	22	11	1	127	125	8
-9628	-2784	13364	120	11	-156	-15652	2576	-3380	-152	83	-88	-15792	-1208	-3324	-332	23	123	-9552	4752	11952	-12	17	-30	-16032	3488	-2584	10	13	14	-16168	2072	-448	27	8	-6	127	126	8
-9556	-2800	13312	86	45	-176	-15732	2656	-3472	-144	60	-72	-15792	-1160	-3400	-299	31	167	-9480	4808	12088	-14	22	-33	-16272	3680	-2616	-23	12	14	-16456	2168	-560	15	-2	-2	126	128	8
-9520	-2776	13360	115	-11	-150	-15760	2676	-3512	-57	82	-67	-15848	-1156	-3596	-355	-102	186	-9440	4808	11904	-6	23	-34	-16312	3672	-2888	-24	11	11	-16232	1984	-296	18	10	3	123	125	8
-9524	-2740	13280	68	84	-191	-15716	2712	-3536	-193	39	-81	-15892	-1168	-3556	-336	-104	152	-9504	4872	12200	-14	19	-36	-16016	3552	-2976	13	-3	9	-16264	1808	-256	19	6	1	127	126	8
-9524	-2828	13440	25	113	-172	-15768	2728	-3592	-423	35	-152	-15808	-1144	-3684	-546	59	136	-9536	4744	12160	-11	22	-37	-16056	3824	-2944	24	-6	13	-16112	1928	-552	20	16	4	130	128	8
-9704	-2848	13256	76	132	-159	-15788	2520	-3492	-333	9	-112	-15832	-1384	-3712	-537	77	155	-9488	4608	12128	-11	16	-30	-15976	3616	-2752	8	-4	7	-16248	2128	-544	38	10	-2	123	125	8
-9568	-2820	13300	82	54	-182	-15820	2580	-3484	-123	-75	-100	-15776	-1344	-3768	-252	36	97	-9592	4808	11896	-14	8	-37	-16072	3704	-2616	-16	-1	0	-16336	2152	-296	38	20	-2	126	126	8
-9536	-2736	13336	31	87	-174	-15640	2672	-3420	-177	-95	-107	-15756	-1140	-3568	-250	64	128	-9512	4752	11952	-23	11	-38	-15896	3816	-2640	-33	0	-5	-16224	2112	-96	14	14	7	125	125	8
-9572	-2792	13280	70	103	-178	-15692	2648	-3556	-294	-89	-101	-15804	-1068	-3492	-347	-1	195	-9592	4648	11904	-26	7	-47	-16048	3704	-2712	-55	6	0	-16272	2184	-136	-21	5	13	127	126	8
-9584	-2792	13424	62	30	-146	-15716	2580	-3492	-211	-100	-82	-15860	-1144	-3384	-445	-84	132	-9520	4952	11992	-29	5	-45	-16176	3528	-2848	-62	11	3	-16288	1856	168	-44	5	4	127	124	8
-9592	-2812	13388	106	15	-197	-15764	2588	-3324	-229	-61	-87	-15900	-1136	-3516	-401	-169	96	-9496	4728	12272	-12	12	-39	-16200	3464	-2752	-66	11	-2	-16488	1608	-304	-53	12	0	125	125	8
-9576	-2764	13492	119	10	-178	-15704	2552	-3408	-321	-12	-62	-15832	-1096	-3536	-575	-277	21	-9672	4792	12096	-14	18	-37	-16080	3240	-2936	4	8	17	-16248	1504	-392	-16	5	-7	126	127	8
-9600	-2844	13360	88	25	-191	-15748	2620	-3460	-467	-4	-61	-15816	-1136	-3448	-605	-291	41	-9592	4792	12016	-8	21	-29	-16072	3616	-2824	2	2	15	-16264	1984	-600	30	12	-4	121	126	8
-9628	-2776	13328	84	70	-173	-15700	2564	-3488	-446	-41	-64	-15812	-1256	-3760	-737	-323	55	-9584	4752	12080	-8	19	-31	-15912	3552	-2768	-19	5	11	-16312	2200	-408	40	13	-2	124	127	8
-9540	-2716	13340	99	34	-226	-15736	2688	-3564	-396	-60	-86	-15716	-1180	-3348	-648	-229	71	-9528	4808	12016	-13	16	-33	-16064	3512	-2768	-17	4	5	-16304	2120	-608	26	25	-3	126	126	8
-9600	-2800	13368	90	24	-178	-15688	2564	-3452	-354	-119	-87	-15800	-1240	-3508	-677	-198	86	-9488	4824	12208	-10	12	-32	-16096	3448	-2848	13	-12	17	-16256	1816	-560	8	28	-6	124	128	8
-9560	-2792	13228	122	-2	-190	-15700	2588	-3468	-403	-68	-65	-15840	-1252	-3472	-559	-263	98	-9568	4888	11936	-6	17	-31	-15984	3432	-2880	31	-19	18	-16328	1904	-304	8	10	-9	127	127	8
-9568	-2848	13316	129	19	-200	-15724	2636	-3332	-406	-42	-60	-15812	-1340	-3320	-572	-330	89	-9592	4776	12088	-7	21	-25	-16064	3680	-2760	3	-13	18	-16240	1864	-304	22	8	-10	126	129	8
-9600	-2856	13248	111	22	-164	-15768	2548	-3408	-297	-112	-78	-15852	-1260	-3548	-275	-313	31	-9488	4736	12200	-5	26	-27	-16216	3568	-2688	-23	-12	13	-16264	1880	-496	25	4	-8	125	126	8
-9508	-2808	13204	121	4	-184	-15744	2652	-3524	-288	-61	-72	-15804	-1124	-3420	-257	-223	23	-9688	4760	11944	-3	28	-32	-16224	3512	-2704	-8	-13	10	-16272	2000	-480	23	14	-3	124	125	8
-9584	-2844	13316	135	44	-148	-15748	2592	-3552	-237	-119	-17	-15880	-1060	-3504	-280	-241	105	-9512	4768	12024	-5	22	-31	-16016	3616	-2752	23	-18	15	-16312	1936	-320	25	15	-2	127	126	8
-9612	-2768	13352	123	-5	-198	-15760	2580	-3536	-207	-66	-51	-15816	-1104	-3468	-310	-230	44	-9448	4688	12152	-7	20	-29	-16008	3640	-2968	26	-20	14	-16072	1912	-360	18	14	-2	127	125	8
-9552	-2836	13324	108	-13	-158	-15756	2656	-3424	-314	-150	-90	-15792	-1200	-3396	-488	-186	106	-9560	4744	12032	-8	21	-28	-16024	3576	-2856	-1	-14	14	-16384	1904	-304	12	3	-6	126	126	8
-9588	-2832	13348	128	-14	-173	-15680	2600	-3364	-339	-126	-59	-15820	-1276	-3248	-411	-191	118	-9584	4840	12248	-11	21	-28	-16144	3712	-2584	-16	-12	12	-16312	2040	-376	24	-2	-3	121	125	8
-9648	-2848	13308	112	9	-184	-15716	2628	-3348	-225	-109	-56	-15844	-1276	-3284	-316	-207	99	-9592	4784	11816	-5	19	-29	-16168	3680	-2856	-26	-14	9	-16208	1984	-248	22	4	-3	125	124	8
-9552	-2832	13356	106	-9	-176	-15704	2652	-3332	-281	-88	-67	-15804	-1168	-3320	-267	-286	43	-9584	4832	11992	-5	26	-31	-16080	3576	-2864	1	-11	14	-16296	1832	-368	26	12	-3	124	126	8
-9600	-2780	13352	115	11	-183	-15788	2588	-3300	-228	-48	-56	-15836	-1184	-3300	-283	-227	86	-9680	4808	11992	-7	20	-31	-16040	3504	-2792	37	-15	15	-16008	1936	-272	35	15	-9	126	126	8
-9604	-2788	13296	125	38	-143	-15692	2756	-3308	-169	-39	-65	-15836	-1184	-3440	-305	-141	96	-9648	4768	12232	-8	22	-26	-16176	3656	-2632	7	-13	22	-16248	1944	-240	33	2	-4	126	126	8
-9512	-2956	13256	79	3	-194	-15824	2704	-3244	-212	-89	-55	-15908	-1120	-3420	-365	-67	162	-9384	4736	12056	-4	28	-31	-16344	3504	-2848	-23	2	15	-16576	1792	-424	46	4	-10	127	125	8
-9620	-2880	13396	53	31	-188	-15840	2640	-3420	-323	-65	-49	-15944	-1204	-3528	-392	-170	144	-9536	4880	12048	-5	22	-30	-16024	3496	-2760	6	-9	11	-16240	1816	-600	54	18	-3	123	125	8
-9604	-2820	13292	76	97	-202	-15628	2576	-3380	-339	-54	-58	-15788	-1156	-3444	-526	-123	77	-9608	4712	11872	2	25	-32	-16016	3472	-2816	42	-16	17	-16104	1832	-496	62	15	-1	122	126	8
-9576	-2784	13304	101	11	-174	-15692	2664	-3396	-345	-25	-59	-15760	-1144	-3404	-437	-148	96	-9616	4816	12120	-4	24	-35	-16008	3760	-2736	14	-20	17	-16104	1912	-272	48	5	1	123	126	8
-9604	-2804	13380	63	55	-189	-15760	2624	-3408	-402	-61	-109	-15864	-1192	-3544	-551	-52	125	-9536	4760	12032	-2	24	-37	-16208	3632	-2768	-28	-14	7	-16160	2104	-184	10	17	2	125	126	8
-9636	-2804	13340	69	44	-206	-15700	2616	-3336	-347	-60	-61	-15880	-1096	-3388	-554	-73	153	-9512	4840	11936	-6	28	-38	-16168	3440	-2696	-32	-10	1	-16376	2056	-376	1	22	2	124	126	8
-9556	-2920	13248	76	45	-158	-15792	2620	-3156	-412	-67	-79	-15912	-1404	-3452	-580	-162	137	-9688	4656	12296	-3	30	-37	-15872	3616	-2960	-12	-4	9	-16104	1784	-320	-73	14	9	125	125	8
-9572	-2892	13212	110	13	-185	-15736	2568	-3280	-370	-50	-53	-15828	-1416	-3368	-425	-187	99	-9528	4792	12016	-11	22	-36	-16032	3656	-2776	12	-11	16	-16072	1904	-472	-48	8	10	125	126	8
-9644	-2836	13240	135	-26	-167	-15704	2696	-3180	-292	-13	-58	-15768	-1228	-3212	-274	-155	158	-9552	4896	11992	-12	27	-37	-16136	3712	-2816	-24	-4	13	-16384	1960	-480	0	8	10	124	124	8
-9640	-2788	13212	105	10	-188	-15724	2620	-3236	-126	-19	-44	-15888	-1196	-3364	-162	-126	187	-9608	4696	12224	-7	33	-39	-16248	3424	-2720	-23	-8	10	-16312	1840	-608	-5	21	18	123	127	8
-9664	-2932	13216	142	-8	-193	-15720	2576	-3308	-60	10	-10	-15900	-1216	-3268	-37	-183	125	-9736	4776	12088	-5	29	-34	-16136	3424	-2880	24	-23	19	-16160	1680	-656	7	31	19	126	126	8
-9544	-2896	13280	138	-10	-154	-15696	2560	-3252	-91	24	-52	-15820	-1156	-3548	-16	-149	158	-9496	4632	12024	-2	30	-32	-16016	3616	-2960	44	-28	18	-15936	1888	-472	5	27	17	125	126	8
-9636	-2864	13216	141	5	-163	-15684	2680	-3416	-33	28	-23	-15792	-1240	-3240	-79	-87	185	-9824	4720	12112	-7	21	-30	-16080	3776	-2856	16	-26	19	-16064	1856	-480	-16	30	28	123	125	8
-9580	-2848	13256	131	-50	-181	-15664	2660	-3340	182	0	-16	-15772	-1268	-3432	119	-51	228	-9504	4776	11992	-12	17	-32	-16024	3632	-2856	24	-25	18	-15976	1912	-480	-64	18	50	124	125	8
-9660	-2836	13372	132	45	-188	-15760	2692	-3376	230	-30	-37	-15948	-1196	-3380	250	-13	294	-9512	4912	12232	-15	14	-30	-16008	3792	-2856	44	-27	19	-16240	2096	-552	-63	10	53	127	123	8
-9668	-2916	13276	140	22	-180	-15728	2652	-3412	230	-35	-15	-15864	-1104	-3472	339	-14	247	-9624	4960	12024	-16	16	-34	-16264	3712	-2752	38	-27	21	-16560	2312	-616	-6	5	42	121	123	8
-9604	-2896	13212	168	14	-153	-15688	2552	-3524	229	-46	-59	-15856	-1164	-3484	310	-79	259	-9480	4728	11848	-21	8	-36	-16328	3536	-2896	5	-28	18	-16376	2088	-440	9	-4	39	126	123	8
-9672	-2856	13424	136	-25	-129	-15740	2748	-3364	97	-34	-38	-15884	-1112	-3432	428	-58	230	-9536	4664	12008	-13	14	-27	-16200	3528	-2672	37	-30	15	-16464	2152	-760	4	-2	39	127	124	8
-9592	-2888	13392	151	-68	-153	-15656	2576	-3400	175	-14	-37	-15840	-1172	-3300	392	21	234	-9448	5024	12112	-12	14	-30	-16112	3560	-2696	80	-44	21	-16080	1952	-488	29	20	21	122	123	8
-9576	-2820	13288	134	16	-186	-15752	2592	-3356	334	-29	-38	-15756	-1140	-3412	377	79	312	-9560	4752	12016	-14	15	-34	-16168	3720	-2752	48	-45	24	-16296	2072	-568	32	39	25	124	124	8
-9540	-2888	13316	173	-47	-128	-15824	2704	-3388	250	4	-45	-15952	-1032	-3444	523	40	260	-9568	4920	12024	-9	19	-32	-16152	3520	-2416	18	-41	12	-16288	2208	-440	28	43	27	125	126	8
-9592	-2868	13368	131	-20	-150	-15712	2676	-3260	76	9	-49	-15800	-1048	-3424	353	-61	222	-9656	4616	12096	-12	19	-32	-16152	3576	-2624	25	-39	11	-16368	2192	-352	20	34	24	125	124	8
-9636	-2828	13368	167	-40	-157	-15716	2580	-3380	103	25	-36	-15764	-1076	-3336	185	-47	194	-9696	4800	12016	-11	19	-27	-16160	3720	-2632	13	-34	22	-16472	2248	-848	18	27	20	126	124	8
-9592	-2852	13320	153	-28	-180	-15804	2696	-3412	89	16	-6	-15884	-1112	-3428	36	39	200	-9592	4832	12296	-10	23	-34	-16144	3672	-2824	31	-37	17	-16272	2144	-432	6	26	23	126	125	8
-9564	-2848	13276	144	53	-154	-15756	2704	-3216	11	3	-39	-15848	-1216	-3432	-69	96	258	-9592	4832	12072	-10	18	-29	-16240	3456	-2664	38	-39	15	-16120	2096	-184	20	38	20	126	125	8
-9608	-2872	13332	121	11	-141	-15672	2640	-3328	82	71	-64	-15864	-1200	-3420	72	177	262	-9512	4712	12016	-10	15	-29	-15952	3496	-2504	57	-39	15	-16216	1960	-552	44	36	13	125	124	8
-9612	-2872	13260	150	12	-128	-15744	2588	-3380	222	11	-46	-15932	-1208	-3428	230	138	233	-9584	4832	11976	-12	15	-28	-16296	3720	-2200	49	-38	22	-16232	2048	-616	50	25	16	125	124	8
-9628	-2776	13316	108	-30	-124	-15728	2616	-3460	148	58	-71	-15772	-1144	-3352	88	179	215	-9592	4792	12144	-3	22	-34	-16336	3696	-2752	-1	-25	15	-16720	1984	-424	41	28	18	125	124	8
-9608	-2832	13272	146	63	-131	-15772	2672	-3300	0	75	1	-15872	-936	-3408	-101	119	245	-9552	4728	12136	-3	18	-28	-16216	3392	-2680	6	-14	6	-16344	1880	-480	31	32	20	125	125	8
-9604	-2848	13296	108	31	-150	-15640	2684	-3328	-149	62	-12	-15760	-1000	-3400	-373	128	201	-9560	4616	11936	-7	16	-29	-15904	3392	-2432	61	-33	14	-15984	1960	-568	43	24	10	125	125	8
-9584	-2856	13296	96	71	-177	-15672	2680	-3224	-96	92	-34	-15864	-1080	-3472	-332	158	273	-9592	4872	11872	-11	15	-33	-16000	3648	-2696	65	-37	25	-16144	2120	-616	45	23	8	125	126	8
-9616	-2792	13320	91	21	-169	-15764	2656	-3336	39	70	-99	-15852	-1320	-3568	-105	200	226	-9616	4960	11960	-11	10	-30	-16048	3720	-2536	37	-13	15	-16192	2376	-384	47	22	14	125	124	8
-9504	-2872	13292	90	-3	-129	-15768	2616	-3420	141	92	-57	-15812	-1108	-3604	123	199	289	-9792	4952	12128	-5	11	-32	-16216	3624	-2696	9	-17	8	-16176	2368	-376	42	31	14	123	125	8
-9664	-2776	13360	80	75	-154	-15716	2680	-3532	167	50	-91	-15740	-896	-3452	-35	164	296	-9496	4800	11816	-12	11	-35	-16088	3640	-2592	13	-16	8	-16312	2240	-360	21	36	12	126	126	8
-9604	-2840	13312	68	76	-171	-15772	2672	-3484	79	96	-56	-15780	-960	-3464	-252	209	300	-9584	4536	12264	-6	5	-39	-16152	3720	-2720	5	-11	12	-16248	2096	-800	-1	34	7	126	126	8
-9628	-2820	13244	54	33	-192	-15784	2732	-3340	-122	127	-99	-15916	-988	-3532	-352	221	276	-9544	4776	11984	-21	7	-36	-16232	3352	-2584	3	-1	5	-16192	2072	-528	-27	40	9	124	126	8
-9668	-2876	13180	58	67	-171	-15736	2656	-3336	-130	188	-122	-15864	-888	-3576	-365	133	244	-9592	4776	11632	-14	1	-35	-16112	3584	-2248	-3	-2	9	-16168	2200	-640	-27	30	5	126	127	8
-9700	-2924	13344	102	106	-166	-15732	2652	-3448	-109	172	-109	-15780	-848	-3636	-478	82	213	-9584	4672	12088	-10	-4	-34	-16144	3720	-2760	-20	7	12	-16224	2344	-408	-17	33	1	125	128	8
-9588	-2892	13284	27	120	-188	-15752	2712	-3592	-198	124	-105	-15756	-1068	-3816	-641	161	233	-9512	4776	11816	-16	3	-35	-16064	3456	-2480	-1	6	12	-16232	2048	-672	-16	40	7	124	130	8
-9588	-2848	13216	2	144	-170	-15812	2668	-3560	-151	78	-139	-15832	-1104	-3776	-608	209	241	-9416	4608	12016	-16	-1	-40	-16168	3632	-2560	4	17	8	-16120	2224	-568	-13	42	12	126	130	8
-9612	-2768	13224	4	172	-173	-15768	2676	-3460	-302	27	-146	-15796	-1044	-3812	-553	161	232	-9648	4696	12192	-17	-4	-37	-16136	3680	-2624	-16	17	7	-16328	2256	-472	-11	43	4	126	130	8
-9644	-2904	13260	25	204	-207	-15624	2652	-3404	-481	7	-167	-15836	-892	-3872	-586	175	149	-9704	4744	12072	-22	0	-40	-16048	3504	-2472	-28	24	3	-16096	2280	-768	-31	50	2	125	129	8
-9648	-2844	13140	24	139	-203	-15700	2628	-3468	-513	73	-132	-15800	-876	-3752	-749	1	79	-9544	4648	12136	-24	0	-40	-16072	3480	-2560	-29	24	7	-16128	2240	-504	-47	66	-4	126	131	8
-9680	-2880	13356	4	129	-167	-15672	2612	-3376	-379	31	-110	-15748	-936	-3600	-683	-88	42	-9624	4680	11968	-26	2	-41	-15904	3616	-2536	-33	36	3	-16040	2160	-704	-66	66	-7	125	131	8
-9616	-2924	13236	18	162	-197	-15756	2672	-3476	-393	79	-135	-15816	-1040	-3672	-556	-195	65	-9592	4672	11864	-32	-7	-40	-16184	3760	-2464	-47	46	7	-16096	2240	-624	-87	72	-4	126	129	8
-9640	-2908	13268	-23	178	-202	-15752	2816	-3408	-652	110	-159	-15920	-880	-3648	-680	-75	55	-9376	4680	11928	-32	-11	-41	-16032	3688	-2584	-53	54	3	-16224	2432	-616	-111	69	-2	126	128	8
-9696	-2940	13412	-20	206	-202	-15744	2692	-3528	-906	153	-131	-15832	-636	-3584	-914	-131	17	-9728	4816	11688	-55	-18	-44	-16064	3888	-2512	-70	55	-2	-16080	2656	-712	-135	74	-3	125	129	8
-9660	-2940	13192	-78	251	-260	-15740	2628	-3448	-966	178	-200	-15800	-668	-3592	-1080	-172	-27	-9416	4648	11928	-87	-26	-56	-15872	4248	-2424	-158	72	-12	-16008	2760	-352	-177	75	5	126	129	8
-9688	-2932	13160	-78	260	-270	-15684	2672	-3500	-964	234	-184	-15916	-748	-3552	-1168	-192	-59	-9632	4720	12008	-93	-32	-63	-15992	3848	-2784	-240	103	-19	-16232	2544	-384	-236	80	11	127	125	8
-9696	-2928	13176	-69	229	-241	-15760	2548	-3280	-925	264	-181	-16044	-1120	-3932	-1315	-271	-127	-9608	4664	11984	-69	-23	-61	-16080	3160	-2600	-217	112	-22	-16376	2104	-496	-234	73	-6	126	123	8
-9628	-2932	13184	-35	250	-223	-15764	2628	-3544	-958	319	-162	-15856	-872	-3624	-1300	-460	-273	-9480	4728	12208	-73	-16	-58	-16440	3304	-2696	-117	97	-8	-16496	1648	-480	-186	46	-32	126	121	8
-9720	-2976	13140	-56	192	-236	-15664	2600	-3520	-1089	282	-221	-15752	-936	-3596	-1385	-337	-225	-9464	4624	12296	-42	0	-58	-16120	3352	-2640	-110	106	2	-16376	1872	-360	-147	62	-35	126	122	8
-9732	-3020	13180	-34	190	-226	-15744	2672	-3364	-1031	305	-172	-15876	-1124	-3640	-1413	-216	-193	-9712	4496	12208	-29	11	-50	-16240	3280	-2896	-105	107	-1	-16224	1896	-640	-117	72	-41	125	122	8
-9700	-2952	13120	-33	186	-230	-15732	2680	-3380	-1111	349	-191	-15856	-896	-3412	-1540	-277	-220	-9464	4616	12088	-31	12	-49	-16104	3560	-3000	-102	115	2	-16376	2272	-800	-89	66	-35	123	122	8
-9704	-2956	13144	-10	160	-231	-15740	2668	-3404	-1090	374	-195	-15784	-856	-3580	-1520	-436	-271	-9624	4408	12056	-24	15	-43	-16024	3496	-3096	-99	119	-6	-16016	2128	-728	-101	77	-33	127	120	8
-9752	-3024	13216	0	167	-190	-15752	2676	-3532	-935	383	-203	-16004	-804	-3652	-1400	-522	-390	-9616	4648	12384	-33	15	-45	-15912	3592	-2656	-72	116	-4	-16000	2016	-1032	-107	70	-33	125	119	8
-9716	-2952	13184	4	134	-226	-15668	2792	-3508	-1239	458	-231	-15812	-792	-3576	-1585	-555	-397	-9488	4496	12104	-35	0	-45	-15856	3720	-2856	-74	111	-3	-16312	2592	-1576	-59	52	-46	126	121	8
-9752	-3012	13204	-27	153	-198	-15708	2532	-3544	-1171	494	-246	-15676	-992	-3600	-1858	-447	-356	-9480	4544	12216	-35	9	-42	-16248	3616	-3256	-112	122	-8	-16312	2280	-720	-81	55	-53	127	120	8
-9740	-3128	13240	-13	138	-208	-15732	2596	-3660	-967	398	-191	-15744	-1228	-3720	-1748	-469	-329	-9480	4640	12368	-30	1	-45	-15968	3456	-2888	-88	118	-20	-16208	2376	-1032	-119	71	-51	126	123	8
-9788	-2940	13268	-27	161	-210	-15688	2672	-3560	-981	418	-278	-15920	-1264	-3844	-1533	-453	-389	-9448	4528	12376	-38	6	-48	-16064	3672	-3056	-107	111	-18	-16152	2080	-1032	-121	67	-62	126	123	8
-9732	-2980	13032	24	118	-189	-15708	2684	-3652	-1005	463	-244	-15780	-828	-3592	-1575	-493	-382	-9440	4640	12128	-27	12	-43	-15992	3440	-3128	-129	125	-18	-16256	1928	-952	-126	85	-55	126	125	8
-9740	-3088	13084	-7	145	-221	-15660	2596	-3704	-895	352	-249	-15728	-856	-3612	-1530	-327	-406	-9216	4480	12408	-25	6	-48	-16032	3480	-3032	-87	118	-8	-16376	1896	-1056	-99	70	-62	126	128	8
-9824	-3000	13168	-13	180	-206	-15604	2596	-3624	-859	345	-267	-15812	-976	-3804	-1663	-413	-349	-9608	4616	11952	-29	6	-46	-16040	3608	-3192	-72	114	-5	-16352	2152	-1016	-81	63	-66	127	126	8
-9828	-3028	13192	-34	127	-230	-15660	2740	-3760	-917	353	-243	-15820	-900	-3924	-1645	-589	-398	-9480	4528	12256	-32	3	-45	-16040	3712	-3000	-115	124	-11	-16216	2448	-1048	-61	44	-66	126	130	8
-9808	-3060	12960	-3	178	-193	-15736	2700	-3848	-1160	304	-277	-15844	-900	-3968	-1758	-552	-430	-9552	4504	12112	-41	0	-46	-15976	3648	-3088	-145	140	-20	-16192	2152	-1016	-25	57	-63	127	127	8
-9768	-2960	13048	-21	179	-212	-15776	2656	-3756	-1198	313	-274	-15764	-832	-3816	-1837	-578	-402	-9352	4568	12192	-50	-10	-44	-15792	3472	-2984	-126	140	-19	-16328	2144	-1200	-46	39	-80	126	127	8
-9788	-3004	13104	16	199	-260	-15680	2716	-3752	-1243	221	-229	-15712	-980	-3716	-1822	-524	-417	-9416	4288	12376	-70	-14	-52	-16056	3568	-3328	-136	129	-25	-16176	1648	-896	-83	41	-77	126	127	8
-9772	-2992	13032	-1	149	-269	-15664	2660	-3768	-1370	175	-268	-15924	-1112	-4080	-1956	-618	-383	-9552	4416	12360	-54	-12	-52	-15896	3304	-3224	-124	154	-24	-15952	1736	-840	-120	59	-59	126	127	8
-9836	-3040	13068	-51	188	-250	-15776	2568	-3592	-1320	159	-248	-15804	-1100	-3776	-2045	-700	-464	-9528	4488	12272	-53	-10	-45	-15880	3352	-3256	-99	139	-21	-16064	1672	-1408	-49	67	-69	126	124	8
-9780	-3000	13024	-26	148	-242	-15696	2660	-3760	-1283	63	-273	-15696	-1148	-3600	-1944	-668	-495	-9408	4288	12072	-46	-2	-48	-16024	3584	-3224	-123	138	-21	-16264	1768	-1432	-60	68	-60	127	124	8
-9868	-3056	13164	-5	157	-262	-15688	2716	-3764	-1330	64	-250	-15636	-1200	-3656	-1788	-385	-374	-9560	4344	12328	-48	-3	-44	-16000	3288	-3560	-138	155	-26	-15944	1552	-1000	-102	104	-47	126	123	8
-9776	-3056	13004	-16	159	-262	-15636	2656	-3728	-1253	0	-279	-15836	-1248	-3468	-1591	-361	-314	-9512	4336	12432	-43	-4	-44	-15912	3456	-3472	-90	138	-20	-15968	1496	-1088	-152	90	-46	125	124	8
-9788	-3080	13016	2	165	-235	-15808	2672	-3604	-1143	-11	-222	-15976	-1336	-3424	-1315	-442	-297	-9352	4408	12296	-51	-8	-43	-15936	3488	-3416	-100	136	-16	-16328	1888	-1456	-143	75	-33	126	123	8
-9880	-3072	13044	-29	199	-293	-15548	2636	-3504	-1246	45	-266	-15844	-1152	-3132	-1338	-446	-332	-9704	4216	12288	-47	-2	-49	-15920	3664	-3456	-140	155	-17	-16256	1904	-1256	-150	65	-32	125	124	8
-9824	-3084	12960	-67	178	-240	-15644	2596	-3448	-1121	64	-294	-15752	-1380	-3212	-1095	-455	-267	-9616	4448	12272	-49	-7	-49	-15920	3376	-3648	-109	150	-25	-16216	1704	-1232	-182	48	-28	126	126	8
-9784	-3192	12988	-64	189	-223	-15776	2656	-3372	-847	112	-241	-15900	-1480	-3264	-1160	-224	-177	-9448	4328	12400	-59	-10	-48	-15896	3552	-3632	-91	140	-25	-16208	1848	-1280	-139	41	-28	127	128	8
-9820	-3164	12952	-54	229	-255	-15752	2760	-3480	-729	115	-296	-15924	-1248	-2992	-720	-248	-167	-9520	4328	12424	-64	-14	-52	-15888	3568	-3624	-91	148	-25	-16168	1824	-1136	-184	19	-16	126	129	8
-9792	-3040	13044	-54	190	-249	-15560	2720	-3488	-646	114	-345	-15896	-1268	-3156	-511	-81	-29	-9448	4464	12232	-62	-16	-52	-15952	3680	-3520	-121	152	-35	-16136	1920	-1112	-117	0	-14	127	127	8
-9840	-3164	13020	-22	196	-237	-15604	2628	-3364	-479	235	-309	-15864	-1236	-3244	-447	-145	-24	-9536	4296	12312	-59	-19	-57	-15872	3264	-3808	-122	158	-31	-16232	1784	-952	-119	-6	-12	127	127	8
-9816	-3164	13072	-1	174	-223	-15720	2412	-3524	-139	233	-321	-15760	-1132	-3164	-278	-252	-87	-9440	4232	12280	-47	-11	-54	-16048	3392	-4000	-91	148	-38	-16296	1760	-1464	-116	-13	-16	125	129	8
-9852	-3156	13024	-7	155	-220	-15704	2636	-3592	-54	269	-284	-15920	-916	-3356	-422	-257	-151	-9408	4344	12224	-43	-5	-47	-15904	3328	-3592	-60	146	-27	-16232	1784	-1584	-71	-22	-16	126	128	8
-9888	-3120	13040	18	155	-189	-15612	2688	-3692	-375	311	-273	-15828	-996	-3720	-654	-367	-201	-9416	4264	12352	-45	-3	-51	-15872	3368	-3984	-52	138	-29	-16000	1384	-1400	-66	-33	-18	126	125	8
-9768	-3184	13036	45	123	-187	-15668	2484	-3704	-376	288	-324	-15688	-1124	-3608	-799	-456	-185	-9424	4224	12432	-36	2	-46	-15800	3504	-3936	-58	133	-28	-16240	1816	-1424	-68	-25	-13	126	127	8
-9884	-3108	13004	13	106	-214	-15756	2576	-3864	-351	240	-269	-15752	-1044	-3740	-894	-319	-158	-9344	4256	12344	-32	6	-43	-16072	3424	-4232	-64	124	-22	-16272	1912	-1728	-86	-18	-16	127	131	8
-9848	-3156	12964	55	73	-184	-15632	2600	-3900	-560	176	-277	-15592	-1152	-3800	-935	-305	-160	-9440	4264	12288	-33	-1	-45	-15784	3376	-4384	-55	115	-26	-16256	1832	-1568	-76	-24	-16	126	130	8
-9984	-3172	13004	99	48	-225	-15556	2524	-3700	-472	79	-268	-15620	-1320	-3796	-843	-268	-188	-9376	4384	12248	-38	1	-47	-15832	3464	-4184	-42	98	-24	-16192	1576	-1800	-92	-19	-18	126	130	8
-9888	-3216	13052	61	64	-201	-15736	2488	-3824	-143	10	-235	-15744	-1352	-3608	-559	-319	-164	-9536	4168	12368	-34	5	-43	-15784	3256	-4400	-50	97	-22	-16168	1528	-1416	-117	-13	-17	126	130	8
-9844	-3144	12824	30	85	-231	-15796	2676	-3764	-269	-71	-253	-15936	-1392	-3780	-370	-283	-117	-9448	4224	12736	-27	7	-36	-15800	3104	-4112	-28	87	-11	-16200	1376	-1392	-101	-2	-26	125	128	8
-9760	-3124	13024	27	110	-228	-15680	2636	-3828	-592	-1	-234	-15968	-1460	-3984	-536	-261	-148	-9400	4120	12544	-30	8	-34	-15920	3264	-4320	-10	79	-13	-16288	1536	-1464	-64	-23	-24	127	130	8
-9960	-3168	13104	31	68	-206	-15700	2556	-3788	-671	-54	-231	-15784	-1300	-3384	-400	-299	-106	-9448	4136	12384	-21	6	-37	-15952	3488	-4240	-17	74	-11	-16416	1560	-1192	-60	-30	-12	127	131	8
-9916	-3220	12968	73	74	-224	-15564	2476	-3788	-342	-121	-196	-15648	-1364	-3284	-196	-148	-110	-9432	4312	12328	-17	10	-34	-15792	3232	-4304	-18	75	-11	-16336	1856	-1336	-29	-29	-13	127	130	8
-9924	-3208	13020	59	47	-287	-15644	2560	-3652	-232	-171	-183	-15792	-1296	-3412	-193	-196	51	-9528	4120	12480	-24	10	-39	-15680	3272	-4296	-13	69	-4	-16240	1600	-1632	-28	-25	-2	127	130	8
-9924	-3264	13072	57	75	-231	-15584	2512	-3508	-333	-95	-203	-15840	-1492	-3436	-300	-266	19	-9496	4144	12152	-26	6	-33	-15744	3208	-4224	-16	68	-4	-16256	1408	-1720	-23	-33	-1	128	133	8
-9868	-3192	12960	69	-10	-207	-15656	2364	-3532	-180	-51	-131	-15908	-1672	-3244	-114	-297	-25	-9496	4136	12248	-24	2	-33	-15872	3208	-4368	-16	48	1	-16104	1440	-1536	2	-18	-5	124	132	8
-9944	-3168	13012	93	13	-188	-15740	2524	-3536	-165	16	-146	-15932	-1636	-3212	111	-432	-15	-9456	4120	12432	-20	3	-29	-15704	3328	-4240	21	31	5	-16176	1736	-1416	27	-2	-8	128	131	8
-9888	-3316	12936	129	31	-218	-15664	2560	-3472	-21	37	-143	-15924	-1472	-3116	-49	-336	-94	-9616	4016	12576	-19	-4	-31	-15816	3536	-4424	0	18	3	-16400	1872	-1360	21	-12	-10	130	132	8
-9884	-3192	12936	134	-11	-211	-15644	2588	-3540	50	129	-111	-15752	-1088	-2780	348	-255	-23	-9424	4192	12456	-24	5	-33	-15856	3560	-4232	-34	33	-5	-16432	2032	-1568	-34	-20	-4	127	130	8
-9932	-3168	13032	144	-19	-166	-15660	2536	-3504	222	131	-148	-15900	-1464	-3504	237	-197	48	-9440	4016	12248	-17	7	-35	-15880	3176	-4392	-35	23	2	-16392	1808	-1416	-36	-9	-3	126	130	8
-9892	-3236	13036	165	-17	-176	-15724	2560	-3588	310	150	-111	-16012	-1340	-3112	383	-224	-78	-9400	4096	12464	-19	11	-28	-15920	3000	-4208	9	11	3	-16152	1312	-1376	-53	-11	-13	122	135	8
-9960	-3220	12908	179	37	-176	-15724	2660	-3784	231	166	-173	-15836	-776	-3156	579	-300	-128	-9456	4240	12376	-10	15	-27	-15680	3280	-4128	27	0	10	-16176	1784	-1296	-27	-16	-23	127	134	8
-9852	-3156	13024	-7	155	-220	-15704	2636	-3592	-54	269	-284	-15920	-916	-3356	-422	-257	-151	-9408	4344	12224	-43	-5	-47	-15904	3328	-3592	-60	146	-27	-16232	1784	-1584	-71	-22	-16	126	128	8
-9888	-3120	13040	18	155	-189	-15612	2688	-3692	-375	311	-273	-15828	-996	-3720	-654	-367	-201	-9416	4264	12352	-45	-3	-51	-15872	3368	-3984	-52	138	-29	-16000	1384	-1400	-66	-33	-18	126	125	8
-9768	-3184	13036	45	123	-187	-15668	2484	-3704	-376	288	-324	-15688	-1124	-3608	-799	-456	-185	-9424	4224	12432	-36	2	-46	-15800	3504	-3936	-58	133	-28	-16240	1816	-1424	-68	-25	-13	126	127	8
-9884	-3108	13004	13	106	-214	-15756	2576	-3864	-351	240	-269	-15752	-1044	-3740	-894	-319	-158	-9344	4256	12344	-32	6	-43	-16072	3424	-4232	-64	124	-22	-16272	1912	-1728	-86	-18	-16	127	131	8
-9848	-3156	12964	55	73	-184	-15632	2600	-3900	-560	176	-277	-15592	-1152	-3800	-935	-305	-160	-9440	4264	12288	-33	-1	-45	-15784	3376	-4384	-55	115	-26	-16256	1832	-1568	-76	-24	-16	126	130	8
-9984	-3172	13004	99	48	-225	-15556	2524	-3700	-472	79	-268	-15620	-1320	-3796	-843	-268	-188	-9376	4384	12248	-38	1	-47	-15832	3464	-4184	-42	98	-24	-16192	1576	-1800	-92	-19	-18	126	130	8
-9888	-3216	13052	61	64	-201	-15736	2488	-3824	-143	10	-235	-15744	-1352	-3608	-559	-319	-164	-9536	4168	12368	-34	5	-43	-15784	3256	-4400	-50	97	-22	-16168	1528	-1416	-117	-13	-17	126	130	8
-9844	-3144	12824	30	85	-231	-15796	2676	-3764	-269	-71	-253	-15936	-1392	-3780	-370	-283	-117	-9448	4224	12736	-27	7	-36	-15800	3104	-4112	-28	87	-11	-16200	1376	-1392	-101	-2	-26	125	128	8
-9760	-3124	13024	27	110	-228	-15680	2636	-3828	-592	-1	-234	-15968	-1460	-3984	-536	-261	-148	-9400	4120	12544	-30	8	-34	-15920	3264	-4320	-10	79	-13	-16288	1536	-1464	-64	-23	-24	127	130	8
-9960	-3168	13104	31	68	-206	-15700	2556	-3788	-671	-54	-231	-15784	-1300	-3384	-400	-299	-106	-9448	4136	12384	-21	6	-37	-15952	3488	-4240	-17	74	-11	-16416	1560	-1192	-60	-30	-12	127	131	8
-9916	-3220	12968	73	74	-224	-15564	2476	-3788	-342	-121	-196	-15648	-1364	-3284	-196	-148	-110	-9432	4312	12328	-17	10	-34	-15792	3232	-4304	-18	75	-11	-16336	1856	-1336	-29	-29	-13	127	130	8
-9924	-3208	13020	59	47	-287	-15644	2560	-3652	-232	-171	-183	-15792	-1296	-3412	-193	-196	51	-9528	4120	12480	-24	10	-39	-15680	3272	-4296	-13	69	-4	-16240	1600	-1632	-28	-25	-2	127	130	8
-9924	-3264	13072	57	75	-231	-15584	2512	-3508	-333	-95	-203	-15840	-1492	-3436	-300	-266	19	-9496	4144	12152	-26	6	-33	-15744	3208	-4224	-16	68	-4	-16256	1408	-1720	-23	-33	-1	128	133	8
-9868	-3192	12960	69	-10	-207	-15656	2364	-3532	-180	-51	-131	-15908	-1672	-3244	-114	-297	-25	-9496	4136	12248	-24	2	-33	-15872	3208	-4368	-16	48	1	-16104	1440	-1536	2	-18	-5	124	132	8
-9944	-3168	13012	93	13	-188	-15740	2524	-3536	-165	16	-146	-15932	-1636	-3212	111	-432	-15	-9456	4120	12432	-20	3	-29	-15704	3328	-4240	21	31	5	-16176	1736	-1416	27	-2	-8	128	131	8
