#Activity	running 
#ActivityID	2 
#Date 09-09-18-07
acc_rf_x	acc_rf_y	acc_rf_z	gyro_rf_x	gyro_rf_y	gyro_rf_z	acc_rs_x	acc_rs_y	acc_rs_z	gyro_rs_x	gyro_rs_y	gyro_rs_z	acc_rt_x	acc_rt_y	acc_rt_z	gyro_rt_x	gyro_rt_y	gyro_rt_z	acc_lf_x	acc_lf_y	acc_lf_z	gyro_lf_x	gyro_lf_y	gyro_lf_z	acc_ls_x	acc_ls_y	acc_ls_z	gyro_ls_x	gyro_ls_y	gyro_ls_z	acc_lt_x	acc_lt_y	acc_lt_z	gyro_lt_x	gyro_lt_y	gyro_lt_z	EMG_r	EMG_l	act
-32768	2348	15736	6255	6847	1691	-5416	-4432	8400	5843	6005	1877	-6136	-7016	28120	762	-1646	67	-32768	-32768	-32768	-1097	-11483	-13760	15680	-32768	-32768	-2250	-805	-7185	3732	-6924	15616	-2114	4424	2440	253	189	2
-32768	21960	32767	874	4557	290	-32256	15824	14192	2533	6268	1564	-1320	4560	16848	-283	-1192	472	-32768	-26520	-32768	6599	-291	-19301	11616	-19588	-32768	23567	30991	-3381	8996	-26136	-10488	32767	32767	-5990	36	201	2
-32768	4256	32767	-3931	1886	1377	-32768	4576	11816	-3092	4132	1236	-21248	15592	14896	-414	-2603	629	-32768	-20320	-27628	6975	2375	-18723	-6772	-3140	-16556	32767	32767	-5661	-9896	-16684	-7104	27508	15238	-9287	119	129	2
-32128	-16440	32767	-5767	-461	2444	-27728	1224	3192	-7141	3154	1103	-19400	15392	4480	-782	-2844	238	-32768	18752	-32768	-25954	32767	-32768	-21800	20196	20316	32767	32767	-11119	-32768	31612	25052	32767	22422	-10920	253	0	2
-31444	-25252	28696	-5081	-2314	2590	-31424	-14256	-3800	-6046	1595	-78	-32768	-9312	-4552	-1719	-3148	-784	32767	-5268	32767	505	16959	-23945	-26096	-32768	-7360	-6293	32767	-32768	-25244	-21672	-32768	-11787	16644	5971	206	50	2
-26068	-30056	21180	-2955	-3736	1704	-32768	-15056	-4264	-3962	395	252	-32768	-22768	-6208	-438	-4784	-1392	-22588	-13340	12452	-7144	16365	-4031	22468	-32768	-26264	-10972	19303	-9605	3324	-22588	-28108	20477	12757	6055	237	249	2
-16340	-31108	19512	-201	-4387	1026	-23432	-13456	-18720	-1982	-167	284	-32768	-19888	-7120	2400	-4801	-2272	-22896	11476	12424	-4165	17427	3999	-2832	14860	-32596	15402	32767	-9940	-8516	13400	-24956	22489	22376	-13094	2	18	2
-17928	-25244	16612	1841	-5251	-201	-15648	-8104	-24640	1657	-1607	-249	-32768	-10944	-12464	3158	-4276	-3105	-14912	3404	9992	-406	8039	-1711	-5228	15260	-25616	13669	32767	-10175	-32768	18936	-30836	16842	24350	-22857	253	0	2
-16636	-13780	13288	1728	-7031	-2123	-14072	1232	-24224	3843	-3211	-1266	-32768	29992	-32768	5353	-4408	-3376	-16736	7592	8088	-2074	7004	-5802	-17172	-6372	-24756	15	17618	-17017	-31764	7196	-18448	5316	28875	-6946	0	185	2
-18940	-5196	11776	-566	-8036	-3823	-11840	7600	-20720	4401	-4846	-2099	-32768	1984	-28288	349	-5748	-1305	-14276	10064	17080	503	8389	-7164	-19940	-9356	-22704	4459	14155	-7233	-32768	24400	-13260	-6170	24546	-17479	0	40	2
-24000	-11376	12936	-2005	-8279	-4841	-13056	7976	-22120	3150	-6991	-2924	-26208	11104	-20680	-973	-4953	-1422	-16264	8664	21288	-3680	19833	-10916	-32768	-12200	-19072	1964	2077	-5477	-32768	900	-5992	-15775	32767	-17811	204	170	2
-32768	-13072	15688	-2031	-8376	-4832	-12976	5704	-20576	1320	-8028	-3532	-9448	13160	-25112	-827	-1978	-1048	-8160	6004	24384	-4014	31788	-12462	-32768	-21524	-7112	-2347	-3064	-4547	-32768	-3868	6980	-26011	32767	-15300	156	250	2
-32768	-14088	16156	-1683	-8561	-5242	-14320	4936	-24152	1329	-8457	-4171	2920	15368	-21432	-1974	410	-475	-11296	5724	22132	5147	32767	-14752	-32768	-17000	1716	-198	-5559	1262	-32768	-11252	11620	-29064	30633	-19447	66	193	2
-32768	-4740	9724	-860	-8053	-6587	-11272	4984	-26784	1944	-8311	-4054	17408	8368	-21688	-2255	948	-343	-26532	12404	24156	11659	32767	-18975	-32768	-3072	6516	3990	-8559	7822	-32768	3240	16432	-11499	32767	-12363	86	210	2
-32768	4280	-112	-562	-6775	-7137	-10008	11416	-32768	3276	-7367	-3610	19328	4152	-14632	2237	653	632	-32768	15684	7056	7725	32767	-21217	-32768	18968	18408	-1584	-7071	-1586	-29988	16372	32767	1486	20592	-5634	160	209	2
-32768	25284	-18592	-1502	-5473	-5559	-16352	4928	-32768	3123	-5819	-2610	4752	-5400	-3928	3016	-1090	105	-32768	11708	2584	-10142	32767	-23817	-24204	20772	26544	-27357	4315	-19773	-11456	-1472	32767	-32768	-1171	6728	206	86	2
-32768	22240	-32768	-1025	-4261	-978	-14216	11152	-32768	2562	-2856	-930	-3520	-12432	13896	1792	-1503	-701	-32768	23088	-4836	-32768	32767	-18731	3540	-1980	3796	-32768	29738	-18094	-288	-7476	32767	1372	-9622	-10295	210	115	2
-32768	26888	-32768	212	-2172	1468	3784	26816	-32768	-1079	-309	-100	-4544	-5832	19520	606	-650	-1476	-32768	-15884	31380	-29595	32767	-3061	-31316	-27652	6004	-29598	32767	-19165	-3096	-18200	14544	17946	-4892	-9402	253	159	2
-32768	27220	-32768	183	-1662	1574	4192	12632	-32768	-2945	2082	415	1616	5896	5872	-2578	467	-1092	-32768	-8988	32767	22052	22299	-913	-32768	-21160	9976	25494	32767	-11520	-26752	-9164	4640	17504	-17989	-8237	103	159	2
-32768	13844	-25808	349	2836	682	1384	9168	-32064	-1164	3851	1312	1304	16360	-2328	-6334	3292	1185	-32768	26700	32767	32767	4565	-13320	-32768	3384	11516	32767	32767	-13453	-14376	-22108	12444	5898	-25424	-366	28	60	2
11808	-32768	26256	-1070	6865	598	-18248	-20624	32767	-8287	977	1434	-30776	248	30568	-2412	-354	1673	-30696	31276	27876	32767	-14772	-25035	-31392	3896	3748	32767	32767	-4964	-17200	-9000	3592	11551	-24600	-3871	224	16	2
-32768	-32768	-7720	5563	7302	3486	-4560	-32768	-32768	5354	6907	427	-25456	-27712	-1656	1594	1120	8	-28148	32767	24624	32767	-28713	-19362	-32768	2152	-3064	24107	27399	-606	-32768	22700	6800	27338	-22481	-1662	253	243	2
-27532	-32768	-4676	1039	2415	2138	3080	32767	-32768	4669	9431	2484	-22688	-27424	-12248	1507	1424	671	-12524	32767	18696	15167	-32768	-14716	-31192	3332	-8028	17313	11775	313	-32768	11828	-3592	15946	-32768	3846	253	10	2
-16484	-17228	9756	-172	751	-788	-6720	32767	-12032	-4991	3987	426	13160	18224	-21032	-3943	1806	1004	-7080	32767	14940	-9174	-32768	-7326	-16376	6688	-16136	-416	-3744	7208	-32768	8680	-8048	-690	-32768	15861	0	0	2
-11112	-7092	6496	322	844	135	17288	-26712	-28128	-3850	3984	1218	-20856	-11560	-21536	-3506	2993	2159	-9092	19284	11512	-10889	-32768	12225	-12784	-1072	-18784	-14818	-28653	12089	-32768	-3388	-18664	-9992	-32768	17739	253	174	2
-12480	-6432	12788	671	768	529	-27712	-744	-17760	60	3441	374	-32768	-24448	-26984	-419	3299	1326	-10904	10360	11044	4824	-32768	32767	-7888	-11056	-22672	-11947	-32768	22063	-32768	-3296	-27080	-6471	-32768	17065	253	234	2
-14788	-7648	13440	268	919	586	-25560	608	-24864	496	2310	1303	-32768	5280	-19240	153	3241	1901	-21824	13212	10368	20182	-32768	32767	-3832	-8892	-20540	2533	-32768	32216	-32768	-9584	-32768	-825	-32768	15198	195	119	2
-11692	-2884	29268	330	1812	1145	-25392	-2184	-29656	556	2042	1446	-32768	-13600	-5608	24	4208	2442	-29640	17556	13740	20785	-32768	32767	-5728	-5640	-18376	14898	-32768	32767	-14396	-10020	-32404	5217	-29100	15638	0	159	2
-11576	-284	24980	78	3907	1129	-32768	7752	-12856	-841	511	633	-32768	-3912	688	1622	4232	2720	-32768	12348	16720	20930	-32768	32767	-10348	-5180	-14512	21365	-32768	32767	568	-9364	-31040	8944	-12298	17980	135	222	2
-364	-1760	25852	-399	6432	821	-32768	144	3152	-919	85	769	-32768	7424	8576	1961	4042	3251	-32768	12104	17088	21472	-32768	32767	-12640	-10128	-20596	8929	-32768	32767	15056	-9856	-29956	24893	-1132	13398	0	249	2
2608	-10260	24372	-1129	10279	541	-32768	-696	3840	-748	73	748	-32768	2296	7856	931	4279	3408	-32768	7168	5680	8162	-32768	32767	-9880	-19348	-25096	-3284	-32768	32767	27876	-1932	-24872	22747	6765	7655	241	15	2
-32768	-10676	11032	-1754	11452	1474	-32768	-19368	16048	-1490	-1127	376	-32616	-20560	32767	2000	4182	2086	-32768	-20084	-9936	-1653	-32768	32767	-8352	-30600	-32768	-8852	-32768	32767	12548	2304	-11312	-25946	-14528	-572	0	137	2
-32768	-7188	9232	-728	8920	1495	-21920	-29456	30424	-1305	578	2279	-19288	-32768	32767	540	1829	-451	-32768	-32768	-32768	7347	-25526	32767	-16572	-21676	-32768	-15020	-32768	19692	2864	17000	2628	-24627	-17360	3246	206	98	2
5120	-32768	-6396	5902	9761	2586	2424	-21072	32767	2296	3863	2880	-17544	-32768	32767	530	1584	-701	-32768	-32768	-32768	287	-16976	7659	-3564	-29896	-32768	-23787	-18748	1429	-3388	7504	29100	-12063	-6501	5962	253	249	2
-32768	17432	29120	7473	7691	213	-8376	-3304	11320	4790	6633	1083	3280	-2224	32767	738	-544	399	-32768	-32768	-32768	-2731	-11502	-20638	21580	-32768	-32768	350	8932	-9186	3760	-7248	16204	7508	7706	2747	101	194	2
-32768	32767	32767	-1338	4155	87	-32768	21272	15512	3189	6470	1321	-9264	11744	5968	-492	-1654	471	-32768	-27420	-32768	4242	7866	-19875	10276	-27272	-32768	16439	32767	-8300	5412	-32768	-19384	32767	32767	-8935	0	56	2
-32768	31108	32767	-2559	3435	375	-32768	11504	11912	-3876	3588	552	-27144	22392	20328	-146	-3403	982	32767	-32768	2852	-1113	14249	-20236	-12424	-2484	728	32767	26512	-11945	-7868	-13892	-4716	15728	15262	-9402	225	247	2
-32768	-20936	32767	-7142	-1941	3074	-30888	3200	5480	-9553	2604	860	-17680	22128	1824	-212	-2938	259	-32768	32767	-32768	-26765	32767	-32768	-32768	32767	-32768	-32768	32767	26906	-32768	26496	17928	32767	32195	-24285	112	0	2
-32768	-32768	27972	-5270	-3829	3222	-31872	-16464	-4136	-7980	891	-409	-32768	-6912	480	-2574	-3739	-432	-32768	-32768	32767	-5130	7554	-32768	-7716	-32768	-32768	499	32767	-32768	-28324	-13492	-29916	-3581	10608	9160	198	0	2
-22228	-32072	21800	-2719	-4999	2089	-32768	-14768	-6592	-5090	-105	-528	-32768	-28776	-7992	-548	-4511	-1006	-22044	-20968	18420	-10143	8910	-11108	18344	-11284	-21580	1371	32767	-3853	972	-8804	-27448	27127	20210	10223	92	248	2
-13156	-30332	20076	-127	-4957	1111	-20816	-11592	-19488	-1745	-831	-532	-32768	-21728	-12872	1937	-5359	-2208	-15448	8988	6276	-3286	12489	-2768	-1244	6660	-18696	21871	32767	-15090	-9564	10760	-25956	17572	18467	-18556	67	0	2
-16700	-17796	18712	874	-5933	-1163	-14208	-8512	-24096	2179	-2388	-1052	-32768	4912	-20560	2837	-5539	-2405	-15796	2564	10384	-2405	7729	-4496	-22668	-17208	-24040	7017	28821	-17480	-32768	23268	-31000	10170	29409	-23865	253	46	2
-18844	-13688	14640	165	-7507	-3466	-14072	-448	-25848	5250	-4757	-1293	-32768	2904	-31936	1213	-4139	-1473	-15616	9568	10596	-3530	6839	-6185	-25240	-4760	-20436	-5956	12164	-18474	-32768	1648	-18856	-8222	29401	-8407	0	165	2
-20968	-11080	13484	-1070	-7980	-4703	-16072	6752	-25752	5013	-6226	-2820	-32768	5720	-32768	-614	-6422	-1771	-17140	6152	27672	-8495	15349	-12438	-32524	-11364	-14456	-4259	10296	-10925	-32768	15620	-7128	-7915	31114	-17164	0	1	2
-32768	-10204	17080	-2057	-8400	-5485	-13240	6888	-24424	3648	-7940	-3168	-21904	12072	-31496	-939	-3691	-1540	-15588	8496	23256	-5612	24040	-15909	-32768	-18268	-11776	5533	1674	-7266	-32768	3276	1616	-18480	31502	-17721	0	150	2
-32768	-16128	18936	-2262	-8818	-5718	-13312	6936	-29416	1053	-8972	-3583	-1024	16568	-29392	-2070	-1009	-723	-5864	6288	24124	-2721	32767	-17746	-32768	-14804	1064	1860	-2571	-4211	-32768	-7200	11668	-31400	32767	-17286	253	206	2
-32768	-7384	11000	-724	-8888	-6773	-11216	2344	-27640	1127	-9055	-4020	23704	9440	-24040	-3837	988	-594	-17680	6268	21996	5948	32767	-19304	-32768	-11696	1832	-1061	-5792	3013	-32768	-7628	6748	-32369	32767	-20749	228	248	2
-32768	-2368	2156	-41	-7572	-7430	-8280	13256	-32768	2393	-8397	-3635	27000	6760	-20744	954	1078	451	-32768	10108	23612	9861	32767	-20417	-32768	6040	19500	4546	-10733	1830	-32768	14640	25884	-12730	32767	-7957	206	213	2
-32768	20624	-11304	-1000	-6212	-6774	-13360	6032	-32768	1895	-6990	-3110	9128	576	-2976	3369	-1245	386	-32768	3384	11928	-5455	32767	-31038	-32768	23968	21896	-25023	-2199	-12198	-17140	748	32767	-18357	12886	1378	253	153	2
-32768	20856	-32768	-1637	-5161	-2916	-24400	1600	-32768	2216	-3958	-1700	-2032	-13456	13376	2247	-1557	-232	-3872	32767	-12984	-32768	32767	-28050	-516	18604	26840	-32768	9782	-23510	-9616	-16292	32767	-25477	-9739	-116	253	56	2
-32768	24688	-32768	189	-3026	1033	1880	24856	-32768	1229	-1022	-318	-5528	-12720	23720	1119	-709	-1312	-32768	-11384	16936	-32768	32767	-12132	-18464	-16448	-2300	-32768	32767	-19383	8076	-12076	32767	21707	303	-12764	0	67	2
-32768	25528	-32768	256	127	2038	3488	18496	-32768	-2476	1594	395	808	552	9592	-658	668	-1189	-32768	-27108	32767	8833	31363	1291	-32768	-32768	6944	-5459	32767	-15817	-16716	-11488	-3476	30941	-8469	-12708	4	191	2
-32768	14164	-32768	413	2435	1034	2664	11176	-32768	-1234	3715	1170	1576	13024	2520	-4887	2431	-31	-32768	9888	31160	32767	10829	-4650	-32768	-2124	7208	32767	32767	-14019	-26832	-9944	9864	14553	-20557	-2394	1	116	2
-32768	22608	18468	159	4600	2401	-5704	2920	19912	-4449	2987	1859	1320	26624	-32648	-4060	4269	2385	-32768	32767	25540	32767	-9586	-29365	-32768	9780	7640	32767	32767	-10608	-6680	-23308	4764	548	-26177	166	130	0	2
32767	-32768	21636	-753	10755	4413	-32768	-32768	22232	-1094	2972	-1641	-2088	26472	-27544	-3398	3699	2535	-32768	32767	20916	32767	-24128	-32727	-28156	3960	-456	30352	32767	-4411	-30492	8296	3444	15599	-26257	-1024	253	168	2
-32768	32767	32767	3734	615	14425	17928	-18592	-32768	9763	7874	-884	-32768	-9600	-32768	1067	1140	-110	-19072	32767	20008	21361	-31559	-20730	-28460	2752	-3416	27057	32767	-3495	-32768	20780	2536	30526	-27003	-2533	123	141	2
-14724	32767	28616	-37	1245	2789	-32768	32767	-32768	-7213	2324	1610	2560	30296	-32768	-1630	4145	-320	-6392	32767	15764	-7155	-31908	-13274	-21640	7788	-9408	10209	904	345	-32768	20688	-10404	10616	-32768	11803	0	0	2
-14444	-12648	9116	83	1285	252	-32768	12776	-14664	-4006	2596	723	4264	8328	-17136	-5046	2460	1648	-4936	23104	15584	-16775	-32768	5952	-13512	8976	-20720	-12764	-17054	7253	-32768	4300	-15728	-9878	-32768	24030	254	244	2
-14508	-2468	9296	678	1038	495	6280	-11056	-17664	-859	3883	647	-28832	-13848	-28824	-2690	3491	3035	-9452	12076	11208	-4148	-32768	31375	-4656	-5536	-20776	-22192	-32768	15933	-32768	-1348	-26688	-12655	-32768	19378	254	41	2
-16428	-2164	11468	398	895	424	-32768	-27288	-22584	481	3742	194	-32768	-8064	-23696	-432	3089	1988	-13804	10144	11144	14696	-32768	32767	-4396	-7744	-20308	-9893	-32768	25287	-32768	-6192	-32420	-10090	-32768	16101	254	245	2
-12388	-7412	28036	-387	1354	703	-32768	-7408	-18184	116	2128	846	-32768	-7344	-6544	-294	3916	1938	-24872	13500	13432	21755	-32768	32767	-1852	-9464	-18144	4423	-32768	32767	-23564	-10884	-32768	-1561	-32768	14357	0	124	2
-10496	-2956	27696	-15	3986	973	-32768	3472	-9752	-860	743	468	-32768	-14424	5064	667	4196	2667	-32768	16032	16892	21627	-32768	32767	-8200	-4868	-16344	20603	-32768	32767	-5232	-10304	-31984	2354	-19254	15437	0	248	2
-2268	-2044	24908	-522	6495	463	-32768	-384	3400	-1132	164	742	-32768	600	5664	1752	3978	3168	-32768	17828	17892	19388	-32768	32767	-13136	-6044	-13068	19747	-32768	32767	8436	-15528	-27436	12931	-5883	15003	213	187	2
-2472	-10040	19792	-1134	10261	459	-32768	-6688	9544	200	-303	440	-32768	8264	2944	1486	3924	3274	-32768	6560	14376	8468	-32768	32767	-13948	-14240	-19928	6607	-32768	32767	30248	-7196	-28792	24698	4544	7185	0	13	2
-32768	-204	11120	-1694	10782	1421	-32768	-5520	2280	-719	-1095	223	-32768	-6464	13880	3171	4903	3077	-32768	-808	788	10	-32768	32767	-10212	-23048	-32516	-8509	-32768	32767	26176	-3852	-20952	-8790	-555	555	253	126	2
-32768	-16788	3896	-1628	8409	529	-32768	-25720	23744	-3775	-1036	1673	-28072	-32768	32767	769	3277	646	-32768	-32768	-17856	7302	-32768	32767	-12788	-23808	-32768	-6862	-32768	32182	8924	4196	-396	-32768	-21640	-2392	0	136	2
-15108	-32768	-15516	3697	8618	2814	-920	-32768	32767	2061	2082	3248	-21400	-19232	32767	1524	39	-1811	-32768	-32768	-32768	14513	-25059	31052	-24000	-22672	-32768	-19344	-28134	13042	-5736	9280	17428	-11375	-20708	3721	253	133	2
-32768	-6588	10840	8826	7040	1398	10200	-5632	12312	8324	7710	1284	-8384	8488	32767	3692	-835	-535	-32768	-32768	-32768	-2510	-19707	-11185	7304	-32768	-32768	-2560	-18577	-3895	-5964	6888	32767	-824	-3831	8187	193	236	2
-32768	32767	32767	-25	5865	-1166	-32768	32767	25936	5660	7749	525	5424	15360	25096	-1072	-993	878	-32768	-32768	-32768	4469	-4323	-24602	17396	-23144	-32768	13755	29229	-3596	6532	-19492	15764	32767	18884	700	85	170	2
-32768	-2748	32767	-6779	2510	584	-32768	8584	13072	-6281	3135	134	-23176	16264	16800	-2062	-2532	725	-32768	-10504	-30348	2421	21039	-12756	1320	-18596	-32180	16026	32767	-10731	-904	-32768	-32768	32767	32767	-8347	15	56	2
-32768	-15460	32767	-6024	-249	2111	-32768	-408	6296	-10623	3191	895	-18376	18960	13672	-1575	-3589	812	32767	-32768	18568	-11428	12154	-15292	-18816	12476	27692	28525	20775	-14193	-9576	8800	-2152	13464	6633	-8022	253	145	2
-32708	-27972	28796	-4942	-3115	2620	-26864	-12936	-544	-9639	1714	-456	-20408	3176	-4544	-1623	-3404	122	-32768	24488	-32768	-32024	32767	-32768	-19076	17616	-32768	-32768	32767	18091	-32768	32767	32767	26288	23169	-23647	126	22	2
-29008	-28460	24576	-3584	-4561	2422	-32768	-23120	-4720	-5392	610	373	-32768	-28392	-2784	-2589	-4162	-1061	32767	21784	32767	-12265	18707	1262	1636	-19312	-32768	-32768	32767	10878	-25744	-32768	-32768	-30241	25956	6211	204	1	2
-16972	-29620	20280	-2229	-4987	1757	-32424	-14720	-12136	-1792	462	-146	-32768	-29120	-12872	876	-4659	-2087	-25148	23284	7024	-3412	20249	4861	32767	-27176	-31652	26086	32767	5091	1436	-32768	-28308	13602	10018	4564	199	246	2
-14992	-31664	19860	3	-5281	633	-14528	-15192	-26056	1489	-1163	-699	-32768	-17640	-14264	4014	-5598	-2935	-10816	7180	6688	2923	11384	-2329	-5440	16436	-31572	25459	32767	-10434	-14012	5072	-21308	26219	26160	-17514	248	0	2
-21724	-25252	12016	1655	-7263	-2053	-12360	3824	-30256	5208	-2764	-1294	-32768	30312	-32768	5732	-4397	-2699	-14832	4744	8120	3330	11442	-4092	-32768	-2156	-31500	2810	24675	-17234	-32768	32767	-29892	22770	27484	-20530	238	202	2
-16544	-5776	10472	433	-8388	-4151	-15248	6744	-25016	5750	-5325	-2169	-32768	784	-32768	171	-5760	-1791	-17484	6240	12960	-1825	6805	-6221	-30084	-7220	-32768	-10541	7608	-17228	-32768	14064	-24752	-21216	27740	-11892	0	0	2
-27740	-11692	11180	-1734	-8537	-5480	-18856	8152	-27928	4464	-7361	-2367	-28176	9944	-29216	-1452	-5360	-1945	-18164	10628	19116	-2350	16025	-10976	-32768	-17208	-21320	-3797	1640	-5811	-32768	8056	-6912	-13051	32028	-17726	0	0	2
-32768	-14088	16196	-2117	-8578	-6200	-8072	6560	-24560	864	-8767	-3006	-8552	14232	-29552	-1188	-2062	-1543	-9836	7740	27820	-3998	32483	-15139	-32768	-24784	-5788	6447	-1821	-6234	-32768	-4248	5840	-19908	32030	-13602	64	238	2
-32768	-22456	15964	-938	-8943	-6068	-12704	2248	-28728	443	-9186	-3829	6272	16056	-24368	-2086	460	-714	-6792	1184	26468	6908	32767	-12481	-32768	-18968	8780	8180	-1891	683	-32768	-14616	13164	-30068	32767	-23436	243	241	2
-32768	-4420	9324	48	-8665	-6921	-11232	5712	-28080	1447	-8968	-4115	18272	10784	-17936	-1879	1022	-420	-31880	11732	24692	18200	32767	-15260	-32768	-5284	9492	9100	-8097	7780	-32768	-2072	16228	-21243	32767	-17529	108	242	2
-32768	2604	-188	-293	-7427	-7016	-10848	7360	-32768	2793	-7708	-3815	19736	5704	-16536	2818	731	853	-32768	13668	1868	11725	32767	-22322	-32768	24796	21864	-7028	-5843	-179	-32272	14276	32767	38	20071	-6624	202	199	2
-32768	22412	-17880	-1561	-6177	-5246	-20272	3024	-32768	3805	-5994	-2755	4984	-4880	-728	2947	-1353	112	-24172	20848	-9548	-12977	32767	-26717	-16884	30796	30680	-32768	3732	-26264	-10652	2944	32767	-29764	287	10781	253	63	2
-32768	19872	-32768	-943	-4854	-1008	-17744	13944	-32768	3020	-3030	-842	-4920	-12880	18112	2009	-1518	-737	-32768	17724	-7364	-32768	32767	-29448	6988	632	-4568	-32768	31832	-18821	-2112	-15384	32767	-1031	-17158	-8866	221	94	2
-32768	24176	-32768	681	-2453	1782	3848	26104	-32768	-1655	-644	-156	-2360	-7720	23168	208	-349	-1385	-32768	-29012	29060	-32768	32767	-9081	-31740	-32768	-2584	-32768	32767	-15532	1376	-20376	10900	16913	-362	-10589	0	103	2
-32768	23288	-32768	-188	780	1543	4176	10536	-32768	-2700	2121	357	-1224	4752	6520	-1796	557	-1028	-32768	-11804	32767	32767	23828	-2742	-32768	-19404	15516	32767	32767	-9407	-24144	-9760	-3604	24202	-16400	-8690	73	145	2
-32768	12484	-25516	447	2979	790	-216	10816	-32768	-769	4010	1255	-3072	14416	3536	-5238	2327	814	-32768	27768	32767	32767	6150	-13946	-32768	-1240	15268	32767	32767	-14257	-11804	-25440	9664	2732	-26099	-1927	0	81	2
-20324	16476	-7308	344	4003	1185	-3496	16320	-18624	-1153	4152	1593	1856	23520	-32768	-4088	4613	2859	-27096	32767	31928	32767	-17914	-18249	-27280	3748	11600	32767	32767	-3605	-8412	-18440	9196	10973	-25765	-7416	253	1	2
32767	-32768	32767	-2360	9295	1213	-32768	-32768	32767	-5694	480	-417	-32768	-32768	32767	3	-3618	492	-27692	32767	26000	27653	-32346	-11335	-26028	8464	124	30027	24906	-1224	-32432	22952	-2412	32767	-24153	-6791	253	242	2
-32768	32767	16692	4825	1428	17141	6960	-32768	-29488	9293	7407	-1890	-14960	-11088	-32768	2919	2483	-108	-14696	32767	24648	6484	-32768	-11037	-32768	9464	-11552	5528	14408	779	-32768	30800	-2824	29074	-23962	3736	253	10	2
-5104	32767	32767	533	1704	3418	-32768	32767	-32768	-8703	5698	3200	-1376	30544	-32768	-518	4040	-630	-17336	31684	18020	-7579	-32768	-4749	-27396	9476	-17188	-4325	-11550	156	-32768	23624	-13164	-3844	-32768	16802	187	0	2
-18004	-13536	8528	327	1543	479	32767	-544	768	-8318	1978	715	23936	15088	-18272	-5198	2443	762	-23812	27576	9324	-11958	-32768	5877	-21700	6856	-19320	-24986	-32768	3765	-32768	2144	-15612	-23829	-32768	22951	253	36	2
-13952	-2240	8828	903	1021	570	-688	-11296	-10608	95	4016	1168	-22088	-13096	-32768	-1942	3149	3021	-18096	17768	6004	-2700	-32768	19685	-14564	-7080	-25964	-27607	-32768	10704	-32768	-8600	-23148	-20696	-32768	13194	253	144	2
-16056	-6532	11324	551	824	525	-32768	-15048	-18400	152	4154	-34	-32768	-7792	-32768	1384	2186	1051	-20636	10932	7436	17902	-32768	32767	-9668	-25676	-28468	5510	-32768	20876	-32768	-15128	-28956	-8786	-32768	11744	253	157	2
-11956	-212	32420	143	1748	1052	-32768	-2112	-19344	-632	1790	586	-32768	-5328	-8880	-1231	4078	2378	-24024	11576	10268	21117	-32768	32767	-6260	-7616	-23604	32767	-32768	32767	-14796	-16840	-30300	2195	-26789	10728	0	144	2
-9688	-956	27676	25	4420	807	-32768	2640	-9680	-1015	396	563	-32768	-11080	5760	948	4360	2824	-32768	21676	15552	24906	-32768	32767	-9636	500	-16148	32767	-32768	32767	-1264	-11940	-29856	12477	-12765	12691	0	185	2
-448	-3384	27656	-583	6999	544	-32768	1280	7552	-595	71	417	-32768	8456	7744	1927	4249	3316	-32768	19820	19892	15709	-32768	32767	-17048	-4664	-20632	20409	-32768	32767	12916	-8960	-25336	28551	2084	12407	0	117	2
-5180	-7108	21604	-1402	11089	464	-32768	-6088	10992	-209	-576	330	-32768	3272	7528	1388	4392	3276	-32768	2564	13236	13817	-32768	32767	-18132	-16096	-25188	1624	-32768	32767	24380	-1952	-21800	32767	5424	10433	0	41	2
-32768	-2296	10484	-1926	11055	736	-32768	-16104	16736	-2906	-1074	716	-29664	-30072	32767	1335	3794	1957	-32768	-20132	-4268	12015	-32768	32767	-12520	-27604	-32768	-13329	-32768	32767	18320	1092	-15504	-31574	-12649	459	253	181	2
-32768	-8092	9272	194	7266	1500	-14992	-32768	24136	-2909	1195	2418	-15424	-32768	32767	527	943	-764	-32768	-32580	-32768	10103	-25399	32767	-22788	-24812	-32768	-19998	-32768	16822	864	25368	1856	-19936	-21634	14116	117	182	2
-32768	-32768	-6396	6614	7924	874	7152	-19392	19016	5534	5440	3146	-13408	-3264	31320	3646	134	-926	-32768	-31468	-32768	-15431	-13427	9642	-1236	-28832	-32768	-22626	-27928	951	-3512	9304	29268	-14036	-11676	10588	123	242	2
-27388	32767	32767	4504	5125	-612	-19296	10704	32016	6325	6407	1900	-864	6024	22592	-325	-791	262	-32768	-32768	-32768	-9183	-4828	-12836	18904	-22476	-32768	-11899	8926	-4549	3020	-4864	18028	8399	8557	8386	80	111	2
-29372	19828	32767	-2891	3060	1064	-32768	24064	22568	-286	4521	1010	-96	8408	21552	-582	-753	318	-32768	-24344	-32768	5104	12243	-9896	7368	-23504	-32768	-1859	32767	-8448	1652	-27112	-10368	32767	32767	-9917	0	32	2
-28960	-14840	32767	-4717	-160	2073	-29232	10608	10568	-5887	2544	847	-23696	19048	24224	-582	-3385	1069	-27720	32767	26624	7264	32767	-10844	-22808	1568	32767	32767	32767	-14312	-20528	-760	23832	7093	1330	-5920	201	233	2
-26024	-18584	32767	-4366	-2505	2209	-27856	-4880	3512	-8144	1284	310	-20952	12552	-616	-2805	-3351	775	-32768	-32768	-7844	-31288	32767	-32768	-24240	-5452	-32768	-32768	32767	6628	-32768	32767	-1888	19449	21552	-7869	248	116	2
-29364	-23848	27388	-4471	-4607	2353	-32768	-18872	-3624	-6851	11	-631	-32768	-13464	-5576	-3511	-3406	-295	32767	11776	25228	-5434	4083	-27488	-14064	-27256	-16232	4868	32767	-32768	-9680	-32768	-32768	-28018	20872	-9015	253	0	2
-25956	-29412	19696	-3237	-5811	1898	-32144	-16288	-8272	-3115	-344	-401	-32768	-19328	-4864	-127	-5000	-1788	-26740	1840	11200	-7631	16025	-3591	32767	-32768	-32768	-2751	18630	-6308	15396	-23284	-30476	6374	12398	9305	211	235	2
-20888	-32292	18512	-693	-6285	797	-24936	-11688	-20056	342	-653	-633	-32768	-15504	-8328	2795	-5329	-2360	-13172	15344	5416	-2173	13593	4785	-3412	13088	-31932	14569	32767	-13013	-14000	10944	-21112	26224	30250	-10655	0	153	2
-18100	-21820	17380	1279	-6519	-897	-24648	-5704	-25104	3049	-2372	-1244	-32768	-24624	2616	4169	-5241	-2741	-13360	5864	11452	-585	9139	-1267	-32768	-19300	-27048	2308	26928	-6776	-32768	9952	-32768	24055	29988	-13245	253	0	2
-18484	-7280	15804	111	-6893	-2719	-25496	-4480	-28976	5288	-4436	-1272	-32768	16816	-32768	737	-4643	-506	-16080	7684	10396	-1604	8966	-2501	-17492	-7384	-24164	-3582	16719	-14965	-26516	22392	-20640	9596	26422	-16985	0	143	2
-26444	-8104	16824	-2097	-7273	-3751	-20632	9888	-28944	3930	-5939	-2385	-32768	10280	-30504	314	-4783	-659	-12348	21288	28804	-2843	11250	-6575	-29240	-7232	-20348	293	15347	-3455	-32768	11144	-8328	-5711	28571	-16796	0	114	2
-31636	-12660	19772	-2421	-7803	-3948	-16672	9744	-26128	399	-7751	-3032	-19976	11400	-26696	-1957	-3435	-1510	-15272	9432	25312	-2168	24643	-13415	-32768	-17024	-15412	4053	627	-3065	-32768	8988	-604	-12624	32767	-19570	45	140	2
-32768	-12128	20408	-2845	-8195	-4403	-16376	6536	-28032	-1237	-8393	-4175	-4960	11264	-24664	-1997	-1012	-1018	-5048	7584	26276	407	32767	-17082	-32768	-19424	2496	4756	-2043	-928	-32768	-4848	12296	-29940	32767	-18355	109	175	2
-32768	-13736	13160	-1748	-8000	-6167	-13392	6648	-27544	92	-8143	-4997	11696	7800	-19856	-2933	838	-917	-22740	10044	23616	14065	32767	-13200	-32768	-11864	4728	7926	-4392	7099	-32768	-6652	10284	-29127	32767	-21029	174	241	2
-32768	4916	7072	-1333	-6334	-7340	-6920	4320	-30528	3182	-7194	-4511	22584	5704	-20392	1036	777	-20	-32768	14460	23276	19510	32767	-18441	-32768	14192	19588	8668	-9203	5775	-32768	10388	32767	-12746	29283	-6439	185	241	2
-32768	24284	-4796	-1310	-5300	-6079	-11328	7632	-32768	5477	-5420	-3143	10288	-1392	-7880	3231	-898	21	-32768	3308	9568	5186	32767	-20437	-32768	23800	23012	-22745	7270	-17410	-14212	6256	32767	-8631	3289	-849	206	122	2
-32768	23248	-23200	-544	-4647	-2192	-21136	17888	-32768	4880	-3543	-1029	3960	-9376	2824	2390	-1116	-667	-32768	4740	9268	3601	32767	-20304	-468	9080	29556	-32768	21808	-24484	-10068	-5992	32767	-13594	-10483	-816	254	88	2
-32768	25376	-32768	743	-2735	83	176	30488	-32768	-187	-1566	-148	-2672	-4224	14736	2065	-754	-1047	-32768	-1732	22452	-32768	32767	-13624	-21336	-20704	5744	-32768	32767	-21230	8884	-12552	32767	16056	-2319	-12037	253	102	2
-32768	25708	-32768	526	743	-85	6144	12400	-32768	-2155	931	-75	376	3264	8432	-203	175	-905	-32768	-4672	27304	-4275	32767	-4432	-32768	-32768	7896	725	32767	-14269	-20768	-16608	2568	19522	-12572	-9901	174	131	2
-32768	20504	-29408	860	2755	-311	4920	7088	-32768	180	3123	1093	-248	9080	1280	-3455	1664	177	-32768	7064	29624	32767	28624	-4995	-32768	-1636	8888	32767	32767	-14731	-20988	-14876	7024	9443	-20504	-660	71	121	2
-32768	22408	-12032	1129	3129	794	3616	14952	-25904	1066	3868	1541	4472	16560	-21808	-4110	4394	2221	-32768	31840	26008	32767	3091	-22206	-30488	5016	4144	32767	32767	-11276	-7272	-24068	7816	-1905	-27958	-509	253	48	2
32767	10628	32767	-4475	3224	824	-19992	-16912	32767	-9328	-244	1578	-27192	-4112	32767	800	-41	2014	-32768	31728	19912	32767	-19221	-24358	-23224	-164	-596	28630	32767	-5996	-7124	-23324	7640	373	-27124	-2751	0	14	2
-32768	-32768	-32768	2520	11506	4383	-848	-32768	-32768	-1701	5320	-558	-20184	7960	19856	3956	2326	55	-23944	31920	17312	32767	-32237	-14189	-32768	4052	-6332	21730	29429	-2273	-25928	4424	-584	25758	-25337	-5476	253	79	2
32767	32767	8788	717	2248	2590	-12416	32767	-29336	3323	9951	-552	-31856	1576	-32768	-689	1655	-1275	-5700	32767	16516	16770	-32768	-11281	-27112	6980	-11776	19582	7996	1485	-32768	16624	-8356	20811	-32768	8193	254	56	2
-27452	32767	12112	382	1674	442	-29320	3552	-25008	-2553	2741	1291	23904	13736	-24432	-5451	1909	1263	-7948	32767	14672	-8549	-32768	-3214	-10436	11688	-22148	-9447	-11552	8528	-32768	8248	-14168	-8608	-32768	21126	0	25	2
-16584	-364	4184	715	1227	651	22784	-11512	-12768	-3329	2952	638	8	-10720	-31568	-3113	3145	1648	-15008	20588	8436	-14852	-32768	18041	-5584	-4196	-18012	-22157	-32768	15387	-32768	-1852	-20124	-15837	-32768	20171	67	0	2
-15308	-2956	10004	665	896	410	-8136	-20192	-29424	725	2977	841	-32768	-17128	-32768	-639	3694	1150	-11692	6776	9224	-519	-32768	32767	18556	-32328	6792	-10395	-27163	31328	-32768	-6036	-29956	-8174	-32768	19272	254	242	2
-17852	1448	12348	409	690	768	-32768	6104	-32768	2707	2540	-34	-32768	8936	-24928	-525	4084	2402	-23792	6196	10216	20035	-32768	32767	-21084	-932	-32768	-10746	-32768	22054	-29236	-10992	-32768	-3725	-32768	13723	239	148	2
-7756	-9840	32767	466	1866	593	-32768	-4632	-11024	756	1569	439	-32768	-11968	1032	69	4401	2566	-32768	14048	11912	25286	-32768	32767	-4616	-6800	-17224	25878	-32768	32767	-7664	-10388	-31108	-2441	-23165	14941	12	242	2
-9312	-832	30324	40	4530	569	-32768	9792	-4864	-882	451	46	-32768	-368	4776	1425	4226	2979	-32768	20056	12932	17626	-32768	32767	-10284	-1836	-12540	26941	-32768	32767	5168	-10612	-28804	-554	-8792	15250	20	195	2
2064	-4732	27376	-598	7618	284	-32768	352	11984	-1590	-30	448	-32768	9080	8208	2161	3704	3227	-32768	17256	12728	4931	-32768	32767	-13528	-9964	-19668	4597	-32768	32767	18092	-11652	-28740	19729	5709	12411	0	33	2
-13228	-4464	19444	-1525	11136	393	-32768	-7568	14032	-1278	-633	267	-32768	-384	18392	3205	4001	2858	-32768	1232	2324	-547	-32768	32767	-11180	-21528	-24772	-11438	-32768	32767	28136	-4440	-23452	19769	9477	2067	253	142	2
-32768	-644	12344	-1722	10342	418	-32768	-25888	21392	-3520	-936	904	-27864	-31536	32767	1404	3783	887	-32768	-14932	-14404	-300	-32768	32767	-11160	-27600	-32768	-14024	-32768	32767	10744	-3536	-9388	-21313	-15856	-2799	0	159	2
-32768	-19532	2284	1793	8018	2090	-9880	-32768	28408	213	1957	3037	-18640	-16400	32767	-721	527	-1889	-32768	-32768	-32768	6495	-25063	32767	-23556	-22028	-32768	-23104	-32768	20099	2260	14784	2300	-24757	-17611	3850	254	125	2
-32768	-20732	2604	7250	8259	2425	6152	-9224	19432	6732	5935	1798	-14168	-224	28424	67	-572	-606	-32768	-30088	-32768	-2115	-13489	16478	-11800	-28720	-32768	-22541	-22524	1391	-9056	9668	32767	-6609	-13991	9173	253	243	2
-32768	32767	32767	1694	5976	-426	-19200	21360	24600	4963	6503	817	5920	-5792	22664	-2365	-1238	778	-32768	-32768	-32768	-5168	-12696	-23016	20264	-21892	-32768	4451	8401	-4729	280	376	18584	9471	10168	9223	58	160	2
-32768	6100	32767	-5382	2682	1216	-24272	26752	27296	3562	6247	987	-10080	7328	9448	-1032	-2257	815	-32768	-22540	-32768	8307	-350	-26599	4328	-19744	-32768	16846	32767	-7517	1212	-28188	-36	32767	32767	-3481	94	156	2
-32512	-7840	32767	-5523	32	2847	-30216	952	8832	-8724	2800	966	-20200	14040	20056	-839	-3620	973	-20916	-2460	-19504	2101	21723	-16881	624	-18820	-18480	15616	32767	-10848	-3336	-27704	-32768	32767	32767	-16167	253	111	2
-30764	-19908	26568	-5202	-2517	3064	-24768	-9264	7160	-8406	1753	187	-14096	14704	7232	-1192	-2882	291	32767	24636	16988	-4336	32767	6334	-32768	32767	32767	32767	14115	-5780	-24516	26192	32767	10781	-10971	-5213	56	238	2
-29484	-21464	23984	-5010	-2942	3051	-19552	-14104	-1440	-5420	887	237	-23016	-8984	-856	-1678	-3178	-129	-32768	24328	-14120	-32768	32767	-32768	27032	-32768	-32768	-32768	32767	13464	-3456	32767	5044	5940	22136	-14088	63	0	2
-21476	-22732	23100	-3103	-4583	2090	-32768	-17504	-11680	-2642	1022	-308	-32768	-23368	-7120	-1151	-3161	-1242	-32768	32767	-32768	-4988	25143	32767	-23412	22204	-32768	-5053	32767	-32768	-11696	-32768	-32768	-21329	32767	2624	253	0	2
-20656	-30024	19120	-1115	-4805	841	-29104	-9264	-22488	-182	-557	-452	-32768	-23112	-18568	2267	-4266	-2070	-10104	8392	10916	-1105	12549	-516	18700	-15460	-19164	30144	32767	3904	17288	-32768	-31152	32767	8709	-406	105	238	2
-19700	-22404	17904	872	-5799	-1455	-18704	-5872	-22720	2578	-1757	-568	-32768	-15416	-16832	4342	-6799	-2895	-18336	10784	5928	3779	12045	-1754	-17144	6216	-25620	15249	32767	-11739	-22648	30484	-31480	32373	30145	-25017	253	0	2
-18460	-10924	14388	889	-6626	-3456	-18440	-5456	-26840	5801	-4051	-823	-32768	4632	-24448	2062	-4585	-697	-18468	8408	8204	785	8805	-4039	-32768	-2276	-32768	-10152	24606	-15359	-32768	25500	-32768	966	19758	-22419	27	194	2
-20192	-3504	13120	-971	-6836	-4730	-18768	7136	-25352	5330	-5416	-1883	-32768	7368	-30056	233	-5358	-1705	-17744	5724	15440	1450	7953	-7869	-24064	-8672	-31440	-9705	8467	-18532	-32768	5632	-13824	-16092	28516	-13359	0	0	2
-30344	-8332	16792	-2330	-7475	-5065	-14120	7904	-26544	2914	-7180	-2186	-21184	12544	-28064	-756	-3838	-1815	-17608	13804	24116	-3746	22488	-12656	-32768	-14524	-16144	3805	4382	-5129	-32768	6112	1452	-12382	28697	-15415	0	137	2
-32768	-14528	17364	-2415	-8148	-4996	-12280	4824	-25536	261	-8395	-3141	-6272	15512	-24512	-1555	-1166	-1444	-3800	4912	25876	-1542	32767	-19305	-32768	-21692	-804	6584	-2692	-3074	-32768	-8868	12964	-20773	32767	-19246	190	239	2
-32768	-15504	13340	-1201	-8215	-5503	-12368	5144	-25872	473	-8564	-4107	8680	14216	-21424	-3620	921	-803	-17180	5128	19752	10430	32767	-15192	-32768	-13332	3148	6929	-245	3447	-32768	-8436	10024	-24485	30663	-23487	253	196	2
-32768	-2020	8292	-925	-7354	-6908	-10192	6272	-29360	1514	-8060	-4100	21192	6120	-15320	-1888	1315	-248	-24888	11260	24404	17750	32767	-19236	-32768	6344	13184	11665	-8932	6381	-32768	-6120	9228	-23440	31628	-21621	180	242	2
-32768	-1780	6408	-939	-7165	-7028	-10040	384	-32768	3273	-6725	-3542	14280	1320	-10080	2479	-50	724	-32768	14680	8920	7424	32767	-27301	-32768	26268	22432	-11451	-177	-9166	-24352	25480	32767	-5918	14442	-5565	180	138	2
-32768	24680	-21588	-1546	-5070	-4107	-19408	6248	-32768	4754	-4446	-2031	2688	-10288	1192	2950	-1111	-314	-16228	32767	-11668	-14798	32767	-29147	-15876	26672	32767	-32768	7595	-26647	-9760	-7360	32767	-31649	-446	7017	253	64	2
-32768	23064	-32768	75	-3719	74	-9768	21560	-32768	2471	-1988	-325	-5040	-12968	19984	2072	-1340	-1245	-32768	8976	5616	-32768	32767	-27202	-4136	-4036	-6664	-32768	32767	-22000	4008	-9240	32767	-2275	-11726	-8426	0	17	2
-32768	29280	-32768	314	-1158	1291	6160	24184	-32768	-2565	213	-65	-712	-1352	15920	840	-285	-1481	-32768	-17912	30072	-24169	32767	-11741	-32768	-32768	3512	-27298	32767	-19224	-6216	-15488	2360	17157	-6002	-9489	0	173	2
-32768	20236	-32768	-273	1586	626	4096	9152	-32768	-2474	2572	606	-560	8392	3160	-2838	642	-570	-32768	-13996	32767	32767	19889	-6942	-32768	-20652	6588	31662	32767	-12354	-27992	-13556	3612	11474	-19347	-5889	1	142	2
-32768	19200	-17596	479	3085	756	-112	13024	-28632	-1026	3728	1310	1568	19160	-7264	-5672	3415	1961	-32768	29048	28724	32767	601	-19802	-32768	4316	9860	32767	32767	-14674	-10896	-24156	7020	1232	-25136	-8	133	22	2
12144	-32768	31184	-2169	8320	1817	-28424	-32768	32767	-9267	615	632	-32768	-12848	32767	-1936	-2857	1467	-32768	32767	21924	32767	-18685	-27358	-28912	5264	2888	32767	32767	-5761	-18744	-4736	3320	14450	-24645	-4061	253	34	2
-32768	-32768	18508	5050	9934	4804	-14944	-30160	-32768	4403	7099	1558	-30304	-19136	-10232	1156	710	418	-26484	32767	20596	30392	-30138	-19059	-32768	2152	-5944	23219	27485	-1711	-32768	21876	4528	28501	-19159	-2206	254	191	2
-32768	-32768	-5936	1455	2218	2223	816	27648	-32768	1174	9007	2224	11488	32767	-32768	-2391	1487	-382	-12012	32767	16804	3594	-32768	-14424	-29904	2304	-10424	18041	5349	-729	-32768	15960	-6532	14807	-32768	6467	253	0	2
-11404	-16576	15188	278	1026	-43	-6928	32767	-12528	-4398	3902	1243	16288	5344	-31912	-4487	1965	1147	-11420	26880	15160	-12730	-32768	-4814	-14412	8668	-19840	-3400	-8707	6941	-32768	9248	-9996	-10029	-32768	16531	0	122	2
-12868	-9360	9360	517	686	187	12968	-12896	-17712	-3000	3827	883	-26344	-5712	-18080	-3171	2680	2205	-14300	16032	11052	-5775	-32768	16165	-9412	-1780	-20168	-19029	-29370	13736	-32768	-3168	-22292	-11893	-32768	17260	254	42	2
-13784	-6828	10820	430	835	302	-32720	-9928	-17152	-493	3536	510	-32768	-10272	-23160	246	3179	1370	-13352	9788	10600	13456	-32768	32767	-9632	-10592	-22024	-12972	-32768	25032	-32768	-5948	-29700	-8141	-32768	16485	253	242	2
-14292	-7756	17600	101	1009	716	-29280	4376	-21312	970	2211	1035	-32768	3968	-15096	-638	3278	2222	-25620	11096	11624	26797	-32768	32767	-5128	-11840	-20576	1928	-32768	32767	-30616	-10588	-32768	170	-32768	13493	17	134	2
-14436	-1144	23512	-85	2475	852	-32768	5472	-17504	-414	1520	209	-32768	-20104	3376	-387	4485	2482	-32572	11840	15224	30447	-32768	32767	-6852	-6720	-18148	17314	-32768	32767	-26712	-10344	-32768	1412	-32768	12861	48	218	2
-9068	-2664	24932	-114	4702	782	-32768	4920	-6624	-1301	379	622	-32768	-536	3488	1499	3869	2961	-32768	8728	17388	32767	-32768	32767	-10556	-8656	-15748	21030	-32768	32767	4296	-13448	-31356	10804	-5691	16278	0	205	2
-208	-3112	24992	-874	7269	218	-32768	-2656	5024	-752	-146	717	-32768	4896	7784	1418	3938	3193	-32768	8652	15076	30283	-32768	32767	-11352	-16672	-19856	9175	-32768	32767	20528	-6556	-30992	19102	5255	7928	0	140	2
-14688	-10420	19964	-1454	10832	690	-32768	-13368	5328	5	-864	389	-32768	-5432	3912	627	4216	3475	-32768	3768	9096	13682	-32768	32767	-8032	-25756	-25468	70	-32768	32767	30792	-4392	-20984	13194	4319	3827	253	104	2
-32768	-6640	9684	-2029	10437	1161	-32768	-21560	14168	-1668	-1287	642	-29056	-23744	32040	901	3646	2049	-32768	-20112	-4768	-229	-29630	32767	-10324	-26588	-32768	-4380	-32768	32767	16184	2688	-10408	-23380	-19208	-2732	100	123	2
-32768	-28880	3692	-758	7749	1789	-23104	-26712	29704	-2081	163	2339	-16864	-32768	32767	1338	2030	-749	-32768	-32768	-32768	10296	-17520	32767	-29692	-19948	-32768	-22052	-32768	21063	-2120	14188	1696	-8720	-18530	4541	165	133	2
-32768	-32768	-8172	6713	7840	1553	20112	-23776	17384	4193	4101	2203	-7760	-5736	32767	3562	-501	-493	-32768	-26532	-32768	-8305	-15390	16655	-8320	-27464	-32768	-27267	-28564	1012	-10872	11100	31164	-8518	-13282	7340	195	236	2
-31540	32767	32767	5390	4984	-544	-12424	8448	12912	6669	6310	680	2776	-2976	32767	-276	-608	686	-32768	-32768	-32768	-10945	-13994	-24568	17712	-24944	-32768	-5240	6958	-7610	200	3308	14796	9067	7237	9597	11	243	2
-32768	27364	32767	-3361	3205	274	-32768	20720	18872	980	5320	1115	-7104	5400	11712	-2010	-1637	515	-32768	-23084	-32768	7435	345	-24369	5036	-24064	-32768	12193	32767	-9291	-464	-24876	12668	32767	30857	-3519	25	236	2
-32768	-2020	32767	-5223	517	2427	-32768	18568	16160	-70	4996	1094	-26992	10928	20448	-513	-3572	912	-26516	-4520	-15316	-542	19921	-15552	-692	-21144	-20224	14495	32767	-12420	-3668	-27016	-32768	26261	32767	-16890	253	0	2
-32360	-12556	29512	-5386	-1877	2786	-27720	-448	3696	-7979	2503	687	-9336	19144	8616	-247	-3295	378	32767	19720	16112	433	13720	1354	-32768	22872	32767	32767	19817	-12949	-7248	18804	10456	3156	5792	-9500	246	238	2
-29248	-21204	19752	-4566	-3983	3027	-19992	-7120	-3280	-7639	1223	274	-8088	17952	6384	-344	-3192	291	-32768	5648	-32768	-32768	32767	-32768	-8224	10208	-32768	-32768	32767	9162	-32768	14600	32767	-3107	9704	-22580	60	0	2
-21956	-21504	20616	-3617	-4962	2398	-32768	-15424	-8216	-5242	501	342	-32768	-18472	-4192	-1863	-2880	-1561	32767	620	32767	-6793	16713	-32768	-25740	-32768	-11684	-17221	32767	-32768	-20736	-32768	-32768	-17062	26617	6404	253	0	2
-18184	-32568	16264	-1261	-4734	1801	-30472	-10264	-12264	-2691	-473	-370	-32768	-21216	-10656	1505	-4564	-1825	-32768	22924	1940	-4906	17802	235	20888	-32768	-32768	13125	32767	-6594	6728	-27380	-29816	32767	11585	10963	177	238	2
-19580	-22684	17084	998	-5445	438	-16136	-9912	-21832	1249	-1294	-421	-32768	-13488	-11472	4107	-5438	-2454	-13480	9908	7316	-669	9629	-1494	-1488	3936	-14620	25998	32767	-11147	-17452	16224	-21312	32767	22355	-15696	112	0	2
-19224	-15588	14380	1095	-6584	-1846	-18344	-3824	-26120	4752	-2692	-1428	-32768	7272	-16264	3244	-5471	-2479	-15452	5744	10960	502	6404	-3039	-32768	-8600	-24436	7761	27273	-14457	-32768	26792	-32768	11656	21352	-26898	253	184	2
-17400	-7908	10848	-671	-7049	-3774	-21576	3896	-27528	5943	-4648	-2053	-32768	2800	-25880	904	-5524	-2287	-16480	7680	12284	-3515	6769	-5798	-21644	-7936	-18344	-9879	8003	-21432	-32072	6712	-19820	-17434	27677	-17008	0	1	2
-23756	-10776	13400	-2103	-6949	-4678	-15184	8944	-26312	3519	-6488	-2212	-28624	7320	-24704	344	-3948	-1955	-13156	10632	29808	-8024	16847	-11779	-32768	-12756	-16412	-3058	7506	-8687	-32768	13164	-5372	-6921	27672	-18441	0	0	2
-32768	-10852	15964	-2459	-7545	-4961	-9680	7144	-24136	298	-7878	-3033	-27688	8576	-26376	18	-3654	-1925	-11836	9344	26312	-4770	29267	-17267	-32768	-20128	-6860	8350	-2551	-4720	-32768	-1784	6280	-12478	32767	-13755	0	239	2
-32768	-15828	14448	-2058	-8064	-5225	-10304	5800	-26528	-138	-8282	-4123	1088	15256	-22968	-1726	-131	-651	-6880	1340	26320	2243	32767	-15161	-32768	-18356	5056	5968	-2188	-2797	-32768	-8800	11968	-32768	30718	-25239	189	205	2
-32768	-3020	11100	-1204	-7418	-6507	-8488	6872	-25568	790	-8121	-4630	15056	7632	-20440	-3038	1095	-408	-30024	13716	25264	12523	32767	-18485	-32768	-4112	6764	3727	-7182	4852	-32768	-3728	15240	-20417	32767	-19285	0	242	2
-32768	904	2704	-674	-6456	-7456	-8800	6760	-29256	2981	-7027	-4150	19064	3168	-14704	140	1165	793	-32768	20372	8404	14048	32767	-23163	-32768	19380	20892	-3045	-9690	-1435	-32768	17784	32767	-4643	24102	-6794	153	200	2
-32768	24412	-13088	-654	-5240	-6824	-10728	1352	-32768	5029	-5367	-2957	7688	-784	-5328	2709	-489	553	-32768	17584	-2316	-5890	32767	-26674	-27700	30072	27292	-27836	3251	-23738	-10336	7364	32767	-28510	7328	7899	253	27	2
-32768	23036	-32768	-802	-4105	-3031	-16808	8784	-32768	5513	-2959	-932	-184	-9328	3656	2824	-927	-354	-32768	32767	-24440	-32768	32767	-28387	2368	12652	10056	-32768	23148	-21846	-5932	-7828	32767	-15810	-13973	-4934	204	83	2
-32768	24836	-32768	579	-2572	961	-816	28320	-32768	805	-907	140	-5872	-7360	18656	1729	-1092	-1464	-32768	-16756	26116	-32768	32767	-10139	-22056	-26896	8260	-32768	32767	-19631	7592	-17844	19596	10977	669	-9667	253	103	2
-32768	23340	-32768	150	-138	1760	6280	16840	-32768	-3633	1057	13	2400	5424	8696	-821	523	-1268	-32768	-27380	32767	21864	31461	10759	-32768	-32768	6956	9430	32767	-9836	-20428	-13592	3140	19607	-18130	-9477	53	178	2
-32768	16820	-29416	-248	2012	1008	2376	9376	-32768	-2607	2939	751	-504	12264	5832	-4884	1700	352	-32768	23940	30724	32767	10364	-917	-32768	2564	8096	32767	32767	-10924	-19860	-20532	9996	6434	-24296	-1972	169	74	2
-21368	16456	-10352	191	3092	1238	600	13560	-18752	-1939	3413	1245	5376	23896	-30024	-5192	5067	2983	-23788	32508	27696	32767	-10368	-24711	-26508	9060	14748	32767	32767	-3617	-6604	-25028	6728	3107	-26184	-1629	253	34	2
-18300	16336	-6672	192	3175	1286	-16960	-11576	32767	-5140	855	1434	-9064	4600	576	-858	2358	3332	-22172	27692	21652	32767	-23716	-23482	-20072	-2732	3636	32361	32767	1713	-19820	-6112	1364	32767	-26262	-6891	253	117	2
-32768	-32768	-32768	602	18225	5431	-19120	-30280	-32768	5459	4535	-1217	-32768	-32768	32767	1300	-128	-2383	-15304	32767	21584	27819	-27416	-16294	-31408	2364	-7784	23828	25697	2533	-32768	25324	-3708	32767	-20110	2021	245	0	2
-32768	-32768	-21964	-617	4857	-1070	-32768	32767	-15960	11245	19185	64	-32768	14368	-32768	1386	1862	-1248	-10696	32767	20644	4513	-31973	-7285	-26168	6568	-10860	11875	2693	5380	-32768	24976	-8580	14471	-30380	15102	68	120	2
-15384	-1048	11556	-206	328	-1964	18672	32767	-12744	-10814	559	949	31152	20112	-12672	-2644	481	600	-7628	26096	18144	-11105	-32768	8034	-16348	11428	-22192	-16338	-17099	10580	-32768	6912	-15844	-13502	-32768	22162	253	55	2
-12036	-2284	10572	891	678	898	12240	-21800	-32768	-5197	4802	1004	-6136	1504	-19640	-2686	3082	3557	-12236	14440	10336	-8239	-32768	26163	-8168	-6676	-17904	-25161	-32768	17907	-32768	-2384	-19396	-22759	-32768	22296	253	59	2
-13568	-10352	13336	525	758	431	-28696	-5144	-27312	1307	3115	-225	-32768	1288	-56	10	1712	1621	-15632	4428	14980	8538	-32768	32767	-24892	-13804	-8944	-8575	-32768	4125	-32768	-8048	-27748	-15761	-32768	13789	253	235	2
-15460	-6444	18892	143	1035	1108	-32768	6688	-28608	2343	2030	730	-32768	5472	-16808	-2127	4144	2085	-24976	11084	14548	18941	-32768	32767	-5700	-15484	-20312	1581	-32768	32767	-22784	-12716	-29760	-4889	-28436	15438	123	153	2
-13380	-3288	26140	151	3266	1159	-32768	3448	-8680	-797	744	106	-32768	-23184	5632	-1050	4411	2074	-32768	14572	18300	19287	-32768	32767	-8716	-7172	-16356	22026	-32768	32767	-4676	-12232	-29260	3489	-15764	17822	0	237	2
-4196	-1960	26800	-160	5777	1272	-32768	6296	3912	-1222	195	451	-32768	-1480	8080	2180	3752	2453	-32768	15736	18316	18125	-32768	32767	-12468	-7104	-15828	23717	-32768	32767	4496	-15532	-25224	15178	883	18924	0	199	2
332	-3488	25296	-814	9060	683	-32768	-3048	11296	-966	-38	477	-32768	10128	7928	1863	3692	2990	-32768	11640	13144	12397	-32768	32767	-14380	-14452	-21544	7648	-32768	32767	20388	-5820	-27800	28780	10851	12643	0	34	2
-29840	-3776	15708	-1454	10920	845	-32768	-12344	7744	-1692	-858	175	-32464	-13136	24840	445	3794	2600	-32768	552	-464	1360	-32768	32767	-10252	-25824	-32212	-8599	-32768	32767	23376	-4532	-20360	-17622	-1853	-2123	252	123	2
-32768	-4296	9504	-1311	9101	1078	-29128	-28456	13496	-2862	-626	1440	-22864	-32768	32767	-1286	2467	644	-32768	-31996	-18420	3249	-32768	32767	-12552	-23096	-32768	-12168	-32768	31667	10404	3140	-4460	-32768	-18019	-3636	71	204	2
-23524	-32768	592	2400	7316	2864	-3480	-31152	32767	1073	2525	2835	-19208	-23712	32767	2174	981	-1350	-32768	-29516	-32768	2860	-15745	32767	-25268	-20284	-32768	-32768	-27946	7654	-4540	11892	19256	-21943	-13855	5453	253	240	2
-32768	-14188	14572	7815	6997	1447	1968	-13032	15208	6336	5365	1441	-8152	-3864	32767	1798	-858	-266	-32768	-32768	-32768	-17202	-8515	-4311	8420	-28888	-32768	-17203	-21298	-4682	-4580	2628	32767	-9622	-3145	6935	253	205	2
-31532	32767	32767	2040	4524	-1264	-23904	13608	22032	4670	5813	984	1160	2640	25664	-211	-1108	217	-32768	-32768	-32768	-700	347	-22119	17204	-21240	-32768	-854	26203	-4264	1548	-12212	21196	27877	17824	3851	13	216	2
-32768	9032	32767	-4490	1565	813	-32768	12464	19920	-2194	3594	680	-12776	11016	16208	-1411	-2632	597	-32768	-9404	-27348	5056	16812	-18686	-776	-18580	-32768	14737	32767	-10141	3028	-32768	-32768	32767	32767	-7017	136	108	2
-32064	-3996	32767	-5663	-761	1950	-29416	4808	9016	-7064	2986	837	-20216	20632	18200	-373	-3436	647	22268	32767	32767	-23478	23725	-16348	-17080	-2072	31320	32767	31199	-10598	-1032	-8316	-32768	20312	25575	-10994	254	176	2
-29152	-20620	23776	-5442	-3112	2432	-23888	-4264	3688	-7969	1649	-144	-13112	10600	4504	-1512	-3106	-257	32767	32767	30224	9859	32767	-32768	-32768	32767	2424	-28224	32767	22522	-32768	32767	32767	32767	-18975	-5138	0	17	2
-32768	-23460	20984	-3903	-4542	2339	-31856	-16112	-8520	-5173	965	-113	-32768	-19952	-1624	-2500	-3167	-957	32767	-32768	32767	-32768	-12994	-32768	-32768	32767	-32768	-32768	32767	25124	-32768	-29248	-32768	-32768	25025	19195	136	0	2
-24196	-28372	21988	-2253	-4975	1345	-32768	-8464	-13952	-3403	121	-465	-32768	-25480	-15024	-178	-4089	-2209	6004	-21324	32767	-15318	3467	-4336	32767	-20272	-6028	-25842	30734	-20825	3936	-32768	-24380	-12140	5886	8898	253	237	2
-17736	-28848	19152	538	-5547	398	-20512	-14032	-23912	175	-1262	-604	-32768	-14416	-17024	3513	-5982	-2844	-13808	4996	9512	1123	10800	-2387	1144	18392	-32768	24819	32767	-3926	10428	-3892	-24356	26609	15531	-18937	106	15	2
-21996	-15192	16612	1345	-6555	-1816	-14448	-1560	-26480	4786	-2396	-1176	-32768	6928	-15864	5380	-6333	-4079	-14796	8500	8788	-231	6890	-1931	-29928	-8812	-26040	11122	29622	-9328	-32768	32767	-32768	32767	32767	-24449	199	19	2
-17112	-3496	15212	-418	-6929	-3715	-19400	-2376	-27096	4756	-2748	-1708	-32768	5624	-25560	1074	-5691	-2097	-15336	6648	12176	-2501	6447	-5427	-28276	-6916	-26084	-4957	7892	-16018	-32768	9364	-27760	-17504	30061	-2538	0	0	2
-26096	-9800	16908	-2047	-7248	-4244	-22408	9520	-28128	4426	-6478	-2330	-32768	11440	-30184	-1157	-5501	-1808	-16084	9768	24120	848	6842	-5628	-29752	-5288	-23652	-6533	7700	-7318	-32768	15720	-10332	-7872	32767	-12564	0	0	2
-32768	-7328	18364	-2639	-8190	-4419	-10816	10336	-23352	1008	-8008	-3151	-9632	13920	-26352	-1365	-2283	-1595	-17000	13348	27436	-5003	24240	-15020	-32768	-19436	-6188	1309	-2511	-3582	-32768	1920	6388	-20939	32767	-10760	0	236	2
-32768	-11632	17020	-2757	-8473	-4814	-12720	7064	-26208	-528	-8727	-3992	2808	13920	-22976	-2647	-143	-949	-6308	7504	28116	-2106	32767	-22012	-32768	-20792	8484	5650	-2085	470	-32768	-11716	16320	-32768	32767	-18213	253	216	2
-32768	-4244	12572	-1621	-7876	-6373	-10336	7888	-29728	-32	-8631	-4599	18128	4912	-20344	-3198	1174	-535	-22468	4552	24256	12966	32767	-16591	-32768	-10488	12256	11176	-2959	7525	-32768	-9308	22976	-29323	30739	-16166	201	236	2
-32768	6848	3752	-1207	-6732	-7411	-10296	6920	-32768	2622	-7355	-4233	19016	3736	-17072	961	1180	803	-32768	16636	15556	14985	32767	-15075	-32768	20872	30048	2740	-2758	1555	-32768	8076	32767	-11014	18342	-6879	254	133	2
-32768	25172	-18064	-1316	-5437	-6441	-18296	4152	-32768	4675	-5376	-2845	3976	-6768	-5104	3317	-791	314	-32568	6824	744	-2973	32767	-24393	-21324	29480	30520	-32553	8349	-23335	-11272	-2260	32767	-6157	6370	7988	233	35	2
-32768	26052	-32768	-264	-3890	-2114	-13296	15728	-32768	4835	-2472	-775	-4352	-12088	7208	3009	-1187	-674	-32768	14088	-16500	-32768	32767	-29340	-4472	6952	16824	-32768	29289	-22090	-3324	3624	32767	12964	-14909	-8440	16	94	2
-32768	28684	-32768	712	-1869	702	4904	30368	-32768	337	-401	216	-2400	-3240	14232	2199	-513	-1290	-32768	-23088	30344	-32768	32767	-13555	-32768	-25484	4360	-32768	32767	-24171	2772	-11856	14080	25487	-1833	-12497	253	107	2
-32768	22896	-32768	413	868	947	6016	15128	-32768	-2147	1696	355	3800	7368	2376	-784	901	-875	-32768	-20012	32767	21274	25062	-9694	-32768	-29896	8816	14521	32767	-17002	-30184	-9396	5248	12524	-20159	-8167	167	100	2
-32768	14708	-26948	618	2971	300	1872	12152	-32768	-1090	3320	1082	808	17592	6264	-4511	2434	1231	-32768	25868	30084	32767	7363	-19357	-32768	1224	7548	32767	32767	-17829	-16980	-21448	10456	-3492	-31384	-453	127	13	2
32767	-32768	12124	-568	8412	-847	-25656	-32768	32767	-12744	-1133	1578	-32768	-3328	32767	-2252	-1097	2111	-32768	32767	20592	32767	-14471	-32768	-28532	5872	2824	32767	32767	-7454	-17448	-13356	804	9791	-25630	-2521	11	24	2
-32768	-32768	-13904	9501	12360	2728	-11096	-32768	-32768	11269	6376	170	-32768	-32768	5992	2225	1327	-1000	-27464	32767	21108	32767	-27123	-29451	-32768	3120	-8016	30025	30393	-3542	-32768	19104	-352	30763	-20623	-872	253	148	2
-32768	-32768	-25832	567	2045	1599	-15352	32767	-3184	-441	11232	4820	-9688	32767	-32768	1205	631	-274	-10884	32767	15024	-389	-29400	-22374	-29228	5476	-11840	16508	12276	-161	-32768	13908	-10028	21284	-32768	5832	0	52	2
-14400	-24352	14300	139	823	-730	30448	32767	5840	-7274	3854	375	30928	30152	-19000	-4349	1087	1223	-2128	32767	12060	-25635	-32768	-6976	-8568	8928	-18484	-9828	-8193	4524	-32768	9288	-9012	-5761	-32768	18422	0	0	2
-12476	-3196	3516	609	720	335	22792	-16632	-27080	-4215	4387	557	-9392	-2000	-32568	-4519	2380	3293	-10060	14004	10024	-17680	-32768	22037	-3492	148	-19620	-27840	-29175	10778	-32768	-3628	-21184	-7805	-32768	23506	253	63	2
-12864	-7332	11004	427	751	370	-32376	-13984	-17736	-906	3057	366	-32768	-31384	-26184	-1316	3914	448	-6520	8760	9976	10834	-32768	32767	-7232	-4480	-22236	-22901	-32768	19237	-32768	-5428	-30804	-9291	-32768	20635	253	236	2
-15504	-4428	13740	55	819	835	-25336	7568	-24632	1432	1792	1149	-32768	8112	-24416	-409	3690	1797	-23268	12156	10632	22814	-32768	32767	-460	-6988	-22380	-9611	-32768	32122	-32768	-13620	-32768	-1272	-32768	16735	253	88	2
-11736	-6104	27524	265	1695	896	-31080	-7216	-15056	282	1341	496	-30304	-20184	-2072	-337	3878	2355	-31492	13740	14676	19770	-32768	32767	-5528	-6868	-19996	6615	-32768	32767	-11060	-8044	-32768	3577	-29485	19053	253	237	2
-9612	-1412	26384	175	3938	954	-32768	5784	-9248	-475	263	321	-32768	-2912	2088	1439	4204	2700	-32768	5568	15880	20872	-32768	32767	-10116	-9092	-14180	22403	-32768	32767	2096	-6356	-30212	5046	-10394	20366	0	237	2
-2040	-2688	25920	-499	6449	400	-32768	320	6104	-1257	-361	744	-32768	7992	7920	1609	4044	3185	-32768	3152	15332	22694	-32768	32767	-9276	-13772	-19988	19301	-32768	32767	4268	-7764	-29728	5369	-7747	19541	0	110	2
-4284	-7648	22028	-1247	10015	263	-32768	-5904	9272	-615	-1019	299	-32768	7304	4960	1100	4023	3152	-32768	2940	6268	12295	-32768	32767	-3288	-19848	-23048	13506	-32768	32767	30572	-6372	-24132	9765	5841	4505	253	50	2
-32768	-1676	10536	-2540	10508	532	-32768	-20360	10112	-2868	-1706	283	-32000	-21864	32767	2172	4150	1951	-32768	-13344	-8988	-187	-32768	32767	-1916	-24004	-32768	5860	-32768	32767	20072	-1104	-12536	-19173	-7879	-5364	0	47	2
-32768	-7212	6968	-1579	7548	1249	-19440	-32768	17328	-1621	-158	2175	-20120	-32768	32767	-843	1798	-557	-32768	-32768	-31504	10239	-32768	32767	-3352	-24068	-32768	5598	-32768	32767	7372	9792	1456	-25021	-16034	-2956	169	123	2
11948	-32768	-12776	5276	8435	2951	16328	-26680	26856	4018	3741	2541	-14904	-1016	32767	2529	121	-1014	-32768	-32768	-32768	12703	-32768	32767	-14988	-28668	-32768	-23058	-17477	3570	-9564	6860	25232	-15647	-8533	4379	251	237	2
-30044	1508	25336	7040	6879	371	-7000	7424	21472	6398	6734	668	2040	-3576	21904	-243	-493	58	-32768	-32768	-32768	-5612	-9810	-11641	11476	-31024	-32768	-6972	-9739	-5478	-7116	-272	22736	1865	-677	3915	239	236	2
-32768	32767	32767	-2099	5765	-1479	-32768	24288	24720	2014	5552	733	-1512	2816	15936	-1591	-1235	397	-32768	-31320	-32768	-505	750	-20374	12876	-22608	-32768	6112	28130	-7084	3356	-18248	3004	32767	26431	-1770	93	92	2
-32768	-2936	32767	-5998	1740	1264	-29512	6272	11632	-5406	2481	329	-18464	2720	15952	-1578	-2825	557	-31764	-9616	-23000	2984	15671	-12830	2356	-16856	-27012	13445	32767	-12562	-2956	-27264	-32768	32767	32767	-8239	84	120	2
-32768	-10396	32767	-5165	-987	2386	-27640	-2280	11384	-8051	2738	779	-14064	13568	16952	-250	-3425	441	17320	32767	32767	-11243	24530	-9060	-10764	888	4124	24435	26553	-12446	-2652	-7272	-27180	5016	23817	-11458	253	94	2
-31816	-17092	22896	-4486	-3322	2131	-23192	-8384	5056	-6720	1479	272	-11248	5720	4520	-1105	-3311	-245	-2768	32767	17556	32767	32767	-32768	-32768	32767	18468	-12046	32767	19767	-32768	32767	32767	17923	-32768	-11893	36	31	2
-32768	-21924	18620	-2959	-5448	1675	-29880	-13504	-12560	-2811	1241	565	-32768	-16528	-1296	-1695	-3093	-1419	27052	-32768	32767	-8441	24023	-29410	-32768	-32768	-10664	-26758	32767	-32768	-32768	512	-32768	-30803	19148	24681	133	0	2
-18136	-25412	21120	-1425	-6047	1095	-32768	-4176	-4088	-2814	475	253	-32768	-21880	-13168	696	-3850	-2768	-32768	24472	-9856	-10504	31336	18965	32767	15112	-22744	9999	32767	-2058	-852	-29968	-21504	-3997	13124	8644	253	205	2
-14556	-26280	18448	863	-5580	1105	-19176	-15296	-22312	546	-1278	-359	-32768	-17224	-16080	3877	-5445	-2879	-10840	-2504	14316	4947	7976	-5624	-8652	7392	-32768	11615	32767	-12389	8828	6420	-22948	32767	13772	-20833	50	197	2
-20448	-16672	15076	1439	-6603	-866	-14808	3008	-26136	3878	-2103	-882	-32768	11008	-8600	5066	-6438	-3513	-16352	7020	9492	-1613	7725	-1030	-32768	-14240	-29876	4059	24818	-15431	-32768	32767	-28360	18100	30473	-23357	253	93	2
-13264	-6544	12380	-144	-6968	-2824	-20808	5472	-24312	5557	-3952	-1985	-32768	5872	-25912	1161	-5546	-1585	-15524	7316	11468	-3356	5870	-5488	-18048	-29548	-23800	6741	6919	-13991	-32768	4068	-21728	-29880	26901	-2609	0	4	2
-20764	-17068	13372	-1498	-6867	-3876	-32768	13136	-28592	4966	-6490	-1682	-32768	10664	-27432	-1416	-5665	-1646	-12016	17700	25364	-5996	13267	-9493	-29932	-7232	-16548	-3221	10732	-10984	-32768	6960	-6948	-14572	27549	-12172	51	0	2
-29224	-9752	15216	-2086	-7857	-4114	-2504	1608	-23160	129	-7657	-2804	-12816	13544	-25552	-1002	-2922	-1711	-15848	6292	23000	-3985	22803	-13471	-32768	-23224	-13632	417	-465	-6514	-32768	-5800	2184	-12565	32767	-10023	0	235	2
-32768	-11936	14100	-2624	-8240	-4353	-12872	8720	-27448	-502	-8405	-3630	1080	12536	-22152	-2397	-404	-707	-4972	7860	26680	-1711	32767	-15374	-32768	-20240	2416	5109	-1728	-3049	-32768	-7068	12008	-21217	32767	-17619	191	236	2
-32768	-6552	7084	-1487	-7654	-5808	-7768	5024	-25184	-256	-8247	-4316	15600	3600	-16920	-2728	831	-517	-13796	6888	21036	7800	32767	-15181	-32768	-9476	5840	4655	-3425	1991	-32768	-4652	14668	-20290	31131	-15507	0	163	2
-32768	4320	-1840	-1069	-6394	-6614	-6392	6480	-31320	2052	-7055	-4132	18416	4736	-14624	344	1374	642	-24452	11488	22116	9283	32767	-21638	-32768	8980	16604	4160	-7089	3432	-30980	13712	27636	-7239	30843	-8522	253	198	2
-32768	26996	-14532	-1415	-5143	-6434	-7744	4392	-32768	4044	-5157	-3177	6680	-2392	-1824	3079	-363	569	-32768	12808	9220	-2653	32767	-24921	-32236	21024	18736	-26945	971	-10209	-19808	4964	32767	-10076	16820	-2433	253	123	2
-32768	25412	-32768	-1706	-3631	-3261	-17512	10336	-32768	4213	-2652	-1171	-96	-12360	7904	2615	-1123	-343	-27816	22668	-1304	-26663	32767	-28143	-10444	14016	23088	-32768	8637	-23599	-10100	-3176	32767	-31595	-10545	4237	253	79	2
-32768	29012	-32768	229	-2063	1033	440	28112	-32768	421	-463	0	-1880	-8080	13984	1780	-517	-1063	-32768	7296	11004	-32768	32767	-19762	-4604	-6744	-3524	-32768	29693	-19472	6208	-8480	32767	9391	-3734	-10306	0	104	2
-32768	23524	-32768	421	64	1603	5408	19712	-32768	-3042	1298	473	3432	4088	3960	-1366	1044	-1036	-32768	-22036	32767	-20530	31654	-8112	-31704	-30324	4664	-24823	32767	-21416	-8012	-16268	1092	18931	-8676	-9876	0	178	2
-32768	15860	-29320	627	2368	1080	1104	9856	-32768	-2241	3031	1167	3080	13176	-2080	-4683	2528	445	-32768	-15408	32767	32767	10477	-5826	-32768	-22596	5480	30242	32767	-12805	-24532	-15556	10460	16473	-17703	-7299	253	48	2
9680	7776	13200	-304	3996	750	-10232	-13472	18520	-5445	2422	1982	-13232	11096	18488	-2922	1204	1921	-32768	29508	24072	32767	-9571	-20524	-31816	4128	6196	32767	32767	-12751	-11544	-20852	4636	2083	-27525	-1762	176	0	2
-32768	-32768	-23248	2844	8320	5758	-32768	-27744	-32768	4731	6680	-2191	-32768	-23600	4808	1291	1680	-806	-32732	32080	19076	32767	-23690	-32211	-32768	7872	-1228	32767	32767	-2971	-28780	-1540	6644	21114	-20226	-5165	253	109	2
-27808	32767	7952	-460	3229	3561	-20776	32767	-27800	792	9025	2328	-32768	15768	-32768	2559	781	-158	-24376	32767	14904	30643	-32149	-26205	-32768	-548	-4984	30141	25287	833	-32768	16548	-828	23142	-22993	-3721	249	213	2
-11360	32396	24984	425	1529	790	-2232	9368	-10360	-2974	4677	-108	9176	32767	-24312	-3549	1852	980	-10784	32767	12148	1537	-32768	-19451	-25624	4060	-13000	14615	9956	934	-32768	15044	-4664	9981	-32768	6167	0	0	2
-18092	-92	5720	288	1117	107	12088	-5112	-23584	-4741	3899	500	-13688	-7896	-29224	-5077	2305	2204	-9200	26860	10776	-12440	-32768	-3948	-14440	4700	-17132	-3183	-5463	5311	-32768	2004	-8344	-1722	-32768	14748	253	131	2
-14600	256	11332	300	782	471	-8880	-10048	-27048	-1102	2712	718	-32768	-31112	-24456	-1266	2835	1187	-9276	16364	9732	-6260	-32768	18136	-11252	2028	-20136	-20371	-25742	12669	-32768	1964	-21608	42	-32768	18556	253	0	2
-15524	-6372	10180	64	788	538	-32768	-15344	-26560	63	3023	648	-32768	4192	-17552	465	2523	1915	-12748	12080	7724	10621	-32768	32767	-6320	-7056	-21948	-17280	-32768	21923	-32768	-1028	-26112	-3772	-32768	19555	254	190	2
-15512	-3652	16036	130	1039	999	-22376	-3152	-25840	19	2106	806	-32768	-8768	-14136	-432	3213	1988	-19320	15328	7556	20256	-32768	32767	-3556	-4640	-19368	-6017	-32768	32455	-32768	-7244	-29852	-1034	-32768	17223	0	157	2
-13664	-1688	20948	124	2355	1033	-32768	4184	-20208	-35	983	682	-32768	-13432	-2560	301	4200	2623	-25896	12880	11708	22262	-32768	32767	-5188	-6956	-17760	7445	-32768	32767	-15352	-8032	-29368	2788	-26835	15940	93	169	2
-14360	-2948	21552	146	2494	964	-32768	2208	-12880	-975	183	763	-32768	-3176	-2248	1294	3958	2702	-31588	8440	14700	27414	-32768	32767	-9920	-7836	-14952	20335	-32768	32767	-1996	-9484	-27852	6316	-10008	17516	152	238	2
-4916	-5520	22928	-461	6251	643	-32768	-6008	144	-423	-171	957	-32768	56	5968	1362	4088	2915	-32768	16460	13880	25028	-32768	32767	-9540	-8748	-18220	14878	-32768	32767	9556	-13220	-25724	17834	-996	12261	0	193	2
172	-9668	19312	-1113	9457	883	-32768	-4432	5704	408	-661	343	-32768	3304	2008	1147	4160	3200	-32768	5352	7388	10815	-32768	32767	-10248	-16104	-19648	4638	-32768	32767	25044	-2992	-21976	23843	6325	6381	236	98	2
-32768	-5388	14644	-1812	10676	1631	-32768	-12448	5432	-1010	-1515	329	-31264	-10240	14184	2081	4624	2788	-32768	-20116	-4656	4765	-32768	32767	-7456	-29448	-32768	-5787	-32768	32767	18048	1732	-12152	-17483	-9155	-1259	0	95	2
-32768	3168	8780	-1236	8103	1269	-32768	-14376	10256	-1524	-1560	411	-22728	-32768	32767	2655	2337	546	-32768	-32768	-26624	12913	-23599	32767	-11136	-22852	-32768	-10998	-32768	26241	7160	12108	780	-21351	-14219	3117	83	53	2
-17276	-32768	-12688	5461	7385	2781	-144	-24080	26240	2284	2687	3228	-21128	-12504	32767	2818	83	-1526	-32768	-32768	-32768	1848	-16719	20312	-12328	-22020	-32768	-13870	-32768	22687	-3152	11668	21260	-4890	-4714	6017	253	238	2
-32768	9260	12380	10439	6085	342	616	-5216	10080	6595	6626	1651	-3496	-936	32767	212	-1498	349	-32768	-32768	-32768	-6596	-10644	-17233	-8408	-32768	-32768	-23973	-19450	3833	-2472	576	14040	6595	5353	6054	202	231	2
-32768	32767	32767	978	5087	-969	-32768	21952	19512	4930	6750	1107	-960	14336	10392	-1636	-1112	746	-32768	-15168	-21632	-2518	2900	-22562	8396	-21096	-32768	7858	27893	-7455	4004	-26440	-4744	32767	32767	-2539	1	62	2
-32768	7764	32767	-6408	1878	785	-32768	17192	5808	-2069	4365	596	-25088	22480	19776	-582	-3176	992	-32768	32767	8632	3556	32767	-17863	-19204	15484	1788	32767	32767	-13510	-15948	-19700	28156	10821	4694	-8487	167	35	2
-32768	-16864	32767	-7601	-869	3075	-32768	6392	-608	-9929	3313	978	-21088	20328	7232	-962	-3021	698	-32768	-32768	-12728	-32768	32767	-32768	-30004	-14240	-32768	-32768	32767	19447	-32768	14128	-11312	32767	28036	-14298	216	93	2
-32768	-27512	29080	-6305	-3008	3788	-32768	-15880	-2720	-10065	1109	-339	-32768	-4024	-3312	-2110	-3379	-121	19648	20204	16912	-572	14740	-26477	-16984	-23816	-28748	22422	32767	-32768	-7856	-25576	-20968	-2670	13130	-1069	253	0	2
-22984	-32768	21016	-3744	-4220	3311	-32768	-17616	-4704	-7073	-99	135	-32768	-26480	-3952	-513	-4952	-1020	-24044	-3992	12160	-4657	14680	-3140	11884	-21892	-24876	-6070	24340	-8938	5920	-11244	-27332	18047	13863	1750	98	238	2
-12964	-32768	17868	-786	-4240	2715	-17848	-14744	-13768	-2410	-97	65	-32768	-20992	-10920	2612	-5139	-1810	-13320	6760	5632	-3109	12952	3155	-1876	7612	-30320	-424	32767	-19130	-11756	8748	-22208	22177	20258	-12280	253	55	2
-11972	-23428	16720	1094	-4755	749	-12584	-9488	-22408	1669	-1181	-521	-32768	-14944	-9640	2836	-5338	-2239	-15876	1172	9328	-2595	7676	-4187	-19412	-13524	-28180	3360	29880	-11861	-32768	16456	-30016	17436	21937	-18111	253	0	2
-14428	-14760	12976	946	-6480	-2041	-13336	-7448	-26976	4978	-3384	-957	-32768	-1024	-30576	4	-4160	579	-16476	8148	8212	-2084	7018	-4185	-24816	-2896	-26224	-962	20934	-17490	-31916	6496	-18236	2409	23654	-11663	99	123	2
-17764	-9544	10100	-742	-7547	-3905	-10752	2984	-24592	4919	-4885	-2210	-32768	-1224	-30296	-152	-5893	-2090	-17048	5452	9588	4134	5740	-7971	-16472	-7840	-25824	3495	11831	-11241	-30576	13820	-13864	-3447	27958	-16823	0	51	2
-22192	-12352	11924	-1893	-7993	-4899	-10440	4264	-23904	4290	-6853	-2848	-26568	3896	-26816	-156	-4266	-1653	-16464	9896	21124	-3570	15730	-10243	-32768	-13620	-18184	6570	6524	-5838	-32768	12108	-6528	-9025	31549	-17388	0	122	2
-32640	-10284	15464	-2551	-8300	-5208	-10200	7600	-22896	1900	-8140	-3184	-10952	8600	-27280	-362	-2150	-1215	-11304	8056	22536	-4752	25748	-13633	-32768	-13660	-8284	2689	-2553	-6167	-32768	324	2884	-24589	32767	-18216	123	147	2
-32768	-18156	13076	-2924	-9004	-5533	-10792	3704	-24456	-266	-8818	-3820	2976	14000	-24136	-1515	-243	-599	-7996	3892	21692	706	32767	-14726	-32768	-14396	2716	-2523	-5421	-1457	-32768	-8296	12264	-30671	31171	-17871	253	131	2
-32768	-12460	5728	-1454	-8396	-6139	-8816	4368	-26312	45	-8412	-4517	13376	12256	-17736	-2360	464	-455	-25232	11036	19488	8112	32767	-17748	-32768	-8716	5640	644	-6693	3521	-32768	-6564	13000	-21869	32767	-16574	91	238	2
-32768	-1720	-3876	-332	-6701	-6805	-10352	9712	-30472	1793	-7071	-4600	18952	7336	-13832	1151	740	544	-32768	17436	10668	13104	32767	-15561	-32768	14176	14296	921	-7361	-446	-31988	12640	32767	-4739	27522	-8554	197	230	2
-32768	26888	-15128	-1886	-4722	-7001	-15000	3920	-32768	2908	-5500	-3988	3328	-1664	2520	2909	-1550	414	-32768	11180	5072	-3999	32767	-25537	-32768	21652	26960	-20661	-226	-16478	-11452	1140	32767	-19423	14765	1815	254	101	2
-32768	25816	-32768	-2874	-3148	-4468	-17608	9496	-32768	3823	-2606	-1894	-2376	-10992	12784	1550	-1880	-339	-5296	23312	-16412	-32768	32767	-29516	-604	14232	23960	-32768	22320	-20864	-5872	-1956	32767	-10367	-9439	-5430	206	107	2
-32768	30684	-32768	48	-1885	459	-1104	31088	-32768	483	-356	-67	-2144	-12640	17248	-157	-615	-1014	-32768	-23404	23004	-32768	32767	-9334	-22328	-12748	-3656	-32768	32767	-20362	5436	-6700	32767	15389	-675	-10220	0	116	2
-32768	26736	-32768	564	-126	2306	4672	21688	-32768	-3634	1617	678	6488	384	480	-2772	1783	-1483	-32768	-12028	31368	11234	28084	1129	-32768	-32768	6232	-4180	32767	-22005	-18176	-7932	808	18933	-14540	-11377	253	135	2
-32768	17708	-28884	471	2238	1552	2400	11880	-28672	-1926	3211	1411	4488	19760	-9120	-5096	3825	283	-32768	12060	31264	32767	9249	-8564	-32768	-4580	8868	32767	32767	-17365	-22360	-14976	9356	-3212	-22660	-2161	45	43	2
12724	-22096	24092	-688	8223	-150	-13528	-15392	32767	-8228	678	1969	-23592	5776	30304	-1904	-565	1245	-32768	31884	26700	32767	-6012	-27790	-32080	5268	8112	32767	32767	-12486	-11896	-22700	-156	-2139	-23177	-1337	82	63	2
-32768	-32768	-32768	5213	7864	2167	-10912	-32768	-32768	8095	6752	-315	-25776	-19448	9424	924	1696	396	-32768	31820	22640	32767	-20833	-29187	-30376	-88	-3896	28842	32134	-7328	-32768	5820	6132	20885	-19904	-2395	253	130	2
-32768	-32768	-4488	2265	2001	4141	-3848	32767	-32768	12935	9863	158	-31528	22504	-32768	-356	1139	21	-21076	32767	17920	22965	-31070	-21386	-32768	-2688	-8300	25337	20315	-3644	-32768	18536	2600	22017	-32768	-1440	253	61	2
-9868	-3724	18072	-213	718	-1170	-16464	32767	-15056	-8178	3498	331	8896	16144	-15152	-4477	1505	1014	-7308	32767	14776	-945	-32768	-16958	-32768	-584	-8992	24741	17806	-2896	-32768	13720	-4924	6994	-32768	9596	0	0	2
-10012	-25564	2768	313	1095	45	25400	-32768	-25816	-7608	3242	1243	-23464	-14064	-18032	-3830	2944	2356	-8372	24232	12300	-12778	-32768	-1862	-11560	3004	-19764	-6830	-13277	7071	-32768	-5656	-13548	-7117	-32768	18138	253	188	2
-16164	2824	10640	386	856	648	-20016	680	-23616	110	3213	-69	-32768	-26632	-28664	-656	3141	2136	-8436	11740	10236	-3238	-32768	19500	-6092	-6424	-18932	-15159	-32768	17969	-32768	-2004	-24740	-4072	-32768	18524	137	114	2
-14456	-8400	12888	-3	895	662	-30064	-6448	-27360	2166	2514	1569	-32768	4840	-16224	1028	2610	2030	-13660	9112	9668	18078	-32768	32767	-3212	-11868	-22128	-4786	-32768	28827	-32768	-6276	-32188	-2688	-32768	17031	253	58	2
-13156	-3472	23384	191	2091	1080	-32768	-480	-17936	1855	1955	935	-32768	-18760	-6928	368	3872	2407	-23748	12808	10104	28751	-32768	32767	-1344	-8312	-17868	11038	-32768	32767	-27340	-11712	-32768	4697	-32705	15723	0	181	2
-10416	-3184	19720	168	3650	1147	-32768	4536	-16528	-58	790	1285	-32768	-4992	-4696	2449	3936	2690	-31408	14936	13284	27429	-32768	32767	-6340	-5364	-14180	20994	-32768	32767	-3232	-10280	-31136	6486	-19721	17716	81	238	2
-5708	-1988	21160	-298	5428	864	-32768	-1272	-5728	-1008	-23	1152	-32768	2560	408	2222	4206	2783	-32768	15072	13252	21984	-32768	32767	-10376	-5652	-10488	15507	-32768	32767	9180	-15404	-26824	11898	-9232	14995	0	199	2
-88	-10744	21176	-767	8573	623	-32768	-5712	5296	-174	-601	931	-32768	4192	4136	1885	4127	3057	-32768	6560	11388	7427	-32768	32767	-13092	-11500	-20704	-3329	-32768	32767	26016	-1372	-24896	21184	3470	8507	117	43	2
-24316	-6656	14596	-1384	10303	1541	-32768	-6112	4504	-614	-1289	422	-32768	-1824	1824	1834	4659	3064	-32768	-8660	1004	-1587	-32768	32767	-8160	-25480	-28748	-19148	-32768	32767	25188	28	-18548	1347	1239	1099	148	197	2
-32768	-10984	-1792	-1432	9246	1136	-32768	-24720	17400	-2250	-1038	1311	-32728	-30864	32767	2197	3303	1238	-32768	-30252	-20052	-73	-32087	32767	-8852	-25320	-32768	-18232	-32768	29863	11120	2668	-2880	-21848	-15529	-1822	0	125	2
-32556	-29880	1348	1925	7528	2566	-14288	-32768	32767	2373	1300	3067	-18760	-13472	32767	2789	985	-1058	-32768	-32768	-32768	2596	-27821	32343	-12052	-21844	-32768	-27826	-32768	12527	1820	7720	8588	-17935	-12797	2962	233	161	2
-32768	-26336	-13284	11056	8835	1135	12280	-6496	15232	8605	5956	2216	-13056	8208	32767	4514	-373	-882	-32768	-32768	-32768	1292	-21767	-8922	1128	-32768	-32768	-10128	-14033	-3505	-4428	2212	24224	-7420	1696	9617	162	217	2
-32768	32767	32767	6043	5969	-1608	-17056	20392	9320	7479	7236	634	800	4240	30240	-1298	-1071	452	-32768	-30804	-32768	3566	-9642	-21149	20060	-24688	-32768	19797	18033	-2256	6248	-18368	6088	25623	21338	-3162	0	119	2
-32768	22824	32767	-6124	2390	-441	-32768	29312	7624	-1527	5030	700	-17208	21432	15416	-2294	-2469	1131	-32768	-13056	-32768	4467	28107	-15131	2696	-13560	-32768	29619	32767	-5259	-8432	-30684	-18828	30602	26466	-8959	95	161	2
-32768	-6880	32767	-7591	-884	2249	-32768	10120	2368	-9390	3267	773	-26400	20464	17872	-2039	-3411	1323	-32768	32767	-32768	-13610	32767	-32768	-32768	32767	-32768	-32768	32767	26232	-32768	24904	18312	32767	19533	-12845	186	41	2
-32768	-25156	27296	-7230	-3470	3431	-32768	-14080	-7128	-10637	1490	-157	-32768	4552	-9232	-3386	-2593	-25	32767	-32768	32767	6689	14032	-32692	-26324	-32768	-12920	-1044	32767	-32768	-32768	17528	-14864	32767	32767	-16629	224	125	2
-30956	-32768	16804	-4843	-4970	3571	-32768	-20688	-4112	-7885	-239	124	-32768	-23256	-9040	-2137	-4701	-1354	-25808	-25084	15500	-6893	15627	-8773	32767	-32768	-20084	-1314	15643	-6051	6520	-18836	-24840	11374	16358	2555	194	237	2
-16780	-32768	15432	-1831	-5314	3163	-23912	-16912	-15880	-3984	-22	-57	-32768	-24296	-11184	1732	-5166	-2215	-14136	3136	6732	1664	12372	3693	-4436	12384	-31784	18304	32767	-11571	-11076	8224	-22412	22055	21706	-15201	253	47	2
-12336	-29384	15400	768	-5156	1643	-13000	-11016	-22176	647	-841	-703	-32768	-14152	-12192	3794	-5218	-2886	-14760	1260	9308	22	6391	-2039	-28152	-5060	-24752	8778	32227	-8352	-32768	21752	-32768	17122	24136	-20458	253	0	2
-16180	-16332	13500	1072	-6356	-1500	-13120	352	-25816	4649	-2270	-1374	-32768	5256	-26920	3586	-5211	-3274	-15888	6916	8472	-1901	7013	-3739	-19324	-3528	-26580	-5042	18588	-18684	-32768	3880	-19292	2182	21944	-10269	0	0	2
-14728	-8952	11104	-499	-7185	-4088	-16368	5360	-23096	5458	-4398	-2374	-32768	144	-30352	-56	-4990	-2239	-15784	7936	10728	-800	5494	-6676	-16600	-9136	-26600	1335	10626	-9626	-29804	16004	-17516	3181	27274	-15503	0	236	2
-22568	-9056	12628	-1903	-7313	-5276	-12880	7200	-23640	4567	-6351	-2942	-32584	8240	-30128	-770	-4767	-2195	-15920	5512	17316	-885	13088	-11189	-32768	-15644	-20368	9187	2932	-4246	-32768	15392	-8116	-6342	32767	-17131	79	129	2
-32768	-8548	15740	-2353	-7928	-5352	-10896	7336	-23448	2489	-7717	-3468	-11208	10136	-25624	-789	-2504	-1424	-13708	9656	23696	-3124	25019	-12091	-32768	-17348	-8428	7485	-3377	-4408	-32768	-144	4836	-22375	32767	-14793	128	209	2
-32768	-14200	12556	-2322	-8467	-5421	-11616	5984	-24800	631	-8374	-3852	2576	14440	-23016	-1067	-332	-974	-4852	7452	23988	1282	32767	-17495	-32768	-14824	6028	2209	-4876	35	-32768	-10748	13840	-32768	32767	-19948	152	140	2
-32768	-8504	6540	-499	-8007	-6446	-10032	6496	-28480	1327	-8186	-4094	19696	6800	-22392	-1504	1117	-643	-22384	13496	18452	10746	32767	-18933	-32768	-8260	6456	3332	-6486	7185	-32768	-9064	16000	-26053	30794	-16246	31	240	2
-32768	3928	-2384	43	-6818	-7386	-8264	11192	-32728	2545	-7308	-3745	19160	6248	-17240	2446	803	450	-32768	17176	16832	15486	32767	-19866	-32768	19620	17564	-341	-6841	1250	-32092	8312	32767	-6414	25829	-6281	179	200	2
-32768	26548	-17968	-1054	-5461	-6435	-11728	2944	-32768	2833	-5850	-3160	5760	416	-640	2990	-1445	290	-32768	6636	6680	525	32767	-25089	-30172	18912	19260	-26046	-184	-15129	-11836	2288	32767	-8628	11996	842	253	131	2
-32768	26556	-32768	-1733	-4349	-2828	-13736	8416	-32768	4018	-3006	-1684	-56	-6224	10008	1981	-1483	-138	-5144	32767	-12368	-28032	32767	-28608	4568	14208	21996	-32768	21690	-21800	-9168	3460	32767	-4363	-10376	-2646	253	127	2
-32768	27384	-32768	-89	-2547	681	-2328	28080	-32768	1249	-746	-58	-1288	-6440	19632	948	-726	-887	-32768	-5820	17620	-32768	32767	-16405	-21504	-10704	-2416	-32768	32767	-19966	4552	-4632	32767	20171	-462	-8486	254	100	2
-32768	25168	-32768	143	-78	1816	4968	20880	-32768	-3568	1226	213	2688	3320	6408	-2092	957	-858	-32768	-14524	32244	981	30346	-6560	-32768	-31352	8084	-8952	32767	-21703	-11240	-10456	-3132	20951	-10324	-10688	242	103	2
-32768	15196	-31124	-33	2092	1184	1824	7944	-32768	-2565	3062	887	1288	16080	-256	-5331	2827	208	-32768	4544	31944	32767	13646	-9907	-32768	-9900	6728	32767	32767	-16060	-22520	-11520	10144	2020	-22080	-2856	145	72	2
-32768	32767	13468	-1291	3788	5149	-8576	6912	824	-2485	2803	1264	-3248	24216	-20512	-4135	3757	2036	-31076	32100	27244	32767	-3664	-26380	-31692	7004	10300	32767	32767	-13027	-5972	-24292	4936	-2107	-25582	-125	7	44	2
30460	-32768	17260	-203	10128	4402	-32768	-32768	14952	-1273	2777	-1664	-32768	-32408	32767	-1005	-1401	-759	-32768	31052	21956	32767	-17467	-30228	-28740	4436	-576	30186	32767	-5752	-26956	4268	6108	20568	-20970	-3285	253	172	2
-32768	32767	32767	2140	-193	9998	-23016	32767	-32768	9778	8396	-625	-27216	-13376	-32768	735	1668	-821	-22308	32767	19308	27597	-26868	-20735	-28920	3860	-1700	28717	32627	-5405	-32768	23684	5264	28147	-25778	-2450	253	167	2
-17228	32767	21432	15	1139	1967	-32768	7064	-23768	-5904	2216	1028	-904	32767	-32768	-1052	3382	237	-8548	32767	15676	-881	-29358	-15281	-26992	6616	-10436	14973	6048	-588	-32768	18492	-6900	10022	-32768	8677	1	0	2
-14312	-4188	10464	151	1161	442	23624	-1440	-30544	-5031	2786	356	6624	9192	-20704	-4923	2392	2362	-7940	25540	14900	-15038	-32768	-1248	-13724	8348	-17436	-9071	-9818	4082	-32768	6000	-10716	-12263	-32768	19535	0	238	2
-12348	-3664	12976	614	775	452	1528	-14088	-32488	-1747	3570	719	-26472	-15536	-28840	-1915	2337	2956	-9076	14128	10100	-8416	-32768	21453	-8844	-2888	-18836	-22268	-30325	10666	-32768	-5260	-20180	-12278	-32768	19168	254	67	2
-14972	-508	11184	551	873	549	-32768	-18336	-32768	446	2952	600	-32768	-5680	-21512	317	2657	1411	-10588	9464	9984	9052	-32768	32767	-4744	-11352	-20776	-10785	-32768	22871	-32768	-6068	-26676	-9820	-32768	15820	253	234	2
-14592	-4560	16416	-59	878	777	-28824	-4464	-27656	72	1655	1041	-32768	-5080	-17864	92	3499	1603	-20696	10752	11240	21014	-32768	32767	-1360	-10348	-17992	5914	-32768	32767	-30960	-12788	-31428	633	-32768	14704	0	138	2
-13776	-4372	21448	33	2493	922	-32768	104	-14320	-161	915	640	-32768	-15288	-1568	565	4047	2405	-28920	14360	14056	21931	-32768	32767	-5572	-6412	-14600	19500	-32768	32767	-11308	-9728	-29492	6647	-22846	16899	0	238	2
-9372	-732	24208	67	4452	897	-32768	5288	-4728	-1035	260	734	-32768	1384	3032	1783	3918	2525	-32768	12268	15980	21791	-32768	32767	-10628	-6040	-14084	22521	-32768	32767	632	-10556	-28644	8368	-9027	17752	153	238	2
-3328	-4524	23244	-462	6834	350	-32768	-4016	6960	-385	176	871	-32768	8864	9496	1521	3647	2695	-32768	15640	12024	16300	-32768	32767	-13708	-9652	-19284	6123	-32768	32767	13368	-9112	-27524	20915	453	11115	0	125	2
-4300	-6700	17352	-1221	10000	461	-32768	-4472	8432	128	-256	384	-31216	3728	9272	1021	3772	2804	-32768	14132	9876	13991	-32768	32767	-10724	-18972	-23704	-9235	-32768	32767	24384	-736	-21172	13103	3111	8186	145	120	2
-32768	-1492	6712	-1600	10515	935	-32768	-17712	10840	-2270	-817	682	-26784	-28184	32767	923	3405	1879	-32768	-26420	-18240	-2959	-32768	32767	-5976	-30904	-32768	-16533	-32768	32767	13104	1832	-9036	-32768	-14957	-2198	0	179	2
-32768	-4448	11776	473	7233	1927	-18032	-32768	20016	-1232	1074	2461	-15240	-32768	32767	764	1261	-489	-32768	-32768	-32768	6523	-21628	32767	-7884	-21284	-32768	-24556	-32768	17724	6196	8916	5388	-28726	-18601	1652	200	21	2
-3244	-32768	-5384	6258	8582	2807	-5320	-20344	28336	3651	4285	3167	-19864	-10352	32767	2351	-274	-1302	-32768	-32768	-32768	551	-13937	8960	-3264	-32768	-32768	-25813	-17253	1060	3040	5244	21736	-9945	956	4188	253	239	2
-32768	18204	28116	6289	6798	313	-11104	3144	3816	5629	6860	1887	4048	-2336	32767	-105	-1040	628	-32768	-32768	-32768	-2694	-12174	-17889	20496	-32768	-32768	5513	5735	-8219	6528	-7536	9604	21346	14484	-1465	60	238	2
-32768	28240	32767	-894	4484	507	-32768	18440	12064	1185	6024	1463	-9712	17320	4648	232	-1541	401	-32768	-32768	-32768	7759	23779	-32768	-128	-18768	-9404	22900	32767	-9289	-2424	-32768	-20484	31908	32767	-2775	37	0	2
-32768	5724	32767	-5763	1405	2167	-32768	7176	5928	-4673	3829	373	-25112	22920	15872	-254	-2872	703	32767	32767	32767	10167	32767	-15957	-32768	32767	32767	32767	24662	-14208	-32768	15668	32767	16102	-32768	-162	142	102	2
-32768	-19624	32332	-7625	-969	3689	-31648	-3776	-896	-8204	2782	509	-27408	15496	-2320	-1017	-2888	103	-32768	-21024	31792	-32768	32767	-32768	-5588	-32768	-32768	-21804	32767	-11799	-29348	22504	-32768	7275	17796	4598	215	39	2
-32768	-32120	26348	-6011	-2940	3485	-32768	-15032	-2832	-6688	1275	-313	-32768	-16520	-4520	-2141	-4226	-550	-32768	32312	-30660	1269	10614	4906	3236	13680	-32768	-29077	32767	-32768	-672	-32768	-32768	6619	21367	-15178	254	200	2
-19716	-32768	20108	-2464	-4165	2353	-32768	-15376	-3816	-6259	1105	-331	-32768	-21048	-4216	356	-5068	-1230	-10420	17620	9380	47	9514	-1419	6848	-15448	3520	12646	32767	-3217	11244	6224	-22328	31433	14746	-4453	98	65	2
-9332	-30260	17328	919	-4000	1371	-17360	-7504	-16352	-1997	-461	-438	-32768	-17072	-8800	1902	-4923	-2375	-13716	11616	8688	2319	9546	21	-19108	6264	-16628	10155	32767	-11439	-24188	21240	-17428	15596	20987	-16573	253	1	2
-12604	-13228	15412	1450	-5209	-1167	-9640	-4736	-20536	1745	-1978	-961	-32768	464	-18232	1750	-4594	-2642	-15380	5028	10304	-618	8632	-2708	-29808	-2916	-22752	-292	22189	-14305	-32768	10692	-22048	3312	21037	-13586	253	0	2
-14396	-6992	13796	-367	-6847	-3637	-10728	-48	-23960	4395	-4074	-1578	-32768	-1904	-23080	1338	-4590	-2246	-15916	9312	9420	-2294	6707	-5074	-18444	-10804	-21920	-7143	13128	-16574	-32768	5728	-19552	-643	23435	-7114	0	163	2
-21200	-7920	11948	-1960	-7835	-4952	-8304	7760	-22720	4048	-5600	-3112	-32768	6080	-29072	-284	-6195	-2190	-13556	14100	23900	-3608	10401	-7479	-25116	-8492	-18340	1815	11612	-8700	-32768	23432	-8460	2967	28151	-17405	0	136	2
-24924	-8936	14784	-2354	-8441	-5282	-9536	5560	-19232	3452	-7196	-3750	-21472	10664	-27696	-423	-3617	-1725	-15908	8548	20900	-3824	19841	-12574	-32768	-14104	-16972	6301	3394	-6987	-32768	8408	-5232	-18767	29864	-16663	11	157	2
-32768	-7924	16648	-2818	-8554	-5303	-13552	7632	-19744	2187	-8170	-4177	-5184	12904	-25288	-1055	-1259	-1176	-6436	6312	23408	-2492	32767	-13759	-32768	-17120	-3844	2255	-2906	-5642	-32768	-3596	4612	-32768	32767	-17067	21	117	2
-32768	-13264	14872	-1701	-8440	-6006	-13904	5080	-24704	1814	-8419	-4375	9336	15208	-21704	-2793	386	-643	-6256	6624	23576	-1858	32767	-14194	-32768	-14860	2556	-1391	-7123	643	-32768	-17468	10552	-32768	30158	-19819	253	177	2
-32768	-20	5744	-389	-7550	-7108	-12088	9920	-30376	2809	-7943	-4169	20104	6928	-19344	-1190	940	-263	-25512	8820	20956	9625	32767	-18854	-32768	-4452	5992	1044	-7998	5455	-30168	6620	15024	-11831	32767	-11453	15	236	2
-32768	12748	-4800	-262	-6397	-6796	-10576	11200	-32768	3179	-6899	-3474	16560	928	-12928	3035	393	440	-32768	19288	10336	1249	32767	-22461	-32768	23660	19468	-8897	-7280	-7040	-29744	23312	32767	-1136	22368	-6150	169	210	2
-32768	31280	-25472	-1605	-5172	-4572	-17376	8072	-32768	3448	-5028	-2446	3848	-7656	3360	2713	-1215	-128	-32768	14596	440	-19726	32767	-27898	-18424	18064	27120	-32768	2605	-25011	-13632	-10696	32767	-32768	-8154	5329	254	52	2
-32768	26984	-32768	-626	-3836	-373	-10416	17704	-32768	2437	-1918	-506	-3376	-8064	16624	1891	-1069	-708	-32768	19772	-9852	-32768	32767	-19054	5428	-6256	8548	-32768	27847	-17827	2728	-21508	32767	-7015	-9612	-10584	243	94	2
-32768	31000	-32768	576	-1224	1450	5528	30288	-32768	-1356	332	212	-1056	-248	13256	-401	423	-902	-32768	-18100	29756	-27108	32767	-1447	-31464	-31532	852	-29015	32767	-17309	-5784	-23036	11460	23376	-4069	-6175	184	81	2
-32768	22940	-32768	144	1448	931	3768	15016	-32768	-2740	2267	836	5040	12040	3096	-3989	1925	-11	-32768	-12196	32767	32168	19073	-1597	-32768	-22616	5324	24826	32767	-10719	-24708	-13424	5436	32058	-16361	-8802	253	82	2
32767	32767	-32768	-1359	5147	2346	-3496	2896	-32768	-1206	3871	1539	4952	13400	3360	-4563	2281	253	-32768	25292	27412	32767	-1990	-13881	-32768	3488	7752	32767	32767	-13865	-14388	-19792	7536	12785	-25817	-1491	15	12	2
-32768	-32768	-9260	741	9797	4364	-32768	-32768	-32768	2112	5169	-2624	-32768	-27616	19408	-742	657	-985	-32768	32767	21052	32767	-19583	-28188	-32768	6640	-324	32767	32767	-4730	-24200	-3488	3524	22369	-20174	-3580	253	184	2
-32768	32767	32767	2980	2601	7118	-4632	32767	-32768	8884	8427	444	-32768	-10600	-32768	94	938	-296	-26668	32767	17256	32767	-31849	-24137	-32768	-1184	-4084	30564	29621	-793	-32768	19768	1472	25339	-22197	-3372	253	176	2
-5780	21632	10176	415	620	1423	-19136	9248	-32768	-6392	3496	818	15240	32640	-32768	-2269	3089	488	-9568	32767	14316	12038	-32768	-19480	-29972	3456	-8128	21649	14112	940	-32768	13648	-7500	15381	-32768	4850	0	0	2
-12116	-4660	10928	162	1251	545	8312	6712	-21032	-4406	3276	1109	1784	-7536	-28608	-4085	2588	1567	-6728	30932	11668	-9908	-32768	-9496	-12384	5264	-13492	2653	-1160	5940	-32768	5948	-7576	-1933	-32768	14425	0	0	2
-12880	-6140	11344	527	645	433	2392	-21688	-28272	-692	3583	1026	-32768	-12128	-22288	-808	2381	1710	-5604	14112	11732	-9537	-32768	12866	-10780	872	-16424	-15822	-22872	12725	-32768	-2660	-19044	-3004	-32768	17934	113	130	2
-14568	-2432	11452	288	684	368	-32768	-10720	-32768	688	3319	825	-32768	-712	-14424	553	2831	1517	-8504	9660	10332	6612	-32768	32767	-4540	-11912	-18684	-16247	-32768	22600	-32768	-2836	-25584	-4673	-32768	19686	254	140	2
-14628	-6192	14044	44	834	732	-24352	1016	-27376	306	2108	851	-31640	2376	-14944	-654	3035	2171	-9628	9184	10368	9008	-32768	32767	-2116	-7560	-17292	-5043	-32768	31869	-32768	-9432	-30576	-862	-32768	19405	253	173	2
-13044	-2060	25768	517	1878	915	-30776	-6288	-15576	-680	1370	355	-32768	-17368	-6288	-587	3782	2449	-26124	14004	14160	15806	-32768	32767	-4140	-6496	-15376	5293	-32768	32767	-17480	-9380	-29616	4042	-28906	17231	253	205	2
-11068	-1396	22840	71	3595	981	-32768	152	-11904	-1754	413	502	-32768	-7536	-3656	832	3800	2374	-32768	10892	16580	15782	-32768	32767	-10484	-7248	-13440	13615	-32768	32767	-2420	-8008	-27028	5005	-12308	19245	0	234	2
-4920	-2508	22884	-335	5804	610	-32768	-4424	-1576	-1453	-4	1038	-32728	-1224	4792	1096	3570	2705	-32768	15308	17552	16051	-32768	32767	-14004	-8744	-16640	8224	-32768	32767	8056	-13472	-25496	11139	-3897	14405	0	238	2
-1916	-8292	19672	-965	8638	667	-32768	-3864	6392	-140	-328	503	-32768	4416	5616	904	3647	2914	-32768	5920	7956	7194	-32768	32767	-13420	-15604	-21040	-1562	-32768	32767	23240	-6104	-22924	20635	4317	6693	0	0	2
-30452	-5632	12576	-1522	10391	1373	-32768	-10824	1904	-541	-939	417	-29984	-9728	6168	911	4084	2955	-32768	-11524	-4400	-1299	-32768	32767	-9756	-29568	-32768	-8099	-32768	32767	18752	-1088	-15440	-17860	-4480	522	0	165	2
-32768	-11768	1328	-1207	9135	1081	-32768	-22832	13528	-1273	-287	1550	-27984	-32768	32767	1417	2680	1225	-32768	-32768	-28432	2635	-31517	32767	-9548	-22992	-32768	-7204	-32768	25311	9032	12396	4012	-32768	-22422	589	0	55	2
-32768	-3572	5596	-903	8868	1521	-13840	-29728	31416	1263	1931	3310	-20264	-24208	32767	3162	815	-1363	-32768	-32768	-32768	4039	-23933	10163	-6616	-29084	-32768	-21521	-20290	7162	1604	8912	23268	-13042	-6984	4915	253	239	2
-32768	-14460	-6636	10347	8721	1190	4784	-9584	10632	7007	6094	2535	-9848	-3592	32767	3810	-1387	-560	-32768	-32768	-32768	-8807	-2790	-30040	2044	-32768	-32768	-3901	-5668	-9408	756	-3336	17800	1315	1435	2486	253	239	2
-32768	32767	32767	4056	5881	-427	-24248	17016	9264	6185	7054	1285	3456	10192	20712	-3	-694	430	-32768	-32768	-32768	4863	28964	-24643	14472	-27624	-32768	-1830	32767	-10822	-556	-32768	11744	32767	26800	-7827	0	117	2
-32768	24256	32767	-5902	2626	1286	-32768	21704	8040	-553	5619	537	-21120	23544	16728	-248	-2565	716	-32768	32767	32767	-9097	32767	-32768	-32768	32644	32767	32767	32767	-3906	-32768	-5268	26572	17506	-428	-4084	87	74	2
-32768	-9048	32767	-8569	-570	3774	-32768	7416	-2872	-8712	3100	834	-32768	14448	4968	-1372	-2709	200	7772	-32768	32767	-4302	30602	-27301	-15076	-32768	3480	11972	32767	-32768	-32768	-1204	-27784	14047	15468	-265	197	103	2
-32768	-32768	28768	-6908	-3017	4297	-32768	-14592	-2792	-9061	1601	-534	-32768	-2608	-3992	-652	-4004	-800	-18056	-32768	32767	-9474	4851	-28523	18952	21856	-9164	5134	32767	-13383	2748	-20320	-26968	20018	15819	-10962	253	2	2
-32768	-32768	22320	-2286	-4690	3326	-32768	-14784	-7168	-5661	51	380	-32768	-21280	1080	107	-5390	-1507	-22608	-12184	12104	-2287	12978	-9517	-2580	-27968	-18512	-10045	31893	-17860	-4460	16472	-30280	29913	19744	-7482	0	20	2
-14444	-30860	19788	970	-5157	1850	-25568	-6032	-16936	-2860	48	-301	-32768	-20256	-10544	1491	-4707	-2220	-13260	4232	9700	-1184	6226	-1430	-14904	-4576	-18328	1674	32767	-16256	-29280	17340	-22320	12310	15997	-15800	253	0	2
-9628	-11912	18136	1078	-5719	-419	-13528	-8976	-22056	237	-1781	-739	-32768	-25992	-14360	2561	-5130	-2638	-14964	-548	11288	-1465	5320	-2163	-30148	-3504	-22920	689	23701	-15534	-32768	-4220	-14812	-706	22539	-12957	204	0	2
-13176	-10092	13912	-941	-6962	-2747	-11504	-11712	-25672	4727	-3897	-1179	-32768	14864	-32352	1749	-4323	-687	-15832	5908	11704	-584	5732	-6436	-14604	-8296	-24052	6646	20127	-11968	-25980	19176	-17824	8083	27140	-15830	0	239	2
-16664	-8704	12136	-2239	-7561	-3863	-17464	5656	-20680	5174	-5163	-2970	-32768	4584	-30616	-834	-6420	-1241	-17540	5064	18992	-4403	13204	-11469	-27132	-4648	-21864	6542	9266	-10393	-32768	24624	-8488	-4251	28683	-18946	0	201	2
-23932	-8096	15776	-3084	-8009	-4383	-14936	9944	-21408	4270	-7308	-3596	-20984	9888	-28088	-1954	-4454	-1337	-16192	7640	20404	-5583	20469	-11797	-32768	-16364	-14976	-1319	-143	-8676	-32768	2664	-3536	-19735	32767	-13877	0	192	2
-25476	-5176	15860	-3218	-8040	-4615	-10928	9704	-22992	1752	-8344	-3969	-3736	13296	-28872	-2140	-1612	-917	-8496	7808	23760	-4582	32767	-12182	-32768	-18696	-5464	-6475	-5616	-5862	-32768	-5984	8552	-32768	31842	-18578	131	90	2
-32768	-9520	14064	-2503	-8102	-6720	-10568	4936	-23792	519	-8647	-4035	15248	12640	-22992	-3069	252	-826	-15140	6972	21464	5022	32767	-17701	-32768	-15248	836	-1615	-8282	2129	-32768	-15320	10980	-32768	31078	-21113	217	138	2
-32768	4624	4092	-1143	-7153	-7882	-4184	12040	-28768	1625	-8100	-3833	25248	5760	-22776	-116	443	-333	-30432	7148	22780	12910	32767	-20080	-32768	-5196	7064	6629	-9473	6662	-32272	4556	10144	-18284	32767	-13952	119	239	2
-32768	11912	-5388	-529	-6248	-6984	-2376	7456	-32768	2120	-6866	-3573	17640	816	-13400	3239	-81	320	-32768	8672	9192	7485	32767	-22924	-32768	15856	18420	-1419	-8577	-2893	-30664	21456	32767	-4129	26625	-6321	50	238	2
-32768	32767	-21264	-1411	-5688	-3556	-13472	1168	-32768	3282	-5138	-2839	7936	-8064	1912	1490	-1296	173	-32768	32767	-5952	-20922	32767	-27811	-21004	28772	23688	-32768	479	-24104	-10492	1844	32767	-32768	-3622	5734	253	73	2
-32768	27648	-32768	-1042	-4808	729	-20120	18632	-32768	3411	-2136	-483	-3776	-9976	12880	1228	-759	-506	-32768	19448	-2748	-32768	32767	-19483	11364	4176	-9464	-32768	28842	-20206	3088	-20216	32767	-24575	-16504	-6845	112	29	2
-32768	22204	-32768	842	-1565	1976	1528	28088	-32768	-2038	-106	118	-7328	-2816	12800	0	166	-1375	-32768	-32768	32767	-32768	32767	-2186	-27012	-32768	10188	-32768	32767	-22341	1440	-30352	5904	14721	-700	-7829	103	98	2
-32768	23900	-32768	616	1619	713	4448	10480	-32768	-2272	2228	652	1920	8608	1328	-3193	1595	-1063	-32768	-15288	32767	32767	19510	-10588	-32768	-15460	13024	26949	32767	-9843	-21920	-20868	5024	30871	-20613	-9044	214	238	2
-32768	19020	-23656	697	3569	280	2112	11016	-28240	-139	3913	1503	-2944	18240	-8920	-5017	3527	1559	-32768	26052	32767	32767	-9103	-32768	-31556	476	15288	32767	32767	-8130	-12432	-28768	7332	10277	-26099	-4414	3	104	2
24748	-32768	12436	-543	4958	220	-13704	-31264	32767	-7336	1035	1273	-27744	-2336	18936	-748	369	2053	-27304	32767	26928	32767	-32768	-32768	-27564	-2268	7620	32767	32767	1679	-16720	-12500	-372	31001	-20161	-11536	253	33	2
-32768	-32768	9180	7367	9653	4858	-23768	-32768	-32768	6364	6489	-2516	-32768	-32768	15432	-645	1145	-139	-21440	32767	22736	32767	-32768	-32768	-32768	6716	1384	32767	26747	4971	-32768	28156	64	32767	-22996	-4496	254	112	2
-32768	-32768	-16804	960	1985	567	-13680	32767	-21704	-3074	8645	4699	-17912	25472	-32768	1031	946	-664	-13648	32767	18792	-2474	-32763	-13197	-32768	4316	-8188	24229	7719	6678	-32768	30600	-3648	18081	-32768	5644	44	0	2
-15960	-32600	10132	245	746	-678	9928	8488	-17256	-4682	3185	85	5544	26360	-22232	-4601	1977	1029	-16100	17980	19428	-10727	-31742	19521	-24048	3280	-18988	-7891	-6183	4063	-32768	17948	-12476	-10603	-32768	17723	0	0	2
-13300	-11892	3756	601	900	333	19344	-19336	-32768	-1859	4366	788	-6248	-7264	-27520	-3514	2156	2298	-24780	15868	12112	-752	-32768	32767	-17952	6640	-25588	-32413	-32768	8484	-32768	3144	-20148	-18869	-32768	24173	253	88	2
-15796	3876	11796	292	739	258	-32768	-192	-32768	629	3074	501	-32768	-23960	-24680	-1627	2851	1755	-23088	15872	8516	573	-32768	32767	-14400	-1644	-27260	-32768	-32768	11999	-32768	2356	-25792	-16719	-32768	18988	253	236	2
-15892	-6808	13680	-80	808	562	-23056	0	-31496	158	1450	432	-32768	8096	-21312	-115	3215	2097	-27572	9028	9640	11888	-32768	32767	-15748	-14188	-26708	-20589	-32768	22831	-32768	-7892	-29232	-11680	-32768	15196	1	175	2
-12276	-5240	28240	464	1838	899	-32488	-9816	-18376	-1575	937	187	-32768	-17136	-9872	-1274	4066	2802	-32336	13280	14392	19999	-32768	32767	-9256	-15056	-26856	13871	-32768	30094	-18728	-11600	-29600	-5455	-27925	14168	0	135	2
-10528	-2312	24032	88	3651	939	-32768	-3288	-12480	-1461	43	463	-32768	-13584	-3408	656	4379	2896	-32768	14592	15692	20781	-32768	32767	-11184	-9228	-21124	31861	-32768	32767	-3532	-12120	-29744	4512	-12844	15696	0	238	2
-624	-2640	27372	-341	6198	504	-32768	-4568	2464	-673	-351	675	-32768	-3904	4688	1800	4237	3572	-32768	12816	13016	18748	-32768	32767	-11452	-11428	-24220	24934	-32768	32767	9292	-4896	-29292	14079	1515	10516	0	219	2
2944	-8340	24960	-1137	10262	224	-32768	-8016	11216	-27	-1001	418	-32768	2128	9560	2327	4493	3715	-32768	8836	2052	13250	-32768	32767	-9504	-15912	-27816	11885	-32768	32767	23392	-3024	-16544	15517	2404	6326	253	70	2
-32768	-1768	9860	-2350	11503	757	-32768	-16960	17352	-1822	-1815	600	-30160	-15824	32767	1982	4062	2297	-32768	-15840	-14136	4995	-32768	32767	-7916	-14296	-32768	-11508	-32768	32767	14604	-3356	-9744	-27061	-13023	-2390	33	147	2
-32768	-12520	6264	-1368	8071	1647	-7208	-32768	31680	-949	591	2048	-29024	-18936	32767	1760	3824	1769	-32768	-32768	-32768	12723	-16339	32767	-16092	-24412	-32768	-32768	-30434	14739	-348	12492	7628	-22823	-18689	10376	0	114	2
-904	-32768	432	5041	8168	2244	9032	-17056	32767	2739	3973	2214	-10264	-11888	32767	292	265	-261	-32768	-28732	-32768	-358	-3505	19950	-6344	-32768	-32768	-29223	-22312	-918	-2148	9028	27188	-15357	-10866	8580	253	147	2
-32768	32767	32767	6792	7205	-1053	-10592	-11408	12392	4347	5704	1399	-5560	-21904	31944	-791	-916	-342	-32768	-32768	-32768	448	1834	-9383	26004	-25776	-32768	830	9605	232	5240	-7352	10800	12071	10555	6300	150	224	2
-32768	32180	32767	-586	3926	1321	-32768	14312	13280	2167	5693	2192	-13968	-888	13400	30	-2555	-436	-32768	-26776	-32768	-1746	30485	-23252	12652	-26732	-32768	15403	32767	-3985	3728	-27904	2684	32767	30006	-4173	0	80	2
-32768	2112	32767	-4616	138	3420	-32768	14176	7968	-1991	4102	1552	-21008	16072	15288	1934	-4008	480	-18292	32767	32767	4770	32767	-32768	-32768	19596	32767	32767	32767	-17541	-32768	10224	32767	24477	-1689	5383	215	69	2
-32768	-14568	30368	-5966	-1721	3291	-32768	3568	-952	-7106	2663	982	-25880	22696	3744	-46	-3010	194	-32768	-31552	32767	-12127	32389	-27193	540	-32768	4576	4396	32767	-29721	-20204	2212	-29436	3892	14908	1579	253	23	2
-32768	-32768	22616	-4541	-3844	3437	-32768	-10936	-3168	-7969	850	401	-32768	4752	-7256	-1293	-3707	-502	-32768	5764	2228	-18721	4472	-23925	8736	22396	-30884	-22877	32767	-20242	-340	-26636	-32768	1633	16131	-17844	211	0	2
-27512	-29784	18100	-1859	-5499	2611	-32768	-11816	-9736	-5849	198	51	-32768	-15480	-736	-872	-5596	-1306	-17036	-7112	18596	-3419	8838	-11319	10812	-32768	-19928	-16759	32767	-15500	1960	8740	-32768	18871	17834	-5820	71	23	2
-16416	-25148	17952	-185	-5303	1463	-23464	-12008	-17368	-2124	-472	-359	-32768	-18848	-6944	1628	-5016	-2273	-13228	17584	4708	-1621	9450	3788	-13360	5516	-24552	988	32767	-15959	-29588	18728	-19884	22224	20440	-9571	227	35	2
-14168	-16908	15664	362	-5839	-360	-15584	-7936	-22512	1872	-1657	-913	-32768	-32768	3440	3455	-4976	-2506	-16100	3016	11840	-927	8198	-3115	-32768	-16016	-28784	6168	23760	-8848	-32768	-9612	-13044	8470	25254	-6947	7	0	2
-14616	-11428	11716	-423	-6919	-2085	-16328	-9192	-27536	5474	-3810	-1066	-32768	22320	-30520	1029	-4554	-872	-15164	6828	11264	491	7456	-4656	-11500	-8828	-25968	10543	23026	-8234	-23632	28060	-17404	16630	25253	-13842	0	226	2
-18420	-5440	12312	-2308	-7175	-3323	-12880	6280	-24040	5164	-5173	-2592	-32768	-6320	-25736	-1639	-6408	-1194	-16684	4452	19872	-4095	13802	-11850	-25208	-6688	-18308	7933	9948	-8749	-32768	20048	-9132	-10885	26174	-19746	0	179	2
-27276	-6760	15604	-3331	-7649	-3907	-15528	12120	-24576	2671	-7107	-3320	-22888	9296	-22768	-2115	-3840	-1110	-15824	8316	21336	-4455	21576	-10988	-32768	-17952	-18164	-8555	1337	-8580	-32768	548	-7004	-12388	32767	-10931	0	198	2
-31444	-4592	16328	-4006	-7919	-4355	-13512	8648	-23504	-796	-8307	-3847	-6304	10872	-27312	-1752	-1368	-685	-6552	6492	25912	-4864	32767	-11427	-32768	-23260	-6792	-6582	-6542	-6340	-32768	1356	6268	-31654	32767	-18088	133	162	2
-32768	-11060	12532	-3249	-7716	-5363	-9808	7336	-26320	-1173	-8277	-4568	7344	11720	-22776	-2830	560	-453	-15448	7136	22776	5997	32767	-15135	-32768	-15812	856	1437	-9306	3283	-32768	-9428	12116	-29967	32767	-21489	253	217	2
-32768	4984	7776	-1996	-6859	-6796	-4448	9136	-27336	125	-7697	-4730	22528	5472	-23976	-1548	688	-169	-27036	10888	26740	13513	32767	-18673	-32768	172	14212	7649	-10105	5230	-32768	4568	19512	-14685	32767	-13100	68	234	2
-32768	12652	1836	-1532	-5796	-7033	-5040	4000	-32768	2570	-6489	-4374	23864	5000	-23360	-1004	785	11	-32768	9472	12124	6454	32767	-23881	-32768	13768	17280	-11824	-5176	-4033	-21756	2588	32767	-11213	16776	-7324	194	199	2
-32768	24440	-11868	-1344	-4812	-5033	-19696	4232	-32768	4936	-4855	-2805	6440	-7336	-4304	830	-596	-32	-31264	21708	1396	-11425	32767	-24262	-10960	21748	27264	-31180	4941	-21099	-8136	-3364	32767	-32768	-6901	4725	254	52	2
-32768	24548	-32768	-21	-3825	-1145	-20472	19200	-32768	4565	-2438	-585	5256	-8704	-3280	798	-573	-110	-32768	16892	7772	-32768	32767	-18001	212	-3640	-6876	-32768	28312	-16388	2400	-13892	32767	949	-7678	-8845	123	58	2
-32768	25692	-32768	800	-1546	752	2936	30128	-32768	-524	-421	10	-7912	-5192	17720	1555	-101	-1635	-32768	-19356	31192	-28963	31149	-456	-32768	-30620	11208	-29927	32767	-21381	-5980	-19808	7440	29131	-2438	-9582	159	129	2
-32768	28236	-32768	-462	1549	293	4992	14464	-32768	-2189	1864	261	-2872	6008	7088	-703	348	-1057	-32768	-13728	32767	29562	19400	1427	-32768	-21452	7584	23208	32767	-11840	-23652	-12580	12332	29690	-16551	-7596	144	131	2
-32768	16792	-23244	-60	3010	194	-224	11456	-29096	-1294	3442	1113	-2920	16872	8304	-5263	2302	1361	-32768	-8308	32767	32767	17036	345	-32768	4944	3312	32767	32767	-13275	-13272	-17828	13372	13089	-25627	-734	234	65	2
4064	7936	13800	-1281	4707	91	-19352	-12968	32767	-8067	1499	1733	-16024	11768	10488	-3571	1415	2645	-32768	28724	16908	32767	-21691	-31257	-32768	2892	-1840	32767	32767	-6801	-18084	-2508	4092	15697	-28735	-2704	253	1	2
-32768	-32768	-32768	2999	9142	7061	-24784	-31576	-32768	558	5824	-1974	-31920	-18712	-8272	-97	1443	-241	-32768	31944	14928	32767	-32602	-29728	-32768	-2316	-10740	27771	32767	-5968	-32768	21636	1316	18093	-23431	3206	253	167	2
376	32767	32767	-161	3005	2938	-32768	32767	-32768	3655	8675	1088	-32768	-5632	-32768	1549	560	-1389	-18540	32767	13492	12503	-32768	-24596	-31016	-3764	-15380	19044	17774	-5143	-32768	14536	840	2894	-32768	7766	253	142	2
-22332	28596	12784	360	1393	697	-21896	-10016	-12656	-1626	4168	995	-3072	30632	-19120	-1888	1016	539	-9652	31652	12268	-12473	-32768	-9620	-18764	3236	-19976	-2289	406	-379	-32768	10536	-5072	-3628	-32768	16153	0	0	2
-19828	7672	4744	706	1030	1011	25496	5768	-15208	-2413	3749	848	-9648	4016	-27736	-3346	2799	1662	-9228	17220	8364	-17364	-32768	13408	-7516	-3244	-21960	-20179	-23035	7781	-32768	3032	-14040	-9916	-32768	22020	253	240	2
-16324	2116	10548	497	715	709	-5176	-5080	-14080	444	3430	1266	-32768	-23384	-25320	-936	3004	1520	-5440	8196	6736	-1393	-32768	32767	-2376	-9112	-25316	-21758	-32768	15626	-32768	-1460	-24856	-15550	-32768	19591	253	160	2
-17476	1472	10120	149	525	620	-32768	3760	-25888	-157	3054	-324	-32768	11048	-25104	311	2315	2177	-16584	9336	8292	16273	-32768	32767	1656	-10484	-22992	-4405	-32768	28833	-32768	-8208	-32144	-8621	-32768	15173	213	191	2
-14656	-6372	16820	-239	871	412	-26632	-11504	-22440	-1486	1269	956	-32768	-6712	-9648	-800	3113	2823	-26548	16112	10972	19345	-32768	32767	-1248	-5692	-18880	13407	-32768	32767	-21300	-8588	-31972	-4856	-32768	14504	0	232	2
-13932	-1448	23340	-237	2498	593	-32768	8000	-15416	-1232	22	196	-32768	-17048	-5560	-72	3919	2744	-32380	12536	13084	15355	-32768	32767	-9472	-3524	-14128	22523	-32768	32767	-3640	-9280	-31064	-120	-19620	15695	0	92	2
-7400	-4000	26908	-112	5111	442	-32768	-4072	960	-1672	-865	982	-32768	-5992	6376	1294	3827	3153	-32768	11516	11584	14356	-32768	32767	-8412	-8416	-16792	12381	-32768	32767	8376	-14308	-28188	8795	-9152	12399	0	112	2
-324	-7484	26272	-1017	8489	334	-32768	-6232	12584	-304	-1033	625	-32768	3120	4216	1717	3726	3423	-32768	900	5272	9389	-32768	32767	-3168	-14456	-23324	-1362	-32768	32767	26440	-3584	-22488	26036	1197	6874	253	119	2
-23996	-8468	20528	-1534	11130	880	-32768	-16224	11696	-391	-2037	447	-32768	-5824	22088	2990	4457	2988	-32768	-13864	-7916	4316	-32768	32767	-5544	-19280	-32768	-13009	-32768	32767	24156	9584	-14076	-1251	-3114	2415	0	232	2
-32768	-7084	2420	-2258	8297	928	-28928	-30448	5352	-566	-1401	1383	-25896	-32768	32767	972	2838	820	-32768	-29872	-30252	248	-30204	32767	-3312	-21036	-32768	-23253	-32768	21590	10008	6824	-8732	-15364	-2154	3944	0	0	2
-15664	-32768	-24228	3334	6254	3035	11720	-32768	25968	1740	1797	2016	-16368	-24048	32767	3466	858	-415	-32768	-32768	-32768	3029	-22362	16625	5072	-32092	-32768	-24190	-24867	5063	912	5360	6348	-17282	-7636	1020	253	240	2
-28856	-10004	4424	9462	5707	-180	9608	-14208	26424	6454	6395	953	-5488	-1752	32767	3158	-1010	-204	-32768	-32768	-32768	2847	-13133	-7828	10292	-32520	-32768	2127	-6739	-3869	-2372	-516	6072	-768	527	4690	170	240	2
-32520	32767	32767	1358	6089	-1373	-25904	16192	31120	5750	6798	1282	6000	-6912	16680	3	-709	160	-32768	-25960	-32768	986	4626	-14679	17204	-20548	-32768	19258	22452	-3367	2696	-21112	-9112	30896	29230	-4027	107	240	2
-32768	12460	32767	-5573	2851	2131	-32768	21224	6280	-1650	4779	1520	-22112	13168	10832	-83	-2874	550	32767	-32768	-1412	-6638	25783	-18638	8976	-9508	-32768	10652	25914	-7129	-5340	-14112	-7176	13666	25952	-3123	253	137	2
-32768	-15560	31960	-4715	-557	3599	-32768	5512	1640	-7911	4097	1433	-21392	28728	20008	-54	-3475	894	-32768	32767	-3924	-5901	32767	-32768	-32768	32767	-32768	-32768	32767	25170	-32768	32767	18232	32767	31377	-21761	44	60	2
-32768	-17000	25284	-3791	-2709	3596	-32768	-4392	-5728	-8473	2037	146	-29760	8104	-688	-2284	-2580	112	-32768	-32768	26716	4074	15235	-25857	-26420	-32768	-6716	-12694	32767	-32768	-32768	-8796	-14236	-16392	-401	7424	107	145	2
-32768	-26528	18776	-2802	-4248	3371	-32768	-13336	-8440	-7463	778	871	-32768	-20176	-7712	-1553	-4281	-118	-11588	-32768	32436	-8134	7776	-20359	31896	-8324	1708	5389	4943	-1551	1672	-19732	-14768	11376	15848	-3048	253	239	2
-21844	-25876	17528	-1517	-4390	2999	-25600	-18296	-16800	-3997	963	509	-32768	-13600	-4248	1487	-5359	-1464	-16460	-3872	8844	1579	9895	-3905	-5588	8904	-21472	7167	32767	-7594	6196	15164	-16044	25885	15307	-10675	253	0	2
-14472	-25048	14616	218	-4720	1224	-12944	-10600	-20976	1416	28	145	-32768	-7064	-4576	2702	-5716	-3080	-13932	3232	9152	1293	6708	-4102	-27604	1320	-14924	11916	32767	-9247	-27964	22844	-16384	19005	16065	-14890	253	0	2
-10148	-15068	10596	1110	-5691	-1107	-16824	-584	-21224	3963	-1181	-838	-32768	7096	-19976	-979	-6900	-1446	-13536	8952	7288	-656	7679	-3321	-29520	-7404	-18120	1753	10410	-20897	-32768	-2032	-11648	293	18904	-4608	0	0	2
-7304	-3192	10308	-398	-5907	-2804	-11472	11240	-23456	5301	-3249	-1560	-32768	504	-26360	-868	-6699	-1918	-14208	6288	10916	-1563	6378	-4279	-12796	-5052	-20764	-3266	19971	-11598	-28276	19104	-10920	13499	23882	-6614	0	53	2
-13324	-1608	11340	-2477	-6613	-3458	-10160	10760	-23304	3273	-5670	-2343	-32768	-928	-25304	-1959	-6691	-1660	-14560	7872	11576	1894	4712	-8323	-16748	-1928	-22328	1348	13461	-10699	-25392	11524	-6272	2333	27467	-13016	6	165	2
-21116	-9220	11672	-3051	-7565	-3261	-3192	6800	-21752	418	-7417	-2886	-17584	4752	-29064	-494	-3840	-1529	-14844	5852	20308	-2403	14469	-8610	-32768	-20656	-19588	695	9092	-9897	-32768	12408	-5960	7590	28872	-7157	0	94	2
-29836	-7180	12216	-3565	-8023	-3585	-3040	5680	-21432	-1137	-8281	-3797	-3648	6760	-26616	-260	-1377	-973	-14004	7160	20048	-4450	23131	-7690	-31568	-17700	-13524	671	-478	-8805	-32768	5996	680	-16840	32767	-16392	223	164	2
-32768	-4808	5060	-2792	-7798	-5539	-3784	7336	-22080	-1044	-8221	-3882	14384	13824	-21760	-1660	329	-392	-6692	7752	24596	-1908	32767	-8971	-32768	-20484	-5100	323	-4107	-1028	-32768	-6672	11452	-26356	29308	-21401	169	5	2
-32768	3100	-520	-1713	-6449	-7147	608	6592	-26552	1481	-7252	-4359	16800	5352	-14616	-749	266	38	-10468	7552	23536	6067	32767	-10931	-32768	-16740	256	1607	-9714	4438	-32768	-6800	13600	-15968	32162	-23128	0	238	2
-32768	7364	-8172	-1089	-5222	-7638	-3840	2152	-28792	3283	-5827	-3771	16656	1040	-10168	722	833	656	-29648	20080	19880	13056	32767	-16973	-32768	4172	1880	-665	-11383	6537	-32768	12680	9340	-18370	32199	-20907	0	214	2
-32768	18596	-17812	-402	-4123	-6062	-9160	-232	-32768	5414	-4128	-2766	9680	-2072	2432	1459	29	419	-32768	7020	9032	12112	32767	-24487	-32768	6380	7632	-9872	-10269	-473	-25532	18068	32767	-10122	25370	-7353	253	240	2
-32768	28868	-28136	-1809	-3115	-3187	-13872	13144	-32768	6152	-2093	-1088	-2384	-6152	8560	1192	-517	-4	-32768	12544	10276	-3188	32767	-24683	-25800	14232	25880	-18253	-3990	-18453	-9388	7808	32767	-32768	3208	2029	103	102	2
-32768	13216	-32768	-1289	-2335	790	-8816	24528	-32768	-1269	-988	-226	-3880	-6512	7848	-3	345	-571	-32768	18440	-14844	-32768	32767	-25658	10936	16572	17028	-32768	18263	-13595	4988	-19592	32767	-30990	-11173	-4434	168	28	2
-32768	14484	-32768	63	-744	2483	2720	13304	-32768	-5668	357	-426	-5904	360	1912	-2094	1671	-785	-32768	-10880	26328	-32768	32767	-12035	-11536	-19992	5284	-32768	28335	-18470	6884	-18192	18084	2939	-2388	-9725	47	13	2
-32768	9788	-29840	-56	1555	1841	320	2752	-31360	-3975	2226	609	-3208	7416	880	-4045	2283	-445	-32768	-25456	32767	9348	14067	-3665	-30588	-29480	12616	-5704	28609	-13562	-10008	-16212	3204	32767	-11592	-11932	218	236	2
25548	24088	6368	571	3676	1906	-9816	-1288	-9832	-1310	2932	1254	-8016	2464	2160	-3612	2691	698	-29108	-1328	26224	32767	-4413	-4001	-26808	-15272	3748	32767	32767	-8981	-18744	-15444	10784	21982	-17396	-6977	253	87	2
-3216	-32768	25732	1847	6077	3073	-12520	-9480	4464	-2203	2691	1482	-32768	-32768	32767	-623	112	-823	-30284	22932	16312	32767	-24572	-13977	-24960	2320	3452	32767	32767	-6553	-12412	-9344	5828	18078	-20927	-3835	254	41	2
-29224	32767	21816	1410	5390	2386	-13752	32767	-6704	7867	7321	1287	-17888	-9568	-21488	2195	1457	356	-26572	30436	12436	32767	-32768	-19788	-32768	3068	-1472	32767	25581	-2849	-27848	6956	5988	24546	-21995	-6121	253	165	2
-32768	-17220	-3972	597	3148	2368	-12312	-9752	-32768	-4350	4266	1130	-912	28424	-18496	295	1108	501	-20240	32767	9332	15008	-32768	-24128	-32768	3488	-6464	28911	22122	-823	-32768	14312	-1384	10624	-24326	348	245	154	2
-22152	1712	14632	824	1712	953	8584	18872	-18704	-1351	4035	-318	2392	20376	-20080	-3108	1893	1032	-19516	32767	8828	11084	-32768	-24615	-25548	4796	-15788	8935	9717	-1154	-32768	12492	236	-5178	-32768	4492	37	0	2
-16144	1224	9912	236	550	-149	-14160	3192	-21680	-2754	3169	451	1632	13368	-22320	-3596	2072	1128	-13172	22340	9760	-5508	-32768	-9355	-21836	3004	-17436	-3277	-3878	2124	-32768	972	-5504	-3299	-32768	9033	0	131	2
-11884	-2972	11636	179	413	-290	-23056	-14152	-19136	-1085	2851	785	-32768	-13248	-5832	-1671	2579	944	-12088	16984	7008	1488	-32768	8307	-15448	-1428	-20888	-12029	-21031	9115	-32768	1600	-14996	2212	-32768	16250	253	8	2
-12856	-6912	11564	-9	605	-60	-20296	-2360	-14336	56	3070	632	-31176	2816	-13800	-353	2548	1257	-13720	14784	5460	9957	-32768	24086	-6832	-7860	-22840	-8029	-32768	18336	-32768	860	-19504	-3432	-32768	17577	253	170	2
-14656	-4324	11640	-129	611	206	-18728	-392	-22728	87	2152	419	-5032	-4872	-32768	-280	2484	1021	-17168	12368	7132	15892	-32768	32767	-10216	-19016	-32768	8140	-19113	27765	-32768	-3092	-21772	-3952	-32768	13716	253	138	2
-14640	-5300	12156	-236	620	286	-19280	-3096	-26136	-297	1245	209	-32768	-9504	-18568	-1198	3581	2217	-22276	10148	7832	18560	-32768	32767	-5840	-9004	-17796	11854	-32768	32767	-19064	-4584	-21392	-1376	-27139	13913	63	122	2
-9420	-6992	23632	256	1865	964	-32768	-5072	-17072	-1083	256	-39	-32768	-15440	-11720	-761	3893	2117	-24924	9088	9880	17999	-32768	32767	-8900	-4272	-13936	20077	-32768	32767	-7028	-4960	-19276	1474	-9289	13882	0	192	2
-9908	-3600	22572	232	3255	969	-32768	-5000	-12512	-1360	-501	488	-32768	-17560	-1992	483	3728	2699	-28972	15816	10640	12683	-32768	32767	-11228	-4672	-12212	12280	-32768	32767	604	-3856	-20164	-1226	-5387	9929	0	224	2
-4376	-7568	23996	-233	5528	966	-32768	-6096	920	-289	-502	408	-32768	-792	12856	1968	3507	2907	-32768	7076	6336	1071	-32768	32767	-13600	-11176	-19828	-4707	-32768	32767	7348	-2740	-15976	18976	4281	12670	1	163	2
-5400	-9040	22044	-1086	7959	1123	-32768	-6344	8488	597	-454	-175	-32768	7816	13720	2082	3491	2790	-32768	-5652	24	-2927	-31162	32767	-12852	-20788	-28320	-17567	-32768	32767	11732	4180	-11064	-6011	3654	2928	1	242	2
-25336	-996	18184	-1966	10045	1175	-32768	-9256	16264	-772	-890	280	-27688	-11536	32767	1977	3152	2061	-32768	-18072	-20028	-6314	-21086	32767	-12748	-21064	-32768	-24875	-32768	20075	4456	7860	-308	-23458	-7148	5825	1	53	2
-32768	15740	5560	-2828	9611	-460	-27664	-11568	12320	-1590	617	1541	-13888	-16304	32767	-326	1675	-142	-32768	-32756	-32768	-11216	-13621	32767	-5568	-22076	-32768	-32768	-27942	2802	-2404	9176	11004	-22457	-9094	8336	29	65	2
-15792	-32768	6444	1388	7644	2841	2864	-22096	31888	-2028	2416	2526	-20728	-17280	32767	-678	-356	-1090	-32768	-32768	-32768	-6413	-1763	7214	7540	-25800	-32768	-23839	-10571	-5183	1540	-896	18476	-11514	-620	5137	253	227	2
-32768	5820	4988	4986	9753	1557	-10400	-5392	11048	1391	4671	1879	1096	-22648	31608	-3591	-1786	769	-32768	-25196	-32768	1613	2918	-9546	17460	-22164	-32768	1079	15811	-6053	6600	-12044	932	11930	15993	-1009	153	136	2
-32768	10844	32767	782	5114	525	-29784	-1000	544	2323	5876	2370	-6288	216	11384	-315	-1898	-1	-32768	-6784	-32768	13183	29062	-27694	1472	-16560	-19332	15571	32767	-8715	1916	-24036	-22096	23757	29426	-8164	119	55	2
-32768	3232	32767	-3000	1065	2539	-32768	5152	7160	-1441	4528	1820	-19568	14608	5384	1274	-2449	21	22852	28876	19528	1243	19658	-4208	-17016	15664	18036	32767	28475	-12479	-8688	-2088	25856	-1834	328	-4474	183	242	2
-30936	-11668	29008	-5397	-1013	3615	-29384	-16	2392	-4462	3090	807	-22696	17472	4360	599	-3152	-353	-32768	-8136	23392	-29648	24284	-32768	-32768	-11876	-32768	-32768	32767	13084	-32768	12872	-4952	22761	27829	-6294	120	1	2
-30260	-24108	23632	-5198	-2086	3117	-27344	-7056	-1944	-4749	2009	455	-32768	-1384	3032	-277	-3526	-832	-32768	472	7252	1448	5017	-22101	-17012	-20448	-12928	1429	32767	-32768	-26956	-20284	-14984	373	9142	2535	253	85	2
-22596	-30040	19672	-2545	-2935	2232	-32672	-5816	-8088	-4222	1166	-83	-32768	-13256	-4360	408	-4273	-1237	-20580	3300	9416	-7143	10564	-7484	23236	-18476	-9744	3	11820	-1679	-8052	-9532	-15032	21138	17173	688	187	223	2
-13836	-23136	17576	85	-3124	1286	-22824	-6104	-13960	-2505	59	-185	-32768	-10008	-3136	2145	-4850	-1679	-13664	3276	8840	-851	9525	-2625	-4552	1332	-23896	5070	32767	-9211	-5100	12508	-18012	19006	14130	-8601	107	0	2
-15524	-11884	16208	1053	-4061	-367	-14624	-2504	-20296	132	-845	-591	-32768	-5216	-5024	2140	-4990	-2217	-14172	2052	10412	-153	7486	-3231	-20768	-3492	-19856	13381	29055	-10795	-24024	16256	-17296	15003	15084	-14504	253	28	2
-11732	-6888	14132	433	-5568	-1726	-12392	-1184	-19520	2322	-2280	-1244	-32768	-1224	-17296	873	-5333	-1953	-14856	7476	8556	-1148	8749	-2475	-22064	-5232	-21096	11516	25596	-11122	-32768	4652	-14468	-2889	21105	-5606	187	172	2
-14668	-3816	12784	-823	-6733	-2344	-10216	6864	-22104	3607	-4022	-2307	-32768	2032	-21392	-61	-5413	-1722	-16100	5080	11464	-1926	6799	-5640	-15164	-10648	-25564	-3065	14102	-12370	-31100	14152	-16456	1916	24052	-13068	0	62	2
-16748	-2212	12496	-2267	-7436	-2922	-10480	9352	-19232	3146	-5724	-3019	-32768	6216	-22552	-624	-4928	-1630	-16532	10312	20932	-4994	10291	-10163	-23904	-9652	-18056	2746	7163	-10221	-32768	14592	-8484	935	24250	-11738	0	197	2
-23848	-3144	14240	-3053	-7663	-3313	-10416	9280	-18488	1479	-7086	-3467	-16448	8544	-22712	-554	-3037	-1355	-15872	4448	20012	-4558	17952	-10616	-32296	-19708	-17460	220	1041	-8321	-32768	8012	-4872	-21736	32767	-13714	3	159	2
-32768	-6312	13896	-3479	-7986	-3969	-9872	9416	-18368	43	-7710	-4055	-5416	13200	-21704	-1111	-1259	-680	-10168	7132	21720	-4511	28637	-10034	-32768	-19332	-7748	-4058	-5593	-5099	-32768	-7364	5176	-32768	30960	-15753	238	148	2
-32768	-3720	8476	-1928	-7399	-5694	-9440	6328	-21624	388	-7649	-4514	19960	8984	-19840	-3461	309	-333	-9260	6920	21448	1061	32767	-14939	-32768	-18500	-392	-3029	-9764	2606	-32768	-16360	12908	-28563	30226	-19154	253	179	2
-32768	10556	2260	-1553	-6407	-6811	-4648	7224	-27136	1874	-6974	-4157	20784	-896	-15344	-1890	635	241	-23896	4112	18524	7736	32767	-17226	-32768	-11160	7292	1871	-8665	5461	-31632	1492	13764	-16441	32767	-13065	0	242	2
-32768	12608	-6032	-881	-5722	-5557	-5352	2504	-32400	3305	-5745	-3361	16072	-4960	-9112	734	1024	451	-32768	12044	18860	9534	32767	-16082	-32768	8284	19492	-1223	-9362	-2461	-25632	17368	32767	-4128	26841	-7658	0	242	2
-32768	32767	-21948	-1162	-5084	-3115	-12400	8376	-32768	5007	-4072	-2087	4088	-9608	2000	1281	-208	-164	-32768	-2968	7288	-11397	32767	-28063	-21696	17920	26284	-25450	-257	-15416	-10432	48	32767	-32768	-95	-1488	154	78	2
-32768	27664	-32768	-1317	-3737	66	-18040	22424	-32768	2243	-1820	-111	-5312	-10024	12512	1259	-487	-808	-2796	28668	7996	-30759	32767	-22454	-4772	8596	25300	-32768	9027	-21167	852	-14888	32767	-30052	-13454	-4439	179	53	2
-32768	24528	-32768	211	-1310	1415	3240	24768	-32768	-2852	-32	0	-5416	-1864	12968	-119	329	-584	-32768	-7688	20528	-32768	32767	-16299	-12712	-12636	-6936	-32768	28486	-18537	-24	-20936	30640	8191	-5142	-8539	227	52	2
-32768	24572	-32768	10	1300	650	5664	12624	-32768	-3571	1759	689	3984	9112	4232	-3463	1474	190	-32768	-16780	31500	-14580	23731	-3640	-32768	-30588	1516	-17260	32513	-18300	-14916	-17188	5488	27635	-10304	-8557	107	180	2
-32768	14348	-14196	-303	3178	2119	1488	-3800	-4824	-3653	2400	1402	2536	22016	-14600	-3718	3329	1896	-32768	-6512	28076	32767	2819	-1052	-32768	-15984	4072	31570	32767	-12296	-18420	-15992	9764	17766	-20096	-5994	176	0	2
29900	-32768	32767	-99	5570	3110	-17760	-32768	32767	-6657	868	-412	-32768	-17392	32767	91	-2486	423	-32768	27984	21032	32767	-15679	-15348	-30068	5440	664	32767	32767	-8181	-14952	-14452	2304	17924	-24092	-3346	253	76	2
-32768	32767	9188	4054	5827	4107	-32768	27888	-32768	9689	7607	-1238	-29664	-32768	-32768	-1179	2046	83	-31832	30008	13508	32767	-29937	-26172	-32768	5448	-2736	32767	29888	-1961	-32768	7284	8632	25418	-22882	-5953	246	240	2
-32768	-32768	-9564	-33	1604	376	-17872	6464	-32768	-6231	5012	2929	-5520	21408	-26432	-668	2507	-494	-22872	31824	9192	31707	-32768	-22341	-32768	-2676	-10380	27265	23211	1381	-32768	17052	-3756	15955	-28108	-2103	253	20	2
-11960	-13392	12844	369	1014	396	12800	4416	-10392	-2489	3199	390	1888	2552	-13416	-3495	1931	1088	-11584	32767	7364	7243	-32768	-17722	-22964	3928	-14336	16849	7046	2201	-32768	20368	-4204	4788	-32768	6660	0	0	2
-12592	-5060	9664	565	443	579	5656	-8096	-30632	-77	3630	363	9984	-4344	-29840	-3276	1431	2375	-11996	24472	6316	-9089	-32768	-6589	-16216	2812	-18836	-1215	-6611	6352	-32768	6484	-8996	-1230	-32768	12928	253	141	2
-13104	-2352	9944	197	530	-145	-28288	432	-19952	250	3626	905	-32768	-4288	-10592	-1170	1681	2097	-11960	13952	5592	-7867	-32768	14201	-11272	-2792	-21696	-14029	-24177	12048	-32768	4400	-19092	-1430	-32768	18405	253	57	2
-13328	-7680	11552	-96	746	197	-22608	-240	-14496	764	2962	545	-32768	1960	-14552	-354	2637	985	-14416	11168	4328	3570	-32768	32375	-6204	-6112	-23856	-11931	-32768	18344	-32768	-500	-23492	-4382	-32768	20933	253	194	2
-15364	-2868	12004	-115	701	341	-17848	-440	-25200	-332	2008	334	-28000	-6608	-18696	-1354	3259	1380	-19852	13860	2588	9850	-32768	32767	-2920	-2532	-20028	-5149	-32768	26174	-30332	-3672	-24632	-5268	-32768	19297	97	133	2
-14328	-5816	13960	-190	442	347	-20104	-4816	-25848	-1064	808	243	-30696	-13472	-15808	-1119	3538	2484	-23396	13872	5968	8612	-32768	32767	-5720	-5088	-17540	2498	-32768	32475	-15280	-4464	-23068	-3161	-25732	18390	40	209	2
-13804	848	19868	-172	2091	931	-32768	-4976	-19816	-1496	211	108	-32768	-19592	-7416	-210	3535	2558	-27980	7648	8192	12215	-32768	32767	-8408	-6788	-13892	10965	-32768	32767	-2892	-6572	-21168	-1942	-9226	19983	0	241	2
-8612	-7560	24124	89	3769	809	-32768	-6280	-5512	-1209	-648	725	-32768	-8008	5496	1029	3661	2953	-32768	17056	5892	10832	-32768	32767	-9532	-6984	-17868	4721	-32768	32767	2740	-11368	-19848	2654	799	12907	0	240	2
-448	-4236	24692	-282	6363	902	-32768	-1792	6088	-546	-582	228	-32768	6144	12784	1410	3382	2967	-32768	8424	-1036	-1543	-32768	32767	-7908	-12392	-22520	-4619	-32768	32767	13796	-6260	-16052	8745	3723	7331	0	91	2
-4856	-5760	23792	-1501	9542	529	-32768	-11000	11848	-775	-910	287	-32504	-968	17016	650	3760	2821	-32768	-6376	-11804	-7280	-32768	32767	-8140	-18896	-32768	-13521	-32768	32767	14204	1104	-9224	-8700	2987	3231	0	104	2
-32768	756	9964	-2150	10401	960	-32768	-18624	22896	-1056	-971	928	-24480	-19784	32767	207	2966	1578	-32768	-24084	-32768	-6337	-21918	32767	-5824	-16604	-32768	-24740	-32768	20473	9132	4012	-896	-20877	-5877	6012	47	81	2
-32768	-13220	-100	-862	9188	1155	-9176	-20704	25240	-727	1273	2304	-12968	-26544	32767	424	1378	-1225	-32768	-32768	-32768	-306	-6480	32767	1432	-22352	-32768	-31771	-20912	3516	1264	3148	15260	-20881	-7527	4518	217	166	2
-15544	-29484	184	4432	8082	2260	1712	-15272	29072	1036	4185	2732	-13360	-16408	32767	801	-1239	-153	-32768	-30864	-32768	2497	-4278	-2456	8404	-28248	-32768	-11467	-5973	-4132	4436	-3564	10748	1272	4246	3945	254	151	2
-32768	13244	18040	6201	8266	720	-13240	-8120	4280	3525	5446	1740	2416	-6320	31408	-797	-1050	611	-32768	-24708	-32768	7620	-655	-18286	15480	-23196	-32768	13114	24264	-3332	4204	-20044	-9024	32767	27876	-2621	75	136	2
-32768	25620	32767	170	4321	1158	-32768	7848	4104	2494	5606	1514	-8752	12328	6048	547	-1798	-25	-28056	-18140	-10716	4881	24936	-14792	9524	-26736	-28196	25824	32010	-4036	-3184	-21900	-29952	19152	25797	-4169	253	169	2
-32768	12372	32767	-5493	538	2965	-32768	8864	5408	1808	5494	1454	-26848	21720	13616	-90	-3264	213	-10152	32767	20428	10534	32767	-32768	-32768	32767	32767	29579	32767	267	-32768	22188	32767	32756	-23103	-5726	235	0	2
-32768	-13092	23948	-8394	-1914	4057	-31976	-2216	-3128	-7121	2869	215	-30056	13464	1352	-1159	-3124	-437	32767	-32768	32767	-12547	528	-32768	-32768	-32768	-21088	-1313	32767	-32768	-32768	4768	-32768	-4056	14789	5647	89	59	2
-32768	-31256	18408	-6319	-3281	3563	-32768	-9048	-3112	-6622	1426	-384	-32768	-10424	-1152	-1670	-4469	-810	28364	-32768	32767	3110	4715	-26840	-460	-11076	-19476	-8297	17346	-20961	-9788	-21360	-19352	7039	13989	-4466	170	241	2
-16400	-32768	15976	-1411	-3495	2478	-32368	-6280	-12408	-5450	547	-189	-32768	-14224	-6512	1027	-4759	-1453	-14060	324	10316	618	4579	-6551	1000	-2564	-14748	513	32767	-5944	4228	11808	-18048	18348	11537	-6506	253	0	2
-15196	-21192	17112	1745	-3397	822	-18368	-3784	-17008	-2662	-135	-579	-32768	-11624	-7584	2207	-4525	-2449	-15484	3180	6160	-1102	6563	-4245	-19376	1536	-19820	12754	32767	-8978	-18460	24608	-18880	17753	21601	-14734	253	105	2
-12016	-3348	17472	732	-5001	-2013	-11688	-4424	-19752	1013	-1453	-777	-32768	-4248	-14808	1569	-4943	-2081	-14860	7104	8484	-1176	7363	-4333	-20732	-3256	-21428	2985	23907	-16567	-32768	4644	-18572	-3071	22283	-9297	215	36	2
-12476	-6184	14432	-1273	-6538	-3102	-9456	2560	-21424	3895	-3290	-2068	-32768	4552	-23512	-331	-5193	-569	-16116	6136	10076	-3153	5929	-6775	-17632	-8596	-27056	-1917	13891	-15035	-32256	12868	-18568	1345	26385	-9131	0	47	2
-14408	-3456	13492	-2293	-7527	-3018	-8328	6248	-19024	4200	-4904	-3417	-32768	5336	-23984	-1093	-6107	-2088	-15292	9304	15548	-2069	4458	-11789	-19784	-7168	-24548	-882	4776	-11193	-32768	15744	-12728	-2116	29102	-13564	87	120	2
-20524	-1288	13556	-3531	-7751	-3576	-11272	10264	-17840	3627	-6391	-3957	-22160	7816	-23752	-841	-3547	-1620	-16384	5372	21968	-6112	16182	-11060	-32768	-22124	-17844	-496	-974	-8014	-32768	9516	-5580	-18413	32767	-11130	15	180	2
-26752	-4804	13936	-4415	-7754	-4419	-12312	12416	-18872	1249	-7563	-4100	-6248	11032	-22264	-1029	-1598	-1085	-8744	8032	24556	-5216	30148	-13449	-32768	-20280	-4436	-3888	-8472	-5359	-32768	-8292	5516	-32768	32767	-18058	253	212	2
-32768	-7560	11028	-3145	-7334	-6262	-8752	9456	-22472	485	-7666	-4442	10344	14440	-21520	-2911	38	-357	-9596	7276	25820	1405	32767	-17261	-32768	-18604	6536	-3603	-10836	1951	-32768	-21840	13828	-32768	31059	-19418	253	205	2
-32768	11012	4916	-1787	-6413	-7777	-3992	13288	-25536	1347	-7255	-4262	19920	2000	-17120	-1890	445	81	-21440	9036	20864	8741	32767	-20359	-32768	-6476	12356	278	-11565	7139	-32492	-1164	18592	-23602	32767	-10324	0	219	2
-32768	14784	-5520	-1205	-5475	-7478	-2368	6456	-32664	1801	-6195	-3521	19368	-3368	-13672	513	1003	478	-31728	4812	14432	4595	32767	-24718	-32768	10908	22592	-11892	-5953	-2659	-23620	4136	32767	-8875	20573	-6946	146	178	2
-32768	32767	-20936	-532	-4957	-3919	-6432	2672	-32768	4456	-4380	-2779	7112	-6168	-3336	990	-52	181	-32768	9256	6040	-10262	32767	-21132	-10656	13152	23252	-32768	3636	-18963	-7548	-6564	32767	-32768	-4535	-865	234	74	2
-32768	32767	-32768	-1287	-4085	-392	-14168	23392	-32768	4239	-1781	-647	-2608	-8672	8128	1361	-446	-424	-24300	9900	-7992	-32768	32767	-24060	-848	5464	21348	-32768	16741	-16540	-3848	-12696	32767	-5072	-10546	-4323	189	98	2
