#Activity	standing 
#ActivityID	8 
#Date 08-20-11-47
acc_rf_x	acc_rf_y	acc_rf_z	gyro_rf_x	gyro_rf_y	gyro_rf_z	acc_rs_x	acc_rs_y	acc_rs_z	gyro_rs_x	gyro_rs_y	gyro_rs_z	acc_rt_x	acc_rt_y	acc_rt_z	gyro_rt_x	gyro_rt_y	gyro_rt_z	acc_lf_x	acc_lf_y	acc_lf_z	gyro_lf_x	gyro_lf_y	gyro_lf_z	acc_ls_x	acc_ls_y	acc_ls_z	gyro_ls_x	gyro_ls_y	gyro_ls_z	acc_lt_x	acc_lt_y	acc_lt_z	gyro_lt_x	gyro_lt_y	gyro_lt_z	EMG_r	EMG_l	act
-7796	-4536	13324	0	-71	-177	-16516	-2232	-1352	101	356	229	-15900	-1708	-2028	-297	-611	80	-8716	5820	13240	122	-190	-180	-15248	3840	-4640	-86	-223	-22	-16308	144	1692	-145	794	148	126	125	8
-7860	-4520	13292	-37	-80	-170	-16472	-2048	-1308	-150	232	230	-15884	-1568	-2048	-359	-472	105	-8756	5720	13228	118	-203	-185	-15256	3788	-4712	-5	-345	-48	-16268	-76	1936	-284	541	81	127	125	8
-7748	-4448	13404	-106	-45	-224	-16432	-1988	-1332	-643	197	154	-15932	-1676	-2076	-378	-184	95	-8628	5632	13244	99	-135	-185	-15256	3624	-4712	-68	-247	-75	-16120	-388	2040	-266	380	118	126	125	8
-7836	-4536	13304	-109	-50	-221	-16452	-2088	-1448	-671	169	142	-15992	-1736	-2244	-142	-107	69	-8652	5636	13248	78	-110	-126	-15272	3624	-4736	-198	-156	-101	-16132	-552	2180	-199	348	131	126	125	8
-7692	-4568	13332	-152	7	-229	-16444	-2204	-1444	-412	-81	129	-16012	-1588	-2076	-32	-80	50	-8680	5564	13232	92	-65	-77	-15208	3552	-4564	-182	-129	-134	-16160	-640	2320	-308	277	66	126	125	8
-7784	-4480	13296	-116	53	-291	-16380	-2096	-1316	-222	-199	66	-15924	-1604	-2152	-28	-32	68	-8688	5636	13124	66	-112	-33	-15156	3704	-4360	-140	-87	-144	-16120	-560	2364	-311	233	77	127	125	8
-7832	-4520	13368	-146	124	-251	-16556	-1976	-1152	-290	-235	60	-16212	-1320	-1572	129	40	6	-8692	5784	13140	51	-89	-49	-15352	3888	-4380	-284	62	-174	-16276	-440	2616	-106	350	80	126	125	8
-7688	-4516	13460	-194	149	-250	-16420	-1936	-1076	-511	-254	-38	-16208	-1076	-1260	-12	85	-27	-8656	5744	13112	47	38	-144	-15372	3764	-4540	-228	67	-230	-16428	-304	2296	149	462	74	127	125	8
-7856	-4468	13392	-209	121	-230	-16400	-2092	-892	-454	-255	1	-16372	-1004	-1232	-84	-76	-95	-8640	5796	13284	55	53	-192	-15444	3744	-4500	-19	125	-174	-16492	-324	2184	203	516	54	126	125	8
-7636	-4520	13480	-226	112	-173	-16440	-2048	-992	-270	-169	-92	-16280	-1340	-1012	-283	-271	-131	-8580	5696	13248	112	200	-265	-15424	3720	-4376	6	151	-187	-16368	-264	2008	207	447	-23	127	125	8
-7780	-4552	13392	-186	127	-201	-16356	-2032	-1012	-221	-82	-92	-16204	-1496	-1040	-124	-320	-190	-8616	5628	13296	150	254	-287	-15232	3704	-4608	164	231	-212	-16260	-228	1940	170	190	-61	127	125	8
-7732	-4656	13184	-220	164	-132	-16396	-2156	-876	-87	-44	-153	-16276	-1600	-928	-81	-312	-201	-8656	5724	13228	126	245	-281	-15260	3644	-4636	-112	266	-200	-16268	12	1836	85	-43	-141	127	125	8
-7760	-4664	13236	-224	162	-186	-16388	-2064	-1104	12	58	-202	-16140	-1484	-1196	68	-308	-207	-8796	5840	12956	102	374	-225	-15156	3664	-4532	62	330	-266	-16244	64	1640	-117	-293	-166	126	125	8
-7864	-4524	13296	-236	185	-171	-16372	-2044	-1016	-15	105	-264	-16168	-1424	-1280	-114	-418	-147	-8532	5296	13356	49	342	-291	-15224	3932	-4480	-238	338	-261	-16308	-112	1452	-50	-310	-228	126	125	8
-7860	-4624	13272	-225	218	-229	-16452	-2424	-972	194	126	-223	-16092	-1848	-1240	209	-396	-242	-8792	5780	13116	30	349	-351	-15204	3528	-4768	58	248	-267	-16352	-368	1192	-96	-403	-267	126	125	8
-7772	-4732	13268	-167	216	-212	-16380	-2260	-940	360	152	-215	-16032	-2216	-1252	511	-320	-243	-8684	5720	13028	18	292	-333	-15168	3516	-4952	141	197	-275	-16416	-540	1124	-158	-357	-230	126	125	8
-7784	-4636	13312	-124	205	-208	-16312	-2292	-1192	406	175	-242	-16064	-2148	-1392	661	-194	-197	-8852	5432	13388	-4	178	-355	-15036	3600	-4948	70	63	-213	-16296	-616	1332	-41	-330	-48	126	125	8
-7684	-4600	13376	-161	172	-243	-16404	-2372	-1104	581	172	-153	-16000	-1964	-1412	861	-124	-177	-8992	5800	13144	53	86	-212	-15120	3424	-4992	288	18	-180	-16248	-584	1148	132	-210	-5	126	125	8
-7812	-4624	13304	-56	191	-256	-16416	-2388	-1276	822	59	-125	-15984	-1860	-1736	1092	-89	-236	-8648	5432	13280	97	-44	-251	-15092	3480	-4884	102	-125	-156	-16180	-588	1224	490	12	54	126	125	8
-7724	-4528	13324	3	246	-249	-16424	-2264	-1224	927	41	-123	-15992	-1636	-1704	1057	-115	-255	-8856	5508	13080	102	-185	-227	-15052	3500	-4988	345	-254	-139	-16212	-520	1232	733	57	15	126	125	8
-7824	-4580	13272	-30	262	-260	-16404	-2372	-1260	775	-31	-127	-15992	-1512	-1860	1078	-114	-280	-8752	5572	13208	113	-294	-176	-15192	3476	-4896	332	-346	-152	-16248	-308	1288	807	38	44	126	125	8
-7804	-4524	13180	-102	265	-251	-16488	-2272	-1344	496	-142	-83	-16020	-1616	-1860	749	-67	-185	-8728	5612	13200	80	-267	-172	-15188	3564	-4944	289	-398	-212	-16252	-176	1472	729	84	24	126	125	8
-7888	-4676	13312	-101	326	-237	-16496	-2352	-1288	221	-192	-46	-15940	-1664	-1748	334	16	-219	-8716	5656	13084	74	-308	-128	-15220	3648	-4740	276	-478	-271	-16356	-60	1496	545	101	20	126	125	8
-7840	-4548	13372	-139	317	-231	-16364	-2452	-1180	-15	-257	-69	-16072	-1932	-1788	211	36	-227	-8732	5644	13168	50	-245	-93	-15200	3608	-4624	290	-492	-283	-16348	-16	1588	268	132	10	126	125	8
-7856	-4504	13340	-90	317	-193	-16464	-2368	-1356	83	-311	-32	-16116	-1880	-1624	234	45	-246	-8720	5484	13192	7	-314	-190	-15224	3660	-4656	121	-498	-279	-16276	32	1788	6	106	-5	126	125	8
-7776	-4568	13276	-168	322	-202	-16400	-2288	-1324	129	-335	3	-16072	-1812	-1432	240	58	-214	-8600	5672	13220	-76	-411	-172	-15100	3560	-4568	143	-389	-339	-16148	-108	1788	-53	170	-27	126	125	8
-7788	-4588	13244	-162	326	-197	-16364	-2376	-1080	145	-354	13	-16096	-1764	-1368	264	34	-202	-8688	5980	13100	-22	-381	-181	-15248	3600	-4608	108	-410	-388	-16160	-356	1884	-74	181	-80	126	125	8
-7664	-4656	13352	-159	344	-164	-16304	-2288	-1156	107	-356	2	-16120	-1688	-1248	158	98	-226	-8756	5440	13256	-33	-353	-221	-15216	3600	-4544	-66	-373	-341	-16172	-580	1840	-41	135	7	126	125	8
-7720	-4672	13424	-189	353	-116	-16256	-2288	-900	133	-283	27	-16104	-1816	-1068	107	-23	-199	-8676	5652	13168	-121	-394	-214	-15292	3324	-4776	-30	-296	-265	-16192	-808	1944	8	141	-1	126	125	8
-7840	-4656	13300	-155	368	-166	-16240	-2444	-844	319	-188	25	-16192	-2028	-956	340	-76	-156	-8668	5748	13168	-35	-414	-242	-15384	3264	-4580	95	-239	-288	-16360	-988	1900	-70	15	44	126	125	8
-7824	-4556	13280	-152	287	-179	-16324	-2256	-784	475	-88	25	-16212	-2160	-736	537	-105	-128	-8584	5404	13308	-26	-289	-237	-15300	3412	-4344	58	-243	-204	-16220	-948	1968	-42	-24	96	126	125	8
-7836	-4680	13264	-128	227	-185	-16344	-2420	-884	506	-34	-21	-16180	-2056	-912	662	-66	-108	-8580	5560	13300	-3	-289	-244	-15472	3248	-4440	61	-180	-207	-16316	-980	1924	38	-95	110	126	125	8
-7908	-4680	13200	-96	171	-181	-16336	-2456	-900	530	-3	-17	-16052	-1944	-1204	563	-84	-128	-8612	5564	13304	15	-191	-222	-15512	3220	-4408	50	-126	-177	-16320	-956	1852	308	-111	124	126	125	8
-7876	-4688	13348	-74	139	-196	-16292	-2344	-1104	485	4	-5	-16072	-1848	-1504	558	-96	-119	-8560	5500	13380	75	-52	-212	-15424	3236	-4384	47	-77	-189	-16372	-900	1864	475	-130	111	126	125	8
-7820	-4944	13140	-88	166	-170	-16380	-2416	-1044	391	-18	24	-16024	-1876	-1468	535	-141	-129	-8580	5540	13340	167	-74	-194	-15508	3276	-4440	161	-100	-75	-16304	-808	1828	593	-110	45	126	125	8
-8060	-4800	13216	-48	229	-160	-16400	-2412	-1000	443	34	-25	-16128	-2004	-1336	535	-93	-88	-8620	5516	13376	202	34	-200	-15412	3328	-4552	174	-106	-53	-16368	-696	1676	566	-104	76	126	125	8
-7804	-4552	13148	-97	163	-111	-16332	-2576	-976	552	42	50	-16124	-2108	-1248	522	-120	-66	-8628	5580	13208	234	90	-161	-15392	3344	-4704	180	-86	-62	-16352	-476	1584	502	-56	107	126	125	8
-7848	-4704	13232	-50	76	-162	-16384	-2492	-1212	454	-39	74	-15944	-2060	-1364	598	-100	-70	-8672	5552	13268	223	104	-129	-15292	3384	-4592	166	-120	-62	-16312	-384	1480	322	-32	101	126	125	8
-7756	-4528	13284	-92	102	-184	-16432	-2276	-1068	248	17	50	-16084	-2016	-1508	524	2	-15	-8656	5328	13268	233	109	-102	-15188	3436	-4544	150	-110	-74	-16180	-280	1552	103	-83	74	126	125	8
-7788	-4504	13260	-95	69	-239	-16436	-2440	-1072	90	16	-21	-16076	-1948	-1520	600	-47	-34	-8772	5548	13256	168	-2	-130	-15260	3464	-4636	162	-100	-123	-16128	-320	1536	-8	-146	90	126	125	8
-7772	-4528	13300	-143	82	-210	-16400	-2512	-976	8	14	58	-16000	-1888	-1380	426	-19	-42	-8704	5708	13200	135	19	-154	-15128	3500	-4532	1	-99	-105	-16192	-376	1644	1	-105	62	127	125	8
-7920	-4612	13256	-92	96	-261	-16332	-2480	-1056	195	-60	32	-16032	-2028	-1488	334	30	-10	-8628	5616	13244	116	37	-143	-15260	3476	-4444	-8	-98	-70	-16200	-480	1524	22	-109	73	126	125	8
-7888	-4620	13264	-141	138	-281	-16352	-2424	-980	112	-57	99	-16148	-2004	-1376	367	10	-42	-8632	5676	13160	85	-116	-158	-15180	3472	-4512	-16	-100	-74	-16144	-428	1520	-41	-128	155	126	125	8
-8064	-4780	12996	-104	193	-273	-16360	-2432	-1108	19	-93	98	-16140	-1908	-1396	323	-13	-40	-8616	5672	13232	70	-125	-181	-15396	3448	-4584	-72	-107	-105	-16344	-516	1780	-16	-64	148	127	125	8
-7876	-4572	13244	-155	167	-200	-16268	-2460	-1072	50	-85	107	-15980	-1684	-1488	75	-27	-33	-8660	5484	13336	50	-76	-203	-15292	3352	-4516	32	-128	-105	-16316	-524	1748	-75	-42	177	127	125	8
-7824	-4596	13212	-67	195	-163	-16388	-2464	-1080	68	-107	163	-16192	-1924	-1324	40	-71	-4	-8580	5496	13284	97	-87	-139	-15348	3368	-4436	22	-81	-62	-16236	-540	1676	-152	-10	164	127	125	8
-7876	-4624	13252	-38	196	-115	-16368	-2416	-928	48	-112	137	-16132	-2044	-1248	64	-79	-19	-8612	5564	13280	87	-48	-144	-15380	3396	-4384	-115	-59	-124	-16304	-644	1788	-165	55	185	127	125	8
-7840	-4616	13260	-120	177	-111	-16368	-2384	-996	100	-127	147	-16136	-2000	-1116	48	-46	-10	-8548	5520	13252	118	-6	-133	-15388	3356	-4500	-126	-45	-104	-16312	-668	1648	-125	15	172	126	125	8
-7856	-4612	13192	-103	170	-111	-16368	-2388	-1052	-16	-59	91	-16196	-1900	-1228	-9	-48	11	-8624	5608	13244	22	106	-132	-15324	3260	-4528	-361	4	-128	-16308	-620	1636	-87	54	173	126	125	8
-7928	-4672	13136	-120	164	-150	-16332	-2440	-952	-123	-45	66	-16028	-1776	-1352	-133	-102	-27	-8664	5760	13208	117	93	-136	-15412	3264	-4464	-78	56	-110	-16208	-620	1752	-142	-80	123	126	125	8
-7864	-4648	13264	-104	91	-117	-16344	-2444	-1064	-137	-14	74	-16148	-1880	-1352	-178	-111	-44	-8536	5540	13268	103	32	-134	-15240	3480	-4392	-114	71	-43	-16116	-528	1848	-219	-31	115	126	125	8
-7836	-4612	13252	-141	129	-127	-16416	-2364	-1068	-111	-19	90	-16104	-1936	-1276	-92	-79	-37	-8648	5564	13316	69	0	-193	-15292	3436	-4512	-167	82	-66	-16112	-588	1784	-252	-42	154	126	125	8
-7852	-4588	13340	-142	106	-162	-16324	-2400	-1020	12	-32	111	-15984	-2148	-1304	26	-87	34	-8620	5616	13248	56	-11	-167	-15336	3400	-4400	-202	116	-26	-16160	-616	1720	-239	-183	182	126	125	8
-7916	-4568	13200	-129	106	-167	-16332	-2440	-976	70	4	169	-16112	-2308	-1308	101	-5	87	-8556	5576	13392	45	7	-236	-15280	3316	-4564	-163	153	-8	-16260	-756	1528	-199	-178	174	126	125	8
-7872	-4616	13120	-102	116	-183	-16380	-2520	-1024	68	-17	157	-16100	-2280	-1460	243	5	68	-8680	5576	13304	72	-69	-241	-15328	3328	-4604	-47	150	38	-16316	-780	1652	-162	-162	258	126	125	8
-7920	-4644	13188	-119	95	-180	-16340	-2464	-1040	6	24	186	-16092	-2084	-1312	252	46	116	-8624	5544	13276	99	-13	-229	-15420	3352	-4568	-76	88	21	-16372	-664	1656	-59	-188	233	126	125	8
-7916	-4580	13232	-66	79	-153	-16440	-2524	-1028	15	14	224	-16072	-1940	-1280	230	48	122	-8620	5500	13268	129	-7	-182	-15484	3308	-4584	-71	82	34	-16372	-716	1572	29	-47	256	127	125	8
-7932	-4492	13336	-49	68	-142	-16432	-2492	-1020	76	28	241	-16044	-2004	-1416	301	65	65	-8620	5480	13320	155	90	-144	-15412	3264	-4560	-49	72	46	-16384	-636	1584	55	25	305	127	125	8
-7896	-4624	13152	-54	73	-174	-16308	-2436	-904	200	-4	237	-16108	-1916	-1284	210	10	103	-8644	5428	13296	191	115	-127	-15300	3216	-4604	27	46	18	-16228	-700	1616	-14	-4	276	126	125	8
-7928	-4676	13228	-50	72	-133	-16304	-2404	-940	54	29	200	-16104	-1880	-1100	121	51	121	-8636	5608	13120	197	94	-107	-15304	3396	-4500	6	96	39	-16160	-608	1592	-96	-58	258	126	125	8
-7856	-4572	13260	-14	17	-146	-16328	-2420	-1008	-46	56	197	-16064	-1860	-1252	86	43	92	-8664	5628	13192	192	84	-83	-15332	3440	-4484	-139	94	82	-16236	-508	1760	-99	-82	220	127	125	8
-7888	-4564	13176	-39	47	-145	-16384	-2404	-1104	-44	60	206	-16080	-1844	-1412	73	35	97	-8652	5632	13264	215	155	-105	-15396	3428	-4568	-114	93	18	-16268	-392	1532	-67	-89	223	127	125	8
-7872	-4592	13284	-55	53	-125	-16344	-2396	-1116	25	26	201	-16112	-1904	-1364	93	35	49	-8680	5648	13160	203	125	-135	-15316	3528	-4492	-45	57	11	-16260	-328	1532	-76	-25	244	127	125	8
-7820	-4472	13308	-76	83	-139	-16408	-2436	-1008	55	34	194	-16108	-1888	-1260	206	40	103	-8620	5632	13180	170	134	-145	-15248	3412	-4508	-11	87	56	-16244	-324	1676	-131	-53	251	126	125	8
-7872	-4540	13352	-70	90	-123	-16408	-2412	-996	126	20	213	-16092	-1708	-1340	186	63	112	-8592	5636	13052	183	97	-148	-15260	3548	-4580	-17	98	42	-16128	-388	1704	-312	-56	210	127	125	8
-7832	-4636	13248	-84	63	-158	-16356	-2352	-1000	-55	-25	212	-16100	-1796	-1308	12	-14	127	-8612	5668	13192	133	23	-170	-15236	3564	-4528	-110	146	12	-16188	-360	1676	-259	-108	215	127	125	8
-7864	-4520	13360	-56	54	-131	-16404	-2360	-936	-120	39	228	-16116	-1860	-1228	-1	23	70	-8652	5640	13208	125	39	-165	-15300	3476	-4560	-124	107	-7	-16200	-296	1600	-128	-82	203	127	125	8
-7912	-4532	13272	-43	100	-125	-16396	-2380	-1176	-36	6	190	-16124	-1780	-1368	36	17	56	-8692	5612	13252	117	37	-148	-15280	3468	-4564	-81	115	-15	-16284	-404	1656	-109	-21	196	127	125	8
-7904	-4592	13280	-105	121	-169	-16368	-2300	-1048	54	30	215	-16080	-1804	-1208	95	23	51	-8656	5564	13256	90	75	-165	-15312	3412	-4648	-34	138	-26	-16296	-388	1756	-218	-23	208	126	125	8
-7852	-4596	13220	-96	129	-165	-16324	-2428	-888	68	63	159	-16144	-1820	-1260	107	25	62	-8684	5580	13172	97	33	-135	-15224	3436	-4516	-23	166	-16	-16196	-540	1632	-407	-11	214	126	125	8
-7828	-4560	13280	-91	87	-173	-16364	-2368	-952	135	20	166	-16100	-1868	-1224	63	-15	19	-8680	5632	13224	106	53	-155	-15404	3432	-4468	-23	202	-5	-16252	-468	1856	-539	-99	185	126	125	8
-7892	-4616	13340	-85	69	-168	-16396	-2428	-1000	5	59	170	-16096	-1988	-1280	37	33	5	-8628	5592	13292	132	103	-147	-15324	3408	-4540	-33	222	-2	-16360	-484	1944	-498	-98	171	127	125	8
-7892	-4552	13264	-33	87	-145	-16412	-2408	-1096	14	80	139	-16052	-1948	-1336	130	51	-3	-8600	5540	13384	118	186	-134	-15428	3376	-4524	-92	236	-14	-16304	-552	1868	-470	-69	132	126	125	8
-7856	-4552	13316	-28	43	-135	-16324	-2372	-1104	134	30	156	-16092	-1876	-1312	229	91	4	-8716	5564	13364	118	292	-107	-15348	3420	-4632	-64	307	-13	-16352	-552	1860	-572	-87	149	127	125	8
-7872	-4564	13324	-29	91	-156	-16428	-2284	-1068	168	49	130	-16100	-1608	-1424	119	66	20	-8664	5536	13240	169	336	-91	-15380	3508	-4472	19	345	-30	-16272	-636	1888	-624	-175	149	126	125	8
-7860	-4600	13220	-11	105	-158	-16368	-2420	-1028	114	83	80	-16124	-1792	-1388	138	30	-16	-8576	5528	13164	113	423	-88	-15264	3460	-4496	-194	419	-5	-16264	-600	2092	-475	-194	117	126	125	8
-7880	-4604	13224	-61	70	-195	-16368	-2364	-1100	94	60	75	-16132	-1800	-1240	224	31	-38	-8700	5948	13076	179	494	-55	-15376	3312	-4668	-83	514	-38	-16256	-644	1920	-514	-251	-4	127	125	8
-7772	-4536	13244	-10	136	-179	-16372	-2360	-1004	46	30	41	-16128	-1788	-1212	243	58	-5	-8752	5260	13304	215	522	-118	-15224	3616	-4572	-235	495	-72	-16172	-516	2024	-597	-427	12	126	125	8
-7792	-4592	13244	-74	58	-198	-16344	-2256	-1068	31	91	59	-15980	-1756	-1292	166	97	-31	-8800	5836	13172	155	504	-123	-15336	3468	-4524	116	592	-69	-16208	-420	1924	-538	-379	16	126	125	8
-7884	-4536	13240	-132	3	-212	-16408	-2388	-1132	51	11	71	-16072	-1784	-1520	191	64	-28	-8628	5692	13228	120	563	-193	-15244	3692	-4700	-362	633	-61	-16260	-440	1972	-464	-241	134	126	125	8
-7872	-4528	13360	-82	75	-197	-16348	-2428	-960	21	34	32	-16072	-1816	-1364	50	57	-6	-8752	5700	13212	118	620	-258	-15340	3488	-4748	-155	653	-36	-16276	-516	1856	-536	-346	103	126	125	8
-7820	-4588	13092	-103	8	-239	-16344	-2376	-1012	-182	75	30	-16176	-1864	-1244	19	147	-74	-8632	5852	12972	24	548	-326	-15316	3476	-4756	46	626	-70	-16236	-496	1680	-515	-420	92	126	125	8
-7780	-4520	13292	-58	52	-227	-16408	-2476	-1076	-148	114	25	-16152	-1848	-1264	-9	122	-96	-8760	5676	13160	94	646	-264	-15220	3436	-4764	-223	709	-67	-16260	-544	1740	-439	-309	62	126	124	8
-7784	-4536	13336	-112	71	-235	-16352	-2324	-1092	-57	100	-63	-16076	-1688	-1224	-5	31	-74	-8756	5580	13180	67	655	-276	-15328	3344	-4940	-24	615	-36	-16288	-452	1780	-644	-345	26	126	125	8
-7600	-4712	13288	-145	57	-178	-16392	-2396	-1048	-36	101	-24	-16164	-1728	-1140	39	-10	-62	-8784	5792	13120	14	691	-187	-15244	3344	-4804	38	666	-131	-16260	-472	1736	-721	-327	-18	126	125	8
-8020	-4680	13448	-167	82	-218	-16296	-2408	-1084	-45	113	-83	-16096	-1764	-1268	55	42	-98	-8904	5504	12928	64	831	-193	-15128	3568	-4772	-59	663	-134	-16236	-396	1676	-805	-259	-1	127	125	8
-7924	-4620	13356	-101	32	-141	-16256	-2388	-960	-75	122	-64	-16088	-1860	-1188	-17	66	-86	-9032	5396	13216	115	710	-122	-15164	3560	-4880	-245	679	-138	-16280	-556	1636	-794	-315	39	126	125	8
-7932	-4468	13320	-114	26	-184	-16384	-2368	-1188	-258	129	-95	-16136	-1820	-1488	-120	59	-162	-8988	5672	13088	113	694	-217	-15244	3412	-4988	-155	699	-147	-16280	-616	1588	-802	-354	-63	126	125	8
-7948	-4480	13320	-119	67	-156	-16396	-2420	-1120	-177	144	-2	-16032	-1664	-1480	-168	19	-124	-8812	5900	12920	-1	706	-184	-15188	3348	-5072	-213	641	-156	-16240	-584	1652	-646	-301	-123	126	125	8
-7876	-4344	13508	-115	23	-202	-16352	-2396	-876	-194	180	0	-16080	-1796	-1256	-237	-38	-100	-8992	5576	13052	139	743	-153	-15104	3448	-4928	-108	614	-135	-16272	-720	1588	-505	-168	-26	126	125	8
-7868	-4604	13372	-122	27	-188	-16356	-2472	-1168	-307	199	-88	-15992	-1996	-1240	-149	81	-146	-9148	5436	12836	276	777	-137	-15080	3556	-5056	-110	608	-104	-16300	-732	1520	-343	-144	107	126	125	8
-7748	-4744	13232	-82	-30	-191	-16364	-2480	-1068	-163	171	-58	-16112	-2116	-1140	33	73	-96	-8968	5176	13300	174	539	-307	-15160	3644	-4772	-58	531	-122	-16280	-600	1472	-276	-121	87	126	125	8
-7820	-4584	13244	-50	9	-206	-16296	-2440	-1148	89	231	-57	-16164	-2044	-1216	139	127	-76	-8936	5768	12932	76	573	-294	-15116	3292	-5296	-77	445	-117	-16232	-784	1488	-64	-69	222	126	125	8
-8008	-4472	13168	-84	30	-200	-16372	-2460	-1160	30	233	-22	-16000	-1788	-1352	184	98	-131	-9048	5800	12908	201	517	-200	-15064	3332	-5296	110	419	-109	-16308	-604	1456	-99	-40	126	126	125	8
-7736	-4736	13280	-96	-21	-202	-16388	-2552	-1236	58	220	-40	-15972	-1812	-1548	99	77	-142	-8936	5328	13120	208	353	-305	-15056	3492	-5016	197	290	-46	-16216	-804	1380	231	-67	221	126	125	8
-7796	-4648	13316	-67	8	-152	-16352	-2488	-1272	20	189	-61	-16140	-1912	-1736	3	98	-162	-9080	5556	12932	169	283	-299	-14960	3492	-5216	217	212	-60	-16228	-552	1280	217	37	15	126	125	8
-7676	-4664	13368	-108	21	-170	-16360	-2408	-1144	7	171	-60	-16060	-1960	-1576	134	93	-143	-9052	5640	13000	202	206	-243	-15092	3240	-5176	133	198	-75	-16208	-564	1380	189	9	129	127	125	8
-7788	-4496	13252	-103	124	-166	-16420	-2568	-1288	102	133	-31	-16080	-2108	-1656	246	108	-72	-9180	5524	12916	124	232	-208	-15072	3340	-5184	101	224	-104	-16344	-440	1340	132	-16	18	126	125	8
-7684	-4592	13180	-129	147	-189	-16364	-2524	-1168	196	132	-47	-16120	-2036	-1384	295	67	-82	-9032	5616	13012	172	169	-138	-15128	3316	-5224	88	139	-77	-16288	-536	1500	-11	-28	-11	126	125	8
-7784	-4632	13316	-82	94	-216	-16268	-2568	-1152	255	70	5	-16044	-2024	-1436	315	119	-103	-9052	5520	12952	173	182	-104	-15040	3360	-5312	101	110	-112	-16304	-532	1548	47	-29	-17	126	125	8
-7796	-4568	13380	-90	129	-187	-16344	-2444	-1228	135	53	19	-16052	-2000	-1616	372	110	-104	-9080	5540	12896	168	118	-122	-15204	3492	-5040	120	63	-127	-16192	-584	1640	152	-5	26	126	125	8
-7880	-4472	13424	-42	131	-185	-16328	-2500	-1376	183	8	-40	-16112	-1916	-1600	428	124	-141	-9064	5624	13000	148	135	-146	-15092	3460	-5044	62	43	-139	-16184	-568	1600	49	5	-43	126	125	8
-7816	-4564	13368	-128	130	-199	-16332	-2508	-1320	186	-2	-38	-16100	-1868	-1440	465	107	-128	-9076	5612	12932	151	105	-184	-15088	3452	-5060	91	34	-158	-16208	-648	1740	52	-10	26	126	125	8
-7816	-4544	13328	-118	164	-227	-16292	-2472	-1236	167	13	-6	-16188	-1932	-1520	369	83	-69	-9148	5644	12940	112	63	-175	-15048	3428	-5092	90	55	-146	-16252	-632	1656	58	-29	29	126	125	8
-7836	-4560	13200	-114	109	-172	-16328	-2572	-1284	188	-18	8	-16100	-1984	-1488	314	54	-120	-9100	5656	12948	117	-30	-217	-15052	3400	-5112	106	8	-140	-16184	-668	1652	119	-67	46	126	125	8
-7768	-4580	13360	-118	159	-174	-16324	-2508	-1356	178	-14	-41	-16120	-1948	-1632	305	10	-156	-9132	5616	12884	36	-5	-200	-15056	3376	-5012	137	-11	-107	-16132	-832	1672	276	-72	191	126	125	8
-7776	-4560	13324	-121	123	-233	-16332	-2564	-1280	149	-40	-11	-16104	-2020	-1496	287	-6	-124	-9148	5568	12860	54	-136	-197	-15096	3412	-5152	157	53	-105	-16192	-692	1764	75	-79	64	126	125	8
-7812	-4560	13296	-101	150	-228	-16360	-2572	-1332	166	-57	5	-16116	-2172	-1564	356	-5	-114	-9108	5572	12900	34	-131	-194	-15192	3364	-5172	168	-17	-150	-16344	-680	1692	254	-72	145	126	125	8
-7736	-4584	13260	-134	172	-240	-16316	-2664	-1224	267	-13	20	-16116	-2232	-1476	379	56	-54	-9128	5468	12932	50	-95	-196	-15264	3248	-5084	416	-28	-141	-16296	-924	1664	311	-84	134	126	125	8
-7860	-4568	13396	-107	146	-207	-16304	-2600	-1208	151	-56	22	-16076	-2048	-1516	284	34	-60	-9076	5588	12960	93	-36	-219	-15232	3276	-5132	605	-28	-115	-16408	-928	1604	287	-65	183	126	125	8
-7836	-4568	13328	-76	144	-149	-16356	-2612	-1128	36	-49	35	-16080	-2064	-1460	155	-20	-59	-9108	5576	12980	98	37	-200	-15144	3380	-5184	538	-59	-129	-16404	-692	1684	272	-30	196	126	125	8
-7852	-4576	13332	-110	123	-158	-16316	-2632	-1240	49	-51	65	-16044	-1952	-1440	201	-29	-103	-9268	5936	12756	147	69	-160	-15220	3400	-5108	524	-33	-162	-16356	-604	1624	262	-6	173	126	125	8
-7792	-4556	13228	-136	148	-160	-16256	-2636	-1372	80	-92	68	-16084	-1996	-1540	127	-72	-106	-8988	5284	13240	155	42	-251	-15200	3312	-5444	48	-74	-110	-16304	-632	1740	194	19	203	126	125	8
-7784	-4592	13304	-115	169	-190	-16332	-2520	-1296	116	-80	85	-16096	-1968	-1584	53	-95	-143	-9132	5944	12780	145	27	-171	-15164	3128	-5296	500	-14	-108	-16296	-856	1624	125	-2	63	126	125	8
-7720	-4520	13296	-99	179	-200	-16332	-2676	-1328	193	-164	76	-16012	-2048	-1688	-20	-101	-193	-8924	5092	13188	223	54	-245	-15232	3356	-4876	495	-87	-62	-16216	-804	1780	-40	-107	33	126	125	8
-7796	-4500	13304	-117	148	-211	-16384	-2500	-1220	93	-209	106	-16088	-2040	-1764	-121	-79	-205	-9168	5304	13024	117	140	-180	-15116	3368	-5024	220	-54	-97	-16164	-720	1696	181	40	109	126	125	8
-7824	-4504	13376	-155	152	-192	-16388	-2588	-1300	-114	-293	95	-16008	-2088	-1720	-187	-34	-184	-9008	5664	12988	188	218	-122	-15292	3056	-5008	94	-35	-183	-16252	-572	1772	-52	-76	77	126	125	8
-7836	-4552	13280	-133	198	-170	-16408	-2648	-1524	-135	-343	119	-15952	-2280	-1892	-89	89	-187	-9120	5512	12936	144	225	-19	-14984	3228	-5164	-62	22	-182	-16248	-528	1632	-108	-105	35	127	125	8
-7864	-4612	13204	-141	195	-240	-16316	-2716	-1416	99	-397	174	-15940	-2420	-1808	150	194	-179	-9340	5208	13080	166	219	-69	-15164	3236	-5016	218	35	-258	-16248	-668	1620	-376	-196	21	126	125	8
-7816	-4464	13360	-176	170	-250	-16344	-2444	-1276	81	-495	169	-16076	-2144	-1752	283	185	-178	-9108	5656	12880	77	187	11	-14984	3484	-5196	-138	81	-209	-16244	-660	1548	-229	-198	-15	126	125	8
-7736	-4648	13288	-193	216	-213	-16316	-2452	-1272	-278	-526	158	-15980	-1780	-1684	243	89	-95	-9140	5736	12896	54	191	-47	-15124	3356	-5180	-310	107	-183	-16220	-736	1696	-177	-265	49	126	125	8
-7824	-4592	13276	-205	181	-252	-16368	-2680	-1232	-303	-507	89	-16020	-2056	-1604	292	111	-105	-9204	5588	12832	31	141	-72	-15052	3332	-5124	-233	65	-161	-16236	-784	1764	-159	-286	8	126	125	8
-7792	-4592	13340	-192	158	-217	-16364	-2556	-1132	-238	-553	95	-16132	-2272	-1364	363	95	-138	-9144	5560	12924	62	84	-67	-15152	3176	-5120	-138	97	-167	-16188	-704	1868	-228	-259	4	126	125	8
-7824	-4468	13320	-215	194	-206	-16276	-2600	-1092	-40	-570	149	-16088	-2164	-1452	478	177	-52	-9200	5792	12844	124	102	-12	-15148	3324	-5108	-4	26	-239	-16320	-700	1736	-217	-273	36	126	125	8
-7712	-4408	13460	-213	204	-234	-16360	-2608	-1000	82	-559	191	-16076	-1960	-1504	388	46	-72	-9116	5460	12828	28	174	-64	-15144	3336	-5056	-315	78	-202	-16360	-604	1728	-337	-291	-24	126	125	8
-7756	-4440	13396	-164	182	-220	-16340	-2616	-1000	34	-561	163	-16068	-1964	-1400	262	58	-145	-9048	5824	12712	-26	213	-136	-15156	3244	-5204	-299	112	-195	-16264	-588	1748	-391	-327	-28	126	125	8
-7776	-4548	13296	-105	170	-193	-16376	-2548	-1084	-117	-565	150	-16052	-1984	-1284	149	8	-206	-9120	5740	12848	9	156	-61	-15184	3220	-5220	-361	138	-209	-16252	-704	1780	-413	-299	-19	126	125	8
-7896	-4688	13208	-189	179	-208	-16340	-2536	-1068	-265	-507	152	-16032	-2068	-1392	-22	-3	-168	-9152	5560	12940	17	186	12	-15152	3248	-5244	-340	124	-267	-16264	-848	1744	-359	-267	-38	126	125	8
-7876	-4680	13204	-172	183	-237	-16264	-2512	-764	-206	-467	80	-16132	-2216	-1148	66	-28	-103	-9196	5604	12880	37	241	11	-15144	3172	-5092	-312	140	-208	-16220	-912	1884	-326	-292	80	126	125	8
-7800	-4580	13312	-144	157	-224	-16280	-2536	-672	-40	-371	123	-16148	-2368	-1104	225	-94	-72	-9232	5592	12808	13	233	-15	-15116	3284	-5128	-377	146	-243	-16232	-940	1908	-530	-329	-9	126	125	8
-7884	-4584	13388	-133	164	-247	-16284	-2552	-708	127	-314	108	-16156	-2288	-1000	488	-195	-77	-9208	5524	12900	93	180	-51	-15168	3284	-4924	-79	143	-217	-16256	-868	1844	-469	-360	44	126	125	8
-8036	-4396	13216	-74	164	-164	-16388	-2584	-768	195	-243	129	-16160	-2196	-908	544	-119	-15	-9212	5356	13044	23	189	-114	-15100	3300	-5044	-356	177	-131	-16232	-892	1800	-429	-273	22	126	125	8
-7824	-4708	13256	-115	194	-209	-16424	-2596	-812	256	-165	91	-16084	-2248	-908	605	-181	-46	-9120	5752	12756	74	223	-110	-15204	3260	-5164	-208	139	-180	-16312	-1032	1676	-265	-296	55	126	125	8
-7812	-4620	13212	-49	151	-216	-16260	-2576	-856	294	-46	44	-16000	-2196	-1140	643	-159	-18	-9288	5372	12868	139	194	-97	-15112	3312	-5004	-2	167	-93	-16264	-964	1744	-364	-363	65	126	125	8
-7832	-4624	13352	-66	130	-186	-16336	-2664	-720	420	-26	54	-16112	-2256	-1156	724	-220	-8	-9168	5416	12896	70	231	-72	-15068	3168	-5192	-173	155	-90	-16184	-964	1732	-232	-267	69	126	125	8
-7756	-4596	13312	-6	109	-203	-16348	-2648	-752	607	-2	69	-16052	-2456	-1028	882	-166	20	-9224	5624	12908	110	258	-69	-15128	3104	-5080	-200	170	-94	-16112	-932	1796	-196	-290	68	126	125	8
-7784	-4576	13276	44	117	-207	-16328	-2528	-708	686	90	-2	-16052	-2500	-1116	1200	-115	17	-9304	5424	12972	44	291	-2	-15140	3148	-5180	-170	154	-161	-16176	-856	1868	-120	-285	89	126	125	8
-7756	-4772	13192	34	97	-207	-16316	-2672	-696	885	95	50	-16220	-2188	-996	1464	-144	8	-9172	5564	12852	84	278	11	-15176	3292	-5212	-336	230	-146	-16232	-780	1884	-109	-271	36	126	125	8
-7800	-4596	13140	-2	137	-192	-16328	-2528	-824	903	217	8	-16252	-2092	-1036	1381	-155	58	-9184	5632	12844	95	267	-21	-15140	3252	-5104	-396	206	-158	-16328	-760	1840	-124	-246	39	126	125	8
-7932	-4508	13352	-8	99	-179	-16316	-2664	-948	885	142	25	-15912	-1692	-1728	721	-376	-84	-9216	5620	12856	88	239	-60	-15124	3300	-5296	-282	210	-137	-16220	-856	1932	-218	-214	47	126	125	8
-8016	-4524	13388	-38	120	-193	-16408	-2564	-1272	597	94	23	-16092	-1952	-1824	430	-279	-93	-9240	5652	12816	144	167	-78	-15156	3300	-5148	-196	154	-89	-16296	-904	1812	-207	-232	46	126	125	8
-7944	-4560	13272	-102	132	-162	-16392	-2636	-1276	26	25	82	-16088	-2048	-1768	353	-261	-139	-9216	5568	12772	132	127	-104	-15112	3304	-5280	-118	146	-84	-16276	-912	1824	-142	-189	44	126	125	8
-7856	-4636	13300	-113	156	-177	-16316	-2728	-1140	-356	-14	22	-15880	-2408	-1688	-206	89	-14	-9152	5620	12836	109	169	-96	-15088	3268	-5112	-113	131	-97	-16228	-848	1928	-69	-182	98	126	125	8
-7908	-4640	13224	-121	136	-165	-16312	-2832	-968	-139	-49	53	-16112	-2536	-1360	18	39	33	-9236	5536	12892	120	159	-151	-15148	3324	-5100	-178	159	-138	-16296	-752	1880	-124	-93	150	126	125	8
-7816	-4600	13296	-86	100	-209	-16308	-2676	-860	165	-16	99	-16132	-2640	-1040	332	45	21	-9320	5664	12772	82	213	-135	-15120	3252	-5184	-207	194	-165	-16272	-752	1748	-174	-89	176	126	125	8
-7768	-4580	13204	-86	113	-146	-16348	-2528	-828	177	-1	87	-16120	-2556	-908	342	14	44	-9240	5588	12856	91	227	-95	-15180	3168	-5168	-326	150	-139	-16164	-936	1780	-283	-80	114	126	125	8
-7660	-4816	13224	-62	139	-167	-16368	-2548	-808	56	50	115	-16040	-1944	-1164	440	-3	69	-9236	5604	12748	33	212	-102	-15120	3212	-5356	-325	152	-147	-16176	-1172	1784	-182	-114	142	127	125	8
-7756	-4812	13192	-70	143	-134	-16268	-2584	-928	135	159	-29	-16080	-2044	-1064	444	-129	76	-9220	5584	12864	78	192	-110	-15128	3128	-5244	-273	117	-76	-16156	-1096	1784	-142	-179	188	126	125	8
-7672	-4760	13244	-80	152	-178	-16360	-2632	-624	182	273	39	-16204	-2196	-992	375	-231	40	-9264	5484	12872	67	193	-82	-15084	3168	-5168	-259	123	-84	-16272	-1080	1616	-173	-177	186	126	125	8
-8028	-4528	13432	-34	178	-153	-16260	-2624	-1012	344	275	21	-16132	-2208	-1016	383	-271	90	-9264	5604	12728	78	165	-66	-15120	3208	-5372	-260	139	-77	-16228	-900	1628	-17	-313	146	127	125	8
-7840	-4516	13352	-70	85	-186	-16340	-2712	-784	337	333	24	-16140	-2196	-904	458	-268	97	-9240	5552	12868	111	189	-59	-15168	3216	-5360	-291	69	-117	-16284	-860	1728	20	-311	106	127	125	8
-7860	-4532	13268	-46	115	-149	-16256	-2600	-968	324	439	-38	-16196	-2024	-888	365	-247	92	-9316	5504	12876	114	171	-66	-15204	3216	-5264	-265	62	-42	-16416	-916	1768	58	-204	120	126	125	8
-7884	-4792	13220	-57	87	-162	-16248	-2544	-1100	260	438	-43	-16136	-1796	-1096	82	-456	70	-9260	5592	12680	150	188	-72	-15108	3236	-5232	-178	52	-53	-16376	-1028	1768	66	-86	116	126	125	8
-7848	-4552	13224	-9	84	-135	-16360	-2716	-676	256	443	-14	-15944	-1976	-1352	-193	-582	-24	-9216	5604	12688	207	103	-129	-15232	3272	-5232	-19	-5	37	-16256	-1116	1920	73	-64	112	127	125	8
-7820	-4632	13260	-8	93	-116	-16396	-2660	-1276	291	429	-12	-15988	-2156	-1608	-379	-540	-54	-9300	5684	12752	281	52	-183	-15144	3292	-5224	116	-39	27	-16244	-1064	1924	223	-15	113	127	125	8
-7792	-4604	13260	-35	67	-127	-16388	-2600	-1244	-18	359	24	-15988	-2376	-1684	-284	-357	-88	-9228	5608	12692	242	91	-242	-15116	3280	-5328	139	-52	54	-16216	-964	1964	417	15	183	126	125	8
-7716	-4420	13428	-111	75	-119	-16380	-2788	-1152	21	228	67	-16020	-2456	-1632	-212	-178	-64	-9336	5656	12744	258	99	-252	-15196	3292	-5284	119	-52	56	-16276	-932	1888	449	39	256	126	125	8
-7752	-4328	13408	-68	89	-115	-16408	-2888	-888	152	125	128	-15800	-2480	-2024	-215	-249	-7	-9324	5680	12684	240	111	-252	-15112	3248	-5224	178	-54	132	-16220	-892	1840	402	36	263	127	125	8
-7716	-4560	13368	-48	83	-150	-16388	-2768	-1368	300	33	172	-15896	-2384	-1704	-126	-109	19	-9276	5616	12756	248	49	-293	-15160	3212	-5200	134	-58	94	-16188	-896	1832	401	-5	215	127	125	8
-7800	-4508	13324	-50	167	-181	-16364	-2560	-1308	77	-107	180	-16080	-2340	-1856	-47	40	15	-9332	5580	12680	268	82	-227	-15072	3196	-5148	134	-8	100	-16116	-748	1852	240	-53	208	127	125	8
-7824	-4552	13336	-91	122	-215	-16416	-2780	-1296	-174	-124	183	-15988	-2328	-1580	91	133	-42	-9296	5464	12840	197	82	-154	-15048	3196	-5268	53	-34	16	-16156	-656	1816	67	-82	205	127	125	8
-7832	-4524	13292	-104	139	-183	-16424	-2620	-1216	-37	-143	227	-16068	-2372	-1300	216	130	87	-9424	5532	12712	176	125	-62	-14996	3300	-5224	-152	-8	-64	-16168	-556	1668	-78	-80	205	127	125	8
-7732	-4548	13304	-80	166	-178	-16360	-2700	-1084	67	-157	200	-16132	-2136	-1208	592	37	181	-9300	5544	12728	141	91	-21	-15016	3340	-5308	-289	44	-113	-16124	-608	1784	-209	-120	215	127	125	8
-7800	-4520	13244	-109	165	-185	-16256	-2576	-1076	110	-184	202	-16124	-2108	-1228	521	9	120	-9340	5624	12724	96	65	1	-14980	3360	-5272	-311	34	-98	-16156	-604	1664	-329	-234	150	127	125	8
-7840	-4580	13292	-116	139	-169	-16376	-2608	-1140	-6	-172	196	-16064	-1980	-1068	318	-32	79	-9296	5768	12844	60	33	-64	-14956	3384	-5304	-279	0	-80	-16148	-744	1812	-450	-315	12	126	125	8
-7812	-4572	13340	-141	168	-159	-16332	-2640	-1004	-168	-176	127	-16048	-1860	-1292	195	-23	5	-9256	5704	12744	38	-32	-110	-14992	3416	-5308	-200	11	-91	-16136	-680	1940	-480	-294	82	126	125	8
-7792	-4560	13252	-153	165	-180	-16320	-2612	-908	-123	-175	136	-16128	-2008	-1236	48	-81	57	-9324	5700	12756	14	-115	-136	-15076	3460	-5224	-208	5	-52	-16224	-800	1976	-480	-258	83	126	125	8
-7840	-4548	13224	-129	135	-178	-16296	-2564	-1136	-114	-122	138	-16092	-2288	-1184	19	-131	90	-9292	5680	12784	-9	-107	-205	-15120	3296	-5272	-208	-24	-94	-16308	-980	1872	-206	-100	245	126	125	8
-7816	-4600	13220	-100	147	-182	-16308	-2756	-1088	30	-101	150	-16128	-2432	-1024	154	-113	44	-9264	5568	12836	12	-143	-186	-15164	3268	-5168	-204	-29	-77	-16348	-1004	1788	-71	-58	276	126	125	8
-7804	-4612	13224	-109	141	-177	-16352	-2648	-1100	111	-70	179	-16148	-2336	-1044	132	-102	38	-9280	5560	12744	22	-76	-170	-15184	3124	-5180	-148	-48	-92	-16324	-1060	1816	15	-75	280	127	125	8
-7828	-4556	13372	-78	129	-142	-16256	-2600	-1088	15	-51	171	-16076	-2128	-1000	188	-45	81	-9316	5504	12804	45	-66	-190	-15268	3164	-5084	-122	-3	-49	-16304	-1112	1872	36	-138	268	126	125	8
-7816	-4576	13328	-95	117	-186	-16348	-2572	-1156	9	-81	139	-16104	-2016	-1240	154	-54	82	-9304	5588	12848	117	-31	-136	-15180	3152	-5204	-94	-22	-39	-16236	-1120	1828	-69	-148	204	126	125	8
-7864	-4604	13260	-95	138	-162	-16292	-2708	-1208	61	-16	163	-16028	-2304	-1304	240	-102	89	-9328	5560	12820	169	-4	-152	-15236	3228	-5136	-28	-79	1	-16252	-1024	1712	-19	-153	203	126	125	8
-7864	-4544	13344	-119	106	-217	-16324	-2660	-1184	172	-78	212	-16072	-2332	-1316	324	-65	64	-9348	5588	12728	185	-34	-125	-15136	3264	-5240	-30	-11	7	-16212	-960	1812	-54	-224	186	126	125	8
-7760	-4548	13248	-124	137	-196	-16368	-2660	-988	131	-89	200	-16152	-2256	-1224	355	8	70	-9256	5600	12812	194	-27	-109	-15076	3268	-5296	-16	-30	53	-16196	-888	1880	22	-263	155	126	125	8
-7776	-4540	13364	-71	123	-204	-16312	-2664	-1060	139	-101	194	-16072	-2140	-1296	316	46	87	-9284	5588	12760	223	52	-77	-15132	3252	-5284	-49	-63	37	-16308	-864	1860	150	-254	184	126	125	8
-7752	-4676	13332	-113	133	-180	-16336	-2688	-964	81	-106	204	-16144	-2020	-1124	274	5	88	-9380	5656	12896	198	-10	-132	-15200	3376	-5280	20	-109	51	-16312	-896	1760	284	-219	169	126	125	8
-7752	-4564	13284	-88	110	-180	-16300	-2592	-1044	94	-73	175	-16064	-1988	-1264	105	-46	43	-9372	5696	12640	210	-41	-131	-15076	3380	-5276	131	-127	45	-16252	-888	1864	348	-187	222	126	125	8
-7860	-4608	13384	-68	138	-198	-16268	-2760	-1028	143	-107	206	-16048	-2100	-1104	105	-116	44	-9320	5640	12812	207	-78	-138	-15036	3388	-5276	171	-191	51	-16212	-780	1864	234	-152	242	127	125	8
-7808	-4592	13324	-92	118	-209	-16360	-2604	-1164	75	-79	185	-16084	-2072	-1208	77	-41	15	-9384	5692	12808	175	-133	-127	-15064	3312	-5280	83	-139	79	-16132	-720	1888	223	-135	283	127	125	8
-7812	-4540	13296	-67	138	-156	-16364	-2704	-976	-33	-156	224	-16072	-2140	-1248	111	-56	54	-9268	5632	12792	141	-136	-118	-15060	3340	-5280	28	-170	89	-16240	-712	1944	190	-139	242	127	125	8
-7836	-4616	13184	-80	164	-150	-16344	-2656	-1072	32	-134	175	-16112	-2168	-1240	204	-27	73	-9324	5600	12860	129	-97	-115	-15108	3304	-5060	11	-97	17	-16184	-688	1964	110	-127	213	126	125	8
-7892	-4504	13320	-101	110	-181	-16296	-2712	-1100	89	-134	230	-16168	-2108	-1116	277	-36	40	-9228	5608	12808	120	-84	-109	-15108	3332	-5176	-16	-94	4	-16244	-720	2048	8	-130	227	127	125	8
-7796	-4548	13288	-82	134	-193	-16316	-2600	-1056	51	-106	205	-16144	-2132	-1064	260	-20	83	-9256	5644	12748	119	-38	-105	-15128	3312	-5108	-66	-75	-29	-16232	-788	2096	-107	-183	203	126	125	8
-7812	-4604	13324	-79	119	-192	-16348	-2556	-1000	12	-102	177	-16156	-2032	-1144	199	-37	67	-9256	5576	12792	108	-55	-94	-15092	3348	-5120	-103	-54	-29	-16228	-824	2000	-200	-176	143	127	125	8
-7864	-4544	13332	-119	122	-155	-16332	-2624	-1092	-6	-124	220	-16108	-1996	-1228	157	-97	58	-9240	5624	12776	139	-35	-119	-15064	3332	-5144	-78	-51	-25	-16196	-856	2020	-197	-157	166	127	125	8
-7816	-4540	13288	-103	135	-182	-16372	-2620	-1112	53	-135	192	-16068	-2048	-1344	65	-131	55	-9260	5688	12708	134	-96	-131	-15140	3364	-5076	-56	-8	-37	-16212	-876	2036	-123	-116	220	127	125	8
-7812	-4540	13272	-102	124	-175	-16396	-2564	-1084	-3	-111	208	-16084	-2140	-1128	58	-76	83	-9268	5724	12704	102	17	-134	-15180	3468	-5128	-122	-47	-47	-16240	-868	2036	-51	-108	237	127	125	8
-7752	-4604	13292	-75	140	-215	-16328	-2656	-1044	-85	-113	169	-16084	-2176	-1136	24	-41	56	-9276	5708	12780	103	-66	-141	-15124	3376	-5164	-95	-20	-32	-16256	-804	1924	-1	-102	229	126	125	8
-7796	-4640	13312	-94	120	-153	-16344	-2600	-1044	-156	-114	149	-16080	-2152	-1144	-34	2	57	-9296	5604	12800	136	-19	-147	-15140	3216	-5136	-56	-4	-38	-16236	-840	2016	-21	-86	215	126	125	8
-7824	-4628	13332	-135	82	-196	-16336	-2600	-1056	-162	-110	176	-16100	-2164	-1256	-32	-65	12	-9276	5520	12796	114	29	-174	-15228	3276	-5176	-8	-63	8	-16272	-948	1916	-19	-134	168	126	125	8
-7856	-4512	13336	-128	120	-158	-16396	-2604	-1068	-70	-71	179	-16072	-2124	-1260	17	-66	41	-9276	5636	12856	166	40	-157	-15180	3280	-5156	25	-50	1	-16196	-924	1976	-19	-144	149	127	125	8
-7800	-4628	13284	-96	130	-170	-16432	-2556	-984	15	-171	194	-16096	-2212	-1080	176	-81	44	-9192	5592	12744	170	-5	-102	-15036	3276	-5192	-28	-102	-12	-16212	-824	1892	-85	-127	175	127	125	8
-7784	-4536	13260	-174	107	-193	-16352	-2596	-1068	15	-95	189	-16008	-2180	-1184	202	39	27	-9316	5672	12752	127	22	-105	-15140	3300	-5056	-31	-63	-9	-16192	-836	1896	-87	-114	159	127	125	8
-7776	-4600	13368	-111	107	-200	-16380	-2616	-912	31	-129	182	-16064	-2128	-1168	232	53	93	-9244	5596	12668	145	-9	-82	-15092	3348	-5252	-42	-76	-11	-16212	-884	1992	-39	-130	205	126	125	8
-7744	-4560	13228	-141	121	-177	-16316	-2592	-1068	-45	-92	173	-16092	-2048	-984	153	63	61	-9284	5692	12808	147	-9	-128	-15080	3304	-5088	-20	-60	-27	-16204	-868	2048	14	-135	201	126	125	8
-7836	-4640	13268	-146	123	-166	-16300	-2592	-936	-25	-57	127	-16064	-2100	-944	159	56	72	-9280	5700	12812	149	-78	-166	-15152	3384	-5220	50	-56	25	-16248	-864	2056	112	-152	205	127	125	8
-7788	-4608	13164	-83	124	-181	-16364	-2588	-860	12	-25	142	-16112	-2172	-1092	253	25	37	-9208	5604	12772	144	-107	-188	-15192	3400	-5180	88	-84	42	-16260	-840	1852	132	-109	179	127	125	8
-7764	-4600	13220	-63	149	-171	-16280	-2592	-1000	73	-17	115	-16120	-2152	-964	318	19	66	-9240	5672	12712	133	-43	-179	-15084	3344	-5084	124	-88	26	-16188	-876	1964	142	-120	230	127	125	8
-7800	-4572	13280	-70	118	-201	-16312	-2520	-952	156	13	127	-16112	-2176	-1076	409	75	82	-9280	5680	12724	117	-118	-197	-15084	3388	-5064	20	-45	35	-16140	-856	2032	101	-133	241	127	125	8
-7796	-4600	13280	-69	106	-204	-16308	-2648	-976	205	0	124	-16044	-2300	-984	493	64	99	-9204	5644	12768	135	-70	-221	-15164	3336	-5040	-5	-21	14	-16228	-912	2028	122	-164	218	127	125	8
-7744	-4500	13348	-43	116	-203	-16360	-2552	-948	310	16	166	-16160	-2252	-1112	691	97	162	-9260	5592	12864	113	-77	-193	-15192	3300	-5116	-5	-12	10	-16316	-884	2024	214	-238	244	127	125	8
-7856	-4552	13208	-70	166	-171	-16308	-2548	-796	336	89	169	-16168	-2344	-952	794	164	151	-9280	5584	12720	148	-9	-193	-15284	3300	-5196	-3	-1	25	-16388	-860	1924	309	-266	277	127	125	8
-7820	-4620	13332	-36	100	-177	-16288	-2500	-964	434	141	133	-16120	-2064	-856	750	158	137	-9304	5564	12788	178	13	-175	-15232	3212	-5200	-6	-14	15	-16324	-944	1836	201	-176	254	127	125	8
-7772	-4528	13460	-44	127	-217	-16424	-2660	-1076	425	145	137	-16080	-1720	-1440	535	-27	56	-9244	5588	12844	219	-24	-173	-15192	3280	-5268	121	-105	75	-16312	-1024	1928	158	-158	170	126	125	8
-7808	-4560	13212	-42	145	-181	-16360	-2708	-1196	423	111	170	-15904	-1864	-1520	152	-80	50	-9244	5572	12840	278	-20	-201	-15112	3272	-5304	277	-129	87	-16108	-1068	1956	203	-140	150	127	125	8
-7908	-4552	13244	-41	125	-182	-16420	-2608	-1204	198	1	212	-16072	-2096	-1568	52	-69	-2	-9300	5600	12740	275	-89	-166	-15032	3364	-5148	338	-111	92	-16060	-804	2064	289	-133	182	126	125	8
-7864	-4536	13308	-86	137	-181	-16396	-2644	-1212	17	-45	161	-16072	-2152	-1520	-36	50	-43	-9236	5604	12740	206	-98	-108	-14992	3444	-4984	189	-100	54	-16076	-604	2096	395	-52	222	126	125	8
-7796	-4560	13376	-79	142	-177	-16364	-2544	-988	-60	-117	211	-16040	-2144	-1388	-33	116	98	-9240	5656	12740	152	-116	-114	-15184	3468	-4920	25	-66	-34	-16196	-456	2136	324	44	283	127	125	8
-7796	-4548	13356	-88	105	-210	-16372	-2664	-952	-124	-110	186	-16104	-2092	-1096	-37	119	120	-9212	5656	12796	114	-77	-157	-15196	3432	-4948	-125	-2	0	-16276	-428	2216	150	-2	302	127	125	8
-7784	-4592	13352	-147	70	-139	-16340	-2528	-996	-173	-70	180	-16192	-2172	-936	-21	72	90	-9172	5820	12748	117	8	-123	-15212	3432	-5096	-83	25	-29	-16332	-692	2140	-43	-27	218	127	125	8
-7800	-4660	13256	-102	114	-137	-16312	-2592	-952	-147	-58	181	-16144	-2036	-984	-32	-19	55	-9196	5736	12820	100	42	-206	-15220	3400	-4976	-68	14	-13	-16280	-800	2132	-233	-88	208	127	125	8
-7824	-4572	13372	-101	101	-178	-16448	-2484	-1008	-74	-61	198	-16080	-2120	-1128	3	-90	56	-9252	5688	12756	132	33	-193	-15144	3356	-5076	-20	75	-21	-16224	-772	2140	-359	-126	222	127	125	8
-7784	-4548	13296	-93	112	-176	-16324	-2572	-1072	-66	-84	173	-16140	-2068	-1324	139	-67	32	-9232	5576	12824	144	92	-190	-15164	3404	-5088	-91	58	-39	-16196	-744	2120	-423	-143	189	127	125	8
-7812	-4564	13292	-99	120	-180	-16320	-2564	-1096	-106	-80	161	-15984	-1936	-1396	88	-20	37	-9216	5516	12724	142	140	-132	-15084	3312	-5148	-179	92	-79	-16116	-816	1984	-401	-122	204	126	125	8
-7860	-4604	13236	-121	102	-166	-16412	-2528	-1232	-107	-94	162	-16060	-1944	-1172	-3	2	66	-9244	5616	12724	113	128	-131	-15116	3304	-5156	-273	85	-82	-16160	-916	1940	-240	-108	146	126	125	8
-7868	-4624	13324	-53	112	-165	-16332	-2596	-1136	-127	-87	144	-16028	-1856	-1220	-202	-48	3	-9288	5664	12820	109	98	-116	-15088	3284	-5156	-93	54	-36	-16164	-964	1896	-37	-112	133	127	125	8
-7800	-4596	13256	-85	96	-182	-16312	-2596	-1116	-64	-49	214	-16036	-2056	-1184	-355	-67	-14	-9352	5628	12760	141	27	-120	-15064	3276	-5128	-8	44	-67	-16228	-836	1992	46	-56	151	127	125	8
-7804	-4544	13296	-67	123	-154	-16352	-2500	-932	-170	-100	151	-16136	-2100	-1124	-276	-39	-28	-9240	5664	12776	132	9	-177	-15076	3448	-5024	-16	31	-47	-16168	-748	2024	-17	33	244	127	125	8
-7788	-4556	13320	-72	98	-175	-16404	-2536	-1036	-235	-96	180	-16120	-2268	-1092	-127	2	3	-9276	5680	12752	80	-6	-130	-15116	3452	-5116	-53	13	-62	-16196	-660	1924	-76	26	234	127	125	8
-7740	-4596	13268	-69	105	-143	-16404	-2640	-808	-77	-75	173	-16100	-2392	-1052	64	60	94	-9260	5632	12756	101	37	-136	-15152	3372	-5120	-125	90	-81	-16244	-724	2036	-156	3	273	127	125	8
-7828	-4588	13308	-80	142	-160	-16368	-2564	-940	64	-58	152	-16156	-2292	-1048	308	96	124	-9240	5648	12812	110	43	-136	-15204	3372	-5040	-108	53	-62	-16280	-852	1988	-173	-96	214	127	125	8
-7792	-4632	13304	-94	136	-200	-16336	-2484	-1004	108	-12	166	-16152	-2108	-1156	394	61	134	-9304	5756	12804	135	38	-139	-15184	3296	-4988	-82	77	-41	-16328	-896	2048	-140	-191	197	127	125	8
-7796	-4580	13308	-77	91	-198	-16356	-2652	-1076	213	2	161	-16036	-1940	-1044	369	28	71	-9256	5728	12836	131	67	-135	-15168	3360	-5064	-26	98	-33	-16208	-852	1972	-165	-188	166	127	125	8
-7808	-4660	13212	-80	114	-173	-16380	-2464	-960	201	11	158	-16132	-1860	-980	361	-23	30	-9284	5656	12784	117	95	-147	-15168	3380	-4992	-91	81	-20	-16216	-808	2044	-171	-154	191	127	125	8
-7728	-4584	13312	-35	88	-209	-16328	-2496	-960	194	21	140	-16080	-1972	-1208	382	-10	-2	-9196	5588	12768	86	112	-114	-15120	3308	-5116	-150	122	-8	-16044	-904	2060	-238	-208	197	126	125	8
-7792	-4512	13308	-45	119	-234	-16340	-2516	-920	342	22	147	-16156	-2000	-1228	358	-26	40	-9284	5664	12736	106	64	-43	-15128	3360	-5028	-203	179	-58	-16104	-1020	2032	-216	-298	129	126	125	8
-7808	-4568	13324	-80	128	-164	-16440	-2592	-1060	391	-9	147	-16056	-1992	-1200	340	-73	37	-9228	5768	12720	103	117	-56	-15152	3360	-4996	-175	181	-31	-16232	-944	2124	35	-307	73	127	125	8
-7816	-4568	13368	-76	148	-208	-16384	-2544	-1076	403	4	155	-16108	-2044	-1276	340	-88	21	-9048	5488	12988	53	187	-101	-15216	3348	-5100	-501	247	36	-16368	-916	2088	121	-352	23	127	125	8
-7816	-4576	13332	-80	148	-203	-16400	-2448	-1124	166	-46	126	-16116	-1960	-1208	259	23	10	-9344	5936	12748	256	216	-120	-15328	3160	-5224	164	145	83	-16472	-708	2220	-12	-314	-28	126	125	8
-7744	-4588	13280	-96	106	-183	-16372	-2644	-964	-82	-23	97	-16076	-2084	-1196	133	82	24	-9288	5584	12800	247	242	-31	-15088	3620	-5164	-21	125	-2	-16448	-532	2048	-9	-89	62	126	125	8
-7848	-4568	13316	-116	124	-184	-16276	-2628	-964	34	14	133	-16096	-2200	-1300	223	17	28	-9240	5732	12764	274	256	-174	-15132	3520	-5032	-33	127	7	-16344	-484	1928	-36	3	161	126	125	8
-7796	-4588	13336	-50	121	-191	-16304	-2580	-1012	152	-22	131	-16148	-2172	-1268	295	31	49	-9396	5788	12616	234	242	-131	-14984	3584	-5220	21	63	-9	-16104	-556	1876	-78	-70	194	126	125	8
-7808	-4600	13348	-92	127	-153	-16380	-2536	-1048	70	-52	152	-16012	-1956	-1252	224	19	67	-9308	5740	12564	219	152	-175	-14968	3500	-5252	-49	53	-15	-16068	-632	1832	-61	34	189	126	125	8
-7760	-4584	13252	-97	111	-151	-16368	-2540	-996	-61	-35	152	-16056	-1740	-1260	4	49	38	-9332	5672	12644	139	133	-165	-14896	3376	-5292	-57	36	-44	-16064	-696	1684	191	-62	199	126	125	8
-7816	-4536	13288	-81	114	-176	-16364	-2468	-1080	-151	-77	136	-16100	-1952	-1328	-47	-12	-27	-9308	5652	12648	137	-43	-176	-14960	3348	-5364	36	-22	-75	-16152	-756	1924	15	-14	181	127	125	8
-7788	-4576	13412	-78	107	-192	-16372	-2588	-1052	-90	-147	144	-16028	-2068	-1320	-75	2	-54	-9356	5576	12740	88	-39	-149	-15024	3364	-5288	23	-50	-85	-16164	-688	1828	-72	13	190	126	125	8
-7824	-4548	13304	-131	147	-214	-16352	-2508	-1060	-73	-137	176	-16172	-2064	-1208	-36	-39	-13	-9264	5640	12652	74	-137	-167	-15112	3416	-5148	-64	-55	-116	-16244	-624	1900	-136	-17	192	126	125	8
-7756	-4496	13316	-119	154	-208	-16300	-2616	-996	-64	-156	167	-16028	-1940	-1404	-208	-37	-6	-9308	5668	12720	85	-146	-147	-15064	3440	-5312	-76	-73	-86	-16244	-732	1996	-130	-51	129	126	125	8
-7784	-4516	13356	-131	125	-166	-16340	-2480	-932	-178	-138	145	-16172	-1988	-1180	-340	14	12	-9336	5656	12784	76	-63	-143	-15216	3356	-5192	-19	-58	-102	-16284	-828	2196	-91	-35	97	127	125	8
-7832	-4592	13208	-121	125	-179	-16328	-2508	-804	-371	-90	144	-16072	-2124	-1108	-126	2	-51	-9288	5644	12776	81	9	-135	-15156	3356	-5096	38	-18	-128	-16264	-868	2044	-60	-15	155	127	125	8
-7808	-4544	13220	-139	131	-179	-16336	-2620	-1064	-251	-95	118	-16088	-2228	-1020	28	75	-45	-9296	5636	12720	95	14	-130	-15156	3416	-5216	-7	-25	-104	-16252	-840	2064	-142	45	168	127	125	8
-7808	-4536	13448	-98	168	-154	-16336	-2592	-936	6	-108	128	-16112	-2340	-1260	227	124	19	-9328	5616	12860	95	32	-129	-15148	3356	-5100	-31	28	-49	-16220	-916	2156	-158	42	197	126	125	8
-7736	-3996	13392	-167	134	-59	-16376	-2584	-1032	230	-104	173	-16116	-2080	-1072	349	194	83	-9296	5668	12828	103	-1	-181	-15136	3344	-5132	-65	93	-73	-16096	-1004	2172	-148	-41	188	127	125	8
-7812	-4564	13284	-96	113	-184	-16392	-2380	-884	7	-21	152	-16160	-1932	-900	312	120	72	-9272	5708	12764	122	-38	-192	-15144	3368	-5048	-15	55	-35	-16204	-936	2128	-19	-112	135	127	125	8
-7800	-4552	13340	-87	96	-174	-16284	-2560	-904	111	-52	90	-16072	-1880	-936	322	109	63	-9304	5712	12732	147	32	-207	-15120	3400	-5304	5	106	-62	-16224	-872	2072	48	-124	136	127	125	8
-7744	-4536	13296	-72	113	-202	-16316	-2480	-920	-7	67	68	-16196	-1896	-912	250	49	-15	-9280	5696	12756	164	44	-206	-15168	3436	-5160	9	81	-24	-16288	-772	1988	22	-80	169	127	125	8
-7840	-4540	13320	-127	90	-139	-16372	-2496	-844	123	53	100	-16136	-2020	-1016	236	73	-9	-9320	5672	12772	79	20	-247	-15144	3360	-5092	37	96	-31	-16264	-788	1976	31	-70	213	127	125	8
-7792	-4568	13404	-71	84	-171	-16352	-2468	-1056	191	92	40	-16080	-2124	-1152	327	59	-8	-9328	5724	12768	122	46	-225	-15140	3396	-5236	7	79	-54	-16220	-764	1964	81	-91	206	127	125	8
-7852	-4540	13308	-16	105	-199	-16308	-2604	-952	271	83	65	-16140	-2256	-1144	449	63	34	-9304	5600	12792	117	64	-183	-15068	3380	-5264	29	100	-9	-16196	-764	1952	71	-111	196	126	125	8
-7668	-4464	13380	-45	107	-176	-16356	-2544	-1100	368	129	68	-16152	-2148	-1192	611	20	-24	-9288	5684	12748	138	123	-168	-15216	3372	-5236	-5	70	10	-16304	-864	1908	87	-159	140	126	125	8
-7776	-4512	13392	-62	103	-203	-16380	-2560	-1092	392	94	110	-16020	-1876	-1408	381	-60	-34	-9216	5604	12752	165	109	-178	-15116	3316	-5320	37	-9	-43	-16300	-824	1836	40	-169	97	127	125	8
-7836	-4512	13324	-89	116	-168	-16380	-2600	-1156	300	29	62	-16080	-1788	-1576	189	-82	6	-9344	5628	12688	158	67	-179	-15112	3376	-5292	126	53	-35	-16204	-784	2036	-20	-105	133	126	125	8
-7856	-4484	13348	-56	115	-179	-16376	-2572	-1112	51	9	71	-16040	-1912	-1584	45	-28	-73	-9256	5680	12740	197	21	-160	-15048	3412	-5360	96	2	-2	-16232	-700	1884	-37	-50	101	126	125	8
-7824	-4512	13276	-118	131	-188	-16396	-2668	-1072	-105	-60	85	-16044	-2160	-1464	-10	21	-104	-9340	5684	12672	141	15	-132	-15092	3420	-5344	7	23	-51	-16176	-700	1980	19	-95	125	126	125	8
-7780	-4536	13348	-137	144	-207	-16296	-2624	-1108	-10	-138	118	-16032	-2280	-1344	78	65	-6	-9388	5712	12812	91	-2	-159	-15020	3376	-5248	1	-2	-115	-16180	-780	2056	70	-69	159	126	125	8
-7756	-4508	13368	-129	163	-181	-16364	-2556	-1008	83	-143	115	-16128	-2168	-1160	180	89	44	-9316	5656	12760	123	-25	-159	-14968	3392	-5260	-38	-47	-106	-16224	-672	1900	91	-51	190	126	125	8
-7844	-4532	13224	-151	156	-177	-16364	-2576	-984	57	-97	132	-16168	-2048	-1168	257	52	20	-9268	5736	12660	97	-66	-153	-15088	3452	-5196	-26	-55	-77	-16312	-760	1836	8	-87	177	126	125	8
-7856	-4580	13324	-123	138	-167	-16356	-2596	-976	-6	-87	71	-16120	-1968	-1168	193	6	-4	-9276	5776	12776	78	-74	-211	-15140	3364	-5344	22	-48	-86	-16340	-864	1960	16	-72	112	126	125	8
-7848	-4524	13272	-127	137	-168	-16372	-2628	-1068	-1	-93	138	-16104	-2060	-1296	133	-47	-50	-9300	5692	12796	87	-84	-190	-15108	3388	-5200	19	-79	-81	-16268	-792	1904	-62	-78	126	126	125	8
-7776	-4528	13304	-158	143	-168	-16356	-2528	-1096	35	-104	100	-16100	-2104	-1260	192	-55	-32	-9316	5612	12680	114	-57	-192	-15196	3352	-5180	58	-99	-81	-16168	-768	1924	-77	-83	143	126	125	8
-7872	-4564	13236	-144	155	-165	-16352	-2556	-1020	25	-125	99	-16056	-2080	-1388	118	-15	14	-9372	5648	12704	86	-2	-151	-15124	3380	-5192	10	-75	-86	-16208	-836	1936	-38	-122	166	126	125	8
-7768	-4608	13284	-141	127	-181	-16352	-2660	-1016	-19	-136	101	-16064	-2084	-1244	98	-26	8	-9244	5612	12764	117	-32	-118	-15152	3308	-5212	-56	-107	-98	-16224	-840	1992	42	-164	120	126	125	8
-7772	-4608	13284	-93	135	-195	-16328	-2520	-948	6	-125	140	-16128	-2156	-1004	74	23	-19	-9276	5656	12636	88	-47	-120	-15136	3264	-5244	-2	-101	-91	-16240	-884	1960	105	-128	160	126	125	8
-7800	-4536	13308	-120	140	-205	-16428	-2496	-1068	46	-113	96	-16084	-2048	-1024	161	-70	-5	-9300	5656	12616	106	-64	-96	-15120	3276	-5244	70	-59	-60	-16224	-912	1900	95	-73	99	126	125	8
-7796	-4568	13228	-144	147	-222	-16292	-2552	-1032	65	-97	85	-16084	-2008	-1200	130	-83	-32	-9284	5652	12660	86	-20	-99	-15104	3376	-5120	59	-104	-125	-16216	-864	2008	40	-87	128	126	125	8
-7788	-4512	13340	-102	174	-216	-16304	-2540	-1052	89	-99	87	-16060	-2196	-1248	242	-92	-20	-9192	5680	12824	146	-81	-156	-15124	3384	-5076	47	-103	-51	-16172	-884	2096	13	-41	133	126	125	8
-7824	-4580	13284	-127	173	-226	-16364	-2560	-912	72	-84	141	-16116	-2172	-1232	279	-45	-12	-9312	5620	12752	115	-57	-106	-15116	3340	-5128	3	-85	-73	-16212	-848	2136	57	-69	162	126	125	8
-7800	-4556	13352	-100	132	-176	-16332	-2548	-900	86	-112	118	-16096	-2164	-1148	283	0	8	-9312	5680	12756	124	-42	-180	-15088	3380	-5168	26	-60	-112	-16140	-876	2108	64	-131	163	126	125	8
-7780	-4560	13308	-73	146	-221	-16360	-2576	-932	70	-104	109	-16104	-2064	-1036	257	12	34	-9312	5748	12776	118	-74	-148	-15120	3372	-5016	24	-39	-69	-16236	-904	2124	-2	-127	188	126	125	8
-7780	-4524	13324	-102	152	-211	-16376	-2572	-1004	77	-74	72	-16120	-1924	-1032	203	-27	-12	-9336	5704	12752	110	-20	-214	-15164	3356	-5144	50	-11	-24	-16244	-924	2052	4	-156	121	126	125	8
-7768	-4600	13280	-117	158	-161	-16308	-2564	-940	110	-75	63	-16000	-2020	-1156	88	-72	-29	-9256	5632	12768	143	-42	-197	-15216	3280	-5108	135	-3	-14	-16212	-980	2200	15	-183	82	126	125	8
-7792	-4592	13312	-79	135	-207	-16416	-2528	-920	128	-51	62	-16112	-2080	-1116	90	-64	-59	-9252	5600	12912	137	58	-200	-15196	3292	-5124	76	16	-48	-16152	-876	2248	44	-104	96	126	125	8
-7828	-4608	13276	-89	94	-184	-16284	-2560	-984	59	-32	74	-16096	-2172	-1156	107	-68	-16	-9232	5560	12776	121	134	-127	-15184	3280	-5156	-9	49	-44	-16248	-816	2100	-27	-100	115	126	125	8
-7752	-4596	13388	-91	82	-170	-16384	-2600	-996	40	-39	101	-16092	-2168	-1292	152	-8	29	-9240	5620	12692	164	135	-97	-15196	3352	-5148	-117	76	-84	-16228	-856	2032	-83	-154	97	127	125	8
-7756	-4596	13344	-93	115	-201	-16336	-2564	-992	91	-3	86	-16040	-2164	-1204	238	38	10	-9192	5680	12832	165	179	-120	-15132	3352	-5152	-124	47	-110	-16264	-844	1996	-110	-135	145	126	125	8
-7820	-4572	13276	-61	105	-189	-16344	-2624	-1120	144	-4	65	-16152	-2052	-1180	316	22	10	-9292	5632	12776	127	156	-83	-15044	3324	-5168	-5	75	-71	-16232	-856	1904	-99	-180	79	125	125	8
-7784	-4540	13308	-85	113	-184	-16276	-2560	-836	141	-40	93	-16120	-2104	-1228	285	2	9	-9320	5788	12780	156	99	-143	-15108	3340	-5232	50	72	-75	-16216	-844	2088	-133	-180	98	127	125	8
-7848	-4632	13284	-44	119	-176	-16360	-2576	-1024	126	8	90	-16032	-2148	-1196	315	-31	27	-9308	5652	12704	154	50	-163	-15084	3376	-5208	-59	38	-19	-16088	-728	2036	10	-91	141	127	125	8
-7836	-4484	13312	-62	133	-204	-16312	-2620	-1008	157	30	61	-16076	-2144	-1188	415	-24	-4	-9364	5728	12684	94	28	-149	-15028	3408	-5272	-4	29	-64	-16140	-712	1852	-3	-73	161	126	125	8
-7812	-4492	13316	-89	143	-214	-16376	-2640	-1032	274	-39	99	-16112	-2184	-1220	413	20	-17	-9272	5696	12748	89	-74	-160	-15048	3408	-5256	19	-16	-67	-16248	-660	1924	30	-55	193	126	125	8
-7800	-4560	13244	-59	148	-249	-16372	-2604	-1112	313	-20	111	-16132	-2152	-1336	361	23	-20	-9276	5720	12700	83	-122	-206	-15096	3460	-5328	26	-10	-51	-16180	-784	1924	80	-43	221	126	125	8
-7748	-4548	13368	-87	113	-222	-16360	-2576	-1120	389	-44	155	-16016	-1896	-1304	327	-6	-20	-9280	5784	12812	102	-117	-227	-15108	3392	-5260	38	-109	-71	-16240	-816	1860	112	-58	157	126	125	8
-7728	-4532	13324	-116	156	-212	-16372	-2556	-1000	85	-61	115	-16080	-1840	-1348	-24	-21	-34	-9272	5696	12684	119	-121	-215	-15236	3316	-5320	97	-103	-72	-16264	-848	1984	124	-16	164	126	125	8
-7824	-4584	13296	-128	139	-189	-16388	-2648	-1108	-147	-81	69	-16064	-1980	-1392	-191	5	-108	-9352	5512	12820	126	-88	-178	-15240	3324	-5256	91	-58	-49	-16268	-792	1988	148	53	178	126	125	8
-7784	-4564	13308	-141	138	-183	-16280	-2616	-992	-126	-109	129	-16056	-2328	-1360	-124	-14	-101	-9256	5596	12772	109	-34	-127	-15112	3240	-5236	19	-93	-113	-16160	-812	1972	17	-5	161	126	125	8
-7844	-4568	13288	-107	135	-201	-16304	-2628	-936	-71	-130	158	-16044	-2360	-1396	-90	23	14	-9252	5584	12680	68	-51	-51	-15140	3296	-5084	-104	-60	-142	-16172	-852	2004	-126	-19	195	127	125	8
-7868	-4556	13304	-112	141	-208	-16328	-2532	-952	-64	-156	155	-16052	-2124	-1188	108	17	63	-9312	5632	12672	46	-24	-45	-15112	3332	-5200	-208	-50	-148	-16204	-900	2088	-141	-79	181	126	125	8
-7812	-4628	13272	-126	134	-165	-16348	-2640	-1016	-67	-93	158	-16120	-1988	-1116	121	44	-17	-9268	5752	12804	44	1	-55	-15132	3348	-5000	-190	-47	-134	-16180	-932	2064	-145	-100	117	126	125	8
-7840	-4592	13272	-100	112	-194	-16372	-2628	-848	-55	-116	151	-16060	-2044	-1112	-28	-15	-27	-9304	5660	12632	84	14	-71	-15136	3328	-5228	-54	-59	-109	-16240	-972	2168	-151	-99	79	126	125	8
-7764	-4596	13392	-149	79	-195	-16348	-2540	-912	-154	-90	135	-16104	-2040	-1076	-114	-56	-23	-9244	5740	12788	125	-26	-90	-15108	3432	-5012	6	-8	-39	-16180	-904	2264	-208	-80	107	126	125	8
-7784	-4620	13272	-132	103	-179	-16388	-2556	-932	-162	-89	109	-16116	-2160	-1060	4	12	-3	-9256	5752	12860	78	-11	-121	-15136	3388	-5052	-52	41	-97	-16176	-896	2308	-185	-55	171	127	125	8
-7832	-4608	13300	-91	113	-159	-16304	-2596	-816	-30	-23	143	-16100	-2236	-968	126	-13	-26	-9308	5788	12708	85	-3	-208	-15164	3376	-4940	-82	44	-90	-16168	-884	2292	-191	-75	221	127	125	8
-7812	-4552	13268	-119	113	-174	-16312	-2536	-764	65	21	135	-16108	-2140	-956	155	4	62	-9280	5700	12708	50	27	-181	-15140	3316	-5076	-98	86	-43	-16244	-976	2212	-84	-84	214	126	125	8
-7848	-4632	13280	-88	98	-185	-16320	-2544	-828	90	39	116	-16128	-2168	-936	198	-14	63	-9280	5700	12752	76	-4	-242	-15176	3324	-5136	-62	115	-35	-16308	-980	2056	-90	-102	192	126	125	8
-7712	-4620	13196	-41	80	-167	-16304	-2624	-916	98	88	77	-16116	-2088	-984	189	-28	31	-9340	5712	12692	143	73	-262	-15232	3304	-5132	-47	85	-30	-16328	-1052	2172	-93	-103	188	127	125	8
-7804	-4568	13260	-83	67	-137	-16276	-2628	-988	132	98	59	-16044	-2148	-1004	216	-47	56	-9288	5632	12784	157	114	-273	-15240	3236	-5216	5	110	42	-16296	-1008	1952	-122	-140	159	126	125	8
-7832	-4560	13300	-72	93	-119	-16324	-2536	-1084	132	91	99	-16072	-2132	-1232	257	-81	1	-9308	5628	12760	181	168	-227	-15172	3284	-5272	23	128	2	-16328	-996	1912	-148	-108	187	126	125	8
-7836	-4616	13268	-68	90	-132	-16332	-2592	-1136	200	56	113	-16032	-2256	-1180	292	-63	36	-9296	5616	12732	184	221	-178	-15180	3244	-5324	-76	186	-15	-16308	-916	1936	10	-108	188	127	125	8
-7832	-4596	13352	-51	113	-170	-16408	-2664	-1008	213	55	118	-16056	-2284	-1372	362	-22	49	-9376	5576	12704	209	199	-160	-15172	3268	-5304	-114	155	-34	-16304	-928	1940	118	-72	259	126	125	8
-7820	-4568	13276	-93	130	-164	-16400	-2616	-1020	206	25	131	-16092	-2204	-1272	370	40	38	-9336	5724	12720	209	331	-68	-15168	3388	-5200	-181	97	-26	-16248	-960	1856	84	-70	269	126	125	8
-7812	-4588	13372	-71	127	-223	-16360	-2676	-1024	192	-15	145	-16076	-2076	-1288	348	31	27	-9332	5664	12708	261	274	-45	-15132	3304	-5324	-84	98	-3	-16192	-976	1920	73	-89	258	127	125	8
-7776	-4580	13380	-62	123	-198	-16316	-2604	-1108	226	-23	136	-16064	-2104	-1348	347	-9	28	-9372	5628	12768	259	234	-88	-15120	3312	-5220	-6	52	38	-16224	-956	1912	79	-137	216	127	125	8
-7836	-4560	13340	-57	148	-175	-16364	-2556	-1032	198	-62	159	-16100	-2156	-1292	345	-4	59	-9296	5640	12720	258	178	-80	-15080	3276	-5172	36	49	14	-16152	-776	1912	77	-171	191	127	125	8
-7868	-4568	13292	-83	130	-160	-16316	-2556	-1108	147	-35	156	-16068	-2112	-1252	331	38	47	-9316	5640	12664	211	91	-42	-15044	3352	-5244	23	27	3	-16112	-612	1912	34	-151	126	126	125	8
-7824	-4656	13284	-54	183	-208	-16376	-2536	-992	157	-17	182	-16060	-2064	-1140	291	75	51	-9348	5756	12624	178	124	-74	-14948	3392	-5120	-47	38	-9	-16056	-612	1936	47	-120	104	126	125	8
-7788	-4572	13280	-68	126	-215	-16384	-2632	-1008	188	-98	212	-16048	-1984	-1336	167	-5	35	-9392	5796	12672	142	-46	-62	-14952	3480	-5128	-90	38	-8	-16136	-684	1984	27	-69	166	126	125	8
-7772	-4632	13368	-59	135	-184	-16360	-2572	-964	145	-47	167	-16092	-1944	-1316	42	-55	-4	-9380	5808	12632	55	-32	-135	-14996	3516	-5348	-62	-8	-77	-16224	-688	2100	-38	-25	207	126	125	8
-7776	-4588	13200	-109	117	-216	-16360	-2552	-1000	-27	-88	173	-16020	-1884	-1232	-101	-42	7	-9368	5804	12616	30	-109	-143	-15008	3460	-5192	-23	31	-81	-16192	-716	2044	-107	-49	224	126	125	8
-7824	-4596	13352	-159	126	-141	-16340	-2584	-1000	-252	-109	181	-16112	-2112	-1212	-258	8	4	-9352	5708	12740	27	-151	-196	-15116	3332	-5200	-21	54	-47	-16196	-704	2064	-189	-65	200	126	125	8
-7776	-4600	13320	-111	127	-155	-16296	-2608	-1064	-262	-108	184	-16108	-2260	-1240	-159	38	23	-9308	5720	12624	20	-172	-145	-15204	3316	-5124	-109	54	-54	-16208	-792	2084	-316	-67	194	127	125	8
-7724	-4556	13216	-65	101	-169	-16328	-2604	-952	-138	-74	144	-16080	-2224	-1064	-18	58	35	-9340	5612	12784	-9	-71	-187	-15152	3316	-5100	-188	74	-92	-16184	-968	2124	-308	-96	171	127	125	8
-7808	-4596	13284	-95	125	-164	-16324	-2552	-960	-11	-75	139	-16104	-2072	-1084	81	11	101	-9312	5624	12780	23	-36	-156	-15172	3288	-5092	-174	100	-84	-16228	-1036	1944	-352	-140	181	126	125	8
-7836	-4620	13336	-107	113	-181	-16328	-2540	-836	-63	-62	185	-16128	-2044	-1088	49	49	93	-9320	5676	12784	62	26	-147	-15156	3296	-5172	-192	101	-70	-16284	-1048	2064	-375	-188	128	126	125	8
-7752	-4580	13292	-106	98	-162	-16312	-2572	-936	-91	-5	164	-16164	-2008	-1116	-20	74	68	-9260	5628	12692	86	30	-151	-15164	3320	-5244	-141	123	-78	-16260	-1052	1960	-307	-159	153	126	125	8
-7772	-4548	13396	-95	88	-139	-16376	-2536	-984	-165	-33	105	-16140	-1964	-1152	-17	-8	1	-9332	5660	12692	90	114	-111	-15124	3348	-5212	-149	81	-79	-16328	-924	1984	-220	-60	195	126	125	8
-7828	-4564	13260	-142	106	-134	-16352	-2560	-908	-116	18	117	-16152	-2060	-1152	12	-37	8	-9348	5688	12752	98	56	-123	-15152	3360	-5332	-73	90	-55	-16296	-1008	1840	-85	-9	185	126	125	8
-7784	-4572	13308	-119	100	-168	-16352	-2596	-992	-37	-35	161	-16088	-2216	-1112	42	-19	49	-9360	5680	12700	144	95	-145	-15068	3324	-5232	-57	78	-67	-16260	-984	1880	-11	-32	221	126	125	8
-7788	-4564	13260	-79	115	-155	-16352	-2564	-900	29	-35	165	-16088	-2216	-1240	142	22	66	-9380	5728	12736	134	52	-157	-15076	3328	-5236	-15	37	-38	-16200	-852	1848	66	-44	225	126	125	8
-7828	-4484	13212	-112	96	-166	-16360	-2576	-996	-60	-5	143	-16084	-2100	-1280	120	33	37	-9304	5720	12716	158	38	-171	-15080	3396	-5340	22	12	-17	-16244	-828	1908	59	-122	229	126	125	8
-7788	-4560	13444	-105	98	-130	-16324	-2532	-964	-97	-19	149	-16076	-2012	-1292	78	39	83	-9396	5736	12716	123	61	-166	-15032	3372	-5280	0	7	1	-16232	-756	1920	38	-116	173	126	125	8
-7848	-4576	13344	-70	72	-159	-16344	-2516	-928	-175	-4	124	-16084	-1936	-1136	62	3	54	-9336	5708	12636	154	25	-144	-15100	3356	-5288	62	-24	-8	-16228	-812	1872	-8	-109	171	126	125	8
-7848	-4544	13272	-63	154	-228	-16364	-2508	-840	-83	-65	83	-16032	-1816	-1128	34	-12	7	-9400	5672	12736	149	7	-141	-15044	3396	-5292	41	-82	1	-16288	-768	1956	29	-62	139	126	125	8
-7948	-4540	13260	-104	139	-177	-16380	-2644	-1004	-2	-38	193	-16096	-2088	-1244	-56	-99	9	-9352	5684	12660	142	-35	-143	-15068	3396	-5228	57	-60	-50	-16260	-832	2004	3	-117	164	126	125	8
-7792	-4632	13244	-128	166	-178	-16308	-2836	-1016	92	-60	130	-16156	-2172	-1332	39	-58	-29	-9384	5688	12720	120	-11	-125	-15124	3348	-5280	19	-5	-28	-16212	-792	2104	-50	-108	159	126	125	8
-7812	-4644	13312	-102	159	-160	-16300	-2476	-1020	29	-42	138	-16100	-2224	-1196	146	40	17	-9332	5672	12772	143	-8	-175	-15128	3356	-5148	-2	-53	-29	-16168	-784	2032	-61	-131	147	126	125	8
-7860	-4636	13288	-88	123	-192	-16332	-2560	-1024	-31	-42	110	-16044	-2168	-1104	138	53	57	-9324	5716	12744	139	-12	-179	-15084	3404	-5196	31	-40	-56	-16244	-824	1980	-16	-48	136	127	125	8
-7816	-4604	13292	-112	115	-164	-16424	-2544	-992	48	-29	136	-16084	-1960	-1292	172	60	81	-9364	5740	12636	113	-56	-132	-15092	3416	-5184	27	-30	-48	-16232	-868	2112	79	-77	150	126	125	8
-7688	-4488	13336	-84	140	-167	-16364	-2512	-980	27	-77	129	-16064	-1928	-1136	177	15	72	-9352	5728	12684	136	-20	-214	-15092	3420	-5204	40	-1	-12	-16212	-920	2072	65	-70	166	126	125	8
-7856	-4560	13332	-112	117	-170	-16384	-2556	-936	59	1	111	-16088	-2016	-1028	182	-44	38	-9336	5692	12744	138	-107	-165	-15144	3388	-5088	62	-30	-23	-16240	-964	2016	64	-66	171	127	125	8
-7812	-4572	13264	-124	120	-185	-16332	-2680	-1008	116	-11	95	-16080	-2156	-1208	216	-12	-6	-9376	5588	12792	115	-69	-176	-15136	3304	-5288	58	-46	-3	-16308	-828	1936	117	-116	208	126	125	8
-7860	-4560	13320	-92	119	-160	-16344	-2560	-908	115	-26	111	-16104	-2108	-1236	298	15	-23	-9248	5696	12832	144	-12	-186	-15148	3272	-5276	36	-39	-50	-16288	-796	1956	59	-137	193	126	125	8
-7804	-4596	13240	-34	131	-209	-16316	-2600	-1040	84	-59	121	-15976	-2048	-1276	263	15	11	-9292	5684	12744	137	-3	-163	-15084	3368	-5268	62	-45	-26	-16264	-800	1956	73	-98	159	127	125	8
-7816	-4564	13288	-123	135	-166	-16344	-2556	-976	94	-17	123	-16064	-2060	-1324	240	14	22	-9324	5680	12692	163	-16	-149	-15108	3360	-5300	53	-89	-10	-16260	-844	1956	61	-73	101	126	125	8
-7824	-4608	13296	-49	130	-149	-16312	-2532	-1016	78	-65	123	-16076	-2060	-1092	209	33	9	-9300	5712	12700	158	-64	-139	-15088	3320	-5268	94	-99	-19	-16280	-812	1832	105	-84	146	126	125	8
-7792	-4580	13224	-109	169	-201	-16340	-2616	-960	72	-89	110	-16048	-2048	-1352	202	7	-15	-9328	5680	12736	203	-88	-131	-15032	3364	-5252	165	-110	-54	-16164	-844	1932	188	-94	140	126	125	8
-7780	-4612	13300	-105	123	-200	-16348	-2520	-1004	110	-101	123	-16092	-1972	-1352	174	1	-7	-9312	5704	12620	166	-117	-173	-15048	3380	-5148	137	-131	0	-16252	-840	1904	200	-123	169	127	125	8
-7872	-4604	13396	-139	148	-177	-16400	-2536	-1040	-33	-76	111	-16084	-1996	-1192	126	-16	6	-9396	5712	12724	158	-134	-190	-15164	3456	-5212	160	-131	-14	-16220	-860	2008	219	-111	139	127	125	8
-7792	-4592	13212	-106	128	-171	-16316	-2568	-940	-113	-81	49	-16076	-1940	-1204	102	22	-14	-9300	5744	12752	212	-133	-175	-15140	3460	-5148	126	-118	32	-16212	-832	1968	288	-82	179	127	125	8
-7844	-4500	13300	-113	140	-164	-16308	-2560	-972	-101	-95	80	-16064	-1804	-1312	-31	17	-43	-9292	5692	12596	216	-242	-211	-15116	3384	-5224	96	-143	60	-16240	-848	2020	330	-67	170	127	125	8
-7764	-4508	13444	-108	100	-192	-16348	-2484	-996	-304	-4	-27	-16044	-1580	-1060	-188	18	66	-9324	5744	12752	163	-291	-273	-15132	3424	-5176	216	-163	35	-16232	-848	2100	358	-80	126	127	125	8
-7988	-4348	13364	-200	100	-132	-16388	-2684	-1204	-390	-63	32	-16128	-2036	-1080	-204	-1	34	-9292	5848	12740	195	-287	-280	-15108	3440	-5140	209	-166	15	-16268	-680	2132	319	-48	111	127	125	8
-7832	-4592	13340	-185	93	-152	-16408	-2684	-1120	-420	-37	-32	-16124	-2096	-1260	-203	-42	-156	-9228	5804	12784	214	-296	-296	-15324	3652	-4960	127	-198	-17	-16452	-572	2216	231	-170	187	127	125	8
-7800	-4672	13252	-168	140	-146	-16360	-2476	-1156	-209	-99	2	-15924	-2004	-1304	-397	-53	-116	-9560	5504	13512	181	-427	-605	-15460	3852	-4900	-230	-262	-33	-16728	-244	2280	74	-178	293	127	125	8
-7812	-4544	13448	-201	119	-166	-16408	-2712	-1256	-311	-61	18	-16092	-2144	-1316	-313	-121	-82	-9332	5912	12980	123	-544	-591	-15260	3760	-5028	-962	-368	21	-16552	-540	1992	-33	-124	514	127	125	8
-7728	-4356	13304	-220	157	-160	-16364	-2704	-1120	-43	-170	2	-16000	-2232	-1416	35	-7	-137	-9416	5764	12800	55	-550	-588	-15184	3540	-5380	-2172	-475	2	-16184	-868	1840	70	-159	671	127	125	8
-7780	-4540	13356	-147	182	-252	-16380	-2552	-856	-39	-123	81	-16140	-2488	-1396	102	-48	-70	-9404	5744	12784	314	-278	-389	-15092	2724	-5492	-2266	-464	-10	-15992	-1300	1592	105	-243	661	127	125	8
-7948	-4712	13208	-134	214	-248	-16268	-2768	-912	308	-135	13	-16240	-2456	-1176	408	-13	-49	-9964	5096	13340	145	-927	118	-14756	3112	-5228	-2004	-504	63	-15948	-1144	1500	-114	-131	369	127	125	8
-7800	-4580	13260	-145	207	-235	-16244	-2432	-844	236	-174	48	-15904	-2060	-1416	571	63	-28	-9984	6016	12636	716	-826	563	-14836	3024	-5564	-1979	-399	-130	-15892	-708	1668	-7	-125	130	127	125	8
-7944	-4652	13264	-143	156	-241	-16312	-2380	-1260	-31	-137	-15	-16116	-1392	-1408	313	150	68	-10124	5952	13148	1029	-1095	1119	-15020	3348	-5428	-1844	-152	7	-16016	-704	1864	-18	-82	48	127	125	8
-7772	-4656	13308	-199	210	-259	-16320	-2472	-840	-91	-111	-79	-16044	-1436	-932	295	63	8	-9668	5824	13072	1299	-801	1796	-14968	3304	-5520	-1714	112	-124	-16124	-820	2004	-258	-19	109	127	125	8
-7792	-4620	13312	-197	193	-300	-16404	-2788	-772	42	-80	-75	-16168	-2040	-840	126	-27	-66	-9580	5876	13140	1020	-372	2268	-15000	3632	-5344	-1047	285	-223	-16156	-796	2284	-386	54	337	127	125	8
-7868	-4576	13308	-183	234	-327	-16316	-2604	-740	410	-11	-10	-16340	-2356	-668	231	-43	-111	-9628	6576	12964	886	-602	2531	-14856	4124	-5208	-1033	540	-223	-16176	-588	2292	-275	258	580	127	125	8
-7824	-4656	13292	-90	255	-314	-16216	-2696	-744	525	107	-68	-16100	-2316	-816	191	-135	-164	-9376	6620	12588	7	-848	2425	-14764	4196	-5264	-1660	766	-259	-16072	-256	2048	96	586	831	127	125	8
-7892	-4804	13100	-57	199	-291	-16272	-2728	-908	562	151	24	-16188	-2072	-1096	43	-178	-78	-9588	5492	12140	-443	-959	1501	-14748	3868	-5424	-1748	851	-332	-16064	188	2060	53	725	1087	127	125	8
-7856	-4664	13316	-59	137	-245	-16428	-2608	-920	219	189	4	-16176	-2084	-1000	-256	-173	-30	-11004	4280	12592	-288	-1284	-164	-14708	3932	-5792	-833	890	-255	-16092	80	1664	-591	768	896	126	125	8
-7836	-4560	13392	-66	101	-185	-16356	-2644	-968	-135	196	-50	-16064	-2420	-1060	-302	-174	-34	-11024	3716	12960	-336	-2300	-1820	-14404	3592	-6276	108	993	-39	-15928	-648	1380	-996	974	658	127	125	8
-7848	-4528	13400	-72	147	-185	-16320	-2812	-872	97	226	50	-16192	-2584	-1376	54	-248	-16	-10208	5876	12652	-296	-3265	-2625	-14316	3276	-6276	1576	915	100	-15768	-1276	936	-626	1162	503	127	125	8
-7856	-4616	13336	-22	193	-152	-16308	-2504	-1036	491	182	65	-16036	-2284	-1220	254	-210	2	-9052	5920	12164	152	-3485	-2651	-14428	3432	-5996	2233	594	269	-15876	-1280	604	298	1370	415	126	126	8
-7644	-4716	13128	-2	432	-210	-16332	-2668	-940	548	93	533	-15976	-1944	-1556	-25	-202	-9	-8752	6652	13092	928	-4038	-1930	-14584	3560	-5832	2620	497	331	-15880	-1004	704	829	1531	581	126	125	8
-7732	-4756	13216	61	423	-124	-16340	-2832	-1224	518	-27	496	-15872	-2016	-1872	-111	-91	-115	-8216	6332	11928	862	-3794	-1284	-14692	3552	-5500	2202	334	372	-16100	-488	840	963	1752	769	126	126	8
-7996	-4628	13060	67	495	-140	-16392	-2560	-1348	-107	-107	492	-15940	-2256	-1692	-312	40	-79	-8604	6436	13012	1300	-3912	-885	-14724	3508	-5776	1773	393	359	-16128	-396	1016	1070	2078	936	126	126	8
-7892	-4600	13136	-34	480	-190	-16432	-2788	-968	-361	-93	213	-15988	-2396	-1292	-263	61	22	-8544	6128	13224	1526	-3826	-475	-14976	3528	-5664	1509	434	355	-16232	-460	1064	1020	2121	932	126	125	8
-7952	-4692	13124	-53	323	-221	-16428	-3000	-1016	153	-169	259	-16100	-2596	-960	171	12	165	-9228	6092	13796	1932	-4167	75	-15064	3316	-5892	1401	582	264	-16540	-352	1152	445	2207	1152	127	126	8
-7880	-4704	13088	-84	479	-210	-16300	-2764	-1060	577	-146	295	-16124	-2656	-1040	439	-28	135	-8632	5472	12784	1662	-3357	-228	-15412	3256	-5660	1432	782	223	-16676	-132	1500	-138	1842	1193	126	126	8
-7932	-4600	13196	-5	346	-215	-16324	-2844	-892	554	-124	244	-16060	-2480	-964	482	53	69	-9024	5672	14080	1953	-3577	-483	-15232	3232	-5660	1513	984	188	-16592	-328	1640	118	1839	1129	127	125	8
-7556	-4748	13164	-21	585	-132	-16572	-2576	-952	355	-60	285	-16104	-2052	-1148	554	54	129	-10560	6088	16116	2293	-4884	-333	-15284	3192	-5728	1979	1439	65	-16524	-292	1724	-456	1639	1254	127	125	8
-7932	-4544	13252	-54	193	-186	-16284	-2628	-888	68	-63	210	-16120	-1924	-1216	506	-13	127	-8492	5224	15052	1476	-5266	-644	-15508	3508	-5452	1984	1898	82	-16720	-372	1912	-800	1399	1192	127	125	8
-7864	-4524	13324	-24	258	-107	-16432	-2480	-884	-55	-9	200	-16132	-1944	-1228	389	-26	183	-8540	4700	13992	610	-5384	-1837	-15528	3084	-5688	2211	2120	29	-16772	-708	1956	-1469	958	1028	127	125	8
-7872	-4564	13348	-28	185	-195	-16332	-2664	-1012	70	-28	213	-16116	-2172	-1188	333	40	233	-6796	4352	12536	221	-4472	-3461	-15696	3076	-5672	2280	2100	15	-16688	-1092	1992	-2164	343	753	127	126	8
-7924	-4604	13304	-151	70	-219	-16392	-2652	-1132	92	54	141	-16172	-2280	-1452	255	85	118	-7304	5088	13232	244	-3329	-4266	-15824	2332	-5904	3911	2100	286	-16288	-2024	2052	-1776	-390	360	126	125	8
-7872	-4584	13288	-197	6	-214	-16308	-2564	-1172	-23	-67	177	-15976	-1960	-1404	145	128	110	-7352	5596	12516	237	-1819	-4994	-15364	2828	-5960	4027	2283	512	-16144	-2492	2104	-1062	-757	-21	126	125	8
-7808	-4456	13332	-223	-60	-175	-16448	-2400	-1132	-514	-129	56	-15976	-1528	-1220	-114	178	123	-7004	6068	12712	540	-689	-4835	-15256	2740	-6108	3340	2536	652	-15964	-2608	1668	242	-358	-189	127	125	8
-7736	-4692	13256	-235	-69	-182	-16288	-2676	-892	-1030	-131	58	-15948	-1776	-1276	-525	314	137	-6256	6508	12928	621	523	-3966	-15224	2712	-6048	2736	2615	746	-16072	-2256	1380	1749	132	150	127	124	8
-7828	-4324	13160	-303	-105	-104	-16396	-2624	-912	-760	-163	142	-16080	-2392	-1072	-280	415	147	-6200	6516	13200	1016	1471	-2947	-15116	3040	-6156	2021	2649	727	-16344	-1088	1124	2309	671	734	127	124	8
-7984	-4756	13108	-212	-110	-205	-16248	-2676	-736	-176	-107	176	-16180	-2684	-748	227	360	97	-6356	6256	13352	1331	2301	-2156	-15152	2864	-6200	1217	2663	564	-16488	-176	1044	2510	1042	1011	127	124	8
-8020	-4484	13232	-33	54	-219	-16284	-2744	-856	495	9	181	-16256	-2444	-772	704	244	120	-6600	6168	14000	1962	2730	-1389	-15208	2660	-6268	1488	2627	471	-16688	428	828	2181	954	974	127	124	8
-8136	-4324	13324	-82	63	-233	-16396	-2684	-684	595	22	180	-16272	-2352	-780	812	229	140	-6868	6348	14152	1954	2940	-791	-15212	3188	-6124	1711	2476	352	-16700	380	920	1736	660	741	127	124	8
-8124	-4440	13344	-28	-12	-161	-16328	-2688	-888	158	13	154	-16004	-2132	-1148	633	330	106	-7400	6332	14356	1594	3132	-676	-15056	3236	-6192	1329	2384	331	-16420	328	880	1219	300	400	127	124	8
-7936	-4696	13232	5	1	-95	-16420	-2620	-1020	-156	9	163	-15952	-2364	-1448	573	468	18	-6980	6520	13936	1466	2954	-843	-14956	3528	-6184	799	2341	320	-16572	444	908	201	-172	-58	127	124	8
-7784	-4676	13288	-15	-35	-146	-16452	-2704	-1060	107	-8	138	-16076	-2312	-1368	731	435	94	-7472	6160	13744	1310	2937	-703	-14696	3156	-6256	455	2348	263	-16364	372	956	-528	-565	-334	127	124	8
-7796	-4540	13248	-13	33	-143	-16276	-2580	-1164	525	-29	307	-16056	-2108	-1564	875	480	114	-7668	6684	13136	1184	3206	-334	-14532	3416	-6544	521	2416	202	-16212	168	1008	-883	-707	-386	127	124	8
-7888	-4588	13384	-78	19	-153	-16476	-2544	-1048	395	-109	139	-16028	-1628	-1632	680	501	122	-7908	6344	13356	846	3093	-200	-14320	3468	-6640	133	2458	108	-16164	84	1012	-795	-655	-389	127	125	8
-7800	-4532	13256	-118	-4	-164	-16308	-2276	-1040	-173	-41	135	-16100	-1376	-1388	423	484	123	-8072	6664	13116	559	3125	355	-14140	3500	-6960	-366	2478	13	-16196	48	1056	-493	-302	-104	126	125	8
-7860	-4364	13300	-468	-130	-178	-16228	-2548	-856	-846	-106	-53	-16044	-1452	-1300	-62	418	154	-7820	6764	13100	492	3151	527	-14208	3512	-6968	-551	2438	-56	-16288	36	1136	-344	133	337	126	125	8
-7836	-4644	13228	-116	-106	-126	-16324	-2576	-856	-794	16	-41	-16272	-2076	-924	-159	264	139	-8568	6428	12916	209	3269	540	-14180	3600	-7180	-821	2396	-130	-16352	172	1208	-163	451	614	126	124	8
-7756	-4692	13312	-22	109	-141	-16316	-2620	-744	87	66	193	-16416	-2360	-816	229	123	121	-8492	5928	12836	311	2979	286	-14180	3300	-7392	-750	2402	-123	-16360	32	1108	-243	415	740	127	124	8
-7724	-4628	13256	-33	125	-156	-16304	-2540	-824	455	130	183	-16224	-2344	-976	546	54	115	-8632	6900	13108	510	3230	300	-14176	3308	-7572	-347	2378	-71	-16152	-104	1092	-443	220	513	127	124	8
-7816	-4484	13272	-147	-1	-82	-16276	-2376	-1028	273	87	139	-16216	-2292	-980	512	54	101	-8924	6744	12152	793	3595	388	-14216	3744	-7564	-282	2318	46	-16220	-108	908	-458	239	501	127	124	8
-7700	-4536	13264	-111	-10	-44	-16288	-2592	-964	-389	166	92	-15964	-1448	-1548	-273	134	146	-9568	7192	12168	1736	3636	852	-14008	3664	-7800	-511	2532	97	-16356	200	836	-916	-194	114	127	125	8
-7820	-4648	13220	-53	-7	-58	-16348	-2648	-1124	-586	185	68	-15976	-1956	-1292	-525	117	71	-9496	6384	10908	1979	4243	1324	-13884	3680	-7812	-771	2744	96	-16308	260	960	-1433	-205	176	126	124	8
-7796	-4472	13304	40	2	6	-16388	-2628	-1036	-155	214	172	-16044	-2460	-1408	-247	-10	-6	-8308	7676	11120	2230	4967	2487	-14016	3524	-8188	-1030	2917	93	-16352	160	1028	-1480	-109	402	126	125	8
-7976	-4480	13184	-32	104	-104	-16364	-2556	-1132	190	160	264	-16204	-2240	-1372	5	24	46	-9440	8760	9532	3709	6832	4300	-13940	3152	-8192	-1305	3131	75	-16288	-16	1152	-1485	31	616	126	124	8
-7740	-4332	13436	-190	25	-77	-16408	-2564	-820	97	84	75	-15992	-1944	-1392	78	-2	113	-10444	8272	11016	3974	7497	5007	-13632	3604	-8216	-1990	3469	6	-16060	-168	1196	-1447	212	785	126	124	8
-7736	-4552	13300	-88	72	-154	-16248	-2400	-1200	42	139	173	-15984	-1832	-1520	-62	47	99	-9916	5992	12980	4025	7555	4860	-13608	3136	-8484	-2807	3725	64	-16196	-288	988	-1397	326	687	126	125	8
-7740	-4548	13444	-88	22	-95	-16504	-2524	-1256	-81	64	124	-15948	-1776	-1828	-156	39	74	-11288	6860	13128	3571	7172	3843	-13652	2568	-8236	-1536	3569	15	-16156	-284	580	-1359	239	491	127	124	8
-7804	-4400	13432	-93	37	-120	-16372	-2568	-1116	-111	39	93	-16016	-1988	-1680	-223	0	25	-10808	6424	12784	2974	6536	2718	-13664	2996	-8092	-537	3235	-127	-16244	156	500	-979	147	392	126	125	8
-7772	-4520	13288	-106	98	-91	-16456	-2608	-1252	-113	-4	179	-16012	-2116	-1676	-109	3	30	-9020	6924	14332	2548	4556	1615	-13324	3440	-8252	-107	3058	-272	-16280	436	412	-543	79	435	126	124	8
-7736	-4516	13284	-93	165	-178	-16288	-2448	-1216	127	5	225	-16036	-2076	-1684	-69	9	42	-10548	6680	12144	1636	4422	911	-13052	3820	-8168	-326	2817	-360	-16296	740	508	-590	119	599	126	125	8
-7792	-4476	13356	-181	121	-194	-16364	-2512	-1196	-47	-39	205	-16040	-1932	-1640	-196	-49	67	-9248	7600	11824	1307	3945	901	-13100	3620	-8264	-857	2590	-406	-16252	748	272	-697	285	745	126	124	8
-7768	-4520	13368	-109	114	-181	-16344	-2588	-1020	-269	-61	197	-16108	-1968	-1692	9	-20	58	-9544	7824	10772	1278	3808	882	-12912	3628	-8224	-534	2116	-531	-16168	580	120	-662	494	598	127	125	8
-7816	-4548	13268	-91	109	-152	-16388	-2344	-1012	-366	-88	106	-16144	-1960	-1340	-11	-54	25	-9588	7268	11408	541	2816	709	-12792	3792	-8080	-46	1681	-568	-16120	476	-208	-689	730	547	127	125	8
-7632	-4496	13492	-134	149	-264	-16364	-2560	-1088	-455	28	134	-16224	-1880	-1148	-79	-148	152	-9336	7872	11328	-202	1896	513	-12536	3876	-7868	-123	1115	-540	-15972	360	-268	-557	658	474	126	124	8
-7692	-4744	13260	-129	170	-169	-16288	-2568	-1088	21	13	212	-16096	-2208	-1252	247	-243	123	-9588	8808	10332	-861	1592	140	-12492	4028	-8344	-831	690	-524	-16204	28	-108	-5	353	202	126	125	8
-7596	-4352	13312	-138	87	-167	-16260	-2576	-1040	169	64	112	-16080	-2160	-1240	238	-232	82	-9556	7636	10540	-971	698	110	-12752	3884	-8412	-1009	361	-641	-15972	220	68	441	106	-61	127	125	8
-7848	-4384	13388	-59	65	-179	-16292	-2400	-712	44	-2	189	-16068	-1744	-1416	-82	-147	104	-8948	7536	10672	-948	176	-7	-12888	3420	-8344	-1068	-7	-628	-16196	136	-76	492	161	-308	126	125	8
-7896	-4644	13284	-132	126	-209	-16340	-2528	-1060	-368	35	133	-16080	-1804	-1468	-269	-25	77	-8772	7420	12136	-1184	-890	-519	-13124	3152	-8004	-339	-297	-631	-16160	156	28	748	608	11	127	125	8
-7704	-4540	13196	-83	85	-139	-16312	-2584	-1048	-97	4	189	-16008	-2160	-1396	-121	-40	62	-8984	7616	12140	-1303	-1131	-546	-13244	3356	-8228	146	-720	-634	-16184	-64	388	902	791	99	127	125	8
-7760	-4444	13428	-64	77	-192	-16276	-2400	-956	-17	13	160	-16140	-2172	-1388	-20	-73	100	-8980	7604	11544	-1717	-2827	-1447	-13472	3736	-7796	-260	-974	-540	-16300	-116	380	1009	745	74	126	125	8
-7800	-4544	13312	-106	112	-181	-16368	-2548	-1240	98	-15	171	-16152	-1936	-1352	90	-27	101	-9184	8380	11212	-2001	-2432	-2077	-13496	3180	-8140	-519	-1100	-393	-16092	-308	120	617	1034	612	126	125	8
-7792	-4672	13212	-74	173	-201	-16336	-2664	-1152	262	-29	219	-15956	-2184	-1624	179	-47	52	-8532	8424	11060	-2287	-2875	-2164	-13896	3632	-8000	-604	-1453	-107	-16296	-640	152	597	869	326	126	126	8
-7780	-4480	13504	-61	128	-218	-16336	-2496	-1216	364	-134	186	-16020	-1924	-1892	357	-14	-6	-8740	8276	11268	-1626	-2891	-1615	-13756	3520	-8060	-1175	-1672	-76	-16440	-728	320	723	681	174	126	126	8
-7876	-4492	13288	-133	180	-219	-16428	-2400	-1080	1	-147	188	-15984	-1672	-1632	271	-14	99	-8344	7820	10532	-1466	-2546	-1002	-13924	3324	-7864	-1703	-1837	134	-16544	-676	444	870	591	47	126	126	8
-7836	-4552	13332	-164	210	-230	-16348	-2600	-1088	7	-111	160	-15996	-2028	-1436	369	45	128	-8992	7624	11616	-1339	-2007	-298	-13880	3152	-8068	-1680	-1996	140	-16492	-328	404	909	635	106	126	126	8
-7796	-4604	13304	-107	186	-240	-16348	-2608	-1116	258	-162	157	-16208	-2244	-1420	585	-9	61	-8852	7388	11692	-1299	-1970	-416	-13844	3276	-7876	-1376	-2299	66	-16440	-256	468	1121	692	125	126	126	8
-7824	-4564	13236	-98	179	-283	-16404	-2572	-1068	381	-148	184	-16076	-2132	-1364	653	-45	33	-9288	5960	12588	-1754	-2517	-1435	-13996	3076	-7528	-814	-2614	62	-16428	-220	320	1604	699	103	126	126	8
-7788	-4548	13300	-84	188	-243	-16340	-2496	-1184	410	-149	201	-16076	-1784	-1428	587	23	98	-9112	5896	13076	-1977	-3325	-2533	-13984	3052	-7568	-256	-2889	45	-16356	-220	256	1913	657	-95	126	126	8
-7788	-4648	13284	-117	201	-223	-16364	-2492	-1120	334	-182	193	-16100	-1640	-1408	369	0	40	-9068	6484	13072	-1980	-3826	-2605	-14092	3044	-7348	216	-3252	-70	-16404	-156	344	2021	564	-103	126	126	8
-7720	-4496	13404	-98	170	-239	-16400	-2340	-1060	127	-194	163	-16076	-1664	-1504	229	-58	-22	-8692	6464	13004	-1836	-4455	-2828	-14220	3052	-7248	388	-3472	-135	-16488	72	364	1921	548	-111	126	126	8
-7720	-4784	13232	-82	207	-296	-16328	-2528	-868	165	-150	119	-16156	-2048	-1408	280	-121	-18	-8068	6352	12836	-1548	-4479	-2488	-14372	2808	-6680	581	-3663	-295	-16408	160	324	1787	402	-156	127	126	8
-7776	-4660	13164	-92	193	-231	-16388	-2464	-980	406	-103	185	-16160	-2284	-1380	542	-121	39	-7440	5856	12992	-1190	-4361	-2364	-14524	2416	-6492	820	-3982	-431	-16444	156	280	1916	365	-285	126	126	8
-7612	-4512	13252	-127	211	-255	-16400	-2364	-1212	487	-168	145	-16152	-1760	-1412	479	-134	-54	-7376	5176	14192	-534	-5011	-2343	-14640	2144	-6024	1779	-4551	-683	-16520	-24	80	2259	425	-490	126	126	8
-7840	-4264	13384	-180	192	-276	-16392	-2692	-1304	265	-284	117	-15980	-1284	-2080	27	-138	-112	-7456	4880	15708	-796	-6365	-3488	-14912	2420	-5492	2835	-5230	-859	-16604	-352	-192	3041	547	-609	126	126	8
-7580	-4384	13628	-266	131	-179	-16528	-2044	-1268	-370	-450	160	-15792	-956	-2272	-731	-82	-135	-7312	5180	16160	-1025	-7707	-4602	-15448	2392	-5440	3860	-6041	-966	-16764	-772	-380	3897	592	-802	126	126	8
-7756	-4424	13268	-343	182	-156	-16532	-2460	-1432	-1693	-586	100	-15736	-1524	-2236	-1878	196	-32	-6760	5980	15452	-528	-8990	-5194	-15580	2388	-5264	4604	-6755	-833	-16640	-1160	-420	4128	373	-1053	126	126	8
-7880	-4728	13264	-300	137	-217	-16452	-3052	-1232	-1502	-712	133	-15868	-3032	-2092	-1576	367	-175	-6664	6152	15164	-494	-9181	-5241	-15828	2608	-5252	4691	-7348	-543	-16424	-1724	-172	3992	97	-1238	126	126	8
-7796	-4608	13300	-299	184	-200	-16344	-2548	-1128	-746	-887	349	-16120	-3500	-1780	-880	616	-85	-5964	8036	14008	-354	-9545	-4531	-16016	2932	-5096	3848	-7770	-194	-16404	-2152	272	3899	-342	-1596	126	127	8
-7704	-4988	13080	-341	167	-291	-16388	-2456	-856	-654	-832	377	-16040	-2788	-1160	49	723	24	-6184	7968	12992	145	-8529	-3065	-15964	2716	-5032	2480	-7835	34	-16148	-2452	888	3908	-1018	-1917	126	126	8
-7828	-4756	13200	-141	223	-256	-16308	-2688	-816	-109	-816	378	-15944	-2228	-1124	964	750	36	-6568	7244	13120	489	-7228	-1758	-15784	2792	-5020	1494	-7705	205	-16052	-2240	1216	3854	-1390	-2081	126	126	8
-7776	-4612	13244	-80	209	-247	-16320	-2172	-480	316	-692	362	-16252	-1964	-884	1562	656	112	-7572	5828	14396	473	-6376	-1025	-15764	2888	-5288	730	-7395	248	-16156	-1720	1692	3703	-1957	-2023	126	126	8
-7844	-4628	13312	-153	213	-283	-16288	-2008	-548	168	-550	125	-16408	-1656	-572	1681	474	220	-7548	4804	14228	338	-5530	-1081	-16036	2408	-5216	688	-7031	64	-16752	-1064	1928	3139	-3234	-2037	127	126	8
-7792	-4720	13240	-117	260	-240	-16300	-2448	-592	508	-399	87	-16140	-1576	-960	1672	166	157	-7548	4496	13592	-3	-4407	-1800	-16120	2460	-5216	1512	-6919	-129	-17060	-580	1764	2804	-4218	-1780	126	126	8
-7840	-4660	13208	-59	229	-287	-16380	-2492	-704	1013	-422	191	-16168	-1856	-1328	1749	148	140	-9064	5764	15404	900	-4625	-1360	-15736	2652	-5288	2469	-6631	-200	-16688	-692	1540	3388	-5227	-1885	127	126	8
-7800	-4596	13460	-141	216	-218	-16412	-2360	-844	672	-422	189	-16100	-1756	-1364	1245	212	51	-9028	5160	14360	601	-4541	-2015	-15880	3300	-5304	2217	-6068	34	-16968	-716	1828	3431	-5718	-2187	127	125	8
-7932	-4664	13180	-128	194	-181	-16392	-2468	-868	-77	-321	138	-15964	-2016	-1420	608	386	8	-9072	5840	13844	630	-4607	-2219	-15656	3420	-5400	2475	-5489	-64	-16796	-668	2264	2338	-6688	-2517	127	125	8
-7844	-4828	13328	-99	140	-107	-16448	-2676	-796	-142	-376	113	-16116	-2096	-1768	493	352	-77	-10172	5712	12972	1004	-3858	-2435	-15624	3364	-6108	2280	-4792	333	-16308	-1572	2304	2270	-6372	-2723	126	125	8
-7796	-4608	13344	-77	138	-190	-16368	-2512	-1000	422	-455	244	-16128	-2152	-1828	629	232	-106	-9728	5408	11784	978	-2915	-3089	-15324	3756	-6032	3138	-4214	889	-16596	-1676	2336	651	-6324	-3321	127	125	8
-7796	-4524	13184	-122	206	-216	-16464	-2224	-896	432	-474	245	-16124	-1772	-1776	669	105	-26	-10224	5672	12880	1943	-2555	-3117	-14844	3660	-6236	3883	-3762	1117	-15364	-2260	2404	1238	-5340	-2934	127	125	8
-7892	-4740	13264	-149	243	-233	-16384	-2396	-732	81	-416	184	-16036	-1752	-1608	821	98	-16	-10564	4964	13140	2580	-2280	-3807	-14684	3792	-6448	4156	-3066	1569	-15448	-2020	2472	2371	-3663	-2348	127	124	8
-7808	-4692	13184	-106	283	-192	-16368	-2440	-684	82	-422	164	-16044	-1996	-1564	690	59	-9	-9200	5140	12248	2937	-2624	-3963	-14780	3568	-5704	5145	-2764	1692	-15492	-1660	2324	3140	-2096	-1871	127	123	8
-7836	-4472	13392	-184	286	-136	-16380	-2320	-836	-118	-372	118	-16024	-1836	-1436	521	37	66	-9060	4760	12276	3211	-1825	-4391	-14688	3308	-5552	5258	-2330	1742	-15548	-732	1760	5387	-716	-1126	127	123	8
-7800	-4632	13236	-179	231	-196	-16404	-2332	-540	-177	-379	106	-16048	-1592	-1324	235	-25	40	-8008	4416	11268	2523	-498	-4969	-14832	3312	-5276	5341	-2116	1729	-15964	-36	1152	6093	45	-625	127	123	8
-7976	-4736	13160	-169	280	-216	-16364	-2568	-512	-109	-319	190	-16076	-1864	-1152	260	-39	6	-6328	4040	9324	1080	2071	-5704	-15100	2892	-4648	4711	-2278	1514	-15984	376	908	5901	582	-246	127	123	8
-8120	-4544	13324	-122	171	-204	-16396	-2460	-444	-29	-236	149	-16124	-2232	-892	174	-57	-9	-3552	3124	6616	-906	7226	-6722	-15364	2548	-4016	3735	-2650	1380	-15784	596	700	5529	1184	-107	127	124	8
-8008	-4576	13356	-78	96	-202	-16316	-2420	-444	-31	-239	167	-16308	-2220	-732	114	-102	-1	-4668	3112	16684	-7413	6006	-6476	-15608	2648	-3500	4914	-3202	643	-16136	1108	440	5312	2085	192	126	123	8
-7880	-4680	13288	-110	53	-176	-16296	-2468	-172	36	54	188	-16220	-2032	-600	42	-165	83	-10436	8732	25620	-4727	1666	-6443	-16092	4304	-4272	4538	-3248	-361	-16796	1184	840	4424	2607	624	126	123	8
-7828	-4732	13300	-64	15	-155	-16352	-2596	-112	-70	268	188	-16156	-2380	-824	8	-220	86	-10860	3276	14168	-91	3538	-4598	-16032	4584	-4660	1195	-2650	-732	-17572	980	2040	1907	1540	747	126	123	8
-7864	-4696	13152	85	-10	-84	-16292	-2628	-176	188	364	191	-16240	-2856	-1048	421	-231	78	-11644	7144	13744	456	849	-3642	-15712	2844	-5448	565	-1530	-867	-17196	752	2576	-1832	873	1510	127	124	8
-7736	-4556	13304	111	-2	-139	-16288	-2204	-356	572	508	231	-16264	-2796	-1052	503	-254	114	-10312	6556	13216	-599	2283	-2037	-15808	2676	-5420	751	-1361	-942	-16296	32	2588	-3463	1461	1963	126	124	8
-7796	-4652	13204	104	25	-137	-16300	-2188	-632	827	642	94	-16144	-1624	-952	1131	-492	208	-8996	2952	14304	-782	2073	-491	-15416	2028	-3836	494	-459	-1337	-16160	-820	2472	-3095	2308	2096	126	124	8
-7852	-4612	13172	121	81	-177	-16372	-2456	-816	1247	639	156	-15936	-1284	-1416	1220	-615	134	-7972	3996	14428	-319	1373	204	-15404	2508	-2932	-175	-472	-1522	-15440	-1536	1792	-2797	3051	2047	126	125	8
-7876	-4604	13172	111	107	-241	-16368	-2272	-936	1342	603	81	-16032	-1708	-1600	1055	-502	90	-8132	5280	13904	-405	1197	189	-15192	2872	-2908	-1502	-469	-1255	-15196	-2400	1240	-2610	3235	2057	126	126	8
-7820	-4500	13272	100	95	-223	-16392	-2424	-924	1106	563	1	-15976	-2012	-2064	1166	-385	-4	-8492	4464	13992	-572	626	103	-15228	2552	-2768	-2712	-309	-919	-15284	-3320	1284	-2178	2535	1641	126	126	8
-7820	-4568	13316	22	97	-241	-16432	-2404	-944	1109	407	53	-16000	-1696	-2016	1010	-265	15	-8376	4124	13916	-331	9	142	-15584	1836	-2888	-2203	-308	-626	-15608	-3796	1660	-2026	1375	1026	126	127	8
-7848	-4388	13288	48	137	-200	-16408	-2360	-1068	797	232	31	-15932	-1488	-2076	805	-198	91	-8204	3972	14076	-114	-366	129	-15856	1764	-2692	-553	-405	-319	-16116	-3760	1916	-1582	463	454	126	126	8
-7848	-4316	13324	-16	70	-223	-16528	-2348	-1116	261	171	1	-15888	-1604	-1888	386	-80	40	-8128	4224	14128	103	-548	116	-16016	2060	-2596	706	-450	-48	-16036	-3672	1832	-1435	312	434	126	126	8
-7912	-4748	13288	-61	163	-242	-16452	-2472	-1000	46	78	23	-16088	-2000	-1796	254	-5	-7	-8032	4504	14196	255	-535	13	-16232	2384	-2652	1031	-502	160	-16528	-2908	2060	327	-83	-83	126	126	8
-7684	-4460	13312	-110	142	-160	-16392	-2472	-924	231	-12	17	-16124	-1908	-1652	483	3	-45	-8036	4612	14088	343	-295	-89	-16224	2524	-2652	966	-482	203	-16752	-2204	2412	1310	-67	-92	126	126	8
-7720	-4468	13340	-153	195	-185	-16452	-2240	-824	41	-110	-12	-16292	-1576	-1640	294	-98	38	-8064	4612	14160	320	-105	-126	-16280	2612	-2644	799	-344	197	-16796	-1484	2456	1913	180	-62	126	125	8
-7748	-4736	13240	-271	210	-175	-16496	-2252	-772	-546	-97	-54	-15892	-1452	-1512	-372	-58	37	-8016	4516	14168	400	169	-89	-16260	2696	-2548	529	-257	71	-16792	-792	2320	2268	424	-32	126	125	8
-7872	-4768	13192	-219	128	-129	-16376	-2612	-816	-648	-71	-100	-16000	-1776	-1584	-662	-150	-112	-8008	4716	14024	340	388	-135	-16152	2804	-2576	384	-101	-18	-16628	-392	1896	2376	513	51	126	125	8
-7808	-4484	13352	-158	184	-144	-16396	-2544	-784	-304	-121	2	-16108	-2308	-1448	-403	-177	-228	-8204	4728	14172	286	263	-132	-15988	2924	-2632	203	-90	9	-16312	-332	1640	2139	453	247	127	125	8
-7864	-4552	13188	-163	224	-196	-16412	-2516	-728	106	-174	0	-16108	-2728	-1220	117	-144	-103	-8540	4884	14364	94	-153	-196	-15676	2972	-2644	-666	-118	94	-16300	-356	1716	1993	406	256	127	125	8
-7832	-4604	13188	-176	271	-215	-16284	-2528	-844	566	-168	77	-16016	-2560	-1292	557	-105	-30	-8444	4652	13872	-20	-733	-133	-15432	2796	-2740	-1576	161	-72	-15928	-672	1436	709	-366	141	127	125	8
-7916	-4616	13244	-155	287	-235	-16324	-2460	-696	639	-164	89	-15984	-2228	-1240	795	-60	53	-8028	4872	13940	-397	-819	-184	-15612	2844	-2776	-1424	290	-106	-15924	-780	1356	8	-805	49	127	125	8
-7836	-4712	13180	-201	184	-222	-16388	-2456	-680	137	-165	66	-16092	-1868	-1040	601	-26	83	-7928	4536	14008	-463	-578	-226	-15652	2776	-2724	-1489	250	-9	-15920	-928	1500	-542	-917	38	127	125	8
-7800	-4728	13336	-159	142	-158	-16340	-2504	-476	-284	-18	-27	-16084	-2184	-936	536	157	71	-8004	4360	13884	-443	-472	-171	-15492	2628	-3068	-1672	291	4	-16016	-948	1460	-837	-865	156	126	125	8
-7808	-4588	13240	-94	154	-130	-16348	-2536	-684	133	-25	13	-16272	-2128	-1004	677	60	9	-7884	4372	14024	-399	-449	-56	-15772	2456	-3024	-919	233	-91	-16124	-1040	1508	-878	-759	189	126	125	8
-7812	-4564	13272	-122	198	-189	-16356	-2448	-736	612	-3	66	-16084	-1792	-1244	606	-87	4	-7668	4316	13996	-272	-336	-41	-15876	2500	-3036	-346	140	-133	-16180	-1108	1476	-861	-484	206	126	125	8
-7856	-4572	13340	-147	221	-224	-16368	-2484	-840	593	-32	64	-16028	-1592	-1328	437	-104	-16	-7792	4256	13956	-75	-138	-148	-15900	2600	-3096	-48	-5	-135	-16196	-1232	1260	-614	-181	275	126	125	8
-7848	-4644	13292	-127	156	-200	-16400	-2552	-700	164	33	68	-16064	-1888	-1324	35	-85	-99	-7864	4468	14008	-38	-29	-147	-15968	2472	-3048	281	-135	-185	-16388	-1460	1324	-340	20	171	126	125	8
-7872	-4764	13280	-123	75	-193	-16340	-2520	-612	-330	87	11	-16128	-2128	-1180	-283	-114	-99	-7876	4284	14148	102	22	-103	-16024	2456	-3136	697	-238	-171	-16400	-1552	1520	-14	148	61	126	125	8
-7740	-4748	13184	-78	83	-229	-16352	-2580	-588	-344	144	12	-16180	-2272	-980	-273	-136	-35	-7804	4216	14064	92	40	-117	-15948	2428	-2956	1070	-316	-255	-16320	-1664	1652	226	344	91	126	125	8
-7708	-4512	13240	-81	57	-202	-16280	-2476	-612	19	198	-60	-16196	-2144	-860	-50	-151	-24	-7872	4388	14068	327	375	-196	-15892	2564	-2660	1306	-415	-166	-16276	-1472	1828	368	538	172	126	125	8
-7588	-5008	13176	-60	75	-269	-16352	-2548	-532	335	304	-14	-16148	-2084	-708	194	-285	-5	-7908	4464	14056	457	512	-267	-15872	2616	-2600	1310	-369	-134	-16156	-1500	1764	432	543	221	126	125	8
-8004	-4772	13252	-12	97	-258	-16296	-2400	-616	213	379	-16	-16064	-2020	-976	201	-191	45	-8060	4592	13996	484	616	-325	-15884	2596	-2596	1190	-321	-121	-16184	-1392	1936	447	471	218	126	125	8
-7980	-5000	13180	14	33	-262	-16216	-2600	-684	177	448	-61	-16088	-2004	-860	280	-264	-3	-8172	4692	14020	389	549	-318	-15720	2696	-2724	904	-219	-128	-16092	-1324	1820	414	361	255	127	125	8
-7772	-4632	13224	-2	44	-176	-16388	-2648	-704	441	483	-37	-16056	-2164	-1020	437	-288	-20	-8168	4624	14108	320	488	-285	-15824	2584	-2516	652	-143	-99	-16136	-1348	1712	316	154	242	126	125	8
-7844	-4652	13288	20	84	-211	-16328	-2556	-856	633	489	-12	-16120	-2128	-932	480	-240	-27	-8172	4468	14120	211	337	-334	-15800	2520	-2580	473	-100	-27	-16160	-1476	1748	222	-28	224	126	125	8
-7828	-4588	13196	37	49	-220	-16356	-2568	-1048	753	499	-8	-15912	-2236	-1384	511	-162	-31	-8148	4484	13952	236	196	-296	-15852	2452	-2748	423	-21	9	-16116	-1460	1744	219	-140	205	126	125	8
-7892	-4616	13236	73	85	-252	-16392	-2808	-1036	990	385	3	-16056	-2576	-1544	794	-79	-73	-8132	4340	14004	238	140	-288	-15820	2440	-2776	441	3	35	-16168	-1452	1756	245	-142	142	126	125	8
-7880	-4616	13316	66	97	-231	-16412	-2576	-1080	1216	318	148	-15984	-2580	-1676	1233	-50	-104	-8152	4480	13964	246	67	-282	-15836	2564	-2736	360	55	-8	-16140	-1296	1756	233	-15	129	126	125	8
-8060	-4348	13324	148	100	-234	-16256	-2600	-996	1149	284	95	-15980	-2284	-1672	1523	12	-13	-8128	4504	14004	229	13	-190	-15832	2576	-2772	236	133	-53	-16120	-1080	1744	108	6	135	126	125	8
-7836	-4476	13356	18	51	-280	-16404	-2496	-1088	1101	226	146	-16164	-1840	-1616	1500	75	72	-8104	4620	14024	193	69	-132	-15884	2644	-2780	63	156	-51	-16268	-1088	1804	-45	24	169	126	125	8
-7800	-4596	13184	26	90	-218	-16324	-2488	-1072	643	140	120	-15948	-1572	-1408	964	125	101	-8140	4628	13956	181	65	-189	-15844	2580	-2756	-19	195	-91	-16288	-1100	1848	-139	50	200	126	125	8
-7716	-4448	13420	32	74	-144	-16440	-2704	-936	405	89	93	-16060	-1848	-1676	723	195	12	-8096	4564	14028	117	141	-234	-15888	2604	-2732	64	230	-101	-16228	-1132	1908	-139	66	216	126	125	8
-7732	-4444	13372	9	71	-210	-16476	-2560	-1072	403	34	151	-16168	-1936	-1584	596	112	-38	-8084	4540	14068	98	161	-233	-15988	2632	-2736	31	300	-115	-16296	-1164	1932	-61	90	173	126	125	8
-8008	-4808	13228	-8	166	-226	-16280	-2420	-1164	251	20	154	-16104	-1748	-1660	260	8	-117	-8108	4668	14056	97	235	-285	-15852	2636	-2748	-12	276	-141	-16256	-1096	1608	-19	95	143	126	125	8
-7652	-4520	13180	-73	169	-236	-16316	-2636	-1032	301	-107	124	-16088	-1644	-1592	37	-9	-75	-8128	4572	14008	44	217	-309	-15836	2584	-2840	-47	337	-141	-16288	-980	1708	-102	82	123	126	125	8
-7808	-4560	13248	-176	147	-198	-16424	-2364	-876	-402	-163	195	-16060	-1444	-1348	-803	54	-50	-8136	4524	13968	21	272	-304	-15872	2604	-2968	-129	374	-143	-16228	-1008	1508	-335	57	50	126	125	8
-7824	-4676	13236	-200	65	-89	-16340	-2740	-944	-1102	-118	94	-16064	-1968	-1428	-1042	157	-60	-8116	4512	14024	17	309	-323	-15896	2564	-2848	-163	335	-116	-16388	-1056	1544	-634	20	37	126	125	8
-7748	-4492	13304	-205	31	-6	-16452	-2608	-1080	-1295	-125	99	-16024	-1728	-1332	-1575	318	-21	-8208	4504	13968	15	323	-333	-15936	2456	-2924	-294	389	-211	-16380	-1128	1380	-850	13	38	126	125	8
-7776	-4564	13216	-202	46	-101	-16404	-2672	-1012	-1446	-103	134	-16136	-2360	-1388	-1575	372	8	-8180	4436	14036	-5	395	-288	-15880	2392	-2964	-222	331	-144	-16320	-1320	1452	-870	-30	89	126	125	8
-7816	-4548	13384	-181	93	-121	-16380	-2640	-892	-1200	-156	116	-16084	-2560	-1364	-1239	403	-18	-8160	4488	14084	71	360	-274	-15912	2336	-3020	-120	317	-175	-16236	-1464	1444	-842	11	138	127	125	8
-7844	-4536	13268	-141	96	-150	-16264	-2660	-788	-841	-121	151	-16124	-2584	-940	-603	337	-76	-8272	4336	13920	61	333	-271	-15808	2436	-3076	-193	285	-121	-16140	-1720	1452	-666	10	165	127	125	8
-7884	-4636	13152	-100	95	-171	-16304	-2656	-616	-206	-20	182	-16188	-2604	-568	101	254	-26	-8284	4412	13828	101	255	-262	-15688	2516	-2916	-114	256	-113	-16152	-1748	1356	-643	28	129	127	125	8
-7788	-4612	13416	-73	138	-149	-16340	-2420	-680	331	62	153	-16180	-2272	-620	704	213	42	-8204	4352	13844	89	105	-275	-15584	2356	-3088	21	272	-98	-15840	-1848	1268	-225	-111	153	127	125	8
-7788	-4600	13180	-91	114	-191	-16264	-2504	-608	501	189	111	-16104	-1876	-660	767	82	95	-8200	4508	13932	97	-22	-289	-15640	2432	-2980	55	236	-25	-16028	-1832	1284	146	-34	166	127	125	8
-7904	-4616	13280	-46	151	-162	-16328	-2684	-792	556	245	134	-16020	-2076	-1024	768	112	93	-8132	4440	13956	123	-133	-241	-15748	2448	-3056	59	186	53	-16148	-1784	1332	519	-70	200	127	125	8
-7836	-4692	13340	33	84	-159	-16344	-2624	-832	606	301	93	-16096	-2352	-1208	868	186	57	-8228	4416	13904	111	-164	-279	-15728	2400	-3268	293	158	77	-16164	-1632	1380	665	-101	254	127	125	8
-7800	-4580	13308	38	71	-203	-16320	-2552	-1056	648	324	92	-16116	-2248	-1272	841	103	88	-8220	4376	14024	125	-235	-261	-15896	2456	-3064	341	134	60	-16280	-1320	1376	624	-86	274	126	125	8
-7844	-4576	13296	-4	73	-256	-16356	-2580	-1012	690	326	110	-16104	-2076	-1476	900	26	54	-8224	4460	13948	70	-154	-233	-15968	2504	-3012	296	94	79	-16392	-1288	1456	522	-38	287	126	125	8
-7884	-4520	13328	20	140	-214	-16380	-2648	-1000	985	307	142	-16056	-1916	-1492	895	-60	19	-8184	4384	13844	102	-98	-217	-15916	2516	-2880	223	119	75	-16356	-1084	1448	358	-36	292	126	125	8
-7812	-4572	13400	63	113	-215	-16316	-2592	-920	830	253	127	-16092	-2192	-1612	884	-68	54	-8172	4456	13992	151	-38	-204	-15936	2388	-3048	120	162	32	-16336	-1000	1604	145	-22	216	126	125	8
-7820	-4584	13324	28	112	-220	-16328	-2588	-1064	663	247	162	-16092	-2232	-1608	761	-91	40	-8172	4436	13996	152	28	-140	-15964	2484	-2908	75	133	9	-16324	-896	1600	86	-27	169	126	125	8
-7832	-4564	13308	6	125	-201	-16332	-2620	-1092	571	243	150	-16052	-2040	-1588	709	-22	55	-8212	4452	13988	153	116	-168	-15912	2596	-2896	-94	211	-18	-16276	-932	1548	-45	39	157	126	125	8
-7768	-4640	13240	-6	91	-196	-16380	-2624	-1200	468	109	152	-16012	-1788	-1892	468	-109	15	-8220	4516	13952	169	119	-148	-15812	2640	-2968	-192	217	-85	-16256	-1028	1512	-256	40	120	126	124	8
-7788	-4564	13256	-9	115	-165	-16368	-2588	-1312	291	-2	199	-16016	-1740	-2000	153	-48	-3	-8200	4484	14052	127	191	-173	-15816	2616	-3000	-214	232	-78	-16168	-1124	1460	-544	-57	155	126	125	8
-7768	-4460	13432	-63	118	-190	-16344	-2528	-1264	235	55	225	-16048	-1572	-1880	-159	-22	12	-8188	4488	13804	78	223	-214	-15736	2644	-3008	-268	277	-77	-16196	-1180	1512	-599	-89	154	126	125	8
-7840	-4420	13324	-149	66	-151	-16348	-2468	-1360	-773	-160	176	-16084	-1604	-1848	-639	32	52	-8228	4428	14024	109	150	-199	-15836	2704	-2816	-22	254	-84	-16184	-1104	1480	-771	-310	144	126	125	8
-7972	-4684	13176	-240	93	-21	-16344	-2184	-1400	-1507	-188	142	-15968	-872	-1524	-1619	163	132	-8160	4480	13864	12	147	-206	-15744	2632	-3112	-300	267	-73	-16356	-1224	1344	-675	-148	96	126	125	8
-7832	-4768	13260	-312	104	-13	-16416	-2768	-860	-2471	-125	66	-16124	-1924	-924	-2329	328	179	-8160	4276	13880	51	145	-349	-15772	2436	-3120	-264	182	-61	-16192	-1476	1464	-498	-269	100	127	125	8
-7832	-4708	13228	-203	-30	-51	-16368	-2868	-936	-1613	-126	82	-16156	-3188	-1180	-1404	294	-86	-8304	4472	14036	90	70	-305	-15756	2484	-3116	266	137	-3	-16224	-1524	1348	-286	-306	146	127	125	8
-7808	-4608	13308	-188	57	-107	-16304	-2524	-1056	-490	-117	289	-16248	-3036	-1044	-728	133	-87	-8188	4320	14024	68	47	-264	-15860	2532	-3140	-56	204	9	-16256	-1600	1344	-1	-204	244	127	125	8
-7804	-4540	13224	-192	152	-167	-16304	-2428	-796	-257	-22	167	-16152	-2452	-876	7	21	160	-8188	4440	13984	142	43	-262	-15928	2420	-3372	-174	148	-15	-16232	-1636	1256	215	-194	332	127	125	8
-7784	-4604	13268	-141	100	-178	-16256	-2716	-896	355	4	200	-16060	-2028	-1112	629	54	102	-8332	4468	13968	89	48	-225	-15796	2320	-3328	2	109	-3	-16316	-1608	1204	304	-132	271	127	125	8
-7864	-4644	13316	-117	119	-176	-16328	-2532	-1072	511	96	132	-16064	-1980	-1400	596	-61	72	-8212	4252	13980	131	78	-219	-15780	2304	-3340	102	15	82	-16240	-1560	1324	234	-98	263	127	125	8
-7816	-4544	13280	-18	108	-219	-16372	-2576	-1088	361	96	114	-16020	-2204	-1620	645	-71	87	-8276	4412	13940	184	24	-192	-15776	2420	-3160	266	4	102	-16168	-1524	1264	303	-145	206	127	125	8
-7764	-4564	13340	12	110	-194	-16340	-2664	-1132	652	83	171	-16040	-2176	-1584	900	32	124	-8284	4476	13956	234	-20	-120	-15792	2524	-3180	114	-3	41	-16172	-1304	1324	382	-133	248	127	125	8
-7888	-4684	13268	-35	191	-267	-16308	-2480	-1260	725	23	179	-16128	-2076	-1500	918	-29	87	-8228	4432	13944	221	3	-122	-15896	2512	-3096	56	-52	84	-16240	-1156	1256	396	-109	235	127	125	8
-7860	-4732	13208	-12	233	-281	-16296	-2608	-1152	730	30	212	-16028	-1928	-1560	771	-53	52	-8280	4332	13972	239	61	-118	-15748	2428	-3196	26	-100	67	-16196	-1048	1300	279	-158	250	127	125	8
-7824	-4552	13320	7	161	-254	-16276	-2684	-1196	657	-68	220	-16044	-2052	-1620	857	-81	54	-8268	4368	13944	232	-40	-67	-15740	2512	-3128	94	-84	75	-16048	-1108	1356	114	-237	258	126	125	8
-7736	-4432	13404	15	187	-229	-16348	-2452	-1108	649	-84	183	-16120	-2016	-1656	882	-146	45	-8280	4448	14008	223	-98	-79	-15716	2552	-3160	65	-124	48	-16136	-1092	1344	18	-248	180	126	125	8
-7812	-4496	13300	-41	152	-253	-16348	-2492	-1124	639	-102	197	-16036	-1796	-1528	863	-123	35	-8272	4452	13820	187	-132	-92	-15728	2636	-3200	84	-135	16	-16128	-1160	1452	-15	-279	156	126	125	8
-7748	-4436	13352	-52	172	-273	-16400	-2480	-1240	525	-143	204	-16072	-1852	-1468	745	-125	79	-8292	4500	13952	175	-198	-75	-15728	2672	-3260	45	-150	11	-16172	-1108	1484	-22	-196	211	126	125	8
-7840	-4476	13456	-86	151	-266	-16336	-2576	-1124	413	-171	200	-16056	-1944	-1708	644	-68	47	-8240	4540	13916	125	-206	-86	-15724	2668	-3216	11	-172	-15	-16232	-1044	1652	-86	-101	268	126	125	8
-7768	-4432	13360	-113	169	-197	-16332	-2608	-1156	437	-180	192	-16120	-1628	-1492	236	-100	64	-8272	4596	13908	129	-210	-78	-15832	2648	-3016	-16	-183	-8	-16308	-1016	1692	-103	-76	254	126	125	8
-7760	-4544	13308	-133	128	-199	-16352	-2460	-1008	-399	-248	191	-16104	-1800	-1236	-138	-57	89	-8240	4476	13880	93	-158	-96	-15832	2596	-2996	-61	-170	-57	-16380	-1144	1620	-328	-79	238	126	125	8
-7812	-4512	13396	-116	81	-133	-16284	-2604	-1024	-515	-249	152	-16112	-1940	-1184	-190	-21	19	-8156	4480	13944	89	-105	-90	-15888	2564	-2944	-46	-133	-51	-16276	-1156	1760	-439	-97	220	126	125	8
-7784	-4596	13324	-204	72	-59	-16372	-2172	-824	-734	-215	178	-16092	-1172	-1084	-746	24	77	-8100	4528	14036	110	-84	-172	-15976	2516	-2920	-115	-75	-31	-16364	-1348	1672	-368	-28	190	126	125	8
-7824	-4664	13276	-236	66	-64	-16296	-2488	-972	-1313	-127	26	-16028	-1608	-1056	-1444	103	114	-8176	4452	14056	141	98	-183	-15976	2412	-2880	-22	-85	1	-16416	-1572	1856	-187	-39	158	126	125	8
-7788	-4600	13280	-147	44	-66	-16404	-2824	-888	-960	-126	126	-16120	-2516	-1248	-982	10	-45	-8204	4416	14000	186	130	-186	-15904	2452	-2988	9	-78	34	-16332	-1848	1668	76	-24	187	127	124	8
-7868	-4460	13372	-132	87	-91	-16308	-2476	-900	-317	-169	220	-16092	-2420	-1264	-688	-123	-91	-8184	4384	13976	227	242	-193	-15840	2500	-3084	16	-33	-14	-16236	-1816	1552	221	3	203	127	125	8
-7840	-4600	13220	-158	105	-128	-16428	-2456	-904	-380	-77	128	-16168	-2428	-1064	-370	-7	92	-8184	4376	13960	227	215	-195	-15776	2428	-2964	86	-31	73	-16096	-1644	1652	409	-25	246	127	125	8
-7808	-4664	13232	-82	147	-136	-16360	-2656	-824	-109	-48	147	-16112	-2520	-984	207	83	110	-8256	4408	13872	305	191	-157	-15688	2428	-3092	132	-23	72	-16040	-1448	1532	442	-84	200	127	125	8
-7708	-4592	13280	-50	103	-181	-16352	-2608	-964	347	17	135	-16264	-2500	-1040	780	50	90	-8256	4384	13880	239	82	-119	-15688	2592	-3044	167	-19	69	-16080	-1284	1552	397	-98	196	127	125	8
-7820	-4448	13304	-29	131	-179	-16316	-2444	-1044	561	87	178	-16008	-2020	-1304	936	-34	114	-8260	4496	13908	249	79	-135	-15704	2592	-3128	201	-43	59	-16180	-1080	1396	379	-151	185	127	125	8
-7800	-4552	13352	-35	129	-225	-16424	-2556	-976	664	86	151	-16024	-1680	-1344	866	25	155	-8244	4616	13916	207	26	-161	-15728	2624	-2916	131	-75	71	-16172	-1044	1528	361	-196	149	127	124	8
-7744	-4504	13280	-26	131	-198	-16412	-2496	-976	462	133	118	-16136	-1792	-1336	801	47	83	-8304	4504	13908	217	-48	-158	-15756	2636	-2900	130	-24	76	-16192	-992	1388	300	-198	181	127	124	8
-7812	-4516	13364	-43	141	-220	-16392	-2484	-1016	378	68	95	-16048	-1800	-1368	546	14	40	-8252	4532	13892	225	-81	-200	-15776	2608	-2896	122	-11	40	-16248	-1144	1504	332	-237	212	127	124	8
-7716	-4444	13368	-51	111	-208	-16408	-2440	-968	369	106	100	-16104	-1792	-1532	506	47	45	-8264	4492	13908	189	-86	-201	-15804	2620	-3096	155	-56	69	-16184	-1120	1496	353	-290	217	127	125	8
-7656	-4452	13380	-89	122	-202	-16368	-2536	-1456	437	88	104	-16164	-1972	-1356	433	-67	71	-8260	4516	13844	136	-133	-207	-15816	2652	-3104	161	-98	60	-16240	-1164	1520	388	-251	197	127	125	8
-7764	-4352	13280	-92	118	-179	-16404	-2516	-1008	425	49	142	-16088	-2020	-1336	527	-54	66	-8300	4496	13992	147	-44	-192	-15848	2668	-3120	157	-91	44	-16232	-1068	1448	395	-215	200	127	125	8
-7988	-4704	13188	-75	168	-178	-16316	-2492	-956	311	93	100	-16192	-2048	-1552	450	-56	39	-8316	4548	13856	151	-101	-188	-15756	2608	-3168	162	-125	29	-16280	-1040	1608	296	-100	212	127	125	8
-7860	-4556	13264	-60	104	-172	-16396	-2632	-976	205	77	119	-16040	-2020	-1636	308	-135	68	-8256	4556	13860	110	-66	-136	-15876	2636	-3132	48	-117	-1	-16284	-960	1540	119	-28	231	127	125	8
-7784	-4508	13340	-67	119	-134	-16320	-2584	-1256	48	35	119	-16068	-1964	-1552	243	-131	67	-8236	4460	14016	128	-3	-174	-15848	2552	-3048	-5	-70	13	-16268	-1060	1596	-13	30	294	126	125	8
-7816	-4508	13284	-41	110	-148	-16336	-2640	-1112	10	-4	119	-16000	-2032	-1652	136	-93	73	-8284	4472	14040	132	24	-111	-15852	2544	-3040	-38	-65	-56	-16232	-1236	1540	-135	-27	325	127	124	8
-7780	-4476	13384	-107	123	-156	-16372	-2448	-1160	-5	-91	182	-16024	-2016	-1552	117	-12	77	-8232	4428	14004	163	18	-63	-15880	2520	-3028	-96	-60	-63	-16164	-1344	1460	-172	-72	209	126	125	8
-7760	-4444	13368	-111	96	-168	-16392	-2496	-960	-55	-154	156	-16004	-1816	-1444	-34	-20	32	-8240	4464	14040	165	-4	-95	-15896	2536	-3052	-124	-45	-25	-16268	-1396	1524	-102	-110	183	126	125	8
-7720	-4556	13336	-148	108	-175	-16464	-2500	-1000	-192	-146	175	-16024	-1744	-1536	-133	-50	33	-8180	4476	13968	201	58	-127	-15820	2568	-3016	-42	-91	10	-16204	-1436	1564	-84	-117	171	126	125	8
-7792	-4540	13312	-111	119	-197	-16360	-2540	-1040	-248	-131	155	-16108	-1940	-1268	-166	24	57	-8292	4460	13924	198	23	-125	-15764	2516	-2980	107	-101	38	-16228	-1356	1660	-30	-67	138	127	125	8
-7808	-4556	13324	-111	131	-174	-16392	-2512	-908	-230	-120	200	-16196	-2240	-1032	12	66	70	-8228	4556	13888	224	-52	-63	-15756	2748	-3068	120	-60	6	-16196	-1268	1640	-111	-115	240	127	125	8
-7784	-4612	13392	-73	106	-140	-16364	-2472	-848	-79	-58	136	-16252	-2340	-984	185	21	107	-8272	4568	13980	198	-5	-103	-15740	2724	-2928	-39	-31	5	-16180	-1168	1620	-89	-112	236	126	125	8
-7748	-4548	13256	-88	87	-164	-16328	-2508	-824	183	-6	158	-16188	-2112	-988	454	-28	109	-8208	4596	13888	168	17	-150	-15924	2680	-3000	-128	-25	-13	-16336	-1164	1648	-56	-135	259	127	125	8
-7756	-4536	13308	-30	106	-185	-16320	-2452	-1068	308	4	163	-16044	-1684	-1152	410	-92	89	-8204	4488	13992	147	-12	-155	-15848	2612	-2968	-4	-38	25	-16264	-1232	1608	2	-140	243	127	125	8
-7836	-4544	13336	-61	127	-151	-16356	-2480	-1036	223	-3	157	-16052	-1716	-1344	315	-86	65	-8256	4464	13912	157	4	-183	-15872	2636	-2924	94	-17	44	-16232	-1324	1616	152	-147	203	127	125	8
-7772	-4476	13388	-33	114	-176	-16368	-2460	-908	133	-4	145	-16040	-1892	-1536	249	-71	32	-8216	4464	13888	176	-73	-171	-15860	2600	-3076	129	-65	51	-16220	-1364	1748	313	-140	216	127	125	8
-7768	-4520	13292	-50	131	-194	-16316	-2516	-1060	113	-67	134	-16012	-2032	-1512	241	-25	38	-8288	4468	13856	151	-1	-186	-15812	2616	-2924	106	-81	51	-16276	-1328	1524	414	-142	214	126	125	8
-7780	-4512	13384	-100	115	-163	-16432	-2480	-1024	133	-54	150	-16056	-2028	-1368	221	-9	79	-8252	4508	13908	194	0	-177	-15792	2588	-3136	19	8	16	-16160	-1228	1512	297	-100	235	127	125	8
-7788	-4560	13256	-96	177	-197	-16348	-2516	-1036	161	-76	129	-16072	-1932	-1484	216	3	52	-8236	4540	13912	191	11	-150	-15844	2608	-3056	-17	-37	-17	-16212	-1116	1656	132	-118	240	126	125	8
-7780	-4564	13356	-99	167	-198	-16328	-2480	-964	167	-62	187	-16072	-1848	-1364	315	-45	25	-8240	4552	13944	175	-23	-135	-15848	2576	-3044	37	-44	-16	-16176	-1112	1400	20	-141	214	127	125	8
-7792	-4564	13296	-104	172	-215	-16328	-2512	-1084	241	-88	177	-16156	-2068	-1256	460	-48	52	-8236	4548	13892	200	7	-161	-15752	2640	-3060	79	-57	-24	-16300	-984	1416	-26	-138	169	126	125	8
-7812	-4580	13352	-66	154	-243	-16356	-2472	-1080	302	-99	144	-16060	-2128	-1328	548	-29	32	-8296	4528	13908	182	-17	-71	-15808	2672	-3120	22	-75	-46	-16256	-1028	1540	-66	-156	169	126	125	8
-7776	-4548	13364	-58	176	-225	-16352	-2508	-964	306	-99	149	-16032	-1980	-1340	452	-13	61	-8236	4588	13904	177	-24	-123	-15772	2636	-3140	-30	-73	-74	-16148	-1100	1544	-123	-106	159	126	125	8
-7812	-4484	13236	-68	177	-229	-16360	-2544	-1016	327	-89	136	-16052	-1904	-1400	461	-29	-12	-8228	4556	13912	150	-24	-130	-15760	2664	-3016	-9	-124	-55	-16208	-1140	1644	-113	-68	194	126	125	8
-7760	-4456	13296	-67	161	-198	-16360	-2476	-760	286	-76	118	-16048	-1860	-1148	393	-26	-34	-8244	4492	13908	130	-82	-133	-15756	2672	-2884	73	-112	-38	-16152	-1256	1576	-75	-95	141	126	125	8
-7732	-4384	13452	-81	90	-211	-16324	-2540	-976	275	-78	123	-16120	-1828	-1252	537	-20	-48	-8332	4560	13960	100	-97	-151	-15724	2700	-2928	98	-116	-66	-16216	-1244	1636	-26	-111	139	127	125	8
-7804	-4500	13304	-150	131	-201	-16380	-2296	-948	207	-59	109	-16160	-1668	-1116	300	18	50	-8208	4564	13868	126	-158	-159	-15660	2676	-2952	132	-104	-27	-16144	-1260	1628	76	-120	188	126	125	8
-7772	-4576	13296	-138	164	-181	-16336	-2620	-872	26	2	43	-16180	-1868	-1136	252	31	19	-8192	4496	13992	82	-221	-175	-15748	2700	-2928	86	-104	-30	-16160	-1268	1764	123	-127	214	126	125	8
-7828	-4568	13364	-113	131	-215	-16312	-2592	-1004	198	0	109	-16120	-2060	-1276	189	-76	-26	-8204	4612	13960	97	-153	-220	-15908	2668	-2928	45	-78	-57	-16268	-1272	1660	161	-97	221	126	125	8
-7780	-4580	13264	-95	134	-179	-16404	-2552	-880	113	-3	79	-16048	-2132	-1440	179	-56	23	-8224	4552	13920	74	-112	-183	-15956	2564	-3012	36	-48	-47	-16348	-1288	1680	163	-43	280	126	125	8
-7984	-4956	13192	-47	144	-188	-16340	-2568	-980	1	13	124	-16120	-2168	-1488	100	-79	5	-8220	4380	13952	97	-49	-186	-15896	2536	-2924	-1	-33	-45	-16444	-1300	1712	160	-62	242	126	125	8
-7888	-4616	13256	-78	169	-149	-16364	-2620	-1128	119	-62	109	-16028	-2016	-1396	137	-52	-24	-8224	4516	14072	142	99	-139	-15932	2468	-2960	34	-35	-65	-16332	-1240	1768	55	34	252	127	125	8
-7796	-4612	13328	-65	127	-153	-16384	-2528	-1160	46	-75	178	-16008	-1984	-1388	100	-92	-9	-8188	4384	13920	137	122	-128	-15924	2620	-2928	-70	-17	-120	-16268	-1144	1624	-74	67	172	126	125	8
-7820	-4532	13316	-83	149	-218	-16352	-2548	-1112	2	-68	137	-15968	-1932	-1388	61	-11	15	-8156	4536	13896	189	185	-82	-15864	2564	-2972	-130	58	-122	-16240	-1164	1724	-220	49	113	126	124	8
-7848	-4540	13276	-106	152	-200	-16360	-2500	-1016	-68	-66	134	-16096	-1988	-1416	47	-70	24	-8200	4436	13968	193	169	-91	-15800	2616	-2924	-165	73	-45	-16184	-1044	1644	-358	-2	105	127	125	8
-7812	-4520	13320	-89	120	-156	-16340	-2520	-920	13	-98	160	-16180	-2012	-1296	172	1	4	-8236	4412	13960	161	170	-121	-15756	2760	-2944	-170	68	-92	-16200	-1148	1672	-446	-64	88	126	125	8
-7744	-4508	13332	-129	156	-202	-16316	-2464	-992	95	-46	132	-16088	-1852	-976	198	-29	-7	-8268	4560	13864	157	165	-136	-15652	2728	-2876	-147	88	-117	-16160	-1168	1640	-576	-55	86	126	125	8
-7784	-4536	13324	-82	148	-215	-16304	-2388	-844	62	-64	134	-16112	-1820	-1080	83	0	-19	-8260	4532	13840	104	99	-137	-15680	2616	-2944	-104	135	-139	-16044	-1152	1708	-516	-82	134	126	125	8
-7800	-4576	13332	-56	139	-192	-16292	-2532	-932	147	-21	76	-16052	-1828	-1032	168	-11	-41	-8316	4560	13864	60	-40	-131	-15644	2732	-2924	-52	136	-86	-16016	-1212	1636	-365	-117	132	126	125	8
-7836	-4572	13348	-92	154	-253	-16312	-2444	-928	206	3	109	-16064	-1936	-1096	201	-54	-103	-8312	4604	13844	23	-130	-206	-15672	2688	-2764	-37	171	-92	-16100	-1172	1668	-301	-93	135	126	125	8
-7820	-4644	13236	-39	144	-242	-16328	-2488	-908	288	16	88	-16144	-2148	-940	275	38	0	-8252	4552	13916	50	-123	-194	-15716	2760	-2976	-5	149	-102	-16152	-1220	1628	-163	-89	151	126	125	8
-7764	-4548	13380	-29	111	-216	-16404	-2460	-828	298	-28	106	-16168	-2248	-1004	384	45	-28	-8256	4636	13916	-22	-175	-246	-15876	2692	-2984	-62	175	-92	-16256	-1164	1772	-66	-79	186	126	125	8
-7764	-4208	13508	-41	53	-207	-16352	-2684	-984	421	90	88	-16128	-2088	-1296	710	65	-94	-8180	4536	13940	-8	-108	-307	-16012	2628	-2916	-103	167	-137	-16460	-1280	1756	0	14	214	126	125	8
-7824	-4480	13324	-85	114	-186	-16448	-2372	-1108	481	66	147	-16144	-1792	-1280	454	70	-2	-8148	4452	13908	-4	-16	-327	-15948	2456	-2892	51	122	-94	-16384	-1440	1676	108	41	201	126	125	8
-7696	-4536	13328	-9	120	-208	-16308	-2536	-952	423	71	39	-16032	-1828	-1360	539	23	-23	-8184	4448	13836	20	18	-300	-15900	2548	-3076	131	151	-84	-16260	-1492	1656	124	31	166	126	125	8
-8008	-4816	13284	-50	168	-257	-16268	-2408	-932	301	53	126	-16116	-2008	-1316	399	68	-54	-8232	4420	13968	85	45	-282	-15920	2464	-2964	130	173	-74	-16204	-1480	1608	110	5	175	126	125	8
-7724	-4620	13384	-48	151	-184	-16348	-2624	-968	274	83	38	-16004	-1840	-1236	450	104	-20	-8228	4448	13888	98	71	-245	-15772	2484	-3116	-26	220	-60	-16232	-1420	1552	104	-36	126	126	125	8
-7716	-4424	13596	-93	117	-167	-16388	-2460	-804	211	72	105	-15984	-2192	-1148	251	77	-7	-8256	4440	13984	86	164	-231	-15864	2460	-3036	-113	229	-105	-16168	-1288	1584	1	-108	128	126	125	8
-7676	-4464	13416	-42	73	-140	-16328	-2568	-996	193	85	76	-16004	-1956	-1328	422	139	-35	-8252	4440	13880	170	105	-225	-15808	2488	-3088	-42	209	-59	-16140	-1308	1352	-74	-65	169	126	125	8
-7720	-4504	13320	-35	118	-204	-16380	-2424	-956	128	47	139	-16104	-1936	-1260	196	160	12	-8292	4520	13880	162	30	-193	-15796	2472	-3120	17	169	-60	-16144	-1184	1364	-92	-95	86	126	125	8
-7780	-4544	13328	-64	113	-207	-16364	-2544	-1008	-4	35	89	-16060	-2064	-1356	190	91	-18	-8284	4488	13972	113	20	-175	-15792	2592	-3188	113	135	-47	-16156	-1160	1264	-40	-47	131	126	125	8
-7828	-4504	13356	-49	133	-173	-16312	-2508	-928	105	67	102	-16180	-2040	-1384	161	135	-54	-8276	4464	13920	120	-32	-179	-15684	2596	-3244	126	124	-62	-16200	-1044	1336	-90	-20	157	126	125	8
-7784	-4584	13316	-71	99	-185	-16336	-2492	-952	-18	88	138	-16108	-2048	-1364	112	101	30	-8260	4588	13948	100	-87	-186	-15772	2684	-3116	35	123	-66	-16184	-932	1588	-136	48	168	126	125	8
-7748	-4572	13244	-30	90	-146	-16320	-2584	-1072	-25	78	107	-16124	-2088	-1268	102	162	26	-8204	4532	13928	91	-71	-187	-15836	2688	-3084	-36	140	-102	-16276	-1080	1480	-237	97	176	126	125	8
-7828	-4504	13292	-62	124	-132	-16340	-2532	-1004	-34	86	105	-16140	-1996	-1164	139	116	2	-8220	4552	13956	28	-29	-184	-15888	2624	-2932	-84	147	-93	-16228	-1156	1616	-345	123	209	126	125	8
-7784	-4524	13336	-54	81	-155	-16376	-2556	-1056	26	106	101	-16128	-1988	-1372	90	20	-2	-8236	4460	13952	41	26	-213	-15896	2580	-2932	-63	121	-121	-16308	-1296	1724	-390	117	199	126	125	8
-7816	-4552	13332	-78	65	-163	-16388	-2464	-1104	37	91	131	-16124	-1872	-1444	32	25	9	-8148	4524	13976	64	55	-198	-15864	2580	-3064	-85	183	-85	-16276	-1304	1732	-311	73	194	126	125	8
-7812	-4560	13220	-92	75	-173	-16328	-2580	-1120	-10	67	123	-16088	-2000	-1488	-16	52	3	-8260	4492	13824	71	49	-222	-15812	2536	-2928	-100	201	-81	-16208	-1400	1732	-253	16	145	126	125	8
-7796	-4472	13300	-23	74	-140	-16332	-2532	-1136	-49	98	135	-16048	-2112	-1512	-129	47	12	-8280	4448	13948	105	73	-212	-15788	2584	-3028	-114	220	-85	-16212	-1440	1616	-271	-17	168	127	125	8
-7792	-4556	13284	-66	81	-131	-16372	-2536	-1092	-82	50	135	-16096	-2124	-1324	10	28	7	-8232	4392	13856	84	117	-240	-15752	2500	-3080	-118	291	-61	-16228	-1412	1576	-275	-89	176	126	125	8
-7808	-4516	13312	-40	68	-149	-16336	-2516	-1040	-70	38	145	-16136	-2024	-1344	47	23	17	-8308	4444	13948	72	117	-243	-15792	2536	-3128	-172	320	-69	-16292	-1292	1536	-288	-108	166	127	125	8
-7772	-4500	13320	-64	82	-172	-16316	-2440	-1064	68	53	137	-16052	-1904	-1512	89	-22	38	-8252	4492	13900	90	108	-232	-15724	2516	-3032	-83	304	-97	-16236	-1376	1404	-310	-149	125	126	125	8
-7832	-4476	13336	-68	143	-177	-16424	-2460	-1012	89	35	158	-15988	-1940	-1488	100	-1	29	-8264	4460	13908	63	102	-248	-15772	2540	-3148	-40	346	-53	-16196	-1256	1376	-254	-173	168	126	125	8
-7836	-4540	13288	-106	118	-190	-16376	-2600	-1236	13	15	143	-16024	-1996	-1444	88	61	9	-8288	4484	13868	89	79	-255	-15760	2500	-3244	6	330	-20	-16020	-1332	1328	-177	-227	137	126	125	8
-7796	-4600	13320	-81	147	-163	-16348	-2524	-1132	0	16	179	-16012	-2216	-1564	-3	44	25	-8312	4392	13872	78	14	-265	-15740	2524	-3312	-44	273	21	-16168	-1372	1232	-154	-254	149	126	125	8
-7736	-4544	13336	-110	105	-163	-16380	-2528	-1036	-48	-2	128	-16092	-2188	-1288	115	92	45	-8328	4244	13912	106	-8	-247	-15740	2540	-3096	320	241	-8	-16220	-1348	1244	-79	-354	146	126	125	8
-7768	-4500	13332	-111	131	-187	-16324	-2532	-1084	51	-42	143	-16100	-2028	-1268	235	120	29	-8236	4460	13904	113	-26	-187	-15756	2568	-3404	102	232	-10	-16264	-1288	1368	-57	-178	207	126	125	8
-7820	-4528	13368	-20	131	-199	-16356	-2448	-984	103	-4	170	-16164	-2004	-1128	277	158	52	-8276	4420	14028	77	-85	-237	-15812	2568	-3324	-105	158	-43	-16300	-1268	1300	-126	-116	270	126	125	8
-7764	-4504	13300	-55	144	-194	-16328	-2488	-984	54	68	216	-16124	-1948	-1040	131	54	67	-8304	4428	13812	85	-92	-191	-15784	2556	-3340	34	148	-2	-16248	-1160	1400	-109	-72	223	126	125	8
-7724	-4544	13416	-94	93	-151	-16336	-2544	-900	29	100	164	-16152	-2020	-1052	168	108	81	-8300	4348	14044	71	-56	-164	-15828	2520	-3280	57	146	-47	-16284	-1232	1500	-187	40	262	126	125	8
-7840	-4468	13344	-40	91	-146	-16288	-2552	-932	-32	160	174	-16068	-2112	-1044	120	89	72	-8288	4444	13916	99	-64	-123	-15748	2580	-3244	34	122	-66	-16220	-1264	1568	-124	83	263	126	125	8
-7824	-4524	13296	-25	55	-142	-16300	-2556	-1056	9	138	144	-16076	-1984	-1280	149	138	22	-8320	4472	13940	70	-44	-173	-15832	2604	-3176	-8	147	-19	-16280	-1256	1656	-123	48	237	126	125	8
-7780	-4452	13372	-43	68	-147	-16388	-2436	-1140	44	138	153	-16040	-1912	-1384	20	99	28	-8268	4388	13868	83	-20	-177	-15836	2540	-3140	-72	209	-49	-16244	-1368	1684	-68	13	195	126	125	8
-7784	-4424	13256	-24	85	-104	-16340	-2544	-1180	70	170	154	-16040	-1912	-1444	36	95	9	-8228	4448	13964	83	25	-228	-15800	2500	-3192	9	162	1	-16224	-1356	1632	-93	-4	212	127	125	8
-7808	-4516	13436	-28	91	-171	-16420	-2512	-1160	87	113	225	-16056	-2068	-1584	60	99	3	-8264	4420	13896	96	18	-217	-15764	2560	-3212	133	235	12	-16220	-1416	1704	-99	-45	219	126	125	8
-7600	-4572	13360	-48	125	-133	-16356	-2432	-1156	-39	100	217	-16080	-2096	-1352	66	119	79	-8276	4396	13900	128	27	-196	-15784	2592	-3284	69	250	21	-16212	-1252	1764	-86	-95	192	127	125	8
-7808	-4528	13292	-59	72	-120	-16336	-2564	-1184	78	62	146	-16076	-2100	-1508	142	175	89	-8240	4448	13912	115	15	-196	-15812	2736	-3288	-39	326	-31	-16192	-1212	1512	-150	-89	214	126	125	8
-7772	-4528	13384	-39	71	-130	-16404	-2468	-1288	1	66	186	-16104	-1864	-1520	202	123	79	-8352	4440	14004	110	73	-202	-15768	2576	-3328	-100	296	-26	-16212	-1096	1604	-165	-81	226	126	124	8
-7704	-4500	13284	-93	87	-196	-16312	-2524	-1116	19	60	163	-16048	-1736	-1524	52	112	16	-8244	4368	14052	103	71	-253	-15808	2612	-3100	178	282	18	-16224	-1140	1504	-146	-107	186	126	125	8
-7816	-4472	13336	-116	124	-160	-16388	-2512	-1308	77	-4	196	-16120	-1844	-1540	-29	88	20	-8164	4488	13968	90	18	-161	-15724	2624	-3288	100	297	-38	-16196	-1108	1592	-134	-18	126	126	125	8
-7804	-4464	13376	-67	101	-189	-16332	-2424	-1168	-20	9	182	-16056	-1892	-1576	-118	78	7	-8236	4456	13996	93	106	-238	-15804	2680	-3288	-135	322	-71	-16212	-1092	1520	-186	-51	132	126	125	8
-7756	-4532	13304	-80	90	-163	-16352	-2484	-1048	-159	-9	102	-16120	-1968	-1468	-88	39	-14	-8344	4424	13936	63	135	-216	-15768	2648	-3496	-206	333	-77	-16200	-988	1572	-354	-195	113	127	125	8
-7760	-4408	13400	-72	87	-152	-16396	-2524	-1128	-121	-9	129	-16160	-2060	-1400	-97	10	16	-8168	4544	13908	53	104	-175	-15740	2548	-3296	-106	402	-85	-16228	-1000	1380	-543	-52	99	126	125	8
