#Activity	standing 
#ActivityID	8 
#Date 09-23-18-00
acc_rf_x	acc_rf_y	acc_rf_z	gyro_rf_x	gyro_rf_y	gyro_rf_z	acc_rs_x	acc_rs_y	acc_rs_z	gyro_rs_x	gyro_rs_y	gyro_rs_z	acc_rt_x	acc_rt_y	acc_rt_z	gyro_rt_x	gyro_rt_y	gyro_rt_z	acc_lf_x	acc_lf_y	acc_lf_z	gyro_lf_x	gyro_lf_y	gyro_lf_z	acc_ls_x	acc_ls_y	acc_ls_z	gyro_ls_x	gyro_ls_y	gyro_ls_z	acc_lt_x	acc_lt_y	acc_lt_z	gyro_lt_x	gyro_lt_y	gyro_lt_z	EMG_r	EMG_l	act
-8072	-1948	13688	-26	6	-38	-15728	2752	-2048	-66	-64	-56	-16096	1352	-1744	-94	31	-36	-7976	720	14672	44	-235	-103	-16440	392	-2344	-62	10	-28	-16352	-696	-968	-114	-46	-27	127	118	8
-8012	-2044	13732	-23	-6	-39	-15864	2664	-2048	-40	-55	-51	-16168	1152	-1640	-66	15	-34	-8248	736	14800	28	-206	-121	-16584	880	-2496	-20	1	-15	-16240	-504	-792	-60	-63	-40	127	118	8
-8076	-1996	13768	-19	-3	-37	-15896	2576	-2064	-7	-43	-44	-16032	1040	-1488	-18	17	-23	-8088	632	14576	58	-116	-138	-16592	936	-2736	-21	5	-15	-16280	-272	-1320	-73	-40	-11	127	120	8
-8084	-2000	13688	-21	-8	-38	-15752	2704	-1992	8	-25	-37	-16224	1192	-1304	44	3	-17	-8008	664	14648	47	-128	-137	-16408	952	-2672	-45	3	-19	-16248	-312	-1344	-89	-34	9	126	125	8
-8068	-2088	13616	-15	-7	-37	-15712	2520	-1912	37	-11	-38	-16120	1560	-1640	79	-13	-11	-8184	624	14608	91	-145	-64	-16472	888	-3008	-42	-1	-22	-16176	-632	-1184	-63	-17	-16	127	116	8
-7980	-2000	13752	-13	-7	-31	-15912	2712	-2040	61	-6	-28	-16280	1616	-1424	84	-16	4	-8176	664	14944	66	-167	-87	-16400	760	-2480	-16	-3	-17	-16088	-784	-552	-66	-25	-20	127	116	8
-8040	-2100	13724	-10	2	-29	-16008	2648	-2104	74	6	-22	-16392	1952	-1480	78	-23	4	-8208	784	14704	55	-90	-118	-16608	952	-2664	0	-10	-15	-16688	-728	-1232	-28	-32	-23	127	117	8
-8020	-2024	13864	-14	8	-28	-15952	2776	-2024	57	12	-26	-16184	1952	-1728	73	-13	1	-8208	712	14600	64	-42	-124	-16640	976	-2664	4	-14	-10	-16440	-320	-1184	-5	-55	-16	126	128	8
-8028	-2008	13768	-17	11	-24	-15888	2792	-2520	48	20	-30	-16056	2088	-1520	63	-13	1	-8176	624	14936	97	-128	-133	-16256	568	-2632	27	-7	-17	-17816	-240	-1800	-150	-139	67	127	126	8
-8032	-2012	13696	-12	9	-27	-15912	2752	-2256	36	26	-23	-15808	1992	-1744	40	-16	-3	-7984	616	14504	114	-72	-155	-16648	528	-2232	91	-3	-16	-16312	568	-552	-319	-169	220	127	97	8
-8040	-2012	13812	-9	3	-28	-15760	2600	-2200	38	28	-27	-16160	1872	-1888	15	-15	-10	-8032	568	14984	52	25	-177	-16512	1032	-2312	95	-6	-3	-15744	-576	-280	-288	-99	169	127	124	8
-8044	-2032	13712	-12	0	-26	-16096	2536	-1984	59	33	-19	-16056	1936	-2120	-2	-23	-17	-8152	784	14880	67	-3	-163	-16328	984	-2576	54	-11	2	-15752	-1296	-504	-119	-54	79	127	119	8
-8040	-2028	13784	-9	6	-25	-15976	2640	-2592	65	31	-26	-16272	2128	-1872	-15	-32	-17	-8080	720	14568	81	-33	-172	-16328	536	-2600	17	-5	-5	-15704	-408	-512	13	-35	78	127	122	8
-8008	-1996	13708	-5	10	-17	-16048	2896	-2528	50	33	-19	-16224	1904	-2176	-14	-39	-17	-8040	712	14528	111	11	-178	-16600	768	-2568	9	-5	-16	-16160	-80	-848	4	12	14	126	120	8
-8040	-1988	13848	-9	17	-21	-15864	2608	-2488	36	26	-26	-16248	1920	-2032	-26	-34	-14	-8080	752	14744	139	90	-179	-16480	888	-2704	-8	-13	-9	-16096	-136	-872	-49	15	-14	127	126	8
-8056	-1932	13812	-9	20	-20	-15960	2800	-2912	13	27	-29	-16048	1808	-2184	-27	-18	0	-8208	576	14824	139	79	-162	-16352	888	-2416	-20	-11	-15	-16224	-616	-1056	-43	19	-12	127	121	8
-8044	-1936	13720	-16	21	-22	-16072	2752	-2528	8	19	-28	-16168	1616	-2144	-20	4	-2	-8232	616	14776	131	96	-127	-16360	544	-2472	5	-16	-11	-16672	-592	-512	17	14	-20	127	121	8
-8032	-2012	13652	-18	16	-19	-15992	2640	-2360	10	7	-31	-15960	1512	-2192	-2	26	-5	-8000	616	14752	137	-7	-151	-16464	512	-2320	74	-6	-1	-16984	0	-968	-11	9	16	126	126	8
-8020	-1988	13720	-9	15	-20	-16024	2560	-2440	21	4	-33	-15912	1448	-2520	11	35	4	-8144	744	14864	123	37	-169	-16440	664	-2384	102	1	4	-15928	48	-848	23	-27	49	127	127	8
-8048	-1984	13768	-14	16	-22	-15912	2736	-2656	21	-1	-33	-16016	1680	-2304	23	35	11	-8208	712	14664	108	51	-152	-16408	1160	-2344	80	3	-6	-16048	-296	-848	115	-20	16	127	127	8
-8044	-1960	13808	-15	15	-26	-15800	2624	-2496	15	-4	-29	-15920	1776	-2272	59	33	13	-8128	520	14664	78	32	-193	-16584	968	-2672	66	-3	-4	-16360	-600	-1192	244	16	-22	126	125	8
-8016	-2040	13704	-13	6	-30	-15768	2576	-2296	24	-14	-29	-15816	1880	-2232	62	46	15	-8240	504	14744	77	10	-216	-16480	704	-2872	42	-12	-29	-16280	-624	-1640	244	11	-9	126	123	8
-8120	-2008	13696	-17	5	-30	-15824	2728	-2528	22	-13	-29	-15896	1808	-2064	54	52	21	-8440	368	15064	-335	-530	-215	-16744	712	-3032	-22	-112	-115	-15936	-664	-1688	231	17	-22	127	128	8
-7992	-1968	13740	-19	-3	-33	-15904	2640	-2320	12	-21	-30	-15880	1776	-2312	41	51	16	-8312	760	14608	-505	-733	-172	-16416	928	-2968	11	-85	-119	-15624	-80	-1128	204	71	-1	126	120	8
-8020	-2072	13732	-16	-4	-35	-15920	2472	-2496	10	-20	-32	-16096	1712	-2072	33	62	15	-7984	624	14448	-375	-602	-168	-16528	744	-2512	18	-72	-56	-15856	-112	-952	139	83	-29	127	129	8
-8052	-2100	13676	-18	0	-37	-15880	2560	-2256	15	-25	-27	-16128	1600	-2304	33	57	14	-7696	848	14808	-197	-339	-210	-16736	552	-2280	29	-75	-38	-16000	-376	-88	122	80	-58	127	125	8
-8048	-2008	13700	-21	-1	-37	-16032	2632	-2656	10	-32	-25	-16272	1464	-2328	46	58	10	-8112	792	14632	67	17	-169	-16304	184	-1760	40	-40	7	-15808	-504	520	119	76	-79	127	126	8
-8020	-2072	13740	-19	8	-27	-16112	2512	-2368	8	-37	-26	-16312	1472	-2408	40	70	7	-7856	704	14632	243	357	-135	-16720	488	-1688	54	-15	28	-16336	-768	16	165	67	-110	126	122	8
-8028	-2044	13696	-17	9	-30	-16136	2664	-2336	-5	-37	-26	-16232	1616	-2152	17	74	18	-7920	720	14480	414	638	-157	-16688	456	-2120	-6	-2	57	-16800	-776	-432	208	77	-130	127	126	8
-8064	-2040	13700	-19	16	-26	-15912	2568	-2096	-34	-39	-25	-16136	1704	-1928	9	84	29	-8096	616	14480	534	919	-165	-16512	280	-2176	3	36	63	-16232	-440	-608	214	77	-103	126	123	8
-8008	-2084	13644	-24	17	-24	-16008	2512	-2336	-39	-38	-23	-16152	1536	-2008	-4	90	36	-8136	520	14752	524	861	-182	-16312	416	-2320	83	47	66	-15936	-616	-672	224	90	-72	127	122	8
-8024	-2012	13768	-21	19	-21	-15792	2536	-2080	-31	-36	-25	-16024	1656	-2488	-4	89	28	-8248	608	14632	456	841	-238	-16520	920	-2472	134	43	72	-16192	-480	-1480	281	113	-76	127	124	8
-7964	-2048	13728	-15	21	-22	-15856	2448	-2176	-37	-25	-20	-16016	1720	-1944	16	82	25	-8536	648	14728	381	656	-223	-16520	840	-2616	91	43	63	-16200	-520	-1320	286	119	-74	127	125	8
-8000	-2024	13800	-10	16	-23	-15896	2344	-2216	-16	-16	-15	-15976	1640	-2040	24	70	21	-8392	624	14696	331	540	-255	-16336	768	-2472	68	51	31	-15888	-120	-896	247	193	-53	127	126	8
-8028	-2004	13716	-9	13	-22	-15856	2576	-1960	-3	-3	-10	-16024	1608	-2056	24	48	20	-8168	680	14808	267	487	-248	-16560	600	-2280	68	49	28	-15896	-344	-800	247	257	-77	127	127	8
-8004	-1980	13796	-9	12	-23	-15824	2544	-1792	11	11	-4	-16016	1632	-1976	20	34	20	-8304	704	14472	177	471	-272	-16448	720	-2208	71	64	38	-16776	-152	328	153	245	-100	127	130	8
-7968	-2032	13788	-11	8	-24	-16040	2384	-2040	25	16	-1	-16288	1768	-1912	24	28	18	-8320	592	14912	156	435	-286	-16336	968	-2240	60	76	33	-17344	-8	-1984	98	74	-96	127	122	8
-7920	-2056	13824	-6	14	-18	-16072	2536	-2280	46	24	-3	-16248	1808	-2080	13	23	22	-8312	616	14824	97	357	-292	-16456	1016	-2696	-9	68	26	-16232	-1032	-1936	-36	-44	-17	127	125	8
-8008	-1936	13752	-7	23	-14	-15848	2744	-2336	16	29	-11	-16080	2000	-2344	7	6	29	-8408	424	14544	121	252	-255	-16312	568	-3192	-38	64	9	-15704	-1592	-1712	-51	43	21	127	125	8
-7960	-1948	13788	-8	25	-16	-15880	2608	-2064	-9	32	-10	-15928	1888	-2360	4	6	23	-8304	720	14600	132	180	-226	-16440	456	-3128	37	54	13	-15560	-952	-2048	63	184	30	127	124	8
-8004	-2028	13728	-10	18	-19	-15704	2416	-2288	1	35	-7	-15880	1784	-2472	-8	6	9	-8208	632	14616	152	118	-195	-16552	864	-3040	87	40	14	-15768	-632	-1920	115	237	-24	127	123	8
-8008	-2020	13604	-8	12	-24	-15840	2392	-2456	23	30	4	-15936	1584	-2568	-6	10	4	-8368	624	14480	121	34	-216	-16480	848	-2848	48	11	11	-16536	-144	-1976	108	184	-74	127	125	8
-7976	-1992	13660	-5	5	-22	-15880	2616	-2432	29	35	2	-16040	1688	-2640	-6	11	-5	-8408	576	14384	145	107	-228	-16464	712	-2496	-4	15	12	-16568	-568	-2056	-16	158	-27	127	125	8
-8008	-2044	13692	-8	8	-22	-15968	2624	-2408	19	33	7	-16160	1616	-2456	-30	4	0	-8336	640	14568	137	163	-242	-16464	640	-2776	-11	16	11	-15720	-1160	-1488	-179	189	54	126	125	8
-7964	-2056	13692	-9	14	-18	-16120	2648	-2488	-13	30	6	-16216	1840	-2696	-46	-2	10	-8376	576	14608	134	171	-179	-16136	136	-2712	37	20	22	-15248	-1296	-1072	-156	299	21	126	125	8
-8004	-1980	13820	-8	20	-16	-16000	2520	-2640	-10	25	-2	-16184	1712	-2816	-45	-6	12	-8256	640	14728	171	159	-101	-16464	632	-3056	127	28	38	-15432	-744	-1352	-94	502	-8	127	125	8
-8000	-2012	13736	-13	23	-15	-15768	2632	-2344	-5	25	-4	-15984	1656	-2600	-28	-1	17	-8424	688	14480	136	127	-113	-16480	1176	-2504	90	23	50	-15944	-336	-1576	-128	606	1	127	125	8
-8048	-1992	13728	-10	23	-17	-15864	2480	-2432	5	22	-9	-15968	1568	-2664	-3	2	21	-8240	672	14720	156	108	-172	-16248	784	-2544	-19	34	21	-16720	96	-2392	-155	503	34	127	125	8
-8004	-2040	13688	-11	22	-14	-16096	2480	-2472	22	22	-8	-15992	1752	-2560	-5	-2	19	-8368	488	14424	154	70	-158	-16448	640	-2776	-55	37	10	-16760	64	-2416	-151	472	41	127	124	8
-7992	-2004	13776	-6	20	-19	-15792	2704	-2368	12	14	-6	-15832	1728	-2504	-8	5	18	-8240	608	14680	120	84	-160	-16584	552	-2704	-18	40	16	-16688	-632	-2704	-195	183	14	127	124	8
-8008	-1980	13704	-13	14	-17	-15776	2600	-2608	-6	13	-5	-16024	1880	-2720	0	-2	10	-8544	568	14744	129	177	-170	-16560	656	-2696	8	36	20	-16440	-960	-2816	-149	104	-2	127	123	8
-8052	-2048	13672	-13	17	-24	-15960	2592	-2232	-10	12	-8	-15872	1632	-2864	2	8	10	-8360	552	14584	121	187	-196	-16424	720	-3096	7	20	25	-15952	-808	-2648	-69	97	10	126	124	8
-8056	-1988	13788	-14	19	-19	-16008	2504	-2120	4	-2	-11	-16048	1632	-2984	9	12	8	-8344	688	14352	150	62	-127	-16144	416	-2720	7	16	13	-15728	-792	-2912	-1	61	0	126	123	8
-7996	-2000	13748	-11	20	-17	-16064	2576	-2712	17	-7	-16	-16072	1728	-2736	15	18	17	-8640	712	14544	133	-16	-132	-16296	960	-2880	23	13	16	-16104	-696	-3088	56	-10	-29	126	124	8
-8024	-1924	13748	-12	24	-19	-15960	2768	-2672	6	-12	-19	-15968	1976	-2976	9	22	25	-8480	608	14440	116	-31	-149	-16456	920	-2616	-3	8	16	-16504	-728	-2976	59	-63	-30	126	124	8
-8124	-1988	13756	-17	23	-25	-15768	2488	-2576	-20	-16	-20	-15864	1872	-2808	-17	20	29	-8400	752	14672	134	-12	-128	-16648	632	-2856	-20	2	6	-16128	-864	-2528	17	-62	-7	127	123	8
-8068	-1984	13732	-15	13	-28	-15952	2496	-2600	-22	-21	-13	-15744	1784	-2952	-29	21	21	-8464	504	14592	136	-31	-138	-16384	432	-3032	18	-1	8	-15816	-696	-2624	28	0	-14	127	124	8
-8096	-1968	13732	-18	12	-23	-15784	2296	-2736	-16	-19	-18	-15936	1752	-2768	-20	25	12	-8320	760	14688	107	41	-149	-16520	664	-2816	50	-9	16	-15880	-544	-2592	45	44	-35	127	123	8
-7964	-2072	13696	-15	5	-29	-15936	2488	-2416	-9	-23	-12	-15848	1656	-2792	-12	20	4	-8248	640	14456	139	-24	-110	-16464	776	-2840	21	-17	23	-16032	-424	-2768	5	51	-30	127	123	8
-7936	-1952	13660	-18	5	-26	-15952	2680	-2304	-9	-27	-18	-16008	1712	-2840	-6	16	3	-8336	424	14512	104	40	-104	-16416	816	-2952	-8	-23	13	-16008	-464	-2552	-51	54	-14	126	123	8
-8024	-2004	13736	-17	10	-27	-15992	2824	-2400	-8	-30	-22	-16016	1768	-2744	2	18	12	-8352	560	14544	137	65	-109	-16536	608	-2912	1	-28	11	-16112	-976	-2632	-39	63	-16	126	122	8
-8040	-2044	13680	-21	12	-26	-15816	2640	-2408	-30	-32	-27	-16056	1752	-2888	1	24	20	-8392	832	14624	159	60	-95	-16416	736	-2536	12	-21	14	-16048	-728	-2712	-31	87	-11	126	122	8
-7992	-2012	13764	-20	10	-30	-15928	2408	-2416	-26	-40	-22	-15928	1592	-2672	12	34	18	-8384	656	14440	142	66	-144	-16592	544	-2720	9	-26	8	-15992	-536	-2592	-33	97	-11	126	123	8
-8052	-2036	13796	-18	17	-26	-16048	2520	-2336	-20	-40	-30	-16080	1584	-2720	12	42	15	-8256	656	14560	153	99	-147	-16352	696	-3000	4	-33	7	-15912	-464	-2624	-27	88	-17	126	123	8
-8016	-1964	13792	-17	15	-29	-15808	2648	-2360	-6	-43	-15	-15936	1560	-2520	8	32	15	-8344	664	14632	144	83	-134	-16456	664	-2520	-3	-33	6	-16192	-576	-2736	-48	73	-19	126	123	8
-7972	-2020	13724	-18	8	-30	-15896	2464	-2272	-21	-37	-22	-16008	1720	-2600	-7	22	19	-8464	728	14704	156	77	-124	-16448	552	-2664	-14	-36	7	-16144	-912	-2656	-55	68	-15	126	123	8
-7968	-2004	13808	-17	14	-28	-15976	2424	-2472	-20	-40	-26	-16040	1824	-2624	-11	24	18	-8472	560	14776	141	129	-105	-16536	584	-2728	-6	-42	4	-16024	-752	-2672	-47	63	-16	127	123	8
-8060	-2008	13600	-19	15	-28	-15848	2432	-2280	-17	-32	-19	-15888	1760	-2584	-1	25	15	-8400	640	14536	169	123	-130	-16360	728	-2688	16	-33	9	-15904	-688	-2480	-35	58	-21	126	123	8
-8096	-2008	13868	-14	12	-26	-15856	2288	-2512	-24	-26	-25	-15976	1592	-2280	11	25	12	-8344	680	14664	130	182	-137	-16336	856	-2488	16	-39	15	-15992	-568	-2656	-15	60	-21	126	124	8
-7924	-1988	13732	-19	10	-27	-15904	2336	-2384	-22	-31	-16	-15928	1504	-2544	10	23	13	-8344	656	14720	174	116	-163	-16328	456	-2592	4	-40	9	-15992	-720	-2616	-12	57	-16	126	124	8
-8040	-2012	13784	-16	11	-20	-15896	2488	-2224	-5	-29	-16	-16056	1592	-2496	6	17	17	-8480	680	14456	138	192	-161	-16560	600	-2848	14	-43	12	-16072	-864	-2712	-3	54	-21	126	124	8
-8032	-1968	13748	-14	9	-25	-15992	2536	-2288	-18	-22	-15	-15888	1520	-2512	7	14	21	-8200	640	14688	156	246	-173	-16736	560	-2272	15	-43	13	-16264	-896	-2768	-2	69	-14	126	124	8
-7968	-1976	13720	-19	12	-23	-15912	2304	-1824	-12	-14	-14	-15960	1592	-2504	4	6	26	-8472	584	14632	186	292	-207	-16496	584	-2760	-7	-54	16	-16208	-864	-2712	3	69	-8	126	124	8
-8008	-2044	13688	-10	10	-26	-16040	2328	-2256	-1	-12	-11	-16128	1608	-2664	5	13	29	-8424	568	14512	207	375	-162	-16512	456	-2464	-1	-44	8	-15992	-752	-2904	16	58	-9	126	124	8
-8016	-2140	13784	-12	16	-22	-15992	2512	-2328	6	-8	-12	-16248	1584	-2752	7	14	26	-8424	592	14712	194	345	-140	-16448	608	-2520	35	-46	6	-15896	-864	-3016	46	48	-13	126	124	8
-7972	-2064	13756	-8	20	-15	-15832	2552	-2224	-1	-6	-9	-15984	1672	-2744	25	15	26	-8472	536	14560	231	290	-123	-16376	848	-2584	54	-41	9	-15952	-712	-2744	57	41	-6	126	124	8
-8060	-1956	13752	-11	18	-19	-16128	2376	-2368	3	-7	-8	-16016	1848	-2960	14	14	29	-8448	680	14712	181	271	-187	-16368	792	-2568	48	-36	14	-16008	-752	-2792	65	29	2	126	124	8
-8000	-1984	13692	-11	20	-19	-15792	2512	-2280	13	-8	-9	-16032	1928	-2904	9	14	30	-8640	688	14520	180	234	-169	-16384	672	-2728	51	-27	5	-16024	-712	-2704	82	15	8	126	124	8
-8024	-2000	13668	-14	18	-21	-15936	2512	-2128	17	-9	-11	-15864	1696	-2776	6	15	30	-8552	576	14248	202	132	-182	-16320	576	-2872	52	-22	14	-15816	-632	-2752	87	16	2	126	123	8
-8024	-2008	13720	-13	20	-21	-15880	2544	-2416	12	-8	-10	-15808	1752	-2640	26	14	29	-8648	736	14696	144	106	-163	-16272	824	-2496	52	-19	12	-15952	-600	-2480	85	13	4	126	124	8
-8076	-2052	13764	-14	15	-24	-15880	2440	-2472	16	-14	-13	-15952	1712	-2880	36	15	30	-8488	776	14472	158	79	-133	-16288	552	-2448	50	-12	14	-16008	-552	-2736	71	-7	-1	126	124	8
-8020	-2004	13688	-13	14	-25	-15808	2440	-2400	18	-8	-11	-15904	1744	-2856	43	14	28	-8424	544	14496	147	-13	-166	-16320	528	-2440	62	-4	17	-15864	-640	-2496	75	-8	-5	126	124	8
-7952	-1948	13776	-14	7	-26	-15848	2640	-2272	3	-10	-13	-16016	1688	-2792	50	0	28	-8376	728	14408	119	-34	-144	-16632	728	-2424	35	0	23	-16104	-760	-2616	72	-6	4	126	124	8
-8060	-1904	13752	-15	6	-30	-15984	2480	-2136	9	-9	-16	-16008	1672	-2704	44	3	24	-8512	656	14312	115	-13	-168	-16448	784	-2560	9	2	10	-16096	-696	-2688	62	-4	11	126	124	8
-8032	-1988	13840	-11	6	-28	-15760	2496	-2536	15	-7	-9	-15888	1776	-2856	42	-1	27	-8376	664	14544	154	-48	-152	-16392	472	-2560	7	2	12	-15888	-752	-2928	68	-6	13	127	124	8
-8108	-2112	13736	-11	2	-23	-15896	2472	-2120	9	-10	-13	-15872	1720	-2744	43	-2	27	-8512	672	14480	136	-25	-130	-16400	488	-2688	23	4	8	-15760	-776	-2992	72	-8	3	127	124	8
-7976	-2052	13824	-15	5	-27	-15896	2640	-2152	19	-4	-17	-16216	1816	-2584	53	0	20	-8344	672	14552	138	45	-151	-16488	520	-2720	36	-1	16	-16000	-728	-2784	74	-10	-1	127	124	8
-7948	-2016	13652	-12	11	-24	-15992	2504	-2208	12	-6	-10	-16160	1776	-2632	46	0	17	-8536	760	14544	111	9	-179	-16448	680	-2688	37	-11	14	-16048	-800	-2984	75	-8	7	126	124	8
-7988	-1956	13684	-14	12	-24	-15968	2592	-2272	7	-4	-18	-15896	1864	-2712	30	-5	22	-8456	768	14496	126	13	-171	-16392	736	-2776	31	-12	10	-16064	-592	-3040	57	-7	15	126	123	8
-7940	-2028	13760	-15	12	-20	-15696	2504	-2216	0	1	-13	-15928	1720	-2744	29	-7	22	-8592	680	14544	121	-27	-113	-16296	568	-2752	29	-5	5	-16072	-648	-2968	60	-21	5	126	123	8
-8028	-2008	13784	-11	10	-24	-15848	2480	-2264	14	6	-14	-15824	1656	-2760	33	-12	16	-8520	592	14448	150	-42	-97	-16376	496	-2464	46	0	6	-15888	-616	-2632	54	-25	-1	127	124	8
-8016	-2008	13836	-12	11	-27	-15824	2352	-2264	31	3	-13	-16112	1616	-2712	28	-10	17	-8488	712	14640	107	-100	-140	-16368	672	-2384	49	-2	10	-15840	-688	-2584	52	-36	0	126	124	8
-7980	-1980	13744	-14	8	-29	-15960	2568	-2176	32	10	-15	-15904	1728	-2760	38	-11	21	-8472	640	14640	47	-137	-130	-16376	720	-2768	32	-8	12	-16080	-744	-2744	47	-38	6	127	124	8
-8008	-2036	13812	-11	11	-27	-15920	2440	-2112	28	7	-13	-15944	1688	-2784	40	-17	18	-8536	712	14512	86	-96	-153	-16472	448	-2352	16	0	5	-15944	-888	-2656	44	-32	14	126	124	8
-8048	-2000	13796	-13	9	-24	-15840	2440	-2248	35	7	-20	-15976	1560	-2856	44	-19	18	-8528	656	14472	118	-148	-107	-16464	632	-2952	7	-8	2	-15944	-904	-2712	56	-36	14	126	124	8
-8028	-2064	13728	-13	9	-28	-15912	2424	-2480	33	7	-14	-15944	1664	-3128	51	-18	21	-8416	544	14376	94	-170	-70	-16352	568	-2424	12	3	2	-16008	-824	-2696	41	-40	9	126	124	8
-7952	-2036	13716	-12	9	-24	-15992	2560	-2208	26	11	-20	-15984	1544	-3208	59	-24	20	-8472	664	14392	106	-169	-100	-16344	584	-2656	14	5	10	-15952	-832	-2688	46	-43	15	127	124	8
-8020	-2068	13704	-14	11	-26	-15960	2456	-2400	28	7	-17	-15896	1752	-3312	45	-28	24	-8408	624	14384	87	-170	-111	-16488	768	-2560	9	2	8	-16080	-856	-2816	54	-36	22	127	124	8
-8012	-2048	13720	-13	12	-26	-15864	2544	-2208	19	5	-15	-15880	1728	-2976	46	-33	20	-8456	512	14624	85	-150	-155	-16424	608	-2520	7	3	5	-16104	-640	-2520	50	-39	24	126	124	8
-8056	-2008	13712	-14	8	-27	-15960	2264	-2536	16	0	-18	-15896	1792	-2856	40	-35	19	-8424	520	14704	67	-199	-121	-16584	576	-2624	10	1	5	-15968	-856	-2416	61	-41	21	126	124	8
-8064	-2108	13800	-15	5	-30	-15824	2504	-2280	20	-1	-13	-15976	1680	-3304	37	-40	15	-8416	616	14432	105	-182	-128	-16472	448	-2520	22	-4	8	-16040	-632	-2840	62	-43	13	126	124	8
-7972	-2100	13764	-11	5	-24	-16056	2408	-2216	22	1	-15	-16024	1792	-2952	36	-38	11	-8416	712	14504	99	-124	-109	-16440	496	-2800	24	-2	6	-16040	-664	-2424	58	-46	8	126	124	8
-7940	-2020	13744	-9	9	-23	-16088	2456	-2296	20	-4	-18	-15856	1752	-3024	23	-41	8	-8408	608	14440	95	-142	-107	-16504	488	-2720	22	-5	11	-15936	-816	-2904	50	-41	17	126	124	8
-7992	-2008	13844	-12	7	-20	-15840	2512	-2576	16	-4	-21	-15816	1736	-3024	19	-44	16	-8424	520	14496	108	-191	-101	-16384	568	-2840	6	-14	13	-15736	-776	-2928	64	-45	15	126	124	8
-8012	-2052	13784	-17	9	-23	-15976	2480	-2400	13	-9	-25	-15680	1744	-3184	-10	-50	20	-8456	592	14384	133	-129	-132	-16680	544	-2816	6	-26	12	-15816	-1072	-3136	85	-34	11	126	124	8
-7996	-2080	13832	-14	10	-29	-15984	2480	-2472	21	-22	-17	-15880	1976	-2888	-22	-40	16	-8376	704	14568	106	-41	-124	-16704	400	-2968	5	-37	11	-16232	-1184	-2928	69	-8	15	126	124	8
-8008	-1984	13764	-18	8	-25	-16128	2512	-2560	11	-27	-20	-15776	1712	-3104	7	-28	4	-8304	640	14576	133	4	-96	-16592	360	-2736	17	-48	7	-15880	-816	-2976	49	-3	20	125	124	8
-8020	-2088	13592	-19	12	-27	-16056	2320	-2480	-9	-32	-20	-15784	1632	-2992	14	-14	5	-8400	504	14360	147	-10	-104	-16408	192	-2680	34	-58	13	-15952	-672	-2712	41	3	1	125	123	8
-7952	-2052	13760	-18	14	-26	-15968	2360	-2480	-17	-43	-22	-15896	1440	-2960	-17	-11	14	-8248	592	14576	175	78	-88	-16560	488	-2568	37	-71	12	-15832	-744	-2728	35	6	-7	125	124	8
-8044	-2064	13776	-15	13	-21	-16112	2464	-2256	-20	-48	-29	-16000	1496	-3016	-12	7	16	-8360	592	14704	184	87	-67	-16424	304	-2616	36	-69	11	-16144	-760	-2280	9	2	-12	125	123	8
-7984	-2036	13644	-15	13	-29	-15832	2520	-2280	-32	-53	-28	-15792	1480	-3008	28	24	24	-8536	752	14528	193	100	-96	-16368	464	-2240	24	-59	10	-16096	-592	-1944	6	-2	-12	125	123	8
-7916	-2024	13656	-22	14	-26	-16040	2224	-1976	-28	-60	-30	-16032	1296	-2912	51	35	27	-8368	728	14688	156	130	-152	-16640	344	-2200	36	-54	9	-16088	-536	-2064	26	4	-17	125	123	8
-7988	-2012	13848	-18	21	-23	-15984	2432	-2368	-1	-62	-33	-15984	1464	-2768	47	41	35	-8360	616	14592	188	134	-142	-16640	552	-2504	40	-48	19	-16200	-584	-1992	22	18	-14	125	123	8
-7928	-2040	13688	-15	19	-23	-15976	2440	-2168	-20	-51	-29	-16040	1376	-2832	82	46	44	-8544	720	14800	157	223	-166	-16552	512	-2280	11	-41	12	-16048	-632	-2000	4	16	-6	125	123	8
-7996	-2092	13836	-18	20	-32	-15880	2384	-2184	-20	-51	-35	-16104	1464	-2520	91	40	43	-8408	576	14504	131	201	-182	-16448	384	-2392	-3	-35	7	-16104	-664	-2416	17	25	-3	125	123	8
-7936	-2092	13788	-13	16	-23	-15888	2224	-2120	-4	-42	-31	-16000	1456	-2488	108	33	37	-8464	768	14488	145	229	-168	-16640	576	-2256	-11	-35	15	-16112	-936	-2520	39	35	-2	125	123	8
-7920	-2072	13736	-12	14	-23	-15920	2152	-2024	22	-32	-19	-16184	1312	-2368	138	30	45	-8424	680	14584	171	248	-245	-16632	480	-2080	0	-23	8	-16224	-888	-2232	29	22	-4	125	123	8
-7932	-2060	13800	-6	14	-20	-15960	2288	-1960	25	-22	-12	-16088	1584	-2224	118	2	39	-8472	704	14472	168	306	-282	-16600	272	-2240	10	-14	32	-16232	-816	-2336	3	-4	-5	125	123	8
-8020	-2072	13720	-10	12	-21	-15896	2480	-2032	18	-8	-7	-16128	1816	-2432	108	-5	32	-8512	480	14456	202	385	-126	-16264	520	-2608	-6	-4	16	-15776	-896	-2208	27	-10	-3	125	123	8
-7956	-2064	13768	-2	9	-22	-16000	2200	-1760	40	1	-11	-16112	1760	-2592	71	-9	27	-8680	672	14480	206	383	-69	-16424	672	-2376	-39	-4	12	-15872	-624	-2424	53	-11	1	125	123	8
-8012	-2076	13768	1	0	-14	-15864	2240	-1760	34	16	-7	-15856	1728	-2328	24	-21	11	-8632	632	14448	140	295	-163	-16112	712	-2616	8	2	23	-15712	-368	-2584	55	0	11	125	123	8
-7972	-2064	13716	7	-5	-14	-15784	2200	-1896	54	21	-6	-16032	1552	-2208	-2	-20	23	-8728	688	14472	135	158	-137	-16344	784	-2384	32	3	16	-15808	-736	-3200	58	19	16	125	123	8
-7956	-2044	13784	4	0	-12	-15928	2360	-2120	53	28	-3	-16128	1736	-2568	-3	-18	12	-8640	568	14408	83	110	-178	-16560	680	-2576	3	-12	13	-15760	-568	-3072	59	24	16	125	124	8
-7900	-2040	13712	3	3	-19	-16144	2440	-2144	65	33	-1	-16120	1872	-3016	-1	-13	8	-8408	712	14384	122	1	-184	-16400	488	-2568	18	-6	6	-15952	-552	-2800	33	6	-14	125	124	8
-7920	-2112	13768	1	14	-12	-16056	2384	-2176	61	26	-8	-16072	1880	-2752	-21	-5	1	-8496	584	14424	123	33	-160	-16504	568	-2632	35	-10	7	-16024	-544	-2376	35	1	-26	125	123	8
-7972	-1992	13808	-2	23	-13	-15968	2552	-2608	63	26	-13	-15976	1512	-3000	-9	6	10	-8472	688	14360	92	-37	-135	-16232	568	-2256	26	-5	6	-15864	-656	-2344	11	-1	-19	125	124	8
-8060	-2004	13820	-7	20	-15	-15992	2648	-2512	27	23	-11	-15824	1384	-3328	33	24	21	-8696	656	14640	47	11	-182	-16472	592	-2320	-2	-15	6	-16160	-744	-2272	7	10	-9	125	124	8
-7956	-2008	13716	-10	19	-21	-15944	2232	-2296	33	16	-14	-15840	1280	-3560	56	37	29	-8488	672	14680	21	8	-192	-16560	344	-2480	4	-6	1	-16032	-896	-2072	13	9	-4	125	124	8
-7992	-1976	13688	-10	14	-20	-15984	2216	-2296	34	11	-14	-15848	1208	-3176	61	47	33	-8416	496	14488	79	-13	-166	-16312	528	-2624	14	5	6	-16104	-912	-2184	44	19	-7	126	124	8
-8000	-2064	13704	-8	16	-25	-15912	2344	-2448	26	6	-15	-15720	1440	-3176	65	50	32	-8536	688	14552	77	-49	-192	-16592	360	-2640	19	17	1	-16008	-728	-2384	56	17	-5	125	124	8
-7960	-2016	13812	-8	13	-19	-15776	2440	-2248	8	9	-17	-15912	1632	-3176	66	37	30	-8496	504	14208	56	-4	-172	-16424	416	-2432	16	10	10	-15928	-824	-2504	60	22	-1	126	124	8
-7984	-1984	13788	-9	13	-23	-16176	2312	-2320	18	5	-14	-15992	1968	-3008	55	29	36	-8472	584	14384	83	-38	-159	-16504	472	-2368	14	14	6	-15992	-936	-2560	59	27	2	126	124	8
-7968	-2052	13740	-13	11	-24	-16000	2240	-2336	15	6	-16	-15944	1864	-3040	53	28	34	-8552	624	14336	89	26	-188	-16616	512	-2416	11	15	2	-16000	-984	-2696	62	18	1	125	124	8
-8000	-2056	13780	-10	17	-19	-15976	2264	-2280	31	4	-16	-15920	1848	-3136	14	30	20	-8608	712	14376	111	-11	-175	-16472	288	-2520	14	9	6	-15912	-1000	-2936	64	24	0	125	124	8
-7936	-2000	13676	-9	19	-17	-15928	2408	-2552	14	8	-21	-15952	1840	-3040	14	31	17	-8512	680	14408	108	69	-195	-16512	576	-2472	34	1	6	-15936	-984	-2680	77	24	1	125	124	8
-7904	-2068	13704	-14	23	-14	-15944	2424	-2288	9	9	-23	-15960	1568	-3168	18	28	12	-8496	664	14352	135	30	-157	-16552	456	-2672	36	-3	7	-15968	-768	-2768	79	33	2	126	124	8
-7992	-2076	13744	-10	22	-16	-16024	2448	-2112	3	8	-16	-15960	1664	-3224	11	29	13	-8448	616	14448	115	88	-186	-16632	576	-2632	34	-16	2	-15944	-960	-2872	78	30	-2	126	124	8
-8004	-1964	13848	-15	18	-16	-15816	2200	-2368	2	17	-21	-15936	1512	-3040	8	18	14	-8608	640	14456	149	93	-174	-16488	400	-2504	54	-14	-2	-15776	-952	-2792	85	26	-6	125	124	8
-7972	-2016	13760	-12	25	-22	-15856	2232	-2304	2	17	-15	-16016	1600	-3040	-1	12	16	-8536	672	14192	148	91	-141	-16376	400	-2656	67	-11	1	-15944	-720	-2872	71	18	-12	126	124	8
-8012	-2092	13756	-16	20	-21	-15784	2360	-2448	12	25	-18	-15784	1448	-3168	6	10	15	-8664	584	14560	160	58	-144	-16352	488	-2720	65	-15	6	-16008	-720	-2856	69	16	-10	126	124	8
-7984	-1988	13760	-14	17	-26	-15840	2280	-2360	22	29	-19	-15720	1560	-3016	14	12	20	-8736	632	14456	110	47	-121	-16472	544	-2640	48	-10	0	-16000	-792	-2560	41	6	-7	125	123	8
-8032	-2004	13756	-10	12	-19	-15888	2128	-2232	34	23	-15	-15760	1616	-3008	37	8	12	-8528	608	14600	109	-14	-103	-16376	496	-2592	38	-8	-6	-15864	-760	-2624	40	-1	-1	125	124	8
-8004	-2004	13832	-15	15	-25	-15952	2224	-2456	37	22	-16	-15768	1640	-3096	45	12	16	-8640	600	14400	86	-50	-111	-16456	392	-2416	22	-7	2	-16040	-816	-2560	43	-2	-17	126	124	8
-7980	-2012	13748	-15	15	-24	-15960	2288	-2448	46	16	-19	-16032	1672	-3320	27	18	19	-8512	648	14384	89	-101	-147	-16512	472	-2416	0	-12	-3	-16000	-696	-2640	31	0	-6	125	124	8
-8008	-2020	13752	-11	14	-23	-16064	2312	-2400	27	8	-19	-15848	1432	-3584	28	19	29	-8504	608	14480	54	-58	-196	-16600	280	-2520	-13	-5	0	-16176	-912	-2616	22	8	-3	125	124	8
-8040	-2044	13740	-17	16	-21	-16032	2256	-2288	13	7	-25	-15944	1672	-3424	39	23	27	-8480	600	14368	84	16	-190	-16520	112	-2536	-5	-2	-4	-16024	-976	-2552	22	0	-7	125	123	8
-7968	-1968	13736	-18	16	-20	-16024	2320	-2416	4	1	-20	-15680	1600	-3512	39	28	26	-8608	416	14296	70	26	-178	-16312	256	-2392	12	8	-3	-15808	-1080	-2392	25	-5	-7	125	124	8
-7932	-2028	13736	-21	15	-24	-15832	2024	-2560	-16	-4	-21	-15768	1592	-3448	35	26	26	-8408	624	14504	81	-93	-164	-16296	432	-2448	17	6	-2	-15664	-928	-2640	39	-11	0	125	124	8
-8064	-2016	13740	-14	13	-17	-15936	2160	-2152	-12	-5	-34	-15928	1736	-3520	33	18	24	-8560	496	14752	-37	-112	-174	-16592	640	-2616	-26	-1	6	-15984	-920	-2944	53	-4	0	125	123	8
-7948	-2120	13780	-8	17	-17	-16096	2048	-2304	-2	-2	-30	-16192	1840	-3296	37	2	19	-8560	672	14544	-119	-145	-215	-16656	528	-2280	-74	-14	1	-16208	-728	-2840	33	-2	13	125	124	8
-7972	-1924	13756	-15	31	-27	-15896	2296	-2200	34	-1	-29	-15984	1944	-3048	55	-15	23	-8552	712	14648	-92	-198	-250	-16456	152	-2528	-54	-5	-5	-16112	-800	-2744	17	3	6	125	124	8
-8080	-2060	13704	-15	34	-23	-15912	2040	-2432	47	-6	-26	-15856	1824	-2848	42	-19	20	-8440	544	14600	-55	-148	-243	-16536	208	-2304	-13	-4	-5	-15936	-872	-2792	27	-12	-20	125	124	8
-8068	-2024	13752	-20	30	-19	-15896	2328	-2640	31	1	-28	-15776	1408	-3080	11	3	-1	-8496	680	14480	-16	-74	-193	-16504	200	-2568	6	1	-3	-15840	-928	-2840	31	-30	-21	125	123	8
-8052	-1944	13696	-17	32	-17	-15968	2128	-2640	2	-1	-22	-15824	1592	-3344	11	15	-8	-8320	472	14304	40	-100	-170	-16352	136	-2712	0	-5	-3	-16000	-904	-2728	24	-22	-14	125	124	8
-8008	-1988	13740	-13	39	-18	-15776	2264	-2168	1	-4	-31	-15936	1600	-3536	-5	6	-7	-8624	632	14592	70	-46	-173	-16328	464	-2312	-5	-11	1	-15936	-1064	-2680	23	-20	-10	125	123	8
-8048	-1972	13748	-11	22	-21	-15904	2176	-2504	-11	-3	-28	-15888	1400	-3384	-11	4	2	-8536	640	14664	55	-45	-145	-16552	200	-2672	4	-11	-4	-15944	-1120	-2704	28	-15	-12	125	123	8
-8088	-1948	13772	-12	17	-26	-15864	2256	-2472	7	-5	-29	-15744	1424	-3272	8	1	6	-8440	504	14312	81	-64	-145	-16384	432	-2880	11	-4	-3	-15888	-880	-2576	36	-13	-11	125	123	8
-7980	-2064	13860	-18	13	-25	-15792	2192	-2360	8	-8	-31	-15904	1360	-3080	18	6	11	-8528	576	14376	74	-88	-137	-16496	304	-2624	25	-8	-2	-15912	-632	-2608	30	-16	-16	125	123	8
-8068	-2004	13764	-16	15	-29	-16176	2152	-2512	13	-7	-27	-15984	1408	-3344	27	8	9	-8520	544	14296	67	-102	-187	-16320	368	-2520	29	-1	-5	-15928	-888	-2472	29	-14	-13	125	124	8
-7996	-2032	13680	-21	15	-27	-15888	2152	-2488	25	-11	-23	-15920	1168	-3264	40	11	15	-8368	560	14496	88	-97	-145	-16472	272	-2536	24	2	-8	-16000	-1112	-2552	29	-21	-10	125	123	8
-8036	-2024	13704	-17	9	-31	-15896	2216	-2376	23	-4	-23	-15808	1312	-3264	41	-1	13	-8504	488	14232	113	-95	-123	-16424	200	-2376	31	2	0	-16048	-1280	-2472	51	-32	-10	125	123	8
-8048	-2036	13812	-13	8	-27	-15912	2040	-2200	18	-6	-25	-15704	1336	-3344	42	4	19	-8512	640	14456	129	-36	-125	-16632	272	-2544	42	6	5	-16048	-1160	-2752	64	-25	-6	125	123	8
-8048	-2064	13776	-13	9	-30	-16024	2128	-2448	23	-7	-23	-16048	1440	-3552	42	-5	14	-8512	640	14424	220	-48	-106	-16528	240	-2632	36	4	1	-15904	-936	-2568	48	-14	3	125	124	8
-7992	-2104	13796	-19	10	-26	-15912	2216	-2232	19	-5	-15	-15928	1536	-3344	46	-1	10	-8408	576	14456	206	13	-45	-16392	208	-2600	38	5	-2	-16016	-1016	-2624	46	-14	-2	125	124	8
-8028	-2020	13764	-14	11	-25	-16032	2280	-2336	5	-6	-18	-15936	1568	-3464	39	-7	15	-8352	608	14568	250	59	-40	-16408	176	-2344	65	11	3	-15888	-936	-2528	41	-24	-11	125	124	8
-7968	-2000	13876	-15	13	-26	-16080	2176	-2560	8	-3	-21	-15816	1640	-3328	21	-8	11	-8504	552	14496	263	1	-51	-16464	296	-2224	74	7	7	-15984	-776	-2408	47	-20	-9	125	124	8
-7944	-2072	13728	-20	13	-27	-15904	2176	-2528	1	-2	-20	-15992	1464	-3264	12	-8	10	-8536	640	14584	229	48	-70	-16448	360	-2608	54	8	5	-16072	-1000	-2512	36	-18	-9	126	124	8
-8016	-2032	13756	-14	6	-28	-15832	2104	-2504	9	-5	-18	-15816	1408	-3128	7	-17	3	-8512	496	14672	246	-27	-38	-16624	240	-2704	43	8	5	-16088	-1080	-2744	33	-19	-11	125	124	8
-8032	-2016	13704	-15	13	-25	-15920	2056	-2248	7	-1	-19	-15688	1368	-3224	15	-10	8	-8576	512	14672	261	28	-67	-16496	264	-2512	49	13	9	-16016	-1016	-2472	33	-17	-16	126	124	8
-8032	-2008	13792	-18	2	-32	-15904	1936	-2272	-2	4	-8	-15840	1416	-3424	0	-18	3	-8576	520	14576	243	74	-97	-16472	240	-2480	54	16	10	-16144	-1024	-2328	42	-23	-19	125	124	8
-7988	-2028	13788	-17	1	-28	-15864	2008	-2248	-1	6	-14	-15896	1440	-3112	-13	-18	0	-8448	584	14584	222	33	-62	-16344	368	-2376	62	14	9	-15928	-912	-2624	50	-18	-3	125	124	8
-7972	-2020	13716	-16	-2	-27	-16128	2168	-2168	6	5	-10	-15968	1480	-3360	-16	-15	-3	-8440	688	14592	185	-6	-101	-16328	352	-2528	46	21	15	-15936	-824	-2336	48	-19	4	125	124	8
-7980	-2044	13796	-15	3	-26	-16104	2152	-2664	12	2	-11	-15976	1544	-3400	-12	-12	1	-8544	656	14400	137	-98	-104	-16456	312	-2560	30	20	10	-15968	-912	-2304	42	-29	1	126	124	8
-8044	-1972	13832	-16	6	-25	-15936	2376	-2328	7	1	-16	-15824	1456	-3464	2	-15	8	-8528	728	14560	157	-102	-91	-16320	288	-2464	24	25	6	-15960	-824	-2688	33	-29	0	126	125	8
-7936	-1992	13832	-19	10	-29	-15952	2264	-2352	-3	0	-16	-15848	1360	-3320	9	-16	10	-8456	728	14384	102	-116	-136	-16504	88	-2600	19	30	11	-16072	-1048	-2232	33	-24	-2	126	124	8
-8028	-2084	13716	-14	10	-27	-16080	2112	-2600	6	-1	-16	-15776	1336	-3432	14	-14	7	-8320	520	14632	140	-135	-97	-16496	128	-2496	25	23	9	-15896	-1088	-2496	29	-25	-8	125	124	8
-7952	-2024	13700	-15	9	-28	-15832	2000	-2192	11	-5	-13	-15832	1304	-3440	18	-15	4	-8560	568	14328	115	-131	-75	-16488	240	-2440	6	24	9	-16000	-952	-2280	20	-17	-1	126	124	8
-7952	-2032	13736	-18	6	-28	-16032	2192	-2472	4	-3	-10	-16016	1496	-3432	19	-21	2	-8552	552	14432	117	-155	-109	-16472	264	-2624	-8	21	9	-15960	-912	-2704	5	-18	-1	126	124	8
-7928	-2080	13708	-15	8	-27	-15848	2136	-2224	-8	-2	-14	-15872	1416	-3416	10	-28	8	-8528	616	14720	125	-148	-100	-16528	120	-2464	0	16	10	-16120	-912	-2496	3	-24	-3	126	124	8
-7976	-2068	13848	-13	11	-30	-16008	2088	-2424	-12	-3	-22	-15992	1456	-3304	-1	-27	9	-8488	664	14576	108	-115	-103	-16496	184	-2432	18	25	13	-15936	-936	-2624	10	-20	1	126	124	8
-7936	-2000	13796	-13	12	-23	-16008	2056	-2384	-5	-1	-11	-15800	1592	-3200	-8	-30	7	-8456	792	14664	112	-124	-125	-16480	256	-2544	4	15	18	-15872	-984	-2512	9	-25	0	126	124	8
-7992	-2068	13712	-20	10	-23	-15864	2032	-2576	-3	-8	-16	-15768	1480	-3184	-9	-28	10	-8232	760	14528	109	-55	-148	-16608	240	-2416	-15	12	11	-16224	-872	-2856	11	-23	0	126	124	8
-8036	-2072	13704	-14	11	-26	-16080	2176	-2456	-1	-7	-10	-15888	1464	-3112	-22	-34	3	-8352	672	14488	119	-27	-165	-16576	24	-2840	-18	3	11	-16208	-1336	-2416	21	-15	-5	126	125	8
-8020	-2072	13764	-15	11	-25	-16008	2064	-2600	-10	-9	-13	-15792	1624	-3304	-32	-40	2	-8536	552	14752	86	13	-91	-16520	-40	-2856	-2	3	14	-15784	-1416	-2880	22	-20	-6	125	124	8
-7988	-2080	13736	-17	12	-24	-15912	2104	-2336	-16	-9	-14	-15704	1416	-3152	-37	-35	4	-8448	536	14368	162	-55	-99	-16344	232	-2696	17	-10	17	-15768	-1336	-2880	42	-12	-1	126	124	8
-7948	-2044	13792	-15	10	-25	-15952	2168	-2128	-11	-15	-12	-15904	1368	-3608	-45	-36	3	-8496	664	14368	132	-8	-128	-16456	328	-2768	12	-20	20	-15904	-1048	-2864	40	1	10	126	124	8
-7924	-2056	13692	-17	15	-23	-16136	2160	-2352	-11	-17	-9	-15936	1360	-3304	-28	-24	6	-8472	656	14552	117	-33	-119	-16360	216	-2608	1	-31	13	-15928	-968	-2816	23	5	12	125	124	8
-7956	-2068	13896	-16	21	-25	-16096	2136	-2336	-10	-22	-13	-15832	1312	-3360	-1	-12	17	-8360	568	14504	157	-23	-140	-16456	208	-2760	5	-28	11	-15968	-1080	-2752	21	7	5	125	124	8
-7972	-2100	13764	-15	17	-25	-16040	2288	-2368	-16	-24	-15	-16000	1192	-3416	3	-7	22	-8448	736	14752	162	15	-122	-16392	152	-2568	34	-33	16	-16008	-880	-2464	9	7	-6	126	124	8
-7952	-2088	13732	-16	23	-25	-16120	1928	-2712	-20	-26	-15	-15864	1224	-2952	5	-4	22	-8384	472	14584	193	30	-119	-16376	200	-2400	41	-34	22	-15976	-784	-2232	-5	9	-10	126	124	8
-7944	-2084	13752	-20	21	-25	-15936	2184	-2216	-15	-21	-14	-15864	1232	-2968	0	7	28	-8416	608	14536	147	17	-127	-16592	96	-2464	16	-36	21	-16112	-872	-2376	-16	9	-14	126	124	8
-7972	-2092	13740	-14	19	-21	-16032	2032	-2024	-5	-20	-14	-15792	1240	-3120	27	-2	28	-8376	648	14320	135	56	-126	-16480	232	-2448	-9	-30	21	-16144	-1232	-2168	-14	10	-20	125	123	8
-7880	-2064	13740	-10	17	-21	-16032	1992	-2128	2	-17	-16	-16048	1296	-3264	43	-3	31	-8608	776	14200	65	88	-145	-16504	232	-2344	-13	-22	23	-16248	-1032	-2232	-6	23	-17	125	124	8
-7988	-2104	13764	-9	22	-20	-16200	2032	-2360	3	-14	-7	-16112	1384	-2840	49	4	25	-8584	744	14648	46	66	-148	-16336	384	-2288	-40	-18	23	-16104	-976	-2064	-18	32	-2	125	124	8
-7912	-2052	13796	-12	25	-14	-15984	2000	-2200	21	-13	-8	-15968	1328	-3152	73	5	28	-8592	736	14288	-2	-13	-203	-16232	184	-2464	-48	-2	27	-15840	-936	-2144	-25	22	12	126	124	8
-7976	-2044	13708	-4	22	-17	-15848	2024	-2224	3	-3	-6	-15824	1280	-3112	59	-3	40	-8576	616	14408	-13	-95	-213	-15976	136	-2488	-40	16	20	-15784	-816	-2296	-8	5	18	126	124	8
-7956	-2036	13712	-6	21	-14	-15784	2280	-1944	1	-3	-9	-15752	1384	-3168	51	-21	65	-8424	520	14552	66	-159	-190	-16304	152	-2328	-36	25	25	-15784	-1232	-2264	2	-13	10	126	124	8
-8032	-2080	13828	-11	24	-18	-15920	1944	-2400	15	10	-8	-15832	1624	-3208	3	-36	35	-8304	568	14456	124	-127	-170	-16648	32	-2672	-45	23	31	-15928	-1432	-2112	29	2	-6	126	124	8
-8024	-2020	13728	-6	16	-12	-15784	2080	-2184	32	7	0	-15800	1728	-3392	-11	-33	26	-8440	552	14592	147	-28	-181	-16592	152	-2528	-25	26	27	-16048	-1136	-2464	29	24	3	126	124	8
-8008	-2076	13772	-8	20	-18	-15920	2032	-2328	30	12	10	-15960	1680	-3160	-31	-30	16	-8448	712	14408	160	12	-140	-16672	-8	-2584	-20	23	32	-16224	-1032	-2744	11	42	1	126	124	8
-8032	-2060	13700	-11	17	-19	-16064	2080	-2376	-7	5	7	-15800	1328	-3408	-65	-12	6	-8512	464	14400	151	54	-116	-16544	352	-2680	-27	18	28	-16096	-880	-3000	-7	51	-3	126	124	8
-8020	-2092	13752	-8	14	-19	-15952	1992	-2328	-30	4	7	-15856	1240	-3272	-65	4	6	-8328	720	14664	149	76	-88	-16488	344	-2432	-32	13	35	-15912	-704	-2688	-28	39	-8	126	124	8
-7932	-2000	13740	-6	13	-13	-16032	2080	-2360	-31	4	6	-15864	1104	-3248	-61	19	15	-8376	776	14392	57	64	-148	-16528	232	-2640	-18	15	34	-16224	-792	-2808	-34	37	-2	126	124	8
-7928	-2116	13832	-7	18	-15	-16216	2008	-2360	-2	1	6	-15992	1232	-3216	-53	29	16	-8384	744	14328	27	66	-204	-16552	368	-2392	-28	10	31	-16128	-1032	-2424	-25	41	4	126	124	8
-7960	-2012	13740	-3	20	-16	-16056	2008	-2304	7	0	6	-16008	1160	-3024	-43	25	29	-8552	568	14632	21	116	-224	-16512	256	-2568	-14	16	22	-15888	-1184	-2624	-10	38	4	126	124	8
-8008	-2068	13796	-9	24	-8	-16008	2256	-2208	10	6	13	-16080	1600	-3208	-34	16	48	-8528	560	14608	98	103	-208	-16376	176	-2688	7	24	25	-16008	-1168	-2912	26	33	-3	126	124	8
-8004	-2020	13676	-2	25	-8	-15984	2096	-2416	2	11	8	-16096	1568	-2896	-11	16	52	-8456	544	14560	107	63	-167	-16504	288	-2464	24	18	23	-15800	-1032	-2696	47	25	-7	127	124	8
-7952	-2044	13752	-6	23	-8	-15832	2096	-2176	-4	20	3	-16032	1512	-3008	14	11	45	-8520	656	14456	85	1	-176	-16416	488	-2424	13	19	29	-15984	-968	-2744	37	41	-1	127	124	8
-8008	-2012	13684	-8	21	-15	-15888	2064	-2192	19	29	10	-15992	1360	-2928	33	13	39	-8592	592	14408	109	-52	-173	-16440	352	-2904	-8	21	24	-15880	-1104	-2824	19	29	18	127	124	8
-8016	-1996	13708	-6	19	-13	-15928	2264	-2320	34	30	11	-15896	1448	-3552	39	18	32	-8472	464	14400	72	-37	-144	-16280	72	-2536	-7	17	18	-15888	-1048	-2840	31	23	22	127	125	8
-7984	-1996	13828	-7	20	-18	-15824	2248	-2440	36	31	13	-15856	1608	-3696	51	7	34	-8504	536	14408	78	-98	-151	-16456	280	-2512	23	22	24	-15840	-1160	-2552	56	18	10	127	124	8
-7948	-2024	13804	-10	15	-22	-15904	2224	-2552	26	29	5	-15704	1640	-3440	44	0	36	-8424	568	14568	78	-76	-174	-16648	264	-2640	24	16	25	-15888	-1072	-2848	58	16	13	127	124	8
-8052	-2052	13708	-1	13	-18	-15984	2160	-2456	21	31	6	-15856	1784	-3816	26	-1	36	-8512	408	14672	83	-83	-135	-16472	256	-2480	12	14	19	-16272	-1040	-2592	26	19	13	127	125	8
-7956	-2072	13792	-15	16	-21	-16224	2224	-2768	7	18	5	-16120	1752	-3656	19	10	24	-8424	552	14552	137	22	-104	-16600	168	-2840	24	19	17	-16088	-584	-2496	-26	14	0	127	124	8
-7988	-1976	13728	-10	17	-21	-15848	2248	-2432	-12	12	-4	-15800	1560	-3360	34	20	20	-8496	552	14504	143	35	-88	-16376	272	-2632	12	15	19	-16096	-552	-2792	-51	21	-14	127	124	8
-7972	-2036	13752	-15	18	-17	-15824	2136	-2272	-29	15	-2	-15776	1200	-3520	26	14	29	-8448	568	14384	159	-39	-68	-16480	368	-2536	6	23	20	-15808	-688	-2752	-63	3	-13	127	124	8
-7924	-1984	13732	-17	11	-26	-15712	2176	-2336	-4	18	-2	-15648	1408	-3312	-2	5	29	-8424	576	14384	122	-46	-117	-16416	416	-2504	-4	21	14	-15904	-1208	-2920	-22	-29	-3	127	124	8
-8012	-1976	13632	-13	12	-20	-16080	2056	-2640	36	11	-2	-15976	1552	-3680	-2	-8	31	-8496	704	14400	190	-3	-143	-16640	240	-2872	15	21	8	-15736	-2096	-3376	56	-21	7	127	125	8
-7956	-1960	13744	-16	12	-27	-16008	2288	-2408	30	13	-2	-15696	1808	-3984	11	-16	27	-8480	672	14344	173	10	-175	-16872	168	-3088	48	-5	18	-15904	-2128	-3632	134	-15	12	127	125	8
-8084	-2044	13736	-16	22	-18	-16120	2176	-2872	21	0	-4	-15904	1944	-3928	2	-29	20	-8544	480	14328	167	60	-153	-16624	88	-3032	34	-23	20	-15824	-2048	-3520	142	0	42	127	124	8
-7980	-2028	13768	-20	24	-18	-15888	2360	-2944	-7	-7	-10	-15640	1848	-4224	-35	-50	19	-8544	520	14704	213	20	-82	-16496	32	-2944	34	-51	11	-15640	-1616	-3600	141	-2	54	127	124	8
-7956	-2020	13832	-20	27	-24	-16000	2184	-2656	-28	-21	-4	-15544	1504	-4472	-46	-45	23	-8552	568	14496	258	81	-53	-16448	216	-2984	70	-65	22	-15704	-1400	-3432	144	-6	49	126	124	8
-8040	-2016	13908	-20	20	-22	-16056	2288	-2896	-32	-43	-17	-15600	1256	-4344	-22	-31	15	-8520	640	14592	259	45	-64	-16648	344	-3064	81	-80	23	-16000	-640	-3072	92	-9	23	126	124	8
-8052	-2000	13860	-15	20	-30	-15992	2136	-2816	-27	-56	-17	-15536	1192	-3888	18	-12	23	-8456	632	14448	226	21	-48	-16440	416	-2656	75	-82	23	-16096	-448	-2344	45	-14	20	126	124	8
-7996	-2056	13636	-21	10	-28	-15864	2248	-2728	-25	-68	-16	-15560	1272	-3744	50	1	36	-8472	800	14512	230	12	-61	-16328	312	-2392	81	-71	21	-16016	-360	-2392	19	-29	-5	125	123	8
-8024	-2012	13748	-20	7	-27	-16080	2352	-2648	-30	-80	-23	-15816	1296	-3816	61	9	52	-8520	616	14504	210	51	-117	-16392	424	-2128	54	-71	25	-16088	-384	-2112	-14	-42	-17	125	123	8
-8008	-1992	13676	-20	10	-35	-16000	2288	-2328	-22	-86	-27	-15976	1144	-3200	88	17	61	-8400	440	14528	169	30	-84	-16368	320	-2280	16	-56	22	-16264	-672	-2104	-51	-53	-11	125	123	8
-8048	-2052	13724	-17	10	-35	-15832	2152	-2400	-22	-73	-29	-15872	1248	-2952	128	15	64	-8464	456	14600	152	-60	-93	-16352	200	-2344	3	-35	19	-16232	-896	-1976	-37	-49	-5	125	123	8
-8000	-2072	13740	-18	8	-34	-15936	1944	-2048	-4	-63	-21	-15904	1408	-2840	141	6	64	-8496	592	14376	127	-34	-119	-16520	352	-2248	-6	-25	25	-16144	-1224	-1992	1	-36	4	125	123	8
-8044	-2024	13724	-15	12	-32	-15936	2048	-2080	32	-44	-22	-16320	1560	-2600	126	-5	53	-8544	616	14568	173	8	-105	-16408	128	-2752	-17	-13	18	-16144	-1168	-2464	44	-14	21	125	123	8
-7956	-2080	13760	-10	8	-28	-16144	2160	-2096	37	-33	-19	-16240	1840	-2720	106	-22	35	-8336	624	14480	117	26	-145	-16520	192	-2128	-1	-9	10	-16040	-1128	-2360	90	-2	29	125	123	8
-7948	-2088	13736	-9	14	-17	-16088	2120	-1952	16	-15	-12	-16040	1928	-2616	47	-35	21	-8512	592	14424	165	60	-168	-16448	224	-2424	25	-2	12	-16032	-1120	-2376	102	-1	31	126	124	8
-7936	-1992	13732	-12	15	-18	-16040	2104	-2496	12	-4	-8	-16088	1936	-3152	-30	-36	9	-8496	688	14424	158	-8	-135	-16480	408	-2624	29	-15	11	-16016	-752	-2576	107	10	24	125	124	8
-8028	-2056	13780	-12	16	-17	-15984	2224	-2424	7	0	-11	-15864	1736	-2992	-96	-25	6	-8520	688	14296	166	-4	-161	-16440	360	-2344	20	-13	13	-16008	-736	-2656	92	-1	15	126	124	8
-7984	-2016	13776	-11	19	-14	-16008	2104	-2256	5	5	-12	-15912	1816	-3328	-113	-22	-4	-8560	600	14528	144	34	-147	-16488	264	-2472	23	-12	6	-16008	-784	-2416	66	-10	8	126	124	8
-8024	-2024	13728	-10	15	-20	-15888	2056	-2448	15	3	-7	-15816	1736	-3272	-93	-20	-8	-8496	704	14512	129	-6	-144	-16352	256	-2440	38	-15	20	-15944	-648	-2648	48	-10	-5	126	124	8
-8044	-2028	13636	-11	16	-15	-15944	2240	-2432	14	7	-11	-15776	1600	-3384	-71	-21	-8	-8464	600	14576	75	1	-181	-16520	312	-2640	13	-18	23	-16032	-736	-2704	14	-4	-13	126	124	8
-8016	-2040	13668	-9	12	-23	-15904	2248	-2064	-2	10	-13	-15648	1496	-3424	-66	-19	-6	-8464	544	14384	80	-17	-164	-16544	320	-2568	-10	-21	14	-15944	-656	-2712	-29	-7	-18	126	124	8
-7964	-1996	13744	-12	14	-18	-16056	2176	-2472	2	1	-12	-15776	1216	-3536	-35	-22	2	-8608	728	14608	30	-36	-189	-16480	264	-2384	-19	-13	14	-15840	-888	-2848	-50	-3	-20	126	124	8
-7996	-2064	13848	-8	14	-25	-15808	2264	-2320	8	-1	-11	-15768	1216	-3792	7	-15	14	-8472	616	14552	-116	-116	-184	-16416	568	-2464	-73	-20	17	-15976	-992	-2528	-49	2	-22	126	124	8
-8012	-2004	13820	-17	16	-21	-15944	2176	-2400	12	-6	-12	-15768	1144	-3664	56	-14	23	-8512	624	14552	-123	-178	-264	-16496	392	-2296	-90	-10	7	-16016	-968	-2328	-63	4	2	126	124	8
-7936	-2044	13784	-3	19	-21	-15960	2112	-2560	7	-12	-15	-15928	1208	-3632	73	-13	27	-8384	632	14504	-84	-162	-225	-16456	32	-2448	-90	-7	6	-16040	-1160	-2272	-52	7	18	126	125	8
-8008	-1972	13736	2	9	-23	-15928	2088	-2552	0	-9	-17	-15848	1568	-3624	66	-22	30	-8488	488	14488	-38	-165	-187	-16456	0	-2440	-55	-1	11	-15944	-1376	-2408	-9	-4	7	126	124	8
-7928	-1972	13744	11	3	-24	-15808	2040	-2520	5	-6	-13	-15888	1760	-3224	55	-27	28	-8480	680	14376	27	-168	-181	-16384	96	-2576	-17	8	11	-16064	-1072	-2296	21	-14	-1	126	124	8
-8016	-2064	13764	-3	5	-20	-15824	1968	-2456	-3	-9	-18	-15928	1904	-3080	23	-37	18	-8256	552	14648	74	-113	-144	-16416	240	-2440	-3	9	17	-16208	-1072	-2712	31	-1	12	126	124	8
-7956	-2060	13824	-1	9	-27	-16024	1968	-2456	10	-6	-8	-15864	1968	-3072	-12	-42	11	-8528	736	14536	102	-85	-142	-16520	192	-2576	-11	-3	17	-16072	-1112	-2632	39	-1	14	126	124	8
-8020	-2088	13828	-7	10	-25	-16064	1968	-2432	-3	-5	-15	-16016	1784	-3544	-55	-48	-1	-8544	440	14688	80	-66	-122	-16576	264	-2368	1	5	12	-16016	-1120	-2672	35	-17	5	126	124	8
-8020	-1948	13672	-15	16	-27	-16104	2064	-2384	-21	-6	-10	-15896	1736	-3560	-76	-58	-9	-8504	624	14728	200	45	-66	-16472	160	-2368	36	3	15	-15888	-1224	-2576	40	-20	0	126	124	8
-7968	-2020	13720	-18	17	-21	-15928	2056	-2304	-31	-9	-14	-15744	1504	-3544	-87	-61	-10	-8536	536	14456	228	20	-94	-16472	256	-2584	52	-2	24	-16096	-984	-2608	23	-25	-1	126	124	8
-7984	-2032	13860	-20	17	-26	-15888	2104	-2480	-39	-12	-9	-15584	1296	-3400	-91	-64	-8	-8600	544	14568	192	50	-32	-16424	232	-2432	56	-2	19	-15944	-1016	-2392	0	-25	-2	126	124	8
-8020	-1948	13752	-25	15	-26	-15848	2064	-2344	-26	-17	-12	-15704	1288	-3736	-78	-55	-6	-8496	624	14560	285	57	-33	-16456	256	-2416	55	-5	18	-16000	-864	-2640	3	-28	-9	126	124	8
-7912	-1964	13764	-31	12	-26	-16040	2240	-2344	-24	-20	-17	-15824	1304	-3640	-41	-46	-5	-8504	488	14472	278	40	-46	-16472	264	-2576	39	-8	21	-16032	-1056	-2472	-4	-29	-9	126	124	8
-7988	-2104	13808	-31	16	-27	-15976	2208	-2520	-21	-24	-16	-15784	1280	-3416	0	-38	13	-8520	472	14384	292	19	-18	-16584	256	-2408	44	-9	15	-15896	-1152	-2448	-4	-30	-12	126	124	8
-8064	-1988	13668	-31	11	-30	-15840	2240	-2264	-21	-28	-12	-15896	1128	-3320	25	-36	23	-8288	768	14632	205	25	-64	-16400	352	-2344	38	-8	18	-15952	-1112	-2584	-1	-26	-8	126	124	8
-8024	-2016	13812	-34	16	-31	-15976	2120	-2344	-7	-24	-10	-15864	1080	-3056	41	-36	29	-8392	656	14672	217	-57	-96	-16376	344	-2424	26	-6	18	-15936	-1032	-2344	11	-28	6	126	125	8
-7992	-2028	13780	-26	10	-32	-16040	1976	-2448	-3	-29	-11	-15968	1392	-3168	45	-34	26	-8512	640	14584	200	-84	-56	-16416	368	-2496	20	-4	17	-16168	-1184	-2560	27	-22	8	126	124	8
-7972	-2048	13728	-23	10	-29	-15912	2128	-2120	-2	-20	-7	-15944	1408	-2992	37	-39	25	-8344	616	14808	168	-27	-77	-16624	8	-2592	19	-3	17	-16120	-1168	-2216	31	-22	11	126	124	8
-7928	-2056	13824	-19	11	-28	-15936	2024	-2200	-5	-11	-11	-15952	1648	-2992	24	-38	17	-8464	640	14528	154	-82	-85	-16472	288	-2424	24	-4	19	-16120	-1072	-2320	37	-20	12	126	124	8
-7956	-2036	13820	-17	8	-30	-16176	2168	-2096	2	-9	-4	-16080	1544	-2904	9	-43	14	-8472	600	14680	126	-39	-131	-16472	152	-2568	21	3	22	-16168	-784	-2448	32	-19	14	126	125	8
-7988	-2044	13724	-17	12	-23	-16024	2000	-2304	-2	-11	-4	-15984	1712	-2896	-17	-43	7	-8424	504	14456	150	-81	-92	-16312	208	-2784	10	-3	23	-16104	-816	-2352	13	-20	9	126	125	8
-7948	-2088	13784	-18	14	-26	-16080	2064	-2080	-7	-4	-4	-15904	1432	-3112	-31	-47	5	-8608	576	14560	106	-6	-92	-16464	208	-2408	7	-5	22	-16136	-864	-2656	8	-25	5	126	125	8
-7952	-2028	13732	-16	12	-20	-16048	1928	-2184	-3	-4	1	-15856	1360	-3048	-54	-53	6	-8592	624	14576	106	-65	-98	-16408	264	-2504	-4	3	24	-15944	-936	-2576	-3	-25	2	126	125	8
-7972	-2068	13752	-21	14	-25	-15968	2112	-2200	-18	5	-5	-15944	1416	-3200	-65	-63	5	-8384	448	14440	115	-66	-95	-16472	376	-2712	-14	2	21	-15992	-1152	-2648	-3	-22	10	126	125	8
-7972	-2072	13704	-18	7	-18	-16008	1968	-2280	-13	-1	3	-15888	1256	-3160	-61	-68	7	-8408	568	14688	132	-89	-117	-16472	112	-2544	-17	4	19	-16016	-1056	-2448	6	-23	16	126	124	8
-7944	-2052	13728	-15	10	-20	-15848	1968	-2376	-10	5	8	-15936	1400	-3096	-46	-65	9	-8464	544	14408	115	-69	-110	-16368	104	-2568	-6	0	20	-15896	-1112	-2440	4	-23	16	126	125	8
-7952	-2044	13760	-9	10	-24	-15984	2104	-2136	-3	-2	5	-15912	1304	-3288	-35	-66	7	-8240	448	14504	132	-126	-127	-16440	272	-2600	-1	0	25	-15984	-1032	-2536	10	-26	16	126	125	8
-8020	-2056	13836	-11	10	-23	-15952	2224	-2080	-7	3	0	-15928	1400	-3432	-13	-64	12	-8472	512	14472	118	-92	-92	-16456	168	-2496	-2	-2	25	-15912	-944	-2632	8	-24	20	126	125	8
-7956	-2028	13720	-5	11	-24	-16096	2216	-2224	-4	-2	6	-15992	1312	-3360	3	-64	19	-8528	520	14576	108	-132	-96	-16448	200	-2520	-6	-13	20	-15872	-1064	-2704	-4	-26	21	126	124	8
-7964	-2108	13772	-15	9	-25	-16056	1928	-2432	6	-9	2	-15888	1400	-3248	11	-60	22	-8336	648	14512	117	-73	-100	-16400	8	-2448	-5	-13	24	-15784	-896	-2640	-14	-30	18	126	125	8
-8008	-2072	13788	-15	12	-20	-16088	2224	-2432	5	-17	-1	-15912	1400	-3328	7	-50	29	-8456	728	14640	155	-79	-53	-16536	336	-2512	-17	-20	28	-16032	-960	-2640	-20	-23	16	126	125	8
-7936	-2048	13816	-13	13	-20	-15936	2256	-2288	0	-19	-6	-15864	1504	-3288	7	-49	28	-8496	624	14392	115	-89	-55	-16552	320	-2464	-38	-16	25	-15976	-1056	-2552	-26	-26	24	126	125	8
-8008	-2056	13696	-12	14	-29	-15952	2088	-2512	-5	-27	-5	-15720	1480	-3360	4	-42	29	-8344	648	14648	144	-86	-85	-16584	176	-2560	-30	-16	26	-16016	-984	-2592	-6	-22	24	126	125	8
-8036	-2076	13824	-17	10	-27	-15936	2248	-2344	-8	-23	0	-15808	1472	-3000	-1	-39	22	-8416	616	14936	156	-54	-96	-16472	184	-2288	0	-20	26	-15952	-952	-2440	16	-26	22	127	124	8
-7956	-2008	13700	-16	6	-30	-16048	2128	-2336	-1	-33	-1	-15808	1496	-3352	-1	-37	22	-8360	576	14480	145	-85	-109	-16552	376	-2536	7	-18	27	-15896	-872	-2472	27	-22	29	127	124	8
-7980	-2084	13860	-14	9	-25	-16048	2168	-2144	-5	-29	-8	-15960	1488	-3088	-3	-42	19	-8344	616	14496	152	-133	-109	-16536	344	-2672	-3	-22	28	-15952	-888	-2392	13	-28	28	126	125	8
-7948	-2112	13784	-18	10	-22	-15952	2184	-2352	-9	-29	-6	-15824	1336	-3008	-4	-44	19	-8440	560	14560	136	-95	-80	-16496	312	-2600	-9	-28	25	-15824	-1064	-2464	21	-28	25	126	124	8
-7932	-2012	13744	-15	8	-30	-16000	2200	-2328	-13	-27	-8	-15800	1376	-2968	-10	-46	29	-8424	832	14552	131	-27	-51	-16496	360	-2512	-10	-29	28	-16080	-920	-2232	32	-32	19	126	124	8
-7984	-2028	13728	-11	11	-25	-16096	2080	-2352	1	-27	-7	-15976	1384	-3160	-10	-43	25	-8360	608	14560	156	-55	-95	-16496	160	-2080	9	-30	23	-16040	-1016	-2296	34	-19	21	126	124	8
-7952	-2056	13772	-17	9	-27	-16096	2112	-2176	5	-33	-4	-15952	1416	-2904	10	-33	23	-8376	760	14392	133	-8	-152	-16496	216	-2464	14	-32	30	-16072	-768	-2288	39	-12	20	126	124	8
-7984	-2064	13772	-16	9	-26	-15952	2208	-2168	-1	-25	-1	-15896	1480	-3104	25	-29	29	-8400	664	14544	155	-11	-120	-16416	256	-2432	29	-33	24	-15880	-864	-2464	37	-11	24	126	124	8
-7892	-2060	13720	-12	10	-28	-16080	2088	-2152	-2	-27	-6	-15936	1520	-2936	5	-31	35	-8528	576	14304	137	30	-87	-16520	264	-2592	17	-33	28	-16144	-872	-2424	49	-11	20	126	124	8
-7880	-2052	13784	-12	11	-25	-16192	2136	-2176	4	-28	-2	-16120	1408	-3024	-1	-27	30	-8336	640	14552	153	20	-108	-16624	232	-2464	11	-36	22	-16232	-856	-2320	41	-11	16	127	124	8
-7968	-2096	13744	-12	16	-21	-16144	2192	-2408	3	-31	-3	-15968	1488	-2752	20	-17	29	-8488	640	14408	173	48	-121	-16480	280	-2472	21	-29	25	-16072	-928	-2184	43	-10	20	127	124	8
-7880	-2016	13744	-14	19	-22	-16024	2304	-2176	-3	-27	-3	-15872	1448	-2752	32	-11	33	-8520	480	14640	157	57	-102	-16400	352	-2544	29	-30	27	-15952	-936	-2176	52	-4	17	126	124	8
-7924	-2032	13848	-16	18	-20	-16032	2104	-2112	-12	-27	-1	-15920	1312	-2744	22	-6	30	-8384	688	14448	161	26	-145	-16528	288	-2136	32	-24	18	-15928	-832	-2280	59	-6	18	126	124	8
-7916	-2124	13740	-12	14	-26	-15888	2112	-2048	-9	-28	-2	-16000	1192	-2672	12	-9	33	-8472	512	14616	162	36	-107	-16344	312	-2464	36	-24	24	-16064	-616	-2040	55	-7	16	126	124	8
-7964	-2132	13788	-14	13	-24	-15864	2048	-2112	-1	-20	5	-16056	1280	-2824	14	-12	33	-8336	656	14576	126	-11	-144	-16528	360	-2328	25	-14	22	-16232	-800	-1944	46	-1	13	126	124	8
-7880	-2080	13672	-10	12	-26	-16008	2032	-2016	4	-13	3	-16112	1376	-2520	24	-9	36	-8352	648	14448	146	73	-144	-16416	184	-2304	30	-10	27	-16136	-784	-1920	40	0	7	126	124	8
-7948	-2084	13796	-14	11	-22	-16048	2192	-1920	-1	-3	-2	-16048	1504	-2600	30	-16	35	-8472	616	14504	157	-9	-151	-16496	256	-2320	32	-2	29	-16128	-736	-2248	45	7	8	127	124	8
-7908	-2072	13708	-9	14	-21	-15880	2096	-1920	2	1	1	-16032	1424	-2592	21	-19	37	-8448	592	14632	109	-22	-161	-16576	280	-2160	29	6	28	-16072	-648	-2040	41	13	11	127	124	8
-8032	-2088	13868	-12	13	-19	-15832	2184	-2096	2	8	4	-16016	1536	-2552	13	-16	35	-8480	776	14616	103	11	-157	-16496	256	-2312	12	9	28	-16032	-712	-2072	29	21	7	127	124	8
-7900	-2076	13752	-11	11	-27	-15984	2104	-2112	7	10	3	-15936	1592	-3048	6	-12	32	-8312	656	14736	109	14	-150	-16464	224	-2336	11	10	27	-16104	-728	-2128	21	18	5	127	124	8
-8004	-2048	13676	-9	15	-18	-16096	2120	-2120	10	17	4	-15976	1512	-2840	2	-6	26	-8408	640	14456	86	-19	-132	-16384	408	-2248	1	20	23	-16112	-784	-2160	15	17	8	127	124	8
-8000	-2096	13812	-13	18	-20	-16008	2080	-2040	21	23	10	-16040	1480	-2896	-11	-11	25	-8552	712	14720	140	-52	-115	-16544	352	-2504	-3	24	27	-15992	-864	-2352	4	16	8	127	124	8
-7952	-2104	13768	-11	18	-14	-16056	2288	-2032	8	16	7	-16000	1536	-3024	-17	-13	17	-8328	616	14536	189	27	-150	-16440	416	-2320	-16	24	25	-16160	-808	-2576	-1	13	8	127	124	8
-7956	-2072	13748	-8	20	-19	-15928	2248	-2032	-2	24	4	-15864	1680	-2896	-22	-13	19	-8408	800	14336	250	43	-120	-16448	456	-2544	-20	24	20	-16112	-784	-2400	7	12	9	127	125	8
-7948	-2068	13740	-9	19	-19	-16064	2096	-2216	2	21	7	-16032	1568	-2928	-27	-16	17	-8456	672	14480	326	102	-115	-16512	264	-2296	-5	25	26	-16192	-840	-2376	7	20	4	127	125	8
-8000	-2080	13764	-6	21	-16	-16000	2216	-2072	-1	22	7	-15872	1368	-3264	-22	-18	18	-8424	648	14448	314	60	-83	-16584	344	-2664	11	31	26	-16024	-824	-2472	19	15	6	127	125	8
-7964	-2096	13624	-9	19	-16	-15904	2120	-2200	3	20	3	-15888	1496	-3184	-21	-21	16	-8504	504	14392	245	-10	-114	-16504	480	-2520	0	24	22	-16032	-808	-2240	21	9	3	127	124	8
-7940	-2072	13804	-7	21	-17	-16048	2104	-2456	2	21	4	-15864	1480	-3104	-13	-18	20	-8392	584	14472	144	-44	-106	-16368	272	-2528	-10	26	18	-16024	-728	-2384	9	4	7	127	125	8
-7980	-2000	13784	-13	22	-13	-15848	2192	-2272	-1	15	-1	-16000	1496	-3200	-7	-21	23	-8472	560	14312	129	-51	-130	-16504	272	-2472	0	22	21	-16048	-824	-2240	17	-3	2	127	124	8
-7968	-2028	13716	-9	20	-16	-15896	2184	-2216	3	17	2	-15888	1464	-3008	1	-23	22	-8272	672	14384	149	-39	-101	-16520	448	-2576	3	21	27	-16040	-824	-2744	30	0	6	127	124	8
-8000	-2012	13832	-8	20	-20	-15896	2176	-2352	12	17	-2	-15976	1688	-3072	5	-20	22	-8352	720	14488	62	-64	-181	-16584	288	-2560	2	18	21	-15952	-968	-2624	27	0	13	128	124	8
-7984	-2092	13764	-12	23	-18	-16000	2312	-2376	9	13	-2	-15848	1688	-2976	2	-18	21	-8336	584	14432	39	-71	-168	-16536	368	-2824	0	10	20	-16024	-864	-2640	19	7	9	128	124	8
-7924	-2072	13804	-12	20	-21	-16072	2416	-2328	9	8	-2	-15888	1728	-3008	3	-20	24	-8456	712	14552	33	-41	-182	-16472	376	-2608	-5	4	21	-15952	-928	-2864	19	1	7	127	124	8
-8020	-2032	13724	-9	14	-24	-15856	2192	-2360	1	10	-6	-15808	1648	-3264	-6	-23	22	-8408	544	14528	-1	-75	-144	-16504	376	-2720	-11	8	18	-15752	-1128	-2728	9	-4	8	128	124	8
-7988	-2064	13808	-13	12	-22	-15984	2224	-2280	-1	4	-4	-15824	1592	-3384	-14	-23	22	-8336	616	14504	86	-27	-138	-16496	416	-2704	3	-3	18	-15968	-904	-2616	17	2	5	127	124	8
-8012	-2044	13748	-13	12	-21	-15992	2192	-2176	-4	-3	-4	-15824	1536	-3400	-10	-21	17	-8384	736	14720	118	-56	-100	-16536	344	-2664	12	-3	18	-15960	-840	-2680	14	5	3	127	124	8
-7960	-2048	13792	-11	16	-25	-15944	2176	-2336	-1	-11	-8	-15776	1472	-3288	-11	-18	16	-8424	688	14576	72	-24	-175	-16384	496	-2536	6	-13	16	-15896	-816	-2496	15	-1	4	128	124	8
-7892	-2028	13772	-14	13	-23	-16048	2328	-2336	-4	-15	-9	-15936	1456	-3416	-15	-20	21	-8512	616	14504	110	-14	-146	-16520	336	-2624	8	-14	20	-16008	-896	-2408	1	-1	-1	127	124	8
-7944	-2100	13768	-21	16	-24	-16024	2176	-2320	-10	-19	-3	-15768	1544	-3208	-1	-16	22	-8232	712	14408	123	3	-109	-16400	312	-2520	16	-15	19	-16080	-704	-2704	-3	0	-4	127	124	8
-7948	-2032	13828	-14	11	-24	-15904	2112	-2280	-20	-20	-15	-15936	1424	-3040	6	-9	23	-8448	584	14640	161	-5	-106	-16424	408	-2464	13	-19	19	-15944	-744	-2344	2	-2	-8	127	124	8
-7984	-2068	13792	-14	15	-26	-15888	2440	-2344	-11	-21	-9	-15896	1464	-3096	6	-13	20	-8312	592	14608	183	26	-150	-16416	384	-2480	3	-17	19	-16136	-768	-2584	3	2	-4	127	124	8
-7940	-2036	13716	-17	12	-24	-15968	2176	-2120	-9	-18	-9	-15848	1352	-3080	7	-12	21	-8392	776	14336	149	24	-122	-16560	432	-2472	4	-12	17	-16024	-792	-2176	-1	4	0	127	124	8
-7952	-2004	13768	-18	14	-24	-15912	2024	-2024	-11	-21	-13	-16016	1472	-2960	17	-11	16	-8424	808	14496	172	23	-149	-16392	280	-2440	3	-7	18	-16168	-896	-2240	1	1	-2	127	124	8
-7936	-2080	13780	-13	11	-28	-16024	2008	-2288	0	-14	-14	-15960	1480	-2840	19	-16	18	-8424	672	14504	176	-3	-137	-16384	176	-2096	3	-2	18	-16120	-704	-1928	14	-3	1	127	124	8
-8008	-2088	13836	-14	13	-24	-16104	2360	-1832	-1	-13	-11	-15992	1608	-2784	-3	-19	13	-8288	736	14664	239	30	-112	-16416	680	-2416	-3	-1	18	-16080	-880	-2304	12	-4	-1	127	124	8
-7956	-2076	13772	-15	15	-21	-15992	2240	-2048	-7	-4	-12	-15976	1560	-2456	-10	-24	13	-8360	624	14592	332	41	-102	-16560	312	-2704	-14	-3	18	-16008	-856	-2456	4	-3	5	127	124	8
-7920	-2108	13824	-16	15	-22	-15888	2248	-2272	-6	-3	-11	-16024	1640	-2904	-17	-21	16	-8416	632	14448	319	-5	-99	-16536	360	-2400	-12	4	14	-16032	-744	-2536	9	-4	5	127	124	8
-7956	-2104	13848	-16	15	-25	-15968	2048	-2056	-3	-5	-10	-15960	1304	-2584	-25	-22	8	-8384	760	14496	234	-25	-144	-16472	264	-2568	-2	-2	11	-16080	-896	-2376	6	-2	2	127	124	8
-7944	-2064	13764	-16	15	-24	-15960	2120	-2288	0	-4	-8	-15976	1408	-2976	-22	-21	7	-8424	568	14384	197	-42	-120	-16416	384	-2640	-5	5	11	-16192	-832	-2320	15	2	2	127	124	8
-7976	-2120	13740	-12	19	-21	-16056	2224	-2000	-6	-6	-8	-15936	1512	-2768	-24	-24	9	-8480	664	14600	128	-48	-163	-16472	312	-2536	-3	-2	11	-16016	-1000	-2592	17	3	3	127	124	8
-7996	-2040	13824	-15	15	-22	-16040	2152	-2416	-1	-2	-3	-15856	1408	-3128	-21	-18	16	-8464	648	14616	80	-98	-134	-16464	280	-2536	9	-3	11	-16120	-952	-2512	16	-4	1	127	124	8
-7972	-2044	13784	-13	17	-23	-16088	2256	-2360	-5	-3	-13	-15864	1344	-2808	-9	-13	17	-8424	616	14496	3	-17	-133	-16368	256	-2408	14	-10	19	-15832	-936	-2400	24	-1	-4	127	124	8
-7916	-2180	13820	-16	12	-25	-15928	2328	-2176	-5	0	-8	-15904	1384	-3096	-1	-14	17	-8328	664	14520	3	8	-155	-16464	288	-2568	9	-14	20	-16080	-808	-2352	30	3	0	127	123	8
-7976	-2028	13808	-12	15	-22	-16064	2192	-2360	3	-3	-11	-15888	1352	-3184	3	-9	20	-8376	728	14472	-87	-51	-137	-16400	464	-2288	8	-13	20	-15968	-952	-2360	20	5	2	127	123	8
-7980	-2092	13704	-11	13	-25	-16064	2184	-2120	10	-8	-12	-16072	1488	-2976	16	-10	24	-8344	680	14592	-103	-47	-155	-16576	192	-2568	15	-12	12	-15992	-776	-2392	24	7	0	127	123	8
-7916	-2088	13700	-13	12	-24	-15848	2208	-2336	13	-9	-11	-15968	1664	-3120	23	-4	22	-8448	496	14720	-71	25	-174	-16544	456	-2640	21	-8	16	-16112	-864	-2408	25	6	-5	127	123	8
-7932	-2060	13780	-14	17	-25	-15960	2120	-2256	13	-10	-7	-15896	1472	-3064	16	-2	21	-8376	720	14736	13	-36	-142	-16576	424	-2416	11	-14	15	-16088	-824	-2296	18	5	-2	127	123	8
-7940	-2060	13852	-20	17	-19	-15968	2232	-2216	-5	-6	-11	-15928	1416	-3136	16	-5	26	-8328	600	14520	45	32	-121	-16504	304	-2320	-5	-16	13	-16120	-888	-2384	18	7	1	127	124	8
-7996	-2084	13672	-18	14	-21	-16056	2232	-2168	-5	-12	-13	-15944	1400	-2896	7	-4	22	-8504	448	14408	77	-22	-159	-16568	280	-2304	-9	-14	13	-16048	-952	-2608	17	11	-3	127	124	8
-8044	-2092	13672	-19	16	-19	-15928	1984	-2208	-3	-9	-6	-16032	1600	-3064	2	-2	22	-8496	712	14640	71	73	-139	-16440	240	-2656	1	-12	16	-15976	-800	-2456	21	16	0	127	124	8
-7964	-2100	13896	-17	14	-20	-15944	2200	-2032	-8	-9	-9	-16088	1328	-2960	7	0	19	-8368	688	14504	118	97	-148	-16480	312	-2480	10	-13	20	-16000	-920	-2336	26	22	-1	127	124	8
-7972	-2104	13704	-18	16	-21	-15880	2072	-2104	-4	-8	-5	-15872	1416	-2992	1	-5	21	-8480	568	14312	116	52	-135	-16464	312	-2528	10	-18	19	-16136	-808	-2576	25	20	1	127	123	8
-7988	-2068	13696	-39	3	-19	-16136	2320	-2320	-3	-5	-9	-15992	1344	-3008	-6	0	23	-8456	640	14440	130	100	-163	-16392	272	-2584	12	-17	15	-16152	-864	-2208	25	14	2	127	123	8
-8016	-2112	13760	-85	-7	-17	-15968	2096	-2272	2	-2	-9	-16008	1488	-2904	15	5	27	-8448	808	14488	204	83	-133	-16448	304	-2104	19	-17	19	-15880	-768	-2360	23	17	-1	127	123	8
-7984	-2092	13824	-128	-35	-27	-16024	1952	-2328	2	-3	-5	-15984	1448	-2928	27	8	24	-8440	664	14488	176	65	-148	-16504	288	-2248	21	-16	19	-16096	-808	-2448	31	12	-2	127	123	8
-7884	-2120	13844	-116	-42	-22	-15936	2200	-2072	13	-5	-11	-15928	1480	-3136	26	11	28	-8480	568	14304	157	26	-159	-16472	424	-2288	23	-12	19	-15992	-768	-2400	38	10	0	127	123	8
-7940	-2092	13892	-74	-31	-16	-16032	2152	-2128	16	1	-8	-15720	1400	-3024	26	9	29	-8392	760	14600	157	22	-167	-16440	352	-2312	14	-16	20	-16152	-936	-2584	37	13	0	127	123	8
-7936	-2156	13836	-54	-25	-16	-15856	2184	-2496	21	-2	-6	-15856	1296	-2992	41	9	28	-8520	512	14520	147	53	-160	-16568	296	-2472	18	-12	17	-16072	-888	-2336	33	14	1	127	125	8
-7868	-2128	13804	-32	-8	-10	-15944	2248	-2208	18	-1	-6	-15920	1504	-2944	40	12	33	-8408	520	14584	163	63	-126	-16360	256	-2616	24	-12	22	-15928	-920	-2248	38	9	-1	127	126	8
-7908	-2088	13772	-18	-1	-18	-15992	2296	-2184	7	1	-8	-15896	1616	-3104	38	7	35	-8592	448	14392	100	36	-131	-16368	408	-2464	26	-9	20	-15928	-784	-2376	44	12	1	127	125	8
-7948	-2188	13792	12	17	-18	-15808	2232	-2168	5	1	-11	-16032	1712	-2960	34	4	34	-8464	600	14576	125	57	-137	-16680	312	-2416	8	-13	20	-16224	-864	-2712	45	17	9	127	124	8
-7864	-2148	13888	28	34	-20	-15968	2200	-2504	6	1	-8	-15976	1608	-2960	21	2	38	-8352	600	14544	147	111	-174	-16448	264	-2712	4	-12	17	-16096	-880	-2616	43	20	12	127	124	8
-7936	-2180	13800	18	38	-21	-16056	2056	-2352	5	-1	-9	-15936	1584	-3160	12	12	33	-8504	584	14544	127	47	-129	-16480	344	-2488	18	-5	19	-16040	-768	-2520	41	12	2	127	124	8
-7892	-2156	13760	6	31	-17	-16000	2008	-2248	9	-1	-6	-15832	1544	-3096	9	7	31	-8480	632	14632	140	58	-161	-16336	208	-2528	29	-6	18	-15968	-712	-2480	39	4	2	127	124	8
-7876	-2116	13792	10	34	-20	-15936	2072	-2384	7	4	-8	-15976	1480	-3008	15	5	25	-8520	632	14736	115	41	-128	-16440	408	-2432	29	3	22	-16000	-776	-2264	35	1	5	127	125	8
-7956	-2060	13856	10	38	-25	-15920	2184	-2280	-4	4	-7	-15896	1440	-3112	9	2	28	-8368	656	14504	133	-28	-159	-16400	344	-2560	20	-1	18	-16000	-888	-2624	34	2	4	127	125	8
-7916	-2080	13696	7	40	-25	-15864	2096	-2288	-1	5	-11	-16040	1448	-3168	9	-5	26	-8448	616	14568	121	-61	-160	-16568	288	-2384	23	0	15	-16312	-880	-2392	36	-2	1	127	125	8
-7964	-2076	13844	2	37	-22	-16056	2112	-2304	0	9	-3	-15936	1456	-2944	14	-3	23	-8512	656	14736	82	-17	-131	-16520	152	-2488	23	13	18	-16144	-856	-2416	33	-2	3	127	124	8
-7920	-2120	13700	3	45	-21	-15928	2200	-2216	10	10	-3	-15952	1432	-2904	22	-6	30	-8368	704	14624	109	-38	-154	-16464	344	-2464	6	5	12	-16256	-784	-2568	27	2	-4	127	124	8
-7956	-2168	13752	8	44	-23	-16088	2080	-2320	11	13	-3	-15968	1424	-3112	22	-11	30	-8416	536	14800	120	-6	-133	-16464	208	-2488	3	12	17	-16040	-872	-2344	27	-1	7	127	123	8
-7980	-2112	13776	16	43	-25	-15968	2104	-2600	14	11	-5	-15912	1488	-3128	19	-11	28	-8496	720	14248	135	-12	-149	-16368	328	-2488	7	12	19	-16024	-840	-2456	30	2	7	127	123	8
-8012	-2084	13768	13	31	-22	-15880	2168	-2176	13	9	-5	-15872	1480	-2992	22	-11	28	-8384	512	14584	95	-21	-120	-16488	352	-2464	13	14	16	-15976	-856	-2496	42	-3	9	127	124	8
-7988	-2124	13788	14	24	-22	-16072	2184	-2376	8	17	-5	-15792	1520	-3224	16	-11	20	-8496	744	14336	100	-63	-137	-16328	408	-2712	14	9	17	-16144	-824	-2520	49	-2	9	127	123	8
-7944	-2140	13868	16	17	-21	-15928	2152	-2264	12	10	-3	-16008	1696	-3104	6	-10	19	-8344	648	14488	95	-14	-133	-16520	200	-2512	15	12	12	-16016	-856	-2480	50	-4	10	127	124	8
-7956	-2120	13788	9	14	-20	-15880	2376	-2488	11	5	-4	-15968	1664	-3200	4	-10	23	-8464	616	14408	114	6	-156	-16560	384	-2592	18	8	16	-15856	-840	-2384	44	-3	8	127	124	8
-7944	-2048	13732	3	11	-17	-15968	2256	-2216	7	5	-4	-15952	1464	-3232	9	-11	20	-8424	568	14416	130	-29	-162	-16392	272	-2672	19	0	18	-16016	-808	-2696	41	-3	6	127	124	8
-7920	-2100	13696	-2	14	-18	-15992	2296	-2128	3	10	-9	-15768	1408	-3320	7	-7	21	-8560	640	14408	127	17	-110	-16416	360	-2344	24	1	13	-16008	-744	-2512	36	-9	4	127	124	8
-7968	-2072	13680	-5	14	-23	-16048	2160	-2280	8	5	-11	-15888	1440	-3360	4	-9	26	-8448	480	14480	106	-29	-147	-16520	464	-2352	21	-1	16	-16048	-808	-2632	42	0	0	127	124	8
-8028	-2092	13772	-8	14	-26	-15952	2128	-2328	12	-1	-11	-15888	1512	-3184	14	-7	28	-8328	440	14648	99	-1	-158	-16544	264	-2472	23	0	13	-16024	-872	-2400	40	-5	-1	127	124	8
-8044	-2020	13748	-7	16	-22	-16032	2304	-2560	9	0	-9	-15800	1400	-3296	23	-10	24	-8512	616	14616	111	11	-144	-16488	192	-2432	29	-3	12	-15984	-888	-2552	43	-4	0	127	123	8
-7920	-2112	13656	-12	18	-21	-15968	2176	-2560	4	3	-12	-15880	1600	-3312	16	-14	24	-8280	736	14504	126	-27	-111	-16488	296	-2584	23	-2	15	-16048	-920	-2496	45	-1	0	127	124	8
-7908	-2076	13632	-8	16	-25	-15960	2240	-2152	8	-2	-11	-15992	1688	-3280	16	-12	20	-8536	656	14440	164	-11	-139	-16376	344	-2728	9	-9	14	-15936	-880	-2504	33	4	6	127	124	8
-7904	-2080	13764	-8	15	-22	-15928	2200	-2376	3	-5	-15	-15776	1536	-3072	7	-9	20	-8512	544	14520	119	42	-141	-16400	416	-2376	8	-3	9	-15968	-1088	-2608	34	-5	0	127	124	8
-7884	-2124	13776	-11	15	-25	-16024	2168	-2384	-2	-6	-16	-15944	1704	-3296	6	-14	20	-8416	736	14752	143	11	-105	-16592	240	-2520	13	-5	12	-16000	-832	-2640	29	-7	3	127	124	8
-7956	-2096	13760	-13	12	-20	-16128	2232	-2200	-1	-8	-10	-15808	1648	-3512	6	-17	15	-8392	576	14520	112	-38	-125	-16312	328	-2576	0	-8	14	-15912	-856	-2448	17	-5	1	127	124	8
-7948	-2084	13768	-15	17	-23	-16056	2256	-2296	4	-8	-8	-15936	1688	-3064	4	-13	15	-8304	568	14304	144	15	-153	-16448	280	-2760	0	-7	12	-15984	-880	-2624	14	-7	-2	127	123	8
-7960	-2068	13680	-21	16	-25	-16024	2176	-2456	1	-7	-21	-15704	1464	-3112	-8	-11	19	-8368	744	14712	122	23	-127	-16424	312	-2672	6	-16	10	-16144	-976	-2680	23	-10	0	127	123	8
-8036	-2164	13736	-12	19	-24	-15976	2072	-2512	-8	-10	-16	-15896	1432	-3136	-7	-10	15	-8392	736	14264	117	9	-144	-16472	336	-2704	7	-16	12	-16032	-936	-2560	24	1	2	127	124	8
-7940	-2104	13712	-16	16	-25	-15968	2104	-2416	-7	-12	-18	-15960	1392	-3216	2	-10	13	-8440	688	14472	145	-56	-152	-16472	152	-2656	11	-20	11	-16024	-792	-2584	17	-3	1	127	124	8
-7988	-2104	13752	-16	19	-20	-15840	2200	-2040	0	-13	-17	-15848	1440	-3224	10	-7	15	-8408	712	14648	129	-14	-144	-16512	184	-2488	16	-17	7	-16072	-888	-2840	22	-6	1	127	124	8
-8008	-2156	13788	-11	15	-27	-15880	2216	-2144	2	-16	-10	-15920	1424	-3400	2	-12	19	-8528	568	14424	121	1	-116	-16424	288	-2656	20	-15	11	-16008	-1000	-2248	30	-7	-4	127	123	8
-7988	-2044	13748	-10	20	-24	-16032	2312	-2408	4	-8	-17	-16000	1600	-3112	9	-15	17	-8448	608	14600	144	22	-181	-16552	216	-2536	11	-16	11	-16112	-856	-2568	22	-4	-1	127	123	8
-7972	-2088	13912	-13	17	-26	-15944	2216	-2032	10	-11	-19	-15864	1488	-3128	8	-12	20	-8520	624	14336	134	5	-145	-16352	232	-2536	5	-21	14	-15968	-888	-2456	17	1	-4	127	124	8
-7968	-2120	13752	-16	15	-23	-16072	2096	-2592	7	-10	-18	-15968	1496	-3248	20	-8	19	-8400	640	14688	141	-54	-89	-16504	264	-2472	15	-20	14	-16128	-976	-2480	16	-5	-6	127	123	8
-7940	-1988	13680	-14	15	-24	-15928	2112	-2208	-6	-11	-18	-15992	1352	-3200	8	-7	20	-8344	584	14560	115	-35	-100	-16560	336	-2256	15	-13	13	-15960	-792	-2656	21	-1	-5	126	123	8
-7884	-2120	13796	-14	20	-22	-15976	2120	-2224	-3	-11	-14	-16064	1416	-2848	16	-7	19	-8600	544	14480	134	1	-141	-16504	360	-2400	18	-8	16	-16064	-984	-2464	19	2	-1	127	123	8
-7940	-2020	13716	-17	21	-21	-16064	2192	-2184	2	-9	-17	-15928	1464	-3168	19	-3	19	-8344	640	14608	100	-24	-164	-16448	176	-2448	4	-12	14	-16072	-904	-2336	23	5	4	126	123	8
-7952	-2052	13748	-18	20	-23	-15984	2216	-2400	-1	-9	-13	-15864	1504	-2896	5	-5	15	-8552	616	14584	123	42	-180	-16368	224	-2248	11	-11	11	-15928	-840	-2560	34	4	-6	127	123	8
-8004	-2124	13748	-12	16	-21	-16024	2152	-2104	7	-12	-13	-15856	1520	-3040	4	-8	14	-8352	520	14344	135	5	-123	-16360	168	-2320	20	-6	12	-15904	-976	-2528	22	2	-8	127	123	8
-7968	-2096	13684	-13	17	-20	-15912	2200	-2456	6	-5	-18	-15864	1400	-3064	2	-10	14	-8440	608	14456	128	36	-150	-16440	352	-2160	6	-9	9	-16128	-904	-2280	17	-3	0	127	123	8
-7976	-2080	13676	-15	19	-23	-15896	2248	-2320	-3	-3	-14	-15864	1456	-3112	9	-3	16	-8536	560	14288	146	4	-142	-16520	384	-2216	6	-10	9	-16064	-704	-2448	17	-6	0	126	123	8
-7968	-2032	13772	-14	19	-24	-15880	2192	-2232	2	-5	-19	-15832	1368	-3216	-6	-4	16	-8376	440	14376	117	35	-179	-16360	224	-2368	8	-5	11	-16128	-976	-2360	26	0	-2	126	123	8
-7956	-2156	13688	-15	18	-25	-15968	2072	-2216	-8	-5	-13	-15936	1384	-3264	2	-4	17	-8456	640	14504	114	0	-172	-16552	152	-2352	19	-1	11	-16104	-840	-2584	35	-1	-10	127	123	8
-8012	-2048	13736	-16	16	-21	-16000	1984	-2424	1	-5	-17	-15968	1344	-2936	12	-8	14	-8456	496	14448	132	-23	-127	-16536	328	-2592	18	0	14	-16016	-920	-2456	29	-2	-5	127	123	8
-7940	-2112	13692	-12	16	-23	-15720	1968	-2232	11	-1	-17	-15976	1376	-2992	10	-10	16	-8536	600	14664	89	22	-148	-16512	264	-2136	13	1	11	-16024	-928	-2392	28	4	-5	127	123	8
-7956	-2056	13856	-16	13	-22	-16056	1976	-1904	15	2	-10	-15928	1352	-3192	16	-12	13	-8384	632	14680	121	13	-183	-16480	360	-2544	11	-1	14	-15936	-1048	-2552	23	0	-7	126	124	8
-8004	-2076	13640	-15	14	-21	-15968	2200	-2304	13	0	-9	-15944	1456	-3168	14	-9	19	-8376	680	14536	121	22	-129	-16512	216	-2568	13	2	14	-16072	-1032	-2464	24	2	-5	127	124	8
-7968	-2024	13772	-12	16	-21	-16056	1976	-2224	3	3	-15	-15800	1472	-3272	9	-12	18	-8552	552	14568	131	20	-166	-16472	336	-2504	20	4	11	-16064	-816	-2536	33	-4	-7	126	124	8
-8008	-2080	13716	-10	14	-24	-15992	2128	-2168	7	1	-12	-15768	1480	-3160	2	-12	15	-8320	720	14472	146	54	-183	-16448	200	-2528	19	1	14	-16064	-840	-2872	39	4	-1	127	122	8
-8004	-2104	13736	-10	13	-19	-16064	1984	-2248	5	2	-12	-15864	1496	-3136	-6	-8	13	-8384	768	14584	157	62	-166	-16592	344	-2536	7	-3	13	-16080	-1040	-2416	49	9	-2	127	122	8
-8020	-2024	13768	-16	13	-25	-15984	2128	-2328	10	1	-14	-15888	1312	-3384	-2	-11	10	-8448	632	14416	129	66	-167	-16256	240	-2616	19	-5	11	-15816	-1016	-2512	41	2	6	127	123	8
-7968	-2116	13832	-13	9	-24	-15976	2280	-2408	2	-6	-10	-15976	1504	-3096	0	-17	16	-8528	560	14624	97	38	-135	-16408	192	-2872	29	-6	17	-15856	-784	-2472	37	-2	6	127	124	8
-8056	-2060	13644	-5	11	-25	-16008	2056	-2320	4	-2	-9	-15920	1552	-3200	0	-16	16	-8424	624	14360	106	-28	-124	-16368	400	-2368	30	-4	13	-15936	-824	-2128	28	-13	1	127	124	8
-7916	-2112	13748	-15	13	-22	-15888	2024	-2520	8	-2	-7	-15792	1424	-2912	6	-15	18	-8464	488	14600	83	-62	-141	-16440	136	-2576	15	-7	18	-16080	-992	-2448	27	-13	2	127	124	8
-8044	-2056	13788	-15	15	-23	-15864	2064	-2384	8	-6	-12	-15896	1448	-3376	4	-11	22	-8552	608	14456	129	-38	-168	-16464	184	-2544	8	-3	18	-16008	-776	-2112	23	-12	3	127	124	8
-7980	-2004	13704	-15	15	-26	-15904	2152	-2264	12	-5	-12	-15952	1416	-3600	11	-15	22	-8672	640	14344	85	-27	-135	-16568	240	-2480	8	-5	17	-16168	-896	-2504	30	-8	-4	127	124	8
-7960	-2100	13692	-21	13	-25	-15888	2256	-2448	6	-8	-12	-15896	1520	-3296	15	-15	18	-8360	584	14616	105	-27	-149	-16424	216	-2496	18	4	16	-16032	-968	-2360	24	-7	0	127	125	8
-8080	-2152	13856	-12	13	-23	-16000	2080	-2472	8	-9	-8	-15928	1512	-3472	13	-16	19	-8352	536	14312	113	-47	-161	-16448	240	-2240	16	-7	17	-16040	-744	-2520	16	-7	2	127	124	8
-7984	-2120	13700	-15	13	-25	-15864	2064	-2560	-4	-11	-6	-15888	1440	-3280	15	-19	15	-8456	632	14592	124	-64	-134	-16288	352	-2480	2	-8	21	-15968	-1040	-2496	14	-13	3	127	124	8
-8008	-2096	13736	-16	13	-25	-16072	2064	-2288	-14	-5	-9	-15936	1328	-3176	4	-29	14	-8488	576	14888	130	-42	-113	-16376	192	-2560	-6	0	17	-16000	-984	-2360	11	-17	5	127	124	8
-7960	-2120	13752	-10	13	-21	-15880	2152	-2256	-13	-6	-8	-15840	1504	-2928	0	-32	13	-8496	680	14440	156	-33	-142	-16520	192	-2504	-8	1	19	-16064	-976	-2216	22	-19	7	127	124	8
-7956	-2092	13816	-13	13	-24	-15952	2152	-2304	1	-4	-10	-15936	1408	-3232	-10	-27	15	-8472	584	14456	115	-39	-102	-16608	232	-2808	-4	4	16	-16032	-864	-2608	27	-14	6	127	124	8
-8056	-2116	13740	-15	10	-27	-15968	2048	-2296	-1	-7	-12	-15920	1424	-3112	-8	-26	14	-8400	632	14584	116	-8	-110	-16504	376	-2480	0	2	14	-16016	-1016	-2408	32	-13	5	127	124	8
-8028	-2120	13652	-12	8	-23	-16000	2200	-2248	-2	-12	-10	-15824	1288	-3248	-5	-26	18	-8400	656	14648	110	-9	-125	-16480	280	-2584	5	-2	19	-15952	-880	-2672	24	-19	7	127	124	8
-7936	-2160	13856	-14	13	-27	-15952	1968	-2064	-7	-9	-9	-15840	1312	-3152	-13	-31	16	-8408	712	14520	141	-92	-92	-16440	80	-2688	10	-9	17	-15960	-1144	-2248	17	-22	7	127	124	8
-8000	-2080	13744	-13	14	-23	-15952	2136	-2224	-3	-12	-11	-15928	1416	-3272	-11	-37	14	-8536	704	14632	87	-79	-138	-16472	264	-2560	9	-7	22	-16016	-1080	-2352	21	-22	10	126	126	8
-7980	-2080	13724	-7	11	-25	-15864	2088	-2256	2	-13	-4	-15904	1264	-3264	3	-41	16	-8304	656	14632	117	-34	-125	-16472	352	-2520	8	-8	20	-15904	-1120	-2232	17	-23	8	126	126	8
-7980	-2124	13780	-11	10	-24	-15952	2048	-2416	4	-10	-8	-15912	1280	-3216	-2	-40	15	-8464	672	14480	122	-78	-114	-16568	328	-2472	1	-8	21	-15960	-1048	-2472	24	-24	13	126	126	8
-7964	-2128	13768	-15	8	-26	-16008	2024	-2600	6	-9	-10	-15960	1432	-3192	1	-37	18	-8416	648	14304	108	-92	-137	-16544	168	-2432	14	-9	20	-15968	-1072	-2336	16	-24	12	126	125	8
-7920	-2032	13900	-10	12	-24	-15888	2184	-2360	12	-16	-8	-16008	1424	-3048	7	-38	18	-8408	760	14552	126	-55	-99	-16592	216	-2344	6	-10	21	-16072	-832	-2104	21	-27	15	126	125	8
-7912	-1992	13748	-13	13	-30	-15960	2000	-2400	2	-11	-11	-15872	1248	-3216	8	-44	19	-8376	720	14680	123	-65	-89	-16536	168	-2504	-4	-12	23	-15968	-928	-2328	17	-21	15	126	125	8
-8024	-2080	13660	-16	10	-21	-15936	2064	-2472	-5	-16	-7	-15880	1360	-3128	8	-44	19	-8544	680	14648	108	-80	-121	-16456	104	-2688	-3	-9	20	-16048	-1032	-2264	14	-29	15	126	125	8
-7952	-2104	13760	-16	10	-25	-15904	2064	-2248	-3	-18	-7	-15808	1568	-3208	-1	-44	18	-8440	680	14432	105	-27	-104	-16536	320	-2208	1	-11	24	-16040	-1096	-2280	19	-25	19	126	125	8
-7948	-2112	13812	-12	12	-18	-15936	2208	-2232	-6	-14	-7	-15872	1464	-3304	-1	-48	16	-8352	664	14496	117	-16	-93	-16560	320	-2384	-3	-17	27	-15952	-832	-2536	22	-26	18	126	125	8
-8000	-2120	13740	-17	13	-22	-15968	2240	-2360	4	-24	-9	-15872	1480	-3232	-4	-47	16	-8360	576	14376	115	-46	-147	-16464	200	-2528	3	-18	22	-15880	-1040	-2528	14	-22	20	126	124	8
-7888	-2124	13780	-11	11	-28	-16032	2072	-2256	-7	-19	-6	-15944	1480	-3264	-6	-48	19	-8456	680	14520	119	-39	-101	-16480	280	-2432	3	-21	23	-16040	-1000	-2456	16	-24	21	126	124	8
-7940	-2160	13800	-13	11	-25	-15920	2096	-2416	-11	-26	-9	-15840	1472	-3296	-7	-49	20	-8328	592	14488	154	-54	-75	-16400	344	-2048	-4	-23	30	-16016	-896	-2128	5	-35	17	125	124	8
-7952	-2100	13696	-9	7	-23	-15880	2216	-2064	-13	-28	-5	-15984	1448	-3264	-10	-52	14	-8440	656	14448	123	-58	-86	-16560	328	-2256	-14	-22	25	-16112	-912	-2104	5	-42	20	125	124	8
-8040	-2128	13788	-15	8	-28	-15896	2224	-2296	-7	-26	-11	-15856	1264	-3528	-2	-54	16	-8456	608	14392	118	-99	-88	-16512	176	-2768	-11	-16	23	-16040	-800	-2520	1	-40	21	125	124	8
-7944	-2116	13784	-17	4	-30	-15904	1944	-1976	2	-27	-7	-15752	1320	-2848	6	-51	16	-8472	616	14592	90	-110	-105	-16512	216	-2432	-2	-18	23	-15904	-856	-2624	12	-42	19	125	123	8
-7936	-2080	13772	-15	8	-29	-16000	2104	-2232	3	-22	-8	-16008	1464	-3000	4	-58	19	-8408	520	14752	68	-124	-80	-16304	264	-2328	6	-14	27	-15968	-856	-2360	15	-48	22	125	124	8
-7888	-2088	13748	-15	10	-23	-16056	2152	-2232	-4	-28	-7	-16152	1576	-3112	10	-56	16	-8384	456	14496	148	-139	-97	-16472	200	-2632	-8	-20	26	-16032	-904	-2232	7	-54	23	125	123	8
-7988	-2092	13788	-10	10	-29	-15936	1992	-2488	-5	-24	-8	-15888	1464	-3096	12	-57	21	-8464	632	14584	89	-126	-84	-16368	224	-2704	-10	-14	19	-16016	-920	-2392	17	-60	17	125	123	8
-7920	-2040	13808	-16	9	-27	-15928	2176	-2352	-9	-20	-14	-15952	1424	-2984	3	-56	24	-8480	568	14520	111	-110	-73	-16368	304	-2440	-6	-15	25	-16072	-872	-2288	29	-55	24	125	123	8
-7968	-2096	13644	-15	9	-28	-16032	1984	-2200	1	-25	-9	-16008	1416	-2952	-2	-54	16	-8288	672	14584	128	-156	-49	-16360	264	-2256	-1	-12	26	-16072	-752	-2280	37	-49	31	124	123	8
-7928	-2136	13732	-17	10	-26	-15904	2072	-2224	6	-20	-6	-15976	1392	-2792	12	-49	14	-8328	800	14528	133	-116	-84	-16592	328	-2504	4	-23	27	-16216	-824	-2288	50	-37	27	125	123	8
-7880	-2092	13804	-18	12	-26	-16000	2112	-2256	2	-26	-9	-15976	1568	-2936	12	-45	15	-8464	592	14800	127	-71	-135	-16488	120	-2576	13	-16	25	-16280	-1072	-2304	47	-37	26	124	123	8
-7944	-2156	13812	-16	8	-27	-15904	2160	-2128	-10	-28	-9	-15992	1480	-2752	3	-51	17	-8352	680	14568	126	-73	-72	-16472	464	-2544	20	-20	24	-16112	-720	-2240	46	-36	22	124	123	8
-7920	-2040	13884	-11	7	-27	-15912	2024	-2232	-15	-24	-9	-15952	1264	-2400	-4	-55	24	-8336	600	14704	89	-125	-92	-16528	304	-2008	18	-21	19	-16008	-744	-2112	38	-34	14	125	123	8
-7888	-2140	13780	-16	10	-24	-15912	2064	-2104	-2	-22	-7	-15976	1304	-2888	-2	-46	19	-8336	544	14520	121	-75	-94	-16552	336	-2336	5	-22	24	-16128	-704	-2128	31	-32	22	124	123	8
-7912	-2108	13824	-14	5	-26	-16056	2152	-1952	6	-25	-8	-16032	1448	-2824	5	-42	21	-8448	536	14712	133	-46	-107	-16520	320	-2248	8	-18	20	-16200	-800	-1976	28	-28	16	124	122	8
-7936	-2084	13800	-13	8	-30	-16144	2056	-2184	5	-21	-9	-16048	1584	-2848	5	-38	21	-8360	608	14792	82	-32	-97	-16528	384	-2272	11	-19	26	-16304	-816	-2000	30	-25	14	124	122	8
-7936	-2128	13736	-15	9	-24	-16120	2104	-2064	2	-13	-10	-16048	1408	-2824	3	-35	22	-8360	760	14608	133	-74	-113	-16584	192	-2184	5	-21	22	-16208	-696	-1896	28	-21	13	124	122	8
-7932	-2148	13784	-12	13	-27	-16048	2024	-2176	2	-20	-10	-16208	1352	-2792	0	-36	19	-8408	544	14400	108	-41	-76	-16584	168	-2480	8	-18	21	-16264	-704	-2000	10	-18	11	124	122	8
-7956	-2164	13696	-13	9	-25	-15952	2104	-2192	-4	-22	-9	-16040	1360	-2792	-2	-31	21	-8360	656	14712	97	-17	-104	-16568	368	-2336	8	-17	26	-16200	-752	-1976	16	-14	3	124	123	8
-7908	-2164	13784	-16	12	-23	-15992	2088	-2080	-6	-16	-9	-15944	1464	-3000	-7	-32	18	-8280	752	14440	115	-54	-132	-16496	416	-2696	-2	-16	22	-16048	-824	-2008	10	-11	11	124	122	8
-7960	-2148	13764	-15	11	-21	-15976	2088	-1968	0	-17	-12	-15976	1544	-2784	0	-35	19	-8360	776	14496	120	-5	-146	-16416	264	-2312	-11	-15	21	-16016	-808	-2032	19	-13	14	124	123	8
-7960	-2144	13736	-15	16	-20	-16040	2032	-1976	6	-11	-4	-16064	1488	-2856	4	-32	22	-8472	728	14664	100	7	-119	-16600	136	-2512	-6	-14	19	-16048	-728	-2064	30	-12	4	124	123	8
-7972	-2132	13712	-9	11	-24	-15952	2080	-2296	9	-15	-7	-15920	1520	-2744	-4	-34	22	-8368	584	14688	118	-32	-102	-16408	456	-2440	10	-6	15	-16064	-904	-2016	36	-7	12	124	123	8
-7980	-2092	13708	-11	11	-26	-15952	2288	-2200	-11	-8	-8	-16064	1504	-2752	-4	-27	19	-8456	520	14616	109	-36	-122	-16592	456	-2256	11	-18	21	-16000	-656	-2112	36	-7	15	124	123	8
-7932	-2160	13792	-11	11	-24	-16056	2040	-2072	0	-14	-8	-15968	1320	-2840	-12	-23	22	-8368	752	14816	177	-23	-152	-16528	120	-2368	6	-10	18	-16008	-632	-2424	29	-1	14	124	123	8
-7972	-2132	13684	-14	13	-23	-16072	2120	-2128	18	-13	-8	-16184	1416	-2896	-13	-22	21	-8384	576	14704	129	-15	-113	-16360	264	-2440	11	-14	17	-16232	-712	-2168	16	-19	10	124	123	8
-7976	-2084	13744	-15	13	-20	-16048	2200	-2120	3	-14	-11	-16168	1520	-2768	3	-24	15	-8272	600	14576	120	-9	-121	-16472	408	-2104	22	-7	20	-16136	-672	-2120	22	-14	3	124	123	8
-7940	-2124	13844	-15	20	-23	-15952	2040	-2152	-7	-5	-8	-15864	1472	-3024	4	-21	12	-8240	544	14584	125	-28	-114	-16344	288	-2328	10	-10	14	-15928	-728	-1992	20	-7	6	124	123	8
-7916	-2084	13780	-11	15	-24	-15856	2168	-2136	2	-9	-16	-15840	1632	-2720	-14	-21	17	-8272	672	14640	110	-40	-160	-16464	352	-2352	2	-5	14	-16016	-696	-2144	22	-6	6	124	124	8
-7912	-2180	13820	-15	17	-27	-16048	2088	-2216	3	-8	-13	-16008	1400	-2960	-8	-14	13	-8440	672	14560	88	-22	-119	-16728	232	-2376	-3	-7	17	-16272	-816	-1928	14	0	-1	124	124	8
-7932	-2172	13904	-13	18	-20	-16104	1992	-2104	9	-9	-12	-16032	1272	-2832	14	-3	13	-8408	688	14632	103	9	-161	-16536	88	-2288	-6	-6	12	-16296	-664	-1936	-14	6	-4	124	124	8
-7944	-2116	13784	-13	24	-22	-15968	2120	-2072	2	-7	-10	-16064	1144	-2808	34	4	21	-8400	592	14536	144	20	-157	-16640	232	-1912	9	-4	14	-16328	-912	-1920	-8	3	-19	124	124	8
-7968	-2104	13856	-14	24	-21	-16048	1952	-1960	-8	-4	-9	-16008	1072	-2640	31	-1	22	-8312	784	14840	118	71	-118	-16344	192	-2408	18	2	21	-16120	-584	-1472	-5	2	-10	124	124	8
-7948	-2088	13816	-6	17	-19	-15960	1968	-2120	-6	0	-2	-16088	1080	-2664	9	-10	26	-8368	560	14616	123	-1	-137	-16360	272	-2384	18	5	20	-16000	-656	-1744	13	7	-6	124	124	8
-7904	-2180	13824	-10	20	-16	-15968	2048	-2024	2	5	-1	-16152	1328	-2408	1	-12	26	-8352	552	14528	115	92	-161	-16536	312	-2088	5	7	19	-16088	-736	-1872	21	6	-1	124	124	8
-8008	-2128	13848	-6	14	-17	-15888	2152	-2080	2	12	-3	-15792	1568	-2864	-8	-22	29	-8456	512	14624	118	57	-167	-16464	320	-2368	4	12	19	-16016	-992	-2040	35	-1	-4	125	124	8
-7980	-2064	13852	-9	12	-21	-15936	1992	-2224	9	13	-2	-16032	1824	-2760	-10	-30	24	-8456	672	14616	96	43	-135	-16400	200	-2384	20	20	12	-16008	-1032	-2248	58	-10	7	124	124	8
-7904	-2060	13776	-9	8	-24	-16104	2184	-2104	22	11	-3	-15880	1752	-2768	-8	-31	20	-8408	672	14528	126	-7	-146	-16264	344	-2616	10	19	20	-15896	-928	-2504	81	-15	15	125	124	8
-7916	-2084	13644	-12	8	-26	-16096	2032	-2184	26	12	-1	-15816	1624	-3008	-5	-19	11	-8384	608	14488	87	-47	-132	-16488	336	-2624	5	3	18	-16048	-1032	-2672	86	-23	28	125	124	8
-7960	-2112	13788	-10	10	-26	-16096	2136	-2120	31	9	-11	-15856	1424	-3264	2	-16	9	-8328	648	14248	111	-36	-136	-16768	152	-2632	10	-6	13	-16008	-1088	-2528	87	-27	31	125	124	8
-7924	-2152	13724	-8	14	-23	-16064	2304	-2360	28	2	-10	-16216	1192	-3328	2	-10	16	-8344	552	14704	114	0	-137	-16648	360	-2632	25	-18	18	-15992	-1000	-2504	76	-9	32	124	124	8
-7908	-2128	13768	-14	20	-24	-16160	2232	-2104	5	-5	-11	-15944	1208	-3352	38	-1	30	-8368	624	14592	115	65	-138	-16672	256	-2616	26	-26	13	-16168	-880	-2536	72	-6	30	124	124	8
-7940	-2100	13804	-17	23	-22	-15880	2160	-2280	-10	-8	-16	-15992	1152	-3120	51	0	43	-8472	744	14520	197	12	-148	-16600	280	-2440	27	-40	8	-16160	-328	-2400	25	18	4	124	124	8
-7992	-2092	13780	-17	21	-20	-16040	2048	-2168	-6	-12	-13	-16096	1184	-3112	49	5	40	-8456	680	14520	136	37	-139	-16584	200	-2232	30	-47	9	-16208	-336	-2088	-2	14	-16	125	124	8
-8028	-2144	13656	-16	28	-18	-16056	2080	-2152	13	-24	-17	-15904	1600	-2944	47	9	27	-8456	704	14600	160	56	-112	-16496	296	-2184	40	-37	10	-16112	-560	-1568	-25	7	-30	124	124	8
-7908	-2156	13792	-16	26	-20	-15904	2152	-2320	4	-24	-13	-15856	1696	-2848	40	2	23	-8312	712	14752	121	17	-96	-16328	176	-2096	42	-26	10	-16128	-608	-1632	-34	-10	-26	125	124	8
-7924	-2060	13764	-16	21	-27	-15856	2088	-2072	-9	-14	-17	-15808	1848	-2760	22	-7	24	-8336	576	14440	136	-48	-85	-16408	520	-1904	30	-14	14	-16040	-776	-1408	-27	-16	-22	125	124	8
-7956	-2076	13728	-16	17	-27	-15928	2072	-1928	-19	-15	-14	-15952	1760	-2760	9	-2	9	-8352	560	14688	96	-69	-147	-16464	312	-1960	-7	2	13	-16192	-728	-1240	-13	-13	-17	125	124	8
-7928	-2108	13760	-17	6	-28	-15936	2192	-1928	-11	-5	-23	-16016	1688	-2368	3	-4	3	-8344	744	14504	63	-79	-138	-16408	328	-2496	-16	8	6	-16264	-672	-1632	-1	-2	-12	125	124	8
-7948	-2176	13768	-21	14	-26	-16104	1952	-1896	6	0	-20	-16120	1600	-2592	-11	-3	-5	-8368	640	14600	49	-68	-189	-16408	176	-2336	-11	30	8	-16208	-920	-1856	23	3	-11	125	124	8
-7944	-2132	13736	-15	15	-35	-16024	2040	-2072	4	1	-18	-16160	1280	-2408	-24	-8	-3	-8464	608	14536	60	-111	-161	-16536	72	-2520	-4	34	7	-16120	-744	-2032	35	0	-3	125	125	8
-7892	-2176	13740	-15	15	-23	-16040	2024	-2256	2	8	-17	-16112	1224	-2592	-18	-12	-4	-8408	640	14456	15	-89	-149	-16616	448	-2344	-7	37	4	-16088	-896	-1992	44	-5	0	125	125	8
-8008	-2104	13760	-12	16	-24	-16144	2104	-1984	-4	5	-20	-16136	1128	-2632	-37	-13	6	-8376	584	14680	63	-56	-176	-16592	208	-2376	-28	31	10	-16120	-960	-2064	52	-1	7	125	124	8
-7956	-2184	13736	-14	20	-17	-16040	1928	-2264	0	8	-19	-16168	1128	-3048	-29	-15	-2	-8456	640	14576	91	44	-194	-16608	112	-2576	-18	27	10	-16168	-1040	-2152	48	-6	-4	125	124	8
-7960	-2108	13728	-9	19	-19	-16048	2048	-2368	-2	18	-14	-16096	1248	-2880	-23	-25	-3	-8312	768	14632	90	21	-174	-16496	56	-2624	10	25	13	-16008	-1016	-2240	55	-5	-2	125	124	8
-7896	-2100	13856	-15	18	-20	-16008	1864	-2040	10	12	-4	-15992	1352	-2888	-21	-38	1	-8360	552	14520	83	-12	-155	-16536	168	-2352	25	18	16	-15912	-792	-2400	45	-9	-4	126	124	8
-7964	-2180	13728	-11	17	-14	-16008	1984	-2120	17	16	-10	-15848	1344	-2960	-21	-43	8	-8416	544	14416	92	-8	-176	-16576	240	-2584	17	9	19	-15864	-688	-2248	24	-20	0	125	125	8
-7924	-2120	13832	-11	17	-18	-15952	2224	-2144	18	20	-3	-15920	1440	-3000	-17	-39	11	-8176	600	14488	94	-33	-178	-16584	56	-2784	9	3	15	-15800	-1000	-2448	13	-19	-6	125	125	8
-7876	-2036	13624	-15	14	-22	-16008	1984	-2256	11	12	-11	-15768	1360	-3208	-1	-42	17	-8248	552	14904	121	-78	-108	-16424	224	-2608	9	-5	16	-15944	-1080	-2264	0	-24	-1	125	124	8
-7964	-2152	13796	-17	16	-20	-15984	2040	-2216	18	4	-11	-15848	1256	-3064	8	-28	16	-8232	648	14424	135	-58	-85	-16496	288	-2344	10	-10	17	-16000	-1168	-2272	-1	-16	1	125	124	8
-7980	-2160	13676	-15	9	-20	-16040	2136	-2104	11	-2	-7	-15800	1312	-3080	17	-22	13	-8376	648	14560	138	-48	-100	-16376	120	-2512	10	-16	16	-16016	-1048	-2160	-5	-9	-4	125	124	8
-7912	-2060	13860	-18	10	-27	-15928	1944	-2176	14	-7	-9	-15960	1200	-2992	27	-26	18	-8400	656	14592	141	-47	-80	-16400	312	-2376	15	-15	16	-16008	-952	-1920	0	-6	6	125	124	8
-7916	-2112	13756	-19	14	-27	-15984	2024	-2288	13	-12	-10	-15888	1320	-3200	25	-24	19	-8336	576	14416	134	-76	-107	-16576	272	-2384	12	-19	20	-16152	-808	-2040	17	-7	13	125	124	8
-7964	-2132	13712	-17	14	-26	-16056	2064	-2216	18	-13	-5	-16024	1320	-3200	26	-24	24	-8312	480	14480	155	-104	-95	-16480	128	-2296	-4	-20	22	-16088	-736	-1768	20	-14	15	125	124	8
-7964	-2092	13780	-15	11	-24	-16128	2168	-2320	-2	-15	-12	-16064	1360	-2872	22	-32	25	-8456	576	14752	137	-66	-82	-16352	88	-2304	6	-15	21	-16168	-944	-1944	23	-20	13	125	124	8
-7968	-2156	13800	-13	15	-25	-16120	1976	-2288	-9	-18	-11	-16112	1328	-3088	15	-29	18	-8352	480	14424	122	-56	-109	-16496	328	-2280	12	-13	22	-16168	-808	-1544	33	-17	11	125	124	8
-8008	-2112	13868	-14	16	-16	-15992	1992	-2096	-10	-24	-11	-16056	1376	-2784	17	-32	23	-8328	704	14480	105	17	-118	-16488	312	-2296	0	-7	24	-16248	-744	-1920	37	-17	13	125	124	8
-7928	-2156	13752	-10	18	-25	-15936	2080	-2168	-1	-22	0	-15960	1384	-2872	-2	-36	18	-8280	736	14632	137	17	-131	-16424	88	-2288	0	-2	20	-16160	-792	-1960	33	-18	10	126	124	8
-7968	-2148	13664	-13	20	-26	-15992	2096	-2048	6	-22	-10	-15976	1376	-2760	-4	-38	16	-8504	608	14592	133	-23	-133	-16440	184	-2344	2	-3	25	-15952	-944	-2304	38	-25	13	126	124	8
-7912	-2076	13744	-15	16	-29	-15960	2288	-2384	3	-22	-7	-16056	1360	-2744	-3	-40	20	-8280	592	14648	109	-52	-112	-16296	216	-2576	2	-5	23	-16000	-904	-2304	32	-29	23	126	124	8
-7960	-2184	13752	-15	12	-26	-16184	2184	-2216	4	-19	-8	-15976	1408	-2640	0	-48	13	-8448	648	14560	131	-116	-101	-16416	296	-2448	-10	-14	25	-15888	-840	-2144	19	-35	26	126	124	8
-7928	-2100	13828	-15	11	-25	-16064	1880	-2104	0	-18	-5	-15864	1392	-2976	-4	-48	13	-8456	584	14552	108	-111	-87	-16552	176	-2416	-12	-18	23	-16080	-880	-2000	10	-32	27	125	124	8
-7964	-2100	13780	-10	14	-27	-16080	2088	-2536	3	-22	-5	-16016	1288	-3056	-12	-51	15	-8304	568	14520	133	-124	-105	-16496	320	-2400	-21	-11	24	-16152	-960	-2088	-6	-25	24	125	124	8
-8012	-2112	13780	-18	8	-28	-16032	1992	-2320	-5	-24	-3	-15912	1192	-2912	-3	-52	18	-8264	560	14576	112	-137	-115	-16600	224	-2512	-25	-20	26	-16192	-888	-2096	-5	-23	24	126	124	8
-7956	-2088	13712	-14	10	-27	-15856	1976	-2216	-11	-27	-12	-16056	1240	-2896	-12	-57	18	-8384	560	14520	88	-81	-147	-16512	216	-2464	-28	-30	30	-16328	-664	-1720	-39	-16	17	126	124	8
-8028	-2176	13740	-12	11	-24	-16144	1912	-2208	-17	-28	-3	-16016	1448	-2976	-37	-64	15	-8240	712	14552	134	-23	-98	-16808	136	-2024	-16	-20	24	-16248	-728	-1816	-56	-9	5	125	124	8
-7992	-2116	13740	-17	13	-24	-16112	2064	-2096	-15	-36	-8	-16080	1504	-3080	-46	-75	11	-8280	616	14752	188	36	-28	-16456	208	-2232	-18	-24	33	-16376	-584	-1600	-69	-9	-6	126	124	8
-7940	-2112	13692	-13	17	-21	-16032	2184	-2048	-36	-38	1	-15960	1776	-2936	-46	-77	10	-8248	568	14736	162	34	-52	-16512	368	-2344	-30	-18	27	-16112	-624	-1608	-72	-12	-7	126	124	8
-7908	-2108	13776	-16	13	-27	-15896	1992	-2416	-45	-38	-9	-15760	1640	-2744	-62	-77	2	-8312	520	14760	143	84	-80	-16368	304	-2256	-35	-7	27	-16144	-808	-1832	-31	-21	-1	126	124	8
-7972	-2116	13640	-19	8	-28	-15992	2048	-2360	-31	-43	-8	-15760	1504	-2816	-72	-68	-7	-8352	608	14488	151	27	-115	-16392	376	-2160	-20	-4	25	-15912	-1032	-1976	20	-46	14	125	124	8
-7924	-2100	13864	-19	6	-34	-16032	2000	-2040	-4	-45	-6	-15880	1424	-2616	-46	-58	-14	-8272	456	14704	73	-3	-149	-16376	448	-2408	1	-11	26	-15864	-1088	-2168	63	-55	28	125	124	8
-7916	-2112	13844	-21	3	-30	-15976	2168	-1992	4	-45	-7	-16080	1296	-2456	-15	-48	-5	-8440	688	14616	98	-88	-140	-16392	400	-2704	7	-9	24	-15864	-968	-2208	84	-58	50	125	124	8
-7936	-2164	13760	-20	9	-33	-16064	2120	-1872	-2	-41	-16	-16192	1072	-2528	3	-49	12	-8352	624	14600	77	-117	-114	-16560	376	-2728	0	-19	18	-15912	-904	-2576	82	-43	51	125	124	8
-7900	-2152	13812	-18	11	-30	-15944	1928	-1880	-10	-38	-13	-16096	912	-2264	10	-47	28	-8248	616	14600	108	-129	-97	-16632	168	-2520	1	-24	21	-16144	-744	-2448	80	-31	37	125	124	8
-7904	-2256	13784	-13	15	-26	-16232	1792	-2056	-1	-38	-13	-16240	888	-2384	24	-36	30	-8408	728	14376	135	-122	-85	-16624	152	-2528	7	-29	15	-16088	-544	-1888	59	-28	27	125	124	8
-7908	-2212	13944	-12	19	-23	-16216	1912	-1984	4	-36	-14	-16048	872	-2704	22	-33	29	-8224	544	14720	134	-79	-86	-16512	216	-2384	35	-37	21	-16072	-416	-2240	25	-30	11	125	123	8
-7952	-2124	13872	-18	24	-19	-16088	2024	-2056	4	-34	-7	-16168	1200	-2552	36	-30	38	-8176	832	14624	144	-114	-91	-16376	184	-2104	30	-38	24	-16304	-368	-1680	5	-25	5	125	123	8
-7980	-2200	13752	-15	25	-19	-16008	2032	-2184	-5	-26	-13	-15944	1384	-2584	29	-40	37	-8176	616	14592	115	-69	-65	-16496	200	-1928	14	-39	30	-16208	-704	-1568	-9	-20	-4	125	124	8
-7944	-2204	13740	-14	22	-18	-15976	2032	-1920	-16	-23	-4	-16032	1432	-2448	21	-41	41	-8240	656	14520	120	-66	-109	-16496	168	-2216	6	-29	24	-16288	-800	-1536	-21	-18	-8	125	123	8
-7992	-2116	13740	-13	17	-18	-15888	2120	-2072	-14	-18	-3	-15976	1632	-2408	-9	-46	25	-8240	504	14648	128	-80	-97	-16248	240	-2152	0	-22	28	-16112	-832	-1336	-29	-3	1	125	124	8
-7948	-2104	13788	-10	13	-21	-15704	2064	-2168	-25	-15	0	-15688	1600	-2416	-35	-46	21	-8320	656	14632	127	-79	-93	-16320	488	-2152	-21	-17	34	-16160	-688	-1624	-17	3	5	125	123	8
-7936	-2152	13792	-12	3	-26	-15864	2048	-1800	-33	-13	1	-15616	1408	-2528	-43	-45	19	-8392	632	14824	102	-104	-113	-16504	280	-2032	-40	-15	29	-16344	-640	-1800	-17	-6	10	125	123	8
-7904	-2148	13684	-13	5	-24	-16216	2008	-2200	-8	-15	1	-16224	1384	-2504	-92	-53	10	-8304	616	14672	124	-41	-119	-16560	376	-2136	-49	-6	23	-16432	-776	-1928	-25	0	24	125	123	8
-7936	-2164	13700	-14	8	-22	-16256	2048	-1928	-15	-22	4	-16136	1288	-2416	-73	-45	10	-8312	616	14608	149	-23	-90	-16456	320	-2200	-56	-3	28	-16016	-816	-1936	-16	5	26	125	123	8
-7928	-2120	13852	-13	13	-22	-15976	2064	-2072	-23	-18	-3	-16008	1384	-2512	-54	-40	9	-8176	496	14536	127	-28	-148	-16416	312	-2248	-40	-13	26	-16144	-768	-1936	-1	5	22	125	123	8
-7932	-2124	13736	-15	12	-21	-15912	2136	-2320	-33	-18	-6	-16000	1344	-2472	-66	-34	15	-8336	712	14568	164	-60	-131	-16592	352	-2256	-18	-12	22	-16080	-568	-1976	-2	21	16	125	123	8
-7904	-2128	13824	-12	10	-21	-16096	2064	-2040	-32	-15	-8	-16160	1312	-2504	-76	-27	15	-8264	496	14648	129	-42	-96	-16528	400	-2144	-22	-11	28	-16296	-440	-1880	0	19	13	125	123	8
-7924	-2180	13740	-14	14	-22	-16216	2040	-1864	-11	-17	-7	-16344	1296	-2400	-62	-21	19	-8280	552	14528	91	-59	-144	-16520	432	-2144	-8	-10	19	-16136	-488	-1808	-11	5	2	125	124	8
-7864	-2204	13796	-17	22	-19	-16056	2192	-1768	-9	-15	-12	-16208	1312	-2480	-48	-22	21	-8304	672	14568	101	-6	-167	-16568	320	-1992	-8	-13	21	-16000	-520	-1920	-13	-4	-6	125	124	8
-7916	-2176	13824	-20	29	-19	-16056	2168	-1848	-8	-14	-9	-16264	1544	-2624	-25	-36	26	-8264	600	14608	109	-19	-138	-16568	304	-2248	-23	-18	21	-16128	-528	-2184	-38	-9	-2	125	124	8
-7956	-2156	13712	-15	27	-18	-15824	2104	-1872	-6	-9	-12	-15888	1352	-2584	-20	-49	18	-8344	600	14672	128	-9	-179	-16376	224	-2368	-34	-19	17	-15960	-920	-2352	-51	-1	-9	125	123	8
-8004	-2140	13752	-12	20	-21	-15912	2072	-2136	-6	-14	-14	-15696	1544	-2712	-33	-48	10	-8288	632	14640	118	-14	-127	-16472	200	-2464	-30	-23	21	-16152	-1064	-2040	-42	5	-22	125	123	8
-7956	-2148	13700	-17	20	-23	-16200	2040	-1952	0	-19	-5	-15904	1520	-2712	-41	-41	-14	-8320	712	14648	145	-90	-114	-16704	312	-2184	-31	-33	23	-16144	-1040	-2112	-44	16	-18	125	123	8
-7948	-2184	13844	-18	17	-22	-16120	2072	-1968	0	-24	-8	-15976	1448	-2536	-53	-35	-24	-8280	544	14480	134	72	-102	-16552	312	-2400	-33	-37	20	-16144	-976	-1832	-57	27	-7	125	124	8
-7964	-2128	13740	-14	15	-25	-16024	2136	-2128	-28	-29	-8	-15984	1384	-2640	-40	-28	-6	-8256	600	14632	153	83	-143	-16496	216	-2520	-17	-39	26	-16144	-968	-1696	-43	39	-1	125	124	8
-7932	-2144	13732	-16	15	-25	-16168	1936	-1864	-42	-33	-10	-16080	1096	-2568	-39	-12	2	-8192	504	14592	141	85	-108	-16616	328	-2320	-10	-41	27	-16224	-1024	-1808	-21	57	-7	124	124	8
-7932	-2160	13796	-15	16	-22	-16120	2048	-2120	-43	-40	-9	-16064	936	-2504	-39	16	17	-8168	568	14816	187	115	-114	-16600	352	-2176	-3	-39	28	-16256	-864	-1544	-11	69	-3	124	124	8
-7980	-2236	13712	-13	18	-22	-15976	2208	-1976	-55	-39	-4	-16152	952	-2520	-19	23	32	-8184	672	14544	171	157	-88	-16504	272	-1984	7	-34	28	-16208	-624	-1624	-12	68	-3	125	124	8
-7944	-2248	13736	-18	14	-24	-15976	2096	-1824	-53	-36	1	-16088	848	-2296	10	24	51	-8312	640	14792	174	123	-141	-16496	360	-1944	23	-28	33	-16296	-528	-1488	7	52	-4	125	124	8
-7940	-2248	13756	-11	20	-22	-16080	1928	-1520	-24	-28	-3	-16248	1064	-2144	33	21	69	-8336	632	14568	182	129	-109	-16480	288	-2080	38	-28	35	-16200	-576	-1344	21	43	-4	125	124	8
-7968	-2176	13836	-8	22	-15	-15984	1936	-1872	-7	-17	6	-16176	1120	-1944	65	15	68	-8248	592	14480	170	178	-117	-16480	424	-1944	26	-11	37	-16072	-400	-1408	23	50	-1	125	124	8
-7904	-2144	13784	-8	21	-16	-16032	1968	-1864	2	-5	5	-16072	1400	-1920	80	18	65	-8264	768	14640	109	134	-162	-16488	312	-1888	14	1	37	-16288	-448	-1528	15	43	-6	125	125	8
-7940	-2188	13756	-8	19	-16	-15784	2040	-1736	12	9	11	-16128	1560	-1808	83	13	56	-8312	720	14568	161	136	-141	-16392	352	-2048	3	15	34	-16216	-504	-1720	14	47	-1	125	124	8
-7940	-2216	13760	-3	19	-12	-15888	2160	-1848	18	17	15	-15976	1560	-1992	75	15	47	-8272	584	14632	123	148	-181	-16520	328	-2128	-16	16	31	-16256	-600	-1640	34	55	-4	125	125	8
-7948	-2140	13792	3	17	-10	-16128	2056	-1672	42	21	11	-16184	1496	-2032	60	22	37	-8344	560	14472	136	174	-194	-16560	360	-2504	-6	24	27	-16152	-792	-2264	37	59	2	126	125	8
-7960	-2148	13724	0	18	-16	-16064	2176	-1808	31	28	17	-16168	1568	-2520	37	33	37	-8576	728	14552	177	206	-157	-16352	416	-2328	30	17	29	-16208	-864	-2192	69	62	5	126	125	8
-7944	-2132	13888	-6	24	-17	-16160	2192	-1960	33	25	9	-16008	1504	-2664	28	48	45	-8448	600	14720	138	188	-198	-16512	632	-2392	39	13	28	-16008	-960	-2344	97	54	14	126	125	8
-7952	-2148	13768	-3	22	-15	-16120	2136	-1992	16	24	5	-15944	1280	-2752	19	66	54	-8392	464	14568	152	190	-190	-16416	360	-2248	36	8	27	-16048	-864	-2376	109	42	23	126	125	8
-7956	-2076	13820	-8	20	-12	-16008	2048	-1920	2	20	4	-16056	1432	-2720	26	68	60	-8480	648	14504	126	170	-201	-16576	400	-2256	48	9	20	-16096	-808	-2248	123	36	23	127	125	8
-8008	-2116	13756	-6	21	-7	-15912	2160	-2000	22	14	5	-16096	1248	-2536	47	74	63	-8320	752	14592	119	119	-173	-16520	408	-2392	72	1	18	-16128	-912	-2248	137	36	15	126	125	8
-7968	-2092	13828	-8	24	-23	-15824	2080	-2064	19	24	7	-15944	1256	-2496	67	68	70	-8448	704	14616	153	77	-198	-16472	344	-2416	102	-4	22	-16136	-728	-2328	133	50	17	127	125	8
-7948	-2152	13732	-13	23	-16	-16024	1992	-1888	25	27	9	-16072	1264	-2408	88	52	73	-8424	688	14616	163	102	-189	-16600	416	-2304	99	-6	24	-16112	-536	-2304	118	44	11	127	124	8
-7884	-2104	13628	-5	20	-12	-16120	2176	-1944	35	34	6	-16024	1352	-2552	98	54	72	-8392	656	14720	168	89	-178	-16464	496	-2304	91	-8	20	-16048	-232	-2232	105	35	-6	127	125	8
-7924	-2112	13864	-8	30	-8	-16168	2104	-1952	42	37	5	-16104	1552	-2544	119	60	72	-8352	672	14568	158	107	-193	-16512	272	-2232	77	-9	23	-16088	-280	-2032	83	41	-10	127	125	8
-7972	-2136	13812	-5	32	-10	-16040	2376	-2024	38	34	5	-15992	1808	-2976	116	55	73	-8448	728	14408	175	89	-191	-16424	288	-2472	56	1	17	-16232	-464	-1552	58	42	-14	127	125	8
-7916	-2116	13752	-8	29	-10	-16040	2192	-2256	32	33	3	-15976	1744	-3160	94	60	64	-8472	776	14560	150	126	-205	-16296	192	-2096	59	13	10	-16240	-560	-1800	49	42	-14	127	125	8
-8020	-2120	13832	-6	29	-10	-15960	2216	-2384	23	31	-2	-15800	1960	-2952	77	64	57	-8424	648	14688	157	65	-166	-16536	496	-2064	52	25	15	-15984	-520	-1536	55	33	-9	127	125	8
-7988	-2092	13692	-10	24	-15	-15752	2176	-2352	4	28	-4	-15752	1784	-2784	64	66	49	-8360	736	14336	104	99	-212	-16416	504	-2216	26	31	13	-16104	-608	-1944	68	35	0	127	125	8
-7920	-2096	13704	-8	23	-19	-16120	2048	-2000	11	26	-7	-15912	1688	-2968	43	70	43	-8392	728	14512	109	57	-215	-16448	480	-2232	3	38	11	-16016	-720	-2048	67	39	8	127	125	8
-7940	-2096	13744	-9	19	-15	-16312	2232	-2072	21	22	-3	-16176	1640	-2928	36	84	34	-8448	576	14368	119	104	-210	-16504	384	-2320	1	41	10	-15992	-736	-2392	61	43	9	127	125	8
-8004	-2056	13812	-10	23	-14	-15976	2288	-2016	16	31	-6	-15952	1448	-2752	52	92	32	-8408	680	14432	127	21	-224	-16456	328	-2384	12	33	5	-16032	-824	-2800	54	39	-1	128	125	8
-8020	-2136	13748	-8	25	-17	-16064	2224	-1880	-3	27	-5	-15808	1576	-2864	45	74	41	-8280	752	14752	92	43	-181	-16592	312	-2376	20	34	11	-15960	-816	-2240	49	41	-5	128	125	8
-7944	-2068	13800	-12	20	-22	-15856	1840	-1944	2	31	-7	-15872	1248	-3064	25	56	48	-8304	616	14576	86	17	-156	-16600	472	-2368	29	23	7	-16072	-688	-2000	61	40	-12	128	125	8
-8012	-2084	13840	-7	17	-22	-16008	1944	-2032	16	33	-10	-15952	1328	-2824	18	54	45	-8376	680	14584	129	49	-181	-16544	280	-2368	31	22	9	-16144	-944	-2104	46	48	-10	128	125	8
-8000	-2100	13672	-9	16	-18	-16040	2120	-1904	30	39	2	-16056	1232	-2928	29	57	32	-8584	624	14352	151	67	-189	-16408	320	-2336	37	22	11	-16152	-840	-2088	41	49	-1	128	125	8
-8028	-2144	13736	-5	21	-13	-15856	2112	-2080	20	41	3	-15952	1416	-2904	32	54	36	-8392	640	14560	125	89	-161	-16440	112	-2320	40	26	13	-16080	-736	-2272	26	43	-9	127	125	8
-8040	-2140	13776	-6	21	-14	-16096	2152	-1904	18	47	1	-16016	1552	-3240	25	46	44	-8368	664	14576	140	86	-138	-16256	336	-2288	36	25	19	-16128	-720	-2088	14	39	-17	127	125	8
-8076	-2040	13740	-7	19	-15	-16056	2256	-2232	13	39	0	-15792	1664	-3384	18	38	41	-8408	712	14624	153	72	-133	-16512	424	-2440	23	21	15	-16048	-784	-2232	-1	47	-20	127	125	8
-8016	-2068	13776	-7	19	-18	-15952	2160	-2384	11	34	-1	-15712	1448	-3184	30	45	43	-8544	560	14744	108	126	-181	-16600	256	-2512	6	28	17	-16288	-904	-2144	-1	46	-19	127	125	8
-8024	-2016	13820	-5	13	-18	-16032	2088	-2176	10	30	0	-15856	1328	-3232	35	48	28	-8440	616	14608	152	54	-160	-16448	176	-2248	8	24	11	-15896	-976	-2168	-13	42	-14	127	125	8
-8032	-2132	13808	-10	13	-20	-15912	2168	-2328	10	27	6	-15784	1568	-3520	18	44	31	-8504	624	14600	142	75	-146	-16392	280	-2208	7	28	11	-15888	-952	-2328	13	39	-12	128	125	8
-7988	-2124	13752	-12	11	-21	-16024	2120	-2080	15	25	-3	-15888	1616	-3208	6	38	33	-8320	576	14520	114	74	-144	-16552	344	-2224	10	29	12	-16096	-952	-2440	23	37	-9	128	125	8
-7904	-2144	13732	-8	16	-20	-16128	2240	-2368	15	29	-2	-15856	1784	-3376	5	33	32	-8264	680	14536	132	79	-141	-16472	416	-2224	8	26	13	-16048	-1024	-2496	54	40	9	127	125	8
-7960	-2076	13812	-2	19	-17	-16008	2288	-2136	3	21	-3	-15720	1688	-3216	15	34	33	-8456	648	14568	111	45	-196	-16424	392	-2200	6	24	10	-15904	-864	-2640	69	32	8	127	125	8
-8032	-2112	13760	-9	19	-19	-16040	2344	-2152	1	20	-14	-16024	1648	-3408	11	30	27	-8256	616	14552	156	57	-165	-16424	272	-2704	19	15	13	-15888	-712	-2632	66	31	-1	127	125	8
-7992	-2076	13652	-9	20	-17	-15984	2264	-2208	3	17	-10	-15752	1488	-3440	15	25	23	-8328	792	14440	121	64	-189	-16600	376	-2376	34	15	14	-16128	-832	-2712	56	24	-8	127	124	8
-8024	-2096	13784	-9	22	-17	-15912	2056	-2248	6	16	-12	-15976	1480	-3248	26	28	26	-8360	592	14264	152	75	-149	-16448	416	-2400	36	4	14	-16232	-624	-2624	23	20	-17	127	124	8
-8008	-2152	13768	-15	29	-16	-16128	2136	-2152	17	13	-11	-15952	1496	-3176	37	27	23	-8448	816	14688	130	53	-129	-16376	232	-2336	35	10	8	-16080	-776	-2584	11	21	-14	127	124	8
-7996	-2080	13820	-14	33	-18	-15960	2240	-2168	11	17	-16	-15896	1552	-3336	42	21	31	-8616	512	14496	115	24	-146	-16448	360	-2496	28	9	8	-15976	-736	-2360	12	20	-21	127	124	8
-8052	-2028	13720	-10	28	-14	-16056	2112	-2376	4	17	-22	-15896	1520	-3136	32	14	31	-8392	728	14448	135	51	-133	-16392	224	-2336	13	9	12	-16032	-704	-2408	3	11	-22	127	124	8
-8044	-2048	13776	-12	31	-19	-15984	1936	-2200	19	17	-10	-16024	1496	-3232	7	10	26	-8408	600	14648	147	-5	-144	-16480	352	-2344	-6	15	10	-16176	-800	-2400	-5	16	-15	127	124	8
-8072	-2060	13680	-13	27	-16	-15936	2216	-2352	20	21	-10	-15832	1592	-3224	3	13	22	-8496	728	14520	112	-10	-160	-16352	344	-2504	2	18	8	-15968	-968	-2344	-3	13	-7	127	125	8
-8016	-2068	13660	-11	21	-13	-15840	2224	-2400	12	17	-10	-15616	1632	-3328	5	10	19	-8360	664	14624	97	-43	-166	-16552	304	-2504	6	16	12	-15936	-856	-2352	18	11	-16	127	124	8
-8060	-2028	13740	-13	20	-15	-16032	1984	-2320	-5	12	-14	-15880	1616	-3376	-14	5	19	-8472	624	14712	73	-28	-171	-16624	408	-2512	0	14	10	-16104	-904	-2440	15	19	-7	127	124	8
-8028	-2008	13716	-10	17	-17	-16008	2248	-2080	-5	11	-12	-15856	1472	-3608	-23	1	8	-8400	736	14704	119	-66	-160	-16472	400	-2416	-5	13	7	-15848	-936	-2416	10	22	-2	127	124	8
-8040	-2028	13640	-11	14	-21	-15864	2120	-2232	-10	5	-12	-15816	1536	-3472	-28	4	5	-8464	544	14624	110	-2	-132	-16464	456	-2528	2	16	10	-16064	-1024	-2568	26	18	-13	127	124	8
-8040	-2108	13840	-11	19	-22	-15920	2104	-2328	-6	2	-14	-15760	1440	-3496	-46	-8	8	-8600	552	14592	102	-19	-119	-16496	360	-2344	3	15	17	-15976	-872	-2464	14	15	-7	127	124	8
-8072	-2048	13716	-9	14	-19	-15968	2040	-2176	-9	0	-9	-15928	1520	-3296	-47	-5	13	-8520	584	14568	106	7	-124	-16256	232	-2464	4	13	18	-16024	-1048	-2576	7	15	-4	127	124	8
-8024	-1980	13660	-10	12	-25	-16032	2136	-2256	-20	-5	-10	-15992	1376	-3200	-17	-1	12	-8408	704	14480	120	-1	-109	-16512	264	-2576	9	7	19	-16136	-1064	-2728	22	19	-6	127	124	8
-8064	-2100	13704	-10	9	-19	-15992	2104	-2296	-19	-4	-8	-16120	1536	-3072	0	3	13	-8336	576	14432	107	23	-136	-16520	288	-2448	7	8	17	-16064	-840	-2472	7	22	-10	127	124	8
-7916	-2040	13652	-13	14	-18	-15976	2048	-1912	3	-2	-10	-15816	1488	-3408	-4	-2	22	-8424	544	14384	91	43	-130	-16600	120	-2384	-2	6	17	-15928	-704	-2496	-4	12	-13	127	124	8
-8024	-2048	13780	-12	12	-21	-16120	2120	-2456	-2	2	-9	-15800	1504	-3608	-8	-6	30	-8424	600	14560	162	43	-151	-16448	344	-2352	1	3	19	-15888	-856	-2616	-11	21	-9	127	124	8
-8020	-2024	13728	-17	13	-20	-16144	2296	-2032	-8	0	-13	-15928	1544	-3312	-7	-6	28	-8472	672	14696	133	57	-115	-16480	208	-2560	3	5	16	-16120	-880	-2336	-10	19	-10	127	125	8
-7988	-2000	13664	-10	24	-24	-15960	1928	-1968	0	-4	-12	-16008	1600	-3120	19	1	21	-8392	648	14520	134	57	-135	-16592	192	-2520	-9	-3	19	-16088	-760	-2592	-17	22	-8	127	124	8
-8076	-2052	13760	-15	23	-22	-16024	2088	-2328	15	1	-7	-16256	1616	-3040	40	-4	14	-8456	568	14576	134	63	-158	-16552	256	-2592	-19	9	9	-16168	-840	-2440	-29	17	-10	127	124	8
-8060	-2132	13668	-7	23	-19	-15888	2080	-2296	-3	2	-12	-15848	1512	-3400	12	-11	13	-8400	720	14560	123	86	-168	-16224	120	-2520	-10	6	21	-16080	-760	-2536	10	-3	-12	127	124	8
-8052	-2060	13732	-12	24	-15	-15984	2168	-2304	-16	3	-15	-15760	1616	-3304	-28	-23	10	-8344	496	14664	138	52	-150	-16480	272	-2448	10	6	25	-15768	-960	-2376	30	4	-12	127	124	8
-8088	-2100	13800	-15	24	-13	-16008	1936	-2288	-12	6	-8	-15720	1416	-3432	-58	-18	10	-8488	704	14536	151	68	-170	-16528	408	-2536	12	7	19	-16032	-992	-2608	44	13	-6	127	124	8
-8052	-2052	13656	-12	20	-15	-16144	2104	-2360	-7	2	-6	-15840	1432	-3512	-37	-6	13	-8416	600	14448	108	17	-137	-16696	200	-2440	3	3	16	-16176	-1328	-2864	20	22	10	127	124	8
-8044	-2048	13704	-9	21	-17	-15904	2064	-2416	5	-4	3	-15936	1480	-3568	1	-8	16	-8400	576	14496	150	127	-127	-16392	168	-2728	10	-1	21	-15968	-1024	-2704	15	14	3	127	124	8
-8076	-2064	13768	-10	21	-14	-15912	2264	-2360	7	-6	-12	-15936	1280	-3440	-8	-8	29	-8272	472	14488	154	56	-146	-16328	328	-2472	18	-5	18	-15840	-808	-2568	32	8	3	127	125	8
-8132	-2020	13696	-14	18	-19	-15840	2360	-2296	-15	-7	-10	-15720	1320	-3376	-16	-9	37	-8584	552	14512	119	69	-102	-16256	448	-2376	8	-11	25	-15840	-768	-2336	32	14	9	127	124	8
-8116	-1992	13716	-13	10	-23	-15752	2072	-2352	-23	-5	-8	-15592	1456	-3416	-10	-5	34	-8528	624	14544	159	-33	-138	-16448	224	-2720	-1	-12	23	-15912	-928	-2536	21	5	8	127	124	8
-8004	-2048	13584	-15	4	-21	-16008	2096	-2176	-4	-11	-2	-15856	1512	-3288	-3	-2	28	-8448	600	14256	129	-37	-129	-16560	88	-2416	17	-10	19	-16008	-936	-2536	14	14	3	127	124	8
-8096	-2088	13708	-13	11	-25	-16120	2048	-2200	21	-11	0	-16040	1560	-3264	29	0	20	-8440	664	14416	148	-17	-131	-16448	216	-2608	21	-9	24	-16160	-880	-2456	-12	19	0	127	124	8
-8080	-2084	13676	-11	15	-19	-15936	2280	-2360	5	-9	-1	-15936	1400	-3360	47	-1	30	-8472	536	14432	136	-25	-103	-16528	232	-2432	12	-9	18	-16096	-624	-2296	-19	18	-5	127	124	8
-8004	-2140	13712	-9	16	-24	-15944	2168	-2104	-17	-7	-9	-16096	1408	-3240	43	-1	31	-8496	576	14680	142	16	-87	-16536	312	-2328	-7	-1	24	-16232	-784	-2224	-14	20	-3	127	124	8
-8056	-2088	13704	-9	24	-21	-15936	1904	-1960	-10	-6	-1	-15832	1320	-2968	33	4	27	-8520	536	14280	147	48	-158	-16408	296	-2528	-10	5	23	-16128	-968	-2400	13	11	7	127	124	8
-8084	-2000	13688	-7	14	-14	-15888	1872	-2112	7	0	1	-15824	1432	-3056	23	2	29	-8488	624	14744	124	76	-158	-16480	232	-2640	12	2	23	-16088	-1048	-2464	44	2	2	128	124	8
-8076	-2052	13752	-8	17	-21	-16008	2072	-2232	13	9	8	-15888	1352	-3232	-7	-21	33	-8536	632	14592	100	29	-174	-16640	192	-2624	24	8	25	-16064	-1056	-2440	54	9	2	128	124	8
-8044	-2084	13724	-8	17	-17	-16088	2080	-2216	33	16	6	-15904	1648	-3184	-17	-35	26	-8560	632	14312	164	40	-186	-16360	232	-2664	17	-2	24	-15808	-1048	-2792	68	19	16	127	124	8
-7988	-2072	13668	-5	17	-19	-16040	2080	-2032	35	24	11	-15992	1760	-3216	5	-40	24	-8416	576	14592	187	47	-123	-16352	312	-2760	28	0	22	-15728	-1040	-2640	74	16	23	128	124	8
-8056	-2124	13792	-5	25	-11	-16144	2304	-2528	25	20	7	-16000	1592	-2968	16	-37	15	-8528	712	14256	166	32	-123	-16504	448	-2304	32	-7	24	-15984	-888	-2768	63	12	22	127	124	8
-8072	-2012	13684	-7	23	-8	-16008	2344	-2456	6	22	-1	-15968	1536	-3232	9	-35	21	-8456	672	14672	121	-17	-168	-16464	256	-2688	16	-9	24	-16008	-640	-2648	41	5	25	127	124	8
-8132	-2016	13724	-6	27	-16	-15912	2408	-2472	2	14	2	-15792	1472	-3520	8	-7	31	-8464	600	14416	129	32	-163	-16400	232	-2568	15	-10	25	-16016	-752	-2424	32	8	7	128	124	8
-8080	-1996	13720	-10	25	-18	-15832	2120	-2512	9	6	-3	-15632	1624	-3840	9	3	31	-8576	600	14376	127	7	-128	-16312	320	-2480	30	-9	27	-15880	-744	-2696	21	8	-8	127	124	8
-8072	-2004	13716	-8	25	-20	-15848	2096	-2368	17	-5	-4	-15568	1576	-3776	18	2	34	-8536	536	14544	96	-8	-132	-16336	352	-2408	19	-7	27	-15840	-752	-2408	15	5	-13	128	124	8
-8076	-2024	13768	-14	18	-21	-15888	2112	-2296	6	-8	-7	-15824	1648	-3576	25	1	41	-8544	624	14448	131	0	-99	-16568	216	-2424	5	-10	23	-15872	-744	-2592	5	2	-5	127	124	8
-8100	-2080	13708	-10	17	-18	-16048	2352	-2304	-17	-13	-8	-15856	1520	-3400	21	-7	44	-8344	576	14376	115	17	-98	-16608	360	-2384	5	-4	20	-16112	-792	-2464	0	4	7	127	124	8
-8048	-2040	13676	-12	19	-18	-16040	1984	-2288	-14	-13	-7	-15904	1560	-3328	38	3	43	-8504	632	14400	143	35	-126	-16592	352	-2320	1	-5	23	-16032	-872	-2448	30	5	19	127	124	8
-8092	-1996	13656	-14	22	-22	-15952	2104	-2248	-11	-13	-7	-15832	1560	-3320	67	6	34	-8488	784	14576	131	64	-161	-16560	208	-2432	11	-5	25	-16096	-1000	-2288	57	7	18	127	124	8
-8020	-2056	13684	-15	21	-17	-16168	2080	-2440	1	-14	0	-15840	1552	-3312	50	-3	36	-8536	600	14672	128	82	-174	-16328	344	-2472	22	3	27	-15984	-712	-2384	70	14	21	127	124	8
-8128	-2108	13764	-8	22	-25	-15936	2104	-2232	7	-9	0	-15944	1672	-3224	27	-4	33	-8520	728	14592	100	92	-172	-16352	296	-2496	25	-4	26	-15944	-920	-2456	54	15	15	127	124	8
-8048	-2048	13708	-11	22	-22	-15968	2056	-2200	-10	-9	-5	-15944	1584	-3096	27	-10	40	-8520	624	14472	144	49	-162	-16360	328	-2664	3	-1	20	-16008	-744	-2824	31	16	14	127	124	8
-8092	-2020	13708	-7	17	-18	-15768	2184	-2200	-11	-4	-3	-15800	1544	-3000	5	-6	38	-8480	656	14504	140	-17	-110	-16328	288	-2656	6	1	21	-15888	-752	-2648	32	5	1	127	124	8
-8072	-1992	13740	-12	13	-22	-15760	2080	-2216	-7	-2	1	-15816	1560	-3000	1	2	32	-8608	704	14504	125	-44	-105	-16328	288	-2488	26	1	24	-15944	-744	-2424	31	8	-5	127	124	8
-8032	-2016	13660	-2	8	-20	-15864	2312	-2184	9	4	2	-15848	1488	-3016	2	9	27	-8520	680	14512	101	-79	-141	-16448	448	-2704	24	1	29	-15976	-808	-2712	24	18	-2	127	124	8
-7956	-1960	13732	-5	9	-21	-16040	2152	-2304	23	8	0	-15960	1584	-3208	14	13	32	-8520	576	14176	115	-101	-153	-16552	336	-2632	31	5	24	-16240	-768	-2568	8	25	2	127	124	8
-8076	-2040	13744	-11	15	-25	-16120	2128	-2384	19	11	5	-16160	1568	-3168	13	17	38	-8544	648	14328	96	-29	-184	-16680	256	-2424	29	16	21	-16312	-912	-2400	28	24	0	127	124	8
-8076	-2076	13660	-13	21	-20	-16088	2120	-2336	1	12	6	-16024	1352	-3216	13	17	37	-8472	712	14624	135	-17	-193	-16512	360	-2224	28	14	24	-16008	-1056	-2424	50	28	1	127	123	8
-8092	-2068	13704	-6	23	-14	-15880	2184	-1944	-7	19	1	-15832	1328	-3416	8	15	41	-8560	664	14528	138	39	-159	-16280	160	-2536	29	13	20	-15664	-992	-2336	64	28	13	127	124	8
-8020	-2016	13732	-8	21	-13	-15904	2064	-2408	16	27	6	-15832	1448	-3136	-8	13	39	-8552	616	14688	109	-8	-179	-16216	304	-2864	30	13	23	-15784	-808	-2584	48	32	13	127	123	8
-8080	-2080	13672	-5	20	-19	-16080	2240	-2424	0	25	11	-15928	1576	-3536	-18	14	40	-8536	592	14616	144	-25	-165	-16616	344	-2448	30	17	27	-16392	-608	-2328	20	46	0	127	124	8
-8048	-1996	13716	-4	25	-15	-16248	2040	-2320	16	13	6	-16136	1648	-3552	-13	19	31	-8392	816	14712	126	59	-163	-16896	96	-2040	5	24	22	-16440	-688	-2192	-19	61	-4	127	123	8
-8120	-2000	13720	-8	39	-7	-16168	2208	-2448	18	14	9	-16000	1704	-3832	-5	14	17	-8320	608	14672	29	71	-148	-16752	-32	-2208	-55	6	6	-16280	-888	-2112	-34	44	-29	127	123	8
-8080	-2024	13608	-6	48	-8	-16064	2296	-2296	-25	15	12	-15736	1832	-3760	-36	-15	19	-8384	640	14408	-117	148	-193	-16688	152	-2416	-85	0	-1	-16088	-984	-2264	-7	22	-30	127	123	8
-8188	-2096	13652	-6	43	-6	-15800	2200	-2584	-55	10	9	-15576	1760	-3600	-98	-38	12	-8480	480	14344	-28	266	-162	-16200	152	-2568	-80	11	23	-15960	-1256	-2464	18	11	-8	127	123	8
-8096	-2040	13716	-5	34	-2	-15760	2056	-2584	-49	7	9	-15504	1864	-3648	-142	-45	11	-8488	608	14384	52	313	-149	-16464	-16	-2640	-57	31	22	-15888	-1472	-3024	35	18	6	127	123	8
-8172	-1976	13704	-6	18	-9	-15552	2032	-2568	-62	5	13	-15424	1736	-3640	-133	-47	2	-8576	568	14240	96	286	-165	-16200	384	-2864	-13	40	43	-15472	-1000	-3352	23	41	18	127	123	8
-8144	-1944	13668	-5	4	-17	-15560	2392	-2632	-59	-8	6	-15264	1824	-3984	-110	-40	-3	-8688	504	14752	203	206	-141	-16064	536	-3040	-18	39	46	-15472	-672	-3336	12	47	14	126	123	8
-8152	-1956	13704	-7	-10	-25	-15760	2320	-2896	-55	-11	12	-15472	1656	-4168	-97	-26	2	-8560	560	14376	168	106	-101	-16312	592	-2992	-29	25	48	-15560	-736	-3824	-11	44	1	126	123	8
-8116	-1936	13788	-12	-17	-30	-16040	2424	-2496	-46	-26	7	-15824	1496	-3776	-50	-3	6	-8616	736	14192	251	22	-71	-16288	528	-2960	-24	23	42	-15864	-992	-3464	-39	32	-8	126	124	8
-8104	-2048	13644	-7	-10	-34	-16104	2200	-2224	-16	-34	8	-16064	1520	-3560	-15	4	18	-8560	672	14720	243	27	-70	-16416	376	-2608	-8	9	53	-16064	-1096	-3168	-43	27	-7	126	124	8
-8064	-2072	13728	-16	0	-29	-16096	2256	-2208	-1	-39	4	-16000	1288	-3304	2	7	35	-8528	560	14632	253	58	-91	-16448	392	-2824	33	5	47	-15912	-952	-3048	-40	15	-16	125	124	8
-8068	-2068	13692	-14	7	-29	-16088	2280	-2056	-15	-27	-5	-16088	1264	-3064	33	1	44	-8528	728	14536	199	6	-58	-16360	528	-2488	65	-2	46	-16080	-768	-2752	-29	19	-7	125	124	8
-8092	-2088	13736	-12	12	-31	-15992	2088	-2024	-18	-16	0	-15872	1536	-2632	47	0	48	-8512	576	14472	215	6	-122	-16512	512	-2376	45	-3	45	-16048	-608	-2640	-26	27	4	126	124	8
-8036	-2120	13648	-13	11	-22	-15864	2184	-2168	5	-7	5	-16056	1720	-2896	51	-8	36	-8624	616	14648	179	-34	-132	-16496	568	-2520	43	-5	41	-15992	-856	-2376	-16	3	4	126	124	8
-8060	-2028	13660	-13	17	-22	-15944	2200	-2360	17	1	9	-15952	1928	-2992	24	-26	31	-8528	752	14448	131	-44	-121	-16248	280	-2408	41	11	28	-15976	-704	-2464	-4	2	-6	126	124	8
-8060	-1956	13748	-8	15	-16	-15896	2248	-2152	18	6	5	-15720	1896	-3272	6	-25	23	-8488	640	14664	127	-63	-122	-16376	528	-2640	31	19	30	-15968	-528	-2400	-11	5	-10	126	125	8
-8072	-1976	13644	-12	14	-19	-16000	2368	-2648	6	10	3	-15752	1920	-3512	-32	-32	15	-8400	704	14472	113	-37	-163	-16528	528	-2464	-5	17	20	-16128	-552	-2640	-12	20	-5	126	125	8
-8052	-2044	13716	-7	15	-21	-16080	2448	-2456	5	8	3	-15648	2096	-3904	-77	-31	8	-8464	600	14720	93	-28	-147	-16600	184	-2472	-14	30	17	-16168	-784	-2568	-20	27	-12	126	125	8
-8092	-1972	13768	-14	18	-19	-15952	2376	-2624	-8	-2	-2	-15832	2064	-3888	-109	-27	-8	-8624	600	14392	77	-46	-164	-16632	456	-2632	-1	28	15	-16048	-760	-2568	-16	19	-14	126	125	8
-8096	-1956	13656	-15	21	-16	-16208	2296	-2528	-31	-9	-6	-15720	2024	-3880	-111	-28	-23	-8464	640	14504	81	35	-217	-16608	432	-2536	-23	31	20	-16080	-1072	-2392	-10	23	-6	126	124	8
-8136	-2036	13596	-16	25	-18	-15960	2240	-2552	-44	-17	-12	-15704	1912	-3888	-98	-26	-26	-8496	600	14352	110	64	-147	-16472	280	-2752	-23	30	19	-15984	-1232	-2792	6	7	-6	126	125	8
-8064	-1976	13856	-16	25	-18	-15896	2432	-2528	-62	-20	-10	-15648	1520	-3576	-98	-36	-23	-8472	752	14512	139	65	-125	-16288	368	-2768	-5	27	22	-15688	-1288	-3024	32	8	2	126	124	8
-8200	-2064	13676	-13	17	-23	-15824	2248	-2520	-65	-26	-11	-15640	1160	-3528	-95	-44	-11	-8544	536	14648	116	77	-140	-16376	560	-2864	1	15	26	-15784	-1280	-3120	29	9	1	126	124	8
-8116	-2008	13708	-12	9	-23	-15904	2112	-2368	-39	-23	-8	-15584	1096	-3512	-66	-38	4	-8624	488	14408	131	-34	-129	-16208	360	-3048	-11	-5	22	-15832	-1240	-3712	8	10	9	126	124	8
-8144	-2012	13760	-14	6	-29	-15928	2064	-2560	-10	-25	-7	-15704	1144	-3544	-4	-30	17	-8608	544	14648	140	-82	-63	-16464	464	-3152	10	-10	20	-15752	-1280	-3424	5	3	6	126	124	8
-8096	-2028	13656	-17	1	-25	-15936	2176	-2320	-4	-31	-2	-15976	1368	-3232	25	-23	29	-8528	432	14536	132	-72	-64	-16360	464	-2480	24	-19	24	-15856	-1032	-3336	4	0	6	126	124	8
-8112	-2048	13708	-15	6	-32	-16032	2288	-2536	-9	-23	-4	-16040	1448	-3128	49	-16	48	-8368	720	14712	126	-99	-56	-16528	456	-2632	23	-23	21	-15928	-984	-2848	0	-10	11	126	125	8
-8040	-2016	13688	-13	8	-28	-15976	2304	-2184	0	-17	-2	-16008	1552	-3064	74	-15	49	-8448	584	14584	155	-74	-115	-16632	376	-2720	29	-34	24	-16104	-984	-2944	35	-22	12	126	124	8
-8048	-2048	13772	-12	17	-25	-16072	2152	-2232	28	-14	-3	-16024	1456	-3168	73	-12	49	-8464	496	14520	180	-61	-103	-16520	288	-2576	38	-34	22	-16024	-960	-2936	36	-20	11	126	124	8
-8060	-2060	13680	-16	21	-23	-15976	2408	-2352	39	-14	2	-15968	1680	-3080	62	-24	41	-8552	568	14632	152	-17	-146	-16424	264	-2592	42	-40	25	-15960	-1080	-2888	77	-21	24	126	124	8
-7996	-2012	13720	-8	22	-21	-15928	2352	-2136	30	-9	5	-15808	1880	-3440	42	-37	38	-8512	552	14480	177	-14	-95	-16376	480	-2592	47	-38	25	-15808	-1024	-2944	70	-28	31	126	124	8
-8104	-1944	13768	-11	15	-19	-15776	2184	-2376	18	-8	1	-15680	1952	-3696	4	-48	38	-8528	672	14368	178	-45	-102	-16384	384	-2512	43	-38	24	-15888	-816	-2608	61	-25	32	126	124	8
-8028	-2020	13588	-16	12	-21	-15776	2384	-2824	0	-11	-4	-15600	1936	-3544	-14	-45	36	-8616	776	14440	169	-84	-109	-16392	496	-2688	15	-37	25	-15784	-1000	-2936	52	-13	27	126	124	8
-8112	-1968	13836	-12	7	-27	-15880	2488	-2624	-8	-20	-5	-15672	1744	-3640	0	-30	19	-8664	592	14440	161	-92	-95	-16440	416	-2608	11	-27	22	-15984	-552	-2656	32	-12	23	126	124	8
-8132	-2000	13768	-13	6	-35	-15952	2408	-2440	-11	-28	-3	-15800	1776	-3872	6	-29	19	-8488	720	14432	138	-113	-95	-16464	472	-2280	15	-27	26	-16112	-616	-2640	21	-14	13	126	124	8
-8104	-2032	13796	-19	2	-29	-15968	2216	-2304	-7	-36	-7	-15896	1624	-3552	-2	-30	14	-8512	568	14416	121	-60	-145	-16552	520	-2496	4	-22	27	-16192	-456	-2672	-2	-10	10	125	124	8
-8072	-2036	13756	-17	8	-30	-16008	2384	-2600	-15	-35	-7	-16024	1616	-3280	1	-31	17	-8488	640	14696	132	-104	-100	-16560	400	-2472	-3	-19	21	-16152	-704	-2576	-6	-19	10	125	124	8
-8052	-2052	13744	-17	11	-27	-16080	2432	-2272	-21	-34	-15	-15856	1512	-3192	9	-38	20	-8496	576	14624	125	-19	-133	-16504	312	-2304	3	-18	25	-16016	-912	-2568	15	-27	10	126	124	8
-8032	-1996	13788	-18	11	-21	-15984	2320	-2152	-22	-35	-11	-15968	1632	-3264	-3	-45	22	-8528	640	14488	150	-26	-139	-16288	416	-2432	-1	-15	30	-15768	-1120	-2936	34	-24	13	125	124	8
-8104	-1944	13664	-13	8	-24	-15840	2200	-2224	-31	-26	-7	-15672	1616	-3080	-7	-50	26	-8512	632	14528	129	-17	-107	-16384	560	-2960	-7	-14	25	-15768	-1032	-2968	43	-9	25	125	124	8
-8040	-1984	13724	-17	6	-28	-15976	2168	-1920	-14	-23	-11	-15720	1536	-3416	-13	-48	22	-8576	616	14616	123	-10	-104	-16528	416	-2784	-14	-24	23	-15984	-840	-3056	40	-8	23	125	124	8
-8080	-2012	13736	-13	9	-25	-16032	2368	-1984	1	-19	-3	-16024	1608	-3152	-7	-37	17	-8448	648	14512	161	-36	-92	-16584	384	-2536	0	-24	17	-15848	-960	-2936	40	-6	21	125	124	8
-8088	-2004	13768	-13	6	-25	-15976	2240	-2136	-3	-18	-3	-15880	1760	-3112	15	-32	14	-8328	776	14432	155	-76	-123	-16264	432	-2584	19	-28	24	-15928	-832	-2960	47	-15	18	125	124	8
-8088	-2036	13624	-16	10	-26	-16000	2384	-2128	-10	-17	-8	-15880	1768	-3064	10	-35	22	-8376	728	14432	127	-51	-116	-16352	464	-2808	21	-23	26	-16072	-640	-2880	37	-25	19	126	124	8
-8056	-2008	13732	-14	16	-25	-16248	2296	-2120	-1	-15	-4	-16040	1568	-3216	4	-31	26	-8520	664	14488	153	10	-124	-16632	504	-2720	32	-31	25	-16144	-736	-2864	44	-30	9	126	124	8
-7996	-2020	13688	-18	29	-23	-16088	2344	-2184	17	-12	-1	-16056	1312	-3176	7	-36	25	-8416	736	14296	151	13	-146	-16520	496	-2496	24	-28	21	-16024	-984	-2856	49	-31	16	126	124	8
-8028	-1996	13704	-16	27	-15	-15856	2360	-2104	13	-7	-3	-16112	1504	-3168	14	-35	28	-8464	688	14568	157	59	-141	-16328	344	-2480	36	-31	18	-15728	-1152	-2552	84	-42	14	126	124	8
-8108	-2040	13660	-17	28	-19	-15976	2280	-2248	7	-12	-9	-15888	1680	-3248	15	-50	35	-8616	552	14232	124	59	-164	-16488	584	-2560	41	-34	20	-15896	-968	-2656	103	-32	20	126	124	8
-8084	-1976	13768	-11	26	-14	-15752	2368	-2336	-8	-7	-12	-15600	1696	-3432	14	-48	31	-8536	648	14488	162	-24	-123	-16352	552	-2712	26	-39	22	-15944	-808	-3000	76	-24	31	126	124	8
-8088	-1964	13672	-12	14	-22	-15536	2360	-2456	6	-6	-12	-15600	1824	-3376	23	-46	26	-8416	448	14584	120	-88	-112	-16144	496	-2536	25	-32	14	-15632	-488	-2632	24	-18	23	126	124	8
-8176	-1948	13656	-14	-1	-26	-15568	2336	-2304	10	-7	-15	-15472	1808	-3208	19	-33	25	-8512	624	14232	72	-217	-39	-15992	680	-2528	27	-27	14	-15536	-152	-2560	-3	-5	2	126	124	8
-8136	-1928	13744	-11	-23	-40	-15680	2488	-2272	3	-18	-10	-15384	1992	-3680	29	-14	19	-8456	608	14368	63	-350	-93	-15888	784	-2304	6	-23	15	-15560	96	-2472	-42	11	-13	125	124	8
-8136	-1948	13632	-17	-32	-54	-15840	2352	-2384	-2	-16	-9	-15656	1768	-3392	31	6	8	-8480	640	14384	21	-514	-164	-16352	656	-2440	-43	-17	16	-16288	-240	-2184	-82	18	-44	125	124	8
-8028	-2024	13796	-15	-40	-50	-16192	2104	-2128	19	-20	-7	-15984	1488	-3408	25	13	5	-8592	664	14568	30	-485	-142	-16928	360	-2400	-37	6	7	-16416	-320	-2152	-113	25	-40	126	124	8
-8028	-2236	13872	-15	-26	-42	-16448	2296	-2248	41	-31	-14	-16496	1360	-3208	8	11	0	-8344	712	14768	41	-486	-136	-17032	40	-2280	-32	14	14	-16792	-912	-1816	-115	14	-52	126	125	8
-7952	-2092	13688	-21	0	-36	-16656	2368	-1776	-3	-26	-8	-16808	1384	-3016	-11	-11	2	-8192	656	14616	99	-36	-155	-17344	184	-2064	-36	30	14	-16728	-1160	-1840	-94	0	-44	125	125	8
-7944	-2196	13612	-16	33	-12	-16528	2136	-1800	-48	-18	-13	-16528	1624	-2736	-59	-35	-9	-8360	608	14584	163	233	-139	-17016	72	-2272	-44	35	25	-16488	-1448	-2168	-35	5	-14	126	124	8
-8012	-2180	13712	-18	60	0	-16232	2224	-1528	-77	-8	-17	-16192	1760	-2392	-121	-48	-11	-8384	600	14448	178	458	-166	-16632	48	-2560	-24	40	23	-15952	-1512	-2528	41	4	7	126	125	8
-8044	-2000	13796	-22	71	3	-15944	2072	-2104	-92	5	-1	-15624	1704	-2640	-144	-72	-19	-8456	504	14400	199	479	-144	-16320	360	-2528	1	37	29	-15632	-1800	-2992	114	0	20	127	124	8
-8016	-2044	13672	-7	55	-3	-15464	2160	-2184	-80	20	9	-15352	1472	-3008	-143	-71	-4	-8496	616	14768	203	462	-163	-16376	512	-2992	30	37	42	-15800	-1328	-3168	132	4	22	127	124	8
-8148	-2028	13636	-7	32	-7	-15360	2104	-2352	-47	23	14	-15424	1224	-3088	-128	-64	-8	-8488	568	14352	186	278	-103	-16008	560	-2736	43	26	37	-15720	-648	-3384	83	33	56	126	124	8
