#Activity	sitting 
#ActivityID	5 
#Date 08-22-17-12
acc_rf_x	acc_rf_y	acc_rf_z	gyro_rf_x	gyro_rf_y	gyro_rf_z	acc_rs_x	acc_rs_y	acc_rs_z	gyro_rs_x	gyro_rs_y	gyro_rs_z	acc_rt_x	acc_rt_y	acc_rt_z	gyro_rt_x	gyro_rt_y	gyro_rt_z	acc_lf_x	acc_lf_y	acc_lf_z	gyro_lf_x	gyro_lf_y	gyro_lf_z	acc_ls_x	acc_ls_y	acc_ls_z	gyro_ls_x	gyro_ls_y	gyro_ls_z	acc_lt_x	acc_lt_y	acc_lt_z	gyro_lt_x	gyro_lt_y	gyro_lt_z	EMG_r	EMG_l	act
-8268	-5448	12648	-15	15	-25	-14992	752	-6528	7	3	-7	-3784	-4208	16064	4	-10	22	-8280	4768	13608	19	-1	-17	-15400	-1168	-5368	6	-5	17	-2304	5120	16064	21	2	-5	117	134	5
-8300	-5400	12684	-7	15	-23	-15040	752	-6312	5	2	-5	-3896	-4016	16312	5	-9	24	-8216	4864	13776	18	4	-20	-15384	-1200	-5456	-1	-4	20	-2480	5128	16080	18	1	-2	117	134	5
-8252	-5424	12728	-8	10	-21	-15016	736	-6400	2	3	-10	-3824	-4064	16032	-1	-12	20	-8304	4880	13784	20	-6	-17	-15624	-1280	-5600	2	-7	18	-2544	5360	16160	21	0	-2	116	134	5
-8224	-5428	12708	-11	14	-24	-14888	656	-6504	4	-1	-12	-3920	-4056	16080	-6	-11	21	-8208	4920	13768	18	-2	-22	-15464	-1224	-5304	6	0	15	-2664	5232	15960	21	0	2	116	133	5
-8288	-5536	12704	-19	12	-27	-15048	784	-6472	6	4	-15	-3952	-4168	16240	-9	-9	20	-8240	4792	13712	18	-2	-19	-15536	-1288	-5392	5	-4	16	-2560	5184	16192	21	6	3	118	133	5
-8296	-5488	12628	-16	16	-23	-15016	624	-6488	11	3	-12	-3776	-4000	16344	-10	-13	20	-8208	4808	13968	20	-7	-21	-15576	-1272	-5640	11	-4	14	-2584	5048	16256	22	5	5	117	134	5
-8252	-5420	12680	-18	16	-25	-14936	688	-6408	6	6	-17	-3896	-4112	16200	-9	-13	17	-8280	4880	13912	17	-5	-22	-15472	-1280	-5560	12	-4	17	-2568	5248	15976	26	4	6	117	133	5
-8200	-5444	12644	-18	16	-25	-14792	752	-6488	4	1	-12	-3776	-4088	16032	-5	-16	28	-8304	4864	13736	18	0	-24	-15560	-1304	-5416	9	-7	14	-2600	5312	16080	26	2	10	117	133	5
-8252	-5432	12664	-13	16	-20	-14920	656	-6480	0	3	-11	-3808	-4224	16024	-6	-17	23	-8200	4816	13976	8	-1	-19	-15456	-1312	-5632	12	-7	13	-2584	5192	16168	23	4	6	115	134	5
-8268	-5428	12620	-13	12	-25	-15080	808	-6520	1	-3	-11	-3832	-4232	16152	-2	-17	26	-8264	4968	13728	16	4	-18	-15392	-1296	-5608	7	-4	15	-2664	5136	16360	20	0	6	117	133	5
-8248	-5424	12744	-16	13	-24	-14920	656	-6440	-1	-1	-12	-3784	-4160	16096	-3	-17	20	-8152	4936	13576	17	-7	-18	-15464	-1328	-5472	7	-10	13	-2536	5256	16216	16	2	5	118	133	5
-8240	-5480	12624	-14	16	-24	-14944	688	-6384	2	-4	-7	-3928	-4080	16056	3	-13	21	-8168	4784	13664	17	-5	-25	-15464	-1152	-5504	9	-6	17	-2656	5200	16240	15	1	7	117	133	5
-8280	-5512	12728	-10	15	-20	-15024	608	-6592	3	0	-11	-3912	-4184	15968	1	-12	23	-8216	4856	13824	14	-1	-21	-15448	-1264	-5640	7	-8	12	-2648	5168	16216	17	2	10	117	133	5
-8268	-5476	12724	-14	13	-19	-14944	616	-6400	-4	-5	-10	-3856	-4136	16272	5	-12	20	-8128	4712	13792	17	-2	-21	-15552	-1304	-5416	13	-11	14	-2664	5152	16320	12	0	6	116	133	5
-8280	-5404	12712	-13	14	-24	-14952	640	-6448	3	-5	-11	-3856	-4200	15936	7	-14	21	-8240	4888	13776	15	-2	-21	-15432	-1264	-5520	16	-11	15	-2680	5136	15952	7	-2	3	116	133	5
-8256	-5488	12652	-10	12	-23	-14912	664	-6472	1	-4	-13	-3688	-4312	16136	0	-17	16	-8272	4808	13800	14	-7	-17	-15480	-1264	-5296	15	-12	18	-2592	5024	16272	12	1	3	118	133	5
-8252	-5444	12732	-12	13	-23	-15008	720	-6400	6	-8	-6	-3880	-4160	15888	4	-14	15	-8264	4824	13520	19	-6	-16	-15496	-1280	-5328	12	-14	15	-2432	5000	16328	16	0	3	118	134	5
-8240	-5472	12652	-8	14	-28	-14952	664	-6464	6	0	-8	-3904	-4088	16312	4	-8	17	-8368	4856	13920	18	-4	-18	-15536	-1312	-5416	12	-10	19	-2624	5064	16152	21	-1	6	117	134	5
-8256	-5476	12732	-7	13	-21	-14952	656	-6536	8	-1	-5	-3688	-4264	16032	7	-11	20	-8384	4752	13640	19	-3	-20	-15480	-1392	-5672	4	-11	21	-2384	5064	16200	28	-2	3	117	134	5
-8300	-5424	12692	-13	14	-20	-14776	624	-6592	5	-2	-12	-3816	-4304	16168	5	-11	19	-8392	4800	13640	22	2	-20	-15440	-1304	-5336	2	-9	20	-2568	5080	16200	27	-8	2	115	134	5
-8252	-5460	12624	-2	15	-26	-14848	680	-6352	2	2	-11	-3744	-4184	16136	3	-10	18	-8272	4808	13504	16	4	-16	-15584	-1312	-5456	5	-6	21	-2640	5144	16192	24	-1	1	117	134	5
-8208	-5480	12712	-9	16	-28	-14856	712	-6328	1	2	-5	-3776	-4120	16096	5	-13	24	-8336	4840	13600	19	0	-20	-15512	-1264	-5416	5	-4	22	-2520	5152	16216	26	1	3	118	133	5
-8276	-5444	12724	-10	10	-20	-14968	680	-6328	7	5	-6	-3776	-4056	16208	3	-12	17	-8424	4864	13768	19	-4	-14	-15520	-1256	-5528	6	-10	24	-2472	5080	16216	27	-4	0	117	133	5
-8288	-5408	12736	-11	14	-22	-14912	584	-6544	6	2	-4	-3848	-4120	16112	0	-14	18	-8312	4920	13720	22	0	-17	-15472	-1256	-5488	8	-10	20	-2344	5208	16336	27	-7	-1	117	133	5
-8248	-5424	12616	-6	11	-23	-14976	568	-6472	7	2	-4	-3680	-4104	16104	1	-9	20	-8336	4856	13480	23	1	-16	-15576	-1168	-5568	9	-6	22	-2456	5168	16144	29	-1	-4	115	134	5
-8268	-5416	12684	-9	15	-18	-14912	560	-6392	-1	4	-4	-3864	-4224	15968	11	-7	19	-8344	4848	13656	21	3	-22	-15528	-1184	-5528	5	-4	22	-2528	5240	15784	32	0	-2	117	133	5
-8196	-5444	12788	-7	17	-21	-15056	664	-6392	1	2	-4	-3840	-4096	16104	8	-8	18	-8304	4872	13840	22	-9	-17	-15552	-1232	-5416	5	-4	20	-2528	5304	16208	26	3	-3	118	133	5
-8224	-5420	12740	-8	12	-20	-14824	704	-6520	-2	0	-5	-3912	-4080	16056	4	-8	17	-8336	4936	13928	23	-1	-18	-15360	-1280	-5576	3	-9	18	-2568	5176	16128	22	-2	2	117	133	5
-8268	-5444	12712	-8	13	-21	-14880	608	-6328	2	3	-2	-3864	-3992	16216	-3	-10	16	-8240	4792	13648	17	1	-20	-15560	-1144	-5344	7	-7	19	-2536	5288	16128	17	2	4	117	133	5
-8212	-5444	12716	-12	11	-19	-14920	712	-6344	3	3	-8	-3968	-4152	16200	-3	-13	17	-8200	4728	13800	18	-4	-22	-15608	-1192	-5584	10	-3	15	-2776	5136	16152	19	6	3	116	133	5
-8300	-5460	12760	-11	12	-20	-14840	832	-6496	9	1	-8	-3952	-4224	16128	-5	-13	18	-8368	4936	13664	14	-6	-20	-15480	-1272	-5832	13	-9	19	-2680	5304	16280	23	1	8	116	133	5
-8248	-5448	12640	-7	13	-26	-15048	640	-6744	9	-2	-8	-4064	-4272	16312	2	-14	20	-8328	4712	13608	18	-6	-18	-15480	-1352	-5472	15	-5	20	-2680	5072	16008	24	-1	5	118	133	5
-8236	-5388	12712	-17	14	-22	-14968	680	-6568	6	2	-11	-3688	-4224	16152	2	-11	22	-8288	4928	13792	13	0	-17	-15496	-1216	-5552	13	-11	17	-2600	5064	16184	24	0	8	117	134	5
-8256	-5412	12680	-14	15	-25	-15232	680	-6648	3	-6	-9	-3680	-4224	16032	11	-12	25	-8352	4792	13696	18	2	-20	-15472	-1200	-5320	10	-7	18	-2584	5152	15960	25	-2	5	117	133	5
-8256	-5444	12708	-15	15	-25	-14992	704	-6576	5	-3	-16	-3808	-4200	15976	2	-13	23	-8344	4848	13792	16	-2	-18	-15664	-1304	-5336	3	-5	16	-2544	5312	16128	23	-2	4	117	134	5
-8300	-5388	12716	-11	11	-23	-15024	608	-6408	1	-4	-12	-3888	-4232	16024	2	-15	26	-8216	4720	13832	19	2	-20	-15440	-1200	-5720	4	-5	16	-2592	5200	16072	17	3	2	115	134	5
-8220	-5524	12744	-13	17	-24	-14936	664	-6312	1	0	-6	-3712	-4032	15968	0	-13	25	-8416	4736	13640	20	-3	-18	-15608	-1248	-5296	5	-1	16	-2560	5160	16104	15	4	3	117	133	5
-8300	-5388	12748	-12	15	-24	-14936	688	-6256	1	2	-11	-3712	-4160	16272	-3	-12	23	-8224	4872	13760	15	-6	-17	-15432	-1232	-5576	6	-8	12	-2568	5000	16024	9	2	-3	118	134	5
-8228	-5416	12764	-13	15	-19	-14960	712	-6592	5	-1	-13	-3832	-4264	16056	-5	-14	16	-8344	4792	13808	15	-2	-19	-15616	-1296	-5608	11	-6	15	-2472	5072	16192	13	3	2	117	133	5
-8200	-5456	12644	-9	15	-25	-15040	752	-6472	8	3	-9	-3808	-4144	16064	-4	-12	17	-8224	4984	13704	20	1	-16	-15456	-1328	-5552	7	-9	13	-2528	5168	16120	19	-1	0	117	134	5
-8272	-5380	12736	-10	17	-29	-14928	632	-6552	1	1	-8	-3744	-4104	16192	0	-9	16	-8304	4824	13512	18	-1	-22	-15456	-1360	-5552	7	-4	15	-2552	5200	16544	23	1	3	116	134	5
-8272	-5448	12672	-13	15	-25	-14840	568	-6352	0	3	-5	-3792	-4312	16232	-1	-12	20	-8256	4800	13992	19	-6	-19	-15648	-1504	-5624	8	-7	17	-2536	5144	16192	28	7	5	116	133	5
-8256	-5472	12528	-12	12	-25	-14928	768	-6520	6	3	-12	-3736	-4120	16048	1	-11	17	-8152	5032	13856	21	0	-20	-15536	-1352	-5488	10	-3	14	-2584	5216	16168	24	3	5	118	133	5
-8188	-5416	12720	-13	13	-25	-14944	688	-6456	8	-3	-10	-3760	-4096	16008	1	-9	19	-8256	4896	13808	18	-8	-18	-15544	-1344	-5472	11	-8	21	-2656	5120	15992	27	4	2	117	133	5
-8292	-5444	12784	-12	12	-25	-15080	640	-6272	0	-1	-5	-3800	-4112	16080	4	-12	19	-8344	4784	13608	19	-3	-18	-15472	-1312	-5208	10	-3	19	-2472	5304	16216	20	4	-2	117	134	5
-8260	-5460	12696	-14	15	-26	-15088	584	-6184	3	0	-3	-3728	-4312	15944	8	-13	20	-8368	4792	13720	22	-7	-16	-15432	-1328	-5464	8	-8	15	-2696	5104	16064	13	1	-5	116	134	5
-8272	-5376	12664	-12	8	-26	-14832	768	-6424	-1	3	-10	-3872	-4152	15936	9	-8	24	-8328	4888	13576	20	-4	-14	-15536	-1136	-5488	3	-3	21	-2624	5120	16128	21	1	-4	116	133	5
-8312	-5504	12700	-9	12	-22	-15000	664	-6464	5	1	-8	-3968	-4176	16344	6	-15	23	-8208	4848	13760	19	4	-17	-15424	-1200	-5512	-1	-7	23	-2520	5200	16096	27	-3	1	118	133	5
-8244	-5396	12620	-6	13	-19	-14944	616	-6368	7	-3	-4	-3920	-4088	16088	7	-13	19	-8344	4880	13640	24	-3	-19	-15504	-1304	-5552	1	-5	22	-2512	5008	16040	30	-2	3	117	134	5
-8216	-5452	12656	-15	9	-20	-14880	648	-6688	13	6	-4	-3776	-4032	16000	4	-13	23	-8368	4752	13600	19	3	-18	-15544	-1320	-5448	9	-3	23	-2520	5136	16144	33	-1	1	116	134	5
-8244	-5408	12760	-5	15	-22	-14984	760	-6552	7	-1	-4	-3912	-4144	15968	0	-15	17	-8312	4856	13664	20	-3	-15	-15576	-1296	-5576	12	-8	24	-2664	5264	16120	35	-10	5	116	134	5
-8268	-5432	12800	-12	12	-21	-14912	720	-6568	1	-1	-4	-3800	-4112	16016	-2	-13	18	-8288	4752	13800	27	-1	-17	-15568	-1368	-5528	14	-5	26	-2536	5168	16088	28	-5	0	115	134	5
-8212	-5380	12628	-12	15	-21	-15016	736	-6304	1	0	-7	-3872	-4144	16168	1	-10	20	-8400	4808	14040	24	-6	-19	-15584	-1296	-5376	13	-8	25	-2568	5152	15992	26	-8	-2	117	134	5
-8232	-5476	12712	-9	12	-24	-14848	656	-6528	-8	-3	-9	-3888	-4128	16304	6	-11	20	-8072	4840	13408	18	1	-18	-15552	-1320	-5624	7	-12	22	-2632	5200	16200	25	-4	-1	118	134	5
-8240	-5480	12680	-12	14	-20	-14936	584	-6352	2	-4	-5	-3744	-4176	16016	14	-14	20	-8264	4864	13576	19	-3	-18	-15480	-1144	-5744	10	-15	17	-2608	5240	16064	19	-4	0	117	134	5
-8256	-5448	12736	-9	16	-23	-14800	712	-6392	2	-5	-4	-4024	-4104	16064	8	-9	21	-8216	4856	13936	22	-5	-20	-15520	-1224	-5392	6	-9	16	-2584	5176	16080	19	0	6	116	134	5
-8272	-5412	12540	-14	15	-28	-15040	624	-6624	6	-6	-5	-3848	-4008	15920	11	-8	19	-8312	4952	14112	20	-8	-21	-15432	-1152	-5528	3	-9	18	-2512	5248	16168	19	-2	8	115	134	5
-8216	-5452	12812	-12	11	-25	-14832	744	-6688	4	-6	-8	-3752	-4120	16064	8	-16	22	-8400	4888	13840	17	-3	-21	-15544	-1248	-5504	8	-11	14	-2584	5224	16264	14	2	10	117	133	5
-8232	-5436	12708	-13	16	-27	-14952	712	-6376	5	0	-11	-3816	-4016	16120	5	-11	17	-8216	4928	13712	19	-7	-18	-15656	-1264	-5656	14	-8	15	-2464	5168	16160	19	0	6	118	133	5
-8244	-5444	12612	-11	12	-22	-14888	848	-6392	5	-1	-5	-3840	-4072	15928	2	-12	18	-8272	4864	13584	16	-7	-22	-15624	-1264	-5528	17	-5	14	-2456	5344	16064	14	4	4	117	134	5
-8264	-5492	12748	-12	13	-19	-14864	704	-6536	0	-1	-13	-3864	-4024	16152	-1	-15	21	-8312	4888	13792	18	-6	-20	-15656	-1144	-5384	15	-8	11	-2416	5224	15960	14	8	1	117	133	5
-8244	-5456	12756	-10	16	-25	-14872	784	-6224	1	-4	-11	-3704	-3968	16096	-2	-10	23	-8312	4840	13584	16	-10	-19	-15528	-1160	-5424	9	1	14	-2520	5144	16304	14	3	2	116	133	5
-8252	-5468	12704	-15	17	-18	-14872	656	-6376	4	1	-13	-3864	-4208	16112	-2	-13	26	-8304	4864	13824	18	0	-19	-15544	-1248	-5520	3	-3	11	-2536	5296	16168	17	8	3	115	133	5
-8256	-5432	12692	-13	16	-21	-15016	776	-6344	1	2	-11	-3656	-4048	16096	-6	-13	26	-8288	5016	13488	19	-4	-18	-15560	-1184	-5384	2	-3	15	-2528	5048	16376	16	6	5	117	133	5
-8192	-5408	12732	-13	18	-21	-14840	648	-6656	6	1	-16	-3848	-4152	16168	-11	-12	24	-8264	4768	13904	17	-2	-19	-15440	-1192	-5504	8	-3	13	-2624	5128	15904	18	4	1	118	134	5
-8288	-5456	12744	-16	18	-21	-15000	640	-6536	4	3	-14	-3840	-4072	16120	-14	-11	26	-8256	4872	13768	14	-4	-23	-15560	-1264	-5736	7	3	12	-2528	5048	16312	22	3	0	117	133	5
-8316	-5460	12732	-16	17	-21	-15000	848	-6464	7	5	-15	-3904	-4088	15952	-12	-9	21	-8336	4928	13752	15	-1	-19	-15456	-1296	-5456	9	-6	16	-2656	5096	16416	21	4	3	117	134	5
-8272	-5536	12792	-16	16	-25	-14872	760	-6440	8	4	-15	-3848	-4160	15904	-14	-12	22	-8320	4800	13808	15	4	-18	-15584	-1208	-5512	5	-4	14	-2552	5072	15960	18	3	4	116	134	5
-8216	-5404	12676	-16	14	-20	-15064	664	-6640	5	3	-16	-3904	-4136	15984	-13	-12	20	-8256	4784	13984	16	-3	-22	-15560	-1320	-5304	10	-1	15	-2608	5096	16280	21	0	2	117	133	5
-8244	-5416	12776	-9	17	-22	-14888	560	-6376	3	0	-14	-3824	-4296	15728	-10	-13	21	-8320	4928	13816	18	-5	-24	-15576	-1272	-5520	9	-4	18	-2536	5072	16224	20	3	2	118	133	5
-8284	-5448	12728	-15	13	-26	-15024	648	-6320	4	3	-14	-3952	-4200	16176	-6	-9	25	-8272	4784	13624	14	-2	-21	-15632	-1232	-5488	11	-2	15	-2648	5128	15912	20	3	3	117	134	5
-8252	-5444	12704	-12	13	-27	-14872	712	-6768	4	0	-15	-3720	-4152	15904	0	-15	24	-8272	4944	13672	14	0	-20	-15536	-1288	-5680	11	-8	14	-2824	5168	16040	22	2	7	117	134	5
-8276	-5504	12692	-13	13	-27	-14920	464	-6376	6	-4	-9	-3776	-4248	16136	0	-10	21	-8360	4968	13536	19	-1	-16	-15560	-1312	-5456	8	-13	16	-2696	5096	16008	26	1	7	116	134	5
-8328	-5424	12620	-11	11	-26	-14792	592	-6496	6	-6	-8	-3816	-4240	15992	1	-14	20	-8328	4840	13664	17	1	-18	-15552	-1456	-5368	12	-12	15	-2568	5072	15984	25	-3	8	115	133	5
-8248	-5464	12684	-7	13	-24	-14968	680	-6392	7	-4	-6	-3784	-4296	16376	3	-12	19	-8304	4824	13560	23	-9	-17	-15560	-1336	-5432	8	-13	18	-2552	5064	16072	22	0	6	117	134	5
-8256	-5416	12720	-14	12	-19	-14848	664	-6176	1	-4	-1	-3736	-4152	15992	9	-11	16	-8392	4856	13640	19	0	-13	-15416	-1376	-5368	11	-9	19	-2440	5064	16104	23	-2	1	118	134	5
-8244	-5488	12620	-7	11	-23	-14904	736	-6080	3	-1	-1	-3800	-4224	16200	13	-10	16	-8240	4904	13824	21	-6	-16	-15440	-1232	-5480	9	-9	23	-2440	5072	16120	26	-5	0	117	134	5
-8260	-5436	12636	-8	10	-24	-14888	616	-6344	-3	-3	-4	-3800	-4200	16240	13	-12	18	-8344	4896	13800	23	-3	-15	-15600	-1296	-5560	9	-14	24	-2672	5168	16168	25	-3	1	116	134	5
-8304	-5456	12792	-8	15	-24	-15000	720	-6184	2	1	-2	-3760	-4016	16056	15	-11	18	-8256	4816	13696	20	1	-17	-15544	-1288	-5344	6	-9	22	-2536	5056	16336	26	-5	-2	115	134	5
-8248	-5452	12700	-3	11	-22	-14928	544	-6416	4	3	4	-3736	-4040	16096	11	-11	20	-8192	4864	13720	22	-2	-16	-15592	-1208	-5800	2	-6	26	-2616	5184	16248	28	0	2	117	133	5
-8236	-5452	12704	-6	12	-21	-14968	736	-6392	4	4	-7	-3768	-4120	16128	8	-12	20	-8320	5008	13752	20	-1	-19	-15552	-1400	-5776	8	-7	26	-2496	5240	15952	34	-6	-1	118	133	5
-8188	-5512	12676	-6	19	-18	-15024	680	-6288	3	4	-4	-3840	-4016	16096	8	-11	18	-8480	4856	13784	20	-8	-17	-15528	-1104	-5568	5	0	19	-2568	5272	16152	31	1	1	117	133	5
-8240	-5412	12660	-11	13	-19	-14912	840	-6592	4	1	-4	-3800	-3968	16264	3	-13	19	-8200	4888	13696	21	-3	-21	-15312	-1224	-5488	4	-6	20	-2488	5416	16456	31	-2	-1	117	133	5
-8312	-5424	12700	-13	12	-19	-14928	624	-6488	-1	0	-10	-3952	-4032	16160	-1	-12	16	-8328	4984	13608	17	-3	-20	-15600	-1320	-5648	4	-2	14	-2528	5344	16296	23	0	1	116	134	5
-8256	-5396	12632	-7	17	-24	-15088	840	-6368	0	-3	-8	-3768	-4008	16104	1	-14	24	-8304	4880	13696	14	-3	-21	-15496	-1168	-5640	6	-8	14	-2416	5376	16008	20	2	2	116	133	5
-8224	-5416	12824	-14	16	-26	-15024	704	-6576	2	0	-9	-3744	-4168	16096	-4	-13	22	-8272	4848	13784	14	5	-24	-15616	-1208	-5480	9	-6	12	-2520	5176	16080	16	1	4	118	133	5
-8256	-5448	12680	-16	17	-28	-14856	840	-6448	3	5	-16	-3832	-4016	16120	-5	-14	26	-8376	4824	13864	16	-2	-16	-15528	-1216	-5640	12	-3	10	-2512	5136	16144	15	8	9	117	134	5
-8244	-5460	12756	-14	14	-26	-14784	664	-6216	12	0	-16	-3976	-4144	15840	-7	-14	23	-8224	5032	13656	14	-2	-19	-15424	-1216	-5568	10	-8	8	-2504	5072	15928	10	2	8	117	133	5
-8296	-5432	12632	-14	16	-33	-14920	736	-6408	9	-2	-17	-3824	-4144	16016	-11	-11	25	-8216	4824	13984	10	-7	-24	-15440	-1224	-5448	11	-6	7	-2528	5144	16168	7	7	9	116	134	5
-8240	-5464	12752	-15	14	-23	-14960	808	-6536	8	-3	-18	-3824	-4128	16152	-8	-16	22	-8152	4864	13728	8	-1	-21	-15496	-1264	-5376	11	-6	7	-2536	5152	16120	10	2	9	115	133	5
-8264	-5468	12688	-17	16	-24	-14944	768	-6248	3	-2	-17	-3776	-4096	15896	-15	-16	21	-8360	4840	13752	11	-4	-22	-15504	-1336	-5368	15	-6	10	-2488	5256	16256	15	4	7	117	133	5
-8268	-5412	12700	-16	14	-26	-14968	656	-6264	8	-4	-12	-3896	-4216	16112	-13	-14	20	-8400	4960	13904	12	-5	-21	-15528	-1320	-5568	12	-8	9	-2536	5136	16376	18	-5	9	118	134	5
-8192	-5440	12696	-16	15	-25	-14984	696	-6368	3	1	-18	-3816	-4336	16016	-8	-13	22	-8256	5056	13920	12	-3	-20	-15504	-1336	-5640	7	-11	10	-2680	5040	16048	18	3	8	117	134	5
-8268	-5528	12688	-13	13	-22	-14784	760	-6552	2	4	-16	-3848	-4248	16032	-4	-14	23	-8264	4912	13648	14	-4	-17	-15576	-1248	-5720	6	-8	10	-2664	5120	16136	17	1	5	117	133	5
-8268	-5448	12644	-13	17	-24	-14880	688	-6288	4	0	-11	-3832	-4104	16192	-5	-16	24	-8112	4704	13992	16	-9	-19	-15512	-1464	-5400	12	-4	12	-2472	4904	16216	20	-2	7	116	134	5
-8268	-5424	12788	-13	16	-22	-14904	560	-6480	3	3	-11	-3872	-4200	16048	-4	-16	23	-8304	4880	13568	15	-3	-15	-15560	-1296	-5608	13	-1	17	-2544	5040	16248	19	0	5	116	133	5
-8256	-5500	12628	-14	12	-21	-14904	480	-6568	9	0	-8	-3792	-4216	16200	-2	-17	17	-8336	4936	13744	15	2	-17	-15496	-1320	-5528	11	-5	16	-2552	5120	16128	25	-3	5	118	133	5
-8260	-5408	12716	-10	8	-22	-15064	776	-6288	7	2	-6	-3752	-4216	16104	0	-11	17	-8312	4808	13808	21	-2	-19	-15432	-1272	-5608	8	-7	20	-2512	5056	15984	28	-3	1	117	134	5
-8284	-5400	12676	-13	11	-21	-14848	648	-6496	5	1	0	-3848	-4168	16040	4	-7	16	-8328	4920	13816	22	-1	-18	-15520	-1208	-5808	5	-5	24	-2640	5080	16072	34	-4	-2	117	134	5
-8204	-5484	12608	-12	12	-17	-14832	648	-6424	1	2	-4	-3776	-4328	16320	11	-4	18	-8224	4896	13768	24	2	-20	-15608	-1232	-5560	6	-4	22	-2736	5240	16432	36	-3	-4	116	134	5
-8268	-5440	12636	-8	11	-21	-14936	568	-6448	0	0	1	-3864	-4080	15880	13	-11	20	-8096	4800	13696	24	0	-18	-15464	-1144	-5360	3	-7	22	-2560	5184	16008	29	-4	-6	115	134	5
-8260	-5472	12792	-5	9	-22	-15008	536	-6256	0	3	-6	-3864	-4136	16008	10	-9	18	-8312	4864	13832	26	2	-15	-15456	-1224	-5384	2	-11	24	-2528	5272	16224	28	-8	-9	117	134	5
-8272	-5416	12604	-5	15	-20	-14976	640	-6424	4	-1	-1	-3864	-4056	16344	6	-10	12	-8360	4776	13784	27	-2	-20	-15608	-1216	-5864	-3	-8	27	-2512	5248	16264	20	0	-7	118	134	5
-8260	-5452	12700	-7	10	-26	-15056	736	-6640	3	2	-3	-3776	-4184	16280	8	-12	14	-8352	4920	13864	23	-2	-20	-15504	-1208	-5424	-1	-5	24	-2560	5248	15928	19	3	-4	117	134	5
-8252	-5436	12592	-7	12	-23	-14736	696	-6392	8	2	-4	-3712	-4048	16352	6	-11	17	-8352	4816	13864	22	1	-18	-15496	-1200	-5568	3	-4	21	-2496	5200	16168	20	1	-2	117	134	5
-8268	-5464	12580	-6	12	-19	-15000	736	-6480	10	-4	-7	-3928	-4160	16136	1	-7	19	-8392	4816	13584	22	-6	-14	-15632	-1288	-5472	8	-5	15	-2560	5208	16080	21	2	0	115	134	5
-8288	-5436	12720	-6	14	-25	-15016	680	-6496	7	-2	-9	-3816	-4056	16128	1	-9	20	-8272	4896	13808	20	0	-18	-15424	-1288	-5456	15	-12	16	-2344	5120	16088	25	1	3	117	134	5
-8228	-5416	12656	-9	13	-23	-14952	680	-6304	-1	-3	-9	-3776	-4064	16080	-3	-10	25	-8256	4800	13776	19	-4	-20	-15744	-1160	-5320	13	-7	11	-2424	5304	15632	24	4	3	118	133	5
-8264	-5432	12784	-13	14	-25	-14872	648	-6464	-1	0	-11	-3888	-4032	15912	-2	-14	24	-8264	4848	14120	14	-3	-22	-15552	-1232	-5552	12	-9	12	-2392	5208	16128	19	2	6	117	133	5
-8284	-5496	12716	-15	15	-21	-14960	632	-6336	4	-6	-14	-3912	-4032	15984	-5	-15	19	-8368	4824	13696	13	-9	-21	-15656	-1264	-5520	9	-6	12	-2632	5288	15960	18	2	7	116	133	5
-8212	-5460	12712	-12	11	-22	-15016	776	-6672	5	-2	-15	-3920	-4064	16304	-6	-13	21	-8336	4760	13760	14	-3	-22	-15520	-1160	-5456	4	-4	11	-2664	5232	15936	14	5	7	116	134	5
-8244	-5400	12672	-14	14	-24	-14888	672	-6536	6	-1	-12	-3848	-4104	16232	-10	-16	25	-8240	4816	13752	10	-3	-21	-15480	-1376	-5512	9	-6	10	-2616	5312	16096	15	6	10	115	133	5
-8252	-5408	12600	-17	14	-20	-14912	672	-6336	4	-4	-21	-3896	-4072	16192	-7	-13	25	-8216	4904	13760	10	-6	-19	-15600	-1200	-5488	9	-10	10	-2552	5192	16128	11	4	9	117	134	5
-8328	-5420	12592	-13	16	-24	-14888	688	-6504	5	-1	-20	-3928	-4184	15864	-8	-15	22	-8152	4952	13920	13	-5	-20	-15600	-1200	-5456	12	-9	10	-2664	5120	16192	9	2	8	118	134	5
-8324	-5416	12608	-16	12	-23	-14920	584	-6400	2	-1	-17	-3888	-4216	15992	-8	-16	24	-8360	4792	13672	10	-4	-23	-15584	-1360	-5456	15	-3	8	-2520	5016	16208	15	1	8	117	134	5
-8252	-5460	12744	-18	15	-25	-15048	568	-6536	3	1	-15	-3760	-4160	16080	-8	-13	23	-8240	4880	13544	13	-6	-22	-15608	-1192	-5424	15	-9	13	-2552	5104	16280	13	0	7	116	134	5
-8264	-5452	12720	-17	19	-24	-14936	800	-6632	8	1	-11	-3760	-4184	16256	-5	-15	25	-8192	5064	13680	16	-4	-21	-15616	-1352	-5544	6	-6	11	-2520	5080	16040	15	6	4	115	134	5
-8244	-5476	12664	-15	14	-22	-14904	744	-6384	6	2	-12	-3824	-4264	16088	-6	-14	19	-8144	4896	13792	14	-2	-23	-15624	-1272	-5416	8	-5	14	-2728	5080	16008	15	5	1	116	133	5
-8308	-5440	12756	-12	14	-21	-14904	584	-6656	5	1	-15	-3784	-4256	16088	-2	-12	20	-8248	4840	13648	22	1	-21	-15544	-1360	-5488	6	-8	14	-2632	5120	16160	20	2	3	118	133	5
-8240	-5416	12628	-13	11	-23	-14832	696	-6472	2	-1	-10	-3672	-4240	16136	-3	-10	21	-8288	4808	13824	18	-6	-19	-15616	-1304	-5512	1	-3	17	-2600	5104	16272	27	0	1	117	134	5
-8260	-5472	12680	-8	16	-28	-14992	504	-6264	3	-1	-7	-3832	-4200	16008	-3	-15	19	-8392	4920	13696	16	-2	-16	-15424	-1320	-5248	5	-8	17	-2736	4992	16064	23	-1	-1	116	134	5
-8240	-5472	12648	-12	13	-22	-14848	752	-6488	7	-2	-9	-3920	-4160	15920	1	-10	16	-8248	4768	13664	22	5	-18	-15544	-1296	-5448	8	-6	22	-2504	5160	15912	24	-1	2	116	134	5
-8292	-5424	12684	-9	11	-23	-14968	632	-6552	1	1	-4	-3768	-4256	16096	3	-7	17	-8376	4952	13720	21	-3	-18	-15584	-1248	-5504	13	-11	22	-2536	5072	16136	25	0	0	115	134	5
-8244	-5412	12764	-10	14	-21	-14920	704	-6536	1	0	-2	-3816	-4160	16272	8	-15	16	-8360	4824	13888	20	-2	-21	-15608	-1336	-5272	5	-7	23	-2512	5200	16136	24	2	-5	117	133	5
-8324	-5404	12752	-9	17	-21	-14960	640	-6384	4	0	-7	-3880	-4416	16160	10	-11	20	-8312	4776	13704	25	3	-18	-15560	-1264	-5616	4	-6	25	-2512	4936	16048	25	-3	-5	117	134	5
-8220	-5440	12752	-5	15	-22	-15008	648	-6592	1	2	-4	-3920	-4160	16016	10	-10	21	-8288	4968	13976	22	4	-19	-15424	-1208	-5464	7	-6	26	-2560	5032	16352	23	-2	-3	117	134	5
-8276	-5464	12712	-3	15	-19	-14976	576	-6488	2	2	-3	-3872	-4040	16048	10	-9	15	-8216	4912	13816	22	3	-17	-15480	-1336	-5456	4	-9	23	-2544	5040	16184	24	-4	-2	116	134	5
-8252	-5432	12672	-11	13	-23	-14920	760	-6224	-1	-4	1	-3696	-4096	16336	6	-9	19	-8248	4848	13656	22	0	-15	-15504	-1272	-5376	5	-10	20	-2560	5312	16224	24	-4	0	115	134	5
-8316	-5416	12620	-7	12	-21	-14928	760	-6456	-1	1	-3	-3888	-4056	16280	2	-11	19	-8320	4880	13672	20	-5	-16	-15544	-1368	-5424	5	-6	22	-2496	5200	16168	29	2	5	117	133	5
-8256	-5396	12712	-5	13	-21	-14984	808	-6560	0	2	-4	-3832	-3944	16248	-2	-14	19	-8064	4848	13760	20	-3	-19	-15480	-1384	-5520	8	-7	17	-2560	5384	16040	24	-1	6	118	134	5
-8336	-5440	12724	-7	13	-25	-14968	816	-6344	4	-1	-8	-3848	-4136	15832	2	-14	15	-8224	4800	13672	16	-3	-20	-15504	-1200	-5424	10	-12	20	-2544	5176	15960	20	3	2	117	134	5
-8284	-5416	12760	-8	11	-20	-15000	864	-6192	6	0	-9	-3784	-4176	15944	-1	-14	21	-8312	4864	13728	18	-1	-18	-15464	-1208	-5560	14	-4	16	-2392	5216	16160	20	1	0	116	134	5
-8248	-5468	12648	-13	10	-20	-14936	768	-6352	4	0	-12	-3808	-4088	16224	-3	-15	21	-8240	4800	13640	21	-6	-18	-15568	-1248	-5736	11	-8	14	-2376	5248	16064	15	2	4	115	134	5
-8240	-5388	12680	-14	14	-22	-14976	720	-6592	4	2	-12	-3760	-3952	16192	-2	-13	16	-8240	4896	13920	14	0	-22	-15712	-1096	-5440	3	-1	14	-2472	5176	15792	18	0	5	116	133	5
-8256	-5440	12608	-14	12	-20	-14960	840	-6656	5	2	-9	-3800	-4080	16120	-3	-15	27	-8272	4800	13616	16	-8	-21	-15592	-1176	-5376	5	-5	14	-2568	5008	15992	19	0	6	118	133	5
-8272	-5436	12744	-13	14	-22	-14912	808	-6536	7	0	-12	-3760	-4048	16200	-5	-12	24	-8328	4944	13744	16	1	-16	-15608	-1208	-5488	7	-2	13	-2600	5232	16152	23	1	6	117	133	5
-8232	-5396	12592	-18	13	-22	-14944	680	-6536	8	1	-13	-3800	-4168	16000	-9	-14	24	-8200	5008	13784	14	-2	-20	-15472	-1296	-5104	12	-1	10	-2616	5136	16096	23	-1	14	117	133	5
-8264	-5428	12684	-12	17	-23	-14952	664	-6488	4	0	-12	-3856	-4280	16280	-5	-14	23	-8336	4848	13672	11	0	-16	-15464	-1328	-5352	16	-8	15	-2632	5096	16296	21	1	9	116	133	5
-8276	-5464	12640	-14	14	-24	-14960	616	-6496	7	2	-11	-3672	-4232	16288	-7	-16	22	-8272	4880	13784	15	2	-20	-15432	-1256	-5448	21	-9	15	-2480	5136	16008	15	0	7	115	133	5
-8264	-5448	12728	-12	18	-28	-15080	560	-6696	10	1	-13	-3808	-4248	16080	-4	-15	22	-8272	4736	13672	16	2	-26	-15512	-1232	-5376	15	-4	12	-2528	5096	16048	15	1	6	117	133	5
-8292	-5452	12748	-12	13	-25	-14872	680	-6464	2	-1	-17	-3840	-4200	15944	2	-14	22	-8192	4888	13768	15	0	-20	-15448	-1232	-5480	7	-8	12	-2584	5128	16296	18	-1	5	118	134	5
-8196	-5460	12716	-10	12	-25	-15016	552	-6600	3	-2	-9	-3864	-4184	16144	-1	-13	22	-8256	4920	13656	16	-4	-18	-15560	-1312	-5544	1	-6	15	-2680	5040	15904	20	5	4	117	134	5
-8300	-5388	12776	-12	15	-27	-14944	704	-6368	1	4	-4	-3808	-4280	16136	4	-13	24	-8288	4840	13568	20	-1	-18	-15704	-1288	-5432	4	-7	15	-2600	5152	16096	20	0	4	116	134	5
-8268	-5396	12716	-12	17	-19	-14864	696	-6568	6	1	-10	-3656	-4152	16040	5	-9	26	-8224	4928	13600	14	-5	-23	-15536	-1304	-5472	5	-6	17	-2528	5000	16184	18	-2	6	115	134	5
-8244	-5448	12692	-12	12	-21	-14920	688	-6440	8	2	-5	-3912	-4104	16080	1	-14	19	-8208	4792	13504	21	-6	-20	-15664	-1248	-5528	9	-5	19	-2488	5064	16072	23	3	1	117	134	5
-8340	-5412	12760	-11	16	-21	-14912	616	-6632	5	1	-9	-3824	-4072	16176	1	-11	19	-8264	4880	13624	17	-1	-19	-15520	-1224	-5552	10	-7	18	-2584	5080	16304	24	-4	0	118	134	5
-8252	-5420	12684	-15	17	-21	-14864	664	-6352	6	-1	-9	-3760	-4144	16040	-3	-9	17	-8264	4856	13808	18	1	-21	-15496	-1296	-5376	8	-8	15	-2552	5128	15936	20	3	-2	117	134	5
-8248	-5520	12716	-12	8	-22	-14760	664	-6384	7	0	-10	-3840	-4224	16128	-6	-16	21	-8288	4856	13632	18	3	-19	-15480	-1304	-5232	11	-7	19	-2496	5216	16272	17	3	0	116	134	5
-8244	-5460	12620	-10	16	-23	-14960	560	-6648	3	1	-8	-3840	-4152	16176	-1	-12	22	-8232	4952	13704	20	-1	-17	-15472	-1136	-5480	5	-8	20	-2592	5080	16280	16	4	1	116	134	5
-8312	-5412	12764	-15	16	-25	-14808	696	-6616	-4	0	-4	-3904	-4232	16104	5	-11	19	-8320	4672	13928	23	-9	-15	-15504	-1296	-5368	2	-9	17	-2688	5200	15936	24	1	0	116	134	5
-8292	-5444	12740	-13	19	-21	-14904	760	-6448	3	-1	-7	-3792	-4088	16128	5	-12	22	-8352	4864	13776	18	-1	-16	-15496	-1200	-5528	4	-6	18	-2616	5184	16096	25	-3	4	118	133	5
-8280	-5436	12708	-11	14	-25	-14928	736	-6336	7	-8	-3	-3776	-4224	16008	6	-9	20	-8304	4920	13656	20	-1	-16	-15408	-1264	-5480	6	-7	20	-2608	5160	16008	24	-1	5	117	134	5
-8204	-5472	12732	-9	12	-25	-14984	624	-6312	4	-4	-9	-3760	-4232	16080	3	-13	18	-8280	4792	13608	19	-9	-12	-15520	-1272	-5400	12	-7	15	-2528	5104	15952	23	6	9	116	134	5
-8192	-5428	12712	-9	10	-23	-14952	656	-6288	7	-2	-9	-3768	-4152	16088	0	-11	16	-8272	4920	13720	16	2	-21	-15392	-1280	-5488	11	-8	20	-2544	5072	16200	22	2	5	116	134	5
-8304	-5400	12652	-10	15	-24	-14888	688	-6384	6	1	-6	-3840	-4088	16272	3	-12	18	-8456	4792	13704	18	-8	-17	-15496	-1448	-5560	11	-7	21	-2488	5160	16304	22	0	2	115	133	5
-8272	-5388	12768	-10	15	-23	-15024	680	-6328	2	-1	-6	-3752	-4168	16176	6	-11	19	-8304	4800	13704	16	-7	-16	-15616	-1264	-5576	12	-11	18	-2640	5200	16184	20	3	1	117	133	5
-8220	-5468	12732	-6	14	-23	-14904	592	-6200	-3	0	-9	-3784	-4072	16232	7	-10	23	-8200	4744	13672	19	-1	-16	-15616	-1144	-5560	9	-1	15	-2520	5088	15968	26	-3	1	118	134	5
-8252	-5464	12692	-12	12	-22	-14984	704	-6480	3	2	-2	-3792	-4160	16128	2	-14	25	-8352	4760	13744	20	-6	-19	-15536	-1200	-5656	2	-2	19	-2616	5216	16216	21	3	-2	116	134	5
-8272	-5388	12796	-13	9	-19	-14824	776	-6424	1	4	-9	-3936	-4072	16160	2	-15	21	-8256	4848	13704	18	1	-18	-15512	-1128	-5648	1	-1	20	-2728	5120	16328	22	2	-4	116	134	5
-8260	-5420	12720	-12	14	-21	-14912	656	-6616	3	3	-6	-3816	-4104	15968	-8	-14	22	-8248	4912	13520	21	-4	-17	-15536	-1256	-5520	-1	-3	15	-2552	5168	16216	19	-3	3	115	134	5
-8268	-5440	12684	-15	16	-21	-14912	792	-6448	8	6	-10	-3776	-3952	16216	-10	-11	17	-8240	4792	13976	16	-4	-15	-15376	-1232	-5544	8	-3	17	-2608	5240	16008	20	0	1	117	133	5
-8308	-5476	12672	-18	16	-21	-14984	696	-6616	9	4	-13	-4000	-4064	16152	-5	-12	22	-8248	4944	13544	20	-2	-25	-15600	-1224	-5224	10	-1	15	-2568	5248	16208	22	1	3	118	133	5
-8272	-5448	12668	-17	15	-22	-14888	704	-6480	10	2	-13	-3976	-4096	16136	-5	-14	23	-8384	4840	13744	17	0	-24	-15552	-1224	-5768	10	-3	13	-2680	5144	16184	24	3	6	116	134	5
-8272	-5432	12668	-13	15	-24	-14808	680	-6528	-1	-2	-19	-3872	-4216	16168	-8	-12	25	-8144	4840	13872	16	-2	-22	-15632	-1224	-5568	15	-5	19	-2560	5136	16272	20	0	4	117	133	5
-8340	-5456	12596	-18	14	-19	-14888	656	-6520	-5	0	-12	-3784	-4360	16016	-9	-13	23	-8264	4784	13888	17	-4	-20	-15576	-1304	-5392	10	-7	16	-2544	5232	15984	23	2	6	116	134	5
-8264	-5448	12592	-16	14	-26	-14800	632	-6840	-1	1	-15	-3784	-4176	16128	-7	-14	23	-8248	4912	13776	11	1	-15	-15632	-1336	-5536	8	-7	12	-2648	4984	16168	19	3	8	115	133	5
-8292	-5456	12668	-13	18	-25	-15016	608	-6416	3	-6	-15	-3936	-4224	15832	-6	-15	21	-8248	4728	13752	13	-10	-17	-15624	-1224	-5600	12	-5	9	-2720	5072	16184	17	6	7	117	133	5
-8256	-5420	12672	-12	11	-28	-15056	688	-6624	7	-3	-11	-3744	-4336	16200	0	-14	21	-8328	4816	13720	10	-10	-18	-15408	-1176	-5448	10	-13	11	-2512	5168	16312	16	4	7	118	134	5
-8244	-5440	12672	-15	15	-24	-14864	568	-6544	2	-1	-9	-3816	-4224	16216	3	-12	19	-8264	4928	13776	15	-1	-20	-15512	-1248	-5304	5	-6	11	-2624	5184	16296	13	-2	7	116	134	5
-8284	-5400	12748	-10	17	-24	-14888	664	-6336	6	1	-12	-3840	-4216	15832	12	-6	17	-8384	4728	13624	15	-8	-19	-15480	-1184	-5440	9	-11	13	-2528	5024	16064	14	-1	8	116	134	5
-8212	-5460	12664	-8	13	-25	-14960	736	-6472	4	-1	-9	-3848	-4120	16152	9	-6	22	-8136	4760	13752	14	1	-20	-15592	-1264	-5392	15	-13	15	-2568	5088	15904	20	0	5	115	134	5
-8304	-5380	12612	-8	15	-24	-14880	744	-6400	-1	-1	-4	-3848	-4136	16056	8	-8	21	-8208	4728	13968	17	0	-19	-15520	-1232	-5488	13	-7	19	-2408	5048	16280	22	1	4	116	133	5
-8296	-5428	12760	-11	13	-22	-14920	760	-6392	4	-1	-8	-3848	-4224	16040	2	-7	21	-8288	4872	13560	21	-4	-16	-15608	-1416	-5400	14	-12	20	-2624	4936	16144	26	1	0	118	134	5
-8292	-5468	12644	-8	11	-17	-14824	696	-6384	3	0	-11	-3896	-4064	16128	2	-11	18	-8216	4840	13568	20	-5	-19	-15520	-1328	-5456	7	-4	20	-2608	5176	16032	31	-1	2	117	134	5
-8248	-5436	12688	-6	17	-22	-15000	696	-6472	6	5	-5	-3704	-4136	16360	-1	-10	18	-8208	4984	13400	18	-1	-15	-15576	-1232	-5464	4	-3	19	-2520	5168	16224	33	-5	1	117	134	5
-8260	-5440	12636	-10	13	-19	-15024	768	-6600	3	5	-8	-3832	-4008	16064	-1	-16	23	-8264	4704	13728	20	-2	-24	-15616	-1384	-5728	2	-1	22	-2584	5192	16016	30	-5	0	116	134	5
-8300	-5476	12668	-13	14	-20	-15000	640	-6408	4	2	-8	-3688	-4024	16248	0	-10	19	-8320	4912	13888	17	0	-20	-15568	-1152	-5648	2	-5	24	-2640	5128	16192	28	0	-3	116	134	5
-8248	-5412	12680	-15	17	-22	-14880	736	-6352	3	6	-9	-3800	-4096	16016	-2	-13	20	-8232	4936	13968	23	-5	-19	-15568	-1264	-5344	4	0	21	-2560	5208	15960	29	-1	-2	117	134	5
-8304	-5468	12704	-10	14	-20	-14960	696	-6680	7	4	-9	-3880	-4128	16328	-6	-11	20	-8200	4704	13656	20	1	-22	-15440	-1176	-5304	10	0	17	-2616	5232	16280	26	0	1	117	134	5
-8276	-5448	12748	-14	15	-24	-14936	776	-6504	2	5	-10	-3832	-4208	16200	1	-14	19	-8440	4808	13528	18	0	-17	-15544	-1104	-5560	8	-1	17	-2480	5096	15912	24	-2	4	116	134	5
-8300	-5428	12792	-14	17	-21	-14944	544	-6640	8	4	-9	-3752	-4112	16032	2	-11	20	-8176	4920	13832	18	-5	-23	-15560	-1224	-5680	9	0	14	-2600	5136	16144	23	2	-3	116	134	5
-8312	-5452	12788	-12	18	-23	-15064	672	-6496	3	6	-12	-4096	-4240	16032	2	-12	23	-8376	4824	13664	20	-3	-18	-15592	-1144	-5504	7	-7	17	-2584	5224	16280	24	1	7	115	133	5
-8260	-5408	12704	-13	15	-23	-15016	824	-6576	5	3	-15	-3880	-4336	16088	5	-11	19	-8312	4872	13768	16	-4	-23	-15544	-1272	-5384	10	-9	14	-2480	5312	16448	18	4	7	117	133	5
-8260	-5392	12688	-16	18	-27	-14856	712	-6248	8	1	-12	-3976	-4136	16000	-2	-17	21	-8288	5032	13888	13	-1	-20	-15544	-1200	-5536	8	-4	13	-2568	5224	16184	18	4	6	118	133	5
-8288	-5468	12720	-10	15	-20	-15080	736	-6448	3	1	-9	-3856	-4080	16112	-7	-12	23	-8264	4768	13616	13	-1	-23	-15528	-1280	-5416	9	-3	6	-2520	5224	16152	12	7	7	117	133	5
-8232	-5412	12720	-13	12	-21	-14952	640	-6384	2	-2	-16	-3856	-4144	16144	-7	-9	22	-8336	4768	13808	10	-5	-21	-15600	-1248	-5504	12	-4	7	-2632	5192	16152	9	6	12	117	133	5
-8284	-5424	12576	-14	14	-23	-14904	704	-6288	-3	-1	-11	-3816	-4088	16112	-5	-11	20	-8368	4944	13824	7	3	-26	-15544	-1272	-5328	10	-6	11	-2696	5296	16048	7	8	9	116	134	5
-8256	-5472	12684	-16	16	-25	-14920	608	-6632	2	0	-14	-3704	-4200	16096	-9	-11	22	-8248	4728	13808	15	-3	-20	-15504	-1368	-5512	14	-6	7	-2640	5192	16248	13	6	12	116	133	5
-8320	-5440	12596	-17	14	-25	-14944	464	-6472	7	3	-18	-3840	-4048	15896	-13	-16	22	-8320	4864	13728	11	-5	-23	-15736	-1320	-5664	15	-4	7	-2520	5104	16280	21	4	15	118	133	5
-8196	-5408	12748	-15	10	-21	-15128	680	-6416	8	-3	-12	-3888	-4168	16376	-11	-15	23	-8256	4792	13888	13	-3	-20	-15608	-1312	-5272	13	-4	6	-2568	5032	16128	23	5	6	117	134	5
-8304	-5452	12756	-14	13	-26	-14800	632	-6600	7	4	-14	-3840	-4200	16136	-8	-12	25	-8352	4848	13856	15	0	-21	-15536	-1328	-5376	6	-4	9	-2640	5136	15872	24	1	6	117	133	5
-8300	-5492	12736	-17	10	-28	-15048	592	-6568	1	-1	-12	-3792	-4152	15976	-5	-13	24	-8320	4904	13944	15	1	-24	-15384	-1200	-5528	3	-9	17	-2656	5088	16032	21	2	6	116	134	5
-8236	-5500	12672	-12	13	-24	-15040	640	-6272	1	1	-12	-3880	-4272	15824	-3	-12	27	-8288	4704	13840	19	-5	-18	-15440	-1280	-5464	5	-3	13	-2784	5168	16144	20	0	5	115	133	5
-8308	-5484	12652	-15	13	-21	-14840	560	-6448	3	2	-10	-3840	-4200	16096	1	-16	22	-8120	4896	13832	20	-10	-13	-15520	-1352	-5352	11	-11	17	-2680	4984	16080	21	1	8	117	133	5
-8260	-5500	12684	-14	11	-23	-15016	648	-6240	5	-1	-9	-3848	-4328	15968	1	-12	21	-8392	4888	13768	18	-6	-15	-15504	-1352	-5600	9	-7	19	-2624	5056	15976	21	1	8	118	133	5
-8312	-5404	12720	-5	10	-25	-14888	720	-6536	4	-7	-5	-3752	-4384	16216	10	-10	16	-8248	5112	13848	17	-9	-13	-15544	-1272	-5480	4	-6	21	-2736	5240	16184	30	3	6	117	133	5
-8184	-5464	12632	-9	17	-23	-14952	544	-6528	4	-2	1	-3864	-4344	16200	19	-12	16	-8208	4744	13736	8	-12	-14	-15504	-1208	-5544	3	-7	17	-2592	5232	16136	33	-6	7	116	133	5
-8304	-5508	12592	-5	12	-22	-14856	536	-6472	8	-1	4	-3840	-4200	16240	17	-11	16	-8264	4800	13736	9	-6	-16	-15608	-1160	-5424	-9	-1	15	-2464	5312	16272	35	2	11	115	133	5
-8248	-5476	12716	-1	11	-21	-14864	536	-6336	1	-5	-1	-3664	-4096	16160	16	-8	17	-8224	4888	13744	8	3	-24	-15512	-1208	-5432	-22	-2	12	-2520	5152	16144	34	-4	7	117	133	5
-8164	-5404	12760	-2	6	-26	-14968	752	-6424	3	-1	1	-3656	-4072	16208	13	-10	11	-8312	4840	13928	9	1	-15	-15472	-1264	-5584	-28	-4	16	-2528	5192	16272	26	5	1	118	134	5
-8300	-5476	12768	-7	14	-24	-15096	648	-6344	-9	4	3	-3712	-4072	16360	12	-5	10	-8280	4672	13616	6	4	-19	-15528	-1384	-5680	-8	-4	8	-2504	5328	16256	14	6	6	117	133	5
-8200	-5444	12624	-10	17	-16	-15024	552	-6504	-5	6	1	-3848	-3976	15984	17	-3	13	-8264	4856	13792	6	6	-19	-15504	-1224	-5432	13	-11	14	-2480	5152	16048	4	7	3	117	134	5
-8240	-5484	12584	-5	18	-19	-14888	688	-6416	9	2	-2	-3896	-4072	16192	14	-5	22	-8288	4880	13696	9	0	-23	-15624	-1384	-5544	18	-9	15	-2584	5160	16032	1	4	1	115	134	5
-8268	-5408	12672	-4	13	-17	-14936	672	-6536	17	2	-6	-3912	-3976	15928	2	-7	19	-8288	4808	13712	11	-3	-18	-15568	-1152	-5456	6	-14	15	-2736	5256	16224	10	2	3	116	133	5
-8232	-5352	12684	-9	11	-25	-14936	832	-6752	8	0	-7	-3976	-3944	16216	-7	-12	12	-8272	4928	13704	13	-12	-12	-15464	-1152	-5584	4	-12	10	-2760	5152	16024	12	6	4	118	134	5
-8304	-5460	12816	-10	10	-27	-14976	928	-6248	1	-4	-8	-4008	-4032	16176	-13	-6	9	-8208	4816	13656	15	-4	-17	-15616	-1264	-5384	20	-12	12	-2440	5032	16184	9	10	5	117	134	5
-8300	-5476	12712	-17	12	-31	-15016	696	-6184	4	-1	-6	-3672	-4072	16352	-5	-3	7	-8248	4752	13760	13	-5	-15	-15608	-1296	-5464	23	-15	14	-2616	5136	16208	6	13	3	116	134	5
-8324	-5412	12768	-12	12	-23	-14968	632	-6472	8	-3	-17	-3656	-4048	15944	-3	-7	15	-8224	4800	13672	17	-9	-16	-15664	-1248	-5256	14	-12	14	-2328	4896	16200	8	10	-1	116	134	5
-8236	-5428	12752	-17	17	-25	-15096	680	-6400	13	3	-16	-3712	-4120	15944	-19	-11	20	-8288	4776	13704	16	0	-18	-15680	-1336	-5600	0	-7	12	-2512	5008	16144	10	3	5	115	134	5
-8248	-5416	12760	-19	14	-25	-14944	696	-6336	14	5	-19	-3736	-4216	16288	-21	-13	17	-8232	4736	13856	20	-6	-19	-15600	-1328	-5528	7	-5	15	-2528	5024	16224	22	4	4	117	134	5
-8248	-5480	12736	-18	17	-25	-15000	592	-6304	11	4	-15	-3832	-4288	16128	-20	-6	25	-8208	4872	13664	22	-3	-20	-15560	-1336	-5392	13	1	10	-2584	5048	16264	30	4	3	118	134	5
-8228	-5420	12592	-17	19	-28	-14968	656	-6392	7	4	-8	-3904	-4120	16040	-4	-8	28	-8264	5024	13944	20	-2	-20	-15544	-1336	-5424	13	1	14	-2608	5056	16248	27	2	2	117	134	5
-8260	-5472	12652	-19	17	-17	-14944	608	-6176	9	1	-11	-3856	-4112	15920	6	-10	31	-8224	4888	13696	20	5	-27	-15432	-1336	-5624	0	-1	16	-2608	5120	16224	32	-5	7	117	134	5
-8320	-5420	12696	-16	19	-20	-14928	656	-6392	3	12	-12	-3848	-4064	16024	0	-15	36	-8480	4784	13616	22	1	-20	-15584	-1312	-5416	7	1	17	-2824	4912	16400	40	-2	9	115	134	5
-8256	-5412	12652	-13	15	-20	-14832	776	-6552	-2	9	-10	-3944	-4224	16240	-11	-14	30	-8224	4752	13560	23	-6	-23	-15520	-1360	-5400	19	-3	19	-2664	5128	16224	47	-3	16	116	133	5
-8256	-5500	12772	-14	12	-22	-14960	712	-6552	-6	5	-7	-3816	-4264	16048	-3	-13	24	-8320	4816	13832	28	-2	-20	-15592	-1344	-5464	22	-2	16	-2584	5120	16080	38	-1	14	118	133	5
-8244	-5468	12696	-15	14	-19	-15000	656	-6352	-1	2	-4	-3912	-4400	16000	6	-11	24	-8264	4792	13832	20	10	-23	-15600	-1368	-5536	11	-8	23	-2720	5128	16208	25	0	3	117	133	5
-8300	-5448	12676	-11	15	-23	-14928	656	-6504	7	3	-6	-3856	-4280	16168	11	-11	23	-8288	4816	13624	19	1	-21	-15536	-1224	-5384	1	-7	19	-2616	5192	15992	28	-8	-1	117	134	5
-8244	-5420	12644	-5	14	-23	-14864	656	-6704	6	2	-1	-3920	-4320	15968	11	-14	21	-8280	4768	13696	22	-1	-17	-15568	-1296	-5624	0	-9	23	-2704	5272	16032	28	-5	3	116	133	5
-8296	-5456	12756	-8	13	-23	-14920	664	-6520	0	-1	-3	-3808	-4144	16120	16	-12	18	-8264	4808	13976	23	-7	-16	-15544	-1440	-5608	5	-11	18	-2720	5152	16280	24	-3	3	115	133	5
-8240	-5452	12616	-5	12	-23	-14904	704	-6400	-1	-8	1	-3832	-4296	16168	20	-6	11	-8352	4856	13792	24	2	-13	-15504	-1288	-5624	14	-12	19	-2736	5128	16272	12	0	-1	117	133	5
-8244	-5432	12592	-3	12	-21	-14848	696	-6488	4	-6	3	-3888	-4096	16064	23	-1	11	-8280	4864	13600	19	-6	-16	-15536	-1376	-5640	15	-15	24	-2488	5088	15952	18	2	-5	118	134	5
-8212	-5416	12684	-5	11	-20	-14952	808	-6448	3	-8	1	-3824	-4144	16080	18	-4	14	-8416	4824	13856	20	1	-18	-15664	-1208	-5632	9	-14	23	-2544	5176	16160	19	-2	-4	117	133	5
-8240	-5444	12684	3	12	-25	-14848	656	-6544	-3	-8	1	-3824	-3976	16152	14	-10	13	-8184	4744	13816	20	-5	-17	-15448	-1296	-5360	18	-14	20	-2624	5200	16184	19	1	-2	116	133	5
-8232	-5380	12676	-8	13	-24	-15048	632	-6504	-5	-3	-3	-3832	-4128	16040	11	-6	14	-8320	4656	13832	24	-8	-17	-15544	-1344	-5384	17	-13	22	-2624	5200	16384	24	-5	-1	116	134	5
-8268	-5412	12712	-6	11	-23	-14872	696	-6480	1	-2	-5	-3784	-4136	16128	17	-3	20	-8240	4856	13720	23	2	-22	-15544	-1104	-5448	10	-11	20	-2416	5176	16184	25	0	4	116	133	5
-8208	-5448	12700	-6	12	-28	-15088	768	-6480	1	-2	-7	-3808	-4024	16160	11	-7	22	-8264	4840	13504	17	2	-20	-15656	-1272	-5336	3	-4	20	-2424	5136	16048	27	-5	2	118	133	5
-8284	-5392	12684	-11	9	-23	-14824	680	-6576	10	5	-8	-3704	-3960	16240	10	-12	21	-8448	4864	13584	20	1	-23	-15616	-1320	-5576	3	0	19	-2424	5080	16560	36	-4	1	116	134	5
-8292	-5404	12728	-13	8	-23	-14944	664	-6352	13	4	-9	-3784	-3952	16064	-6	-14	20	-8280	4824	13760	22	-4	-20	-15472	-1304	-5464	10	6	16	-2584	5200	16088	37	-6	5	116	133	5
-8248	-5392	12744	-7	15	-22	-14832	792	-6608	8	5	-7	-3888	-4096	16112	-12	-14	17	-8376	4896	13648	19	-1	-20	-15504	-1352	-5440	11	-3	22	-2488	5200	16088	37	-4	3	116	133	5
-8204	-5448	12696	-13	12	-22	-14904	688	-6488	0	2	-15	-3864	-3976	16136	-6	-15	21	-8376	4864	13704	22	-4	-22	-15528	-1216	-5328	12	1	18	-2664	5200	16208	24	-6	1	115	133	5
-8264	-5448	12744	-16	12	-22	-14920	816	-6256	-9	6	-17	-3984	-4024	16040	-9	-15	28	-8352	4920	13560	19	-3	-22	-15592	-1416	-5424	6	0	19	-2648	5216	15912	25	-7	-5	117	133	5
-8248	-5464	12672	-19	13	-23	-14944	632	-6464	1	5	-14	-3864	-4048	16000	-11	-15	32	-8216	4888	13768	17	0	-21	-15512	-1208	-5560	6	-1	17	-2656	5208	16128	27	-6	4	118	133	5
-8220	-5452	12660	-20	16	-19	-14952	632	-6608	7	2	-11	-3984	-4064	15992	-10	-18	28	-8336	4784	13656	16	1	-23	-15440	-1392	-5584	5	1	15	-2888	5136	16144	29	-3	7	116	133	5
-8240	-5440	12724	-18	18	-23	-15024	704	-6640	11	-1	-15	-3936	-4056	15904	-12	-19	21	-8216	4960	13752	15	-3	-20	-15520	-1384	-5632	11	-7	15	-2728	5344	16072	29	1	11	116	133	5
-8232	-5436	12724	-13	17	-24	-14952	736	-6320	12	-4	-15	-4088	-4248	16288	-8	-13	22	-8360	4856	13768	18	1	-22	-15408	-1256	-5456	18	-5	16	-2664	5216	16304	20	1	11	116	134	5
-8304	-5456	12716	-17	16	-24	-14920	712	-6544	10	-6	-17	-3928	-4112	16208	-2	-16	24	-8336	4656	13704	13	-8	-26	-15512	-1096	-5624	23	-15	13	-2624	5256	16136	13	-1	4	115	133	5
-8184	-5428	12704	-12	16	-29	-15016	736	-6336	-1	-7	-13	-3912	-4240	15968	0	-10	30	-8248	4960	14008	14	-3	-21	-15568	-1256	-5568	18	-15	14	-2568	5208	16352	11	0	10	117	133	5
-8284	-5432	12780	-14	17	-26	-14832	536	-6344	-1	-5	-13	-3704	-4240	16128	-1	-13	25	-8360	4848	13792	11	-6	-20	-15512	-1288	-5488	8	-7	16	-2560	5184	16008	11	5	6	118	133	5
-8216	-5468	12684	-8	14	-23	-14736	624	-6264	-1	-4	-13	-3760	-4280	16128	6	-9	23	-8376	5008	13792	15	1	-24	-15576	-1280	-5360	5	-16	13	-2600	5152	16192	16	3	8	117	133	5
-8268	-5416	12668	-8	14	-26	-14904	512	-6368	9	-1	-8	-3680	-4160	15928	14	-7	23	-8352	4928	13872	19	-6	-16	-15504	-1296	-5504	4	-8	15	-2560	5032	16272	17	0	0	116	133	5
-8244	-5496	12712	-8	11	-24	-15024	520	-6352	8	-5	-8	-3744	-3920	16176	13	-10	19	-8320	4840	13824	16	-1	-20	-15592	-1328	-5376	10	-12	18	-2520	5296	16128	13	3	-1	115	134	5
-8220	-5400	12664	-7	15	-20	-14800	768	-6488	-2	2	-11	-3696	-4048	16112	8	-10	16	-8096	4776	13776	20	1	-20	-15568	-1280	-5352	11	-3	13	-2584	5096	16328	17	-3	-2	117	133	5
-8252	-5456	12808	-8	12	-22	-14984	616	-6480	-1	0	-9	-3632	-4064	16304	-1	-16	13	-8272	4752	13944	20	-3	-18	-15584	-1200	-5520	6	-1	20	-2536	5120	16304	22	-1	3	118	133	5
-8248	-5428	12696	-11	12	-18	-14912	840	-6536	-9	4	-11	-3744	-4064	16096	-3	-19	14	-8288	4728	13320	15	3	-23	-15600	-1296	-5328	4	1	16	-2600	5064	16224	23	-6	7	117	133	5
-8276	-5420	12748	-12	16	-21	-14992	840	-6336	-1	3	-5	-3808	-4096	16160	-3	-15	10	-8272	4800	13768	19	5	-21	-15440	-1328	-5552	5	-2	15	-2464	5128	16424	26	-6	5	116	133	5
-8260	-5476	12636	-15	15	-21	-14928	768	-6328	0	6	-12	-3904	-4000	16040	-4	-22	22	-8224	4928	13904	21	-3	-19	-15560	-1184	-5344	14	0	17	-2488	5224	16272	31	-4	1	116	134	5
-8188	-5380	12688	-15	20	-18	-14992	552	-6312	7	3	-13	-3856	-3936	16264	-1	-19	23	-8392	4792	13960	22	-2	-22	-15568	-1256	-5448	17	-1	20	-2544	5224	16024	21	-4	2	115	133	5
-8232	-5372	12724	-11	17	-19	-15016	656	-6592	10	7	-16	-3936	-4072	16224	-4	-21	30	-8288	4944	13728	17	0	-20	-15360	-1280	-5584	12	-3	19	-2688	5264	16040	21	-1	2	117	133	5
-8260	-5420	12748	-9	19	-28	-15056	784	-6544	12	-1	-15	-3960	-4152	16344	-6	-21	26	-8344	4896	13656	18	0	-18	-15480	-1200	-5456	1	-5	12	-2696	5248	16120	23	1	2	118	134	5
-8220	-5440	12740	-18	18	-24	-14968	768	-6672	4	1	-17	-3960	-4104	16200	-3	-19	24	-8280	4960	13808	16	0	-17	-15480	-1192	-5304	0	-7	16	-2624	5144	16336	22	-4	3	117	134	5
-8212	-5420	12708	-15	16	-26	-14864	760	-6536	2	-5	-18	-3848	-4288	16232	-5	-20	26	-8232	4856	13664	14	-6	-19	-15544	-1120	-5512	2	-13	17	-2600	5328	16072	18	3	9	116	134	5
-8236	-5404	12640	-16	16	-22	-14912	576	-6480	-1	-3	-18	-3752	-4184	16048	-4	-17	24	-8304	4848	13704	16	2	-21	-15512	-1280	-5456	9	-6	14	-2664	5152	16136	15	0	9	115	133	5
-8276	-5444	12548	-17	13	-25	-14976	656	-6368	-2	-8	-18	-3856	-4168	16048	-8	-16	22	-8248	4912	13992	17	-10	-18	-15632	-1144	-5352	12	-8	13	-2560	5232	16128	6	4	11	116	133	5
-8220	-5432	12720	-13	17	-24	-14840	680	-6320	-1	-7	-15	-3784	-4280	16024	-7	-16	19	-8192	4960	13752	14	-4	-19	-15536	-1200	-5472	16	-16	11	-2512	5344	16208	12	6	10	118	133	5
-8292	-5436	12736	-13	12	-25	-14888	552	-6192	2	-6	-10	-3712	-4272	16160	-3	-15	22	-8336	4648	13984	10	-1	-21	-15520	-1312	-5264	19	-14	15	-2408	5152	16224	7	8	8	117	134	5
-8220	-5392	12508	-12	10	-24	-14848	672	-6488	10	-4	-10	-3832	-4256	16336	3	-11	22	-8304	4840	13816	16	-1	-14	-15624	-1160	-5072	15	-11	12	-2400	5008	16304	17	6	5	117	133	5
-8228	-5412	12720	-14	13	-26	-14936	688	-6416	6	-3	-10	-3776	-4080	16088	6	-6	23	-8152	4760	13744	11	-4	-22	-15536	-1296	-5416	14	-6	8	-2496	4936	16208	18	7	6	116	134	5
-8304	-5416	12736	-10	14	-23	-14904	688	-6592	-1	-2	-9	-3624	-4024	16160	6	-11	24	-8256	4864	13792	12	-5	-21	-15496	-1224	-5488	4	-1	10	-2600	5168	16144	24	-2	6	115	134	5
-8220	-5464	12736	-17	13	-23	-15000	792	-6440	0	1	-10	-3720	-4104	16136	-2	-12	22	-8312	4808	13896	13	-6	-18	-15592	-1352	-5528	1	-3	9	-2560	5096	16264	17	4	7	117	134	5
-8272	-5412	12684	-12	12	-24	-14904	720	-6424	3	4	-17	-3832	-4128	16016	-5	-15	21	-8280	4856	13832	11	-1	-23	-15520	-1288	-5248	10	0	15	-2464	4968	16296	19	1	5	118	134	5
-8228	-5428	12680	-11	12	-22	-15040	592	-6520	9	7	-12	-3696	-4032	16000	-12	-15	19	-8344	4896	13840	18	-1	-22	-15360	-1272	-5376	5	0	14	-2560	5008	15912	19	3	5	117	133	5
-8244	-5416	12640	-18	11	-25	-14912	824	-6440	8	7	-12	-3864	-4184	16128	-11	-17	25	-8376	4816	13768	18	-2	-20	-15512	-1392	-5472	4	3	21	-2544	5160	16392	30	-3	4	116	134	5
-8216	-5420	12704	-13	12	-24	-14920	576	-6480	3	7	-9	-3944	-4072	16152	-9	-14	27	-8272	4800	13768	21	0	-20	-15520	-1480	-5344	7	-3	14	-2696	5224	16360	28	2	5	115	134	5
-8260	-5428	12672	-16	15	-24	-14904	744	-6336	1	11	-17	-3960	-4280	16112	-12	-21	28	-8416	4728	13848	17	7	-25	-15544	-1304	-5472	4	-1	16	-2688	5136	16104	34	-1	3	115	133	5
-8260	-5480	12656	-15	15	-22	-14808	744	-6352	-1	3	-13	-3896	-4288	16144	-7	-20	26	-8392	4888	13552	23	1	-18	-15560	-1408	-5648	6	2	16	-2856	5232	15840	27	-4	2	118	134	5
-8260	-5416	12612	-11	12	-23	-14848	672	-6568	3	-1	-14	-3920	-4216	16272	-6	-14	20	-8400	4904	13936	18	-4	-21	-15520	-1296	-5488	7	-4	23	-2608	5320	16088	25	-1	0	117	134	5
-8236	-5408	12724	-13	13	-26	-14960	776	-6608	8	0	-8	-3840	-4072	16000	-3	-18	18	-8320	4912	13864	19	-3	-13	-15608	-1312	-5416	12	-12	18	-2704	5248	15976	19	-4	0	117	134	5
-8248	-5428	12692	-8	13	-21	-14912	520	-6832	1	-6	-11	-3832	-4144	16200	-1	-12	18	-8248	4776	13704	18	-4	-18	-15536	-1280	-5584	9	-9	20	-2688	5080	16200	14	-2	-3	116	133	5
-8280	-5436	12640	-10	12	-25	-14864	872	-6464	1	-1	-10	-3768	-4224	16024	-1	-13	13	-8192	4896	13784	18	-4	-17	-15640	-1208	-5320	8	-12	17	-2640	5288	16384	9	-1	0	115	133	5
-8240	-5532	12660	-10	14	-24	-15040	704	-6632	1	-6	-12	-3752	-4184	16032	3	-13	17	-8272	4808	13848	17	-1	-18	-15432	-1320	-5680	12	-14	17	-2616	5240	16216	5	6	1	117	133	5
-8256	-5404	12700	-11	14	-25	-15048	680	-6576	1	-5	-9	-3808	-4144	16312	4	-11	17	-8448	4984	13752	20	-7	-19	-15504	-1360	-5512	6	-15	20	-2512	5032	16080	8	3	1	118	133	5
-8276	-5448	12680	-11	10	-27	-15024	712	-6336	1	-6	-5	-3744	-4264	15976	9	-13	17	-8264	4744	13632	15	-1	-16	-15640	-1144	-5520	13	-11	17	-2536	5000	16024	12	3	2	117	133	5
-8300	-5448	12716	-6	14	-27	-14936	576	-6712	3	-3	-2	-3656	-4248	16088	9	-9	20	-8208	4840	13816	15	1	-16	-15520	-1320	-5456	10	-9	19	-2480	4960	15928	23	3	2	116	133	5
-8272	-5380	12768	-3	15	-27	-14920	696	-6520	1	-1	-5	-3648	-4144	16016	7	-8	16	-8224	4808	13800	21	-2	-15	-15648	-1320	-5400	15	-13	18	-2488	4976	16080	24	-2	1	116	133	5
-8308	-5408	12656	-6	11	-20	-15024	736	-6352	9	1	-8	-3680	-4128	16328	5	-7	19	-8184	4840	13560	16	0	-19	-15640	-1264	-5528	8	-6	16	-2400	5096	16032	28	0	6	116	133	5
-8216	-5396	12572	-8	19	-25	-14928	592	-6472	1	1	-2	-3672	-3920	16080	5	-11	19	-8064	4936	13816	19	-8	-17	-15520	-1248	-5424	4	-2	21	-2520	5048	16208	27	0	6	118	133	5
-8264	-5444	12760	-5	16	-22	-15016	760	-6368	0	2	-5	-3736	-4176	16080	-1	-12	20	-8192	4920	13920	19	-4	-21	-15568	-1264	-5520	-1	3	16	-2656	5160	16360	28	2	0	117	133	5
-8268	-5396	12736	-11	18	-17	-14936	648	-6480	3	4	-7	-3760	-4008	16008	0	-8	26	-8240	4880	13632	20	-3	-16	-15496	-1224	-5368	4	-2	17	-2640	5128	16336	27	0	4	116	133	5
-8316	-5420	12636	-15	15	-22	-15096	768	-6312	2	2	-13	-3776	-3992	16200	-5	-13	21	-8328	4728	13648	18	6	-19	-15520	-1312	-5552	6	3	18	-2608	4944	15904	31	-4	6	116	134	5
-8300	-5388	12752	-13	18	-21	-14760	680	-6416	4	8	-10	-3976	-4032	15952	-3	-10	24	-8272	4848	13520	17	-1	-24	-15584	-1208	-5712	7	-1	19	-2720	5136	16376	27	-5	3	116	133	5
-8288	-5472	12652	-12	18	-23	-14928	656	-6528	8	7	-9	-3880	-4168	15968	-10	-15	25	-8272	4864	13672	20	5	-23	-15576	-1224	-5704	10	-2	17	-2616	5008	15992	8	-6	8	117	133	5
-8276	-5472	12716	-16	13	-25	-14848	648	-6536	12	3	-10	-3848	-4088	15976	-9	-12	24	-8280	4760	13736	23	0	-20	-15432	-1296	-5280	17	-5	20	-2656	5176	16104	2	-7	4	118	134	5
-8312	-5548	12748	-17	15	-24	-14936	632	-6400	3	2	-10	-4064	-4224	16120	1	-13	20	-8224	4680	13800	22	2	-26	-15504	-1400	-5712	18	-10	22	-2704	5032	16192	1	-3	-2	117	133	5
-8316	-5444	12688	-17	16	-23	-15000	736	-6448	3	3	-10	-3960	-4184	15928	-3	-10	20	-8376	4720	13832	23	3	-27	-15544	-1272	-5712	20	-9	22	-2672	5064	16152	-6	-7	-1	116	134	5
-8308	-5416	12760	-13	10	-28	-14880	680	-6560	2	-3	-9	-3952	-4128	16104	3	-10	17	-8392	4864	13584	21	-2	-17	-15560	-1232	-5472	27	-16	20	-2512	5120	16088	19	-4	-3	115	134	5
-8248	-5500	12704	-12	12	-25	-15000	584	-6592	4	-7	-7	-3872	-4312	16248	0	-12	17	-8232	4872	13800	28	-7	-21	-15528	-1248	-5944	22	-12	25	-2600	5120	16032	16	-4	10	116	133	5
-8284	-5472	12724	-12	12	-25	-14856	720	-6384	3	-5	-8	-3904	-4232	16048	4	-10	19	-8200	4864	13848	19	-4	-19	-15552	-1304	-5384	24	-18	21	-2512	5224	16168	23	5	5	118	134	5
-8148	-5416	12712	-11	9	-23	-15040	720	-6520	2	-5	-8	-3752	-4176	16120	9	-7	18	-8232	4616	13696	19	2	-24	-15472	-1264	-5576	11	-2	15	-2592	5080	16240	6	2	1	117	134	5
-8324	-5488	12696	-10	15	-24	-14912	760	-6536	10	-6	-8	-3720	-4104	16000	8	-9	19	-8312	4792	13728	17	-4	-17	-15664	-1184	-5528	5	-13	18	-2480	5216	16376	5	3	-3	116	134	5
-8220	-5432	12732	-9	11	-21	-15048	768	-6624	3	-5	-6	-3680	-4328	15976	11	-9	21	-8376	4736	13912	18	-5	-18	-15480	-1200	-5600	2	-7	16	-2472	5056	16248	11	3	3	116	134	5
-8268	-5512	12628	-9	17	-28	-14928	704	-6400	2	-2	-8	-3808	-4176	16216	7	-12	20	-8240	4752	13976	20	0	-16	-15472	-1416	-5568	0	-7	13	-2392	4960	16256	19	0	0	116	133	5
-8236	-5416	12736	-6	13	-21	-15008	800	-6392	1	0	-7	-3808	-4080	16192	5	-7	18	-8240	4928	13616	15	-5	-21	-15512	-1360	-5648	4	-8	17	-2424	5072	16280	37	-1	5	118	133	5
-8312	-5428	12700	-8	12	-21	-14960	648	-6264	0	2	-7	-3768	-4168	16120	4	-7	15	-8216	4872	13656	21	-5	-16	-15696	-1080	-5616	10	-2	17	-2528	5104	15952	41	-3	5	117	133	5
-8240	-5392	12740	-16	14	-23	-14968	568	-6328	-2	4	-4	-3768	-4104	16120	-3	-12	19	-8384	4704	13832	18	-4	-16	-15528	-1288	-5352	8	-3	20	-2632	5224	16256	38	-3	6	117	133	5
-8304	-5380	12780	-13	18	-22	-14888	792	-6272	4	8	-4	-3864	-4176	16160	-3	-13	23	-8320	4896	13776	20	-2	-23	-15392	-1272	-5480	7	-1	17	-2536	5152	16040	30	-1	1	116	134	5
-8268	-5440	12696	-13	11	-21	-14936	648	-6480	14	8	-3	-3872	-4184	16096	-4	-11	21	-8224	4848	13632	20	-10	-18	-15536	-1472	-5696	10	-2	16	-2408	5264	16104	24	-3	0	115	134	5
-8200	-5452	12624	-9	11	-23	-14960	768	-6376	7	3	-8	-3832	-4184	15952	0	-11	18	-8232	4872	13744	22	-2	-20	-15552	-1304	-5936	5	-2	20	-2488	5264	16128	22	-2	-2	117	134	5
-8264	-5476	12724	-12	12	-19	-14904	664	-6336	4	3	-11	-3808	-4168	16104	-3	-12	20	-8352	4728	13728	18	-3	-15	-15544	-1192	-5648	2	1	18	-2656	5144	16016	18	1	0	119	133	5
-8308	-5400	12604	-7	11	-27	-14848	696	-6496	5	8	-14	-3872	-4072	16040	-4	-10	26	-8256	4864	13824	16	0	-22	-15528	-1248	-5536	-1	-8	15	-2792	5208	15920	14	-1	7	116	133	5
-8276	-5400	12588	-15	17	-18	-14976	720	-6472	7	2	-6	-3944	-4208	16128	-2	-13	20	-8224	4960	13592	20	0	-20	-15616	-1248	-5304	7	-4	17	-2632	5120	16088	22	-4	5	116	133	5
-8280	-5420	12728	-12	13	-28	-14920	664	-6424	3	-2	-9	-3880	-4176	16112	0	-11	25	-8232	4800	13856	17	5	-19	-15664	-1328	-5672	8	-3	19	-2640	4936	16248	20	2	8	115	134	5
-8268	-5436	12796	-16	14	-26	-14888	776	-6240	4	-1	-11	-3784	-4232	16160	4	-9	23	-8176	4864	13504	23	-3	-22	-15616	-1224	-5624	16	-8	21	-2760	5152	16280	26	3	2	116	133	5
-8268	-5452	12724	-14	14	-23	-14920	792	-6376	6	4	-10	-3752	-4232	16048	3	-8	20	-8200	4856	13568	24	-6	-18	-15568	-1368	-5624	20	-11	20	-2520	5200	16144	19	-5	-1	118	133	5
-8244	-5448	12736	-8	7	-22	-14984	704	-6408	6	-4	-6	-3760	-4152	16248	-2	-12	19	-8360	4824	13696	22	-2	-15	-15544	-1176	-5424	19	-13	22	-2568	5080	16296	9	-3	-2	117	134	5
-8264	-5472	12788	-13	10	-25	-14864	656	-6464	5	-10	-8	-3904	-4144	16128	-1	-10	14	-8352	4992	13528	23	-4	-18	-15504	-1280	-5424	13	-8	20	-2456	5088	16264	13	1	-3	117	133	5
-8248	-5480	12652	-10	11	-26	-14920	672	-6344	4	-4	-7	-3808	-4176	16168	8	-9	18	-8280	4824	13904	18	-6	-17	-15560	-1200	-5424	2	-11	16	-2488	4992	16080	17	3	-1	116	134	5
-8284	-5400	12620	-15	12	-27	-14880	672	-6392	1	-7	-9	-3728	-4216	16080	11	-3	15	-8352	4768	14008	21	-3	-17	-15536	-1368	-5552	-4	-9	16	-2504	4936	16248	24	4	3	115	134	5
-8176	-5460	12608	-10	17	-21	-14936	720	-6408	-3	0	-9	-3792	-4136	16264	10	-7	21	-8224	4872	13760	19	-5	-17	-15632	-1408	-5616	2	-9	16	-2472	5032	16080	27	5	0	117	133	5
-8256	-5504	12652	-9	16	-18	-14968	688	-6480	4	-4	-8	-3720	-4240	16032	10	-7	20	-8264	4792	13680	19	-1	-19	-15520	-1264	-5456	7	-8	17	-2456	5128	16200	30	1	3	119	133	5
-8272	-5416	12608	-8	18	-21	-15008	760	-6672	5	-1	-8	-3760	-4000	15904	3	-11	20	-8216	5008	13744	20	-8	-18	-15512	-1256	-5424	10	-7	15	-2664	4984	16264	28	-1	-2	117	134	5
-8240	-5448	12696	-12	17	-19	-15064	640	-6760	7	5	-2	-3856	-4112	15992	-6	-7	13	-8304	4800	13872	18	-2	-23	-15656	-1304	-5352	10	-7	19	-2600	4928	16104	30	-2	0	117	133	5
-8248	-5392	12632	-9	14	-25	-14984	720	-6464	14	2	-4	-3824	-4176	16128	1	-11	14	-8304	4792	13936	14	-8	-22	-15560	-1256	-5360	5	3	20	-2440	5064	16008	29	-4	-4	115	134	5
-8300	-5472	12716	-14	13	-22	-14872	744	-6488	9	5	-4	-3848	-4224	16080	3	-9	21	-8408	4896	13744	23	-2	-18	-15544	-1200	-5560	4	-5	19	-2648	5008	16184	30	-3	3	116	133	5
-8224	-5468	12640	-15	10	-22	-14960	800	-6264	-3	3	-6	-3816	-4096	16264	0	-9	21	-8184	4864	14040	19	-5	-20	-15560	-1416	-5440	4	-1	20	-2496	5160	16240	27	3	4	118	133	5
-8256	-5476	12676	-8	15	-23	-14880	816	-6288	1	2	-8	-3776	-4008	16040	0	-8	23	-8320	4880	13840	18	-1	-23	-15544	-1216	-5552	7	-2	19	-2568	5144	16168	25	0	4	117	133	5
-8228	-5452	12748	-14	11	-27	-14944	800	-6520	-5	7	-8	-3848	-4008	16160	-1	-14	21	-8312	4736	13632	19	5	-21	-15432	-1344	-5640	13	-2	17	-2608	5216	16096	25	-1	5	117	133	5
-8308	-5392	12776	-13	10	-16	-15056	632	-6416	2	-1	-9	-3824	-4136	16232	-7	-12	21	-8392	4864	13608	15	-1	-17	-15504	-1288	-5720	10	-4	20	-2656	5160	16200	27	-3	4	116	134	5
-8252	-5496	12776	-10	15	-27	-14912	496	-6472	7	1	-9	-3976	-4112	16112	-9	-11	23	-8376	4928	13656	14	3	-19	-15528	-1232	-5376	12	-5	15	-2664	5088	16376	26	-2	1	116	133	5
-8288	-5504	12744	-12	9	-25	-15024	760	-6480	7	-1	-9	-3936	-4152	15976	-3	-12	18	-8272	4936	13600	17	-7	-19	-15648	-1328	-5648	7	-3	17	-2552	5192	16224	31	2	5	118	133	5
-8308	-5464	12828	-8	10	-22	-14880	680	-6336	6	0	-13	-3936	-4160	15936	6	-13	21	-8336	4896	13728	15	-7	-21	-15600	-1280	-5392	5	-9	16	-2552	5160	16120	29	-1	6	118	134	5
-8284	-5444	12564	-14	15	-27	-14992	768	-6424	5	-6	-10	-3880	-4232	16088	6	-9	22	-8304	4872	13888	17	-9	-17	-15584	-1408	-5440	12	-12	13	-2432	5360	16064	23	6	8	117	133	5
-8276	-5400	12684	-10	13	-29	-14976	688	-6408	3	-7	-14	-3880	-4200	16128	10	-9	18	-8376	4928	13576	20	-7	-16	-15400	-1272	-5480	14	-11	20	-2440	5224	16096	19	0	8	117	133	5
-8288	-5472	12768	-7	15	-29	-14984	632	-6392	3	-5	-6	-3736	-4048	16144	7	-9	21	-8320	4784	13752	19	-4	-20	-15544	-1112	-5464	10	-12	18	-2600	5024	16136	18	4	2	115	133	5
-8236	-5416	12804	-11	16	-24	-14928	816	-6456	10	-1	-3	-3712	-4304	15968	5	-7	20	-8224	4792	13640	16	-9	-16	-15496	-1280	-5272	9	-7	19	-2640	5192	16040	20	2	5	117	133	5
-8164	-5440	12656	-7	17	-27	-15000	744	-6608	16	0	-1	-3872	-4008	15976	5	-9	23	-8280	4872	13832	20	-1	-20	-15552	-1208	-5400	9	-5	11	-2592	5016	16032	25	1	5	118	133	5
-8268	-5436	12676	-11	14	-24	-14888	688	-6544	15	1	-9	-3864	-4040	16248	-1	-11	21	-8264	4928	14024	21	-6	-18	-15584	-1200	-5416	4	-9	17	-2656	5048	16144	28	1	3	117	134	5
-8292	-5360	12756	-9	17	-22	-14936	656	-6688	11	3	-10	-3792	-4160	16152	1	-11	23	-8272	4808	13672	16	0	-17	-15600	-1160	-5432	9	-3	17	-2592	5040	16216	32	0	-1	116	133	5
-8252	-5404	12760	-12	17	-28	-14968	704	-6768	6	2	-6	-3752	-4032	16056	0	-13	18	-8168	4816	13768	19	-4	-17	-15552	-1312	-5432	5	-6	19	-2488	5184	16064	38	-5	-2	116	134	5
-8272	-5440	12636	-17	17	-23	-14952	784	-6704	6	2	-6	-3800	-4128	16120	-1	-7	24	-8264	4784	13776	17	-2	-16	-15440	-1296	-5488	11	-3	22	-2680	5104	16024	39	-3	1	116	133	5
-8276	-5476	12624	-10	20	-21	-15008	576	-6328	7	2	-8	-3872	-4056	16216	2	-10	22	-8208	4920	13568	22	4	-17	-15448	-1392	-5360	7	-5	23	-2592	5128	16160	32	-3	1	118	133	5
-8232	-5448	12760	-10	17	-22	-14936	776	-6696	0	6	-6	-3792	-4072	16328	-1	-12	22	-8360	4952	13680	22	-1	-21	-15608	-1368	-5488	2	-9	22	-2592	5072	16152	34	-1	0	117	134	5
-8292	-5392	12760	-14	18	-21	-14904	736	-6416	-1	-2	-11	-3864	-4160	16096	-2	-12	22	-8368	4920	13808	20	4	-17	-15592	-1328	-5544	-1	-7	22	-2568	5184	16296	27	1	-2	117	133	5
-8240	-5368	12676	-13	15	-21	-15040	688	-6472	6	0	-7	-3784	-4096	16176	-1	-12	24	-8312	4888	13656	23	5	-17	-15360	-1376	-5368	-1	-6	24	-2616	5224	16296	27	-8	-5	116	134	5
-8248	-5444	12656	-10	15	-20	-15040	768	-6456	4	0	-11	-3992	-4096	16032	3	-14	22	-8184	4856	13904	20	-1	-18	-15432	-1376	-5464	0	-8	17	-2680	5232	16216	27	-3	-1	115	133	5
-8232	-5460	12720	-8	12	-21	-15064	704	-6840	5	-2	-8	-3840	-4000	16056	2	-16	18	-8192	4888	13816	22	-4	-21	-15432	-1152	-5744	2	-9	17	-2536	5104	16320	24	4	0	117	133	5
-8256	-5428	12836	-13	13	-23	-14880	736	-6600	1	-4	-8	-3880	-4120	16288	4	-13	17	-8336	4872	13640	18	-3	-20	-15464	-1160	-5440	6	-11	19	-2544	5240	15808	19	1	-3	118	133	5
-8220	-5508	12720	-10	12	-21	-15016	560	-6480	-1	-2	-14	-3920	-4032	16056	3	-18	16	-8192	4856	13912	16	-6	-16	-15480	-1400	-5632	10	-9	18	-2480	5120	16040	11	2	4	117	133	5
-8224	-5416	12676	-15	13	-24	-14720	656	-6392	-1	0	-11	-3928	-3984	16064	-2	-19	18	-8336	4936	13864	18	-8	-20	-15616	-1144	-5568	10	-14	12	-2496	5264	16120	6	1	-1	117	133	5
-8244	-5460	12604	-16	12	-24	-14928	744	-6376	-1	-4	-15	-3904	-4136	16000	-9	-17	20	-8200	4840	13864	12	-3	-21	-15584	-1296	-5208	12	-5	15	-2480	5216	16184	8	5	3	116	133	5
-8268	-5352	12708	-12	14	-20	-14872	648	-6376	1	-4	-12	-3928	-4080	16288	-9	-19	22	-8184	4968	13640	13	-5	-19	-15528	-1128	-5424	11	-12	13	-2568	5248	16128	16	3	5	116	133	5
-8268	-5420	12580	-12	14	-25	-14968	816	-6408	-1	-3	-19	-3896	-4136	16240	-8	-15	24	-8264	4736	13528	13	-5	-14	-15576	-1208	-5504	5	-9	10	-2632	5208	16304	16	5	3	118	133	5
-8224	-5444	12744	-16	15	-25	-14952	624	-6408	2	-5	-13	-3808	-4144	16320	-6	-19	24	-8312	4920	13872	11	-2	-21	-15552	-1192	-5232	3	-9	7	-2560	5184	16088	20	4	12	118	133	5
-8268	-5464	12708	-15	19	-26	-14968	688	-6368	0	-2	-14	-3752	-4184	16136	-6	-16	23	-8368	5072	13816	11	1	-23	-15464	-1272	-5472	6	-10	7	-2528	5224	16248	21	8	11	116	133	5
-8200	-5452	12644	-12	14	-24	-14824	784	-6400	6	1	-14	-3872	-4160	16136	-15	-21	23	-8320	4800	13624	15	-10	-19	-15592	-1232	-5400	5	-2	10	-2536	5152	16072	17	3	13	116	133	5
-8192	-5440	12632	-15	19	-20	-14864	616	-6560	3	2	-16	-3872	-4144	16000	-9	-17	29	-8352	4872	13720	13	0	-18	-15416	-1408	-5528	8	-5	6	-2648	5128	16192	16	3	15	115	133	5
-8300	-5416	12784	-18	13	-25	-14936	680	-6456	-3	-1	-21	-3864	-4256	16048	-4	-15	22	-8392	4856	13584	13	-8	-16	-15504	-1176	-5456	6	-9	7	-2496	5288	16200	16	-1	13	117	133	5
-8204	-5420	12660	-11	15	-21	-14920	672	-6376	-2	-4	-18	-3824	-4240	16160	-6	-18	29	-8224	4928	13720	13	-4	-20	-15504	-1312	-5544	6	-7	10	-2544	5080	16240	21	-1	16	118	133	5
-8260	-5444	12740	-18	18	-27	-15008	656	-6184	-1	-2	-18	-3864	-4152	15880	-5	-19	28	-8168	4936	13704	13	-7	-20	-15440	-1280	-5472	6	-10	10	-2584	5216	15912	22	1	22	117	133	5
-8252	-5428	12808	-16	13	-27	-14984	680	-6480	7	0	-13	-3824	-4256	16208	-9	-18	24	-8352	4728	13664	14	-7	-23	-15600	-1352	-5424	8	-5	4	-2648	5016	16216	26	-5	20	116	133	5
-8252	-5416	12644	-14	17	-23	-14880	544	-6320	5	1	-15	-3864	-4200	16032	-5	-18	23	-8168	4912	14096	11	-10	-18	-15600	-1352	-5464	9	-2	9	-2768	5000	16152	30	0	22	116	134	5
-8316	-5460	12644	-15	13	-20	-14920	824	-6720	5	-1	-12	-3688	-4088	16144	-3	-10	22	-8312	4616	13656	13	-5	-20	-15464	-1416	-5472	8	-7	12	-2488	4928	15976	26	2	18	114	133	5
-8248	-5480	12648	-12	18	-20	-15104	576	-6408	4	0	-12	-3664	-4240	16064	1	-10	20	-8224	4856	13840	15	-7	-18	-15600	-1360	-5200	13	-5	11	-2504	5032	16144	26	-1	14	117	133	5
-8228	-5448	12684	-11	19	-23	-15016	488	-6256	-1	0	-3	-3768	-4168	16168	2	-11	21	-8216	4784	13792	20	-6	-20	-15472	-1256	-5480	8	-5	10	-2600	5104	16072	25	2	8	118	133	5
-8284	-5468	12704	-11	18	-23	-14864	616	-6568	1	0	-11	-3744	-4224	15968	7	-10	18	-8288	4984	13624	16	-5	-18	-15576	-1304	-5536	4	-9	14	-2472	5096	16088	28	0	4	116	133	5
-8288	-5464	12700	-12	15	-21	-14968	736	-6352	1	1	-9	-3800	-4088	16392	-1	-10	20	-8376	4920	13648	21	-2	-17	-15512	-1256	-5440	-2	-1	13	-2616	5096	16320	21	-2	3	116	134	5
-8264	-5324	12684	-14	13	-22	-15040	800	-6344	-1	3	-15	-3840	-4064	16008	0	-11	20	-8216	4720	13904	17	1	-17	-15576	-1320	-5296	-3	-2	18	-2616	5144	16136	20	1	0	115	134	5
-8256	-5452	12620	-8	16	-23	-15000	664	-6520	4	4	-14	-3960	-4184	15912	-5	-11	22	-8264	4696	13520	18	-4	-17	-15576	-1328	-5280	-3	-5	16	-2600	5000	16208	25	-1	2	115	133	5
-8296	-5436	12676	-12	19	-17	-14912	640	-6320	6	2	-9	-3904	-4184	15944	-3	-9	18	-8280	4776	13672	25	-3	-18	-15592	-1288	-5264	3	-7	14	-2600	5168	15968	32	0	3	118	133	5
-8252	-5452	12724	-15	14	-25	-14952	744	-6400	5	5	-12	-3896	-4168	16360	-5	-14	21	-8232	4912	13728	14	0	-18	-15592	-1248	-5664	10	-5	19	-2560	5264	16152	36	2	7	116	134	5
-8300	-5428	12684	-16	14	-19	-14976	656	-6648	7	5	-13	-3824	-4152	16048	-6	-11	19	-8368	4864	13936	20	-1	-19	-15504	-1248	-5680	11	-6	22	-2592	5128	16120	34	2	6	116	133	5
-8264	-5420	12636	-17	13	-20	-14880	672	-6552	-1	1	-13	-3744	-4120	16152	-3	-12	23	-8152	4896	13872	16	-4	-16	-15440	-1296	-5512	13	-5	20	-2544	5336	16312	29	4	5	116	134	5
-8240	-5420	12696	-15	13	-21	-14976	608	-6248	-1	5	-15	-3912	-4104	16144	-4	-11	22	-8144	4976	13776	18	-1	-19	-15608	-1296	-5568	13	-7	19	-2504	5296	16088	28	1	2	114	133	5
-8268	-5408	12704	-11	12	-22	-15136	712	-6504	2	-1	-13	-3848	-4096	16272	-1	-13	24	-8248	4848	13520	13	-2	-22	-15552	-1152	-5360	5	-6	8	-2552	5232	16032	19	1	0	117	133	5
-8244	-5508	12604	-14	15	-22	-14888	624	-6448	-2	1	-10	-3808	-4128	16256	-2	-10	24	-8240	4936	13784	15	-4	-19	-15672	-1368	-5520	4	-2	15	-2496	5240	16024	15	2	5	118	133	5
-8264	-5456	12616	-15	15	-24	-14968	664	-6480	0	-1	-11	-3936	-4120	16096	-5	-10	20	-8136	4728	13744	11	-6	-18	-15528	-1128	-5576	2	-6	13	-2600	5208	16160	15	2	12	116	133	5
-8244	-5452	12668	-16	13	-22	-14952	680	-6376	5	1	-13	-3816	-4136	16032	-4	-14	20	-8280	4784	13872	14	0	-22	-15456	-1328	-5416	6	-8	14	-2624	5224	16048	17	3	12	116	133	5
-8256	-5424	12636	-10	9	-24	-14800	632	-6376	6	-1	-11	-3872	-4312	16088	-3	-13	21	-8224	4784	13736	13	-6	-18	-15376	-1264	-5536	17	-9	12	-2488	5072	16064	20	6	10	115	134	5
-8308	-5460	12720	-15	12	-22	-14912	624	-6448	9	-5	-11	-3760	-4208	16160	-3	-12	15	-8136	4752	13592	16	-5	-20	-15464	-1344	-5432	23	-7	21	-2472	5176	16400	24	1	9	115	133	5
-8268	-5416	12728	-13	15	-22	-14904	688	-6520	7	-3	-8	-3888	-4224	16144	1	-10	19	-8280	4864	13768	16	-6	-21	-15472	-1248	-5480	17	-3	15	-2504	5072	16224	25	1	6	117	133	5
-8284	-5464	12620	-13	9	-23	-14840	640	-6632	3	-2	-9	-3824	-4120	16344	0	-15	21	-8352	4808	13816	16	-3	-19	-15432	-1184	-5616	11	-4	11	-2416	5168	16136	24	3	5	117	134	5
-8248	-5428	12688	-9	14	-21	-14904	752	-6264	2	1	-4	-3896	-4240	15944	3	-7	22	-8248	4672	13608	14	-6	-22	-15592	-1408	-5624	5	-6	15	-2632	5096	16144	20	-2	3	116	134	5
-8276	-5524	12760	-12	13	-23	-14928	632	-6544	1	-2	-7	-3792	-4296	16240	2	-14	22	-8272	4904	13888	16	2	-20	-15480	-1200	-5288	-1	-4	16	-2736	5160	16160	20	3	3	116	134	5
-8240	-5436	12732	-13	14	-18	-14968	640	-6488	-2	0	-11	-3728	-4152	16240	2	-9	19	-8264	4840	13616	16	-1	-18	-15568	-1384	-5352	7	-6	18	-2552	5192	16024	24	-1	5	115	134	5
-8244	-5464	12724	-15	16	-19	-14976	672	-6184	4	1	-9	-3864	-4080	16104	-3	-11	21	-8336	4784	13896	21	-6	-21	-15552	-1432	-5232	2	-4	17	-2544	4984	16328	25	0	2	117	133	5
-8292	-5404	12756	-13	14	-21	-14792	648	-6592	7	-2	-10	-3720	-4112	15824	1	-15	19	-8352	4792	13816	18	3	-20	-15424	-1360	-5248	8	-2	19	-2528	5120	16440	26	-2	2	118	134	5
-8304	-5476	12668	-11	11	-25	-15000	536	-6504	5	4	-8	-3872	-4056	16168	-3	-14	20	-8224	4848	13792	24	-3	-16	-15456	-1336	-5424	10	-7	21	-2544	5208	16024	30	-4	1	116	134	5
-8228	-5476	12628	-8	15	-25	-15096	672	-6536	9	-1	-9	-3752	-4104	16248	-4	-14	18	-8488	4904	13800	21	-4	-16	-15592	-1328	-5576	10	-9	21	-2616	5216	16008	26	0	-1	116	134	5
-8264	-5536	12732	-13	16	-22	-14912	664	-6576	-1	0	-5	-3768	-4176	16128	3	-12	20	-8304	4824	13784	20	2	-21	-15408	-1336	-5272	4	-8	19	-2608	5256	16256	28	0	2	115	134	5
-8268	-5396	12632	-13	16	-22	-14992	736	-6400	-5	0	-14	-3720	-4144	16120	4	-15	22	-8288	4952	13904	18	-2	-20	-15576	-1352	-5456	1	-5	18	-2536	5256	16168	25	0	1	116	133	5
-8256	-5436	12724	-6	19	-22	-14984	776	-6688	-5	-4	-6	-3824	-4280	16056	4	-14	16	-8216	4976	13824	17	-4	-16	-15432	-1296	-5416	2	-5	18	-2648	5104	16016	22	-1	2	118	133	5
-8272	-5428	12680	-10	21	-18	-14880	584	-6440	3	2	-7	-3736	-4112	16192	2	-11	17	-8240	4896	13904	24	-3	-23	-15376	-1312	-5448	0	-9	15	-2472	5240	16104	19	1	2	117	134	5
-8308	-5480	12644	-9	17	-21	-14872	640	-6592	3	-2	-16	-3912	-4232	16152	-3	-11	20	-8208	4856	13720	15	-3	-14	-15504	-1232	-5520	8	-4	18	-2560	5152	16256	12	6	7	116	134	5
-8224	-5400	12716	-12	14	-21	-14928	640	-6456	2	0	-7	-3792	-4032	16288	-3	-10	16	-8208	4752	13808	16	-6	-20	-15616	-1224	-5344	13	-7	17	-2504	5224	16336	14	3	5	116	134	5
-8304	-5412	12704	-8	14	-21	-15016	768	-6464	4	-2	-10	-3744	-4056	16088	-2	-11	20	-8272	4864	13752	19	-3	-20	-15528	-1208	-5616	15	-6	17	-2464	5296	16040	13	4	4	115	133	5
-8288	-5368	12676	-12	14	-24	-14888	656	-6552	1	-2	-8	-4000	-4272	16192	-1	-11	19	-8208	4912	13784	18	-5	-22	-15536	-1336	-5352	13	-3	19	-2504	5240	16320	22	3	5	117	133	5
-8288	-5344	12668	-10	16	-23	-14936	640	-6120	3	0	-12	-3736	-3920	16112	-1	-15	21	-8320	4840	13872	18	-3	-15	-15600	-1288	-5728	6	-9	13	-2528	5120	16272	20	5	7	118	134	5
-8292	-5420	12684	-17	16	-20	-14928	584	-6296	8	3	-16	-3920	-4168	16120	2	-14	21	-8264	4880	13704	15	-2	-18	-15432	-1328	-5552	4	-7	12	-2640	5176	16352	17	2	4	116	133	5
-8288	-5404	12688	-16	11	-28	-15016	520	-6456	2	4	-14	-3768	-4120	16200	-8	-12	23	-8264	4792	13800	18	-7	-22	-15544	-1352	-5456	2	-8	15	-2504	5144	16088	13	1	7	116	134	5
-8292	-5396	12764	-16	16	-26	-14944	704	-6552	0	0	-17	-3720	-4144	16088	-3	-18	24	-8336	4608	13648	13	-7	-23	-15632	-1344	-5488	5	-7	12	-2608	5232	16152	13	2	7	115	134	5
-8264	-5428	12700	-14	18	-23	-14936	592	-6440	3	1	-15	-3776	-4176	16024	-9	-14	25	-8272	4864	13800	12	-1	-16	-15360	-1416	-5488	14	-7	12	-2584	5208	16280	14	-1	6	117	133	5
-8272	-5448	12708	-19	19	-27	-14904	664	-6384	11	-2	-15	-3792	-4240	16104	-9	-15	24	-8360	4808	13656	16	-4	-21	-15520	-1288	-5512	11	-6	12	-2696	4976	16280	13	2	9	118	133	5
-8292	-5404	12716	-13	16	-23	-14936	648	-6616	11	0	-5	-3872	-4200	15976	-4	-18	21	-8312	4872	13792	19	-4	-15	-15520	-1192	-5272	17	-7	16	-2520	5152	16208	17	-2	3	117	134	5
-8288	-5472	12776	-13	16	-22	-14912	696	-6600	5	-3	-10	-3944	-4288	16208	0	-12	21	-8248	4800	13616	18	-1	-19	-15568	-1280	-5448	8	-6	18	-2640	5120	16048	17	4	3	116	134	5
-8248	-5440	12660	-12	12	-25	-15008	512	-6600	-3	-1	-11	-3728	-4224	15936	4	-10	26	-8200	4864	13656	16	-1	-20	-15496	-1416	-5416	8	-14	18	-2512	5080	16152	26	2	5	116	134	5
-8288	-5412	12700	-8	10	-23	-14904	632	-6264	-1	-1	-10	-3832	-4272	16216	9	-8	22	-8192	4880	13616	18	-1	-18	-15456	-1352	-5472	6	-4	15	-2592	5064	16256	26	6	6	115	133	5
-8272	-5396	12644	-10	14	-23	-15024	632	-6472	0	-2	-7	-3712	-4240	16416	7	-14	26	-8336	4800	13720	20	2	-19	-15544	-1304	-5448	3	-11	13	-2680	4976	16240	24	-2	4	117	133	5
-8284	-5432	12684	-13	11	-20	-14904	672	-6712	4	0	-5	-3904	-4200	16152	5	-11	16	-8248	4808	13832	20	2	-18	-15536	-1264	-5616	6	-2	21	-2648	5040	16320	19	-1	-1	118	133	5
-8260	-5444	12784	-10	14	-26	-15008	768	-6544	5	0	-6	-3736	-4184	16176	5	-10	17	-8360	4944	13584	24	4	-20	-15624	-1360	-5464	6	-4	19	-2528	5192	16216	20	-5	-1	116	134	5
-8332	-5428	12648	-4	20	-21	-14904	568	-6568	4	4	-7	-3840	-4144	16272	4	-10	19	-8448	4744	13632	22	-1	-24	-15464	-1384	-5296	8	-4	22	-2600	5128	16200	21	-2	-1	116	134	5
-8228	-5484	12724	-10	18	-25	-14904	496	-6296	3	3	-6	-3840	-4264	16240	8	-9	17	-8344	4736	13760	26	1	-17	-15544	-1344	-5440	10	3	27	-2432	5096	16328	23	-3	0	115	134	5
-8232	-5424	12628	-11	16	-20	-15016	736	-6456	6	4	-8	-3920	-4048	16208	9	-11	24	-8264	4776	13832	28	0	-13	-15624	-1384	-5328	12	-14	22	-2528	5176	16216	31	-4	-3	117	133	5
-8304	-5424	12668	-11	15	-22	-14984	720	-6384	1	1	-3	-3752	-4152	16144	7	-14	20	-8240	4904	13584	24	-7	-17	-15504	-1128	-5528	1	-5	23	-2480	5184	16480	36	-4	4	118	133	5
-8300	-5460	12668	-11	13	-21	-14976	608	-6408	-4	1	-9	-3832	-3992	16048	4	-13	18	-8288	4848	13472	23	7	-15	-15504	-1400	-5144	-6	-7	26	-2656	5408	16200	28	-2	1	116	134	5
-8268	-5436	12616	-8	13	-26	-15040	672	-6640	-9	2	-10	-3744	-4040	15936	2	-13	18	-8408	4920	13832	21	0	-20	-15440	-1296	-5640	-1	-12	24	-2696	5224	16216	23	-1	5	116	134	5
-8260	-5432	12688	-11	13	-21	-14840	616	-6616	-4	0	-5	-3832	-4064	16144	3	-12	19	-8368	4808	13856	21	-7	-16	-15584	-1288	-5512	8	-8	16	-2568	5288	16072	23	1	1	116	134	5
-8244	-5420	12824	-12	13	-26	-14976	656	-6600	3	-1	-8	-3824	-4200	16112	-2	-16	21	-8496	4704	13816	18	-7	-18	-15552	-1200	-5536	12	-5	20	-2584	5160	16448	15	0	4	115	133	5
-8264	-5396	12664	-14	12	-22	-14928	616	-6568	5	-2	-7	-3864	-3984	16080	0	-11	19	-8232	4888	13704	17	-3	-13	-15552	-1288	-5528	13	-8	13	-2512	5208	16032	15	-2	6	118	133	5
-8344	-5440	12652	-10	9	-23	-15096	688	-6536	2	-3	-8	-3720	-4152	16104	2	-13	22	-8120	4792	13696	19	2	-20	-15456	-1128	-5400	11	-9	15	-2680	5144	16152	15	3	5	117	134	5
-8244	-5404	12772	-14	14	-24	-14944	680	-6536	7	-1	-9	-3816	-4104	16144	6	-11	20	-8288	5120	13736	13	-3	-25	-15544	-1296	-5520	15	-8	20	-2640	5352	16240	18	1	8	117	134	5
-8272	-5432	12692	-14	14	-26	-15040	640	-6384	6	-3	-11	-3696	-4112	16176	7	-11	19	-8184	4808	13568	13	-2	-19	-15600	-1256	-5648	18	-7	14	-2560	5160	15856	24	3	3	116	134	5
-8284	-5412	12748	-12	14	-27	-14992	704	-6384	3	-1	-8	-3688	-4128	16120	0	-12	21	-8320	4936	13864	17	-4	-19	-15456	-1112	-5368	13	-3	14	-2432	5208	15928	24	4	5	115	134	5
-8276	-5456	12680	-10	15	-24	-15016	640	-6456	3	0	-10	-3728	-4152	16272	4	-11	19	-8232	4800	13992	16	-9	-18	-15520	-1360	-5584	8	-5	15	-2592	5192	16088	20	6	2	117	134	5
-8264	-5368	12616	-10	11	-24	-14920	640	-6448	6	-3	-10	-3792	-4176	16136	-2	-12	16	-8208	5016	13528	16	1	-19	-15520	-1208	-5432	7	-4	12	-2472	5096	16040	18	3	1	118	134	5
-8304	-5424	12676	-9	15	-23	-15008	656	-6496	1	6	-6	-3888	-4208	16008	-4	-12	20	-8048	4872	13856	15	-2	-21	-15512	-1272	-5640	8	0	15	-2640	5240	16120	13	2	-1	116	134	5
-8264	-5456	12644	-14	11	-25	-14968	752	-6144	3	6	-9	-3872	-3952	16088	-5	-13	18	-8176	4776	13816	19	-1	-21	-15496	-1296	-5280	12	-3	20	-2552	5160	16104	16	0	0	116	134	5
-8312	-5448	12600	-12	11	-22	-14928	744	-6792	6	1	-9	-3952	-4176	16016	-4	-9	21	-8320	4840	13784	22	-5	-22	-15392	-1440	-5432	8	-11	18	-2608	5160	16272	21	1	0	115	134	5
-8232	-5464	12672	-13	13	-20	-15016	680	-6264	8	1	-10	-3872	-4224	16200	-1	-9	20	-8384	4912	13752	22	-8	-18	-15520	-1272	-5504	15	-7	16	-2568	5072	16424	26	-2	0	116	133	5
-8316	-5420	12700	-13	12	-22	-14968	712	-6616	4	2	-7	-3840	-4088	16120	-3	-10	19	-8240	4744	13968	21	-3	-16	-15424	-1280	-5536	10	-1	21	-2424	4992	16256	34	1	3	118	134	5
-8284	-5424	12700	-11	16	-23	-15000	568	-6536	5	4	-8	-3776	-4200	16096	0	-7	21	-8344	4880	13792	20	-4	-26	-15376	-1336	-5528	7	2	23	-2584	5168	16264	37	-1	1	117	134	5
-8336	-5536	12704	-10	14	-21	-14904	592	-6456	9	3	-6	-3760	-4264	16088	1	-8	16	-8352	4880	13808	17	-7	-17	-15416	-1160	-5432	6	0	19	-2616	5224	16376	31	-1	-2	116	134	5
-8308	-5420	12684	-7	8	-23	-15040	688	-6448	7	2	-6	-3776	-4128	16104	-1	-11	20	-8280	4856	13816	22	0	-19	-15528	-1304	-5152	4	-4	22	-2544	5224	16064	29	-5	-2	116	134	5
-8208	-5424	12736	-10	11	-23	-14864	792	-6472	4	-1	-6	-3776	-4224	16088	1	-12	16	-8440	4912	13800	18	9	-19	-15448	-1360	-5320	5	0	18	-2584	5184	16080	20	-4	-1	115	134	5
-8188	-5396	12760	-13	15	-23	-15048	864	-6680	1	1	-8	-3872	-4080	15920	4	-10	21	-8336	4792	13552	19	-3	-20	-15456	-1312	-5384	2	-4	22	-2800	5192	15960	27	-2	2	117	133	5
-8376	-5464	12596	-15	14	-21	-14944	584	-6448	-1	0	-8	-4056	-4112	15896	0	-15	24	-8312	4752	13664	17	-3	-16	-15480	-1320	-5712	7	-6	19	-2512	5160	16168	22	-2	5	117	134	5
-8300	-5408	12664	-11	11	-25	-14880	720	-6704	1	-2	-9	-3944	-4112	16112	9	-14	21	-8248	4808	13680	17	-3	-20	-15544	-1200	-5480	11	-11	21	-2736	5168	16008	22	2	6	116	134	5
-8264	-5420	12676	-12	17	-22	-14960	680	-6544	4	-1	-11	-3760	-4152	16160	11	-15	17	-8288	4688	13920	15	-3	-21	-15616	-1272	-5568	14	-7	17	-2416	5032	16096	22	-6	6	116	134	5
-8236	-5444	12712	-10	15	-23	-14992	672	-6544	10	-1	-8	-3920	-4232	15872	7	-14	20	-8264	4944	13648	18	-6	-18	-15496	-1288	-5464	10	-5	13	-2432	5216	16304	20	-2	9	115	134	5
-8244	-5456	12748	-13	12	-25	-14952	808	-6640	10	-3	-7	-3736	-3992	16280	9	-15	21	-8336	5048	13912	18	-6	-22	-15464	-1208	-5112	10	-3	12	-2496	5312	16128	24	0	8	116	133	5
-8284	-5372	12772	-10	13	-24	-15072	872	-6240	3	-5	-12	-3728	-4032	16352	2	-13	21	-8368	4848	13888	16	-7	-22	-15576	-1208	-5600	6	0	12	-2440	5176	16064	19	2	8	118	134	5
-8208	-5356	12676	-18	16	-26	-15080	608	-6552	1	-2	-11	-3768	-4144	16152	-1	-18	22	-8352	4872	13752	14	2	-22	-15584	-1336	-5288	13	-7	14	-2616	5360	16400	17	7	6	116	134	5
-8320	-5468	12604	-15	16	-21	-14840	520	-6440	2	-1	-20	-3880	-4032	16056	-6	-11	25	-8208	4888	13640	14	-3	-23	-15504	-1304	-5472	9	-7	8	-2592	5120	16048	14	3	4	116	134	5
-8284	-5416	12648	-15	14	-25	-14864	584	-6352	2	-1	-14	-3968	-4168	16216	-7	-13	31	-8184	4688	13856	14	-7	-22	-15448	-1328	-5432	13	-7	14	-2440	5128	16016	13	4	11	116	134	5
-8276	-5448	12604	-17	15	-25	-14824	768	-6424	6	-3	-16	-3880	-4080	15976	-13	-17	28	-8240	4872	13736	19	-7	-19	-15656	-1328	-5616	8	-7	9	-2528	5152	16104	13	3	7	115	133	5
-8392	-5484	12700	-16	9	-24	-15104	616	-6416	11	0	-13	-3896	-4176	16128	-10	-17	25	-8368	4872	13656	13	-6	-17	-15480	-1392	-5608	10	-7	13	-2592	5048	16376	17	9	10	117	133	5
-8180	-5440	12632	-13	13	-26	-14856	552	-6552	11	-2	-13	-3808	-4232	16232	-10	-15	21	-8264	4816	13960	18	-2	-23	-15648	-1392	-5656	8	-5	13	-2736	5040	16216	24	8	10	118	133	5
-8284	-5436	12664	-17	17	-25	-15016	640	-6464	8	-1	-15	-3808	-4272	16024	-4	-11	18	-8312	4744	13656	14	-5	-21	-15592	-1256	-5472	9	-2	18	-2696	5032	16192	22	2	2	116	133	5
-8276	-5520	12688	-15	16	-26	-14960	568	-6648	4	-1	-8	-3752	-4296	16056	4	-10	19	-8288	4848	13744	22	-1	-20	-15520	-1360	-5384	14	-9	19	-2560	5064	16248	18	1	-1	116	134	5
-8256	-5440	12684	-14	19	-23	-14904	504	-6272	3	1	-7	-3808	-4320	16056	6	-9	20	-8200	4848	13808	24	2	-20	-15440	-1376	-5288	12	-5	22	-2400	5160	15960	16	5	-11	115	134	5
-8304	-5508	12680	-9	19	-21	-15104	656	-6296	-1	3	-11	-3672	-4128	16064	7	-11	19	-8240	4848	13864	23	-4	-20	-15432	-1368	-5272	0	-5	25	-2432	5256	16048	7	0	-11	116	133	5
-8248	-5444	12692	-10	14	-23	-14960	680	-6416	3	7	-7	-3936	-4224	16144	-2	-12	12	-8240	4792	13960	22	-3	-20	-15568	-1216	-5320	-3	-12	22	-2480	5040	16184	3	2	-11	118	133	5
-8276	-5456	12728	-5	10	-19	-14904	608	-6408	5	5	-6	-3784	-4032	15928	-9	-11	7	-8208	4792	13744	28	4	-17	-15600	-1280	-5640	-4	-8	20	-2552	4928	16144	16	3	-10	117	134	5
-8292	-5468	12644	-4	10	-18	-14984	784	-6520	11	4	-3	-3848	-4184	16168	-14	-12	7	-8336	4768	13672	21	-4	-18	-15464	-1344	-5384	2	1	22	-2400	5128	16040	26	-2	-8	116	134	5
-8208	-5408	12716	-7	14	-21	-14912	712	-6448	15	6	-7	-3792	-4072	16288	-9	-11	15	-8360	4840	13744	24	-2	-21	-15528	-1184	-5544	8	-5	23	-2472	5144	16064	33	2	-2	116	134	5
-8296	-5404	12640	-12	14	-19	-14984	760	-6480	3	2	-11	-3792	-4104	16320	-5	-12	22	-8304	4864	13552	23	2	-20	-15592	-1312	-5536	4	2	19	-2544	5208	16088	32	5	1	115	133	5
-8284	-5424	12708	-12	20	-19	-14816	848	-6528	0	5	-11	-3912	-4168	16272	-1	-14	23	-8360	4776	13968	15	-1	-23	-15400	-1304	-5464	4	-7	17	-2424	5384	15968	34	0	4	117	133	5
-8212	-5384	12644	-9	19	-26	-15024	784	-6448	-4	1	-12	-4072	-4112	15896	1	-14	28	-8224	4920	13640	17	-9	-17	-15600	-1248	-5472	6	-3	14	-2648	5248	16048	28	-3	9	118	134	5
-8284	-5424	12640	-13	17	-25	-14960	712	-6448	2	1	-11	-3848	-4112	16264	1	-16	31	-8304	4760	13968	15	-4	-18	-15480	-1160	-5624	9	-6	13	-2664	5256	16152	24	-2	17	116	134	5
-8256	-5532	12604	-14	15	-26	-14992	536	-6312	4	-4	-13	-3936	-4232	16176	-1	-19	27	-8168	4848	13776	9	0	-18	-15576	-1272	-5456	11	-7	7	-2560	5208	16200	23	5	21	116	134	5
-8212	-5436	12700	-17	14	-21	-14912	616	-6592	10	-6	-16	-3896	-4240	16080	-3	-13	26	-8096	4776	13816	13	-8	-19	-15496	-1344	-5576	13	-8	7	-2624	5152	16192	19	6	23	115	134	5
-8308	-5464	12740	-16	11	-25	-15040	704	-6320	11	-7	-12	-3824	-4176	16192	1	-15	27	-8344	4768	13512	10	-6	-15	-15552	-1352	-5536	16	-8	12	-2792	5200	16368	19	-2	20	116	133	5
-8256	-5472	12612	-15	13	-27	-14920	512	-6528	6	-5	-11	-3808	-4168	16064	-2	-10	26	-8240	4776	13816	11	-1	-26	-15440	-1448	-5336	16	-12	6	-2632	5040	16448	16	2	15	117	134	5
-8236	-5444	12660	-14	11	-21	-14952	712	-6272	-4	-8	-14	-3912	-4208	15936	6	-14	23	-8264	4984	13704	11	-5	-18	-15592	-1232	-5608	18	-14	10	-2616	5104	16096	15	0	10	117	134	5
-8308	-5484	12744	-11	12	-27	-15024	664	-6552	-1	-4	-4	-3816	-4232	16024	5	-12	23	-8224	4840	13640	19	-5	-14	-15496	-1344	-5400	9	-10	16	-2736	5088	16240	20	1	10	117	134	5
-8240	-5456	12744	-15	13	-21	-14936	568	-6312	-1	-1	-8	-3808	-4288	16120	5	-14	20	-8256	4808	13848	15	-5	-18	-15496	-1376	-5456	5	-5	16	-2592	4968	16296	16	0	6	116	134	5
-8300	-5472	12696	-6	12	-25	-14912	640	-6576	3	-1	-6	-3792	-4272	16104	3	-12	9	-8272	4856	13568	22	-5	-15	-15344	-1200	-5400	4	-3	21	-2504	5032	16032	23	4	2	115	134	5
-8184	-5472	12600	-9	15	-23	-14880	800	-6592	6	0	-9	-3736	-4200	16040	-3	-10	11	-8128	4752	13800	19	0	-21	-15496	-1328	-5520	7	-4	22	-2688	5056	16096	24	-4	0	117	134	5
-8252	-5412	12700	-6	14	-22	-14968	680	-6408	4	8	-11	-3840	-4216	16272	-4	-5	14	-8208	4888	13944	24	-1	-18	-15520	-1392	-5384	6	-5	25	-2416	5024	15992	26	-2	-1	118	134	5
-8200	-5396	12656	-6	14	-21	-14856	720	-6792	5	5	-7	-3792	-4080	16080	-8	-10	12	-8280	4856	13752	25	1	-19	-15440	-1312	-5568	0	-3	26	-2464	5160	16296	23	-1	-10	116	134	5
-8308	-5416	12732	-6	18	-21	-15128	632	-6264	6	7	-9	-3792	-4096	16288	3	-13	18	-8192	4936	13840	23	-4	-18	-15600	-1376	-5512	0	-1	24	-2600	5264	16104	27	1	-11	116	134	5
-8300	-5392	12712	-9	16	-20	-14960	672	-6592	7	5	-10	-3768	-4160	16264	-4	-13	20	-8280	4848	13672	24	0	-15	-15616	-1208	-5424	-2	2	25	-2568	5312	15992	26	-1	-7	115	134	5
-8312	-5440	12632	-13	16	-21	-14928	720	-6496	4	0	-9	-3808	-4128	16384	-2	-13	20	-8280	4784	13664	18	-6	-19	-15432	-1200	-5624	-1	-2	15	-2456	5464	16088	30	7	-1	116	133	5
-8252	-5444	12724	-11	16	-27	-14856	824	-6792	11	-2	-15	-3928	-4000	16432	-7	-15	22	-8232	4784	13928	15	0	-25	-15496	-1232	-5088	-3	-4	15	-2512	5488	16208	24	9	4	118	133	5
-8252	-5428	12656	-18	17	-26	-15000	656	-6680	4	-1	-13	-3936	-4096	15856	-9	-16	24	-8200	4872	13920	11	4	-19	-15560	-1160	-5512	1	-7	5	-2640	5472	16008	12	6	7	117	133	5
-8208	-5448	12692	-19	21	-20	-14864	776	-6448	-3	-7	-23	-3752	-4144	16216	-9	-12	32	-8264	4864	13720	8	-8	-21	-15568	-1248	-5448	13	-5	4	-2560	5384	16072	-1	7	9	116	133	5
-8312	-5508	12716	-20	20	-25	-14912	800	-6560	-7	-7	-28	-3816	-4032	16024	-8	-16	38	-8312	4808	13760	10	-11	-21	-15416	-1272	-5528	17	-7	1	-2656	5216	16248	-8	1	16	116	133	5
-8292	-5496	12676	-16	19	-28	-14920	616	-6240	3	-12	-27	-3768	-4232	15936	-8	-25	37	-8264	4944	14016	10	-7	-24	-15504	-1328	-5448	22	-13	1	-2616	5072	16336	-8	10	19	115	134	5
-8316	-5472	12680	-17	13	-29	-14912	656	-6248	6	-8	-23	-3840	-4200	16232	-8	-21	34	-8320	4888	13768	6	-6	-22	-15440	-1328	-5560	22	-12	-2	-2600	4936	16312	5	3	20	117	133	5
-8252	-5424	12744	-18	19	-23	-14880	504	-6632	12	-8	-22	-3832	-4144	16176	-4	-24	29	-8304	4744	13848	5	-11	-21	-15552	-1352	-5568	23	-9	6	-2640	4984	16088	8	4	20	118	133	5
-8220	-5472	12664	-17	15	-23	-14760	608	-6384	11	-8	-17	-3648	-4232	16200	-3	-15	27	-8312	4872	13856	14	-5	-20	-15456	-1288	-5448	16	-11	9	-2504	4984	16264	12	2	14	117	134	5
-8332	-5524	12700	-20	14	-25	-14984	656	-6256	-6	1	-15	-3512	-4280	16440	-8	-17	24	-8272	4768	13632	12	-3	-15	-15480	-1552	-5584	10	-11	10	-2560	4864	16160	2	3	2	116	133	5
-8236	-5420	12760	-12	11	-24	-14912	464	-6168	-8	2	-17	-3592	-4368	15968	-13	-19	22	-8200	4736	13904	19	2	-16	-15560	-1576	-5208	7	-7	18	-2632	4840	16440	1	3	-2	116	134	5
-8248	-5448	12608	-12	20	-18	-15064	560	-6264	9	2	-12	-3680	-4488	16024	-10	-15	18	-8256	4928	13728	19	2	-19	-15408	-1392	-5632	3	-10	21	-2608	4968	16312	8	4	-10	115	133	5
-8296	-5476	12608	-12	16	-20	-14832	576	-6416	11	13	-5	-3832	-4352	16040	-2	-11	25	-8216	4736	13648	25	-2	-16	-15600	-1408	-5488	0	-5	21	-2640	4792	16432	18	-1	-15	117	133	5
-8268	-5520	12680	-7	13	-22	-14776	640	-6304	4	6	2	-3832	-4312	16024	-3	-9	18	-8200	4792	13632	28	0	-12	-15448	-1336	-5792	-2	-7	30	-2640	4872	16304	31	-5	-18	118	134	5
-8260	-5412	12764	-7	15	-21	-15008	592	-6536	2	5	5	-3880	-4152	16128	3	-4	11	-8352	4776	13984	32	2	-15	-15504	-1360	-5600	2	-9	31	-2656	5008	16416	45	-7	-20	117	134	5
-8296	-5504	12740	-1	15	-24	-14920	640	-6488	9	7	1	-3696	-4144	15936	9	-8	7	-8416	4856	13928	32	-3	-16	-15592	-1216	-5448	6	-4	35	-2600	5088	16240	38	-2	-20	116	134	5
-8276	-5432	12632	0	14	-18	-14912	648	-6400	6	6	4	-3776	-4288	16024	12	-5	3	-8280	4728	13344	31	1	-11	-15656	-1304	-5624	6	-9	38	-2432	5200	16120	32	4	-24	115	134	5
-8232	-5472	12756	-2	11	-21	-15096	832	-6480	-2	8	-2	-3848	-4144	16336	11	-3	2	-8232	4944	13656	32	0	-16	-15576	-1232	-5552	4	-11	34	-2648	5312	16104	24	4	-27	116	133	5
-8244	-5436	12672	-8	12	-22	-15064	752	-6576	-5	-7	3	-3896	-4304	16064	11	-5	3	-8264	4912	13648	26	10	-19	-15536	-1200	-5480	-3	-4	28	-2592	5304	16024	23	0	-20	118	133	5
-8228	-5400	12744	-5	11	-21	-14888	616	-6520	-6	-5	3	-3784	-4216	16360	12	-4	6	-8368	4896	13752	24	4	-17	-15464	-1192	-5616	-8	-13	29	-2496	5304	16072	22	1	-16	116	134	5
-8288	-5492	12752	-6	11	-24	-14800	832	-6288	3	-1	0	-3848	-4088	16120	17	-10	23	-8368	4816	13712	24	1	-20	-15552	-1288	-5464	-5	-8	23	-2504	5256	16272	14	6	1	116	134	5
-8236	-5424	12764	-5	11	-25	-15008	704	-6176	15	-1	-5	-3904	-4096	16104	11	-12	22	-8312	4816	13792	17	-5	-17	-15664	-1200	-5600	7	-13	16	-2352	5224	16312	17	2	5	116	134	5
-8252	-5500	12656	-11	12	-21	-14992	744	-6248	15	-6	-8	-3880	-3960	16304	8	-16	29	-8184	4960	13792	21	-2	-17	-15456	-1136	-5432	15	-8	15	-2568	5144	16096	24	3	11	115	133	5
-8284	-5420	12828	-13	11	-25	-15000	784	-6416	10	-2	-14	-3808	-4112	15928	2	-15	26	-8376	4816	13800	16	-4	-20	-15664	-1232	-5472	12	-7	13	-2680	5256	16120	16	3	6	117	133	5
-8336	-5368	12656	-20	17	-25	-14904	720	-6544	10	-3	-7	-3920	-4160	16136	8	-13	25	-8280	4896	13768	15	0	-21	-15408	-1376	-5352	14	-8	13	-2584	5240	16320	12	-1	11	118	133	5
-8280	-5480	12720	-15	14	-24	-14952	704	-6592	3	-5	-13	-3904	-4056	16224	5	-16	32	-8224	4864	13672	12	1	-23	-15560	-1376	-5144	16	-14	7	-2600	5000	15904	11	-3	11	117	133	5
-8272	-5440	12624	-15	12	-24	-14856	672	-6416	-2	-8	-11	-3800	-4144	16152	-1	-23	29	-8288	4976	13608	15	-4	-22	-15464	-1120	-5328	13	-3	4	-2536	5072	16304	9	-4	9	117	133	5
-8280	-5512	12752	-16	13	-22	-14920	768	-6592	-7	-4	-21	-3920	-4128	16176	-4	-21	22	-8368	4712	13896	12	-7	-20	-15528	-1112	-5392	3	-6	2	-2672	5128	16200	8	1	13	115	134	5
-8248	-5496	12644	-16	15	-24	-15024	656	-6616	0	-5	-14	-3896	-4040	16064	-6	-19	20	-8248	4800	13720	14	-6	-23	-15432	-1336	-5288	3	-5	4	-2560	5032	16200	10	0	17	116	133	5
-8316	-5472	12608	-17	15	-24	-14864	544	-6544	2	-5	-15	-3704	-4016	16064	-1	-17	25	-8216	4912	13792	10	-1	-25	-15472	-1368	-5520	11	-7	7	-2672	5096	16040	13	3	15	118	133	5
-8336	-5500	12624	-19	15	-24	-14792	544	-6544	8	-1	-17	-3808	-4168	16240	-6	-15	22	-8240	4816	13696	12	0	-20	-15424	-1272	-5480	13	-12	8	-2592	5152	16184	13	-1	13	117	133	5
-8260	-5472	12688	-17	14	-25	-14936	568	-6480	6	-5	-17	-3784	-4176	16088	-5	-16	21	-8240	4888	13760	11	-3	-22	-15576	-1232	-5600	14	-6	10	-2600	5080	16128	6	6	4	117	133	5
-8272	-5464	12704	-15	13	-25	-14912	808	-6592	4	-3	-14	-3704	-4208	16208	-3	-13	26	-8352	4872	13728	12	-5	-17	-15544	-1288	-5456	14	-12	12	-2688	5072	16200	4	3	6	116	134	5
-8292	-5488	12664	-14	16	-26	-15008	616	-6376	1	-4	-12	-3736	-4160	16088	1	-15	27	-8192	4776	13792	14	-7	-20	-15640	-1264	-5296	11	-10	11	-2632	5040	15904	7	5	6	115	133	5
-8300	-5488	12628	-13	15	-24	-14912	632	-6272	1	-7	-11	-3808	-4216	16288	-2	-6	22	-8232	4904	13448	13	-5	-19	-15480	-1304	-5272	4	-7	11	-2520	5032	15984	12	2	2	117	133	5
-8256	-5456	12616	-13	10	-23	-15048	624	-6472	0	-6	-11	-3880	-4248	16240	7	-10	18	-8288	4704	13480	12	-2	-15	-15584	-1200	-5232	2	-8	12	-2696	5024	16144	19	7	8	118	133	5
-8288	-5448	12704	-13	12	-25	-14904	608	-6528	3	-3	-8	-3768	-4120	16272	5	-11	22	-8120	4848	13696	19	-5	-18	-15584	-1304	-5624	2	-6	13	-2624	4920	16312	20	1	6	117	133	5
-8184	-5544	12632	-10	14	-23	-14872	632	-6456	6	0	-9	-3704	-4208	16200	5	-11	24	-8312	4840	13816	18	-4	-18	-15456	-1248	-5488	10	-9	15	-2520	5040	16144	26	4	6	116	134	5
-8248	-5488	12824	-10	15	-28	-14768	840	-6440	5	-2	-6	-3664	-4152	16256	-2	-11	21	-8256	4784	13752	19	-4	-18	-15520	-1296	-5648	10	-10	19	-2512	5056	16272	22	2	0	115	134	5
-8292	-5420	12728	-11	13	-23	-14872	512	-6480	7	-1	-10	-3904	-4144	16096	-3	-12	19	-8080	4848	13424	20	-3	-18	-15400	-1304	-5296	5	-12	20	-2496	4984	16200	22	-4	-3	116	133	5
-8280	-5444	12712	-4	11	-23	-14864	664	-6408	2	2	-12	-3776	-4272	16064	-1	-10	21	-8240	4864	13904	25	1	-19	-15384	-1280	-5328	9	-9	20	-2584	5160	15968	23	4	-3	118	133	5
-8320	-5432	12684	-11	15	-16	-14976	760	-6344	4	0	-9	-3936	-4264	15912	-1	-10	22	-8424	4952	13736	17	-1	-20	-15480	-1304	-5488	9	-10	21	-2688	5016	16216	22	-2	-5	117	134	5
-8256	-5508	12684	-10	9	-23	-14928	456	-6440	7	3	-4	-3784	-4232	16272	2	-12	19	-8312	4824	13744	21	3	-18	-15560	-1256	-5568	6	-8	21	-2504	5256	16184	27	0	-4	116	133	5
-8272	-5416	12756	-7	14	-25	-14888	616	-6656	5	0	-5	-3824	-4216	16136	1	-15	16	-8096	4872	13712	24	1	-18	-15656	-1440	-5432	3	-3	19	-2392	5040	16320	28	-1	-3	116	133	5
-8220	-5436	12724	-8	15	-24	-15064	624	-6312	6	2	-6	-3752	-4240	16168	1	-7	15	-8256	4816	13768	23	-3	-18	-15424	-1288	-5512	2	-4	24	-2616	5144	15920	27	-4	-1	115	133	5
-8256	-5480	12628	-11	14	-22	-14960	664	-6400	-2	-1	-6	-3840	-4128	16104	2	-10	13	-8344	4824	13840	22	-1	-21	-15560	-1280	-5528	8	-5	24	-2584	5120	16104	24	-2	-1	117	133	5
-8320	-5460	12716	-13	14	-24	-15048	672	-6424	7	4	-6	-3856	-3848	16208	3	-12	21	-8400	4696	13776	18	-2	-15	-15448	-1336	-5608	9	-8	22	-2752	5184	16272	25	3	1	118	134	5
-8264	-5440	12696	-12	16	-21	-14768	536	-6408	3	4	-10	-3896	-4200	16120	-4	-13	24	-8224	4680	13664	21	-4	-18	-15520	-1352	-5520	10	-10	18	-2560	5168	16336	19	3	-2	117	134	5
-8272	-5384	12764	-12	12	-25	-14904	576	-6416	3	-2	-10	-3784	-4160	16096	-8	-12	20	-8320	4888	13824	19	-2	-17	-15600	-1232	-5568	17	-5	19	-2464	5136	16456	16	0	4	117	133	5
-8300	-5404	12684	-15	14	-24	-14960	704	-6488	2	-1	-12	-3968	-4128	16272	-4	-12	23	-8256	4808	13584	21	-3	-14	-15440	-1248	-5584	12	-4	13	-2600	5096	16096	18	5	4	115	134	5
-8300	-5408	12692	-15	11	-26	-14888	616	-6488	5	0	-9	-3792	-4136	16128	-5	-12	20	-8272	5024	13840	17	-3	-20	-15576	-1144	-5632	6	-5	15	-2592	5152	16272	21	-1	9	116	133	5
-8272	-5448	12768	-12	10	-23	-14944	640	-6392	6	2	-16	-3936	-4168	16056	5	-14	23	-8376	4880	13728	17	-1	-17	-15584	-1032	-5440	4	-11	12	-2512	5128	16088	22	5	9	118	133	5
-8328	-5492	12768	-16	12	-24	-14904	536	-6272	6	-2	-15	-3776	-3984	16024	3	-11	26	-8032	4896	13752	16	-6	-21	-15560	-1408	-5616	9	-5	18	-2568	5016	15992	19	5	8	117	134	5
-8288	-5452	12680	-9	12	-24	-14840	648	-6240	4	-1	-15	-3744	-4240	16096	4	-11	24	-8360	4856	13752	13	0	-19	-15464	-1288	-5608	10	-5	15	-2696	5064	16272	18	7	9	116	134	5
-8288	-5476	12760	-14	16	-23	-15072	616	-6344	-1	0	-8	-3632	-4232	16096	2	-12	27	-8328	4784	13752	19	-6	-17	-15496	-1144	-5528	9	-4	15	-2608	5184	16272	15	5	3	116	134	5
-8268	-5448	12740	-14	17	-23	-15016	560	-6456	2	1	-16	-3672	-4032	15992	-2	-14	22	-8368	4728	13840	18	-5	-17	-15512	-1392	-5296	11	-3	11	-2472	5152	16328	14	2	3	115	133	5
-8264	-5420	12724	-18	16	-20	-14856	664	-6576	6	3	-14	-3976	-4216	15992	-5	-12	20	-8208	4912	13896	18	-3	-18	-15536	-1312	-5400	5	-4	16	-2632	4992	16368	18	1	2	117	133	5
-8308	-5448	12672	-9	16	-24	-15040	696	-6272	7	3	-9	-3720	-4008	16008	-8	-13	24	-8200	4776	13976	19	-6	-20	-15608	-1256	-5800	8	-5	17	-2688	4944	15888	20	5	1	118	133	5
-8276	-5436	12680	-14	16	-21	-14856	592	-6576	4	1	-8	-3752	-4120	16088	-4	-12	23	-8128	4880	13768	16	-5	-20	-15568	-1376	-5552	11	-8	18	-2752	4816	16216	22	5	3	116	133	5
-8276	-5420	12640	-18	16	-25	-14936	656	-6368	6	0	-8	-3800	-4096	15952	-4	-11	14	-8200	4816	13720	16	-7	-19	-15520	-1312	-5248	11	-7	16	-2608	5056	15808	24	2	1	116	134	5
-8268	-5456	12628	-16	14	-23	-14928	624	-6608	4	1	-12	-3864	-4248	15984	-1	-11	23	-8352	4920	13808	20	-7	-18	-15368	-1376	-5728	7	-8	20	-2600	5080	16456	21	-1	-1	115	134	5
-8244	-5448	12680	-15	12	-22	-14880	648	-6520	4	-1	-15	-3880	-4344	16064	2	-14	22	-8392	4904	13728	18	2	-22	-15600	-1280	-5472	4	-7	17	-2600	5064	16384	20	-2	0	116	133	5
-8288	-5472	12660	-11	9	-22	-14912	568	-6192	1	1	-11	-3784	-4176	16328	0	-12	20	-8248	4848	13832	20	-2	-19	-15496	-1416	-5296	10	-9	17	-2656	5120	16184	16	-7	1	118	133	5
-8276	-5504	12744	-10	12	-26	-14928	584	-6368	3	-4	-10	-3720	-4232	16128	1	-16	19	-8272	4728	13864	18	-8	-15	-15424	-1312	-5608	10	-10	22	-2680	5160	16168	15	-6	5	116	134	5
-8248	-5472	12652	-11	15	-27	-14864	696	-6520	5	-4	-4	-3712	-4176	16136	-1	-13	20	-8288	4800	13832	20	-4	-18	-15584	-1144	-5448	6	-11	17	-2568	4888	16304	25	-5	4	116	134	5
-8244	-5440	12704	-9	17	-25	-14968	560	-6392	1	-3	-5	-3728	-4200	16080	4	-13	22	-8216	4760	13808	21	0	-18	-15600	-1208	-5440	8	-10	20	-2504	4976	16360	27	-1	4	116	134	5
-8328	-5420	12628	-5	16	-27	-15072	696	-6496	2	-1	-7	-3744	-4208	16008	6	-8	19	-8192	4840	13680	18	-2	-18	-15480	-1312	-5296	9	-8	21	-2664	4968	16248	28	-1	2	115	133	5
-8288	-5476	12596	-4	13	-21	-14792	664	-6240	2	2	-5	-3736	-4040	16128	10	-9	16	-8336	4984	13856	21	8	-17	-15544	-1248	-5536	10	-4	20	-2552	5144	16144	33	-2	0	117	134	5
-8260	-5496	12692	-5	7	-26	-14984	712	-6304	3	5	-4	-3768	-4096	15936	13	-10	21	-8288	4944	13632	24	-1	-16	-15520	-1272	-5536	9	-11	19	-2536	5088	16136	20	-2	-1	118	134	5
-8280	-5440	12620	-4	11	-24	-14912	576	-6320	9	4	-4	-3760	-4096	16216	11	-9	16	-8272	4888	13896	21	-3	-19	-15568	-1296	-5560	8	-1	22	-2512	5000	16128	21	2	-5	116	134	5
-8228	-5400	12652	-10	11	-21	-14856	688	-6536	7	-2	-2	-3656	-4072	16152	2	-11	15	-8424	4840	13944	21	-2	-17	-15544	-1176	-5456	0	-7	21	-2480	5064	16136	21	0	-7	116	134	5
-8240	-5436	12712	-10	16	-21	-15136	640	-6496	8	7	-3	-3784	-4072	15928	0	-9	16	-8352	4904	13760	25	-1	-17	-15512	-1072	-5432	-3	1	20	-2464	5208	16152	22	0	-7	115	134	5
-8328	-5484	12632	-13	14	-21	-14952	696	-6184	5	5	-5	-3760	-4016	16144	-6	-14	22	-8152	4864	13592	17	1	-22	-15576	-1168	-5560	2	-2	17	-2536	5064	15984	27	-1	-1	117	133	5
-8248	-5420	12724	-14	19	-25	-14928	808	-6376	8	3	-9	-3712	-4080	16032	-6	-10	22	-8264	4864	13800	16	-6	-18	-15568	-1280	-5488	6	3	19	-2640	5040	16080	29	1	5	118	134	5
-8236	-5428	12664	-14	18	-22	-15008	712	-6504	2	5	-8	-3864	-4168	16032	-9	-9	24	-8368	4736	13712	21	-1	-22	-15584	-1264	-5520	18	-7	22	-2736	5248	16336	31	-1	6	117	134	5
-8288	-5440	12676	-9	15	-26	-14880	760	-6192	3	1	-12	-3848	-4200	16216	-7	-10	25	-8384	4888	13608	18	-4	-16	-15560	-1288	-5224	15	-4	15	-2672	5080	16192	29	1	5	116	134	5
-8228	-5476	12684	-13	13	-21	-14872	648	-6448	5	5	-15	-3880	-4064	16008	-5	-10	25	-8264	4896	13616	18	-4	-21	-15560	-1272	-5544	17	-3	14	-2672	5168	16128	25	0	6	116	134	5
-8288	-5396	12676	-11	14	-21	-15024	656	-6520	3	-1	-7	-3776	-4168	16136	-1	-13	23	-8304	4888	13752	17	-2	-22	-15512	-1192	-5472	13	-5	14	-2656	5024	16168	20	2	5	116	133	5
-8332	-5392	12680	-12	14	-24	-14832	680	-6744	5	0	-13	-3816	-4176	16232	-2	-14	21	-8328	4824	13776	16	2	-22	-15536	-1208	-5656	5	-6	11	-2584	5224	16152	22	1	10	118	134	5
-8276	-5476	12724	-14	12	-25	-14832	592	-6264	1	-5	-11	-3880	-4224	16008	5	-15	20	-8360	4904	13672	13	2	-19	-15424	-1400	-5736	4	-6	7	-2600	5184	16184	10	3	7	117	134	5
-8312	-5428	12720	-9	13	-27	-14992	552	-6320	-2	-2	-10	-3808	-4272	15944	1	-11	19	-8376	4848	13864	14	-4	-21	-15464	-1408	-5568	6	-6	12	-2624	5096	16104	11	1	8	116	134	5
-8244	-5404	12588	-14	16	-25	-15072	816	-6376	0	-3	-11	-3544	-4248	16056	4	-10	17	-8264	4760	13776	11	-5	-21	-15480	-1296	-5480	12	-11	11	-2656	5128	16208	17	3	9	116	134	5
-8268	-5400	12664	-12	16	-24	-14856	616	-6384	-4	3	-8	-3752	-4128	16000	9	-11	20	-8208	4712	13648	12	-3	-21	-15552	-1344	-5272	13	-9	20	-2632	5048	16240	14	2	8	115	134	5
-8208	-5460	12656	-9	17	-24	-14920	664	-6440	7	-4	-11	-3664	-4168	16144	3	-13	20	-8176	4776	13672	17	0	-19	-15496	-1416	-5368	16	-12	16	-2680	5144	16224	15	-1	5	117	134	5
-8292	-5492	12688	-16	18	-26	-14904	624	-6192	8	-3	-12	-3880	-4104	16048	-3	-15	17	-8272	4768	13696	19	-2	-21	-15432	-1224	-5736	13	-12	14	-2608	5136	16416	14	-3	4	118	133	5
-8240	-5416	12728	-11	14	-24	-15016	544	-6456	5	-1	-10	-3632	-4216	16144	-6	-20	24	-8184	4776	13576	15	-1	-21	-15432	-1248	-5712	11	-8	16	-2624	5120	16320	13	-2	7	116	134	5
-8208	-5452	12700	-12	15	-26	-14848	584	-6304	2	-1	-15	-3744	-4272	16224	-8	-16	21	-8216	4864	13728	14	-7	-23	-15448	-1296	-5296	6	-8	15	-2584	5048	16240	16	-3	5	116	134	5
-8300	-5476	12688	-14	13	-26	-15016	616	-6256	5	3	-12	-3696	-4088	16328	-10	-16	21	-8216	4848	13800	18	-2	-22	-15592	-1392	-5528	6	-4	17	-2584	4992	16208	24	-1	6	116	134	5
-8248	-5512	12684	-16	16	-21	-15040	608	-6352	13	3	-13	-3728	-4288	16168	-5	-11	22	-8248	4792	13680	20	-4	-20	-15648	-1272	-5520	6	-7	11	-2648	5064	16168	30	-3	6	115	133	5
-8284	-5476	12720	-15	14	-19	-14952	720	-6480	8	2	-10	-3704	-4280	16232	-6	-13	24	-8256	4928	13792	18	1	-23	-15512	-1296	-5432	6	-7	21	-2560	5016	16224	30	-1	1	117	133	5
-8252	-5460	12640	-12	19	-25	-14768	648	-6504	3	4	-9	-3672	-4400	16144	0	-14	24	-8368	4888	13704	22	5	-23	-15472	-1392	-5552	9	-5	20	-2616	4840	16120	28	2	-4	117	134	5
-8292	-5496	12744	-11	17	-21	-14856	632	-6496	5	4	-10	-3784	-4240	15976	4	-12	21	-8256	4720	13624	26	1	-16	-15560	-1328	-5536	8	-4	20	-2632	5152	16192	29	0	-10	116	134	5
-8252	-5460	12744	-5	13	-24	-14976	648	-6792	2	0	-5	-3784	-4136	15880	-1	-9	19	-8328	4840	13776	18	6	-20	-15568	-1320	-5744	8	-9	23	-2592	5136	16312	25	2	-7	116	134	5
-8264	-5460	12700	-9	12	-25	-15008	576	-6288	2	-1	-6	-3816	-4224	16048	-1	-10	14	-8256	4864	13648	20	-1	-14	-15496	-1328	-5328	3	-4	22	-2632	5256	16096	21	4	-6	115	134	5
-8268	-5448	12600	-10	12	-24	-14976	632	-6160	4	2	-6	-3728	-4120	16136	3	-9	14	-8232	4864	13792	22	-1	-20	-15608	-1248	-5384	2	-9	25	-2648	4984	16016	24	0	-6	117	134	5
-8204	-5412	12680	-7	13	-22	-15008	704	-6312	3	-2	-5	-3752	-4280	16040	2	-8	11	-8216	4952	13656	16	-5	-20	-15400	-1344	-5448	2	-11	19	-2552	5192	16240	20	1	-1	118	134	5
-8308	-5476	12688	-6	12	-19	-14936	824	-6456	-1	1	-5	-3936	-4112	15872	5	-11	16	-8200	4936	13840	20	-2	-17	-15496	-1152	-5488	9	-6	21	-2520	4968	16208	22	3	1	117	134	5
-8276	-5460	12608	-10	15	-23	-14904	632	-6544	0	0	-6	-3888	-4264	16328	8	-9	19	-8288	4736	13592	18	-9	-19	-15472	-1256	-5488	8	-6	20	-2592	5104	15888	23	-2	5	116	134	5
-8288	-5380	12688	-8	15	-19	-15008	592	-6320	1	4	-10	-3696	-4072	16128	10	-9	20	-8224	4792	13728	20	-4	-19	-15512	-1312	-5328	7	-14	14	-2664	5136	15832	18	2	3	115	134	5
-8284	-5444	12740	-13	15	-24	-14904	584	-6440	5	0	-9	-3736	-3920	16216	7	-11	24	-8416	4920	13656	15	3	-22	-15400	-1336	-5328	11	-9	17	-2560	5080	16008	25	-2	2	116	133	5
-8256	-5412	12724	-8	17	-23	-14976	648	-6472	10	3	-13	-4008	-4016	15904	4	-11	22	-8240	4952	13656	14	2	-19	-15464	-1168	-5296	11	-7	14	-2512	5104	16296	27	1	5	118	134	5
-8252	-5424	12748	-17	16	-23	-14952	640	-6792	6	1	-9	-3728	-4048	15992	-5	-15	20	-8208	4880	13776	19	-4	-19	-15600	-1248	-5520	11	-5	15	-2504	5072	16096	24	-3	7	116	134	5
-8324	-5436	12748	-14	14	-23	-14936	648	-6392	5	3	-12	-3784	-4008	16112	-8	-18	19	-8240	4872	13824	12	3	-21	-15600	-1360	-5376	9	-2	13	-2512	5048	16416	23	0	9	117	134	5
-8240	-5540	12632	-17	17	-22	-14880	808	-6528	-1	2	-13	-3848	-4088	16424	-12	-18	20	-8256	4912	13464	14	-5	-21	-15536	-1400	-5256	4	-10	13	-2608	4976	16096	22	-1	10	116	134	5
-8260	-5436	12728	-11	13	-23	-14976	712	-6592	-2	2	-18	-3736	-4096	16152	-12	-16	27	-8264	4848	13728	16	-1	-18	-15496	-1256	-5392	4	-4	11	-2632	5000	16240	17	1	7	115	134	5
-8256	-5432	12776	-15	18	-24	-14976	616	-6480	2	1	-16	-3920	-4272	16064	-4	-14	25	-8288	4872	13656	13	-3	-19	-15520	-1296	-5384	7	-6	12	-2536	5128	16328	17	2	3	117	133	5
-8316	-5396	12640	-14	12	-24	-14968	656	-6400	2	-3	-16	-3768	-4456	16272	-8	-17	25	-8264	4792	13760	15	0	-22	-15512	-1344	-5616	12	-5	13	-2640	5080	16080	20	1	5	118	134	5
-8280	-5464	12736	-14	19	-26	-15072	640	-6400	13	0	-9	-3752	-4240	15952	-1	-12	19	-8224	4896	13640	17	-2	-19	-15552	-1288	-5560	9	-8	18	-2688	5096	16384	23	-2	7	117	134	5
-8220	-5524	12608	-19	13	-26	-14976	680	-6248	11	-2	-14	-3728	-4200	15920	1	-15	23	-8344	4928	13648	11	-4	-18	-15592	-1272	-5464	3	-5	16	-2664	5168	16128	22	1	5	116	134	5
-8264	-5436	12700	-14	16	-25	-14936	576	-6616	10	-1	-11	-3832	-4256	16168	4	-11	21	-8248	4864	13744	11	-3	-22	-15616	-1416	-5464	5	-6	14	-2568	4912	16144	16	-2	3	115	134	5
-8316	-5460	12712	-14	14	-27	-15016	640	-6392	7	-3	-12	-3696	-4264	15936	5	-15	15	-8320	4872	13752	20	6	-20	-15480	-1408	-5544	9	-9	16	-2584	5000	16240	19	-1	2	116	133	5
-8288	-5468	12636	-12	14	-21	-14912	712	-6272	-1	-3	-10	-3792	-4152	16088	2	-11	15	-8288	4928	13928	15	1	-17	-15416	-1360	-5576	10	-10	15	-2696	5136	16136	16	-1	0	118	133	5
-8268	-5428	12776	-15	11	-25	-15120	752	-6464	-4	0	-7	-3840	-4248	16096	0	-11	19	-8104	5032	13808	16	-7	-17	-15584	-1280	-5704	5	-6	16	-2656	5184	15968	14	1	5	117	134	5
-8344	-5416	12736	-15	13	-23	-14848	576	-6472	-1	0	-9	-3768	-4232	16168	-1	-13	17	-8336	4776	13720	15	-2	-18	-15504	-1488	-5256	10	-11	13	-2536	5080	15984	15	1	5	117	134	5
-8280	-5448	12728	-10	20	-21	-14992	560	-6480	-1	-3	-7	-3776	-4072	16008	2	-12	20	-8312	4736	13632	16	-7	-18	-15656	-1384	-5304	9	-8	12	-2592	5128	16184	14	5	5	116	134	5
-8236	-5484	12676	-9	17	-23	-14888	656	-6304	5	3	-7	-3752	-4200	16208	0	-9	14	-8256	4968	13832	20	-5	-18	-15504	-1328	-5664	9	-8	21	-2568	5032	16256	24	3	8	115	133	5
-8268	-5508	12656	-10	15	-22	-14904	768	-6448	13	7	-11	-3784	-4160	16200	-2	-7	15	-8240	4864	13752	14	-1	-23	-15544	-1328	-5424	10	-5	15	-2440	4928	15872	29	4	-1	117	133	5
-8296	-5528	12644	-11	18	-20	-15000	512	-6440	11	2	-12	-3840	-4160	16080	0	-11	22	-8328	4904	13784	19	3	-17	-15408	-1408	-5552	10	-9	20	-2528	5096	15992	31	-1	-1	118	134	5
-8260	-5472	12684	-12	14	-19	-14936	680	-6176	4	3	-7	-3736	-4080	16000	-4	-9	24	-8256	4800	13664	20	0	-23	-15528	-1376	-5352	4	-4	17	-2656	5120	16368	25	1	-4	117	134	5
-8300	-5440	12716	-15	13	-19	-15000	760	-6320	1	3	-10	-3832	-4184	16216	-10	-8	25	-8168	4840	13744	21	5	-18	-15464	-1256	-5384	0	-3	17	-2536	5096	16080	23	-4	-2	116	134	5
-8288	-5452	12656	-15	12	-26	-14816	648	-6456	-3	3	-9	-3856	-4144	16080	-7	-11	22	-8376	4944	13744	20	7	-24	-15632	-1288	-5648	-4	-4	17	-2520	5064	16360	21	5	-4	116	134	5
-8300	-5512	12724	-14	12	-25	-14976	528	-6296	3	5	-13	-3816	-4216	16224	-7	-14	25	-8216	4848	13728	20	0	-21	-15440	-1344	-5552	0	-3	17	-2592	5064	16192	23	3	3	116	133	5
-8304	-5500	12724	-15	11	-22	-15016	744	-6640	7	1	-12	-3736	-4176	16016	-7	-10	22	-8152	4768	13864	22	0	-20	-15472	-1176	-5552	0	-1	17	-2616	5064	16256	18	2	6	118	133	5
-8204	-5440	12636	-14	14	-21	-15024	648	-6440	10	6	-10	-3896	-4176	16112	-5	-9	20	-8320	4848	13760	20	-9	-19	-15568	-1312	-5328	10	-11	18	-2640	4928	16272	28	-2	8	117	133	5
-8328	-5488	12676	-9	17	-23	-14808	720	-6456	7	4	-11	-3792	-4336	16112	2	-13	25	-8240	4792	13928	18	2	-22	-15416	-1296	-5568	16	-2	17	-2632	4968	16096	29	1	8	116	133	5
-8292	-5444	12648	-13	14	-26	-15008	704	-6632	-1	1	-12	-3936	-4240	16136	9	-15	26	-8200	5016	13744	17	-3	-20	-15456	-1152	-5480	15	-3	17	-2648	5216	16208	30	-3	7	116	133	5
-8268	-5432	12584	-12	14	-23	-14952	744	-6640	1	-2	-12	-3760	-4200	16208	6	-12	22	-8320	4864	13624	17	0	-23	-15456	-1184	-5560	14	-6	18	-2680	5200	16128	24	-3	8	115	133	5
-8296	-5456	12688	-13	9	-25	-14928	576	-6696	-5	-7	-8	-3688	-4112	16104	11	-15	20	-8384	4904	13744	13	-2	-19	-15600	-1344	-5720	11	-5	14	-2552	5144	16144	20	1	4	117	133	5
-8292	-5484	12700	-7	10	-26	-14960	520	-6488	-3	-3	-6	-3904	-4208	16160	8	-13	20	-8384	5056	13864	17	-9	-20	-15504	-1312	-5296	9	-9	17	-2656	5128	16280	13	1	6	118	134	5
-8312	-5444	12756	-12	10	-19	-14936	504	-6320	0	-4	-7	-3848	-4136	16320	4	-12	17	-8232	5024	13528	15	-3	-20	-15552	-1432	-5560	11	-10	14	-2656	5216	16088	13	3	6	117	134	5
-8260	-5444	12548	-9	9	-21	-14936	720	-6424	6	-3	-7	-3552	-4128	16064	7	-10	14	-8248	4864	13760	17	-5	-22	-15520	-1224	-5368	15	-11	16	-2488	5016	16160	11	0	4	116	134	5
-8284	-5472	12720	-6	10	-22	-15040	616	-6304	4	-4	-8	-3704	-4216	16032	6	-9	15	-8208	4904	13648	15	-5	-17	-15344	-1328	-5600	17	-9	13	-2520	5040	16208	10	-2	5	115	134	5
-8224	-5428	12700	-12	11	-24	-14912	760	-6352	2	-4	-7	-3728	-4144	16232	7	-11	17	-8408	4816	13896	16	-3	-18	-15536	-1336	-5544	11	-6	16	-2536	5008	16208	16	2	1	116	133	5
-8296	-5460	12728	-11	11	-25	-15048	680	-6320	5	-2	-9	-3640	-4288	16360	7	-10	20	-8264	4880	13648	17	-6	-22	-15608	-1448	-5664	8	-7	18	-2344	5008	16104	29	1	1	118	133	5
-8264	-5448	12604	-14	15	-25	-15056	680	-6408	9	4	-6	-3736	-4040	15968	2	-5	20	-8240	4752	13704	21	-6	-21	-15512	-1392	-5336	6	-6	16	-2640	5160	16336	36	-4	-3	117	134	5
-8216	-5468	12748	-13	17	-26	-14992	760	-6272	11	4	-6	-3736	-4240	16008	2	-3	20	-8256	4912	13808	17	-2	-25	-15512	-1272	-5344	7	-1	19	-2664	5104	16152	34	-3	4	117	134	5
-8316	-5424	12648	-12	20	-22	-14984	592	-6600	6	3	-11	-3768	-4200	16016	-4	-10	19	-8400	4864	13448	18	1	-20	-15560	-1296	-5232	6	-3	24	-2528	5152	15888	30	-3	2	116	134	5
-8264	-5468	12576	-10	15	-23	-14856	712	-6408	3	1	-9	-3872	-4208	16248	-5	-11	18	-8352	4880	13840	19	-3	-13	-15440	-1256	-5528	6	-1	20	-2608	5216	16304	30	-2	-1	116	134	5
-8312	-5496	12684	-13	17	-23	-14944	560	-6608	8	3	-10	-3840	-4296	16096	-6	-11	18	-8184	4856	13712	23	-4	-17	-15584	-1256	-5584	7	-5	24	-2608	5024	16072	25	-2	1	117	134	5
-8300	-5444	12652	-13	16	-24	-15008	664	-6536	10	4	-7	-3840	-4224	16016	-3	-10	22	-8264	4816	13656	21	4	-17	-15544	-1128	-5368	6	-5	14	-2600	5168	16048	26	0	2	118	134	5
-8296	-5532	12828	-10	15	-21	-15048	712	-6608	7	3	-6	-3672	-4104	16168	-3	-10	22	-8416	4880	13816	18	0	-21	-15536	-1192	-5448	4	-4	22	-2552	5136	15864	29	-4	-1	117	134	5
-8348	-5452	12632	-11	11	-24	-14848	696	-6496	5	1	-8	-3880	-4080	16168	6	-12	21	-8320	4800	13808	17	-7	-22	-15552	-1184	-5320	2	-4	20	-2592	5128	16144	22	-1	3	117	134	5
-8280	-5480	12660	-10	12	-24	-14856	624	-6504	-5	0	-11	-3888	-4056	16232	8	-12	18	-8304	4752	13720	18	-4	-20	-15480	-1184	-5560	7	-2	17	-2568	5104	16296	23	-2	10	115	134	5
-8232	-5488	12756	-9	10	-24	-14808	688	-6400	1	-4	-7	-3664	-4248	15912	7	-12	20	-8520	4904	13888	19	-5	-15	-15560	-1168	-5752	9	-6	17	-2568	5048	16312	23	2	8	117	134	5
-8276	-5448	12700	-10	18	-23	-14960	584	-6424	4	-3	-8	-3880	-3968	16064	10	-17	20	-8344	4896	13968	19	0	-17	-15536	-1096	-5472	9	-9	15	-2728	5000	16216	18	2	9	118	134	5
-8344	-5412	12672	-13	14	-21	-14848	744	-6744	2	1	-7	-3768	-4088	16016	5	-16	20	-8312	4880	13920	19	-10	-16	-15480	-1112	-5608	12	-11	17	-2664	5072	16048	16	-1	4	117	134	5
-8296	-5420	12660	-3	13	-23	-14800	760	-6352	4	-2	-6	-3856	-4168	16128	2	-14	23	-8280	4952	13584	16	-3	-18	-15576	-1216	-5336	9	-9	12	-2688	5064	15976	12	3	2	116	134	5
-8300	-5464	12668	-13	12	-21	-14968	808	-6552	-4	1	-12	-3776	-4232	16328	1	-17	23	-8272	4856	13712	18	-2	-22	-15544	-1328	-5488	7	-7	15	-2624	5120	16264	17	2	3	116	134	5
-8264	-5488	12748	-13	15	-26	-14992	752	-6408	2	-3	-12	-3832	-4104	16000	0	-18	20	-8320	4848	13544	16	-4	-19	-15568	-1248	-5528	8	-12	14	-2568	5072	16328	14	4	2	116	133	5
-8288	-5468	12680	-15	18	-22	-14872	576	-6200	1	-1	-11	-3784	-4128	16112	-1	-17	22	-8248	4616	13768	11	-3	-18	-15632	-1328	-5816	1	-7	14	-2600	5096	15984	22	2	6	117	133	5
-8300	-5412	12704	-12	18	-27	-15000	568	-6680	4	0	-16	-3704	-4168	16064	-12	-13	23	-8192	4840	13712	15	-2	-19	-15592	-1368	-5512	5	-7	15	-2600	5048	16192	21	0	8	117	134	5
-8304	-5404	12616	-16	19	-28	-15016	656	-6456	3	5	-14	-3824	-4128	16176	-12	-14	25	-8328	4720	13736	19	-1	-17	-15432	-1344	-5328	11	-4	11	-2744	5072	16136	18	7	3	117	133	5
-8316	-5472	12596	-11	17	-24	-14936	704	-6328	8	-2	-13	-3832	-4184	15912	-10	-16	19	-8368	4856	13656	14	-3	-15	-15552	-1224	-5552	18	-6	16	-2640	5064	16096	10	2	-1	116	133	5
-8264	-5464	12664	-13	10	-24	-14936	608	-6384	10	3	-11	-3728	-4272	16104	-12	-14	23	-8128	4800	13776	16	-2	-20	-15496	-1200	-5648	10	-7	19	-2544	4912	16312	13	3	0	115	134	5
-8280	-5396	12772	-15	16	-26	-14944	680	-6312	6	3	-9	-3760	-4208	16160	-9	-16	20	-8312	4880	13720	13	3	-19	-15560	-1256	-5432	12	-7	17	-2600	5264	15888	17	2	1	117	133	5
-8236	-5436	12700	-13	13	-24	-14888	672	-6632	5	-2	-10	-3808	-4152	16192	-6	-13	19	-8192	4856	13592	18	-3	-16	-15512	-1280	-5432	5	-6	16	-2504	5072	16336	19	1	4	118	133	5
-8304	-5472	12724	-11	20	-21	-14920	608	-6568	5	0	-9	-3704	-4120	16152	0	-13	20	-8200	4888	13736	18	-2	-19	-15624	-1352	-5520	-1	-5	15	-2648	4944	15968	22	3	4	117	134	5
-8288	-5508	12672	-9	18	-18	-14952	648	-6424	3	-2	-15	-3808	-4080	15992	1	-17	22	-8328	4720	13816	14	0	-18	-15560	-1368	-5744	5	-4	14	-2672	5064	16296	24	0	4	116	134	5
-8328	-5444	12740	-11	11	-23	-14904	752	-6416	-1	1	-16	-3920	-4256	15912	1	-14	21	-8240	4800	13704	19	-5	-14	-15520	-1384	-5632	11	-8	17	-2760	5016	16264	24	3	3	116	134	5
-8208	-5452	12604	-14	14	-25	-14992	688	-6416	1	-5	-11	-3872	-4176	16104	-2	-13	18	-8168	4704	13912	13	0	-15	-15600	-1384	-5744	15	-5	14	-2592	5048	16216	19	0	3	115	133	5
-8312	-5492	12692	-13	19	-25	-15016	584	-6656	3	-3	-8	-3872	-4248	15944	1	-13	19	-8360	4808	13712	15	-3	-20	-15560	-1184	-5400	12	-6	15	-2624	5088	16184	15	-1	2	117	133	5
-8292	-5444	12652	-10	13	-24	-15040	616	-6352	4	-2	-11	-3848	-4200	15800	4	-11	20	-8256	4920	13784	16	-1	-16	-15472	-1248	-5608	10	-10	14	-2680	5096	15912	14	3	6	118	134	5
-8328	-5428	12692	-13	12	-22	-14920	616	-6496	7	-2	-10	-3792	-4328	16000	2	-14	24	-8232	4880	13784	19	0	-19	-15616	-1496	-5528	8	-6	18	-2488	5136	16216	15	-1	6	117	134	5
-8260	-5508	12644	-10	13	-23	-14888	568	-6400	5	2	-11	-3824	-4264	16040	7	-14	23	-8176	4936	13736	19	-5	-16	-15568	-1344	-5392	7	-9	17	-2632	4920	16136	19	0	7	116	134	5
-8304	-5464	12640	-15	9	-24	-14936	672	-6480	5	-3	-12	-3768	-4224	16032	4	-10	20	-8152	4680	13664	20	2	-16	-15592	-1448	-5344	7	-8	17	-2608	5040	16280	27	1	6	116	134	5
-8296	-5412	12752	-12	14	-21	-15080	744	-6184	1	0	-10	-3744	-4296	16168	5	-10	17	-8184	4816	13560	18	-1	-19	-15496	-1248	-5432	6	-11	20	-2672	5024	16192	28	-1	6	117	134	5
-8208	-5436	12672	-10	15	-26	-15072	768	-6184	-1	0	-5	-3720	-4240	15872	3	-10	17	-8224	4704	13632	18	0	-16	-15448	-1352	-5432	9	-7	17	-2592	5016	16224	31	-5	-3	118	134	5
-8316	-5496	12700	-9	12	-20	-14800	672	-6456	-1	-1	-8	-3768	-4264	16016	7	-13	20	-8376	4824	13664	22	-3	-17	-15640	-1280	-5264	11	-11	17	-2456	5080	16216	25	3	0	116	134	5
-8308	-5444	12704	-7	15	-25	-14968	496	-6424	3	0	-6	-3864	-4088	15976	2	-10	23	-8264	4920	13816	21	-10	-17	-15440	-1160	-5528	7	-7	17	-2528	4968	15984	21	0	0	117	134	5
-8220	-5448	12664	-8	12	-21	-14936	632	-6336	8	0	-11	-3888	-4184	16056	3	-16	20	-8400	4808	13808	18	1	-15	-15528	-1104	-5288	5	-9	17	-2584	5064	16072	21	4	2	116	134	5
-8316	-5440	12632	-15	12	-22	-14984	688	-6608	7	-1	-11	-3728	-4248	15904	3	-14	18	-8320	4936	13760	18	-4	-19	-15472	-1336	-5368	3	-1	18	-2584	5080	16440	20	3	2	116	133	5
-8284	-5400	12752	-17	14	-26	-14960	696	-6408	5	2	-10	-3864	-4144	15992	-6	-11	21	-8288	4824	13968	19	-3	-23	-15528	-1376	-5480	6	-4	14	-2544	4992	16136	19	4	6	117	133	5
-8252	-5428	12612	-16	12	-24	-15056	616	-6384	5	3	-15	-3896	-4032	16256	-4	-9	21	-8328	4864	13744	21	1	-17	-15560	-1360	-5624	6	-8	12	-2536	5168	16296	22	-4	4	117	134	5
-8272	-5456	12720	-17	12	-22	-15056	512	-6472	1	1	-11	-3824	-4144	15952	-8	-16	22	-8352	4928	13648	19	0	-23	-15512	-1312	-5544	4	-7	16	-2608	5240	16152	15	-2	3	116	134	5
-8300	-5428	12708	-16	17	-23	-15048	552	-6488	-1	0	-9	-3864	-4168	16160	-7	-18	22	-8312	4920	13672	14	-5	-21	-15552	-1328	-5528	12	-5	13	-2480	5200	15992	18	2	5	116	134	5
-8280	-5436	12552	-14	17	-27	-14912	648	-6448	0	-1	-15	-3832	-4200	16216	-5	-17	21	-8312	4960	13864	16	-12	-18	-15400	-1280	-5664	14	-7	10	-2584	5080	15912	17	1	8	115	134	5
-8288	-5432	12752	-14	13	-27	-14944	544	-6608	0	2	-17	-3760	-4184	16176	-5	-14	23	-8336	4824	13944	14	-3	-22	-15560	-1272	-5272	11	-7	11	-2656	5120	16040	18	4	8	117	134	5
-8248	-5464	12604	-18	13	-17	-14984	736	-6560	5	5	-17	-3760	-4152	16112	-1	-13	20	-8264	4880	13760	18	-3	-25	-15520	-1360	-5336	15	-3	9	-2592	5000	16336	18	5	9	118	134	5
-8272	-5500	12596	-16	15	-20	-15000	520	-6352	3	0	-11	-3744	-4152	15968	-7	-13	21	-8328	4824	13736	14	1	-21	-15544	-1144	-5544	13	-12	11	-2640	5040	16392	19	4	9	116	134	5
-8276	-5464	12636	-15	16	-22	-14944	632	-6224	-2	0	-13	-3776	-4168	16112	-3	-14	26	-8288	4696	13672	16	-5	-20	-15536	-1440	-5584	9	-11	12	-2552	5064	16136	11	-1	9	117	134	5
-8280	-5464	12740	-16	17	-24	-14944	608	-6424	0	2	-9	-3680	-4112	16024	-3	-15	23	-8280	4720	13976	15	0	-19	-15544	-1416	-5672	5	-7	18	-2688	4960	16200	13	0	5	116	134	5
-8228	-5388	12656	-12	15	-23	-14960	552	-6464	6	0	-17	-3936	-4248	16032	-4	-14	20	-8256	4864	13872	16	1	-17	-15456	-1296	-5560	8	-13	17	-2616	4944	16272	14	1	7	116	134	5
-8256	-5444	12620	-11	13	-22	-15048	616	-6568	7	-1	-11	-3768	-4184	15968	2	-16	17	-8240	4736	13632	16	-2	-17	-15528	-1336	-5680	9	-7	20	-2560	4944	16192	22	-1	3	118	134	5
-8300	-5492	12660	-8	15	-24	-15016	648	-6184	7	-1	-2	-3832	-4128	16112	5	-11	15	-8400	4856	13584	19	-3	-19	-15656	-1256	-5472	6	-8	22	-2696	4840	16368	24	-1	2	117	134	5
-8256	-5436	12636	-7	14	-20	-15072	664	-6288	2	-4	-8	-3792	-4176	16160	6	-10	17	-8368	4864	13808	23	-3	-20	-15472	-1384	-5464	6	-5	20	-2656	5128	16104	26	-3	1	116	134	5
-8256	-5528	12728	-8	15	-23	-14824	656	-6368	3	-3	-13	-3832	-4152	16200	7	-9	18	-8312	4800	13824	19	-4	-18	-15448	-1432	-5488	2	-8	26	-2704	4928	15856	25	3	0	116	134	5
-8248	-5448	12572	-6	13	-21	-14832	616	-6440	-2	-1	-6	-3648	-4104	15728	7	-11	25	-8336	4840	13896	22	-4	-21	-15688	-1232	-5488	4	-8	18	-2680	5064	16336	23	-2	0	115	134	5
-8292	-5476	12768	-10	10	-23	-14920	680	-6544	-2	0	-4	-3624	-4240	16176	4	-7	21	-8320	4792	13784	22	4	-20	-15664	-1344	-5616	0	-6	25	-2432	5048	16184	19	-4	-2	117	134	5
-8276	-5424	12592	-11	12	-23	-14952	688	-6440	5	1	-4	-3736	-4224	16264	7	-10	21	-8216	4864	13784	17	-2	-16	-15544	-1256	-5360	7	-8	22	-2592	5168	16256	23	-2	-3	118	134	5
-8220	-5460	12628	-12	11	-21	-14968	752	-6400	7	9	-5	-3816	-4216	16120	2	-10	21	-8392	4752	13792	21	-1	-21	-15616	-1288	-5576	9	-8	23	-2552	5048	15896	32	1	-1	117	134	5
-8260	-5448	12696	-6	14	-25	-14912	704	-6152	9	0	-3	-3792	-4144	16024	3	-10	19	-8208	4840	13632	20	-2	-17	-15440	-1208	-5600	7	-4	20	-2488	5096	15912	30	-1	-1	116	134	5
-8284	-5420	12696	-15	14	-21	-14880	752	-6384	6	2	-5	-3912	-4032	16224	3	-15	17	-8256	4912	13576	23	-2	-17	-15456	-1120	-5552	10	-3	21	-2472	5192	16216	29	-4	3	115	134	5
-8248	-5436	12672	-12	14	-25	-15080	800	-6696	3	4	-8	-3880	-3984	16200	3	-13	21	-8240	4808	13744	21	2	-20	-15464	-1368	-5520	7	-6	18	-2536	5144	16104	26	-1	3	117	133	5
-8248	-5416	12608	-10	15	-21	-15136	616	-6480	-1	2	-10	-3848	-4240	16176	-2	-9	20	-8416	4768	13816	17	-1	-17	-15512	-1184	-5624	5	-5	19	-2648	5240	16160	23	-5	4	118	134	5
-8304	-5452	12568	-12	11	-23	-14872	760	-6320	0	1	-11	-3840	-4096	16136	-3	-10	20	-8184	4776	13864	21	-5	-20	-15544	-1176	-5376	6	-2	10	-2600	5128	16256	16	-1	8	117	134	5
-8288	-5408	12612	-12	15	-21	-15000	528	-6624	6	1	-12	-3872	-4040	16024	-7	-12	19	-8224	4880	13720	13	0	-22	-15616	-1216	-5648	7	-3	11	-2664	5168	16048	18	3	6	116	134	5
-8236	-5464	12684	-12	13	-23	-14920	632	-6592	12	1	-10	-3816	-4216	16264	-7	-14	19	-8232	4992	14024	14	-3	-21	-15512	-1264	-5488	11	-7	16	-2632	5024	16128	19	5	2	117	134	5
-8288	-5420	12628	-11	14	-23	-14864	696	-6560	10	1	-14	-3760	-4072	16000	-9	-12	27	-8240	4680	13632	13	0	-20	-15440	-1304	-5280	13	-5	12	-2616	5152	16200	16	2	4	115	134	5
-8244	-5464	12716	-14	13	-27	-14936	688	-6384	6	3	-18	-3760	-4256	16200	-10	-12	24	-8280	4872	13720	14	5	-23	-15576	-1224	-5384	11	-2	13	-2616	5048	16144	17	6	6	117	133	5
-8244	-5428	12764	-14	13	-23	-14944	696	-6504	4	2	-15	-3784	-4200	16096	-10	-10	25	-8264	5008	13648	12	-10	-20	-15456	-1312	-5552	10	-3	7	-2608	5104	16192	17	4	7	118	133	5
-8252	-5436	12764	-17	13	-23	-14952	608	-6520	-3	-8	-16	-3720	-4128	16064	-8	-11	22	-8368	4848	13896	11	-6	-20	-15568	-1368	-5568	5	-6	11	-2728	5064	16184	18	6	6	116	133	5
-8296	-5516	12712	-17	13	-24	-14952	704	-6352	2	-2	-13	-3560	-4128	16128	-8	-10	22	-8360	4848	13760	15	-6	-21	-15504	-1344	-5600	8	-4	9	-2664	4928	16184	19	2	3	116	134	5
-8296	-5444	12780	-16	14	-26	-15064	712	-6400	4	0	-14	-3784	-4224	16216	-5	-17	17	-8336	4904	13872	17	-3	-19	-15536	-1400	-5344	9	-7	13	-2680	4944	16216	14	2	4	116	134	5
-8256	-5444	12652	-16	18	-22	-14856	632	-6544	5	0	-14	-3768	-4168	16208	-10	-13	19	-8224	4968	13840	18	-5	-20	-15520	-1312	-5672	10	-5	14	-2528	4936	16080	16	1	1	116	133	5
-8312	-5472	12624	-13	17	-23	-14944	648	-6648	10	1	-11	-3704	-4248	16040	-5	-13	20	-8384	4800	13968	21	-11	-21	-15432	-1328	-5480	14	-4	14	-2496	4992	16400	16	2	4	118	133	5
-8236	-5544	12640	-11	16	-23	-15000	648	-6400	10	1	-8	-3744	-4336	15984	-4	-14	19	-8360	4848	13736	18	0	-16	-15664	-1256	-5560	13	-3	16	-2568	4928	16184	25	-1	0	117	134	5
-8268	-5472	12728	-10	14	-24	-15184	584	-6464	2	-1	-9	-3768	-4400	16224	1	-11	23	-8288	4760	13728	20	-4	-20	-15520	-1264	-5576	9	-5	19	-2600	4880	16184	24	-4	4	117	134	5
-8292	-5448	12668	-12	15	-24	-15000	656	-6416	1	3	-7	-3744	-4224	16312	0	-11	20	-8280	4696	13592	23	-6	-18	-15552	-1264	-5520	3	-1	18	-2520	5048	16248	31	-1	1	116	134	5
-8304	-5480	12644	-7	16	-24	-14856	592	-6536	-1	8	-10	-3720	-4208	16224	2	-12	18	-8328	5024	13608	16	-1	-20	-15520	-1328	-5816	-3	-6	19	-2672	5072	16240	28	-4	0	115	134	5
-8292	-5460	12792	-10	14	-21	-14920	688	-6496	-3	-3	-7	-3824	-4312	16328	1	-8	23	-8288	4912	13896	22	-2	-16	-15584	-1368	-5560	0	-7	18	-2768	5120	16280	30	-2	5	117	134	5
-8304	-5460	12592	-12	13	-27	-15112	616	-6400	2	-2	-5	-3784	-4232	16088	1	-9	19	-8280	4864	13960	20	-2	-19	-15584	-1400	-5576	2	-2	22	-2568	4984	16336	26	-5	1	118	134	5
-8280	-5460	12648	-9	13	-25	-15080	704	-6568	12	5	-5	-3768	-4248	16112	6	-10	16	-8272	4888	13552	23	-3	-14	-15496	-1224	-5528	11	-8	21	-2640	5136	16168	23	0	4	116	134	5
-8252	-5468	12704	-9	17	-26	-15024	656	-6464	3	-3	-5	-3776	-4168	16424	4	-10	19	-8304	4784	13680	19	3	-22	-15552	-1320	-5456	10	-13	20	-2536	5048	16216	22	0	1	117	134	5
-8312	-5456	12764	-8	14	-25	-14952	696	-6560	2	0	-9	-3744	-4072	16112	0	-8	23	-8376	4904	13760	19	0	-18	-15512	-1400	-5472	12	-6	20	-2672	5056	16240	20	-3	1	115	134	5
-8224	-5372	12632	-9	10	-26	-14832	528	-6728	7	-2	-9	-3816	-4152	16216	-1	-16	18	-8320	4856	13592	18	-4	-18	-15408	-1296	-5280	6	-10	17	-2608	5072	16144	20	-2	1	116	133	5
-8316	-5440	12708	-10	13	-28	-14960	576	-6448	2	0	-10	-3952	-4296	16040	2	-12	22	-8336	4792	13800	20	-10	-19	-15456	-1312	-5384	4	-10	16	-2600	5016	16120	21	0	5	118	133	5
-8268	-5496	12680	-10	15	-27	-15048	776	-6344	1	-3	-6	-3824	-4048	16264	5	-10	19	-8216	4976	13904	15	0	-19	-15512	-1176	-5368	6	-5	17	-2520	4928	16104	25	4	5	117	134	5
-8224	-5440	12688	-12	13	-25	-14960	712	-6616	-1	-7	-7	-3864	-4176	16264	6	-10	22	-8304	4848	13656	19	-5	-19	-15560	-1320	-5392	10	-11	15	-2584	5144	16208	24	-2	8	116	134	5
-8324	-5464	12660	-12	17	-25	-14984	624	-6264	7	-1	-9	-3704	-4136	16328	0	-16	21	-8328	4864	13872	22	-6	-16	-15624	-1368	-5512	12	-9	22	-2560	5120	15952	23	-2	6	116	134	5
-8280	-5404	12696	-14	13	-23	-14944	632	-6304	6	0	-9	-3736	-4128	16160	-2	-10	23	-8168	4928	13616	21	-7	-19	-15576	-1184	-5672	11	-7	15	-2544	4936	16296	17	-1	3	115	133	5
-8316	-5412	12664	-15	17	-24	-14952	536	-6464	7	-1	-12	-3696	-4048	16272	4	-13	20	-8400	4776	13792	18	-11	-18	-15432	-1264	-5424	7	-9	20	-2456	5104	16040	14	2	1	117	133	5
-8264	-5452	12744	-15	19	-26	-15000	672	-6560	4	-2	-8	-3696	-4128	15912	1	-12	20	-8288	4920	13720	20	1	-18	-15424	-1464	-5208	5	-7	18	-2480	4896	16048	20	-5	-1	118	134	5
-8240	-5460	12712	-18	18	-25	-14888	624	-6520	6	0	-8	-3752	-4264	16200	1	-12	19	-8232	4888	13616	20	-7	-17	-15512	-1176	-5776	5	-5	18	-2440	5072	16248	27	-3	1	116	133	5
-8292	-5420	12676	-13	17	-24	-14848	528	-6216	4	1	-11	-3752	-4184	16168	-1	-16	22	-8104	4952	13648	15	-4	-18	-15584	-1312	-5456	3	-4	18	-2720	4960	16296	23	-1	0	116	134	5
-8300	-5472	12620	-13	13	-26	-15080	688	-6264	8	3	-8	-3728	-4160	16056	-5	-12	22	-8256	4800	13624	16	-1	-23	-15496	-1208	-5440	3	-4	18	-2584	5008	16336	27	-1	6	115	134	5
-8308	-5428	12708	-9	14	-21	-14968	792	-6416	7	-2	-10	-3728	-4224	15992	-3	-14	20	-8344	4760	13760	21	-6	-14	-15632	-1296	-5440	6	-9	17	-2720	5080	16104	24	-6	5	116	133	5
-8260	-5448	12608	-17	11	-22	-15056	712	-6624	0	1	-13	-3800	-4144	16136	-2	-16	23	-8368	4808	13584	15	-3	-19	-15544	-1296	-5544	8	-6	20	-2616	4976	15952	24	0	6	118	133	5
-8284	-5428	12636	-10	15	-23	-14992	544	-6424	1	1	-13	-3784	-4152	16120	-1	-14	23	-8176	4848	13640	19	-4	-22	-15496	-1328	-5432	11	-8	17	-2552	4960	16504	20	-4	1	116	134	5
-8288	-5420	12668	-10	11	-22	-14968	528	-6440	4	3	-13	-3800	-4184	16024	0	-12	19	-8344	4936	13776	18	-4	-19	-15408	-1368	-5560	11	-12	19	-2824	5256	16088	23	1	2	117	133	5
-8244	-5452	12656	-13	11	-24	-15056	688	-6248	6	-4	-8	-3944	-4144	16192	6	-13	21	-8312	4928	13928	15	-3	-23	-15400	-1248	-5536	11	-7	18	-2592	5216	16184	21	-8	3	116	134	5
-8248	-5480	12712	-8	12	-24	-14928	640	-6352	8	-6	-6	-3704	-4152	16008	4	-11	21	-8384	4824	13672	17	1	-23	-15544	-1328	-5744	8	-10	16	-2608	5088	16360	21	1	7	115	133	5
-8300	-5436	12600	-10	17	-23	-14904	680	-6616	3	-4	-6	-3968	-4168	16152	6	-13	18	-8256	4784	13800	17	-3	-17	-15528	-1216	-5512	6	-9	19	-2616	5064	16336	12	-2	4	117	133	5
-8256	-5420	12684	-17	14	-23	-14992	608	-6400	1	-6	-6	-3816	-4152	16272	5	-15	15	-8232	4856	13432	18	-5	-14	-15552	-1296	-5472	6	-7	15	-2656	5032	16200	10	-4	1	118	134	5
-8340	-5476	12676	-15	15	-22	-14992	760	-6384	3	-6	-9	-3816	-4168	16064	0	-13	17	-8248	4696	13712	18	-4	-18	-15480	-1304	-5584	8	-13	15	-2704	4968	16192	14	0	4	116	133	5
-8300	-5472	12588	-6	12	-28	-14944	544	-6552	4	-4	-7	-3752	-4184	16008	2	-14	16	-8320	4896	13600	17	-2	-17	-15600	-1328	-5440	10	-6	15	-2608	4968	16200	15	1	2	116	134	5
-8272	-5436	12732	-13	12	-24	-14880	584	-6456	2	-4	-9	-3808	-4072	16200	3	-12	19	-8280	4736	13728	17	1	-17	-15552	-1224	-5792	11	-10	18	-2768	4864	16024	18	0	2	115	134	5
-8268	-5516	12768	-10	11	-26	-15056	664	-6304	4	-3	-11	-3688	-4040	16032	4	-9	21	-8232	4736	13760	16	0	-22	-15504	-1216	-5472	13	-7	16	-2568	5072	16200	17	2	2	117	134	5
-8304	-5424	12672	-12	13	-24	-14992	712	-6440	6	-2	-11	-3704	-4184	16104	2	-12	21	-8184	4736	13816	18	-9	-20	-15592	-1264	-5616	9	-6	19	-2504	5032	16400	18	1	4	118	134	5
-8292	-5436	12780	-11	19	-20	-14928	680	-6400	5	3	-10	-3624	-4256	15920	-1	-14	19	-8312	4784	13832	20	2	-19	-15496	-1480	-5448	7	-8	15	-2632	5000	16120	18	-3	3	117	134	5
-8268	-5420	12712	-13	19	-27	-14968	528	-6328	12	3	-9	-3760	-4184	16104	-4	-17	23	-8312	4896	13808	16	-2	-21	-15536	-1376	-5416	7	-1	17	-2608	5040	16424	21	0	-1	116	134	5
-8312	-5464	12632	-13	14	-23	-14864	736	-6184	4	2	-9	-3712	-4096	16288	-5	-13	22	-8240	4960	13784	22	-3	-23	-15448	-1256	-5424	3	-1	15	-2648	4888	16336	29	-3	3	116	134	5
