#Activity	sitting 
#ActivityID	5 
#Date 10-10-17-34
acc_rf_x	acc_rf_y	acc_rf_z	gyro_rf_x	gyro_rf_y	gyro_rf_z	acc_rs_x	acc_rs_y	acc_rs_z	gyro_rs_x	gyro_rs_y	gyro_rs_z	acc_rt_x	acc_rt_y	acc_rt_z	gyro_rt_x	gyro_rt_y	gyro_rt_z	acc_lf_x	acc_lf_y	acc_lf_z	gyro_lf_x	gyro_lf_y	gyro_lf_z	acc_ls_x	acc_ls_y	acc_ls_z	gyro_ls_x	gyro_ls_y	gyro_ls_z	acc_lt_x	acc_lt_y	acc_lt_z	gyro_lt_x	gyro_lt_y	gyro_lt_z	EMG_r	EMG_l	act
-10728	-3096	11272	-78	152	-170	-15092	-3612	-4516	-33	-47	-64	-2824	-1996	16232	92	-166	220	-9056	3400	13648	148	-35	-158	-16216	-88	-3860	60	13	188	-1404	1904	16944	255	5	33	127	128	5
-10768	-3164	11212	-116	139	-172	-15128	-3588	-4476	27	-81	-53	-2808	-2036	16356	142	-149	190	-8960	3396	13564	174	-41	-133	-16180	-12	-4012	89	-11	164	-1396	1860	16920	230	-14	32	127	128	5
-10708	-3100	11316	-71	162	-194	-15152	-3588	-4336	75	-69	-12	-2808	-2056	16260	121	-141	148	-8960	3416	13652	153	-46	-154	-16092	-52	-3916	82	-20	167	-1364	1880	16980	226	-32	20	126	128	5
-10696	-3076	11176	-51	129	-195	-15168	-3568	-4392	25	-78	-22	-2804	-1972	16248	148	-151	93	-8996	3344	13580	157	-26	-175	-16128	48	-3948	113	0	200	-1296	1916	16840	234	-39	23	127	128	5
-10712	-3096	11224	-53	130	-154	-15124	-3504	-4480	-17	-38	16	-2768	-1892	16312	117	-93	114	-9048	3380	13628	179	-38	-152	-16104	-100	-4112	70	-24	197	-1304	1852	16920	218	-34	17	127	128	5
-10676	-3044	11312	-34	127	-163	-15092	-3452	-4400	-58	-52	42	-2808	-1888	16352	99	-107	85	-8984	3492	13608	157	-37	-161	-16140	48	-4044	100	-15	174	-1388	1856	16940	288	11	-8	126	128	5
-10740	-3088	11240	-36	104	-147	-15148	-3484	-4504	-48	-18	55	-2808	-1840	16340	78	-110	82	-9032	3404	13628	183	-55	-129	-16076	52	-4080	92	-42	176	-1368	1888	16900	258	7	10	127	128	5
-10756	-3120	11292	-36	132	-188	-15100	-3536	-4476	34	-54	9	-2724	-1916	16360	112	-122	85	-8976	3420	13524	158	-47	-175	-16120	4	-3844	86	-5	203	-1320	1864	16944	239	46	-14	127	128	5
-10692	-3036	11360	-44	167	-167	-15136	-3436	-4356	77	6	3	-2848	-1864	16256	134	-77	108	-9048	3392	13536	114	-27	-158	-16116	8	-3952	38	12	156	-1324	1952	16824	189	-24	-1	126	128	5
-10688	-3080	11336	-73	139	-170	-15116	-3448	-4468	53	-3	-9	-2840	-1884	16244	119	-116	73	-9032	3332	13644	180	-50	-154	-16176	-28	-3940	80	14	124	-1252	1836	16936	178	-13	-12	126	128	5
-10676	-3080	11284	-75	161	-164	-15124	-3428	-4460	29	22	-25	-2824	-1820	16280	113	-128	121	-9016	3392	13664	168	17	-156	-16152	-44	-3944	58	36	134	-1268	1932	16836	231	-13	-22	127	128	5
-10644	-3064	11220	-63	134	-169	-15144	-3404	-4508	-13	-17	-13	-2864	-1780	16244	85	-94	167	-9072	3380	13504	136	-48	-159	-16168	-60	-3920	87	32	125	-1252	1924	16924	237	-10	-39	126	128	5
-10732	-3052	11312	-102	152	-193	-15144	-3360	-4624	-47	-16	-66	-2904	-1820	16252	50	-98	184	-9004	3444	13568	149	-59	-168	-16120	12	-3964	42	-3	143	-1296	1960	16800	218	-22	-23	127	128	5
-10676	-3096	11292	-96	156	-168	-15144	-3464	-4600	-36	-13	-39	-2904	-1840	16332	26	-112	181	-9076	3364	13548	151	-69	-160	-16092	0	-4000	19	-20	147	-1368	1936	16892	196	4	-25	127	128	5
-10728	-3116	11436	-103	194	-182	-15152	-3424	-4468	-3	-18	-79	-2796	-1872	16260	44	-74	170	-9048	3348	13560	122	-57	-137	-16116	16	-3904	45	0	167	-1356	1976	16860	201	41	-12	127	128	5
-10740	-3068	11408	-76	176	-153	-15140	-3564	-4600	44	-67	-55	-2844	-1860	16264	17	-85	149	-9072	3380	13580	129	-52	-182	-16160	20	-4088	97	-19	132	-1416	1920	16924	218	14	-3	127	128	5
-10736	-3044	11240	-45	143	-207	-15140	-3440	-4552	43	-53	-69	-2900	-1836	16216	-52	-113	123	-9032	3420	13588	136	-55	-189	-16160	-20	-4012	90	-18	143	-1432	1964	16960	173	-17	45	127	128	5
-10732	-3120	11304	-102	171	-182	-15168	-3444	-4396	40	-85	-53	-2888	-1784	16384	29	-97	147	-9024	3384	13648	126	-45	-153	-16136	12	-4076	75	-16	85	-1384	1892	16936	202	4	57	127	129	5
-10680	-3104	11276	-80	157	-181	-15100	-3436	-4488	1	-76	-89	-2864	-1752	16336	0	-91	141	-9004	3444	13656	123	-5	-165	-16100	8	-4028	107	-31	74	-1388	1848	16864	181	-4	52	127	129	5
-10692	-3100	11284	-83	140	-192	-15152	-3416	-4484	-80	-70	-81	-2852	-1776	16356	-26	-121	135	-9060	3412	13592	163	-69	-139	-16172	28	-4068	102	-55	119	-1364	1888	16904	216	-1	66	127	129	5
-10684	-3092	11164	-91	163	-171	-15124	-3468	-4448	-68	-83	-81	-2856	-1808	16340	-27	-89	176	-9072	3408	13608	119	-48	-157	-16144	28	-4108	91	-28	89	-1400	1848	16832	227	11	42	127	129	5
-10760	-3084	11388	-88	165	-156	-15144	-3496	-4532	-50	-81	-114	-2944	-1840	16256	-29	-160	194	-9004	3396	13732	159	-86	-172	-16112	-20	-4028	35	-40	126	-1360	1888	16984	219	-17	82	127	129	5
-10768	-3012	11244	-68	156	-225	-15184	-3524	-4448	-4	-114	-118	-2820	-1932	16188	-17	-157	177	-9004	3380	13688	101	-4	-165	-16080	0	-4004	-3	-49	98	-1332	1928	16836	222	-36	100	127	129	5
-10692	-3084	11228	-115	153	-214	-15144	-3528	-4556	31	-88	-101	-2772	-1884	16348	-13	-127	178	-9000	3376	13696	156	-67	-149	-16152	56	-4036	83	17	92	-1284	1896	16936	256	-23	98	127	129	5
-10704	-3128	11272	-123	167	-203	-15164	-3448	-4512	-40	-49	-116	-2772	-1864	16284	-51	-142	177	-9048	3384	13588	126	-43	-140	-16108	-40	-3980	90	-51	87	-1352	1884	16880	262	-10	78	127	129	5
-10660	-3112	11356	-104	183	-188	-15120	-3492	-4492	-3	-69	-120	-2836	-1912	16304	-31	-111	169	-9016	3384	13536	138	-52	-162	-16108	-20	-4048	77	-31	111	-1384	1848	16856	221	44	81	127	129	5
-10688	-3088	11296	-106	175	-142	-15132	-3500	-4540	-44	-78	-123	-2812	-1904	16336	-7	-131	178	-9028	3400	13572	111	-41	-138	-16100	-24	-4028	60	-2	78	-1372	1904	16976	194	-14	108	127	129	5
-10636	-3088	11280	-113	174	-168	-15136	-3480	-4460	-43	-63	-120	-2800	-1952	16384	-24	-160	189	-9040	3388	13588	118	-81	-169	-16124	0	-4068	77	-29	93	-1380	1968	16820	186	-27	76	127	129	5
-10688	-3040	11336	-82	166	-177	-15060	-3512	-4468	-6	-50	-90	-2784	-1932	16296	29	-168	153	-9016	3416	13668	135	-47	-176	-16116	-20	-3980	41	-37	106	-1404	1852	16908	142	-2	32	127	129	5
-10756	-3108	11192	-118	180	-178	-15176	-3540	-4468	7	-49	-103	-2720	-1900	16400	19	-146	154	-9092	3404	13532	111	-39	-191	-16084	32	-3956	49	-19	94	-1288	1908	16864	147	7	55	127	129	5
-10728	-3128	11176	-105	171	-181	-15136	-3548	-4280	32	-29	-95	-2784	-2000	16344	17	-135	167	-9040	3368	13632	130	-74	-145	-16160	-64	-4036	53	-12	101	-1380	1944	16892	172	30	30	127	129	5
-10740	-3032	11240	-99	170	-207	-15152	-3492	-4524	-4	-11	-90	-2756	-1916	16328	14	-129	147	-9040	3376	13644	141	-53	-164	-16136	-112	-4032	96	-21	108	-1304	1856	16852	152	14	-1	126	129	5
-10700	-3076	11156	-114	158	-176	-15180	-3496	-4460	0	-38	-115	-2828	-1904	16432	36	-101	131	-9052	3408	13652	177	-80	-151	-16172	-12	-3980	118	-38	112	-1372	1824	16832	167	5	34	126	129	5
-10668	-3112	11200	-106	138	-179	-15140	-3512	-4496	0	-14	-54	-2800	-1880	16280	15	-88	133	-9116	3352	13648	129	-38	-182	-16056	12	-4012	92	-24	116	-1320	1836	16828	181	29	25	127	129	5
-10744	-3088	11340	-77	141	-163	-15128	-3488	-4568	-18	0	-58	-2772	-1872	16396	52	-127	141	-9052	3436	13656	139	-54	-131	-16148	-4	-3988	48	-22	73	-1336	1852	16792	201	7	21	126	129	5
-10716	-3104	11212	-59	143	-186	-15156	-3512	-4468	-5	-34	-57	-2804	-1916	16240	41	-106	120	-8984	3420	13620	161	-42	-178	-16076	-28	-3856	27	-14	108	-1392	1840	16860	248	45	5	126	129	5
-10732	-3108	11216	-94	160	-179	-15112	-3552	-4496	21	-7	-56	-2792	-1880	16192	62	-174	138	-9032	3388	13692	109	-28	-168	-16100	-40	-4004	105	-16	117	-1392	1888	16832	242	-3	39	126	128	5
-10684	-3104	11300	-88	144	-193	-15124	-3476	-4408	48	-21	-53	-2752	-1928	16316	61	-154	119	-8984	3416	13684	96	-72	-168	-16116	-28	-4016	110	-8	116	-1388	1920	16936	139	-59	83	126	129	5
-10760	-3116	11256	-67	168	-181	-15172	-3432	-4348	39	-18	-28	-2808	-1856	16324	110	-154	132	-8992	3428	13584	162	-39	-166	-16120	-32	-3996	99	-24	129	-1348	1844	16900	209	4	20	126	129	5
-10764	-3088	11328	-55	156	-148	-15132	-3396	-4596	-37	-56	-64	-2900	-1848	16196	61	-134	120	-8992	3388	13464	153	12	-198	-16104	-156	-4084	123	9	143	-1412	1896	16956	184	9	-18	126	128	5
-10692	-3056	11220	-100	148	-180	-15104	-3528	-4476	-25	-55	-76	-2808	-1920	16280	-8	-105	207	-9072	3404	13512	144	-6	-119	-16112	-8	-4028	48	8	134	-1360	1912	16988	242	24	13	126	127	5
-10724	-3056	11164	-92	149	-197	-15172	-3576	-4540	46	-51	-57	-2780	-1940	16280	3	-57	172	-9052	3432	13584	140	6	-175	-16112	40	-3984	63	-3	148	-1320	1976	16900	249	86	5	127	127	5
-10700	-3116	11212	-85	169	-190	-15112	-3464	-4512	119	-12	-85	-2856	-1988	16344	29	-76	136	-9064	3352	13632	115	-30	-169	-16128	0	-3988	103	7	108	-1368	1932	16932	263	57	14	127	128	5
-10680	-3084	11220	-92	168	-180	-15100	-3436	-4368	77	-65	-64	-2872	-1848	16312	51	-120	137	-9056	3416	13608	161	-83	-126	-16144	108	-3948	66	-23	165	-1464	2008	16720	232	0	35	127	127	5
-10760	-3092	11284	-81	146	-194	-15148	-3468	-4448	-34	-21	-62	-2852	-1896	16136	63	-102	101	-9008	3408	13608	103	-24	-179	-16152	24	-3908	54	21	86	-1340	2012	16740	161	45	112	126	128	5
-10664	-3132	11252	-109	177	-205	-15108	-3484	-4536	-134	-43	-46	-2784	-1912	16296	65	-126	86	-9068	3396	13648	137	-64	-156	-16120	44	-3944	22	-34	120	-1368	1944	16796	181	34	120	126	128	5
-10708	-3016	11236	-133	151	-168	-15160	-3468	-4632	-77	-56	-61	-2784	-1840	16348	4	-103	110	-9044	3400	13644	140	-34	-175	-16216	-60	-4132	-12	12	117	-1284	1916	16868	216	16	98	126	128	5
-10756	-3092	11192	-95	175	-184	-15108	-3452	-4460	-36	-38	-72	-2760	-1856	16328	7	-101	108	-8992	3388	13612	125	-64	-168	-16132	-76	-4060	65	-10	94	-1320	1828	16980	256	25	99	126	128	5
-10776	-3080	11256	-123	160	-226	-15128	-3476	-4520	-14	-30	-21	-2784	-1800	16484	-24	-80	92	-9096	3348	13660	139	-52	-143	-16136	24	-4028	85	-4	136	-1400	1788	16900	289	50	53	126	127	5
-10760	-3120	11236	-100	201	-163	-15124	-3500	-4528	38	-19	-94	-2824	-1868	16292	-5	-56	126	-9008	3416	13572	116	-61	-179	-16088	-28	-4072	120	-3	123	-1288	1920	16940	297	32	43	126	127	5
-10688	-3084	11288	-94	199	-220	-15132	-3552	-4520	29	-33	-71	-2932	-1904	16324	2	-69	170	-8984	3420	13600	175	-79	-166	-16124	-16	-3896	110	4	104	-1404	1940	16940	251	30	10	127	127	5
-10748	-3084	11212	-96	173	-207	-15108	-3520	-4404	28	-51	-91	-2844	-1880	16264	39	-94	151	-9092	3404	13544	173	-63	-171	-16148	8	-4012	95	-32	120	-1404	1964	16952	214	38	11	127	127	5
-10756	-3096	11248	-71	160	-170	-15128	-3472	-4476	16	-70	-26	-2928	-1900	16320	98	-150	127	-9068	3396	13604	131	-61	-172	-16148	8	-4000	82	-15	122	-1368	1940	16720	227	35	37	127	127	5
-10756	-3052	11224	-41	151	-171	-15108	-3496	-4552	-66	-43	-23	-2892	-1884	16344	81	-164	144	-9024	3388	13604	149	-45	-134	-16132	64	-4088	42	-2	110	-1444	1860	16896	149	-8	68	127	127	5
-10696	-3064	11236	-67	167	-177	-15132	-3424	-4464	-64	-16	-52	-2840	-1796	16312	66	-205	92	-9052	3440	13580	141	-59	-184	-16112	-24	-4120	26	-13	115	-1436	1832	16896	162	-53	46	127	127	5
-10716	-3084	11256	-80	157	-156	-15064	-3516	-4396	-20	-78	-78	-2728	-1852	16240	53	-139	115	-9008	3368	13548	131	-69	-160	-16120	-20	-4024	70	-23	124	-1364	1868	16960	186	-20	74	127	127	5
-10732	-3092	11264	-62	135	-201	-15120	-3476	-4512	42	-76	-71	-2740	-1836	16344	35	-116	122	-9020	3388	13600	134	-82	-172	-16168	-40	-3996	128	-34	143	-1304	1812	16892	229	4	13	126	127	5
-10720	-3028	11328	-54	173	-177	-15172	-3408	-4528	48	-36	-20	-2744	-1836	16364	-1	-92	89	-9048	3364	13680	143	-72	-144	-16188	-44	-3976	137	-50	221	-1348	1860	16920	258	8	16	126	127	5
-10724	-3152	11256	-73	155	-202	-15160	-3464	-4420	13	-51	-96	-2772	-1888	16312	19	-89	126	-9096	3372	13616	107	-41	-159	-16108	-8	-3972	114	-25	169	-1364	1884	16944	261	53	10	127	127	5
-10700	-3100	11300	-53	169	-217	-15104	-3436	-4444	22	-42	-126	-2876	-1880	16260	22	-42	163	-9040	3348	13560	152	-22	-160	-16108	16	-3940	74	-51	150	-1320	1964	16860	265	46	49	127	127	5
-10740	-3200	11256	-83	173	-185	-15136	-3488	-4480	6	-78	-43	-2828	-1904	16272	-9	-110	151	-9024	3384	13576	147	-81	-152	-16148	-12	-3932	25	9	165	-1312	1980	16840	181	17	44	127	127	5
-10704	-3108	11332	-83	161	-181	-15152	-3460	-4452	16	-54	-44	-2868	-1864	16304	11	-137	177	-9028	3360	13568	115	-20	-184	-16132	36	-3964	30	21	146	-1372	1976	16816	208	26	68	127	127	5
-10712	-3052	11168	-66	154	-192	-15140	-3496	-4512	-21	-52	-65	-2784	-1860	16284	18	-133	123	-8956	3388	13584	129	-55	-141	-16116	-36	-3996	22	6	141	-1372	1960	16892	177	36	44	127	127	5
-10716	-3080	11212	-93	153	-168	-15144	-3532	-4440	-24	-24	-56	-2820	-1924	16256	53	-139	187	-9040	3420	13724	131	-36	-161	-16124	-20	-3944	17	2	141	-1364	1980	16860	193	69	25	127	127	5
-10684	-3096	11272	-82	181	-233	-15156	-3544	-4368	-40	-83	-49	-2768	-1896	16268	41	-144	167	-9052	3392	13604	126	-33	-172	-16176	-4	-4020	60	-17	137	-1384	1956	16816	170	31	7	126	127	5
-10696	-3104	11236	-87	181	-178	-15140	-3576	-4420	5	-56	-47	-2732	-1972	16196	65	-113	126	-9060	3412	13564	140	-75	-144	-16124	80	-3972	96	3	138	-1296	1988	16864	139	15	-3	126	127	5
-10768	-3140	11248	-87	173	-189	-15160	-3528	-4600	36	-15	-28	-2772	-1908	16292	38	-96	131	-9072	3388	13664	119	-83	-149	-16200	-20	-4060	91	9	104	-1296	1988	16784	109	-12	-11	126	127	5
-10700	-3092	11240	-69	128	-184	-15100	-3456	-4460	42	-31	-97	-2796	-1864	16228	62	-136	116	-9128	3400	13532	145	-43	-188	-16072	80	-4008	36	9	112	-1324	1988	16884	90	14	39	127	127	5
-10724	-3092	11300	-70	142	-167	-15112	-3480	-4444	-4	-16	-69	-2740	-1852	16344	23	-136	87	-9052	3372	13608	130	-62	-169	-16152	48	-4112	41	-4	107	-1312	1884	16840	52	20	107	126	127	5
-10748	-3028	11176	-106	137	-172	-15112	-3392	-4504	-31	-44	-32	-2832	-1824	16260	51	-157	112	-9080	3332	13636	158	-37	-187	-16148	12	-3980	31	-29	75	-1344	1852	16984	121	55	93	127	127	5
-10712	-3068	11160	-85	140	-186	-15192	-3484	-4540	-31	-49	-54	-2760	-1776	16376	0	-89	125	-9052	3360	13628	138	-100	-176	-16168	20	-3876	72	-33	87	-1384	1800	16884	242	63	65	127	127	5
-10752	-3092	11244	-89	150	-166	-15220	-3520	-4492	-48	-62	-91	-2844	-1840	16252	-6	-79	143	-9008	3432	13660	156	-72	-164	-16136	28	-3948	86	-31	89	-1336	1896	16772	238	67	45	127	127	5
-10684	-3064	11280	-97	170	-180	-15112	-3520	-4420	17	-39	-75	-2828	-1776	16360	-4	-77	155	-8992	3420	13500	152	-87	-201	-16112	-12	-4028	75	13	68	-1400	1952	16900	211	77	34	127	127	5
-10732	-3124	11304	-76	165	-194	-15116	-3560	-4472	81	-60	-96	-2844	-1880	16296	-38	-64	166	-8996	3396	13524	108	-29	-163	-16136	24	-3992	63	-42	99	-1400	1940	16908	215	21	50	127	127	5
-10720	-3092	11224	-110	182	-184	-15084	-3476	-4504	82	-25	-66	-2824	-1812	16212	-6	-87	168	-9008	3416	13540	147	-34	-167	-16068	-40	-4036	62	-47	96	-1364	1928	16812	180	36	29	127	127	5
-10644	-3100	11316	-88	166	-174	-15088	-3444	-4420	19	-53	-104	-2852	-1828	16368	19	-95	147	-9076	3368	13564	154	-80	-134	-16136	-12	-4020	57	-9	96	-1352	1916	16756	117	7	28	127	127	5
-10752	-3108	11312	-54	152	-168	-15160	-3524	-4388	-46	-49	-95	-2836	-1864	16380	33	-108	144	-9060	3352	13612	118	-54	-159	-16100	44	-3948	28	-31	78	-1348	1896	16968	112	31	46	127	128	5
-10680	-3064	11264	-92	146	-188	-15164	-3600	-4468	-83	-29	-85	-2848	-1916	16340	15	-131	140	-9036	3424	13716	108	-67	-165	-16132	56	-3920	17	-99	89	-1404	1928	16916	106	9	20	127	127	5
-10716	-3148	11288	-119	179	-183	-15152	-3484	-4332	-51	-43	-113	-2736	-1876	16280	5	-107	124	-9020	3452	13648	139	-77	-155	-16128	4	-4032	45	7	75	-1428	1864	16952	108	3	39	127	127	5
-10732	-3088	11320	-77	182	-238	-15208	-3488	-4480	25	-20	-68	-2828	-1876	16260	1	-108	159	-9040	3420	13604	135	-57	-179	-16160	-4	-3972	86	-33	78	-1380	1836	16848	108	-13	49	127	127	5
-10712	-3104	11356	-102	169	-171	-15128	-3564	-4476	59	-42	-81	-2884	-1864	16224	33	-116	125	-9044	3368	13620	108	-26	-126	-16060	-36	-4016	101	-21	91	-1308	1840	16808	132	12	12	127	128	5
-10752	-3100	11360	-72	134	-191	-15040	-3468	-4624	55	-49	-52	-2856	-1880	16380	-22	-71	135	-9048	3352	13624	121	-49	-155	-16156	-92	-4008	96	-47	100	-1320	1880	16852	117	0	5	127	127	5
-10748	-3020	11120	-99	155	-184	-15084	-3432	-4432	-5	-60	-77	-2896	-1836	16408	-11	-74	140	-9020	3404	13652	153	-60	-160	-16196	-96	-4032	87	-26	143	-1376	1892	16860	197	10	-15	127	128	5
-10664	-3072	11240	-68	155	-172	-15112	-3516	-4420	-30	-59	-98	-2952	-1892	16348	3	-105	171	-9008	3412	13624	146	-58	-165	-16096	8	-3984	64	-2	138	-1396	1852	16812	147	13	8	127	127	5
-10704	-3056	11256	-99	201	-227	-15096	-3496	-4476	-49	-64	-57	-2976	-1932	16248	1	-95	181	-9076	3404	13528	132	-44	-142	-16064	4	-3940	36	-35	99	-1392	1816	16872	183	69	17	126	128	5
-10664	-3100	11316	-96	178	-248	-15160	-3584	-4584	-29	-79	-85	-2824	-1892	16408	28	-106	119	-9044	3432	13608	137	-46	-134	-16112	-76	-4012	30	-62	158	-1380	1740	16908	177	30	40	127	127	5
-10708	-3140	11196	-118	143	-188	-15088	-3520	-4432	-17	-72	-63	-2800	-1940	16332	46	-91	110	-9028	3404	13652	159	-78	-154	-16088	-92	-3840	66	-2	171	-1412	1772	16928	182	17	39	127	127	5
-10724	-3052	11296	-88	156	-161	-15140	-3476	-4488	51	-67	-44	-2708	-1892	16356	45	-114	108	-9032	3300	13688	111	-43	-174	-16100	-20	-4000	94	29	154	-1396	1872	16972	222	37	41	127	127	5
-10732	-3092	11348	-65	153	-167	-15156	-3524	-4424	48	-45	-36	-2760	-1964	16316	35	-110	105	-9004	3404	13576	177	-55	-164	-16116	-4	-3928	72	-1	185	-1380	1932	16944	233	60	73	126	127	5
-10684	-3052	11304	-88	155	-196	-15100	-3548	-4396	-3	-63	-59	-2812	-1852	16272	43	-106	67	-9028	3432	13528	178	-37	-128	-16096	32	-3984	50	27	178	-1308	1960	16888	239	52	88	126	128	5
-10728	-3096	11256	-85	141	-181	-15156	-3492	-4476	-80	-53	-26	-2792	-1896	16236	9	-101	84	-9052	3452	13596	126	-39	-189	-16120	-52	-3984	40	-5	141	-1288	1876	16880	217	82	50	126	128	5
-10724	-3100	11228	-110	142	-164	-15128	-3552	-4368	-6	-42	-34	-2848	-1876	16324	29	-159	113	-8996	3412	13604	149	-65	-138	-16096	48	-4016	15	19	181	-1312	1944	16804	242	71	55	126	128	5
-10744	-3072	11236	-129	164	-186	-15144	-3420	-4524	-17	-18	-34	-2860	-1944	16336	33	-144	136	-9068	3380	13672	152	-42	-129	-16144	60	-4004	40	3	168	-1332	1952	16916	236	65	27	126	128	5
-10684	-3032	11368	-109	173	-137	-15140	-3496	-4504	15	-24	-46	-2820	-1800	16224	75	-129	137	-9044	3392	13668	139	-64	-164	-16056	64	-4004	92	26	135	-1400	2020	16816	191	61	47	126	127	5
-10800	-3064	11296	-99	146	-129	-15172	-3512	-4616	23	-44	-6	-2792	-1832	16304	87	-117	121	-9024	3408	13604	152	-56	-153	-16100	108	-3956	88	-15	141	-1408	2076	16748	175	13	34	126	128	5
-10688	-2996	11236	-92	164	-144	-15156	-3444	-4508	61	-26	-34	-2860	-1784	16312	72	-85	168	-9036	3372	13532	110	-88	-152	-16068	8	-3988	62	-3	124	-1448	1936	16960	182	-5	40	127	128	5
-10748	-3084	11256	-81	158	-183	-15152	-3420	-4532	31	-66	-27	-2840	-1796	16356	32	-72	171	-9056	3452	13640	131	-57	-159	-16076	8	-4096	86	-20	103	-1380	1872	16848	206	2	50	126	128	5
-10680	-3080	11220	-85	133	-210	-15140	-3428	-4312	-27	-67	-43	-2888	-1856	16300	56	-77	149	-9064	3436	13620	139	-54	-159	-16160	-12	-4056	85	-22	105	-1440	1832	16972	216	11	18	126	128	5
-10700	-3148	11188	-78	160	-179	-15128	-3496	-4392	2	-79	-25	-2864	-1804	16308	-4	-113	172	-9012	3400	13548	115	-41	-161	-16128	36	-4108	102	-52	135	-1408	1884	16820	204	-7	56	127	128	5
-10724	-3148	11244	-74	170	-180	-15132	-3456	-4540	-25	-51	-73	-2824	-1756	16312	14	-94	102	-9028	3364	13548	132	-65	-135	-16200	-20	-3992	51	-70	127	-1364	1880	16808	219	-38	61	127	128	5
-10716	-3100	11284	-93	153	-185	-15108	-3476	-4476	-7	-77	-67	-2744	-1804	16312	-39	-95	66	-9056	3392	13600	135	-65	-146	-16120	-56	-4040	99	-64	129	-1468	1884	16872	181	-13	79	126	128	5
-10724	-3156	11284	-100	144	-188	-15084	-3480	-4460	1	-62	-79	-2800	-1740	16204	-33	-106	80	-8964	3424	13692	152	-62	-167	-16104	-76	-4072	75	-64	121	-1356	1824	16816	217	-50	91	126	128	5
-10700	-3120	11236	-71	135	-214	-15192	-3384	-4412	-33	-74	-91	-2780	-1740	16356	-58	-85	100	-9048	3428	13616	143	-64	-158	-16112	-32	-3896	116	-30	142	-1316	1808	16936	261	-54	56	126	128	5
-10760	-3068	11268	-121	167	-170	-15160	-3404	-4520	-51	-35	-136	-2844	-1836	16348	-108	-26	128	-9040	3384	13640	163	-14	-152	-16156	0	-3984	124	-37	214	-1264	1872	16940	263	-4	-20	127	128	5
-10664	-3044	11228	-83	163	-205	-15160	-3456	-4460	-48	-85	-108	-2880	-1912	16260	-107	-49	185	-9040	3392	13648	136	-25	-134	-16108	-12	-3932	82	0	170	-1340	1932	16624	205	-42	-29	127	128	5
-10712	-3108	11264	-99	194	-209	-15132	-3580	-4440	6	-33	-146	-2848	-1976	16164	-37	-121	175	-9092	3416	13580	151	-63	-157	-16160	44	-4016	37	-1	161	-1336	1904	16940	193	-40	-26	127	128	5
-10764	-3148	11236	-85	217	-157	-15100	-3560	-4440	87	-67	-89	-2800	-2016	16384	21	-186	167	-9060	3400	13632	133	-55	-165	-16100	16	-3928	23	21	139	-1364	1924	16900	228	-34	-8	127	128	5
-10708	-3084	11280	-101	150	-212	-15144	-3560	-4508	103	-54	-111	-2852	-2032	16192	66	-201	156	-9024	3396	13728	122	-54	-156	-16120	100	-4004	-3	-1	123	-1320	1964	16920	187	0	19	127	128	5
-10744	-3136	11256	-87	158	-195	-15092	-3616	-4400	-40	-11	-41	-2820	-2004	16300	97	-188	103	-9040	3348	13604	126	-51	-169	-16128	20	-4028	27	45	127	-1352	1972	16888	192	-12	64	127	128	5
-10736	-3024	11220	-68	133	-181	-15096	-3588	-4496	-37	-43	-42	-2776	-1936	16200	47	-173	97	-9048	3412	13560	193	-78	-159	-16164	-16	-4036	69	13	124	-1384	1940	16848	216	-27	64	126	128	5
-10700	-3048	11216	-79	146	-145	-15100	-3572	-4504	-66	-29	-32	-2816	-2004	16216	58	-123	74	-9004	3328	13652	142	-35	-158	-16136	20	-4056	137	19	151	-1384	1964	16944	264	51	76	126	128	5
-10744	-3104	11212	-26	145	-160	-15116	-3496	-4392	-66	-42	-2	-2832	-1956	16252	13	-114	55	-9096	3396	13604	132	-58	-150	-16092	12	-4052	106	-48	116	-1360	1964	16888	269	32	65	126	128	5
-10720	-3048	11160	-79	108	-172	-15172	-3512	-4532	42	-58	-2	-2844	-1824	16308	67	-124	59	-9044	3400	13676	136	-53	-144	-16092	-4	-4088	93	-37	144	-1352	2040	16820	220	16	71	126	128	5
-10692	-3016	11264	-70	118	-171	-15156	-3444	-4460	47	-25	-21	-2848	-1828	16312	58	-93	92	-9044	3360	13544	144	-58	-131	-16072	60	-4080	69	-26	143	-1424	1980	16852	211	-10	88	126	128	5
-10760	-3080	11288	-92	118	-169	-15136	-3356	-4508	27	-40	27	-2904	-1760	16272	34	-56	115	-9008	3440	13568	164	-88	-179	-16100	-36	-3988	65	-57	86	-1380	1976	16912	201	7	53	126	128	5
-10720	-3140	11368	-84	135	-166	-15184	-3412	-4564	30	-62	-55	-2932	-1796	16248	62	-59	133	-9084	3320	13688	165	-48	-162	-16132	-76	-4032	59	-65	105	-1396	1904	16892	197	-28	9	126	128	5
-10728	-3132	11300	-87	136	-170	-15144	-3432	-4596	29	-57	-11	-2932	-1812	16372	40	-93	178	-9012	3356	13596	138	-26	-162	-16092	-60	-3952	102	-55	146	-1384	1924	16860	170	-32	-3	126	128	5
-10736	-3072	11172	-89	151	-167	-15096	-3464	-4460	0	-84	-71	-2892	-1848	16304	35	-120	138	-8992	3408	13648	165	-69	-166	-16144	20	-3968	56	-83	141	-1364	1948	16928	163	9	-19	126	128	5
-10748	-3088	11248	-76	150	-183	-15192	-3464	-4504	0	-71	-77	-2824	-1808	16212	63	-165	126	-9068	3380	13688	172	-48	-161	-16104	60	-3940	46	-29	128	-1360	1940	16956	146	-2	-43	126	128	5
-10724	-3036	11296	-92	130	-191	-15164	-3340	-4544	-12	-60	-69	-2792	-1740	16320	33	-145	166	-9028	3380	13576	96	-71	-137	-16084	56	-4020	35	-8	96	-1408	2040	16780	95	-27	-59	126	128	5
-10712	-3048	11284	-88	144	-161	-15128	-3412	-4380	-15	-63	-107	-2788	-1856	16276	62	-156	192	-9036	3420	13628	136	-95	-163	-16140	104	-3916	14	20	121	-1348	1988	16792	-27	-5	-3	126	127	5
-10680	-3156	11260	-70	169	-214	-15180	-3472	-4468	29	-73	-82	-2792	-1876	16412	50	-177	191	-9016	3412	13668	122	-32	-155	-16140	20	-4048	51	-9	112	-1276	1944	16832	20	-61	-38	126	128	5
-10780	-3076	11352	-94	164	-217	-15132	-3492	-4568	2	-77	-107	-2740	-1868	16348	41	-207	207	-9056	3368	13592	150	-97	-179	-16156	60	-4012	72	16	128	-1332	1896	17000	43	-11	-5	126	127	5
-10776	-3140	11220	-137	201	-163	-15184	-3492	-4524	-10	-63	-122	-2848	-1856	16224	27	-185	172	-8996	3404	13688	143	-57	-169	-16092	76	-4028	64	-41	103	-1284	1980	16964	13	-15	36	126	127	5
-10696	-3032	11328	-112	180	-211	-15072	-3508	-4536	6	-63	-70	-2812	-1824	16296	39	-175	159	-9056	3376	13628	137	-107	-163	-16112	32	-3956	75	-37	74	-1360	1880	16864	68	-5	70	126	127	5
-10720	-3108	11280	-76	145	-209	-15176	-3468	-4532	3	-56	-110	-2836	-1764	16292	-10	-148	131	-9012	3404	13724	124	-64	-173	-16116	40	-4004	32	-59	70	-1244	1836	16780	116	36	81	126	127	5
-10740	-3120	11376	-105	160	-188	-15180	-3420	-4428	-50	-39	-110	-2720	-1840	16236	-33	-114	151	-9100	3396	13624	124	-55	-207	-16120	-44	-3892	56	-10	74	-1344	1820	16988	181	59	61	126	127	5
-10732	-3104	11356	-86	161	-186	-15160	-3476	-4468	-57	-30	-83	-2732	-1844	16256	-83	-95	162	-9044	3432	13500	117	-52	-170	-16164	-16	-3940	90	-2	91	-1284	1904	16916	195	28	44	126	127	5
-10748	-3084	11300	-80	185	-213	-15184	-3564	-4384	-36	-50	-89	-2796	-1936	16256	-26	-102	164	-8980	3428	13592	104	-70	-163	-16144	64	-4044	105	-33	60	-1332	1892	16784	156	-8	-13	126	127	5
-10732	-3148	11220	-104	170	-202	-15176	-3520	-4436	63	-49	-72	-2784	-1924	16244	-25	-92	179	-9040	3412	13652	79	-42	-153	-16148	20	-4044	103	-9	71	-1380	1876	16752	150	-35	-30	126	127	5
-10768	-3124	11244	-44	160	-215	-15124	-3500	-4504	17	-48	-90	-2856	-1896	16400	-9	-110	142	-8996	3388	13576	129	-100	-177	-16120	-4	-4104	47	2	74	-1368	1928	16996	107	27	-10	126	127	5
-10700	-3036	11292	-76	133	-206	-15104	-3464	-4476	-49	-35	-89	-2784	-1828	16348	-12	-147	127	-9040	3412	13640	104	-78	-142	-16188	84	-3928	31	3	40	-1460	1908	16924	86	-13	42	127	127	5
-10748	-3104	11300	-81	166	-177	-15144	-3460	-4380	-65	-72	-93	-2824	-1904	16260	3	-181	106	-8992	3444	13640	110	-74	-187	-16124	-32	-4024	-38	-14	37	-1412	1872	16860	96	0	117	127	127	5
-10760	-3036	11268	-94	171	-201	-15144	-3536	-4504	6	-55	-41	-2828	-1796	16276	-1	-159	112	-9012	3404	13596	124	-79	-178	-16140	28	-3964	16	32	66	-1408	1748	16828	92	19	150	126	127	5
-10716	-3092	11228	-91	190	-182	-15140	-3448	-4436	-4	-61	-67	-2860	-1844	16264	0	-166	116	-9084	3368	13672	155	-99	-144	-16120	-64	-3856	20	27	87	-1384	1804	17060	165	93	151	126	127	5
-10748	-3008	11116	-113	188	-156	-15140	-3448	-4516	-8	-33	-86	-2824	-1764	16288	-13	-192	89	-9080	3384	13552	128	-43	-167	-16132	-108	-3944	82	13	56	-1332	1808	16832	148	105	168	126	127	5
-10732	-3060	11324	-137	190	-195	-15156	-3452	-4400	-14	-56	-97	-2856	-1844	16240	-27	-162	158	-9020	3400	13552	135	-22	-163	-16152	-60	-4084	104	12	74	-1392	1828	16900	144	97	160	126	127	5
-10768	-3092	11284	-99	183	-189	-15212	-3444	-4460	-34	-26	-120	-2880	-1744	16244	-88	-176	193	-9064	3328	13512	130	-41	-163	-16144	-28	-3984	61	-34	99	-1480	1836	16900	126	71	115	126	127	5
-10732	-3116	11188	-140	186	-227	-15044	-3476	-4476	-30	-114	-163	-2788	-1868	16288	-87	-152	209	-9008	3332	13528	132	-28	-176	-16108	-68	-4012	47	-45	110	-1480	1808	16952	95	75	121	126	127	5
-10756	-3164	11272	-133	168	-254	-15164	-3476	-4596	-11	-144	-139	-2788	-1904	16344	-77	-132	211	-8996	3308	13608	170	-48	-163	-16104	-140	-3992	34	-66	173	-1460	1856	16888	21	38	34	127	127	5
-10716	-3064	11324	-107	166	-209	-15092	-3568	-4512	-13	-133	-114	-2796	-1960	16388	-86	-104	226	-9044	3344	13604	219	-72	-137	-16172	-116	-3952	-3	-58	159	-1416	1776	16752	-31	32	-14	126	127	5
-10732	-3128	11372	-73	168	-210	-15088	-3576	-4604	-25	-133	-127	-2784	-1956	16340	-62	-70	212	-9060	3432	13600	184	-98	-141	-16132	-112	-4080	25	-83	172	-1520	1712	16940	-79	-4	-33	126	127	5
-10736	-3120	11080	-129	180	-213	-15068	-3496	-4480	-27	-95	-91	-2736	-1928	16264	-58	-105	172	-9024	3388	13668	186	-43	-134	-16152	-152	-3892	82	-70	226	-1500	1796	16900	-91	-30	-105	126	127	5
-10696	-3152	11216	-100	181	-232	-15100	-3580	-4372	-8	-88	-92	-2748	-1896	16256	-96	-114	126	-8976	3416	13528	175	-56	-156	-16096	-104	-3916	147	-50	200	-1292	1776	16796	-17	-38	-150	127	127	5
-10700	-3096	11304	-83	128	-188	-15108	-3532	-4420	8	-67	-82	-2752	-1852	16288	-82	-152	138	-9048	3380	13712	188	-70	-133	-16108	20	-3980	123	-64	242	-1444	1760	16952	7	-50	-152	127	127	5
-10732	-3096	11152	-130	157	-185	-15112	-3548	-4336	8	-38	-96	-2696	-1828	16256	-115	-148	90	-9024	3368	13636	174	-51	-133	-16176	-40	-3960	55	-74	229	-1184	1788	16932	99	-69	-138	127	127	5
-10668	-3128	11280	-78	155	-200	-15112	-3480	-4248	-2	-35	-86	-2624	-1928	16260	-179	-98	144	-9056	3364	13504	198	-10	-139	-16176	-64	-3760	100	-60	225	-1120	1852	16836	197	-45	-194	127	127	5
-10684	-3068	11292	-66	160	-215	-15124	-3564	-4380	-17	-68	-110	-2604	-1924	16324	-152	-34	107	-8944	3392	13520	171	-14	-139	-16132	128	-3980	110	-37	223	-1316	1868	16828	220	-33	-199	127	127	5
-10708	-3088	11320	-73	167	-178	-15124	-3524	-4440	4	-9	-104	-2692	-1968	16244	-98	-73	170	-9016	3360	13540	155	-25	-155	-16140	152	-3844	80	5	166	-1216	1960	16892	224	-28	-226	127	127	5
-10696	-3156	11292	-102	182	-169	-15164	-3664	-4416	71	14	-132	-2744	-2020	16304	-94	-75	149	-9040	3416	13592	123	-70	-171	-16072	248	-3980	90	20	135	-1244	2040	16892	233	16	-104	127	127	5
-10712	-3168	11356	-103	169	-165	-15208	-3548	-4328	29	49	-107	-2692	-2008	16284	22	-151	122	-9008	3376	13580	90	-34	-124	-16120	240	-4024	-52	2	65	-1236	2176	16836	147	-16	51	127	127	5
-10740	-3124	11240	-72	200	-183	-15144	-3588	-4456	30	72	-74	-2848	-1984	16280	17	-170	96	-9032	3416	13592	126	-88	-175	-16148	180	-4004	-57	-41	14	-1332	2064	16952	133	0	174	127	127	5
-10752	-3120	11196	-61	179	-137	-15172	-3608	-4540	-39	2	-35	-2824	-2004	16332	37	-155	51	-9036	3360	13652	80	-94	-173	-16168	52	-4128	13	-29	-25	-1396	1968	16836	112	7	230	127	127	5
-10740	-3080	11252	-55	182	-157	-15152	-3584	-4492	-31	26	-42	-2908	-2036	16204	32	-173	40	-9056	3428	13552	80	-63	-173	-16072	0	-4012	137	-46	-67	-1368	1804	16868	119	24	209	127	127	5
-10788	-3116	11220	-90	185	-206	-15052	-3548	-4608	-84	12	-47	-2804	-1976	16300	50	-141	-16	-9036	3404	13672	63	-68	-203	-16072	-72	-4040	196	-50	-45	-1344	1692	16840	139	34	171	127	127	5
-10728	-3068	11304	-48	161	-184	-15180	-3504	-4604	-12	25	-31	-2792	-1792	16184	11	-40	40	-9100	3432	13636	114	-88	-192	-16100	-28	-3952	202	-34	-30	-1360	1736	16748	203	17	124	127	127	5
-10704	-3068	11272	-91	169	-181	-15208	-3452	-4576	-9	-32	-52	-2904	-1852	16384	0	9	137	-9028	3344	13536	111	-7	-192	-16140	-32	-3960	120	-79	-33	-1352	1776	16904	199	0	136	127	127	5
-10744	-3104	11236	-101	182	-180	-15172	-3436	-4500	27	-56	-54	-2956	-1812	16264	2	-39	202	-9012	3396	13576	96	-68	-155	-16104	-100	-3860	30	-33	11	-1464	1724	16900	166	-22	130	127	127	5
-10736	-3036	11388	-60	161	-207	-15092	-3476	-4512	55	-81	-125	-2968	-1836	16284	26	-66	231	-9016	3372	13648	126	-130	-145	-16132	-160	-3940	-53	-66	21	-1416	1672	16876	174	-42	92	127	127	5
-10744	-3052	11288	-110	158	-197	-15144	-3488	-4524	73	-107	-115	-2848	-1836	16292	83	-70	273	-9036	3388	13572	108	-48	-119	-16112	-192	-3924	-42	-56	83	-1444	1544	16848	145	-32	66	127	127	5
-10740	-3104	11268	-136	165	-219	-15124	-3508	-4548	-10	-112	-120	-2880	-1904	16268	51	-94	295	-9008	3312	13760	135	-62	-148	-16112	-264	-3884	12	-38	147	-1340	1596	17056	161	-73	47	127	127	5
-10744	-3108	11280	-101	178	-232	-15080	-3540	-4444	-14	-101	-128	-2812	-1960	16264	97	-85	262	-9032	3392	13708	165	-41	-156	-16104	-220	-4044	85	-14	129	-1400	1568	16896	135	-87	33	127	127	5
-10716	-3144	11208	-72	152	-207	-15128	-3604	-4328	-90	-88	-102	-2664	-2040	16288	69	-42	288	-9024	3368	13620	144	-47	-144	-16128	-116	-3808	94	-48	190	-1252	1540	16852	326	-23	23	127	127	5
-10688	-3092	11332	-91	148	-213	-15176	-3588	-4372	-45	-104	-93	-2696	-2044	16248	78	-45	256	-9000	3340	13576	186	-65	-133	-16100	-108	-3944	103	28	207	-1252	1612	16948	370	-6	2	127	127	5
-10708	-3136	11292	-99	168	-164	-15128	-3564	-4372	-1	-53	-80	-2648	-2016	16364	88	-63	264	-9028	3376	13644	174	-44	-145	-16104	-84	-3868	77	81	224	-1256	1684	16808	453	26	24	127	127	5
-10680	-3076	11220	-104	160	-164	-15156	-3584	-4344	-30	-39	-67	-2628	-1924	16232	130	-26	221	-9016	3432	13640	177	-25	-159	-16064	4	-3832	39	103	231	-1220	1876	16836	534	43	37	127	127	5
-10712	-3052	11268	-110	177	-172	-15160	-3616	-4320	-31	-51	-51	-2756	-1992	16260	81	-38	246	-9004	3380	13604	176	-45	-128	-16144	-12	-3924	46	70	203	-1332	1844	16944	488	46	88	127	127	5
-10732	-3172	11292	-95	139	-143	-15124	-3648	-4292	12	-22	-22	-2720	-2208	16220	142	-86	253	-9040	3376	13520	186	-40	-169	-16108	32	-3824	51	104	218	-1308	1896	16828	463	34	139	127	127	5
-10752	-3128	11132	-19	143	-126	-15108	-3712	-4288	-2	30	7	-2824	-2104	16212	180	-88	168	-8936	3340	13532	127	-19	-163	-16128	-76	-4068	77	108	230	-1420	1948	16892	452	9	74	127	128	5
-10772	-3136	11288	-60	147	-165	-15160	-3672	-4472	77	44	69	-2856	-2164	16200	193	-119	102	-9044	3340	13680	161	-10	-161	-16176	-104	-4000	173	55	238	-1356	1968	16840	392	5	-24	127	128	5
-10756	-3128	11316	-51	129	-126	-15108	-3616	-4496	-19	12	93	-2876	-1996	16320	244	-87	91	-9060	3392	13620	160	-9	-161	-16100	-36	-4092	210	91	228	-1372	1988	16856	321	23	-50	127	128	5
-10716	-3144	11304	-11	87	-126	-15112	-3612	-4532	-34	10	106	-2848	-1952	16192	293	-132	66	-9024	3424	13580	147	-28	-178	-16132	92	-4012	131	33	191	-1400	1992	16828	275	-14	-50	127	127	5
-10708	-3180	11192	-26	99	-135	-15140	-3536	-4604	0	30	95	-2864	-1932	16396	292	-39	63	-8968	3340	13608	165	13	-154	-16160	100	-4116	16	54	205	-1460	1928	16808	282	21	-46	127	127	5
-10752	-3028	11168	32	117	-137	-15140	-3504	-4532	8	-6	140	-2908	-1640	16356	127	-8	-26	-9020	3400	13560	148	7	-163	-16068	28	-4080	-21	-5	223	-1396	1968	16896	262	-14	19	127	127	5
-10744	-3112	11292	-45	96	-130	-15184	-3528	-4484	57	8	216	-2876	-1940	16228	237	-75	28	-9004	3412	13660	149	-32	-153	-16160	-4	-4012	33	-15	185	-1352	1932	16892	236	-6	41	127	127	5
-10752	-3132	11392	-3	80	-130	-15160	-3496	-4444	65	-21	127	-2904	-1712	16308	237	-49	-14	-8996	3368	13604	154	-6	-137	-16152	24	-4084	144	-38	175	-1396	1940	17044	285	18	-15	127	127	5
-10764	-3096	11276	-8	89	-153	-15096	-3376	-4524	135	1	124	-2876	-1656	16252	228	-66	-27	-9008	3400	13644	183	-13	-148	-16084	-28	-4064	207	-2	178	-1388	1932	16856	251	25	-31	127	127	5
-10668	-3152	11204	-47	87	-132	-15136	-3288	-4648	43	-14	102	-2856	-1604	16212	153	-109	-24	-9056	3432	13532	171	-42	-151	-16108	44	-3956	176	16	205	-1272	1936	16972	220	-5	-42	127	127	5
-10748	-3044	11228	-43	92	-160	-15124	-3292	-4468	-89	-35	68	-2864	-1520	16244	14	-88	-16	-9024	3372	13580	176	-6	-147	-16072	156	-4084	107	-15	169	-1344	1976	16948	192	9	-1	127	127	5
-10712	-3008	11300	-50	107	-138	-15124	-3256	-4512	-123	-43	36	-2876	-1528	16344	-11	-137	75	-9036	3468	13672	155	-15	-156	-16168	72	-4092	21	20	181	-1352	1996	16960	214	11	12	126	127	5
-10672	-3060	11400	-64	127	-167	-15128	-3280	-4372	-72	-6	-51	-2776	-1636	16392	-19	-87	93	-9060	3332	13676	152	-48	-151	-16216	-12	-4000	20	-44	151	-1376	1948	16872	166	35	27	127	127	5
-10740	-3036	11340	-78	162	-182	-15240	-3272	-4500	-27	18	-75	-2872	-1576	16384	-57	-84	76	-9032	3352	13708	179	-51	-161	-16120	64	-3940	62	0	172	-1344	1912	16900	169	11	-12	127	127	5
-10720	-3044	11276	-93	199	-217	-15172	-3276	-4504	70	-43	-115	-2892	-1592	16312	-99	-69	130	-9056	3424	13680	125	-39	-190	-16140	12	-3988	99	-13	157	-1364	1868	16888	195	-4	9	127	127	5
-10684	-3028	11168	-114	210	-219	-15092	-3356	-4592	46	-21	-195	-2896	-1584	16292	-147	-114	132	-9040	3392	13684	132	-25	-156	-16184	112	-4036	131	6	159	-1364	1904	16900	166	42	-40	127	127	5
-10688	-3132	11256	-151	182	-215	-15128	-3348	-4536	16	-66	-200	-2908	-1648	16312	-156	-162	131	-9028	3444	13684	167	-27	-165	-16140	76	-3936	107	-44	165	-1260	1944	16972	235	76	-44	127	127	5
-10740	-3052	11216	-166	241	-215	-15180	-3348	-4548	-23	-44	-241	-2896	-1648	16344	-221	-125	151	-9020	3392	13540	144	-59	-173	-16108	72	-4068	68	-33	114	-1412	2048	16844	165	34	-68	127	127	5
-10688	-3076	11192	-173	217	-209	-15160	-3400	-4368	-99	-87	-245	-2892	-1748	16260	-271	-139	176	-9044	3424	13544	120	-99	-168	-16164	188	-4088	67	-52	78	-1396	2088	16828	122	17	3	127	127	5
-10776	-3100	11264	-205	221	-257	-15164	-3516	-4480	-57	-91	-232	-2860	-1844	16332	-227	-140	194	-9068	3404	13592	93	-44	-201	-16132	56	-4008	-2	6	81	-1284	2000	16840	38	-1	54	127	127	5
-10672	-3124	11260	-172	218	-234	-15168	-3564	-4572	-21	-69	-262	-2856	-1932	16288	-281	-118	126	-9020	3400	13636	124	-68	-153	-16096	-72	-4092	71	-54	84	-1336	1868	16868	99	-47	47	127	127	5
-10744	-3076	11176	-158	194	-248	-15072	-3516	-4568	12	-60	-228	-2820	-1964	16236	-236	-140	137	-9056	3440	13656	131	-88	-148	-16088	-72	-3956	184	-45	99	-1284	1892	16856	127	-11	19	127	127	5
-10664	-3108	11340	-135	194	-214	-15104	-3540	-4492	30	-62	-178	-2888	-1880	16296	-192	-168	156	-9032	3408	13712	123	-70	-148	-16120	96	-4044	212	-70	80	-1296	1832	16904	146	17	-1	127	127	5
-10776	-3100	11184	-176	226	-208	-15136	-3464	-4468	-36	-95	-237	-2884	-2024	16280	-214	-168	155	-9080	3376	13632	159	-77	-157	-16092	84	-4012	82	-36	61	-1344	1944	16904	129	54	32	127	127	5
-10700	-3000	11328	-120	196	-233	-15192	-3552	-4372	-99	-107	-221	-2888	-1968	16240	-166	-185	217	-9028	3464	13604	108	-61	-152	-16096	80	-3944	-14	-77	82	-1300	1952	16896	118	42	106	127	127	5
-10716	-3152	11208	-118	210	-233	-15176	-3628	-4456	-137	-95	-202	-2832	-2104	16248	-126	-206	208	-9072	3368	13668	109	-65	-161	-16120	60	-4008	-51	-5	71	-1388	1960	16880	122	32	128	127	127	5
-10808	-3092	11284	-130	161	-231	-15116	-3624	-4588	-75	-138	-189	-2784	-2084	16248	-109	-197	178	-9076	3380	13556	119	-65	-185	-16136	12	-4028	-32	-6	40	-1496	1900	16872	89	-12	116	126	127	5
-10724	-3164	11236	-75	204	-216	-15136	-3600	-4488	57	-107	-131	-2800	-2120	16280	3	-218	179	-9040	3388	13648	151	-73	-185	-16140	-32	-4052	-10	-51	94	-1496	1888	16880	45	-4	76	126	127	5
-10756	-3052	11124	-84	148	-203	-15140	-3544	-4360	47	-139	-109	-2812	-1984	16284	-4	-229	159	-9036	3428	13468	114	-37	-178	-16084	12	-4056	113	-86	68	-1420	1888	16828	72	15	56	127	127	5
-10656	-3136	11260	-92	158	-199	-15180	-3600	-4408	-43	-88	-161	-2612	-1844	16316	1	-142	221	-9088	3364	13632	132	-125	-150	-16096	-12	-3992	131	-69	48	-1320	1792	16740	77	-35	117	126	127	5
-10720	-3132	11296	-129	170	-164	-15148	-3568	-4404	-103	-81	-145	-2712	-1916	16288	-108	-75	238	-9124	3380	13660	105	-32	-154	-16136	44	-3960	87	-68	90	-1320	1748	16896	113	1	148	127	127	5
-10700	-3100	11304	-75	175	-201	-15116	-3596	-4552	-113	-121	-97	-2772	-2056	16160	-51	-55	163	-8980	3376	13620	114	-46	-142	-16124	72	-3856	11	-75	80	-1344	1792	16820	164	-27	141	127	127	5
-10704	-3148	11188	-84	159	-176	-15060	-3672	-4332	16	-65	-98	-2764	-2032	16208	-63	-102	154	-9012	3344	13576	109	-86	-138	-16136	24	-3996	0	-18	85	-1292	1820	16932	186	-36	96	127	127	5
-10696	-3200	11280	-85	157	-197	-15144	-3644	-4452	86	-63	-90	-2816	-2008	16284	-50	-109	108	-9044	3428	13620	130	-53	-180	-16136	-92	-3956	41	-30	88	-1252	1788	16896	144	4	100	127	127	5
-10692	-3112	11276	-97	186	-185	-15172	-3544	-4588	44	-52	-71	-2876	-2052	16216	-51	-141	129	-9044	3380	13564	146	-74	-168	-16104	-28	-4016	54	-9	80	-1224	1744	16828	155	3	66	127	127	5
-10736	-3132	11196	-72	152	-206	-15124	-3608	-4484	-29	-53	-58	-2776	-2008	16296	50	-186	136	-9040	3368	13560	118	-13	-171	-16152	48	-3820	85	14	151	-1276	1844	16880	201	24	73	126	127	5
-10740	-3096	11260	-83	132	-136	-15108	-3548	-4336	-5	-25	-63	-2804	-1988	16308	38	-191	101	-9040	3360	13540	161	-48	-166	-16184	84	-3972	64	-41	123	-1292	1860	16788	232	30	60	126	127	5
-10800	-3096	11288	-102	149	-170	-15096	-3520	-4472	-32	-36	-68	-2752	-1960	16264	53	-166	104	-9028	3420	13608	154	-38	-175	-16084	48	-3956	19	-32	135	-1248	1940	16836	267	29	123	126	127	5
-10756	-3088	11260	-120	141	-189	-15112	-3612	-4536	-38	-52	-28	-2700	-2024	16296	25	-149	127	-9012	3432	13652	112	-32	-164	-16164	-12	-4004	54	-6	81	-1404	1864	16960	294	28	69	126	127	5
-10756	-3132	11312	-102	176	-199	-15112	-3556	-4528	-2	-57	-80	-2820	-2040	16276	59	-170	146	-9056	3384	13592	155	-75	-147	-16128	-64	-3940	90	-45	97	-1456	1868	16772	246	29	55	126	127	5
-10788	-3104	11344	-95	151	-160	-15156	-3576	-4488	70	-74	-43	-2792	-2028	16300	115	-135	184	-9076	3364	13640	142	-26	-140	-16124	76	-4024	74	-30	90	-1436	1928	16880	216	6	39	126	127	5
-10768	-3168	11164	-74	184	-162	-15104	-3576	-4504	66	-103	-40	-2804	-1948	16308	135	-119	165	-9020	3396	13668	133	-84	-144	-16148	-76	-3936	71	-31	106	-1332	1984	16836	207	-18	7	126	127	5
-10740	-3092	11296	-65	170	-184	-15120	-3580	-4528	16	-30	5	-2800	-1940	16228	124	-125	133	-9008	3456	13616	106	-55	-146	-16180	16	-4112	52	-33	102	-1340	1964	16792	137	5	7	126	127	5
-10700	-3120	11268	-77	122	-200	-15124	-3544	-4496	37	-66	-27	-2816	-1960	16252	134	-145	120	-9028	3456	13644	145	-65	-181	-16088	12	-3868	47	-58	77	-1244	1860	16900	173	8	-4	126	127	5
-10752	-3124	11212	-70	133	-154	-15156	-3480	-4416	-21	-53	-52	-2832	-1908	16368	123	-168	119	-9056	3416	13580	120	-15	-159	-16072	-20	-3956	70	-58	79	-1360	1796	16832	154	-23	31	126	127	5
-10688	-3100	11332	-77	147	-173	-15136	-3548	-4388	-30	-22	-64	-2764	-1896	16324	108	-148	105	-9120	3352	13656	133	-66	-147	-16148	-12	-3904	32	-45	123	-1304	1876	16720	143	-12	27	126	127	5
-10720	-3168	11284	-68	147	-163	-15116	-3552	-4352	-30	-60	-1	-2792	-1880	16316	98	-102	170	-9000	3464	13560	118	-40	-180	-16168	-52	-3952	64	-42	68	-1364	1696	16904	231	-42	84	127	127	5
-10664	-3176	11292	-90	172	-186	-15152	-3596	-4520	48	-19	-33	-2756	-1928	16260	38	-83	142	-9036	3364	13616	135	-91	-166	-16116	-80	-3924	98	-20	139	-1304	1816	16876	257	-16	98	126	127	5
-10704	-3168	11360	-60	122	-205	-15136	-3504	-4400	59	-47	-31	-2744	-1940	16344	42	-53	157	-9084	3360	13572	131	-8	-167	-16052	-12	-3984	105	-57	124	-1368	1780	16892	258	-1	62	127	127	5
-10744	-3124	11184	-68	161	-179	-15080	-3536	-4560	42	-58	-18	-2756	-1912	16224	20	-49	164	-9036	3360	13672	154	-49	-156	-16136	-128	-3880	106	0	146	-1300	1860	16896	228	-23	76	127	127	5
-10716	-3116	11212	-75	122	-204	-15124	-3552	-4520	-12	-71	-58	-2796	-1888	16376	65	-57	115	-9008	3372	13580	150	-50	-166	-16132	-32	-3900	144	-12	167	-1192	1876	16884	199	-28	35	127	127	5
-10732	-3168	11268	-63	142	-159	-15156	-3560	-4448	-26	-37	-30	-2860	-1948	16236	36	-86	165	-9032	3380	13560	181	0	-128	-16116	12	-3992	59	-23	187	-1260	1876	16920	212	33	38	126	127	5
-10740	-3196	11240	-87	139	-160	-15136	-3588	-4476	-31	-40	-15	-2800	-1968	16324	83	-104	170	-9068	3408	13616	153	-24	-173	-16108	-4	-4040	42	15	173	-1344	1892	16796	188	-13	-1	127	127	5
-10744	-3124	11332	-34	170	-150	-15124	-3544	-4480	-50	-67	-39	-2720	-1944	16356	81	-82	153	-9092	3356	13656	184	-36	-142	-16080	0	-3932	13	47	165	-1340	1920	16884	212	3	-18	127	127	5
-10736	-3124	11180	-82	124	-170	-15132	-3536	-4404	27	-12	-14	-2724	-1980	16280	117	-151	154	-9040	3368	13696	144	-12	-170	-16108	44	-4064	35	20	174	-1280	1960	16820	177	-20	-8	126	127	5
-10660	-3068	11144	-60	139	-170	-15204	-3516	-4336	22	5	-3	-2792	-1908	16364	120	-124	161	-9036	3396	13616	136	-19	-166	-16088	24	-3972	110	-2	200	-1296	1880	16900	162	0	23	126	127	5
-10724	-3096	11232	-74	149	-188	-15136	-3540	-4336	47	10	-9	-2764	-1920	16240	96	-134	115	-9028	3404	13572	172	-17	-157	-16172	56	-4004	76	37	164	-1268	2004	16880	231	-6	9	126	127	5
-10728	-3124	11240	-77	142	-187	-15120	-3484	-4380	19	-9	-38	-2820	-1828	16308	75	-116	118	-8960	3416	13588	172	-45	-199	-16112	96	-3924	107	-26	169	-1256	1916	16860	261	-26	44	127	127	5
-10752	-3116	11352	-71	128	-185	-15132	-3400	-4524	-11	20	-36	-2784	-1820	16284	63	-63	77	-9080	3404	13580	166	-97	-140	-16080	80	-3936	84	-15	142	-1372	1888	16888	252	63	47	127	127	5
-10720	-3124	11108	-71	137	-157	-15164	-3484	-4592	-42	-38	-9	-2796	-1892	16240	70	-72	115	-9056	3348	13616	163	-76	-112	-16100	24	-4028	66	-29	137	-1328	2000	16784	216	20	31	126	127	5
-10736	-3076	11232	-42	131	-176	-15164	-3476	-4496	-71	-29	-53	-2804	-1896	16292	52	-89	126	-9004	3392	13588	132	-124	-121	-16136	8	-4052	98	19	149	-1328	1928	16996	147	0	22	127	127	5
-10704	-3064	11248	-51	134	-171	-15112	-3484	-4444	9	-16	-60	-2808	-1856	16320	90	-60	154	-9020	3392	13656	153	-86	-195	-16152	104	-4032	108	44	133	-1424	2036	16864	167	38	20	126	127	5
-10736	-3112	11292	-92	149	-204	-15112	-3520	-4452	36	-12	-50	-2828	-1908	16352	81	-84	146	-9084	3432	13580	114	-59	-192	-16120	124	-4140	25	21	87	-1308	1920	16916	127	67	23	126	127	5
-10716	-3088	11260	-84	159	-207	-15064	-3528	-4436	73	-16	-43	-2816	-1816	16324	138	-96	153	-8992	3436	13600	99	-40	-181	-16052	76	-4076	-14	-15	88	-1272	1892	16992	134	80	60	127	127	5
-10732	-3072	11212	-77	157	-179	-15168	-3520	-4512	47	-40	-54	-2792	-1884	16328	99	-82	158	-9032	3416	13612	155	-74	-170	-16084	12	-3940	22	-2	99	-1324	1892	16940	195	74	54	127	127	5
-10736	-3160	11232	-84	150	-178	-15188	-3524	-4476	24	-53	-52	-2788	-1848	16316	52	-54	107	-9048	3400	13652	130	-59	-207	-16092	-16	-3960	49	-15	94	-1308	1828	16896	156	61	50	127	127	5
-10704	-3080	11284	-109	169	-211	-15184	-3568	-4516	-18	-52	-81	-2800	-1884	16320	24	-114	181	-9020	3460	13716	115	-49	-167	-16164	32	-3992	76	9	75	-1276	1880	16740	209	42	75	127	127	5
-10724	-3024	11264	-115	152	-177	-15136	-3436	-4460	-68	-25	-26	-2748	-1896	16404	16	-81	117	-9024	3392	13536	150	-58	-184	-16028	44	-4016	52	34	130	-1316	1852	16848	231	71	64	127	127	5
-10732	-3096	11196	-99	154	-164	-15164	-3556	-4468	13	18	-56	-2812	-1844	16288	15	-60	115	-9000	3404	13664	145	-34	-168	-16100	-8	-4036	47	-45	70	-1320	1904	16884	244	76	41	127	127	5
-10736	-3168	11272	-91	163	-181	-15068	-3556	-4524	-11	-14	-38	-2920	-1972	16288	31	-65	111	-9068	3396	13552	123	-52	-142	-16140	-20	-4104	101	-4	119	-1452	1844	16912	225	51	16	127	127	5
-10732	-3060	11240	-67	160	-187	-15136	-3500	-4520	9	-44	-27	-2920	-1928	16212	19	-41	121	-9060	3376	13628	150	-66	-205	-16120	24	-4084	110	-62	126	-1392	1892	16852	243	55	37	127	127	5
-10732	-3144	11260	-89	172	-189	-15160	-3480	-4408	59	-34	-58	-2876	-1912	16304	21	-76	106	-9020	3316	13652	157	4	-148	-16124	-16	-3888	77	-48	111	-1376	1896	16800	168	-2	24	127	127	5
-10720	-3084	11276	-92	189	-176	-15072	-3516	-4504	29	-26	-42	-2856	-1800	16172	23	-75	87	-9020	3380	13604	117	-52	-158	-16100	8	-4040	71	-5	108	-1376	1884	16936	110	33	45	127	127	5
-10728	-3096	11204	-113	159	-182	-15124	-3448	-4580	-9	-73	-53	-2876	-1808	16260	-11	-86	87	-9000	3356	13596	127	-111	-146	-16080	68	-3924	29	-16	117	-1336	1900	16872	127	26	68	127	127	5
-10724	-3120	11240	-100	140	-191	-15084	-3504	-4492	-68	-74	-86	-2880	-1896	16244	14	-95	112	-9092	3380	13584	156	-72	-187	-16116	28	-4024	47	-28	67	-1388	1844	16888	144	14	61	127	127	5
-10776	-3152	11384	-81	127	-195	-15104	-3532	-4392	-44	-75	-54	-2848	-1888	16328	11	-119	168	-9080	3408	13704	130	-11	-162	-16132	56	-3976	16	-50	108	-1348	1796	16848	150	41	83	127	127	5
-10724	-3116	11216	-87	159	-168	-15124	-3536	-4452	-8	-80	-95	-2820	-1928	16244	22	-112	135	-9040	3408	13628	129	-66	-134	-16180	-8	-4088	42	6	88	-1320	1780	16864	147	55	101	127	127	5
-10752	-3092	11204	-83	149	-217	-15116	-3592	-4556	54	-55	-64	-2836	-1968	16292	58	-121	105	-9052	3440	13548	132	-93	-165	-16124	-44	-4016	98	16	82	-1264	1832	16808	168	83	116	127	127	5
-10736	-3140	11292	-31	149	-200	-15140	-3464	-4480	11	-51	-53	-2828	-1932	16252	55	-93	114	-9040	3372	13700	145	-51	-207	-16140	-28	-3948	95	-41	76	-1364	1876	16952	243	47	110	126	127	5
-10664	-3068	11200	-105	156	-197	-15192	-3484	-4608	-7	-65	-69	-2828	-1820	16384	40	-107	86	-9084	3488	13692	147	-56	-178	-16092	-20	-3984	117	-22	89	-1348	1804	16804	244	62	87	126	127	5
-10748	-3096	11200	-97	158	-150	-15128	-3476	-4456	-46	-27	-42	-2816	-1844	16268	7	-97	88	-9012	3404	13656	133	-49	-168	-16100	-12	-4012	104	-72	125	-1352	1824	16860	225	32	66	126	127	5
-10704	-3080	11244	-92	171	-190	-15088	-3476	-4460	-92	-40	-70	-2800	-1836	16264	-4	-98	102	-9060	3472	13632	129	-72	-179	-16092	-8	-4052	66	2	93	-1400	1864	16900	246	78	58	127	127	5
-10700	-3116	11324	-112	136	-145	-15128	-3456	-4308	-23	-13	-110	-2764	-1828	16256	-37	-113	87	-9004	3388	13604	152	-22	-134	-16092	56	-3988	52	-22	133	-1436	1956	16832	223	36	67	126	127	5
-10712	-3160	11212	-82	152	-131	-15172	-3444	-4576	26	-41	-110	-2748	-1872	16252	-47	-79	146	-9044	3376	13676	135	-11	-181	-16096	0	-3960	-1	-12	119	-1340	1948	16872	161	-5	36	127	127	5
-10772	-3060	11184	-57	173	-170	-15104	-3512	-4516	32	-12	-78	-2792	-1868	16308	-27	-96	151	-9024	3356	13576	136	-38	-162	-16220	-32	-3916	21	-25	131	-1324	1912	16872	210	-15	-5	126	127	5
-10668	-3136	11232	-99	178	-181	-15104	-3548	-4532	12	-22	-69	-2808	-1892	16196	15	-72	152	-9048	3420	13612	126	-34	-149	-16112	-24	-3956	80	-14	100	-1348	1968	16932	213	20	-24	126	127	5
-10724	-3052	11264	-97	183	-188	-15172	-3548	-4564	-13	-11	-79	-2856	-1996	16328	-43	-93	126	-9120	3420	13648	169	-74	-125	-16124	76	-3964	88	-54	83	-1328	1908	16884	202	-7	-51	126	127	5
-10740	-3172	11252	-96	175	-165	-15084	-3532	-4452	13	-40	-108	-2788	-2004	16276	-40	-83	176	-9044	3380	13604	138	-97	-153	-16112	156	-4064	69	4	134	-1400	1924	16900	164	-8	-11	126	127	5
-10720	-3096	11244	-90	173	-169	-15144	-3544	-4544	2	-48	-88	-2828	-1940	16224	-27	-72	113	-9020	3380	13724	108	-45	-165	-16188	68	-3924	30	-13	73	-1384	1940	16972	133	10	28	126	127	5
-10748	-3080	11324	-93	151	-175	-15132	-3516	-4548	15	-39	-52	-2928	-1876	16240	40	-32	132	-9108	3332	13632	146	-65	-169	-16140	-36	-4164	34	-19	83	-1408	1940	16796	128	27	106	127	127	5
-10800	-3120	11244	-61	147	-177	-15128	-3508	-4508	-19	-45	-70	-2956	-1960	16336	9	-64	106	-9056	3416	13632	122	-73	-175	-16088	40	-3896	70	-51	63	-1404	1876	16912	127	11	102	127	127	5
-10764	-3192	11216	-89	155	-200	-15144	-3528	-4596	49	-56	-48	-2968	-1896	16244	42	-75	112	-9044	3412	13620	90	-66	-136	-16108	-56	-3964	94	-49	68	-1392	1796	16916	211	-7	122	127	127	5
-10756	-3132	11248	-109	158	-236	-15192	-3468	-4488	-13	-64	-80	-2884	-1892	16316	38	-132	135	-9020	3388	13652	84	-57	-162	-16132	-148	-3932	153	-47	101	-1368	1756	16844	175	4	74	127	127	5
-10880	-3060	11172	-56	163	-160	-15112	-3448	-4476	-1	-74	-70	-2832	-1872	16256	39	-147	132	-9048	3352	13612	161	-26	-170	-16128	-4	-4012	120	-60	93	-1356	1752	16912	204	-7	63	127	127	5
-10772	-3076	11316	-79	198	-210	-15120	-3504	-4572	1	-49	-76	-2852	-1888	16292	0	-176	151	-9012	3388	13696	122	-76	-152	-16160	-20	-3980	98	-15	88	-1380	1784	16920	176	-30	41	127	127	5
-10756	-3144	11212	-85	165	-187	-15140	-3564	-4424	-16	-35	-94	-2844	-1940	16364	38	-190	172	-8980	3396	13508	180	-87	-153	-16080	-56	-3988	74	-9	110	-1352	1844	16804	164	-10	38	126	127	5
-10720	-3088	11300	-95	161	-176	-15144	-3576	-4556	37	-53	-108	-2768	-1836	16268	37	-180	128	-9060	3428	13608	118	-32	-176	-16140	-12	-3912	31	-10	159	-1372	1844	16940	134	-27	-4	128	127	5
-10724	-3108	11276	-118	182	-201	-15112	-3420	-4504	8	-77	-99	-2776	-1952	16272	61	-176	121	-9032	3304	13652	135	-56	-155	-16120	-88	-3976	9	-9	152	-1408	1804	16892	117	-27	-1	127	127	5
-10724	-3120	11280	-59	152	-168	-15116	-3540	-4472	-19	-79	-73	-2788	-1876	16284	42	-134	109	-9028	3400	13576	168	-62	-143	-16168	-88	-4080	40	-3	143	-1380	1768	16880	126	-55	4	127	127	5
-10720	-3116	11208	-93	164	-168	-15128	-3500	-4456	-10	-83	-41	-2764	-1872	16308	-15	-131	122	-9008	3432	13608	140	-8	-154	-16056	-88	-4076	90	-22	170	-1284	1804	16916	180	-41	32	127	127	5
-10712	-3092	11192	-86	150	-159	-15132	-3480	-4516	-18	-61	-86	-2856	-1884	16260	-41	-93	153	-9016	3380	13524	140	-24	-153	-16124	-20	-4016	105	-9	178	-1392	1820	16920	238	-14	11	127	127	5
-10752	-3092	11284	-99	152	-184	-15196	-3504	-4508	-50	-66	-47	-2864	-1972	16216	14	-109	223	-9024	3424	13576	154	-77	-163	-16104	16	-4040	89	-47	183	-1360	1916	16988	241	-16	0	127	127	5
-10772	-3108	11252	-96	120	-200	-15084	-3540	-4560	-42	-65	-72	-2832	-1972	16360	49	-70	241	-9080	3364	13636	170	-70	-150	-16156	24	-4028	96	-40	169	-1288	1888	16828	235	19	35	127	127	5
-10728	-3148	11288	-72	152	-217	-15132	-3612	-4404	54	-127	-51	-2808	-2000	16340	58	-63	182	-9032	3336	13516	177	-33	-144	-16204	76	-3860	62	-30	174	-1288	1964	16960	209	-13	58	127	127	5
-10684	-3084	11244	-123	151	-193	-15144	-3608	-4512	70	-85	-23	-2884	-1924	16244	73	-71	161	-9004	3440	13660	154	-29	-144	-16112	108	-3900	34	-52	153	-1328	1920	16832	199	20	56	127	127	5
-10788	-3064	11408	-71	123	-205	-15160	-3592	-4432	46	-70	-51	-2800	-1916	16264	83	-128	145	-9028	3376	13588	145	-49	-174	-16104	32	-3848	6	6	146	-1328	1940	16928	183	-13	63	127	127	5
-10748	-3104	11284	-66	133	-148	-15132	-3564	-4460	-12	-48	-51	-2776	-1960	16296	62	-165	100	-9032	3376	13624	151	-41	-149	-16108	-16	-3972	20	-22	120	-1288	1828	16764	160	-23	35	127	127	5
-10712	-3128	11348	-73	155	-163	-15168	-3580	-4404	-79	-8	-29	-2728	-1968	16220	74	-166	135	-9044	3404	13588	127	-87	-139	-16172	20	-4056	53	14	129	-1240	1928	16988	192	13	-4	126	127	5
-10688	-3160	11252	-82	117	-190	-15096	-3600	-4356	-37	-15	25	-2796	-1932	16416	97	-140	95	-9084	3380	13620	136	-23	-171	-16140	56	-4152	63	58	141	-1296	1876	16824	183	-9	-3	126	127	5
-10740	-3104	11356	-68	174	-175	-15144	-3536	-4424	-16	-1	2	-2748	-1908	16324	58	-186	81	-9044	3384	13680	152	-62	-168	-16080	24	-3936	59	14	110	-1256	1892	16816	211	-19	10	126	127	5
-10648	-3072	11268	-58	174	-186	-15108	-3460	-4416	-6	-33	-29	-2732	-1832	16356	55	-156	131	-9044	3372	13728	167	-53	-170	-16172	64	-4000	55	6	144	-1308	1904	16816	252	0	-29	126	127	5
-10696	-3088	11292	-63	158	-194	-15096	-3568	-4616	50	0	-47	-2744	-1828	16304	50	-101	90	-9084	3416	13616	159	-24	-148	-16140	56	-3896	36	30	122	-1384	1888	16900	185	38	30	126	127	5
-10676	-3112	11276	-64	152	-162	-15116	-3528	-4488	41	-8	-38	-2868	-1828	16260	18	-51	59	-9068	3388	13588	131	-39	-159	-16168	-44	-3988	41	-11	125	-1432	1836	16932	176	56	42	126	127	5
-10752	-3144	11276	-69	173	-157	-15128	-3436	-4632	41	-44	11	-2904	-1828	16256	57	-77	103	-9068	3404	13620	135	-2	-174	-16092	-52	-4036	123	10	111	-1480	1848	16904	194	20	-2	126	127	5
-10748	-3144	11176	-71	172	-188	-15104	-3416	-4608	-18	-88	-65	-2964	-1700	16224	59	-132	95	-9044	3376	13616	140	-77	-180	-16072	-72	-4040	135	-19	171	-1452	1796	16900	169	-24	-27	126	127	5
-10732	-3028	11228	-73	151	-182	-15132	-3412	-4544	-65	-82	-81	-2888	-1748	16236	-1	-112	148	-9104	3420	13640	128	-32	-149	-16076	-24	-4000	167	-32	191	-1328	1848	16792	176	-16	-47	126	127	5
-10732	-3108	11364	-109	142	-185	-15100	-3416	-4420	-96	-68	-65	-2832	-1816	16292	-10	-162	201	-9084	3448	13544	140	-48	-183	-16096	32	-4068	111	-40	178	-1400	1816	16860	194	-53	-40	126	127	5
-10712	-3124	11140	-63	152	-195	-15176	-3524	-4416	-34	-100	-110	-2764	-1836	16300	13	-135	206	-9040	3404	13584	166	-88	-172	-16092	-36	-4112	13	-38	170	-1256	1772	16904	225	-42	-40	126	127	5
-10728	-3156	11164	-126	174	-189	-15156	-3472	-4388	39	-80	-166	-2736	-1824	16304	31	-101	257	-9076	3372	13568	178	-60	-141	-16092	56	-3936	-24	-5	179	-1288	1808	16908	224	-13	-26	126	127	5
-10724	-3112	11192	-103	184	-169	-15160	-3380	-4420	3	-58	-129	-2820	-1768	16312	-16	-81	274	-8972	3420	13624	159	1	-160	-16172	-64	-3844	45	-21	210	-1244	1796	16836	259	-23	-45	126	127	5
-10728	-3088	11244	-138	174	-204	-15160	-3528	-4328	-72	-53	-129	-2744	-1848	16388	-14	-116	238	-9092	3388	13548	180	-101	-163	-16108	68	-3952	151	-10	182	-1196	1832	16816	285	-17	-70	126	127	5
-10744	-3148	11296	-118	200	-228	-15204	-3620	-4392	-78	-34	-178	-2768	-1860	16352	-90	-92	205	-9012	3348	13640	140	-59	-128	-16100	92	-4012	150	-24	214	-1356	1940	16868	337	15	-30	126	127	5
-10712	-3164	11072	-82	179	-165	-15128	-3584	-4352	3	-68	-150	-2800	-1960	16524	-138	-89	159	-9072	3412	13560	159	-58	-157	-16096	168	-4076	152	35	177	-1364	1980	16972	340	47	55	126	127	5
-10728	-3092	11276	-97	231	-233	-15160	-3632	-4460	-2	-53	-138	-2712	-2104	16244	-39	-123	156	-9088	3396	13544	136	-48	-187	-16132	116	-3912	42	28	141	-1188	2020	16920	369	51	-1	126	127	5
-10760	-3060	11208	-131	199	-179	-15068	-3640	-4348	-35	-24	-92	-2836	-1888	16352	-72	-93	54	-8988	3436	13512	119	-41	-181	-16052	96	-4092	18	45	133	-1432	2208	16792	199	-17	99	126	127	5
-10744	-3112	11208	-120	148	-170	-15176	-3620	-4504	-1	-19	-116	-2964	-2004	16316	-52	-125	151	-9060	3408	13616	175	-37	-140	-16116	112	-3980	41	53	88	-1496	2140	16948	79	-73	110	126	127	5
-10712	-3092	11292	-85	159	-201	-15152	-3548	-4504	-24	-58	-98	-2928	-2056	16296	-47	-101	146	-9040	3488	13644	121	-16	-165	-16116	64	-4108	63	-31	121	-1252	1996	16856	129	-15	102	127	128	5
-10760	-3048	11268	-67	169	-163	-15128	-3688	-4464	-9	-64	-71	-2788	-1984	16204	-29	-95	51	-9060	3388	13700	153	-117	-157	-16096	16	-4052	138	-66	63	-1356	1856	16900	238	54	112	126	127	5
-10764	-3152	11348	-77	158	-184	-15080	-3608	-4636	65	-87	-57	-2808	-2036	16240	25	-36	16	-9020	3464	13664	118	-83	-167	-16068	68	-4008	122	-46	46	-1404	1996	16828	181	32	121	126	127	5
-10752	-3108	11236	-89	138	-172	-15044	-3532	-4508	79	-75	-26	-2836	-2036	16240	-26	-7	27	-9068	3396	13556	129	-125	-127	-16092	40	-3960	45	-66	43	-1272	2068	16920	183	24	132	126	127	5
-10760	-3156	11272	-49	132	-200	-15112	-3476	-4532	-2	-86	-40	-2868	-1940	16160	22	-80	75	-9024	3388	13692	109	-112	-160	-16128	128	-4012	31	-30	26	-1160	2004	16912	77	24	140	126	128	5
-10748	-3128	11296	-92	117	-183	-15128	-3460	-4408	-60	-82	-24	-2876	-1772	16236	27	-107	176	-9076	3396	13612	125	-87	-165	-16136	144	-3784	17	-44	9	-1140	1912	16924	31	95	147	127	127	5
-10728	-3092	11364	-83	130	-196	-15136	-3488	-4392	-94	-82	-65	-2740	-1800	16260	12	-134	197	-9004	3424	13692	69	-29	-167	-16140	96	-3832	-53	-28	-10	-1140	1896	16880	80	144	130	126	127	5
-10712	-3096	11236	-131	162	-205	-15144	-3452	-4208	-109	-39	-102	-2616	-1796	16284	-39	-111	213	-9028	3432	13640	126	-35	-184	-16144	72	-3868	-45	27	-24	-1300	1932	16968	72	141	152	127	127	5
-10752	-3036	11288	-95	160	-181	-15184	-3524	-4344	-46	0	-90	-2564	-1856	16272	-42	-64	202	-9048	3416	13580	104	-55	-207	-16128	36	-3932	20	49	-38	-1364	1956	16964	82	163	182	127	127	5
-10720	-3080	11252	-116	189	-168	-15160	-3556	-4380	19	21	-119	-2704	-1852	16352	-122	-81	179	-9100	3384	13500	58	-54	-201	-16084	60	-3904	71	47	-9	-1372	1904	16772	121	120	218	127	127	5
-10680	-3120	11252	-90	214	-147	-15116	-3568	-4392	7	65	-104	-2788	-1888	16336	-73	-95	134	-9036	3380	13592	98	-49	-160	-16068	-88	-4096	47	71	-17	-1456	1880	16860	109	106	142	126	127	5
-10736	-3136	11268	-92	222	-137	-15140	-3576	-4492	10	47	-115	-2856	-1912	16276	-77	-108	112	-8984	3368	13640	65	-51	-174	-16112	-160	-4244	98	19	-26	-1608	1800	16832	88	-6	108	126	127	5
-10780	-3140	11324	-94	202	-197	-15116	-3564	-4560	-34	64	-105	-2952	-1964	16308	-76	-105	44	-9096	3332	13604	109	-24	-185	-16120	-180	-4056	143	25	19	-1644	1744	16844	91	-5	44	126	127	5
-10720	-3072	11188	-115	191	-144	-15096	-3628	-4568	-7	36	-62	-2972	-2052	16252	-68	-89	0	-9088	3392	13660	109	-8	-152	-16144	-212	-4212	156	-24	76	-1624	1780	16860	90	-74	63	126	128	5
-10780	-3124	11312	-124	186	-168	-15136	-3596	-4580	43	0	-63	-3028	-2024	16240	-68	-70	-33	-9028	3336	13640	149	-70	-186	-16096	-180	-4100	109	-51	154	-1492	1752	16892	118	-81	-30	126	128	5
-10740	-3036	11312	-71	138	-229	-15064	-3668	-4644	71	-20	-33	-3104	-2060	16216	-33	-67	-13	-9004	3344	13568	114	-72	-106	-16108	-108	-4076	108	-128	152	-1564	1760	16876	114	-130	18	127	128	5
-10744	-3084	11200	-51	141	-198	-15128	-3552	-4612	74	-58	-20	-3048	-2024	16300	5	-56	-13	-9008	3376	13664	185	-81	-146	-16060	-144	-3984	110	-154	195	-1364	1784	16872	156	-118	-59	127	128	5
-10708	-3180	11240	-94	108	-173	-15116	-3512	-4660	41	-100	-28	-3048	-1956	16300	-25	-49	60	-9024	3332	13664	183	-99	-141	-16112	-44	-4048	33	-131	198	-1268	1656	16912	149	-109	-35	127	128	5
-10776	-3048	11216	-96	102	-188	-15132	-3436	-4560	-10	-130	-34	-2992	-1924	16332	-12	-35	95	-9064	3396	13568	186	-54	-106	-16076	-64	-3900	51	-108	212	-1280	1680	16860	196	19	-42	127	128	5
-10720	-3148	11316	-83	118	-190	-15152	-3524	-4384	-49	-130	-11	-2936	-2028	16292	4	-96	106	-9064	3448	13568	211	-62	-123	-16100	-36	-3820	47	-92	279	-1288	1696	17004	209	-27	-14	127	128	5
-10728	-3144	11348	-105	110	-218	-15112	-3564	-4428	-15	-125	-36	-2868	-2036	16360	44	-159	126	-8976	3380	13544	198	-56	-116	-16120	40	-3892	19	-44	227	-1300	1832	16864	257	20	-24	127	128	5
-10760	-3076	11320	-69	142	-196	-15172	-3508	-4448	22	-144	-77	-2756	-2008	16340	89	-210	147	-9040	3396	13620	186	-29	-169	-16096	20	-4036	9	-19	255	-1268	1960	16920	265	35	-19	127	128	5
-10708	-3116	11176	-78	139	-214	-15140	-3480	-4360	-25	-89	-43	-2712	-1924	16292	116	-210	143	-9080	3384	13608	171	14	-151	-16116	44	-3968	-10	-33	245	-1364	2008	16844	271	-17	62	126	127	5
-10684	-3152	11268	-138	129	-146	-15160	-3564	-4348	-17	-70	-8	-2712	-1912	16432	87	-185	154	-8996	3408	13568	167	-19	-172	-16152	104	-3968	16	18	204	-1296	1892	16896	316	-1	38	126	127	5
-10752	-3068	11280	-121	148	-163	-15084	-3524	-4348	-45	-42	-57	-2600	-2024	16288	80	-141	173	-9092	3436	13600	155	-47	-169	-16120	116	-3928	53	23	177	-1356	2036	16828	354	-42	97	126	127	5
-10772	-3160	11288	-96	192	-175	-15156	-3576	-4436	-8	-49	-67	-2640	-1988	16260	90	-117	168	-8972	3372	13584	137	-84	-164	-16124	124	-3968	76	17	154	-1376	2000	16876	335	-16	94	126	128	5
-10704	-3080	11204	-62	157	-173	-15108	-3636	-4488	26	-36	-25	-2780	-1976	16264	97	-95	173	-9040	3356	13764	146	-39	-127	-16116	56	-3992	159	19	168	-1284	1976	16772	289	-49	148	126	128	5
-10708	-3124	11104	-76	153	-171	-15100	-3632	-4444	40	-56	-50	-2864	-2028	16340	134	-117	189	-8936	3428	13684	148	-70	-169	-16136	-32	-4008	157	4	114	-1240	1964	16848	288	16	151	126	127	5
-10732	-3164	11236	-60	140	-217	-15120	-3592	-4444	27	-5	-28	-2884	-2004	16308	150	-142	179	-9044	3324	13696	127	-25	-143	-16140	40	-3924	139	-29	120	-1312	1988	16844	258	18	152	126	127	5
-10680	-3080	11200	-42	154	-167	-15112	-3552	-4532	15	-49	14	-3024	-1964	16244	197	-158	221	-9064	3352	13572	129	-18	-151	-16132	20	-3956	115	11	140	-1292	1920	16828	213	9	124	126	127	5
-10732	-3040	11212	-36	125	-174	-15164	-3576	-4616	-25	-61	25	-2996	-1952	16340	215	-218	255	-9072	3424	13620	169	-45	-191	-16008	-16	-4120	77	-34	109	-1228	2020	16848	161	-1	77	126	127	5
-10744	-3100	11336	-33	142	-186	-15132	-3476	-4536	-35	-87	3	-2976	-1884	16236	240	-287	276	-9072	3404	13636	156	-26	-166	-16152	-64	-3960	40	-8	172	-1484	2140	16872	19	-19	-121	126	127	5
-10748	-3116	11216	-93	135	-175	-15132	-3484	-4648	-73	-89	-68	-2776	-1892	16392	214	-279	208	-9044	3384	13608	160	-73	-149	-16112	24	-4116	51	-38	150	-1372	2052	16888	-51	-50	-169	126	127	5
-10788	-3104	11232	-49	107	-182	-15160	-3544	-4532	-2	-54	-20	-2804	-1704	16220	169	-214	127	-9004	3468	13596	165	-57	-119	-16116	28	-4012	-15	-51	161	-1436	1940	16988	-30	-41	-145	126	127	5
-10764	-3064	11220	-74	124	-182	-15168	-3464	-4568	64	-93	-15	-2728	-1644	16332	145	-254	111	-9052	3348	13560	154	-59	-139	-16144	48	-4052	-23	-64	156	-1292	1804	16884	8	-13	-137	126	127	5
-10652	-3064	11276	-52	125	-159	-15136	-3292	-4328	39	-88	-52	-2656	-1576	16284	-90	-81	82	-9036	3360	13640	153	-41	-145	-16124	20	-3992	47	-86	165	-1364	1828	16908	24	-51	-121	126	127	5
-10744	-3084	11244	-48	159	-169	-15212	-3288	-4356	-31	-69	-108	-2588	-1616	16264	-162	-43	95	-9036	3424	13600	143	-47	-188	-16072	-64	-4000	168	-80	183	-1348	1940	16892	70	-92	-117	126	127	5
-10716	-3092	11348	-91	168	-206	-15192	-3388	-4400	-122	-40	-122	-2660	-1660	16256	-207	-15	171	-9008	3400	13700	159	-53	-156	-16124	32	-3944	239	-93	119	-1292	1904	16960	80	-28	-98	126	127	5
-10736	-3120	11236	-133	198	-225	-15160	-3480	-4308	-35	-49	-197	-2816	-1772	16344	-177	5	121	-9036	3420	13608	129	-47	-150	-16076	172	-3884	157	-61	121	-1100	1884	17000	77	-52	-31	127	127	5
-10676	-3132	11196	-127	204	-203	-15208	-3516	-4432	49	-7	-227	-2844	-1836	16284	-198	4	145	-9024	3412	13632	137	-80	-153	-16124	168	-3888	53	-27	77	-1164	1916	16856	128	-12	43	126	127	5
-10744	-3044	11332	-153	230	-229	-15152	-3488	-4376	83	-49	-186	-2896	-1896	16236	-158	-91	153	-9076	3440	13528	132	-57	-150	-16144	64	-3968	-3	-10	69	-1176	1864	16828	95	22	82	127	127	5
-10716	-3156	11196	-166	214	-190	-15124	-3584	-4488	45	31	-187	-2884	-2008	16304	-112	-108	185	-9044	3420	13656	164	-6	-181	-16096	36	-3988	21	12	39	-1164	1836	16824	185	10	138	127	127	5
-10752	-3092	11236	-101	200	-192	-15168	-3568	-4436	33	-33	-199	-2856	-2052	16256	-125	-148	194	-9072	3376	13556	150	-49	-206	-16140	-52	-4048	96	-5	60	-1244	1852	16944	186	37	132	126	127	5
-10776	-3128	11180	-134	186	-226	-15168	-3660	-4620	-52	-44	-156	-2804	-2084	16280	-90	-84	160	-9016	3372	13532	98	-81	-157	-16132	-20	-4064	120	9	58	-1284	1784	16840	203	58	133	126	127	5
-10756	-3100	11248	-115	152	-195	-15068	-3684	-4524	-107	-48	-112	-2840	-2104	16336	-35	-102	143	-8992	3424	13624	114	-58	-169	-16096	12	-4056	129	2	49	-1284	1736	16928	274	84	83	126	127	5
-10716	-3140	11132	-96	146	-166	-15084	-3676	-4532	-92	-80	-118	-2852	-2152	16292	-41	-99	147	-9016	3388	13552	112	-52	-173	-16108	12	-4076	98	18	51	-1364	1812	16764	254	108	113	126	127	5
-10728	-3096	11244	-84	163	-205	-15120	-3672	-4344	50	-53	-53	-2784	-2156	16272	18	-87	160	-9028	3352	13584	129	-82	-160	-16144	36	-3988	64	29	84	-1400	1864	16808	326	72	153	126	127	5
-10752	-3068	11268	-60	162	-170	-15048	-3600	-4396	48	-67	-75	-2816	-2036	16200	79	-64	109	-9068	3396	13656	115	-45	-165	-16164	-52	-4016	7	25	82	-1392	1856	16844	284	62	112	127	127	5
-10776	-3124	11196	-115	163	-203	-15140	-3544	-4512	81	-49	-41	-2876	-2040	16256	61	-67	129	-9052	3460	13684	127	-29	-192	-16128	-88	-3968	9	-8	65	-1380	1880	16844	178	73	26	127	127	5
-10712	-3104	11152	-48	142	-155	-15116	-3468	-4376	-1	-53	-31	-2924	-1920	16276	166	-145	103	-9100	3416	13628	116	-60	-174	-16152	-56	-3896	53	3	126	-1216	1788	16884	173	96	-14	127	127	5
-10736	-3048	11352	-57	125	-192	-15200	-3468	-4496	-22	-51	-67	-2876	-1832	16496	74	-99	111	-9076	3368	13608	135	-66	-121	-16128	0	-3992	76	8	126	-1448	1772	16960	177	51	22	127	127	5
-10688	-3112	11284	-97	194	-186	-15208	-3424	-4576	-58	-58	-45	-2824	-1872	16328	-11	-95	173	-9064	3376	13556	121	-62	-174	-16092	24	-3988	75	9	130	-1572	1844	16932	183	47	37	127	127	5
-10748	-3096	11196	-77	143	-192	-15108	-3516	-4448	-127	-83	-87	-2824	-1928	16292	51	-154	193	-9056	3420	13712	131	-67	-145	-16152	-32	-4072	71	8	117	-1416	1812	17032	313	57	50	126	127	5
-10748	-3172	11200	-79	154	-183	-15096	-3660	-4400	21	-52	-51	-2752	-1924	16276	47	-109	130	-9044	3376	13648	132	-5	-153	-16176	8	-3964	59	-18	137	-1348	1760	16868	311	56	17	126	127	5
-10736	-3148	11336	-43	144	-163	-15120	-3528	-4416	128	-50	-65	-2776	-1860	16328	-15	-60	104	-9064	3468	13660	162	-43	-177	-16140	48	-4076	69	-15	159	-1416	1996	16952	214	12	48	126	127	5
-10712	-3172	11272	-100	176	-198	-15192	-3456	-4428	60	-51	-43	-2848	-1928	16308	-57	-33	71	-8988	3424	13508	131	-61	-184	-16092	48	-3936	42	-24	162	-1344	1980	16816	126	7	23	127	127	5
-10716	-3116	11244	-84	166	-191	-15100	-3500	-4496	-28	-31	-82	-2852	-1876	16220	-21	-48	103	-9092	3408	13608	153	-79	-150	-16128	16	-3984	62	-41	129	-1352	1936	16956	124	-21	-14	127	127	5
-10768	-3128	11272	-108	156	-142	-15060	-3564	-4428	-46	-46	-63	-2860	-1948	16324	38	-135	153	-9100	3392	13540	168	-80	-127	-16116	72	-4064	77	-14	139	-1296	1984	16920	107	31	12	126	127	5
-10740	-3140	11184	-89	138	-188	-15140	-3532	-4468	-80	-62	-87	-2884	-2016	16268	28	-161	155	-9032	3400	13596	128	-59	-158	-16020	92	-3988	36	-35	120	-1388	1912	16920	125	-1	55	126	127	5
-10736	-3148	11240	-73	103	-175	-15096	-3528	-4372	-82	-55	-61	-2752	-1956	16240	39	-82	135	-9036	3352	13632	147	-23	-183	-16144	20	-3948	44	-63	135	-1412	1908	16952	143	-15	107	126	127	5
-10728	-3084	11292	-75	170	-180	-15128	-3588	-4400	44	-52	-55	-2732	-1984	16312	42	-77	121	-9056	3416	13652	103	-53	-131	-16116	-60	-3936	76	-91	111	-1392	1812	16868	178	31	68	126	127	5
-10708	-3096	11304	-102	148	-182	-15156	-3564	-4480	181	-50	-50	-2760	-1984	16148	4	-89	133	-9012	3432	13648	140	-75	-163	-16116	-52	-3932	146	2	118	-1224	1848	16916	124	16	113	127	127	5
-10736	-3096	11208	-51	139	-198	-15072	-3568	-4392	127	-38	-30	-2760	-1952	16312	42	-45	129	-9044	3400	13564	141	-29	-171	-16068	16	-3976	105	-12	105	-1208	1804	16964	133	34	69	127	127	5
-10808	-3116	11272	-69	184	-189	-15084	-3544	-4388	-30	-19	-21	-2840	-1968	16172	17	-49	127	-9056	3404	13692	139	-83	-159	-16140	28	-3980	86	-2	69	-1220	1804	16796	155	11	54	127	128	5
-10712	-3124	11252	-112	177	-163	-15084	-3560	-4408	-56	-12	-32	-2952	-1972	16168	115	-111	159	-9004	3400	13652	139	-98	-143	-16112	32	-3944	34	44	106	-1320	2008	16800	98	14	-72	126	127	5
-10768	-3192	11132	-96	188	-151	-15208	-3544	-4548	-27	-26	-30	-2944	-2000	16256	105	-152	178	-8980	3372	13560	169	-48	-203	-16176	56	-4020	22	31	107	-1296	1956	17044	59	18	-106	127	127	5
-10796	-3144	11288	-106	165	-159	-15136	-3640	-4464	-8	-38	-8	-2812	-1976	16280	108	-137	107	-9100	3412	13612	186	-48	-167	-16116	100	-4004	-43	12	90	-1292	1780	16768	98	38	-44	127	127	5
-10744	-3168	11168	-62	156	-154	-15112	-3576	-4536	44	-32	0	-2804	-1940	16296	59	-141	63	-9012	3404	13676	148	-88	-162	-16056	-8	-4020	-81	0	99	-1424	1692	16864	120	18	42	126	127	5
-10712	-3076	11216	-83	145	-160	-15124	-3576	-4596	87	-37	22	-2848	-1976	16420	50	-82	62	-9092	3408	13620	115	-51	-157	-16092	-136	-3976	33	-17	102	-1428	1748	16848	174	13	42	126	127	5
-10688	-3112	11220	-58	129	-189	-15120	-3440	-4556	76	-25	-12	-2876	-1880	16248	76	-68	60	-9024	3356	13668	140	-42	-153	-16108	-140	-4136	142	-43	111	-1412	1776	16964	184	2	35	126	127	5
-10764	-3108	11236	-91	157	-201	-15156	-3336	-4596	-11	-50	-3	-2880	-1820	16368	54	-53	106	-9048	3412	13668	135	-30	-145	-16128	-48	-3988	209	-25	112	-1420	1712	16888	270	34	28	126	127	5
-10704	-3136	11324	-84	149	-191	-15136	-3484	-4440	-70	-42	-47	-2908	-1672	16380	12	-70	128	-9092	3344	13664	145	-28	-172	-16148	44	-3988	157	-36	111	-1420	1860	16940	320	38	54	127	127	5
-10760	-3096	11340	-90	120	-167	-15108	-3440	-4508	-53	-30	-73	-2900	-1832	16312	-12	-132	167	-9040	3396	13604	164	-47	-157	-16052	100	-3936	81	-72	126	-1332	1960	16976	297	49	80	127	127	5
-10744	-3104	11216	-82	152	-194	-15140	-3516	-4400	-23	-62	-77	-2852	-1860	16368	28	-117	170	-9048	3412	13636	127	-28	-170	-16108	0	-4060	-41	-67	151	-1368	1860	16880	248	16	99	126	127	5
-10776	-3144	11180	-91	137	-189	-15088	-3584	-4488	51	-50	-60	-2784	-1884	16316	67	-149	169	-9008	3364	13720	144	-74	-151	-16064	-84	-3876	14	-40	150	-1332	1884	16804	191	5	32	127	127	5
-10752	-3140	11176	-97	166	-190	-15128	-3508	-4452	103	-56	-78	-2836	-1888	16284	76	-160	150	-9068	3444	13628	149	-58	-193	-16116	-36	-4068	75	-5	149	-1332	1840	16908	182	4	-10	126	127	5
-10720	-3132	11312	-67	147	-195	-15168	-3512	-4472	16	-34	-58	-2820	-1940	16268	87	-139	165	-9076	3388	13576	181	-79	-141	-16104	16	-3940	159	-20	156	-1268	1856	16900	194	2	-46	126	127	5
-10740	-3144	11252	-97	163	-189	-15148	-3580	-4596	-59	-41	-68	-2788	-2016	16192	37	-112	171	-9076	3372	13752	127	-68	-130	-16104	104	-3920	112	-33	138	-1332	1936	16796	274	0	-12	127	127	5
-10716	-3084	11288	-113	152	-165	-15080	-3540	-4432	-67	-26	-66	-2804	-2020	16204	34	-113	174	-8976	3432	13684	130	-24	-170	-16096	84	-4148	27	-19	151	-1332	1912	16924	233	9	16	126	127	5
-10688	-3124	11284	-100	148	-169	-15080	-3592	-4340	-9	-31	-68	-2828	-2012	16316	86	-91	158	-9136	3404	13676	118	-45	-161	-16140	52	-3908	37	0	135	-1324	1876	16876	192	-27	66	126	127	5
-10744	-3100	11148	-64	156	-181	-15176	-3560	-4432	9	-1	-22	-2808	-2000	16180	78	-102	111	-9080	3384	13644	121	-78	-176	-16120	-48	-4040	52	5	123	-1316	1860	16876	207	-49	69	127	127	5
-10756	-3096	11200	-46	170	-163	-15136	-3644	-4448	-1	-15	16	-2796	-2008	16252	83	-89	117	-9012	3364	13672	153	-59	-153	-16120	-84	-3988	104	-18	120	-1328	1752	16880	242	-19	55	126	127	5
-10704	-3132	11228	-61	137	-160	-15148	-3528	-4388	35	-33	-7	-2796	-2052	16356	58	-70	91	-9048	3380	13640	115	-35	-186	-16148	-20	-4080	188	3	168	-1320	1804	16884	303	29	27	126	127	5
-10712	-3096	11316	-47	114	-207	-15192	-3560	-4436	53	-27	3	-2868	-1912	16388	74	-115	98	-9016	3388	13580	162	-8	-184	-16156	36	-3964	136	6	165	-1372	1852	16760	285	77	-8	126	127	5
-10756	-3104	11308	-50	138	-152	-15148	-3520	-4500	33	-29	17	-2864	-1908	16272	92	-98	69	-9040	3448	13644	156	-30	-148	-16056	60	-4000	65	-14	189	-1384	1920	16916	285	23	0	126	127	5
-10716	-3076	11104	-91	124	-176	-15164	-3500	-4612	-8	-26	29	-2896	-1944	16340	97	-106	64	-9028	3360	13676	169	-31	-143	-16128	40	-4112	-3	15	178	-1420	1948	16896	254	21	26	127	127	5
-10712	-3056	11216	-86	127	-191	-15148	-3528	-4508	-42	-54	37	-2904	-2004	16204	132	-133	74	-9024	3344	13644	162	-76	-150	-16108	32	-3916	-25	-33	181	-1480	1920	16836	196	6	52	126	127	5
-10776	-3036	11256	-61	119	-149	-15132	-3448	-4668	-48	-91	22	-2904	-1860	16336	132	-161	73	-9000	3408	13628	158	0	-136	-16076	4	-4072	8	-16	172	-1396	1864	16868	210	-1	50	126	127	5
-10764	-3064	11200	-25	113	-205	-15104	-3496	-4460	22	-84	17	-2772	-1848	16240	142	-162	87	-9108	3428	13496	165	-49	-139	-16152	-28	-4040	80	-26	212	-1316	1844	16900	223	-25	41	126	127	5
-10736	-3080	11300	-79	120	-175	-15168	-3440	-4556	43	-54	36	-2828	-1712	16288	98	-125	56	-9056	3416	13648	192	-20	-141	-16100	-24	-3944	116	-10	195	-1360	1840	16820	298	-9	19	126	127	5
-10740	-3120	11348	-44	127	-214	-15212	-3444	-4476	19	-65	-19	-2836	-1800	16324	90	-69	98	-9056	3400	13560	162	-19	-161	-16092	56	-3968	160	-24	153	-1328	1892	16864	232	1	24	126	127	5
-10724	-3096	11344	-61	117	-169	-15188	-3408	-4416	-25	-30	20	-2868	-1736	16320	58	-132	127	-9068	3436	13596	124	-20	-181	-16116	116	-4080	114	-11	184	-1348	1972	16816	267	-31	18	126	127	5
-10648	-3140	11328	-73	119	-194	-15124	-3428	-4448	-58	-76	-50	-2844	-1772	16280	25	-123	149	-9080	3400	13488	173	-13	-161	-16120	172	-4012	78	-25	160	-1316	1976	16864	254	2	50	126	127	5
-10700	-3096	11260	-97	138	-182	-15100	-3500	-4448	6	-74	-48	-2784	-1812	16416	10	-96	146	-9028	3408	13656	153	-53	-173	-16136	96	-4072	8	-29	155	-1340	2000	17016	234	-35	74	126	127	5
-10760	-3092	11316	-45	155	-209	-15180	-3504	-4568	57	-44	-59	-2828	-1832	16224	22	-72	132	-8972	3380	13604	150	-54	-195	-16072	44	-4044	17	-56	154	-1316	1968	16888	188	-21	50	126	127	5
-10740	-3140	11168	-48	183	-170	-15120	-3424	-4508	72	-29	-61	-2848	-1760	16304	7	-96	96	-9052	3412	13740	142	-44	-147	-16136	-8	-4008	90	-17	140	-1276	1948	16844	155	-23	31	126	127	5
-10724	-3080	11184	-90	177	-185	-15092	-3436	-4472	55	-89	-88	-2880	-1800	16260	-55	-65	91	-9032	3428	13560	145	-88	-160	-16072	40	-3968	151	-49	116	-1284	1924	16996	104	-54	11	126	128	5
-10756	-3092	11200	-122	155	-214	-15188	-3432	-4540	-50	-87	-96	-2852	-1824	16380	-70	-104	119	-9052	3392	13652	133	-29	-165	-16136	120	-4012	120	-40	132	-1248	1960	16856	137	-13	-1	127	127	5
-10784	-3056	11256	-105	168	-212	-15192	-3404	-4488	-105	-111	-100	-2864	-1840	16272	-66	-80	165	-9004	3440	13624	127	-50	-194	-16128	104	-3932	86	-42	141	-1256	1972	16896	155	24	-55	127	127	5
-10764	-3140	11168	-120	151	-175	-15148	-3476	-4536	-30	-78	-138	-2872	-1900	16268	-56	-137	166	-9044	3380	13672	159	-37	-127	-16108	80	-3864	67	-36	109	-1248	1972	16848	141	58	0	127	127	5
-10740	-3104	11232	-111	175	-222	-15156	-3560	-4480	45	-46	-112	-2852	-1872	16364	-36	-167	165	-8996	3392	13600	137	-38	-167	-16132	108	-3864	24	-19	122	-1332	1920	16744	130	36	42	127	127	5
-10688	-3072	11216	-94	166	-202	-15136	-3524	-4368	85	-50	-123	-2784	-1832	16280	-7	-158	161	-9020	3372	13572	122	-71	-181	-16092	56	-4016	25	38	82	-1288	1816	16744	83	2	24	126	127	5
-10768	-3120	11276	-117	174	-206	-15164	-3444	-4308	-16	-35	-144	-2768	-1892	16328	-7	-173	159	-9036	3452	13496	139	-52	-171	-16156	20	-3900	42	5	128	-1260	1840	16772	112	53	39	126	127	5
-10772	-3136	11252	-112	188	-203	-15136	-3520	-4484	-92	17	-154	-2748	-1888	16284	-48	-168	155	-9004	3408	13644	113	-77	-181	-16168	0	-4076	60	40	89	-1304	1992	16960	97	18	17	126	127	5
-10732	-3076	11204	-136	176	-188	-15096	-3536	-4364	-57	-35	-157	-2748	-1904	16252	-67	-175	171	-8996	3392	13604	103	-36	-191	-16192	32	-3964	59	46	122	-1236	1920	16816	123	31	-19	126	127	5
-10768	-3092	11216	-108	175	-199	-15160	-3564	-4496	-39	-16	-139	-2840	-1956	16332	-81	-131	150	-9000	3344	13576	107	-26	-191	-16096	108	-4020	30	20	96	-1292	1948	16784	138	24	41	126	127	5
-10800	-3148	11328	-125	192	-212	-15124	-3568	-4572	-34	-41	-105	-2828	-1920	16212	-80	-103	139	-9016	3464	13608	121	-46	-188	-16088	88	-4064	30	29	100	-1388	1952	16972	144	11	44	126	127	5
-10740	-3100	11276	-92	187	-196	-15100	-3548	-4468	-17	-63	-95	-2792	-1940	16256	-54	-138	134	-9060	3472	13560	135	-67	-131	-16116	4	-4048	38	-35	65	-1392	1920	16904	169	30	14	126	127	5
-10748	-3216	11204	-119	181	-190	-15080	-3544	-4520	24	-29	-157	-2936	-1924	16348	-57	-109	137	-9072	3408	13512	141	-33	-179	-16092	28	-3980	53	-51	65	-1412	1944	16944	175	33	43	126	127	5
-10768	-3048	11248	-73	175	-195	-15180	-3548	-4532	26	-39	-127	-2928	-1936	16344	-32	-147	119	-9008	3348	13512	109	-42	-161	-16124	24	-4044	68	-15	46	-1396	1980	16824	108	8	76	126	127	5
-10736	-3108	11268	-110	183	-202	-15152	-3548	-4428	-4	-44	-103	-2856	-1960	16196	-4	-158	167	-9044	3376	13564	133	-106	-198	-16084	-60	-3956	103	-73	29	-1292	1820	16816	92	27	92	126	127	5
-10756	-3120	11272	-111	161	-176	-15060	-3524	-4584	-47	-83	-87	-2824	-1924	16380	20	-128	127	-9032	3364	13580	119	-91	-168	-16144	16	-3940	108	-83	51	-1320	1852	16872	120	11	129	126	127	5
-10736	-3116	11212	-68	145	-210	-15064	-3532	-4592	-72	-64	-102	-2776	-1880	16172	-3	-140	90	-9040	3336	13632	119	-38	-175	-16124	44	-4084	73	-89	68	-1340	1892	16852	161	48	134	126	127	5
-10716	-3100	11168	-100	151	-174	-15164	-3512	-4496	-2	-67	-90	-2736	-1932	16352	-43	-125	110	-9008	3388	13548	137	-57	-157	-16024	-40	-4008	73	-60	88	-1348	1864	16896	162	6	100	126	127	5
-10808	-3036	11172	-101	174	-166	-15084	-3504	-4520	-3	-55	-72	-2852	-1960	16352	-12	-128	176	-9064	3436	13544	135	-82	-128	-16116	72	-4004	83	-81	87	-1396	1884	16848	97	32	78	126	127	5
-10780	-3096	11204	-73	181	-187	-15120	-3476	-4488	-4	-66	-106	-2808	-1972	16192	6	-124	194	-9028	3372	13596	125	-59	-192	-16080	120	-3844	59	-14	76	-1276	1948	16852	48	-22	63	126	127	5
-10736	-3136	11236	-70	184	-175	-15148	-3484	-4512	-3	-64	-127	-2728	-1964	16348	35	-142	169	-9060	3412	13664	110	-23	-190	-16064	-8	-4004	29	-44	79	-1240	1888	16888	36	-35	68	126	127	5
-10724	-3116	11208	-91	176	-199	-15196	-3564	-4424	-23	-51	-130	-2808	-1968	16236	-4	-142	191	-8968	3396	13652	137	-40	-180	-16112	-4	-3912	67	-22	50	-1184	1892	16756	99	-42	95	126	127	5
-10712	-3104	11260	-96	148	-202	-15180	-3612	-4416	-18	-63	-105	-2716	-1948	16340	16	-89	185	-9060	3448	13544	115	-81	-171	-16108	104	-3984	36	-18	53	-1180	1832	16804	158	-4	59	126	127	5
-10780	-3140	11188	-85	165	-160	-15128	-3520	-4500	-3	-10	-68	-2816	-2028	16244	-6	-87	157	-8992	3452	13580	132	-122	-189	-16100	-60	-4024	61	-21	59	-1228	1848	16956	218	25	66	126	127	5
-10760	-3116	11144	-89	132	-211	-15132	-3528	-4492	-50	-63	-91	-2816	-1992	16324	35	-88	151	-9036	3408	13656	144	-87	-165	-16064	4	-3948	36	26	38	-1252	1916	16840	183	40	35	126	127	5
-10740	-3112	11248	-79	136	-187	-15088	-3592	-4508	-30	-12	-77	-2896	-2028	16248	42	-70	154	-9080	3328	13576	120	-38	-169	-16124	8	-3984	77	16	58	-1408	1964	16864	163	20	54	127	127	5
-10780	-3124	11264	-88	171	-146	-15156	-3620	-4416	-26	-33	-60	-2844	-2000	16368	41	-100	180	-9104	3412	13568	127	-84	-157	-16128	20	-4092	67	13	41	-1420	1860	16900	151	-2	79	127	127	5
-10732	-3116	11196	-100	155	-153	-15104	-3612	-4372	-5	-13	-44	-2872	-1984	16340	75	-98	129	-9020	3392	13572	106	-28	-173	-16092	4	-3920	9	-23	53	-1360	1864	16808	123	27	108	126	127	5
-10740	-3128	11244	-75	144	-172	-15116	-3524	-4512	37	-43	13	-2776	-1988	16316	70	-108	83	-9016	3368	13716	142	-74	-181	-16100	-32	-4004	86	-34	59	-1352	1792	16880	106	26	116	127	127	5
-10752	-3072	11204	-55	125	-196	-15128	-3484	-4428	-11	-27	13	-2824	-1920	16264	93	-123	77	-9032	3460	13564	124	-85	-145	-16084	-92	-3948	81	21	93	-1340	1732	16908	129	19	110	126	127	5
-10748	-3104	11280	-53	150	-169	-15128	-3472	-4576	-38	-43	20	-2820	-1864	16264	63	-130	67	-9004	3352	13584	110	-25	-204	-16124	-124	-3912	99	4	94	-1312	1716	16884	167	27	62	127	127	5
-10740	-3116	11256	-53	151	-172	-15164	-3472	-4428	-75	-55	-57	-2864	-1816	16252	28	-94	91	-8976	3360	13672	125	-28	-168	-16064	-124	-3904	64	14	85	-1364	1736	16908	231	34	81	126	127	5
-10736	-3080	11180	-92	162	-165	-15104	-3492	-4464	-68	-58	-20	-2804	-1848	16252	36	-115	143	-9044	3424	13560	140	-42	-163	-16096	-8	-3936	73	-20	145	-1352	1668	16844	229	7	67	126	127	5
-10744	-3148	11296	-87	156	-167	-15080	-3500	-4480	13	-51	-73	-2824	-1896	16292	30	-79	141	-9076	3364	13536	119	-45	-146	-16100	-64	-4016	43	-19	124	-1372	1824	16816	231	10	75	126	127	5
-10692	-3088	11280	-91	134	-204	-15208	-3528	-4532	53	-55	-38	-2856	-1820	16260	63	-97	150	-9016	3380	13732	142	-26	-193	-16096	-92	-4080	61	-29	190	-1272	1808	17004	200	15	41	126	127	5
-10712	-3112	11140	-119	144	-193	-15216	-3496	-4528	70	-25	-77	-2900	-1916	16212	50	-70	186	-9088	3372	13536	165	-28	-166	-16064	-28	-3996	87	-6	175	-1288	1860	16996	196	7	0	127	127	5
-10728	-3128	11304	-119	165	-196	-15124	-3452	-4492	23	-69	-92	-2924	-1856	16220	45	-116	179	-8988	3404	13664	171	-27	-142	-16100	-20	-3952	119	4	175	-1304	1876	17008	204	15	-65	126	127	5
-10680	-3076	11216	-95	134	-189	-15152	-3460	-4444	-11	-100	-56	-2716	-1852	16344	24	-130	206	-9072	3468	13592	179	-65	-123	-16048	-40	-3984	101	7	186	-1360	1904	16888	198	36	-91	126	127	5
-10716	-3120	11192	-105	181	-197	-15144	-3516	-4412	-32	-59	-81	-2748	-1944	16280	-7	-117	196	-9096	3352	13608	157	34	-122	-16124	80	-4060	49	23	151	-1316	1924	16848	189	38	-58	127	127	5
-10752	-3152	11296	-103	141	-209	-15116	-3556	-4436	-52	-30	-67	-2792	-1992	16300	-58	-101	163	-9068	3400	13556	159	-51	-147	-16080	156	-4040	32	1	185	-1304	1964	16808	143	32	-13	127	127	5
-10748	-3136	11168	-74	137	-173	-15080	-3588	-4440	33	-54	-67	-2792	-1992	16248	5	-103	142	-8988	3476	13416	162	-48	-163	-16152	-8	-3892	35	-17	111	-1328	1856	16848	141	33	6	127	127	5
-10752	-3136	11212	-50	167	-187	-15100	-3548	-4580	78	-62	-49	-2896	-1980	16216	71	-152	132	-9028	3396	13684	156	-28	-178	-16068	0	-4004	130	-9	132	-1244	1884	16960	233	78	-38	126	127	5
-10772	-3080	11248	-65	165	-198	-15124	-3516	-4488	47	-51	-64	-2872	-1952	16356	125	-194	191	-9020	3400	13652	145	-44	-154	-16132	-12	-3936	162	32	122	-1304	1764	16912	308	96	5	126	127	5
-10752	-3160	11280	-118	130	-188	-15164	-3464	-4416	-87	-74	-52	-2736	-1840	16296	108	-175	157	-8980	3428	13608	160	-51	-154	-16148	-4	-3956	194	29	110	-1424	1764	16864	308	74	82	126	127	5
-10680	-3100	11332	-91	184	-179	-15184	-3548	-4444	-88	6	-70	-2728	-1876	16324	68	-153	173	-9084	3412	13636	122	-71	-146	-16160	-72	-4076	154	4	142	-1492	1848	16836	316	7	64	126	127	5
-10764	-3180	11252	-71	205	-185	-15152	-3624	-4472	-26	-42	-90	-2796	-1936	16220	31	-117	110	-9000	3372	13568	141	-43	-154	-16144	-52	-4020	99	-25	175	-1492	1836	16864	321	4	40	126	127	5
-10764	-3164	11256	-113	163	-193	-15104	-3616	-4408	59	-10	-74	-2816	-1884	16164	52	-128	121	-9020	3400	13724	151	-24	-169	-16128	-44	-3944	56	9	194	-1424	1948	16804	248	-34	-3	126	127	5
-10756	-3128	11168	-99	159	-176	-15120	-3488	-4372	61	1	-63	-2856	-1872	16180	37	-105	65	-9052	3420	13476	154	-41	-170	-16084	24	-3940	62	-20	180	-1268	1912	16888	151	-32	-100	126	127	5
-10704	-3092	11212	-130	155	-179	-15096	-3560	-4416	39	-16	-58	-2780	-1952	16236	-3	-128	48	-9088	3408	13696	148	-24	-128	-16148	-12	-3936	27	16	212	-1296	1980	16984	137	-50	-171	126	127	5
-10748	-3076	11244	-93	156	-180	-15108	-3572	-4444	27	3	-56	-2836	-1872	16372	-21	-120	40	-9036	3408	13568	166	-9	-185	-16144	16	-3996	24	29	193	-1280	1920	16944	96	-1	-174	126	127	5
-10712	-3088	11248	-114	174	-136	-15128	-3480	-4468	-7	-40	-29	-2816	-2028	16284	16	-155	94	-9100	3392	13628	168	-70	-167	-16092	156	-4084	52	-18	168	-1312	1948	16872	118	-2	-121	126	127	5
-10756	-3100	11284	-70	162	-198	-15080	-3564	-4592	-44	-67	-65	-2808	-1956	16276	47	-150	39	-9000	3332	13564	191	-67	-171	-16148	96	-4068	38	5	162	-1248	2004	16752	85	10	-49	126	127	5
-10696	-3048	11280	-93	158	-190	-15176	-3504	-4488	-3	-74	-16	-2868	-1868	16368	10	-137	98	-9028	3392	13624	172	-27	-126	-16132	112	-3964	39	5	140	-1464	1916	16860	166	8	41	126	127	5
-10700	-3080	11236	-60	166	-182	-15052	-3508	-4460	-4	-57	-59	-2912	-1896	16224	32	-104	167	-9088	3416	13608	102	-29	-160	-16092	16	-3972	75	-45	88	-1508	1816	16868	130	-57	157	126	127	5
-10728	-3060	11188	-42	173	-199	-15108	-3532	-4492	46	-100	-30	-2892	-1880	16264	58	-133	169	-9132	3424	13664	156	-66	-170	-16144	-60	-4108	119	-25	120	-1376	1844	17032	261	-21	145	126	127	5
-10740	-3104	11252	-70	151	-185	-15100	-3448	-4568	21	-78	-52	-2840	-1912	16260	63	-107	129	-8980	3388	13604	144	-2	-166	-16160	-4	-4064	201	-96	102	-1440	1916	16948	294	-9	168	126	127	5
-10764	-3140	11272	-63	152	-201	-15160	-3464	-4556	8	-75	-58	-2848	-1884	16304	27	-91	135	-9024	3396	13676	174	-67	-138	-16112	-20	-3976	162	-68	101	-1364	1864	16820	267	-41	168	126	127	5
-10716	-3116	11324	-118	151	-174	-15104	-3516	-4488	-30	-70	-50	-2884	-1852	16308	3	-142	178	-9024	3444	13568	144	-56	-151	-16136	-40	-4012	99	-80	135	-1284	1820	16856	303	-4	182	126	127	5
-10732	-3148	11220	-88	130	-182	-15072	-3496	-4396	-32	-112	-72	-2860	-1904	16232	-22	-122	146	-9076	3324	13684	154	-71	-153	-16116	-4	-3968	69	-81	120	-1300	1780	16900	242	-42	137	126	127	5
-10692	-3108	11172	-88	136	-231	-15160	-3560	-4488	44	-116	-20	-2808	-1880	16244	6	-126	123	-9000	3364	13560	174	-67	-125	-16080	-108	-3908	89	-39	161	-1236	1748	16956	185	-59	65	126	127	5
-10712	-3088	11280	-64	133	-205	-15164	-3456	-4508	61	-123	-81	-2780	-1896	16416	-17	-128	136	-9028	3364	13608	159	-33	-147	-16144	-28	-3976	88	-5	195	-1172	1808	16836	217	0	3	126	127	5
-10732	-3128	11192	-104	165	-180	-15112	-3524	-4464	-20	-100	-87	-2756	-1868	16376	-42	-115	136	-9052	3428	13568	147	-44	-136	-16152	92	-3892	68	-23	197	-1220	1956	16940	205	29	-20	126	127	5
-10728	-3144	11268	-98	146	-222	-15104	-3496	-4500	-44	-72	-94	-2688	-1884	16232	-93	-88	145	-9024	3376	13672	174	-29	-145	-16104	56	-4032	-2	-17	199	-1412	1876	16888	198	-9	-25	126	127	5
-10684	-3072	11284	-89	150	-170	-15164	-3516	-4376	-54	-118	-115	-2692	-1960	16228	-88	-47	166	-9060	3384	13668	181	-56	-166	-16124	60	-3856	-30	-3	194	-1288	2008	16880	192	4	5	126	127	5
-10676	-3152	11228	-112	133	-212	-15136	-3532	-4404	-64	-56	-91	-2700	-2080	16356	-16	-39	144	-9048	3384	13516	146	-22	-161	-16208	72	-3916	15	-7	149	-1228	2096	16856	204	39	-41	126	127	5
-10660	-3112	11184	-98	163	-174	-15108	-3596	-4396	-7	-64	-104	-2768	-2012	16324	38	-93	129	-9052	3444	13608	132	-72	-131	-16156	92	-4048	42	-22	134	-1152	1944	16808	233	50	-44	126	127	5
-10756	-3132	11304	-81	126	-201	-15124	-3504	-4388	58	-51	-44	-2864	-1964	16316	87	-134	145	-9068	3460	13600	147	-57	-151	-16076	140	-3916	14	-38	115	-1192	2080	16964	218	21	4	126	127	5
-10744	-3120	11156	-91	177	-180	-15164	-3532	-4548	36	-28	-45	-2808	-2024	16352	79	-153	153	-9016	3400	13564	105	-69	-197	-16044	156	-4144	23	-20	99	-1324	2096	16732	157	14	65	126	127	5
-10740	-3108	11216	-59	158	-167	-15120	-3584	-4380	-6	-9	3	-2764	-2000	16288	124	-159	168	-9080	3380	13672	112	-78	-165	-16140	52	-4020	66	6	27	-1392	2028	16920	178	31	126	126	127	5
-10744	-3148	11288	-78	127	-173	-15112	-3700	-4560	33	26	-19	-2760	-1944	16220	78	-197	127	-9024	3432	13664	96	-66	-174	-16152	88	-4044	127	-4	26	-1432	1972	16880	152	11	113	126	127	5
-10756	-3140	11236	-83	171	-146	-15192	-3620	-4504	35	-24	-32	-2764	-1864	16360	29	-117	50	-9052	3376	13580	96	-53	-150	-16120	-40	-4056	184	-41	21	-1332	1980	16936	173	28	133	126	127	5
-10748	-3056	11256	-57	157	-187	-15148	-3424	-4544	29	-19	-12	-2744	-1872	16280	-31	-57	76	-9056	3372	13548	124	-44	-168	-16088	0	-4060	151	-5	-20	-1448	1896	17076	156	2	144	126	127	5
-10724	-3056	11212	-81	124	-191	-15132	-3460	-4512	-57	-10	-47	-2832	-1824	16336	-81	11	56	-9056	3404	13668	119	-96	-209	-16108	-60	-3888	70	-16	36	-1368	1892	16868	129	19	141	126	127	5
-10708	-3148	11264	-69	180	-174	-15144	-3424	-4500	-36	-48	-53	-2860	-1844	16312	-115	11	67	-9028	3404	13620	127	-101	-161	-16100	-52	-3956	27	-1	71	-1368	1796	16932	67	7	88	126	127	5
-10716	-3140	11104	-100	171	-228	-15156	-3468	-4460	-10	-42	-53	-2864	-1852	16272	-108	12	99	-9008	3420	13652	102	-70	-156	-16128	-88	-4016	18	-21	71	-1388	1820	16860	28	15	51	127	127	5
-10700	-3124	11120	-81	157	-206	-15140	-3512	-4464	18	-49	-78	-2916	-1892	16268	-72	-28	125	-9088	3392	13544	125	-58	-144	-16136	-132	-3916	17	-33	102	-1344	1760	16832	24	13	19	127	127	5
-10752	-3072	11240	-92	138	-180	-15204	-3424	-4448	38	-46	-95	-2884	-1828	16428	3	-66	96	-9024	3360	13572	141	-76	-141	-16068	-80	-3836	15	8	166	-1208	1776	16920	113	-33	-50	127	127	5
-10776	-3076	11228	-95	200	-191	-15108	-3464	-4508	67	-39	-100	-2832	-1844	16264	-58	-116	111	-9092	3376	13556	143	7	-172	-16116	0	-4012	54	10	136	-1368	1756	16844	195	57	-45	126	127	5
-10740	-3084	11248	-112	130	-201	-15156	-3452	-4600	-19	-60	-114	-2892	-1852	16256	-48	-130	132	-9068	3352	13616	149	-56	-144	-16112	8	-4028	57	2	130	-1380	1812	16788	208	49	1	126	127	5
-10740	-3120	11248	-79	187	-178	-15148	-3472	-4580	-24	-68	-88	-2848	-1920	16232	-27	-164	188	-9072	3400	13600	142	-9	-151	-16096	36	-3976	83	-35	158	-1400	1848	16860	240	34	7	126	127	5
-10736	-3092	11208	-110	190	-190	-15128	-3584	-4516	-61	-75	-125	-2884	-2076	16300	5	-161	190	-9048	3404	13700	159	-47	-165	-16112	28	-4124	61	-43	118	-1436	2040	16948	154	-5	27	126	127	5
-10732	-3128	11132	-107	175	-167	-15112	-3688	-4436	-5	-57	-123	-2868	-2012	16308	42	-148	191	-9056	3396	13644	153	-16	-154	-16124	84	-4004	63	-49	166	-1404	2068	16924	94	6	40	126	127	5
-10792	-3112	11188	-98	170	-185	-15132	-3612	-4524	33	-72	-89	-2756	-2032	16252	8	-135	207	-9052	3388	13608	124	-48	-156	-16132	124	-4060	68	-36	81	-1300	2056	16908	58	-11	102	126	127	5
-10792	-3132	11196	-68	152	-204	-15088	-3564	-4468	40	-58	-85	-2756	-1980	16360	19	-70	169	-9068	3348	13712	140	-29	-159	-16164	40	-3880	-14	-38	93	-1260	1860	16892	112	41	108	126	127	5
-10736	-3084	11168	-116	119	-196	-15120	-3544	-4544	-13	-78	-70	-2824	-1972	16224	38	-63	188	-9040	3376	13608	119	-83	-161	-16160	84	-3932	14	-2	40	-1248	1852	16820	126	42	97	127	127	5
-10740	-3164	11228	-87	150	-158	-15252	-3628	-4388	-49	-48	-65	-2824	-2100	16296	43	-40	207	-9036	3372	13596	130	-80	-171	-16064	52	-3900	59	-41	51	-1240	1940	16940	138	52	76	126	127	5
-10740	-3156	11220	-112	166	-233	-15172	-3572	-4292	2	-60	-69	-2808	-2064	16340	118	-91	173	-9044	3360	13628	139	-86	-170	-16088	60	-3832	41	-14	56	-1232	1836	16724	114	50	45	126	127	5
-10740	-3140	11284	-99	175	-172	-15144	-3588	-4368	-9	-29	-9	-2788	-2048	16308	133	-154	158	-8988	3400	13668	142	-46	-170	-16128	-72	-3888	43	-21	49	-1340	1764	16872	89	36	74	127	127	5
-10700	-3156	11268	-85	156	-152	-15120	-3528	-4312	36	10	-15	-2660	-1976	16388	129	-155	109	-9032	3400	13612	101	-31	-190	-16136	8	-3932	31	-15	32	-1292	1792	16968	127	13	63	126	127	5
-10744	-3104	11136	-74	172	-162	-15120	-3516	-4424	58	-18	3	-2748	-1940	16200	145	-180	131	-9024	3440	13696	136	-106	-166	-16144	-32	-3988	33	27	15	-1280	1776	16796	210	27	81	126	127	5
-10692	-3156	11304	-98	162	-198	-15140	-3508	-4488	-3	22	-14	-2756	-1896	16256	113	-113	136	-9076	3348	13672	120	-42	-182	-16140	-48	-3904	40	-14	78	-1420	1816	16828	192	57	88	126	127	5
-10768	-3128	11196	-119	168	-184	-15140	-3512	-4604	-50	-23	-50	-2812	-1896	16372	80	-136	136	-9096	3420	13648	86	-46	-199	-16092	-128	-3988	33	-10	67	-1388	1712	17056	175	12	99	126	127	5
-10752	-3108	11272	-88	142	-199	-15124	-3616	-4580	-37	-15	-34	-2844	-1856	16244	37	-46	136	-9116	3360	13672	139	-66	-200	-16136	-188	-3940	80	5	124	-1368	1792	17036	242	0	36	127	127	5
-10752	-3140	11112	-87	186	-146	-15160	-3544	-4544	5	-32	-37	-2888	-1868	16300	-6	-15	140	-9020	3376	13636	146	-11	-151	-16080	-160	-3936	144	-4	137	-1448	1760	16900	266	20	22	127	127	5
-10752	-3132	11244	-85	154	-176	-15180	-3504	-4540	96	-25	-66	-2976	-1916	16212	8	-38	145	-8936	3356	13604	135	-48	-134	-16112	-84	-3900	145	-24	118	-1420	1880	16760	263	22	-32	127	127	5
-10752	-3144	11252	-105	148	-184	-15148	-3556	-4556	70	-29	-55	-2916	-1844	16136	-5	-70	161	-9076	3380	13636	140	-62	-156	-16152	4	-4048	57	4	158	-1376	1904	16800	211	3	3	127	127	5
-10796	-3100	11276	-74	150	-175	-15152	-3564	-4612	53	-54	-33	-2944	-1964	16288	24	-83	160	-9032	3436	13604	162	-19	-139	-16100	-8	-3932	38	-24	174	-1420	1908	16852	158	-12	10	127	127	5
-10748	-3124	11208	-66	156	-215	-15132	-3524	-4488	-18	-25	-42	-2980	-1896	16184	32	-105	128	-9068	3368	13604	157	-38	-140	-16096	-36	-3964	15	-83	195	-1408	1848	16760	106	-47	30	127	127	5
-10724	-3120	11240	-96	157	-223	-15088	-3560	-4500	-30	-68	-41	-2864	-1944	16320	40	-106	143	-9048	3404	13620	155	-65	-134	-16120	-16	-3984	54	-22	198	-1368	1820	16840	115	-40	19	127	127	5
-10740	-3128	11176	-29	158	-178	-15144	-3588	-4284	7	-59	-33	-2844	-1948	16264	64	-123	110	-9004	3388	13616	156	-70	-170	-16132	-64	-3940	105	-20	192	-1336	1804	16864	191	-15	-4	127	127	5
-10784	-3116	11328	-55	156	-189	-15092	-3632	-4396	59	-49	-59	-2812	-1928	16252	39	-103	63	-9012	3420	13616	178	-34	-143	-16076	-8	-3960	109	-28	201	-1320	1772	16836	223	-17	-42	127	127	5
-10732	-3140	11212	-105	133	-191	-15144	-3476	-4420	35	-48	6	-2796	-1948	16236	30	-139	76	-9036	3368	13512	156	-38	-174	-16120	32	-3960	113	-7	168	-1244	1832	16844	255	-3	-52	127	127	5
-10684	-3188	11336	-58	161	-181	-15120	-3540	-4488	11	-44	-70	-2792	-1952	16220	8	-86	92	-9036	3408	13652	164	-60	-126	-16168	76	-3804	108	-22	161	-1228	1880	16904	324	-16	-19	127	127	5
-10716	-3152	11176	-73	173	-184	-15136	-3540	-4448	19	-60	-29	-2736	-1916	16280	23	-75	87	-9012	3408	13704	145	-19	-156	-16176	56	-3880	75	-41	147	-1324	1864	16860	391	7	29	127	127	5
-10712	-3144	11200	-71	165	-178	-15152	-3600	-4396	17	-26	-46	-2736	-1904	16260	16	-114	67	-9048	3412	13540	165	-65	-145	-16072	12	-3940	28	32	207	-1344	1844	16936	379	9	71	127	127	5
-10676	-3136	11184	-78	162	-172	-15164	-3500	-4456	13	9	-41	-2780	-1912	16320	-35	-108	36	-9008	3396	13700	150	-55	-170	-16076	20	-3924	17	73	163	-1332	1864	16948	402	4	99	127	127	5
-10724	-3140	11236	-66	153	-194	-15112	-3560	-4440	-14	-56	-11	-2840	-1952	16292	-51	-62	71	-9044	3448	13720	132	-20	-181	-16144	-84	-3988	88	13	152	-1380	1936	16944	359	-14	48	126	128	5
-10792	-3168	11224	-58	138	-173	-15168	-3556	-4516	-10	-56	-39	-2912	-1932	16196	-37	-26	62	-9060	3436	13600	162	-42	-151	-16124	-80	-3988	145	-21	164	-1432	2004	16844	292	1	20	126	128	5
-10692	-3092	11220	-91	149	-170	-15076	-3604	-4508	2	-21	32	-2988	-2076	16192	24	-76	75	-9040	3368	13544	130	-11	-165	-16108	28	-4180	168	-17	209	-1412	2004	16904	267	-8	-42	126	128	5
-10704	-3172	11164	-57	125	-193	-15144	-3620	-4636	51	-75	-9	-3012	-1956	16280	99	-132	92	-8984	3404	13648	178	-34	-175	-16156	112	-3940	53	-46	174	-1444	1988	16856	236	-37	14	126	127	5
-10740	-3120	11300	-54	150	-173	-15156	-3596	-4580	49	-54	-12	-3032	-1940	16280	121	-166	41	-9056	3456	13572	151	-27	-141	-16104	112	-4128	-29	-37	165	-1352	1964	17004	177	-21	68	126	128	5
-10688	-3100	11192	-31	125	-168	-15156	-3444	-4604	24	-39	23	-2888	-1936	16288	106	-159	48	-9016	3384	13664	165	-48	-133	-16208	32	-4048	-36	-90	118	-1316	1812	16960	190	0	82	126	128	5
-10744	-3124	11224	-76	149	-148	-15168	-3456	-4488	14	-83	-4	-2992	-1928	16224	92	-137	19	-8964	3376	13592	144	-70	-156	-16148	-92	-4044	60	-107	167	-1312	1824	16916	254	27	98	126	127	5
-10796	-3144	11188	-60	139	-182	-15120	-3404	-4512	-30	-108	4	-2924	-1832	16304	77	-135	49	-9076	3396	13556	148	-32	-153	-16088	24	-3984	125	-79	161	-1332	1884	16840	260	-18	77	126	127	5
-10728	-3056	11164	-58	102	-194	-15120	-3440	-4476	20	-106	-5	-2840	-1776	16288	76	-151	92	-9036	3460	13580	172	-23	-168	-16084	72	-3980	164	-43	164	-1380	1928	16936	271	-40	76	126	127	5
-10756	-3084	11236	-77	166	-188	-15160	-3412	-4548	9	-134	-39	-2728	-1772	16228	58	-187	142	-9084	3404	13560	159	-13	-183	-16088	52	-3916	117	-41	175	-1312	2008	16872	266	-25	71	126	128	5
-10724	-3044	11208	-84	122	-196	-15088	-3344	-4448	14	-105	-74	-2724	-1812	16224	9	-163	164	-9052	3396	13588	163	-40	-157	-16164	124	-3920	46	-30	146	-1260	2016	16780	256	-14	107	126	127	5
-10704	-3072	11272	-74	150	-183	-15132	-3404	-4484	-13	-92	-63	-2772	-1828	16288	36	-147	176	-9080	3428	13632	143	-32	-148	-16140	120	-4096	4	-42	145	-1256	2016	16764	190	-45	81	126	127	5
-10724	-3124	11324	-116	191	-195	-15120	-3488	-4404	30	-33	-112	-2788	-1848	16304	-31	-140	208	-9016	3408	13548	151	-14	-177	-16132	80	-3876	-16	-36	152	-1312	1972	16796	133	-34	43	126	128	5
-10712	-3076	11292	-67	172	-223	-15156	-3472	-4504	41	-79	-106	-2756	-1964	16444	-15	-117	189	-9012	3412	13604	142	-20	-147	-16180	68	-4004	40	-63	147	-1252	1976	16836	147	-31	11	126	127	5
-10680	-3136	11292	-103	166	-204	-15168	-3504	-4412	28	-67	-110	-2776	-1900	16224	-19	-97	153	-9000	3372	13604	123	-11	-192	-16056	128	-4104	92	-9	98	-1308	1952	16800	131	10	-13	126	127	5
-10760	-3092	11336	-107	169	-210	-15048	-3500	-4536	-31	-48	-115	-2808	-1908	16188	-26	-145	180	-9064	3460	13596	120	-21	-177	-16128	56	-3972	110	-50	103	-1184	1892	17012	158	15	1	126	127	5
-10708	-3188	11176	-131	166	-189	-15136	-3520	-4368	-47	-56	-116	-2788	-1876	16232	-29	-108	145	-9008	3380	13740	111	-66	-140	-16128	84	-3988	110	-14	84	-1300	2040	16732	126	26	29	126	127	5
-10696	-3120	11340	-118	209	-208	-15140	-3572	-4424	-30	-41	-137	-2832	-1888	16292	-27	-118	138	-9068	3348	13544	127	-90	-183	-16080	20	-3968	69	-42	71	-1396	2000	16860	96	47	4	126	127	5
-10740	-3120	11152	-75	187	-186	-15140	-3496	-4372	1	12	-163	-2776	-1900	16380	-17	-99	124	-9056	3444	13600	143	-55	-176	-16104	100	-3996	82	15	59	-1364	1992	17020	64	45	-15	126	127	5
-10756	-3196	11208	-95	143	-201	-15080	-3468	-4476	12	-30	-136	-2848	-1988	16256	-22	-153	114	-9056	3364	13568	129	-81	-180	-16160	116	-3952	39	-25	79	-1272	1976	16892	53	6	24	126	127	5
-10708	-3164	11256	-118	186	-191	-15096	-3564	-4572	21	-9	-128	-2780	-1884	16304	-31	-188	93	-9060	3360	13576	111	-31	-167	-16188	-12	-4000	-6	19	35	-1312	1884	16764	58	12	44	126	127	5
-10800	-3132	11224	-116	187	-209	-15108	-3476	-4456	2	5	-136	-2776	-1812	16404	-22	-206	100	-9048	3420	13616	112	-49	-188	-16132	-16	-3924	-5	-19	54	-1320	1932	16892	41	14	36	126	127	5
-10724	-3064	11192	-109	168	-174	-15128	-3432	-4640	-36	-25	-141	-2764	-1820	16220	-66	-190	92	-9056	3404	13616	142	-76	-165	-16152	32	-4104	44	2	39	-1324	1884	16916	61	-7	47	126	127	5
-10752	-3076	11340	-128	180	-182	-15160	-3436	-4452	-93	-16	-155	-2800	-1864	16276	-121	-125	125	-9052	3396	13584	99	-58	-173	-16152	44	-3996	84	-42	57	-1396	1948	16924	81	18	73	126	127	5
-10740	-3136	11172	-119	175	-192	-15204	-3484	-4528	-10	-56	-143	-2840	-1960	16264	-126	-93	131	-9004	3372	13556	116	-76	-142	-16060	-8	-4068	95	-44	46	-1304	1988	16904	60	38	113	126	127	5
-10716	-3068	11332	-145	226	-207	-15188	-3556	-4544	8	-23	-134	-2880	-2028	16292	-101	-67	146	-9012	3424	13712	130	-36	-175	-16124	32	-3908	100	-37	14	-1292	1828	16804	102	6	124	126	127	5
-10740	-3136	11316	-133	197	-183	-15180	-3508	-4532	51	-44	-106	-2852	-1972	16240	-77	-98	137	-9092	3432	13588	113	-47	-180	-16060	44	-3968	77	-114	29	-1348	1812	16844	61	6	122	127	127	5
-10668	-3108	11232	-109	170	-232	-15168	-3608	-4620	74	-74	-114	-2932	-2060	16312	-72	-51	142	-9020	3348	13672	73	-105	-144	-16120	12	-3908	67	-52	29	-1216	1844	16900	107	-5	82	127	127	5
-10764	-3124	11160	-134	164	-194	-15100	-3536	-4404	70	-94	-120	-2944	-2084	16216	-18	-104	190	-9092	3360	13668	108	-127	-172	-16120	16	-3868	111	-63	-3	-1188	1848	16720	76	-1	86	127	127	5
-10820	-3172	11152	-96	147	-222	-15060	-3640	-4428	-74	-107	-103	-2880	-2064	16188	38	-148	194	-9064	3372	13620	103	-96	-150	-16140	56	-3864	40	-7	7	-1152	1736	16984	28	14	152	126	127	5
-10752	-3152	11224	-97	173	-206	-15168	-3600	-4480	-102	-118	-68	-2808	-2044	16288	75	-148	202	-9024	3416	13520	114	-78	-144	-16124	-44	-3912	-4	35	5	-1152	1744	16772	50	7	146	126	127	5
-10704	-3088	11268	-69	166	-211	-15092	-3560	-4332	-111	-79	-76	-2704	-2092	16236	148	-221	259	-9028	3400	13584	100	-59	-167	-16156	-16	-3976	-27	42	6	-1168	1712	16820	170	35	179	126	127	5
-10756	-3056	11188	-89	158	-169	-15160	-3644	-4348	-75	-76	-69	-2684	-2056	16280	176	-230	216	-8972	3380	13676	101	-42	-197	-16100	-120	-3932	-29	48	14	-1244	1724	16904	222	85	200	126	127	5
-10688	-3108	11180	-87	181	-167	-15096	-3580	-4304	-6	-32	-14	-2552	-1996	16304	166	-210	189	-9080	3388	13696	108	-57	-227	-16144	-76	-4056	32	54	34	-1408	1728	16900	330	101	171	126	127	5
-10808	-3084	11236	-44	164	-124	-15128	-3552	-4496	14	-5	-31	-2540	-1972	16224	127	-184	177	-9012	3444	13608	115	-50	-186	-16068	-136	-3964	72	35	66	-1380	1740	16920	356	79	179	126	127	5
-10712	-3080	11252	-37	150	-177	-15124	-3572	-4444	2	43	14	-2604	-1940	16352	110	-95	96	-9032	3464	13696	98	-51	-186	-16080	-128	-4008	134	57	64	-1420	1800	16844	399	83	112	126	127	5
-10672	-3092	11232	-31	145	-126	-15124	-3540	-4376	-14	42	3	-2708	-1952	16344	77	-85	82	-9016	3444	13596	137	-63	-187	-16148	-180	-4104	170	38	115	-1516	1860	16916	328	39	81	126	127	5
-10712	-3136	11240	-36	121	-180	-15104	-3528	-4364	-16	69	12	-2776	-1900	16280	103	-37	33	-9024	3384	13720	150	-93	-152	-16128	-64	-4044	148	2	157	-1512	1912	16880	165	-25	38	126	127	5
-10764	-3160	11212	-48	148	-156	-15124	-3508	-4540	26	8	51	-2940	-1988	16276	108	-46	59	-9000	3368	13632	147	-45	-153	-16112	-44	-4056	103	2	200	-1384	1908	16992	188	-25	-71	126	127	5
-10752	-3092	11304	-16	130	-176	-15128	-3544	-4468	35	12	36	-2972	-1964	16204	61	-69	-22	-9060	3352	13680	163	-34	-172	-16120	-88	-3992	107	-2	157	-1348	1900	16844	99	-6	-132	126	127	5
-10756	-3152	11192	-78	133	-160	-15164	-3464	-4524	58	35	79	-3000	-1892	16228	121	-73	-13	-9072	3368	13712	162	-23	-124	-16132	-56	-3996	57	6	232	-1352	1844	16888	70	-9	-172	126	127	5
-10724	-3044	11260	-16	100	-164	-15076	-3452	-4500	56	22	6	-2928	-1916	16268	136	-103	-37	-9044	3416	13612	172	-51	-166	-16048	20	-3956	50	-30	234	-1332	1792	16836	113	-68	-104	126	127	5
-10688	-3100	11196	-65	115	-203	-15068	-3476	-4448	78	4	14	-2864	-1844	16184	148	-109	-8	-9016	3380	13664	170	-35	-148	-16104	-12	-3928	26	-23	192	-1220	1868	16872	172	-21	-102	126	127	5
-10740	-3096	11260	-50	123	-186	-15140	-3504	-4504	34	-19	77	-2884	-1832	16436	141	-143	57	-9036	3432	13612	174	-48	-145	-16108	-44	-4008	87	-45	232	-1264	1832	16872	259	-2	-58	126	127	5
-10744	-3060	11216	-69	150	-156	-15136	-3452	-4612	-24	-14	-39	-2840	-1816	16380	171	-163	48	-9092	3304	13644	136	-44	-167	-16092	12	-3988	171	16	210	-1276	1752	16808	264	-12	-22	126	127	5
-10724	-3048	11324	-74	111	-159	-15148	-3484	-4532	-34	-37	-37	-2876	-1904	16348	146	-157	77	-8996	3456	13700	173	-11	-192	-16092	16	-3992	148	-19	203	-1288	1800	16820	315	-31	25	126	127	5
-10732	-3044	11200	-32	149	-172	-15096	-3424	-4560	-4	-43	-3	-2812	-1824	16284	154	-165	119	-9008	3412	13676	157	18	-121	-16068	-8	-3960	121	0	197	-1368	1868	16920	327	-47	114	125	127	5
-10728	-3132	11284	-57	131	-169	-15176	-3516	-4520	-20	-40	-52	-2756	-1880	16352	152	-124	184	-9104	3416	13616	172	-26	-164	-16080	48	-3892	146	0	191	-1216	1992	16936	391	-9	105	126	127	5
-10712	-3112	11292	-94	128	-193	-15144	-3496	-4388	21	-50	7	-2768	-1896	16212	138	-140	150	-9048	3340	13556	158	-50	-140	-16164	-28	-4048	75	2	164	-1336	1840	16872	373	9	128	126	127	5
-10768	-3060	11264	-117	122	-184	-15076	-3468	-4404	50	-43	-21	-2772	-1860	16400	103	-97	142	-8988	3412	13664	155	-28	-144	-16108	-40	-3964	60	-13	193	-1304	1936	16764	312	-13	73	126	127	5
-10776	-3120	11232	-63	122	-194	-15148	-3472	-4448	8	-44	-24	-2844	-1860	16280	74	-80	178	-9092	3384	13732	175	-11	-123	-16144	-24	-4008	89	10	180	-1268	1960	16948	224	25	0	126	127	5
-10728	-3108	11220	-86	122	-208	-15132	-3420	-4500	-35	-39	-19	-2812	-1872	16232	128	-79	131	-9028	3384	13640	161	-43	-149	-16104	24	-4128	101	0	175	-1420	1924	16832	256	14	6	126	127	5
-10736	-3128	11204	-57	173	-160	-15144	-3480	-4432	-44	-81	-58	-2784	-1780	16256	30	-57	153	-9008	3392	13560	156	-24	-130	-16108	60	-4036	95	-39	137	-1384	1916	16928	209	31	4	126	127	5
-10752	-3148	11340	-118	129	-185	-15148	-3500	-4460	-31	-55	-27	-2708	-1816	16316	16	-41	81	-9044	3320	13688	166	-61	-141	-16096	72	-3968	31	17	188	-1336	1896	16908	276	45	84	126	127	5
-10744	-3088	11260	-99	143	-187	-15176	-3488	-4468	-6	-45	-89	-2768	-1864	16272	12	-82	95	-9084	3344	13628	152	-33	-145	-16156	96	-4084	28	-2	155	-1256	1908	16812	256	-46	102	126	127	5
-10748	-3080	11204	-77	116	-199	-15092	-3436	-4552	8	-62	-77	-2884	-1796	16364	-4	-71	106	-9048	3344	13552	155	-75	-168	-16028	-12	-4036	92	-13	127	-1228	1868	16836	284	-76	139	126	127	5
-10788	-3072	11284	-71	162	-214	-15112	-3440	-4456	-29	-26	-97	-2904	-1768	16172	-7	-107	93	-8992	3424	13628	157	-72	-138	-16116	-28	-4056	153	11	176	-1316	1860	16816	331	24	137	126	127	5
-10696	-3088	11232	-93	157	-242	-15164	-3368	-4564	-46	-51	-99	-2872	-1816	16348	-33	-77	127	-9064	3440	13616	141	-26	-170	-16180	-52	-4036	197	-39	150	-1308	1920	16788	414	33	140	126	127	5
-10780	-3136	11212	-99	149	-157	-15116	-3432	-4624	-62	-61	-141	-2836	-1756	16340	-36	-89	136	-8968	3400	13620	165	-36	-190	-16072	64	-4044	166	16	146	-1336	1980	16896	445	61	113	126	128	5
-10776	-3064	11196	-142	164	-185	-15112	-3400	-4420	-73	-86	-148	-2740	-1728	16348	-54	-33	159	-9092	3408	13688	164	-27	-136	-16104	28	-3952	75	-3	140	-1284	2008	16948	383	74	128	126	128	5
-10760	-3076	11244	-128	215	-207	-15164	-3496	-4408	1	-107	-160	-2808	-1784	16400	-83	-31	163	-9072	3388	13624	176	-48	-190	-16120	84	-4020	-15	-28	146	-1368	2036	16872	356	68	170	126	128	5
-10736	-3136	11312	-132	202	-224	-15124	-3492	-4540	7	-94	-151	-2848	-1824	16308	-115	9	176	-9048	3420	13588	129	-51	-148	-16128	48	-4012	-15	-43	132	-1384	2040	16864	246	49	154	126	128	5
-10700	-3128	11268	-139	192	-226	-15172	-3532	-4484	-8	-91	-223	-2816	-1888	16276	-146	-10	207	-9032	3388	13692	178	-35	-150	-16132	-4	-4052	19	11	140	-1348	2044	16888	216	-5	133	126	128	5
-10712	-3068	11204	-127	193	-245	-15096	-3520	-4360	21	-80	-174	-2780	-1968	16388	-137	-35	207	-9092	3388	13628	131	-29	-160	-16132	-4	-4092	73	-56	147	-1316	1972	16940	216	54	12	126	128	5
-10688	-3164	11180	-159	189	-185	-15160	-3536	-4452	-2	-64	-168	-2900	-2032	16296	-86	-134	171	-9036	3348	13608	158	-26	-165	-16128	60	-4092	116	-37	188	-1252	2056	16848	180	0	-1	126	128	5
-10756	-3156	11216	-146	175	-214	-15184	-3540	-4312	13	-80	-178	-2868	-1984	16260	-56	-127	140	-9048	3408	13560	143	-32	-188	-16160	88	-3940	142	-30	165	-1248	2092	16824	151	-51	43	127	128	5
-10740	-3108	11228	-127	188	-185	-15108	-3584	-4524	-44	-35	-150	-2828	-2008	16188	-118	-144	144	-9096	3372	13624	138	-65	-130	-16140	88	-3916	35	-14	131	-1268	1960	16864	174	37	56	127	128	5
-10768	-3136	11208	-106	147	-189	-15052	-3660	-4516	-62	-56	-120	-2752	-2084	16300	-80	-117	140	-9028	3432	13624	123	-74	-133	-16192	20	-3988	67	-19	120	-1280	2032	16832	284	23	41	126	128	5
-10776	-3160	11200	-100	171	-211	-15088	-3616	-4512	-46	-52	-119	-2808	-2104	16276	-74	-108	143	-8988	3424	13560	146	-81	-161	-16096	60	-4076	74	15	116	-1364	1992	16884	233	10	34	126	128	5
-10784	-3104	11196	-76	141	-193	-15104	-3640	-4484	40	-32	-105	-2808	-1952	16336	18	-132	100	-9092	3368	13644	131	-86	-166	-16080	8	-4048	69	-21	120	-1412	2032	16920	225	-18	61	127	127	5
-10704	-3164	11180	-53	131	-203	-15124	-3592	-4508	15	-25	-61	-2844	-1960	16276	35	-167	123	-9036	3404	13556	172	-48	-170	-16160	0	-3980	83	-60	64	-1364	2036	16960	192	-12	35	126	127	5
-10668	-3092	11176	-69	166	-188	-15156	-3608	-4468	20	-85	-85	-2908	-1940	16388	53	-126	145	-9012	3396	13672	168	-89	-143	-16112	44	-4096	112	-65	85	-1384	1956	16948	195	20	3	127	127	5
-10756	-3060	11204	-52	164	-181	-15084	-3532	-4440	-21	-102	-61	-2884	-1944	16384	62	-140	154	-9028	3292	13588	138	-62	-162	-16120	68	-4132	102	-86	140	-1376	1964	16824	148	46	31	126	127	5
-10712	-3096	11288	-78	153	-224	-15128	-3560	-4452	-22	-125	-99	-2804	-1940	16344	74	-117	182	-9044	3412	13712	139	-74	-154	-16096	108	-4012	48	-96	90	-1404	1992	16824	95	42	72	126	127	5
-10668	-3116	11200	-64	178	-191	-15120	-3572	-4432	24	-104	-68	-2824	-1960	16376	72	-106	155	-9088	3428	13544	148	-74	-158	-16108	-44	-3976	-10	-47	113	-1268	1908	16940	94	57	18	127	127	5
-10708	-3048	11332	-87	138	-198	-15164	-3520	-4612	15	-46	-65	-2744	-1868	16224	33	-94	104	-9096	3408	13592	149	-59	-184	-16180	-36	-3888	45	-20	112	-1264	1876	16888	99	68	48	127	127	5
-10712	-3128	11184	-77	159	-200	-15172	-3560	-4480	53	-68	-66	-2832	-1860	16284	47	-86	134	-9016	3356	13500	131	-16	-155	-16176	-60	-3960	90	-13	144	-1268	1864	16856	181	33	25	127	127	5
-10720	-3132	11244	-85	173	-173	-15120	-3468	-4472	21	-72	-82	-2808	-1828	16292	49	-94	151	-9064	3372	13648	168	-16	-154	-16136	-52	-4024	118	-15	155	-1216	1904	16912	197	53	-15	127	127	5
-10780	-3088	11224	-72	149	-169	-15068	-3488	-4444	-31	-83	-70	-2788	-1848	16400	26	-91	165	-9016	3416	13552	136	-72	-133	-16060	20	-3916	136	-12	144	-1176	1840	16876	256	51	-34	126	127	5
-10672	-3100	11204	-89	161	-204	-15128	-3512	-4452	-104	-87	-99	-2696	-1800	16352	34	-104	149	-9044	3384	13588	190	-36	-128	-16088	84	-3928	86	-18	145	-1128	1880	16796	397	106	-48	126	127	5
-10788	-3140	11124	-131	166	-199	-15180	-3552	-4452	-46	-52	-112	-2728	-1844	16392	-35	-65	153	-9036	3420	13628	157	-34	-145	-16104	96	-3952	41	22	149	-1296	2008	16768	452	166	8	126	127	5
-10732	-3152	11320	-125	200	-153	-15148	-3596	-4436	10	-47	-111	-2740	-1900	16264	-104	-76	140	-9020	3432	13540	143	-46	-152	-16060	56	-4016	-10	46	139	-1372	2060	16764	392	145	55	126	127	5
-10768	-3124	11280	-98	183	-204	-15084	-3544	-4460	6	11	-125	-2840	-1936	16312	-85	-82	194	-9040	3448	13556	130	-51	-157	-16100	32	-3984	8	25	136	-1504	2016	16924	357	84	78	126	127	5
-10752	-3120	11308	-120	169	-164	-15060	-3536	-4520	20	51	-80	-2900	-1924	16268	-70	-94	165	-9012	3400	13520	129	-22	-148	-16120	-64	-4044	76	50	132	-1472	2096	16800	377	19	75	127	127	5
-10728	-3080	11168	-96	154	-217	-15088	-3544	-4552	-23	3	-83	-2888	-1992	16300	-67	-126	168	-9084	3408	13588	153	-13	-147	-16092	76	-4080	142	71	91	-1548	2156	16844	295	59	109	127	127	5
-10736	-3092	11344	-93	179	-192	-15120	-3580	-4468	-52	-3	-52	-2896	-2000	16388	-59	-97	89	-9080	3432	13620	119	-32	-154	-16116	104	-4048	184	6	133	-1528	2120	16844	236	32	107	127	128	5
-10756	-3180	11248	-99	155	-192	-15116	-3628	-4644	-50	-34	-60	-2944	-1928	16256	-60	-23	102	-9016	3412	13512	146	-70	-188	-16128	148	-4028	100	-36	104	-1400	2024	16824	197	55	208	126	128	5
-10760	-3156	11168	-64	148	-173	-15108	-3548	-4592	-3	-64	-97	-2900	-2004	16376	-77	-40	43	-9080	3444	13572	99	-27	-176	-16152	88	-4068	43	-53	77	-1448	2104	16812	171	46	227	126	128	5
-10780	-3132	11192	-102	155	-210	-15120	-3572	-4524	-28	-87	-63	-2916	-1948	16296	-65	-39	87	-9044	3408	13656	118	-39	-145	-16088	-24	-3944	-14	-43	102	-1420	2036	16924	44	7	158	126	128	5
-10704	-3156	11348	-74	168	-179	-15112	-3580	-4484	-19	-117	-68	-2868	-1936	16276	-60	-32	88	-9044	3436	13532	121	-20	-130	-16104	-84	-4012	23	-65	105	-1312	1948	16924	25	-18	109	126	128	5
-10728	-3044	11320	-71	120	-202	-15096	-3520	-4504	27	-96	-44	-2816	-1876	16128	-59	-64	76	-9116	3436	13580	170	-83	-147	-16144	-76	-4028	110	-70	99	-1216	1892	16800	32	-4	43	126	128	5
-10724	-3152	11208	-88	171	-165	-15112	-3416	-4464	7	-124	-109	-2816	-1812	16416	-59	-73	30	-9016	3360	13552	168	-30	-153	-16104	24	-3904	140	-70	118	-1232	1904	16812	185	33	-27	126	128	5
-10736	-3120	11252	-83	160	-204	-15112	-3400	-4488	-72	-80	-82	-2840	-1800	16316	-92	-81	98	-9024	3404	13612	106	-45	-131	-16116	80	-3984	106	-24	152	-1224	1912	16892	229	55	-75	126	127	5
-10668	-3044	11356	-96	193	-210	-15148	-3492	-4364	-85	-68	-103	-2852	-1900	16340	-135	-116	127	-8996	3528	13540	155	-23	-148	-16112	0	-3824	85	36	167	-1284	1920	16800	233	26	-52	126	127	5
-10716	-3144	11188	-98	171	-167	-15180	-3524	-4492	-32	-29	-149	-2768	-1924	16252	-125	-108	160	-9056	3440	13708	130	-27	-175	-16136	-24	-3944	50	54	164	-1420	1964	16908	277	10	-37	126	127	5
-10768	-3088	11300	-100	210	-167	-15088	-3552	-4428	-25	-37	-192	-2788	-2032	16280	-94	-153	197	-9080	3432	13632	154	-41	-147	-16028	-8	-3920	122	47	179	-1468	2048	16880	224	-11	-36	126	127	5
-10740	-3108	11168	-71	171	-171	-15024	-3572	-4560	49	-15	-151	-2792	-1936	16260	-55	-121	186	-9056	3360	13540	144	-15	-164	-16148	-48	-3884	104	11	209	-1360	1900	16776	219	-31	-66	126	127	5
-10764	-3064	11204	-76	169	-190	-15040	-3452	-4548	4	-49	-161	-2920	-1860	16308	-54	-92	211	-9032	3356	13512	129	-56	-151	-16136	12	-4104	98	37	177	-1420	1948	16864	274	-1	-49	126	127	5
-10744	-3092	11320	-107	195	-192	-15128	-3508	-4544	-129	-29	-147	-2920	-1808	16408	-129	-68	243	-9048	3408	13656	141	17	-189	-16136	4	-4044	106	-16	221	-1432	1912	16868	241	-32	-15	126	127	5
-10752	-3104	11124	-135	174	-183	-15164	-3644	-4352	-157	-53	-152	-2920	-2068	16320	-146	-90	265	-8956	3268	13584	163	-34	-120	-16156	8	-4060	126	-43	210	-1436	2024	16940	221	0	-36	127	127	5
-10724	-3140	11228	-137	201	-200	-15112	-3744	-4368	-45	-75	-153	-2884	-2160	16256	-96	-112	201	-9052	3440	13516	114	-14	-174	-16092	100	-4020	89	-41	212	-1388	2076	16800	239	10	-79	126	127	5
-10788	-3048	11240	-82	182	-216	-15044	-3760	-4536	198	-24	-122	-2844	-2232	16280	-8	-116	124	-8952	3412	13640	179	-9	-157	-16176	128	-4144	27	-41	180	-1312	2136	16840	224	18	-49	126	127	5
-10728	-3176	11276	-108	178	-187	-15172	-3620	-4512	209	-33	-93	-2924	-2140	16260	19	-100	110	-9100	3376	13612	163	7	-144	-16148	136	-4080	16	-29	178	-1320	2132	16868	195	23	30	126	127	5
-10760	-3204	11164	-112	190	-187	-15108	-3584	-4588	40	-56	-78	-2844	-2148	16324	24	-102	57	-9040	3468	13496	168	-79	-142	-16140	212	-4008	-19	-15	148	-1292	2204	16920	199	16	81	126	127	5
-10804	-3132	11248	-85	159	-174	-15096	-3672	-4336	-83	-51	-69	-2824	-2088	16276	17	-108	75	-8992	3376	13552	126	13	-179	-16096	172	-4008	35	-63	110	-1300	2188	16840	106	-47	113	127	127	5
-10728	-3068	11196	-100	161	-213	-15124	-3732	-4524	-54	-84	-38	-2836	-2204	16360	14	-96	67	-9088	3392	13648	146	-66	-177	-16088	136	-3896	41	-36	66	-1324	2120	16860	49	-12	105	127	127	5
-10708	-3100	11128	-98	123	-171	-15108	-3652	-4520	-82	-61	11	-2908	-2240	16176	30	-85	98	-9044	3388	13628	134	-64	-160	-16100	72	-3992	83	-25	64	-1228	2116	16848	42	-43	58	127	127	5
-10744	-3096	11260	-95	162	-166	-15048	-3680	-4536	60	-22	69	-2892	-2232	16268	79	-104	57	-9000	3428	13580	105	-98	-180	-16148	120	-3996	92	-52	57	-1260	2016	16808	57	-21	85	126	127	5
-10764	-3152	11148	-46	145	-158	-15116	-3692	-4516	148	-72	78	-2984	-2148	16296	129	-200	40	-8988	3428	13596	131	-63	-174	-16108	12	-3972	76	-4	37	-1292	2052	16900	42	-13	75	126	127	5
-10780	-3148	11216	0	109	-145	-15088	-3616	-4528	210	-28	62	-2988	-2160	16236	220	-273	56	-9100	3400	13700	149	-50	-182	-16116	-12	-3976	33	-31	52	-1284	1984	16912	6	13	57	126	127	5
-10816	-3080	11276	-19	110	-163	-15072	-3604	-4468	97	-27	89	-2884	-2028	16288	315	-329	58	-9072	3428	13600	104	-74	-147	-16112	12	-4056	8	-49	51	-1468	2128	16936	-43	1	-13	126	127	5
-10792	-3096	11140	-20	106	-151	-15104	-3488	-4484	-29	-40	113	-2764	-1888	16384	311	-324	99	-9048	3376	13664	131	-83	-185	-16108	-12	-4064	15	-34	58	-1448	1904	16888	-95	-43	28	126	127	5
-10704	-3176	11220	-17	98	-157	-15160	-3476	-4540	-111	-34	96	-2668	-1800	16344	214	-243	77	-9040	3400	13532	115	-102	-156	-16080	108	-4064	16	-52	55	-1304	1744	16812	101	14	53	126	127	5
-10712	-3152	11228	-56	97	-126	-15120	-3508	-4484	-80	-61	71	-2660	-1820	16256	101	-131	111	-9028	3356	13648	108	-62	-189	-16120	-8	-4092	16	-25	49	-1436	1880	17052	200	20	28	126	127	5
-10788	-3148	11296	-51	120	-154	-15140	-3480	-4424	-47	-54	35	-2708	-1808	16408	86	-27	113	-9056	3392	13624	139	2	-189	-16156	-72	-3952	34	-30	95	-1448	1892	16804	221	-9	11	126	127	5
-10704	-3136	11300	-64	151	-173	-15156	-3496	-4368	80	-65	43	-2780	-1892	16364	30	-24	133	-9100	3416	13676	156	31	-146	-16088	12	-3924	107	-43	101	-1328	1964	16908	185	11	48	126	127	5
-10748	-3088	11148	-35	175	-164	-15120	-3500	-4428	179	-26	43	-2840	-1880	16308	43	-61	173	-9048	3400	13684	138	-65	-118	-16068	112	-3940	76	-21	130	-1380	2068	16792	63	-45	45	126	127	5
-10720	-3112	11144	-15	130	-156	-15100	-3580	-4496	170	-50	-13	-2820	-1872	16272	97	-108	131	-9044	3388	13528	162	-95	-146	-16132	52	-4056	62	-38	102	-1400	2072	16892	-12	-102	13	126	127	5
-10804	-3068	11180	-77	189	-194	-15108	-3464	-4524	103	-36	-19	-2948	-1896	16216	119	-159	39	-9024	3352	13640	117	-26	-175	-16116	16	-4016	101	-21	151	-1196	1964	16872	-25	-99	-37	126	127	5
-10736	-3092	11204	-26	141	-164	-15140	-3456	-4472	-40	-55	5	-2876	-1788	16320	47	-195	12	-9044	3468	13588	128	-22	-155	-16116	-8	-3920	58	-18	142	-1200	1912	16872	-56	-70	-130	126	127	5
-10740	-3096	11152	-88	123	-160	-15156	-3396	-4548	-139	-37	-37	-2960	-1804	16284	7	-218	26	-9060	3396	13632	152	-40	-174	-16188	96	-3912	38	13	86	-1120	1900	16852	75	-19	-113	126	127	5
-10708	-3124	11200	-90	140	-160	-15188	-3436	-4376	-133	-65	-62	-2916	-1760	16348	-19	-277	103	-8988	3388	13596	180	-68	-201	-16084	80	-3900	-38	-7	122	-1224	1984	16796	51	47	-113	126	126	5
-10716	-3060	11272	-81	152	-184	-15168	-3444	-4516	-106	-41	-85	-2816	-1868	16288	66	-292	197	-9088	3400	13564	138	-62	-179	-16076	68	-3940	-29	-4	79	-1316	1960	16820	100	26	-62	126	127	5
-10708	-3128	11264	-98	161	-186	-15140	-3432	-4488	62	-8	-104	-2740	-1936	16292	91	-251	249	-9072	3324	13560	102	-89	-133	-16148	76	-4208	23	-52	64	-1464	1988	16876	148	41	14	126	126	5
-10744	-3128	11128	-113	158	-207	-15120	-3532	-4384	130	-27	-155	-2716	-1856	16264	112	-141	204	-9104	3420	13556	121	-39	-193	-16092	60	-4032	67	-80	51	-1448	1956	16856	157	9	104	126	127	5
-10752	-3136	11268	-108	185	-204	-15108	-3460	-4472	162	3	-157	-2716	-1788	16300	59	-146	165	-9080	3420	13556	112	-64	-140	-16148	156	-4084	123	-21	75	-1432	1988	16928	286	42	141	126	127	5
-10684	-3124	11196	-133	152	-218	-15104	-3360	-4552	-3	-25	-185	-2704	-1708	16356	-4	-99	159	-9024	3364	13632	120	-65	-169	-16108	108	-3996	144	-77	33	-1344	2068	16864	288	1	86	126	127	5
-10768	-3088	11208	-113	187	-177	-15180	-3288	-4468	-144	-59	-226	-2656	-1780	16332	-159	43	236	-9068	3432	13448	84	-43	-173	-16152	100	-3948	114	-34	34	-1312	2236	16944	88	-57	-20	126	127	5
-10720	-3120	11312	-142	196	-172	-15252	-3484	-4480	-295	-86	-213	-2780	-2016	16368	-285	155	397	-9048	3316	13508	108	-31	-197	-16036	176	-4024	72	-53	-2	-1272	2208	16904	-219	-174	23	127	127	5
-10740	-3148	11272	-154	246	-206	-15080	-3764	-4404	-188	-7	-165	-2968	-2288	16348	-211	78	392	-9052	3344	13460	98	-113	-173	-16116	156	-3984	-77	22	-22	-1224	1840	16992	-217	-99	48	127	127	5
-10744	-3156	11144	-91	195	-191	-15012	-4028	-4420	192	-5	-102	-3020	-2456	16200	47	-81	345	-8984	3364	13656	98	-87	-167	-16120	-4	-4040	-122	-53	-21	-1148	1784	16864	-22	-47	74	127	127	5
-10748	-3176	11172	-51	178	-182	-15072	-3800	-4536	429	5	-102	-2940	-2336	16164	179	-187	262	-9016	3312	13720	102	-120	-159	-16084	-72	-4088	2	-54	-48	-1320	1816	16800	-53	-7	58	127	127	5
-10764	-3096	11212	-2	151	-151	-15072	-3604	-4448	172	-7	-27	-2940	-2168	16280	330	-232	150	-9056	3360	13552	90	-23	-204	-16140	-88	-3948	95	-68	-35	-1296	1804	16904	-32	-11	57	127	127	5
-10732	-3180	11172	-42	91	-163	-15156	-3544	-4512	-88	-38	-14	-2988	-2008	16240	261	-277	97	-9100	3500	13632	132	-34	-175	-16148	-92	-3912	157	-40	8	-1200	1584	16856	-8	22	126	127	127	5
-10756	-3180	11260	-52	97	-149	-15164	-3556	-4536	-221	-64	40	-2788	-1876	16384	173	-217	112	-9052	3288	13604	108	-85	-180	-16100	-144	-3920	113	-25	36	-1328	1600	16924	113	14	149	127	127	5
-10748	-3132	11220	-61	111	-145	-15140	-3524	-4536	-262	-72	21	-2844	-1904	16328	143	-241	41	-9024	3404	13616	112	-80	-158	-16104	-152	-4096	86	-36	75	-1324	1628	16844	211	2	93	127	127	5
-10692	-3152	11264	-78	113	-162	-15216	-3648	-4420	-134	-93	44	-2780	-1888	16372	158	-172	66	-9076	3388	13632	123	-53	-154	-16184	-156	-3912	45	-19	116	-1368	1676	16916	331	40	122	127	127	5
-10768	-3160	11216	-36	150	-161	-15124	-3484	-4592	171	-66	74	-2728	-1820	16248	123	-145	68	-9092	3356	13576	149	-58	-156	-16132	-152	-4008	30	-46	156	-1456	1736	16852	364	52	102	127	127	5
-10728	-3060	11256	-21	147	-152	-15056	-3432	-4596	254	-99	42	-2676	-1720	16308	109	-80	78	-9068	3388	13592	122	-112	-142	-16204	-88	-4036	-6	-8	170	-1360	1776	16860	312	55	84	127	127	5
-10764	-3048	11316	-65	133	-172	-15168	-3372	-4496	177	-107	-11	-2716	-1704	16164	71	-111	85	-9088	3436	13552	156	3	-175	-16116	-124	-3944	9	-18	193	-1312	1760	16908	315	47	25	127	127	5
-10772	-3092	11244	-58	136	-237	-15144	-3340	-4428	-28	-83	-40	-2820	-1760	16304	5	-58	127	-9108	3380	13648	164	-69	-166	-16124	-16	-3952	68	-21	186	-1260	1772	16848	471	105	-34	127	127	5
-10728	-3132	11304	-116	149	-159	-15204	-3336	-4504	-180	-109	-46	-2796	-1732	16352	-3	-92	151	-9064	3392	13712	211	-31	-144	-16084	60	-3992	91	26	227	-1288	1884	16792	433	79	-129	126	127	5
-10660	-3104	11256	-118	180	-194	-15156	-3492	-4460	-209	-57	-100	-2796	-1952	16384	2	-186	210	-9048	3464	13644	168	-56	-142	-16036	156	-4056	71	16	215	-1404	2220	16964	372	7	-203	127	127	5
