#Activity	sitting 
#ActivityID	5 
#Date 10-07-17-20
acc_rf_x	acc_rf_y	acc_rf_z	gyro_rf_x	gyro_rf_y	gyro_rf_z	acc_rs_x	acc_rs_y	acc_rs_z	gyro_rs_x	gyro_rs_y	gyro_rs_z	acc_rt_x	acc_rt_y	acc_rt_z	gyro_rt_x	gyro_rt_y	gyro_rt_z	acc_lf_x	acc_lf_y	acc_lf_z	gyro_lf_x	gyro_lf_y	gyro_lf_z	acc_ls_x	acc_ls_y	acc_ls_z	gyro_ls_x	gyro_ls_y	gyro_ls_z	acc_lt_x	acc_lt_y	acc_lt_z	gyro_lt_x	gyro_lt_y	gyro_lt_z	EMG_r	EMG_l	act
-11312	-3112	10672	-100	146	-152	-15660	1544	-5440	50	-52	149	-2720	-5468	15596	5	-147	187	-10320	1552	13136	102	-52	-162	-14776	-3976	-5324	13	-78	-58	-1600	-492	16924	174	0	74	123	115	5
-11392	-3160	10888	-118	117	-152	-15648	1532	-5476	53	-42	135	-2720	-5512	15528	17	-132	175	-10332	1568	13188	102	-2	-177	-14672	-3968	-5520	0	-55	-79	-1552	-468	16996	168	-23	83	123	115	5
-11356	-3108	10796	-99	148	-159	-15676	1512	-5524	57	-23	125	-2684	-5496	15600	35	-132	147	-10448	1524	13140	110	-42	-158	-14788	-3956	-5432	22	-12	-72	-1564	-460	16948	185	-17	82	123	115	5
-11364	-3156	10832	-105	157	-135	-15616	1568	-5420	68	14	158	-2652	-5500	15592	43	-91	174	-10396	1564	13068	100	-63	-147	-14832	-3980	-5344	18	-33	-58	-1576	-508	17008	174	-3	46	123	115	5
-11364	-3044	10844	-124	120	-164	-15624	1444	-5400	38	-4	118	-2680	-5496	15668	55	-90	171	-10384	1516	13136	120	-25	-144	-14768	-4004	-5512	8	-2	-101	-1540	-472	16912	164	10	40	123	115	5
-11356	-3092	10724	-86	131	-181	-15632	1496	-5440	64	-28	136	-2644	-5464	15492	18	-133	180	-10408	1572	13112	106	-29	-163	-14772	-3924	-5488	1	-10	-123	-1624	-484	17012	196	27	48	123	115	5
-11356	-3116	10888	-112	152	-169	-15636	1488	-5496	65	-22	184	-2704	-5484	15592	28	-96	148	-10412	1588	13072	134	-18	-145	-14752	-3992	-5480	-12	-44	-73	-1628	-428	16964	191	4	55	123	115	5
-11376	-3116	10744	-112	131	-157	-15688	1496	-5460	82	17	158	-2648	-5508	15560	47	-97	132	-10404	1640	13184	66	25	-185	-14692	-3944	-5492	19	-5	-65	-1624	-496	17020	181	22	73	123	115	5
-11324	-3108	10776	-85	192	-136	-15672	1492	-5320	61	18	159	-2708	-5488	15504	38	-116	135	-10428	1516	13072	124	0	-157	-14748	-3984	-5464	22	-13	-80	-1616	-428	16956	164	-18	40	123	115	5
-11304	-3108	10768	-75	148	-148	-15668	1464	-5424	63	22	183	-2696	-5536	15592	62	-101	136	-10388	1580	13192	117	4	-163	-14788	-3964	-5520	5	-49	-72	-1576	-504	17028	149	-7	20	123	115	5
-11368	-3108	10908	-134	147	-152	-15612	1496	-5304	99	45	181	-2640	-5452	15504	31	-117	158	-10364	1532	13084	121	-26	-156	-14672	-3908	-5408	-13	2	-123	-1580	-516	17044	157	-28	45	123	115	5
-11372	-3076	10884	-71	143	-125	-15684	1572	-5380	80	42	174	-2680	-5496	15596	53	-135	182	-10456	1472	13156	55	14	-175	-14656	-3980	-5552	-38	28	-92	-1588	-480	17076	179	8	28	123	115	5
-11376	-3100	10836	-121	113	-145	-15600	1560	-5424	75	27	163	-2688	-5524	15632	46	-142	180	-10452	1588	13124	75	15	-167	-14724	-3980	-5568	-12	25	-100	-1648	-524	16944	162	-11	48	123	115	5
-11384	-3096	10824	-81	127	-147	-15620	1488	-5576	89	34	162	-2772	-5520	15652	24	-102	184	-10336	1548	13208	76	-17	-187	-14716	-4016	-5520	-24	-27	-117	-1692	-520	17084	154	23	26	123	115	5
-11404	-3040	10828	-111	133	-139	-15672	1556	-5576	74	50	132	-2816	-5524	15664	2	-110	176	-10360	1564	13120	82	16	-152	-14696	-3980	-5620	-2	-5	-84	-1760	-460	16924	154	-17	68	123	115	5
-11380	-3092	10868	-111	141	-157	-15644	1460	-5544	48	-1	140	-2836	-5480	15616	5	-129	197	-10392	1512	13128	74	-23	-161	-14652	-3932	-5500	29	9	-52	-1716	-428	17004	171	-2	78	123	115	5
-11292	-3056	10780	-116	117	-140	-15632	1504	-5524	47	-2	110	-2828	-5516	15488	26	-150	172	-10368	1540	13032	138	-62	-148	-14744	-3968	-5560	6	-55	-81	-1708	-428	16992	194	-5	91	123	115	5
-11336	-3064	10856	-119	137	-174	-15652	1504	-5388	67	-34	137	-2772	-5512	15592	17	-112	171	-10416	1564	13140	138	-35	-189	-14712	-3936	-5476	-2	-56	-76	-1692	-492	17112	186	18	86	123	115	5
-11372	-3012	10788	-110	135	-183	-15608	1556	-5524	60	-21	133	-2748	-5564	15616	56	-115	156	-10380	1540	13076	141	-53	-164	-14736	-3964	-5456	32	-58	-70	-1652	-492	16916	156	-38	62	123	115	5
-11384	-3132	10880	-103	131	-185	-15664	1472	-5476	64	-85	127	-2720	-5532	15584	41	-125	163	-10444	1500	13196	101	-26	-155	-14744	-3968	-5488	17	-59	-62	-1604	-468	17008	152	-25	72	123	115	5
-11412	-3136	10808	-119	132	-169	-15652	1464	-5516	51	-27	159	-2728	-5456	15524	37	-116	155	-10372	1560	13184	79	-17	-146	-14720	-3960	-5416	-6	-57	-90	-1616	-476	16916	123	-20	49	123	115	5
-11316	-3056	10776	-124	153	-187	-15688	1496	-5428	58	-63	160	-2680	-5524	15616	41	-112	175	-10360	1620	13136	135	-41	-175	-14736	-3944	-5460	24	-78	-73	-1668	-528	17032	166	-32	62	123	115	5
-11348	-3012	10768	-98	104	-157	-15604	1524	-5400	41	-32	148	-2680	-5532	15564	-5	-149	153	-10372	1604	13140	105	-45	-158	-14696	-3972	-5516	29	-50	-97	-1616	-496	16984	180	-60	58	123	115	5
-11380	-3108	10756	-97	138	-153	-15640	1508	-5532	56	-52	142	-2712	-5536	15556	46	-109	163	-10392	1544	13028	87	-31	-179	-14736	-4012	-5496	8	-25	-107	-1636	-428	16880	168	-8	70	123	115	5
-11384	-3056	10904	-130	135	-172	-15684	1516	-5508	55	-37	131	-2736	-5476	15484	55	-142	153	-10412	1604	13104	107	13	-157	-14744	-4004	-5424	41	-72	-81	-1644	-488	16920	190	-29	44	123	115	5
-11324	-3092	10884	-133	151	-142	-15628	1552	-5360	47	-45	160	-2676	-5456	15512	35	-121	160	-10368	1596	13140	135	-52	-148	-14752	-3888	-5568	25	-81	-93	-1592	-448	16916	177	-4	53	123	115	5
-11296	-3160	10748	-103	122	-184	-15604	1512	-5500	78	-18	160	-2716	-5500	15568	24	-107	168	-10328	1524	13212	81	17	-182	-14660	-3900	-5476	-1	-37	-70	-1608	-444	17088	171	-6	51	123	115	5
-11348	-3064	10868	-125	165	-167	-15612	1552	-5372	62	-14	147	-2712	-5484	15548	-25	-112	156	-10480	1580	13204	82	-23	-159	-14780	-3980	-5452	-34	-44	-92	-1592	-464	16920	173	-2	24	123	115	5
-11324	-3032	10852	-132	145	-191	-15624	1524	-5412	65	12	153	-2660	-5480	15588	-17	-140	159	-10396	1552	13192	117	-32	-166	-14760	-3996	-5476	5	-36	-85	-1576	-488	17012	122	29	77	123	115	5
-11356	-3140	10772	-125	125	-163	-15644	1552	-5468	51	0	145	-2704	-5544	15668	-5	-125	164	-10400	1516	13068	89	-13	-138	-14736	-4000	-5444	24	-35	-99	-1676	-524	16944	174	-34	56	123	115	5
-11308	-3112	10748	-107	130	-174	-15688	1484	-5320	51	19	136	-2704	-5540	15612	-5	-124	190	-10324	1548	13088	97	-9	-161	-14708	-3940	-5500	21	-62	-79	-1632	-496	16968	176	10	72	123	115	5
-11316	-3104	10852	-100	152	-190	-15596	1488	-5456	36	1	154	-2736	-5556	15592	35	-112	168	-10400	1504	13244	65	-50	-141	-14704	-3976	-5576	19	-25	-84	-1672	-432	16988	197	-9	85	123	115	5
-11336	-3084	10836	-85	121	-134	-15596	1600	-5436	65	-1	163	-2756	-5500	15512	31	-118	168	-10384	1552	13160	90	-38	-160	-14712	-4008	-5476	-10	12	-65	-1664	-460	16916	174	3	72	123	115	5
-11396	-3052	10824	-95	138	-150	-15696	1556	-5556	76	-16	145	-2708	-5504	15548	27	-124	149	-10424	1456	13112	93	-18	-152	-14688	-3976	-5540	16	-43	-58	-1632	-468	17000	154	-14	76	123	115	5
-11344	-3048	10948	-92	108	-164	-15680	1556	-5444	83	30	137	-2744	-5504	15496	31	-107	174	-10380	1548	13152	110	-27	-182	-14680	-4004	-5648	46	-78	-100	-1684	-528	16976	145	-15	37	123	115	5
-11348	-3076	10796	-105	111	-165	-15604	1504	-5532	16	-67	156	-2764	-5464	15632	20	-102	164	-10388	1548	13104	119	-7	-113	-14688	-3968	-5476	-13	-45	-87	-1692	-496	16980	149	12	70	122	115	5
-11396	-3028	10860	-82	115	-138	-15652	1492	-5512	58	-21	136	-2724	-5504	15568	36	-120	165	-10320	1484	13132	109	-47	-148	-14700	-3900	-5588	19	-50	-66	-1704	-476	16956	138	-34	41	123	115	5
-11352	-3116	10832	-130	121	-150	-15592	1524	-5524	43	-10	128	-2660	-5520	15584	23	-110	176	-10360	1540	13232	101	-23	-162	-14636	-3952	-5484	-6	-58	-67	-1580	-484	17032	169	-54	74	123	115	5
-11348	-3112	10856	-112	144	-154	-15652	1520	-5444	64	-60	136	-2696	-5536	15596	13	-125	185	-10424	1576	13112	91	-1	-162	-14804	-3964	-5492	35	-42	-76	-1604	-436	17240	176	-5	47	123	115	5
-11340	-3060	10824	-104	155	-148	-15636	1548	-5504	48	-28	141	-2684	-5544	15544	52	-148	165	-10376	1572	13120	81	-35	-165	-14716	-4008	-5384	46	-34	-59	-1564	-480	17000	200	-9	45	122	115	5
-11372	-3116	10720	-135	142	-171	-15624	1552	-5348	65	-13	116	-2660	-5484	15628	7	-157	195	-10344	1584	13016	90	-9	-167	-14708	-3972	-5476	38	-24	-62	-1596	-432	17036	178	-8	65	123	115	5
-11344	-3028	10812	-103	144	-158	-15600	1496	-5476	53	5	142	-2712	-5488	15512	32	-139	188	-10404	1580	13012	90	-14	-149	-14696	-3932	-5444	43	-31	-81	-1564	-448	16964	177	-11	42	123	115	5
-11396	-3080	10748	-106	125	-169	-15620	1552	-5532	57	12	141	-2680	-5508	15604	2	-154	178	-10428	1612	13188	105	-47	-200	-14684	-3904	-5556	-10	-40	-102	-1588	-472	17032	178	-19	65	123	115	5
-11312	-3044	10796	-81	139	-176	-15660	1444	-5412	67	24	141	-2716	-5488	15656	18	-118	142	-10432	1540	13180	111	-57	-143	-14700	-3996	-5528	19	-22	-68	-1680	-444	16996	170	-3	68	123	115	5
-11388	-3072	10824	-119	155	-142	-15592	1500	-5520	55	30	149	-2684	-5464	15600	17	-121	170	-10396	1548	13156	117	-19	-172	-14712	-3972	-5468	16	-31	-100	-1680	-408	17084	173	-35	50	123	115	5
-11296	-3108	10824	-96	132	-156	-15648	1600	-5560	48	-23	124	-2728	-5508	15584	42	-91	148	-10484	1528	13216	74	-69	-167	-14700	-3908	-5524	-9	-78	-76	-1636	-408	16880	165	-19	49	123	115	5
-11360	-3140	10764	-119	126	-176	-15632	1548	-5472	48	-32	116	-2732	-5496	15512	52	-121	160	-10324	1548	13136	77	-32	-163	-14748	-3988	-5412	16	-46	-82	-1652	-392	16996	170	-21	85	123	115	5
-11360	-3024	10912	-104	121	-144	-15632	1508	-5452	93	-7	165	-2772	-5496	15476	16	-97	143	-10396	1624	13136	81	-19	-151	-14760	-3956	-5568	17	-38	-121	-1572	-456	17004	129	-21	84	123	115	5
-11316	-3144	10840	-110	148	-139	-15660	1520	-5488	26	-4	139	-2708	-5472	15592	-17	-146	172	-10380	1560	13156	88	-46	-154	-14764	-3924	-5456	39	-57	-138	-1680	-516	17016	153	-25	78	123	115	5
-11376	-3088	10796	-101	139	-175	-15648	1512	-5308	55	18	105	-2720	-5544	15604	-17	-150	198	-10348	1580	13152	132	-41	-167	-14712	-3980	-5408	29	-41	-75	-1604	-476	16964	161	-8	70	123	115	5
-11332	-3068	10768	-101	132	-158	-15684	1532	-5424	79	-30	119	-2752	-5512	15548	-5	-118	207	-10432	1588	13068	136	-66	-156	-14732	-3984	-5392	-7	-65	-100	-1616	-528	16920	138	-27	56	123	115	5
-11380	-3124	10796	-110	110	-167	-15588	1516	-5436	83	-5	139	-2720	-5440	15504	29	-159	163	-10348	1524	13136	75	-46	-144	-14636	-3944	-5476	-19	-47	-90	-1664	-536	17008	142	10	60	123	115	5
-11324	-3144	10812	-91	134	-103	-15660	1512	-5440	74	11	122	-2672	-5488	15544	-4	-132	146	-10380	1540	13188	100	-18	-162	-14660	-3992	-5512	-48	-10	-106	-1628	-548	16928	183	-39	48	123	115	5
-11400	-3092	10824	-87	134	-150	-15684	1440	-5408	98	-16	135	-2696	-5592	15568	51	-136	184	-10424	1604	13248	79	-22	-160	-14716	-4028	-5424	17	-29	-106	-1708	-480	16948	177	-45	29	123	115	5
-11340	-3052	10824	-91	162	-175	-15676	1504	-5364	88	14	149	-2752	-5452	15516	15	-144	173	-10400	1544	13148	104	-24	-185	-14700	-3968	-5528	-27	-6	-75	-1636	-440	16988	213	-51	28	123	115	5
-11304	-3160	10816	-52	125	-168	-15604	1464	-5456	89	3	154	-2724	-5556	15484	33	-83	184	-10428	1572	13100	65	-9	-182	-14716	-3936	-5552	8	-24	-36	-1652	-420	16936	180	19	-13	122	115	5
-11408	-3112	10772	-105	130	-158	-15688	1520	-5424	60	27	133	-2796	-5484	15516	50	-123	191	-10352	1616	13152	83	-5	-132	-14648	-3904	-5620	5	-41	-85	-1728	-484	16944	181	22	49	123	115	5
-11432	-3136	10712	-92	133	-160	-15620	1488	-5524	68	-48	145	-2752	-5488	15564	2	-118	137	-10392	1584	13080	99	21	-137	-14652	-3956	-5500	-5	-38	-50	-1708	-464	17032	190	-24	92	123	115	5
-11356	-3100	10768	-125	163	-162	-15656	1460	-5536	61	-27	123	-2776	-5528	15616	33	-125	157	-10408	1516	13168	114	-27	-159	-14696	-3984	-5564	18	-59	-57	-1696	-408	17016	262	-21	91	123	115	5
-11392	-3036	10808	-154	136	-186	-15604	1500	-5560	66	-16	152	-2728	-5584	15496	66	-145	182	-10392	1564	13196	127	-3	-164	-14728	-3996	-5488	1	-66	-71	-1724	-428	16996	162	7	76	123	115	5
-11372	-3076	10800	-103	140	-172	-15696	1532	-5444	93	-79	123	-2680	-5504	15512	34	-123	158	-10372	1556	13136	99	-38	-145	-14768	-3952	-5472	19	-59	-95	-1596	-440	16936	119	-3	75	123	115	5
-11424	-3060	10776	-134	133	-170	-15612	1568	-5460	104	-48	151	-2624	-5496	15620	77	-108	135	-10372	1552	13164	132	-62	-147	-14712	-3952	-5456	40	-25	-53	-1592	-444	17044	133	-25	94	123	115	5
-11352	-3164	10900	-93	148	-155	-15640	1500	-5476	40	-13	131	-2676	-5472	15636	23	-135	131	-10392	1536	13124	122	-41	-140	-14704	-3896	-5460	27	-43	-66	-1604	-500	17024	207	-18	43	123	115	5
-11356	-3096	10916	-108	149	-203	-15668	1484	-5556	42	-5	123	-2668	-5484	15604	2	-120	125	-10376	1600	13148	66	14	-166	-14684	-4024	-5600	8	-63	-72	-1604	-492	16916	151	19	56	123	115	5
-11396	-3124	10692	-87	135	-182	-15664	1512	-5408	90	-45	141	-2724	-5552	15620	-13	-124	185	-10392	1584	13168	95	7	-146	-14692	-3920	-5408	-4	-5	-103	-1584	-452	16964	177	-14	34	123	115	5
-11372	-3092	10736	-109	159	-154	-15672	1520	-5520	49	-34	145	-2704	-5460	15600	30	-115	152	-10456	1604	13092	113	-48	-197	-14712	-3944	-5332	0	-55	-94	-1668	-508	16964	156	-11	27	123	115	5
-11416	-3068	10728	-99	147	-170	-15692	1532	-5408	81	-18	155	-2752	-5536	15544	52	-125	171	-10360	1532	13204	69	-3	-157	-14732	-3944	-5484	30	-71	-89	-1624	-468	16932	161	-6	68	123	115	5
-11372	-3100	10784	-138	156	-163	-15640	1528	-5512	67	5	162	-2716	-5440	15568	26	-146	188	-10324	1588	13124	101	-8	-159	-14740	-3992	-5400	-10	-25	-96	-1608	-468	17016	194	-2	50	123	115	5
-11296	-3096	10800	-103	176	-174	-15680	1588	-5552	76	-1	157	-2728	-5520	15560	32	-142	154	-10412	1556	13144	124	-27	-165	-14716	-3984	-5564	16	-24	-99	-1624	-456	16888	179	-36	43	123	115	5
-11340	-3060	10832	-121	149	-142	-15628	1404	-5416	62	-19	167	-2732	-5484	15576	-11	-141	170	-10404	1532	13096	103	-28	-172	-14728	-3956	-5528	27	-74	-113	-1644	-456	17136	145	-6	71	123	115	5
-11316	-3156	10864	-94	115	-148	-15648	1540	-5456	48	12	149	-2740	-5496	15652	-24	-122	162	-10392	1560	13104	115	-14	-161	-14708	-3956	-5496	-13	-38	-89	-1660	-412	16916	122	-12	70	123	115	5
-11296	-3080	10784	-89	140	-166	-15676	1500	-5464	69	-29	139	-2804	-5508	15548	47	-125	192	-10316	1544	13132	80	-16	-158	-14728	-3960	-5504	29	-38	-78	-1632	-472	17000	174	-23	65	123	115	5
-11344	-3152	10800	-101	116	-148	-15692	1464	-5480	41	-15	142	-2696	-5504	15592	12	-129	161	-10408	1572	13132	93	-48	-176	-14780	-4040	-5456	40	-60	-90	-1608	-460	16948	239	-3	68	123	115	5
-11380	-3120	10776	-109	158	-146	-15700	1496	-5368	43	1	125	-2640	-5508	15660	22	-136	179	-10412	1572	13244	113	-56	-153	-14760	-3972	-5548	0	5	-42	-1644	-384	17036	147	-33	65	123	115	5
-11308	-3072	10760	-84	144	-170	-15628	1484	-5532	66	16	135	-2668	-5512	15628	30	-93	163	-10416	1516	13172	112	-34	-150	-14708	-3952	-5508	27	-40	-75	-1608	-508	17116	161	-11	65	123	115	5
-11320	-3096	10856	-88	137	-126	-15600	1572	-5380	61	-15	140	-2664	-5500	15552	19	-122	157	-10368	1508	13112	111	-7	-172	-14708	-3928	-5556	-3	-32	-102	-1608	-528	16964	160	-21	40	123	115	5
-11384	-3128	10852	-91	131	-142	-15660	1560	-5580	37	1	162	-2736	-5492	15572	-3	-119	176	-10404	1572	13080	89	-17	-136	-14724	-3980	-5528	8	-34	-79	-1596	-492	16956	194	-26	32	122	115	5
-11412	-3092	10820	-77	126	-154	-15648	1560	-5464	45	5	184	-2776	-5484	15628	14	-110	174	-10368	1520	13092	106	-46	-156	-14704	-3908	-5468	36	-38	-92	-1656	-472	16912	208	-10	50	123	115	5
-11380	-3124	10804	-110	162	-143	-15624	1468	-5404	26	-41	156	-2740	-5552	15532	28	-123	173	-10412	1540	13104	67	-27	-179	-14744	-3944	-5552	-23	-43	-65	-1704	-452	16880	160	-13	51	123	115	5
-11368	-3068	10792	-101	118	-188	-15576	1476	-5488	70	-8	105	-2804	-5476	15624	28	-138	168	-10440	1572	13092	106	-28	-159	-14724	-3952	-5480	14	-15	-92	-1680	-436	17012	153	-26	72	123	115	5
-11376	-3096	10804	-135	140	-168	-15604	1568	-5536	33	-22	118	-2768	-5440	15608	44	-149	173	-10392	1580	13136	142	-30	-175	-14732	-3984	-5488	25	-44	-72	-1652	-480	16936	152	-17	45	123	115	5
-11352	-3120	10876	-149	141	-174	-15596	1488	-5524	76	-30	141	-2764	-5512	15516	2	-129	160	-10324	1500	13196	112	13	-164	-14708	-3900	-5488	32	-66	-79	-1680	-464	17008	184	-6	92	123	115	5
-11324	-3072	10828	-123	174	-171	-15624	1488	-5636	47	-1	179	-2692	-5428	15632	45	-105	182	-10396	1544	13172	86	-53	-149	-14788	-3948	-5500	-2	-28	-102	-1592	-420	16880	173	-5	68	123	115	5
-11320	-3156	10916	-130	117	-171	-15620	1532	-5444	59	-25	150	-2720	-5452	15468	36	-138	181	-10400	1532	13156	74	-47	-141	-14696	-3952	-5540	-15	-44	-53	-1648	-524	16916	151	-27	98	123	115	5
-11388	-3108	10872	-142	155	-188	-15684	1556	-5528	60	22	141	-2668	-5524	15524	35	-83	174	-10392	1540	13156	102	2	-189	-14732	-3916	-5388	15	-49	-43	-1632	-472	16952	154	6	85	123	115	5
-11372	-3088	10840	-116	144	-153	-15668	1516	-5400	58	-24	154	-2636	-5468	15628	22	-101	159	-10388	1552	13088	110	-59	-145	-14772	-3916	-5620	42	-43	-95	-1628	-504	16948	129	-13	73	123	115	5
-11444	-3112	10860	-121	141	-139	-15696	1516	-5516	89	-30	136	-2728	-5512	15644	14	-116	194	-10332	1564	13188	84	-31	-156	-14720	-3976	-5604	18	-17	-85	-1612	-456	17044	185	-21	66	123	115	5
-11320	-3100	10740	-90	127	-183	-15712	1524	-5480	61	-49	157	-2736	-5484	15616	50	-131	194	-10372	1604	13184	98	-52	-154	-14668	-3984	-5604	22	-78	-59	-1632	-444	16880	220	-13	76	123	115	5
-11380	-3068	10876	-128	133	-152	-15684	1524	-5392	83	-5	164	-2724	-5480	15580	33	-135	182	-10348	1588	13068	71	-32	-163	-14760	-4000	-5496	6	-53	-67	-1632	-440	16892	167	-27	67	123	115	5
-11380	-3040	10776	-103	141	-143	-15628	1540	-5520	76	-27	117	-2724	-5472	15552	33	-117	185	-10400	1588	13104	117	-18	-165	-14768	-3948	-5508	-7	-35	-145	-1636	-456	16984	177	-5	91	123	115	5
-11344	-3104	10724	-129	135	-166	-15612	1584	-5412	61	-34	121	-2748	-5488	15568	-22	-143	166	-10408	1588	13144	106	-33	-135	-14704	-3936	-5492	33	-52	-126	-1640	-476	16944	137	-12	64	123	115	5
-11384	-3080	10836	-101	121	-180	-15592	1524	-5432	51	-4	139	-2692	-5444	15640	-9	-122	150	-10396	1580	13132	122	-18	-163	-14644	-3992	-5584	-16	-67	-136	-1632	-464	16932	180	3	72	123	115	5
-11340	-3156	10752	-86	134	-162	-15580	1464	-5440	46	-31	148	-2624	-5516	15612	6	-115	166	-10412	1564	13252	83	-28	-139	-14816	-3968	-5540	-2	-88	-68	-1684	-520	16976	177	20	55	123	115	5
-11348	-3040	10864	-84	125	-160	-15612	1464	-5460	55	9	174	-2664	-5472	15608	12	-132	158	-10404	1560	13156	104	-86	-159	-14736	-4000	-5468	53	-55	-109	-1656	-460	17004	186	14	71	123	115	5
-11348	-3080	10832	-83	135	-173	-15680	1472	-5448	76	-12	138	-2680	-5528	15592	22	-110	162	-10360	1580	13108	132	-57	-178	-14728	-3940	-5476	15	-31	-95	-1636	-440	16956	184	-1	63	123	115	5
-11256	-3112	10756	-119	131	-153	-15680	1548	-5408	76	10	154	-2616	-5508	15596	9	-134	130	-10380	1592	13120	95	-31	-152	-14656	-3996	-5448	13	-3	-113	-1540	-388	16968	144	-6	73	123	115	5
-11360	-3100	10800	-92	135	-134	-15628	1476	-5460	96	32	165	-2660	-5472	15592	38	-134	138	-10416	1536	13088	99	-42	-111	-14712	-3976	-5472	-12	6	-103	-1692	-488	16992	134	12	24	123	115	5
-11416	-3068	10888	-87	148	-161	-15688	1504	-5460	89	48	173	-2600	-5508	15636	29	-169	199	-10372	1532	13164	97	-45	-179	-14716	-3980	-5476	2	10	-106	-1628	-504	16960	162	2	9	123	115	5
-11400	-3072	10816	-127	147	-136	-15656	1540	-5396	93	74	144	-2728	-5492	15548	-4	-122	178	-10396	1560	13188	75	2	-208	-14748	-4040	-5508	-20	8	-92	-1676	-528	16940	170	-4	35	123	115	5
-11316	-3100	10776	-88	130	-156	-15616	1580	-5492	88	24	165	-2812	-5464	15532	21	-139	152	-10368	1556	13164	90	-52	-186	-14696	-4044	-5560	20	40	-71	-1776	-580	16936	175	5	31	123	115	5
-11344	-3104	10884	-110	174	-184	-15648	1552	-5592	85	11	153	-2852	-5560	15632	-2	-121	191	-10404	1596	13144	111	-26	-195	-14692	-4052	-5520	29	-28	-72	-1780	-492	16964	192	11	55	123	115	5
-11356	-3088	10720	-100	146	-160	-15620	1516	-5580	102	12	115	-2852	-5472	15524	30	-136	174	-10364	1512	13092	113	-36	-136	-14660	-4068	-5536	16	-16	-41	-1852	-488	17024	215	-7	29	123	115	5
-11420	-3116	10780	-122	162	-136	-15684	1504	-5596	74	-37	117	-2852	-5524	15484	14	-134	185	-10404	1588	13108	111	-20	-129	-14728	-4040	-5568	-22	-69	-34	-1848	-496	16948	154	11	45	123	115	5
-11392	-3048	10824	-139	147	-198	-15532	1520	-5508	66	-85	101	-2820	-5572	15516	88	-116	164	-10356	1536	13140	117	-48	-165	-14708	-4036	-5548	-22	-120	-41	-1764	-568	16916	158	-15	38	123	115	5
-11380	-3096	10808	-104	164	-174	-15652	1448	-5572	48	-111	73	-2828	-5464	15608	75	-125	150	-10420	1564	13100	142	-107	-125	-14736	-3928	-5512	4	-97	-24	-1732	-500	16920	142	-45	62	123	115	5
-11308	-3132	10800	-129	127	-187	-15640	1456	-5600	20	-142	102	-2760	-5516	15620	47	-98	160	-10428	1508	13116	159	-31	-130	-14668	-3968	-5544	53	-173	1	-1744	-500	17080	172	-58	26	123	115	5
-11340	-3032	10740	-116	101	-204	-15628	1516	-5512	44	-107	88	-2656	-5520	15512	72	-124	181	-10420	1576	13180	132	-22	-148	-14780	-3900	-5548	14	-134	-17	-1664	-496	16960	194	-55	71	123	115	5
-11372	-3072	10780	-135	150	-200	-15672	1548	-5464	79	-129	117	-2692	-5508	15556	11	-113	195	-10416	1592	13116	110	-7	-133	-14724	-3904	-5504	33	-92	-4	-1496	-468	16948	162	-60	57	123	115	5
-11408	-3100	10916	-166	118	-177	-15648	1480	-5324	62	-98	88	-2628	-5504	15528	22	-168	163	-10308	1612	13156	127	-38	-128	-14736	-3988	-5364	-19	-99	-20	-1488	-560	16988	147	-21	46	123	115	5
-11324	-3112	10912	-120	110	-137	-15644	1496	-5332	42	-78	65	-2588	-5472	15500	57	-137	187	-10376	1552	13068	148	-32	-130	-14732	-3924	-5596	25	-47	-22	-1512	-580	16940	158	-14	15	123	115	5
-11372	-3128	10912	-121	145	-173	-15604	1504	-5284	63	-21	103	-2588	-5400	15596	38	-127	234	-10420	1508	13124	121	-33	-145	-14688	-3940	-5292	33	-54	-20	-1504	-508	16924	180	-39	28	123	115	5
-11412	-3156	10776	-152	139	-180	-15684	1480	-5460	33	-8	131	-2636	-5504	15548	-12	-115	226	-10468	1524	13132	145	33	-152	-14716	-3916	-5448	7	-2	-39	-1564	-520	16988	219	9	-13	123	115	5
-11360	-3152	10776	-101	142	-158	-15656	1488	-5344	13	-15	123	-2676	-5404	15704	3	-141	181	-10336	1552	13192	133	54	-145	-14724	-3912	-5432	13	3	-49	-1600	-424	17080	189	-3	-4	123	115	5
-11340	-3124	10852	-105	138	-124	-15720	1528	-5360	68	56	139	-2648	-5484	15588	-38	-161	195	-10364	1652	13208	114	-36	-162	-14676	-3920	-5432	-10	13	-49	-1652	-424	16892	188	-13	-15	123	115	5
-11356	-3120	10816	-107	144	-145	-15660	1552	-5416	56	58	138	-2684	-5504	15612	-21	-132	213	-10464	1548	13192	106	-22	-128	-14768	-3880	-5588	-25	20	-115	-1552	-344	16952	176	0	26	123	115	5
-11380	-3076	10780	-116	154	-154	-15600	1424	-5340	92	65	137	-2756	-5612	15464	-33	-162	208	-10352	1568	13096	77	4	-171	-14768	-3972	-5508	-27	0	-84	-1640	-380	16932	135	-12	42	123	115	5
-11432	-3112	10788	-98	167	-155	-15612	1500	-5568	84	22	126	-2756	-5584	15552	13	-135	204	-10320	1520	13100	95	-32	-152	-14688	-3920	-5460	13	-31	-99	-1760	-372	16976	127	-19	22	123	115	5
-11316	-3104	10788	-98	120	-167	-15680	1420	-5448	71	45	147	-2860	-5628	15468	4	-128	182	-10404	1536	13088	112	-25	-176	-14700	-4004	-5480	54	-28	-125	-1756	-376	16968	157	-10	73	123	115	5
-11356	-3080	10740	-79	142	-166	-15592	1376	-5580	84	-10	138	-2816	-5536	15500	58	-118	152	-10396	1608	13144	135	-109	-158	-14708	-4000	-5592	26	-90	-77	-1688	-336	16952	134	-16	65	123	115	5
-11388	-3072	10784	-111	126	-151	-15612	1452	-5484	51	23	167	-2772	-5556	15572	51	-81	125	-10384	1516	13200	123	-58	-173	-14684	-3948	-5540	51	-86	-126	-1716	-472	17036	110	-15	101	123	115	5
-11360	-3080	10752	-111	90	-146	-15656	1480	-5488	64	-62	152	-2812	-5560	15612	74	-95	122	-10352	1576	13056	101	-37	-139	-14640	-3992	-5432	10	-89	-127	-1668	-556	16880	136	-50	92	123	115	5
-11388	-3092	10892	-87	113	-140	-15668	1448	-5580	40	-32	147	-2712	-5592	15532	61	-88	155	-10380	1500	13104	84	-29	-177	-14768	-3976	-5536	33	-69	-96	-1628	-536	16984	113	-8	83	123	115	5
-11316	-3108	10836	-95	146	-129	-15636	1472	-5496	69	-52	178	-2664	-5496	15544	126	-104	121	-10376	1600	13172	109	-36	-136	-14716	-3948	-5364	-14	-80	-99	-1576	-556	17028	78	-34	70	123	115	5
-11360	-3144	10836	-105	121	-157	-15632	1500	-5400	41	-67	161	-2668	-5432	15676	54	-93	155	-10340	1580	13096	125	19	-194	-14740	-3968	-5400	15	-80	-101	-1540	-604	17068	160	-34	51	123	115	5
-11396	-3068	10868	-168	148	-186	-15656	1492	-5496	71	-25	199	-2732	-5468	15656	24	-153	178	-10400	1548	13224	104	-33	-169	-14724	-3992	-5452	1	-65	-42	-1544	-560	16968	240	-14	56	123	115	5
-11348	-3068	10848	-98	132	-209	-15636	1528	-5456	31	-34	138	-2688	-5496	15580	16	-135	205	-10416	1496	13116	105	-46	-125	-14688	-3996	-5464	-10	-23	-57	-1620	-592	16936	264	-29	72	123	115	5
-11384	-3100	10820	-112	127	-170	-15616	1508	-5516	63	-31	104	-2668	-5492	15504	20	-128	179	-10452	1584	13060	147	0	-168	-14696	-3980	-5460	3	-12	-67	-1636	-484	17024	284	-37	54	123	115	5
-11392	-2992	10784	-69	152	-150	-15612	1540	-5344	40	3	169	-2784	-5560	15608	23	-136	213	-10440	1604	13152	119	-56	-129	-14692	-3932	-5576	-16	-28	-63	-1600	-452	17096	322	-25	29	123	115	5
-11312	-3168	10920	-103	140	-182	-15616	1464	-5540	65	-2	110	-2728	-5508	15616	9	-152	189	-10436	1580	13084	113	7	-139	-14728	-3912	-5460	0	-31	-39	-1680	-372	17032	276	-21	57	123	115	5
-11364	-3056	10908	-160	143	-136	-15708	1500	-5432	52	-4	108	-2744	-5492	15436	9	-119	204	-10432	1516	13188	125	-26	-151	-14684	-3936	-5484	2	-39	-94	-1692	-388	16876	205	5	87	123	115	5
-11336	-3072	10760	-112	137	-196	-15612	1508	-5620	78	-21	122	-2660	-5484	15416	23	-150	241	-10404	1544	13200	90	9	-141	-14700	-3928	-5584	-25	-40	-95	-1608	-432	16984	140	13	85	123	115	5
-11344	-3124	10832	-102	144	-156	-15680	1500	-5404	46	-37	150	-2652	-5532	15560	14	-120	199	-10404	1560	13088	79	-71	-163	-14780	-3940	-5504	39	-37	-79	-1648	-400	17004	148	-4	67	123	115	5
-11388	-3036	10804	-106	121	-170	-15624	1556	-5472	48	-13	165	-2704	-5596	15552	59	-114	197	-10488	1540	13124	93	-25	-174	-14788	-3972	-5540	42	-53	-102	-1668	-428	17096	164	-14	90	123	115	5
-11336	-3112	10792	-67	143	-154	-15644	1376	-5476	73	-32	173	-2704	-5488	15572	24	-106	156	-10420	1572	13200	110	-37	-149	-14744	-3940	-5524	9	-47	-122	-1600	-460	16992	174	18	89	123	115	5
-11372	-3104	10812	-84	140	-186	-15636	1480	-5504	68	7	193	-2732	-5504	15536	31	-105	111	-10400	1600	13072	112	-35	-156	-14732	-3952	-5528	-28	-37	-129	-1616	-456	16892	158	-9	70	123	115	5
-11320	-3048	10704	-144	150	-134	-15640	1508	-5484	72	15	185	-2704	-5544	15552	2	-87	141	-10312	1608	13184	77	-13	-154	-14716	-3960	-5416	4	-30	-100	-1704	-544	17048	130	-8	41	123	115	5
-11396	-3112	10808	-113	128	-150	-15532	1496	-5448	70	2	144	-2640	-5496	15540	39	-136	135	-10376	1552	13072	127	-4	-177	-14708	-4020	-5428	7	-12	-89	-1584	-512	17024	112	-25	19	123	115	5
-11344	-3064	10812	-118	164	-133	-15708	1552	-5400	54	34	161	-2712	-5496	15576	45	-138	169	-10400	1596	13112	131	-17	-172	-14728	-4032	-5468	-13	-16	-75	-1700	-452	17060	143	29	13	123	115	5
-11320	-3088	10836	-111	98	-150	-15676	1508	-5456	84	21	129	-2716	-5428	15532	30	-114	185	-10408	1556	13120	105	1	-162	-14728	-4004	-5536	-14	9	-45	-1700	-524	17044	154	-17	-9	123	115	5
-11380	-3120	10912	-102	141	-138	-15668	1492	-5452	106	11	159	-2744	-5456	15584	19	-107	155	-10412	1508	13076	104	-31	-139	-14712	-3972	-5544	17	-21	-45	-1756	-516	17052	269	-30	44	123	115	5
-11316	-3100	10744	-65	123	-153	-15660	1516	-5492	55	14	173	-2776	-5456	15544	-16	-117	151	-10332	1524	13088	145	-10	-128	-14704	-4040	-5496	-23	-46	-50	-1684	-404	17064	224	-3	57	123	115	5
-11384	-3052	10868	-99	160	-182	-15644	1508	-5536	46	-20	135	-2740	-5512	15456	-10	-149	156	-10456	1520	13048	114	-10	-157	-14700	-3988	-5660	-24	-9	-13	-1668	-400	16940	175	-7	32	123	115	5
-11392	-3072	10804	-170	145	-179	-15636	1544	-5592	32	6	143	-2760	-5516	15576	-1	-123	116	-10436	1508	13152	111	-18	-128	-14708	-3840	-5612	17	-80	-55	-1696	-428	16964	145	-14	38	123	115	5
-11296	-3112	10792	-123	124	-179	-15656	1500	-5580	89	-28	122	-2728	-5536	15708	8	-156	162	-10384	1536	13080	120	-18	-131	-14696	-3868	-5540	54	-66	-49	-1668	-376	16968	105	-46	55	123	115	5
-11316	-3040	10888	-138	150	-137	-15584	1492	-5496	30	2	129	-2700	-5536	15488	58	-130	154	-10396	1564	13152	131	-34	-188	-14740	-3920	-5460	42	-85	-95	-1596	-404	17044	65	8	75	123	115	5
-11444	-3052	10800	-101	121	-152	-15664	1540	-5404	53	-39	123	-2696	-5516	15512	56	-128	152	-10380	1544	13228	88	-57	-131	-14728	-3852	-5548	18	-64	-75	-1596	-420	16968	77	-22	108	123	115	5
-11416	-3032	10820	-88	147	-147	-15704	1532	-5468	46	-74	143	-2748	-5468	15564	8	-86	148	-10320	1564	13160	106	-30	-170	-14724	-3924	-5508	44	-94	-121	-1596	-536	16948	132	-14	85	123	115	5
-11372	-3124	10828	-106	124	-148	-15620	1516	-5468	64	-34	136	-2728	-5488	15596	9	-120	140	-10384	1512	13184	65	-19	-135	-14652	-3940	-5676	23	-60	-147	-1656	-520	17036	117	-23	110	123	115	5
-11308	-3100	10856	-129	147	-180	-15624	1460	-5524	21	-1	132	-2748	-5480	15620	8	-113	177	-10376	1552	13176	92	-47	-192	-14712	-3992	-5420	32	-59	-116	-1588	-496	17040	148	-16	97	123	115	5
-11376	-3044	10804	-112	111	-167	-15604	1548	-5420	22	-24	135	-2620	-5524	15560	40	-130	211	-10376	1580	13120	81	-55	-180	-14648	-4032	-5444	30	-57	-149	-1604	-580	16972	188	-11	108	123	115	5
-11396	-3088	10844	-89	140	-162	-15592	1548	-5364	48	-10	91	-2668	-5484	15584	12	-133	200	-10400	1580	13164	115	-32	-139	-14720	-3916	-5472	41	-11	-69	-1576	-592	16952	184	-43	100	123	115	5
-11368	-3060	10872	-138	171	-105	-15584	1468	-5408	28	11	117	-2660	-5556	15612	13	-152	172	-10392	1496	13156	99	-27	-147	-14720	-3980	-5512	7	-14	-84	-1648	-540	16984	196	-19	73	123	115	5
-11312	-3132	10808	-102	172	-154	-15648	1416	-5396	62	-4	119	-2688	-5476	15544	7	-139	210	-10372	1628	13140	89	-2	-158	-14736	-3992	-5428	10	-12	-81	-1652	-536	17016	204	-7	37	123	115	5
-11412	-3072	10812	-123	142	-133	-15680	1464	-5468	76	31	134	-2668	-5520	15532	-17	-119	192	-10372	1544	13088	125	3	-147	-14768	-4016	-5472	13	14	-49	-1612	-476	17080	197	-9	13	123	115	5
-11372	-3160	10812	-54	143	-143	-15624	1504	-5588	78	21	144	-2712	-5524	15556	40	-136	181	-10420	1576	13160	124	-4	-151	-14752	-3960	-5528	28	-29	-51	-1668	-492	17048	209	-7	3	123	115	5
-11372	-3136	10832	-101	129	-154	-15692	1468	-5552	58	35	146	-2728	-5548	15552	-9	-116	168	-10364	1532	13200	104	0	-133	-14736	-3936	-5552	-7	-5	-89	-1696	-436	16992	181	-22	-16	123	115	5
-11360	-3052	10852	-87	141	-146	-15584	1528	-5452	61	7	186	-2788	-5448	15652	7	-120	145	-10368	1572	13212	124	-63	-118	-14684	-3948	-5576	-18	-12	-62	-1780	-380	17048	163	-63	19	123	115	5
-11296	-3104	10788	-107	137	-160	-15560	1472	-5524	36	4	146	-2784	-5508	15520	14	-147	146	-10396	1560	13196	107	8	-189	-14720	-3980	-5432	44	-76	-60	-1680	-324	17012	121	-14	36	123	115	5
-11420	-3068	10780	-114	136	-177	-15596	1464	-5532	76	-32	151	-2800	-5540	15488	14	-118	116	-10404	1600	13124	118	-20	-160	-14732	-3972	-5592	29	-80	-99	-1664	-448	17036	123	-2	46	123	115	5
-11352	-3100	10748	-103	131	-174	-15640	1544	-5464	50	-35	100	-2732	-5536	15460	7	-140	137	-10348	1556	13048	104	-44	-148	-14720	-3924	-5544	40	-114	-93	-1648	-424	16992	90	-2	66	123	115	5
-11352	-3040	10904	-106	155	-175	-15668	1528	-5480	63	-60	132	-2676	-5476	15568	-1	-122	144	-10444	1564	13152	93	-28	-164	-14748	-3944	-5536	36	-75	-83	-1600	-460	16980	145	-31	71	123	115	5
-11284	-3052	10800	-96	136	-186	-15676	1552	-5452	62	-74	115	-2716	-5452	15536	4	-110	191	-10396	1568	13160	109	-16	-139	-14712	-3988	-5576	12	-65	-67	-1628	-512	16992	92	-44	73	123	115	5
-11340	-3104	10884	-137	141	-192	-15608	1520	-5428	38	-46	113	-2772	-5452	15524	-21	-106	191	-10328	1580	13144	102	-34	-189	-14732	-3924	-5468	49	-71	-72	-1620	-472	16972	110	-11	77	123	115	5
-11392	-3040	10740	-133	142	-177	-15664	1540	-5380	69	-32	104	-2660	-5524	15560	-53	-127	153	-10404	1500	13104	100	-42	-172	-14724	-3948	-5548	26	-69	-56	-1636	-464	16940	121	-12	46	123	115	5
-11296	-3040	10824	-119	148	-173	-15708	1472	-5436	72	-11	86	-2696	-5544	15576	-28	-150	182	-10424	1508	13068	92	8	-130	-14696	-3956	-5564	19	-42	-98	-1584	-512	16972	154	-48	92	123	115	5
-11340	-3012	10912	-131	177	-134	-15668	1476	-5472	44	-20	106	-2748	-5616	15600	-21	-154	173	-10424	1552	13184	129	-30	-138	-14720	-3956	-5436	3	-66	-100	-1660	-540	17092	136	-32	98	123	115	5
-11304	-3160	10760	-118	136	-127	-15640	1512	-5480	49	13	110	-2616	-5596	15524	43	-131	181	-10452	1600	13108	117	-25	-142	-14748	-3988	-5564	34	-60	-72	-1604	-508	16996	164	-10	90	123	115	5
-11400	-3088	10844	-110	107	-175	-15612	1484	-5484	42	-4	170	-2620	-5588	15528	43	-111	188	-10384	1548	13176	86	-27	-162	-14764	-3992	-5388	36	-2	-86	-1624	-504	17012	226	-2	43	123	115	5
-11332	-3120	10856	-117	152	-177	-15692	1488	-5336	66	0	159	-2668	-5596	15580	66	-115	140	-10420	1520	13200	101	-11	-191	-14748	-3960	-5540	3	-22	-92	-1576	-468	16960	217	-49	7	123	115	5
-11380	-3092	10860	-84	150	-157	-15676	1500	-5480	38	26	201	-2680	-5536	15496	66	-98	162	-10412	1544	13088	118	-29	-150	-14760	-3944	-5484	-31	-18	-69	-1624	-508	16972	202	11	5	123	115	5
-11380	-3044	10880	-75	135	-131	-15660	1536	-5484	13	-12	193	-2756	-5496	15412	38	-108	131	-10320	1592	13152	110	-15	-145	-14660	-3964	-5524	-4	11	-82	-1564	-488	17064	201	-13	63	123	115	5
-11340	-3096	10744	-113	142	-154	-15648	1468	-5416	2	5	201	-2732	-5520	15560	63	-133	148	-10456	1624	13132	110	27	-155	-14640	-3932	-5528	-13	-22	-71	-1664	-492	16936	192	-8	63	123	115	5
-11328	-3100	10864	-106	110	-168	-15652	1516	-5420	58	21	171	-2708	-5492	15604	93	-125	139	-10456	1608	13232	102	9	-180	-14760	-3924	-5480	-10	-21	-92	-1608	-468	17004	189	-38	72	123	115	5
-11336	-3024	10772	-51	125	-160	-15692	1516	-5472	55	26	183	-2724	-5536	15492	81	-113	169	-10368	1568	13112	101	7	-143	-14752	-3948	-5388	3	-42	-83	-1552	-448	17020	179	-3	76	123	115	5
-11356	-3052	10844	-105	149	-151	-15644	1508	-5484	93	18	206	-2688	-5472	15592	84	-107	165	-10420	1576	13032	109	-8	-128	-14712	-3944	-5496	17	-4	-125	-1580	-436	16892	199	-10	85	123	115	5
-11360	-3076	10816	-105	131	-147	-15664	1560	-5516	86	30	196	-2720	-5460	15620	37	-127	144	-10408	1568	13120	115	-72	-183	-14712	-3960	-5464	-34	-7	-107	-1648	-484	17044	193	-17	76	123	115	5
-11340	-3096	10788	-93	139	-159	-15628	1564	-5540	63	66	156	-2716	-5488	15592	27	-138	172	-10388	1608	13108	108	2	-142	-14684	-3996	-5604	-16	15	-137	-1696	-464	16824	192	-4	65	123	115	5
-11384	-3112	10836	-110	139	-157	-15636	1572	-5480	69	27	172	-2712	-5504	15540	59	-129	172	-10424	1568	13172	82	-24	-187	-14740	-4000	-5536	10	-16	-106	-1688	-452	16944	218	-13	27	123	115	5
-11368	-3124	10828	-83	144	-174	-15624	1564	-5520	77	39	148	-2800	-5496	15524	20	-116	161	-10396	1580	13188	93	-20	-150	-14772	-3984	-5484	15	0	-97	-1716	-476	17024	166	-14	34	123	115	5
-11328	-3076	10880	-80	128	-185	-15592	1588	-5540	74	-9	126	-2824	-5488	15584	7	-125	198	-10396	1600	13144	75	-34	-162	-14652	-3964	-5584	12	-10	-69	-1768	-432	17084	189	-5	37	123	115	5
-11292	-3084	10708	-116	127	-150	-15656	1500	-5556	70	-13	104	-2776	-5520	15544	20	-123	170	-10400	1572	13160	71	-62	-148	-14688	-4008	-5596	27	-52	-80	-1756	-472	17092	158	-22	89	123	115	5
-11400	-3072	10760	-114	145	-171	-15676	1480	-5556	56	-23	109	-2760	-5580	15496	13	-123	179	-10400	1544	13128	123	-31	-165	-14656	-4008	-5572	-24	-93	-47	-1704	-472	17060	191	-8	88	123	115	5
-11344	-3116	10760	-115	137	-189	-15676	1560	-5480	70	-59	105	-2788	-5516	15588	-9	-118	195	-10428	1576	13128	90	-19	-144	-14724	-4028	-5496	40	-80	-97	-1644	-384	16920	196	5	88	123	115	5
-11328	-3096	10748	-129	142	-144	-15604	1464	-5496	73	-79	93	-2732	-5564	15552	49	-101	142	-10404	1544	13184	75	-87	-172	-14724	-3992	-5520	11	-75	-67	-1632	-492	16908	124	32	73	123	115	5
-11424	-3136	10876	-124	146	-163	-15660	1440	-5472	40	-45	119	-2668	-5560	15528	70	-96	159	-10404	1560	13048	104	-5	-154	-14768	-3976	-5484	-33	-80	-97	-1628	-412	16924	141	-20	73	123	115	5
-11380	-3084	10808	-91	136	-167	-15668	1548	-5468	69	-30	91	-2624	-5488	15568	54	-117	147	-10320	1516	13272	115	-77	-162	-14688	-3980	-5500	23	-73	-93	-1576	-580	16924	155	-5	61	123	115	5
-11376	-3116	10764	-86	116	-179	-15672	1496	-5524	53	-62	128	-2640	-5528	15540	25	-99	159	-10364	1556	13128	105	-25	-149	-14704	-3964	-5540	10	-59	-66	-1672	-588	17084	162	-26	74	123	115	5
-11348	-3072	10748	-81	129	-153	-15608	1508	-5372	38	-90	157	-2660	-5496	15612	-5	-116	171	-10460	1556	13080	117	14	-166	-14700	-4016	-5440	31	-55	-92	-1564	-576	16932	178	-16	70	123	115	5
-11376	-3052	10756	-107	155	-184	-15592	1532	-5456	81	-23	122	-2712	-5532	15584	31	-100	151	-10392	1524	13020	116	-36	-159	-14744	-3932	-5452	32	-73	-83	-1576	-452	17124	162	-5	62	123	115	5
-11380	-3136	10852	-134	127	-147	-15712	1476	-5588	65	-52	127	-2640	-5496	15560	45	-133	151	-10316	1536	13112	140	-74	-176	-14672	-4028	-5452	19	-25	-80	-1652	-512	17016	163	19	41	123	115	5
-11348	-3152	10752	-85	125	-179	-15652	1524	-5512	52	-23	167	-2652	-5460	15528	59	-124	182	-10380	1472	13124	91	-39	-132	-14740	-3972	-5504	-1	-37	-92	-1652	-516	17044	210	-18	57	123	115	5
-11440	-3088	10784	-100	146	-169	-15676	1492	-5420	76	-13	155	-2724	-5452	15600	44	-129	177	-10336	1596	13188	117	-14	-157	-14712	-3912	-5504	6	-38	-63	-1616	-464	16988	185	3	37	123	115	5
-11356	-3084	10856	-136	141	-102	-15644	1492	-5492	49	-8	137	-2740	-5488	15668	40	-109	146	-10400	1592	13156	97	-5	-139	-14716	-3944	-5444	-33	-33	-113	-1644	-464	16976	198	17	52	123	115	5
-11364	-3128	10728	-105	142	-170	-15652	1556	-5316	63	2	136	-2676	-5456	15628	36	-119	164	-10388	1536	13076	113	-3	-176	-14724	-3928	-5488	14	-55	-64	-1636	-468	16884	187	4	45	123	115	5
-11336	-3100	10868	-131	153	-157	-15644	1540	-5432	48	17	100	-2708	-5460	15608	15	-97	158	-10336	1536	13180	120	-33	-134	-14748	-3952	-5616	2	-43	-85	-1676	-440	17040	137	-53	23	123	115	5
-11324	-3084	10888	-79	128	-164	-15652	1468	-5468	71	29	144	-2664	-5500	15580	16	-139	188	-10368	1520	13160	85	-33	-162	-14712	-3960	-5552	-8	-5	-142	-1572	-456	17076	153	5	77	123	115	5
-11392	-3112	10844	-108	134	-160	-15640	1516	-5468	76	-2	135	-2720	-5504	15536	-3	-120	194	-10424	1548	13144	123	-46	-161	-14692	-3912	-5568	-2	-13	-67	-1652	-536	17092	184	12	58	123	115	5
-11336	-3064	10844	-64	136	-192	-15680	1536	-5476	88	17	129	-2728	-5524	15520	-5	-152	183	-10372	1592	13128	110	-63	-164	-14704	-4000	-5548	20	-25	-118	-1648	-440	16924	167	-3	67	123	115	5
-11312	-3060	10776	-123	129	-177	-15640	1508	-5568	71	-18	121	-2756	-5560	15584	4	-135	175	-10416	1504	13172	81	0	-147	-14652	-3988	-5528	-12	-60	-128	-1652	-456	16832	172	-59	70	123	115	5
-11384	-3048	10840	-142	140	-165	-15656	1580	-5492	63	-21	138	-2772	-5528	15604	-3	-153	164	-10416	1576	13184	78	2	-168	-14700	-4028	-5436	31	-68	-94	-1704	-528	16924	120	4	68	123	115	5
-11368	-3096	10772	-102	136	-179	-15612	1524	-5476	50	-9	133	-2736	-5488	15648	2	-134	143	-10344	1572	13136	112	-10	-163	-14716	-4036	-5388	-1	-64	-79	-1648	-504	16968	127	-41	62	123	115	5
-11332	-3160	10896	-124	169	-157	-15656	1496	-5500	42	-72	116	-2700	-5572	15532	13	-115	150	-10492	1548	13032	86	-29	-172	-14744	-4016	-5556	16	-66	-74	-1688	-512	17096	159	-8	46	123	115	5
-11400	-3132	10900	-120	109	-168	-15640	1568	-5492	26	-51	112	-2720	-5548	15616	-9	-121	181	-10368	1500	13204	112	-48	-173	-14756	-3976	-5560	29	-100	-53	-1684	-492	16956	163	-24	92	123	115	5
-11364	-3044	10808	-112	127	-130	-15664	1488	-5384	54	-36	106	-2664	-5496	15616	29	-94	188	-10444	1492	13132	117	-45	-139	-14712	-3992	-5472	3	-92	-71	-1648	-548	16948	139	-18	67	123	115	5
-11332	-3112	10876	-155	147	-172	-15676	1456	-5544	60	-92	116	-2664	-5528	15484	22	-126	166	-10424	1540	13088	122	-16	-162	-14700	-4000	-5516	19	-68	-81	-1616	-532	16992	194	-9	47	123	115	5
-11324	-3136	10792	-127	153	-142	-15552	1492	-5528	63	-31	124	-2632	-5532	15532	-2	-108	192	-10396	1592	13164	114	-24	-174	-14672	-4036	-5424	14	-48	-38	-1564	-476	17036	187	-31	61	123	115	5
-11388	-3100	10788	-105	132	-149	-15668	1500	-5536	59	-41	98	-2672	-5544	15592	39	-112	153	-10388	1596	13068	98	-74	-182	-14700	-4004	-5384	-16	-48	-58	-1600	-500	16864	165	39	30	123	115	5
-11400	-3140	10744	-115	119	-146	-15700	1460	-5540	42	-25	162	-2604	-5596	15476	34	-108	164	-10364	1524	13192	108	-4	-156	-14760	-3972	-5388	-18	-19	-57	-1596	-512	17076	181	16	26	123	115	5
-11332	-3116	10784	-129	141	-149	-15696	1492	-5500	80	18	144	-2640	-5504	15452	16	-111	166	-10384	1580	13200	72	-27	-158	-14756	-3940	-5464	-30	-33	-53	-1568	-488	17020	175	-54	15	123	115	5
-11340	-3152	10848	-82	144	-183	-15628	1496	-5420	79	-2	158	-2668	-5548	15580	-7	-128	160	-10368	1608	13184	88	-16	-180	-14724	-3956	-5492	-5	-10	-50	-1640	-372	17056	174	-13	29	123	115	5
-11328	-3052	10792	-96	161	-148	-15652	1504	-5540	72	9	160	-2716	-5496	15536	4	-104	177	-10416	1556	13208	89	2	-165	-14792	-3936	-5460	4	-9	-90	-1700	-416	16980	166	-13	71	123	115	5
-11324	-3112	10768	-88	126	-173	-15616	1532	-5520	47	55	148	-2752	-5508	15580	56	-87	185	-10320	1524	13152	108	-39	-138	-14656	-3956	-5708	-4	-41	-105	-1696	-416	16948	184	-2	96	123	115	5
-11368	-3096	10912	-99	154	-155	-15592	1524	-5544	44	10	175	-2732	-5472	15580	48	-142	145	-10320	1564	13084	111	-55	-171	-14680	-4004	-5588	39	-33	-112	-1648	-384	16976	190	15	86	123	115	5
-11396	-3128	10808	-78	145	-179	-15700	1468	-5424	52	28	156	-2744	-5520	15524	34	-109	179	-10436	1544	13240	79	-54	-157	-14716	-4000	-5524	20	-53	-80	-1652	-460	16952	167	28	64	123	115	5
-11368	-3116	10808	-101	118	-170	-15592	1536	-5584	68	5	163	-2740	-5444	15564	19	-113	159	-10348	1516	13184	95	-33	-158	-14672	-4004	-5484	-6	-16	-83	-1616	-464	16976	178	18	95	123	115	5
-11268	-3108	10776	-113	151	-122	-15660	1560	-5412	77	-35	147	-2756	-5464	15616	12	-154	167	-10428	1552	13064	84	-48	-200	-14700	-3952	-5484	-52	-13	-92	-1708	-508	16992	155	-24	62	123	115	5
-11408	-3120	10832	-113	128	-170	-15680	1572	-5536	58	-22	125	-2708	-5476	15528	55	-152	116	-10352	1536	13036	87	-2	-173	-14720	-3984	-5448	-37	-34	-117	-1640	-464	16972	140	-2	47	123	115	5
-11372	-3076	10864	-116	128	-175	-15624	1536	-5444	79	-8	129	-2688	-5504	15668	22	-136	151	-10356	1588	13004	108	4	-170	-14716	-3996	-5428	-29	-21	-69	-1596	-488	17104	141	5	67	123	115	5
-11356	-3116	10848	-141	141	-154	-15612	1524	-5528	101	11	108	-2672	-5444	15536	0	-100	170	-10372	1540	13068	100	-22	-161	-14712	-3944	-5488	20	-20	-63	-1608	-540	17048	164	35	43	123	115	5
-11352	-3112	10768	-128	163	-183	-15620	1480	-5512	91	-26	124	-2720	-5492	15588	-47	-127	178	-10392	1504	13280	112	5	-137	-14656	-3996	-5484	-2	-8	-93	-1664	-556	17032	153	1	39	123	115	5
-11376	-3032	10872	-99	133	-206	-15628	1472	-5532	96	-13	123	-2764	-5576	15540	-15	-183	237	-10384	1576	13188	142	9	-136	-14748	-4052	-5540	-23	-43	-76	-1724	-468	17024	217	-17	65	123	115	5
-11372	-2992	10776	-137	135	-144	-15648	1468	-5448	66	-25	129	-2788	-5620	15544	1	-130	157	-10424	1568	13204	99	-18	-145	-14708	-3988	-5520	-12	-65	-43	-1676	-464	17004	202	-34	55	123	115	5
-11296	-3068	10792	-118	126	-161	-15668	1432	-5584	77	11	127	-2756	-5604	15556	28	-116	220	-10408	1536	13096	125	-52	-162	-14740	-3968	-5452	11	-34	-59	-1684	-472	16956	248	7	60	123	115	5
-11428	-3092	10912	-157	112	-189	-15640	1460	-5464	37	-16	138	-2728	-5540	15544	72	-87	172	-10384	1536	13148	103	-56	-161	-14732	-3960	-5528	5	-61	-72	-1660	-456	17020	175	-8	60	123	115	5
-11396	-3076	10796	-94	130	-173	-15620	1536	-5416	89	-29	155	-2764	-5540	15572	81	-116	158	-10396	1524	13088	101	-43	-126	-14736	-4004	-5436	-11	-58	-75	-1608	-472	17040	158	-7	18	123	115	5
-11364	-3164	10652	-77	132	-169	-15616	1452	-5480	50	-51	162	-2680	-5532	15496	60	-108	137	-10368	1568	13036	104	24	-133	-14708	-3996	-5520	47	-75	-38	-1672	-376	16944	148	-40	43	123	115	5
-11432	-3124	10740	-83	116	-159	-15600	1468	-5436	70	-53	189	-2736	-5532	15584	63	-114	148	-10452	1516	13104	126	-39	-140	-14784	-3972	-5572	26	-73	-61	-1620	-468	16976	142	-12	74	123	115	5
-11368	-3124	10784	-97	121	-228	-15624	1520	-5404	56	-51	139	-2696	-5476	15548	26	-134	154	-10428	1616	13092	104	-37	-138	-14764	-3948	-5412	20	-48	-92	-1560	-476	17040	183	-31	54	123	115	5
-11352	-3132	10844	-147	130	-159	-15680	1524	-5392	54	-59	171	-2644	-5540	15612	63	-87	120	-10388	1492	13040	110	-38	-171	-14752	-3972	-5492	26	-86	-77	-1612	-512	16980	154	9	74	123	115	5
-11332	-3128	10888	-85	134	-155	-15688	1568	-5468	64	-38	135	-2680	-5540	15632	35	-124	159	-10368	1512	13160	96	-12	-164	-14748	-3960	-5416	24	-48	-54	-1616	-504	16960	214	-65	58	123	115	5
-11308	-3156	10784	-77	102	-170	-15644	1484	-5376	41	-32	169	-2712	-5404	15540	65	-120	167	-10400	1608	13028	101	-50	-173	-14752	-3964	-5556	37	-10	-75	-1628	-504	17024	214	4	41	123	115	5
-11380	-3040	10740	-93	147	-127	-15668	1560	-5476	75	-11	148	-2688	-5456	15580	22	-130	178	-10408	1512	13152	99	-57	-154	-14712	-3960	-5548	2	-56	-75	-1540	-536	17024	195	-25	52	123	115	5
-11360	-3092	10876	-109	132	-163	-15624	1468	-5572	74	10	151	-2688	-5536	15568	12	-119	187	-10344	1596	13116	104	-43	-155	-14728	-3944	-5540	-11	-17	-63	-1628	-488	17068	199	-68	69	123	115	5
-11324	-3076	10856	-146	130	-148	-15704	1476	-5444	51	10	108	-2720	-5540	15616	5	-147	187	-10368	1556	13076	119	-37	-182	-14740	-4080	-5456	2	-21	-46	-1628	-496	16968	142	14	35	123	115	5
-11340	-3156	10856	-97	125	-157	-15720	1520	-5576	55	10	128	-2752	-5496	15568	-25	-128	168	-10372	1620	13160	98	-8	-142	-14768	-3960	-5572	0	-42	-74	-1656	-464	17012	188	23	12	123	115	5
-11308	-3116	10864	-88	117	-176	-15644	1504	-5448	59	-11	138	-2680	-5524	15576	8	-129	203	-10332	1556	13072	118	-51	-135	-14748	-3912	-5548	13	-40	-97	-1632	-432	16984	188	-4	45	123	115	5
-11384	-3048	10792	-87	143	-135	-15624	1468	-5540	80	23	133	-2680	-5560	15612	-7	-152	179	-10432	1584	13088	121	-24	-152	-14740	-3928	-5588	-4	-12	-69	-1708	-420	17060	144	-6	78	123	115	5
-11336	-3064	10864	-92	125	-170	-15608	1508	-5472	85	-14	156	-2704	-5540	15580	20	-111	156	-10412	1596	13160	90	-45	-147	-14716	-3940	-5580	30	-30	-66	-1660	-444	16948	173	2	107	123	115	5
-11388	-3124	10812	-104	103	-169	-15680	1520	-5496	86	-40	150	-2728	-5592	15620	47	-144	182	-10400	1568	13172	103	-18	-157	-14708	-3996	-5512	7	-66	-131	-1688	-496	16952	177	5	61	123	115	5
-11392	-3088	10812	-129	129	-201	-15620	1576	-5560	40	-52	176	-2732	-5508	15648	56	-104	188	-10412	1556	13144	105	-30	-157	-14716	-4024	-5532	17	-80	-71	-1636	-468	16916	174	-4	51	123	115	5
-11372	-3052	10808	-90	112	-148	-15688	1452	-5476	47	-64	123	-2664	-5464	15604	54	-110	154	-10368	1552	13108	118	-12	-169	-14756	-4016	-5492	12	-37	-81	-1656	-420	16984	145	-10	74	123	115	5
-11412	-3060	10816	-99	127	-165	-15640	1488	-5476	32	-40	132	-2684	-5476	15520	6	-115	137	-10408	1604	13124	136	-1	-174	-14720	-3940	-5464	23	-64	-76	-1636	-504	16932	157	10	81	123	115	5
-11356	-3076	10880	-111	95	-160	-15644	1576	-5388	49	-51	131	-2644	-5500	15560	-1	-136	143	-10356	1532	13124	121	-37	-147	-14760	-3968	-5444	32	-55	-71	-1572	-492	17060	122	-55	73	123	115	5
-11340	-3096	10728	-88	97	-151	-15648	1568	-5464	30	-33	108	-2604	-5504	15456	8	-151	199	-10396	1532	13140	114	-35	-169	-14712	-3980	-5408	-21	-58	-63	-1572	-472	16960	154	-11	82	123	115	5
-11348	-3152	10744	-102	124	-152	-15652	1576	-5500	45	-6	115	-2644	-5472	15580	20	-106	198	-10336	1564	13088	105	-30	-136	-14724	-3988	-5556	14	-45	-64	-1584	-468	16888	202	-61	63	123	115	5
-11332	-3084	10796	-120	127	-152	-15596	1556	-5448	63	-43	124	-2740	-5496	15540	16	-164	188	-10344	1520	13172	129	-34	-131	-14728	-3964	-5488	-13	-21	-38	-1660	-432	17036	184	-33	47	123	115	5
-11352	-3080	10868	-107	121	-162	-15716	1536	-5528	96	0	115	-2736	-5484	15588	26	-126	176	-10380	1540	13172	80	13	-183	-14632	-3928	-5516	-18	-40	-22	-1688	-392	16892	175	-43	49	123	115	5
-11380	-3164	10856	-90	139	-119	-15604	1472	-5376	45	7	136	-2764	-5512	15568	12	-125	180	-10380	1548	13252	117	-89	-146	-14704	-3924	-5512	28	-47	-48	-1696	-408	17152	216	-12	22	123	115	5
-11356	-3048	10772	-86	161	-139	-15672	1504	-5540	70	-43	139	-2740	-5504	15520	-11	-99	185	-10428	1568	13104	121	-71	-125	-14756	-3980	-5632	21	-10	-63	-1664	-424	16968	155	-2	44	123	115	5
-11352	-3116	10828	-108	143	-172	-15628	1540	-5572	45	-70	117	-2724	-5588	15508	16	-131	197	-10384	1616	13116	109	-60	-163	-14732	-3948	-5532	5	-29	-124	-1600	-448	16940	156	-17	80	123	115	5
-11340	-3152	10828	-94	136	-168	-15644	1480	-5404	42	-70	137	-2756	-5512	15556	37	-85	153	-10372	1516	13096	92	-26	-153	-14704	-3924	-5492	1	-72	-102	-1556	-484	16964	115	-9	73	123	115	5
-11352	-3096	10836	-115	162	-147	-15652	1516	-5476	58	-39	161	-2668	-5464	15512	25	-131	132	-10392	1524	13092	109	-73	-127	-14688	-3956	-5436	-14	-66	-83	-1604	-484	17000	122	-23	94	123	115	5
-11416	-3052	10864	-109	146	-168	-15636	1500	-5516	69	-57	122	-2612	-5468	15444	-15	-138	167	-10436	1612	13100	112	-37	-169	-14724	-4008	-5392	57	-77	-102	-1644	-520	17084	117	-7	97	123	115	5
-11344	-3088	10920	-130	137	-163	-15620	1492	-5460	71	-31	169	-2600	-5460	15488	-41	-134	177	-10356	1548	13228	116	-26	-154	-14748	-4012	-5556	30	-54	-92	-1544	-508	17040	150	-19	44	123	115	5
-11380	-3076	10804	-118	161	-152	-15712	1400	-5488	75	-28	117	-2668	-5528	15472	-44	-152	152	-10372	1568	13056	114	-28	-159	-14740	-4008	-5540	13	-30	-93	-1504	-508	17060	162	-12	36	123	115	5
-11328	-3136	10908	-118	137	-172	-15652	1536	-5448	85	0	116	-2656	-5512	15576	-10	-126	134	-10412	1564	13096	92	-39	-174	-14744	-3988	-5448	-3	-29	-79	-1556	-532	17148	164	-4	7	123	115	5
-11436	-3044	10856	-104	135	-127	-15644	1524	-5468	78	43	156	-2708	-5512	15492	16	-147	183	-10352	1552	13132	96	0	-178	-14704	-4060	-5484	-23	-26	-65	-1556	-508	17116	167	17	22	123	115	5
-11344	-3080	10848	-83	103	-154	-15596	1496	-5544	78	70	128	-2680	-5496	15572	34	-153	150	-10432	1572	13152	101	17	-162	-14780	-4020	-5448	-27	6	-100	-1640	-528	17020	179	-19	-3	123	115	5
-11332	-3156	10824	-58	152	-157	-15636	1504	-5544	97	31	141	-2764	-5532	15516	10	-130	143	-10356	1564	13104	99	-12	-144	-14724	-3976	-5620	20	-26	-28	-1724	-504	16980	211	19	13	123	115	5
-11352	-3104	10812	-77	152	-151	-15680	1496	-5532	64	19	137	-2744	-5556	15484	14	-115	191	-10336	1560	13124	91	-2	-142	-14736	-3908	-5624	-2	-1	-70	-1708	-464	16912	190	6	30	123	115	5
-11356	-3096	10744	-66	168	-146	-15648	1480	-5504	46	4	112	-2812	-5512	15604	-22	-115	161	-10356	1556	13052	111	-57	-128	-14656	-3916	-5504	-23	-33	-63	-1712	-456	17004	174	3	67	123	115	5
-11384	-3124	10740	-131	141	-175	-15644	1456	-5540	49	-58	128	-2776	-5480	15644	6	-115	150	-10372	1588	13092	152	-20	-165	-14708	-3948	-5556	13	-47	-60	-1684	-456	16968	203	-46	81	123	115	5
-11428	-3080	10808	-78	108	-193	-15592	1504	-5500	72	-32	133	-2772	-5604	15484	76	-138	168	-10476	1636	13136	107	-18	-140	-14716	-3912	-5468	8	-80	-39	-1720	-448	17024	207	-47	86	123	115	5
-11420	-3072	10852	-106	127	-174	-15668	1496	-5412	99	-62	157	-2724	-5508	15544	89	-132	139	-10352	1524	13164	124	-16	-131	-14660	-4044	-5608	1	-63	-98	-1612	-400	16996	169	-38	99	123	115	5
-11332	-3088	10792	-94	125	-179	-15632	1488	-5448	62	-74	175	-2668	-5572	15504	86	-78	167	-10448	1536	13216	90	-10	-165	-14688	-3952	-5544	14	-63	-121	-1656	-384	16964	127	-28	69	123	115	5
-11316	-3068	10836	-118	159	-178	-15628	1440	-5404	32	-46	173	-2676	-5452	15552	93	-102	159	-10412	1592	13100	129	-50	-133	-14720	-3912	-5508	29	-51	-70	-1584	-488	16964	147	-32	55	123	115	5
-11276	-3108	10892	-103	125	-132	-15664	1532	-5476	63	-48	144	-2636	-5488	15512	3	-126	181	-10340	1572	13056	100	-6	-144	-14716	-4008	-5512	-8	-73	-98	-1684	-484	17040	204	-18	52	123	115	5
-11376	-3088	10904	-110	149	-147	-15712	1536	-5468	38	-32	116	-2696	-5516	15628	23	-96	175	-10404	1580	13204	124	-23	-133	-14700	-4004	-5408	44	-46	-64	-1708	-472	17036	185	-28	84	123	115	5
-11336	-3056	10812	-104	138	-162	-15600	1504	-5544	34	-38	164	-2668	-5508	15596	31	-148	168	-10368	1596	13168	129	-5	-150	-14732	-4048	-5468	7	-46	-92	-1600	-424	17068	176	13	34	123	115	5
-11364	-3116	10844	-100	132	-213	-15684	1552	-5488	77	6	118	-2664	-5532	15512	36	-117	180	-10320	1524	13136	130	-47	-124	-14708	-3940	-5536	24	-80	-56	-1648	-460	17028	137	-11	55	123	115	5
-11340	-3144	10920	-96	149	-168	-15636	1456	-5416	28	-36	130	-2684	-5456	15528	40	-105	214	-10348	1556	13140	102	14	-188	-14704	-3948	-5516	1	-81	-94	-1552	-464	17020	154	30	28	123	115	5
-11296	-3020	10824	-96	116	-174	-15668	1536	-5488	81	-2	149	-2696	-5464	15436	17	-103	176	-10320	1548	13220	119	-56	-141	-14696	-3984	-5504	38	-54	-80	-1640	-500	17096	201	-9	41	123	115	5
-11372	-3060	10848	-126	153	-166	-15612	1504	-5520	57	-47	163	-2712	-5508	15588	5	-130	157	-10336	1588	13216	129	-51	-172	-14788	-3904	-5484	-7	-53	-111	-1636	-496	16952	201	-36	43	123	115	5
-11344	-3028	10784	-73	135	-159	-15648	1516	-5452	73	-6	158	-2688	-5520	15492	-18	-143	148	-10376	1556	13112	119	-56	-123	-14700	-3968	-5400	-17	-18	-94	-1584	-464	17028	162	-3	41	123	115	5
-11420	-3128	10712	-117	132	-183	-15580	1516	-5512	60	-11	130	-2652	-5568	15524	12	-127	160	-10380	1548	13024	133	-45	-175	-14724	-3988	-5536	4	-31	-103	-1544	-464	16980	127	-15	41	123	115	5
-11320	-3092	10776	-94	173	-132	-15660	1500	-5544	53	16	158	-2628	-5552	15556	37	-135	179	-10416	1528	13212	111	-37	-167	-14732	-3948	-5524	38	-11	-94	-1736	-556	16940	133	-10	39	123	115	5
-11368	-3112	10868	-119	127	-176	-15704	1480	-5476	79	10	127	-2720	-5584	15548	3	-131	202	-10436	1600	13128	104	-21	-172	-14752	-3960	-5452	21	-28	-82	-1748	-464	16988	182	32	44	123	115	5
-11392	-3068	10872	-87	132	-144	-15656	1500	-5488	42	-20	131	-2748	-5548	15640	34	-117	190	-10388	1496	13104	138	11	-138	-14712	-3948	-5488	8	-33	-65	-1712	-420	16884	186	30	83	123	115	5
-11372	-3108	10916	-101	146	-152	-15656	1500	-5572	81	-22	110	-2736	-5504	15516	56	-99	172	-10404	1548	13204	86	-39	-156	-14700	-3952	-5592	-10	-42	-48	-1648	-444	17012	163	5	86	123	115	5
-11344	-3100	10804	-94	117	-178	-15640	1552	-5564	53	-27	161	-2716	-5480	15524	26	-104	151	-10404	1496	13168	115	-41	-171	-14696	-3964	-5440	-28	-85	-83	-1684	-480	16956	128	14	99	123	115	5
-11408	-3020	10812	-133	121	-180	-15644	1472	-5536	46	-18	136	-2668	-5464	15540	8	-118	136	-10384	1556	13116	96	-14	-153	-14668	-3964	-5448	19	-72	-102	-1588	-492	16952	114	40	105	123	115	5
-11332	-3044	10792	-117	134	-151	-15560	1484	-5420	54	-52	122	-2712	-5484	15584	0	-133	202	-10432	1472	13036	97	-36	-127	-14736	-3936	-5480	7	-54	-101	-1604	-528	16964	108	-11	77	123	115	5
-11372	-3032	10824	-93	141	-130	-15632	1488	-5480	53	-5	114	-2692	-5476	15636	42	-130	220	-10396	1640	13240	105	-59	-172	-14724	-3980	-5556	34	-70	-67	-1616	-588	16936	161	-24	78	123	115	5
-11348	-3116	10804	-99	164	-183	-15632	1492	-5428	47	-14	110	-2748	-5496	15584	51	-100	194	-10464	1604	13148	110	-42	-164	-14732	-3956	-5528	43	-38	-100	-1604	-520	17136	191	-29	56	123	115	5
-11388	-3040	10892	-126	153	-131	-15628	1452	-5396	49	-9	104	-2744	-5536	15500	29	-108	210	-10392	1556	13104	117	-30	-147	-14780	-3936	-5440	11	-53	-56	-1688	-448	17096	198	3	80	123	115	5
-11356	-3084	10852	-125	138	-166	-15688	1496	-5460	79	-23	137	-2700	-5472	15588	7	-131	189	-10400	1536	13160	99	-14	-158	-14768	-3972	-5504	1	-41	-60	-1624	-448	16992	199	-7	81	123	115	5
-11340	-3056	10868	-138	126	-163	-15572	1508	-5616	45	-13	170	-2700	-5520	15584	6	-112	191	-10412	1596	13152	97	-66	-177	-14676	-4024	-5564	-9	-41	-57	-1624	-496	17000	188	32	68	123	115	5
-11316	-3048	10828	-121	185	-182	-15700	1552	-5484	52	-30	105	-2748	-5568	15452	32	-117	188	-10380	1564	13164	120	-43	-117	-14700	-4032	-5528	20	-50	-70	-1680	-420	16940	163	-34	33	123	115	5
-11428	-3080	10856	-115	127	-211	-15636	1476	-5532	52	-53	114	-2716	-5508	15476	67	-119	168	-10352	1556	13076	95	-33	-157	-14716	-3952	-5492	-5	-64	-77	-1624	-404	16924	162	-6	55	123	115	5
-11332	-3092	10836	-101	135	-157	-15632	1480	-5460	45	-63	129	-2728	-5544	15660	42	-111	147	-10384	1536	13096	106	-21	-165	-14748	-4036	-5448	-4	-34	-77	-1604	-508	16936	151	-12	58	123	115	5
-11320	-3108	10796	-124	148	-174	-15612	1520	-5552	76	-50	169	-2728	-5476	15540	15	-144	136	-10428	1488	13048	106	-58	-170	-14752	-3920	-5488	37	-56	-66	-1668	-444	16880	167	-12	119	123	115	5
-11400	-3088	10800	-121	149	-167	-15688	1468	-5512	45	-30	140	-2700	-5564	15604	13	-132	164	-10360	1588	13160	103	-24	-143	-14684	-3952	-5400	47	-60	-71	-1616	-476	16984	129	5	90	123	115	5
-11364	-3120	10788	-103	135	-176	-15644	1524	-5376	83	-22	167	-2640	-5548	15624	37	-122	185	-10432	1460	13068	109	-31	-126	-14704	-3956	-5488	2	-42	-64	-1652	-524	17012	152	28	75	123	115	5
-11360	-3084	10732	-105	140	-177	-15684	1504	-5368	42	10	131	-2724	-5504	15532	52	-131	187	-10408	1580	13108	97	-51	-156	-14660	-4000	-5452	-26	-42	-65	-1572	-500	17004	231	-17	62	123	115	5
-11376	-3088	10816	-100	139	-145	-15632	1484	-5424	81	-49	165	-2716	-5480	15584	75	-101	158	-10380	1536	13184	72	34	-196	-14752	-3972	-5524	-11	-14	-107	-1668	-520	16980	184	-11	56	123	115	5
-11328	-3060	10856	-116	119	-138	-15660	1500	-5376	102	-19	147	-2668	-5496	15488	5	-150	144	-10416	1548	13144	79	-28	-145	-14728	-3976	-5468	-16	-18	-84	-1588	-440	16972	211	-34	18	123	115	5
-11420	-3108	10740	-127	124	-168	-15668	1512	-5524	102	-12	124	-2768	-5476	15648	-12	-179	148	-10412	1528	13156	111	1	-161	-14700	-4004	-5392	-5	-25	-96	-1664	-524	16944	149	-12	17	123	115	5
-11332	-3060	10848	-99	130	-154	-15692	1544	-5500	79	49	146	-2752	-5448	15584	-2	-161	159	-10392	1564	13160	111	11	-143	-14664	-3988	-5528	6	-33	-76	-1724	-480	16964	120	-8	57	123	115	5
-11396	-3004	10848	-101	138	-198	-15652	1504	-5508	102	-41	93	-2804	-5508	15620	21	-131	219	-10356	1524	13072	85	-41	-124	-14788	-4040	-5564	-1	-55	-105	-1656	-504	16988	158	26	58	123	115	5
-11388	-3132	10824	-110	146	-184	-15632	1472	-5568	50	4	133	-2728	-5536	15484	50	-143	183	-10412	1600	13068	93	-54	-146	-14724	-3976	-5544	-6	-74	-66	-1680	-600	16980	174	11	36	123	115	5
-11380	-3160	10824	-119	116	-198	-15688	1492	-5476	68	-81	96	-2716	-5524	15524	12	-102	198	-10456	1544	13076	111	-23	-138	-14724	-4020	-5452	-12	-84	-19	-1696	-568	16996	178	17	83	123	115	5
-11380	-3068	10808	-117	120	-153	-15664	1512	-5460	63	-24	113	-2696	-5516	15568	-9	-105	195	-10312	1568	13096	109	19	-158	-14756	-3968	-5408	-36	-70	-73	-1628	-548	16936	171	-26	61	123	115	5
-11348	-3120	10868	-131	112	-174	-15576	1388	-5476	73	-86	112	-2624	-5584	15616	10	-114	181	-10344	1628	13208	124	-35	-156	-14672	-4016	-5424	19	-78	-47	-1612	-524	17008	159	-7	71	123	115	5
-11336	-3096	10796	-119	121	-150	-15664	1480	-5492	40	-24	116	-2580	-5540	15544	40	-140	162	-10408	1552	13060	123	-22	-151	-14780	-3924	-5452	19	-52	-57	-1536	-584	16960	136	-10	46	123	115	5
-11316	-3068	10872	-131	130	-176	-15700	1480	-5452	40	-29	146	-2632	-5588	15544	89	-123	147	-10324	1564	13172	127	-68	-158	-14804	-3892	-5564	-4	-52	-64	-1552	-480	16960	132	-57	56	123	115	5
-11348	-3164	10796	-117	136	-142	-15624	1512	-5472	17	0	159	-2700	-5564	15544	60	-131	186	-10376	1504	13124	141	-68	-153	-14728	-3912	-5408	35	-34	-73	-1600	-468	17088	197	-50	45	123	115	5
-11276	-3076	10848	-117	139	-167	-15728	1516	-5460	36	-7	161	-2660	-5520	15532	47	-139	166	-10408	1540	13140	95	-47	-109	-14752	-3924	-5492	15	-19	-94	-1612	-496	17088	215	-13	48	123	115	5
-11352	-3132	10764	-61	160	-163	-15696	1544	-5464	44	-35	166	-2700	-5508	15628	-9	-138	152	-10440	1572	13160	139	-71	-162	-14712	-3948	-5508	6	9	-77	-1680	-508	16964	202	6	60	123	115	5
-11320	-3092	10772	-82	132	-179	-15628	1492	-5488	88	11	155	-2736	-5524	15552	48	-109	171	-10380	1576	13116	123	-23	-155	-14724	-3976	-5528	24	-73	-57	-1704	-452	17000	148	-11	66	123	115	5
-11360	-3116	10868	-137	111	-111	-15624	1492	-5504	73	-28	177	-2704	-5528	15664	61	-100	164	-10452	1592	13020	83	-35	-173	-14756	-3964	-5368	11	-35	-96	-1716	-508	16924	164	2	26	123	115	5
-11336	-3080	10796	-119	133	-134	-15676	1540	-5524	36	-38	139	-2672	-5448	15528	68	-125	173	-10388	1552	13152	87	8	-190	-14784	-4008	-5568	25	-65	-77	-1616	-484	16948	175	-34	100	123	115	5
-11356	-3100	10768	-96	103	-160	-15656	1480	-5532	18	-45	133	-2660	-5492	15564	59	-107	150	-10368	1572	13128	117	-54	-141	-14784	-3952	-5480	17	-49	-67	-1620	-536	17048	140	0	69	123	115	5
-11332	-3100	10808	-109	151	-176	-15700	1516	-5404	59	-35	131	-2676	-5544	15572	20	-129	157	-10380	1568	13144	108	-19	-180	-14748	-3924	-5456	8	-18	-79	-1576	-496	16924	156	0	63	123	115	5
-11372	-3128	10740	-113	147	-159	-15672	1544	-5412	83	-50	145	-2600	-5508	15572	-3	-107	157	-10356	1572	13172	105	-34	-127	-14796	-4000	-5452	7	-15	-111	-1560	-500	17068	180	-16	64	123	115	5
-11304	-3132	10780	-106	160	-160	-15660	1472	-5388	82	34	129	-2596	-5492	15672	-9	-146	170	-10412	1572	13112	103	-2	-154	-14760	-3924	-5412	5	10	-110	-1600	-476	16996	144	-12	52	123	115	5
-11372	-3104	10792	-98	172	-136	-15704	1504	-5372	44	48	152	-2652	-5508	15552	-10	-128	188	-10324	1552	13276	101	-94	-154	-14760	-4016	-5532	-12	-1	-69	-1588	-488	17060	163	5	37	123	115	5
-11388	-3184	10772	-116	143	-179	-15624	1468	-5516	79	44	105	-2676	-5524	15524	-6	-129	192	-10416	1548	13148	87	-7	-179	-14696	-3956	-5496	17	-16	-120	-1656	-504	17092	222	1	56	123	115	5
-11352	-3104	10772	-66	166	-100	-15688	1540	-5496	70	47	168	-2716	-5552	15656	39	-117	174	-10408	1524	13048	89	11	-155	-14748	-3964	-5572	51	-6	-69	-1696	-544	17084	191	-15	79	123	115	5
-11392	-3100	10776	-141	140	-175	-15664	1432	-5524	92	17	147	-2720	-5572	15452	61	-147	152	-10396	1548	13076	88	-25	-183	-14764	-3964	-5540	10	13	-83	-1668	-484	16992	163	10	53	123	115	5
-11340	-3104	10684	-103	133	-141	-15688	1508	-5484	69	-16	163	-2752	-5548	15652	34	-123	142	-10456	1544	13204	102	-24	-155	-14764	-4032	-5540	20	-21	-85	-1660	-476	17016	178	-7	66	123	115	5
-11376	-3100	10836	-86	145	-163	-15668	1536	-5588	54	29	158	-2760	-5512	15616	43	-125	135	-10388	1544	13132	119	-8	-135	-14724	-3976	-5472	-47	-54	-91	-1668	-472	17012	186	-5	48	123	115	5
-11404	-3072	10924	-85	134	-146	-15688	1472	-5516	45	-29	174	-2720	-5564	15592	79	-118	154	-10428	1560	13116	130	-46	-144	-14744	-3908	-5520	4	-9	-63	-1668	-432	16892	199	-33	48	123	115	5
-11384	-3148	10884	-105	144	-157	-15668	1544	-5468	64	-41	177	-2660	-5488	15568	94	-109	156	-10396	1596	13148	125	-50	-132	-14692	-4008	-5496	-29	-47	-88	-1656	-504	17052	198	29	57	123	115	5
-11348	-3132	10776	-133	119	-145	-15676	1536	-5404	40	-31	160	-2708	-5504	15456	57	-111	153	-10364	1588	13196	102	-26	-178	-14788	-3932	-5536	26	-75	-71	-1596	-464	16916	173	-17	91	123	115	5
-11284	-3088	10756	-90	120	-143	-15636	1472	-5496	23	1	119	-2640	-5500	15560	65	-99	161	-10396	1524	13088	117	-47	-142	-14780	-3936	-5508	33	-35	-67	-1572	-468	16904	148	-10	90	123	115	5
-11380	-3124	10808	-155	117	-157	-15612	1552	-5488	77	-22	146	-2764	-5524	15588	46	-107	176	-10456	1560	13092	99	-3	-145	-14728	-3940	-5360	22	-65	-82	-1600	-480	16952	204	-15	88	123	115	5
-11364	-3116	10752	-87	140	-172	-15760	1540	-5440	59	-11	132	-2620	-5484	15680	32	-130	165	-10368	1528	13196	98	7	-182	-14740	-4008	-5396	48	-16	-60	-1604	-472	17020	160	23	81	123	115	5
-11376	-3096	10824	-86	172	-186	-15672	1480	-5440	70	25	152	-2692	-5520	15368	28	-102	150	-10356	1592	13216	134	-26	-176	-14728	-3968	-5400	-4	-68	-41	-1628	-472	16896	219	-19	25	122	115	5
-11420	-3088	10824	-117	111	-150	-15636	1528	-5484	26	-22	129	-2624	-5528	15564	5	-111	161	-10372	1568	13120	107	-6	-161	-14744	-4008	-5420	-17	-38	-82	-1692	-432	16968	160	-2	61	123	115	5
-11392	-3152	10812	-118	161	-188	-15644	1492	-5456	12	10	112	-2728	-5516	15584	-2	-115	150	-10416	1524	13192	92	-37	-156	-14680	-3944	-5520	0	-33	-95	-1676	-452	17032	163	-12	79	123	115	5
-11352	-3112	10792	-130	154	-174	-15664	1508	-5488	59	-16	133	-2724	-5504	15532	-10	-139	189	-10372	1560	13196	68	18	-179	-14700	-3960	-5516	-8	-18	-66	-1628	-492	16940	152	13	47	123	115	5
-11356	-3124	10796	-114	150	-170	-15712	1544	-5432	96	-47	122	-2716	-5564	15604	10	-131	186	-10356	1572	13100	94	-46	-149	-14748	-4000	-5476	48	-51	-78	-1620	-480	16984	197	-11	83	123	115	5
-11332	-3108	10844	-106	168	-165	-15624	1520	-5484	73	-18	118	-2728	-5564	15580	36	-119	183	-10428	1524	13124	105	-38	-140	-14704	-3992	-5392	-3	-32	-67	-1612	-428	16992	187	39	55	123	115	5
-11348	-3108	10864	-98	172	-148	-15668	1488	-5420	87	-19	166	-2700	-5516	15468	12	-135	197	-10384	1584	13136	85	-11	-169	-14716	-3940	-5456	17	-43	-84	-1624	-452	17012	165	-26	60	123	115	5
-11392	-3104	10764	-83	139	-145	-15624	1532	-5504	96	-53	143	-2696	-5580	15584	31	-144	168	-10356	1592	13188	72	-30	-150	-14656	-3968	-5476	-39	-44	-105	-1636	-512	16996	157	-43	43	123	115	5
-11356	-3116	10984	-105	147	-114	-15668	1508	-5400	69	-3	130	-2628	-5580	15572	63	-148	172	-10336	1596	13068	97	-33	-137	-14700	-4032	-5348	-64	-41	-58	-1672	-492	17048	143	-33	34	123	115	5
-11316	-3092	10784	-126	131	-173	-15660	1492	-5428	69	-8	154	-2720	-5508	15572	42	-107	164	-10408	1572	13064	106	-3	-177	-14664	-4020	-5532	-23	-26	-28	-1636	-576	17032	184	-15	38	123	115	5
-11384	-3144	10804	-123	143	-176	-15644	1544	-5508	94	-9	127	-2736	-5524	15620	49	-117	155	-10396	1576	13264	106	-19	-147	-14744	-3980	-5528	-7	-9	-47	-1568	-500	16968	209	-30	55	123	115	5
-11376	-3064	10784	-115	117	-170	-15656	1528	-5492	96	-1	158	-2696	-5516	15564	57	-111	144	-10440	1524	13104	95	23	-159	-14724	-3908	-5516	15	6	-67	-1640	-416	17128	247	13	23	123	115	5
-11344	-3044	10792	-88	127	-146	-15620	1516	-5496	53	9	129	-2696	-5536	15576	25	-125	175	-10400	1492	13164	95	11	-155	-14732	-3892	-5476	-27	-54	-48	-1636	-468	17056	240	-24	57	123	115	5
-11332	-3088	10804	-78	146	-164	-15668	1488	-5560	28	10	148	-2752	-5428	15592	38	-111	173	-10412	1540	13060	119	-19	-134	-14676	-3948	-5432	-50	-27	-84	-1696	-400	16996	201	21	83	123	115	5
-11368	-3128	10832	-124	140	-127	-15604	1572	-5508	44	23	103	-2704	-5480	15476	11	-110	160	-10400	1604	13244	125	-55	-132	-14704	-3880	-5560	-37	-87	-83	-1608	-280	16952	163	45	85	123	115	5
-11320	-3116	10824	-162	136	-163	-15600	1524	-5396	83	-33	112	-2696	-5508	15540	32	-100	195	-10404	1576	13188	80	-41	-151	-14744	-3940	-5440	-15	-50	-118	-1636	-428	16892	132	11	74	123	115	5
-11320	-3040	10860	-107	146	-182	-15632	1440	-5376	84	-20	99	-2744	-5476	15524	70	-134	171	-10368	1536	13112	95	-47	-158	-14756	-3936	-5496	5	-37	-96	-1612	-372	16976	120	-22	79	123	115	5
-11356	-3072	10780	-142	140	-176	-15632	1556	-5360	40	-28	115	-2788	-5408	15624	28	-143	173	-10340	1592	13164	95	-44	-174	-14772	-3972	-5564	61	-88	-57	-1732	-444	16928	120	-5	58	123	115	5
-11396	-3100	10828	-129	126	-189	-15684	1476	-5440	65	-32	116	-2672	-5468	15600	-35	-110	152	-10380	1576	13180	117	-91	-138	-14748	-3948	-5568	65	-91	-115	-1728	-504	16940	92	-20	57	123	115	5
-11356	-3032	10756	-94	153	-179	-15672	1512	-5456	80	-74	130	-2708	-5488	15444	-18	-122	174	-10416	1600	13156	96	2	-162	-14624	-3956	-5424	86	-117	-118	-1668	-480	17036	94	-12	70	123	115	5
-11344	-3048	10848	-100	159	-175	-15616	1524	-5460	73	-23	84	-2712	-5496	15652	-26	-112	142	-10404	1568	13060	76	-55	-166	-14740	-4024	-5464	34	-64	-115	-1640	-520	17060	106	-48	69	123	115	5
-11440	-3092	10800	-111	176	-147	-15668	1556	-5516	71	-55	111	-2752	-5516	15560	-47	-140	173	-10440	1576	13204	84	-19	-185	-14700	-4044	-5488	16	-78	-90	-1676	-596	17044	97	-13	61	123	115	5
-11380	-3108	10796	-151	168	-170	-15652	1412	-5528	92	-53	85	-2696	-5568	15580	-41	-131	213	-10404	1532	13116	93	-62	-162	-14720	-4032	-5476	39	-110	-58	-1580	-580	17000	143	4	54	123	115	5
-11344	-3068	10800	-104	125	-143	-15684	1520	-5440	79	-38	97	-2648	-5524	15528	-4	-135	191	-10384	1536	13184	106	-29	-159	-14704	-3960	-5480	27	-58	-63	-1628	-536	16968	195	-27	41	123	115	5
-11336	-3096	10792	-107	131	-156	-15668	1444	-5452	72	-37	120	-2716	-5512	15612	29	-133	212	-10388	1592	13176	118	-2	-161	-14696	-3964	-5432	-14	-66	-39	-1664	-560	16964	221	-7	17	123	115	5
-11344	-3080	10748	-116	134	-179	-15668	1444	-5512	70	-61	123	-2656	-5540	15548	36	-124	188	-10376	1552	13164	116	-39	-128	-14720	-3984	-5400	-12	-32	-28	-1568	-496	17036	209	-12	33	123	115	5
-11324	-3108	10828	-121	127	-194	-15652	1420	-5408	44	-42	141	-2672	-5512	15584	32	-138	168	-10412	1564	13204	117	-4	-139	-14744	-3980	-5448	-26	-40	-82	-1564	-504	16952	226	-9	58	123	115	5
-11388	-3116	10832	-126	121	-167	-15724	1428	-5508	45	-2	100	-2592	-5612	15572	16	-174	173	-10428	1536	13044	100	-25	-157	-14724	-3888	-5372	-82	-16	-102	-1536	-480	16872	281	-27	21	123	115	5
-11312	-3120	10736	-113	163	-122	-15640	1392	-5424	67	8	117	-2592	-5556	15548	-1	-129	192	-10424	1572	13260	100	-1	-176	-14788	-3936	-5604	-21	-11	-106	-1588	-268	16908	220	-15	79	123	115	5
-11408	-3156	10856	-110	143	-163	-15664	1512	-5496	56	-18	151	-2604	-5536	15532	22	-117	185	-10392	1548	13180	92	-20	-189	-14688	-3916	-5544	0	-12	-81	-1624	-412	16976	191	28	66	123	115	5
-11392	-3096	10804	-101	123	-133	-15616	1468	-5468	69	23	180	-2708	-5564	15512	51	-101	184	-10392	1532	13172	123	20	-152	-14724	-3940	-5456	30	4	-88	-1624	-416	16912	160	-35	60	123	115	5
-11376	-3144	10888	-110	130	-156	-15696	1504	-5340	88	-13	188	-2712	-5588	15500	45	-98	142	-10416	1524	13160	79	-35	-186	-14684	-3928	-5564	37	-10	-119	-1684	-376	16980	141	4	54	123	115	5
-11292	-2996	10760	-82	123	-128	-15632	1516	-5504	62	9	192	-2720	-5492	15656	50	-105	150	-10336	1532	13056	68	-30	-145	-14704	-3968	-5588	28	-7	-131	-1660	-404	17032	148	-14	100	123	115	5
-11372	-3028	10784	-110	142	-150	-15608	1508	-5396	39	6	182	-2736	-5484	15664	48	-134	160	-10396	1564	13228	89	-65	-148	-14728	-3932	-5564	10	-10	-106	-1632	-504	17068	126	11	97	123	115	5
-11332	-3152	10704	-79	136	-127	-15640	1484	-5436	34	5	186	-2712	-5532	15576	63	-116	159	-10392	1592	13160	81	-25	-173	-14700	-4036	-5592	21	-50	-130	-1664	-472	16940	135	-24	102	123	115	5
-11324	-3116	10796	-111	135	-183	-15668	1576	-5520	35	-22	171	-2764	-5432	15568	59	-150	153	-10360	1528	13176	114	-53	-180	-14780	-3988	-5488	19	-34	-122	-1676	-544	17080	113	-29	66	123	115	5
-11320	-3088	10796	-91	135	-160	-15676	1556	-5524	58	-25	100	-2736	-5532	15612	33	-115	182	-10392	1580	13164	103	-14	-174	-14740	-4052	-5524	57	-46	-104	-1724	-548	17040	80	0	107	123	115	5
-11352	-3148	10828	-109	138	-143	-15660	1452	-5576	50	-42	126	-2688	-5516	15540	26	-116	185	-10380	1576	13180	106	-50	-140	-14684	-3984	-5504	32	-49	-87	-1644	-532	17104	161	-37	88	123	115	5
-11364	-3132	10836	-144	159	-150	-15608	1512	-5436	60	-32	110	-2672	-5508	15576	-27	-154	200	-10352	1532	13184	103	0	-202	-14660	-4052	-5452	-33	-59	-124	-1648	-592	17072	191	-24	71	123	115	5
-11476	-3048	10764	-113	131	-149	-15624	1512	-5484	38	-25	102	-2768	-5492	15472	-22	-150	214	-10416	1548	13168	118	-36	-115	-14720	-4040	-5516	-9	-28	-88	-1652	-516	16928	197	-16	47	123	115	5
-11324	-3084	10808	-100	168	-185	-15588	1480	-5560	37	-44	80	-2712	-5592	15576	-1	-136	209	-10364	1592	13180	125	-3	-172	-14700	-4004	-5500	5	-44	-111	-1676	-504	16892	166	-19	43	122	115	5
-11340	-3064	10764	-114	140	-184	-15692	1488	-5428	63	-19	76	-2760	-5532	15472	38	-116	172	-10312	1556	13148	136	6	-174	-14688	-3992	-5648	1	-50	-52	-1700	-500	16892	172	-48	32	123	115	5
-11320	-3128	10808	-124	129	-179	-15628	1480	-5412	68	-48	100	-2784	-5524	15612	-16	-102	165	-10360	1580	13016	165	7	-146	-14680	-4028	-5572	30	-54	-29	-1676	-476	16864	201	-21	9	123	115	5
-11328	-3032	10780	-102	123	-206	-15600	1436	-5484	47	-110	123	-2696	-5564	15452	38	-145	169	-10404	1580	13140	145	-59	-115	-14712	-3964	-5492	3	-96	-27	-1672	-488	17008	196	-42	-4	123	115	5
-11352	-3136	10912	-117	157	-168	-15592	1416	-5380	3	-58	127	-2652	-5532	15560	31	-135	159	-10456	1580	13120	131	-23	-139	-14700	-3964	-5552	40	-78	-3	-1628	-428	16928	200	-34	-13	123	115	5
-11344	-3080	10836	-107	123	-172	-15668	1448	-5536	65	-27	151	-2708	-5584	15512	34	-141	126	-10404	1584	13084	137	-56	-117	-14756	-3904	-5472	-33	-103	-1	-1524	-464	17044	212	-3	19	123	115	5
-11380	-3072	10836	-112	117	-187	-15680	1444	-5316	63	-26	149	-2592	-5612	15512	48	-97	133	-10352	1528	13088	117	-23	-128	-14716	-3936	-5360	0	-79	-33	-1520	-452	17004	204	5	9	123	115	5
-11372	-3196	10892	-85	128	-141	-15644	1464	-5372	71	-19	212	-2664	-5604	15556	68	-87	148	-10352	1592	13096	122	-58	-169	-14712	-3924	-5460	-6	-48	-26	-1408	-396	16996	191	-25	33	123	115	5
-11344	-3148	10768	-59	110	-150	-15616	1464	-5364	99	-40	200	-2592	-5572	15588	94	-108	134	-10396	1588	13124	89	-57	-178	-14772	-3908	-5300	-39	16	-81	-1484	-440	16976	181	-10	79	123	115	5
-11380	-3052	10904	-74	133	-147	-15692	1528	-5404	81	50	179	-2632	-5512	15568	80	-144	153	-10356	1544	13064	123	-13	-175	-14700	-3916	-5456	-27	35	-132	-1540	-424	16904	203	-4	23	123	115	5
-11264	-3096	10836	-108	120	-146	-15640	1568	-5420	85	49	192	-2664	-5468	15564	79	-168	174	-10420	1536	13144	92	13	-196	-14756	-3940	-5516	18	55	-129	-1572	-504	16872	192	15	66	123	115	5
-11324	-3128	10880	-93	145	-142	-15608	1492	-5468	94	73	195	-2704	-5456	15628	77	-131	232	-10412	1572	13088	85	-21	-179	-14716	-3980	-5468	4	81	-141	-1620	-392	16952	220	27	85	123	115	5
-11336	-3020	10820	-100	123	-169	-15600	1528	-5548	50	29	168	-2724	-5508	15532	25	-109	211	-10316	1504	13248	87	-17	-154	-14692	-3996	-5592	-5	28	-134	-1720	-436	17008	235	4	114	123	115	5
-11324	-3080	10784	-93	147	-171	-15632	1484	-5408	51	31	136	-2808	-5408	15484	4	-127	217	-10408	1508	13088	112	-61	-139	-14748	-3988	-5596	0	-10	-160	-1732	-468	16980	245	11	142	123	115	5
-11356	-3136	10828	-94	124	-184	-15684	1588	-5516	26	9	133	-2820	-5484	15636	44	-154	193	-10436	1496	13132	117	-54	-175	-14652	-4040	-5536	-24	-9	-118	-1804	-512	16980	240	9	105	123	115	5
-11332	-3172	10748	-103	115	-176	-15672	1560	-5416	49	-16	142	-2812	-5440	15616	27	-120	187	-10432	1584	13172	122	-2	-179	-14760	-4036	-5624	-32	-31	-132	-1756	-380	16968	166	-5	91	123	115	5
-11404	-3068	10784	-156	152	-157	-15648	1564	-5508	78	-14	134	-2756	-5404	15600	41	-146	225	-10384	1576	13156	108	-13	-153	-14780	-4044	-5636	-22	-66	-77	-1776	-444	17004	94	-35	60	123	115	5
-11384	-3136	10876	-112	145	-157	-15588	1548	-5540	44	-22	92	-2796	-5460	15532	35	-125	200	-10400	1544	13144	89	-68	-150	-14708	-4048	-5608	60	-88	-64	-1828	-444	17016	65	-40	42	123	115	5
-11400	-3124	10796	-130	185	-185	-15680	1544	-5588	60	-86	91	-2736	-5452	15512	9	-123	182	-10412	1504	13072	97	15	-135	-14688	-4004	-5524	61	-113	-21	-1812	-520	16984	88	-15	36	123	115	5
-11360	-3108	10820	-129	141	-158	-15592	1608	-5596	53	-95	68	-2792	-5480	15592	-13	-141	180	-10364	1552	13208	105	-2	-110	-14704	-4016	-5684	65	-148	-77	-1812	-540	17032	89	-33	8	123	115	5
-11392	-3112	10748	-127	136	-212	-15628	1488	-5512	46	-112	42	-2744	-5508	15600	-42	-108	119	-10408	1584	13148	130	-51	-104	-14700	-4032	-5472	12	-193	-12	-1752	-520	16996	128	-47	37	123	115	5
-11408	-3084	10868	-153	131	-228	-15612	1484	-5476	89	-97	103	-2720	-5516	15608	-26	-115	137	-10424	1556	13084	127	-57	-96	-14816	-4064	-5408	47	-143	13	-1628	-576	17004	183	-50	19	123	115	5
-11300	-3100	10816	-123	128	-203	-15656	1520	-5516	75	-133	113	-2692	-5568	15672	-27	-118	143	-10364	1556	13100	156	-44	-112	-14736	-3948	-5332	13	-106	30	-1496	-568	16912	161	-51	-28	123	115	5
-11420	-3144	10808	-155	142	-168	-15576	1456	-5300	95	-82	117	-2640	-5512	15568	14	-106	150	-10332	1516	13064	150	-12	-149	-14700	-3972	-5460	4	-132	19	-1480	-540	17016	183	-10	-30	123	115	5
-11324	-3028	10788	-114	103	-186	-15616	1444	-5328	97	-58	118	-2568	-5592	15536	-20	-100	170	-10364	1608	13208	137	-14	-63	-14796	-3904	-5360	-6	-46	-39	-1416	-404	16996	178	6	10	123	115	5
-11348	-3132	10844	-98	127	-152	-15712	1408	-5396	44	22	183	-2552	-5616	15520	25	-136	159	-10416	1676	13084	94	24	-160	-14816	-3780	-5520	-101	-11	-52	-1636	-336	17048	124	-30	48	123	115	5
-11360	-3100	10784	-119	168	-155	-15708	1456	-5440	130	3	168	-2788	-5636	15484	71	-80	177	-10408	1600	13144	89	-8	-140	-14716	-3964	-5476	-4	-12	-53	-1724	-416	16924	127	-24	33	123	115	5
-11420	-3052	10800	-71	159	-114	-15588	1364	-5504	69	-1	206	-2788	-5656	15556	94	-117	216	-10336	1528	13148	92	-18	-183	-14712	-3916	-5432	117	-37	-111	-1616	-468	17028	172	-33	123	123	115	5
-11360	-3080	10860	-69	114	-123	-15652	1440	-5564	7	-34	189	-2864	-5576	15640	135	-127	173	-10420	1528	13072	93	-54	-130	-14756	-3896	-5424	95	-38	-92	-1676	-376	16992	189	-16	170	123	115	5
-11372	-3132	10816	-79	112	-158	-15660	1428	-5488	-29	-83	190	-2848	-5564	15592	212	-118	167	-10344	1516	13180	66	-46	-181	-14796	-3908	-5588	15	-78	-133	-1668	-372	17116	153	11	176	123	115	5
-11284	-3128	10812	-114	124	-168	-15636	1432	-5380	7	-80	174	-2660	-5524	15652	212	-118	176	-10400	1560	13192	66	-17	-196	-14752	-3964	-5500	-15	-55	-131	-1612	-452	16908	80	21	168	123	115	5
-11336	-3076	10720	-85	110	-156	-15684	1436	-5384	11	-71	238	-2684	-5492	15552	209	-116	182	-10432	1612	13104	90	-15	-195	-14696	-3980	-5376	11	-18	-159	-1564	-460	17024	82	-12	35	123	115	5
-11392	-3140	10792	-75	106	-124	-15688	1496	-5308	87	-53	264	-2508	-5380	15700	203	-127	112	-10376	1520	13164	81	-1	-166	-14704	-3952	-5416	24	-6	-139	-1680	-488	17060	106	-6	-64	123	115	5
-11344	-3080	10800	-77	118	-165	-15684	1536	-5296	124	44	225	-2576	-5248	15628	113	-97	67	-10332	1576	13116	75	-11	-156	-14700	-4076	-5636	56	-33	-78	-1676	-412	16968	61	-44	-126	123	115	5
-11284	-3140	10824	-84	144	-150	-15616	1608	-5348	104	24	176	-2620	-5236	15620	-39	-90	36	-10352	1500	13140	113	-49	-124	-14700	-3980	-5548	117	-56	-72	-1648	-384	16840	-15	-20	-162	123	115	5
-11360	-3092	10852	-110	149	-190	-15660	1628	-5540	94	71	103	-2768	-5276	15548	-155	-61	33	-10436	1592	13124	110	-20	-174	-14732	-3980	-5652	100	-91	-87	-1780	-324	16936	-110	21	-178	123	115	5
-11340	-3052	10900	-138	182	-200	-15588	1632	-5620	71	10	19	-2984	-5404	15716	-204	-58	84	-10344	1548	13112	87	-42	-173	-14768	-3952	-5672	42	-153	-116	-1808	-516	17008	-178	24	46	123	115	5
-11376	-3124	10784	-163	173	-208	-15640	1528	-5752	81	-72	-14	-2972	-5344	15592	-207	-54	94	-10320	1508	13096	96	-34	-121	-14716	-3892	-5436	21	-145	-94	-1892	-412	16972	-141	44	75	123	115	5
-11352	-3064	10752	-156	172	-196	-15548	1556	-5628	95	-132	-17	-2960	-5592	15612	-250	-106	218	-10404	1580	13236	106	-102	-92	-14640	-3984	-5684	63	-258	-160	-1780	-552	16960	-106	44	212	123	115	5
-11420	-3076	10768	-187	147	-226	-15584	1484	-5540	143	-190	-55	-2880	-5648	15500	-166	-186	261	-10388	1628	13248	59	-55	-145	-14828	-3956	-5296	115	-269	-180	-1520	-668	16880	46	-138	259	123	115	5
-11332	-3064	10816	-190	131	-209	-15672	1440	-5392	85	-187	-38	-2584	-5680	15556	-85	-173	299	-10356	1528	13172	118	-62	-129	-14784	-4040	-5348	83	-228	-192	-1364	-788	16968	30	4	252	123	115	5
-11332	-3072	10700	-158	142	-214	-15704	1356	-5336	40	-104	-17	-2388	-5592	15508	1	-193	269	-10396	1540	13192	80	-63	-129	-14780	-4008	-5092	90	-142	-174	-1248	-788	16976	120	-29	177	123	115	5
-11316	-3076	10836	-130	147	-198	-15704	1384	-5224	21	-39	47	-2276	-5648	15476	-11	-186	269	-10364	1544	13140	85	-46	-172	-14712	-4084	-5324	19	-40	-92	-1304	-824	16952	160	-24	77	123	115	5
-11272	-3112	10852	-120	145	-145	-15644	1384	-5276	28	35	124	-2376	-5648	15356	-5	-135	177	-10460	1536	13188	132	-80	-136	-14748	-4020	-5384	-46	70	-90	-1300	-796	16944	226	35	5	123	115	5
-11428	-3124	10808	-94	153	-157	-15696	1364	-5272	43	98	181	-2528	-5672	15636	-88	-103	157	-10428	1584	13116	100	-36	-209	-14748	-3976	-5264	-93	115	-58	-1352	-768	16936	224	30	-32	123	115	5
-11380	-3216	10792	-90	144	-111	-15628	1336	-5368	82	105	230	-2660	-5704	15432	-42	-106	141	-10400	1584	13160	90	3	-190	-14784	-3980	-5412	-105	151	-59	-1588	-592	17040	300	31	-89	123	115	5
-11380	-3044	10780	-47	142	-107	-15660	1484	-5476	50	128	247	-2772	-5704	15616	134	-98	177	-10436	1576	13096	108	-29	-195	-14712	-4012	-5548	-94	166	-76	-1676	-568	17028	336	19	-50	123	115	5
-11356	-3144	10788	-60	143	-105	-15664	1520	-5528	49	80	202	-2896	-5536	15488	290	-66	195	-10348	1624	13104	116	15	-183	-14692	-3960	-5632	-15	128	-47	-1932	-512	17032	324	40	64	123	115	5
-11436	-3064	10756	-89	163	-102	-15664	1488	-5588	41	84	252	-2948	-5456	15536	168	-132	206	-10352	1580	13032	122	-13	-190	-14756	-3980	-5508	-11	62	-42	-1956	-396	17020	323	-61	77	123	115	5
-11448	-3084	10792	-112	144	-122	-15624	1480	-5668	19	5	225	-2976	-5412	15584	158	-106	157	-10372	1492	13248	143	-33	-153	-14732	-4008	-5652	14	-32	-66	-2008	-308	17088	258	-28	90	123	115	5
-11364	-3120	10724	-103	114	-130	-15648	1564	-5600	53	-88	210	-2844	-5456	15504	127	-94	109	-10436	1612	13220	132	-60	-129	-14708	-4004	-5560	17	-115	-62	-1820	-364	16848	142	-13	119	123	115	5
-11352	-3104	10836	-81	111	-168	-15608	1584	-5436	48	-132	165	-2816	-5508	15540	87	-120	94	-10432	1536	13116	95	-55	-147	-14752	-4016	-5440	-23	-121	-83	-1656	-512	16992	95	-50	99	123	115	5
-11312	-3012	10812	-86	119	-157	-15676	1532	-5396	66	-96	157	-2692	-5380	15584	85	-105	117	-10364	1544	13160	149	-34	-163	-14724	-4004	-5476	-9	-149	-49	-1568	-588	16956	142	-53	49	123	115	5
-11396	-3084	10780	-84	161	-173	-15652	1584	-5444	66	-61	136	-2544	-5392	15540	46	-71	134	-10376	1548	13056	104	15	-159	-14756	-4048	-5264	15	-135	-61	-1540	-604	17076	112	-1	-15	123	115	5
-11364	-3068	10808	-116	161	-176	-15656	1532	-5344	98	-25	107	-2572	-5356	15520	-42	-111	127	-10364	1548	13196	98	17	-153	-14788	-3984	-5364	33	-50	-59	-1524	-640	16944	80	-21	-51	123	115	5
-11384	-3100	10916	-78	126	-186	-15600	1488	-5300	90	27	115	-2584	-5532	15648	-59	-139	143	-10368	1588	13116	100	-1	-146	-14688	-4036	-5436	55	-31	6	-1596	-612	17004	123	6	-68	123	115	5
-11360	-3120	10876	-106	143	-163	-15632	1508	-5408	90	11	160	-2616	-5568	15540	-112	-112	145	-10384	1564	13148	120	-30	-104	-14748	-3892	-5500	7	-8	-15	-1548	-636	16968	224	-10	-44	123	115	5
-11388	-3172	10836	-107	164	-154	-15656	1464	-5520	106	99	109	-2692	-5636	15508	-60	-126	236	-10400	1588	13124	133	-17	-121	-14728	-4000	-5396	-25	28	-54	-1604	-664	16980	291	-65	-6	123	115	5
-11372	-3128	10776	-110	177	-109	-15644	1396	-5488	111	100	187	-2756	-5636	15500	-7	-135	224	-10372	1580	13228	96	-33	-161	-14648	-3976	-5332	-30	39	-24	-1580	-536	16964	353	-107	23	123	115	5
-11336	-3084	10728	-100	143	-126	-15636	1328	-5500	73	55	194	-2800	-5672	15564	158	-140	240	-10332	1624	13124	124	25	-176	-14724	-4004	-5460	-11	23	-21	-1680	-512	16960	306	-21	62	123	115	5
-11428	-3084	10748	-83	163	-142	-15628	1400	-5484	61	-7	213	-2868	-5696	15512	206	-141	226	-10372	1560	13204	97	-13	-146	-14768	-3964	-5500	14	14	-1	-1724	-480	17036	257	-36	51	123	115	5
-11340	-3120	10868	-70	118	-131	-15652	1428	-5592	10	-1	237	-2816	-5616	15556	271	-102	203	-10372	1468	13172	121	-4	-175	-14752	-3944	-5556	23	-22	-4	-1788	-456	16948	277	-63	62	123	115	5
-11372	-3112	10772	-66	118	-128	-15660	1396	-5580	1	4	260	-2760	-5536	15548	245	-78	166	-10376	1476	13044	107	10	-135	-14740	-3944	-5484	16	-31	-34	-1776	-544	16992	324	-55	47	123	115	5
-11380	-3020	10788	-98	87	-121	-15664	1528	-5528	-9	-29	245	-2784	-5492	15524	207	-79	97	-10420	1588	13140	156	-20	-149	-14728	-3928	-5556	-20	-38	-36	-1704	-520	16912	294	-25	83	123	115	5
-11380	-3068	10844	-67	89	-159	-15668	1488	-5512	-15	-67	299	-2764	-5528	15640	151	-64	112	-10372	1592	13132	131	-34	-155	-14756	-3992	-5516	-25	-65	-25	-1572	-532	16940	265	35	58	123	115	5
-11352	-3100	10796	-97	131	-173	-15648	1484	-5608	10	-92	235	-2744	-5444	15508	196	-39	105	-10348	1544	13104	139	27	-106	-14728	-3960	-5420	25	-80	-21	-1656	-444	16988	268	-86	56	123	115	5
-11356	-3044	10836	-97	126	-122	-15680	1524	-5504	50	-51	222	-2724	-5528	15624	323	-46	100	-10368	1588	13112	133	-46	-131	-14748	-3968	-5436	-11	-83	-54	-1548	-472	17004	208	-75	27	123	115	5
-11288	-3068	10784	-122	97	-161	-15600	1580	-5332	84	-62	278	-2688	-5512	15496	332	-60	182	-10368	1596	13080	156	-84	-169	-14784	-3852	-5404	-31	-58	-36	-1516	-488	16824	201	-52	35	123	115	5
-11336	-3112	10824	-66	90	-131	-15720	1572	-5484	44	13	249	-2608	-5568	15712	398	-100	264	-10384	1616	13068	117	-20	-164	-14792	-3908	-5392	-7	-11	-56	-1536	-424	17016	237	-70	70	123	115	5
-11344	-3128	10828	-68	73	-115	-15664	1552	-5412	40	-91	283	-2708	-5476	15568	477	-101	277	-10380	1520	13144	115	7	-156	-14744	-3868	-5396	-38	-30	-107	-1528	-544	16956	247	-55	122	123	115	5
-11360	-3100	10800	-67	100	-164	-15596	1548	-5532	28	-62	271	-2772	-5384	15592	451	-60	262	-10312	1620	13112	77	-4	-148	-14800	-3908	-5444	28	22	-78	-1500	-496	17020	339	-69	134	123	115	5
-11324	-3088	10824	-51	118	-145	-15632	1536	-5420	7	-29	243	-2692	-5268	15740	293	-90	165	-10420	1612	13168	106	0	-159	-14740	-3884	-5440	-31	17	-118	-1596	-428	16912	352	-56	109	123	115	5
-11364	-3088	10868	-103	105	-123	-15648	1628	-5420	26	-52	212	-2616	-5264	15588	161	-120	103	-10356	1604	13184	102	-10	-190	-14668	-3976	-5532	1	41	-92	-1704	-436	16992	333	-10	124	123	115	5
-11384	-3044	10880	-76	85	-166	-15624	1592	-5468	-40	-63	177	-2580	-5288	15692	145	-71	156	-10352	1604	13228	83	-48	-185	-14732	-3972	-5516	33	82	-77	-1748	-488	16944	260	-33	85	123	115	5
-11340	-3068	10872	-74	111	-161	-15692	1680	-5484	-15	-40	145	-2696	-5232	15764	125	-76	203	-10444	1560	13104	58	-4	-160	-14660	-3948	-5540	-20	-35	-117	-1756	-408	16964	206	-62	84	123	115	5
-11328	-3072	10796	-118	164	-173	-15608	1576	-5532	85	-8	124	-2828	-5244	15652	68	-92	227	-10408	1552	13164	106	-30	-153	-14672	-3992	-5524	-32	-20	-116	-1764	-500	16900	150	-12	65	123	115	5
-11388	-3064	10768	-168	168	-138	-15688	1604	-5440	82	-13	119	-2776	-5284	15660	14	-92	242	-10348	1512	13208	126	-40	-141	-14692	-4036	-5544	-19	-23	-61	-1708	-500	16936	191	-46	33	123	115	5
-11396	-3052	10816	-95	136	-163	-15688	1548	-5484	74	-38	124	-2816	-5288	15712	0	-83	186	-10428	1604	13212	124	-26	-164	-14784	-3924	-5476	25	-59	-52	-1668	-472	16964	157	-24	18	123	115	5
-11376	-3072	10788	-148	161	-196	-15616	1664	-5592	53	-26	124	-2800	-5264	15648	-15	-124	145	-10384	1480	13172	130	-8	-129	-14756	-3968	-5392	2	-46	-56	-1596	-492	16908	150	-55	-49	123	115	5
-11344	-3112	10840	-104	144	-194	-15656	1636	-5472	11	-105	68	-2744	-5272	15524	-71	-78	164	-10428	1588	13148	99	-60	-140	-14692	-3900	-5512	-11	-22	-20	-1588	-448	16936	162	-65	-71	123	115	5
-11348	-3048	10900	-138	162	-187	-15700	1588	-5444	27	-69	19	-2744	-5288	15632	-144	-80	237	-10400	1676	13236	150	8	-142	-14724	-3932	-5464	-24	2	-36	-1544	-556	17124	98	-55	-75	123	115	5
-11392	-3072	10816	-162	174	-177	-15580	1624	-5504	-3	-44	11	-2808	-5464	15540	-131	-87	233	-10412	1568	13148	120	50	-198	-14700	-3924	-5424	-38	-4	-19	-1488	-496	16932	100	-37	-85	123	115	5
-11356	-3044	10908	-153	127	-166	-15584	1548	-5456	49	-57	24	-2772	-5404	15584	-164	-138	229	-10420	1580	13192	86	-35	-136	-14716	-3940	-5528	-35	19	-24	-1516	-448	17012	-3	30	0	123	115	5
-11352	-3068	10748	-143	154	-188	-15628	1536	-5396	64	-66	5	-2756	-5436	15680	-197	-158	226	-10360	1548	13092	117	-26	-155	-14708	-3908	-5480	-7	34	-73	-1720	-460	16992	133	15	-8	123	115	5
-11372	-3100	10800	-183	131	-198	-15744	1476	-5516	50	-49	77	-2788	-5460	15524	-150	-164	192	-10456	1596	13188	106	-41	-188	-14700	-3848	-5584	-73	-4	-121	-1536	-788	16992	732	-111	36	123	115	5
-11392	-3028	10816	-132	166	-173	-15644	1544	-5504	64	-60	51	-2688	-5536	15572	-62	-123	159	-10428	1568	13084	121	-9	-155	-14668	-3796	-5584	9	-20	-135	-1656	-216	16888	898	-115	242	123	115	5
-11368	-3156	10772	-154	137	-179	-15680	1508	-5524	50	-46	41	-2736	-5468	15632	-31	-122	212	-10444	1600	13172	99	-56	-187	-14764	-3960	-5536	-68	-16	-147	-1480	116	16944	240	-86	241	123	115	5
-11304	-3096	10724	-152	151	-179	-15708	1544	-5440	61	-25	49	-2724	-5412	15524	16	-127	171	-10428	1640	13192	101	-22	-209	-14664	-4012	-5480	148	-7	-91	-1680	-680	17100	18	-76	31	123	115	5
-11396	-3116	10852	-151	134	-200	-15716	1528	-5344	56	-51	61	-2684	-5464	15620	-36	-166	152	-10364	1588	13044	110	-23	-181	-14656	-3880	-5588	288	21	-151	-1776	-696	16924	1036	20	88	122	115	5
-11300	-3148	10832	-113	153	-189	-15716	1468	-5364	67	-15	80	-2724	-5464	15612	-73	-151	138	-10408	1572	13088	90	-37	-175	-14848	-3900	-5520	-29	-44	-134	-1648	-28	17084	610	-40	257	123	115	5
-11332	-3056	10780	-143	162	-160	-15632	1496	-5480	97	-9	95	-2728	-5480	15580	-74	-138	176	-10408	1540	13104	110	-13	-178	-14644	-4092	-5572	-143	-68	-131	-1700	-244	17116	-42	-69	74	123	115	5
-11368	-3068	10780	-118	118	-177	-15680	1576	-5420	92	4	84	-2816	-5428	15488	-45	-144	162	-10452	1524	13092	107	-14	-182	-14628	-4212	-5632	16	-62	-46	-1712	-620	16996	-53	31	-129	123	115	5
-11308	-3068	10792	-156	167	-195	-15632	1504	-5488	81	-40	44	-2800	-5448	15660	-35	-148	175	-10400	1608	13180	110	23	-165	-14648	-4028	-5540	174	-105	5	-1748	-532	16932	184	10	-125	123	115	5
-11380	-2976	10772	-111	143	-164	-15620	1536	-5532	64	-76	52	-2812	-5456	15552	-60	-122	141	-10400	1584	13152	174	-29	-124	-14768	-3904	-5544	63	-156	13	-1664	-380	17024	233	-18	-1	123	115	5
-11360	-3088	10748	-125	117	-157	-15672	1560	-5460	71	-129	45	-2816	-5440	15500	-99	-133	197	-10392	1580	13100	174	-34	-118	-14708	-3860	-5516	-139	-197	17	-1672	-340	17076	146	11	28	123	115	5
-11328	-3068	10828	-114	126	-167	-15712	1480	-5416	58	-97	-10	-2872	-5508	15576	-96	-119	172	-10412	1596	13192	159	-53	-133	-14668	-4016	-5508	-17	-157	-22	-1616	-384	16952	227	-3	80	123	115	5
-11336	-3072	10796	-118	135	-194	-15688	1488	-5392	32	-149	20	-2704	-5540	15536	-69	-164	185	-10356	1592	13092	131	-11	-115	-14748	-3852	-5544	111	-147	-10	-1600	-480	16944	413	-49	130	123	115	5
-11416	-3116	10844	-131	133	-173	-15700	1468	-5396	51	-101	35	-2652	-5544	15552	-14	-137	186	-10416	1580	13164	111	-5	-110	-14772	-3800	-5532	30	-206	3	-1576	-376	17076	612	-50	206	123	115	5
-11324	-3120	10812	-117	118	-195	-15652	1428	-5388	82	-75	101	-2660	-5556	15588	3	-146	137	-10396	1528	13224	133	-47	-110	-14752	-3884	-5576	-92	-139	-70	-1408	-180	17000	593	-32	205	123	115	5
-11324	-3072	10764	-100	145	-142	-15676	1476	-5292	91	-79	78	-2604	-5564	15620	58	-159	119	-10364	1592	13020	121	-45	-120	-14800	-3844	-5428	-37	-109	-80	-1396	0	17024	335	-56	204	123	115	5
-11384	-3108	10864	-95	116	-174	-15712	1488	-5316	100	32	100	-2588	-5576	15540	142	-126	112	-10432	1644	13180	109	-59	-171	-14812	-3776	-5384	14	-73	-122	-1348	28	16972	63	-31	133	123	115	5
-11404	-3160	10792	-105	93	-158	-15660	1448	-5468	89	53	137	-2684	-5456	15656	182	-127	102	-10324	1580	13072	81	-13	-176	-14780	-3820	-5424	46	-64	-149	-1392	-116	17068	-46	22	91	123	115	5
-11360	-3112	10860	-51	108	-137	-15692	1340	-5424	199	-38	196	-2736	-5424	15620	173	-99	71	-10408	1512	13192	58	-7	-177	-14792	-3836	-5476	32	-33	-216	-1520	-156	16948	-111	59	152	123	115	5
-11348	-3116	10828	-94	132	-149	-15692	1572	-5416	232	16	214	-2788	-5296	15632	70	-126	103	-10492	1552	13172	70	-66	-196	-14720	-3888	-5436	-54	-17	-207	-1612	-240	17032	-159	44	69	123	115	5
-11400	-3036	10760	-61	165	-172	-15612	1628	-5432	207	22	178	-2720	-5304	15636	13	-139	132	-10432	1580	13132	52	-71	-194	-14756	-3896	-5540	11	-59	-279	-1704	-344	17036	-174	44	81	123	115	5
-11352	-3064	10764	-122	116	-130	-15664	1664	-5416	26	14	94	-2784	-5312	15632	-34	-157	196	-10432	1568	13172	33	-90	-170	-14716	-4064	-5692	78	-38	-263	-1724	-516	17028	-72	60	165	123	115	5
-11368	-3120	10704	-132	126	-205	-15676	1532	-5412	-70	5	47	-2840	-5344	15656	-93	-166	241	-10396	1572	13076	62	-67	-158	-14692	-3984	-5544	60	-118	-225	-1712	-548	16948	-49	30	175	123	115	5
-11364	-3116	10872	-123	144	-144	-15644	1428	-5516	-74	-47	0	-2876	-5416	15584	-106	-144	227	-10416	1540	13204	65	-17	-189	-14736	-4024	-5512	84	-116	-222	-1748	-504	17060	85	-11	256	123	115	5
-11384	-3028	10816	-153	111	-206	-15652	1504	-5416	74	-65	24	-2804	-5516	15484	-148	-146	223	-10332	1508	13108	130	-93	-163	-14688	-4084	-5472	76	-129	-196	-1680	-480	17064	114	2	192	123	115	5
-11340	-3072	10796	-112	145	-141	-15604	1420	-5584	121	-66	83	-2712	-5576	15496	-124	-141	217	-10392	1552	13220	80	-68	-162	-14748	-4032	-5404	45	-115	-150	-1588	-524	17004	63	21	161	123	115	5
-11408	-3128	10748	-111	142	-209	-15708	1504	-5352	109	-85	91	-2692	-5472	15568	-78	-164	215	-10404	1500	13156	80	-33	-141	-14688	-4076	-5456	81	-111	-100	-1648	-516	17028	43	2	94	123	115	5
-11380	-3124	10896	-119	171	-203	-15656	1468	-5384	45	-26	60	-2688	-5584	15572	-55	-163	195	-10304	1492	13156	85	-54	-167	-14732	-4060	-5488	-16	-131	-101	-1696	-604	16956	67	6	24	123	115	5
-11328	-3124	10824	-143	154	-157	-15672	1392	-5292	-2	-61	59	-2692	-5548	15512	-85	-166	167	-10372	1564	13064	110	-39	-130	-14712	-4016	-5492	-14	-104	-57	-1628	-536	16976	103	-29	10	123	115	5
-11356	-3140	10792	-132	140	-179	-15740	1348	-5308	-27	-84	113	-2728	-5604	15532	-61	-143	122	-10372	1572	13188	146	-36	-117	-14764	-3956	-5384	-57	-133	-23	-1564	-552	16880	190	-59	11	123	115	5
-11340	-3124	10728	-126	147	-130	-15712	1400	-5376	24	-51	165	-2660	-5656	15508	-26	-162	154	-10360	1548	13068	99	-47	-134	-14788	-4004	-5368	20	-113	-10	-1556	-544	17016	282	-42	19	123	115	5
-11360	-3112	10876	-86	128	-175	-15612	1416	-5328	27	-18	178	-2684	-5664	15536	65	-138	143	-10424	1552	13128	98	-22	-158	-14752	-3924	-5488	37	-61	15	-1548	-376	16880	315	-63	30	123	115	5
-11384	-3100	10876	-84	118	-150	-15684	1344	-5336	60	19	208	-2636	-5592	15520	109	-141	155	-10428	1568	13200	146	7	-149	-14752	-3968	-5416	19	-24	-16	-1452	-428	17012	306	-28	19	123	115	5
-11340	-3148	10840	-74	101	-129	-15704	1424	-5352	44	12	213	-2648	-5484	15512	119	-130	155	-10432	1560	13076	173	-55	-143	-14752	-3908	-5452	9	11	-15	-1492	-364	16956	249	5	43	123	115	5
-11428	-3152	10724	-77	134	-126	-15692	1500	-5384	92	35	285	-2748	-5532	15560	131	-105	139	-10404	1588	13136	119	-2	-145	-14748	-3908	-5448	-8	-22	-31	-1564	-288	17016	206	10	-24	123	115	5
-11300	-3112	10776	-78	141	-103	-15608	1508	-5440	37	34	254	-2724	-5452	15636	108	-139	135	-10396	1592	13068	137	16	-146	-14736	-3936	-5564	-63	-31	-46	-1576	-376	17044	212	-25	5	123	115	5
-11320	-3116	10860	-86	135	-156	-15680	1532	-5488	33	-1	222	-2836	-5456	15624	84	-97	137	-10392	1580	13152	97	29	-160	-14692	-3908	-5572	-73	41	-90	-1644	-356	17092	223	4	41	123	115	5
-11300	-3108	10860	-126	162	-135	-15668	1556	-5428	10	36	202	-2844	-5344	15608	90	-135	137	-10392	1580	13084	103	18	-157	-14788	-3900	-5604	-26	-12	-86	-1680	-348	17008	299	-45	82	123	115	5
-11336	-3116	10752	-97	105	-173	-15652	1624	-5448	39	-50	195	-2828	-5352	15572	68	-117	129	-10424	1600	13164	93	-45	-172	-14720	-3924	-5468	21	-28	-111	-1672	-320	17012	285	-12	39	123	115	5
-11304	-3116	10744	-73	155	-192	-15612	1556	-5404	24	-45	122	-2812	-5348	15564	9	-131	160	-10436	1508	13176	76	-43	-193	-14752	-3844	-5472	33	-33	-110	-1604	-236	17076	248	9	127	123	115	5
-11324	-3056	10872	-107	123	-130	-15600	1572	-5412	114	-42	113	-2724	-5324	15596	-3	-109	180	-10396	1592	13136	78	-28	-121	-14676	-3904	-5500	40	-41	-136	-1572	-208	16960	113	-10	146	123	115	5
-11348	-3132	10828	-148	145	-160	-15632	1484	-5332	39	-81	106	-2740	-5376	15552	-9	-112	195	-10380	1588	13192	74	-73	-142	-14704	-3964	-5396	0	-58	-132	-1576	-272	17000	116	-37	162	123	115	5
-11436	-3128	10816	-144	117	-186	-15684	1512	-5260	66	-45	81	-2652	-5472	15592	-81	-153	220	-10368	1508	13268	79	-60	-145	-14700	-3960	-5468	2	-51	-161	-1584	-348	16872	53	65	148	123	115	5
-11316	-3096	10860	-142	138	-219	-15728	1496	-5312	85	6	92	-2716	-5472	15492	-65	-150	248	-10396	1564	13132	91	-20	-159	-14744	-3980	-5528	-21	-24	-151	-1596	-484	17016	97	-3	153	123	115	5
-11284	-3104	10768	-131	160	-182	-15684	1436	-5388	39	-10	41	-2712	-5536	15480	-77	-118	223	-10404	1560	13112	123	-71	-186	-14744	-4020	-5328	-12	-38	-143	-1608	-480	17016	165	7	110	123	115	5
-11336	-3076	10748	-87	141	-171	-15684	1424	-5396	48	-3	77	-2652	-5644	15488	1	-162	199	-10396	1620	13224	71	-61	-129	-14716	-4032	-5452	41	-57	-121	-1704	-464	17108	198	-1	72	123	115	5
-11336	-3212	10960	-106	130	-171	-15692	1424	-5488	44	-39	123	-2708	-5636	15488	35	-137	190	-10364	1612	13108	68	-71	-172	-14652	-4056	-5412	46	-78	-86	-1728	-436	17104	220	-14	81	123	115	5
-11360	-3060	10856	-95	107	-150	-15680	1412	-5488	47	-19	149	-2664	-5608	15504	78	-155	182	-10396	1504	13168	113	-27	-138	-14748	-4092	-5520	28	-58	-44	-1688	-496	16944	228	-20	16	123	115	5
-11408	-3152	10864	-58	130	-209	-15700	1452	-5308	43	3	179	-2736	-5612	15596	54	-105	132	-10360	1544	13108	94	-21	-175	-14720	-4040	-5436	3	-18	-53	-1644	-372	17024	235	-16	15	123	115	5
-11332	-3112	10780	-76	107	-152	-15668	1468	-5276	53	-2	210	-2732	-5512	15620	72	-104	96	-10336	1536	13240	149	-35	-124	-14732	-4052	-5564	-20	-45	-28	-1656	-396	16896	245	-74	-10	123	115	5
-11324	-3104	10800	-97	97	-143	-15620	1512	-5356	79	-28	243	-2740	-5508	15648	112	-91	77	-10404	1624	13144	149	-26	-126	-14720	-3940	-5440	-35	-78	-44	-1608	-332	16900	263	-42	32	123	115	5
-11364	-3148	10852	-71	136	-147	-15684	1460	-5400	51	-31	219	-2752	-5444	15624	87	-87	114	-10372	1588	13172	79	17	-146	-14688	-3948	-5396	-6	-51	12	-1560	-372	16948	274	-34	-16	123	115	5
-11344	-3128	10792	-108	128	-132	-15584	1548	-5340	42	-39	190	-2696	-5552	15572	60	-92	107	-10384	1608	13136	103	-10	-164	-14744	-3900	-5552	-15	-73	-42	-1476	-264	17036	248	-24	16	123	115	5
-11304	-3032	10756	-88	137	-128	-15648	1508	-5504	28	-9	191	-2688	-5480	15508	42	-76	129	-10448	1588	13120	92	-16	-141	-14796	-3900	-5436	55	-52	-42	-1496	-260	16972	187	-27	81	123	115	5
-11308	-3052	10820	-72	122	-136	-15688	1548	-5476	49	-23	188	-2660	-5392	15472	51	-90	167	-10356	1572	13108	99	-44	-137	-14776	-3928	-5524	1	-51	-67	-1520	-360	16924	173	-4	50	123	115	5
-11380	-3156	10820	-71	88	-154	-15636	1544	-5416	59	-4	174	-2696	-5400	15580	71	-143	156	-10348	1552	13152	97	-24	-159	-14736	-3932	-5368	26	-20	-70	-1572	-284	16916	193	-25	60	123	115	5
-11308	-3132	10840	-126	126	-160	-15688	1500	-5388	38	30	191	-2748	-5396	15556	24	-118	205	-10384	1588	13224	81	-7	-153	-14756	-3940	-5448	6	-37	-87	-1576	-312	16952	161	-49	104	123	115	5
-11368	-3116	10808	-84	142	-186	-15616	1548	-5408	53	11	132	-2796	-5484	15564	26	-119	188	-10376	1604	13176	76	-23	-191	-14636	-3980	-5368	2	-32	-128	-1552	-388	16940	179	-17	85	123	115	5
-11364	-3120	10824	-101	132	-133	-15692	1508	-5432	63	42	146	-2756	-5468	15600	20	-130	189	-10396	1552	13068	109	-56	-200	-14712	-3976	-5416	11	-53	-87	-1552	-464	16944	194	38	59	123	115	5
-11340	-3144	10860	-102	151	-160	-15688	1444	-5336	77	35	150	-2696	-5524	15620	23	-94	170	-10372	1544	13112	115	-31	-154	-14812	-4000	-5536	15	-38	-82	-1644	-324	16876	187	19	60	123	115	5
-11336	-3008	10764	-109	140	-164	-15708	1532	-5392	94	66	152	-2736	-5492	15576	40	-111	148	-10332	1576	13096	93	-18	-183	-14768	-3952	-5468	-23	-17	-129	-1640	-372	16928	180	-13	46	123	115	5
-11388	-3132	10856	-123	130	-160	-15668	1500	-5392	93	50	162	-2832	-5456	15672	-24	-117	130	-10380	1496	13136	93	-37	-168	-14720	-3892	-5464	18	11	-107	-1608	-320	16892	150	-2	60	123	115	5
-11372	-3136	10860	-98	135	-142	-15676	1512	-5416	44	38	157	-2764	-5492	15572	15	-142	191	-10372	1544	13232	120	-61	-167	-14672	-3908	-5364	8	-3	-92	-1576	-360	17076	141	11	71	123	115	5
-11340	-3108	10908	-83	147	-162	-15676	1500	-5452	51	-15	123	-2776	-5460	15568	26	-159	173	-10444	1572	13184	104	38	-174	-14724	-4004	-5520	-24	-28	-106	-1524	-380	17004	189	-5	66	123	115	5
-11380	-3168	10800	-93	117	-114	-15664	1476	-5532	46	30	114	-2792	-5556	15600	26	-131	187	-10380	1568	13176	97	-24	-167	-14716	-3944	-5552	-15	-33	-86	-1716	-428	16940	164	-27	76	123	115	5
-11388	-3168	10720	-97	144	-195	-15628	1512	-5536	74	-19	137	-2796	-5512	15600	42	-103	183	-10336	1552	13228	104	-2	-174	-14660	-3972	-5588	-18	-30	-84	-1684	-344	16956	206	-9	117	123	115	5
-11328	-3080	10872	-98	101	-167	-15728	1528	-5420	42	-14	141	-2804	-5500	15476	33	-102	188	-10348	1576	13132	89	-1	-168	-14748	-4020	-5468	10	-44	-65	-1704	-332	17076	204	6	87	123	115	5
-11352	-3100	10812	-79	142	-140	-15668	1484	-5416	40	-64	158	-2820	-5468	15484	28	-140	180	-10432	1536	13232	160	-10	-138	-14704	-4016	-5516	18	-42	-40	-1676	-404	16960	247	-44	87	123	115	5
-11332	-3092	10836	-77	140	-150	-15692	1448	-5460	30	-6	124	-2772	-5540	15564	58	-155	169	-10368	1576	13208	143	-18	-151	-14708	-4012	-5424	22	-66	-38	-1564	-280	17016	239	-53	89	123	115	5
-11352	-3172	10848	-89	117	-169	-15680	1484	-5500	33	-39	144	-2720	-5540	15640	85	-102	152	-10376	1640	13208	105	-13	-132	-14672	-4012	-5448	-17	-69	-47	-1560	-340	17060	206	-19	85	123	115	5
-11284	-3080	10744	-154	131	-178	-15588	1540	-5464	58	-108	189	-2704	-5480	15588	124	-133	169	-10364	1580	13084	135	-23	-133	-14716	-3972	-5424	-2	-48	-20	-1608	-336	17004	189	-8	52	123	115	5
-11328	-3124	10860	-89	160	-139	-15640	1580	-5392	48	-77	180	-2724	-5528	15492	111	-108	169	-10336	1588	13088	118	-37	-116	-14776	-3992	-5508	-2	-74	-38	-1604	-328	17020	164	-56	30	123	115	5
-11352	-3096	10804	-124	112	-161	-15680	1472	-5396	42	-59	182	-2640	-5456	15676	85	-95	149	-10376	1564	13244	154	-46	-141	-14764	-3948	-5480	8	-58	-17	-1576	-340	16988	207	-11	15	123	115	5
-11404	-3072	10792	-89	140	-166	-15680	1476	-5404	47	-32	206	-2748	-5440	15524	71	-104	120	-10348	1556	13136	110	-71	-150	-14768	-3964	-5484	-10	-63	-29	-1516	-324	16988	192	-11	-8	123	115	5
-11396	-3136	10824	-125	139	-136	-15616	1560	-5316	66	-47	177	-2704	-5436	15620	81	-110	116	-10412	1596	13200	110	-20	-175	-14808	-3924	-5456	10	-38	-20	-1572	-256	16980	194	-33	51	123	115	5
-11300	-3008	10876	-58	146	-184	-15636	1500	-5480	30	-16	183	-2672	-5444	15584	37	-125	119	-10404	1588	13196	121	-16	-178	-14808	-3988	-5384	-6	-51	-71	-1524	-312	17056	217	-22	14	123	115	5
-11360	-3124	10784	-81	136	-134	-15696	1552	-5368	65	-16	157	-2700	-5472	15488	46	-156	161	-10372	1564	13112	117	-16	-145	-14744	-3928	-5532	3	-39	-70	-1540	-300	16928	205	-33	34	123	115	5
-11384	-3116	10780	-130	123	-178	-15644	1576	-5372	61	27	134	-2744	-5416	15588	16	-117	167	-10348	1608	13204	100	-17	-150	-14736	-3912	-5472	34	-26	-109	-1560	-308	17008	245	-28	52	123	115	5
-11292	-3076	10808	-91	128	-207	-15668	1560	-5448	52	3	145	-2716	-5480	15556	16	-145	152	-10400	1600	13204	115	-49	-161	-14692	-3888	-5536	25	-46	-79	-1612	-276	16960	239	0	52	123	115	5
-11332	-3116	10800	-130	129	-150	-15640	1496	-5364	64	27	142	-2656	-5492	15584	-11	-112	188	-10408	1496	13144	108	-12	-163	-14676	-3960	-5424	-40	-40	-130	-1600	-284	17044	166	-2	66	123	115	5
-11328	-3156	10812	-68	120	-128	-15668	1532	-5424	93	-5	155	-2800	-5484	15484	21	-114	172	-10408	1576	13028	93	-9	-183	-14732	-3964	-5548	-22	-24	-96	-1584	-288	16916	172	2	70	123	115	5
-11356	-3192	10848	-110	157	-204	-15664	1576	-5540	71	-27	146	-2768	-5468	15552	2	-135	181	-10456	1660	13096	86	-3	-179	-14716	-4032	-5440	33	-26	-103	-1604	-304	16980	162	20	64	123	115	5
-11380	-3104	10776	-97	153	-159	-15708	1492	-5320	51	7	171	-2760	-5504	15604	21	-117	180	-10360	1580	13164	123	-46	-161	-14748	-3960	-5504	14	-53	-101	-1656	-328	16904	170	-22	73	123	115	5
-11336	-3080	10744	-108	137	-144	-15616	1492	-5420	26	-1	139	-2704	-5504	15536	42	-122	161	-10428	1580	13180	96	-5	-169	-14684	-3952	-5360	18	-45	-108	-1596	-316	16996	165	-4	77	123	115	5
-11408	-3080	10888	-119	150	-170	-15644	1516	-5392	55	9	159	-2744	-5500	15632	52	-128	183	-10408	1580	13148	75	-12	-131	-14696	-3980	-5436	17	-35	-107	-1608	-468	17052	147	-17	85	123	115	5
-11352	-3080	10808	-111	161	-155	-15660	1492	-5452	36	20	162	-2796	-5552	15584	35	-139	151	-10400	1544	13060	111	-22	-144	-14768	-3996	-5428	30	-72	-79	-1648	-348	16972	169	-22	71	123	115	5
-11312	-3120	10868	-62	143	-170	-15696	1500	-5508	73	4	173	-2736	-5448	15548	-9	-114	163	-10356	1560	13240	76	-6	-145	-14748	-3992	-5500	44	-36	-101	-1568	-384	17092	173	-1	57	123	115	5
-11392	-3092	10712	-79	113	-126	-15672	1504	-5416	66	22	150	-2796	-5480	15612	61	-127	149	-10388	1592	13148	102	12	-136	-14688	-4012	-5452	-27	-53	-99	-1728	-392	17000	192	2	64	123	115	5
-11384	-3104	10748	-118	160	-182	-15652	1580	-5616	47	-13	177	-2712	-5448	15628	54	-113	172	-10400	1516	13296	126	11	-143	-14704	-4040	-5440	-4	-15	-87	-1612	-336	17032	207	-22	65	123	115	5
-11340	-3040	10832	-95	159	-172	-15704	1532	-5544	63	-43	151	-2692	-5452	15524	45	-101	150	-10352	1600	13104	108	-43	-146	-14772	-3980	-5528	20	-48	-48	-1604	-276	16936	192	-30	48	123	115	5
-11360	-3108	10832	-55	114	-150	-15704	1528	-5436	61	-28	151	-2664	-5468	15596	62	-115	148	-10388	1556	13164	130	-50	-158	-14696	-4004	-5516	-4	-19	-46	-1636	-348	16876	207	-18	66	123	115	5
-11368	-3096	10836	-90	156	-168	-15644	1560	-5380	24	-45	168	-2792	-5540	15580	19	-114	180	-10372	1576	13136	107	51	-149	-14772	-3996	-5560	21	-48	-46	-1620	-356	17076	194	-11	54	123	115	5
-11352	-3132	10756	-152	167	-199	-15696	1580	-5440	38	-24	163	-2732	-5496	15612	61	-112	179	-10392	1568	13188	114	-34	-162	-14824	-3972	-5344	27	-26	-73	-1516	-324	17124	196	-16	57	123	115	5
-11308	-3124	10780	-98	123	-136	-15672	1508	-5336	28	0	146	-2632	-5472	15496	17	-118	164	-10368	1564	13044	100	-50	-121	-14736	-4036	-5452	4	-54	-109	-1628	-280	17040	196	-28	60	123	115	5
-11356	-3140	10872	-107	154	-146	-15664	1496	-5480	35	-11	165	-2716	-5476	15556	31	-113	159	-10316	1592	13180	92	-9	-153	-14736	-3972	-5488	24	-15	-70	-1620	-328	16920	181	-37	58	123	115	5
-11392	-3116	10920	-96	157	-159	-15684	1512	-5488	47	12	118	-2704	-5416	15532	48	-109	159	-10360	1596	13136	105	-64	-139	-14720	-3940	-5460	19	-18	-28	-1612	-316	16948	209	-27	60	123	115	5
-11336	-3088	10756	-92	143	-114	-15652	1568	-5512	53	4	147	-2720	-5452	15544	54	-120	157	-10424	1568	13220	102	-14	-151	-14708	-3968	-5564	9	-35	-101	-1648	-300	17032	228	-33	59	123	115	5
-11356	-3088	10884	-82	135	-159	-15636	1536	-5344	74	17	144	-2776	-5424	15648	36	-127	172	-10384	1592	13124	97	-73	-160	-14684	-3988	-5544	4	-11	-103	-1596	-328	17180	186	-33	75	123	115	5
-11336	-3120	10800	-124	149	-164	-15600	1560	-5456	36	15	152	-2700	-5436	15612	9	-132	172	-10368	1568	13236	107	-38	-176	-14752	-4020	-5508	34	-26	-64	-1576	-324	16984	145	1	67	123	115	5
-11340	-3084	10828	-132	128	-163	-15640	1508	-5464	59	-41	167	-2720	-5492	15628	26	-144	158	-10396	1612	13232	85	-13	-163	-14728	-4016	-5440	20	-48	-91	-1592	-268	16996	129	-18	70	123	115	5
-11384	-3108	10840	-117	140	-165	-15648	1552	-5304	54	-25	122	-2716	-5500	15572	22	-87	154	-10468	1644	13092	116	-61	-169	-14772	-3960	-5400	40	-32	-84	-1552	-404	17004	150	5	35	123	115	5
-11332	-3116	10756	-126	139	-168	-15640	1496	-5368	65	-1	175	-2744	-5456	15596	-13	-116	135	-10408	1564	13104	88	-26	-148	-14756	-3960	-5508	9	-30	-101	-1596	-288	16960	158	-21	42	123	115	5
-11372	-3104	10760	-88	146	-142	-15664	1564	-5492	59	-23	120	-2728	-5404	15608	-17	-139	155	-10376	1556	13132	90	-32	-147	-14756	-4008	-5520	-38	-21	-131	-1632	-320	17020	131	5	33	123	115	5
-11308	-3076	10812	-89	147	-179	-15680	1516	-5476	58	5	134	-2748	-5472	15600	-7	-131	175	-10444	1564	13064	102	-53	-146	-14740	-4000	-5452	18	-43	-110	-1500	-404	17020	129	-31	52	123	115	5
-11352	-3120	10888	-113	169	-167	-15708	1496	-5348	73	29	111	-2660	-5472	15504	-4	-145	161	-10428	1616	13312	83	3	-181	-14652	-3920	-5536	4	-18	-94	-1568	-376	17040	110	-1	52	123	115	5
-11372	-3124	10900	-112	120	-143	-15708	1504	-5508	86	10	142	-2752	-5488	15604	58	-127	173	-10384	1588	13148	121	7	-159	-14712	-4068	-5476	9	-3	-97	-1592	-388	17004	169	-9	36	123	115	5
-11408	-3036	10692	-102	145	-184	-15692	1512	-5448	56	30	164	-2764	-5472	15592	72	-108	211	-10448	1592	13224	90	4	-159	-14700	-4012	-5500	17	-24	-82	-1720	-364	17092	156	35	67	123	115	5
-11368	-3164	10884	-126	139	-173	-15716	1444	-5552	80	13	126	-2740	-5476	15576	24	-128	160	-10364	1544	13100	109	18	-144	-14740	-4008	-5504	4	-9	-89	-1648	-424	17028	176	-48	31	123	115	5
-11348	-3120	10792	-99	151	-157	-15692	1460	-5552	74	-20	150	-2816	-5452	15532	-53	-116	144	-10408	1484	13096	130	-25	-163	-14704	-3980	-5496	-19	-35	-93	-1688	-396	17000	227	-35	59	123	115	5
-11316	-3088	10852	-81	140	-160	-15652	1476	-5416	72	-36	141	-2796	-5460	15600	-18	-143	155	-10404	1600	13012	101	-21	-155	-14740	-3956	-5516	10	-43	-76	-1708	-324	17040	191	-54	56	123	115	5
-11340	-3132	10852	-101	143	-153	-15628	1520	-5432	34	-33	113	-2692	-5508	15516	39	-107	173	-10412	1560	13260	136	-49	-111	-14732	-3992	-5576	34	-52	-56	-1704	-316	16912	194	-9	56	123	115	5
-11404	-3080	10800	-97	121	-150	-15676	1516	-5412	64	-97	167	-2740	-5540	15568	85	-109	127	-10328	1592	13076	108	-19	-136	-14672	-3960	-5484	29	-53	-37	-1612	-312	16980	136	-15	52	123	115	5
-11376	-3116	10804	-115	131	-151	-15648	1548	-5428	51	-69	159	-2756	-5524	15636	108	-99	129	-10428	1576	13084	126	13	-141	-14708	-3940	-5528	-27	-64	-13	-1616	-272	16984	199	-5	53	123	115	5
-11304	-3088	10748	-88	140	-166	-15676	1516	-5444	61	-116	160	-2696	-5376	15596	88	-121	182	-10400	1528	13172	123	-31	-148	-14728	-3900	-5548	-20	-68	-39	-1592	-284	17044	219	-10	54	123	115	5
-11320	-3116	10848	-92	150	-165	-15636	1548	-5488	93	-54	156	-2712	-5428	15592	18	-111	129	-10392	1588	13116	84	-28	-105	-14784	-3948	-5512	1	-82	-86	-1576	-328	17044	195	-16	55	123	115	5
-11368	-3116	10756	-98	141	-156	-15644	1592	-5448	74	-68	166	-2632	-5420	15640	48	-113	131	-10424	1516	13164	110	-31	-147	-14756	-3976	-5376	17	-70	-69	-1528	-304	17048	198	12	60	123	115	5
-11428	-3096	10804	-110	170	-142	-15600	1552	-5492	54	-42	169	-2668	-5448	15512	55	-139	173	-10376	1540	13172	130	-28	-176	-14772	-3964	-5424	23	-89	-64	-1600	-248	16992	142	-27	88	123	115	5
-11344	-3112	10808	-113	142	-141	-15636	1552	-5352	71	-6	152	-2692	-5428	15596	68	-145	184	-10388	1588	13124	83	7	-149	-14744	-3972	-5408	15	-50	-89	-1600	-284	17060	99	12	63	123	115	5
-11312	-3184	10832	-117	146	-179	-15648	1528	-5468	58	-14	152	-2744	-5380	15492	71	-143	141	-10396	1592	13096	113	19	-162	-14756	-3908	-5396	55	-45	-84	-1608	-356	16936	155	0	49	123	115	5
-11372	-3096	10768	-121	170	-172	-15664	1576	-5488	64	9	122	-2696	-5412	15600	16	-156	163	-10384	1644	13136	94	0	-143	-14756	-3956	-5472	26	-33	-83	-1612	-324	16960	201	16	-2	123	115	5
-11388	-3060	10796	-74	138	-178	-15696	1532	-5428	63	-10	111	-2700	-5416	15572	-28	-132	136	-10384	1576	13116	102	1	-174	-14728	-3944	-5472	14	-31	-65	-1548	-264	16976	224	-14	-17	123	115	5
-11308	-3108	10844	-117	165	-183	-15664	1544	-5340	113	-27	141	-2676	-5440	15624	-44	-105	156	-10424	1596	13064	114	-14	-184	-14720	-3936	-5464	-31	-65	-99	-1488	-244	16948	180	21	10	123	115	5
-11348	-3044	10896	-93	160	-179	-15648	1504	-5536	93	17	130	-2748	-5480	15644	-83	-100	179	-10404	1592	13100	86	-29	-153	-14748	-3936	-5572	-44	-62	-100	-1632	-220	17024	71	4	36	123	115	5
-11364	-3132	10716	-110	160	-167	-15636	1504	-5468	92	21	133	-2780	-5516	15440	-15	-129	169	-10336	1596	13152	103	11	-159	-14704	-4056	-5496	-4	-61	-67	-1672	-404	17104	106	-23	52	123	115	5
-11404	-3024	10780	-145	160	-132	-15636	1496	-5392	74	-3	153	-2800	-5552	15588	-37	-180	197	-10352	1580	13020	101	-37	-153	-14676	-3976	-5564	79	-35	-29	-1704	-376	17020	174	2	72	123	115	5
-11352	-3076	10780	-97	136	-191	-15664	1540	-5480	80	-15	142	-2860	-5584	15576	41	-131	203	-10424	1572	13204	116	-9	-149	-14732	-3972	-5504	57	-74	-51	-1608	-360	16996	227	-52	73	123	115	5
-11392	-3124	10880	-155	143	-154	-15660	1480	-5492	65	-5	145	-2828	-5532	15572	66	-120	185	-10420	1556	13144	102	4	-150	-14676	-3984	-5500	37	-93	-43	-1604	-320	16988	209	-5	72	123	115	5
-11364	-3068	10784	-94	125	-167	-15652	1428	-5492	20	-77	133	-2840	-5576	15584	84	-104	165	-10348	1552	13128	102	4	-136	-14700	-3968	-5576	-29	-56	-67	-1620	-336	17008	201	-8	104	123	115	5
-11344	-3076	10876	-80	136	-151	-15688	1484	-5468	12	-120	132	-2788	-5496	15520	103	-129	179	-10392	1560	13104	91	-50	-142	-14756	-3996	-5556	-49	-66	-84	-1608	-344	17000	192	-15	96	123	115	5
-11368	-3084	10880	-97	99	-184	-15676	1544	-5508	18	-126	163	-2740	-5528	15572	97	-76	136	-10456	1616	13228	108	-49	-119	-14724	-3944	-5412	-65	-66	-82	-1636	-372	16968	262	-38	83	123	115	5
-11308	-3108	10856	-90	116	-165	-15692	1580	-5448	-1	-93	133	-2716	-5412	15548	67	-88	164	-10388	1552	13136	98	-14	-126	-14692	-3916	-5476	-36	-58	-83	-1548	-284	17024	279	-36	101	123	115	5
-11384	-3060	10756	-122	135	-173	-15612	1500	-5388	10	-108	142	-2664	-5364	15704	47	-105	176	-10348	1604	13076	133	4	-165	-14768	-3872	-5500	0	-78	-50	-1536	-268	16972	284	-41	110	123	115	5
-11340	-3084	10788	-121	137	-202	-15656	1576	-5352	38	-71	169	-2640	-5404	15516	93	-112	155	-10360	1556	13204	122	-57	-156	-14740	-3952	-5484	7	-48	-93	-1508	-244	17020	299	-18	110	123	115	5
-11260	-3084	10828	-126	142	-134	-15656	1624	-5376	18	-43	156	-2612	-5384	15644	23	-111	160	-10416	1592	13184	81	-20	-173	-14720	-3820	-5344	-7	-26	-80	-1464	-192	17044	260	18	63	123	115	5
-11352	-3120	10772	-100	158	-173	-15664	1496	-5172	64	3	135	-2520	-5400	15604	20	-133	214	-10336	1568	13120	110	-15	-160	-14696	-3908	-5448	-2	26	-169	-1432	-160	17096	188	-5	40	123	115	5
-11360	-3096	10868	-103	135	-162	-15668	1504	-5352	104	45	124	-2580	-5372	15604	-36	-136	170	-10408	1612	13152	76	-56	-200	-14752	-3944	-5524	7	53	-128	-1476	-168	16944	162	53	36	123	115	5
-11372	-3112	10804	-120	176	-115	-15704	1508	-5240	90	116	171	-2564	-5404	15508	-62	-119	160	-10456	1620	13108	77	-73	-181	-14732	-3920	-5548	16	64	-180	-1636	-152	16932	94	59	15	123	115	5
-11372	-3096	10936	-111	137	-143	-15648	1528	-5468	137	149	144	-2596	-5460	15512	-109	-116	153	-10344	1568	13112	88	-72	-174	-14724	-3924	-5484	49	29	-171	-1600	-176	16904	57	63	41	123	115	5
-11392	-3128	10792	-108	166	-133	-15652	1492	-5352	109	146	180	-2792	-5524	15616	-78	-118	180	-10416	1564	13144	71	-35	-204	-14716	-3952	-5540	58	5	-192	-1740	-216	17104	-31	41	10	123	115	5
-11312	-3124	10900	-92	148	-155	-15656	1480	-5432	93	132	167	-2872	-5552	15532	-11	-118	130	-10364	1504	13148	53	-38	-175	-14676	-4024	-5516	49	4	-175	-1772	-388	17004	-63	42	51	123	115	5
-11408	-3108	10772	-91	179	-168	-15636	1488	-5676	107	103	177	-2872	-5584	15532	-68	-97	157	-10376	1572	13148	105	-47	-184	-14728	-4072	-5476	75	-2	-166	-1748	-456	17124	-45	28	55	123	115	5
-11404	-3012	10904	-83	160	-122	-15648	1472	-5652	78	6	141	-2928	-5544	15544	18	-106	122	-10364	1548	13112	91	5	-158	-14736	-4100	-5508	60	-65	-141	-1812	-528	16988	37	-7	145	123	115	5
-11344	-3060	10868	-116	150	-115	-15648	1468	-5616	81	-29	216	-2944	-5524	15472	58	-100	110	-10372	1640	13112	95	-63	-135	-14708	-4104	-5444	38	-87	-96	-1780	-548	17008	119	-10	110	123	115	5
-11344	-3104	10876	-112	135	-175	-15612	1476	-5592	69	-79	188	-2896	-5520	15504	81	-126	93	-10432	1564	13060	89	-36	-171	-14736	-4088	-5380	-4	-105	-38	-1732	-584	16956	197	-34	93	123	115	5
-11296	-3092	10956	-114	118	-126	-15676	1552	-5636	36	-115	187	-2848	-5460	15632	94	-144	115	-10328	1540	13140	104	-16	-138	-14700	-4020	-5596	-28	-97	-4	-1632	-540	17108	177	-50	56	123	115	5
-11388	-3088	10892	-87	96	-158	-15660	1540	-5500	37	-100	123	-2692	-5460	15564	121	-128	192	-10384	1628	13216	130	11	-135	-14728	-4060	-5376	-39	-53	10	-1524	-564	17004	225	-59	14	123	115	5
-11392	-3044	10920	-130	127	-143	-15664	1524	-5456	29	-116	147	-2644	-5424	15684	137	-118	185	-10416	1572	13172	168	29	-126	-14736	-3988	-5432	-56	-58	81	-1544	-508	16908	313	-64	-26	123	115	5
-11340	-3092	10856	-107	97	-184	-15648	1572	-5320	105	-73	137	-2656	-5364	15588	142	-102	170	-10360	1628	13100	120	37	-96	-14732	-3932	-5344	-76	-59	53	-1512	-400	17024	326	-48	-1	123	115	5
-11364	-3088	10848	-117	126	-167	-15636	1540	-5384	91	-79	145	-2704	-5380	15648	52	-131	203	-10404	1620	13108	141	0	-115	-14760	-3888	-5456	-85	-32	46	-1492	-296	16956	376	-72	-15	123	115	5
-11332	-3108	10800	-112	151	-172	-15624	1508	-5444	73	-67	121	-2680	-5408	15568	5	-112	166	-10392	1576	13060	128	18	-176	-14716	-3888	-5464	-28	-57	44	-1480	-180	17092	349	-22	-20	123	115	5
-11376	-3048	10796	-150	144	-172	-15672	1584	-5400	65	-36	106	-2648	-5432	15588	-16	-133	224	-10420	1580	13220	77	29	-143	-14756	-3824	-5500	16	20	6	-1536	-192	16948	283	-11	15	123	115	5
-11328	-3064	10816	-106	142	-134	-15680	1516	-5376	53	-34	96	-2696	-5460	15584	9	-144	210	-10396	1616	13156	151	10	-153	-14712	-3844	-5524	24	-14	-33	-1544	-148	17036	233	-17	41	123	115	5
-11400	-3080	10856	-105	144	-180	-15664	1460	-5460	26	-18	103	-2680	-5516	15544	62	-114	196	-10388	1576	13004	99	4	-146	-14764	-3868	-5560	33	-9	-75	-1568	-68	16952	185	-15	15	123	115	5
-11364	-3072	10876	-143	120	-192	-15708	1464	-5480	70	14	100	-2660	-5508	15548	79	-108	228	-10380	1544	13220	92	-14	-167	-14716	-3868	-5592	-13	-28	-115	-1576	-200	16940	103	-37	73	123	115	5
-11424	-3084	10840	-130	176	-140	-15660	1484	-5520	62	-36	101	-2708	-5464	15580	59	-125	170	-10448	1612	13180	102	-41	-201	-14748	-3980	-5540	28	-78	-120	-1640	-200	17040	104	22	98	123	115	5
-11336	-3116	10848	-126	158	-166	-15688	1500	-5464	79	-9	158	-2684	-5416	15476	-15	-97	167	-10424	1560	13104	103	-78	-178	-14752	-3940	-5440	62	-65	-144	-1656	-248	16968	93	9	115	123	115	5
-11352	-3076	10816	-98	180	-149	-15688	1444	-5412	57	12	136	-2680	-5456	15500	-31	-135	142	-10436	1536	13084	95	-44	-161	-14648	-4024	-5436	75	-46	-156	-1668	-332	16956	93	-32	131	123	115	5
-11320	-3144	10732	-96	147	-212	-15656	1564	-5448	47	-9	146	-2776	-5476	15596	-21	-113	159	-10404	1556	13136	109	-88	-177	-14724	-4068	-5488	54	-79	-91	-1632	-424	16976	142	0	129	123	115	5
-11348	-3068	10800	-110	146	-119	-15656	1520	-5432	59	26	157	-2804	-5528	15624	52	-124	163	-10392	1608	13136	117	19	-155	-14748	-4008	-5516	67	-91	-149	-1620	-436	16976	99	-27	96	123	115	5
-11340	-3096	10804	-116	152	-159	-15656	1512	-5436	55	-2	179	-2764	-5536	15624	61	-122	155	-10424	1596	13144	89	-5	-165	-14736	-4044	-5516	66	-92	-109	-1592	-416	16968	130	8	58	123	115	5
-11304	-3080	10856	-64	146	-163	-15624	1460	-5492	70	-15	167	-2792	-5468	15456	78	-103	158	-10352	1532	13060	123	-59	-136	-14656	-4028	-5432	-2	-63	-56	-1580	-416	17008	126	-4	39	123	115	5
-11328	-3112	10824	-71	142	-175	-15644	1496	-5476	99	-5	167	-2748	-5468	15656	49	-132	137	-10368	1640	13148	125	-21	-163	-14668	-4024	-5328	-21	-65	-5	-1584	-448	16944	190	13	23	123	115	5
-11304	-3068	10908	-105	132	-152	-15676	1548	-5480	66	-42	183	-2748	-5400	15544	56	-109	152	-10400	1584	13092	123	-5	-146	-14680	-4032	-5552	-9	-70	-48	-1624	-464	16992	188	-14	30	123	115	5
-11340	-3120	10760	-106	154	-177	-15656	1500	-5564	42	-17	148	-2848	-5396	15556	59	-132	134	-10376	1568	13180	157	-57	-122	-14624	-4000	-5420	21	-60	-28	-1620	-340	17004	250	-60	18	123	115	5
-11392	-3104	10824	-66	140	-145	-15628	1540	-5480	42	-24	139	-2740	-5476	15688	68	-131	139	-10444	1620	13220	114	-2	-140	-14728	-3920	-5500	-3	-104	-5	-1544	-344	17032	292	-49	-2	123	115	5
-11372	-3064	10720	-84	95	-127	-15652	1504	-5472	51	-27	158	-2808	-5456	15560	54	-133	95	-10360	1604	13128	139	-13	-122	-14732	-3940	-5516	14	-33	5	-1576	-256	16992	272	-62	9	123	115	5
-11376	-3084	10812	-106	138	-143	-15664	1548	-5388	50	12	132	-2736	-5480	15652	25	-142	165	-10400	1584	13032	112	-47	-95	-14756	-3888	-5472	-14	-38	-32	-1628	-212	17004	210	-26	6	123	115	5
-11432	-3072	10776	-90	117	-161	-15648	1556	-5404	64	-40	154	-2724	-5464	15600	21	-129	175	-10392	1560	13164	83	43	-137	-14692	-3820	-5412	-8	-58	-16	-1600	-112	16936	178	-14	29	123	115	5
-11300	-3092	10816	-80	123	-164	-15628	1532	-5496	57	-58	137	-2724	-5428	15684	8	-122	198	-10436	1588	13060	120	-3	-145	-14748	-3908	-5524	-10	-54	-80	-1588	-184	17028	172	28	46	123	115	5
-11372	-3072	10816	-101	149	-162	-15680	1528	-5380	50	-49	144	-2772	-5404	15604	34	-127	184	-10372	1596	13200	81	-35	-164	-14704	-3900	-5520	19	-26	-102	-1588	-296	17008	184	-24	94	123	115	5
-11392	-3104	10788	-112	140	-148	-15708	1548	-5384	86	-35	157	-2688	-5444	15612	39	-102	156	-10436	1564	13116	89	-52	-158	-14676	-3944	-5540	18	-55	-98	-1520	-284	17008	203	-52	90	123	115	5
-11360	-3100	10896	-121	152	-183	-15688	1536	-5304	63	-5	156	-2684	-5440	15564	22	-109	169	-10412	1576	13092	92	-60	-162	-14780	-3928	-5536	48	-20	-85	-1536	-348	16864	172	-9	100	123	115	5
-11352	-3080	10820	-115	137	-186	-15660	1516	-5380	49	-3	119	-2636	-5436	15644	40	-107	180	-10368	1528	13164	132	-70	-159	-14748	-3940	-5472	47	-12	-114	-1596	-260	16976	151	-11	73	123	115	5
-11464	-3084	10880	-91	149	-126	-15584	1528	-5448	41	8	154	-2712	-5412	15520	13	-119	198	-10404	1536	13188	98	-56	-165	-14672	-4000	-5488	4	-33	-119	-1612	-296	17020	145	8	102	123	115	5
-11368	-3108	10772	-117	122	-137	-15664	1508	-5492	80	-21	134	-2684	-5376	15568	22	-121	169	-10348	1596	13060	111	-29	-165	-14652	-4012	-5468	-13	-35	-135	-1648	-348	17024	153	-39	111	123	115	5
-11344	-3088	10860	-115	152	-172	-15716	1508	-5472	63	-2	130	-2712	-5428	15604	12	-92	169	-10372	1572	13144	110	-113	-137	-14744	-3968	-5412	18	-56	-165	-1628	-344	16956	196	5	88	123	115	5
-11308	-3120	10784	-102	129	-161	-15620	1564	-5608	106	10	170	-2724	-5484	15588	-5	-128	191	-10392	1576	13092	135	-11	-157	-14736	-3936	-5464	-13	-54	-93	-1656	-376	16988	173	-29	90	123	115	5
-11352	-3008	10788	-141	152	-154	-15644	1520	-5432	65	-42	166	-2736	-5392	15544	18	-127	208	-10448	1564	13184	108	-8	-167	-14668	-4040	-5536	4	-46	-95	-1660	-376	16904	225	-12	66	123	115	5
-11360	-3116	10760	-138	126	-150	-15704	1576	-5516	54	-51	163	-2732	-5456	15440	0	-117	164	-10384	1580	13140	103	-18	-157	-14728	-3948	-5484	53	-48	-44	-1640	-364	16944	180	-6	39	123	115	5
-11368	-3132	10792	-121	118	-173	-15748	1512	-5344	63	18	138	-2712	-5472	15564	61	-90	152	-10384	1652	13080	104	9	-170	-14704	-3988	-5504	32	-50	-54	-1660	-340	17028	192	1	45	123	115	5
-11312	-3084	10820	-73	113	-185	-15668	1508	-5424	61	-34	166	-2816	-5412	15588	31	-100	124	-10424	1604	13212	118	1	-149	-14676	-3948	-5516	-29	-82	-53	-1616	-304	17016	205	-7	29	123	115	5
