#Activity	running 
#ActivityID	2 
#Date 09-09-18-04
acc_rf_x	acc_rf_y	acc_rf_z	gyro_rf_x	gyro_rf_y	gyro_rf_z	acc_rs_x	acc_rs_y	acc_rs_z	gyro_rs_x	gyro_rs_y	gyro_rs_z	acc_rt_x	acc_rt_y	acc_rt_z	gyro_rt_x	gyro_rt_y	gyro_rt_z	acc_lf_x	acc_lf_y	acc_lf_z	gyro_lf_x	gyro_lf_y	gyro_lf_z	acc_ls_x	acc_ls_y	acc_ls_z	gyro_ls_x	gyro_ls_y	gyro_ls_z	acc_lt_x	acc_lt_y	acc_lt_z	gyro_lt_x	gyro_lt_y	gyro_lt_z	EMG_r	EMG_l	act
-29048	-4308	21544	-3737	-8868	-2550	-13232	8272	-18464	-1433	-8212	-5525	-16616	14136	-31032	-225	-3569	-1044	-15236	11228	27388	-7942	29324	-20268	-32768	-19928	-22264	2465	8896	-9285	-32768	16080	308	4780	32767	-15648	53	1	2
-32768	-9036	22900	-4452	-8944	-3523	-14144	8864	-17704	-765	-8252	-6745	568	12440	-29056	-1826	-1018	-633	-6528	11028	28716	-5478	32767	-26343	-32768	-20220	-4292	4894	-1706	-7458	-32768	3480	14104	-15816	32767	-23161	96	199	2
-32768	-9308	21556	-2611	-8120	-6521	-14784	3912	-18920	1314	-7605	-7117	19976	9552	-24688	-4214	860	-410	-24540	10844	26460	3579	32767	-31970	-32768	-11984	2760	5095	-4479	762	-32768	540	12800	-32768	32767	-27559	154	245	2
-32768	9408	17156	-1963	-7405	-8239	-11224	9376	-22320	4507	-6394	-6253	28712	6024	-20752	-1595	1270	349	-32768	29588	25596	19601	32767	-24840	-32768	10216	20852	10858	-11408	2187	-32768	21364	28644	-23895	32767	-15685	253	215	2
-32768	13960	5288	-1657	-6549	-8628	-23216	12744	-32768	5743	-5396	-4811	13800	2320	-15312	3120	22	804	-32768	30448	-9048	6025	32767	-28761	-32768	29448	30412	-17594	-8443	-17230	-15416	11184	32767	-26178	23608	318	253	190	2
-32768	17804	-12712	-902	-4940	-5258	-31872	14936	-32768	5789	-3907	-1886	-976	-10680	-3752	2791	-1220	-132	-32768	32767	-32096	-32768	32767	-19360	3400	31576	-16460	-32768	23898	-17319	-7888	-2496	32767	-32768	-17413	3545	254	83	2
-32768	21484	-31276	1058	-4036	208	-15400	32767	-32768	1300	-1911	-302	-8392	-10928	22592	2567	-1084	-1525	-32768	-32768	27052	-32768	32767	-14407	-16332	-28344	4972	-32768	32767	-22020	8588	-28108	29264	-10987	6620	-6098	253	119	2
-32768	18600	-32768	547	-869	1807	2360	26640	-32768	-3016	-927	-455	-11176	-1768	23624	1202	-33	-2169	-32768	-32768	32767	32767	22603	12389	-32768	-32768	7684	-3926	32767	4330	-18960	-32768	4948	32767	-11439	-7250	0	145	2
-32768	16996	-32768	-548	2336	842	2616	15032	-32768	-2200	3141	1039	-3336	12136	20552	-4440	391	425	-32768	20592	31308	32767	-2661	-414	-31360	-15676	1832	32767	32767	2739	-16724	-21116	15500	24432	-23733	-1857	127	145	2
-32768	18868	-12448	490	3799	2100	-5880	13312	-25528	-843	3569	2508	5616	25336	-30968	-4627	4057	3239	-26636	32767	24248	32767	-31989	-19138	-32768	3892	10052	32767	32767	2965	-14344	-12700	3604	19930	-21385	-4710	253	70	2
32767	-16008	-29372	-1196	4736	3159	-23920	-26432	32767	-3824	1246	2149	-3408	-15544	-5272	-2336	2561	3088	-18964	32767	21332	23979	-32768	-26312	-27104	384	4716	32767	32767	6097	-25348	7920	3288	32767	-27145	-2666	253	84	2
-32768	-32768	-32768	5265	12168	5515	-32768	-32360	-32768	1988	5912	-1584	-32216	16224	5016	2132	1696	-1663	-10400	31616	19892	2767	-32768	-17119	-32768	14184	-4492	24636	22079	5028	-32768	28488	4404	29390	-31413	5426	200	46	2
-32768	32767	-32768	2199	2966	4802	-11440	32767	-32768	-2652	9445	845	-27760	1984	-32768	-1249	1132	-1095	-2196	24896	19648	-5461	-31086	123	-25448	2920	-13636	-8313	5569	-2566	-32768	28276	-7600	7901	-32768	9837	0	141	2
-8228	24816	21992	450	1544	1019	-32768	11712	-744	-2601	25	3993	-11000	13584	-24032	-1923	2005	1878	-7372	27080	15792	-4244	-32768	17943	-22592	10920	-23852	-29164	-26871	3893	-32768	9512	-17016	-15815	-32768	20334	198	113	2
-11672	-11608	6984	1004	1235	748	20896	10032	-28136	-3503	4534	1750	-12544	14848	-20840	-2442	2976	2672	-10112	24048	9272	-10472	-32768	32767	-8896	-444	-25016	-32768	-32768	4106	-32768	5268	-23216	-20354	-32768	19385	254	165	2
-16120	1972	11456	409	873	688	-17608	7688	-24600	-1182	2806	1493	-32768	-8744	-30072	-598	3516	2067	-20052	14504	11500	-3596	-32768	32767	-10116	-10836	-28656	-22846	-32768	9252	-32768	-2260	-32496	-17745	-32768	20156	253	156	2
-16420	-5072	14844	60	826	331	-32768	-4216	-30120	-649	1897	785	-32768	-8264	-18440	-1213	4595	1974	-30996	20236	14476	4835	-32768	32767	-8336	-12044	-30076	16015	-32768	17396	-29116	-7992	-32768	-8811	-32768	17347	253	63	2
-10232	-10332	32767	686	2269	910	-32768	-7352	-17752	-570	821	1196	-32768	-11800	-10824	-1456	4787	2231	-32768	21416	16104	4574	-32768	32767	-11040	-440	-19180	32767	-32768	26722	-23096	-8120	-32768	-8998	-32768	17383	0	95	2
-2772	-2728	32767	115	5041	1003	-32768	-3232	-512	-1253	-229	947	-32768	-12024	6216	61	4958	3377	-32768	17484	23256	5410	-32768	32767	-13040	-5424	-23768	27982	-32768	32767	8736	-12184	-28012	2877	-2930	11809	0	103	2
4020	-7060	31904	-1341	8664	227	-32768	-14888	17808	-737	-792	664	-32768	1808	7968	1346	4784	3918	-32768	13944	19464	15542	-32768	32767	-12116	-13032	-24260	21983	-32768	32767	21752	-10016	-23784	24407	13124	5172	0	156	2
-32768	-548	20068	-1815	12158	1244	-32768	-14744	8192	-310	-1250	23	-32768	-2512	17360	2773	4693	3837	-32768	16268	10948	8538	-32768	32767	-15336	-14336	-29132	7503	-32768	32767	27396	-12496	-18524	8317	10027	-4764	219	218	2
-32768	-25428	6496	-2607	9393	1107	-32768	-13512	10808	-525	-1376	96	-28600	-32768	32767	-50	3385	1785	-32768	-21536	-436	12302	-32768	32767	-27308	-17664	-32768	-2846	-32768	30114	7340	3220	-3416	-26017	-17215	574	173	106	2
3260	-32768	-20676	6339	9727	2735	9960	-32768	26352	1446	1000	3270	-9800	-30808	32767	1715	772	-1113	-32768	-19216	-21060	7869	-29563	28299	-22768	-21508	-32768	-14818	-32768	10766	-9284	23412	9728	-22988	-19342	7374	0	207	2
-32768	-4708	14756	11893	5981	707	9584	-15192	8952	6913	7868	3915	-3456	-224	32767	3039	89	-653	-32768	-31252	-32768	-8319	-19631	-2646	7036	-21332	-32768	-5594	-20865	2987	-4544	8072	32767	-8044	-10945	11867	249	135	2
-32768	32767	32767	-952	4755	-1435	-32768	32767	29960	8373	7948	3173	1432	12328	13896	-1418	-1126	333	-32768	-32768	-32768	3784	6181	-9873	10372	-13344	-32768	3688	22102	675	-7152	-10896	15176	3908	4703	11149	49	235	2
-32768	-2680	32767	-7447	1962	102	-32768	2672	6888	-4851	3073	876	-19336	14488	25400	-1421	-3728	534	-32768	-23744	-32608	6276	17345	-18766	4024	-9680	-32768	7515	32767	-3572	-10964	-18244	17604	32767	5322	-12357	22	244	2
-32768	-21828	32767	-6056	-245	2451	-32768	-10968	3912	-11194	2030	1648	-14712	13200	14728	-469	-2946	778	-32768	-10796	-7712	6400	25308	-27907	-948	-19236	-27004	5194	32767	-8796	16488	-28628	-32768	32767	32767	-13583	253	97	2
-29840	-29768	31356	-4037	-2734	3693	-28288	-26656	8960	-8055	2038	1826	-16560	8152	7016	-1042	-3066	-112	32767	21124	32767	-7649	32767	-13895	-32768	22356	32767	32767	17046	-10631	-15516	32708	32767	14094	-18839	-1783	145	35	2
-29672	-21796	30344	-3126	-3909	3489	-27472	-18656	-2216	-5047	577	892	-32768	-23000	2488	-1593	-4128	-1102	-32768	-32768	32767	-32768	32767	-32768	7464	-32768	-32768	-32768	32767	-3707	12216	9840	32767	-7968	3794	-10355	253	6	2
-22156	-31640	28200	-2468	-4100	2615	-32768	-21832	-14176	-1097	1306	325	-32768	-32768	-3656	648	-5234	-1985	-32768	10936	-14148	-6661	17152	5427	3308	-6672	-32768	-32768	32767	-32768	-16784	-32768	-32768	-30533	32767	-7687	191	1	2
-12492	-32768	26364	525	-5154	1263	-29088	-13600	-25648	1480	-197	-740	-32768	-16120	-12528	2167	-6873	-2414	-12220	17476	12640	-58	15487	1482	32767	-18104	-1012	14816	32767	5733	3100	-32768	-32768	31549	5864	-5777	61	245	2
-20376	-17568	17012	1917	-6714	-1511	-16768	-1856	-25824	5329	-2165	-1418	-32768	-32768	-16056	2836	-6689	-2217	-18236	-7136	7688	3895	6647	-7544	-23836	-168	-24608	15249	32767	732	-32768	28804	-27408	26972	32054	-13862	253	2	2
-24119	-10416	27776	-375	-14537	-8022	-31168	24080	0	10141	-16770	-2848	-32768	8520	-32768	1131	-5572	-1114	0	0	0	0	0	0	0	0	0	0	0	0	0	0	0	0	0	0	0	0	2
-23696	-1532	14244	-2311	-7720	-4633	-14432	19816	-30240	4180	-6341	-3118	-32768	-3648	-32768	-143	-6167	-2005	-17600	6656	14840	3781	6318	-8795	-32768	3996	-32768	1271	10762	-8735	-32768	22312	-19500	-2578	32767	-5089	109	81	2
-32768	-24196	12948	-3066	-9303	-5086	-17328	13680	-32768	1499	-8604	-4490	-21840	6944	-32576	186	-4344	-1861	-17344	11532	25512	-1504	20755	-10293	-32768	-14916	-19056	-4471	5976	-4462	-32768	13824	-5856	5031	32767	-14953	55	40	2
-32768	-13192	15248	-2220	-9436	-5024	-7032	1920	-20640	-1194	-8343	-5801	-88	13200	-32368	-349	-1318	-975	-2424	6632	32767	-113	32767	-10341	-32768	-30312	-7044	1002	-2570	-10140	-32768	10020	8872	-18277	31501	-18092	253	62	2
-32768	-14712	15252	-2181	-9409	-5157	-12368	7200	-24392	1491	-8240	-6277	17360	17152	-24248	-2403	789	-373	-11220	6860	25564	14113	32767	-8352	-32768	-25660	9140	9883	-8541	1466	-32768	-6284	11548	-26035	32767	-27419	253	221	2
-32768	-6816	12464	-746	-8063	-8092	-11376	3160	-20744	3159	-7197	-6226	24136	9904	-19568	-2080	771	242	-32768	24460	15960	28924	32767	-17581	-32768	6636	7616	15099	-11351	11061	-32768	15252	13516	-29382	32767	-22651	0	244	2
-32768	-4636	2616	-83	-6991	-7756	-19552	4080	-32768	4951	-5723	-5609	21584	3240	-18728	1475	552	856	-32768	17448	14052	13663	32767	-25752	-32768	32767	20796	-5344	-11268	-9186	-26820	29316	32767	-26363	31116	-5937	161	189	2
-32768	22224	-5988	-1648	-6216	-4506	-29720	14032	-32768	5625	-4640	-3436	-128	-6624	-4080	3557	-1506	-273	-32768	32767	-32768	-32768	32767	-32768	9784	32767	28152	-32768	14126	-20490	876	-8944	32767	-32768	-3051	5181	253	115	2
-32768	10116	-25768	-864	-5213	422	-32768	32767	-32768	1685	-1772	-776	-11816	-13880	14960	2770	-1571	-1398	-32768	8456	12340	-32768	32767	-21754	-2344	-32768	15348	-32768	32767	-19125	17692	-32768	32767	-23423	-9333	-7846	253	80	2
-32768	14516	-32768	88	-2229	1736	-32768	32767	-32768	513	-1922	-922	-11976	-4904	21600	588	251	-1872	-32768	-32768	32767	966	32767	11933	-32768	-32768	2676	1150	32767	5089	-4176	-32768	-208	32767	-2998	-20882	20	151	2
-32768	18872	-32768	-271	1769	462	2696	9912	-32768	-2471	1093	426	-4240	6464	7784	-863	1070	-1280	-32768	5832	32767	32767	13309	13474	-32768	-10244	4624	32767	32767	3493	-32768	-10616	7560	32767	-14503	-5992	94	78	2
-32768	14904	-23544	1147	3958	133	-168	11928	-32768	949	4733	2134	-4728	14224	13728	-5610	1364	461	-30736	32767	32767	32767	-14681	-19001	-32768	10884	13020	32767	32767	-4778	-8340	-14048	9180	16023	-23435	-402	254	104	2
-30632	17540	616	830	3996	1618	-6376	23832	-20624	1455	4611	2848	7192	22304	-32768	-3855	5586	2214	-21688	32767	28572	32767	-32253	-30574	-27924	5892	13892	32767	32767	1357	-17520	-2620	12816	15918	-27986	-2424	241	131	2
32767	-32768	32767	1109	6733	1359	-24112	-32768	32767	-5907	-1574	302	-32768	-32768	32767	-1699	-621	1393	-16556	32767	24288	31146	-27662	-27152	-32768	4552	2960	21026	27502	3931	-32768	24776	1416	32767	-31820	-1061	247	91	2
-32768	32767	-21504	3660	13494	4474	-32768	25296	-32768	2901	7402	-974	-22256	848	-12304	2313	2212	139	-5792	32767	23040	9199	-21065	-15476	-32768	2700	-11268	3039	11452	2694	-32768	11240	-3676	19623	-32768	9246	0	75	2
-32768	-22628	20604	1711	2737	1745	-32768	-5208	-12592	-509	7193	5035	-16160	32767	-32768	2646	1937	-603	-11740	32767	21372	-7878	-25967	2765	-28796	5236	-23112	-7721	-8634	10171	-32768	22592	-9228	1240	-32768	13449	31	0	2
-19652	-13204	15468	455	1206	588	21800	22288	-6248	-2271	1499	3866	1888	32767	-17768	-4512	2066	1851	-25160	21752	13824	-10334	-32768	23290	-15372	1812	-23856	-22906	-32768	13248	-32768	13636	-18708	-18813	-32768	18918	253	87	2
-17364	9356	7792	611	627	1299	-1248	8784	-32768	-1868	4463	1720	-11352	-6376	-29160	-3079	3298	3029	-22624	12960	11760	-5615	-32768	32767	-13276	-3984	-29788	-23512	-32768	13024	-32768	-5688	-30512	-20416	-32768	19472	254	245	2
-17028	-3424	11984	128	741	379	-27760	-856	-22344	-1032	2722	953	-32768	-7208	-32768	-1731	4953	988	-32768	11036	11156	4819	-32768	32767	-7272	-13304	-31196	-7524	-32768	12824	-32768	-3468	-30256	-6465	-32768	22183	253	80	2
-17296	-772	17160	-500	807	331	-32768	-1304	-28360	-1625	1584	951	-32768	4848	-23424	-1606	4322	1614	-32768	11544	13052	10647	-32768	32767	-9716	-7296	-25272	24137	-32768	23270	-14632	-4164	-32768	-7573	-27581	17039	24	59	2
-15276	-4032	29168	-133	3194	794	-32768	-6128	-12072	-1587	314	356	-32768	-22232	328	-1730	4806	2391	-32768	10160	13596	18152	-32768	32767	-11236	-6192	-21180	32767	-32768	32471	1176	-8188	-31652	-1152	-7429	18574	59	79	2
-1640	-3244	32767	-11	6277	906	-32768	-7480	7744	-241	-68	445	-32768	-7576	9664	629	4566	3499	-32768	15644	10776	15700	-32768	32767	-9712	-11072	-24748	22724	-32768	32767	13844	-13764	-28864	9796	1255	11573	0	230	2
3912	112	32576	-1462	10293	301	-32768	-11792	17216	322	-508	430	-32768	2760	6264	1681	4330	3945	-32768	10020	6264	5772	-32768	32767	-9764	-15516	-30648	10459	-32768	32767	27712	-8880	-20832	17555	10759	2607	248	186	2
-32768	-2136	10236	-3284	12901	243	-32768	-23112	8280	-1217	-1422	189	-32768	-20736	32767	3066	4446	2856	-32768	7532	4688	4828	-32768	32767	-14704	-14580	-32768	-4685	-32768	32767	18256	-4760	-10860	-12583	-3122	-4433	68	217	2
-32768	-20640	11100	-1620	8571	1516	-20544	-32768	13600	-1729	-550	2378	-20144	-32768	32767	118	2310	-333	-32768	-32768	-31868	12433	-22355	32767	-22168	-16620	-32768	-24007	-32768	15662	-2144	11532	3736	-21545	-14981	2991	101	143	2
-32768	-32768	-27800	9273	10395	1642	27600	-32768	13712	5100	3495	4009	-13192	-8320	32767	4212	-189	-979	-32768	-26940	-32768	-1206	-15554	18028	-7808	-20680	-32768	-21852	-25304	2484	-10584	12852	25768	-21212	-18943	4844	39	192	2
-32768	32767	32767	7838	5880	-849	-18744	7368	232	8734	9227	3419	832	-1728	28104	-454	-617	239	-32768	-32768	-32768	-5758	-10886	-16345	14748	-17232	-32768	1829	5999	-3058	-3040	772	18828	1151	4529	11578	244	212	2
-32768	32767	32767	-5584	3385	-148	-32768	32767	20048	435	6178	2468	-4312	9856	13232	-2062	-2135	264	-32768	-21888	-32768	5174	5288	-25177	1540	-12740	-32768	15484	32767	-4319	-4040	-15592	10180	23315	7801	2044	33	104	2
-32768	-10040	32767	-6658	526	2426	-32768	-5464	7664	-6836	2103	1196	-27592	12384	23320	-134	-3442	880	-32768	-9956	-20732	415	22768	-20122	-112	-14416	-31036	8580	32767	-8033	1812	-32336	-14500	32767	32767	-15185	201	188	2
-31032	-29784	32767	-5190	-1593	3674	-32768	-10968	12088	-9494	1992	1660	-11232	20752	1968	675	-2589	136	1484	11508	32767	-1849	29952	-14708	-8164	-7080	-14152	10894	32767	-10837	664	-9176	-32768	22532	32767	-12023	253	220	2
-21884	-28820	29000	-2614	-3584	3887	-21776	-21976	7104	-5993	1484	1497	-19632	4544	8800	-613	-3810	-309	21588	32767	8032	22458	32767	-32768	-32768	32767	-32768	-32768	32767	21835	-32768	32767	32767	29326	-25440	540	0	0	2
-24016	-19560	28776	-2633	-3971	2748	-20632	-14072	-6776	-4122	785	130	-32768	-30072	-2256	-1071	-3015	-621	-32768	-32768	32767	-20235	-7373	-32768	-32768	-32768	-32768	-32538	32767	-32768	-32768	-17668	-32768	-26062	22021	15965	254	0	2
-16092	-31036	23440	-1639	-4307	1387	-32768	-14128	-9848	-1161	1089	-664	-32768	-20848	-9408	417	-4846	-1848	-7312	-32768	29492	-10980	0	-17415	21396	-32768	-17068	-20888	24004	-19892	-4748	-24508	-29804	4592	16577	1127	181	92	2
-5332	-27880	22012	859	-5259	-659	-21160	-14288	-19032	3243	-1159	-847	-32768	-8544	-14144	1586	-7142	-2166	-13632	8224	4608	2483	13563	-888	-468	31520	-32768	25046	32767	2956	-1632	9240	-31328	32767	14777	-17890	253	245	2
-16540	-9892	15928	1358	-5966	-3059	-14480	2800	-23416	5567	-2417	-1630	-32768	-6192	-17264	1164	-6978	-2289	-14860	7680	12156	1666	6104	-4969	-23532	-10908	-32768	16528	32767	-4618	-32768	32767	-26160	31493	30122	-21260	0	0	2
-19804	-1012	15928	-554	-6934	-3204	-13944	14776	-27600	5729	-4702	-2294	-32768	-560	-27368	202	-4788	-1809	-15900	9140	11232	571	7043	-7316	-32768	-5432	-32768	-906	24114	-12739	-32768	9648	-22156	-8810	28143	-7667	0	41	2
-29552	-3244	17932	-3161	-8558	-2621	-11776	16680	-25616	2136	-6840	-4089	-32768	4160	-30760	59	-5148	-1865	-17812	10984	25372	-5253	15733	-12961	-32768	-6524	-23600	-6164	13239	-11527	-32768	14160	-9792	8325	32767	-10679	189	0	2
-30748	-5720	17424	-3412	-8799	-2586	-13128	6072	-19744	-616	-8112	-5318	-32768	6096	-29976	103	-4962	-1772	-12232	8940	27780	-6139	30310	-14195	-32768	-19972	-19112	1419	3748	-11024	-32768	14896	-1172	-6022	30041	-17017	29	238	2
-32768	-14192	18024	-3664	-8910	-4577	-15216	8768	-18592	-745	-8146	-6165	3152	15096	-26032	-1813	-420	-435	-9164	9352	28896	-6245	32767	-13975	-32768	-23604	-1160	1770	-6163	-5799	-32768	-1444	9276	-32768	32767	-26523	254	225	2
-32768	-17008	17716	-1776	-8090	-7023	-14304	7192	-18432	1015	-7454	-6821	15656	9904	-18256	-3653	727	-491	-10064	11700	26176	-2080	32767	-20226	-32768	-12604	4616	3153	-7163	3251	-32768	-5780	8504	-32768	32767	-26348	6	193	2
-32768	2976	12380	-1329	-6976	-8658	-15504	2856	-21832	3940	-6224	-6330	23688	4936	-16696	-1498	1417	755	-32768	18808	9324	18748	32767	-27416	-32768	14740	23444	11088	-13023	3093	-32768	23824	32767	-19844	32767	-9203	90	169	2
-32768	25936	-736	-1264	-5927	-7344	-22752	7872	-32768	5835	-4943	-4654	11704	-4736	-11888	3072	44	507	-32768	32767	-7816	-2373	32767	-32078	-32768	16388	23000	6232	-10471	577	-32768	23240	32767	-15585	32767	-7690	47	114	2
-32768	19204	-20512	-1139	-5198	-2522	-31624	18352	-32768	6261	-2428	-1153	-5184	-12784	-704	3638	-893	-822	-32768	15372	-5720	-32768	32767	-23639	16468	6524	-15956	-32768	32767	-17421	1104	-25460	32767	-28792	-18650	-3141	253	83	2
-32768	24076	-32768	302	-3412	1522	-12760	32767	-32768	-963	-1950	-607	-12984	-7784	19136	1838	-838	-1889	-32768	-32768	32767	-32768	32767	7782	-28756	-32768	10776	-32768	32767	-15649	1932	-32768	6416	26151	-4347	-8304	253	162	2
-32768	22068	-32768	-400	663	1461	5352	22736	-32768	-4146	311	-560	-6728	4304	12576	-73	734	-1647	-32768	-1164	32767	32767	32329	12047	-32768	-18668	15176	32767	32767	2651	-30720	-19364	3972	32767	-13967	-9588	80	96	2
-32768	15484	-32768	353	3702	270	-2472	8880	-32768	-1005	3944	1839	-14232	5560	16064	-3529	392	-86	-32768	32767	32767	32767	5628	-16716	-32768	128	13380	32767	32767	627	-14244	-22048	11828	7630	-25534	-4235	253	110	2
-32768	17704	-10544	673	4558	1322	-3720	16456	-27384	566	4082	2993	14576	23192	-32768	-5153	5402	3511	-23676	29400	32767	32767	-21382	-20636	-27700	-1428	12600	32767	32767	5457	-15916	-10604	7852	27678	-27077	-9662	253	86	2
32767	-32768	32767	-636	7662	3470	-30048	-32768	32767	-2899	-42	-415	-32768	-32768	32767	-650	-1607	1381	-23732	32767	31748	32767	-32768	-14517	-31840	5540	1852	32423	26244	5098	-32768	28216	2324	32767	-27704	-4087	253	65	2
-32768	32767	26244	4487	11245	3415	-32768	32767	-32768	-1014	8888	995	-30152	-20632	-16336	703	1960	-704	-10448	32767	24620	13953	-32768	-10339	-32768	9012	-7192	7463	9256	3378	-32768	18504	-5868	19810	-32768	6984	253	148	2
-32768	22284	-13332	844	2485	2826	-5912	3744	-2768	36	8708	5036	-2648	32767	-32768	1049	2579	-134	-6192	30116	19800	-5702	-32768	-3932	-27280	6468	-17312	-3279	-10557	7229	-32768	18472	-11352	-2915	-32768	13150	0	38	2
-16528	3328	18096	267	1240	902	32767	32767	7112	-4752	2702	2190	3968	28864	-25728	-4226	2462	1539	-17532	21212	10088	-7296	-32768	8705	-16260	3132	-21696	-16429	-32768	9760	-32768	4780	-19116	-14321	-32768	17870	254	147	2
-15128	2992	6040	626	653	978	-4304	-3920	-18720	-2625	3229	1455	-18992	-2024	-32096	-3476	3257	2855	-19416	17796	7232	1155	-32768	26967	-12008	-3916	-30480	-17774	-32768	13290	-32768	2404	-19100	-13431	-32768	17896	253	125	2
-15612	-3044	12844	196	725	421	-31248	-3144	-23480	-473	2685	913	-32768	-16120	-32768	-1539	4759	1211	-29592	17724	7536	11853	-32768	32767	-9996	-11236	-18556	-4644	-32768	16847	-32768	-12592	-31928	-3247	-32768	14978	253	118	2
-15696	-1344	20400	-324	948	460	-32768	-1080	-31152	-737	1729	1105	-32768	-936	-13848	-1143	4317	1906	-32768	16356	13652	18939	-32768	32767	-12084	-10940	-25752	29169	-32768	30987	-15464	-9148	-32104	1834	-30142	17559	19	15	2
6276	-32768	32767	-738	2948	1918	-32768	-22664	-888	-1036	-818	-2426	-32768	-17400	184	-1085	4865	2463	-32768	12204	16764	23459	-32768	32767	-11152	-3088	-26940	30145	-32768	32170	724	-5952	-29312	5420	-10197	16836	0	107	2
-1488	-6484	32767	-356	6563	242	-32768	-10584	8272	348	-413	379	-32768	-2896	9720	332	4661	3635	-32768	19196	22732	19360	-32768	32767	-15548	-8236	-24508	19887	-32768	32767	11464	-9116	-24952	19412	6653	13986	0	129	2
1592	-3640	30408	-899	11025	953	-32768	-11440	15576	924	-70	620	-32768	2816	8480	1458	4392	3817	-32768	7912	21500	14895	-32768	32767	-17032	-18308	-26184	7336	-32768	32767	23780	-2756	-19732	26301	15436	5084	0	215	2
-32768	3512	20880	-2512	11770	105	-32768	-23288	13808	-1126	-1296	236	-32768	-24016	32767	3357	4198	2273	-32768	-11340	6848	9317	-32768	32767	-21036	-25760	-32768	-8371	-32768	32767	17256	1268	-13712	-22649	-4156	21	0	178	2
-32768	-22068	568	-1184	9037	1114	-27112	-32768	13544	-2331	350	2913	-21208	-32768	32767	-429	2068	-311	-32768	-22548	-23356	5377	-23150	32767	-20832	-21976	-32768	-15681	-32768	14683	-1308	13024	1400	-32768	-21970	9576	37	166	2
-32768	-32768	-16416	7752	10184	1408	-19912	-32768	16552	-1848	651	3352	-11240	-6312	32767	2730	-98	-879	-32768	-32768	-32768	-9615	-15098	14829	-248	-18360	-32768	-23789	-24309	3985	-6208	6488	28836	-25138	-23917	5776	97	216	2
-32768	32767	32767	5899	5808	-65	-17072	10744	13960	7778	8446	4007	2688	3536	25936	196	-320	282	-32768	-32768	-32768	-4168	-6524	-12108	11844	-20652	-32768	-8755	4926	-4002	-840	-5848	25860	-784	3336	6353	247	240	2
-32768	27048	32767	-4900	2943	707	-32768	32767	21184	-1092	5852	2208	-4024	12864	14008	-2126	-1963	418	-32768	-25264	-32768	1247	9351	-20939	7832	-17208	-32768	4873	32767	-6104	-7024	-17180	18208	32767	7114	-5000	85	137	2
-32768	-5952	32767	-6508	421	2546	-32768	-8832	8728	-6513	1595	1065	-25104	15216	23592	-1108	-3298	845	-32768	-12808	-21616	-1579	26833	-18953	1348	-15260	-32768	5026	32767	-11033	6744	-32492	-32768	32767	32767	-13585	227	225	2
-31236	-27020	31348	-5969	-2205	4485	-30488	-19248	9712	-10153	1747	1598	-15416	15336	5592	-778	-2806	385	32767	10336	17480	-162	23591	-32768	-15628	-5600	9904	11828	32767	-15121	4	7288	-16028	5277	19115	-7012	253	185	2
-23652	-28684	26384	-4034	-3896	5103	-23400	-24624	4816	-6770	1672	1382	-20544	-2656	4664	-1345	-3702	-303	-32768	32767	-32768	-11181	32767	-32768	-32768	31856	-32768	-32768	32767	24230	-32768	32767	32604	8991	13649	-7626	24	11	2
-20604	-29992	25760	-3169	-3565	3481	-26448	-17240	-7184	-4544	615	104	-32768	-29720	-1632	-1379	-3384	-1712	32767	-32768	32767	-15986	-2768	-30539	-10632	-32768	8868	-19915	32767	-32768	-20540	-32768	-32768	-27170	32767	2081	253	0	2
-17712	-32768	21204	-159	-3726	1158	-32768	-9832	-11760	-828	1234	-274	-32768	-23352	-8992	1261	-5752	-1739	-32768	1580	8648	-11126	11816	884	32767	-32768	-32768	8702	21781	-553	-3296	-32184	-32768	16110	17963	2412	174	230	2
-5724	-22248	22032	1465	-4477	-1578	-21176	-14720	-21224	3383	-1182	-935	-32768	-9632	-10760	2637	-6734	-2233	-11436	17808	5588	2650	10280	-1094	-636	21784	-32768	30777	32767	1425	-13776	13684	-26004	22952	20809	-19838	70	240	2
-13788	-10016	15908	425	-5778	-3947	-12536	1912	-26688	5754	-2635	-1973	-32768	2328	-20640	1478	-5760	-2073	-13860	10576	11444	2848	8574	-3371	-32768	-6272	-32768	11981	27619	-5098	-32768	27760	-30500	17236	27525	-25762	0	100	2
-18492	-2368	16572	-1561	-6765	-3901	-9520	12616	-25240	5909	-4717	-3169	-32768	3232	-30400	121	-5228	-2153	-16524	10896	12972	-922	8699	-5651	-31476	-6740	-32768	-16787	15214	-15940	-32768	10552	-19848	-7459	32767	-4137	240	177	2
-30128	-5624	18532	-3658	-8267	-3897	-13696	17880	-24240	2636	-6678	-4703	-29688	9120	-31160	-154	-4758	-1706	-19464	15200	25936	-4402	18676	-12189	-32768	-19228	-24184	-4901	4746	-5301	-32768	15404	-6528	4483	32767	-10882	0	0	2
-32768	-9016	18232	-3997	-8913	-4486	-16144	8200	-18920	-491	-8021	-5733	-7568	15072	-29488	-536	-2476	-948	-4052	9136	32188	-3777	32767	-17900	-32768	-24844	-8248	2700	-590	-10355	-32768	4808	10240	-18665	32767	-14662	166	190	2
-32768	-15812	18020	-2905	-8677	-5961	-13560	10712	-19008	-46	-7961	-6452	7760	15632	-26352	-2910	228	-610	-11628	11624	23548	6221	32767	-23331	-32768	-18876	9988	6284	-4953	4392	-32768	-16560	15076	-29278	32767	-20311	96	239	2
-32768	1388	17128	-1508	-7690	-8316	-11216	11560	-18824	1638	-7528	-6386	22968	3784	-22336	-3234	1368	-876	-31868	7128	25392	26774	32767	-24313	-32768	-6804	12920	19836	-10576	10238	-32768	5208	23720	-32768	32767	-18240	253	240	2
-32768	-6000	8780	112	-6696	-8420	-13648	2160	-27768	4583	-5974	-5967	25656	3744	-23512	772	1667	602	-32768	13044	8664	23232	32767	-24318	-32768	29500	24116	2197	-3433	-6189	-25404	24532	32767	-2841	23742	-6406	113	180	2
-32768	24456	-2412	26	-6070	-5757	-26608	8968	-32768	6473	-4814	-4240	4648	840	-7544	3269	-733	215	-5896	32767	-32768	-32768	32767	-32768	3972	32767	31956	-32768	16552	-20377	-16192	-6428	32767	-17993	8836	5590	253	96	2
-32768	15320	-22944	-776	-5648	-1810	-32768	23376	-32768	6086	-2275	-920	-7304	-8800	4096	3624	-1121	-462	-32768	13692	13532	-32768	32767	-21321	-5088	-20072	16472	-32768	32767	-16856	15544	-10212	32767	-15961	-12088	-2632	253	82	2
-32768	16624	-32768	139	-3316	996	-9608	32767	-32768	-803	-1711	-768	-9112	-9544	8080	3808	-1237	-557	-32768	-32768	32767	-13079	32767	17359	-32768	-32768	5916	-25081	32767	-4174	-5472	-20532	10192	32767	-7275	-4552	0	234	2
-32768	24004	-32768	-551	271	1490	4808	20368	-32768	-4070	170	-857	-8680	5424	9776	252	631	-1504	-32768	12956	32767	32767	13679	20428	-32768	-9056	11312	32767	32767	3429	-26900	-8988	16904	29152	-21994	-9619	0	95	2
-32768	12696	-32732	147	2508	1001	1232	6664	-32768	-1801	3157	1828	-11088	15352	20864	-5757	285	301	-32768	28624	32767	32767	-14925	-3960	-32768	4280	10636	32767	32767	-4560	-19348	-11344	9576	7096	-25406	-3350	253	79	2
15588	604	32767	421	4190	1362	-16024	-2824	-14296	-1162	3280	2248	8960	25400	-32768	-5230	4612	3473	-19940	24184	28128	32767	-29786	-23479	-32768	6896	15056	32767	32767	-1214	-12720	-12216	5972	13630	-26445	-3075	130	4	2
32767	-32768	32767	1740	10964	4294	-32768	-32768	13712	-2653	2008	-1326	-32768	-32768	32767	-3313	-468	-312	-27600	30540	23640	32767	-32768	-27209	-28632	872	-4004	21404	28987	8	-32768	19780	1036	25322	-23454	1564	253	144	2
-32768	-32768	32767	5323	9064	6290	-27280	32767	-32768	-1078	8531	2242	-32768	-32768	-5200	66	332	-529	-9308	32767	19964	14115	-32768	-23147	-32768	2344	-7544	3319	15994	-2777	-32768	16288	-2588	17173	-32768	8279	0	61	2
-13868	-7540	-6716	874	1740	1791	-32768	32767	-32768	-1447	6965	4861	-2408	32767	-32768	-60	2920	652	-6540	32767	16920	-11391	-32768	-11094	-22536	1700	-16580	-4742	-9778	3897	-32768	17140	-10400	532	-32768	13889	0	44	2
-14492	-3600	13108	621	1132	713	24616	32767	-5800	-4230	3382	2136	-8856	32767	-28880	-4218	2458	1906	-10192	20880	11668	-17678	-32768	9481	-13580	856	-23796	-16728	-29668	4498	-32768	32767	-18772	-19511	-32768	18914	253	45	2
-12856	-6848	10740	483	881	705	-11696	2800	-26304	-3753	2277	1363	-30080	-2896	-22960	-3179	3697	2572	-11224	19404	10552	-16685	-32768	13448	-8312	-4628	-27280	-13988	-32768	9686	-32768	-14556	-32768	-32768	-32768	15985	253	239	2
-17416	-3844	12604	86	728	382	-31224	-5488	-28912	-589	2207	783	-27936	-26392	-5888	42	4019	1427	-22744	13884	10820	12103	-32768	32767	-3840	-6376	-19324	-779	-32768	15992	-32768	-5312	-32632	-2098	-32768	9994	253	48	2
-12344	-5712	32767	381	1638	554	-32768	-13064	-22808	22	1814	1286	-32768	3600	-21648	634	4308	1299	-32768	19724	14160	12794	-32768	32767	-15140	-11940	-19440	17438	-32768	27396	-15692	-5348	-32112	6891	-32768	14895	0	0	2
-8152	-4684	32508	248	4381	670	-32768	-6776	-5432	-539	642	850	-32768	-12608	4520	-592	4403	2646	-32768	16364	14948	12203	-32768	32767	-10528	-3420	-17260	24880	-32768	32225	1828	-5944	-29552	8645	-6106	20711	0	94	2
3156	-1912	32104	-450	7628	261	-32768	-7208	-4096	-647	604	882	-32768	-16	10712	555	4830	3601	-32768	20460	19316	9317	-32768	32767	-12940	-5304	-21548	18102	-32768	32767	12492	-10336	-25572	13936	5792	15260	0	175	2
-8684	-2276	25892	-1837	12150	608	-32768	-8712	13504	-237	-623	256	-32768	5112	6848	1619	4583	3327	-32768	9480	14788	10693	-32768	32767	-14140	-12360	-23644	6739	-32768	32767	25220	-8928	-23860	20527	13794	4981	174	152	2
-32768	1188	11932	-3334	11883	-349	-32768	-18808	-872	-2086	-1022	641	-32768	-21080	32767	3277	4356	2334	-32768	4048	-428	7983	-32768	32767	-12096	-18492	-32768	-5318	-32768	32767	20388	-11028	-15300	-26317	-5139	-6311	0	233	2
-32768	-32768	-16352	-44	9257	2015	-21144	-32768	8712	-2250	-393	2690	-22168	-32768	32767	-1539	2554	-262	-32768	-31992	-18056	16669	-32336	32767	-21540	-19672	-32768	-3241	-32768	21579	5344	7680	-208	-32768	-24098	1744	17	96	2
-32768	-15208	-12768	9296	7437	1531	23624	-32768	-6960	6169	4290	3962	-15080	-12808	32767	4179	-750	-601	-32768	-22304	-32768	8952	-20446	17093	-14140	-19292	-32768	-5583	-27700	8848	-8516	13992	26992	-17508	-27179	3542	7	237	2
-32768	32767	32767	3975	5235	-649	-20208	18888	24184	10648	9428	3586	6504	5200	21808	980	-75	318	-32768	-32768	-32768	-3666	-16062	-15370	13336	-16636	-32768	6702	-890	604	-6468	-1332	28808	8273	-430	9287	253	238	2
-32768	19740	32767	-6099	3235	462	-32768	32767	9528	-2781	5556	2196	-7584	17360	22192	-1980	-2632	637	-32768	-29828	-32768	3253	8411	-20797	8820	-17504	-32768	6990	32382	-3890	-3308	-22916	17468	32767	8128	1285	0	168	2
-32768	-16032	32767	-5462	663	2567	-32768	-4352	6632	-8203	1836	1626	-24656	20096	29728	-1221	-3387	1344	-32768	-19424	-24896	255	26444	-14881	5596	-15884	-32768	2949	32767	-9632	6652	-32768	-32768	32767	32767	-13482	253	51	2
-32768	-27576	32767	-4081	-1814	3839	-32768	-18872	10072	-9417	1951	1960	-15400	18904	5952	-336	-2220	209	32767	-28908	10484	-5557	28162	-32768	-14888	-5588	9608	21225	32767	-11810	2916	4768	-4868	16801	17124	-10018	253	146	2
-28156	-27032	30132	-3176	-3355	4498	-26624	-24496	3496	-7029	1598	1562	-29584	-3816	8088	-1165	-3992	-518	-32768	-2208	-32768	-18391	32767	-32768	-32768	-4824	-32768	-32768	32767	30562	-32768	19860	32767	18592	12413	-11037	118	81	2
-27948	-24772	30460	-3237	-3480	4409	-31000	-23976	-5984	-3315	872	700	-32768	-32768	-1400	-1859	-4032	-1417	-32768	2140	-5924	2028	12462	10246	-364	-32768	-29860	-32768	32767	-32768	-23132	-32768	-32768	-19130	32767	-3446	253	0	2
-15648	-32768	23772	-1718	-3841	1780	-32768	-9448	-12960	-483	1103	-917	-32768	-23880	-11256	1552	-6688	-1829	-11288	32767	15040	-1410	21609	7148	32767	-17056	-11308	32767	32767	10710	-4672	-32768	-28512	26662	7290	-5669	192	237	2
-6628	-30836	20628	1905	-4546	-1146	-19776	-12144	-23920	4738	-1251	-1016	-32768	-4544	-12576	2244	-6850	-1701	-12432	7964	6828	6874	8153	-7526	-13324	18856	-32768	18911	32767	300	-19312	27180	-29260	14160	31756	-23934	0	145	2
-13632	-7292	15172	1813	-6212	-4555	-14144	9128	-30376	6449	-3094	-1773	-32768	-2552	-26408	786	-5857	-1944	-18596	9360	8264	4191	8179	-6004	-32768	3404	-32768	-6184	26571	-14317	-32768	18860	-32232	8685	21787	-22868	0	57	2
-22972	-3300	15844	-598	-7444	-5001	-8184	14976	-27936	5046	-5736	-2703	-32768	-3280	-32768	93	-5189	-2365	-18280	10664	28472	-5890	12310	-11847	-32768	-4628	-28836	-5431	14486	-15027	-32768	12340	-12620	-3580	32767	-7136	0	212	2
-32604	-7744	17804	-2691	-9256	-4558	-5880	11088	-23968	1909	-7579	-4656	-26952	8160	-32768	455	-5013	-1703	-16392	12248	25776	-6642	25425	-16536	-32768	-16068	-20128	4698	8222	-6251	-32768	12604	-3372	-349	32767	-14788	0	158	2
-32768	-12904	17328	-3152	-10073	-4251	-12808	2832	-17680	-79	-8561	-5762	-5312	16216	-31808	-140	-2609	-835	-5732	9336	27228	-4204	32767	-21005	-32768	-17780	-4404	779	1319	-10314	-32768	2224	4376	-24780	31961	-17914	91	175	2
-32768	-20480	17224	-2192	-9901	-4975	-14520	5792	-19080	627	-8316	-6418	10224	20240	-28216	-2960	27	-259	-19072	12344	20848	6029	32767	-25067	-32768	-13628	5708	213	-7591	4432	-32768	-4664	6668	-32768	32767	-25977	0	237	2
-32768	-9128	13172	-789	-8900	-7016	-14400	7608	-23112	1801	-7666	-6424	22912	8568	-20144	-3672	849	-738	-32768	16072	17796	21253	32767	-25669	-32768	892	12840	8856	-13209	6003	-32768	13296	14796	-32768	32767	-14972	0	238	2
-32768	-3544	1440	-479	-7566	-7861	-15696	9712	-32768	3738	-6376	-6001	25848	6184	-25240	1123	1133	472	-32768	-604	8112	9749	32767	-29706	-32768	24752	22624	-11375	-8317	-9425	-23304	17620	32767	-17440	28136	-1431	253	216	2
-32768	26080	-11508	-1490	-6370	-5730	-25680	12400	-32768	4490	-5225	-4545	3560	-3880	-4928	3672	-1264	-102	-32768	32767	-32768	-32768	32767	-32768	13456	32767	13368	-32768	20788	-17267	-23400	-14596	32767	-32768	-13088	5454	253	97	2
-32768	21832	-32096	-1355	-5128	-603	-32768	29816	-32768	4134	-1454	-1000	-10688	-14464	14640	2556	-1705	-916	-32768	-32768	32767	-32768	32767	-23286	-16948	-32768	-4692	-32768	32767	-14930	18828	-28076	32767	3823	-495	-17102	253	111	2
-32768	21764	-32768	210	-2485	1811	-2832	32767	-32768	-2414	-1253	-649	-8896	-8976	20904	1160	-319	-1906	-32768	-32768	32767	32767	30462	-5384	-32768	-32768	1080	27481	32767	3147	-14552	-31820	-6872	32767	-8857	-10377	169	208	2
-32768	19384	-32768	583	1535	673	1520	18576	-32768	-2789	1310	499	1640	5480	6480	-1650	1018	-1343	-32768	30700	27844	32767	3117	-23309	-32768	-12660	2912	32767	32767	617	-27136	-14056	12560	19796	-25787	-5841	0	117	2
-32768	17776	-26420	1362	3971	-512	2176	13096	-28448	769	3889	2540	4728	23704	-7560	-5194	3812	1490	-32768	32767	24248	32767	-26606	-32768	-32768	6728	7208	32767	32767	-275	-13020	-23040	2112	17750	-22067	-6345	240	57	2
-32768	32767	29528	540	5079	2032	-9704	-1080	32767	-1014	2195	2564	3616	26528	-27256	-656	4407	2990	-18624	32767	24356	15454	-32768	-32569	-27104	2340	12844	32767	32767	1898	-25156	5004	7320	25287	-27774	-5860	253	83	2
-32768	-32768	-32768	4103	14854	7959	-32768	-32768	-32768	1368	5224	-3792	-32768	-32768	26728	-759	1343	-4393	-9504	32692	27276	-2929	-15079	-17288	-32768	8492	-2804	21280	26476	115	-32768	32767	1472	32767	-27302	1161	24	0	2
32767	32767	32767	2014	5036	1583	-32768	-32768	-32768	832	6520	-4134	-32768	6936	-32768	2933	2096	-1291	-7972	22704	27788	-4036	-13727	2276	-23536	4544	-16300	-6104	5369	257	-32768	26956	-9752	11156	-32768	10497	0	11	2
-19188	32767	10428	-74	1650	847	328	30896	-24872	-1620	1368	2487	-7480	32767	-9392	-2463	3405	912	-13568	26812	21220	276	-32768	17746	-17576	15296	-23380	-29483	-25061	3564	-32768	10804	-18308	-18649	-32768	21429	253	9	2
-17540	14012	15024	217	1043	437	1368	10248	-22184	-5176	2785	2857	7480	21616	280	-4110	2607	3156	-14308	21504	11620	-2370	-32768	31610	-6516	-4984	-24240	-32768	-32768	11051	-32768	-19428	-24324	-28353	-32768	19844	253	0	2
-16460	-2372	12568	494	931	721	-15576	-4776	-24480	15	2293	1716	-32768	-24552	-32768	-2091	2369	2499	-18012	5004	13124	9874	-32768	32767	-7792	-9904	-24404	-21314	-32768	15627	-32768	-7716	-32028	-23714	-32768	9460	253	239	2
-15356	-3052	21148	84	690	439	-32768	-4456	-29080	-525	2264	947	-32768	9104	-26976	208	5232	1770	-28716	5564	16848	25435	-32768	32767	-3024	-16824	-25212	6451	-32768	21658	-25996	-8028	-32768	1438	-32768	12681	253	129	2
-14844	-5804	31448	-90	3332	318	-32768	-848	-4096	-1264	618	835	-32768	-24296	-3184	-1060	5712	2781	-32768	12756	18404	29106	-32768	32767	-3552	-12168	-24696	12584	-32768	22893	-3636	-8908	-32768	7435	-15774	18932	105	26	2
-1728	-3276	32492	-203	6510	567	-32768	-11400	14016	189	425	1163	-32768	3456	8512	1108	4700	3443	-32768	23440	19256	19108	-32768	32767	-9348	-3292	-18552	32347	-32768	32767	9832	-13376	-32768	12876	-3105	17230	0	175	2
4352	-384	31452	-1396	10952	156	-32768	-8448	20632	932	242	25	-32768	7848	9168	2031	4903	3159	-32768	11276	19808	8068	-32768	32767	-12340	-11108	-24088	14730	-32768	32767	28256	-8516	-31332	29440	8881	12079	0	154	2
-32768	4480	9660	-3479	12413	-391	-32768	-16568	1808	-1805	-1648	157	-32768	-16072	32767	2521	4376	2527	-32768	4596	8164	3004	-32768	32767	-12428	-15492	-32768	-5213	-32768	32767	30132	-7156	-26464	-13914	4046	-1757	238	0	2
-32768	-24388	-4612	-1490	9025	1286	-20688	-32768	5288	-3461	-1218	2187	-21216	-32768	32767	-2305	2718	-213	-32768	-25172	-12364	6893	-32768	32767	-23016	-10768	-32768	-15275	-32768	29314	9492	4864	-8272	-29759	-21002	385	24	166	2
-32768	-32768	-26240	8162	9696	1746	26504	-32768	14016	4052	3499	3855	-15320	-14648	32767	2508	147	-527	-32768	-32768	-32768	8378	-28290	28723	-29100	-18248	-32768	-32768	-32768	5325	5600	8608	-7048	-28655	-20958	3016	44	187	2
-32768	32767	32767	6535	6267	-820	-17176	7680	13512	8700	10200	2987	424	-4264	28800	-143	-76	-70	-32768	-32104	-32768	-11940	-20162	-7014	13816	-23180	-32768	-8229	-23740	-7192	-7800	8180	32767	-7967	-9241	9854	253	239	2
-32768	31756	32767	-5500	4803	91	-32768	32767	21344	-1614	6356	2482	-6744	11792	20992	-1614	-2159	-258	-32768	-32768	-32768	-1776	8604	-13070	13576	-12464	-32768	11003	29588	74	-5056	-12028	19288	15595	4322	13261	73	176	2
-32768	-14452	32767	-6712	2315	2852	-32768	-8168	12528	-8414	1947	970	-23872	13152	23712	-358	-3639	930	-32768	-16344	-32768	-203	28997	-6638	232	-3376	-32768	9218	32767	-5047	3268	-32768	-8180	32767	31967	-15730	162	17	2
-32768	-21208	32767	-5597	112	3368	-32768	-17120	10384	-8739	1913	1658	-12112	16816	7840	-370	-3211	395	-32768	-4212	32767	-13648	16332	-32768	-13716	-10744	32767	32767	32767	-10773	-1500	-8004	-32768	31305	22706	-17631	254	0	2
-32768	-29732	27152	-4407	-2624	2807	-23336	-21176	1096	-6564	1963	1465	-20856	-80	2120	-1646	-3641	-375	-23272	31988	-28092	27790	32767	-32768	-32768	18620	-32768	-32768	32767	8529	-32768	32767	32767	19945	-26647	8273	50	27	2
-32768	-25172	23308	-2980	-4689	1818	-28104	-19176	-9248	-3923	397	760	-32768	-28816	-4024	-1610	-3412	-1946	32767	-32768	32767	-32768	-32768	-14990	-32768	-32768	32767	654	32767	-32768	-31672	-32768	-32768	-32768	32767	6188	253	0	2
-14188	-32768	23744	-1038	-4687	1211	-32768	-19872	-14688	-530	670	-725	-32768	-26104	-8224	1135	-5048	-2492	-25120	-7700	14244	-9056	10488	2848	32767	-32768	-32768	-8947	-3544	-25585	-32768	-32768	-32768	-32768	32767	-12373	250	175	2
-14196	-23952	20776	1249	-5848	-383	-16056	-12872	-28672	3806	-1024	-1340	-32768	-5856	-12488	2934	-7009	-2770	-9540	27124	1452	6381	7486	-935	-6264	32767	-32768	26353	32767	11548	-852	15176	-25700	17408	19605	-16876	0	240	2
-14580	-10548	13904	1082	-7686	-3109	-15248	6600	-21440	5573	-2517	-2198	-32768	-120	-21976	1410	-6531	-2003	-14944	6112	13608	6424	9236	-858	-32768	-8244	-32768	21612	31669	-3207	-32768	29820	-28740	26109	32767	-20839	0	4	2
-15220	1556	14824	-1185	-7631	-4131	-13576	14360	-23096	5668	-5010	-3308	-32768	4072	-31472	228	-5130	-2408	-16780	11188	11432	983	8659	-6763	-32768	-8656	-32768	-7907	14561	-10303	-32768	6780	-18556	-8818	32767	-5401	0	134	2
-29132	-4092	18088	-3526	-8601	-4389	-10936	15808	-22656	2904	-6728	-4604	-30136	9440	-31896	-283	-5051	-1866	-17444	17604	26428	-5005	19747	-12296	-32768	-14404	-25996	-6887	9548	-4054	-32768	20388	-8400	15533	32767	-6889	0	0	2
-32768	-7960	20244	-3779	-9439	-4220	-15288	4888	-17704	455	-8033	-5917	-5648	13544	-30320	-163	-2500	-1099	-6492	11672	30248	-5072	32767	-17616	-32768	-20492	-11268	5498	-162	-9225	-32768	10728	8888	-3959	32493	-13536	253	239	2
-32768	-13784	21840	-3322	-9383	-5192	-17208	9320	-18592	708	-8049	-6704	7776	18296	-26976	-2275	272	-500	-11240	12200	27548	892	32767	-26529	-32768	-18200	5328	2146	-2564	-674	-32768	-16100	15384	-19585	29257	-17146	91	226	2
-32768	-2912	19612	-1953	-8517	-7749	-17888	9440	-20192	1928	-7691	-6744	23048	10496	-25480	-4255	1861	-72	-28024	12116	29096	17596	32767	-24700	-32768	-10796	11500	13689	-7661	11114	-32768	3020	10696	-32768	32767	-22500	0	240	2
-32768	-3108	8780	-736	-7072	-9172	-19040	8944	-27304	4437	-6455	-5938	24112	3928	-20600	951	1604	662	-32768	18152	10344	24733	32767	-25822	-32768	16076	22032	7770	-8980	2744	-32768	25348	32767	-16117	26394	-9731	197	172	2
-32768	22380	-4020	-214	-5772	-7096	-31064	9032	-32768	5333	-5283	-4256	5768	-2056	-5984	4299	-1076	77	-21408	32767	-28676	-15500	32767	-32768	-9400	32767	32328	-32768	9384	-18762	-16780	-7856	32767	-29897	-2210	11046	8	77	2
-32768	19348	-26000	127	-5311	-1671	-28264	21264	-32768	6103	-1844	-750	-7864	-15704	14888	3993	-1533	-1095	-32768	5504	-2388	-32768	32767	-26510	548	-7424	9812	-32768	32767	-12349	8476	-20572	32767	-7233	-27523	-8479	253	37	2
-32768	22568	-32768	1411	-2850	1305	-3664	32767	-32768	967	-601	89	-8776	-11048	29712	3137	-954	-2511	-32768	-32768	32767	106	32767	-12428	-32768	-32768	10184	-29888	32767	-11403	3856	-30332	-9216	32767	923	-5894	198	62	2
-32768	23436	-32768	152	977	778	2032	24136	-32768	-2418	968	27	-2584	8008	9184	390	361	-1119	-32768	-8656	32767	32767	16548	-25368	-32768	-9204	6364	32767	32767	4379	-32768	-14088	3160	29676	-19587	-7859	0	136	2
-32768	15472	-28424	608	3344	80	-8	11456	-32768	-774	3682	1865	-6664	24120	20784	-5672	1019	1325	-32768	32767	21876	32767	-13500	-32768	-32768	2408	9668	32767	32767	-5704	-11464	-22428	7136	13821	-24115	-1461	0	109	2
24	3596	32767	88	4333	1873	-13136	-9584	9064	-1564	2729	2535	2344	32767	-32768	-4256	4531	2907	-32768	32767	21856	32767	-32535	-32768	-31536	5784	10476	32767	32767	-1868	-19356	-3020	7552	15779	-26600	-1543	253	46	2
-32768	32767	12968	-1279	4375	5165	-32768	-32768	-25912	-910	3391	-2745	-32768	-32768	5352	-399	41	-2055	-14856	32767	24524	342	-17339	-24872	-32768	5912	1992	32767	31919	1184	-32768	32767	9968	32767	-23960	1258	253	58	2
-32768	-28564	32767	5589	7887	6070	-32768	32767	-32768	-613	8809	1876	-32768	-26936	-32768	895	1056	-1504	-7104	32032	26176	-21603	-4672	1575	-28596	4220	-7176	-822	12574	-6919	-32768	15240	-6456	20266	-32768	8029	0	122	2
-20468	13536	5124	934	1591	1382	-32768	20600	-32768	-2398	5048	5367	2136	26928	-32768	-1052	4161	-62	-10632	19960	27428	-14695	-15050	23609	-22284	20560	-19940	-31022	-14368	-1005	-32768	19596	-8892	-9282	-32768	19620	214	3	2
-16580	3692	10704	480	1427	714	25552	27904	-4384	-4418	2936	1821	-3872	15128	-13176	-2430	3179	1963	-17924	18296	16528	-3094	-32768	31009	-6484	3504	-23980	-32768	-32768	7384	-32768	32767	-14800	-19898	-32768	19803	253	0	2
-16120	5852	11244	438	1012	737	-19880	12320	-29944	-1316	3007	1526	-28392	20528	-28888	-3928	3728	2731	-10688	9144	9956	6972	-32768	32767	-5400	-6528	-25940	-32450	-32768	13767	-32768	-27684	-32768	-32768	-32768	11835	253	239	2
-16232	-3816	12988	-320	945	261	-32496	-4296	-27272	-796	2609	853	-26624	-23448	-4928	1226	3138	1514	-22728	1152	14252	27547	-32768	32767	4708	-16008	-14236	-3878	-32768	16034	-32768	-8224	-32768	-2479	-32768	3875	254	239	2
-10360	-6264	32767	145	1856	262	-32768	-8232	-21112	-806	1881	852	-32768	-13152	-16336	-402	4255	1592	-32112	11624	15536	30919	-32768	32767	-11820	-9420	-15852	23683	-32768	23537	-13168	-3352	-28452	16013	-25853	14677	0	53	2
-7996	-3428	30316	145	4615	408	-32768	-9488	-4096	-2999	-1401	-631	-32768	-12784	6904	683	4279	1494	-32768	18700	16644	19135	-32768	32767	-10112	-5600	-16096	32767	-32768	32767	3436	-3276	-32768	13535	-5607	22612	0	0	2
4728	1164	30444	-430	7567	-268	-32768	-11080	16120	-338	-162	663	-32768	-1232	7712	-192	5245	4175	-32768	19316	19860	8184	-32768	32767	-8672	-2400	-21880	20969	-32768	32767	16736	-11384	-26488	24850	4746	16515	0	172	2
-9592	-5488	20720	-1841	11852	23	-32768	-14424	12736	682	-323	254	-32768	4728	-2288	1985	5471	2787	-32768	5484	13180	9125	-32768	32767	-13596	-11592	-21428	4815	-32768	32767	29080	-13476	-25704	17860	11793	2685	231	163	2
-32768	832	5508	-3508	11159	-379	-32768	-22800	-2784	226	-397	620	-32768	-31240	32767	4047	4656	2544	-32768	-2880	-1308	11198	-32768	32767	-15904	-16184	-32768	-9715	-32768	32767	13540	-10612	-8756	-27706	-12482	-6575	197	205	2
-32768	-32768	-18504	-58	9001	1599	-27976	-32768	14120	-1211	-814	3061	-15920	-32768	32767	-165	2513	-487	-32768	-27296	-20620	17796	-29069	32767	-31796	-17080	-32768	-21916	-32768	20127	-1300	13372	984	-26070	-20026	4286	132	63	2
-32768	-12340	-18296	9269	6718	1685	32767	-32768	-6040	5826	4705	3768	-11776	8312	32767	5622	-629	-1541	-32768	-21460	-32768	1039	-15204	29408	-16256	-26584	-32768	-18708	-32768	2698	-12624	13212	31772	-13441	-23758	5273	88	239	2
-32768	32767	32767	2933	6402	-464	-25224	29776	32767	9946	9899	3541	11064	22056	30408	-270	541	269	-32768	-32768	-32768	-8258	-11060	-12859	20356	-11156	-32768	5764	1131	1459	-5276	3764	24412	9166	2513	14614	212	187	2
-32768	13620	32767	-7518	4065	1279	-32768	13944	-1200	-4749	4420	1732	-19232	14512	10640	-3744	-3510	117	-32768	-25712	-32768	2334	12143	-14368	4224	-15240	-32768	7968	32767	-6099	-4648	-24252	16120	32767	15201	154	0	147	2
-32768	-22432	32767	-6238	487	3336	-32768	-13608	5472	-9639	2572	2279	-22920	9872	19384	-300	-3497	628	-32768	-15740	-20212	-509	30913	-9085	5156	-14772	-30220	1852	32767	-8484	3552	-28952	-32768	32767	32767	-17218	253	83	2
-32768	-32768	32767	-4139	-1649	4198	-32768	-23464	11080	-8285	2509	2202	-14312	16192	10096	238	-2865	56	18968	32767	32767	19079	32767	-21745	-32768	14016	32767	32767	28500	-16855	-30124	32767	32767	12829	-32393	-2375	253	221	2
-32528	-28880	31700	-2724	-3688	3529	-20704	-19840	-1808	-5897	919	1293	-32768	-15272	-680	-1244	-4185	-172	-32768	32767	-32768	-32768	32767	-32768	-12224	-32768	-32768	-32768	32767	-10566	-9196	3292	-32768	-13407	16020	-2235	0	116	2
-23132	-29180	30276	-2852	-4242	2373	-32768	-22144	-6216	-2618	787	534	-32768	-27800	-1096	109	-4779	-976	-19396	32767	13776	-12336	16679	-196	-15548	7408	-32768	-32768	32767	-32768	-16844	-32244	-32768	-7832	24416	-7517	191	1	2
-21752	-30008	29484	-2679	-4285	2216	-32136	-8016	-19944	-53	297	-1497	-32768	-14624	-11104	1835	-6375	-2087	-16800	6084	4832	1567	12882	-2530	10228	1048	-17416	19765	32767	-514	-4752	-11336	-32768	32767	12271	-10573	199	240	2
-11840	-23732	16988	1100	-6318	-1103	-15560	-5632	-19128	4243	-1445	-1421	-32768	-2232	-12720	1675	-5933	-2033	-18352	-5156	11020	208	4425	-9266	-31312	1644	-14736	20745	32767	-5998	-32768	32767	-24056	23839	32767	-12588	184	69	2
-9888	-3632	14580	256	-7516	-3046	-13872	12584	-24112	6294	-3457	-2538	-32768	13552	-32768	1244	-5971	-1206	-18936	7456	8464	-44	10810	-4748	-32768	1180	-18824	-2872	29263	-24948	-32768	15688	-29540	-14821	31664	-12125	0	51	2
-22624	3964	18036	-3142	-7898	-3377	-13336	19296	-23376	3481	-5952	-4147	-32768	-800	-32240	-593	-5838	-2523	-17652	13292	24984	-5831	12620	-9346	-28608	-1096	-27328	-10222	15333	-12868	-32768	7676	-12264	-10273	32767	-12716	50	0	2
-32768	-7448	20208	-4520	-9087	-3514	-13976	7832	-21504	325	-7618	-5721	-23128	11560	-31168	-397	-4124	-1719	-15304	8872	25856	-5979	26515	-14869	-32768	-19000	-20304	-3801	5152	-9318	-32768	12904	-6336	-1764	32767	-12990	0	239	2
-32768	-6860	21272	-4549	-9251	-3971	-17960	6088	-17216	-491	-8123	-6868	-2152	13512	-30736	-1048	-1747	-531	-7668	13360	26156	-3430	32767	-18556	-32768	-20308	-4404	280	-3633	-6605	-32768	-420	8320	-24786	32767	-18492	168	182	2
-32768	-14888	21572	-3399	-8631	-6285	-18800	8576	-20528	1238	-7553	-7383	13376	14864	-25120	-3812	396	-138	-23144	10976	26256	6711	32767	-23758	-32768	-17080	3236	943	-6409	4657	-32768	-11712	9688	-32768	32767	-19192	253	150	2
-32768	2284	17680	-2238	-7274	-8666	-19432	8496	-22032	3184	-6628	-7022	23848	6048	-19840	-3074	1128	-286	-32768	16492	22260	22337	32767	-21600	-32768	-2908	15232	11926	-13244	9481	-32768	6028	22324	-32768	32767	-12674	210	186	2
-32768	5724	6440	-1270	-5975	-9590	-22552	10448	-32768	5011	-5074	-5940	19624	920	-18072	2073	590	495	-32768	2580	4676	17261	32767	-20083	-32768	22136	25012	-5580	-3331	-7891	-32768	9572	32767	-32768	32767	-11084	253	171	2
-32768	24188	-15560	-1161	-4822	-6578	-32768	15784	-32768	6440	-3838	-3254	-168	-11960	-4360	3126	-1405	-609	-32768	32767	-32768	-32768	32767	-30522	13716	31488	23420	-32768	21038	-15226	-18124	-10232	32767	-30843	-12550	-199	253	79	2
-32768	26612	-32768	252	-4400	-198	-25392	32767	-32768	3384	-1004	-74	-10448	-16832	17112	2651	-1508	-1461	-32768	-32768	24424	-32768	32767	-12788	-15780	-29996	2564	-32768	32767	-15751	13472	-22436	32767	27110	-2587	-10237	183	112	2
-32768	20712	-32768	886	-1766	2174	1032	32767	-32768	-2270	-952	-385	-4064	-1408	15944	1318	100	-1686	-32768	-31972	32767	26976	32686	-3508	-19660	-32768	128	-32768	32767	-16644	-15192	-20872	-10140	32767	-12818	-13149	0	152	2
-32768	17160	-32768	535	1891	662	952	17480	-32768	-2170	2636	1019	1200	9496	7736	-2084	982	-572	-32768	12416	32767	32767	7865	-21827	-32768	-9424	4580	32767	32767	-3140	-27064	-12352	14520	5542	-25665	-5292	3	83	2
-32768	16480	-20192	839	3860	-261	-1904	13888	-27040	220	3423	2569	2464	25928	-20384	-5486	4247	2288	-32768	32767	25324	32767	-20090	-32768	-32768	4004	7776	32767	32767	-3424	-8984	-27704	980	7326	-23779	-4280	253	58	2
32767	1936	32767	-2192	4696	-181	-8704	-32768	32767	-4576	115	2340	-30232	-8968	32767	-374	417	2645	-24864	32767	18648	32767	-32768	-32768	-24044	-720	932	32767	32767	1596	-26752	-2904	3444	24983	-24002	-8451	253	163	2
-32768	-17072	-32768	5350	11438	6129	-32768	-22192	-32768	6912	7236	-3697	-18176	-1008	6288	1050	1269	1369	-12920	32767	20712	20022	-32541	-26507	-32768	9868	-1184	32767	26007	3643	-32768	25140	-544	32767	-28891	-5612	253	73	2
32767	-1100	12256	1268	3875	1568	-32768	32767	-7568	1052	10785	3435	-23840	24704	-32768	-1064	2098	-1222	-3428	32767	19360	-9243	-23247	-12942	-28300	8268	-8864	5219	5427	6933	-32768	28592	-9164	22197	-32768	6625	0	0	2
-22696	9772	12548	659	1632	357	-10288	24256	-1024	-6152	516	2287	5384	14760	-25496	-3781	2833	1505	-6592	20592	21432	-11485	-27770	14124	-16144	10484	-20328	-22247	-16035	3518	-32768	16428	-13780	-11756	-32768	20957	180	162	2
-8104	-14376	15200	406	1185	374	8872	-10024	-28000	-4274	4433	712	-8664	11048	-31488	-3170	2633	2960	-15588	16088	14196	-748	-32768	32767	-7492	-1880	-21876	-32768	-32768	7408	-32768	-1700	-26748	-22880	-32768	21983	253	0	2
-13788	-3180	15492	18	605	610	-23296	-2136	-32768	-952	2185	1238	-32768	-12200	-27416	959	2748	676	-20500	15948	13584	2236	-32768	32767	-8368	-4080	-27588	-24226	-32768	11363	-32768	-3712	-32768	-21704	-32768	16026	253	244	2
-17544	-92	17440	-234	650	495	-32768	-640	-32768	-123	2258	1241	-32768	-1864	-25336	-1016	4960	2166	-32768	4908	16264	14144	-32768	32767	-3724	-16752	-26280	2929	-32768	22957	-32768	-8204	-32768	-6509	-32768	13964	113	211	2
-15528	-3540	26060	-202	3037	650	-32768	-3704	-7032	-614	992	666	-32768	-21160	-3272	-364	5227	2345	-32768	9432	18148	28703	-32768	32767	-11536	-7100	-19672	32767	-32768	30155	-9980	-11456	-32768	-893	-20769	12903	0	242	2
-3048	-2808	30652	388	5609	743	-32768	-7600	7472	240	898	797	-32768	-4560	5384	1342	4720	3353	-32768	19968	17064	28531	-32768	32767	-14576	-5792	-16304	32767	-32768	32767	5208	-15520	-32768	2434	-7788	13414	2	148	2
5632	1948	29652	-1094	9626	380	-32768	-6120	18368	-119	-487	315	-32768	10408	6000	2163	4488	3487	-32768	17364	18376	15153	-32768	32767	-13472	-10628	-24812	18609	-32768	32767	22792	-13244	-28424	24975	2686	12997	0	97	2
-32768	-1916	22484	-2428	11473	111	-32768	-10464	296	-1565	-1227	-192	-32768	-2584	27944	3654	5216	2945	-32768	7128	9584	9951	-32768	32767	-16408	-17596	-30828	-826	-32768	32767	31828	-5936	-20708	12370	5761	2283	112	101	2
-32768	-25072	-6020	-2146	10615	779	-32768	-32768	14800	-3055	-1410	1376	-28816	-32768	32767	-969	3401	966	-32768	-19204	-9800	8305	-32768	32767	-20072	-11068	-32768	-15081	-32768	32767	6788	900	-6980	-22017	-21809	3272	0	122	2
2700	-32768	-18072	4904	9135	1776	16856	-32768	28736	1473	2204	3870	-21568	-16704	32767	1793	639	-1297	-32768	-32768	-32768	15526	-21147	32767	-18196	-18852	-32768	-32768	-32768	12185	-2556	17396	9576	-20832	-23937	9349	1	159	2
-32208	22984	32767	8092	5875	342	-1992	-1144	9400	5809	8930	3245	-2400	-10496	32767	935	-509	-289	-32768	-32768	-32768	-5567	-15388	-736	1688	-30324	-32768	-16786	-25659	-3334	-3776	11412	32767	-8180	-16371	12170	171	243	2
-32768	32767	32767	-2358	4797	-657	-32768	32767	31264	2707	6349	3603	2904	2320	20608	-1810	-1258	696	-32768	-32768	-32768	1296	752	-18539	18804	-17152	-32768	16509	23484	3511	4916	-7860	18816	21863	5719	12814	20	243	2
-32768	-6440	32767	-4984	2124	1717	-32768	-7480	16040	-5720	1984	1382	-18488	8576	17960	-822	-3132	1098	-32768	-16952	-32768	5505	23808	-10717	2308	-11812	-32768	18742	32767	-5337	3476	-32768	-23048	32767	32767	-12567	116	200	2
-32768	-15880	32767	-3737	-429	2845	-32768	-17304	9560	-8322	2265	2721	-18880	28616	17584	676	-3035	820	-552	8436	32767	23538	13170	-32768	-13716	-14804	32767	17722	32767	-11612	-4988	-11436	-32768	30538	20235	-11294	253	212	2
-28960	-23188	27416	-3267	-3150	4009	-25872	-17984	5824	-6746	1951	1937	-19120	9600	-336	-1432	-2892	-87	-32768	32767	-32768	13452	32767	-32768	-32768	32767	-32768	-32768	32767	23838	-32768	32767	32767	11613	2587	-1595	253	48	2
-31996	-19296	25856	-4040	-4651	4220	-22576	-16216	-5568	-4930	680	917	-32768	-20272	-584	-1824	-3456	-342	32767	-32768	32767	-32768	-27653	-19477	-32768	-32768	32767	-30074	32767	-32768	-25056	-32768	-32768	-32768	30675	1922	254	0	2
-25316	-32768	22964	-3761	-5132	3275	-32768	-17632	-12056	-2584	82	-699	-32768	-25728	-11560	886	-4356	-1008	-26116	-7696	19880	-10759	8781	1681	32767	-32768	-32768	-4165	3813	-6461	72	-32768	-32388	10847	12505	3401	253	244	2
-9268	-32768	17552	-269	-5816	1496	-24168	-10560	-23704	452	-834	-1286	-32768	-11616	-13240	2812	-5908	-2002	-9816	20516	88	2861	8716	-919	-3044	32767	-30144	27074	32767	7002	-5660	11812	-27948	25138	18000	-18602	63	162	2
-14092	-16948	14532	1463	-6258	-1563	-17312	-3248	-19344	3588	-1855	-2068	-32768	-11384	-20000	1770	-7370	-1972	-13736	7524	13100	2861	8680	-2800	-32768	-7060	-32768	28257	32767	3105	-32768	32767	-24936	29974	32767	-17122	241	14	2
-12420	-2596	14344	-747	-6561	-4319	-16224	9248	-25336	5855	-4078	-2815	-32768	1664	-29776	66	-5679	-2253	-16432	12152	9956	-551	7844	-8357	-28624	-6452	-28912	-8686	18475	-15396	-32768	4976	-20260	-14516	28842	-9561	0	54	2
-25824	-6252	18188	-3061	-7414	-4611	-10704	12776	-22800	3910	-5956	-4196	-32768	5576	-32768	-537	-5072	-1973	-15812	14668	11816	-913	8058	-8543	-32768	-14408	-27200	-11260	8706	-8762	-32768	21888	-10936	7724	32767	-9971	35	0	2
-32768	-9340	22324	-3478	-8644	-4005	-14536	6520	-19520	1326	-7293	-5795	-13976	15344	-30528	-1095	-3517	-1271	-8676	9980	26564	-5240	32059	-16544	-32768	-18128	-12004	2015	565	-12006	-32768	6756	3820	-12463	31080	-14536	183	244	2
-32768	-10444	23596	-3761	-9042	-4217	-19600	7760	-19512	966	-7783	-6746	2768	17248	-25784	-2211	-881	-706	-9172	11692	24264	-554	32767	-23101	-32768	-18588	2908	-384	-1363	-4752	-32768	-6168	9624	-32768	27715	-23110	110	117	2
-32768	-4672	18140	-2697	-8373	-6691	-19328	9176	-22896	1519	-7554	-6871	26696	11624	-24128	-4577	1305	-471	-24156	10648	25688	11364	32767	-26570	-32768	-15128	4040	5835	-5755	9093	-32768	-5964	6080	-32768	32767	-23553	72	158	2
-32768	3888	10980	-1773	-7120	-8148	-17112	12480	-27032	3643	-6472	-6159	26024	5408	-21600	-170	1481	138	-32768	16664	13588	26223	32767	-20700	-32768	11916	21932	15751	-10722	4103	-32768	21180	32767	-28320	32767	-8813	1	120	2
-32768	28684	-2300	-1641	-5810	-7421	-25272	16128	-32768	3807	-5513	-4943	9720	440	-9440	3509	-960	303	-32768	22880	-9768	4607	32767	-27283	-32768	32767	32767	-21576	2702	-20166	-16408	-6928	32767	-29086	4710	7435	253	144	2
-32768	31868	-25680	-2004	-5256	-2926	-28880	22480	-32768	4336	-2593	-1961	-728	-11584	808	2053	-1186	-357	-32768	32767	-15540	-32768	32767	-32768	14408	11436	2224	-32768	32767	-12218	-2072	-28168	32767	-19785	-19634	-2431	253	162	2
-32768	26724	-32768	394	-3374	815	-8784	32767	-32768	606	-744	-269	-9216	-9304	23736	1225	-742	-1252	-32768	-32768	32767	-32768	32767	-10877	-30960	-32768	17092	-32768	32767	-9848	7112	-19712	604	25860	-5487	-6711	185	159	2
-32768	31864	-32768	158	206	1539	2880	32536	-32768	-2716	290	37	-5072	-432	9776	-113	754	-1564	-32768	-13128	32767	32767	32767	-2716	-32768	-22164	16904	32767	32767	2840	-25768	-16588	15036	32767	-16425	-14694	0	57	2
-32768	18220	-32768	289	3069	538	-1472	15384	-32768	-1277	3639	2000	-752	13920	7496	-4262	1320	156	-32768	23104	32767	32767	39	-14946	-32768	976	2756	32767	32767	-957	-21972	-8812	13856	19421	-21755	-7312	22	50	2
-11532	25324	27584	54	4517	1940	-13984	-8272	-19616	-510	3857	2929	6112	22936	-25224	-5282	4264	3056	-32768	30836	22892	32767	-32068	-11666	-32448	980	9568	32767	32767	-1648	-13964	-6360	4092	18183	-28190	-4995	253	50	2
32767	-32768	32767	542	9014	6320	-32768	-32768	15320	-3196	1725	-2745	-32768	-32768	32767	-513	-2222	-671	-32768	29184	14784	32767	-32768	-3971	-32588	6704	-3664	31775	26934	186	-32768	21076	-1748	24768	-21535	2381	253	244	2
-32768	14808	32767	5867	10757	4476	-26672	32767	-32768	-2414	7424	1409	-26464	-21104	-32768	-1677	243	39	-12756	32767	14204	13098	-32768	-2411	-32768	4252	-800	17963	12953	-2956	-32768	17584	-216	8578	-32768	5227	247	61	2
-32768	32767	-3932	756	1925	3255	-8640	11024	-15560	-3987	8340	4892	17416	32767	-32768	-178	3432	-500	-9720	32767	14068	7478	-32768	-4330	-28216	5452	-14664	4035	-6460	5453	-32768	14996	-9160	-2709	-32768	9907	0	1	2
-17144	4180	13248	257	1280	829	7240	26840	-7456	-3948	652	4256	-328	16136	-32768	-4672	2649	2210	-10568	29052	12164	-14802	-32768	-6083	-15344	3368	-29216	-19674	-27246	6905	-32768	2428	-16320	-10505	-32768	18856	253	217	2
-14300	-2988	10796	527	609	903	-3560	-7664	-30488	340	4153	2495	-28160	-856	-32768	-1694	2762	3003	-20096	13060	6352	-142	-32768	32767	-12160	-4100	-27088	-26071	-32768	10445	-32768	-5684	-24952	-10934	-32768	19813	253	244	2
-17284	-3112	12588	124	768	434	-32768	7000	-31896	71	1794	1039	-28264	11296	-15072	507	2212	1830	-21436	12988	5076	15814	-32768	32767	-7056	-9440	-13868	-7422	-32768	12347	-32768	-6932	-32768	-10565	-32768	13091	253	82	2
-16972	3964	21480	-629	1039	244	-32768	-2520	-27872	-921	1484	1085	-32768	-11936	-17304	-1187	4323	2877	-32752	15732	11048	22230	-32768	32767	-10152	-9208	-25944	12496	-32768	31416	-18996	-9940	-32060	-1259	-32768	13121	0	53	2
-10824	-5632	30584	279	3385	486	-32768	-8584	-6032	-1336	470	988	-32768	-12824	1992	1428	4895	2706	-32768	15344	14740	21253	-32768	32767	-9636	-3528	-17168	23928	-32768	32767	-1920	-9308	-29640	7500	-13858	15542	0	114	2
-128	-2000	30324	-141	6361	210	-32768	-6480	8352	2	357	676	-32768	7048	5856	1661	4763	3243	-32768	19072	18048	13967	-32768	32767	-12524	-7496	-26288	12914	-32768	32767	11676	-13556	-27160	24825	-114	17021	0	117	2
5596	-3856	28760	-1398	10705	-27	-32768	-11560	17408	225	-650	438	-32768	8312	4888	1699	4558	3836	-32768	-944	8924	12311	-32768	32767	-8724	-19716	-25652	4443	-32768	32767	29544	-7152	-21652	32767	11859	11695	0	127	2
-32768	14296	18812	-1923	11015	589	-32768	-24688	248	-1001	-923	459	-32768	-18664	32767	3172	4067	2411	-32768	-15932	-4076	10721	-32768	32767	-5944	-28156	-32768	-1458	-32768	32767	23300	-1424	-16688	-18419	-5632	57	0	146	2
-32768	-15588	14696	-935	7429	837	-32768	-27024	800	-1231	-859	790	-19224	-32768	32767	-671	1626	-514	-32768	-32768	-28036	10241	-24422	32767	-19900	-20096	-32768	1557	-32768	21395	4808	15288	-1472	-23848	-21053	6618	105	178	2
-32768	-31028	-14572	5746	9043	2315	16304	-32768	21296	3222	4151	4207	-15760	216	32767	1983	-623	-1471	-32768	-32768	-32768	-5602	-20978	7389	-10320	-17492	-32768	-22110	-19667	5162	-9752	18444	26100	-15364	-21498	6454	0	246	2
-32768	30648	32767	5395	5877	526	-19728	6312	15392	4834	8162	4501	4136	-3176	32767	-1831	-848	734	-32768	-32768	-32768	-7977	-10449	-20872	15452	-26972	-32768	-13441	4916	-9879	-7116	-336	21660	-3694	-1472	12945	121	231	2
-32768	16192	32767	-2720	4022	755	-32768	16216	14928	-1091	5121	3310	-12888	5704	10936	-3283	-2195	751	-32768	-21456	-32768	-1976	17219	-13068	7960	-23036	-32768	1036	32767	-7680	4580	-30132	-784	32767	31978	-9573	109	246	2
-32768	-16704	32767	-5412	1035	3054	-32768	-17528	2616	-7118	2677	1577	-24328	9536	19528	325	-2692	158	-32768	-17936	-32768	-3078	21218	-9955	-8236	-7004	-14196	-3663	32767	-13770	-9656	-23524	-30532	23437	32328	-10805	232	195	2
-31348	-32768	32767	-5160	-1602	5718	-31672	-23728	10056	-7327	2401	2375	-18600	9072	3504	1805	-3441	-407	-32768	32767	-32768	-4677	32767	-32768	-32768	32767	-32768	-32768	32767	29882	-32768	32767	24780	13094	17472	-308	212	0	2
-29620	-28756	32767	-4776	-3266	4844	-27520	-21176	-2184	-4171	1511	889	-32768	-20488	-1296	-463	-3345	-1285	32767	-32768	32767	-28726	-17383	-32768	-14656	-32768	-3436	-26762	32767	-32768	-20828	-32768	-32768	-32768	25106	6364	253	5	2
-17380	-32768	25812	-2181	-3603	2665	-32768	-10856	-5504	-2694	923	-111	-32768	-18616	-16808	1609	-5210	-1229	-9716	-32768	17700	-18263	-8832	-13118	31296	-32768	-32704	-6232	9786	-8112	-308	-30088	-32112	7214	14641	8066	239	236	2
-3144	-32768	19708	2044	-4269	315	-21896	-6024	-18456	-101	-778	-425	-32768	-13592	-8384	1994	-6621	-2040	-11244	7236	6628	-1542	5904	-2089	920	32767	-31984	27194	32767	1502	-13976	4980	-26076	22519	18511	-16387	51	0	2
-9044	-10428	16604	2081	-5356	-2438	-11688	-5232	-17936	3383	-2404	-1477	-32768	-856	-20656	1630	-5445	-2535	-17684	980	10784	-2120	7036	-6336	-26648	-7928	-32768	22352	32767	-4899	-32768	28180	-29528	20985	31451	-21020	196	14	2
-11416	-3064	15072	-908	-6860	-4323	-6792	8672	-24224	4758	-4272	-2748	-32768	8456	-32768	909	-5344	-2416	-17040	2752	10916	46	8757	-7440	-31148	-4368	-28084	-3130	25614	-15393	-32768	7328	-23992	-5778	31014	-8528	0	178	2
-23268	-7484	16800	-2656	-8177	-3937	-1368	13936	-19848	3761	-5894	-4668	-32768	6240	-32616	-71	-5638	-1722	-17216	11796	26292	-6161	15407	-10277	-32528	-1252	-20316	-8379	10503	-12055	-32768	20016	-8100	11447	32767	-9154	0	0	2
-31732	-6460	20000	-3419	-9306	-3585	-14624	7768	-15456	2117	-7158	-5983	-17984	12576	-28608	-471	-3962	-1425	-13140	8536	26200	-3850	27983	-16376	-32768	-20452	-16936	1555	3087	-7830	-32768	12984	80	-5086	31717	-13922	0	242	2
-32768	-10496	21604	-4209	-9466	-4165	-20112	8832	-17664	932	-7889	-6760	-928	17192	-28776	-1203	-870	-1066	-4568	10888	25408	-795	32767	-19567	-32768	-18908	2100	4174	-976	-7305	-32768	12028	2996	-11575	31841	-14529	183	147	2
-32768	-9956	18524	-2923	-8981	-6647	-19560	9288	-20432	1605	-7696	-6921	14776	17352	-25712	-4040	993	61	-20120	13016	20644	9899	32767	-24268	-32768	-12024	5768	1859	-5143	6076	-32768	-9676	5100	-32768	32767	-24366	0	170	2
-32768	2084	11104	-1603	-7493	-8657	-15680	13648	-22816	2993	-7000	-6352	27040	5984	-22768	-1183	1330	294	-32768	13312	17328	23621	32767	-21338	-32768	3600	13120	9822	-12669	6836	-32768	16584	25480	-32768	32767	-12076	0	166	2
-32768	12620	1596	-661	-5899	-7892	-20608	10920	-32768	3653	-5769	-5691	17464	2464	-13968	3054	-350	677	-32768	9272	-1952	10513	32767	-24422	-32768	29484	28408	-15221	-3201	-12526	-18396	7964	32767	-26203	23502	2417	236	175	2
-32768	32652	-17684	-2039	-5136	-4064	-30192	20864	-32768	4664	-3686	-3201	3888	-9888	520	2320	-1218	-352	-32768	31524	-32768	-32768	32767	-26978	17560	24152	22624	-32768	17123	-16338	-18452	-27516	32767	-32768	-13979	-69	253	89	2
-32768	19076	-32768	-59	-4192	308	-27624	32767	-32768	1891	-862	-298	-10008	-13616	23672	1409	-1249	-1235	-32768	-25552	27124	-32768	32767	-11503	-17576	-32768	-3228	-32768	32767	-10039	12304	-30700	32767	21627	-4542	-10522	253	114	2
-32768	25452	-32768	686	-765	1755	1440	32767	-32768	-2420	-673	-324	-4800	-4088	15176	554	1299	-1698	-32768	-24924	24112	25387	32767	13261	-32768	-32768	-2212	16428	32767	904	-16048	-19144	-13032	32767	-6761	-11034	44	179	2
-32768	17136	-32768	283	2258	106	2952	17144	-32536	-1832	2473	1552	-6296	9352	14496	-3850	1236	-572	-32768	19352	19148	32767	6681	-2244	-32768	-664	-1116	32767	32767	-5653	-23988	-12016	6716	13203	-22408	-4910	0	114	2
-32768	18656	-10452	1239	3871	115	-5976	14248	-21984	448	3559	2787	8640	25488	-30416	-4638	4893	2780	-32768	32767	22736	32767	-18946	-30793	-32768	12244	6644	32767	32767	-6482	-5836	-25168	952	7320	-23458	-6852	253	92	2
32767	6104	780	-2854	4514	1273	-16664	-32768	32767	-2604	908	2143	-17208	-3328	14728	-282	1434	3552	-32768	32767	15716	32767	-32768	-32768	-24708	780	3152	32767	32767	-205	-27536	4716	3336	26061	-24211	-5573	253	108	2
-32768	-6128	-25796	5602	13355	7888	-32768	-19008	-32768	5635	6793	-3568	-25168	-32768	26328	1716	2526	570	-21740	32767	14500	32564	-32768	-22631	-32768	9256	-7044	23359	31786	-2034	-32768	22324	-1652	32767	-26520	-2481	0	31	2
20784	-32768	32767	-22	1699	637	-32768	32767	32767	2863	10443	5527	-32768	25096	-32768	1342	1649	-924	92	32767	15532	-1798	-32768	-21435	-32768	5200	-10164	7267	7722	2430	-32768	26204	-8604	15868	-32768	8510	2	0	2
-19528	-3572	12800	576	1047	-395	21040	32767	-19960	-6157	1158	2372	16208	22832	-32768	-3580	2680	1171	-5324	30636	14960	-21326	-32768	-4406	-9748	16540	-23960	-24689	-13491	8132	-32768	4632	-13032	-9297	-32768	21275	253	86	2
-10912	-4936	10868	603	1129	222	6792	-18088	-32768	-3978	4124	549	-10600	6144	-23312	-2557	3733	3557	-7324	9848	10088	-10183	-32768	31811	-3572	-11416	-18612	-29710	-32768	13640	-32768	1888	-20080	-15404	-32768	22832	254	112	2
-14072	-2280	15088	294	714	651	-25184	3088	-32160	397	2252	1320	-32768	-7960	-32768	893	3512	800	-5500	5060	11092	13532	-32768	32767	-5616	-12048	-19564	-12674	-32768	17263	-32768	-4212	-28916	-13443	-32768	19051	0	240	2
-16784	-2680	18556	38	758	631	-32768	136	-28192	-176	2170	1579	-32768	8584	-17248	-1672	4849	2392	-21972	12716	13944	21576	-32768	32767	1312	-9508	-18000	3602	-32768	26766	-25216	-9944	-30412	-4804	-32768	17799	153	164	2
-14176	-5436	27620	-47	3626	619	-32768	-2560	-2920	-1422	562	566	-32768	-17496	3032	-657	4492	2797	-32768	20920	16468	10462	-32768	32767	-6020	-1664	-13412	17758	-32768	32767	-7484	-9040	-30440	-2538	-15328	19053	0	124	2
-3088	-3548	30524	-71	5862	938	-32768	-10416	12416	-516	477	887	-32768	4928	5352	1267	3978	3283	-32768	19404	18780	-2044	-32768	32767	-13140	-192	-10968	15737	-32768	32767	2764	-8508	-29404	3298	-1343	18279	101	86	2
3796	-3260	25368	-1255	10294	797	-32768	-12728	18016	255	124	288	-32768	6472	5312	1716	4261	2839	-32768	9484	23836	-2109	-32768	32767	-16704	-11728	-24316	-2264	-32768	32767	5272	-11004	-30068	6513	1146	17140	1	130	2
-32768	7620	15532	-1791	11581	747	-32768	-5728	-1560	-744	-798	249	-32768	-9768	25312	2948	4853	2591	-32768	5672	5896	-656	-32768	32767	-11228	-21044	-25292	-15976	-32768	32767	27436	-6664	-29172	-2975	8946	3909	84	98	2
-32768	-15180	5676	-409	8880	1350	-24696	-32768	7928	-2687	-947	2054	-28344	-32768	32767	-1146	3180	1348	-32768	-11208	-15564	-7698	-32768	32767	-9280	-21180	-32768	-15597	-32768	25495	15820	-6640	-14352	-32768	-17262	-2683	62	159	2
-1172	-32768	-21608	5360	9029	2549	5344	-32768	25856	1457	1922	4081	-20080	-21584	32767	2508	142	-1196	-32768	-32440	-32768	1602	-28897	32767	-21452	-12928	-32768	-22550	-32768	10688	-3168	2668	9732	-32768	-25575	-1378	208	238	2
-32768	5884	14444	7286	5885	1169	-2832	-3272	6320	6078	9221	4582	-10792	-5704	32767	1465	-1675	-517	-32768	-32768	-32768	3263	-19196	6084	-2636	-20880	-32768	-10132	-21418	-909	-7620	1776	32767	-17481	-19011	279	252	238	2
-32768	32767	32767	-1481	6064	-586	-32768	32767	22616	4265	8695	4061	7288	8632	16064	-1803	-909	1050	-32768	-32556	-32768	3063	-6663	-19950	22468	-15428	-32768	11811	16920	-277	5340	-25536	23892	32767	23311	-1708	0	108	2
-32768	-16448	32767	-5445	4067	804	-32768	-10080	7952	-5418	3857	1922	-28920	22832	12512	361	-3138	910	-32768	-32768	-32768	21440	32767	-32768	-460	-22896	-32768	-1513	32767	-7366	1648	-32348	-32768	32767	32767	-51	253	0	2
-32768	-32768	32767	-4562	1718	3763	-32768	-20440	10168	-9437	3549	2546	-21248	32767	13984	2096	-3414	-38	32767	32767	32767	20961	32767	-32768	-32768	32767	32767	10457	32767	-15202	-32768	32767	32767	32767	-19466	856	254	122	2
-32768	-23516	32767	-4734	-1263	3621	-28024	-13416	-2704	-5474	3244	1477	-32768	-3120	-2256	-1960	-3405	-158	-32768	-32768	32767	-28943	-10952	-32768	-12984	-32768	-32768	-18314	32767	-28698	-26476	-14156	-32768	-3738	15126	2174	128	240	2
-24236	-31164	30532	-4619	-3709	2209	-31952	-12736	-6864	-5196	791	-235	-32768	-26200	-3632	-1549	-5122	80	5800	-32768	27620	-17116	-14025	-28518	2716	-32768	-25948	-24275	13118	-24076	-732	-16112	-29464	626	21912	-353	254	240	2
-2944	-32768	24044	-1537	-4746	1811	-25144	-12272	-13176	-3467	-233	-982	-32768	-14552	-11256	-45	-6224	-1718	-13900	-56	6436	-438	6175	-2238	-2472	29316	-27444	21204	32767	-73	-2976	10840	-29292	17373	18113	-16677	245	0	2
-1388	-25328	18416	1021	-5972	-47	-536	-7808	-18352	727	-1989	-2207	-32768	3008	-17344	734	-6965	-2969	-17024	2612	9660	-765	8105	-7074	-31332	3568	-26908	17785	32767	-5169	-32768	29024	-31464	9429	32767	-17497	0	210	2
-9084	-3760	14316	126	-7914	-2875	-3960	6032	-17520	4407	-3136	-3461	-32768	-320	-26952	538	-6241	-1969	-18532	2036	11124	63	9277	-7556	-24188	440	-28440	-6729	25111	-20508	-32768	1924	-27824	-15494	29581	-10542	0	1	2
-16668	-3588	14972	-2176	-8389	-4482	-7128	13584	-16744	4823	-5233	-4828	-32768	6832	-32768	-597	-5712	-1845	-16900	8344	23496	-5735	17508	-10415	-32768	-14164	-19844	-11194	12709	-13276	-32768	17816	-9520	5969	32767	-8697	0	1	2
-29912	-8588	17852	-3001	-9099	-4778	-10104	7576	-17544	3821	-6243	-6148	-25056	13160	-32768	-1667	-5206	-1754	-13948	9184	25784	-3980	29933	-14102	-32768	-19716	-14732	-2085	2600	-7929	-32768	8724	-548	-12545	32767	-13525	0	239	2
-32768	-4680	19884	-3206	-9595	-4545	-17264	3936	-12376	2621	-7400	-6653	192	11840	-32768	-1753	-1969	-1421	-5788	9032	26904	-368	32767	-16861	-32768	-22552	-1440	1723	-415	-5281	-32768	-6512	8692	-32768	31473	-20717	253	168	2
-32768	-10944	20840	-3084	-9429	-5691	-19680	8624	-16864	2834	-7645	-6754	14416	16376	-29352	-3446	825	-1560	-19700	12040	24424	12045	32767	-21754	-32768	-15468	5276	2899	-4505	5007	-32768	-13676	7292	-32768	32767	-21835	253	163	2
-32768	-1932	16528	-1449	-8644	-7795	-16712	12112	-21240	3110	-7618	-6289	19896	10256	-25312	-2967	1547	-1505	-32768	15692	17956	24680	32767	-20418	-32768	1464	9112	10919	-10742	9293	-32768	12488	28932	-24222	32767	-10819	253	198	2
-32768	6652	4128	-557	-7698	-7306	-16464	14904	-32768	4051	-6414	-6044	19008	8328	-22520	3197	757	797	-32768	6672	-364	3130	32767	-27668	-32768	32767	24476	-11964	-2166	-12040	-21808	16844	32767	-24032	24300	3909	166	173	2
-32768	32767	-13256	-3157	-6658	-5383	-30776	25064	-32768	3000	-5739	-4697	6016	1056	-5752	3534	-1184	1007	-32768	32767	-30932	-32768	32767	-26877	8832	22272	13608	-32768	23535	-18681	-26844	-7684	32767	-16526	-16001	1129	171	123	2
-32768	28256	-30472	-2806	-4513	-1522	-32768	31960	-32768	1072	-1715	-1719	-9192	-7032	14760	2503	-1555	197	-32768	-32768	26324	-32768	32767	-8866	-17976	-32768	5108	-32768	32767	-18572	-15664	-14048	32767	-4800	-24123	-4676	103	129	2
-32768	31408	-32768	765	-2034	1191	2336	32767	-32768	-1832	-623	-551	-7584	-7912	27944	88	-322	-2007	-32768	-20096	32767	24847	32767	237	-32768	-32768	10060	28019	32767	1567	-21996	-18716	-8004	25509	-16370	-14362	0	157	2
-32768	32767	-32768	695	1593	833	4112	25112	-32768	-1884	557	1401	-10776	4744	1888	-3553	1631	-1615	-32768	23944	32767	32767	12460	-20833	-32768	-4172	8448	32767	32767	-8737	-22036	-21072	14592	12279	-27421	-4020	0	39	2
-22820	16224	-7868	-984	5846	4232	-8888	6304	-12040	-1372	3694	2262	408	24000	29360	-6746	2451	2379	-32768	32767	30964	32767	-18546	-32768	-32768	204	8620	32767	32767	-5915	-16040	-24508	2124	5639	-24888	-5895	253	0	2
-32768	-32768	-26008	3812	11043	8820	-32768	-32768	-32768	602	4457	-3927	-32768	-16800	-18096	-1464	3549	187	-30032	32767	25156	32767	-32768	-31151	-32608	336	124	32767	32767	755	-32768	15388	6664	32682	-22163	-7731	253	168	2
-32768	32767	32767	1954	2778	7059	-32768	32767	-32768	-4079	11146	3523	-32768	-31264	-32768	-575	94	-1824	-10936	32767	23288	22834	-32768	-23491	-32768	6176	-3996	27574	21635	4298	-32768	23172	-5372	32767	-32768	-1578	253	87	2
-22796	26764	11964	791	1597	1685	-17736	5040	-32768	-6115	1231	3012	-31576	-9544	-32768	994	385	-2635	-1692	32767	16248	-12191	-32768	-11492	-16376	7504	-13668	1818	-6378	4006	-32768	17728	-9244	-602	-32768	11747	0	0	2
-20172	9624	6704	172	1238	573	24896	1704	-10544	-4608	3264	2560	-5512	2728	15288	-2762	1596	2442	-1496	32767	16476	-15945	-32768	-7903	-9212	5080	-23136	-21183	-31945	11998	-32768	-232	-23852	-17881	-32768	20359	254	208	2
-16000	3348	10900	610	440	1321	-7552	2488	-17520	83	2056	2388	-32768	-17008	-30824	1737	1145	1194	-7104	15776	13920	-13446	-32768	18265	-5124	-8240	-26936	-25071	-32768	16197	-32768	-804	-32768	-15569	-32768	18400	105	136	2
-17100	-500	12768	196	647	785	-32768	-448	-29064	916	2399	1784	-32768	8816	-22720	195	4455	2944	-22360	14788	11068	16220	-32768	32767	-4816	-5248	-22260	-8737	-32768	23294	-32768	-8868	-32768	-8809	-32768	14613	253	102	2
-17832	2484	18120	-565	772	764	-32768	-184	-15112	-924	1109	1679	-32768	-10760	-8600	80	4449	1966	-32768	16740	16628	17565	-32768	32767	-5548	-8396	-22808	8330	-32768	32302	-18740	-10900	-32768	2958	-32734	14536	0	109	2
-13956	-7212	30236	354	3377	921	-32768	-7320	-4400	-1541	825	1314	-32768	-11104	4912	631	4627	2989	-32768	13940	18376	19422	-32768	32767	-12096	-4656	-15624	24577	-32768	32767	3664	-9768	-32768	11445	-10326	17845	0	90	2
116	168	31184	-103	6604	692	-32768	-8456	9680	-588	-239	774	-32768	1656	8504	1246	4110	3768	-32768	18836	19708	16369	-32768	32767	-14496	-6988	-24256	17785	-32768	32767	19380	-13048	-31096	24064	-2656	17215	0	98	2
5016	-7432	27588	-1549	11051	685	-32768	-17232	17984	-349	-1106	705	-32768	6032	5104	1488	4456	3626	-32768	14760	8860	5735	-32768	32767	-9692	-14212	-28256	4714	-32768	32767	32767	-6904	-31476	23534	10763	10347	1	18	2
-32768	-2220	8308	-2606	11998	807	-32768	-26352	4256	-813	-1280	761	-32768	-22288	32767	2584	4608	2118	-32768	-10568	-5512	1267	-32768	32767	-11324	-26276	-32768	-1997	-32768	32767	14104	-8060	-11064	-26272	-13851	-3078	5	114	2
-32768	-31644	736	-426	8647	2111	-20400	-32768	6960	-169	72	3145	-19752	-32768	32767	-1821	2897	-580	-32768	-32768	-30032	18360	-32768	32767	-26980	-20132	-32768	3929	-32768	26978	4828	9604	3752	-24303	-24183	214	103	119	2
-32768	-32768	-31452	10095	10295	1979	26192	-32768	17128	5379	3806	3964	-15144	-12904	32767	4465	-187	-348	-32768	-32768	-32768	6749	-22662	15680	-9588	-17512	-32768	-16003	-22019	8876	-10528	15488	32767	-17854	-25981	5359	95	240	2
-32768	32767	32767	8310	6885	-800	-17640	8936	9152	8016	9927	3263	3088	-10208	31480	1332	-869	707	-32768	-32768	-32768	-6067	-10933	-18859	15812	-23128	-32768	-57	4759	-5964	1328	224	21336	12876	5110	10587	233	197	2
-32768	32767	32767	-5802	4299	-402	-32768	32767	15064	-240	5824	2772	-8384	10704	16432	-285	-2290	593	-32768	-26560	-32768	3553	9689	-22537	3484	-17708	-32768	10374	32767	-5353	-4560	-22456	17756	32767	12922	1958	0	240	2
-32768	-13764	32767	-6833	594	2850	-32768	-4352	8112	-7011	2082	1464	-25624	18824	27104	464	-3490	1468	-32768	-7852	-20520	-1991	29031	-14129	-424	-14736	-29176	4965	32767	-12083	-364	-32724	-32768	32767	32767	-18800	167	31	2
-32768	-26740	32767	-5216	-1861	3552	-32768	-16664	12984	-9172	1513	1889	-13576	23896	1872	450	-2511	286	32767	-16816	32767	808	11514	-32063	-16860	-840	21692	24135	32162	-12482	4040	8128	-17208	3305	17149	-12396	253	239	2
-28464	-32360	29964	-3200	-3443	3910	-23992	-23056	5984	-6364	1413	1490	-25448	1240	4984	-1467	-3952	-650	-32768	32767	-32768	-15015	32767	-32768	-32768	28384	-32768	-32768	32767	29039	-32768	19816	32767	8608	8020	-18870	253	140	2
-26280	-24552	27468	-2518	-4360	2514	-25448	-14256	-9168	-3687	604	490	-32768	-32208	-3576	-1222	-4119	-1366	5728	18452	25956	-9386	13917	-12504	-12456	-32768	-3624	-32768	32767	-32768	-24764	-31676	-32768	-20547	28319	260	0	0	2
-16592	-32768	21616	-1252	-4812	1288	-32768	-17472	-11936	-1556	-442	-846	-32768	-27256	-8840	899	-6107	-1360	-24356	21700	8136	-4514	23190	7625	32767	-20176	-32768	30355	32767	7287	1460	-31272	-30228	31987	9828	-164	253	239	2
-8524	-28316	21068	402	-5923	-401	-15008	-15672	-22072	1435	-1556	-1728	-32768	-7096	-11768	2321	-6109	-2319	-11592	13460	2300	4177	9284	-3211	-5592	22740	-32768	20189	32767	-2493	-18188	25636	-23800	21283	23404	-21915	0	224	2
-19972	-14328	14928	472	-7492	-2980	-13520	-6072	-24696	5204	-2734	-2619	-32768	5904	-26336	470	-5451	-735	-15208	7468	13616	2033	7546	-2850	-30060	-6340	-28960	-563	26068	-15790	-32768	28096	-29988	9298	26196	-23994	1	126	2
-16840	-8804	14540	-918	-7934	-4087	-12544	9488	-22432	6096	-4852	-3497	-32768	-1264	-32768	-403	-6171	-2708	-18840	10624	10492	1274	6620	-7813	-32768	-236	-32768	-12452	16108	-16519	-32768	12528	-15316	-9260	31434	-5008	0	3	2
-30872	-6396	18944	-2721	-8470	-4336	-14576	12344	-24832	4234	-6692	-4720	-30776	8096	-32768	-361	-4683	-2767	-19164	12768	25892	-6172	20081	-14908	-32768	-15868	-23460	-489	8467	-8870	-32768	16776	-8876	2809	32767	-12341	0	0	2
-32768	-10580	19672	-3890	-9256	-4990	-18728	6376	-20976	1165	-8127	-5756	-6296	15184	-31104	-363	-2210	-1646	-6988	9740	27484	-6705	32767	-17645	-32768	-19084	-12036	3432	757	-11289	-32768	9028	484	-20780	25574	-16007	141	120	2
-32768	-21232	19992	-3066	-9122	-6312	-16552	8016	-22216	971	-8383	-6435	9984	19144	-26352	-2610	267	-357	-10404	9928	25656	-1342	32767	-26842	-32768	-18392	-9752	2709	-570	-10777	-32768	-4428	9976	-32768	32767	-26261	103	236	2
-32768	-7724	15104	-1397	-8082	-8070	-17104	10600	-24568	1713	-7646	-6672	21464	8248	-16848	-2870	1180	-207	-31408	12060	29600	10139	32767	-27428	-32768	-10516	13564	5506	-12201	5669	-32768	6484	16884	-32768	32767	-19416	177	237	2
-32768	7360	6712	-704	-6649	-7972	-20704	10424	-32768	3333	-5635	-6237	21992	4376	-18488	2088	966	1040	-32768	17740	11472	10403	32767	-24908	-32768	21156	21580	-2718	-4651	-2844	-28088	3568	32767	-14655	23719	-6929	253	237	2
-32768	31096	-12684	-1962	-5857	-4844	-32768	14856	-32768	4669	-4328	-3936	-352	-10016	-232	3122	-1324	-316	-24476	32767	-20272	-31258	32767	-31540	-1936	28136	28740	-32768	13851	-19262	-15952	-15816	32767	-32768	-7176	9805	253	81	2
-32768	26776	-32768	-604	-4629	196	-30440	32767	-32768	3107	-923	-303	-12328	-16216	21696	2044	-1322	-1275	-32768	-6056	16300	-32768	32767	-16719	-16296	-12500	-5728	-32768	32767	-12467	10232	-20512	32767	24646	-6604	-10429	238	83	2
-32768	28852	-32768	972	-997	1790	1088	32767	-32768	-2554	137	-319	-960	-1784	15992	701	673	-1451	-32768	-32768	32767	18255	27981	-3542	-32768	-32768	6304	-12100	32767	-9217	12076	-20436	32767	31578	514	-9234	0	189	2
-32768	21744	-32768	770	2373	273	-1224	19376	-32768	-1640	1827	1380	2632	10096	5312	-2562	913	-376	-32768	9716	32767	32767	8153	-11496	-32768	-11756	6228	32767	32767	-3196	-32300	-5580	11820	15708	-23041	-5489	0	48	2
-32768	20892	-16724	1640	4134	-95	-5320	14296	-27896	863	3826	2939	3976	21064	-13856	-4533	3889	1742	-32768	32767	25468	32767	-12801	-32768	-32768	5332	11296	32767	32767	-6554	-10404	-21276	3836	1548	-27997	-1159	103	60	2
32767	7352	32767	-2699	4109	1100	-13104	-32768	32767	-2677	833	2634	-29112	-1208	32767	-1329	1236	2620	-26784	32767	23768	32738	-24921	-32768	-26032	-872	4208	32767	32767	-2085	-27764	-164	4976	17732	-28338	-5215	253	135	2
-32768	-32768	-32768	4436	10671	5776	-32768	-26064	-32768	4212	7427	-2972	-11848	-2688	10856	2293	2137	1511	-13564	32767	25324	5802	-21313	-24248	-32768	-432	-5412	23180	23783	-1242	-32768	22820	1680	31690	-30039	465	193	59	2
32767	9616	7132	86	3904	1607	-32768	32767	-7016	-2391	11292	3265	-22728	18872	-32768	-759	1759	-161	-7460	30872	22420	-13006	-21080	-7610	-24872	5104	-9100	3578	6403	-2024	-32768	16272	-5848	15217	-32768	7990	140	0	2
-27984	11944	11276	652	1915	333	-8096	25296	4520	-5143	902	3347	9120	18824	-27552	-3665	2641	1538	-2940	22824	18868	-12417	-32768	11709	-12916	15460	-18488	-22324	-17016	1804	-32768	9632	-10140	-11844	-32768	18620	254	0	2
-11536	-13212	5604	767	853	534	18288	-8000	-32768	-4719	4781	789	-3352	9080	-30656	-3882	3208	2677	-10436	17912	11504	-1447	-32768	30194	-4204	972	-22916	-31489	-32768	10733	-32768	-5352	-22616	-14536	-32768	20860	253	0	2
-13468	-3972	14020	546	416	788	-18544	2360	-16440	-665	2312	1819	-32768	-12184	-26120	677	2652	10	-13076	13000	9700	11142	-32768	32767	-4876	-3748	-24536	-19792	-32768	16648	-32768	-3180	-31976	-14586	-32768	15160	204	239	2
-15608	-688	16048	188	699	671	-32768	9032	-32192	-160	2164	1185	-32768	1672	-27128	-509	4627	1961	-26232	10768	12832	23267	-32768	32767	484	-12448	-22988	2283	-32768	26657	-31452	-9768	-32768	-4142	-32768	11641	253	95	2
-13872	-6092	29236	506	2220	806	-32768	-5320	-14088	-530	1166	1086	-32768	-12856	-9760	-749	4650	2541	-32768	11484	15508	29537	-32768	32767	-8132	-6096	-20372	28055	-32768	32640	-6068	-8336	-32768	-2670	-24262	15604	0	183	2
-9372	-2076	31568	149	4443	1197	-32768	-5512	-1456	4	737	814	-32768	-7472	3224	735	4492	3171	-32768	14192	14824	30274	-32768	32767	-9576	-3360	-16112	32767	-32768	32767	5300	-10740	-32444	2069	-9436	15121	0	127	2
4444	-2980	32548	-620	7874	432	-32768	-10096	15064	502	41	270	-32768	4032	10064	1349	4482	3413	-32768	19104	18220	15718	-32768	32767	-8848	-8640	-25168	19604	-32768	32767	20840	-11236	-28776	23221	2509	12405	0	146	2
-10324	-7612	23272	-1954	12341	1207	-32768	-13336	11096	-385	-1214	-75	-32768	6648	9184	2370	4911	3311	-32768	3024	15140	4549	-32768	32767	-11740	-16652	-22820	3854	-32768	32767	30980	-344	-26364	22051	15282	3661	0	163	2
-32768	1804	9152	-2727	11375	950	-32528	-23360	3088	-2354	-1627	329	-32152	-30696	32767	1091	3905	2262	-32768	-11300	-3744	3354	-32768	32767	-19828	-18116	-32768	-13455	-32768	32767	12744	2916	-8196	-15513	-9867	-1316	201	103	2
-32768	-32768	-18756	1202	8667	2599	-17680	-32768	13752	-1532	-298	2886	-16912	-32768	32767	-1049	1524	-1279	-32768	-14232	-9252	3633	-32768	32767	-25332	-14188	-32768	-32768	-32768	12605	-5780	13572	5388	-27313	-17477	8831	103	139	2
-32768	-12488	-12260	9816	7141	1851	23104	-32768	-6696	5936	4979	3957	-11480	-3888	32767	3778	-272	-925	-32768	-32768	-32768	-2975	-15851	7857	-5948	-27624	-32768	-32768	-27296	-3030	-9500	11712	32767	-30337	-22060	6904	248	238	2
-32768	32767	32767	2985	5630	-625	-27112	17952	21648	8663	9396	3769	11312	-1320	19128	-1373	-714	1133	-32768	-32768	-32768	-825	-9370	-22887	21320	-16532	-32768	11310	12973	-1901	440	-7188	18312	11896	7888	9764	0	239	2
-32768	10664	32767	-6712	3261	666	-32768	21072	6200	-3859	4681	1785	-10192	15400	15624	-1667	-2251	317	-32768	-18516	-32768	6389	9914	-23601	1860	-13568	-32768	25091	32767	-4081	3172	-32768	-5516	32767	30926	-8707	9	198	2
-32768	-18712	32767	-5893	356	2445	-32768	8176	7840	-3949	3866	1130	-25152	16536	21664	-802	-3101	948	-11112	8188	20820	23189	20681	-32768	-15564	-8444	32608	28172	32767	-9176	-7992	-21480	-32768	32767	32767	-16041	79	62	2
-32376	-32396	32767	-4111	-1937	3565	-32592	-21288	12752	-8329	1983	1797	-15888	15200	-536	-342	-2917	48	-32768	32767	-6132	-9919	32767	-32768	-32768	32767	-32768	-32768	32767	24530	-32768	32767	-5132	32767	16606	3759	254	0	2
-32152	-23016	32767	-2702	-3347	3466	-26040	-22440	-1184	-5422	1574	1064	-32768	-15504	384	-1968	-3607	-1083	-32768	-32768	16040	-11044	11902	-32768	-20088	-32768	-31380	-28728	32767	-32768	-26072	-20916	-32768	-32768	11498	6974	136	0	2
-23052	-28188	28364	-2365	-4200	2125	-32768	-17832	-4152	-3081	85	136	-32768	-28992	-8440	1428	-4546	-1691	-11648	-32768	30240	-10752	6734	-13897	32767	-32768	-19016	-27452	18590	-13614	-3544	-29612	-32768	-2905	20098	2993	253	239	2
-22396	-29736	27936	-2121	-4323	1992	-26688	-8448	-17296	-589	-390	-710	-32768	-19208	-7384	2789	-5957	-2372	-12364	12364	6892	-912	15547	2813	-2264	22208	-32768	21004	32767	-5281	-14680	3804	-23440	24290	20064	-15982	161	19	2
-10708	-22396	18804	1160	-6088	-748	-13680	-11624	-17664	3068	-1891	-1506	-32768	840	-16056	2299	-5784	-2271	-15668	4304	11292	-599	8337	-4048	-32768	-6988	-23848	18504	32767	-9608	-32768	30220	-27044	23838	32767	-16317	58	106	2
-14960	-6828	15052	71	-7523	-2764	-14312	7256	-22264	5528	-3389	-2879	-32768	17024	-31872	1286	-5327	-1669	-17328	8844	9772	-7	9169	-6530	-19968	396	-19592	-1567	18416	-22604	-32768	9168	-15732	-5066	29302	-8354	0	59	2
-22000	-3788	15208	-2287	-7954	-3464	-6248	10472	-21728	4761	-5405	-3923	-32768	-1152	-31416	-454	-5802	-2322	-17804	9128	19016	-1733	17513	-10812	-31168	-18872	-21180	-6698	18421	-7614	-32768	20744	-10524	3575	31502	-10509	0	0	2
-31324	-8908	19184	-3391	-8422	-3678	-16000	7192	-22200	2548	-6974	-5139	-25784	8472	-26944	-422	-4041	-2250	-12612	8672	23116	-5830	29431	-12902	-32768	-18232	-15604	413	6945	-10191	-32768	3728	-1544	-7611	31631	-15233	0	240	2
-32768	-8032	21128	-3534	-8807	-4004	-19440	3728	-18336	984	-7834	-6203	-3008	13736	-31384	-610	-1304	-1687	-7808	7136	22972	-3761	32767	-14687	-32768	-21316	-8812	2288	580	-3460	-32768	-5328	9884	-16609	32767	-17582	197	219	2
-32768	-12832	19844	-2883	-8656	-5666	-21424	7128	-20672	2011	-7666	-6517	9856	16240	-26864	-2914	598	-628	-25036	9600	21556	5978	32767	-15743	-32768	-16044	-800	3650	-3226	804	-32768	-3956	8740	-27826	32767	-25262	253	186	2
-32768	-384	13488	-1697	-7764	-7733	-19192	10232	-25032	3016	-6959	-6299	21304	10136	-19112	-1740	396	-341	-32216	19928	21396	18540	32767	-18394	-32768	5620	9696	8643	-12189	6394	-32768	19468	11996	-19356	32767	-15047	128	210	2
-32768	15768	-816	-1429	-6734	-8036	-16808	14192	-32768	4233	-5075	-5524	20144	2608	-15960	3100	-238	627	-32768	5308	12336	5802	32767	-23923	-32768	22952	25616	-8868	-5728	-14700	-24252	24572	32767	-18884	32767	323	253	225	2
-32768	31936	-20916	-2345	-5179	-5581	-27664	16600	-32768	4867	-3915	-3408	3960	-7760	-4976	3550	-1790	-477	-32768	32767	-32768	-32768	32767	-32768	-2712	32767	32767	-32768	17344	-19880	-5820	-1812	32767	-32768	-14552	-1476	253	138	2
-32768	30552	-32768	-263	-3979	-156	-26776	32767	-32768	3191	-568	-365	-8784	-10464	18752	1960	-1896	-1048	-32768	-11352	20832	-32768	32767	-13611	-9460	-32768	10920	-32768	32767	-18234	18916	-32768	32767	-5782	-704	-7032	253	94	2
-32768	29944	-32768	308	-1426	1111	-1040	32767	-32768	-2192	-542	-48	-4264	872	13504	-169	199	-1430	-32768	-31200	32767	11541	32767	9031	-32768	-32768	7308	4847	32767	3181	-15592	-27340	-1776	32767	-10805	-14506	41	169	2
-32768	23380	-32768	438	2154	-207	4336	20832	-32768	-2526	1828	1037	6712	16288	9128	-4694	1923	-18	-32768	7768	32767	32767	15321	-6108	-32768	-5060	584	32767	32767	590	-32768	-16648	12324	25298	-24319	-5842	0	127	2
21324	32767	-32768	-813	7581	2118	-5320	7496	-32768	-20	3236	2563	-4008	23912	-11032	-3721	3723	2233	-32768	32767	29060	32767	-17587	-31482	-32768	3164	7336	32767	32767	-784	-9800	-21612	-688	16381	-22384	-2263	253	4	2
-32768	-32768	-32768	3866	12353	7139	-32768	-32768	-32768	3812	5456	-2295	-32768	-32768	-28808	-114	3370	-2078	-30864	32767	21896	32767	-32768	-32768	-29276	-196	108	32767	32767	4761	-32768	7808	2464	28710	-20016	-5202	253	126	2
-17760	32767	-5716	1120	3251	3451	-32768	32767	-32768	-2810	13201	3820	-28112	5864	-32768	1581	1389	-1106	-14144	32767	18640	27559	-32768	-28053	-32768	-1876	-5276	32767	23924	8173	-32768	22588	-6496	32767	-32768	249	253	103	2
-21192	32767	16776	491	1972	1286	-9560	32767	17152	-5638	-130	2762	5552	26336	-23696	-3161	2839	1625	260	32767	15272	-7085	-30386	-16607	-20224	10340	-13256	10779	981	6461	-32768	16024	-11324	14676	-32768	10451	0	0	2
-16372	568	5428	515	1111	211	12216	2672	-15064	-7354	3477	1362	-17256	1816	-25440	-2271	3665	3056	-3680	18824	16620	-14657	-32768	10841	-8932	4652	-20908	-15392	-22540	10832	-32768	-3424	-19320	-11841	-32768	21719	151	162	2
-15244	-472	11532	403	600	721	-21048	-9600	-18368	-2337	363	1021	-32768	-12896	-12800	1793	2272	616	-9108	7772	13512	4462	-32768	32767	-4040	-8120	-21440	-23323	-32768	19592	-32768	-4372	-31184	-7954	-32768	20186	253	127	2
-16108	-2108	14696	183	824	520	-32768	1000	-23160	548	2577	1374	-32768	12904	-19592	-939	4601	2091	-16952	11628	14156	17981	-32768	32767	-4264	-6172	-20940	-11520	-32768	24783	-32768	-9264	-32768	-7957	-32768	15668	253	129	2
-13180	-372	29384	450	2475	746	-32768	272	-10720	-189	1816	993	-32768	-18160	-6376	-1316	4687	1928	-20752	12228	14452	18696	-32768	32767	-872	-2232	-17788	-1847	-32768	32767	-17984	-7632	-32768	4510	-32395	16053	0	193	2
-8132	-3096	28488	202	4662	783	-32768	-208	-11352	-297	1672	940	-32768	-11552	3824	532	4507	2806	-32768	13604	19192	14102	-32768	32767	-12768	-7376	-16716	12975	-32768	32767	3324	-6712	-30672	5916	-11708	20102	0	152	2
2492	-1668	27856	-738	7680	87	-32768	-8248	10912	267	319	601	-32768	-384	5584	1165	4221	3601	-32768	18440	21440	8788	-32768	32767	-13608	-7928	-17520	11038	-32768	32767	14236	-13496	-27900	12631	-3298	18045	0	197	2
-8224	-5104	18628	-1649	11574	918	-32768	-11056	10416	-884	-969	-15	-32768	5952	-592	1586	4477	3766	-32768	4344	16332	1673	-32768	32767	-13032	-15860	-19348	3222	-32768	32767	32236	-7068	-29880	21534	8540	10240	0	0	2
-16624	-5576	16064	-1688	11733	1001	-30376	-14184	-2600	-1526	-1426	316	-32768	-19432	29432	3719	4801	3068	-32768	3460	4088	-5616	-32768	32767	-13580	-22280	-32768	-3242	-32768	31615	21704	-5988	-18344	-22449	-2337	-2844	0	197	2
-32768	-1748	7052	-2593	10772	336	-32768	-32768	3512	-1379	-380	2145	-24816	-32768	32767	107	2965	326	-32768	-24212	-19156	3817	-32768	32767	-23440	-17060	-32768	2359	-32768	23588	7500	3072	-2940	-32768	-23513	166	16	132	2
-32768	-32768	-32768	7950	8313	2436	31160	-32768	7096	5561	3080	4322	-24976	-14864	32767	4131	-776	-1731	-32768	-25836	-32768	6414	-31463	21183	-21820	-13268	-32768	-12237	-32768	11580	-10784	8164	25020	-28937	-28135	794	236	239	2
-32768	32767	30328	7542	5282	1081	-14272	14096	14960	6896	10822	3648	8736	12704	32767	-6	-1093	-66	-32768	-32768	-32768	-3573	-16903	-9952	9436	-19816	-32768	-6017	-12482	-2879	-7392	3380	32767	-1362	-1968	8694	13	238	2
-32768	32767	32767	-5226	5474	543	-32768	32767	17504	-2128	6561	2579	-7408	18592	-2592	-2706	-1621	821	-32768	-30048	-32768	-1427	4878	-17448	13060	-19612	-32768	3958	27696	-2819	-5428	-21732	24012	32767	13226	1981	0	239	2
-32768	-20728	32767	-7845	2649	3014	-32768	-16592	6648	-9316	1958	1276	-23560	20952	13768	-1000	-3264	562	-32768	-17060	-29708	-4262	27243	-7432	3268	-14228	-32768	2452	32767	-8866	4548	-32768	-32768	32767	32767	-9355	233	0	2
-32768	-32768	32767	-5638	-461	4881	-31032	-24744	14480	-9473	2333	2227	-14704	20208	12712	664	-3230	1	-2632	-20672	9200	-5584	25543	-11233	-15176	2712	32767	32767	25692	-10138	2180	19608	10356	-800	8844	-9559	253	0	2
-29540	-30732	32767	-3163	-2662	3843	-29784	-24136	11176	-8678	2441	2189	-28736	-7984	1856	-1873	-4185	-247	-32768	-9792	-32768	-14323	32767	-32768	-32768	13628	-32768	-32768	32767	32767	-32768	17196	32767	4990	14603	-9930	117	166	2
-19628	-27580	29776	-2578	-3154	2008	-26504	-20224	-5328	-3750	1110	593	-32768	-29224	-3992	-1540	-3573	-1726	-32768	-27828	6868	1156	-958	-8463	-9100	-32768	-1496	-32768	32767	-32768	-20020	-32768	-32768	-31431	32767	1998	117	0	2
-13436	-29940	24820	-835	-3638	923	-31648	-12648	-13016	-565	864	-829	-32768	-24328	-11768	697	-5661	-2327	-7192	-472	22816	-6500	6617	51	32767	-5296	-32256	22811	23688	8422	-204	-29940	-31468	15886	10767	1173	253	240	2
-7704	-21732	22840	625	-5483	-1177	-12432	-12616	-23312	2955	-1554	-1893	-32768	-4432	-12192	2469	-6186	-2397	-9644	8932	10236	2319	6305	-3461	-2064	24480	-32768	24033	32767	2036	-3732	11572	-18388	17173	18254	-20018	0	164	2
-14560	-7924	13012	273	-7881	-3413	-7928	7904	-18048	5208	-2652	-2711	-32768	1912	-21144	1483	-6366	-1988	-13944	9604	13200	2733	8823	-2347	-27324	-2360	-25148	14510	30729	-12199	-32768	30472	-28196	12598	25295	-23331	0	145	2
-12584	2556	13860	-1701	-8081	-4051	-8080	18064	-17240	5060	-4899	-3893	-32768	1568	-29376	360	-5522	-2077	-17200	11076	10664	-602	8394	-7141	-32768	-6100	-24260	-11010	13584	-17914	-32768	-216	-21848	-15629	32767	-4242	0	0	2
-28256	-468	17844	-3754	-8427	-4316	-12816	11784	-17560	3221	-6489	-5318	-32768	3760	-30120	188	-5634	-2127	-17328	9904	23116	-4993	18094	-9926	-32768	-17684	-19416	-3021	10769	-7019	-32768	12632	-7152	11640	32767	-8714	0	0	2
-32768	-5500	20388	-4071	-9106	-4286	-17368	4208	-14128	1321	-7491	-6339	-5768	16648	-31248	-377	-2298	-1516	-11656	9840	25788	-4254	31104	-14792	-32768	-21704	-10472	4385	4559	-7579	-32768	4404	5576	-7986	32026	-12243	191	238	2
-32768	-7944	22452	-3655	-8945	-5428	-19152	8528	-17632	1865	-7726	-6782	7184	16472	-27504	-2792	272	-354	-6500	10272	26208	-100	32767	-18730	-32768	-18904	6352	4728	-1133	1347	-32768	-8900	15332	-25558	32767	-21184	236	109	2
-32768	1284	18356	-2571	-8356	-8051	-19072	11416	-20992	2679	-7425	-6608	29472	5416	-25440	-4797	1710	-131	-28004	9756	24212	13703	32767	-17724	-32768	-18788	6924	4684	-846	2581	-32768	284	7984	-30490	32767	-23787	253	239	2
-32768	420	8804	-1041	-7073	-8969	-19864	9744	-27384	4376	-6097	-5800	23184	5352	-20392	733	1557	661	-32768	16580	12640	25136	32767	-17198	-32768	14980	19952	17221	-10096	6733	-32768	17556	32767	-15271	31830	-8490	253	239	2
-32768	32767	-3732	-493	-5991	-6072	-28752	11640	-32768	4853	-5400	-4632	4512	-1440	-3888	3927	-1003	565	-32768	17320	-6496	9033	32767	-21464	-27256	32767	27692	-16847	5553	-21608	-13772	4052	32767	-18981	12830	7807	253	86	2
-32768	31104	-28236	-1560	-5451	-1412	-32016	22688	-32768	5085	-1746	-1104	-6568	-13200	11216	3038	-1476	-623	-32768	22388	-7528	-32768	32767	-32768	11016	8588	-8084	-32768	32767	-16536	-7480	-7400	32767	-2992	-24088	-9505	253	136	2
-32768	27224	-32768	692	-2640	1234	-11480	32767	-32768	-37	-603	-227	-9720	-9064	25040	2631	-863	-1821	-32768	-23796	32767	-32768	32767	-8698	-27452	-32768	2608	-32768	32767	-18408	15936	-23320	20076	20689	2158	-9034	11	137	2
-32768	27208	-32768	285	1119	863	1704	23352	-32768	-3033	283	43	-2472	7048	7560	-432	741	-1189	-32768	-7836	32767	20522	32767	-7236	-32768	-23912	17664	31839	32767	-4088	-23672	-6436	-6944	26047	-13730	-11813	0	108	2
-32768	16532	-29420	783	3198	162	-584	9888	-32168	-619	2980	2209	-3640	19744	12928	-5686	1163	889	-32768	26456	32767	32767	13202	-25784	-32768	4992	15248	32767	32767	-10789	-17232	-21140	13536	4363	-25098	-3983	0	19	2
-13876	15088	32767	116	3768	2599	-10488	-8664	10400	-1227	2653	2685	1696	30536	-32768	-4620	4509	2816	-30796	32767	31216	32767	-19289	-30699	-24904	4044	8156	32767	32767	-4198	-12192	-13500	6380	3443	-23927	-6218	253	5	2
2284	-32768	21312	1898	10242	7234	-32768	-32768	-24648	-2460	2862	-2894	-32768	-32768	32767	-1295	-1625	-1065	-26692	32767	24640	32767	-32768	-21398	-31152	8124	596	30903	27761	-2300	-32768	20292	2152	32767	-16939	-4397	253	225	2
-32768	32767	32767	3419	2802	6230	-32768	32767	-32768	-4776	10866	935	-32768	-21568	-32768	-68	1398	-1852	-10436	32767	21896	9829	-32768	-17966	-32768	7000	-1580	14653	14644	1465	-32768	22244	-5384	21435	-32768	3710	0	127	2
-31420	23052	4404	1055	1412	2028	-11864	3088	-32768	-4115	2770	4042	-544	26912	-32768	96	3257	-199	-7952	32767	18208	-17360	-32768	-9150	-24296	6628	-11780	-234	-8877	3848	-32768	22528	-6628	-3839	-32768	12424	0	0	2
-14256	13220	13324	221	871	932	20768	21992	-2512	-4531	1382	4050	4040	11576	-18656	-4762	3019	2244	-14416	13720	15328	-15275	-32768	15382	-16572	348	-21200	-19301	-30606	4890	-32768	-6108	-15852	-14259	-32768	22466	254	233	2
-15244	3468	10908	381	572	1170	-9600	-8968	-25904	1016	2720	2479	-20408	-2352	-29488	-291	1579	2559	-14716	13020	10100	2780	-32768	32767	-10040	-7676	-24772	-20172	-32768	9587	-32768	-5464	-25068	-13294	-32768	17859	253	240	2
-17512	2764	12700	19	848	757	-32768	10544	-24632	471	2528	1598	-32768	8008	-27720	752	3698	1908	-25888	15224	12408	16098	-32768	32767	-10616	-10280	-25840	2201	-32768	22906	-32768	-10120	-32768	-8323	-32768	13568	254	117	2
-11820	-3452	28244	36	1796	-121	-32768	-856	-21496	-1067	1454	1509	-32768	-7352	-9792	-1139	4373	2205	-32768	18772	15408	18801	-32768	32767	-9012	-4616	-24352	17715	-32768	32767	-20188	-11496	-32768	1952	-32684	14024	24	201	2
-11504	-4364	27148	410	3494	480	-32768	-10872	-8984	-1319	757	1076	-32768	-8712	-704	709	4324	2774	-32768	17400	17732	16840	-32768	32767	-14976	-3456	-16408	22575	-32768	32767	832	-11532	-31252	6219	-14409	18840	0	88	2
-5236	992	27428	228	5563	372	-32768	-904	2344	-208	828	458	-32768	3288	4648	943	4473	3448	-32768	23912	20452	11677	-32768	32767	-15828	-3352	-15360	21734	-32768	32767	11412	-14404	-27296	17197	-2467	18662	0	29	2
3964	3112	28596	-678	9219	-272	-32768	-7768	16472	47	-104	542	-32768	2184	4296	527	4462	3696	-32768	11344	13560	5435	-32768	32767	-21464	-11808	-27728	-8102	-32768	32767	27792	-7196	-20768	32138	8959	13169	0	98	2
-32768	2852	19692	-1502	12415	-96	-32768	-12384	4560	-291	-1155	795	-32768	-18816	9496	1000	4643	3273	-32768	-2400	-2020	-1202	-32768	32767	-16396	-20644	-32768	-19692	-32768	32767	20644	-3944	-12296	-23806	-2234	355	165	240	2
-32768	-96	16136	1089	9964	1390	-32072	-32768	9704	-1214	-614	2038	-27976	-32768	32767	2967	2732	1098	-32768	-32768	-32768	12172	-29022	32767	-25812	-21556	-32768	-15749	-32768	17049	-420	12948	6560	-32768	-27409	9643	0	198	2
-27984	-32768	-15960	7876	9551	2178	1912	-32768	26392	4663	1761	4508	-16832	-19192	32767	5121	472	-1508	-32768	-28068	-32768	1551	-16420	8837	-580	-17340	-32768	-17875	-21661	6809	-4336	11168	32767	-27170	-25114	7317	195	192	2
-32768	7424	12032	11462	6886	217	2728	-6176	-7216	7083	8781	3563	-9552	9768	32767	1466	-1500	-524	-32768	-32768	-32768	-1025	-4764	-15310	17532	-24016	-32768	6257	7717	-1352	2960	-5952	24196	10736	-4330	9708	0	219	2
-32768	32767	32767	-770	5008	-269	-32768	32767	20320	5889	8938	3325	-3776	32248	7096	-2057	-1258	1196	-32768	-31272	-32768	10942	18964	-13433	8056	-20048	-32768	17506	32767	-2440	5192	-32768	-7584	32767	32767	-10162	0	107	2
-32768	4468	32767	-8945	1451	2054	-32768	-4000	448	-6242	2929	14	-32128	27400	23296	-1184	-3680	1041	-9460	14308	32767	-4796	28985	-17545	-1668	-8760	-28988	25913	32767	-8485	-1880	-24260	-32768	32767	31331	-10101	254	55	2
-32768	-32768	32767	-9105	-1907	5472	-32768	-21136	72	-13302	2195	1492	-19152	27696	8424	-1470	-3666	403	32767	32767	32767	32767	32767	-32768	-32768	32767	32767	28859	30270	-3269	-32768	32767	32767	-287	-32768	5092	253	0	2
-31372	-32768	30144	-5883	-3920	6060	-24800	-23520	-368	-9326	1898	762	-32768	-9584	-3064	-3151	-4009	-422	32767	-32768	32767	-32768	-32768	-32768	-32768	-32768	-32768	-4334	32767	-27345	-30948	-23268	-32768	-19146	28219	14916	253	68	2
-13900	-32768	27980	-3335	-3237	4079	-32768	-21264	-3512	-6566	60	-946	-32768	-32392	-11016	-1937	-4803	-1125	-7480	-32768	4784	-10200	-19293	-5734	32767	14064	-2140	-27676	22274	-23484	-9696	-32768	-32212	-1327	16148	6977	253	243	2
672	-32768	21516	120	-3365	789	-21664	-7816	-8768	-1745	-821	-1319	-32768	-23832	-12200	830	-6426	-2427	-13384	5872	3024	1380	8381	-5676	-252	25000	-12248	29140	32767	668	3116	-200	-25056	30181	13505	-20248	253	122	2
-2524	-15632	22972	845	-4142	-2855	-9000	-15736	-12448	4134	-1450	-1865	-32768	-2888	-19656	2720	-6154	-2815	-16664	1568	11476	370	8016	-2473	-14056	-16116	18064	20402	32767	-8767	-32768	32767	-32768	26693	32767	-24579	212	28	2
-10560	-5672	18956	-910	-6102	-5630	-5168	9728	-24176	6867	-2863	-3652	-32768	-336	-28128	680	-5866	-811	-17656	9016	11312	646	8315	-7602	-30304	-8764	-24496	-11160	18409	-19274	-32768	-1572	-16860	-20253	25699	-8281	0	97	2
-22616	-2900	20660	-2404	-7836	-5549	-4576	14720	-21096	6088	-4995	-5042	-32768	4432	-32768	-544	-5546	-2399	-18104	8304	19868	-2960	18176	-11197	-32368	-17752	-25808	-4706	16020	-7949	-32768	19364	-9040	6744	32767	-9330	0	0	2
-32768	-900	23096	-3914	-9409	-5183	-15200	9000	-19040	3701	-7002	-6077	-25104	12592	-32768	-1120	-3602	-2038	-12376	9504	23848	-7147	29812	-14004	-32768	-16364	-13800	5550	4288	-10996	-32768	3944	284	-4379	30409	-13190	0	180	2
-32768	-6920	20456	-4710	-10176	-5221	-18784	6360	-17880	1244	-8531	-6571	2904	13696	-32768	-1890	-1291	-1118	-6824	6168	24544	-4345	32767	-13709	-32768	-20948	-2548	1146	-411	-5736	-32768	-5844	12444	-16061	32767	-15564	0	243	2
-32768	-19824	22488	-2485	-9675	-6545	-18384	5712	-18008	1088	-8606	-6689	22112	19464	-32032	-4140	1014	-696	-25548	10836	20728	7493	32767	-17157	-32768	-17568	3292	2397	-4287	2251	-32768	-9868	5896	-32768	32767	-26998	38	151	2
-32768	-2548	17260	-955	-8500	-8585	-20704	9952	-25776	3278	-7622	-7042	25560	8264	-25616	-177	1587	-234	-32768	21860	23112	21593	32767	-16706	-32768	2000	9232	7284	-11295	6827	-32768	14628	13456	-30031	32767	-14700	200	128	2
-32768	15040	5900	-967	-7242	-7606	-27496	7160	-32768	4042	-6059	-6479	16080	2928	-13488	3604	-279	398	-32768	5256	12828	3322	32767	-24893	-32768	24736	25840	-10419	-5799	-11564	-23652	21988	32767	-17851	31899	-1540	253	235	2
-32768	32767	-17588	-3262	-6283	-3386	-32768	16136	-32768	5245	-3678	-3383	-2120	-9512	10336	2672	-2070	-337	-32768	32767	-32768	-32768	32767	-31676	5640	32767	28308	-32768	13383	-20527	-19288	-9796	32767	-32768	-10543	306	253	97	2
-32768	27704	-32768	-926	-4485	452	-30096	32767	-32768	1553	-1357	-581	-8816	-16728	32767	2079	-981	-1714	-32768	-30012	25840	-32768	32767	-13705	-7284	-30948	2884	-32768	32767	-19188	11784	-32768	32767	-4768	-6823	-7450	253	93	2
-32768	32767	-32768	345	-354	1746	-23248	32767	-32768	464	-1223	-615	2776	6320	12304	-1304	1741	-1490	-32768	-32768	32767	15106	32767	1732	-32768	-32768	6536	-4405	32767	-1777	-7444	-31308	-4396	32767	-2462	-13769	253	203	2
-32768	29368	-32768	-177	2752	351	840	16136	-32768	-2283	1737	1879	-4368	18944	11296	-6385	1030	-229	-32768	2516	32767	32767	7407	-13109	-32768	-13032	-2172	32767	32767	-1183	-32768	-19216	17832	22883	-26690	-11191	19	67	2
-32768	25916	-9948	1338	4144	1074	-5824	17064	-27200	94	4252	2894	9072	25704	-26624	-6909	4621	2610	-32768	32756	22588	32767	-24960	-32482	-32768	1868	5284	32767	32767	-4234	-8332	-22896	1792	21877	-20899	-3030	229	26	2
32767	-28524	32767	-1985	4779	1510	-3312	-32768	32767	-6210	-2721	1059	-32768	-32680	32767	-658	-1288	2155	-31512	32767	14284	32767	-32768	-32768	-32768	2864	8176	32767	32767	-1802	-28352	504	2724	26752	-26460	-7499	0	242	2
-32768	-24024	-15128	7612	13647	6345	-32768	21024	-32768	8697	6875	-2822	-29488	-32768	31160	-4	365	2002	-18668	32767	15104	29239	-32768	-32768	-32768	7284	-4260	32767	31492	5288	-32768	28364	580	32767	-25128	-6535	253	47	2
-20520	-32768	-12296	636	1915	1819	-32768	32767	-8856	402	5766	5604	-24376	32767	-32768	2098	1575	-1238	-8712	32767	14320	-3810	-28863	-24858	-32272	5704	-16080	10548	7013	4341	-32768	28900	-9988	17239	-32768	6210	254	0	2
-11040	-24508	18304	441	997	87	23576	32767	-14512	-6762	-233	3346	10824	32767	-32768	-5200	2591	2264	-6312	26572	16476	-13239	-30563	5221	-18240	12292	-25204	-19855	-15596	3378	-32768	12896	-15556	-6959	-32768	21359	239	71	2
-14612	-13596	7228	565	766	329	-696	-20112	-32768	-1723	3643	1385	-22296	-7720	-32768	-2912	2936	4233	-12552	17720	9868	-4019	-32768	32767	-5980	-3196	-22204	-32768	-32768	10908	-32768	576	-25612	-12430	-32768	24351	253	1	2
-17452	-2216	11172	373	755	385	-32736	0	-32768	524	1958	1510	-32768	-21408	-32000	920	2735	740	-11288	12316	11016	6137	-32768	32767	-7040	-3304	-22704	-24174	-32768	14715	-32768	-2324	-32768	-16734	-32768	19671	253	243	2
-16732	-3416	19468	-72	744	568	-32768	-2032	-27576	-838	1432	1672	-32768	6432	-18768	11	4620	2655	-24856	10924	15528	14458	-32768	32767	-1720	-10048	-21000	-6930	-32768	23795	-29548	-9860	-32768	-4917	-32768	16841	0	159	2
-13132	-6312	29372	290	3289	547	-32768	-7992	-8504	-1692	302	784	-32768	-15040	2240	-41	4537	3144	-32768	12736	17944	17984	-32768	32767	-7576	-6264	-18704	17712	-32768	27750	-8104	-9272	-32228	2240	-19825	20065	0	243	2
-1936	-2400	28852	-81	5995	302	-32768	-11672	8776	-119	287	922	-32768	576	6704	642	4156	3469	-32768	18644	16468	13684	-32768	32767	-11848	-3100	-14808	27422	-32768	32767	4728	-10364	-31352	4468	-5277	19859	0	140	2
-12	-2872	29400	-204	6394	162	-32768	-14736	18192	452	-357	482	-32768	4368	4416	1382	4189	3312	-32768	15840	16692	1977	-32768	32767	-13848	-7160	-22440	12892	-32768	32767	21256	-10928	-29136	19261	3666	14377	0	7	2
-32768	-3252	13404	-1856	11818	1031	-32768	-13960	17312	410	-498	412	-32768	-6536	22824	3675	4729	2858	-32768	4464	2312	-2105	-32768	32767	-8224	-16360	-30576	-5113	-32768	32767	32767	-4672	-28844	-7278	8497	3580	0	98	2
-32768	-21460	-1112	-1084	8573	977	-25136	-30688	4264	-2349	-800	1979	-27160	-32768	32767	300	3162	1359	-32768	-15980	-19964	-166	-32768	32767	-8784	-16604	-32768	-12727	-32768	28620	10180	-6600	-5688	-32768	-21976	-3646	0	131	2
-12328	-32768	-20112	5967	8587	3193	-1784	-32768	23896	1582	1484	3808	-19152	-29088	32767	1704	787	-1166	-32768	-32768	-32768	9305	-27726	32767	-21044	-8376	-32768	-27041	-32768	15010	408	7224	12820	-31835	-23056	2210	209	177	2
-32768	1112	5000	9930	6137	732	7192	-12656	-1560	6678	7725	4168	-12888	-3456	32767	2995	-1419	-561	-32768	-32768	-32768	2848	-13716	89	-5048	-27036	-32768	-22501	-20338	-1750	-6504	4236	32767	-7673	-15684	6177	0	243	2
-32768	32767	32767	734	5890	-989	-32768	30520	25832	7214	9615	4269	7848	12808	27304	-876	-933	661	-32768	-32768	-32768	2423	-2951	-17469	23264	-16216	-32768	16001	15872	1757	6932	-17708	17348	32767	15559	6486	184	243	2
-32768	-3204	32767	-6748	3567	394	-32768	2360	3736	-3968	3824	784	-28624	25400	20976	-1407	-3233	1131	-32768	-32768	-32768	4472	32767	-14631	-828	-16572	-32768	32767	32767	-1767	-4732	-31840	-5924	32767	32767	-945	43	41	2
-32768	-32768	32767	-6577	852	3506	-32768	-17872	-1288	-10870	2620	2246	-21176	23784	5744	-371	-3280	416	-32768	21884	-29412	-83	32767	-32768	-32768	23800	-32768	-32768	32767	8568	-32768	32767	30516	32767	5950	-3308	253	243	2
-32768	-31016	32767	-5178	-1647	4428	-32264	-25200	3536	-7735	3064	1606	-32768	-3384	-480	-1185	-3713	-663	32767	32767	2836	-25019	4583	-17838	-12448	-9176	-8600	-6379	32767	-29483	-23684	-18016	-32768	-10854	16337	-10936	253	204	2
-27280	-31776	30424	-3969	-3423	3221	-32768	-20784	-8488	-5913	820	778	-32768	-27608	-5192	-39	-5038	-1634	476	-12720	22752	-6482	-698	-8263	23736	-32768	-29328	-13643	13588	-1741	2120	-28208	-32768	2896	20647	-3008	253	243	2
-10276	-32768	23048	-1270	-4050	2383	-25912	-14064	-10664	-2724	-495	291	-32768	-21192	-8360	1009	-5639	-2325	-12912	10368	2880	863	11664	4713	1556	21716	-32768	9965	32767	-1940	-14840	15436	-29888	11723	24839	-12011	253	17	2
-4200	-27908	20644	1473	-5331	447	-5912	-5056	-17208	660	-737	-1209	-32768	-4736	-12376	1565	-5589	-2644	-13336	5336	11552	1443	6109	-4855	-32768	-2256	-32768	9526	31860	-4286	-32768	28172	-27620	11512	23196	-19312	147	0	2
-8384	-8428	14024	918	-7337	-2167	-5944	496	-16840	4848	-2788	-2838	-32768	1288	-26032	1477	-6403	-1662	-16416	5456	10308	-189	8003	-6643	-24144	-4916	-32768	-4200	22249	-17143	-32768	6068	-18112	-6025	32767	-9444	0	186	2
-11352	-2208	13796	-1707	-8159	-4132	-7992	15736	-17376	5468	-4689	-3993	-32768	496	-31232	-101	-5524	-1551	-14400	20696	23944	-1793	11056	-5575	-26572	-7592	-24428	604	13800	-6863	-32768	18360	-8732	9260	30460	-11564	0	129	2
-23640	-7152	17400	-3221	-8530	-4938	-8960	10128	-16720	3943	-6080	-5352	-32768	1864	-31248	-154	-5717	-1869	-15544	10680	24384	-4326	24101	-14230	-32768	-13364	-17848	2558	4610	-3495	-32768	8748	-1316	-1732	32767	-12491	0	162	2
-32768	-7952	21408	-3206	-9268	-4742	-15792	4704	-14408	2136	-7496	-6358	-5336	12528	-30296	-244	-2418	-1693	-6176	9480	26624	-2063	32767	-18416	-32768	-19776	-3400	-1100	-2278	-5186	-32768	1076	4648	-24236	26195	-15086	1	198	2
-32768	-6812	23924	-3416	-9593	-5144	-19144	7512	-16616	1801	-7983	-6817	7624	17704	-30760	-2330	-102	-795	-15268	11336	21284	4398	32767	-22525	-32768	-13788	6036	-3348	-4954	2100	-32768	-12044	7780	-32768	32767	-18264	45	140	2
-32768	224	18680	-2401	-8979	-7035	-18280	11560	-18088	2192	-7838	-6566	32392	8304	-32040	-3841	1382	-150	-27816	9756	19180	17543	32767	-23157	-32768	-8540	6552	3401	-11730	9828	-32768	-1036	9744	-32768	32767	-15279	0	198	2
-32768	2872	7184	-806	-7681	-7739	-15216	15464	-27120	3775	-6581	-5861	26480	6200	-25136	1950	832	617	-32768	10272	8300	17598	32767	-20389	-32768	14104	26572	2572	-9388	1492	-28476	18464	32767	-8501	27672	-6009	230	233	2
-32768	27736	-3928	-516	-6633	-5593	-25368	15696	-32768	3440	-5671	-5028	8760	912	-5376	3476	-1695	642	-9184	32767	-25164	-19537	32767	-26321	-868	31712	32767	-32768	9608	-17038	-16632	-7884	32767	-32012	-1330	7635	253	132	2
-32768	31760	-32452	-1681	-5921	-1545	-28600	23736	-32768	4093	-2684	-2094	-648	-6736	7120	2602	-1508	-133	-32768	2876	3052	-32768	32767	-14041	2672	-6884	8624	-32768	32767	-15294	3248	-15152	32767	4584	-25511	-3308	253	83	2
-32768	28192	-32768	9	-2943	843	-15424	32767	-32768	946	-670	-153	-6112	-6712	27000	1957	-1130	-1370	-32768	-32768	32767	-8853	32767	-1301	-32768	-32768	7300	-27748	32767	-14589	7040	-32768	-4216	32767	2160	-6680	188	129	2
-32768	24984	-32768	629	273	919	-248	28616	-32768	-2641	59	-117	1312	6584	9552	-2553	1105	-980	-32768	-2736	32767	32767	20607	-7636	-32768	-14872	7548	32767	32767	-1063	-32768	-15824	9700	27002	-24293	-15895	72	142	2
-32768	24312	-32768	664	739	767	1032	14904	-32768	-796	2770	1889	-1896	15920	10280	-6654	2522	564	-32768	32767	31380	32767	-5913	-27245	-32768	3032	8760	32767	32767	-7928	-12028	-23292	4984	16175	-25456	-2031	63	137	2
-28592	15720	-10568	667	4175	277	-10160	9216	-23112	19	3442	2843	904	23280	-32768	-3354	4753	2366	-28688	32767	20540	32767	-25583	-32768	-29284	3660	12096	32767	32767	-3410	-13348	-12976	8704	13378	-26922	-6661	252	16	2
32767	-32768	32767	-1641	8915	1809	-32768	-32768	32767	-5330	-1621	-2040	-32768	-32768	32767	-1190	-3124	250	-25452	32767	17628	32767	-30821	-29899	-28056	5884	-2228	32767	32767	731	-32768	29752	1012	32767	-20310	-4496	254	154	2
-32768	-30104	12772	7325	9385	13739	-16456	-18160	-32768	6291	6157	-2711	-32768	-32768	-29800	-807	280	-663	-5456	32767	17252	7287	-24365	-25622	-32768	9804	-11332	13620	19408	2380	-32768	17724	-6532	32767	-32429	3878	253	18	2
-12576	-32768	3168	-303	560	1144	-32768	-3456	13112	-4273	10224	6030	-24168	-32768	-32768	-18	2007	-1635	-5264	32767	17772	-18677	-26665	-6950	-20948	9388	-14612	-7638	-8118	3228	-32768	28272	-11628	-1397	-32768	17184	0	64	2
-10152	-26976	12508	679	1035	-55	32767	32767	12456	-10227	-322	3821	10856	28120	-17792	-3794	2865	2028	-13692	15196	12212	-13921	-32768	24648	-6744	-1184	-19028	-32768	-32768	10904	-32768	3152	-20512	-17069	-32768	25630	224	31	2
-13980	-7364	10648	672	899	262	-2088	-18960	-8424	273	3407	988	-20104	1552	-28224	-1390	2512	3145	-9164	12364	9940	1265	-32768	32767	-4092	-7408	-24096	-29298	-32768	11911	-32768	-2488	-25332	-19375	-32768	25212	254	243	2
-16088	-560	14908	334	881	71	-32768	-968	-32768	692	1672	571	-32768	-2176	-32768	-157	2784	515	-16712	11960	12548	12170	-32768	32767	444	-10000	-20912	-12161	-32768	16711	-32768	-8788	-32768	-23547	-32768	12684	253	166	2
-14356	-3576	25832	-398	926	-206	-32768	-3888	-24896	-971	1513	708	-32768	-280	-12472	-2615	4679	2800	-32768	9500	16032	20766	-32768	32767	-2616	-8288	-22544	17397	-32768	28691	-14044	-12456	-30648	-7739	-31559	17056	133	194	2
-7452	-5844	30188	-107	4201	22	-32768	-13664	-4496	-2679	-198	414	-32768	-19400	5664	-751	4242	2878	-32768	13920	16128	21183	-32768	32767	-9576	-2408	-16064	31909	-32768	32767	2552	-11716	-30448	3993	-8975	20598	142	158	2
1088	-1056	27548	-538	7303	-396	-32768	-13928	15560	-300	163	541	-32768	-4152	3048	748	4096	3191	-32768	17296	15360	19865	-32768	32767	-11064	-5836	-19344	17354	-32768	32767	14836	-17176	-29704	21051	2960	17330	0	126	2
-7044	-2044	21012	-1469	11000	-555	-32768	-12016	16112	-220	-1345	6	-32768	1504	8976	2658	4474	3278	-32768	4496	6552	1344	-32768	32767	-9972	-16348	-23420	-1309	-32768	32767	26364	-6532	-25100	26407	17455	6953	0	40	2
-32768	-8836	2660	-2630	10520	-596	-29288	-24984	-1752	-1403	-1541	840	-30256	-32000	32767	778	3845	2122	-32768	-7980	-12404	-66	-32768	32767	-12700	-22152	-32768	-14582	-32768	32767	15144	-6608	-12264	-23641	-8032	-3834	0	109	2
-32768	-19656	3344	662	7143	1979	-14832	-32768	14024	-448	380	3185	-18528	-32768	32767	403	1314	-826	-32768	-11092	-16988	-639	-32768	32767	-18804	-10724	-32768	-30251	-32768	21022	2436	8176	-1364	-32768	-20990	3921	175	183	2
-32768	-22288	-16756	6063	8830	2325	20248	-31440	14712	5364	4645	3683	-16784	-1504	32767	3694	7	-675	-32768	-32768	-32768	4754	-4954	29024	-11220	-22948	-32768	-32768	-22988	124	-7748	10988	25836	-27193	-20572	7298	188	243	2
-32768	32767	32767	4042	6545	-528	-23256	10224	12856	6150	9586	3596	1952	-9760	30472	-1356	-1736	1081	-32768	-32768	-32768	-2970	-7865	-14385	20520	-22756	-32768	1011	-897	-3995	-724	-2316	23036	8393	-967	7857	175	243	2
-32768	17816	32767	-4375	4833	815	-32768	17000	12824	-2435	4457	2350	-6520	10560	16008	-1416	-2622	895	-32768	-28116	-32768	8857	6527	-23077	5108	-16008	-32768	24474	32767	-1639	5692	-32768	-5808	32767	32767	-870	0	209	2
-32768	-4128	32767	-5768	1910	2931	-32768	-9248	5912	-6727	2467	1985	-27992	17792	19288	-583	-3528	864	-5904	1968	6036	30895	26680	-32768	-8148	-13332	6888	22969	32767	-7001	-6080	-25496	-32768	32767	32767	-11642	198	193	2
-32768	-24056	28928	-6249	-822	3830	-32576	-16656	9400	-8349	2453	1824	-14928	22592	1384	-21	-2901	-94	-32768	32767	-30148	2793	32767	-32768	-32768	32767	-22780	-32768	32767	22720	-32768	32767	32767	32767	5027	4961	170	0	2
-32768	-28876	24972	-5102	-2981	3760	-27752	-18376	-7344	-6375	1260	1008	-32768	-7544	96	-1265	-3217	-1216	32767	-32768	32767	-25409	-7749	-32768	-32768	-32768	-29928	-30318	32767	-32768	-30332	-24976	-32768	-32768	13349	6366	22	185	2
-30172	-30452	20192	-3228	-4801	2527	-32504	-18200	-9336	-3941	280	234	-32768	-27808	-3648	-1234	-4765	-1198	-1416	-24872	24404	-18206	-57	-9978	28616	-32768	-13420	-29470	5146	-23347	-2588	-30716	-26860	-5224	14801	5604	253	242	2
-13332	-32768	18680	-563	-5414	1768	-29496	-9264	-15800	-2802	-625	-1180	-32768	-27016	-3920	-670	-5043	-1270	-11232	11984	5984	-895	9235	-1878	-1800	23648	-26116	22733	32767	3800	-3908	3432	-24616	25664	15623	-15126	20	12	2
-12100	-17488	16672	587	-6174	-500	-7224	-10968	-19088	1930	-1548	-1648	-32768	-15256	-8352	2279	-5996	-2203	-15420	6588	12532	1061	8845	-3170	-22660	-8104	-32768	26308	32767	9902	-10980	8572	-21332	23691	20630	-17924	201	121	2
-12688	-16424	14876	561	-6394	-1011	-288	-10456	-10816	2974	-1371	-1554	-32768	14864	-25576	529	-4890	260	-15676	6176	8804	1321	8427	-6754	-20292	-9708	-30276	-3240	29871	-7557	-32768	26156	-25048	-1352	28567	-8476	0	0	2
-17036	-2768	12400	-2500	-7704	-4408	-13024	13904	-18640	5173	-4699	-4416	-32768	792	-32032	-2061	-5922	-2610	-15000	12488	24252	-5077	13239	-8236	-29356	-6356	-21452	-11167	11444	-10334	-32768	9232	-10296	-4331	28348	-10032	0	0	2
-27524	-4620	16532	-3817	-8227	-5073	-10896	10264	-18008	3582	-5968	-5497	-21912	7184	-27616	-1808	-4495	-2061	-15624	9504	22916	-6194	24443	-14281	-32768	-16916	-20036	-8189	2423	-9170	-32768	7588	-3544	-5548	30666	-12809	0	190	2
-32768	-10656	18500	-3962	-8458	-5845	-18568	3328	-15656	2226	-6968	-6281	-1864	9800	-30160	-1345	-1422	-1487	-5848	8296	25636	-3437	32767	-16979	-32768	-23424	-5704	-257	-2578	-5193	-32768	8972	248	-13617	31204	-12575	247	245	2
-32768	-13328	19008	-2270	-8339	-7154	-19304	9248	-19608	2880	-7137	-6419	11440	14120	-25240	-3141	892	-1100	-14164	9200	19504	5008	32767	-20252	-32768	-12392	4604	4997	-4002	5485	-32768	-10408	9964	-32768	32767	-22494	253	173	2
-32768	-8304	18932	-2017	-8249	-7428	-18392	15360	-22288	3130	-6989	-6023	20472	7552	-21840	-1545	709	-65	-24488	13120	19432	13163	32767	-24677	-32768	-3472	9152	8895	-9961	11127	-32768	-9108	5704	-32768	32767	-21873	194	243	2
-32768	6424	2732	-796	-6408	-8843	-18936	13864	-32768	3016	-5615	-5466	18376	2744	-14888	3107	436	893	-32768	1108	10088	17430	32767	-23134	-32768	10396	11212	-3016	-6888	2434	-26204	10784	32767	-2052	28167	-6814	253	243	2
-32768	30268	-15220	-1308	-5437	-5405	-30840	17032	-32768	3474	-4603	-3605	4432	-7216	-456	2465	-1415	328	-20236	32144	-16144	-10678	32767	-25907	-2600	23708	24912	-29807	3850	-11558	-17164	-11828	32767	-31589	-4492	7768	240	91	2
-32768	22200	-32768	-522	-4801	-565	-22360	32767	-32768	2447	-1419	-859	-4048	-13776	17736	1643	-1085	-431	-32768	-17188	14652	-32768	32767	-17531	-3432	-5852	-5064	-32768	32767	-11660	4452	-13948	32767	17425	-18919	-6764	200	145	2
-32768	22972	-32768	1364	-1935	1766	-1104	32767	-32768	-753	221	-24	-464	-5616	18816	659	717	-1133	-32768	-32768	32767	6844	32184	-19556	-32768	-32768	6556	-14079	32767	-15442	6240	-19740	216	32767	4587	-7683	0	141	2
-32768	20496	-32768	993	1567	1122	1408	22136	-32768	-822	1262	1133	-2304	2400	5832	-1313	1045	-812	-32768	-4764	26296	32767	9300	-26766	-32768	-21288	5960	32767	32767	-6655	-29800	-10188	10780	23410	-20318	-14082	0	19	2
-32768	12116	-24332	1795	3920	-88	-3512	12672	-31248	1092	4079	2757	-152	15000	6832	-4531	2824	877	-32768	27316	21508	32767	-11125	-32768	-32768	3336	7924	32767	32767	-11756	-10408	-19200	2744	7189	-21350	-1827	0	96	2
20240	-17212	32767	-371	4132	3403	-19576	-14256	29040	-1485	2019	2861	-9896	14200	-13920	-1019	3210	2867	-32768	32767	15180	32767	-26194	-32768	-27684	2512	4812	32767	32767	-7967	-13124	-17228	3916	11635	-25048	-6387	253	90	2
-32768	-32768	-32768	3675	12410	7029	-32768	-32768	-32768	1271	5069	-3892	-15336	-1728	-14928	3387	3895	-810	-24232	32767	18148	15636	-24195	-27240	-32448	5828	-2428	32767	32321	-3949	-32768	23792	2552	32631	-12192	-5846	254	127	2
32767	32767	-7200	1795	3972	4108	-32768	32767	-32768	-8953	12276	187	-32768	-5264	-32768	-74	1173	-822	-11716	32767	18288	-7829	-12927	-14094	-32768	2268	-6000	12982	18025	-2958	-32768	25636	-5652	20752	-32533	3183	243	20	2
-20680	32767	15444	143	1003	1150	-25664	-7640	-21752	-2362	-287	3692	2952	27648	-20224	-2460	2779	738	-12268	24048	20308	-13280	-13939	6253	-20260	14524	-15728	-7487	-2953	-2883	-32768	23628	-7536	-5312	-32768	14113	151	0	2
-15336	1172	7124	383	1056	346	25944	24776	6416	-6752	2446	1982	-4536	8880	-16272	-4387	3103	1992	-16468	22924	13860	-9715	-32768	26948	-10468	6320	-19624	-32768	-24901	1509	-32768	-5780	-15312	-15774	-32768	23536	253	200	2
-15120	3908	10600	397	609	860	-12264	-4248	-18144	666	2009	1814	-32768	-15904	-32768	-986	2666	1625	-9488	14624	9952	-7599	-32768	32767	-7784	-5664	-23556	-32768	-32768	8351	-32768	-3140	-24864	-13848	-32768	19667	253	48	2
-16084	-756	11976	137	750	322	-32768	-1784	-25560	150	1970	1195	-32768	6768	-21552	-299	3648	1878	-18080	3396	13116	10560	-32768	32767	-4436	-14856	-22216	-17218	-32768	17407	-32768	-7932	-31300	-9964	-32768	16306	253	244	2
-14572	-1304	25856	-337	1418	177	-32768	-136	-10536	-1068	1083	1138	-32768	-16208	-7256	-80	4505	2622	-24300	6908	15896	27333	-32768	32767	-2584	-10876	-20908	21020	-32768	26014	-22688	-9824	-31256	848	-31314	16074	1	172	2
-10820	-4408	27856	288	3738	580	-32768	-9392	-2760	-1191	791	589	-32768	-2536	4472	1111	3983	2821	-32768	13300	16880	29664	-32768	32767	-9040	-3672	-14896	32767	-32768	32767	-5424	-9220	-30924	1996	-12987	15347	0	243	2
-364	-508	26276	-285	6376	278	-32768	-9624	7672	89	448	304	-32768	-80	7904	718	3857	2759	-32768	22196	17012	21857	-32768	32767	-10512	-3628	-14384	29129	-32768	32767	6388	-14484	-30184	6593	-1794	14906	26	36	2
4268	-5996	22704	-1273	9880	2	-32768	-13776	14968	-264	-442	255	-32768	-376	8104	715	3842	2675	-32768	15464	15796	10833	-32768	32767	-13236	-7600	-23568	8717	-32768	32767	22404	-9388	-30124	21721	7743	10703	0	75	2
-31836	-2584	7584	-1749	11359	710	-29992	-14480	5152	-685	-930	230	-32136	-15560	20792	2323	4458	2447	-32768	5928	-1716	3716	-32768	32767	-14680	-13080	-32768	-15016	-32768	32767	22816	-5712	-19460	-10984	41	-1264	105	69	2
-32768	-10316	4516	-525	8246	894	-24952	-30208	9856	-1672	-206	1833	-24280	-32768	32767	941	2952	772	-32768	-21800	-24300	1204	-32768	32767	-20300	-12392	-32768	-23457	-32768	30652	6092	4896	-4060	-32008	-23935	3970	0	179	2
-21120	-32768	-19428	5738	9587	2308	-3592	-32768	29056	2724	1841	3649	-25912	-25672	32767	2698	1054	-1364	-32768	-32768	-32768	9355	-16502	32767	-17540	-14180	-32768	-32768	-32768	7775	-3856	12508	14640	-23775	-22028	8216	84	244	2
-32768	8860	5608	9299	8219	623	7936	-14000	-3112	6347	7267	3562	-5544	-10224	32767	1220	-2310	623	-32768	-31704	-32768	-3588	-14478	554	10192	-28964	-32768	-12865	-23752	-2345	-2152	2256	32767	-5379	-8194	11197	199	234	2
-32768	32767	32767	-1655	5996	154	-32768	31256	19256	6017	8898	3872	4832	19864	14216	335	-1464	318	-32768	-32768	-32768	6499	-5483	-17862	16176	-19288	-32768	19885	24694	5947	4792	-17780	19916	32767	11590	7626	0	160	2
-32768	2468	32767	-7841	2206	2676	-32768	12560	3144	-5285	3361	415	-24744	30968	21920	265	-3641	1459	-32768	-20048	-29816	17200	14632	-11373	3460	-18636	-32768	32767	32767	-1301	5132	-32768	-27300	32767	32767	-10354	253	52	2
-32768	-17548	30664	-8074	-850	4305	-32768	-14752	4760	-11625	1672	1901	-18480	32767	7520	-1455	-3167	603	32767	-32768	16256	-7865	12367	-26861	-23040	6032	32767	32767	20919	-8860	-8480	9484	11920	23688	7162	-11513	253	61	2
