#Activity	sitting in car 
#ActivityID	12 
#Date 09-19-15-22
acc_rf_x	acc_rf_y	acc_rf_z	gyro_rf_x	gyro_rf_y	gyro_rf_z	acc_rs_x	acc_rs_y	acc_rs_z	gyro_rs_x	gyro_rs_y	gyro_rs_z	acc_rt_x	acc_rt_y	acc_rt_z	gyro_rt_x	gyro_rt_y	gyro_rt_z	acc_lf_x	acc_lf_y	acc_lf_z	gyro_lf_x	gyro_lf_y	gyro_lf_z	acc_ls_x	acc_ls_y	acc_ls_z	gyro_ls_x	gyro_ls_y	gyro_ls_z	acc_lt_x	acc_lt_y	acc_lt_z	gyro_lt_x	gyro_lt_y	gyro_lt_z	EMG_r	EMG_l	act
-4560	-7760	14064	12	-16	-18	-12688	-7984	6568	-8	-4	-4	1496	-4168	16400	20	2	4	-2280	6488	14496	-10	18	-24	-13576	6912	7360	9	-6	19	528	2608	16728	9	-18	21	127	139	12
-4724	-7924	13916	2	-10	-20	-12416	-7728	6408	12	0	-1	1544	-4056	16384	32	5	-1	-2456	6592	14568	-16	15	-23	-13616	7080	7472	19	-11	24	504	2528	16680	2	-18	22	127	138	12
-4800	-8000	13860	15	-25	-18	-12504	-7992	6528	4	-6	3	1432	-4032	16440	29	3	7	-2376	6432	14824	-14	20	-24	-13592	6912	7352	1	0	15	624	2536	16704	6	-18	18	127	138	12
-4528	-7684	13920	7	-9	-22	-12552	-7864	6216	2	-5	2	1464	-4200	16264	19	0	6	-2304	6448	14256	0	17	-24	-13304	6944	7312	17	-5	18	720	2432	16648	13	-16	16	127	138	12
-4776	-7952	13732	1	-7	-18	-12320	-8000	6400	8	-1	3	1456	-4032	16144	29	-3	5	-2384	6568	14456	-12	15	-23	-13472	7040	7352	17	-12	28	504	2496	16728	6	-15	16	127	138	12
-4712	-7900	13920	19	-16	-15	-12592	-8216	6312	-1	-2	2	1512	-4056	16536	19	0	7	-2400	6368	14472	-8	16	-25	-13688	7080	7504	5	-6	24	368	2616	16832	10	-17	17	127	138	12
-4504	-7696	14100	17	-11	-19	-12632	-7840	6488	5	-4	-1	1368	-4272	16280	13	4	-1	-2224	6696	14408	-7	21	-27	-13416	6976	7320	20	-6	17	512	2624	16760	7	-18	19	128	138	12
-4840	-8012	14016	11	-18	-23	-12400	-8016	6440	10	-2	-3	1440	-4048	16536	27	0	0	-2448	6496	14384	-22	19	-30	-13680	7112	7560	7	-4	20	440	2672	16896	-3	-22	22	128	137	12
-4700	-7888	14068	12	-14	-18	-12624	-7952	6352	-10	-5	-5	1288	-4008	16616	19	-2	1	-2376	6600	14696	-15	24	-29	-13512	6928	7240	0	4	14	496	2512	16488	6	-19	22	128	138	12
-4572	-7704	13980	3	-6	-22	-12336	-7920	6512	1	-5	1	1576	-4056	16560	21	-1	1	-2272	6552	14480	-9	16	-28	-13400	6920	7400	17	-6	15	544	2504	16744	11	-24	19	128	138	12
-4896	-8064	13808	11	-16	-20	-12480	-8128	6192	3	-4	-1	1536	-4104	16624	27	-2	5	-2352	6584	14496	-20	17	-26	-13752	7144	7488	7	-2	17	464	2616	16824	6	-14	27	128	138	12
-4708	-7760	14112	19	-19	-19	-12624	-7936	6320	-8	-4	-9	1392	-4048	16376	20	4	5	-2184	6512	14696	-6	16	-23	-13624	6808	7160	3	2	14	456	2496	16672	12	-13	23	127	138	12
-4620	-7772	13888	9	-13	-19	-12408	-7760	6336	14	-2	-1	1536	-4072	16456	29	7	0	-2448	6728	14576	-16	13	-24	-13480	7032	7416	22	-9	16	672	2576	16744	11	-14	24	127	139	12
-4836	-8088	13964	14	-14	-17	-12664	-8024	6728	4	-3	-1	1464	-3968	16680	33	2	4	-2352	6456	14784	-14	14	-25	-13544	7112	7416	2	1	18	312	2608	16688	7	-13	15	127	138	12
-4584	-7756	14044	8	-8	-19	-12576	-7856	6664	-10	-3	-2	1432	-3912	16264	20	2	8	-2304	6368	14432	0	18	-19	-13416	7008	7352	9	-9	19	536	2320	16728	10	-20	13	127	139	12
-4664	-7816	13964	0	-12	-21	-12264	-8000	6440	4	-6	0	1448	-3984	16264	28	0	4	-2456	6696	14560	-10	23	-23	-13408	7032	7336	22	-17	24	544	2592	16624	8	-19	11	127	138	12
-4820	-7972	13808	10	-14	-16	-12472	-8176	6416	4	-4	-3	1440	-4040	16512	25	-4	13	-2280	6504	14608	-12	26	-25	-13592	7208	7088	2	-1	24	504	2664	16656	0	-19	15	127	138	12
-4524	-7716	14044	4	-18	-17	-12560	-7872	6448	8	-3	2	1376	-3968	16416	20	-4	5	-2208	6664	14568	1	24	-20	-13432	7048	7336	15	-4	14	472	2680	16704	8	-14	17	128	138	12
-4716	-7972	13936	-9	-15	-24	-12568	-7856	6560	12	-1	3	1472	-4064	16584	31	-2	7	-2392	6552	14600	-14	17	-23	-13648	7280	7520	9	-9	23	488	2808	16904	4	-17	11	128	138	12
-4836	-7876	13956	6	-20	-18	-12608	-8032	6272	1	-9	-6	1480	-3912	16400	25	-8	7	-2448	6440	14480	-12	15	-21	-13560	7040	7240	-7	1	22	440	2744	17008	4	-19	16	128	139	12
-4448	-7600	13888	4	-8	-23	-12568	-7816	6560	-1	-3	4	1584	-4136	16192	23	-4	5	-2344	6496	14368	-3	16	-24	-13240	6928	7288	18	-3	17	600	2600	16528	7	-22	14	127	138	12
-4744	-8060	13784	4	-15	-24	-12312	-8024	6176	6	-4	0	1600	-3968	16376	25	-5	9	-2368	6656	14312	-20	14	-26	-13424	7168	7200	20	-6	22	656	2520	16816	6	-17	16	127	138	12
-4740	-7948	13888	22	-12	-17	-12464	-8088	6312	-9	-1	-8	1336	-3888	16360	17	-1	6	-2256	6432	14504	-14	14	-25	-13688	7040	7080	2	4	17	472	2648	16512	9	-14	21	128	139	12
-4556	-7644	14044	13	-9	-19	-12424	-7888	6312	0	-3	-2	1496	-4016	16280	23	0	4	-2528	6584	14512	-13	17	-25	-13432	6880	7456	16	-6	13	528	2576	16736	8	-18	21	128	139	12
-4828	-8068	13920	12	-18	-24	-12440	-8144	6576	-1	-4	-4	1480	-4024	16536	30	2	7	-2400	6488	14672	-19	14	-20	-13608	7096	7336	9	-4	15	296	2584	16720	2	-16	18	127	138	12
-4612	-7760	14016	18	-15	-18	-12688	-7968	6672	-18	-8	-11	1416	-4016	16432	19	1	6	-2080	6456	14480	-9	13	-21	-13536	6824	7216	3	-3	16	496	2480	16680	9	-15	15	127	139	12
-4620	-7736	13940	6	-11	-28	-12360	-7920	6384	-7	-9	-2	1664	-3920	16440	25	1	6	-2344	6648	14336	-9	12	-23	-13456	7144	7048	20	-10	18	504	2536	16728	4	-16	17	127	139	12
-4868	-8020	13840	9	-13	-24	-12400	-8216	6200	6	-5	-8	1536	-3984	16528	26	-3	5	-2488	6488	14464	-15	19	-25	-13552	7056	7424	4	-6	19	616	2520	17032	3	-20	17	127	139	12
-4676	-7728	14000	16	-10	-18	-12576	-8056	6472	-5	-4	-13	1464	-4144	16552	18	-3	9	-2256	6376	14296	-2	13	-19	-13344	6920	7280	9	3	12	448	2520	16648	5	-20	16	127	139	12
-4696	-7784	13984	7	-15	-22	-12360	-7864	6552	6	-6	-2	1536	-4000	16336	25	-2	2	-2440	6680	14688	-17	15	-26	-13496	7200	7336	20	-7	16	544	2528	16840	4	-20	14	127	139	12
-4860	-8140	13884	12	-10	-24	-12640	-8112	6248	1	-5	-3	1456	-4016	16664	27	-3	6	-2400	6536	14536	-15	15	-27	-13544	6904	7288	0	1	18	296	2560	16840	-1	-16	17	128	139	12
-4552	-7716	13964	14	-11	-22	-12568	-7920	6472	-3	-5	-6	1376	-4080	16264	17	3	4	-2416	6472	14664	-5	18	-24	-13448	7032	7240	10	-6	12	536	2672	16464	7	-15	17	128	138	12
-4748	-7900	13876	3	-14	-24	-12336	-7928	6400	7	-1	-2	1512	-3920	16336	21	0	1	-2424	6664	14528	-16	17	-26	-13528	7248	7328	24	-15	20	552	2496	16712	10	-13	20	127	137	12
-4832	-8080	13948	15	-16	-16	-12568	-8152	6552	-6	-6	-6	1448	-3936	16624	20	-2	1	-2488	6256	14528	-14	22	-23	-13624	6976	7240	-2	2	16	464	2560	16792	10	-16	17	128	139	12
-4512	-7680	14040	15	-12	-20	-12576	-7920	6584	-4	-8	-2	1528	-4112	16320	18	2	1	-2168	6760	14584	-7	19	-24	-13520	6960	7184	12	-8	15	664	2632	16552	9	-14	18	128	139	12
-4748	-7988	13912	4	-18	-20	-12456	-7936	6488	-3	-5	-2	1600	-3920	16600	29	-3	2	-2352	6616	14512	-17	15	-28	-13632	7152	7360	10	-13	24	440	2520	16800	2	-22	14	127	138	12
-4712	-7848	13932	15	-12	-21	-12776	-7896	6544	-12	-7	-9	1464	-3968	16568	25	1	8	-2224	6296	14544	-10	15	-23	-13512	6920	7168	5	0	12	448	2496	16832	6	-19	18	127	139	12
-4528	-7640	13888	4	-8	-23	-12240	-7976	6552	-3	-3	-4	1544	-4152	16120	26	4	7	-2200	6504	14408	-9	16	-18	-13264	6912	7448	20	-10	18	680	2576	16424	9	-16	17	127	138	12
-4840	-8076	13824	5	-17	-22	-12344	-8080	6424	10	0	-4	1568	-4008	16504	28	-4	3	-2344	6544	14624	-14	16	-22	-13592	7176	7432	12	-6	26	464	2496	17040	1	-15	12	127	138	12
-4676	-7832	13964	23	-17	-19	-12712	-8024	6528	-1	-2	-9	1504	-4048	16320	17	-3	5	-2128	6376	14232	-10	17	-19	-13520	6928	7416	-2	3	17	440	2656	16704	3	-15	19	127	138	12
-4560	-7688	13924	7	-7	-21	-12496	-7904	6432	11	-2	0	1456	-4040	16472	19	-5	3	-2304	6752	14528	-10	15	-28	-13544	7056	7520	15	-8	16	648	2648	16992	10	-20	20	127	138	12
-4876	-8120	13868	8	-13	-23	-12616	-8016	6368	5	-1	-3	1376	-4016	16776	27	-8	4	-2392	6456	14336	-19	23	-26	-13624	7160	7336	1	-3	19	392	2624	16936	4	-17	18	127	138	12
-4600	-7788	14064	16	-18	-19	-12560	-7976	6736	-12	-8	-2	1392	-3976	16264	20	-3	5	-2256	6392	14216	-4	17	-26	-13648	7096	7640	5	-2	22	528	2472	16512	8	-20	20	128	139	12
-4684	-7800	13948	4	-6	-23	-12304	-7832	6592	-5	-4	5	1528	-4096	16280	24	2	2	-2408	6760	14600	-8	16	-25	-13472	7112	7408	27	-11	21	512	2456	16512	6	-16	23	128	138	12
-4816	-8100	13868	12	-16	-19	-12520	-8160	6632	-7	-5	-2	1480	-3960	16592	25	-1	7	-2248	6440	14552	-13	18	-24	-13760	7104	7112	8	-4	24	480	2648	16744	6	-19	18	127	138	12
-4612	-7696	14064	17	-19	-15	-12592	-7928	6432	1	-8	-4	1424	-4096	16592	13	0	2	-2208	6456	14352	-5	18	-23	-13464	7032	7368	14	-4	17	528	2736	16488	10	-19	18	128	138	12
-4868	-7832	13936	9	-12	-21	-12384	-7864	6392	12	-5	-2	1552	-4032	16688	26	3	-3	-2360	6664	14592	-16	19	-24	-13496	6888	7304	16	-9	20	488	2712	16704	4	-19	20	128	137	12
-4764	-7940	14000	19	-13	-15	-12440	-7888	6568	-2	-7	-6	1344	-3984	16848	28	-1	3	-2272	6520	14504	-12	15	-23	-13568	6968	7232	-3	0	19	264	2592	16616	0	-15	18	128	139	12
-4508	-7652	13936	13	-11	-18	-12536	-7848	6568	-6	-8	2	1392	-4000	16248	24	3	3	-2272	6536	14368	-1	14	-27	-13472	6976	7280	9	-8	16	536	2672	16680	9	-19	17	127	138	12
-4796	-8000	13860	5	-11	-26	-12352	-7840	6328	11	-3	1	1496	-4016	16480	31	4	6	-2280	6608	14416	-15	14	-26	-13496	7224	7384	18	-11	26	552	2600	16632	7	-19	17	127	138	12
-4712	-7968	13960	16	-12	-16	-12472	-8192	6472	0	-6	-6	1352	-3984	16504	25	1	5	-2304	6376	14456	-7	15	-19	-13544	7064	7416	7	3	18	384	2672	16792	9	-16	18	127	138	12
-4564	-7724	13920	6	-15	-23	-12440	-7864	6416	0	-2	-1	1576	-3952	16264	24	4	5	-2368	6744	14272	-10	16	-24	-13184	7024	7256	21	-9	14	552	2592	16736	11	-22	19	127	137	12
-4832	-8052	13896	7	-16	-23	-12528	-7976	6288	3	-7	-7	1512	-3848	16448	30	-5	2	-2328	6760	14384	-17	15	-24	-13624	7200	7336	7	-6	25	544	2544	17032	5	-19	17	127	138	12
-4716	-7812	14008	14	-17	-19	-12664	-8000	6696	-9	-3	-4	1424	-4080	16592	21	1	4	-2288	6272	14624	-7	15	-28	-13544	6824	7192	6	4	11	480	2648	16576	4	-19	19	127	139	12
-4560	-7668	13824	6	-5	-23	-12296	-7912	6512	6	-3	4	1472	-4136	16224	21	7	-3	-2352	6656	14248	-10	19	-23	-13520	7032	7400	23	-10	15	856	2552	16592	6	-22	19	127	139	12
-4820	-8136	13876	7	-16	-20	-12400	-8160	6168	6	1	1	1440	-4072	16536	23	2	-1	-2440	6648	14504	-10	27	-30	-13592	7176	7232	1	0	25	480	2688	17048	2	-17	16	127	138	12
-4704	-7820	14008	11	-14	-15	-12648	-7864	6440	5	-3	1	1560	-3944	16632	18	0	0	-2152	6352	14424	-8	24	-28	-13568	7128	7320	-2	5	20	576	2560	16568	8	-16	20	127	138	12
-4644	-7744	13856	-3	-21	-18	-12536	-7920	6176	16	1	3	1424	-3936	16384	24	-2	0	-2384	6720	14560	-15	18	-25	-13384	7184	7208	9	-7	19	592	2624	16680	8	-17	17	127	138	12
-4800	-8016	13908	-2	-16	-18	-12552	-7936	6424	9	-1	-1	1664	-3848	16568	32	-4	8	-2488	6368	14568	-13	17	-27	-13624	7080	7432	3	-2	18	480	2520	16576	2	-23	19	127	139	12
-4636	-7716	13956	3	-12	-19	-12480	-7896	6576	-12	-4	-2	1368	-4040	16320	22	-6	10	-2256	6544	14544	-4	16	-25	-13416	6872	7320	17	-4	12	520	2576	16592	11	-21	20	127	138	12
-4704	-7828	13848	-6	-9	-25	-12280	-7920	6320	2	-8	4	1544	-4136	16728	31	-3	8	-2328	6728	14512	-14	10	-29	-13376	7184	7456	24	-10	25	600	2552	16792	8	-22	18	127	138	12
-4760	-8048	13940	15	-16	-22	-12568	-7992	6312	-1	-2	-5	1536	-4056	16616	29	-6	6	-2584	6616	14560	-18	14	-24	-13560	7120	7304	-2	-5	23	256	2632	16984	10	-18	18	127	139	12
-4508	-7680	13956	15	-15	-16	-12536	-7904	6368	10	-1	-2	1544	-4096	16136	24	3	1	-2352	6456	14528	-4	14	-22	-13352	6992	7224	12	-3	15	536	2576	16832	9	-19	19	127	139	12
-4816	-8020	13888	8	-10	-25	-12424	-7864	6472	6	-3	-3	1456	-3888	16544	28	3	3	-2336	6640	14720	-18	14	-25	-13480	7160	7272	14	-8	24	544	2600	16712	0	-16	19	128	138	12
-4684	-7948	13968	14	-15	-22	-12640	-8000	6408	-11	-7	-10	1400	-3896	16648	24	1	6	-2216	6328	14512	-11	14	-22	-13696	7016	7384	2	-3	18	536	2656	16736	2	-19	19	126	139	12
-4500	-7632	14008	15	-5	-20	-12488	-7960	6768	-10	-5	-2	1576	-4088	16512	21	6	4	-2368	6752	14456	-5	17	-19	-13400	7024	7240	18	-8	18	592	2712	16584	10	-12	20	127	139	12
-4844	-8048	13944	12	-14	-24	-12456	-7976	6128	3	-7	-4	1464	-4072	16432	26	5	4	-2392	6664	14584	-17	19	-24	-13512	7264	7384	7	-9	22	552	2624	17008	0	-17	19	127	139	12
-4668	-7792	14024	22	-7	-15	-12528	-7976	6512	-7	-4	-5	1440	-3976	16552	19	5	4	-2344	6304	14696	-10	14	-24	-13672	6992	7464	1	0	20	408	2592	16624	3	-14	21	128	138	12
-4556	-7608	13920	8	-7	-17	-12352	-7680	6240	2	-2	0	1496	-4072	16456	24	2	-2	-2248	6600	14616	-9	11	-27	-13336	6984	7416	14	-3	16	688	2560	16688	10	-20	21	127	139	12
-4808	-8072	13956	10	-14	-21	-12392	-8072	6504	-1	-5	-7	1640	-3928	16568	32	-1	3	-2408	6576	14360	-20	15	-25	-13648	6984	7408	5	-2	20	592	2664	16960	0	-14	16	127	139	12
-4660	-7752	14040	21	-14	-17	-12664	-7904	6360	-4	-4	-5	1536	-4088	16304	20	0	4	-2224	6344	14360	-2	13	-21	-13560	6960	7296	2	-3	17	528	2432	16656	7	-14	17	127	139	12
-4644	-7748	13960	7	-12	-25	-12304	-7960	6384	7	-3	3	1632	-4088	16472	23	5	1	-2280	6704	14368	-9	16	-26	-13408	7232	7240	24	-6	21	672	2584	16944	2	-16	15	127	139	12
-4816	-8036	13860	12	-13	-22	-12464	-7992	6424	9	2	-3	1488	-3832	16672	28	-1	6	-2232	6448	14480	-12	20	-23	-13576	7216	7224	-2	0	20	344	2552	16744	-1	-14	16	127	140	12
-4620	-7736	13996	14	-14	-18	-12496	-7784	6648	-10	-3	-2	1528	-4088	16320	19	2	1	-2200	6528	14504	1	17	-24	-13536	7008	7240	5	-6	15	600	2672	16688	4	-10	12	126	139	12
-4712	-7776	13984	2	-8	-26	-12320	-7792	6184	9	-1	3	1512	-4064	16528	24	5	4	-2344	6808	14624	-18	17	-25	-13408	7168	7224	17	-2	19	552	2536	17008	6	-16	14	126	139	12
-4784	-7860	13988	6	-12	-21	-12568	-8016	6664	2	0	-1	1368	-4032	16768	24	-3	4	-2352	6272	14624	-5	17	-29	-13544	7120	7336	-7	2	21	392	2520	16528	2	-15	16	127	139	12
-4568	-7676	13940	10	-5	-18	-12576	-7912	6552	-3	-4	5	1472	-4080	16504	22	0	4	-2296	6464	14360	1	17	-19	-13400	6928	7504	11	-5	14	656	2656	16488	7	-16	17	127	139	12
-4788	-7868	13836	4	-11	-23	-12256	-7840	6248	14	0	8	1376	-4144	16424	26	2	4	-2544	6824	14576	-17	17	-27	-13400	7232	7488	28	-10	20	712	2456	16960	3	-18	18	127	139	12
-4764	-8012	13924	20	-14	-14	-12592	-8000	6464	-2	-2	-1	1408	-4016	16600	23	0	6	-2288	6416	14640	-10	15	-30	-13480	6984	7136	1	0	27	408	2544	16888	9	-13	17	127	139	12
-4576	-7708	14016	11	-7	-15	-12408	-7960	6432	4	-1	3	1416	-3888	16416	20	1	4	-2464	6592	14368	-5	17	-22	-13432	7016	7144	6	-3	21	440	2728	16784	9	-14	18	127	138	12
-4796	-7908	13884	5	-16	-25	-12336	-7800	6248	9	1	-1	1448	-3920	16560	32	0	9	-2496	6536	14552	-19	14	-23	-13536	7176	7136	7	-8	24	584	2584	16736	6	-18	17	127	139	12
-4680	-7884	13944	12	-15	-16	-12592	-7944	6520	-7	-10	-3	1344	-3968	16424	27	-3	11	-2216	6448	14600	-7	11	-26	-13592	7072	7312	2	0	15	416	2536	16504	7	-17	21	127	139	12
-4560	-7640	14004	13	-7	-21	-12264	-7824	6440	-3	-6	0	1592	-4008	16296	25	1	4	-2240	6656	14512	-4	13	-21	-13280	6960	7144	21	-4	16	728	2488	16552	8	-15	15	127	139	12
-4768	-7976	13892	5	-13	-23	-12480	-7928	6352	5	-4	-7	1600	-3880	16496	29	0	7	-2392	6648	14576	-18	16	-25	-13528	7168	7504	14	-7	29	480	2560	17040	4	-16	14	127	138	12
-4688	-7840	14076	19	-19	-17	-12568	-8024	6320	-3	-5	-7	1568	-4040	16760	19	-2	1	-2192	6368	14344	-4	19	-22	-13520	6880	7512	4	-1	18	552	2840	16600	8	-19	15	127	139	12
-4592	-7720	13972	7	-9	-19	-12424	-7784	6424	6	-3	-3	1456	-3896	16664	18	-2	4	-2264	6704	14456	-8	18	-24	-13520	7120	7456	17	-8	17	568	2664	16648	6	-20	14	127	139	12
-4832	-8016	13888	7	-9	-21	-12536	-7904	6392	4	-1	-3	1336	-3768	16768	24	-1	6	-2392	6456	14680	-16	16	-25	-13640	7200	7200	3	-3	20	432	2592	16728	2	-18	16	127	139	12
-4660	-7668	14048	17	-13	-19	-12496	-8032	6160	-6	-3	-3	1480	-3968	16328	14	0	7	-2048	6448	14544	-7	16	-21	-13480	6968	7208	9	4	12	656	2608	16704	6	-18	16	128	139	12
-4644	-7756	13984	3	-8	-24	-12288	-7760	6464	1	-3	-5	1416	-3976	16360	21	-3	4	-2336	6704	14352	-13	20	-27	-13320	7112	7320	24	-12	16	736	2712	16728	5	-19	18	127	138	12
-4772	-8060	13968	9	-12	-25	-12528	-8024	6408	-4	-2	-11	1568	-3952	16552	25	-3	9	-2408	6432	14528	-20	16	-27	-13712	7208	7136	1	1	15	384	2672	16952	5	-16	22	128	138	12
-4616	-7736	13980	7	-12	-18	-12616	-7792	6544	-8	-2	-12	1464	-3952	16296	22	-4	8	-2224	6424	14248	-6	18	-24	-13464	6840	7032	5	-4	12	600	2536	16568	8	-18	21	128	139	12
-4732	-7832	13936	3	-5	-30	-12344	-7912	6288	8	-5	-9	1544	-4000	16368	31	5	10	-2520	6784	14528	-16	17	-28	-13488	7200	7408	18	-10	17	568	2624	16632	5	-19	21	127	138	12
-4764	-7956	13944	9	-17	-24	-12520	-8064	6352	-7	-6	-13	1576	-3936	16832	26	-3	8	-2296	6376	14744	-17	16	-24	-13728	7056	7328	-3	-1	16	480	2608	16624	6	-17	21	127	138	12
-4552	-7680	14088	13	-12	-24	-12520	-7912	6296	-6	-4	-6	1496	-4104	16336	30	1	6	-2176	6424	14672	-9	15	-22	-13520	7008	7328	12	-3	18	616	2448	16624	10	-17	20	128	139	12
-4548	-7700	13972	7	-5	-25	-12440	-7856	6432	8	-3	-1	1560	-3936	16560	33	-3	7	-2472	6592	14464	-17	17	-26	-13496	7120	7192	16	-7	23	464	2520	16768	7	-18	16	127	139	12
-4704	-7904	13948	15	-10	-20	-12696	-7872	6336	-6	2	-3	1608	-3872	16608	19	-1	7	-2200	6552	14632	-6	19	-19	-13560	7048	7240	8	4	17	464	2624	16560	6	-18	13	127	138	12
-4516	-7676	13932	8	-11	-20	-12256	-7824	6424	3	-1	-1	1600	-4008	16568	17	1	7	-2144	6784	14432	-6	24	-21	-13344	7200	7544	18	-6	15	648	2512	16568	9	-21	12	127	139	12
-4816	-8044	13904	0	-16	-19	-12456	-7912	6208	7	-2	-3	1664	-4016	16784	23	-1	7	-2456	6512	14552	-13	27	-27	-13680	7208	7272	0	-1	22	496	2640	16832	1	-20	13	127	138	12
-4672	-7804	14080	5	-13	-16	-12592	-8056	6696	-2	1	-5	1560	-3952	16456	21	-4	3	-2296	6320	14520	-6	23	-25	-13648	6928	7264	-2	3	12	344	2528	16808	1	-21	15	127	139	12
-4560	-7628	14096	-11	-10	-23	-12360	-7808	6384	8	-2	-1	1432	-4000	16424	19	1	2	-2176	6616	14520	-13	19	-23	-13360	7112	7416	21	-10	15	640	2640	16792	5	-20	17	128	139	12
-4820	-7948	13836	-7	-18	-26	-12408	-7904	6336	2	3	0	1488	-3928	16496	21	-5	7	-2400	6512	14432	-18	13	-24	-13616	7056	7392	9	-4	17	496	2576	16880	2	-16	17	128	139	12
-4672	-7884	13956	8	-13	-26	-12592	-8000	6496	-10	-4	-6	1536	-4024	16208	18	1	9	-2040	6400	14480	-10	16	-24	-13480	6936	7368	3	-3	12	416	2616	16456	10	-13	23	128	139	12
-4688	-7752	13812	4	-14	-23	-12432	-7816	6360	3	-1	-8	1592	-4112	16224	23	0	11	-2400	6688	14400	-12	14	-27	-13464	7184	7184	16	-10	17	512	2656	16760	9	-13	18	128	139	12
-4824	-8092	13976	13	-14	-21	-12568	-8040	6408	-5	-7	-9	1440	-3976	16440	27	-2	12	-2400	6464	14544	-19	14	-29	-13656	7128	7320	-4	0	15	464	2608	16712	0	-16	24	128	139	12
-4612	-7676	13992	11	-14	-22	-12560	-8032	6424	-8	-2	-6	1504	-3968	16264	24	1	9	-2360	6472	14512	-4	14	-28	-13432	6880	7656	7	-2	12	592	2488	16656	7	-12	22	128	139	12
-4680	-7804	13956	6	-13	-23	-12280	-7904	6504	-2	-5	-7	1512	-4072	16336	33	0	8	-2360	6728	14384	-13	14	-26	-13560	7112	7232	18	-9	19	512	2680	16800	8	-13	20	127	138	12
-4840	-8012	13856	13	-10	-25	-12608	-8072	6464	-11	-8	-15	1480	-3800	16656	27	-7	12	-2456	6320	14520	-13	14	-27	-13560	7016	7432	-3	3	16	408	2648	16920	4	-14	18	127	138	12
-4492	-7688	13964	15	-10	-22	-12560	-7864	6624	-6	-2	-9	1464	-4016	16584	23	-3	14	-2192	6576	14408	-9	17	-25	-13448	6912	7128	9	-3	11	528	2608	16832	4	-17	20	127	138	12
-4776	-7980	13984	8	-13	-24	-12504	-7936	6544	0	-2	-9	1448	-3888	16672	34	-2	9	-2384	6632	14528	-21	16	-24	-13656	7144	7296	6	-7	15	632	2600	16928	3	-20	18	127	138	12
-4736	-7940	13988	16	-13	-22	-12624	-7968	6440	-19	-1	-11	1464	-3872	16712	25	-6	9	-2296	6528	14672	-11	13	-24	-13504	6824	7320	-1	3	14	440	2704	16528	0	-13	14	127	138	12
-4552	-7616	13968	7	-7	-20	-12384	-7888	6472	-10	-1	-10	1544	-4120	16296	18	0	10	-2376	6600	14608	-6	17	-24	-13264	7008	7176	16	-6	16	512	2576	16664	-4	-15	13	128	139	12
-4784	-8032	13880	3	-11	-26	-12304	-8168	6288	3	-2	-12	1560	-3920	16376	21	0	7	-2336	6432	14536	-16	15	-26	-13664	7080	7392	12	-4	17	312	2640	16856	0	-15	10	127	138	12
-4584	-7824	14148	17	-14	-17	-12568	-8184	6416	-11	-6	-14	1512	-4040	16688	14	-1	7	-2328	6352	14728	-11	18	-26	-13472	6968	7120	1	-1	16	520	2664	16424	2	-13	15	127	138	12
-4532	-7644	14088	8	-10	-24	-12312	-7744	6504	2	-5	-6	1560	-4064	16272	18	-3	2	-2304	6624	14424	-10	17	-22	-13456	6976	7328	16	-11	19	592	2440	16848	6	-15	17	128	138	12
-4896	-8040	13848	9	-10	-23	-12560	-8056	6472	0	0	-6	1464	-4080	16608	24	0	3	-2280	6504	14720	-14	19	-31	-13720	7112	7232	6	-4	17	576	2744	16952	-1	-16	12	127	138	12
-4608	-7788	14016	17	-16	-16	-12584	-8000	6520	-11	0	-7	1408	-4048	16488	11	-2	4	-2224	6368	14464	-8	16	-26	-13400	6976	7624	9	-3	16	528	2544	16760	4	-17	12	127	139	12
-4528	-7768	13868	5	-6	-24	-12424	-7912	6552	3	2	4	1656	-4128	16416	19	1	2	-2400	6792	14560	-13	17	-25	-13472	6992	7264	25	-13	22	512	2424	16984	7	-19	13	128	139	12
-4900	-8060	13876	10	-13	-21	-12368	-8176	6408	6	5	-4	1456	-4024	16296	18	3	9	-2480	6480	14928	-16	15	-24	-13656	7184	7168	2	-2	19	472	2664	16904	7	-14	13	127	138	12
-4628	-7756	14104	15	-10	-15	-12560	-8064	6704	6	-3	-1	1352	-4024	16304	12	3	3	-2056	6488	14336	-1	17	-26	-13512	6912	7304	5	3	13	368	2520	16528	10	-17	18	127	138	12
-4764	-7820	14036	4	-10	-20	-12536	-7840	6336	12	-4	2	1496	-4056	16224	28	6	0	-2296	6680	14512	-9	17	-22	-13464	7160	7328	18	-11	23	544	2536	16824	10	-22	17	128	138	12
-4792	-8016	13908	15	-14	-15	-12488	-8016	6328	-1	-3	-1	1360	-3952	16560	29	-3	5	-2416	6392	14584	-12	17	-24	-13688	6992	7160	-3	2	24	424	2592	16656	11	-21	19	127	139	12
-4524	-7680	13884	10	-10	-21	-12416	-7768	6136	-8	-9	0	1472	-4008	16200	25	-2	6	-2088	6440	14504	-3	21	-18	-13456	6848	7136	19	-7	17	744	2656	16656	12	-21	18	127	139	12
-4716	-7864	13724	4	-12	-20	-12264	-7768	6480	0	-8	-6	1568	-4024	16448	36	-2	12	-2352	6536	14400	-20	14	-25	-13552	7064	7368	24	-10	26	688	2576	16720	9	-17	22	127	138	12
-4812	-7904	13864	16	-19	-21	-12600	-7912	6664	-22	-11	-12	1336	-3928	16672	27	-1	16	-2240	6360	14768	-11	16	-22	-13696	7040	7392	3	-1	20	504	2560	16568	4	-13	15	127	138	12
-4476	-7656	14032	6	-17	-19	-12608	-7920	6440	-5	0	-8	1608	-4048	16504	23	-1	10	-2280	6728	14376	-4	18	-18	-13408	6968	7168	12	-7	14	480	2640	16816	7	-14	19	127	138	12
-4796	-8020	13784	-3	-11	-25	-12464	-8144	6312	10	-5	-6	1416	-4056	16504	24	-3	8	-2456	6456	14616	-20	18	-29	-13576	7072	7456	12	-10	21	592	2688	17040	1	-23	18	127	138	12
-4732	-7852	13960	12	-9	-20	-12584	-7960	6504	0	-3	-6	1352	-4072	16624	22	-5	7	-2256	6368	14440	-7	15	-23	-13656	7032	7136	-2	5	15	464	2552	16728	-1	-19	14	127	139	12
-4592	-7616	14036	5	-15	-21	-12544	-7736	6552	6	1	-4	1600	-4104	16656	22	-1	2	-2368	6552	14568	-12	19	-24	-13392	7088	7488	20	-12	18	760	2512	16728	6	-19	18	127	139	12
-4788	-8044	13824	7	-11	-25	-12440	-8024	6176	-2	-3	-9	1576	-3880	16568	30	-2	8	-2304	6504	14504	-19	14	-29	-13720	7096	7224	8	-5	22	520	2560	17048	1	-16	16	127	139	12
-4724	-7848	14100	13	-19	-19	-12736	-8080	6432	-16	-2	-10	1504	-4096	16560	15	2	10	-2272	6472	14664	-12	15	-25	-13552	7024	7352	5	4	13	344	2480	16656	1	-16	20	127	139	12
-4592	-7700	13984	6	-11	-21	-12424	-7960	6584	-6	-7	-1	1592	-4144	16504	21	-2	6	-2448	6728	14600	-15	16	-23	-13448	7080	7192	19	-8	17	608	2480	16808	3	-17	17	127	138	12
-4824	-8080	14012	9	-11	-17	-12544	-8072	6320	-4	-7	-9	1416	-3944	16400	24	-1	7	-2440	6416	14472	-17	17	-28	-13856	7128	7304	-3	1	18	408	2592	16600	-1	-14	17	127	138	12
-4688	-7708	14048	16	-14	-21	-12600	-8112	6512	-6	-7	-6	1368	-3984	16312	17	0	4	-2440	6384	14392	-3	18	-20	-13464	6984	7304	14	-5	14	600	2504	16584	4	-21	15	127	139	12
-4676	-7776	13912	4	-10	-20	-12360	-7800	6720	3	0	1	1568	-4024	16552	25	5	-3	-2336	6776	14352	-10	15	-23	-13424	6976	7096	25	-16	20	576	2632	16792	6	-22	14	128	138	12
-4824	-8060	13812	11	-14	-21	-12496	-7904	6320	-3	-5	-4	1400	-3936	16624	22	-5	8	-2336	6448	14632	-15	16	-23	-13688	7160	7448	2	2	20	416	2520	17008	4	-17	15	128	138	12
-4500	-7680	14000	9	-9	-16	-12664	-7864	6504	-7	-1	-8	1296	-4008	16544	19	-8	12	-2192	6496	14840	-7	20	-25	-13400	6904	7288	4	-1	21	624	2576	16688	3	-20	16	127	139	12
-4756	-7928	13824	3	-9	-22	-12200	-7856	6408	0	0	-2	1512	-3984	16400	32	-7	14	-2408	6592	14656	-11	17	-25	-13672	7064	7448	17	-10	26	704	2560	16968	2	-16	16	128	139	12
-4800	-7988	13936	14	-16	-20	-12632	-8088	6512	-8	0	-4	1392	-3960	16656	30	-3	16	-2240	6392	14520	-11	20	-25	-13624	7032	7400	7	1	21	432	2592	16576	3	-15	12	127	139	12
-4484	-7676	14044	8	-9	-14	-12504	-7992	6472	0	-3	-1	1416	-4016	16472	22	0	10	-2264	6640	14496	-5	17	-18	-13320	7120	7296	21	-7	18	576	2472	16728	12	-15	14	127	138	12
-4780	-7984	13860	2	-12	-26	-12416	-8064	6440	13	-2	9	1456	-4016	16560	26	6	7	-2296	6600	14448	-15	19	-25	-13424	6992	7320	23	-10	18	416	2592	16760	7	-22	17	127	137	12
-4800	-7928	13972	14	-9	-19	-12544	-8032	6448	1	-3	-2	1536	-4080	16672	15	-5	2	-2296	6488	14608	-8	26	-24	-13552	7024	7608	0	-2	19	472	2760	16648	7	-21	15	127	139	12
-4524	-7676	13936	5	-14	-14	-12480	-7968	6472	5	-3	4	1480	-4096	16280	15	-1	0	-2168	6808	14584	-6	30	-23	-13312	7000	7224	16	-6	16	600	2456	16616	8	-18	13	127	138	12
-4812	-8088	13928	1	-19	-22	-12312	-7944	6208	11	-6	3	1416	-4040	16712	27	-5	1	-2344	6472	14472	-18	24	-26	-13704	7152	7400	6	-10	25	504	2536	16928	-4	-22	18	127	138	12
-4760	-7868	14012	5	-18	-14	-12800	-8096	6528	-6	-3	-1	1480	-4008	16496	16	-5	4	-2152	6264	14512	-6	22	-26	-13688	6912	7376	6	1	16	432	2696	16616	5	-21	16	127	139	12
-4604	-7708	13848	-6	-12	-21	-12408	-7816	6312	3	-1	8	1376	-4176	16032	22	7	2	-2368	6656	14408	-4	13	-24	-13280	7008	7144	28	-8	19	464	2528	16688	8	-20	18	128	138	12
-4636	-7760	13920	-4	-8	-24	-12400	-8000	6384	9	0	6	1392	-3968	16416	29	1	5	-2336	6496	14480	-23	11	-27	-13464	7072	7016	11	-4	22	504	2504	16904	8	-19	22	127	139	12
-4676	-7780	14052	16	-17	-17	-12544	-7912	6360	-8	-1	-2	1504	-4056	16480	17	-7	6	-2208	6432	14176	-3	14	-25	-13536	6848	7544	6	5	19	408	2608	16720	12	-20	19	127	139	12
-4628	-7724	13988	8	-9	-20	-12200	-7832	6280	5	-1	0	1640	-4088	16184	26	2	7	-2248	6728	14424	-14	12	-23	-13504	6928	7320	28	-8	21	448	2624	17016	11	-19	19	127	138	12
-4832	-8092	13920	16	-12	-19	-12528	-8032	6448	2	-6	0	1480	-3968	16376	29	-4	10	-2312	6504	14704	-15	12	-25	-13696	7040	7408	3	-1	26	432	2680	16824	5	-16	18	127	139	12
-4608	-7808	14008	22	-8	-17	-12520	-7848	6208	-8	-5	-1	1344	-3960	16440	25	3	6	-2128	6520	14360	0	12	-20	-13544	6896	7184	11	-5	20	480	2616	16560	7	-16	15	127	138	12
-4652	-7808	13948	7	-17	-22	-12328	-7840	6352	4	-6	2	1536	-4064	16384	27	1	6	-2352	6704	14480	-6	15	-27	-13440	7224	7456	23	-10	19	576	2656	16856	9	-17	17	127	138	12
-4792	-8076	13752	21	-17	-21	-12544	-8016	6472	-2	-12	-8	1344	-4024	16416	27	1	8	-2360	6776	14552	-16	17	-22	-13552	7248	7264	1	0	26	512	2720	16832	1	-14	18	127	139	12
-4620	-7748	13868	19	-19	-21	-12568	-7984	6696	-6	-5	-1	1560	-3984	16336	14	-2	6	-2264	6448	14352	-3	14	-25	-13320	6968	7272	6	2	17	472	2584	16624	9	-13	16	127	139	12
-4688	-7864	13948	10	-10	-22	-12488	-7840	6424	1	-5	-2	1488	-4032	16608	25	-2	0	-2360	6768	14616	-15	19	-26	-13512	7152	7304	13	-8	22	576	2552	16984	3	-20	13	127	138	12
-4820	-7956	14024	19	-14	-15	-12640	-7968	6392	-7	-4	-5	1592	-3872	16568	20	-5	4	-2264	6416	14408	-14	17	-26	-13568	7024	7040	0	-2	20	456	2536	16696	4	-17	14	127	139	12
-4604	-7668	13984	14	-5	-18	-12584	-7792	6408	-2	1	-5	1504	-4096	16360	17	-2	1	-2280	6616	14248	-5	18	-20	-13432	7032	7200	23	-11	13	624	2472	16592	9	-19	14	128	139	12
-4756	-7976	13904	3	-11	-24	-12264	-8032	6392	4	0	0	1472	-3936	16792	26	-5	8	-2288	6632	14384	-16	17	-23	-13528	7224	7208	19	-7	24	552	2688	16784	3	-16	11	127	139	12
-4788	-7892	14012	19	-15	-22	-12696	-7992	6400	-10	-1	-6	1424	-3800	16632	26	-9	11	-2336	6352	14496	-8	16	-23	-13576	7016	7272	2	4	21	480	2456	16696	6	-16	12	127	139	12
-4532	-7648	13880	6	-8	-18	-12664	-7816	6568	-6	-4	-5	1552	-3896	16616	24	-6	15	-2264	6600	14440	-4	18	-19	-13336	6928	7352	14	-4	19	672	2552	16856	6	-20	10	128	139	12
-4832	-8056	13968	-2	-9	-22	-12416	-7856	6488	-5	0	-9	1536	-3856	16512	35	-7	24	-2496	6576	14712	-17	18	-27	-13560	7216	7352	8	-6	25	520	2560	16904	-2	-18	13	127	139	12
-4652	-7752	14008	7	-12	-19	-12696	-7968	6368	-15	-4	-18	1344	-4048	16432	19	2	23	-2368	6328	14624	-8	15	-23	-13696	7128	7240	-1	5	16	464	2712	16392	7	-15	14	127	138	12
-4576	-7744	13988	-3	-12	-19	-12336	-7968	6176	10	2	-6	1464	-4136	16432	25	3	10	-2440	6480	14520	-11	17	-22	-13448	7192	7336	20	-15	21	456	2624	16672	6	-14	11	128	138	12
-4900	-8016	13776	1	-15	-25	-12480	-8048	6160	16	-3	-16	1336	-4008	16720	32	0	12	-2376	6512	14480	-18	18	-24	-13624	7232	7328	1	-5	22	424	2664	16928	5	-19	20	128	138	12
-4624	-7748	14056	9	-15	-20	-12488	-8064	6600	-3	-6	-11	1272	-4064	16424	23	-4	7	-2048	6464	14768	-5	18	-25	-13504	7016	7264	1	-2	9	504	2696	16648	8	-20	30	128	139	12
-4680	-7708	13836	3	-7	-21	-12448	-7792	6384	-2	-14	-10	1624	-4152	16416	27	1	3	-2312	6792	14536	-16	17	-27	-13320	7096	7544	12	-8	14	672	2552	16744	8	-25	35	128	138	12
-4844	-8188	13912	10	-21	-23	-12552	-8192	6432	-17	-7	-13	1488	-4080	16704	27	-2	4	-2392	6512	14392	-20	18	-28	-13504	7064	7336	-13	3	13	592	2560	16824	3	-19	33	128	138	12
-4588	-7660	14008	15	-17	-15	-12672	-7896	6576	-21	-10	-14	1536	-4032	16568	15	1	1	-2248	6416	14448	-10	17	-26	-13224	6776	7208	2	4	6	552	2544	16568	9	-12	29	128	138	12
-4656	-7920	13904	6	-10	-19	-12248	-8056	6776	-2	-6	2	1616	-4112	16488	20	5	-7	-2368	6640	14608	-18	17	-29	-13664	7008	7384	19	-5	20	544	2328	16808	0	-13	25	127	138	12
-4804	-7940	13956	16	-13	-13	-12520	-8248	6280	-5	-7	-2	1512	-4248	16536	16	-3	-1	-2456	6312	14720	-13	20	-22	-13760	6976	7416	7	2	16	424	2360	16936	3	-12	20	127	138	12
-4536	-7692	14040	14	-9	-18	-12488	-7776	6552	7	-3	5	1464	-4096	16376	15	6	1	-2232	6400	14480	-2	21	-19	-13448	6816	7200	19	-2	16	440	2408	16728	5	-21	15	127	139	12
-4808	-7868	13864	8	-15	-15	-12480	-7952	6360	24	-4	6	1560	-4040	16656	22	0	-3	-2304	6608	14480	-9	14	-27	-13672	7112	7312	8	-10	23	616	2344	16704	8	-20	13	128	139	12
-4724	-7908	13988	16	-8	-16	-12592	-7984	6384	6	-2	0	1432	-3984	16440	28	2	3	-2144	6216	14560	-1	14	-21	-13632	7192	7256	6	-11	27	752	2440	16680	5	-14	8	128	138	12
-4584	-7588	13980	11	-8	-19	-12520	-7744	6496	7	-7	3	1488	-4032	16400	36	1	6	-2360	6600	14456	1	16	-19	-13416	6856	7256	21	-12	24	656	2504	16528	12	-14	9	127	138	12
-4836	-7948	13904	4	-8	-21	-12344	-7968	6288	9	-4	3	1512	-3920	16192	39	-8	13	-2520	6512	14720	-7	16	-21	-13528	7192	7320	24	-18	31	624	2544	16928	10	-27	10	127	138	12
-4712	-7856	14060	18	-9	-15	-12648	-7960	6336	-8	2	-1	1560	-3888	16504	30	1	11	-2304	6416	14544	-4	18	-22	-13608	7240	7384	17	-10	23	544	2600	16584	10	-21	13	126	139	12
-4572	-7736	14036	3	-9	-22	-12432	-8032	6552	4	-3	2	1224	-3728	16384	26	14	4	-2296	6728	14472	-3	11	-21	-13448	7288	7528	21	-12	20	600	2720	16784	15	-17	16	126	139	12
-4876	-8016	13944	4	-9	-23	-12520	-8032	6280	18	-6	0	1488	-3968	16280	32	-4	7	-2448	6488	14584	-23	20	-25	-13664	7312	7088	-9	-3	21	288	2776	16840	10	-13	24	128	138	12
-4696	-7652	13984	8	-6	-22	-12600	-7784	6360	11	-5	-9	1480	-3896	16280	27	-6	6	-2168	6488	14296	-9	18	-23	-13464	7048	7512	-5	-1	11	440	2928	16344	10	-15	30	126	138	12
-4628	-7796	13780	-1	-13	-28	-12280	-7728	6352	7	-9	-4	1304	-3912	16392	34	0	-3	-2368	6632	14392	-14	18	-26	-13376	7272	7240	21	-15	13	648	2576	16808	10	-17	34	127	137	12
-4780	-8064	13876	9	-20	-21	-12592	-7872	6408	-9	-13	-14	1584	-3888	16560	28	1	11	-2344	6432	14504	-30	19	-30	-13632	7160	7256	-1	5	10	392	2720	17016	14	-14	38	127	137	12
-4624	-7656	14008	5	-15	-26	-12456	-7888	6328	-16	-20	-17	1464	-3912	16608	24	-8	14	-2152	6496	14224	-18	17	-27	-13480	7024	7120	-3	4	1	640	2456	16400	14	-20	41	127	137	12
-4752	-7860	13996	-4	-10	-28	-12568	-7896	6448	-13	-12	-9	1440	-3944	16776	41	-3	9	-2360	6720	14624	-30	17	-29	-13472	7272	7432	6	-1	5	568	2520	16880	6	-22	43	125	137	12
-4764	-8000	13952	5	-9	-26	-12608	-8128	6480	-11	-16	-12	1632	-4032	16624	27	2	9	-2424	6432	14704	-23	18	-24	-13560	6944	7424	-9	3	8	632	2552	16936	2	-17	34	124	138	12
-4468	-7724	13912	3	-8	-29	-12456	-7944	6480	4	-11	-8	1728	-3920	16512	23	10	1	-2208	6496	14584	-9	18	-22	-13376	6896	7176	6	4	6	480	2688	16656	13	-16	29	120	138	12
-4688	-7924	13792	-1	-16	-32	-12360	-7896	6480	18	-7	-7	1416	-3976	16568	24	10	-15	-2488	6624	14616	-25	18	-25	-13568	7232	7312	8	-9	16	432	2632	16712	6	-12	27	127	139	12
-4708	-8044	13848	12	-17	-19	-12496	-7952	6600	1	-10	-12	1616	-3904	16624	9	6	-10	-2240	6392	14584	-20	13	-27	-13712	7144	7360	1	0	8	512	2808	16608	0	-6	15	136	138	12
-4568	-7600	14064	8	-16	-24	-12480	-7896	6472	4	-13	-12	1408	-3904	16512	10	3	-18	-2400	6656	14696	-9	16	-26	-13592	7152	7376	14	-10	10	488	2720	16872	-3	-14	17	155	139	12
-4784	-7996	14008	-1	-13	-21	-12536	-7944	6624	4	-6	-9	1544	-3728	17168	45	17	-6	-2280	6656	14536	-18	21	-30	-13592	7232	7528	-7	-7	10	304	2752	16880	-11	-26	18	99	139	12
-4716	-7860	13932	6	-12	-19	-12544	-7848	6776	-18	-13	-11	1680	-3744	16376	0	2	-20	-2184	6488	14352	-16	25	-28	-13528	6984	7288	-18	3	3	768	2424	16584	-10	-24	23	113	139	12
-4488	-7636	13876	-12	-10	-24	-12616	-7728	6464	-15	-9	-10	1832	-4272	16432	2	6	4	-2424	6768	14528	-23	25	-32	-13424	7144	7552	5	4	5	648	2360	16616	-1	-20	28	118	138	12
-4792	-8176	13832	-15	-7	-20	-12408	-7984	6504	-5	-9	-7	1512	-4032	16584	37	3	4	-2400	6528	14360	-33	26	-33	-13568	7000	7168	-9	6	12	616	2584	17064	6	-19	37	123	137	12
-4768	-7804	14168	-5	-13	-16	-12728	-8112	6624	7	-7	-7	1280	-4024	16296	24	1	5	-2448	6392	14520	-17	21	-31	-13656	6880	7160	-3	7	7	480	2456	16824	15	-14	41	126	139	12
-4756	-7736	13884	-12	1	-23	-12352	-7928	6528	30	0	8	1392	-4056	16416	40	1	8	-2584	6656	14560	-17	17	-27	-13664	7008	7288	1	1	7	328	2328	16784	18	-17	39	131	138	12
-4832	-8140	13984	-4	-12	-24	-12488	-7968	6488	18	-7	3	1288	-4128	16352	44	-11	15	-2448	6416	14624	-16	12	-30	-13648	6944	7376	-3	1	12	360	2360	16712	14	-15	37	122	139	12
-4636	-7768	13944	5	-6	-22	-12392	-7976	6328	1	-10	4	1600	-3960	16472	18	-12	14	-2288	6392	14752	-6	14	-21	-13520	6872	7072	2	2	14	600	2472	16560	23	-16	30	107	137	12
-4736	-7920	13884	4	-15	-24	-12216	-7840	6248	3	-5	0	1440	-4272	16328	16	6	22	-2424	6688	14672	-11	10	-22	-13616	6872	7296	21	-8	29	520	2448	16816	14	-14	27	112	138	12
-4752	-8156	13816	22	-13	-20	-12544	-8296	6488	-16	-14	-3	1320	-4352	16728	43	6	9	-2384	6544	14312	-11	13	-20	-13704	6848	7192	4	-4	29	240	2432	17016	18	-16	24	122	139	12
-4580	-7772	13972	25	-18	-13	-12664	-8272	6576	0	-14	9	1352	-4232	16560	51	-1	-14	-2264	6480	14416	1	12	-14	-13488	6840	7336	16	-10	30	504	2512	16728	20	-16	12	126	139	12
-4804	-7988	13856	17	-11	-21	-12648	-7912	6344	26	-8	16	1528	-3944	16448	52	3	-13	-2416	6528	14520	-6	13	-20	-13560	7008	7384	13	-16	33	432	2680	16832	9	-24	10	135	139	12
-4700	-7900	13952	29	-12	-13	-12544	-7968	6720	-1	-14	7	1600	-3728	16440	31	5	-8	-2408	6456	14472	1	11	-17	-13632	6920	7528	6	-7	27	568	2640	16888	21	-17	12	137	139	12
-4544	-7684	13872	17	-12	-14	-12272	-7784	6272	-1	-13	12	1736	-4080	16480	17	12	-1	-2376	6720	14448	-3	15	-19	-13432	6984	7400	18	-11	26	648	2752	16784	25	-16	22	137	136	12
-4860	-8112	13864	17	-24	-19	-12392	-8000	6496	7	-12	8	1352	-3768	16616	43	-1	6	-2424	6584	14432	-13	15	-25	-13448	7104	7448	17	-17	29	648	2752	16960	19	-15	26	135	139	12
-4696	-7788	14088	25	-19	-18	-12584	-7864	6320	8	-13	0	1584	-3912	16432	40	-9	6	-2120	6400	14624	1	20	-18	-13576	6848	7272	14	-3	25	504	2848	16736	21	-16	23	133	139	12
-4680	-7668	13920	10	-16	-19	-12288	-7776	6520	23	-6	1	1624	-3808	16352	36	1	0	-2280	6784	14728	-6	11	-25	-13480	6984	7400	17	-7	21	712	2696	16856	14	-15	22	130	139	12
-4832	-8116	13932	15	-19	-20	-12400	-7808	6392	5	-10	-1	1496	-3856	16656	40	3	15	-2408	6320	14456	-13	19	-21	-13640	7248	7656	0	6	24	344	2776	16952	10	-16	26	130	139	12
-4544	-7756	14096	13	-13	-20	-12712	-7648	6496	-6	-11	0	1480	-3736	16472	43	-5	12	-2240	6504	14440	-4	17	-24	-13488	7008	7664	-2	2	16	656	2528	16600	21	-15	26	130	139	12
-4784	-7752	13928	-1	-11	-24	-12384	-7544	6424	9	-3	-4	1536	-3880	16592	44	-4	15	-2296	6688	14408	-13	16	-26	-13488	7152	7128	14	-10	23	608	2664	16720	18	-19	23	129	139	12
-4780	-8004	13856	8	-10	-22	-12528	-7864	6336	-11	-9	-6	1288	-3736	16528	35	0	20	-2328	6520	14536	-12	18	-24	-13440	6976	7232	0	6	26	496	2752	17024	17	-14	19	128	139	12
-4536	-7752	13932	10	-6	-22	-12416	-7944	6488	-9	-8	-3	1440	-3776	16416	23	-3	20	-2328	6736	14632	-7	18	-22	-13296	7056	7240	14	-6	16	536	2856	16512	14	-19	22	128	140	12
-4688	-8004	13948	0	-18	-24	-12336	-7968	6624	4	-2	0	1576	-3904	16504	32	-5	20	-2432	6528	14632	-19	20	-27	-13592	7240	7232	8	-13	27	624	2760	16704	7	-19	21	128	140	12
-4704	-7920	13920	9	-16	-18	-12704	-7912	6432	-5	-6	-12	1432	-3968	16416	36	-9	20	-2328	6352	14472	-10	15	-23	-13488	6912	7432	-1	4	20	400	2688	16600	6	-18	23	128	140	12
-4560	-7628	13940	1	-10	-27	-12392	-7952	6240	6	-8	-1	1536	-3968	16512	31	3	11	-2360	6680	14440	-11	18	-23	-13408	7032	7200	18	-12	19	656	2776	16616	12	-18	20	127	139	12
-4856	-8060	13884	1	-19	-25	-12408	-7992	6504	15	-3	-7	1496	-4064	16544	34	6	13	-2448	6600	14504	-21	15	-26	-13616	7040	7168	9	-7	24	416	2800	17032	13	-17	24	127	139	12
-4712	-7948	14052	13	-14	-21	-13000	-8056	6520	8	-12	3	1552	-3856	16616	32	12	12	-2168	6272	14344	-13	16	-19	-13624	6920	7264	-5	4	20	480	2696	16688	15	-16	25	127	138	12
-4660	-7700	13932	-4	-12	-24	-12256	-7576	6240	17	-12	-7	1416	-3968	16656	28	17	7	-2376	6528	14304	-10	11	-27	-13440	7064	7224	17	-14	15	576	2728	16768	13	-12	21	127	138	12
-4904	-8124	14008	8	-10	-26	-12552	-7872	6488	-7	-3	-13	1416	-3736	16560	40	6	14	-2336	6424	14752	-22	16	-28	-13520	7104	7392	-3	1	18	456	2752	16608	10	-14	21	127	139	12
-4564	-7772	14044	8	-12	-24	-12264	-8040	6584	-22	-17	-14	1456	-3848	16568	31	5	18	-2160	6440	14432	-8	13	-22	-13488	6864	7272	9	-6	11	528	2664	16736	6	-10	25	128	139	12
-4556	-7692	13948	6	-13	-28	-12464	-7736	6800	-10	-13	-14	1568	-3768	16392	37	9	21	-2312	6640	14368	-20	19	-29	-13512	7224	7448	11	-13	23	480	2696	16872	8	-24	24	128	139	12
-4828	-8008	14012	-1	-9	-30	-12584	-7824	6504	-14	-11	-16	1192	-3784	16312	36	-2	19	-2344	6432	14656	-12	15	-29	-13656	7024	7392	-8	0	11	568	2744	16944	7	-24	25	127	139	12
-4556	-7824	13984	-2	-8	-30	-12440	-7944	6528	-26	-14	-19	1456	-3672	16624	31	-2	23	-2328	6488	14656	-18	17	-24	-13464	6944	7400	1	0	10	760	2624	16776	5	-25	28	127	139	12
-4824	-8044	13920	-11	-10	-35	-12400	-8024	6552	-1	-2	-20	1656	-3776	16504	36	-2	26	-2264	6624	14472	-21	19	-32	-13560	7256	7256	2	-4	18	672	2696	16920	4	-20	26	126	138	12
-4676	-8008	13952	-3	-5	-25	-12992	-7928	6368	3	-7	-10	1584	-3968	16584	35	-5	36	-2360	6288	14288	-14	17	-27	-13728	7088	7056	-10	4	20	440	2848	16688	3	-11	28	126	138	12
-4528	-7668	13808	-4	-3	-30	-12304	-7960	6552	-2	-9	-16	1528	-4000	16256	24	7	23	-2256	6600	14352	-13	16	-22	-13408	6984	7296	15	0	7	672	2512	16968	10	-11	28	127	138	12
-4808	-8036	13948	-5	-6	-26	-12392	-8048	6520	7	-6	-10	1448	-3840	16736	32	8	17	-2440	6768	14480	-23	21	-30	-13616	7304	7264	2	-2	14	528	2672	16624	6	-16	23	127	138	12
-4728	-8028	13856	6	-15	-24	-12592	-8032	6352	-20	-19	-14	1432	-3880	16248	21	0	15	-2216	6376	14424	-16	19	-27	-13456	6920	7296	-6	9	10	576	2856	16696	10	-17	26	127	139	12
-4608	-7716	13936	1	-10	-27	-12424	-7712	6632	-6	-10	-12	1288	-3944	16624	21	3	14	-2128	6384	14504	-13	15	-29	-13520	6976	7424	17	-8	12	600	2632	16840	1	-26	23	127	139	12
-4776	-8184	13820	3	-18	-25	-12304	-8200	6632	-18	-8	-9	1392	-3976	16712	23	4	9	-2336	6432	14624	-25	19	-30	-13616	7112	7184	-3	2	17	512	2664	16912	-2	-23	23	127	139	12
-4632	-7860	13956	14	-18	-17	-12744	-7912	6552	-22	-11	-9	1312	-3944	16504	12	-2	11	-2104	6312	14720	-13	16	-23	-13608	6824	7304	3	-2	15	488	2512	16728	5	-23	22	127	139	12
-4628	-7832	13904	-2	-10	-25	-12440	-7936	6384	-4	-10	-10	1408	-3952	16544	6	3	11	-2424	6632	14672	-18	19	-24	-13432	7024	7280	22	-15	21	752	2384	16848	5	-18	12	127	138	12
-4760	-8084	13864	10	-11	-23	-12472	-8080	6496	-1	-8	-10	1296	-3976	16488	14	4	9	-2424	6272	14624	-17	20	-28	-13680	6968	7216	5	-6	24	392	2528	16680	10	-12	13	127	138	12
-4540	-7812	13940	13	-16	-21	-12544	-7992	6544	8	-3	-5	1416	-4056	16328	10	2	5	-2208	6504	14504	-6	16	-24	-13560	6872	7464	14	-4	17	432	2656	16376	13	-15	14	127	138	12
-4748	-7948	13952	-2	-11	-24	-12320	-7840	6280	13	-8	6	1584	-4048	16328	18	11	2	-2528	6600	14528	-15	16	-30	-13536	7152	7792	13	-15	26	528	2688	16736	6	-20	17	127	138	12
-4708	-8040	13800	14	-13	-17	-12584	-8128	6616	-3	-13	-5	1376	-3936	16496	25	4	8	-2328	6320	14600	-12	21	-23	-13592	6896	7360	-7	0	19	640	2592	16912	10	-27	18	127	139	12
-4472	-7672	13956	10	-14	-19	-12560	-7816	6592	-2	-4	1	1488	-3880	16672	19	-2	9	-2424	6400	14496	-3	25	-25	-13440	6992	7368	14	-7	18	832	2512	16656	10	-20	22	127	139	12
-4816	-8120	13848	0	-14	-20	-12448	-8064	6480	3	-2	-3	1480	-3808	16920	34	-4	13	-2488	6576	14360	-10	24	-25	-13536	7152	7376	17	-6	27	528	2760	16712	5	-14	19	127	139	12
-4636	-7936	13976	7	-19	-17	-12632	-8024	6792	-8	-6	-7	1232	-3960	16304	23	-11	13	-2216	6312	14456	-9	27	-27	-13552	7040	7384	5	3	23	616	2768	16832	9	-16	20	126	139	12
-4580	-7708	14048	-8	-10	-16	-12576	-7960	6504	5	-1	-1	1512	-3944	16152	24	-2	12	-2264	6720	14440	-2	17	-25	-13440	7056	7512	12	2	22	544	2704	16736	18	-17	20	128	137	12
-4864	-8068	13852	-4	-13	-23	-12536	-8208	6584	7	-2	-3	1408	-3856	16768	32	-5	10	-2472	6552	14312	-15	17	-30	-13688	7200	7384	2	0	21	520	2696	16824	9	-20	25	128	138	12
-4608	-7880	13928	10	-11	-18	-12584	-7992	6584	4	-2	-4	1472	-3944	16584	25	-3	8	-2208	6400	14504	-9	16	-24	-13504	6960	7368	3	-2	19	424	2640	16504	10	-22	17	127	138	12
-4680	-7800	13948	1	-10	-23	-12392	-7776	6552	11	-1	0	1504	-3760	16496	25	5	5	-2336	6592	14640	-12	15	-26	-13440	7056	7176	18	-12	22	600	2720	16848	6	-19	17	127	138	12
-4860	-8172	13808	12	-17	-16	-12424	-8024	6320	6	-2	-8	1416	-3672	16296	28	4	6	-2400	6376	14448	-15	10	-26	-13592	7088	7256	8	2	25	408	2728	16888	5	-15	19	127	138	12
-4620	-7760	14060	24	-15	-18	-12712	-7856	6352	-8	-5	-9	1472	-3872	16760	21	5	8	-2248	6416	14328	-4	14	-22	-13696	7040	7200	17	-6	23	624	2680	16712	6	-14	16	127	139	12
-4744	-7908	13904	9	-18	-23	-12440	-7800	6392	3	-8	-4	1456	-3760	16416	28	3	4	-2400	6720	14560	-16	13	-27	-13456	7104	7272	20	-9	24	616	2784	16832	4	-16	15	127	139	12
-4764	-8096	13728	15	-11	-22	-12448	-8088	6440	-14	-8	-17	1328	-3808	16600	33	0	10	-2424	6536	14576	-16	14	-23	-13688	7016	7328	-1	-2	20	608	2664	16608	6	-18	12	127	139	12
-4540	-7728	14092	11	-13	-19	-12392	-7904	6392	-7	-3	-3	1544	-3928	16560	21	1	11	-2200	6384	14328	-2	22	-20	-13352	6832	7384	6	-3	15	544	2712	16784	10	-17	17	127	139	12
-4728	-7936	13828	2	-11	-23	-12152	-7832	6392	4	-2	-3	1576	-3960	16352	33	-3	13	-2336	6664	14544	-18	15	-23	-13528	7288	7288	14	-14	21	624	2632	16808	8	-18	19	127	138	12
-4752	-8048	13760	15	-11	-22	-12480	-8184	6592	-3	-6	-14	1376	-3928	16712	29	-4	13	-2416	6304	14344	-17	15	-26	-13656	6960	7320	3	0	25	352	2656	16672	7	-17	18	127	139	12
-4476	-7660	13996	7	-9	-20	-12480	-7968	6472	-4	-4	-9	1336	-3976	16304	26	5	6	-2304	6552	14600	-8	16	-29	-13464	6968	7200	20	-9	21	744	2840	16784	7	-19	20	127	139	12
-4776	-8052	13896	0	-15	-23	-12384	-7984	6544	18	-2	-5	1440	-3920	16400	29	1	4	-2304	6704	14512	-18	15	-26	-13632	7144	7272	14	-11	19	528	2736	16736	3	-16	18	128	139	12
-4832	-8064	13852	8	-9	-23	-12552	-8144	6592	-11	-4	-9	1360	-3928	16744	22	4	11	-2288	6352	14624	-7	19	-23	-13704	6960	7088	-1	3	17	416	2680	16480	10	-16	20	127	139	12
-4500	-7776	14012	7	-8	-23	-12456	-7824	6544	-4	-6	-3	1320	-3800	16392	21	5	6	-2328	6592	14440	-6	18	-25	-13328	7024	7208	13	-5	14	624	2696	16504	9	-16	21	127	139	12
-4720	-8072	13856	3	-11	-21	-12312	-7848	6400	1	-5	-5	1560	-3832	16656	26	-1	6	-2328	6624	14456	-15	20	-27	-13536	7040	7408	5	-3	20	464	2696	16688	7	-13	20	126	139	12
-4632	-7928	13904	15	-15	-22	-12552	-8040	6400	-14	-6	-8	1608	-3864	16560	19	-5	9	-2200	6400	14536	-11	15	-22	-13536	6824	7264	10	0	15	624	2664	16624	13	-15	21	127	139	12
-4600	-7748	14008	6	-12	-22	-12440	-7672	6352	6	-3	-1	1328	-4024	16552	21	-1	0	-2360	6648	14600	-13	16	-26	-13488	7152	7208	23	-6	22	536	2624	16824	10	-17	16	128	138	12
-4908	-8084	13840	9	-12	-25	-12536	-8176	6624	8	-7	-7	1360	-3912	16504	35	0	8	-2400	6544	14608	-19	17	-21	-13752	7072	7312	0	-2	28	520	2688	16888	5	-16	17	128	139	12
-4628	-7768	13948	8	-12	-19	-12648	-8248	6472	6	-7	-6	1176	-3872	16496	31	-3	2	-2336	6328	14528	-2	16	-20	-13656	6792	7056	2	-3	19	664	2624	16352	8	-20	20	127	139	12
-4708	-7788	13844	-6	-1	-26	-12272	-7760	6256	17	0	6	1528	-3888	16224	34	1	3	-2368	6664	14360	-11	16	-23	-13432	7224	7376	18	-6	17	728	2680	16848	8	-16	18	128	138	12
-4744	-8164	13828	11	-17	-19	-12472	-7920	6504	-8	-7	-10	1224	-3720	16456	31	0	11	-2392	6168	14504	-17	15	-25	-13512	6904	7240	-1	-4	19	480	2720	17000	6	-11	17	127	139	12
-4600	-7804	14032	12	-10	-22	-12640	-7952	6680	-8	-4	-7	1304	-3816	16488	16	-3	11	-2104	6376	14440	-6	15	-29	-13544	6944	7480	4	-3	15	536	2640	17064	11	-15	16	127	138	12
-4752	-7956	13876	-2	-9	-28	-12320	-8040	6496	-3	-2	-8	1656	-3904	16456	29	-6	13	-2488	6528	14600	-20	12	-30	-13560	7208	7280	13	-8	21	584	2616	16656	4	-15	20	127	139	12
-4848	-8004	14004	9	-9	-19	-12616	-7920	6632	-11	-7	-11	1352	-3872	16784	32	-7	17	-2248	6368	14448	-17	13	-23	-13648	7080	7208	-4	1	15	512	2792	16832	1	-16	17	127	139	12
-4536	-7692	13976	6	-9	-23	-12520	-7936	6584	-6	-3	-8	1408	-3800	16440	26	1	7	-2216	6376	14376	-3	19	-25	-13272	7144	7104	11	0	12	592	2672	16376	10	-19	18	127	138	12
-4796	-8016	13816	-2	-8	-29	-12272	-7928	6320	7	-1	-3	1488	-3920	16360	35	1	7	-2264	6664	14688	-13	17	-28	-13480	7272	7392	14	-10	20	584	2712	16832	7	-16	21	127	138	12
-4720	-8028	13920	14	-11	-22	-12416	-8088	6408	-5	-4	-8	1416	-3808	16552	23	-3	7	-2080	6272	14744	-11	13	-27	-13560	7040	7360	5	1	13	304	2776	16664	10	-15	19	127	138	12
-4444	-7724	13888	7	-9	-26	-12408	-7872	6392	5	4	-5	1408	-3928	16392	19	-2	0	-2264	6664	14696	-11	21	-26	-13392	7024	7144	15	-8	14	536	2720	16584	9	-16	19	128	139	12
-4836	-8124	13912	3	-13	-24	-12408	-7992	6464	5	-3	-8	1400	-3728	16456	30	-7	6	-2408	6480	14632	-19	16	-30	-13744	7144	7464	5	0	20	416	2552	16824	1	-19	23	128	139	12
-4668	-7896	14048	14	-18	-17	-12528	-7856	6296	-11	-9	-9	1344	-3736	16584	23	-3	10	-2224	6432	14480	-8	16	-23	-13504	6864	7320	4	-3	11	440	2752	16776	-3	-20	13	127	139	12
-4532	-7680	13816	-1	-5	-25	-12288	-7840	6480	-1	-3	-4	1496	-3920	16320	22	1	6	-2376	6480	14464	-7	13	-27	-13376	6888	7448	23	-9	17	752	2592	16576	15	-19	20	127	139	12
-4860	-8156	13808	3	-6	-26	-12328	-8248	6440	-7	-2	-1	1552	-4000	16608	26	-1	6	-2344	6768	14640	-19	16	-30	-13512	7200	7080	0	0	19	472	2672	16800	3	-13	19	127	138	12
-4612	-7884	14120	13	-9	-23	-12408	-8088	6696	-10	-3	-6	1472	-3968	16560	15	4	8	-2144	6352	14656	-11	19	-25	-13616	6928	7480	4	4	10	464	2616	16736	10	-14	22	127	138	12
-4652	-7848	13932	4	-9	-23	-12448	-7984	6464	14	-4	-2	1512	-4008	16504	22	7	3	-2328	6520	14552	-12	18	-23	-13472	7072	7384	13	-3	15	440	2600	16696	10	-16	23	127	137	12
-4752	-8104	13672	10	-13	-19	-12584	-8000	6616	4	-10	-9	1368	-3736	16632	31	-3	13	-2456	6544	14448	-16	21	-27	-13688	7040	7368	-1	1	22	368	2680	16800	4	-16	22	127	139	12
-4504	-7804	13832	10	-9	-21	-12544	-7912	6672	-12	-6	-6	1448	-3800	16384	24	-1	13	-2328	6576	14552	-8	17	-23	-13344	6840	7352	14	-2	11	320	2672	16504	3	-15	17	127	139	12
-4684	-7888	13824	0	-9	-26	-12248	-7808	6568	5	-1	0	1432	-3880	16296	31	-4	9	-2288	6528	14576	-8	15	-29	-13512	7232	7376	23	-12	24	528	2704	16784	9	-21	20	128	139	12
-4776	-8052	13892	9	-13	-23	-12392	-8160	6232	-8	-5	-7	1456	-3912	16744	30	-3	11	-2304	6424	14480	-13	16	-26	-13608	7040	7240	4	-2	20	416	2712	16936	7	-14	18	127	138	12
-4484	-7796	13968	10	-15	-23	-12480	-7904	6520	3	-5	-1	1312	-4008	16488	27	-5	5	-2280	6608	14472	-6	17	-22	-13592	7024	7360	11	-5	14	552	2672	17000	11	-16	15	127	138	12
-4752	-8080	13964	3	-9	-24	-12440	-8040	6240	9	-5	-1	1400	-3880	16688	30	2	5	-2336	6544	14720	-12	17	-25	-13704	7232	7264	1	-5	24	448	2664	17008	4	-15	19	127	138	12
-4748	-7968	13876	19	-12	-15	-12552	-8032	6576	-7	-11	-4	1400	-3872	16448	35	-3	8	-2376	6264	14384	-5	16	-22	-13624	6920	7392	3	-3	20	480	2760	16848	6	-20	20	127	138	12
-4596	-7636	14036	3	-8	-22	-12344	-7800	6624	4	-2	2	1440	-3904	16384	22	0	5	-2256	6512	14288	-3	17	-21	-13320	7176	7360	18	-4	16	632	2640	16696	12	-13	16	126	138	12
-4772	-8076	13764	5	-5	-25	-12216	-8032	6416	5	-5	-3	1408	-3800	16544	25	6	4	-2384	6632	14560	-16	21	-29	-13776	7200	7512	8	-8	19	528	2848	16824	8	-13	22	127	139	12
-4732	-8020	13836	17	-17	-22	-12472	-7816	6464	-11	-7	-8	1408	-3688	16528	17	0	3	-2208	6256	14472	-12	27	-25	-13616	7056	7072	-1	5	14	336	2608	16896	8	-16	17	126	138	12
-4648	-7664	13916	1	-9	-21	-12360	-7800	6584	4	0	-6	1376	-3848	16488	19	-1	6	-2352	6576	14616	-7	29	-25	-13520	7144	7280	14	-5	16	552	2704	16904	8	-17	22	127	137	12
-4820	-8136	13816	-6	-11	-20	-12464	-7920	6512	2	-2	-8	1576	-3800	16744	28	-3	10	-2400	6472	14536	-16	23	-28	-13488	7024	7120	-1	1	19	456	2736	16800	-4	-14	22	126	138	12
-4572	-7872	13944	-1	-19	-18	-12688	-7960	6632	-8	-6	-6	1416	-3840	16664	16	-10	10	-2296	6376	14512	-8	19	-23	-13480	6872	7312	8	3	9	544	2720	16544	1	-18	22	126	139	12
-4532	-7828	13936	-7	-8	-19	-12432	-7920	6560	8	2	5	1496	-3880	16568	19	-1	4	-2328	6568	14480	-12	17	-25	-13440	7048	7144	21	-8	14	736	2720	16768	5	-21	22	126	138	12
-4824	-8172	13776	1	-10	-22	-12304	-8080	6392	0	-4	-7	1464	-3680	16552	21	-4	7	-2384	6304	14696	-20	15	-28	-13656	7000	7184	-2	-3	21	456	2752	16832	5	-14	20	126	139	12
-4656	-7840	13908	20	-17	-14	-12560	-7936	6776	-8	-1	-7	1536	-3808	16280	9	-6	7	-2160	6360	14616	-6	14	-23	-13544	6912	7672	12	2	13	536	2640	16608	8	-18	12	127	139	12
-4660	-7816	13900	10	-10	-18	-12352	-7776	6240	8	-3	3	1376	-3688	16368	18	-1	3	-2288	6648	14600	-16	14	-25	-13568	7192	7104	17	-10	19	504	2520	16912	2	-19	16	128	139	12
-4764	-8132	13944	23	-17	-17	-12496	-8096	6664	-6	-5	-2	1496	-3888	16472	23	-4	6	-2360	6440	14696	-15	13	-24	-13568	7056	7176	-6	0	18	408	2616	16712	1	-23	18	127	139	12
-4540	-7684	13964	12	-9	-17	-12448	-7920	6336	-5	-10	-1	1488	-4056	16240	16	2	-1	-2264	6448	14360	-3	17	-20	-13424	6912	7232	9	-5	11	608	2640	16488	6	-18	16	128	139	12
-4784	-8056	13840	5	-12	-28	-12208	-7952	6496	1	-5	3	1440	-3880	16504	19	-2	-1	-2328	6632	14584	-18	12	-24	-13440	7096	7640	15	-8	24	600	2696	16776	7	-17	14	128	138	12
-4704	-8144	13876	20	-10	-19	-12576	-8184	6384	-21	-8	-12	1552	-3728	16440	12	-6	4	-2304	6336	14632	-15	16	-26	-13648	6904	7384	-3	-2	19	512	2744	16816	6	-17	16	127	139	12
-4500	-7724	13932	15	-11	-20	-12480	-8056	6584	0	-10	-5	1536	-4008	16368	8	-4	-1	-2256	6608	14480	-6	11	-22	-13488	7040	7224	12	-4	14	568	2560	16728	8	-19	15	127	139	12
-4760	-8048	13876	6	-14	-25	-12280	-7904	6496	12	2	-6	1568	-3920	16744	28	-4	4	-2456	6600	14560	-16	16	-26	-13688	7144	7240	14	-4	24	528	2648	16888	-4	-22	16	127	138	12
-4784	-7996	13932	17	-7	-23	-12680	-8024	6544	-6	-3	-2	1392	-3872	16656	20	-5	2	-2280	6280	14640	-7	20	-27	-13728	6888	7488	3	-3	18	632	2624	16480	0	-14	17	128	138	12
-4572	-7692	13916	11	-11	-22	-12312	-7864	6720	-4	-5	-3	1440	-3912	16392	19	2	1	-2272	6672	14568	-4	19	-27	-13480	6992	7304	14	-6	15	656	2496	16496	4	-16	18	128	139	12
-4804	-8168	13744	8	-12	-18	-12384	-8152	6592	-5	-5	2	1352	-3872	16664	21	-8	8	-2392	6536	14632	-15	17	-28	-13552	7120	7432	-1	-2	19	584	2680	16808	5	-17	16	127	139	12
-4640	-7888	13976	19	-12	-20	-12440	-8096	6528	-3	-5	-5	1440	-3872	16328	13	-4	13	-2240	6376	14576	-6	17	-22	-13560	6856	7176	-2	3	12	520	2648	16576	8	-17	18	127	138	12
-4624	-7768	13816	6	-9	-21	-12344	-7872	6496	10	-1	3	1536	-4040	16208	22	-1	7	-2440	6632	14528	-13	21	-26	-13480	7216	7400	14	-6	15	536	2696	16440	4	-19	19	127	137	12
-4788	-8168	13896	9	-16	-21	-12496	-8104	6464	-2	-4	-5	1376	-3936	16480	26	-3	8	-2392	6424	14504	-18	20	-24	-13736	6984	7264	2	-4	20	264	2736	16840	8	-21	22	127	138	12
-4672	-7772	13988	11	-17	-18	-12504	-7952	6528	-6	-4	-9	1496	-3912	16624	19	-4	11	-2152	6312	14432	-1	17	-17	-13384	6992	7240	12	-3	16	520	2528	16496	7	-16	22	127	139	12
-4716	-7872	13848	2	-13	-22	-12392	-8024	6528	8	-1	1	1528	-3872	16368	28	-3	7	-2400	6840	14464	-10	17	-25	-13608	7120	7360	24	-10	23	512	2736	16696	13	-16	18	127	138	12
-4736	-8140	13892	12	-11	-17	-12416	-8120	6384	-1	-6	-3	1416	-3776	16448	31	-2	9	-2288	6440	14688	-10	13	-28	-13632	7168	7240	8	-7	22	336	2656	16896	8	-11	15	127	139	12
-4536	-7764	13960	16	-16	-20	-12440	-7776	6712	-1	-3	1	1432	-3896	16552	20	0	8	-2296	6440	14624	-6	18	-24	-13360	7048	7264	11	-8	19	512	2840	16576	7	-15	11	128	139	12
-4724	-7952	13824	6	-16	-24	-12440	-7856	6600	3	-2	2	1360	-3584	16552	29	0	3	-2544	6624	14432	-12	17	-25	-13552	7192	7296	11	-12	27	576	2800	16736	2	-16	14	127	139	12
-4760	-8056	13908	18	-18	-18	-12616	-8080	6368	-10	-6	-3	1464	-3776	16352	24	-3	6	-2240	6288	14440	-11	19	-21	-13616	7096	7408	0	-1	18	392	2768	16504	0	-21	14	127	140	12
-4492	-7688	13988	11	-11	-21	-12320	-7816	6888	0	0	-3	1592	-3888	16264	13	-2	2	-2184	6568	14456	-2	13	-18	-13352	7216	7296	20	-9	18	704	2808	16760	5	-19	13	127	140	12
-4764	-8064	13788	9	-9	-21	-12304	-7936	6616	5	-5	-2	1376	-3816	16568	28	-3	9	-2392	6584	14632	-13	15	-26	-13288	7176	7312	17	-12	25	512	2728	17112	2	-23	14	127	138	12
-4744	-7976	14016	19	-19	-21	-12632	-7928	6616	-4	-4	-7	1416	-3736	16512	20	-2	2	-2224	6368	14632	-12	16	-26	-13592	6944	7304	4	5	14	528	2800	16512	6	-19	21	127	138	12
-4508	-7732	14020	5	-9	-21	-12472	-7944	6496	3	-7	0	1272	-3848	16472	22	0	4	-2424	6656	14296	-16	16	-27	-13448	7128	6984	16	-9	18	488	2784	16696	9	-17	19	127	138	12
-4848	-8140	13864	9	-12	-24	-12520	-7824	6416	7	-3	-6	1456	-3968	16568	20	2	4	-2512	6496	14536	-21	15	-28	-13720	7104	7312	0	2	20	520	2592	16872	2	-19	18	127	138	12
-4612	-7740	13984	10	-17	-16	-12576	-7912	6432	-7	-3	-12	1488	-3920	16392	19	-1	9	-2144	6232	14504	-6	16	-23	-13520	7000	7168	3	1	15	400	2736	16552	0	-13	20	127	139	12
-4536	-7796	13908	1	-10	-25	-12448	-7944	6480	0	-3	0	1400	-3936	16184	20	4	6	-2368	6592	14592	-14	21	-27	-13376	6984	7432	24	-16	18	536	2544	16720	5	-20	21	127	138	12
-4888	-8140	13772	10	-16	-19	-12560	-8168	6400	-1	-4	-1	1560	-3936	16560	24	2	8	-2400	6600	14736	-20	16	-29	-13712	7088	7176	6	-4	26	568	2488	16800	4	-12	21	127	138	12
-4608	-7860	14016	16	-17	-23	-12480	-7912	6464	-2	-3	-8	1296	-4048	16488	17	-4	2	-2192	6384	14456	-6	19	-20	-13544	7008	7544	3	0	20	592	2472	16560	10	-18	11	127	139	12
-4600	-7884	13872	2	-12	-27	-12424	-8040	6400	7	-6	5	1440	-3984	16776	24	-4	0	-2416	6744	14712	-9	16	-21	-13576	6960	7368	14	-12	16	568	2680	16888	2	-22	12	127	138	12
-4828	-8168	13828	18	-12	-19	-12424	-8096	6664	-3	-2	-5	1440	-4048	16712	34	-2	4	-2432	6328	14256	-11	18	-25	-13536	6992	7184	3	-3	20	472	2560	16872	-4	-20	12	126	138	12
-4492	-7764	13972	11	-9	-21	-12336	-7968	6616	-4	-2	0	1400	-3936	16360	19	-2	6	-2232	6592	14520	-3	17	-20	-13400	6936	7304	16	-9	15	736	2608	16512	10	-15	14	127	139	12
-4764	-7964	13816	1	-8	-18	-12184	-7864	6560	10	-3	0	1432	-3832	16432	27	-3	6	-2472	6656	14552	-10	15	-24	-13536	6976	6992	16	-11	24	480	2656	16536	8	-17	16	127	139	12
-4808	-8036	13884	17	-15	-15	-12432	-8064	6464	3	-6	-6	1400	-3800	16632	22	-3	6	-2400	6336	14400	-9	15	-24	-13552	7048	7288	4	-1	20	544	2672	16368	7	-17	13	127	139	12
-4544	-7700	13980	6	-13	-21	-12536	-7792	6360	4	-6	0	1288	-3904	16376	21	-1	2	-2368	6400	14360	-6	16	-22	-13360	6904	7256	14	-7	16	488	2680	16728	9	-18	18	127	139	12
-4768	-8072	13844	3	-17	-20	-12328	-7968	6568	5	-6	1	1544	-3864	16400	34	-1	2	-2280	6664	14496	-16	18	-29	-13456	7104	7560	9	-8	23	544	2768	16872	2	-17	15	128	138	12
-4684	-7940	13900	14	-8	-19	-12624	-7936	6720	-11	-10	-2	1472	-3888	16392	31	-5	6	-2248	6320	14416	-8	16	-22	-13704	7048	7336	0	-2	16	448	2592	16768	6	-19	18	128	139	12
-4532	-7664	13872	4	-8	-21	-12440	-7840	6424	4	-5	-3	1600	-4000	16400	26	-2	4	-2256	6640	14624	-4	15	-20	-13496	7152	7272	29	-13	17	760	2712	16824	9	-19	16	128	138	12
-4808	-8096	13820	6	-16	-23	-12224	-7984	6328	10	-3	4	1504	-3784	16472	32	-1	6	-2376	6600	14584	-14	16	-25	-13712	7184	7472	15	-7	25	616	2664	16760	4	-19	18	127	138	12
-4648	-7884	13912	19	-18	-13	-12576	-8024	6440	-9	-7	-6	1552	-3960	16488	22	-2	4	-2200	6376	14536	-6	18	-20	-13544	6992	7280	1	0	20	504	2800	16376	5	-11	14	127	138	12
-4500	-7736	13928	3	-11	-24	-12320	-7792	6408	1	-2	2	1528	-3776	16448	27	7	0	-2328	6512	14312	-11	14	-26	-13504	7096	7544	12	-10	21	504	2856	16632	1	-14	13	127	138	12
-4604	-7788	13888	3	-6	-26	-12440	-8080	6600	-1	-5	2	1424	-3816	16728	34	0	6	-2488	6384	14680	-16	14	-28	-13712	6960	7096	4	-7	24	512	2768	17024	5	-13	17	127	139	12
-4596	-7828	14004	14	-24	-20	-12528	-8104	6560	-4	-4	-7	1440	-3864	16384	18	-1	2	-2288	6520	14656	-1	20	-25	-13512	6968	7392	9	-1	16	664	2680	16680	6	-18	15	127	139	12
-4660	-7772	13952	-4	-8	-25	-12360	-7784	6464	8	-2	2	1392	-3808	16496	21	3	3	-2344	6616	14272	-11	23	-26	-13432	6984	7504	14	-5	13	656	2616	16888	8	-19	12	127	138	12
-4716	-8116	13840	6	-15	-18	-12504	-8000	6360	-1	-7	-6	1488	-3736	16632	27	-1	9	-2408	6440	14808	-14	26	-29	-13624	7088	7400	2	-3	21	640	2624	16728	2	-15	15	127	139	12
-4620	-7764	13996	4	-18	-21	-12696	-7976	6728	-7	1	-8	1408	-3912	16456	18	2	8	-2280	6536	14584	-12	25	-28	-13440	7016	7432	1	0	16	608	2792	16744	7	-18	16	127	139	12
-4580	-7700	14056	2	-13	-21	-12328	-8024	6352	8	0	1	1368	-3864	16448	28	0	4	-2352	6656	14520	-15	22	-27	-13616	7104	7336	9	-10	18	632	2808	16824	5	-21	22	127	139	12
-4808	-8144	13956	-3	-18	-18	-12544	-8048	6448	2	-4	-5	1576	-3976	16768	28	2	5	-2344	6392	14528	-10	18	-29	-13672	7000	7480	-4	6	15	600	2560	16624	4	-16	19	126	137	12
-4556	-7688	13960	-1	-7	-24	-12488	-7856	6664	3	-3	1	1352	-3976	16296	18	-4	4	-2312	6496	14496	-3	19	-23	-13408	6936	7008	15	-7	12	576	2664	16480	4	-20	19	127	139	12
-4768	-8016	13828	-7	-12	-27	-12344	-7928	6696	2	-1	-1	1448	-3816	16688	28	2	7	-2520	6648	14696	-22	14	-27	-13336	7104	7224	21	-8	21	664	2544	16800	4	-17	15	127	139	12
-4840	-8036	13920	15	-12	-19	-12616	-8024	6424	-12	-5	-10	1200	-3784	16632	20	-5	6	-2272	6520	14672	-13	11	-22	-13640	7000	7128	7	5	22	488	2504	16704	8	-13	15	127	139	12
-4492	-7768	13920	14	-11	-20	-12456	-7840	6640	-4	-4	2	1464	-3952	16568	14	2	1	-2416	6624	14544	-7	11	-22	-13536	6960	7136	14	-6	19	600	2648	16616	8	-15	12	127	139	12
-4788	-8192	13860	12	-9	-23	-12408	-8160	6344	3	-4	-4	1488	-3800	16488	29	2	5	-2392	6544	14688	-15	14	-23	-13608	7152	7312	5	-9	21	352	2696	17008	3	-22	15	127	139	12
-4608	-7948	13956	20	-10	-18	-12520	-8000	6600	-14	-8	-7	1480	-3776	16256	24	3	2	-2192	6240	14456	-2	13	-23	-13736	7000	7408	2	0	17	632	2696	16664	8	-17	18	127	139	12
-4536	-7792	13792	11	-8	-22	-12440	-7832	6392	0	-5	1	1736	-3832	16328	23	9	1	-2288	6536	14280	-7	16	-24	-13288	7112	7400	15	-9	15	704	2688	16736	3	-15	17	128	138	12
-4808	-8120	13820	13	-16	-21	-12360	-7920	6472	-1	-4	-8	1456	-3752	16600	28	3	6	-2384	6368	14720	-11	15	-27	-13560	7072	7392	4	-5	24	496	2752	16832	8	-12	16	127	139	12
-4620	-7880	13992	18	-17	-19	-12600	-7864	6288	-7	-3	-8	1496	-3904	16648	22	-1	8	-2256	6360	14528	-5	21	-23	-13640	6912	7544	7	0	17	472	2504	16592	8	-13	19	128	139	12
-4676	-7768	13868	1	-9	-23	-12344	-7744	6488	5	-5	-3	1616	-4104	16512	28	1	1	-2368	6632	14544	-11	15	-27	-13480	7192	7368	20	-8	17	552	2808	16768	7	-17	20	127	139	12
-4812	-8216	13828	11	-9	-22	-12624	-8128	6704	-1	-4	-3	1448	-3752	16504	34	-2	7	-2424	6400	14520	-15	15	-29	-13624	7144	7088	-4	0	19	464	2848	16824	0	-17	15	127	139	12
-4564	-7776	13976	13	-8	-23	-12592	-8024	6624	1	-4	-7	1488	-3952	16480	25	3	3	-2080	6600	14368	-8	18	-23	-13496	6960	7424	3	-1	14	648	2816	16512	6	-15	21	127	139	12
-4752	-7924	13800	3	-7	-28	-12328	-7832	6520	9	-4	-7	1536	-3752	16392	24	8	3	-2360	6872	14632	-18	15	-32	-13328	7192	7464	11	-7	20	584	2776	16744	5	-14	15	127	138	12
-4792	-8132	13820	15	-17	-21	-12576	-7976	6448	-4	0	-4	1440	-3816	16768	28	-2	8	-2424	6488	14520	-18	22	-31	-13688	7152	7224	-6	4	16	472	2632	17024	6	-17	21	126	139	12
-4516	-7800	13968	12	-7	-21	-12544	-7976	6296	-5	-4	-6	1480	-3984	16472	16	2	4	-2280	6440	14448	-6	22	-25	-13336	6936	7336	8	-3	14	720	2696	16544	9	-19	17	127	139	12
-4744	-7992	13872	3	-10	-24	-12368	-7896	6568	10	-3	-6	1448	-3864	16656	29	1	5	-2352	6528	14272	-16	17	-27	-13616	7080	7368	15	-9	19	504	2688	16776	3	-16	18	127	139	12
-4772	-8092	13836	13	-17	-19	-12520	-8104	6488	-9	-7	-13	1320	-3856	16352	26	-2	9	-2288	6288	14520	-9	15	-26	-13768	6888	7216	6	-3	17	448	2552	16832	9	-16	17	127	139	12
-4512	-7728	13884	6	-16	-18	-12448	-7976	6648	0	-2	1	1504	-3976	16256	20	-2	5	-2256	6528	14600	-4	20	-21	-13424	6976	7488	19	-7	20	656	2688	16600	12	-17	14	127	139	12
-4820	-8104	13800	4	-8	-24	-12288	-8056	6360	8	-2	1	1464	-3744	16448	24	1	5	-2400	6456	14624	-16	17	-21	-13560	7168	7264	11	-4	23	488	2632	17000	5	-17	16	127	139	12
-4652	-8032	13896	24	-14	-17	-12584	-7984	6592	2	-6	-4	1264	-3832	16296	13	-5	7	-2344	6360	14560	-6	15	-20	-13624	6912	7368	6	2	20	504	2760	16728	4	-18	17	127	139	12
-4548	-7748	14024	10	-9	-20	-12352	-7816	6512	5	-2	2	1552	-3872	16616	17	-4	-2	-2368	6584	14448	-8	14	-24	-13376	7048	7032	14	-11	19	688	2680	16744	6	-19	13	128	138	12
-4824	-8188	13988	12	-15	-23	-12528	-7952	6448	6	-5	1	1448	-3864	16536	20	-7	6	-2472	6536	14352	-15	18	-22	-13664	7112	7272	2	-2	23	528	2768	16784	0	-17	12	127	140	12
-4652	-7792	14020	20	-16	-12	-12592	-7936	6496	-9	-1	-4	1432	-3880	16784	13	-6	3	-2232	6448	14264	2	13	-19	-13496	6880	7336	5	-1	12	536	2808	16608	2	-18	14	127	139	12
-4632	-7784	13800	6	-9	-24	-12216	-7696	6392	2	4	3	1408	-3984	16248	15	3	-3	-2216	6760	14160	-8	20	-22	-13480	7192	7496	25	-12	23	832	2624	16472	8	-15	15	127	138	12
-4808	-8248	13908	12	-13	-23	-12488	-8016	6488	-3	-7	0	1344	-3912	16632	19	-7	5	-2392	6608	14768	-20	14	-28	-13704	7168	7488	-1	1	22	608	2624	16904	4	-17	18	127	138	12
-4588	-7892	13996	15	-15	-17	-12720	-7800	6448	-10	-9	-3	1416	-3808	16544	8	-2	6	-2128	6432	14408	-10	18	-22	-13448	6896	7448	3	-3	13	584	2680	16832	6	-16	20	127	139	12
-4652	-7792	13876	5	-14	-22	-12408	-7800	6576	5	-2	-2	1432	-3912	16480	18	-2	3	-2416	6704	14432	-16	19	-29	-13488	7104	7392	14	-8	17	576	2768	16896	1	-19	18	127	139	12
-4788	-8080	13812	12	-16	-18	-12560	-8048	6240	-8	-5	-9	1344	-3776	16664	19	-6	6	-2440	6320	14608	-15	15	-26	-13592	6968	7200	0	-2	19	464	2800	16648	1	-18	22	127	139	12
-4528	-7756	14016	11	-12	-23	-12528	-7848	6864	-5	-3	-6	1416	-3816	16504	15	-2	7	-2224	6440	14552	-4	20	-22	-13344	6912	7512	15	-7	16	656	2544	16512	5	-20	20	127	138	12
-4712	-7944	13772	2	-10	-27	-12416	-7768	6328	-2	-6	0	1464	-3800	16248	20	-5	7	-2424	6536	14560	-19	12	-27	-13528	7216	7208	13	-8	19	656	2720	16584	-3	-17	13	127	138	12
-4724	-8072	13820	13	-11	-17	-12544	-8144	6520	-9	-6	-6	1592	-3896	16600	19	-4	9	-2344	6464	14640	-14	19	-23	-13656	6928	7240	3	0	16	384	2600	16536	4	-17	14	127	139	12
-4544	-7696	13936	8	-7	-22	-12552	-7992	6664	-1	-1	-3	1392	-3960	16360	18	-2	4	-2160	6512	14688	-7	20	-20	-13464	6984	7472	11	-3	17	616	2512	16616	3	-16	17	127	139	12
-4852	-8100	13900	7	-14	-23	-12448	-8000	6392	8	-6	-5	1368	-3792	16728	29	1	3	-2448	6600	14632	-17	18	-24	-13616	7248	7168	8	-3	20	504	2680	16912	4	-19	18	128	138	12
-4716	-7952	14024	16	-12	-22	-12768	-7904	6488	-7	-4	-7	1400	-3936	16392	22	-3	5	-2232	6384	14576	-7	16	-26	-13576	6920	7088	4	-6	16	536	2792	16736	7	-21	11	127	139	12
-4616	-7732	13916	6	-4	-24	-12392	-7800	6520	5	-4	3	1368	-3848	16272	22	1	5	-2272	6768	14640	-8	17	-21	-13264	7112	7592	22	-12	22	632	2648	16744	12	-19	17	127	138	12
-4808	-8116	13804	7	-13	-26	-12336	-8056	6272	2	-8	2	1464	-3944	16512	27	-3	2	-2528	6552	14392	-18	17	-25	-13488	7072	7376	7	-5	22	568	2704	16904	14	-16	16	127	138	12
-4656	-7984	13996	19	-13	-19	-12688	-7920	6312	-3	-11	-4	1504	-3920	16304	19	-2	8	-2096	6440	14712	-7	17	-25	-13560	7016	7520	3	-3	21	552	2632	16792	14	-16	15	127	139	12
-4600	-7820	13980	5	-7	-20	-12400	-7944	6248	6	-4	5	1568	-3968	16608	27	2	4	-2248	6672	14480	-9	19	-22	-13504	7048	7232	16	-6	21	448	2752	16792	8	-22	22	128	138	12
-4780	-8068	13840	9	-16	-19	-12424	-8016	6496	-1	-2	-3	1456	-3896	16656	35	-7	7	-2432	6392	14632	-10	15	-21	-13712	7112	7408	7	-9	22	576	2800	16936	-1	-19	18	127	137	12
-4624	-7808	13944	10	-16	-22	-12576	-7896	6320	-9	-9	-1	1432	-3928	16496	20	1	5	-2256	6360	14264	4	19	-24	-13392	7040	7360	12	0	17	680	2560	16544	8	-21	19	128	138	12
-4644	-7872	13976	5	-10	-24	-12272	-7928	6808	13	-6	6	1608	-3848	16336	28	4	4	-2360	6672	14640	-10	16	-24	-13456	7120	7184	13	-9	22	696	2696	17072	9	-17	17	127	138	12
-4808	-8108	13876	14	-13	-19	-12432	-7864	6432	6	-2	1	1360	-3848	16712	28	4	6	-2232	6520	14376	-21	19	-28	-13632	7216	7312	-3	1	23	288	2712	16680	8	-16	18	128	139	12
-4540	-7768	14020	14	-15	-18	-12576	-7800	6640	3	2	-4	1288	-3864	16480	18	3	-1	-2272	6352	14344	-9	19	-24	-13536	6968	7328	10	-4	17	608	2656	16872	11	-15	15	128	137	12
-4772	-7888	13840	-1	-14	-26	-12352	-7840	6592	4	-2	-1	1512	-3792	16632	26	0	2	-2360	6728	14592	-19	18	-27	-13592	7184	7232	11	-7	20	472	2776	16440	5	-13	15	128	139	12
-4740	-8064	13936	9	-13	-21	-12456	-7864	6720	-8	-8	-9	1432	-3864	16744	26	-1	7	-2304	6392	14680	-14	18	-25	-13632	7040	7088	1	6	18	400	2712	16744	2	-17	18	127	140	12
-4520	-7688	13940	3	-12	-22	-12432	-7824	6744	-4	-4	-9	1464	-4024	16480	19	3	8	-2328	6616	14312	-4	28	-26	-13464	7000	7232	15	-7	12	576	2560	16800	11	-17	15	127	139	12
-4788	-8060	13920	-10	-7	-26	-12344	-8000	6264	7	4	-5	1368	-3840	16512	30	1	9	-2384	6616	14408	-21	27	-27	-13568	7168	7288	9	-8	24	608	2776	16936	7	-18	20	126	139	12
-4760	-7940	13980	0	-16	-17	-12568	-8024	6512	-3	-6	-15	1440	-3984	16656	29	2	9	-2176	6424	14456	-15	19	-30	-13672	6944	7160	-2	5	16	576	2712	16776	7	-14	18	127	138	12
-4520	-7620	14012	-11	-11	-19	-12408	-7904	6336	13	1	-3	1360	-3960	16584	28	0	5	-2384	6696	14624	-16	17	-24	-13504	6856	7576	13	-6	15	704	2528	16648	8	-16	20	127	139	12
-4812	-8104	13792	-10	-14	-26	-12312	-8032	6768	12	5	-8	1336	-3920	16392	37	1	13	-2440	6456	14728	-17	14	-31	-13808	7072	7200	6	-4	23	632	2624	16464	2	-18	22	127	139	12
-4716	-7880	13964	10	-14	-16	-12576	-8024	6392	-3	-3	-5	1488	-3888	16376	26	-2	14	-2288	6240	14552	-10	11	-23	-13584	6928	7184	13	-4	14	480	2624	16504	6	-16	17	127	138	12
-4544	-7780	13892	3	-12	-28	-12320	-7904	6512	2	-3	-5	1304	-3984	16424	28	1	2	-2296	6520	14456	-11	11	-17	-13392	7096	7504	27	-13	14	760	2480	16704	10	-12	20	127	138	12
-4828	-8196	13752	10	-14	-22	-12360	-7928	6336	-2	-3	-7	1512	-3952	16744	28	2	8	-2448	6448	14376	-13	10	-30	-13616	7240	7320	6	-2	25	304	2600	16728	7	-17	16	127	139	12
-4676	-7784	13968	24	-17	-17	-12600	-8000	6408	-4	-5	-5	1376	-4048	16760	16	2	0	-2152	6424	14576	-4	15	-25	-13392	7008	7176	7	-1	16	536	2696	16584	11	-13	13	127	139	12
-4676	-7856	13880	10	-10	-22	-12416	-7736	6560	0	-3	2	1568	-3864	16552	21	7	-4	-2448	6720	14408	-12	13	-26	-13432	7120	7368	19	-8	22	592	2584	16792	7	-18	14	127	138	12
-4796	-8188	13884	20	-15	-20	-12648	-8080	6408	-8	-8	-2	1496	-3752	16704	25	2	2	-2384	6456	14272	-10	17	-26	-13576	7184	7072	1	0	24	416	2632	16696	2	-14	17	127	138	12
-4692	-7812	14064	16	-11	-23	-12568	-7896	6512	-5	-5	-1	1416	-3984	16584	17	1	2	-2192	6368	14520	-1	14	-19	-13352	6728	7256	13	-9	15	608	2736	16712	8	-19	16	127	139	12
-4752	-7908	13912	10	-14	-20	-12320	-7856	6440	6	-7	-2	1632	-3832	16432	25	5	-1	-2328	6672	14448	-11	15	-28	-13440	7056	7448	23	-15	22	616	2736	16936	5	-17	18	127	139	12
-4712	-8136	13856	17	-5	-20	-12416	-8000	6704	-4	-5	-5	1296	-3776	16552	23	-3	4	-2264	6320	14656	-9	16	-23	-13568	7232	7224	5	2	22	552	2760	16848	3	-19	16	127	139	12
-4424	-7660	14000	13	-10	-20	-12536	-7616	6640	-4	-4	0	1464	-3864	16536	17	-8	5	-2376	6376	14504	-3	17	-21	-13384	7032	7520	14	-6	16	688	2712	16728	7	-21	15	127	139	12
-4784	-8036	13932	6	-8	-26	-12296	-7848	6512	5	-3	-2	1528	-3888	16616	24	-9	9	-2336	6608	14456	-11	16	-27	-13512	7280	7352	13	-7	17	544	2872	16808	-3	-17	16	126	139	12
-4752	-7972	13892	21	-14	-14	-12728	-7976	6872	-16	-5	-7	1448	-3744	16624	15	-12	13	-2296	6368	14544	-4	15	-23	-13664	7072	7336	-6	3	15	312	2760	16616	-1	-15	20	126	139	12
-4544	-7740	13920	12	-12	-20	-12536	-8056	6416	-3	-3	-3	1368	-3752	16448	7	-6	7	-2360	6584	14416	-8	21	-23	-13560	7144	7408	0	0	13	448	2800	16728	5	-19	19	127	138	12
-4748	-8052	13896	5	-6	-22	-12320	-7952	6728	4	4	-1	1496	-3864	16440	10	-10	7	-2432	6688	14424	-13	21	-25	-13624	7112	7208	9	-2	21	520	2760	16816	-1	-18	18	127	139	12
-4716	-7908	13960	18	-24	-14	-12560	-7976	6592	-16	0	-5	1392	-3904	16600	6	-5	4	-2304	6400	14352	-13	18	-25	-13536	7280	7240	-5	4	11	576	2712	16464	2	-19	21	127	139	12
-4528	-7696	13908	6	-8	-15	-12408	-7800	6560	-1	-3	1	1504	-3952	16384	9	1	0	-2256	6744	14472	-11	18	-26	-13408	6992	7448	13	-2	17	576	2496	16560	4	-20	18	128	139	12
-4784	-8172	13844	3	-16	-20	-12360	-7928	6352	0	-7	-9	1560	-3952	16600	17	-8	6	-2352	6456	14544	-18	19	-24	-13808	7064	7176	5	-3	16	488	2656	16888	-1	-19	19	128	139	12
-4620	-7844	13996	15	-11	-18	-12464	-7936	6568	-11	-9	-6	1448	-3888	16392	16	-6	8	-2240	6392	14336	-4	17	-26	-13624	6888	7240	12	-7	12	440	2504	16552	2	-18	20	127	139	12
-4544	-7720	13744	4	-8	-24	-12240	-7720	6288	6	0	-4	1432	-3928	16136	24	0	5	-2256	6512	14328	-8	14	-23	-13520	6840	7216	12	-2	12	552	2616	16392	7	-16	17	127	138	12
-4824	-8188	13920	6	-14	-23	-12320	-7936	6480	-1	-8	-6	1336	-3792	16864	30	-2	6	-2344	6784	14696	-14	13	-23	-13664	7208	7328	4	-6	18	552	2664	16760	2	-14	14	128	139	12
-4592	-7836	13964	9	-13	-21	-12584	-7792	6416	-8	-4	-9	1400	-3888	16496	19	-5	11	-2224	6432	14416	-4	15	-20	-13504	6880	7376	3	-3	13	544	2672	16512	5	-20	13	127	138	12
-4664	-7880	13936	0	-12	-25	-12256	-8000	6424	10	0	-2	1624	-3880	16536	29	2	7	-2312	6328	14408	-8	13	-24	-13528	7216	7448	12	-9	18	632	2664	16936	5	-16	14	127	139	12
-4812	-8140	13852	12	-14	-24	-12504	-7992	6616	-6	-5	-8	1512	-4000	16624	31	5	6	-2360	6480	14688	-13	16	-28	-13624	7000	7104	1	-3	22	400	2720	16784	1	-17	15	127	139	12
-4556	-7732	13964	11	-18	-17	-12552	-7960	6720	2	-6	-4	1448	-3936	16368	21	4	4	-2232	6592	14560	-3	18	-22	-13456	6960	7400	20	-6	16	736	2648	16672	7	-18	14	128	138	12
-4740	-7948	13848	3	-11	-25	-12328	-7928	6424	8	-1	0	1472	-3960	16704	30	3	0	-2440	6664	14440	-18	17	-25	-13560	7192	7384	24	-14	24	648	2680	17024	7	-14	17	127	138	12
-4776	-8100	13844	16	-17	-20	-12520	-8152	6664	-9	-1	-6	1392	-3888	16528	26	-1	7	-2304	6480	14328	-13	13	-29	-13664	7040	7624	5	-1	22	624	2720	16712	7	-16	19	127	139	12
-4592	-7744	13924	15	-10	-21	-12648	-7800	6552	-2	-2	-6	1352	-3880	16616	21	2	3	-2248	6568	14480	-10	17	-25	-13488	7096	7304	11	-4	18	552	2696	16656	7	-16	14	128	139	12
-4784	-8100	13784	7	-15	-21	-12328	-8064	6472	7	-2	1	1352	-3952	16632	30	1	1	-2512	6648	14560	-20	18	-23	-13696	7360	7384	6	-9	29	448	2624	16880	5	-19	17	127	139	12
-4700	-7952	13968	15	-16	-20	-12632	-7912	6336	-9	-6	-9	1504	-3936	16608	28	-5	5	-2344	6280	14640	-9	17	-22	-13664	6992	7296	1	-3	23	536	2776	16768	7	-18	14	127	139	12
-4528	-7612	13932	5	-9	-24	-12368	-7744	6600	5	-5	-1	1408	-3944	16440	27	-3	3	-2304	6576	14512	-2	14	-21	-13352	6832	7200	25	-7	13	616	2544	16512	6	-20	15	128	139	12
-4764	-8152	13776	5	-8	-23	-12256	-7792	6264	7	-5	-2	1536	-3864	16728	38	-2	2	-2520	6592	14336	-17	17	-23	-13512	7272	7192	13	-8	26	480	2760	16512	6	-16	16	127	139	12
-4700	-7980	14016	17	-8	-20	-12400	-7920	6440	-2	-8	-6	1528	-3760	16496	24	1	7	-2328	6232	14336	-9	20	-17	-13512	6976	7520	0	-3	21	472	2704	16600	9	-16	16	127	139	12
-4504	-7764	13972	5	-13	-22	-12224	-7768	6488	10	-3	-7	1536	-3960	16200	30	1	2	-2528	6656	14448	-5	16	-23	-13504	7048	7392	22	-12	20	616	2648	16728	6	-16	17	128	138	12
-4796	-8156	13844	6	-20	-23	-12440	-7920	6432	1	-3	-14	1456	-3952	16432	36	-5	9	-2464	6600	14656	-13	16	-28	-13592	7224	7256	9	-10	17	392	2728	16776	0	-14	18	127	139	12
-4656	-7828	14020	8	-18	-18	-12536	-7864	6504	-12	-5	-10	1352	-3960	16352	26	-2	9	-2176	6360	14664	-8	16	-21	-13528	6864	7584	4	2	17	688	2664	16496	7	-21	15	128	139	12
-4644	-7784	13916	-2	-8	-26	-12368	-7664	6512	3	-3	-2	1480	-3888	16720	30	1	6	-2424	6776	14504	-12	16	-21	-13488	7160	7304	18	-10	17	672	2576	16792	5	-18	18	128	139	12
-4804	-8164	13804	10	-14	-23	-12480	-8200	6440	2	-7	-9	1640	-3800	16728	33	-1	7	-2144	6304	14496	-17	16	-27	-13688	7192	7272	-2	-2	18	360	2712	16904	5	-15	16	127	139	12
-4572	-7800	13976	12	-12	-18	-12616	-7984	6448	-1	-4	-12	1376	-3872	16376	21	-2	4	-2176	6424	14640	-5	18	-21	-13560	7096	7256	1	3	23	576	2496	16480	8	-16	23	127	139	12
-4720	-7972	13984	2	-4	-25	-12272	-7792	6416	11	0	-1	1456	-3944	16496	23	4	5	-2240	6608	14736	-16	18	-26	-13408	7168	7552	15	-11	19	608	2728	16744	8	-22	20	127	139	12
-4824	-8136	13844	13	-20	-15	-12536	-8184	6576	-3	-6	-7	1400	-3928	16712	26	-7	10	-2360	6328	14464	-12	21	-24	-13776	7096	7472	2	-4	20	400	2608	16776	4	-17	18	125	139	12
-4548	-7684	13892	10	-9	-18	-12504	-8016	6576	4	-1	-6	1416	-4072	16432	11	2	4	-2344	6536	14448	-3	18	-23	-13328	7000	7232	11	-5	16	520	2600	16432	8	-18	12	127	139	12
-4708	-8060	13956	2	-12	-21	-12208	-7936	6408	7	3	7	1424	-3840	16536	23	1	-1	-2472	6656	14592	-11	16	-26	-13448	7216	7352	15	-6	21	648	2776	16888	2	-17	16	127	138	12
-4816	-8144	13860	7	-13	-18	-12456	-8112	6160	-9	-5	-4	1496	-3672	16416	11	-5	5	-2400	6544	14552	-8	21	-23	-13792	7008	7280	-3	2	20	496	2688	16816	6	-19	12	127	139	12
-4516	-7704	14004	8	-9	-12	-12392	-7936	6544	-3	0	0	1344	-3928	16448	4	-7	-2	-2304	6656	14744	-5	30	-26	-13400	7160	7192	14	-9	15	672	2680	16424	8	-18	13	127	139	12
-4824	-8084	13808	-2	-14	-18	-12416	-7984	6528	12	-2	5	1368	-3920	16648	18	-17	2	-2408	6632	14784	-11	27	-22	-13560	7224	7096	9	-4	23	520	2768	16896	-1	-22	14	126	137	12
-4812	-7952	13968	6	-11	-17	-12560	-8016	6568	-10	-8	-2	1392	-3680	16624	9	-11	7	-2384	6416	14520	-4	19	-17	-13504	7024	7648	-5	3	14	608	2664	16680	2	-21	18	126	138	12
-4576	-7676	13836	-7	-9	-20	-12368	-7680	6880	-4	-5	4	1504	-3928	16336	13	-4	6	-2368	6536	14736	-5	15	-25	-13352	7104	7160	16	-8	15	632	2560	16608	6	-19	12	127	139	12
-4816	-8136	13880	-1	-20	-20	-12392	-7928	6296	5	-3	2	1544	-3856	16584	20	-2	6	-2400	6600	14456	-22	10	-25	-13648	7096	7336	7	-1	22	536	2736	16832	1	-18	14	127	138	12
-4660	-7924	13904	14	-8	-18	-12592	-7896	6592	-2	-4	-5	1496	-3816	16384	15	-3	7	-2176	6424	14352	-7	16	-24	-13552	6880	7120	1	4	11	376	2680	16728	5	-14	15	127	140	12
-4580	-7784	13908	7	-13	-24	-12464	-7888	6432	7	-2	-4	1320	-3984	16544	10	-3	11	-2280	6600	14408	-13	11	-25	-13416	7152	7360	19	-9	18	504	2736	16880	3	-18	18	128	139	12
-4792	-8104	13864	13	-17	-21	-12608	-8032	6384	2	-5	-10	1448	-3904	16568	29	-3	9	-2296	6368	14424	-16	14	-24	-13776	7152	7176	0	-4	17	656	2592	16872	-2	-20	20	127	139	12
-4824	-8092	14012	11	-15	-20	-12552	-7832	6496	-18	-8	-12	1360	-3968	16584	17	-2	11	-2040	6384	14448	-3	15	-20	-13464	7056	7048	4	1	10	592	2712	16576	7	-17	20	128	138	12
-4712	-7836	13784	3	-6	-27	-12312	-7840	6416	-4	-7	-3	1496	-3912	16192	24	3	9	-2384	6768	14696	-15	14	-25	-13456	7176	7200	15	-10	22	552	2664	16592	5	-17	20	128	138	12
-4744	-7920	13892	-1	-8	-25	-12264	-8080	6336	-8	-7	-8	1480	-3960	16592	24	-3	12	-2336	6320	14376	-18	15	-24	-13640	7240	7328	-5	1	20	568	2640	16960	5	-15	19	128	139	12
-4560	-7800	13948	13	-13	-22	-12584	-7856	6720	-4	-2	-7	1432	-3936	16336	22	0	8	-2184	6424	14736	-8	14	-25	-13416	6920	7424	10	-5	16	512	2648	16584	8	-15	14	128	137	12
-4708	-8064	13844	7	-15	-21	-12248	-7904	6352	20	0	-5	1576	-3984	16512	34	3	6	-2376	6672	14480	-13	10	-28	-13544	7120	7256	15	-12	23	544	2688	16880	7	-17	15	128	138	12
-4764	-7944	13940	16	-16	-18	-12576	-7952	6320	2	-5	-7	1344	-3920	16496	33	0	1	-2520	6328	14512	-8	12	-22	-13704	6976	7352	6	-2	18	424	2728	16720	5	-16	14	127	140	12
-4548	-7692	14000	11	-7	-18	-12344	-7656	6560	7	-5	-5	1424	-3768	16432	31	-2	2	-2272	6616	14384	-1	20	-17	-13200	7040	7464	12	-13	18	648	2696	16536	8	-16	17	128	139	12
-4804	-8080	13900	4	-11	-26	-12336	-7848	6416	3	-4	-7	1464	-3624	16528	40	-1	5	-2424	6568	14328	-15	15	-25	-13400	7200	7272	9	-8	24	536	2744	16736	7	-14	18	127	138	12
-4732	-7988	13908	14	-12	-19	-12696	-7976	6560	-17	-9	-13	1416	-3848	16424	32	-6	11	-2160	6392	14632	-9	13	-23	-13576	6992	7312	-3	2	14	480	2792	16680	4	-13	18	128	138	12
-4540	-7680	13932	5	-8	-22	-12320	-7912	6544	-8	-6	-5	1512	-4088	16256	29	2	12	-2296	6504	14552	-12	17	-25	-13456	7016	7328	9	-8	13	488	2848	16568	9	-15	20	128	139	12
-4812	-8100	13944	3	-16	-27	-12432	-8112	6504	4	-5	-10	1480	-3968	16440	43	-1	6	-2456	6504	14472	-12	20	-27	-13672	7120	7232	-2	-2	23	360	2608	16616	4	-14	24	128	139	12
-4616	-7880	13984	11	-17	-18	-12648	-8000	6632	-2	-8	-10	1280	-3888	16432	33	0	10	-2192	6264	14456	-3	22	-19	-13608	6880	7464	8	-3	16	576	2648	16704	15	-16	24	127	139	12
-4556	-7808	13824	-1	-7	-25	-12368	-7984	6424	10	-4	-4	1360	-3864	16368	31	0	14	-2288	6680	14456	-6	15	-21	-13216	7104	7336	23	-15	17	552	2536	16832	14	-15	23	127	138	12
-4844	-8220	13856	6	-9	-24	-12352	-7976	6360	3	-6	-12	1664	-3800	16656	32	-12	16	-2400	6464	14600	-14	18	-29	-13792	7160	7352	0	-3	19	544	2624	16736	9	-10	22	127	138	12
-4596	-7876	13980	14	-18	-17	-12408	-7944	6528	-7	-10	-14	1416	-3840	16552	28	-9	10	-2104	6288	14416	-7	16	-22	-13512	6976	7384	0	-4	17	504	2624	16680	9	-13	17	126	138	12
-4724	-7864	13860	5	-14	-24	-12496	-7776	6520	8	-5	-7	1528	-4016	16656	30	3	3	-2384	6632	14592	-9	16	-23	-13360	7088	7360	12	-10	25	464	2672	16728	10	-18	15	126	138	12
-4780	-8068	13868	11	-14	-21	-12608	-8072	6296	-1	-7	-11	1424	-4040	16656	30	5	7	-2336	6296	14672	-10	17	-27	-13584	7064	7400	-4	-4	20	528	2728	16656	2	-14	12	127	139	12
-4516	-7848	14016	5	-11	-25	-12520	-7968	6624	-8	-8	-4	1408	-3784	16496	15	4	4	-2304	6440	14632	-6	17	-22	-13360	6928	7168	12	-9	22	688	2640	16480	8	-17	18	127	138	12
-4764	-8060	13888	-1	-16	-24	-12360	-8000	6424	4	-12	-2	1480	-3768	16472	23	4	0	-2344	6568	14592	-13	15	-24	-13480	7112	7128	15	-15	24	600	2528	16784	6	-13	18	127	138	12
-4716	-7992	13756	15	-14	-19	-12480	-8040	6632	-6	-8	-12	1552	-3856	16400	27	-4	9	-2296	6320	14680	-10	13	-26	-13608	7032	7192	5	3	18	456	2784	16768	11	-13	23	127	139	12
-4564	-7596	13896	7	-16	-22	-12504	-7856	6624	10	-3	-3	1368	-3776	16592	28	0	12	-2336	6736	14288	-3	11	-22	-13376	6968	7320	17	-3	14	704	2608	16904	12	-14	24	127	138	12
-4828	-8120	13892	3	-6	-24	-12528	-7784	6544	7	0	-4	1456	-3920	16336	42	-3	13	-2536	6472	14432	-16	16	-26	-13640	7120	7232	10	-5	23	416	2688	16720	11	-14	22	126	138	12
-4696	-7880	13968	13	-9	-20	-12576	-8056	6432	-12	-11	-11	1480	-3840	16608	38	-1	15	-2160	6360	14552	-8	19	-21	-13712	6880	7304	3	0	16	440	2680	16616	12	-16	24	127	139	12
-4496	-7736	13920	1	-10	-23	-12416	-7864	6624	2	-5	-2	1424	-3904	16216	30	4	7	-2280	6624	14544	-9	23	-26	-13336	7152	7112	20	-9	16	640	2640	16688	13	-19	23	127	139	12
-4760	-8140	13884	10	-8	-23	-12344	-8144	6416	12	-5	0	1608	-3920	16416	31	0	9	-2376	6592	14616	-13	16	-28	-13632	7144	7368	0	-2	25	504	2632	16792	4	-20	15	127	138	12
-4652	-7896	14052	17	-8	-18	-12632	-7856	6256	-4	-7	-3	1496	-3736	16528	17	-2	7	-2176	6360	14552	-5	17	-26	-13504	6968	7104	0	-2	19	480	2744	16504	4	-17	15	127	139	12
-4612	-7860	13940	5	-11	-24	-12296	-7712	6464	8	-1	1	1576	-3904	16392	19	2	4	-2400	6624	14416	-11	15	-24	-13464	7120	7312	13	-6	24	712	2752	16728	2	-16	14	128	139	12
-4824	-8172	13836	10	-13	-21	-12488	-8064	6328	-5	-4	-3	1336	-3736	16544	26	0	-2	-2400	6488	14600	-13	16	-24	-13696	7160	7264	6	-2	18	512	2792	16848	3	-14	16	127	139	12
-4676	-7828	13992	11	-17	-19	-12552	-8032	6624	-12	-6	-7	1504	-3808	16216	18	0	1	-2144	6536	14680	3	16	-20	-13440	6992	7112	20	-5	13	544	2808	16792	6	-17	15	128	138	12
-4712	-7880	13836	8	-11	-24	-12392	-7784	6544	8	-8	-2	1560	-3904	16376	28	2	2	-2336	6672	14416	-11	17	-24	-13248	7224	7392	22	-11	23	592	2800	16672	9	-14	25	127	138	12
-4728	-8076	13832	16	-14	-18	-12520	-7936	6648	-5	-8	-7	1296	-3760	16824	26	-3	10	-2272	6328	14544	-14	14	-28	-13528	7184	7280	-3	0	17	408	2688	16792	12	-15	24	127	139	12
-4512	-7752	13912	16	-15	-20	-12424	-7872	6648	-7	-8	-8	1536	-3744	16536	21	-5	8	-2344	6488	14288	-10	18	-23	-13384	7024	7328	3	0	9	640	2616	16760	9	-11	23	127	139	12
-4776	-7924	13904	2	-7	-22	-12320	-7888	6424	5	-2	-7	1416	-3832	16512	27	-1	10	-2304	6592	14608	-19	14	-26	-13656	7256	7112	5	-4	17	520	2632	16880	3	-14	21	128	138	12
-4732	-7992	13896	10	-22	-19	-12592	-7984	6496	-9	-8	-10	1400	-3800	16608	26	2	12	-2392	6440	14544	-13	13	-23	-13648	6920	7496	-5	2	14	424	2576	16848	1	-13	11	127	139	12
-4628	-7972	13908	14	-11	-20	-12600	-7928	6632	20	-14	16	1512	-3872	16368	22	5	5	-2288	6528	14368	0	15	-23	-13328	6904	7256	20	-8	18	624	2512	16712	9	-19	13	127	139	12
-4820	-8104	13764	-1	-15	-22	-12424	-7976	6328	14	-5	-8	1608	-3848	16744	20	2	1	-2480	6536	14592	-18	16	-24	-13576	7168	7352	13	-8	19	496	2624	16760	1	-16	15	127	138	12
-4692	-7940	13932	17	-15	-20	-12568	-8016	6696	-2	-8	-11	1352	-3896	16608	13	-2	2	-2144	6272	14416	-8	17	-20	-13552	7064	7384	1	0	15	360	2584	16648	7	-17	13	127	139	12
-4552	-7664	14012	5	-13	-18	-12328	-7632	6600	4	-7	-3	1424	-3856	16400	12	2	1	-2408	6632	14576	-12	24	-22	-13416	6984	7568	10	-7	14	688	2688	16512	0	-20	17	128	138	12
-4828	-8156	13804	2	-12	-25	-12392	-7976	6784	-7	-6	-3	1408	-3888	16584	25	-1	6	-2304	6592	14504	-22	26	-28	-13512	7048	7136	-11	-2	16	584	2792	16824	-2	-18	16	127	138	12
-4564	-7816	14004	6	-14	-17	-12608	-7944	6600	-16	-2	-5	1456	-3968	16688	20	-4	8	-2288	6232	14568	-5	21	-24	-13520	6928	7312	-5	-3	12	616	2584	16856	6	-17	16	127	138	12
-4576	-7792	13824	-12	-13	-21	-12352	-7960	6600	5	2	0	1544	-4000	16240	19	0	5	-2288	6480	14376	-10	17	-25	-13456	6992	7456	17	-10	15	616	2600	16720	4	-18	19	127	138	12
-4828	-8176	13784	1	-16	-22	-12352	-7968	6264	4	1	-5	1480	-3976	16760	26	2	7	-2392	6336	14472	-15	12	-30	-13576	7032	7240	4	-2	22	384	2712	16784	7	-13	18	126	138	12
-4568	-7848	13936	7	-10	-20	-12448	-7936	6640	9	-1	-3	1464	-3872	16456	20	0	8	-2184	6384	14624	-8	15	-23	-13472	6800	7224	11	3	15	552	2744	16584	11	-18	14	127	139	12
-4552	-7812	14004	8	-16	-19	-12472	-7816	6408	15	4	-1	1408	-3784	16424	27	-2	2	-2248	6680	14496	-18	14	-25	-13640	7088	7352	13	-9	23	496	2648	16704	4	-22	15	127	139	12
-4820	-8000	13944	16	-17	-19	-12448	-8016	6496	-11	-6	-8	1464	-3760	16616	33	-5	8	-2328	6384	14720	-14	19	-24	-13736	7048	7328	3	-4	19	456	2808	16840	4	-19	17	127	139	12
-4340	-7708	14092	8	-11	-28	-12368	-7872	6416	-14	-4	-2	1544	-3912	16328	27	1	1	-1928	6552	14824	-5	16	-22	-13416	6880	7616	13	-13	21	824	2648	16600	14	-12	15	128	140	12
-4320	-8316	14076	2	-17	-37	-12056	-8056	6712	-9	-14	-5	1728	-3760	16272	25	10	4	-1736	6656	14760	1	1	-13	-13472	7088	7704	19	-25	18	776	2608	16480	9	-6	13	128	138	12
-4020	-8168	14036	13	-22	-30	-12296	-8032	7048	-22	-28	-21	1728	-3848	16168	23	19	9	-1552	6384	14680	2	-1	-15	-13120	7088	7776	-6	-35	22	872	2672	16648	13	-3	16	127	138	12
-3808	-7732	14004	0	-19	-38	-11720	-7808	7120	10	-34	-9	1920	-3768	16064	27	22	9	-1680	6592	14208	5	-2	-8	-12920	6776	7784	9	-38	22	1248	2880	16584	17	-9	13	127	138	12
-4276	-8200	14048	-5	-22	-39	-12016	-7944	7256	-8	-40	-15	2112	-3520	16272	48	6	13	-1768	6568	14528	-12	3	-16	-13216	7080	7976	3	-36	24	1128	2792	16824	8	-23	15	127	139	12
-4040	-8032	13868	13	-25	-31	-11936	-8144	7008	-19	-30	-29	2184	-3728	16568	29	-13	11	-1536	6376	14560	-6	0	-17	-13192	6784	7944	-4	-24	23	1512	2976	16888	4	-29	14	127	139	12
-3720	-7916	14016	-3	-18	-35	-11944	-8120	7288	-2	-21	-21	2600	-3880	16040	24	-15	7	-1472	6704	14688	-4	3	-11	-13168	6976	8248	29	-26	18	1472	2920	16992	-5	-36	12	127	139	12
-4028	-8260	13916	-4	-12	-32	-12048	-8288	7320	-9	-28	-22	2256	-3880	16864	35	-18	15	-1848	6544	14368	-12	13	-22	-13184	7272	7936	-15	-21	23	1272	3048	16776	-7	-27	15	127	139	12
-4028	-7676	13924	9	-13	-26	-11976	-8000	6864	0	-9	-18	2320	-4032	16432	18	-22	19	-1336	6624	14368	-6	12	-16	-12816	6792	7968	0	-2	20	1312	2960	16536	1	-29	17	126	139	12
-3904	-8136	14048	-10	-15	-34	-11832	-8112	7240	-1	-10	1	2304	-3872	16536	23	-17	13	-1656	6776	14280	-23	15	-23	-13120	7144	7952	5	-6	17	1216	2920	16528	7	-27	26	126	139	12
-4356	-8240	13624	7	-18	-24	-12072	-8416	6888	-6	-2	-9	2032	-3816	16360	21	-19	18	-2096	6272	14304	-29	21	-33	-13184	7024	7496	-35	17	21	952	2952	16672	11	-30	35	127	139	12
-4024	-7932	13976	6	-14	-23	-12056	-8064	6768	27	8	8	2040	-3984	16584	13	-12	6	-1600	6416	15064	-18	13	-27	-13432	6888	7976	23	16	3	1168	2848	16616	3	-30	36	127	140	12
-4080	-8428	13968	2	-15	-24	-12136	-8112	6976	-3	-10	2	1984	-3936	16504	23	-11	4	-2040	6640	14712	-26	23	-31	-13416	7040	7624	11	-5	9	880	2688	16984	0	-26	27	127	139	12
-4384	-8152	13808	25	-17	-15	-12072	-8040	6560	3	-5	-4	1888	-4000	16512	20	-14	-1	-1736	6360	14776	-18	12	-27	-13360	6944	7712	4	-7	14	1048	2760	16656	1	-24	23	127	139	12
-3884	-7852	14148	14	-20	-18	-12120	-8112	7128	2	-4	6	2096	-3880	16248	12	-2	-4	-1552	6608	14632	-1	13	-17	-13120	6896	7992	47	-16	13	1080	2624	16616	6	-19	13	128	138	12
-4184	-8284	14032	6	-13	-21	-12064	-7992	7096	-15	-16	-5	2160	-3696	16624	22	0	-6	-2168	6544	14432	-11	16	-22	-13280	7256	7552	-11	-15	27	1104	2872	16552	6	-12	11	127	138	12
-4420	-7964	13844	18	-13	-20	-12224	-8016	7224	1	-6	-12	1848	-3736	16488	12	-1	-5	-1728	6352	14680	-5	9	-23	-13256	6896	7656	-8	-3	23	912	2816	16896	3	-15	6	128	139	12
-3952	-8116	14272	5	-14	-19	-12152	-7968	7184	-17	-7	3	1944	-4008	16304	19	-1	-8	-1616	6672	14896	-8	10	-25	-13544	7072	8112	24	-16	15	1120	2928	17048	1	-25	5	128	138	12
-4412	-8388	13892	10	-13	-17	-12288	-8368	7080	-12	-14	-11	1984	-3832	16776	26	-7	-3	-2184	6288	14680	-14	18	-24	-13496	7200	7664	-23	-17	30	968	2856	17288	-12	-22	8	127	139	12
-4276	-7884	14104	11	-16	-19	-12160	-8120	7056	20	9	-6	1904	-3952	16768	16	-6	-3	-1616	6504	15032	3	12	-17	-13448	6920	8112	30	-4	7	1176	2888	16784	-1	-17	16	127	138	12
-3904	-8196	14292	1	-9	-26	-11936	-8200	7176	0	-7	-1	2152	-3888	16440	33	-10	-3	-1744	6664	14688	-6	17	-25	-13240	6904	8064	34	-6	10	1152	2784	16784	7	-13	19	127	138	12
-4336	-8244	13804	9	-10	-17	-12200	-8224	6880	4	-17	-10	1984	-4024	16456	23	-2	10	-1944	6464	14456	-14	16	-28	-13296	7056	7752	-18	6	22	1080	2864	16688	8	-7	28	127	138	12
-4080	-7876	14068	13	-13	-22	-12112	-7928	7080	6	-2	6	2072	-3928	16480	7	-6	9	-1432	6624	14696	-11	12	-19	-13200	6848	8136	19	0	8	1200	2656	16728	19	-12	35	127	138	12
-4076	-8264	14084	2	-15	-21	-12032	-8208	6944	-17	-13	9	2136	-3912	16328	21	-4	5	-2040	6568	14416	-19	22	-29	-13216	7048	7640	-7	-9	17	1040	2784	16592	11	-15	31	127	138	12
-4468	-8096	13800	21	-15	-12	-12128	-8160	6728	-3	-5	-8	1976	-3928	16536	17	-8	8	-1792	6288	14608	-14	19	-24	-13344	6840	7576	-11	3	22	936	2640	16568	-1	-22	27	128	140	12
-3896	-7956	14116	12	-15	-19	-12088	-7904	7104	-5	3	13	2200	-4040	16152	19	-4	2	-1504	6568	14792	-1	15	-16	-13392	6680	7880	46	-16	14	1128	2488	16456	9	-25	20	128	139	12
-4184	-8232	13920	8	-11	-11	-12080	-8296	7112	-14	-14	3	2080	-3928	16568	33	-7	3	-1560	6696	14768	0	16	-17	-13224	7112	7472	-4	-18	37	1096	2656	16848	6	-16	12	127	138	12
-4236	-7924	13784	21	-12	-15	-12144	-8000	6920	16	-1	1	2008	-3800	16536	25	-5	1	-1632	6352	14696	0	11	-19	-13280	6824	7936	12	5	24	1096	2776	16336	11	-16	9	127	139	12
-3908	-7988	14156	14	-19	-18	-12088	-7896	7136	3	-8	16	2008	-3792	16208	28	0	-1	-1560	6368	14584	2	12	-21	-13208	7144	8160	32	-15	20	1064	2768	16704	14	-21	8	128	138	12
-4460	-8128	13604	10	-10	-13	-12264	-8200	6904	5	-9	-4	2032	-3776	16528	28	-4	0	-2328	6376	14344	-13	23	-26	-13288	7248	7664	-20	-5	38	824	3016	16912	7	-17	13	127	138	12
-4276	-7948	13892	20	-12	-18	-12112	-7960	6744	22	8	8	1696	-3792	16248	23	3	6	-1496	6576	14720	0	15	-21	-13344	6848	7976	21	2	15	968	2856	16600	8	-18	14	127	139	12
-4112	-7836	13948	13	-14	-17	-12064	-8016	7016	-14	-12	14	1968	-3760	16424	29	1	4	-1896	6648	14600	-7	18	-22	-13328	7160	7784	20	-13	22	1008	2896	16880	9	-17	17	127	138	12
-4512	-8032	13780	15	-15	-15	-12312	-8216	6896	-7	-12	-13	1792	-3728	16704	24	-8	9	-2080	6456	14408	-15	16	-26	-13352	7312	7480	-14	-2	26	888	2944	16680	-1	-10	21	127	139	12
-4036	-7736	14056	15	-13	-15	-12216	-7920	6896	-1	3	0	1936	-3736	16480	21	-4	11	-1608	6584	14632	-4	16	-21	-13296	6864	7808	36	-4	9	968	2840	16656	11	-16	24	127	139	12
-4044	-8188	14224	2	-15	-25	-12144	-8096	7136	-14	-14	5	2112	-3768	16496	26	-5	5	-2024	6752	14280	-18	25	-33	-13136	7464	7704	8	-14	16	960	2840	16648	13	-20	24	127	138	12
-4536	-7960	13776	13	-11	-17	-12120	-8104	6728	10	0	-16	1832	-3648	16440	16	-2	5	-2000	6352	14728	-15	19	-26	-13304	6936	7688	-6	6	15	880	2840	16664	3	-19	16	127	139	12
-3968	-7948	14200	6	-14	-22	-12080	-7992	7024	3	4	4	2040	-3832	16432	9	-1	0	-1552	6752	15056	-11	21	-21	-13384	6960	7976	39	-5	7	1176	2776	16608	1	-24	16	127	139	12
-4252	-8288	14140	-5	-10	-24	-12264	-8120	6944	-9	-9	-4	1944	-3784	16632	19	-8	1	-2096	6512	14760	-24	29	-33	-13288	7272	7648	-13	-11	24	944	2880	17024	-12	-22	10	127	139	12
-4380	-8020	13868	1	-8	-18	-12288	-8080	6776	15	8	-7	1928	-3792	16568	8	-6	3	-1744	6280	14752	-5	21	-26	-13312	6792	7616	0	2	11	1040	2816	16536	-7	-20	10	127	139	12
-3900	-7972	14320	-16	-11	-25	-12120	-7944	7184	-10	6	6	1824	-3904	16560	8	-6	3	-1704	6872	14560	-9	13	-25	-13248	7048	8080	39	-14	6	1136	2672	16704	-2	-26	11	127	138	12
-4364	-8260	13848	-6	-15	-20	-12152	-8352	6944	-9	-11	-12	2032	-3832	16672	13	-5	8	-2128	6224	14376	-22	24	-26	-13096	7152	7384	-27	1	18	1104	2792	16720	-1	-15	13	126	138	12
-4328	-7964	14016	8	-8	-14	-12032	-8088	6736	16	9	-7	1976	-4088	16512	4	-4	6	-1448	6424	14776	-12	11	-20	-13400	6880	7944	20	10	9	936	2632	16712	2	-17	19	126	139	12
-3984	-8252	14132	-3	-15	-27	-12184	-8096	6920	-18	-2	3	1928	-4064	16496	15	-4	7	-1824	6656	14800	-20	18	-27	-13432	7040	7736	15	-12	12	1024	2760	17024	1	-22	17	127	139	12
-4612	-8168	13744	15	-18	-17	-12384	-8328	6432	-3	-4	-21	1864	-4216	16448	20	-4	6	-2160	6240	14552	-16	16	-25	-13448	6768	7432	-16	1	20	832	2712	16760	-2	-16	24	126	139	12
-4012	-7744	13980	10	-16	-23	-12072	-7928	6432	2	3	2	1896	-4216	16136	18	4	0	-1616	6576	14560	-3	14	-18	-13208	6648	7672	35	0	6	1120	2600	16480	8	-19	25	127	138	12
-4140	-8184	13952	3	-13	-22	-11784	-8200	6984	-13	-12	12	1888	-3976	16384	30	3	5	-1896	6848	14504	-18	20	-26	-13040	7248	7752	11	-11	21	1088	2696	16704	9	-13	25	127	138	12
-4380	-8024	13584	24	-10	-15	-12040	-8056	6368	-1	-10	-9	1856	-3880	16624	22	-4	11	-1920	6400	14384	-13	15	-21	-13152	6744	7672	-14	4	24	896	2776	16576	16	-17	25	127	137	12
-3972	-7880	14080	17	-16	-20	-12072	-8032	6928	-12	-4	9	1832	-3960	16608	25	-1	9	-1640	6744	14704	1	13	-18	-13328	6912	8168	38	-2	16	864	2656	16784	21	-15	22	127	139	12
-4352	-8308	14008	21	-21	-18	-12240	-8256	7256	-12	-16	-4	1976	-3904	16664	36	-3	8	-2352	6512	14264	-16	20	-24	-13400	7144	7680	-15	-4	36	792	2784	16784	3	-17	9	127	139	12
-4448	-7924	14036	29	-15	-10	-12272	-8040	6584	20	8	-2	1824	-3832	16544	25	0	0	-1696	6376	14704	5	10	-18	-13240	7112	7560	-19	-9	40	744	2848	16576	8	-21	12	127	139	12
-3900	-8076	14292	10	-14	-20	-12128	-7896	7088	-3	-7	20	1976	-3864	16320	30	3	-8	-1672	6880	14728	2	16	-16	-13280	7176	7912	55	-22	22	1088	2792	16872	11	-21	5	127	139	12
-4412	-8244	13772	15	-10	-8	-12176	-8080	7152	3	-13	-6	2056	-3720	16624	25	1	2	-2176	6400	14384	-12	20	-24	-13208	7168	7592	-10	-12	39	968	2904	16584	7	-14	11	126	139	12
-4112	-7860	13868	21	-16	-13	-12000	-7872	6728	22	2	2	1872	-3776	16168	9	-1	-2	-1440	6544	14784	-2	14	-16	-13264	6944	7840	25	-1	13	944	2960	16696	12	-18	14	127	139	12
-4032	-8256	14200	6	-18	-20	-12128	-7904	7264	-13	-7	11	2056	-3680	16432	13	0	1	-1928	6816	14608	-16	18	-27	-13360	7400	7800	6	-13	19	1096	2944	17032	3	-19	14	127	139	12
-4512	-8164	13748	14	-9	-13	-12520	-8120	7080	-5	-10	-16	1928	-3704	16648	12	-7	5	-2112	6184	14536	-12	22	-28	-13336	6920	7560	-27	5	23	984	2832	16872	-5	-19	15	127	139	12
-4532	-8028	13700	16	-5	-16	-12112	-7856	6952	0	0	3	2000	-4000	16448	13	-2	0	-1616	6568	14608	-4	14	-22	-13344	7024	8080	37	2	3	1088	2800	16560	3	-26	20	128	138	12
-4264	-8292	14104	-7	-13	-21	-12032	-8240	6944	-19	-12	-4	1984	-3912	16448	23	0	3	-2096	6744	14536	-25	22	-30	-13296	7200	7552	-3	-9	16	1128	2808	16664	-1	-21	19	127	139	12
-4516	-7908	13776	14	-11	-18	-12304	-7928	6728	10	3	-14	1920	-3736	16376	10	-7	14	-1768	6288	14608	-12	18	-25	-13176	6888	7760	-5	17	12	888	2792	16464	4	-19	27	128	139	12
-3888	-7908	14176	-1	-16	-24	-11992	-7960	7032	-7	-1	4	1928	-3872	16216	15	-3	8	-1672	6816	14784	-15	15	-23	-13200	6976	8088	40	-3	6	840	2720	16872	5	-19	24	128	137	12
-4344	-8108	13872	2	-12	-20	-12168	-8176	6824	-13	-13	-8	2024	-3864	16504	26	-9	10	-2216	6320	14464	-20	23	-30	-13168	7016	7376	-27	-1	24	880	2744	16832	3	-16	19	127	138	12
-4336	-7812	13900	16	-19	-16	-12264	-7920	6480	18	8	-7	1792	-4064	16440	15	-3	9	-1624	6456	14768	-7	13	-20	-13320	6832	7760	19	5	10	896	2648	16424	5	-22	18	127	139	12
-3940	-8228	14320	-3	-15	-29	-12032	-7936	7072	-16	-9	10	1984	-4040	16192	31	0	3	-1920	6816	14584	-10	18	-23	-13328	7184	7872	33	-20	16	1096	2664	16704	8	-22	11	127	139	12
-4512	-8152	13704	12	-8	-22	-12272	-8120	6816	-4	-19	-15	1952	-4032	16552	24	-5	9	-2240	6312	14336	-14	14	-25	-13320	6824	7472	-12	-11	36	696	2744	16616	0	-17	10	127	140	12
-4116	-7916	14116	14	-17	-21	-12144	-8000	6744	7	5	-5	1832	-3984	16488	19	-4	4	-1488	6664	14840	1	11	-20	-13608	6904	8056	40	-2	12	1040	2672	16824	4	-25	14	128	139	12
-4088	-8232	14244	3	-21	-26	-12128	-8184	7416	-23	-9	-3	2024	-3904	16424	28	0	2	-1912	6656	14280	-18	20	-25	-13264	7256	7816	-3	-17	26	1024	2816	17048	4	-17	12	128	137	12
-4520	-7924	13908	16	-11	-10	-12216	-7912	6704	10	-4	-16	1744	-3888	16360	18	-8	11	-1904	6432	14504	-8	18	-23	-13216	6840	7712	-17	-3	25	1008	2808	16664	8	-17	12	127	138	12
-3868	-7868	14072	-4	-8	-23	-12112	-7776	7120	-7	2	15	1928	-4040	16304	22	-1	6	-1384	6800	14736	-1	15	-20	-13208	6960	8160	39	-5	10	1296	2744	16440	12	-18	22	127	138	12
-4304	-8204	13800	5	-12	-18	-12056	-8296	6984	-25	-18	-6	2208	-3800	16880	22	-3	10	-2248	6464	14408	-21	25	-25	-13248	7216	7568	-15	-9	26	992	3064	16784	3	-14	24	127	138	12
-4384	-7864	13724	20	-9	-14	-12160	-7976	6888	18	7	-6	1976	-3936	16416	11	-2	6	-1728	6464	14968	-14	14	-26	-13376	6800	7768	10	11	16	864	2848	16464	5	-17	27	127	139	12
-3916	-8172	14224	1	-17	-23	-11864	-7816	6856	-3	3	14	2064	-3872	16280	23	-1	3	-1768	6784	14640	-15	19	-20	-13400	7192	7864	33	-9	8	1216	2688	16688	4	-25	25	127	139	12
-4456	-8080	13820	11	-9	-18	-12192	-8144	7000	-5	-12	-15	1904	-3856	16312	29	-3	11	-2080	6352	14560	-21	22	-28	-13248	7064	7336	-15	-4	25	888	2784	16768	-5	-15	20	127	139	12
-3988	-7768	14068	8	-20	-19	-12184	-7760	6888	8	9	-2	2072	-3856	16104	18	-3	10	-1352	6568	14784	-8	15	-23	-13304	6840	7904	39	4	5	1160	2824	16608	6	-17	17	127	139	12
-4020	-8280	14100	-10	-16	-27	-12008	-8184	7096	-33	-14	0	2120	-3872	16488	29	1	9	-1864	6856	14544	-24	19	-28	-13232	7304	7776	1	-14	22	1168	2880	16848	2	-15	15	127	138	12
-4488	-8128	13708	12	-9	-14	-12384	-8168	6560	-1	-4	-28	1800	-3904	16528	17	-2	12	-2024	6424	14616	-14	17	-25	-13208	6888	7424	-18	2	19	920	2768	16664	2	-17	17	126	139	12
-3812	-8012	14228	1	-17	-21	-12008	-7976	6920	-3	6	1	2064	-4104	16392	16	-1	6	-1496	6880	15120	-8	12	-23	-13448	7024	8136	36	-3	6	1136	2704	16720	-1	-22	16	127	139	12
-4280	-8368	13992	3	-14	-19	-12248	-8352	7224	-18	-17	-12	2096	-3968	16648	30	-7	7	-2152	6328	14448	-25	24	-34	-13304	7328	7760	-29	-8	25	1048	2800	16832	-10	-17	20	127	139	12
-4356	-7800	13872	12	-11	-18	-12176	-8352	7120	-14	-19	-21	2056	-3952	16432	17	-6	10	-1560	6280	14600	-4	17	-23	-13152	6568	7832	9	3	10	1184	2664	16416	1	-17	18	127	139	12
-3832	-8104	14180	-5	-9	-24	-11848	-8000	7208	-14	-6	9	2128	-3960	16352	25	3	10	-1672	6872	14448	-11	15	-19	-13248	7080	8096	39	-21	12	1328	2712	16816	9	-18	17	127	138	12
-4392	-8256	13648	6	-10	-19	-11960	-8096	7304	-19	-9	7	2096	-3952	16592	19	-2	12	-1832	6352	14512	-14	21	-22	-13144	7120	7752	-14	-1	29	1048	2776	16448	7	-10	18	127	139	12
-3828	-7820	13992	4	-15	-17	-12064	-7960	7168	6	1	1	1992	-3864	16312	11	5	10	-1352	6752	14752	0	16	-21	-13216	6736	8312	30	2	13	1288	2640	16528	15	-20	16	127	139	12
-3980	-8452	14080	-1	-19	-21	-11888	-8416	7168	-17	-13	-3	2240	-3840	16320	25	-3	7	-1744	6440	14624	-20	30	-26	-13320	7152	8120	-9	-16	23	1280	2840	16912	5	-16	17	127	139	12
-4156	-7948	13848	5	-15	-16	-12352	-8032	6864	8	-7	-19	2056	-3864	16208	20	-6	15	-1584	6208	14552	0	19	-21	-13176	6672	7864	-14	2	18	1288	2768	16384	2	-19	14	128	139	12
-3720	-8056	14272	-14	-23	-25	-11776	-7984	6984	-1	-2	10	2208	-3960	16352	18	-3	7	-1232	6976	14552	0	14	-16	-13200	7016	8224	41	-14	13	1440	2688	16656	6	-23	18	127	137	12
-3976	-8448	13864	1	-18	-19	-11896	-8336	7208	-20	-23	-12	2328	-4000	16552	33	-5	15	-1600	6144	14472	-5	11	-24	-12920	6944	7960	-5	-17	35	1384	2864	16704	16	-11	21	126	138	12
-3712	-7928	13980	2	-14	-16	-11736	-7976	7104	3	-6	-3	2472	-3960	16280	23	2	10	-1280	6752	14880	-1	3	-13	-12928	6840	8304	31	-8	16	1568	2696	16712	27	-15	17	127	138	12
-3684	-8548	14112	5	-20	-25	-11784	-8360	7576	-4	-16	10	2432	-3904	16320	32	-7	9	-1488	6672	14656	-21	17	-27	-13256	7088	8328	7	-12	29	1360	2864	16912	13	-18	21	127	138	12
-3716	-8004	13880	18	-17	-17	-12008	-8184	7184	-2	-13	-19	2320	-3952	16256	30	-4	12	-1448	6280	14416	0	13	-19	-12944	6728	7880	-3	-12	26	1512	2928	16592	16	-16	18	127	139	12
-3868	-8300	14104	9	-22	-26	-11768	-8232	7504	6	-8	11	2288	-3920	16352	25	0	6	-1168	6992	14600	-9	7	-21	-13192	7128	8520	33	-21	24	1648	2728	16576	7	-25	18	127	139	12
-3604	-8264	14056	15	-17	-20	-12048	-8240	7504	-16	-19	-7	2528	-3888	16312	31	-6	5	-1360	6136	14728	-5	15	-21	-12904	6808	8096	-4	-17	26	1712	2968	16496	16	-18	15	127	139	12
-3796	-8156	13972	9	-18	-22	-11720	-8048	7080	6	-9	0	2584	-3768	16296	21	1	5	-1136	6968	14832	-4	10	-18	-13040	7056	8528	34	-20	22	1608	2952	16968	10	-27	16	127	139	12
-3476	-8524	14248	16	-18	-22	-11888	-8304	7736	-16	-17	-2	2544	-3872	16432	20	-9	3	-1080	6432	14672	-4	11	-19	-12984	7016	8368	-6	-12	27	1672	2928	16608	11	-16	10	127	140	12
-3592	-8052	14104	11	-18	-23	-11728	-8056	7328	-2	-8	-7	2656	-3808	16480	15	-2	3	-992	6856	14656	-4	6	-15	-12888	6768	8496	20	-16	17	1624	2792	16472	14	-22	14	127	139	12
-3380	-8540	14240	6	-26	-29	-11736	-8496	7656	-5	-14	-6	2872	-3904	16528	33	-9	5	-688	6416	14720	-4	8	-15	-13072	6928	8448	3	-23	22	1856	2928	16552	10	-22	9	126	139	12
-3408	-8004	14144	5	-15	-25	-11544	-8088	7504	-7	-22	-16	2776	-3952	16264	29	-1	5	-792	6480	14720	-1	9	-10	-12792	6720	8552	16	-29	25	1920	3000	16240	15	-19	18	127	139	12
-3348	-8728	14220	2	-21	-27	-11352	-8512	7560	-7	-18	-4	2976	-3904	16312	37	-2	3	-568	6704	14656	-3	6	-15	-12784	7040	8856	19	-26	23	2032	2904	16672	10	-26	15	127	139	12
-3168	-8104	14136	11	-22	-21	-11600	-8088	7888	-9	-24	-14	2896	-4008	16080	29	1	7	-888	6568	14920	-10	4	-13	-12792	6896	8592	14	-22	21	1952	3096	16632	15	-23	19	127	139	12
-3156	-8656	14268	12	-25	-24	-11536	-8552	8072	-6	-19	-13	3112	-3944	16624	35	-5	5	-496	6704	14832	-2	7	-14	-12912	7016	9000	12	-27	23	2200	2952	16464	10	-29	14	127	139	12
-3196	-8056	14272	5	-24	-23	-11560	-8176	8032	-8	-27	-10	3144	-3936	16424	29	-12	7	-640	6544	14904	-8	4	-16	-12760	7008	9032	14	-23	28	2048	2992	16704	15	-27	17	127	141	12
-2980	-8556	14300	10	-25	-24	-11664	-8464	7936	-15	-23	-6	3312	-4024	16360	35	-9	7	-584	6696	15000	5	9	-14	-12904	6856	8912	10	-24	23	2264	2968	16712	13	-29	20	127	140	12
-3176	-8284	14108	-6	-26	-26	-11352	-8304	7976	-1	-21	-5	3304	-3936	16248	35	-13	7	-592	6256	14544	-5	10	-17	-12640	6960	8688	2	-19	29	2368	2880	16488	18	-28	19	128	139	12
-2960	-8360	14148	7	-22	-21	-11320	-8408	7720	-3	-15	-3	3320	-3888	16224	29	-6	9	-552	6832	14736	-1	7	-14	-12656	7032	9176	33	-14	21	2488	3064	16560	14	-24	17	127	139	12
-2956	-8644	14264	5	-20	-27	-11408	-8592	8128	-4	-19	0	3240	-3888	16216	29	-15	13	-600	6552	14704	-10	16	-17	-12960	7128	9096	-3	-11	36	2200	3168	16624	15	-24	22	127	139	12
-3008	-8248	14272	16	-27	-19	-11400	-8320	8000	6	-12	-7	3264	-4152	16360	26	-8	9	-456	6624	14928	-7	7	-22	-12640	6880	9184	20	-10	24	2400	3032	16656	13	-23	21	127	139	12
-3004	-8564	14260	11	-18	-13	-11456	-8368	8280	5	-13	1	3376	-3976	16496	35	-10	5	-504	6752	14720	-2	14	-18	-12856	7016	8904	-2	-11	27	2312	3272	16480	9	-25	21	127	140	12
-2916	-8280	14256	0	-23	-25	-11312	-8456	7896	-1	-16	5	3408	-3928	16424	32	-7	2	-552	6512	14664	-7	12	-20	-12680	6912	8992	10	-7	23	2320	2992	16568	11	-24	24	127	139	12
-2908	-8548	14060	12	-16	-22	-11400	-8488	7968	-16	-15	0	3360	-3784	16040	28	-5	4	-352	6768	14824	-8	12	-19	-12496	6928	9288	13	-9	24	2328	3024	16648	9	-19	22	127	139	12
-2824	-8504	14164	2	-18	-28	-11264	-8536	7944	-1	-13	-4	3216	-4016	16440	17	-7	4	-480	6376	14888	-7	15	-20	-12752	6848	8816	6	-13	22	2360	3104	16920	11	-20	22	127	140	12
-2900	-8372	14260	10	-16	-20	-11304	-8400	7800	-1	-10	-5	3272	-4088	16376	20	-8	7	-416	6640	14976	-11	9	-24	-12704	7072	9168	15	-17	20	2328	3080	16832	5	-25	18	127	139	12
-2888	-8488	14096	12	-22	-21	-11344	-8440	8192	-6	-13	-8	3144	-3976	16440	26	-8	5	-680	6440	14904	-10	13	-14	-12608	7000	9216	-1	-7	21	2336	2976	16536	6	-23	18	127	139	12
-2928	-8516	14148	0	-16	-27	-11272	-8304	7864	-4	-12	-4	3440	-3840	16328	22	-9	4	-352	6360	14624	-4	15	-20	-12600	6872	9120	9	-12	18	2488	3064	16584	-2	-21	16	127	140	12
-2944	-8292	14232	11	-12	-21	-11432	-8296	8072	-15	-13	-8	3456	-4048	16280	27	-10	7	-336	6656	14920	-7	9	-19	-12560	6824	9256	21	-6	22	2536	2888	16656	6	-16	17	126	139	12
-2744	-8424	14144	7	-21	-19	-11312	-8560	8096	-15	-17	-6	3360	-3928	16264	26	-4	9	-400	6632	14480	-8	18	-21	-12584	6944	9208	4	-7	24	2576	2936	16616	12	-16	16	127	139	12
-2876	-8532	14296	4	-22	-23	-11168	-8608	7920	0	-7	-5	3504	-4056	16336	29	-1	10	-288	6488	14872	-3	9	-20	-12648	6872	9384	12	-15	25	2512	3064	16576	13	-11	19	127	139	12
-2636	-8420	14316	17	-13	-17	-11288	-8456	8400	-9	-15	-7	3520	-4104	16296	28	5	8	-368	6792	14632	-1	14	-13	-12496	6984	9232	19	-10	30	2520	2976	16632	15	-13	21	127	138	12
-2804	-8448	14008	12	-18	-21	-11184	-8376	8144	1	-10	1	3544	-3936	16160	37	0	5	-120	6496	14944	0	16	-11	-12320	6912	9272	15	-13	20	2544	3144	16120	15	-10	19	127	138	12
-2564	-8328	14344	10	-24	-26	-11304	-8432	8296	-10	-19	9	3664	-3856	16264	33	3	5	-72	6568	14872	-1	12	-17	-12488	6912	9376	21	-10	31	2728	3032	16560	22	-12	18	127	140	12
-2508	-8496	14308	6	-21	-20	-11168	-8528	8008	-10	-19	-4	3600	-3976	16280	38	2	6	-104	6992	15064	-2	8	-16	-12544	6984	9232	20	-20	32	2592	3048	16728	20	-18	18	127	138	12
-2420	-8596	14408	17	-21	-24	-11160	-8568	8344	-10	-19	-1	3664	-3944	16208	35	0	10	112	6680	14976	4	16	-8	-12400	6912	9376	13	-21	27	2696	3160	16528	24	-20	19	127	139	12
-2500	-8336	14308	7	-21	-19	-11128	-8352	8520	-5	-26	0	3680	-3744	16296	45	-3	5	-8	6768	15032	-2	8	-12	-12304	7080	9800	28	-24	31	2672	3032	16656	19	-24	21	127	139	12
-2312	-8552	14336	10	-18	-22	-11016	-8448	8256	-5	-20	1	3824	-3888	16312	39	-2	9	88	6624	14744	0	8	-10	-12464	6920	9384	11	-26	24	2864	3256	16664	16	-19	19	127	139	12
-2444	-8636	14212	4	-19	-23	-11056	-8472	8184	-12	-21	-7	3888	-3912	16224	38	0	11	240	6672	14904	0	12	-13	-12472	6896	9360	12	-26	30	2864	3264	16680	18	-21	14	128	139	12
-2332	-8556	14272	0	-13	-25	-10928	-8600	8616	-18	-24	-5	3800	-3800	16296	36	-1	8	80	6656	14536	0	15	-13	-12320	7008	9544	12	-26	25	3000	3304	16624	11	-25	15	128	139	12
-2404	-8500	14264	4	-16	-23	-11016	-8488	8584	-3	-19	-7	4048	-3744	16592	24	5	8	128	6800	14904	-5	8	-10	-12272	7168	9856	34	-23	24	3040	3256	16728	6	-32	20	128	139	12
-2308	-8608	14324	6	-21	-22	-11008	-8576	8608	-6	-16	-9	3968	-3840	16360	25	2	5	216	6920	14720	-10	24	-20	-12280	6888	9304	-21	-21	24	3216	3376	16400	17	-25	17	128	139	12
-2444	-8620	14388	-2	-15	-24	-10848	-8688	8496	-3	-10	-9	4032	-3888	16392	19	-6	9	112	6704	14616	-13	21	-15	-12272	7024	9552	-10	-17	21	3136	3432	16624	3	-24	20	128	139	12
-2368	-8420	14400	-5	-11	-16	-10784	-8424	8344	-5	-9	-10	3976	-3976	16264	11	-5	14	88	6392	14896	-17	22	-19	-12328	6984	9704	13	-2	15	3128	3408	16672	-2	-23	21	128	139	12
-2300	-8340	14260	-5	-17	-18	-10960	-8408	8536	-16	-16	-6	4008	-3872	16160	15	-6	14	-8	6944	14712	-14	25	-22	-12352	7144	9448	-9	-4	15	3040	3304	16568	-3	-16	23	127	139	12
-2448	-8620	14440	-11	-15	-16	-10744	-8584	8264	-6	0	-3	3992	-3872	16064	15	-9	15	136	6640	14624	-18	22	-23	-12280	6912	9752	-3	6	11	2944	3368	16344	3	-19	28	127	139	12
-2376	-8448	14328	-6	-11	-10	-11032	-8336	8280	-16	-6	-2	3848	-3776	16264	17	-9	13	232	6704	14688	-19	12	-23	-12264	6984	9456	13	7	12	2928	3272	16568	-3	-19	26	127	139	12
-2272	-8476	14264	-2	-15	-9	-11176	-8576	8344	-1	-5	-3	3864	-3840	16384	16	-7	14	32	6632	15008	-27	14	-19	-12408	6960	9424	7	2	15	2856	3320	16472	1	-21	25	127	139	12
-2404	-8692	14476	5	-13	-15	-10976	-8544	8448	-10	-8	-8	3848	-3864	16216	12	-1	12	112	6824	14872	-17	20	-19	-12360	6896	9504	5	5	6	2800	3224	16656	-4	-19	23	127	139	12
-2252	-8436	14384	3	-15	-18	-11120	-8472	8304	-6	-2	-4	3808	-4000	16352	13	-3	10	160	6696	14672	-16	17	-16	-12360	6976	9600	8	-7	16	2736	3200	16576	-4	-16	22	127	139	12
-2516	-8492	14296	3	-16	-13	-11072	-8440	8160	-10	-10	-1	3720	-3920	16120	15	3	7	24	6352	15192	-26	17	-24	-12432	7032	9480	13	-2	21	2960	3224	16512	-1	-14	26	127	140	12
-2368	-8488	14320	8	-19	-13	-11064	-8576	8376	-18	-8	-9	3832	-3832	16272	14	0	12	-72	6976	14944	-16	19	-18	-12560	7080	9288	2	-1	16	2696	3256	16616	-7	-15	23	127	139	12
-2448	-8752	14512	8	-17	-14	-11096	-8544	8160	-22	-6	-8	3792	-3840	16480	12	-3	15	88	6696	15008	-24	22	-21	-12640	7144	9392	-20	-5	16	2696	3336	16560	-7	-15	19	127	139	12
-2508	-8452	14392	2	-10	-18	-11312	-8360	8400	-11	-6	-13	3800	-3904	16328	18	0	13	48	6648	15112	-13	11	-17	-12480	6872	9968	5	8	10	2856	3144	16704	-4	-15	23	127	139	12
-2268	-8472	14384	5	-13	-15	-11032	-8656	8608	-28	-10	-6	3816	-4040	16328	19	-2	12	-64	6648	14960	-21	21	-22	-12384	7040	9472	-3	-2	15	2896	3024	16800	-2	-15	25	126	139	12
-2508	-8660	14336	3	-17	-21	-11088	-8728	8168	-1	-3	-7	3624	-3968	16320	18	-3	15	-80	6704	14904	-12	18	-15	-12320	6944	9392	-3	2	12	2848	2976	16360	-2	-18	26	127	138	12
-2400	-8868	14516	3	-16	-23	-11088	-8488	8304	-14	-11	-6	3744	-3944	16304	15	-5	12	56	6600	14936	-22	17	-18	-12744	6888	9600	-3	5	17	2816	3168	16560	0	-20	31	127	141	12
-2580	-8364	14100	6	-10	-9	-10976	-8488	8144	-8	-13	-15	3728	-4056	16328	14	-5	11	-96	6568	14832	-14	22	-17	-12376	6896	9696	-1	4	11	2840	3104	16632	2	-16	29	127	140	12
-2164	-8448	14184	2	-16	-13	-11080	-8544	8552	-4	-4	-1	3640	-3896	16144	15	-3	11	88	6464	15120	-16	24	-21	-12392	6752	9720	-6	2	10	2936	2984	16280	2	-17	28	128	139	12
-2556	-8800	14076	-3	-16	-23	-10800	-8744	8376	-22	-12	-5	3872	-3904	16064	17	-5	15	104	6544	14640	-15	25	-20	-12328	6728	9288	-14	5	12	2704	2880	16384	-3	-16	28	127	139	12
-2448	-8720	14072	3	-15	-15	-10752	-8560	8488	-11	-5	-11	3728	-4112	16248	12	-3	13	216	6632	14936	-21	16	-21	-12448	6712	9656	10	-4	16	2808	2896	16544	2	-24	29	128	139	12
-2384	-8464	13828	-1	-5	-13	-11016	-8512	8328	-23	-20	-4	3792	-4016	15912	21	-6	16	-320	6192	14736	-21	26	-18	-12496	6744	9136	-14	3	22	2688	2936	16320	6	-16	29	128	138	12
-2584	-8640	14124	14	-19	-16	-10760	-8736	8024	-5	-2	-2	3728	-4208	16152	26	-6	18	-32	6632	14504	-9	28	-17	-12400	6816	9064	2	-1	11	2656	2872	16312	6	-19	27	127	138	12
-2524	-8572	14096	2	-16	-14	-10880	-8352	8072	-4	-10	8	3648	-4064	15856	29	-10	15	72	6440	14136	0	16	-18	-12312	6784	9240	-2	2	25	2832	2856	16304	9	-17	25	127	138	12
-2560	-8380	13860	14	-17	-5	-10984	-8464	8192	-1	-8	8	3784	-4040	16240	27	-2	16	40	6440	14840	-9	19	-18	-12200	6800	9672	23	2	29	2760	2904	16616	16	-15	25	127	138	12
-2396	-8380	14008	22	-17	-7	-10896	-8576	8432	1	-10	11	3680	-4120	16040	29	-3	9	-24	6392	15088	-5	16	-16	-12384	6856	9176	11	7	30	2640	3040	16536	18	-10	23	127	139	12
-2620	-8668	14192	16	-17	-6	-11128	-8560	8408	7	-4	14	3440	-4072	16256	37	-6	11	64	6432	14720	-6	22	-12	-12384	6792	9272	9	3	39	2520	3096	16200	20	-13	25	128	138	12
-2616	-8276	14160	25	-20	-1	-11216	-8424	7936	1	-5	20	3544	-4048	16184	38	-1	7	-288	6528	14896	4	22	-16	-12400	6872	8992	11	0	36	2568	3024	16392	20	-12	26	128	139	12
-2672	-8316	14240	23	-16	-3	-11176	-8240	8160	0	-1	21	3456	-3984	16008	39	-1	11	-208	6816	14728	1	26	-17	-12320	6840	9072	21	-2	37	2440	3120	16376	16	-13	15	127	139	12
-2636	-8644	14196	25	-18	-7	-11240	-8344	8312	-6	-8	16	3464	-3816	16272	42	-3	9	-24	6600	14584	5	27	-16	-12384	6824	9064	5	-1	39	2472	3200	16552	21	-13	19	127	139	12
-2768	-8436	14392	22	-20	-12	-11152	-8352	8120	-2	-12	16	3504	-3872	16304	38	0	9	-184	6768	15104	2	13	-14	-12712	6968	9336	33	-9	38	2632	3128	16776	16	-16	22	127	139	12
-2636	-8628	14460	19	-21	-8	-11256	-8512	8232	0	-17	11	3512	-3744	16192	39	-8	9	-208	6888	15136	-10	23	-16	-12728	7168	9424	8	-15	42	2488	3200	16704	16	-14	21	127	139	12
-2760	-8580	14500	21	-15	-9	-11456	-8576	8424	9	-8	10	3576	-3888	16656	42	-4	12	-120	6824	15136	2	23	-16	-12712	6976	9656	12	-4	27	2520	3224	17000	12	-21	19	127	139	12
-2672	-8612	14472	2	-22	-13	-11432	-8528	8248	-5	-13	6	3544	-3776	16528	38	-12	12	-168	6488	14928	2	22	-16	-12824	7328	9416	-5	-3	32	2816	3320	17016	7	-22	24	128	139	12
-2876	-8340	14424	12	-8	-9	-11320	-8512	8392	2	-9	1	3696	-3968	16400	31	-6	15	-96	6720	15160	-13	15	-20	-12696	7184	9304	7	-2	26	2640	3384	17016	10	-17	24	127	138	12
-2644	-8572	14244	5	-9	-5	-11280	-8456	8128	-9	-8	5	3568	-3880	16296	30	-3	19	-296	6680	14864	-12	24	-16	-12480	7080	9576	2	6	19	2752	3256	16448	13	-12	30	127	139	12
-2624	-8576	14148	4	-6	-10	-11056	-8368	8160	-11	-4	9	3576	-3688	16208	19	3	20	-64	7032	14768	-4	24	-7	-12560	7032	9568	11	7	20	2616	3280	16576	17	-8	38	127	138	12
-2624	-8460	14312	14	-13	-10	-11352	-8400	8400	-10	-5	8	3664	-3936	16632	26	5	20	80	6728	14824	-15	25	-22	-12696	7192	9368	0	-5	27	2448	3264	16448	15	-7	32	127	139	12
-2844	-8368	14476	18	-19	-5	-11440	-8432	8264	-4	-6	2	3416	-3776	16264	28	-3	21	-432	6960	14840	-29	19	-20	-12488	7128	9304	2	0	32	2320	3256	16584	12	-16	32	127	140	12
-2604	-8496	14472	18	-12	0	-11464	-8376	8432	-3	-2	7	3328	-3792	16560	31	-2	14	-160	6976	14744	4	19	-11	-12576	7008	8944	14	-2	20	2336	3328	16272	11	-23	25	127	139	12
-2568	-8080	14204	-8	-13	-10	-11200	-8104	8400	-14	-6	14	3472	-3520	16328	30	2	7	-304	6824	14568	-3	23	-13	-12272	6992	9128	9	-8	28	2536	3328	16256	10	-21	23	127	139	12
-2700	-8364	14356	7	-17	-8	-11088	-8344	8128	-4	-7	7	3616	-3440	16352	26	-4	11	184	6552	14976	-14	12	-13	-12480	7152	9376	20	-10	22	2696	3464	16360	9	-13	18	128	139	12
-2384	-8484	14732	12	-23	-8	-11096	-8240	8600	-20	-16	-8	3584	-3528	16328	20	-1	7	8	7464	14864	-12	16	-9	-12616	7376	9560	15	-16	25	2608	3592	16488	9	-15	18	128	138	12
-2548	-8676	14516	3	-16	-11	-11488	-8208	8304	-12	-16	-22	3600	-3536	16728	22	-8	8	-16	6888	15056	-11	13	-8	-12536	7400	9592	-9	-24	30	2584	3536	16824	8	-17	9	128	136	12
-2492	-8232	14768	-1	-26	-19	-11384	-8424	8704	-10	-20	-16	3568	-3712	16792	27	-7	10	-8	6952	14848	-8	9	-1	-12576	7376	9504	4	-19	15	2656	3312	16720	5	-29	14	128	139	12
-2480	-8172	14672	-12	-17	-21	-11312	-8336	8600	-19	-24	-8	3816	-3552	16488	21	-7	14	88	6536	14592	-14	18	-14	-12272	7008	9584	-24	-15	16	2960	3480	16632	5	-33	14	127	139	12
-2388	-8560	14276	-22	-10	-21	-10928	-8456	8384	-11	-12	-10	3784	-3584	16376	8	-5	20	160	6744	14784	-18	19	-13	-12120	7096	9832	10	-2	7	3120	3576	16656	2	-30	20	128	139	12
-2208	-8768	14404	-18	-18	-21	-11008	-8512	8600	-27	-19	-15	3888	-3848	16264	-6	-10	21	320	7200	15016	-31	19	-14	-12376	7240	10120	3	0	4	3048	3352	16800	-7	-27	27	128	139	12
-2332	-8740	14520	-30	-19	-22	-11344	-8624	8832	-7	-14	-34	3688	-3984	16360	-7	-13	21	128	6640	15016	-28	25	-18	-12496	6984	9296	-29	-3	5	2896	3280	16816	-13	-24	37	127	139	12
-2516	-8524	14536	-25	-25	-25	-11320	-8664	8576	1	-17	-25	3768	-4152	16528	2	-16	25	176	6472	15104	-34	21	-23	-12480	7048	9848	-20	1	4	2840	3368	16776	-15	-25	42	127	138	12
-2380	-8360	14556	-33	-21	-25	-11176	-8760	8648	-27	-23	-14	3864	-4152	16128	10	-13	28	408	6568	14808	-27	20	-15	-12224	6768	9744	-22	4	-4	3208	2872	16472	-6	-28	48	128	138	12
-2244	-8664	14112	-28	-15	-28	-10728	-8552	8544	-36	-22	-13	4040	-4184	15904	11	-11	28	360	6512	14552	-23	12	-13	-12096	6696	9488	-13	11	-2	3240	2816	16352	-3	-18	46	127	138	12
-2004	-8852	13876	-12	-16	-26	-10576	-8872	8400	-39	-25	-7	4072	-4112	16088	7	-6	31	640	6584	14936	-28	8	-9	-12088	6512	9712	10	9	10	3192	2688	16232	9	-11	48	127	139	12
-1852	-8972	13892	-19	-20	-30	-10512	-8864	8496	-39	-29	-16	4080	-4368	16024	9	-7	26	216	6648	14600	-22	16	-12	-12288	6616	9528	-18	-1	15	2992	2544	16376	8	-13	47	127	138	12
-2256	-8644	14020	0	-31	-17	-10472	-8848	8504	-32	-28	-11	4072	-4360	15848	21	-3	29	312	6552	14768	-14	13	-8	-12232	6416	9488	-2	-13	30	2976	2776	16280	2	-20	39	127	139	12
-2120	-8612	14236	3	-27	-23	-10576	-8800	8704	-9	-27	-7	4200	-4312	15840	34	-7	22	376	6472	14592	7	14	-4	-12080	6432	9688	-1	-18	28	3136	2784	16272	7	-22	35	127	138	12
-2152	-8492	13920	11	-23	-15	-10624	-8584	8416	-9	-23	-1	4240	-4264	15960	32	-4	28	528	6120	14144	13	8	-7	-11920	6656	9712	3	-17	32	3320	2776	16048	16	-18	25	127	138	12
-1676	-8668	14132	23	-27	-17	-10376	-8704	8632	-10	-25	10	4328	-4032	15704	50	-14	18	568	6336	14464	7	8	-5	-11936	6656	9856	29	-20	47	3384	2864	16304	28	-19	21	127	138	12
-1836	-8600	13708	21	-23	-11	-10496	-8704	8696	-10	-34	11	4192	-3952	15920	47	-14	17	208	7032	14608	15	9	0	-11984	6768	9864	17	-26	55	3376	3032	16440	34	-17	15	127	139	12
-1872	-8352	14068	37	-25	-5	-10712	-8688	8912	8	-25	12	4312	-4144	16032	43	-16	11	544	6632	15040	17	8	-1	-12128	6768	9944	36	-29	55	3336	3216	16472	37	-26	13	126	139	12
-1852	-8648	14316	27	-34	-11	-10632	-8792	8912	3	-28	18	4240	-4024	16128	48	-14	9	360	6640	14896	13	18	-6	-12392	6824	9928	19	-31	52	3336	3368	16704	36	-34	13	127	139	12
-2116	-8816	14480	21	-28	-8	-10936	-8768	8792	9	-16	20	4384	-3904	16480	55	-22	6	816	6456	15192	10	13	-1	-12232	6984	10184	19	-26	48	3488	3456	16648	33	-37	15	127	139	12
-1872	-8620	14572	20	-22	-10	-10928	-8752	9216	1	-20	16	4192	-3704	16304	43	-12	0	848	6848	14888	17	16	3	-12240	7096	10128	22	-17	39	3560	3568	16624	36	-34	12	127	138	12
-1940	-8704	14676	19	-20	-8	-10720	-8496	8944	-1	-17	13	4392	-3712	16144	40	-8	4	888	6752	15256	5	11	-1	-12224	7432	10344	31	-23	39	3696	3688	16704	32	-28	19	127	139	12
-2084	-8660	14688	17	-29	-12	-10792	-8640	9160	-15	-33	6	4368	-3776	16472	34	-10	7	480	6752	15280	-2	10	-4	-12320	7456	10464	16	-23	42	3544	3664	17128	27	-18	25	127	139	12
-1628	-8616	14520	20	-22	-6	-11048	-8672	9224	-6	-22	0	4488	-3872	16360	34	-8	16	552	7424	15184	3	12	1	-12120	7264	10216	8	-14	34	3432	3672	16688	27	-14	31	127	138	12
-1712	-8552	14620	15	-33	-3	-10872	-8576	8832	-9	-25	7	4320	-3872	16160	35	-10	22	576	7232	14760	-1	23	-3	-11928	7184	10176	-11	-3	35	3392	3528	16680	21	-16	38	127	138	12
-1924	-8624	14680	8	-30	-13	-10920	-8464	8944	-13	-14	8	4472	-3688	16688	35	-13	18	680	6912	15120	-1	21	-5	-11968	7176	10152	1	4	31	3168	3424	16712	25	-16	44	127	139	12
-1772	-8608	14504	4	-34	-14	-10648	-8568	8904	-24	-31	18	4472	-3624	16048	51	8	18	720	7040	14776	-6	25	-13	-11984	7224	9880	-8	-11	36	3376	3592	16432	22	-21	40	127	139	12
-2160	-8588	14516	6	-27	-14	-10656	-8560	8856	0	-10	11	4520	-3488	16384	42	-14	18	704	6696	14656	-10	23	-10	-11872	7208	9760	-1	-6	32	3440	3496	16456	21	-18	33	128	140	12
-2224	-8500	14672	6	-24	-6	-10704	-8400	8936	5	-7	10	4320	-3632	16600	30	-9	14	832	6824	14760	-18	23	-14	-12056	7104	9696	5	-11	32	3176	3720	16448	3	-22	34	127	140	12
-1872	-8640	14640	10	-25	-2	-10816	-8504	8936	-16	-15	6	4472	-3544	16424	22	-6	16	624	6592	14688	-20	14	-10	-12168	7248	9944	10	-1	20	3256	3856	16560	2	-19	26	127	140	12
-1608	-8464	14320	3	-13	-8	-10816	-8360	8832	-9	-15	-5	4464	-3616	16400	16	-3	13	544	6504	14664	-17	18	-10	-12040	7104	10096	14	2	23	3456	3720	16592	2	-14	21	127	139	12
-1688	-8188	14184	0	-14	-9	-10616	-8448	9032	-29	-15	3	4432	-3672	15960	12	4	13	680	6912	14464	-8	23	-2	-11552	7080	9904	6	8	18	3504	3600	16160	3	-8	28	127	138	12
-1656	-8456	14024	-5	-11	-13	-10424	-8344	8848	-22	-9	2	4504	-3744	15840	9	10	16	952	7056	14552	-9	28	-7	-11432	7040	9904	-3	8	18	3440	3496	16032	6	-5	30	127	139	12
-1676	-8600	14144	-1	-16	-16	-10424	-8536	8880	-32	-15	-2	4304	-3536	16080	5	9	20	736	6952	14608	-28	29	-19	-11712	6864	9928	-24	4	16	3400	3400	16080	-2	0	31	127	140	12
-1980	-8640	14108	3	-18	-9	-10512	-8496	8736	-21	-3	-13	4128	-3696	15984	7	1	24	768	6800	14928	-37	26	-24	-11992	6880	10048	-9	9	16	3104	3208	16600	-8	-14	31	127	140	12
-2076	-8976	14580	4	-24	-11	-10816	-8624	8912	-22	-5	-17	4080	-3816	16160	23	-16	28	712	6624	15088	-38	31	-21	-12344	7160	9944	-20	4	19	3176	3176	16744	-14	-27	36	127	140	12
-2200	-8436	14764	-3	-20	-16	-11136	-8616	8856	-11	-4	-18	4184	-3840	16584	36	-29	25	872	6576	14824	-27	22	-21	-12488	6752	9720	-18	0	13	3208	3424	16784	-26	-34	29	128	140	12
-2184	-8520	14528	-13	-21	-18	-11008	-8640	8568	-23	-13	-11	4280	-4104	16448	34	-22	23	632	6536	15200	-17	13	-18	-12400	7048	10192	22	3	8	3496	3096	16656	-19	-32	30	127	139	12
-1836	-9348	14420	-18	-8	-27	-10904	-8840	8776	-31	-22	-10	4320	-4128	16368	21	-18	29	384	6624	15000	-20	17	-16	-12264	6960	10120	-2	-7	15	3312	3080	16816	-11	-22	28	127	138	12
-2008	-8964	14340	-8	-15	-16	-10744	-8880	8640	-16	-24	-25	4336	-4176	16280	18	-19	26	456	6784	15160	-18	15	-12	-12344	6848	10152	-6	0	14	3432	3080	16696	5	-16	33	127	138	12
-1904	-9052	14372	-1	-21	-18	-10752	-8800	8808	-15	-17	-15	4248	-4248	16216	4	-13	24	520	6352	15000	-27	22	-18	-12568	6888	10112	-26	5	16	3184	2944	16760	1	-17	38	127	138	12
-1972	-8624	14388	-6	-25	-16	-10720	-8872	8456	-16	-19	-17	4144	-4312	16016	10	-10	29	128	6680	14936	-10	19	-10	-12296	6752	10096	-16	6	22	3152	2920	16584	9	-21	45	127	140	12
-1784	-8532	14380	3	-25	-15	-10664	-8800	8848	-19	-18	6	4240	-4296	15928	26	-6	26	240	7128	14936	-1	20	-5	-12024	6824	9776	4	1	23	3192	2904	16584	18	-23	46	126	139	12
-2196	-8756	14156	17	-27	-2	-10896	-8872	8400	-21	-19	10	4288	-4296	16448	39	-11	23	144	6976	14688	-6	22	-8	-12056	6984	9432	0	-1	37	3128	3000	16504	27	-18	48	126	139	12
-2268	-8288	14356	27	-34	2	-11008	-8792	8808	2	-15	17	4112	-4200	16248	44	-13	18	216	6792	14656	-1	17	-5	-12104	6768	9640	8	-8	44	3032	3208	16256	38	-14	40	127	138	12
-1996	-8384	14084	29	-18	2	-10912	-8336	8544	3	-13	33	4096	-3888	16024	43	-7	6	208	6432	14256	7	23	-6	-11800	6624	8984	24	-6	46	3048	3312	15832	41	-7	35	126	138	12
-2220	-8092	14068	29	-22	4	-10744	-8464	8536	15	-2	43	4056	-3632	15736	41	0	-7	688	6824	14456	18	21	-2	-11944	6912	9664	31	-11	45	3144	3312	16016	40	-9	23	127	138	12
-2056	-8300	14376	25	-21	0	-10512	-8224	8640	6	-10	35	4240	-3528	15784	30	10	-8	648	6920	14520	3	19	-1	-11992	6960	9808	18	-5	46	3320	3640	16016	29	-7	7	127	138	12
-2060	-8560	14004	23	-20	6	-10528	-8208	8640	10	-8	22	4112	-3224	15848	23	16	-9	488	6752	14904	-6	26	-5	-12184	7096	9920	26	-6	39	3112	3632	16488	16	-10	6	127	138	12
-2100	-8764	14356	21	-22	5	-10856	-8352	8752	-5	-9	3	4000	-3312	16248	16	7	3	344	6744	14960	-10	32	-12	-12368	7312	9792	1	-7	37	3080	3824	16704	-7	-16	8	127	140	12
-2180	-8444	14612	12	-26	6	-11200	-8440	8472	-14	-5	-11	3928	-3440	16536	21	-9	16	520	6896	14832	-21	21	-7	-12536	7352	10240	1	-3	27	3272	3760	17032	-27	-19	16	127	140	12
-2208	-8320	14792	-11	-21	2	-11336	-8432	8936	-25	-10	-2	3952	-3688	16456	31	-13	27	368	7152	15104	-24	23	-10	-12448	7304	10168	1	7	18	3104	3640	16824	-27	-18	30	127	140	12
-2256	-8248	14564	-32	-10	-9	-11200	-8560	8656	-33	-13	-14	4056	-3752	16536	31	-14	34	320	6944	15488	-19	23	-9	-12320	7248	9936	-16	7	13	3192	3688	16816	-12	-20	36	128	140	12
-2092	-8636	14552	-22	-13	-12	-10936	-8720	8784	-32	-5	-14	4152	-3832	16528	26	-14	36	232	6968	15248	-28	27	-11	-12128	7256	10088	2	9	11	3328	3504	16488	4	-13	48	127	139	12
-2136	-8496	14376	-29	-10	-16	-10944	-8752	8776	-24	-9	-15	4264	-3896	16136	15	-6	46	408	6856	14968	-26	28	-13	-12080	7000	9528	-18	15	7	3144	3552	16536	11	-7	49	127	138	12
-2060	-8656	14392	-8	-14	-17	-10824	-8792	8624	-10	-3	-10	4000	-4064	16384	11	3	39	208	6960	14872	-25	24	-13	-12016	7152	10048	7	16	-1	2992	3312	16400	10	-10	57	127	139	12
-1928	-8972	14332	-2	-20	-13	-10904	-8888	8808	-12	-14	-3	4032	-3928	16376	18	-7	28	200	6960	14872	-35	26	-20	-12296	6928	9488	-38	17	12	2888	3168	16552	1	-15	55	127	139	12
-2324	-8580	14464	15	-26	0	-11016	-8688	8752	-6	-5	-5	3848	-3896	16392	14	-6	22	176	6944	14776	-34	31	-14	-12432	6912	9576	-33	13	9	2760	3192	16456	-4	-25	47	127	139	12
-2448	-8488	14408	4	-29	-12	-11056	-8504	8496	-14	-7	3	3920	-3888	15936	20	-10	13	152	6600	14280	-13	25	-4	-12264	6816	9368	-28	7	10	3008	3048	16328	-4	-24	39	127	139	12
-2668	-8356	14264	11	-22	-5	-10920	-8400	8424	-24	-14	13	3784	-3776	16072	23	-10	6	296	6496	14904	-18	16	-15	-12176	6984	9360	14	-1	22	2968	3184	16328	2	-21	29	127	140	12
-2072	-8696	14296	16	-23	-5	-10824	-8576	8520	-33	-22	15	3928	-3952	16224	16	-10	7	312	6648	14952	-10	16	-12	-12240	7016	9552	0	-4	32	3080	3024	16496	10	-14	23	127	140	12
-2344	-8596	14404	13	-25	-5	-10992	-8536	8520	-11	-8	1	4056	-3832	16480	17	-6	8	256	7096	14720	-12	29	-14	-12432	6912	9472	-5	-11	36	2816	3336	16656	10	-17	15	127	139	12
-2460	-8572	14292	12	-18	-7	-11200	-8544	8400	-1	-8	2	3832	-3832	16416	18	-1	11	232	6200	14960	-2	17	-12	-12416	6968	9624	0	-7	30	3040	3432	16728	0	-18	11	127	140	12
-2332	-8572	14260	-1	-9	-12	-11136	-8528	8504	7	-5	6	3784	-3776	16352	20	2	14	192	6536	14824	-16	23	-10	-12376	7032	9672	20	-1	18	3192	3360	16736	-7	-22	11	127	140	12
-2376	-8908	14060	-6	-7	-16	-10824	-8488	8632	0	-3	8	4000	-3784	16360	19	4	17	104	6312	15128	-15	18	-15	-12480	7048	9984	16	6	18	3208	3528	16600	-9	-13	19	127	139	12
