#Activity	sitting 
#ActivityID	5 
#Date 09-27-15-42
acc_rf_x	acc_rf_y	acc_rf_z	gyro_rf_x	gyro_rf_y	gyro_rf_z	acc_rs_x	acc_rs_y	acc_rs_z	gyro_rs_x	gyro_rs_y	gyro_rs_z	acc_rt_x	acc_rt_y	acc_rt_z	gyro_rt_x	gyro_rt_y	gyro_rt_z	acc_lf_x	acc_lf_y	acc_lf_z	gyro_lf_x	gyro_lf_y	gyro_lf_z	acc_ls_x	acc_ls_y	acc_ls_z	gyro_ls_x	gyro_ls_y	gyro_ls_z	acc_lt_x	acc_lt_y	acc_lt_z	gyro_lt_x	gyro_lt_y	gyro_lt_z	EMG_r	EMG_l	act
-9252	-3432	13332	128	-33	-130	-15156	956	-5920	14	-36	-65	-2512	-3440	16276	54	-162	171	-8180	4324	12912	-97	157	-205	-15652	2196	-5384	111	1	129	-2576	6616	15604	211	-5	43	126	123	5
-9260	-3492	13468	140	-60	-155	-15224	816	-5768	-12	-47	-45	-2500	-3500	16220	21	-147	186	-8172	4316	13176	-88	158	-188	-15608	2204	-5320	110	-22	119	-2580	6612	15676	192	-42	58	126	123	5
-9172	-3436	13484	132	-31	-140	-15172	904	-5844	-29	-67	-62	-2556	-3500	16272	31	-156	201	-8224	4348	13060	-61	129	-206	-15584	2224	-5448	68	12	118	-2612	6660	15628	186	-8	7	126	124	5
-9240	-3432	13456	158	-63	-147	-15224	864	-5800	-25	-64	-31	-2532	-3496	16120	33	-115	200	-8200	4304	13040	-73	128	-206	-15624	2216	-5420	88	-28	127	-2608	6620	15524	200	-40	32	126	123	5
-9240	-3472	13448	149	-82	-150	-15244	828	-5716	-20	-123	-27	-2512	-3532	16188	67	-127	166	-8236	4308	13012	-57	139	-180	-15572	2284	-5532	107	-23	100	-2576	6660	15652	187	-5	44	126	123	5
-9136	-3512	13504	117	-100	-152	-15184	904	-5712	-11	-38	-50	-2512	-3460	16124	16	-165	148	-8152	4300	13108	-96	166	-243	-15644	2212	-5420	97	-37	121	-2488	6600	15640	180	-1	21	126	123	5
-9224	-3416	13504	151	-83	-154	-15208	884	-5892	-15	-46	-39	-2536	-3456	16280	50	-137	169	-8092	4296	13060	-59	103	-212	-15636	2220	-5524	94	-36	145	-2584	6596	15688	184	-11	46	126	123	5
-9188	-3480	13428	129	-91	-173	-15208	904	-5780	-32	-52	-47	-2508	-3476	16264	82	-155	204	-8188	4320	13084	-72	133	-224	-15592	2180	-5352	53	-22	130	-2540	6624	15624	206	-18	39	126	124	5
-9180	-3456	13376	118	-50	-133	-15288	880	-5752	-1	-71	-57	-2532	-3440	16188	35	-158	183	-8112	4284	12960	-50	126	-221	-15672	2188	-5392	53	-31	136	-2588	6608	15600	214	-22	11	126	124	5
-9188	-3420	13408	124	-84	-133	-15164	832	-5900	-33	-58	-67	-2544	-3520	16132	8	-147	191	-8136	4328	13092	-110	144	-218	-15620	2240	-5404	58	-7	120	-2552	6652	15636	190	-10	41	126	124	5
-9216	-3384	13368	126	-52	-156	-15232	916	-5852	1	-53	-58	-2584	-3552	16208	53	-131	140	-8152	4356	13024	-91	151	-202	-15664	2284	-5380	42	-54	156	-2560	6720	15464	237	0	13	126	123	5
-9200	-3424	13480	146	-52	-169	-15116	896	-5800	-15	-13	-20	-2516	-3488	16240	2	-132	178	-8148	4320	13116	-92	160	-204	-15548	2260	-5500	72	18	100	-2632	6648	15568	186	19	33	126	123	5
-9220	-3384	13476	118	-125	-135	-15160	876	-5920	8	-61	-42	-2544	-3480	16104	34	-140	170	-8176	4380	12860	-107	138	-217	-15620	2216	-5528	108	-28	99	-2544	6676	15636	189	-15	31	126	123	5
-9152	-3460	13380	154	-132	-138	-15180	840	-5880	-33	-51	-58	-2500	-3492	16120	70	-137	241	-8148	4312	13072	-70	151	-206	-15624	2168	-5540	93	-15	140	-2612	6616	15504	187	-1	72	126	124	5
-9224	-3440	13460	136	-67	-152	-15192	832	-5864	-36	-47	-23	-2540	-3512	16212	19	-149	163	-8184	4352	13052	-141	146	-230	-15632	2224	-5492	73	-35	101	-2616	6632	15564	174	1	19	126	123	5
-9152	-3464	13508	136	-90	-162	-15128	832	-5892	14	-61	-35	-2552	-3488	16260	32	-123	171	-8200	4280	13056	-46	153	-236	-15648	2244	-5396	84	-3	117	-2540	6552	15572	204	-48	63	126	123	5
-9192	-3428	13388	109	-42	-141	-15212	920	-5812	-40	-75	-23	-2528	-3424	16204	29	-160	157	-8132	4272	13024	-102	154	-212	-15592	2192	-5352	87	-35	126	-2592	6592	15732	186	-42	10	126	123	5
-9168	-3432	13444	137	-62	-157	-15168	852	-5784	-2	-38	-48	-2520	-3444	16244	43	-140	187	-8148	4324	13116	-71	143	-196	-15628	2204	-5428	69	-26	142	-2572	6592	15600	186	-10	26	126	123	5
-9240	-3492	13408	141	-48	-142	-15184	900	-5788	-21	-47	-48	-2528	-3464	16160	73	-140	187	-8168	4324	13056	-81	138	-218	-15664	2268	-5432	70	-80	151	-2512	6660	15644	193	-17	31	126	123	5
-9200	-3504	13448	131	-76	-147	-15144	876	-5772	-41	-73	-24	-2504	-3464	16096	68	-150	174	-8128	4332	13088	-68	166	-208	-15640	2252	-5360	97	8	154	-2556	6668	15560	178	-13	43	126	124	5
-9164	-3464	13448	115	-117	-133	-15148	884	-5696	20	-27	-2	-2524	-3400	16132	35	-133	173	-8156	4332	13016	-103	145	-231	-15604	2252	-5364	75	3	124	-2564	6656	15588	212	20	24	126	123	5
-9216	-3460	13452	131	-55	-148	-15252	832	-5776	1	-29	-30	-2508	-3472	16232	12	-98	199	-8188	4308	12968	-67	139	-215	-15612	2264	-5472	92	-11	134	-2612	6632	15536	190	-25	25	126	123	5
-9216	-3468	13516	153	-75	-157	-15204	900	-5828	-33	-36	16	-2536	-3512	16236	12	-156	151	-8204	4388	13004	-77	129	-211	-15600	2228	-5452	99	-15	113	-2596	6684	15640	180	-22	45	126	124	5
-9216	-3476	13440	124	-48	-136	-15204	876	-5920	-17	-47	-33	-2624	-3452	16108	50	-142	177	-8180	4280	13000	-66	153	-218	-15604	2228	-5512	77	28	120	-2544	6608	15736	181	-15	-6	126	124	5
-9220	-3472	13436	141	-99	-134	-15228	864	-5908	3	-18	-29	-2528	-3448	16148	40	-105	169	-8168	4328	13004	-88	126	-219	-15612	2204	-5516	85	-45	137	-2592	6636	15540	188	2	33	126	123	5
-9224	-3432	13384	139	-90	-132	-15208	920	-5764	-6	-61	-22	-2544	-3392	16248	36	-149	180	-8156	4336	13080	-118	163	-241	-15576	2212	-5512	41	16	122	-2548	6628	15684	186	-2	23	126	124	5
-9172	-3484	13412	118	-65	-137	-15280	844	-5700	-3	-20	-36	-2556	-3488	16200	23	-127	205	-8168	4344	13052	-82	138	-209	-15608	2232	-5404	85	14	127	-2548	6636	15580	172	-27	34	126	124	5
-9228	-3512	13464	133	-72	-151	-15144	844	-5776	27	-46	-41	-2512	-3468	16324	38	-155	175	-8188	4356	13064	-109	155	-224	-15628	2204	-5444	103	3	92	-2568	6688	15644	220	-9	35	126	124	5
-9196	-3452	13456	100	-107	-117	-15152	868	-5908	-3	-43	-96	-2560	-3504	16236	51	-130	213	-8164	4288	13092	-88	130	-224	-15584	2224	-5412	96	-34	135	-2568	6676	15496	183	-12	37	126	124	5
-9168	-3448	13436	119	-33	-181	-15252	836	-5700	-14	-57	-37	-2528	-3540	16184	45	-107	163	-8148	4376	13116	-73	132	-201	-15560	2252	-5488	65	-47	110	-2588	6604	15684	183	-30	25	126	124	5
-9180	-3448	13436	112	-80	-144	-15196	856	-5808	2	-80	-22	-2444	-3520	16232	34	-117	153	-8124	4324	13012	-67	146	-214	-15668	2240	-5488	91	-27	137	-2540	6680	15628	190	-12	53	126	123	5
-9176	-3440	13516	137	-104	-140	-15180	924	-5812	13	-75	-56	-2504	-3460	16200	64	-114	190	-8112	4328	13008	-85	143	-194	-15596	2180	-5428	79	-33	144	-2548	6600	15620	171	-8	48	126	123	5
-9208	-3412	13380	107	-54	-156	-15160	856	-5684	-23	-31	-11	-2500	-3440	16212	5	-122	169	-8116	4292	13000	-104	162	-255	-15692	2204	-5392	118	-27	124	-2572	6548	15580	180	-21	47	126	123	5
-9212	-3448	13424	128	-78	-147	-15204	888	-5736	-15	-53	-49	-2564	-3504	16240	13	-134	192	-8200	4316	13012	-69	179	-212	-15556	2204	-5400	88	31	130	-2564	6592	15576	193	-28	-6	126	124	5
-9088	-3448	13508	116	-84	-146	-15224	972	-5780	-31	-16	-53	-2552	-3436	16140	25	-142	192	-8124	4276	13112	-121	155	-194	-15664	2196	-5384	71	11	137	-2576	6712	15572	206	-15	25	126	123	5
-9132	-3500	13444	115	-75	-149	-15308	900	-5840	2	-45	-51	-2484	-3524	16212	24	-121	176	-8280	4392	13096	-139	173	-198	-15648	2248	-5464	97	-15	161	-2596	6684	15660	210	-31	46	126	124	5
-9200	-3420	13416	125	-104	-126	-15148	892	-5832	44	-9	-48	-2524	-3456	16204	53	-147	149	-8184	4312	12956	-80	173	-211	-15616	2248	-5504	105	-33	142	-2588	6688	15580	183	-39	38	126	124	5
-9188	-3460	13480	139	-89	-141	-15200	916	-5820	-25	-67	-75	-2592	-3492	16112	22	-139	161	-8160	4324	13028	-70	158	-196	-15588	2228	-5592	98	-28	132	-2628	6656	15676	197	-19	38	126	123	5
-9256	-3456	13416	132	-57	-161	-15200	824	-5900	-8	-33	-69	-2556	-3484	16204	24	-135	170	-8212	4296	13008	-77	156	-200	-15576	2232	-5512	88	-1	125	-2596	6648	15564	199	-6	36	126	123	5
-9196	-3468	13424	152	-59	-118	-15144	844	-5896	9	-25	-46	-2520	-3516	16180	33	-130	171	-8172	4252	13060	-90	139	-250	-15596	2252	-5476	81	-36	131	-2616	6584	15728	179	-53	26	126	123	5
-9256	-3352	13444	125	-82	-167	-15232	888	-5832	-49	-35	-89	-2536	-3508	16184	67	-120	144	-8112	4364	13036	-74	162	-205	-15532	2164	-5424	68	10	113	-2608	6612	15676	195	-16	16	126	124	5
-9224	-3500	13328	137	-68	-141	-15172	924	-5796	-21	-46	-46	-2508	-3548	16268	78	-167	158	-8168	4308	12992	-98	126	-195	-15640	2176	-5376	70	-35	132	-2580	6596	15604	166	-13	28	126	123	5
-9220	-3464	13392	134	-59	-150	-15204	836	-5828	-45	-75	-56	-2528	-3500	16096	52	-156	191	-8180	4308	12988	-27	135	-221	-15596	2164	-5428	102	-21	158	-2616	6604	15600	236	-55	29	126	124	5
-9204	-3440	13444	131	-64	-158	-15252	840	-5796	-41	-72	-60	-2448	-3484	16204	35	-157	203	-8208	4248	13024	-36	163	-204	-15640	2212	-5384	109	-60	175	-2552	6596	15660	215	-21	40	126	123	5
-9204	-3464	13468	110	-62	-149	-15240	828	-5804	-17	-59	-8	-2484	-3528	16280	36	-138	151	-8184	4364	13000	-83	156	-192	-15600	2216	-5372	97	-48	148	-2576	6664	15556	229	-34	33	126	124	5
-9236	-3512	13400	131	-72	-140	-15148	900	-5844	26	-42	-5	-2476	-3504	16184	25	-143	153	-8256	4308	13112	-82	144	-251	-15568	2240	-5424	109	-9	142	-2544	6680	15688	184	-13	26	126	123	5
-9192	-3412	13324	128	-60	-150	-15216	912	-5864	-14	-11	1	-2464	-3516	16288	41	-126	191	-8184	4340	13072	-97	152	-224	-15628	2256	-5316	47	-9	119	-2552	6692	15480	206	-25	42	126	124	5
-9244	-3496	13388	154	-92	-144	-15188	912	-5760	0	-33	9	-2520	-3396	16144	62	-123	176	-8188	4308	13108	-59	195	-235	-15608	2272	-5420	89	1	115	-2564	6644	15636	193	-22	17	126	123	5
-9116	-3376	13472	134	-84	-173	-15244	884	-5812	-37	-34	-12	-2552	-3428	16148	74	-134	180	-8204	4388	13072	-85	159	-201	-15620	2252	-5324	86	1	164	-2588	6688	15628	181	-24	21	126	124	5
-9240	-3456	13420	133	-77	-169	-15240	968	-5804	-8	-60	-15	-2500	-3452	16248	14	-125	185	-8212	4260	13012	-87	152	-191	-15624	2252	-5484	89	14	120	-2540	6688	15656	194	25	45	126	123	5
-9216	-3472	13412	163	-74	-127	-15176	908	-5728	-21	-64	-24	-2552	-3444	16264	-2	-133	154	-8204	4292	12980	-113	182	-216	-15640	2224	-5432	66	-19	139	-2608	6668	15676	175	-17	21	126	123	5
-9216	-3396	13424	119	-68	-162	-15148	952	-5948	-14	-13	-40	-2536	-3468	16160	35	-140	187	-8176	4340	13124	-156	154	-205	-15600	2212	-5432	103	9	91	-2588	6716	15592	173	-27	63	126	123	5
-9240	-3480	13444	129	-75	-146	-15216	944	-5840	-14	-77	-32	-2548	-3500	16140	21	-168	180	-8168	4292	13024	-104	141	-221	-15632	2204	-5408	88	6	108	-2588	6648	15584	172	-10	58	126	124	5
-9164	-3448	13344	138	-80	-156	-15172	928	-5804	-22	-61	-50	-2508	-3524	16224	38	-121	193	-8196	4332	13048	-90	133	-199	-15576	2240	-5524	88	-70	115	-2624	6592	15768	152	-1	19	126	124	5
-9176	-3420	13408	149	-42	-157	-15224	856	-5748	-24	-34	-63	-2472	-3500	16064	34	-133	193	-8184	4312	13008	-97	137	-215	-15604	2244	-5392	46	-14	73	-2528	6596	15604	178	-14	24	126	123	5
-9152	-3496	13412	121	-84	-163	-15204	784	-5856	-30	-79	-52	-2484	-3508	16156	30	-128	170	-8212	4300	12932	-104	122	-221	-15604	2180	-5364	84	-40	106	-2556	6600	15568	201	-23	53	126	124	5
-9204	-3364	13404	160	-91	-167	-15244	908	-5880	-8	-54	-25	-2484	-3580	16276	29	-132	165	-8240	4340	13056	-98	163	-239	-15628	2144	-5432	68	-19	107	-2556	6580	15636	196	-21	29	127	124	5
-9204	-3444	13448	145	-50	-159	-15152	848	-5852	-24	-40	-39	-2472	-3516	16164	42	-94	183	-8204	4312	12924	-74	145	-226	-15588	2256	-5548	81	-29	151	-2548	6500	15584	187	-18	42	126	123	5
-9160	-3492	13332	111	-49	-144	-15228	896	-5684	-4	-43	7	-2492	-3488	16124	45	-117	172	-8164	4388	13072	-65	148	-207	-15628	2228	-5352	73	10	136	-2604	6680	15704	172	-13	39	126	123	5
-9220	-3412	13448	160	-58	-158	-15168	860	-5872	30	-50	-26	-2548	-3520	16160	60	-115	178	-8184	4312	13020	-84	164	-199	-15536	2292	-5496	67	-35	164	-2564	6664	15660	185	-27	37	126	123	5
-9196	-3472	13368	151	-83	-153	-15216	908	-5808	-4	-47	-7	-2532	-3468	16216	36	-155	190	-8180	4364	13032	-52	158	-220	-15516	2268	-5420	51	-30	118	-2556	6680	15776	206	4	38	126	123	5
-9224	-3456	13500	166	-155	-114	-15168	928	-5740	-48	-52	5	-2556	-3540	16248	30	-137	187	-8132	4356	13060	-69	164	-175	-15636	2160	-5420	64	3	125	-2592	6648	15536	185	-4	14	126	123	5
-9164	-3416	13476	137	-128	-151	-15168	872	-5808	4	-81	-5	-2476	-3388	16240	28	-137	172	-8160	4332	13072	-87	185	-191	-15580	2188	-5504	86	-48	119	-2564	6696	15588	205	-14	58	126	124	5
-9200	-3472	13460	157	-95	-168	-15152	880	-5788	7	-61	-35	-2512	-3416	16120	54	-138	170	-8136	4316	13044	-82	130	-241	-15600	2260	-5476	71	7	111	-2632	6632	15596	185	-10	27	126	123	5
-9148	-3472	13428	125	-67	-140	-15212	872	-5740	-13	-69	-23	-2512	-3428	16140	46	-136	160	-8200	4328	13004	-70	158	-238	-15580	2248	-5364	90	-9	118	-2568	6588	15596	178	-44	49	126	124	5
-9160	-3424	13484	156	-47	-120	-15212	920	-5752	2	-44	-19	-2520	-3488	16136	30	-147	183	-8180	4356	13072	-95	149	-182	-15584	2204	-5384	99	-21	122	-2584	6664	15628	195	-10	5	126	123	5
-9192	-3460	13552	176	-101	-157	-15260	900	-5784	-31	-44	-34	-2596	-3384	16104	43	-161	186	-8144	4292	13100	-78	165	-216	-15620	2244	-5416	105	-29	132	-2568	6716	15584	201	-6	27	126	124	5
-9216	-3408	13520	151	-61	-135	-15228	896	-5900	-47	-29	-48	-2548	-3492	16112	11	-129	231	-8212	4384	12996	-91	156	-194	-15632	2248	-5476	90	-26	115	-2564	6696	15560	179	-15	52	126	123	5
-9192	-3428	13464	95	-78	-172	-15252	872	-5736	-27	-56	-31	-2548	-3520	16144	13	-138	174	-8168	4324	13028	-97	156	-197	-15704	2216	-5428	38	-10	85	-2536	6640	15612	185	-13	41	126	123	5
-9212	-3420	13420	143	-98	-134	-15236	936	-5756	-12	-52	-41	-2504	-3500	16216	68	-127	166	-8172	4328	12976	-68	160	-211	-15612	2184	-5444	59	25	113	-2548	6628	15688	215	36	51	126	123	5
-9276	-3472	13492	127	-50	-160	-15180	816	-5756	-32	-17	-35	-2488	-3488	16160	52	-134	200	-8160	4344	13016	-93	153	-246	-15668	2184	-5544	60	27	121	-2588	6572	15680	191	26	36	126	123	5
-9224	-3448	13516	110	-110	-156	-15232	916	-5912	16	-44	-41	-2572	-3476	16200	73	-139	178	-8220	4300	13020	-135	167	-217	-15588	2200	-5368	52	-21	138	-2580	6580	15600	229	-13	56	126	124	5
-9196	-3416	13456	117	-22	-169	-15160	856	-5760	5	-74	-33	-2580	-3440	16168	64	-131	158	-8200	4356	13000	-149	163	-210	-15644	2228	-5428	90	11	125	-2624	6668	15548	195	-12	61	126	123	5
-9212	-3460	13420	128	-11	-161	-15264	928	-5840	-18	-32	-17	-2600	-3480	16160	32	-125	171	-8196	4316	13020	-109	173	-186	-15580	2204	-5500	82	14	134	-2552	6600	15684	180	-31	20	126	123	5
-9216	-3456	13484	139	-80	-142	-15264	920	-5992	22	-23	-26	-2556	-3496	16240	28	-137	198	-8168	4304	12960	-105	146	-234	-15572	2240	-5516	111	-28	114	-2536	6704	15716	189	-37	32	126	123	5
-9228	-3416	13508	125	-68	-148	-15136	896	-5700	9	-18	-13	-2536	-3480	16180	15	-160	154	-8184	4348	13076	-105	136	-219	-15620	2276	-5376	103	0	152	-2564	6644	15700	205	-34	23	126	123	5
-9180	-3484	13452	153	-38	-164	-15116	876	-5856	-19	-64	-18	-2560	-3432	16172	44	-164	177	-8196	4244	13084	-68	120	-211	-15640	2204	-5472	89	-32	156	-2488	6688	15620	190	-30	37	126	124	5
-9176	-3444	13388	136	-53	-130	-15180	860	-5676	8	-50	-51	-2516	-3484	16052	55	-136	192	-8160	4368	13068	-99	134	-237	-15576	2212	-5316	88	-84	123	-2528	6720	15584	218	-24	37	126	124	5
-9172	-3484	13464	115	-92	-170	-15232	892	-5860	-51	-17	-58	-2524	-3400	16180	37	-128	205	-8192	4260	13064	-45	122	-212	-15568	2296	-5376	55	-29	100	-2524	6708	15708	201	-31	39	126	123	5
-9172	-3488	13416	147	-67	-139	-15180	880	-5776	-9	-29	-18	-2508	-3496	16212	25	-159	195	-8196	4312	12952	-85	153	-213	-15592	2220	-5472	44	-35	139	-2572	6696	15760	171	10	45	126	123	5
-9160	-3508	13380	152	-76	-127	-15216	908	-5772	-19	-26	-46	-2584	-3496	16156	49	-156	191	-8184	4328	13024	-91	122	-214	-15628	2216	-5476	63	-13	141	-2556	6656	15652	200	-35	37	126	123	5
-9212	-3404	13428	122	-46	-133	-15192	880	-5820	-9	-53	-42	-2496	-3508	16208	45	-124	155	-8240	4352	13076	-109	146	-185	-15640	2132	-5420	131	-23	93	-2528	6600	15700	177	-3	26	126	124	5
-9208	-3432	13428	126	-134	-138	-15220	900	-5840	-30	-29	-28	-2500	-3536	16216	84	-149	184	-8132	4336	13020	-40	127	-237	-15556	2208	-5400	56	-29	133	-2544	6548	15632	198	9	4	126	124	5
-9220	-3444	13480	159	-123	-146	-15220	908	-5712	-39	-48	-64	-2436	-3480	16180	36	-121	160	-8164	4320	13008	-104	149	-213	-15664	2196	-5336	118	-28	121	-2520	6620	15768	206	8	58	126	123	5
-9212	-3408	13408	137	-130	-148	-15248	852	-5784	-47	-18	-37	-2468	-3480	16244	61	-128	169	-8184	4296	13096	-54	150	-232	-15676	2216	-5424	91	12	142	-2508	6588	15752	218	-8	48	126	124	5
-9200	-3424	13420	167	-100	-142	-15272	912	-5828	2	-14	-13	-2532	-3504	16208	33	-124	204	-8176	4348	13008	-90	192	-214	-15608	2236	-5432	55	-21	135	-2552	6588	15616	219	6	23	126	123	5
-9200	-3492	13480	109	-76	-117	-15224	832	-5816	17	0	-35	-2572	-3532	16164	37	-128	165	-8192	4344	12988	-55	201	-243	-15584	2288	-5416	50	-17	150	-2668	6596	15756	254	15	32	126	123	5
-9188	-3444	13312	108	-49	-137	-15140	920	-5736	-49	7	-36	-2552	-3552	16184	44	-127	178	-8092	4316	13016	-91	187	-226	-15608	2184	-5460	81	1	113	-2604	6708	15532	226	-2	25	126	123	5
-9180	-3536	13396	162	-105	-165	-15204	896	-5896	-57	-56	-49	-2496	-3520	16232	66	-127	171	-8132	4352	13032	-75	157	-238	-15656	2272	-5512	75	7	124	-2588	6656	15628	182	-10	29	126	124	5
-9168	-3472	13480	148	-34	-160	-15180	852	-5912	10	-76	-36	-2568	-3468	16268	30	-141	147	-8184	4336	13136	-95	154	-187	-15632	2188	-5512	101	-32	144	-2588	6668	15768	162	-19	32	126	124	5
-9176	-3412	13384	156	-58	-145	-15248	908	-5788	3	-51	-27	-2584	-3412	16192	26	-150	191	-8168	4320	13040	-66	139	-231	-15644	2272	-5352	98	-1	136	-2516	6660	15500	172	-32	22	126	123	5
-9284	-3456	13416	125	-112	-117	-15284	928	-5916	-14	-29	-18	-2504	-3360	16176	14	-120	195	-8152	4392	13044	-70	127	-186	-15660	2212	-5540	112	8	124	-2484	6672	15616	175	10	23	126	124	5
-9232	-3416	13368	104	-53	-166	-15176	960	-5848	-14	-60	-69	-2528	-3424	16256	9	-140	166	-8164	4352	13072	-73	147	-205	-15592	2204	-5484	80	23	118	-2560	6680	15652	183	-17	36	126	124	5
-9180	-3468	13444	147	-84	-146	-15148	892	-5736	-46	-40	-73	-2540	-3520	16224	29	-143	219	-8140	4396	13084	-105	142	-218	-15632	2224	-5436	66	-10	121	-2540	6692	15608	206	22	63	126	124	5
-9196	-3452	13416	100	-58	-148	-15120	876	-5940	1	-19	-71	-2536	-3476	16200	27	-128	187	-8116	4320	13072	-85	172	-222	-15616	2228	-5392	39	-66	165	-2564	6664	15524	184	-1	45	126	123	5
-9200	-3472	13416	139	-88	-164	-15120	856	-5776	-45	-6	-69	-2480	-3596	16216	30	-151	171	-8104	4268	13032	-64	125	-236	-15620	2196	-5492	58	-1	87	-2612	6648	15672	150	-27	43	126	124	5
-9188	-3452	13504	121	-59	-137	-15132	876	-5828	-28	-47	-64	-2492	-3572	16244	64	-110	190	-8124	4284	13036	-101	122	-221	-15668	2220	-5408	93	-22	162	-2556	6616	15572	209	-27	45	126	124	5
-9152	-3404	13396	133	-110	-156	-15192	844	-5784	-6	-46	-15	-2488	-3536	16060	58	-125	163	-8220	4364	12976	-102	141	-226	-15608	2180	-5500	113	-37	104	-2524	6636	15700	167	-36	-1	126	123	5
-9180	-3424	13484	123	-54	-150	-15216	824	-5768	-11	-67	-38	-2512	-3544	16108	27	-163	184	-8124	4312	12976	-101	154	-218	-15648	2212	-5496	103	-21	140	-2540	6584	15612	192	-24	32	126	123	5
-9236	-3436	13432	169	-47	-162	-15224	856	-5876	17	-28	-12	-2524	-3480	16212	28	-108	158	-8152	4304	13104	-49	142	-196	-15644	2240	-5440	83	-18	126	-2660	6648	15524	184	-27	26	126	123	5
-9236	-3488	13436	141	-51	-144	-15192	936	-5724	-22	-40	-47	-2556	-3532	16204	19	-143	194	-8168	4344	12908	-102	151	-201	-15608	2236	-5436	75	-5	144	-2584	6580	15724	215	-13	17	126	124	5
-9220	-3492	13456	143	-107	-158	-15124	916	-5800	-4	-106	-32	-2576	-3476	16220	28	-173	190	-8188	4320	12976	-97	129	-225	-15664	2280	-5420	121	-41	160	-2556	6644	15608	197	-12	39	126	124	5
-9272	-3388	13448	147	-105	-138	-15188	936	-5772	-16	-69	-61	-2524	-3456	16196	73	-143	195	-8172	4384	13032	-60	136	-198	-15620	2268	-5464	73	-24	109	-2616	6644	15652	165	-15	58	126	123	5
-9156	-3496	13340	159	-71	-135	-15180	904	-5840	-23	-22	-41	-2532	-3520	16180	73	-153	193	-8164	4336	12944	-120	163	-204	-15596	2200	-5384	66	-71	120	-2572	6608	15504	204	-45	62	126	124	5
-9256	-3440	13500	127	-59	-161	-15132	924	-5772	-13	-29	-44	-2480	-3496	16164	51	-149	207	-8164	4280	12956	-68	148	-211	-15584	2196	-5452	109	-35	126	-2520	6580	15620	175	-61	57	126	123	5
-9196	-3448	13456	128	-72	-160	-15168	792	-5736	-20	-68	-61	-2500	-3484	16176	94	-150	234	-8140	4352	12996	-68	155	-181	-15628	2244	-5468	50	-49	138	-2532	6608	15656	196	-55	38	126	124	5
-9176	-3424	13468	137	-96	-137	-15240	904	-5764	-17	-64	2	-2480	-3484	16208	53	-149	185	-8176	4332	13048	-55	126	-195	-15608	2208	-5428	62	-25	170	-2508	6656	15672	186	15	43	126	123	5
-9172	-3436	13428	154	-103	-171	-15208	884	-5756	8	-69	-6	-2444	-3412	16176	47	-165	202	-8156	4280	12972	-90	137	-185	-15624	2196	-5360	74	-27	143	-2500	6692	15596	219	-31	-5	126	124	5
-9164	-3420	13536	109	-56	-147	-15248	848	-5840	-13	-40	-20	-2480	-3448	16200	16	-117	200	-8224	4332	13032	-59	179	-202	-15584	2284	-5420	104	-5	140	-2516	6744	15648	195	18	17	126	124	5
-9172	-3444	13380	106	-48	-145	-15236	888	-5888	-27	-5	-19	-2628	-3432	16108	3	-109	181	-8172	4352	12992	-88	133	-198	-15572	2296	-5460	50	28	116	-2628	6732	15552	228	31	5	126	124	5
-9248	-3372	13460	130	-61	-165	-15176	908	-5720	-6	-37	-66	-2568	-3424	16164	18	-142	175	-8132	4320	12936	-147	187	-225	-15584	2268	-5468	105	-32	103	-2576	6788	15604	182	-4	26	126	124	5
-9232	-3420	13476	121	-27	-152	-15256	968	-5792	4	-42	-41	-2632	-3440	16200	16	-141	191	-8224	4364	12940	-151	175	-232	-15600	2300	-5528	52	-4	97	-2648	6676	15636	145	12	45	126	124	5
-9204	-3456	13544	111	-77	-152	-15152	932	-5976	-17	-32	-73	-2624	-3488	16212	46	-122	165	-8208	4344	13092	-125	165	-213	-15660	2276	-5464	82	-28	65	-2652	6668	15564	177	-14	40	126	124	5
-9132	-3440	13452	99	-94	-172	-15160	932	-5868	-29	-75	-109	-2612	-3508	16196	27	-132	195	-8164	4332	13032	-113	175	-207	-15524	2240	-5500	67	-19	106	-2652	6528	15668	152	-32	55	126	123	5
-9188	-3400	13408	99	-73	-152	-15172	928	-5860	-50	-43	-106	-2532	-3456	16064	40	-173	224	-8192	4336	13176	-92	118	-223	-15668	2160	-5436	61	-12	117	-2644	6552	15736	193	-19	85	126	124	5
-9160	-3396	13524	119	-65	-174	-15272	836	-5868	-33	-94	-77	-2560	-3540	16104	57	-182	176	-8200	4264	13140	-100	138	-205	-15652	2132	-5416	78	-37	96	-2612	6512	15684	206	-38	84	126	123	5
-9240	-3476	13432	130	-74	-120	-15208	780	-5812	-19	-31	-66	-2484	-3684	16100	70	-201	186	-8220	4292	13044	-64	126	-204	-15620	2188	-5472	66	-34	150	-2512	6560	15656	208	-43	27	126	123	5
-9256	-3428	13428	135	-108	-168	-15208	828	-5760	-46	-99	-17	-2500	-3640	16284	85	-178	212	-8248	4292	13056	-36	108	-203	-15640	2132	-5484	56	-56	164	-2536	6460	15696	221	-25	17	126	123	5
-9200	-3396	13444	146	-122	-128	-15212	848	-5740	-38	-50	-9	-2440	-3628	16140	92	-143	202	-8160	4360	13020	-17	141	-185	-15612	2136	-5284	101	-58	145	-2512	6560	15612	229	-68	28	126	123	5
-9176	-3464	13364	145	-66	-144	-15208	784	-5760	-9	-93	33	-2444	-3612	16156	70	-163	167	-8176	4296	13108	-70	99	-180	-15700	2220	-5336	94	-51	194	-2492	6644	15700	247	-61	38	126	123	5
-9220	-3476	13372	173	-119	-139	-15216	884	-5708	17	-76	47	-2488	-3420	16232	78	-164	158	-8220	4260	13116	-9	134	-191	-15640	2124	-5384	103	-24	168	-2536	6716	15684	248	-77	25	126	123	5
-9268	-3436	13388	171	-97	-131	-15228	1008	-5800	-2	-70	2	-2536	-3404	16240	103	-130	172	-8188	4268	12972	-67	104	-210	-15648	2284	-5368	98	-58	178	-2492	6700	15616	236	-44	34	126	123	5
-9156	-3408	13428	161	-57	-150	-15188	956	-5784	11	-70	41	-2516	-3388	16144	62	-112	187	-8172	4332	13036	-62	144	-204	-15532	2320	-5504	123	-76	200	-2528	6804	15584	238	-37	17	126	123	5
-9192	-3392	13432	158	-77	-144	-15192	988	-5732	21	-49	20	-2580	-3360	16204	13	-128	182	-8156	4336	13048	-94	146	-210	-15668	2304	-5372	94	-16	147	-2608	6768	15616	213	9	32	126	123	5
-9204	-3452	13488	143	-36	-169	-15144	996	-5744	-44	-54	16	-2576	-3300	16076	-4	-121	168	-8124	4340	13084	-141	179	-235	-15596	2244	-5400	40	18	155	-2548	6752	15592	178	-23	29	126	124	5
-9240	-3404	13400	141	-49	-157	-15176	936	-5736	-25	-37	-71	-2540	-3400	16192	2	-135	196	-8184	4352	13060	-115	167	-216	-15644	2244	-5420	77	16	89	-2508	6664	15684	165	0	60	126	123	5
-9260	-3480	13440	98	-99	-169	-15232	932	-5800	-26	-10	-40	-2540	-3484	16164	21	-161	162	-8116	4316	12964	-142	115	-235	-15620	2220	-5356	112	17	107	-2548	6704	15696	151	11	27	126	123	5
-9156	-3448	13444	116	-57	-170	-15220	868	-5780	-39	-36	-98	-2524	-3500	16276	49	-125	186	-8196	4284	13032	-126	156	-199	-15656	2160	-5540	96	22	87	-2596	6672	15632	132	-12	32	126	123	5
-9184	-3436	13392	118	-54	-169	-15208	860	-5768	9	-20	-74	-2464	-3536	16136	33	-165	194	-8224	4336	13088	-107	151	-250	-15656	2236	-5504	54	32	104	-2504	6548	15580	153	-9	10	126	123	5
-9232	-3408	13532	140	-110	-169	-15236	804	-5816	-3	-36	-96	-2496	-3552	16144	20	-134	209	-8184	4296	13060	-79	172	-242	-15592	2228	-5412	70	-26	81	-2580	6568	15652	178	22	41	126	123	5
-9196	-3496	13468	93	-71	-179	-15156	808	-5836	-28	-32	-98	-2532	-3632	16272	60	-111	192	-8172	4320	12940	-98	135	-193	-15648	2160	-5312	87	-1	125	-2560	6480	15700	224	11	61	126	123	5
-9120	-3480	13500	91	-46	-184	-15176	788	-5748	-38	-26	-11	-2500	-3608	16080	53	-123	189	-8112	4264	13084	-87	135	-216	-15612	2136	-5472	88	-27	147	-2596	6544	15632	230	4	40	126	123	5
-9228	-3420	13416	123	-87	-147	-15200	840	-5800	3	-47	-20	-2420	-3628	16064	52	-148	184	-8112	4376	13000	-61	180	-213	-15636	2156	-5368	89	17	157	-2600	6560	15660	193	-31	17	126	123	5
-9172	-3440	13516	176	-72	-179	-15196	784	-5708	-19	-54	-37	-2548	-3524	16160	90	-152	143	-8212	4292	13064	-39	160	-188	-15620	2204	-5392	110	8	168	-2548	6592	15552	211	-57	12	126	124	5
-9200	-3444	13428	167	-25	-134	-15224	912	-5724	34	-34	-26	-2572	-3496	16184	37	-121	168	-8164	4280	13044	-62	139	-222	-15576	2224	-5408	102	-56	156	-2548	6712	15656	209	-45	30	126	123	5
-9196	-3448	13448	172	-94	-108	-15332	964	-5788	-9	-28	-3	-2568	-3368	16192	44	-135	159	-8168	4348	12976	-69	144	-177	-15612	2264	-5456	90	-41	196	-2552	6728	15636	206	-32	18	126	123	5
-9208	-3480	13520	157	-64	-119	-15104	940	-5812	-12	4	4	-2612	-3416	16108	47	-158	190	-8192	4316	13072	-52	153	-181	-15632	2288	-5368	74	-41	178	-2532	6756	15588	229	-28	41	126	123	5
-9188	-3456	13504	127	-72	-128	-15216	988	-5796	4	-47	-36	-2572	-3460	16128	42	-108	171	-8188	4308	13044	-84	166	-228	-15596	2300	-5480	36	17	118	-2588	6728	15620	225	-11	30	126	124	5
-9164	-3436	13412	138	-50	-150	-15244	968	-5736	-7	-29	-45	-2532	-3408	16240	60	-130	185	-8228	4264	12992	-58	162	-208	-15600	2288	-5496	47	-23	123	-2548	6712	15580	194	-9	51	126	124	5
-9148	-3452	13484	92	-43	-142	-15168	960	-5864	-21	-66	-70	-2528	-3380	16256	46	-128	164	-8164	4356	13076	-74	128	-248	-15596	2308	-5400	152	1	88	-2600	6792	15660	128	-43	32	126	124	5
-9216	-3452	13304	102	-31	-165	-15256	916	-5808	-11	-23	-79	-2524	-3424	16172	8	-131	174	-8184	4304	13016	-133	162	-248	-15624	2300	-5388	99	19	90	-2616	6664	15640	163	4	19	126	123	5
-9220	-3420	13456	137	-90	-163	-15216	924	-5844	-2	-43	-75	-2512	-3436	16184	-16	-117	183	-8228	4332	12952	-90	143	-245	-15616	2192	-5524	97	-38	104	-2580	6660	15628	184	-12	29	126	123	5
-9204	-3460	13420	146	-69	-131	-15140	952	-5844	-61	-43	-55	-2508	-3520	16172	-29	-130	169	-8136	4340	13064	-101	162	-255	-15616	2220	-5468	62	-32	96	-2560	6652	15584	189	7	31	126	123	5
-9192	-3456	13428	132	-101	-166	-15156	904	-5840	-50	2	-95	-2540	-3540	16244	17	-182	174	-8176	4400	12924	-76	146	-237	-15624	2208	-5468	48	-7	109	-2604	6580	15604	169	28	69	126	123	5
-9216	-3480	13416	124	-99	-158	-15180	880	-5800	-28	-41	-62	-2528	-3496	16236	49	-143	171	-8120	4320	13008	-97	154	-214	-15584	2164	-5444	48	-2	65	-2540	6536	15684	168	-9	42	126	124	5
-9164	-3400	13416	135	-73	-165	-15192	864	-5820	-25	-65	-50	-2488	-3588	16284	67	-152	201	-8124	4296	12968	-64	150	-202	-15592	2176	-5420	79	-5	150	-2580	6524	15536	201	25	37	126	124	5
-9224	-3432	13324	131	-106	-147	-15204	808	-5828	-10	-39	-3	-2460	-3568	16148	38	-153	187	-8136	4300	13036	-66	153	-247	-15680	2148	-5348	77	-3	119	-2600	6552	15656	232	-20	17	126	124	5
-9160	-3476	13424	136	-40	-148	-15200	784	-5680	6	-57	-24	-2512	-3500	16208	38	-115	203	-8256	4224	12964	-101	129	-245	-15580	2192	-5544	77	-19	157	-2568	6624	15500	207	-23	15	126	123	5
-9244	-3540	13416	143	-51	-111	-15240	824	-5828	-16	-54	-7	-2492	-3568	16204	44	-131	183	-8184	4392	13092	-124	150	-197	-15652	2216	-5356	91	-13	116	-2600	6652	15676	206	-23	28	126	123	5
-9204	-3468	13368	137	-63	-136	-15160	872	-5800	36	-61	2	-2512	-3544	16160	36	-146	159	-8148	4260	13000	-101	216	-218	-15612	2196	-5324	67	2	172	-2536	6688	15584	217	-36	18	126	124	5
-9184	-3464	13416	150	-58	-167	-15228	952	-5676	28	-64	42	-2540	-3448	16224	70	-146	191	-8184	4380	13044	-133	156	-228	-15540	2260	-5316	79	-18	135	-2552	6732	15584	203	-18	-5	126	124	5
-9196	-3524	13520	96	-31	-146	-15260	932	-5864	2	-18	-18	-2524	-3408	16204	44	-142	192	-8216	4376	13016	-101	209	-210	-15584	2284	-5520	91	14	117	-2588	6780	15528	222	2	11	126	123	5
-9256	-3388	13480	122	-45	-169	-15164	964	-5752	-1	-41	-42	-2500	-3436	16168	49	-135	172	-8164	4352	13036	-97	188	-212	-15616	2228	-5336	71	-53	105	-2588	6656	15624	218	-26	19	126	124	5
-9268	-3440	13532	120	-74	-152	-15228	896	-5912	-26	-10	-42	-2596	-3440	16244	38	-122	197	-8140	4348	13084	-48	144	-217	-15616	2296	-5392	73	-10	99	-2608	6664	15580	190	3	25	126	123	5
-9172	-3480	13396	139	-96	-151	-15224	928	-5832	12	-53	-22	-2572	-3464	16256	18	-135	189	-8148	4296	13016	-89	147	-217	-15672	2236	-5516	81	-38	108	-2540	6624	15576	148	-21	30	126	123	5
-9248	-3368	13420	114	-60	-197	-15180	940	-5984	-27	-60	-84	-2592	-3484	16176	41	-130	182	-8160	4308	13128	-78	135	-201	-15644	2220	-5492	50	0	93	-2544	6636	15508	203	4	34	126	123	5
-9204	-3544	13400	130	-82	-132	-15152	952	-5868	-55	-83	-67	-2544	-3464	16124	44	-152	175	-8148	4268	13064	-116	130	-217	-15616	2264	-5400	94	0	125	-2624	6588	15780	202	-8	36	126	123	5
-9192	-3428	13432	94	-75	-137	-15236	824	-5728	29	-34	-43	-2432	-3472	16188	-6	-130	211	-8168	4344	13036	-115	128	-187	-15592	2172	-5360	130	3	85	-2560	6536	15652	182	-23	44	126	123	5
-9132	-3460	13312	131	-40	-125	-15156	892	-5856	-35	-47	-51	-2468	-3520	16152	14	-157	198	-8192	4316	13056	-82	143	-218	-15620	2176	-5412	112	-14	129	-2560	6572	15592	212	-28	33	126	124	5
-9172	-3432	13340	147	-104	-113	-15212	768	-5700	-29	-40	-63	-2500	-3492	16144	46	-150	193	-8212	4300	13056	-50	119	-217	-15608	2132	-5448	96	-36	173	-2600	6584	15584	205	5	20	126	123	5
-9196	-3404	13408	134	-108	-151	-15236	884	-5868	-17	-35	-34	-2540	-3512	16148	54	-141	198	-8176	4264	13140	-79	131	-204	-15652	2216	-5376	107	-66	166	-2584	6676	15676	206	-15	16	126	123	5
-9168	-3452	13460	158	-52	-184	-15264	852	-5768	-42	-70	-31	-2396	-3556	16064	52	-133	190	-8136	4304	13020	-61	142	-197	-15620	2256	-5452	67	10	126	-2572	6648	15488	186	-71	27	126	123	5
-9184	-3436	13388	141	-57	-112	-15152	864	-5840	-48	-39	-14	-2568	-3476	16156	13	-120	137	-8160	4372	13116	-59	119	-220	-15580	2188	-5304	82	-50	183	-2632	6652	15660	189	-16	17	126	123	5
-9228	-3444	13492	137	-43	-157	-15244	876	-5748	24	-55	-19	-2564	-3404	16192	63	-135	147	-8208	4368	13032	-120	176	-177	-15556	2288	-5400	74	-31	138	-2576	6712	15520	214	-21	55	126	124	5
-9228	-3436	13420	142	-84	-141	-15268	936	-5828	-9	-49	-47	-2516	-3408	16168	40	-147	164	-8148	4388	13120	-104	138	-205	-15596	2216	-5520	113	-18	122	-2528	6676	15564	208	-13	66	126	123	5
-9212	-3432	13468	146	-72	-168	-15160	920	-5904	-5	-48	-36	-2524	-3476	16276	48	-126	188	-8192	4296	13072	-113	162	-204	-15604	2248	-5372	80	-16	116	-2532	6668	15592	183	-13	58	126	123	5
-9152	-3372	13508	152	-86	-142	-15236	920	-5820	-29	-41	-87	-2528	-3384	16196	52	-158	183	-8188	4260	13016	-79	140	-198	-15664	2220	-5420	104	-24	139	-2596	6696	15644	200	-7	57	126	124	5
-9180	-3380	13404	136	-43	-137	-15124	912	-5744	-28	-4	-48	-2560	-3508	16168	38	-145	175	-8104	4292	12996	-114	160	-215	-15612	2264	-5316	113	-8	94	-2528	6616	15576	165	-7	28	126	124	5
-9192	-3460	13512	94	-73	-155	-15220	924	-5800	-12	-73	-40	-2564	-3388	16152	-15	-155	156	-8188	4340	13004	-100	164	-228	-15652	2200	-5448	60	-17	111	-2572	6688	15648	203	-32	46	126	124	5
-9240	-3416	13412	138	-38	-144	-15216	916	-5780	3	-57	-46	-2512	-3500	16184	1	-146	184	-8144	4348	13060	-143	141	-202	-15552	2200	-5372	74	-30	99	-2520	6600	15584	201	-30	58	126	123	5
-9196	-3436	13528	97	-50	-147	-15212	860	-5680	-2	-73	-47	-2528	-3504	16088	16	-156	194	-8164	4300	12964	-72	160	-228	-15580	2276	-5372	6	-40	81	-2596	6656	15636	215	-2	46	126	124	5
-9236	-3424	13320	140	-41	-177	-15256	888	-5780	-23	-69	-65	-2532	-3472	16176	90	-129	172	-8128	4276	13124	-84	139	-207	-15612	2196	-5460	51	7	144	-2524	6648	15692	162	-57	38	126	124	5
-9188	-3468	13536	120	-45	-182	-15232	872	-5884	-34	-66	-69	-2476	-3572	16096	25	-152	176	-8176	4360	12992	-87	175	-208	-15612	2240	-5496	84	-14	91	-2548	6600	15584	209	15	38	126	124	5
-9256	-3396	13384	124	-102	-150	-15192	900	-5844	-27	-61	-51	-2420	-3524	16216	39	-120	188	-8192	4268	13036	-81	131	-212	-15628	2228	-5356	114	-6	143	-2516	6612	15680	200	-5	24	126	124	5
-9168	-3504	13432	125	-79	-144	-15212	816	-5860	-21	-69	-42	-2500	-3524	16184	31	-153	192	-8208	4292	13076	-97	160	-226	-15628	2180	-5388	94	-27	140	-2520	6632	15676	203	-24	18	126	124	5
-9272	-3440	13440	102	-79	-145	-15148	868	-5736	-3	-31	11	-2516	-3464	16140	44	-130	172	-8160	4316	13036	-53	158	-210	-15628	2232	-5296	87	-19	130	-2552	6608	15684	190	2	28	126	123	5
-9196	-3444	13472	150	-82	-162	-15192	868	-5728	-25	-38	-36	-2552	-3504	16160	63	-141	148	-8168	4332	13032	-81	133	-212	-15608	2264	-5452	92	-19	149	-2544	6620	15540	252	22	34	126	124	5
-9216	-3404	13436	113	-68	-137	-15156	860	-5744	-17	-36	-46	-2488	-3476	16220	93	-137	182	-8172	4344	13060	-97	157	-196	-15540	2172	-5460	113	12	135	-2612	6620	15560	249	-35	61	126	123	5
-9140	-3404	13432	123	-95	-140	-15192	916	-5844	-13	-54	21	-2512	-3460	16136	65	-127	174	-8144	4280	13024	-81	154	-211	-15612	2224	-5384	87	6	145	-2528	6632	15684	186	12	46	126	123	5
-9228	-3424	13500	137	-66	-142	-15228	820	-5824	-23	-70	-19	-2484	-3416	16204	55	-136	190	-8152	4340	13076	-75	159	-205	-15640	2312	-5504	31	-63	135	-2600	6636	15628	214	-20	65	126	123	5
-9212	-3456	13480	155	-93	-166	-15204	876	-5824	-12	-27	-58	-2516	-3464	16184	37	-118	185	-8124	4340	12996	-45	153	-215	-15600	2156	-5400	58	-50	157	-2580	6712	15584	204	-14	53	126	123	5
-9216	-3456	13452	140	-73	-135	-15252	876	-5884	-5	-54	-46	-2552	-3404	16240	5	-164	145	-8132	4324	13080	-113	162	-206	-15588	2280	-5420	121	-20	141	-2584	6768	15604	228	-21	50	126	123	5
-9172	-3424	13404	126	-9	-153	-15176	952	-5696	9	-31	-23	-2532	-3452	16304	-14	-158	182	-8200	4280	13072	-76	142	-191	-15592	2276	-5412	95	-25	111	-2532	6704	15560	160	14	29	126	124	5
-9240	-3392	13396	138	-87	-165	-15180	972	-5704	0	-54	-47	-2556	-3452	16144	33	-135	186	-8116	4292	13024	-96	147	-228	-15612	2348	-5380	85	24	107	-2616	6660	15632	169	-18	28	126	124	5
-9176	-3444	13480	123	-19	-172	-15136	876	-5748	-36	-70	-76	-2496	-3516	16168	25	-130	216	-8184	4280	12952	-125	149	-202	-15604	2236	-5396	124	-29	101	-2568	6656	15696	190	-23	67	126	124	5
-9204	-3488	13500	102	-50	-159	-15236	900	-5772	8	-67	-48	-2520	-3512	16172	34	-129	195	-8212	4356	13096	-106	151	-217	-15608	2200	-5332	73	-17	101	-2516	6592	15580	179	-3	19	126	123	5
-9212	-3428	13424	106	-92	-133	-15196	888	-5916	-78	-32	-74	-2480	-3456	16280	71	-99	190	-8212	4304	12988	-125	197	-213	-15568	2168	-5404	83	7	108	-2592	6576	15688	163	17	24	126	124	5
-9188	-3472	13348	123	-67	-142	-15172	828	-5944	-36	-31	-56	-2456	-3528	16144	20	-128	188	-8140	4324	13112	-110	172	-202	-15536	2180	-5436	20	2	94	-2512	6528	15624	186	-3	51	126	123	5
-9248	-3436	13424	114	-67	-127	-15236	804	-5804	21	-62	-52	-2544	-3500	16288	15	-120	196	-8192	4304	13100	-123	155	-190	-15604	2184	-5512	19	-40	157	-2620	6568	15628	192	-9	33	126	123	5
-9268	-3388	13476	159	-87	-152	-15204	840	-5888	-4	-51	-15	-2548	-3552	16248	21	-142	176	-8176	4312	12996	-92	173	-207	-15596	2200	-5460	98	-27	151	-2568	6632	15540	190	1	38	126	124	5
-9216	-3472	13352	134	-53	-150	-15220	924	-5836	37	-51	-13	-2544	-3544	16196	74	-128	158	-8208	4300	12988	-105	179	-212	-15592	2220	-5404	71	-13	165	-2516	6596	15640	203	-33	30	126	123	5
-9180	-3432	13444	177	-78	-158	-15248	816	-5896	-6	-84	-12	-2532	-3500	16148	61	-106	162	-8168	4352	12904	-74	169	-247	-15612	2284	-5388	103	-49	131	-2524	6692	15672	207	-20	23	126	124	5
-9180	-3432	13480	144	-95	-105	-15260	900	-5804	-22	-61	0	-2472	-3520	16168	76	-134	163	-8200	4300	13092	-98	156	-216	-15612	2236	-5508	96	14	163	-2596	6648	15532	217	-48	38	126	124	5
-9164	-3396	13388	137	-109	-147	-15236	888	-5756	-24	-69	11	-2560	-3456	16164	51	-124	183	-8176	4276	13028	-69	152	-173	-15644	2240	-5400	90	-62	151	-2564	6696	15532	208	-39	49	126	123	5
-9192	-3552	13408	162	-58	-130	-15172	836	-5840	-30	-54	-31	-2528	-3496	16108	59	-150	179	-8236	4304	13140	-72	169	-229	-15604	2252	-5408	97	-6	111	-2516	6720	15568	219	-47	54	126	123	5
-9232	-3448	13472	161	-64	-146	-15184	884	-5740	-18	-48	-20	-2484	-3416	16180	69	-140	193	-8124	4308	12968	-79	130	-234	-15692	2288	-5456	51	-38	116	-2552	6656	15672	199	-26	49	126	123	5
-9212	-3444	13408	119	-105	-174	-15208	904	-5704	-20	-71	10	-2540	-3352	16180	54	-154	175	-8160	4328	12916	-76	163	-209	-15556	2272	-5292	85	-38	129	-2544	6708	15640	217	-13	32	126	123	5
-9160	-3384	13468	113	-31	-142	-15196	916	-5868	-7	-50	-35	-2508	-3388	16132	29	-141	192	-8212	4328	12920	-103	148	-207	-15620	2268	-5412	71	-38	113	-2520	6716	15612	202	-42	37	126	123	5
-9204	-3460	13560	149	-67	-124	-15208	908	-5716	-23	-56	-71	-2516	-3444	16260	16	-149	182	-8188	4320	13044	-55	109	-235	-15600	2180	-5428	116	-2	145	-2516	6708	15592	193	-24	14	126	124	5
-9196	-3472	13428	141	-108	-162	-15196	932	-5780	-4	-19	-68	-2488	-3500	16212	14	-126	177	-8136	4352	13040	-69	106	-222	-15572	2264	-5444	116	7	91	-2584	6668	15544	211	11	37	126	123	5
-9208	-3492	13372	141	-72	-181	-15180	864	-5820	-4	-25	-57	-2492	-3492	16128	33	-129	191	-8160	4308	13100	-86	138	-241	-15624	2248	-5340	59	-31	108	-2596	6672	15592	201	-15	19	126	123	5
-9232	-3416	13412	129	-58	-174	-15168	916	-5744	-38	-53	-49	-2528	-3488	16160	18	-112	185	-8176	4372	13060	-99	154	-230	-15616	2276	-5496	59	20	111	-2556	6664	15608	200	-34	64	126	124	5
-9244	-3472	13520	96	-67	-162	-15176	848	-5848	-25	-36	-74	-2520	-3480	16224	41	-143	178	-8104	4284	13144	-108	158	-213	-15560	2192	-5404	50	-2	133	-2600	6620	15628	164	25	49	126	123	5
-9208	-3388	13384	122	-70	-153	-15212	880	-5780	-2	-72	-40	-2512	-3540	16124	40	-125	206	-8152	4316	13152	-122	159	-237	-15604	2156	-5336	61	-12	109	-2612	6584	15604	194	-15	36	126	123	5
-9192	-3376	13544	122	-60	-131	-15236	812	-5808	-1	-52	-56	-2548	-3492	16168	43	-138	217	-8276	4344	13132	-105	153	-228	-15592	2204	-5416	86	-5	77	-2532	6616	15640	206	-32	23	126	123	5
-9184	-3444	13428	149	-51	-149	-15192	868	-5764	-16	-62	-34	-2528	-3500	16224	39	-139	181	-8152	4300	13064	-113	109	-210	-15580	2216	-5444	64	-12	91	-2568	6604	15648	221	-1	21	126	123	5
-9216	-3476	13436	152	-92	-141	-15228	876	-5976	-25	-23	-34	-2572	-3508	16212	39	-136	181	-8148	4340	13044	-75	179	-213	-15620	2196	-5448	84	8	137	-2584	6596	15656	188	-33	34	126	123	5
-9196	-3420	13556	126	-55	-167	-15248	876	-5828	-47	-54	-27	-2532	-3488	16176	51	-137	187	-8132	4276	12964	-61	145	-217	-15592	2224	-5424	108	-9	130	-2616	6628	15700	200	-10	27	126	123	5
-9168	-3436	13484	158	-86	-110	-15152	924	-5804	-20	-39	-32	-2520	-3536	16192	43	-138	205	-8172	4312	12996	-100	155	-209	-15624	2280	-5388	99	-35	131	-2580	6628	15580	209	-17	28	126	124	5
-9124	-3412	13472	164	-96	-112	-15268	864	-5852	14	-74	-34	-2476	-3452	16156	47	-146	160	-8160	4340	13020	-93	140	-186	-15588	2236	-5360	74	-1	101	-2528	6672	15640	218	1	42	126	123	5
-9216	-3464	13380	128	-80	-139	-15232	868	-5788	-32	-77	-46	-2560	-3492	16100	52	-167	177	-8164	4324	13000	-76	142	-194	-15564	2248	-5388	22	-39	145	-2560	6660	15664	223	-17	38	126	123	5
-9184	-3452	13544	123	-91	-163	-15236	856	-5824	-5	19	-30	-2500	-3464	16164	29	-115	179	-8172	4316	13088	-66	115	-208	-15676	2264	-5392	60	-16	148	-2476	6672	15668	216	-19	26	126	124	5
-9176	-3464	13496	134	-31	-148	-15180	916	-5804	1	2	-59	-2524	-3424	16232	34	-147	167	-8188	4328	12936	-98	125	-170	-15632	2236	-5388	65	-9	158	-2592	6700	15628	216	8	16	126	123	5
-9200	-3528	13576	134	-56	-156	-15236	848	-5696	-21	-62	-13	-2496	-3552	16192	24	-134	147	-8164	4340	13136	-74	143	-216	-15580	2220	-5420	94	-11	97	-2568	6660	15500	199	-14	40	126	124	5
-9192	-3456	13508	124	-72	-151	-15220	916	-5912	-11	-3	-35	-2524	-3456	16100	21	-120	156	-8156	4324	13036	-102	167	-222	-15652	2224	-5444	70	-44	108	-2536	6664	15624	181	12	22	126	123	5
-9156	-3476	13424	148	-94	-127	-15220	872	-5772	-27	-47	-39	-2560	-3496	16084	28	-126	173	-8152	4340	13032	-64	157	-227	-15572	2196	-5496	81	4	109	-2612	6568	15620	174	10	49	126	124	5
-9200	-3428	13444	133	-95	-153	-15192	932	-5816	-22	-41	-34	-2556	-3464	16244	80	-135	193	-8236	4288	13000	-111	135	-229	-15584	2240	-5408	70	17	121	-2556	6628	15716	194	-3	45	126	123	5
-9164	-3424	13396	125	-69	-155	-15204	872	-5836	-9	-37	-17	-2564	-3452	16104	27	-144	176	-8132	4304	13056	-116	159	-229	-15632	2184	-5420	82	-33	119	-2624	6580	15720	187	5	27	126	123	5
-9196	-3384	13360	146	-42	-160	-15284	872	-5796	-11	-25	2	-2600	-3596	16120	25	-102	177	-8168	4316	13124	-81	171	-216	-15652	2180	-5392	53	-29	102	-2568	6544	15540	201	-24	19	126	124	5
-9180	-3496	13508	136	-53	-163	-15212	832	-5820	22	-49	-40	-2468	-3496	16216	-20	-139	188	-8140	4288	12956	-107	176	-189	-15716	2220	-5428	101	-19	153	-2604	6584	15668	65	5	61	126	123	5
-9180	-3424	13408	118	-57	-154	-15204	836	-5760	-36	-43	-67	-2560	-3508	16128	47	-131	208	-8136	4264	13036	-52	154	-189	-15564	2228	-5460	112	-22	162	-2584	6628	15620	237	-16	28	126	124	5
-9204	-3468	13368	146	-73	-161	-15180	896	-5760	-14	-46	-84	-2520	-3496	16184	50	-122	186	-8212	4336	12972	-80	136	-156	-15628	2300	-5412	72	-1	129	-2616	6596	15632	241	-20	41	126	124	5
-9192	-3496	13440	135	-95	-121	-15220	904	-5832	-18	-73	-15	-2472	-3484	16196	60	-131	197	-8168	4292	13080	-74	159	-217	-15588	2228	-5448	62	-41	154	-2592	6628	15680	223	-26	40	126	123	5
-9156	-3468	13452	152	-55	-147	-15304	820	-5856	-16	-35	-14	-2500	-3484	16184	51	-168	172	-8112	4204	13080	-97	186	-198	-15624	2196	-5356	108	-17	119	-2528	6692	15652	186	-40	32	126	124	5
-9192	-3484	13444	148	-63	-157	-15168	848	-5756	6	-38	-41	-2536	-3468	16224	46	-164	175	-8144	4376	13104	-74	163	-209	-15572	2216	-5396	100	-39	124	-2556	6736	15572	172	-17	20	126	124	5
-9212	-3388	13548	111	-60	-136	-15204	896	-5792	4	-64	7	-2536	-3420	16136	66	-123	155	-8176	4256	13048	-103	172	-201	-15600	2204	-5328	95	-29	132	-2612	6648	15568	178	-38	54	126	124	5
-9180	-3460	13420	160	-53	-134	-15172	976	-5772	-23	-75	-37	-2484	-3424	16152	12	-118	165	-8152	4436	13008	-81	164	-230	-15608	2288	-5472	50	1	142	-2552	6712	15624	149	-9	20	126	124	5
-9156	-3424	13368	105	-13	-160	-15160	968	-5776	-20	-78	-87	-2532	-3416	16236	13	-141	160	-8164	4348	13000	-152	182	-239	-15688	2304	-5376	53	21	131	-2528	6668	15592	189	-13	16	126	124	5
-9144	-3404	13464	110	-92	-126	-15232	928	-5828	9	-59	-67	-2572	-3432	16236	55	-156	173	-8168	4320	12992	-121	169	-205	-15592	2236	-5320	43	20	110	-2592	6632	15636	163	-14	27	126	124	5
-9156	-3504	13512	86	-41	-134	-15208	920	-5780	-40	-13	-100	-2520	-3408	16136	10	-140	186	-8136	4308	13084	-138	192	-219	-15644	2156	-5308	66	-18	117	-2600	6592	15680	194	-18	49	126	124	5
-9172	-3392	13452	142	-62	-197	-15168	912	-5608	-34	-45	-57	-2460	-3500	16168	55	-144	183	-8176	4292	12984	-98	142	-223	-15572	2236	-5352	82	-4	132	-2584	6580	15632	195	18	21	126	123	5
-9244	-3456	13432	98	-77	-147	-15244	840	-5940	-17	-58	-69	-2484	-3520	16048	31	-142	179	-8108	4304	13040	-88	161	-257	-15608	2224	-5448	65	-9	141	-2656	6640	15756	138	-29	24	126	124	5
-9216	-3412	13540	104	-33	-149	-15240	764	-5816	-29	-51	-30	-2496	-3600	16208	27	-115	195	-8188	4312	12980	-77	159	-201	-15632	2216	-5516	106	-4	89	-2612	6636	15540	196	17	16	126	123	5
-9228	-3416	13356	110	-48	-147	-15216	820	-5744	-5	-30	-59	-2516	-3564	16284	22	-150	163	-8176	4308	13024	-70	137	-190	-15616	2224	-5372	79	-21	146	-2604	6516	15648	196	-25	35	126	123	5
-9196	-3508	13448	162	-99	-120	-15204	812	-5776	-9	-15	20	-2500	-3520	16136	33	-118	166	-8184	4348	13072	-92	126	-207	-15620	2228	-5332	74	-27	108	-2584	6612	15656	177	4	18	126	123	5
-9140	-3452	13432	147	-27	-151	-15164	892	-5720	-15	-30	4	-2520	-3496	16200	46	-111	187	-8156	4312	12920	-79	133	-231	-15692	2184	-5400	101	-14	123	-2548	6564	15712	226	-7	-1	126	123	5
-9240	-3392	13468	159	-84	-141	-15156	952	-5808	5	-41	-8	-2488	-3416	16140	47	-133	172	-8156	4288	13076	-54	162	-221	-15620	2208	-5476	71	4	147	-2592	6572	15604	191	-23	12	126	123	5
-9188	-3436	13464	160	-74	-130	-15236	972	-5788	9	-42	-4	-2528	-3368	16140	55	-126	188	-8124	4352	12904	-64	171	-214	-15628	2248	-5324	77	19	145	-2552	6620	15604	208	-25	9	126	123	5
-9168	-3436	13468	121	-32	-168	-15184	956	-5712	-19	-25	-59	-2528	-3408	16280	34	-143	193	-8172	4284	12996	-25	125	-242	-15588	2252	-5448	100	-8	139	-2576	6576	15596	233	-13	33	126	124	5
-9244	-3428	13460	104	-106	-170	-15096	952	-5864	1	-49	-56	-2564	-3480	16120	47	-121	204	-8164	4332	13024	-87	149	-194	-15604	2232	-5452	100	4	145	-2620	6680	15496	212	16	24	126	123	5
-9168	-3512	13520	155	-71	-153	-15160	916	-5812	-16	-45	-10	-2488	-3508	16212	15	-158	193	-8128	4352	13172	-98	122	-218	-15616	2248	-5472	57	-55	156	-2620	6696	15600	243	12	53	126	124	5
-9160	-3536	13408	145	-101	-151	-15200	816	-5780	-24	-64	-63	-2560	-3512	16160	59	-137	201	-8132	4368	12932	-102	148	-226	-15624	2224	-5528	77	-3	116	-2596	6680	15684	202	12	10	126	123	5
-9140	-3408	13376	122	-76	-155	-15200	892	-5676	17	-58	-72	-2576	-3468	16132	36	-177	155	-8148	4312	13104	-102	121	-229	-15592	2212	-5296	46	-10	127	-2552	6676	15628	176	-58	36	126	124	5
-9196	-3420	13352	140	-95	-148	-15196	900	-5908	-7	-34	-32	-2512	-3468	16100	60	-149	173	-8136	4332	13132	-126	148	-197	-15672	2256	-5352	65	-38	119	-2524	6668	15700	183	-43	27	126	124	5
-9212	-3420	13540	140	-77	-162	-15188	848	-5852	-7	-23	-29	-2552	-3516	16256	66	-152	156	-8192	4292	13032	-130	146	-182	-15668	2256	-5456	94	-26	97	-2520	6668	15572	215	-32	20	126	124	5
-9208	-3452	13460	74	-57	-171	-15180	892	-5736	-33	-54	-50	-2512	-3412	16208	28	-152	194	-8172	4336	13104	-107	173	-245	-15612	2128	-5368	32	-7	133	-2608	6648	15608	184	-33	25	126	123	5
-9168	-3388	13432	112	-33	-154	-15212	928	-5680	3	-43	-55	-2592	-3412	16140	20	-147	204	-8168	4340	13020	-104	148	-205	-15628	2152	-5480	81	20	104	-2548	6580	15644	235	-37	54	126	123	5
-9224	-3492	13436	135	-67	-175	-15200	876	-5796	-50	-80	-64	-2576	-3472	16204	57	-128	175	-8172	4268	13052	-112	158	-218	-15608	2200	-5452	119	-37	120	-2592	6604	15580	203	19	25	127	124	5
-9152	-3412	13416	125	-51	-176	-15260	896	-5756	-38	-42	-59	-2524	-3520	16260	39	-143	179	-8164	4368	13120	-90	106	-239	-15560	2204	-5364	116	-24	108	-2636	6668	15492	204	-39	33	126	123	5
-9176	-3480	13448	151	-67	-146	-15156	836	-5764	-31	-69	-40	-2452	-3584	16276	49	-143	202	-8196	4284	13068	-60	156	-212	-15544	2252	-5396	52	-15	136	-2608	6648	15588	205	-42	27	126	123	5
-9176	-3400	13424	136	-79	-144	-15172	820	-5752	33	-43	10	-2512	-3464	16216	27	-157	198	-8180	4320	13036	-89	171	-211	-15604	2240	-5424	53	-66	141	-2556	6712	15668	207	-67	44	126	123	5
-9176	-3444	13552	125	-41	-155	-15212	848	-5776	5	-75	-25	-2500	-3444	16184	43	-160	193	-8152	4372	12952	-61	130	-229	-15648	2200	-5380	84	-45	121	-2536	6664	15596	211	-35	24	126	123	5
-9136	-3408	13460	140	-71	-159	-15100	852	-5772	-24	-28	7	-2512	-3552	16248	43	-149	165	-8168	4356	12980	-115	152	-216	-15648	2264	-5444	72	-26	133	-2556	6720	15688	160	-43	50	126	123	5
-9200	-3444	13396	148	-95	-120	-15216	880	-5804	6	-70	-28	-2516	-3524	16184	16	-144	140	-8188	4404	13024	-102	143	-226	-15632	2228	-5464	56	-39	132	-2548	6704	15560	211	-15	49	126	123	5
-9176	-3500	13436	148	-70	-151	-15212	896	-5748	4	-43	-38	-2480	-3428	16092	27	-122	180	-8132	4340	12972	-87	161	-212	-15608	2292	-5404	53	-12	148	-2536	6648	15536	195	13	42	126	123	5
-9204	-3452	13464	128	-107	-142	-15176	948	-5824	-24	-67	-11	-2560	-3364	16164	33	-157	210	-8196	4256	13032	-95	189	-215	-15632	2172	-5488	65	-8	116	-2536	6724	15644	146	7	41	126	123	5
-9176	-3404	13440	142	-65	-149	-15176	876	-5896	-33	-67	-43	-2536	-3496	16272	36	-138	182	-8184	4308	13084	-78	136	-215	-15616	2240	-5380	94	-10	157	-2608	6684	15652	203	9	39	126	124	5
-9180	-3388	13464	156	-62	-137	-15160	928	-5876	1	-50	-53	-2512	-3412	16156	37	-108	173	-8192	4332	13056	-103	153	-222	-15644	2180	-5464	61	-9	151	-2576	6664	15696	192	-39	21	126	124	5
-9192	-3428	13516	113	-45	-156	-15192	932	-5864	24	8	-23	-2520	-3444	16172	39	-149	192	-8144	4404	13060	-53	159	-214	-15572	2216	-5392	69	-19	127	-2536	6700	15728	176	-16	16	126	123	5
-9196	-3460	13528	115	-76	-144	-15148	824	-5716	-8	-48	-101	-2508	-3484	16168	8	-143	152	-8152	4260	13084	-85	149	-244	-15668	2192	-5432	105	-56	146	-2504	6684	15596	152	-13	30	126	124	5
-9196	-3440	13412	95	-56	-135	-15188	916	-5812	25	-39	-51	-2528	-3460	16108	23	-155	181	-8168	4300	12968	-58	142	-242	-15616	2232	-5300	69	-21	123	-2524	6676	15540	178	-11	5	126	123	5
-9208	-3480	13488	137	-43	-125	-15176	880	-5692	3	-32	-36	-2556	-3492	16216	10	-128	149	-8192	4348	13132	-116	147	-209	-15584	2248	-5364	94	-19	111	-2480	6664	15596	187	20	38	126	123	5
-9184	-3440	13444	125	-86	-151	-15192	920	-5808	6	-37	14	-2592	-3492	16092	15	-124	162	-8156	4344	13080	-118	143	-238	-15592	2252	-5480	64	4	95	-2604	6648	15608	192	-6	33	126	124	5
-9216	-3376	13460	123	-33	-206	-15204	944	-5732	-7	-67	-23	-2560	-3520	16164	19	-127	212	-8164	4324	13012	-152	178	-228	-15620	2204	-5452	71	16	94	-2612	6648	15688	163	29	8	126	124	5
-9136	-3460	13424	116	-77	-147	-15172	848	-5860	-15	-50	-34	-2532	-3444	16176	44	-142	177	-8140	4292	13044	-149	204	-203	-15640	2252	-5552	80	11	123	-2616	6588	15652	185	-1	11	126	124	5
-9176	-3536	13384	105	-42	-121	-15188	896	-5796	37	-20	-25	-2568	-3456	16048	42	-155	175	-8144	4280	13076	-113	168	-221	-15588	2180	-5420	64	22	120	-2616	6600	15572	169	-16	33	126	124	5
-9240	-3436	13400	145	-63	-155	-15208	936	-5924	-17	-44	-41	-2552	-3452	16200	54	-136	183	-8200	4304	12980	-76	156	-206	-15624	2168	-5404	155	-7	91	-2540	6552	15628	186	-26	26	126	124	5
-9224	-3420	13448	141	-42	-175	-15192	864	-5824	-27	-11	-58	-2520	-3496	16216	56	-172	203	-8164	4264	13208	-80	152	-213	-15584	2128	-5328	114	1	131	-2616	6596	15600	206	-18	47	126	123	5
-9252	-3452	13432	120	-106	-174	-15240	880	-5800	-17	-60	-48	-2536	-3464	16108	40	-148	214	-8188	4312	13084	-53	148	-261	-15552	2228	-5456	76	-12	152	-2520	6612	15656	216	-38	29	126	123	5
-9152	-3460	13460	130	-53	-142	-15188	832	-5816	-39	-39	-34	-2560	-3480	16084	68	-143	185	-8132	4312	13052	-41	150	-207	-15616	2272	-5468	15	-24	116	-2608	6636	15624	222	-28	68	126	124	5
-9208	-3480	13364	137	-47	-164	-15192	860	-5760	-26	-78	-105	-2572	-3524	16120	29	-154	171	-8164	4292	13040	-55	120	-208	-15556	2232	-5356	49	-10	152	-2532	6656	15560	213	-17	55	126	124	5
-9188	-3500	13500	142	-72	-128	-15208	872	-5828	-15	-38	-27	-2512	-3488	16164	22	-162	161	-8152	4312	12984	-39	140	-208	-15648	2260	-5368	77	-69	131	-2560	6672	15552	209	-47	53	126	123	5
-9180	-3480	13408	123	-65	-140	-15228	900	-5692	-3	-69	-23	-2532	-3472	16160	41	-153	189	-8140	4336	13128	-55	140	-248	-15600	2252	-5340	87	-40	150	-2604	6668	15600	181	-39	52	126	124	5
-9152	-3412	13444	156	-78	-98	-15216	852	-5828	-31	-78	-39	-2560	-3480	16132	70	-167	196	-8200	4392	12972	-100	132	-222	-15604	2248	-5416	113	-6	117	-2580	6668	15624	182	-33	47	126	124	5
-9192	-3404	13468	135	-109	-156	-15204	948	-5824	-14	-52	-34	-2552	-3380	16116	63	-142	189	-8216	4320	13036	-91	122	-238	-15580	2196	-5452	52	-79	154	-2572	6684	15620	171	13	71	126	123	5
-9216	-3348	13456	140	-84	-176	-15200	916	-5796	-39	-104	-51	-2608	-3444	16280	52	-164	214	-8184	4340	13044	-90	141	-215	-15624	2216	-5532	50	-80	120	-2644	6592	15680	224	-72	53	126	123	5
-9180	-3472	13468	135	-82	-150	-15164	924	-5872	-48	-74	-64	-2440	-3408	16240	109	-183	224	-8200	4256	13048	-120	115	-200	-15588	2248	-5540	24	-77	137	-2620	6552	15652	206	-51	51	126	124	5
-9204	-3476	13440	130	-106	-169	-15232	880	-5772	-34	-60	-46	-2436	-3476	16196	77	-168	169	-8124	4324	12988	-83	143	-195	-15588	2188	-5376	55	-68	124	-2476	6676	15660	157	-33	37	126	124	5
-9160	-3464	13460	109	-73	-158	-15212	816	-5820	-26	-67	-38	-2396	-3472	16252	35	-169	195	-8192	4324	13088	-95	123	-185	-15628	2320	-5376	94	-65	143	-2400	6652	15652	166	-43	6	126	123	5
-9188	-3456	13576	125	-73	-161	-15240	856	-5700	11	-59	-31	-2384	-3488	16184	65	-157	157	-8164	4328	13044	-77	154	-191	-15588	2200	-5300	45	-7	135	-2416	6728	15604	193	-9	23	126	124	5
-9176	-3488	13448	148	-109	-141	-15312	820	-5692	14	-17	-2	-2392	-3508	16248	52	-125	179	-8192	4240	13040	-104	175	-184	-15628	2260	-5176	66	-21	117	-2452	6792	15588	215	19	-14	126	124	5
-9204	-3452	13436	151	-92	-119	-15248	844	-5700	20	26	-42	-2432	-3484	16276	28	-51	163	-8140	4368	12984	-69	140	-199	-15596	2248	-5340	64	30	123	-2460	6720	15460	232	70	-5	126	123	5
-9204	-3460	13552	115	-9	-147	-15188	876	-5820	-9	65	-10	-2492	-3412	16252	28	-50	160	-8164	4372	12992	-93	194	-237	-15648	2276	-5308	30	94	103	-2528	6752	15500	218	69	-18	126	124	5
-9220	-3444	13376	143	-21	-143	-15248	912	-5736	12	22	31	-2524	-3424	16248	-2	-47	133	-8196	4304	13068	-115	142	-231	-15620	2276	-5464	57	36	67	-2484	6796	15584	211	101	-10	126	123	5
-9236	-3400	13536	137	12	-172	-15232	984	-5812	6	18	-10	-2604	-3428	16244	-43	-68	131	-8108	4312	12976	-75	171	-225	-15596	2244	-5428	52	60	75	-2608	6720	15616	141	83	-5	126	123	5
-9180	-3436	13536	118	3	-167	-15176	980	-5824	-1	26	-18	-2624	-3428	16296	-3	-78	156	-8156	4284	12920	-113	155	-234	-15612	2316	-5476	89	43	95	-2624	6580	15572	146	56	11	126	123	5
-9216	-3400	13440	95	-47	-139	-15128	1004	-5880	-72	1	-74	-2664	-3412	16000	-10	-90	152	-8200	4344	13044	-116	164	-213	-15644	2272	-5428	85	35	71	-2692	6532	15552	125	40	67	126	123	5
-9200	-3364	13484	123	-43	-148	-15252	1008	-5892	-37	-39	-87	-2624	-3456	16228	27	-177	174	-8240	4356	13124	-92	129	-235	-15632	2264	-5352	57	20	106	-2608	6492	15676	161	-9	75	126	124	5
-9188	-3452	13392	115	-53	-155	-15240	884	-5840	-25	-53	-115	-2628	-3580	16172	72	-173	204	-8192	4272	13100	-99	137	-232	-15608	2180	-5412	38	-28	111	-2628	6512	15732	168	-36	59	126	124	5
-9148	-3444	13480	120	-57	-174	-15236	920	-5976	-15	-38	-99	-2572	-3600	16172	78	-193	221	-8208	4320	13024	-101	149	-193	-15628	2144	-5472	75	-47	110	-2676	6468	15712	228	-69	32	126	123	5
-9196	-3484	13432	97	-63	-198	-15216	732	-5880	-52	-96	-70	-2548	-3684	16180	50	-224	205	-8164	4356	13096	-37	117	-217	-15600	2196	-5344	72	-115	192	-2588	6532	15648	222	-105	59	126	123	5
-9188	-3460	13460	114	-57	-148	-15256	756	-5848	-45	-90	5	-2508	-3664	16132	63	-203	149	-8108	4292	13036	-72	157	-226	-15632	2164	-5448	95	-64	189	-2556	6556	15644	243	-154	72	126	124	5
-9244	-3448	13380	136	-105	-141	-15192	764	-5856	-1	-97	-23	-2464	-3608	16224	89	-203	170	-8180	4296	13092	-60	160	-218	-15640	2200	-5448	147	-90	163	-2576	6600	15636	201	-127	75	126	123	5
-9200	-3512	13380	141	-24	-166	-15152	856	-5812	-35	-106	-16	-2480	-3500	16160	129	-203	167	-8216	4292	12988	-72	160	-191	-15584	2264	-5404	131	-52	215	-2520	6652	15520	201	-96	76	126	124	5
-9164	-3492	13472	169	-96	-137	-15232	940	-5700	-10	-131	-13	-2480	-3420	16136	122	-200	187	-8156	4292	13064	-76	127	-173	-15616	2272	-5424	118	-71	200	-2460	6644	15604	238	-62	68	126	124	5
-9156	-3420	13440	131	-91	-122	-15184	904	-5840	-27	-100	6	-2432	-3320	16204	118	-169	186	-8108	4316	13108	-53	138	-218	-15592	2252	-5328	95	-74	167	-2456	6732	15704	202	-69	56	126	123	5
-9160	-3428	13512	168	-121	-143	-15200	928	-5736	35	-102	-37	-2408	-3360	16236	76	-183	208	-8080	4332	13116	-68	137	-190	-15628	2248	-5428	74	-79	145	-2400	6748	15644	259	-44	26	126	123	5
-9236	-3488	13448	130	-85	-158	-15216	952	-5664	-27	-93	7	-2436	-3360	16172	80	-146	175	-8172	4324	13096	-92	166	-185	-15716	2280	-5300	60	-50	125	-2468	6796	15668	205	-3	57	126	123	5
-9200	-3416	13492	123	-65	-156	-15184	928	-5716	-30	-37	-61	-2456	-3380	16184	52	-122	214	-8144	4372	13084	-124	159	-240	-15648	2328	-5372	48	-19	141	-2500	6764	15580	184	18	47	126	123	5
-9176	-3464	13468	83	-10	-169	-15148	940	-5744	-47	-31	-84	-2396	-3404	16180	25	-122	199	-8168	4296	13056	-84	184	-229	-15636	2256	-5460	33	12	115	-2456	6752	15544	214	5	-2	126	123	5
-9212	-3376	13396	100	-43	-187	-15188	876	-5600	-8	11	-68	-2464	-3416	16196	36	-115	197	-8116	4308	13032	-122	205	-232	-15652	2236	-5392	76	57	110	-2548	6760	15572	207	9	24	126	123	5
-9224	-3424	13472	112	-84	-169	-15260	916	-5736	-3	11	-29	-2564	-3408	16160	21	-129	210	-8176	4376	13100	-121	161	-204	-15632	2260	-5484	71	50	88	-2552	6724	15516	210	7	28	126	123	5
-9196	-3424	13412	104	-73	-105	-15208	860	-5840	38	8	-35	-2560	-3480	16268	-16	-106	178	-8248	4344	13032	-143	186	-219	-15556	2280	-5444	95	30	78	-2576	6688	15572	173	49	36	126	123	5
-9212	-3392	13532	116	-41	-148	-15228	888	-5888	9	-23	-51	-2536	-3560	16156	-7	-117	167	-8136	4280	12972	-120	148	-223	-15568	2288	-5412	72	17	105	-2564	6664	15636	162	25	15	126	123	5
-9216	-3416	13420	149	-57	-143	-15136	888	-5728	-32	-29	-33	-2528	-3520	16144	1	-123	169	-8176	4296	13056	-98	152	-230	-15612	2172	-5408	73	41	81	-2612	6592	15716	109	33	2	126	123	5
-9248	-3396	13496	131	-74	-149	-15300	904	-5756	-27	-28	-27	-2472	-3412	16152	13	-117	203	-8188	4300	12976	-55	146	-233	-15568	2116	-5392	82	44	83	-2544	6600	15800	158	24	30	126	123	5
-9256	-3520	13520	147	-101	-179	-15188	892	-5956	-6	-49	-54	-2496	-3504	16184	34	-126	192	-8148	4288	13196	-55	137	-198	-15664	2152	-5356	86	37	92	-2540	6544	15672	184	12	-2	126	124	5
-9176	-3472	13396	143	-84	-130	-15184	908	-5752	11	-10	-35	-2468	-3468	16244	56	-129	164	-8212	4328	13120	-45	113	-232	-15644	2176	-5412	108	2	128	-2476	6600	15716	181	10	0	126	123	5
-9196	-3440	13492	120	-100	-123	-15288	840	-5736	-10	17	7	-2468	-3496	16208	19	-106	192	-8188	4292	13024	-52	139	-195	-15652	2192	-5484	55	52	130	-2580	6604	15620	203	40	-28	126	123	5
-9196	-3524	13432	126	-54	-138	-15204	844	-5836	-12	-7	-9	-2524	-3624	16260	-3	-123	186	-8184	4288	13024	-60	153	-196	-15692	2252	-5404	92	47	141	-2556	6676	15568	204	16	10	126	124	5
-9196	-3412	13456	162	-45	-137	-15232	904	-5872	-39	-11	4	-2580	-3504	16164	2	-103	146	-8156	4296	13044	-65	131	-219	-15608	2336	-5472	89	-2	152	-2604	6716	15520	199	18	7	126	123	5
-9204	-3440	13512	133	-104	-125	-15128	916	-5828	10	-13	16	-2628	-3456	16116	13	-95	165	-8176	4296	12912	-64	147	-239	-15676	2324	-5388	71	39	148	-2588	6680	15636	163	16	9	126	123	5
-9156	-3408	13400	148	-56	-118	-15240	884	-5892	-17	-15	12	-2568	-3436	16208	44	-104	179	-8144	4372	12932	-124	157	-231	-15668	2232	-5324	66	-28	92	-2616	6672	15656	185	13	42	126	123	5
-9220	-3508	13392	129	-90	-145	-15128	904	-5944	-2	-18	-30	-2576	-3456	16140	28	-127	147	-8144	4288	13176	-106	152	-202	-15644	2256	-5364	93	11	123	-2624	6768	15520	179	4	8	126	123	5
-9192	-3480	13440	152	-65	-168	-15216	988	-5848	-4	-59	-48	-2588	-3352	16168	21	-148	169	-8160	4300	13100	-76	149	-186	-15672	2212	-5392	113	-8	115	-2592	6632	15572	178	9	38	126	124	5
-9204	-3456	13436	113	-72	-169	-15216	920	-5848	-25	-16	-30	-2620	-3396	16140	16	-135	173	-8148	4300	13008	-121	165	-223	-15628	2208	-5424	78	-15	131	-2676	6636	15628	166	-55	45	126	123	5
-9228	-3392	13484	128	-48	-161	-15232	932	-5836	-3	-62	-70	-2616	-3500	16252	8	-195	189	-8176	4292	12992	-142	148	-231	-15568	2224	-5460	68	-20	71	-2560	6616	15548	156	-50	33	126	123	5
-9256	-3420	13420	95	-45	-156	-15172	900	-5860	8	-57	-100	-2584	-3540	16120	31	-199	212	-8116	4344	13072	-92	134	-198	-15648	2216	-5360	93	-34	107	-2592	6668	15584	171	-54	56	126	123	5
-9216	-3472	13440	129	-46	-137	-15196	840	-5820	-35	-65	-108	-2552	-3496	16124	63	-190	190	-8156	4288	12968	-89	130	-234	-15608	2224	-5384	47	-76	143	-2600	6616	15644	181	-50	55	126	123	5
-9204	-3440	13348	105	-49	-143	-15224	836	-5964	-26	-94	-85	-2544	-3556	16132	63	-191	208	-8176	4312	12944	-61	149	-210	-15680	2196	-5448	92	-73	126	-2588	6552	15688	249	-45	62	126	123	5
-9192	-3528	13452	127	-77	-134	-15228	836	-5736	-3	-99	-81	-2480	-3504	16256	51	-194	162	-8152	4272	13024	-57	144	-221	-15604	2124	-5524	73	-57	126	-2532	6620	15648	208	-21	54	126	123	5
-9164	-3432	13436	125	-61	-163	-15256	780	-5888	-17	-73	-52	-2484	-3556	16248	65	-165	199	-8236	4324	13112	-74	142	-221	-15608	2204	-5440	86	-50	118	-2552	6660	15636	199	-28	40	126	124	5
-9176	-3432	13492	168	-90	-117	-15224	832	-5712	-8	-47	-38	-2384	-3440	16228	32	-176	153	-8148	4296	13108	-55	133	-192	-15576	2212	-5352	54	-16	165	-2500	6636	15652	209	-27	68	126	123	5
-9208	-3404	13412	117	-48	-147	-15192	836	-5820	-2	-72	-64	-2472	-3452	16176	74	-141	186	-8220	4324	12952	-73	162	-237	-15684	2216	-5356	113	-38	135	-2428	6604	15600	213	-11	62	126	123	5
-9292	-3420	13480	140	-125	-180	-15188	872	-5856	5	-73	9	-2472	-3400	16224	45	-170	174	-8132	4336	13052	-94	154	-243	-15632	2252	-5316	108	-38	139	-2496	6592	15668	219	-16	35	126	124	5
-9184	-3444	13524	119	-70	-149	-15152	936	-5872	-15	8	-6	-2460	-3432	16244	25	-118	185	-8140	4372	13164	-51	130	-216	-15584	2272	-5428	58	-7	148	-2520	6688	15528	229	-1	36	126	123	5
-9156	-3416	13544	174	-98	-128	-15144	912	-5848	-17	-17	-56	-2580	-3420	16092	9	-104	184	-8172	4364	13008	-73	119	-209	-15576	2296	-5416	79	3	117	-2508	6660	15636	227	-1	-5	126	123	5
-9240	-3444	13456	126	-44	-145	-15208	908	-5772	-10	-78	-44	-2496	-3388	16136	24	-109	155	-8140	4344	13088	-64	163	-198	-15576	2276	-5444	47	-47	127	-2536	6764	15628	209	46	34	126	123	5
-9144	-3400	13472	107	-75	-126	-15200	928	-5844	-28	1	-32	-2440	-3472	16232	7	-100	171	-8120	4336	12956	-135	153	-248	-15588	2328	-5516	86	19	83	-2528	6660	15508	153	-15	39	126	124	5
-9212	-3416	13416	130	-22	-174	-15188	880	-5896	-16	-29	-40	-2536	-3500	16216	0	-114	182	-8144	4364	13044	-106	124	-188	-15564	2232	-5372	115	-2	104	-2588	6612	15688	172	-16	40	126	123	5
-9144	-3460	13448	106	-106	-159	-15200	880	-5876	-22	-8	-41	-2568	-3472	16124	23	-146	173	-8196	4284	13040	-103	130	-197	-15616	2248	-5396	87	-24	113	-2596	6640	15708	175	29	58	126	123	5
-9200	-3484	13448	145	-36	-178	-15240	864	-5908	-23	-49	-39	-2488	-3496	16276	41	-121	196	-8180	4320	13084	-116	133	-214	-15668	2228	-5456	19	6	86	-2572	6644	15528	186	-23	24	126	124	5
-9216	-3424	13492	142	-56	-175	-15248	924	-5872	-27	-33	-14	-2464	-3488	16248	23	-136	197	-8156	4344	13040	-105	160	-200	-15592	2220	-5384	42	-11	121	-2632	6548	15696	215	26	63	126	123	5
-9180	-3432	13404	105	-8	-159	-15172	876	-5908	-8	-34	-50	-2504	-3476	16128	39	-111	168	-8160	4328	13100	-110	171	-262	-15592	2168	-5444	62	19	122	-2592	6528	15684	217	-11	34	126	124	5
-9256	-3404	13460	153	-66	-161	-15232	908	-5792	-16	-29	-41	-2496	-3516	16248	86	-141	209	-8152	4268	13084	-101	148	-194	-15632	2168	-5440	70	-27	134	-2616	6636	15560	231	12	46	126	123	5
-9228	-3408	13428	142	-67	-140	-15224	864	-5664	-3	-51	-29	-2552	-3524	16260	29	-152	171	-8152	4348	13036	-97	148	-194	-15596	2224	-5420	79	5	135	-2624	6692	15656	202	-25	37	126	123	5
-9140	-3496	13400	123	-21	-157	-15244	860	-5948	3	-58	-12	-2540	-3480	16228	56	-139	164	-8208	4424	13028	-117	163	-202	-15616	2268	-5476	101	-25	142	-2596	6672	15664	170	-35	21	126	124	5
-9188	-3440	13408	134	-77	-141	-15232	932	-5744	39	-26	-9	-2536	-3456	16208	4	-151	173	-8088	4316	13060	-138	185	-221	-15560	2312	-5436	104	-12	112	-2512	6704	15664	136	-32	10	126	123	5
-9216	-3484	13484	146	-80	-143	-15208	892	-5752	7	-67	-47	-2548	-3332	16308	14	-154	153	-8172	4304	12992	-78	183	-232	-15576	2272	-5324	102	-8	153	-2580	6740	15604	176	-44	8	126	123	5
-9208	-3440	13468	132	-14	-173	-15168	932	-5856	1	-49	-56	-2556	-3368	16200	45	-141	185	-8196	4292	13100	-108	156	-235	-15600	2324	-5508	71	-31	87	-2568	6692	15672	172	-22	35	126	123	5
-9256	-3476	13500	135	-42	-158	-15184	912	-5920	-59	-46	-86	-2572	-3388	16192	64	-131	198	-8128	4372	12980	-110	169	-224	-15640	2312	-5492	81	1	70	-2572	6676	15648	194	-4	61	126	124	5
-9208	-3472	13476	108	-44	-151	-15228	868	-5792	-58	-40	-74	-2536	-3440	16168	56	-166	181	-8200	4304	13120	-83	97	-243	-15624	2284	-5492	69	-31	105	-2552	6564	15652	171	13	46	126	124	5
-9172	-3416	13492	126	-101	-129	-15196	840	-5732	-58	-31	-115	-2504	-3488	16156	36	-122	173	-8196	4248	13048	-81	117	-198	-15560	2200	-5472	101	-63	89	-2556	6600	15616	186	-34	60	126	124	5
-9236	-3460	13396	87	-55	-123	-15164	792	-5864	-2	-21	-50	-2496	-3496	16236	22	-147	178	-8132	4268	13068	-57	130	-231	-15548	2164	-5376	80	-2	112	-2488	6628	15592	186	-23	26	126	124	5
-9208	-3408	13428	138	-107	-180	-15192	872	-5764	-22	-50	-54	-2424	-3632	16132	11	-162	171	-8176	4268	12996	-48	141	-219	-15620	2288	-5540	100	-56	137	-2516	6604	15612	145	-19	34	126	123	5
-9244	-3436	13472	139	-79	-122	-15196	816	-5748	-19	-51	-41	-2420	-3552	16116	24	-152	162	-8192	4316	13064	-35	134	-217	-15612	2260	-5544	98	4	147	-2568	6652	15632	223	-28	2	126	124	5
-9124	-3480	13464	129	-70	-150	-15216	876	-5716	-19	-47	-8	-2456	-3508	16152	35	-134	184	-8100	4272	13032	-82	165	-211	-15604	2240	-5348	88	-46	136	-2564	6596	15628	193	-15	9	126	124	5
-9220	-3456	13468	133	-91	-130	-15276	872	-5688	16	-43	-4	-2524	-3468	16216	68	-137	187	-8172	4324	13044	-51	132	-174	-15640	2224	-5440	91	-10	114	-2496	6624	15716	217	4	34	126	124	5
-9272	-3448	13536	123	-78	-164	-15240	840	-5836	-23	-48	-20	-2508	-3436	16232	31	-126	189	-8176	4324	12980	-34	144	-197	-15648	2244	-5388	111	10	149	-2500	6724	15696	225	-19	22	126	123	5
-9172	-3476	13404	115	-55	-140	-15168	960	-5768	19	-27	7	-2520	-3484	16212	71	-103	179	-8164	4336	12956	-68	154	-178	-15608	2216	-5496	67	5	121	-2584	6640	15488	212	17	28	126	123	5
-9164	-3476	13496	146	-70	-149	-15216	912	-5816	13	-45	-4	-2528	-3400	16152	41	-121	168	-8168	4344	12960	-87	180	-253	-15688	2236	-5368	74	-60	154	-2572	6676	15676	189	17	30	126	123	5
-9216	-3408	13460	110	-69	-144	-15188	964	-5844	-30	-14	-10	-2560	-3364	16140	50	-115	174	-8208	4316	13068	-93	141	-235	-15600	2304	-5532	47	4	120	-2620	6664	15612	225	-4	71	126	123	5
-9208	-3480	13488	121	-54	-176	-15164	912	-5800	-1	-33	-42	-2544	-3456	16228	40	-98	141	-8168	4368	13060	-107	156	-225	-15596	2308	-5468	43	-46	147	-2572	6644	15576	176	-25	49	126	123	5
-9268	-3476	13532	129	-41	-182	-15168	876	-5876	-9	-46	-57	-2508	-3476	16160	20	-123	180	-8180	4296	13040	-126	163	-230	-15596	2252	-5492	121	-16	123	-2576	6696	15628	173	22	19	126	123	5
-9240	-3424	13424	118	-73	-148	-15200	880	-5820	-11	-64	-38	-2584	-3496	16184	29	-130	184	-8192	4332	13100	-81	151	-228	-15548	2260	-5340	94	-40	67	-2576	6612	15580	178	-21	45	126	123	5
-9168	-3456	13552	139	-51	-160	-15220	868	-5860	-4	-58	-45	-2508	-3448	16076	10	-161	204	-8156	4304	12976	-73	154	-215	-15640	2216	-5364	67	-15	138	-2620	6596	15592	171	6	25	126	124	5
-9152	-3412	13456	96	-80	-167	-15224	868	-5824	18	-29	-82	-2564	-3524	16152	36	-132	201	-8136	4264	13028	-107	151	-217	-15604	2252	-5392	111	-18	98	-2624	6612	15628	187	-3	31	126	123	5
-9172	-3416	13412	161	-29	-155	-15228	868	-5768	-35	-66	-38	-2596	-3488	16228	71	-123	176	-8152	4368	13040	-95	139	-218	-15596	2280	-5496	86	-47	119	-2580	6588	15640	174	-49	55	126	124	5
-9200	-3476	13372	159	-71	-129	-15204	928	-5836	2	-34	-42	-2504	-3536	16088	-2	-159	190	-8144	4296	13092	-113	189	-209	-15628	2196	-5396	71	-46	137	-2620	6628	15644	205	-27	13	126	123	5
-9208	-3400	13416	161	-69	-144	-15224	832	-5724	-6	-70	-42	-2532	-3516	16164	47	-168	178	-8188	4280	13092	-90	119	-191	-15616	2204	-5396	88	-45	130	-2596	6612	15532	215	-49	40	126	124	5
-9232	-3436	13516	138	-49	-165	-15156	912	-5728	2	-64	-49	-2484	-3456	16128	43	-183	163	-8136	4320	13052	-110	140	-233	-15664	2208	-5460	115	-22	143	-2472	6604	15588	160	-44	11	126	124	5
-9164	-3392	13428	104	-106	-157	-15240	864	-5756	-43	-49	-36	-2476	-3520	16168	27	-166	172	-8168	4360	13064	-85	135	-195	-15692	2220	-5384	85	-26	141	-2468	6668	15608	186	-9	60	126	124	5
-9216	-3436	13428	125	-94	-157	-15224	896	-5736	-19	-88	-35	-2504	-3440	16292	39	-126	156	-8120	4300	12956	-91	119	-211	-15596	2276	-5468	98	18	122	-2580	6708	15620	174	-37	32	126	123	5
-9224	-3480	13448	136	-93	-185	-15180	880	-5760	-80	-36	-61	-2460	-3520	16224	47	-135	209	-8144	4412	13092	-118	156	-215	-15644	2364	-5324	83	13	113	-2512	6680	15700	221	8	53	126	123	5
-9232	-3420	13564	133	-99	-174	-15232	872	-5848	-56	-56	-42	-2524	-3468	16232	62	-158	215	-8164	4280	13020	-90	138	-200	-15612	2296	-5372	70	9	117	-2596	6620	15540	246	2	56	126	124	5
-9188	-3432	13512	121	-69	-140	-15232	900	-5660	-31	-42	-20	-2512	-3564	16108	58	-153	174	-8160	4308	13032	-92	130	-240	-15632	2180	-5532	57	21	103	-2612	6560	15728	218	-8	66	126	123	5
-9188	-3512	13464	99	-72	-163	-15232	856	-5756	-31	-67	-21	-2532	-3476	16136	72	-151	213	-8164	4324	13080	-94	109	-242	-15596	2124	-5492	77	-44	117	-2604	6608	15632	200	-16	54	126	123	5
-9140	-3416	13524	147	-72	-155	-15244	892	-5852	-5	-40	-37	-2484	-3440	16176	83	-144	152	-8176	4244	13012	-69	173	-198	-15596	2228	-5488	56	-2	122	-2592	6644	15700	199	-36	24	126	124	5
-9244	-3492	13488	101	-87	-183	-15168	868	-5872	25	-41	-44	-2500	-3432	16232	54	-142	137	-8184	4312	13124	-88	144	-147	-15616	2260	-5492	79	-71	150	-2632	6636	15612	206	-52	84	126	124	5
-9232	-3388	13376	166	-129	-171	-15192	880	-5808	-8	-65	-45	-2548	-3424	16188	23	-149	163	-8120	4320	13032	-78	128	-244	-15644	2296	-5416	67	-47	172	-2560	6628	15716	215	-22	42	126	124	5
-9152	-3508	13436	147	-52	-151	-15200	924	-5724	-19	-37	-39	-2468	-3452	16200	21	-142	183	-8112	4304	13124	-92	137	-183	-15632	2272	-5388	115	-23	138	-2472	6684	15652	191	-2	51	126	124	5
-9204	-3444	13420	117	-65	-168	-15188	896	-5716	-41	-64	-23	-2512	-3416	16144	40	-122	194	-8140	4388	13076	-70	118	-240	-15640	2244	-5372	88	-2	110	-2416	6584	15692	187	-41	33	126	123	5
-9212	-3444	13472	121	-108	-146	-15232	876	-5752	-26	-40	-54	-2472	-3456	16180	55	-140	194	-8160	4360	12968	-90	154	-212	-15592	2284	-5344	64	-29	149	-2492	6652	15720	234	-46	52	126	124	5
-9208	-3476	13384	130	-69	-151	-15236	908	-5768	-21	3	-10	-2468	-3500	16164	37	-79	169	-8168	4320	12984	-112	150	-242	-15580	2188	-5276	79	-3	148	-2516	6664	15660	208	-23	19	126	123	5
-9244	-3364	13452	106	-68	-164	-15192	844	-5776	29	-10	-21	-2428	-3532	16212	16	-98	165	-8164	4340	13060	-96	150	-221	-15616	2260	-5412	107	13	134	-2576	6716	15736	205	-49	34	126	124	5
-9176	-3456	13380	149	-85	-175	-15172	884	-5840	4	-26	-22	-2492	-3488	16296	0	-130	190	-8140	4336	13112	-126	176	-222	-15612	2268	-5340	50	-3	124	-2612	6660	15600	197	-14	32	126	124	5
-9156	-3384	13408	123	-93	-142	-15212	968	-5820	-10	-60	-14	-2592	-3540	16204	16	-98	186	-8200	4284	13048	-113	176	-222	-15604	2216	-5436	85	33	87	-2748	6608	15652	230	-5	37	126	123	5
-9216	-3456	13436	117	-40	-152	-15068	840	-5828	-4	-63	-17	-2568	-3488	16028	86	-95	172	-8208	4336	13008	-75	145	-230	-15580	2208	-5448	107	-14	128	-2596	6648	15596	209	-13	22	126	123	5
-9212	-3444	13408	132	-61	-148	-15228	820	-5848	-11	-37	-35	-2612	-3464	16188	63	-107	178	-8256	4316	12968	-75	165	-214	-15656	2244	-5256	112	3	111	-2556	6584	15612	204	-34	34	126	123	5
-9232	-3428	13472	152	-122	-149	-15152	904	-5840	7	-49	-36	-2584	-3428	16300	48	-115	185	-8100	4356	13108	-100	148	-228	-15700	2232	-5404	57	-28	129	-2436	6692	15664	188	-58	37	126	123	5
-9260	-3428	13480	128	-118	-157	-15248	944	-5836	-39	-26	-29	-2544	-3432	16300	48	-116	206	-8152	4324	13044	-68	154	-237	-15600	2140	-5472	74	-35	156	-2596	6668	15668	202	5	31	126	124	5
-9136	-3392	13404	126	-93	-160	-15308	860	-5824	-31	-54	-16	-2568	-3468	16320	7	-143	172	-8112	4328	12952	-54	134	-225	-15616	2212	-5548	73	3	124	-2632	6644	15596	234	-13	11	126	123	5
-9248	-3484	13460	134	-26	-109	-15228	848	-5788	8	-5	-84	-2556	-3488	16152	3	-172	172	-8144	4268	13096	-74	142	-214	-15608	2268	-5400	59	-83	100	-2732	6724	15628	182	-58	-5	126	124	5
-9168	-3388	13440	132	-24	-176	-15196	928	-5796	19	-50	-56	-2568	-3468	16168	-44	-157	109	-8244	4328	13052	-76	134	-146	-15536	2220	-5316	125	-91	122	-2648	6756	15596	119	-65	-17	126	124	5
-9244	-3444	13432	171	-100	-124	-15192	848	-5832	35	-37	-62	-2592	-3436	16152	0	-205	117	-8164	4460	13040	-57	141	-204	-15580	2284	-5392	128	-89	118	-2584	6736	15708	80	-65	7	126	124	5
-9228	-3416	13456	130	-101	-139	-15176	940	-5884	26	-66	-23	-2572	-3368	16208	-21	-189	137	-8112	4316	13048	-77	119	-210	-15628	2252	-5308	93	-55	86	-2464	6724	15620	105	-49	4	126	124	5
-9212	-3432	13572	102	-89	-160	-15212	1048	-5856	-24	-79	-96	-2604	-3400	16244	-15	-183	158	-8180	4320	13052	-118	124	-215	-15664	2340	-5336	45	12	72	-2456	6628	15712	161	-16	39	126	124	5
-9248	-3404	13524	98	-60	-165	-15152	988	-5824	-59	-32	-102	-2548	-3356	16276	37	-203	230	-8212	4336	12964	-100	153	-253	-15664	2240	-5388	32	-7	59	-2424	6588	15684	190	42	102	126	124	5
-9204	-3432	13396	122	-64	-186	-15240	944	-5904	-46	-34	-164	-2436	-3528	16192	90	-171	272	-8140	4320	12948	-147	164	-241	-15616	2204	-5408	34	42	71	-2516	6516	15588	283	74	107	126	123	5
-9212	-3424	13400	98	-60	-106	-15216	808	-5808	-76	-61	-98	-2408	-3516	16184	130	-160	256	-8188	4264	13088	-128	158	-224	-15628	2080	-5380	13	24	88	-2552	6512	15672	292	52	105	126	123	5
-9216	-3372	13480	104	-37	-212	-15180	696	-5824	-68	-43	-104	-2424	-3608	16084	133	-121	251	-8124	4268	13048	-99	160	-198	-15580	2140	-5424	59	-11	138	-2488	6424	15656	251	10	61	126	123	5
-9196	-3472	13412	146	-113	-151	-15212	696	-5760	-61	-54	-56	-2384	-3648	16192	75	-110	195	-8108	4316	13000	-58	154	-244	-15604	2124	-5404	79	-4	150	-2476	6452	15664	274	12	48	126	123	5
-9152	-3476	13452	156	-102	-128	-15208	688	-5844	3	-56	34	-2428	-3704	16184	53	-88	166	-8208	4328	13060	-28	191	-241	-15656	2192	-5512	90	-6	190	-2468	6636	15604	321	26	22	126	123	5
-9160	-3444	13360	150	-17	-103	-15220	804	-5832	3	-17	75	-2392	-3652	16236	72	-57	190	-8188	4300	13056	-54	173	-189	-15660	2248	-5332	88	40	182	-2472	6672	15648	301	80	-8	126	123	5
-9140	-3476	13416	183	-81	-132	-15192	860	-5708	-29	-62	62	-2424	-3496	16180	116	-72	190	-8192	4352	13076	-73	186	-240	-15628	2344	-5320	18	55	210	-2508	6764	15580	328	56	22	127	124	5
-9164	-3472	13528	145	-93	-118	-15260	944	-5748	-6	-35	73	-2516	-3344	16180	132	-40	197	-8208	4304	13108	-65	170	-247	-15612	2284	-5476	61	40	193	-2516	6740	15572	309	145	37	126	124	5
-9184	-3408	13532	165	-82	-99	-15252	976	-5728	-1	-25	26	-2496	-3300	16220	126	-46	184	-8176	4336	12992	-51	184	-217	-15620	2288	-5456	104	51	184	-2624	6768	15660	262	50	4	126	123	5
-9156	-3460	13432	162	-85	-126	-15188	1024	-5772	-8	24	31	-2640	-3352	16356	66	-57	177	-8208	4336	12996	-83	166	-209	-15644	2372	-5432	97	50	144	-2648	6864	15508	236	89	3	126	124	5
-9184	-3400	13472	118	-79	-158	-15212	992	-5796	2	35	5	-2656	-3272	16080	-1	-89	171	-8180	4308	13100	-61	137	-261	-15624	2368	-5480	78	71	114	-2640	6828	15540	221	41	15	126	124	5
-9256	-3428	13448	121	-88	-147	-15240	1028	-5912	-16	-18	-45	-2744	-3216	16132	-18	-120	180	-8152	4360	13052	-70	116	-214	-15580	2352	-5536	76	24	92	-2648	6868	15404	200	7	6	126	124	5
-9156	-3432	13540	118	-34	-131	-15148	1080	-5892	19	0	-80	-2704	-3316	16248	-43	-125	162	-8236	4360	13072	-116	148	-231	-15536	2416	-5500	88	23	54	-2732	6800	15568	149	8	-6	126	124	5
-9164	-3460	13420	109	-50	-166	-15188	1056	-5912	-7	-33	-103	-2664	-3364	16156	-20	-199	172	-8172	4352	12960	-112	118	-221	-15640	2300	-5356	110	-19	22	-2720	6844	15488	116	-3	39	126	124	5
-9184	-3388	13452	99	-49	-189	-15216	932	-5860	11	-51	-150	-2580	-3400	16248	-15	-195	194	-8136	4356	13076	-93	119	-271	-15596	2316	-5404	83	10	38	-2512	6804	15504	77	-20	45	126	123	5
-9216	-3476	13548	51	-33	-192	-15200	916	-5772	-30	-46	-157	-2540	-3452	16072	-13	-224	162	-8208	4264	13024	-142	127	-242	-15560	2236	-5484	122	-31	2	-2540	6580	15580	70	-48	53	126	124	5
-9144	-3456	13480	87	-36	-155	-15188	888	-5824	-6	-16	-124	-2488	-3540	16120	-47	-190	198	-8176	4308	13076	-127	134	-247	-15596	2228	-5432	57	-50	21	-2576	6572	15712	102	-59	55	126	124	5
-9216	-3468	13428	78	-61	-155	-15224	820	-5956	-24	-30	-129	-2492	-3560	16108	-45	-184	175	-8168	4332	13044	-121	126	-256	-15608	2168	-5552	59	-28	86	-2560	6552	15612	112	-55	50	126	123	5
-9144	-3452	13452	74	-51	-159	-15240	768	-5860	-2	21	-134	-2488	-3672	16256	-69	-200	128	-8140	4284	13116	-94	104	-226	-15572	2160	-5408	133	-65	85	-2540	6496	15720	170	-25	48	126	123	5
-9236	-3464	13404	126	-134	-184	-15272	800	-5876	-12	-32	-53	-2540	-3656	16196	19	-223	179	-8188	4256	13044	-83	137	-202	-15640	2092	-5492	83	-47	118	-2500	6504	15688	160	-33	33	126	123	5
-9232	-3472	13460	95	-52	-157	-15120	808	-5776	-21	-24	-67	-2452	-3632	16216	80	-163	149	-8152	4260	13044	-51	138	-238	-15648	2196	-5364	65	-49	112	-2540	6520	15668	237	-26	38	126	124	5
-9164	-3468	13576	153	-74	-161	-15256	844	-5824	-25	-66	6	-2492	-3552	16164	84	-114	177	-8124	4324	13032	-92	146	-189	-15608	2172	-5436	81	-19	150	-2488	6624	15572	245	-12	43	126	124	5
-9236	-3456	13392	143	-95	-139	-15284	828	-5772	2	-53	-3	-2432	-3536	16156	55	-137	191	-8168	4276	12948	-100	165	-208	-15660	2224	-5456	56	13	130	-2576	6548	15620	215	16	22	126	123	5
-9172	-3456	13468	129	-88	-150	-15232	860	-5852	-9	-78	-24	-2488	-3476	16256	78	-123	211	-8148	4396	13112	-84	151	-183	-15588	2264	-5492	40	-21	183	-2556	6616	15536	196	73	35	126	123	5
-9208	-3428	13456	153	-56	-147	-15240	888	-5828	-16	-70	10	-2552	-3468	16200	80	-109	196	-8112	4336	13080	-60	162	-210	-15628	2280	-5340	20	-5	150	-2532	6732	15580	238	34	36	126	123	5
-9224	-3448	13416	130	-47	-161	-15132	868	-5784	-14	-63	-4	-2532	-3360	16160	77	-99	196	-8160	4312	13060	-113	170	-188	-15624	2316	-5520	41	-6	144	-2656	6728	15724	257	38	55	126	124	5
-9196	-3468	13456	130	-102	-169	-15164	968	-5916	-35	-60	-36	-2560	-3448	16200	86	-110	213	-8152	4284	13044	-79	164	-188	-15552	2276	-5516	78	-23	126	-2624	6736	15616	231	21	63	126	124	5
-9184	-3436	13440	144	-85	-167	-15216	880	-5784	-27	-53	11	-2512	-3424	16192	107	-135	235	-8184	4288	13084	-61	162	-204	-15584	2232	-5432	37	-54	147	-2596	6616	15732	194	-31	68	126	124	5
-9160	-3488	13416	154	-95	-123	-15196	888	-5840	1	-66	-69	-2520	-3408	16244	111	-147	207	-8136	4344	13056	-92	122	-218	-15600	2244	-5428	108	-26	106	-2592	6628	15548	189	-34	43	126	124	5
-9228	-3468	13484	143	-92	-170	-15176	908	-5876	-41	-56	-60	-2548	-3464	16228	50	-172	198	-8144	4344	13156	-77	100	-190	-15588	2212	-5484	110	-29	144	-2556	6676	15588	165	-30	30	126	123	5
-9220	-3436	13480	132	-77	-133	-15204	884	-5792	-6	-59	-48	-2544	-3344	16348	51	-140	165	-8184	4280	12980	-61	154	-223	-15640	2200	-5448	97	-20	152	-2600	6648	15648	158	-57	45	126	123	5
-9196	-3440	13476	106	-54	-133	-15268	872	-5856	-17	-28	-68	-2556	-3452	16256	14	-204	179	-8160	4368	13060	-86	152	-170	-15548	2168	-5456	90	-29	132	-2540	6764	15728	153	-82	-10	126	123	5
-9196	-3400	13444	128	-54	-155	-15168	912	-5816	22	-15	-50	-2560	-3388	16228	4	-177	177	-8220	4328	13128	-68	147	-220	-15572	2244	-5324	106	-49	148	-2568	6628	15600	168	-81	3	126	123	5
-9156	-3488	13384	108	-65	-137	-15168	900	-5784	-33	-37	-61	-2536	-3472	16260	36	-155	184	-8144	4352	13064	-103	130	-210	-15632	2268	-5452	69	-48	150	-2548	6708	15688	150	-42	29	126	123	5
-9172	-3516	13336	115	-51	-156	-15244	856	-5804	-38	-45	-67	-2552	-3472	16232	-36	-141	197	-8184	4348	12992	-89	130	-221	-15560	2244	-5380	59	-12	104	-2492	6708	15568	187	-39	5	126	123	5
-9176	-3468	13436	115	-82	-121	-15148	900	-5796	-30	-24	-67	-2476	-3484	16200	39	-142	179	-8176	4332	13116	-52	147	-242	-15616	2240	-5396	47	10	94	-2472	6672	15568	160	-35	56	126	123	5
-9260	-3452	13540	113	-62	-135	-15196	808	-5720	3	-53	-62	-2492	-3528	16200	51	-159	184	-8136	4364	13016	-76	155	-226	-15636	2212	-5504	66	-22	105	-2532	6648	15640	207	16	34	126	123	5
-9212	-3448	13420	135	-31	-145	-15212	800	-5684	1	-40	-50	-2532	-3516	16092	44	-128	188	-8208	4288	13068	-98	139	-229	-15596	2196	-5416	66	-11	104	-2580	6668	15576	180	11	19	126	124	5
-9200	-3448	13428	129	-18	-163	-15152	800	-5836	50	-59	-2	-2528	-3480	16152	27	-135	172	-8168	4380	13056	-73	166	-192	-15640	2192	-5472	98	-25	119	-2628	6628	15692	138	-35	18	126	123	5
-9176	-3460	13500	128	-97	-110	-15224	860	-5736	13	-50	-9	-2536	-3400	16168	65	-139	135	-8148	4340	13028	-59	159	-220	-15600	2208	-5432	67	-23	128	-2600	6592	15612	139	-25	29	126	123	5
-9208	-3452	13448	143	-59	-170	-15152	916	-5768	-8	-72	-14	-2492	-3468	16232	36	-158	155	-8148	4344	13080	-127	170	-219	-15596	2264	-5400	82	-41	100	-2512	6628	15628	175	-3	-9	126	123	5
-9184	-3436	13408	113	-79	-186	-15188	932	-5700	1	-46	-18	-2568	-3368	16116	32	-152	164	-8100	4312	13024	-102	143	-220	-15596	2256	-5376	89	5	141	-2532	6644	15708	186	-27	-5	126	123	5
-9220	-3492	13420	134	-66	-139	-15220	952	-5848	-9	-31	-42	-2564	-3444	16196	37	-156	183	-8108	4324	13060	-96	173	-225	-15708	2232	-5232	99	-20	116	-2608	6676	15616	196	-26	0	126	123	5
-9264	-3516	13472	129	-55	-198	-15300	876	-5856	-23	-11	-42	-2552	-3512	16196	43	-146	200	-8128	4340	12944	-94	160	-202	-15644	2240	-5528	89	-8	127	-2580	6600	15524	183	-9	33	126	123	5
-9164	-3400	13364	150	-61	-179	-15240	896	-5832	-26	-55	-23	-2560	-3468	16152	29	-139	170	-8180	4300	13084	-78	133	-176	-15608	2292	-5372	69	-17	102	-2584	6676	15612	184	9	41	126	123	5
-9288	-3376	13468	140	-80	-169	-15140	864	-5844	5	-50	-21	-2576	-3464	16104	68	-123	171	-8204	4348	13036	-78	133	-220	-15532	2264	-5408	75	-50	136	-2588	6652	15680	160	-9	51	126	124	5
-9212	-3496	13388	140	-80	-140	-15172	920	-5804	3	-49	-65	-2596	-3472	16160	62	-124	184	-8184	4276	13040	-93	128	-245	-15548	2260	-5404	34	-30	91	-2572	6680	15700	175	-27	67	126	123	5
-9116	-3436	13464	109	-129	-142	-15168	828	-5860	-5	-99	-24	-2552	-3516	16188	49	-141	163	-8136	4324	12996	-99	122	-246	-15604	2220	-5528	88	-47	93	-2588	6656	15684	175	-51	-2	126	124	5
-9196	-3452	13528	152	-41	-142	-15208	924	-5852	-8	-50	-37	-2540	-3452	16236	49	-175	191	-8100	4348	13080	-62	135	-224	-15648	2208	-5456	114	-52	139	-2572	6580	15592	185	-21	28	126	124	5
-9188	-3392	13520	124	-69	-154	-15212	884	-5812	-2	-65	-66	-2596	-3460	16316	67	-157	186	-8124	4344	13100	-76	110	-208	-15604	2216	-5536	105	-28	170	-2548	6644	15660	187	0	7	126	123	5
-9200	-3480	13456	137	-99	-149	-15224	884	-5800	-26	-64	-68	-2504	-3368	16224	14	-151	199	-8220	4328	13016	-83	100	-189	-15680	2272	-5448	119	-31	116	-2516	6580	15696	168	-8	7	126	123	5
-9244	-3444	13492	120	-88	-158	-15164	928	-5776	-31	-54	-39	-2540	-3452	16148	66	-183	191	-8120	4360	13028	-66	135	-207	-15568	2220	-5460	66	-43	146	-2568	6680	15644	164	-48	38	126	123	5
-9228	-3440	13496	144	-39	-162	-15168	888	-5736	-48	-38	-34	-2492	-3516	16172	14	-143	209	-8168	4368	13008	-96	165	-180	-15564	2248	-5516	103	-12	128	-2552	6632	15508	202	-27	20	126	124	5
-9228	-3424	13456	138	-71	-152	-15228	812	-5860	18	-58	-35	-2628	-3504	16172	19	-142	180	-8152	4396	13076	-63	122	-213	-15632	2268	-5432	98	-41	142	-2524	6692	15652	198	-5	31	126	124	5
-9176	-3460	13376	122	-78	-112	-15224	840	-5804	1	-91	-26	-2520	-3508	16308	37	-142	170	-8192	4372	13180	-94	154	-215	-15612	2252	-5316	92	-38	111	-2608	6672	15528	156	-16	42	126	124	5
-9192	-3432	13544	101	-92	-142	-15204	876	-5856	-21	-43	-31	-2548	-3488	16240	66	-177	193	-8164	4276	13100	-86	159	-204	-15628	2220	-5312	91	-16	125	-2532	6596	15664	189	-12	58	126	124	5
-9156	-3472	13504	145	-72	-147	-15192	908	-5832	0	-99	-12	-2528	-3512	16096	40	-143	201	-8160	4264	13064	-135	128	-203	-15624	2240	-5520	64	-3	113	-2592	6660	15592	193	-13	35	126	124	5
-9148	-3436	13452	125	-51	-167	-15232	896	-5760	-16	-69	-24	-2476	-3484	16228	59	-143	195	-8144	4240	13060	-126	180	-222	-15540	2220	-5528	45	-45	135	-2624	6608	15532	203	-22	16	126	124	5
-9160	-3404	13448	114	-103	-155	-15252	888	-5836	21	-55	-45	-2500	-3384	16348	91	-159	178	-8036	4348	13068	-100	174	-204	-15628	2176	-5452	69	-37	150	-2604	6588	15616	198	-8	47	126	123	5
-9196	-3384	13400	117	-56	-163	-15256	844	-5692	-10	-95	-44	-2528	-3428	16180	33	-129	180	-8144	4328	12892	-99	186	-219	-15684	2188	-5424	67	-25	165	-2528	6592	15652	220	7	16	126	123	5
-9156	-3496	13392	118	-10	-136	-15200	856	-5704	-39	-41	-44	-2528	-3440	16224	36	-155	189	-8144	4280	13040	-101	167	-183	-15620	2248	-5452	68	8	125	-2592	6624	15568	204	-53	4	126	123	5
-9180	-3484	13436	142	-48	-136	-15188	864	-5848	-29	-52	-55	-2532	-3492	16132	31	-125	187	-8144	4268	13076	-91	158	-207	-15628	2216	-5380	127	-43	145	-2576	6616	15692	199	-19	31	126	123	5
-9200	-3404	13428	123	-60	-139	-15156	860	-5748	9	-59	-3	-2512	-3424	16188	28	-141	189	-8212	4312	13100	-68	155	-211	-15652	2264	-5540	143	-24	149	-2620	6700	15620	204	7	15	126	123	5
-9208	-3456	13332	147	-43	-169	-15208	916	-5900	-9	-42	-25	-2476	-3456	16252	27	-137	183	-8156	4324	13012	-97	144	-222	-15648	2360	-5412	118	-19	155	-2580	6664	15600	259	-58	22	126	124	5
-9204	-3364	13480	109	-68	-153	-15128	908	-5916	-85	-53	-49	-2528	-3452	16176	28	-149	183	-8196	4320	12980	-48	134	-208	-15620	2244	-5432	94	-21	128	-2524	6656	15600	175	-50	35	126	124	5
-9200	-3436	13488	85	-81	-172	-15152	836	-5752	-2	-73	-62	-2484	-3436	16168	23	-157	177	-8092	4296	13088	-37	127	-222	-15584	2304	-5452	94	-47	115	-2524	6676	15584	194	-23	34	126	123	5
-9212	-3404	13488	150	-72	-175	-15216	880	-5800	-38	-30	-54	-2532	-3460	16168	23	-112	190	-8152	4344	13056	-57	92	-236	-15656	2172	-5360	44	-60	126	-2560	6608	15616	163	-5	35	126	123	5
-9280	-3412	13516	107	-38	-134	-15220	852	-5748	-34	-62	-64	-2460	-3468	16232	51	-119	246	-8180	4324	13084	-75	151	-246	-15636	2244	-5316	87	4	87	-2588	6668	15648	179	-15	19	126	123	5
-9216	-3448	13508	141	-76	-152	-15140	852	-5620	-30	-47	-48	-2528	-3476	16168	27	-108	179	-8240	4324	13104	-60	163	-218	-15588	2212	-5428	59	-7	137	-2540	6668	15628	193	44	12	126	123	5
-9176	-3412	13532	114	-33	-132	-15208	860	-5816	-52	-65	-16	-2560	-3492	16160	20	-110	181	-8120	4312	13016	-102	149	-193	-15708	2264	-5476	62	1	92	-2496	6636	15612	216	20	25	126	123	5
-9228	-3404	13484	158	-84	-148	-15204	832	-5716	-13	-39	-55	-2520	-3488	16236	29	-143	189	-8148	4332	13144	-94	145	-183	-15608	2220	-5404	80	-12	152	-2632	6632	15656	187	4	40	126	123	5
-9248	-3384	13504	107	-42	-178	-15216	916	-5884	14	-41	-50	-2520	-3440	16200	46	-119	182	-8184	4320	12972	-90	140	-207	-15652	2252	-5396	66	-11	125	-2656	6600	15612	172	3	39	126	123	5
-9212	-3448	13396	139	-1	-152	-15180	868	-5780	-14	-58	-33	-2516	-3484	16104	72	-156	201	-8200	4288	13028	-127	145	-229	-15628	2224	-5388	79	-63	158	-2600	6632	15624	164	-29	49	126	123	5
-9192	-3492	13448	137	-43	-148	-15148	916	-5848	-17	-20	-57	-2560	-3448	16108	35	-123	227	-8196	4284	13004	-66	154	-198	-15584	2184	-5580	124	-5	127	-2568	6656	15664	185	-24	43	126	123	5
-9172	-3476	13404	129	-75	-147	-15216	912	-5816	13	-42	-47	-2640	-3480	16196	41	-150	195	-8164	4344	12976	-83	142	-221	-15648	2224	-5404	76	-42	139	-2552	6680	15676	213	-23	19	126	123	5
-9220	-3468	13368	131	-24	-166	-15236	832	-5852	0	-42	-49	-2460	-3488	16100	34	-176	150	-8132	4288	13036	-97	150	-236	-15584	2268	-5340	85	-46	100	-2504	6660	15632	198	-8	4	126	123	5
-9108	-3476	13480	134	-71	-105	-15208	856	-5800	-34	-69	-62	-2512	-3476	16100	38	-154	161	-8196	4340	12964	-62	160	-240	-15568	2320	-5416	79	-45	99	-2484	6680	15636	220	-26	34	126	123	5
-9212	-3448	13468	144	-87	-165	-15224	912	-5788	-5	-49	-59	-2524	-3520	16228	28	-139	166	-8140	4440	12996	-91	138	-209	-15668	2280	-5380	110	-47	100	-2600	6664	15512	195	-21	12	126	124	5
-9180	-3472	13484	143	-65	-180	-15160	872	-5760	-28	-35	-30	-2572	-3456	16192	21	-149	197	-8168	4336	13012	-102	169	-217	-15572	2252	-5464	76	-33	126	-2512	6664	15676	191	-40	64	126	124	5
-9168	-3456	13456	142	-89	-104	-15196	824	-5784	-2	-48	-33	-2516	-3520	16184	93	-180	191	-8140	4308	12960	-97	138	-217	-15656	2248	-5396	72	3	103	-2552	6608	15660	196	-11	26	126	123	5
-9148	-3488	13460	123	-39	-203	-15232	928	-5860	-48	-43	-61	-2540	-3472	16276	78	-135	198	-8128	4292	13084	-68	160	-196	-15636	2188	-5388	74	-17	86	-2580	6596	15720	215	-6	44	126	124	5
-9132	-3460	13412	124	-101	-170	-15192	924	-5752	-30	-43	-7	-2492	-3436	16280	27	-165	174	-8188	4284	12984	-84	152	-236	-15596	2224	-5372	101	-19	120	-2624	6656	15640	203	3	13	126	124	5
-9224	-3472	13528	130	-64	-152	-15228	908	-5620	-6	-44	-50	-2508	-3424	16212	64	-132	160	-8136	4292	13080	-102	154	-212	-15612	2168	-5456	71	23	120	-2532	6640	15580	181	-15	24	126	123	5
-9252	-3480	13520	123	-43	-144	-15188	900	-5724	-12	-31	-57	-2504	-3428	16232	28	-126	186	-8180	4332	13080	-72	148	-240	-15636	2212	-5460	131	-63	124	-2520	6612	15636	185	-25	11	126	124	5
-9148	-3424	13436	137	-35	-152	-15196	856	-5880	-40	-37	-52	-2548	-3448	16296	3	-151	145	-8072	4336	13072	-62	139	-205	-15636	2168	-5400	104	-24	118	-2588	6556	15676	181	2	9	126	124	5
-9212	-3416	13448	120	-47	-161	-15200	872	-5780	1	-40	-69	-2504	-3468	16172	25	-132	171	-8188	4352	12992	-89	160	-191	-15604	2260	-5352	95	4	133	-2528	6624	15596	193	-39	31	126	124	5
-9176	-3404	13456	138	-95	-150	-15224	908	-5772	-18	-48	-26	-2464	-3492	16160	21	-141	170	-8212	4324	12980	-82	137	-201	-15596	2216	-5352	72	-30	133	-2516	6636	15648	176	-18	-8	126	124	5
-9196	-3448	13468	115	-99	-122	-15216	856	-5796	-49	-11	-50	-2496	-3520	16240	61	-123	162	-8120	4352	13016	-72	187	-230	-15680	2276	-5296	63	-13	105	-2472	6632	15612	201	28	53	126	124	5
-9164	-3412	13476	106	-78	-145	-15240	864	-5752	-27	-12	-65	-2432	-3564	16220	114	-112	174	-8144	4332	13044	-113	164	-222	-15640	2200	-5412	84	2	129	-2544	6672	15688	219	9	27	126	123	5
-9200	-3468	13452	149	-85	-137	-15188	884	-5792	-47	-53	-40	-2456	-3460	16080	40	-124	197	-8168	4380	13040	-101	165	-220	-15640	2212	-5432	50	30	128	-2536	6608	15540	210	51	30	126	124	5
-9200	-3436	13416	135	-74	-176	-15224	852	-5768	3	-16	-29	-2468	-3420	16152	25	-103	166	-8132	4344	13044	-150	157	-264	-15568	2200	-5344	78	26	146	-2620	6704	15644	201	-2	38	126	123	5
-9168	-3508	13392	135	-44	-177	-15156	912	-5760	14	-6	-47	-2528	-3448	16184	29	-105	187	-8112	4304	13068	-132	149	-223	-15548	2276	-5508	102	52	95	-2624	6672	15632	162	-24	14	126	123	5
-9236	-3416	13532	119	-83	-163	-15248	916	-5844	30	-15	4	-2568	-3424	16240	-4	-118	146	-8220	4240	12976	-73	175	-258	-15608	2256	-5404	136	-9	107	-2620	6680	15688	178	3	15	126	124	5
-9256	-3484	13412	116	-18	-141	-15128	880	-5992	25	12	-41	-2608	-3388	16188	-3	-109	159	-8124	4352	13120	-69	149	-207	-15596	2244	-5336	93	25	111	-2680	6620	15592	172	8	18	126	123	5
-9200	-3444	13500	134	-51	-139	-15140	964	-5916	-23	-40	-43	-2576	-3488	16264	15	-112	124	-8144	4304	13080	-90	165	-260	-15608	2280	-5532	38	-6	98	-2600	6732	15588	208	21	37	126	123	5
-9228	-3344	13476	123	-8	-148	-15216	872	-5872	-32	-52	-88	-2644	-3468	16172	-27	-181	195	-8152	4340	13140	-98	106	-252	-15644	2300	-5308	66	18	67	-2644	6708	15588	190	24	52	126	123	5
-9164	-3484	13448	127	-76	-156	-15220	892	-5888	-32	-36	-87	-2604	-3464	16128	20	-152	173	-8096	4332	13076	-89	132	-258	-15568	2160	-5532	73	-28	69	-2632	6604	15576	184	-8	71	126	124	5
-9188	-3460	13496	109	-133	-159	-15212	884	-5796	-21	-87	-75	-2584	-3540	16232	38	-169	212	-8216	4304	12960	-104	106	-267	-15616	2188	-5496	81	-33	78	-2640	6560	15616	190	5	58	126	123	5
-9164	-3492	13456	143	-98	-165	-15184	840	-5964	-68	-96	-94	-2556	-3576	16172	58	-154	214	-8196	4324	13012	-67	159	-236	-15596	2256	-5496	93	-35	98	-2612	6520	15720	146	-29	75	126	124	5
-9232	-3488	13540	133	-99	-142	-15184	808	-5836	-19	-68	-62	-2588	-3600	16176	13	-175	206	-8116	4316	13064	-89	104	-197	-15564	2164	-5484	67	-52	110	-2532	6516	15900	185	-29	49	126	124	5
-9164	-3496	13456	131	-35	-140	-15208	812	-5812	-7	-77	-74	-2492	-3520	16172	13	-140	196	-8208	4268	13060	-69	128	-172	-15652	2184	-5428	62	-40	119	-2544	6436	15712	187	-45	42	126	123	5
-9144	-3436	13292	125	-71	-155	-15168	804	-5884	-12	-93	-73	-2448	-3568	16128	48	-168	214	-8220	4292	12964	-97	166	-200	-15640	2192	-5460	65	-77	153	-2560	6536	15564	193	-45	61	126	123	5
-9172	-3484	13484	159	-97	-185	-15204	792	-5852	-16	-88	-1	-2448	-3512	16200	116	-149	186	-8156	4316	13036	-59	168	-153	-15644	2156	-5348	44	-32	180	-2552	6532	15708	242	-40	30	126	124	5
-9196	-3436	13436	145	-81	-159	-15168	812	-5676	17	-76	-54	-2452	-3544	16204	94	-155	166	-8152	4268	13148	-59	178	-175	-15612	2172	-5452	110	-69	210	-2552	6624	15632	240	-62	20	126	124	5
-9172	-3480	13496	155	-67	-110	-15188	848	-5712	-31	-74	-57	-2524	-3496	16220	53	-128	181	-8172	4320	13104	-57	141	-226	-15568	2316	-5392	81	-47	209	-2560	6736	15624	226	-37	3	126	123	5
-9220	-3456	13492	154	-62	-127	-15236	792	-5848	-6	-69	-6	-2568	-3416	16220	37	-138	172	-8176	4356	13000	-112	190	-238	-15676	2296	-5412	57	-59	177	-2536	6712	15616	219	-32	42	126	124	5
-9208	-3412	13464	178	-115	-126	-15136	952	-5848	23	-55	-45	-2480	-3384	16104	89	-143	182	-8188	4300	13024	-50	150	-198	-15640	2416	-5368	101	-56	183	-2448	6744	15616	235	-19	42	126	124	5
-9128	-3528	13448	142	-99	-181	-15176	968	-5772	-3	-76	-52	-2492	-3328	16152	90	-126	176	-8160	4336	13036	-152	182	-221	-15620	2292	-5416	91	16	119	-2456	6716	15560	193	-4	73	126	124	5
-9220	-3420	13368	137	-36	-162	-15256	940	-5664	-19	-7	-17	-2556	-3288	16240	51	-137	172	-8164	4328	13088	-69	148	-229	-15644	2380	-5356	51	-17	99	-2504	6760	15660	213	9	47	126	124	5
-9228	-3440	13536	120	-68	-174	-15252	956	-5724	-14	-49	-54	-2488	-3364	16204	55	-162	189	-8092	4372	13044	-106	144	-189	-15604	2260	-5408	95	-8	81	-2564	6728	15636	188	42	13	126	124	5
-9196	-3444	13400	97	-65	-178	-15168	940	-5808	-13	-59	-56	-2492	-3360	16192	43	-138	236	-8172	4336	13132	-109	156	-213	-15576	2264	-5512	47	21	50	-2496	6740	15676	163	24	39	126	124	5
-9252	-3416	13500	92	-70	-157	-15108	916	-5804	-49	-43	-113	-2488	-3464	16264	53	-128	187	-8156	4360	13020	-113	139	-214	-15632	2260	-5436	48	-13	78	-2584	6648	15684	165	24	76	126	123	5
-9208	-3408	13416	127	-123	-144	-15252	828	-5728	-20	-49	-86	-2464	-3512	16232	17	-143	189	-8192	4316	13120	-103	176	-225	-15624	2188	-5456	69	2	86	-2504	6580	15660	182	-8	46	126	124	5
-9152	-3472	13520	96	-66	-187	-15320	796	-5692	10	-2	-54	-2436	-3476	16220	42	-134	187	-8160	4244	13080	-93	148	-208	-15684	2148	-5404	100	-5	87	-2516	6508	15696	203	19	42	126	123	5
-9120	-3448	13464	124	-51	-145	-15280	768	-5768	18	-17	-31	-2412	-3488	16140	3	-113	169	-8140	4332	13104	-83	125	-216	-15648	2180	-5384	106	27	93	-2528	6668	15660	194	-26	9	126	124	5
-9168	-3460	13508	144	-70	-132	-15232	848	-5832	-10	6	-14	-2472	-3524	16240	-7	-93	112	-8192	4288	12940	-90	140	-252	-15592	2240	-5472	111	27	109	-2572	6668	15688	218	-13	11	126	124	5
-9188	-3472	13496	149	-46	-161	-15180	828	-5856	30	8	-14	-2556	-3472	16144	-40	-112	145	-8256	4280	13052	-94	164	-198	-15628	2220	-5356	64	11	118	-2640	6660	15716	206	7	25	126	123	5
-9180	-3472	13440	162	-55	-146	-15164	928	-5880	10	-44	-15	-2604	-3532	16264	-35	-132	145	-8164	4296	13084	-67	126	-217	-15588	2292	-5436	64	-8	138	-2596	6608	15624	145	-28	38	126	123	5
-9224	-3452	13392	135	-41	-140	-15164	920	-5820	29	-28	-13	-2624	-3484	16160	-35	-144	133	-8216	4340	13012	-98	135	-207	-15620	2244	-5312	107	1	125	-2592	6644	15648	141	-30	41	126	124	5
-9204	-3448	13400	134	-18	-166	-15212	948	-5908	12	-64	-45	-2592	-3436	16152	30	-156	162	-8176	4308	13052	-87	124	-204	-15644	2228	-5564	101	-14	124	-2580	6600	15548	165	0	42	126	124	5
-9120	-3488	13400	160	-85	-141	-15212	916	-5852	-36	-37	-81	-2596	-3456	16212	29	-139	179	-8176	4348	13008	-92	126	-215	-15616	2236	-5336	58	-21	74	-2484	6544	15624	186	-15	52	126	124	5
-9156	-3500	13444	135	-22	-172	-15160	932	-5816	-50	-29	-33	-2508	-3492	16232	55	-148	196	-8176	4252	13064	-85	165	-204	-15580	2172	-5384	45	-35	100	-2608	6616	15644	201	-29	77	126	124	5
-9192	-3504	13504	73	-36	-187	-15196	852	-5824	-10	-54	-108	-2508	-3532	16272	57	-157	185	-8156	4416	13096	-147	173	-212	-15672	2212	-5416	54	14	108	-2556	6556	15752	220	3	84	126	123	5
-9212	-3424	13436	110	-33	-147	-15160	844	-5720	25	-12	-49	-2512	-3596	16120	-6	-187	210	-8112	4376	12896	-161	207	-185	-15596	2184	-5480	58	-2	126	-2584	6636	15620	206	-25	35	126	124	5
-9176	-3520	13472	127	-94	-132	-15252	876	-5840	-1	-82	-31	-2504	-3544	16160	68	-127	212	-8144	4248	13144	-90	178	-196	-15616	2172	-5396	76	-13	107	-2600	6668	15600	195	-7	57	126	124	5
-9236	-3436	13496	109	-79	-126	-15224	792	-5944	-5	-78	-23	-2468	-3532	16152	52	-123	194	-8168	4320	13008	-79	144	-224	-15572	2272	-5360	39	10	119	-2556	6592	15600	209	25	59	126	123	5
-9252	-3496	13612	137	-31	-173	-15188	848	-5812	-3	-51	-21	-2484	-3544	16168	76	-143	192	-8228	4268	13064	-82	178	-195	-15660	2156	-5444	48	0	104	-2632	6564	15576	227	-21	51	126	123	5
-9176	-3472	13488	173	-98	-128	-15248	788	-5768	-22	-85	6	-2512	-3492	16088	66	-124	196	-8184	4300	13048	-95	130	-214	-15636	2204	-5508	67	-19	95	-2564	6580	15620	253	10	40	126	124	5
-9172	-3484	13456	170	-101	-151	-15284	920	-5864	-21	-55	-4	-2536	-3456	16228	69	-136	195	-8192	4324	13068	-76	137	-217	-15584	2160	-5484	66	-24	170	-2572	6660	15660	211	-50	39	126	123	5
-9156	-3412	13412	117	-77	-149	-15224	916	-5748	-14	-61	13	-2516	-3388	16168	80	-164	164	-8224	4404	13044	-105	98	-216	-15596	2224	-5432	90	4	126	-2552	6676	15660	194	11	15	126	124	5
-9204	-3480	13488	145	-92	-133	-15172	896	-5820	-28	-47	-63	-2448	-3412	16216	39	-139	184	-8144	4300	13052	-44	135	-198	-15568	2200	-5488	109	-3	154	-2492	6644	15564	216	-24	19	126	124	5
-9148	-3472	13392	156	-71	-144	-15212	892	-5832	-33	-74	-25	-2496	-3412	16208	53	-130	168	-8168	4344	12936	-38	143	-200	-15580	2276	-5372	72	-21	152	-2552	6696	15576	204	-11	32	126	123	5
-9224	-3400	13544	130	-64	-165	-15248	900	-5792	-35	-46	-70	-2468	-3348	16268	22	-131	194	-8156	4316	12952	-46	118	-210	-15640	2232	-5320	75	-10	104	-2612	6720	15668	182	-4	20	126	123	5
-9200	-3392	13368	136	-106	-159	-15224	916	-5812	-18	-86	-23	-2520	-3492	16192	2	-131	169	-8184	4304	12944	-69	139	-217	-15664	2268	-5348	54	-20	119	-2500	6744	15612	195	29	24	126	124	5
-9168	-3500	13504	135	-86	-136	-15248	876	-5764	-16	-49	-57	-2504	-3520	16228	27	-136	181	-8216	4332	13084	-87	121	-219	-15588	2256	-5344	83	18	125	-2508	6712	15472	185	-17	35	126	123	5
-9196	-3424	13524	78	-46	-144	-15220	804	-5680	-7	-15	-51	-2536	-3500	16216	15	-141	179	-8152	4400	13116	-91	139	-234	-15612	2248	-5436	104	4	101	-2584	6684	15576	193	-4	17	126	124	5
-9212	-3472	13496	166	-71	-121	-15220	884	-5776	-36	0	-32	-2532	-3464	16200	27	-119	171	-8148	4360	13116	-135	163	-193	-15632	2248	-5496	71	1	89	-2544	6608	15636	137	11	46	126	123	5
-9148	-3412	13452	130	-77	-167	-15160	904	-5828	-47	-30	-69	-2456	-3448	16228	10	-139	155	-8152	4304	13020	-108	133	-243	-15624	2256	-5436	85	-11	110	-2564	6692	15680	153	16	3	126	123	5
-9244	-3412	13544	100	-37	-173	-15184	872	-5788	-33	-47	-55	-2540	-3432	16196	29	-112	195	-8160	4296	13060	-95	142	-243	-15632	2200	-5356	54	-15	108	-2636	6616	15616	189	2	45	126	123	5
-9156	-3476	13368	117	-74	-152	-15208	860	-5836	2	-40	-58	-2520	-3508	16172	15	-112	192	-8216	4356	13068	-117	139	-203	-15592	2128	-5520	22	-28	94	-2560	6492	15608	196	32	43	126	123	5
-9188	-3480	13408	165	-52	-166	-15244	880	-5784	4	-18	-45	-2504	-3548	16280	25	-148	189	-8120	4340	13124	-120	171	-227	-15616	2144	-5468	76	38	92	-2612	6568	15688	181	-5	46	126	123	5
-9184	-3472	13496	124	-51	-174	-15260	816	-5696	0	-28	-46	-2516	-3532	16088	51	-149	161	-8128	4300	12964	-93	132	-212	-15616	2132	-5480	100	-4	155	-2544	6548	15652	180	-7	16	126	123	5
-9192	-3376	13424	156	-45	-143	-15240	788	-5860	-8	-34	-38	-2476	-3568	16232	49	-122	213	-8256	4348	13052	-64	152	-199	-15608	2224	-5360	66	-2	120	-2544	6576	15548	210	-68	11	126	123	5
-9176	-3408	13568	168	-93	-159	-15288	820	-5764	-30	-30	-54	-2532	-3484	16156	68	-134	187	-8180	4368	12972	-89	121	-225	-15540	2248	-5400	54	-21	135	-2600	6620	15704	204	-32	22	126	124	5
-9208	-3488	13552	142	-100	-110	-15264	840	-5804	-44	-75	11	-2560	-3528	16164	54	-115	179	-8172	4380	13072	-72	160	-248	-15524	2248	-5456	43	-13	139	-2568	6696	15660	216	-16	72	126	123	5
-9164	-3416	13536	127	-113	-148	-15176	884	-5800	14	-56	-17	-2532	-3528	16108	62	-135	177	-8212	4300	13120	-83	138	-222	-15596	2200	-5360	84	0	158	-2492	6552	15572	222	-1	88	126	123	5
-9232	-3360	13500	125	-114	-187	-15224	924	-5868	-9	-78	-45	-2520	-3432	16100	91	-139	199	-8120	4308	13044	-81	130	-244	-15656	2244	-5364	92	-9	147	-2652	6664	15588	216	-11	27	126	123	5
-9156	-3476	13400	133	-81	-155	-15188	880	-5828	-1	-67	-16	-2516	-3380	16308	89	-162	178	-8224	4372	13084	-55	132	-223	-15600	2244	-5476	67	-22	126	-2560	6664	15640	167	-20	67	126	124	5
-9224	-3456	13584	119	-79	-177	-15248	872	-5748	-41	-56	-20	-2532	-3336	16164	61	-165	151	-8112	4296	13100	-45	156	-211	-15568	2216	-5488	80	-47	147	-2616	6696	15596	173	-51	50	126	123	5
-9216	-3424	13504	154	-101	-142	-15176	852	-5836	-20	-54	-26	-2624	-3384	16264	6	-142	183	-8220	4348	12992	-91	151	-189	-15624	2188	-5460	81	-13	122	-2548	6680	15660	195	-31	59	126	124	5
-9212	-3460	13480	142	-103	-156	-15180	920	-5912	-30	-55	-76	-2468	-3388	16204	62	-139	190	-8168	4320	12996	-81	158	-247	-15604	2212	-5440	86	-38	95	-2508	6728	15620	175	13	47	126	123	5
-9164	-3508	13412	127	-55	-128	-15216	940	-5724	-40	-51	-107	-2432	-3408	16212	37	-175	200	-8148	4352	13044	-63	146	-198	-15628	2232	-5352	93	-40	101	-2440	6632	15696	174	-45	31	126	124	5
-9128	-3436	13460	110	-90	-141	-15284	872	-5772	0	-2	-70	-2472	-3424	16076	52	-152	187	-8088	4348	12972	-119	146	-223	-15572	2292	-5360	79	-2	79	-2532	6728	15688	199	3	27	126	123	5
-9200	-3460	13452	122	-45	-166	-15300	864	-5656	1	-18	-24	-2400	-3512	16328	46	-157	160	-8120	4332	13120	-92	160	-231	-15628	2264	-5360	33	-1	68	-2548	6604	15692	183	20	35	126	124	5
-9132	-3480	13372	139	-43	-133	-15280	824	-5792	-2	-21	-36	-2484	-3508	16136	-6	-129	186	-8120	4304	13060	-130	160	-224	-15604	2128	-5404	65	39	123	-2548	6576	15644	173	14	21	126	124	5
-9240	-3476	13476	116	-25	-160	-15188	796	-5724	11	-10	-17	-2532	-3580	16248	44	-126	166	-8140	4312	13012	-116	171	-216	-15668	2172	-5412	93	11	69	-2596	6480	15604	179	-13	54	126	124	5
-9208	-3492	13488	106	-60	-152	-15164	804	-5956	19	-29	6	-2524	-3540	16120	7	-142	155	-8212	4260	13092	-97	186	-217	-15584	2156	-5496	52	9	120	-2620	6576	15620	169	7	36	126	123	5
-9236	-3472	13460	131	-26	-158	-15160	868	-5816	-20	-27	0	-2488	-3524	16188	22	-138	177	-8216	4300	13020	-84	197	-246	-15632	2124	-5464	44	-51	90	-2532	6548	15668	195	-4	28	126	123	5
-9216	-3436	13408	146	-87	-129	-15252	856	-5876	1	-15	-39	-2512	-3532	16196	51	-92	166	-8168	4328	12848	-59	172	-221	-15552	2156	-5328	82	-30	146	-2552	6632	15532	210	-15	33	126	124	5
-9192	-3460	13496	153	-46	-106	-15268	772	-5780	24	-46	19	-2472	-3576	16096	77	-137	166	-8148	4264	13092	-56	122	-181	-15620	2232	-5416	98	8	175	-2532	6640	15596	217	6	14	126	123	5
-9180	-3404	13460	137	-60	-172	-15340	848	-5744	28	-40	45	-2400	-3440	16148	48	-102	136	-8088	4288	13024	-34	130	-226	-15720	2236	-5288	98	-5	190	-2436	6600	15692	166	1	21	126	123	5
-9188	-3456	13380	153	-59	-132	-15308	776	-5648	1	46	68	-2448	-3424	16236	-2	-52	110	-8128	4356	13056	-30	177	-217	-15688	2204	-5408	126	37	160	-2484	6704	15748	265	-11	21	126	124	5
-9196	-3444	13452	132	-45	-139	-15236	788	-5736	75	26	48	-2544	-3556	16272	-89	-38	74	-8136	4312	13144	-11	194	-220	-15696	2340	-5452	45	72	164	-2596	6804	15604	200	81	35	126	124	5
-9136	-3488	13352	146	0	-162	-15196	912	-6032	63	19	67	-2796	-3676	16228	-30	-43	138	-8184	4364	13016	-63	149	-212	-15644	2392	-5524	4	57	134	-2756	6772	15572	258	83	71	126	123	5
-9328	-3452	13488	165	-51	-135	-14908	1004	-6164	38	-82	25	-2876	-3624	16076	102	-46	184	-8236	4344	13088	-97	166	-226	-15452	2336	-5528	-32	24	83	-2736	6732	15448	252	70	159	126	123	5
-9260	-3460	13364	164	-105	-148	-14972	980	-6024	-105	-144	-32	-2896	-3628	16116	115	-50	201	-8168	4332	13068	-138	130	-218	-15496	2200	-5592	30	-72	46	-2784	6560	15676	220	16	177	126	124	5
-9232	-3408	13472	164	-121	-154	-15096	940	-5808	-88	-182	-36	-2544	-3396	16052	320	-220	288	-8216	4300	13120	-84	134	-223	-15644	2004	-5488	-9	-119	103	-2672	6472	15756	206	-31	155	126	123	5
-9204	-3412	13472	152	-162	-148	-15256	908	-5696	-18	-201	-77	-2412	-3360	16280	333	-216	264	-8152	4260	13048	-75	129	-201	-15584	1956	-5404	39	-109	130	-2504	6316	15800	211	-53	126	126	123	5
-9100	-3440	13508	121	-140	-172	-15396	828	-5716	17	-157	-30	-2476	-3304	16292	214	-198	221	-8168	4256	13096	-69	171	-197	-15624	2100	-5512	19	-85	201	-2560	6368	15644	292	-78	3	126	124	5
-9164	-3412	13440	161	-70	-143	-15376	880	-5736	-19	-106	-45	-2444	-3276	16260	39	-185	200	-8140	4288	13032	-56	150	-174	-15640	2180	-5408	149	-64	235	-2464	6720	15664	253	-95	-24	126	123	5
-9128	-3488	13472	142	-52	-161	-15344	832	-5740	-47	-48	-44	-2364	-3292	16108	-47	-173	162	-8088	4376	13064	-31	182	-184	-15648	2376	-5244	133	-35	215	-2280	6928	15640	204	-77	-43	126	123	5
-9156	-3412	13428	145	-34	-128	-15336	892	-5548	-14	12	-47	-2196	-3300	16264	-75	-144	121	-8124	4324	12928	-72	149	-185	-15768	2440	-5164	170	39	161	-2260	7080	15496	211	-26	-22	126	123	5
-9136	-3372	13384	135	-69	-171	-15312	832	-5600	15	109	-19	-2328	-3412	16088	-39	-78	120	-8120	4388	13028	-78	194	-261	-15676	2440	-5272	100	105	109	-2352	7100	15508	212	92	7	126	123	5
-9200	-3480	13452	153	-45	-147	-15204	872	-5760	73	120	-7	-2628	-3520	16152	-49	-90	108	-8092	4404	12996	-75	197	-226	-15620	2540	-5468	10	89	13	-2720	7120	15508	191	114	48	126	123	5
-9204	-3464	13436	97	-9	-114	-15084	1008	-6164	42	54	-39	-2868	-3516	16192	-122	-123	147	-8192	4252	13120	-168	176	-305	-15516	2432	-5632	35	41	-38	-2872	7016	15452	80	96	43	126	124	5
-9224	-3428	13428	97	2	-158	-15072	1008	-6164	-82	-99	-83	-2844	-3504	16048	-13	-153	178	-8208	4332	12984	-176	112	-249	-15528	2340	-5712	67	-49	-94	-2912	6632	15604	-10	13	63	126	124	5
-9268	-3456	13460	142	-66	-231	-15020	1032	-6020	-53	-136	-55	-2760	-3316	15980	-37	-194	164	-8244	4292	13092	-139	66	-256	-15552	2124	-5668	75	-58	-65	-2672	6404	15736	-35	-12	94	126	123	5
-9184	-3392	13488	112	-148	-175	-15184	1004	-5816	-37	-134	-157	-2628	-3332	16268	48	-245	214	-8152	4244	13128	-120	109	-238	-15648	1976	-5380	90	-88	-11	-2592	6236	15896	-4	-39	58	126	124	5
-9164	-3356	13440	91	-145	-197	-15204	1020	-5648	-33	-132	-211	-2492	-3344	16216	56	-244	230	-8168	4260	13088	-107	117	-194	-15668	1956	-5384	92	-106	56	-2468	6248	15816	125	-48	16	126	123	5
-9140	-3440	13424	92	-66	-174	-15320	764	-5692	-87	-81	-200	-2344	-3440	16104	68	-224	298	-8156	4272	12964	-67	157	-242	-15752	2092	-5316	142	-71	131	-2456	6260	15752	190	-77	5	126	123	5
-9164	-3508	13444	84	-62	-189	-15320	696	-5580	-36	-49	-153	-2236	-3600	16264	6	-222	234	-8176	4344	13080	-82	165	-188	-15644	2044	-5324	71	2	178	-2396	6504	15752	294	-48	-52	126	123	5
-9248	-3480	13484	103	-9	-148	-15356	576	-5760	-1	26	-117	-2224	-3612	16032	-74	-154	190	-8108	4268	13012	-48	168	-216	-15644	2280	-5416	88	23	181	-2412	6624	15616	266	-60	1	126	123	5
-9156	-3440	13480	105	-54	-129	-15316	584	-5664	12	38	-2	-2232	-3768	16080	-68	-95	124	-8164	4352	13016	-58	173	-212	-15676	2260	-5376	130	79	210	-2436	6804	15504	243	-20	-3	126	123	5
-9168	-3488	13432	132	-47	-114	-15164	692	-5816	14	46	15	-2464	-3704	16092	-20	-70	147	-8176	4328	12996	-58	175	-202	-15584	2328	-5424	60	83	111	-2584	6892	15584	273	50	-22	126	123	5
-9212	-3480	13516	207	-29	-92	-15092	816	-5960	9	-9	62	-2696	-3708	16064	14	-89	169	-8232	4304	13052	-56	171	-244	-15556	2412	-5728	85	19	133	-2776	6836	15548	221	11	41	126	124	5
-9264	-3432	13468	166	-56	-128	-15044	904	-6032	30	-83	80	-2796	-3608	16136	111	-114	136	-8160	4324	13012	-65	144	-223	-15540	2280	-5656	49	-24	41	-2780	6632	15428	126	17	86	126	123	5
-9220	-3460	13548	184	-112	-127	-15148	972	-6000	-8	-125	37	-2716	-3336	16184	145	-147	179	-8148	4268	13032	-119	119	-206	-15544	2156	-5560	85	-94	86	-2724	6544	15692	156	3	72	126	124	5
-9192	-3420	13476	152	-119	-138	-15144	1052	-5752	-42	-158	-8	-2520	-3200	16212	145	-156	170	-8184	4256	12992	-68	67	-223	-15672	2060	-5336	111	-57	107	-2508	6372	15652	148	-83	86	126	124	5
-9136	-3400	13452	118	-93	-125	-15248	1028	-5632	-15	-135	-54	-2504	-3092	16272	99	-201	186	-8148	4280	13088	-64	155	-177	-15680	2024	-5292	73	-38	143	-2396	6516	15720	190	-82	19	126	123	5
-9148	-3404	13460	85	-61	-184	-15404	1020	-5564	-25	-45	-100	-2376	-3264	16260	51	-130	193	-8160	4292	13088	-57	197	-216	-15632	2132	-5304	110	-27	189	-2396	6604	15752	252	-34	-28	126	123	5
-9204	-3420	13420	89	-63	-197	-15240	852	-5668	-17	15	-118	-2436	-3404	16228	-6	-124	216	-8136	4272	13092	-92	189	-243	-15692	2128	-5364	118	8	211	-2424	6736	15772	251	-16	-24	126	124	5
-9172	-3456	13440	73	-26	-185	-15224	748	-5916	-13	11	-87	-2504	-3568	16144	-100	-112	213	-8112	4368	12968	-120	204	-191	-15624	2356	-5432	85	44	168	-2592	6808	15608	264	-14	4	126	124	5
-9196	-3488	13432	107	-76	-136	-15232	752	-5872	-25	11	-36	-2540	-3700	16180	-68	-108	169	-8120	4392	12932	-102	180	-267	-15572	2328	-5404	32	29	148	-2584	6832	15412	184	-55	34	126	123	5
-9188	-3392	13400	135	-27	-177	-15128	780	-5836	10	12	-45	-2552	-3728	16124	-24	-111	180	-8180	4348	12964	-117	195	-231	-15588	2272	-5448	56	-3	74	-2708	6768	15484	173	47	60	126	124	5
-9208	-3464	13408	163	-53	-156	-15236	872	-5912	-33	-76	16	-2488	-3632	16168	96	-102	152	-8148	4372	13016	-79	178	-216	-15584	2264	-5492	106	-13	64	-2624	6636	15460	138	1	31	126	123	5
-9244	-3404	13424	138	-87	-126	-15212	860	-5860	-22	-30	-6	-2556	-3536	16048	135	-136	160	-8164	4340	13032	-112	126	-261	-15628	2204	-5480	31	-11	77	-2700	6608	15720	145	2	63	126	124	5
-9160	-3476	13464	181	-59	-77	-15200	880	-5944	2	-57	-8	-2592	-3492	16192	63	-137	183	-8192	4324	13096	-93	132	-198	-15588	2108	-5420	47	-21	86	-2692	6468	15740	128	-41	52	126	123	5
-9268	-3488	13400	132	-51	-162	-15288	1000	-5804	20	-69	-6	-2608	-3400	16196	49	-201	180	-8236	4280	13060	-95	111	-208	-15608	2088	-5400	54	-64	121	-2528	6424	15696	133	-86	34	126	123	5
-9160	-3388	13476	159	-101	-123	-15260	988	-5744	-9	-73	-20	-2516	-3344	16220	52	-177	175	-8196	4296	12936	-38	123	-196	-15636	2140	-5372	74	-83	190	-2552	6500	15744	191	-62	22	126	124	5
-9208	-3472	13388	126	-95	-143	-15132	936	-5812	-3	-52	-23	-2516	-3436	16044	30	-163	188	-8236	4260	13100	-51	119	-212	-15556	2188	-5384	118	-70	176	-2560	6580	15508	257	-95	10	126	124	5
-9132	-3440	13444	140	-88	-153	-15168	876	-5744	-1	-74	-27	-2500	-3508	16104	38	-168	200	-8172	4288	13152	-76	121	-170	-15692	2216	-5368	149	-58	198	-2552	6664	15584	243	-62	-8	126	123	5
-9172	-3472	13396	133	-107	-147	-15272	836	-5644	1	-53	-50	-2504	-3564	16240	38	-155	191	-8172	4332	13060	-34	112	-179	-15608	2232	-5352	98	-56	184	-2476	6704	15660	220	-47	2	126	124	5
-9228	-3452	13392	136	-91	-153	-15280	772	-5600	-16	-50	-49	-2404	-3588	16172	92	-143	193	-8212	4288	13040	-116	143	-204	-15628	2268	-5292	98	-12	158	-2424	6732	15536	183	-35	31	126	123	5
-9168	-3388	13464	139	-50	-175	-15220	792	-5748	-33	-32	-17	-2404	-3568	16212	110	-113	181	-8112	4348	13116	-59	150	-200	-15624	2300	-5224	42	3	107	-2432	6756	15696	213	3	27	126	123	5
-9232	-3464	13452	166	-42	-137	-15200	820	-5752	0	-32	-8	-2452	-3508	16216	52	-101	170	-8184	4320	13044	-81	142	-190	-15632	2276	-5400	66	43	140	-2524	6736	15576	197	34	9	126	123	5
-9232	-3376	13424	124	-86	-134	-15220	868	-5832	-12	-40	19	-2468	-3464	16128	50	-63	205	-8168	4304	13132	-155	174	-213	-15616	2252	-5480	60	32	122	-2544	6688	15552	256	83	57	126	123	5
-9140	-3444	13480	165	-74	-160	-15136	900	-5736	-24	9	55	-2576	-3424	16204	56	-117	172	-8172	4312	13100	-55	161	-218	-15592	2236	-5400	72	44	99	-2600	6648	15552	240	24	33	126	124	5
-9196	-3436	13424	160	-80	-139	-15200	808	-5752	-1	-12	13	-2536	-3444	16160	55	-97	170	-8172	4352	13052	-50	161	-219	-15620	2188	-5472	64	56	101	-2624	6640	15628	212	35	25	126	124	5
-9228	-3388	13484	162	-103	-113	-15196	912	-5804	4	-7	-15	-2552	-3408	16188	23	-133	162	-8192	4336	13100	-95	147	-280	-15588	2248	-5476	166	28	113	-2620	6640	15596	170	10	25	126	123	5
-9192	-3488	13496	152	-32	-162	-15188	912	-5840	15	24	5	-2604	-3400	16188	29	-117	131	-8248	4332	13000	-101	142	-194	-15676	2264	-5436	118	22	129	-2612	6708	15620	164	-48	-10	126	123	5
-9172	-3444	13440	144	-65	-167	-15236	968	-5788	22	-13	12	-2576	-3312	16232	-35	-129	130	-8232	4276	13024	-73	148	-208	-15636	2204	-5344	113	-14	131	-2548	6716	15584	150	-46	-14	126	123	5
-9184	-3412	13416	129	-69	-144	-15140	924	-5848	27	-27	-39	-2588	-3380	16220	-49	-157	138	-8140	4332	13060	-103	138	-240	-15612	2272	-5576	107	-16	92	-2600	6676	15620	186	-84	16	126	123	5
-9140	-3504	13484	117	2	-163	-15188	952	-5732	-3	-38	-72	-2596	-3484	16168	-12	-161	160	-8168	4276	12996	-95	170	-230	-15640	2232	-5388	74	15	95	-2628	6632	15616	168	-35	19	126	123	5
-9240	-3456	13548	98	-79	-149	-15148	852	-5852	-25	-7	-110	-2564	-3520	16136	31	-193	141	-8144	4332	13028	-114	163	-222	-15588	2212	-5468	103	-52	103	-2584	6712	15684	161	-2	46	126	124	5
-9156	-3404	13532	152	-36	-178	-15128	876	-5908	-22	-24	-91	-2540	-3624	16116	27	-161	173	-8192	4332	13036	-99	131	-221	-15564	2156	-5620	112	-5	48	-2536	6560	15644	169	-50	53	126	123	5
-9220	-3500	13472	148	-111	-141	-15216	884	-5812	-22	-19	-59	-2528	-3552	16164	73	-151	183	-8164	4360	13036	-80	101	-248	-15664	2164	-5404	78	-41	71	-2568	6580	15784	178	-28	41	126	123	5
-9144	-3504	13420	143	-63	-153	-15168	848	-5728	-18	-50	-45	-2476	-3592	16184	41	-148	215	-8100	4384	13072	-74	158	-219	-15640	2176	-5532	26	-53	115	-2528	6488	15644	181	5	35	126	123	5
-9180	-3412	13492	130	-99	-118	-15160	856	-5800	-37	-34	-40	-2520	-3548	16224	37	-118	168	-8160	4360	13060	-112	125	-220	-15584	2104	-5368	109	0	129	-2528	6524	15688	166	-22	27	126	124	5
-9160	-3504	13592	117	-47	-129	-15204	820	-5748	-20	-76	-60	-2468	-3536	16148	60	-129	166	-8104	4348	12972	-85	159	-209	-15636	2080	-5416	90	-33	101	-2540	6536	15696	220	12	42	126	123	5
-9212	-3492	13504	155	-107	-150	-15160	792	-5864	-23	-21	-21	-2488	-3500	16124	57	-136	180	-8156	4344	13004	-48	136	-244	-15600	2108	-5416	85	56	188	-2512	6572	15676	264	18	24	126	124	5
-9208	-3424	13464	137	-109	-145	-15208	840	-5784	-12	-57	32	-2472	-3520	16244	58	-126	170	-8192	4276	13104	-81	150	-195	-15588	2184	-5328	116	-32	154	-2584	6640	15668	258	-3	22	126	124	5
-9228	-3436	13412	159	-82	-153	-15236	840	-5812	6	-21	8	-2420	-3480	16116	46	-78	155	-8164	4292	13144	-78	153	-197	-15656	2264	-5324	89	6	197	-2616	6684	15604	250	10	37	126	124	5
-9148	-3476	13448	120	-34	-141	-15256	844	-5764	-32	-52	1	-2512	-3548	16056	34	-72	128	-8252	4288	13068	-80	148	-198	-15552	2244	-5408	78	-4	144	-2588	6724	15648	219	-42	10	126	124	5
-9204	-3432	13408	144	-86	-126	-15156	800	-5916	32	-26	39	-2528	-3464	16124	-4	-94	166	-8212	4284	12972	-58	125	-229	-15632	2268	-5320	72	-9	142	-2588	6700	15652	215	28	-5	126	124	5
-9240	-3436	13488	126	-74	-150	-15208	920	-5820	9	-41	37	-2560	-3444	16168	24	-112	172	-8168	4340	13028	-72	154	-198	-15620	2268	-5436	73	18	117	-2684	6728	15644	217	-5	29	126	123	5
-9204	-3460	13456	140	-60	-155	-15220	932	-5820	26	-68	-9	-2652	-3468	16148	66	-145	192	-8156	4364	12964	-28	142	-173	-15628	2252	-5356	54	-26	127	-2596	6716	15500	201	-17	75	126	123	5
-9264	-3396	13380	156	-70	-150	-15096	1028	-5972	14	-58	-29	-2604	-3460	16188	71	-169	183	-8160	4332	13032	-99	149	-246	-15584	2176	-5632	63	-42	141	-2584	6640	15520	206	6	85	126	124	5
-9220	-3444	13516	161	-77	-186	-15092	1032	-5788	-37	-88	-74	-2532	-3364	16152	161	-214	228	-8164	4352	13016	-104	184	-221	-15544	2268	-5536	33	7	116	-2600	6604	15636	242	-27	92	126	123	5
-9168	-3464	13492	114	-93	-176	-15228	956	-5852	-50	-76	-121	-2508	-3420	16160	130	-178	209	-8120	4288	13080	-124	148	-221	-15668	2132	-5448	-25	-5	103	-2588	6692	15732	224	-8	69	126	124	5
-9172	-3424	13424	93	-71	-163	-15284	792	-5708	-24	-70	-90	-2460	-3500	16336	60	-176	202	-8200	4288	12988	-108	152	-215	-15616	2104	-5464	59	-57	127	-2524	6608	15620	206	-28	23	126	123	5
-9176	-3460	13412	105	-64	-155	-15164	816	-5772	12	-16	-82	-2460	-3460	16108	-14	-188	160	-8168	4272	13064	-113	164	-214	-15588	2112	-5316	123	-61	137	-2524	6632	15564	171	-66	-11	126	124	5
-9156	-3468	13452	132	-70	-138	-15184	796	-5692	-4	-22	-55	-2484	-3520	16232	-10	-166	131	-8184	4376	13084	-54	168	-241	-15640	2232	-5428	121	-70	139	-2536	6724	15592	159	-99	10	126	124	5
-9180	-3432	13492	131	-78	-160	-15280	864	-5676	10	-35	-7	-2512	-3556	16132	-16	-138	117	-8148	4348	13132	-82	158	-208	-15596	2276	-5536	108	-37	146	-2584	6708	15644	174	-65	-7	126	123	5
-9172	-3428	13440	154	-37	-164	-15164	976	-5880	42	-39	-47	-2516	-3516	16172	16	-144	135	-8204	4372	13000	-59	113	-218	-15552	2276	-5484	117	-26	118	-2552	6772	15536	154	-46	24	126	123	5
-9220	-3380	13480	108	-87	-136	-15116	932	-5792	-12	-39	-70	-2532	-3412	16244	-2	-203	154	-8188	4340	13044	-63	129	-191	-15604	2236	-5452	117	-10	77	-2560	6716	15560	126	-38	26	126	124	5
-9264	-3400	13352	138	-118	-173	-15120	1000	-5856	-7	-51	-71	-2512	-3320	16212	34	-176	173	-8188	4336	13052	-107	127	-226	-15624	2240	-5448	87	-41	88	-2496	6696	15652	152	-15	54	126	124	5
-9204	-3480	13480	141	-104	-173	-15160	928	-5716	-49	-53	-72	-2396	-3428	16188	61	-149	216	-8192	4336	13084	-99	134	-236	-15604	2252	-5304	29	-7	72	-2480	6640	15628	176	51	50	126	123	5
-9184	-3412	13396	125	-111	-169	-15208	860	-5788	-37	-36	-76	-2312	-3448	16212	71	-105	212	-8156	4316	13064	-103	119	-207	-15608	2204	-5284	58	28	65	-2368	6556	15688	188	56	57	126	123	5
-9204	-3460	13400	85	-41	-160	-15252	804	-5664	-44	-17	-60	-2332	-3508	16156	21	-75	215	-8104	4344	13116	-59	157	-231	-15700	2120	-5332	77	77	104	-2400	6528	15576	225	117	23	126	123	5
-9132	-3440	13492	110	-93	-155	-15212	776	-5736	-36	-2	-6	-2360	-3652	16236	-11	-38	204	-8156	4384	13000	-70	175	-217	-15728	2184	-5296	67	59	118	-2452	6556	15728	279	111	2	126	123	5
-9160	-3440	13536	140	-44	-121	-15264	752	-5820	10	26	-12	-2372	-3592	16092	-23	-22	182	-8140	4284	13136	-90	181	-207	-15628	2168	-5476	44	108	107	-2504	6640	15648	292	118	27	126	123	5
-9176	-3488	13460	135	2	-155	-15264	788	-5660	-2	68	33	-2472	-3700	16060	37	-2	169	-8160	4264	12984	-113	204	-243	-15564	2188	-5504	24	108	113	-2656	6652	15584	237	89	26	126	123	5
-9192	-3432	13488	148	-34	-115	-15256	812	-5852	-8	18	67	-2608	-3644	15996	36	-26	143	-8120	4368	13108	-74	188	-222	-15652	2240	-5544	58	91	141	-2708	6568	15624	233	88	24	126	123	5
-9224	-3420	13392	174	-82	-134	-15216	960	-5964	21	5	40	-2600	-3608	16068	39	-39	147	-8160	4272	13048	-100	162	-266	-15644	2196	-5508	75	74	97	-2776	6632	15584	175	41	3	126	124	5
-9164	-3452	13396	173	-66	-156	-15152	932	-5940	-13	-13	-4	-2716	-3472	16228	16	-92	105	-8204	4296	13020	-104	166	-227	-15608	2192	-5600	52	-2	111	-2800	6664	15548	171	16	24	126	123	5
-9244	-3396	13464	168	-30	-139	-15244	992	-6044	51	-55	52	-2804	-3352	16228	51	-168	127	-8224	4380	13076	-136	125	-231	-15596	2276	-5536	94	-25	120	-2780	6644	15712	205	-28	66	126	123	5
-9280	-3400	13500	123	-143	-134	-15164	1044	-5884	-6	-71	-22	-2772	-3324	16200	-3	-168	157	-8192	4312	13172	-110	141	-234	-15584	2176	-5524	98	-41	114	-2720	6620	15560	185	-63	62	126	123	5
-9200	-3396	13448	131	-95	-145	-15144	1056	-5892	-3	-106	-60	-2768	-3328	16104	6	-211	154	-8188	4316	13112	-91	119	-230	-15572	2236	-5628	89	-108	112	-2688	6584	15564	112	-129	48	126	124	5
-9204	-3448	13324	104	-57	-183	-15148	956	-5892	-32	-112	-133	-2712	-3376	16144	34	-260	148	-8136	4268	13160	-96	81	-240	-15572	2180	-5472	60	-115	152	-2824	6660	15596	170	-153	61	126	124	5
-9200	-3448	13524	124	-83	-186	-15100	1004	-5956	-25	-142	-156	-2660	-3484	16080	71	-310	194	-8156	4320	13124	-104	122	-219	-15624	2212	-5388	38	-144	89	-2716	6624	15504	138	-129	90	126	124	5
-9240	-3480	13396	114	-67	-180	-15164	932	-5944	-79	-211	-148	-2580	-3552	16164	52	-270	228	-8176	4252	13076	-95	128	-224	-15572	2144	-5456	14	-150	93	-2532	6536	15692	166	-164	94	126	123	5
-9180	-3384	13440	124	-115	-204	-15180	872	-5880	-66	-201	-172	-2380	-3580	16088	116	-256	221	-8184	4280	13084	-107	89	-206	-15652	2092	-5500	72	-112	132	-2460	6584	15712	204	-77	98	126	124	5
-9216	-3480	13364	88	-111	-162	-15220	828	-5812	-59	-187	-162	-2332	-3620	16176	150	-286	257	-8116	4256	13120	-114	147	-181	-15648	2128	-5476	65	-88	142	-2424	6600	15712	189	-107	94	126	124	5
-9140	-3516	13552	139	-120	-149	-15232	736	-5748	-60	-160	-102	-2184	-3612	16104	114	-226	266	-8136	4292	12952	-105	113	-182	-15636	2060	-5288	64	-91	196	-2376	6552	15768	259	-77	67	126	124	5
-9156	-3460	13548	148	-161	-178	-15252	776	-5664	-60	-95	-59	-2208	-3588	16160	127	-175	255	-8164	4368	13012	-87	126	-192	-15664	2112	-5216	110	-57	182	-2192	6620	15660	249	-19	37	126	123	5
-9208	-3464	13516	158	-64	-116	-15372	708	-5600	-36	-86	3	-2164	-3496	16252	80	-81	198	-8128	4312	13024	-81	145	-194	-15680	2236	-5232	82	20	180	-2276	6672	15688	267	21	17	126	124	5
