#Activity	sitting 
#ActivityID	5 
#Date 09-24-15-53
acc_rf_x	acc_rf_y	acc_rf_z	gyro_rf_x	gyro_rf_y	gyro_rf_z	acc_rs_x	acc_rs_y	acc_rs_z	gyro_rs_x	gyro_rs_y	gyro_rs_z	acc_rt_x	acc_rt_y	acc_rt_z	gyro_rt_x	gyro_rt_y	gyro_rt_z	acc_lf_x	acc_lf_y	acc_lf_z	gyro_lf_x	gyro_lf_y	gyro_lf_z	acc_ls_x	acc_ls_y	acc_ls_z	gyro_ls_x	gyro_ls_y	gyro_ls_z	acc_lt_x	acc_lt_y	acc_lt_z	gyro_lt_x	gyro_lt_y	gyro_lt_z	EMG_r	EMG_l	act
-7820	-2612	13672	-93	176	-199	-16112	-972	-3912	70	-37	110	-3560	-1816	16504	177	-27	51	-8428	3280	14056	76	-42	-174	-14644	4408	-5728	-21	-13	-80	-3016	2772	16556	21	-112	199	127	127	5
-7812	-2544	13660	-118	157	-182	-16112	-944	-4040	77	-24	115	-3548	-1872	16580	177	-23	61	-8440	3320	14192	92	-40	-173	-14692	4308	-5812	-9	-56	-87	-3008	2776	16476	3	-111	196	127	127	5
-7868	-2652	13664	-127	146	-215	-16072	-920	-3948	81	-44	70	-3548	-1868	16584	159	11	76	-8408	3296	14164	81	-29	-153	-14620	4308	-5660	-48	5	-62	-3004	2644	16512	6	-122	225	127	127	5
-7812	-2532	13768	-116	178	-190	-16080	-1012	-4096	92	-18	103	-3608	-1964	16644	146	-15	54	-8448	3260	13980	76	-55	-164	-14724	4344	-5712	-31	-35	-67	-2996	2692	16504	-13	-133	202	127	127	5
-7816	-2608	13672	-106	141	-206	-16060	-964	-4064	99	-24	117	-3552	-1920	16628	160	-14	65	-8472	3288	14112	82	-68	-182	-14696	4356	-5816	-5	-7	-47	-3048	2660	16552	-7	-153	204	127	127	5
-7804	-2632	13780	-87	146	-210	-16140	-1052	-4020	51	-59	90	-3576	-1988	16480	163	-54	39	-8420	3320	14196	78	-46	-189	-14760	4300	-5724	-18	-54	-32	-3072	2620	16584	20	-127	213	127	127	5
-7852	-2588	13696	-89	153	-203	-16128	-992	-3940	63	9	90	-3584	-2012	16572	151	10	55	-8384	3260	14088	114	-50	-147	-14712	4276	-5692	-1	-22	-70	-3024	2712	16540	17	-97	191	127	127	5
-7840	-2664	13652	-123	150	-194	-16104	-996	-3992	83	-22	122	-3592	-1980	16640	172	-15	58	-8428	3308	14056	120	-79	-169	-14748	4272	-5788	3	-39	-28	-2992	2636	16548	-11	-125	164	127	127	5
-7828	-2584	13624	-90	126	-216	-16068	-1036	-4020	91	-48	105	-3604	-1964	16532	173	-10	47	-8484	3284	14028	154	-48	-146	-14696	4288	-5760	-26	-49	-51	-2984	2692	16496	11	-111	200	127	127	5
-7804	-2592	13652	-91	104	-167	-16056	-1052	-3880	104	-21	91	-3568	-1924	16568	174	-27	43	-8444	3284	14100	125	-92	-166	-14752	4260	-5836	-2	13	-41	-3008	2684	16404	14	-118	161	127	127	5
-7856	-2596	13724	-109	128	-199	-16120	-996	-3960	70	-30	132	-3612	-1916	16588	187	0	31	-8404	3304	14036	168	-104	-145	-14696	4376	-5760	-15	-45	25	-3044	2712	16476	43	-118	168	127	127	5
-7856	-2596	13716	-121	119	-199	-16052	-964	-3976	62	-16	102	-3600	-1852	16676	191	14	48	-8448	3264	14124	153	-28	-146	-14692	4352	-5776	17	-14	-72	-3080	2720	16652	61	-107	166	127	127	5
-7804	-2584	13656	-91	97	-232	-16132	-952	-3980	51	-26	150	-3640	-2024	16568	198	-4	42	-8420	3284	14064	149	-68	-163	-14656	4320	-5744	-3	-79	-29	-3088	2752	16504	17	-104	222	127	127	5
-7920	-2568	13668	-92	133	-220	-16084	-964	-4012	34	-24	115	-3616	-1964	16336	180	13	47	-8448	3292	14084	158	-98	-142	-14684	4432	-5756	5	-21	-28	-3008	2716	16588	34	-137	208	127	127	5
-7800	-2588	13564	-69	123	-168	-16088	-972	-3956	74	-21	133	-3608	-1948	16684	147	1	27	-8428	3316	13968	113	-82	-179	-14728	4364	-5728	-2	-38	-49	-3052	2796	16452	22	-116	204	127	127	5
-7860	-2604	13604	-22	141	-171	-16136	-980	-4092	77	-51	150	-3644	-1912	16616	169	-15	57	-8456	3228	13996	108	-79	-212	-14712	4428	-5668	14	-61	-28	-3056	2772	16600	5	-130	232	127	127	5
-7832	-2652	13792	-67	128	-208	-16136	-884	-3956	101	-21	131	-3640	-1908	16544	172	-31	48	-8440	3332	14064	109	-69	-161	-14740	4432	-5720	26	-58	-49	-3032	2756	16536	40	-134	201	127	127	5
-7896	-2576	13668	-78	141	-208	-16124	-964	-4080	97	-31	149	-3580	-1820	16580	158	-12	36	-8408	3332	14084	91	-48	-180	-14772	4352	-5612	-40	-59	-67	-3024	2708	16528	7	-113	221	127	127	5
-7868	-2596	13660	-53	168	-211	-16172	-980	-3976	74	-2	101	-3580	-1876	16544	151	-12	67	-8392	3268	13936	112	-41	-144	-14700	4352	-5760	27	-18	-70	-2948	2740	16428	27	-158	176	127	127	5
-7860	-2520	13716	-71	153	-210	-16076	-992	-3924	43	4	114	-3588	-1964	16524	142	-43	50	-8416	3304	14060	114	8	-148	-14652	4244	-5744	-14	-39	-63	-2996	2736	16560	17	-114	180	127	127	5
-7876	-2552	13628	-96	186	-233	-16104	-960	-4048	80	-26	130	-3600	-1948	16548	120	-30	70	-8468	3280	14072	122	-36	-145	-14736	4376	-5752	12	-12	-73	-3040	2652	16552	-5	-135	206	127	127	5
-7844	-2584	13660	-107	172	-223	-16100	-996	-3976	100	-33	100	-3596	-2000	16572	169	-11	54	-8496	3268	14184	135	-34	-177	-14732	4260	-5756	-44	-17	-16	-2956	2696	16556	18	-122	202	127	127	5
-7904	-2624	13640	-130	167	-228	-16124	-1000	-3996	75	11	98	-3600	-1940	16612	164	15	66	-8448	3288	14084	121	-54	-199	-14736	4400	-5748	-16	-37	-59	-3060	2720	16500	26	-135	223	127	127	5
-7892	-2616	13652	-81	182	-177	-16104	-980	-3948	72	-1	95	-3580	-1952	16540	175	-43	76	-8432	3252	14124	124	-93	-159	-14668	4360	-5696	-2	-43	-82	-3044	2608	16556	25	-145	213	127	127	5
-7844	-2572	13616	-106	124	-171	-16152	-1008	-4060	45	-14	129	-3584	-2056	16644	168	-14	59	-8432	3240	14236	133	-63	-156	-14644	4380	-5824	13	-39	-75	-2992	2712	16472	6	-150	206	127	127	5
-7876	-2636	13668	-73	169	-192	-16176	-1060	-3876	44	-5	114	-3620	-1956	16576	189	9	72	-8436	3300	14080	153	-22	-160	-14704	4228	-5700	-18	-39	-42	-3072	2756	16580	32	-120	193	127	127	5
-7868	-2632	13656	-68	159	-217	-16172	-1012	-3940	81	-22	144	-3660	-1968	16620	165	3	37	-8436	3312	14100	109	-10	-191	-14700	4356	-5792	11	-38	-36	-3100	2672	16580	50	-129	192	127	127	5
-7848	-2676	13612	-37	154	-200	-16140	-920	-3968	87	-9	138	-3612	-1940	16640	194	-26	39	-8424	3244	14072	157	-5	-177	-14688	4384	-5768	-12	14	-45	-3008	2716	16552	5	-132	203	127	127	5
-7908	-2588	13652	-37	97	-157	-16104	-940	-4128	101	-5	140	-3640	-1944	16548	165	-27	19	-8420	3304	14152	142	-66	-161	-14680	4344	-5736	7	-26	-49	-3012	2744	16592	11	-123	224	127	127	5
-7852	-2588	13716	-97	153	-194	-16060	-932	-4092	84	-8	156	-3540	-1816	16528	187	-14	53	-8416	3364	14204	121	-54	-157	-14608	4352	-5856	10	-69	-54	-3076	2704	16628	15	-134	195	127	127	5
-7892	-2580	13712	-140	139	-179	-16104	-948	-4152	48	-13	114	-3564	-1896	16600	188	-27	46	-8460	3252	14044	102	-51	-157	-14708	4356	-5704	-13	-33	-55	-3036	2720	16596	52	-107	206	127	127	5
-7892	-2552	13696	-103	133	-197	-16084	-920	-3944	69	-47	113	-3604	-1900	16652	203	14	27	-8412	3284	14136	128	-49	-172	-14668	4368	-5880	29	-20	-72	-3012	2696	16596	38	-114	191	127	127	5
-7788	-2640	13592	-84	147	-194	-16116	-996	-3948	74	-26	128	-3588	-1880	16604	175	-26	59	-8412	3308	14048	162	-43	-161	-14672	4360	-5684	-6	-51	-68	-3004	2732	16572	-18	-130	216	127	127	5
-7824	-2588	13608	-91	162	-180	-16084	-912	-4024	76	-10	146	-3616	-1908	16660	146	-13	63	-8460	3284	14136	108	-32	-179	-14684	4328	-5728	16	-58	-32	-3016	2716	16544	34	-136	168	127	127	5
-7836	-2600	13620	-120	159	-201	-16064	-992	-3996	52	-27	114	-3560	-1896	16572	176	-1	70	-8476	3256	14132	122	-47	-177	-14680	4392	-5680	-26	-32	-87	-3004	2776	16508	43	-109	218	127	127	5
-7828	-2608	13624	-98	185	-200	-16144	-996	-3924	70	-14	145	-3556	-1948	16668	146	-24	54	-8368	3320	14024	134	-6	-172	-14660	4388	-5700	10	6	-66	-3032	2804	16568	34	-120	174	127	127	5
-7824	-2592	13684	-90	156	-225	-16144	-1004	-3948	76	-7	123	-3580	-1996	16540	166	-30	45	-8400	3244	14076	117	-52	-166	-14684	4344	-5772	-7	-10	-51	-3028	2804	16532	20	-103	194	127	127	5
-7868	-2532	13712	-85	140	-190	-16100	-1028	-3964	57	-48	118	-3608	-1976	16568	181	-12	54	-8456	3288	14100	109	-47	-221	-14728	4364	-5688	-24	-33	-68	-3008	2740	16460	33	-109	221	127	127	5
-7840	-2632	13552	-93	155	-179	-16104	-972	-4040	45	-2	119	-3616	-1908	16620	184	-34	64	-8428	3284	14040	96	-34	-172	-14720	4348	-5852	-1	-42	-57	-2988	2736	16604	18	-128	236	127	127	5
-7880	-2600	13688	-39	159	-205	-16116	-960	-4020	110	-50	100	-3640	-2012	16464	188	11	31	-8428	3244	14016	138	-105	-186	-14740	4300	-5676	-30	-26	-84	-3032	2692	16556	-29	-83	212	127	127	5
-7832	-2576	13632	-95	176	-178	-16168	-1004	-3908	104	-23	149	-3640	-1900	16588	168	1	36	-8468	3340	14044	135	-69	-167	-14672	4384	-5724	-19	-31	-65	-3084	2700	16540	10	-108	247	127	127	5
-7856	-2684	13644	-77	127	-187	-16140	-924	-3976	99	39	106	-3648	-1884	16644	135	-23	31	-8444	3288	14148	106	-42	-176	-14696	4308	-5624	1	-60	-35	-3036	2636	16560	26	-143	198	127	127	5
-7812	-2624	13560	-106	171	-219	-16160	-948	-3972	67	-16	143	-3592	-1924	16464	113	-15	50	-8508	3240	14000	125	-63	-187	-14736	4288	-5684	22	-74	-63	-3060	2672	16564	12	-98	180	127	127	5
-7860	-2564	13660	-106	172	-230	-16168	-992	-3996	116	-28	102	-3624	-1916	16636	110	-5	37	-8396	3260	14120	123	-46	-172	-14720	4312	-5776	18	-47	-64	-2988	2704	16448	-23	-126	182	127	126	5
-7900	-2664	13764	-107	128	-205	-16068	-932	-3992	100	-19	127	-3592	-1992	16512	167	-1	54	-8420	3268	14196	147	-8	-170	-14720	4364	-5704	11	-19	-55	-3036	2648	16528	27	-126	180	127	127	5
-7832	-2560	13700	-127	131	-217	-16088	-944	-4000	66	-38	106	-3620	-1964	16544	168	-30	49	-8396	3260	14040	155	-19	-209	-14736	4328	-5808	-7	-56	-38	-3044	2628	16568	41	-137	211	127	127	5
-7840	-2616	13664	-97	121	-226	-16156	-1008	-3964	39	-38	112	-3540	-2020	16500	195	-38	86	-8488	3272	14032	145	-71	-142	-14668	4352	-5824	-26	-1	-43	-3036	2684	16552	82	-106	225	127	127	5
-7872	-2616	13688	-105	111	-220	-16144	-1056	-3980	50	-22	146	-3684	-1988	16488	223	20	64	-8364	3268	14184	148	-24	-198	-14692	4320	-5708	-25	-8	-30	-3100	2668	16540	55	-117	187	127	127	5
-7880	-2652	13676	-115	119	-177	-16132	-1012	-3980	124	-59	153	-3660	-2000	16472	229	2	65	-8456	3308	14048	159	-94	-177	-14692	4368	-5756	23	-38	-52	-3140	2640	16452	84	-112	201	127	127	5
-7816	-2660	13668	-62	149	-221	-16120	-1036	-4052	102	-25	147	-3608	-1952	16684	227	-24	35	-8464	3276	14208	169	-23	-135	-14656	4332	-5724	4	-44	-56	-2964	2740	16556	28	-141	183	127	127	5
-7900	-2624	13668	-39	132	-168	-16104	-984	-3912	89	-25	150	-3540	-1952	16628	202	-10	28	-8512	3224	14056	192	-47	-136	-14668	4336	-5792	40	-54	-13	-3036	2792	16508	0	-125	180	127	127	5
-7812	-2620	13688	-27	121	-199	-16176	-960	-4056	103	-14	179	-3552	-1872	16544	174	-18	1	-8476	3308	14064	150	-38	-137	-14684	4400	-5724	33	-15	-26	-3000	2772	16424	34	-106	184	127	127	5
-7868	-2620	13684	-32	155	-201	-16108	-900	-4064	97	-27	169	-3552	-1896	16652	206	-15	-19	-8420	3324	14124	153	-50	-140	-14696	4432	-5756	-5	-37	-35	-3036	2788	16576	31	-118	175	127	127	5
-7888	-2608	13628	-23	130	-178	-16068	-920	-3944	108	-7	118	-3588	-1760	16608	169	4	35	-8460	3320	14004	133	-20	-162	-14684	4380	-5692	-10	-31	-80	-3024	2780	16476	5	-91	175	127	126	5
-7876	-2528	13612	-59	140	-209	-16080	-896	-4008	72	-8	165	-3576	-1828	16524	163	17	31	-8432	3348	14124	97	-83	-169	-14628	4368	-5644	28	-77	-40	-3036	2816	16476	5	-119	160	127	127	5
-7880	-2572	13604	-69	163	-181	-16136	-916	-4100	120	-36	86	-3628	-1840	16532	149	-18	32	-8416	3348	14092	91	-34	-191	-14708	4408	-5716	44	-25	-82	-2956	2800	16496	-18	-115	219	127	127	5
-7900	-2516	13720	-123	149	-221	-16152	-868	-4080	92	-26	107	-3604	-1808	16628	136	-32	44	-8456	3320	14044	95	-44	-193	-14604	4416	-5752	-22	-3	-91	-2976	2840	16528	-11	-126	221	127	127	5
-7840	-2552	13692	-123	161	-207	-16124	-900	-3936	35	-56	112	-3536	-1888	16616	174	-7	77	-8464	3340	14068	94	-105	-160	-14708	4348	-5616	-22	-7	-125	-2992	2784	16496	-8	-112	227	127	127	5
-7820	-2616	13604	-144	195	-210	-16076	-884	-4036	18	-61	87	-3584	-1944	16568	135	17	96	-8436	3288	14156	69	-37	-202	-14732	4368	-5768	-72	3	-60	-3100	2724	16516	-13	-122	204	127	127	5
-7824	-2620	13608	-146	184	-246	-16184	-928	-4036	21	2	66	-3664	-1948	16668	111	-6	74	-8448	3304	14084	63	-66	-186	-14728	4356	-5752	-36	5	-99	-3000	2768	16608	-5	-111	229	127	127	5
-7804	-2608	13628	-166	152	-235	-16120	-1036	-4008	72	-70	84	-3676	-2004	16636	140	0	85	-8524	3320	14168	55	-45	-174	-14692	4332	-5764	-4	10	-105	-3040	2668	16536	3	-115	235	127	126	5
-7840	-2640	13700	-176	151	-219	-16096	-1072	-4036	90	-38	72	-3628	-2024	16508	151	0	51	-8440	3284	14072	93	-35	-156	-14700	4260	-5740	1	-23	-99	-3044	2624	16564	5	-109	207	127	127	5
-7840	-2592	13716	-107	172	-233	-16144	-1048	-4020	106	-20	123	-3624	-2044	16576	174	-17	61	-8460	3272	14128	116	-76	-190	-14764	4308	-5792	11	-34	-68	-3100	2596	16584	5	-129	218	127	127	5
-7836	-2636	13700	-79	147	-190	-16144	-1108	-4048	76	-27	126	-3648	-2008	16680	163	-31	49	-8440	3296	14140	134	-14	-159	-14712	4292	-5836	2	-40	-74	-2992	2584	16588	10	-133	194	127	127	5
-7852	-2616	13516	-67	139	-177	-16092	-980	-4124	73	-24	145	-3636	-2040	16688	188	-32	40	-8488	3260	14052	122	-78	-167	-14724	4192	-5728	9	-38	-40	-3056	2628	16564	42	-140	197	127	127	5
-7804	-2596	13696	-96	173	-219	-16056	-1080	-3968	85	-30	173	-3560	-2032	16460	155	16	2	-8356	3244	13960	172	-36	-161	-14684	4280	-5704	-2	-49	-18	-3000	2656	16556	57	-131	204	127	127	5
-7840	-2644	13624	-55	155	-194	-16136	-1004	-3940	81	-22	184	-3560	-1952	16604	208	-20	9	-8480	3232	14084	142	-67	-130	-14688	4284	-5616	2	-59	-46	-2996	2680	16592	59	-141	153	127	127	5
-7852	-2704	13740	-76	126	-192	-16144	-956	-3944	103	10	151	-3616	-1968	16596	195	2	19	-8444	3344	14096	160	-14	-152	-14756	4312	-5744	8	-27	-18	-2988	2740	16624	34	-107	174	127	127	5
-7812	-2548	13576	-84	124	-186	-16112	-992	-4012	74	-15	166	-3592	-1896	16488	211	-26	76	-8444	3332	14036	194	-41	-155	-14732	4384	-5748	32	-44	-19	-2976	2776	16448	30	-96	194	127	127	5
-7804	-2584	13660	-71	166	-239	-16140	-964	-3932	89	-48	129	-3556	-1868	16504	197	-4	50	-8476	3272	14116	141	-12	-176	-14732	4316	-5768	4	-10	-14	-2916	2780	16692	27	-123	214	127	126	5
-7820	-2556	13640	-91	135	-186	-16120	-996	-3960	91	-34	132	-3572	-1916	16548	188	32	56	-8432	3272	14124	130	-39	-155	-14628	4408	-5816	9	-16	-19	-3100	2812	16580	27	-127	207	127	127	5
-7884	-2648	13632	-72	154	-192	-16132	-936	-3980	105	-22	129	-3640	-1892	16592	174	-3	36	-8440	3372	14080	126	-16	-187	-14660	4444	-5668	29	-46	-69	-3124	2756	16540	10	-125	197	127	127	5
-7884	-2552	13684	-93	168	-181	-16112	-1016	-3996	84	8	120	-3640	-1896	16604	171	26	9	-8440	3324	14008	126	-59	-186	-14640	4372	-5636	-10	-34	-62	-3156	2872	16532	5	-138	207	127	127	5
-7856	-2500	13596	-92	176	-196	-16092	-964	-4008	78	-28	112	-3612	-1932	16696	141	26	62	-8464	3320	14068	110	-51	-161	-14680	4440	-5788	-35	-29	-68	-3032	2812	16540	-4	-102	197	127	127	5
-7816	-2508	13568	-88	140	-200	-16128	-936	-4016	71	-29	119	-3672	-1912	16680	182	32	74	-8444	3332	14100	62	-23	-201	-14652	4356	-5780	-7	-54	-66	-3048	2808	16492	17	-136	235	127	127	5
-7888	-2580	13684	-124	155	-226	-16088	-948	-3964	45	-46	120	-3612	-1840	16620	178	-7	77	-8472	3324	14160	117	-75	-168	-14716	4348	-5716	-4	-42	-63	-2924	2740	16520	-39	-128	217	127	127	5
-7868	-2592	13748	-142	140	-192	-16124	-896	-4036	72	-37	103	-3576	-1852	16536	149	-23	82	-8444	3292	14088	89	-17	-187	-14692	4296	-5704	-28	8	-82	-2988	2620	16568	-9	-101	223	127	127	5
-7800	-2616	13656	-113	160	-218	-16096	-920	-3996	37	-30	102	-3576	-1904	16512	151	-26	68	-8456	3264	14044	91	-78	-165	-14716	4328	-5716	-11	-65	-85	-3028	2664	16520	-13	-153	207	127	126	5
-7812	-2564	13660	-130	151	-221	-16076	-988	-4080	39	-41	89	-3612	-1968	16540	145	1	73	-8420	3232	14044	121	-86	-151	-14720	4280	-5752	-1	-54	-100	-3028	2684	16500	15	-116	235	127	127	5
-7848	-2700	13640	-108	171	-248	-16088	-980	-4048	64	-51	110	-3624	-2004	16496	168	4	69	-8424	3324	14132	134	-73	-158	-14644	4324	-5720	-17	-26	-97	-3004	2668	16616	22	-124	223	127	127	5
-7812	-2580	13656	-132	164	-208	-16068	-980	-3964	93	-36	117	-3528	-1964	16588	150	27	41	-8364	3224	14036	129	-51	-169	-14720	4276	-5728	7	-50	-77	-2988	2672	16544	17	-130	214	127	127	5
-7868	-2672	13580	-92	174	-211	-16096	-988	-3916	42	-20	65	-3572	-2084	16636	194	43	56	-8444	3260	14144	133	-58	-191	-14700	4288	-5632	19	-26	-59	-2984	2684	16632	33	-127	168	127	127	5
-7832	-2608	13668	-67	142	-261	-16168	-1036	-3840	77	-9	123	-3616	-2072	16632	167	21	33	-8436	3252	14036	171	-13	-177	-14704	4344	-5740	19	-46	-36	-3032	2664	16620	3	-166	165	127	127	5
-7888	-2640	13644	-87	148	-205	-16088	-1004	-3972	93	5	100	-3528	-1972	16556	185	0	26	-8392	3288	13992	153	-57	-175	-14740	4320	-5652	-12	-45	-54	-3012	2692	16564	4	-112	181	127	127	5
-7920	-2572	13648	-93	91	-223	-16132	-1004	-4028	96	27	139	-3624	-1996	16656	162	9	49	-8412	3252	14112	185	-105	-128	-14716	4336	-5708	-36	-41	-40	-3044	2756	16436	56	-126	161	127	127	5
-7844	-2644	13688	-76	125	-202	-16156	-972	-3976	54	1	163	-3576	-1980	16604	221	10	44	-8412	3268	14176	145	-55	-165	-14708	4408	-5664	14	-16	-44	-3032	2692	16620	27	-110	186	127	127	5
-7844	-2636	13696	-61	110	-184	-16084	-1060	-3932	83	-17	143	-3620	-2012	16528	230	4	59	-8452	3288	14148	146	-73	-180	-14720	4388	-5724	18	-20	-74	-3048	2724	16496	24	-128	241	127	127	5
-7928	-2668	13716	-30	116	-185	-16144	-996	-4012	121	-42	172	-3692	-1880	16584	212	-7	28	-8416	3336	14088	118	-6	-216	-14684	4328	-5704	-26	-47	-20	-3096	2696	16624	41	-117	215	127	127	5
-7820	-2572	13676	-77	127	-184	-16112	-980	-4036	82	-14	180	-3672	-1884	16524	241	-14	49	-8408	3276	14160	133	-77	-175	-14608	4364	-5760	-14	-24	-46	-3040	2680	16500	70	-121	186	127	127	5
-7924	-2624	13656	-48	138	-162	-16152	-920	-3952	108	-38	162	-3588	-1864	16544	204	-25	30	-8484	3340	14136	98	-46	-182	-14656	4388	-5716	8	-53	-80	-3136	2712	16516	53	-107	210	127	127	5
-7848	-2540	13620	-85	157	-194	-16192	-1032	-4116	77	-25	131	-3600	-1848	16468	188	14	36	-8460	3280	14084	136	-81	-156	-14592	4296	-5864	7	-52	-74	-3036	2748	16512	50	-122	237	127	127	5
-7848	-2620	13624	-51	169	-185	-16104	-860	-4028	103	-57	147	-3560	-1728	16684	181	-32	43	-8440	3296	14068	141	-66	-147	-14656	4348	-5764	-2	-50	-87	-3048	2756	16540	35	-113	196	127	127	5
-7840	-2596	13784	-84	168	-239	-16040	-832	-4052	106	-50	117	-3564	-1780	16584	156	-4	54	-8420	3312	14052	128	-56	-157	-14692	4356	-5644	-10	-59	-119	-2960	2752	16472	3	-138	207	127	127	5
-7784	-2592	13708	-140	180	-217	-16116	-844	-4064	41	-56	89	-3536	-1776	16532	136	-24	33	-8468	3380	14060	88	-35	-184	-14688	4356	-5616	-8	-39	-130	-2944	2740	16548	-21	-126	206	127	127	5
-7836	-2568	13748	-140	160	-194	-16124	-924	-3892	38	-50	42	-3560	-1892	16664	95	-3	80	-8372	3288	14052	98	-58	-181	-14776	4292	-5576	24	3	-98	-2952	2756	16544	-12	-136	188	127	127	5
-7892	-2600	13740	-142	158	-214	-16156	-928	-4088	63	-43	85	-3556	-1964	16640	135	-16	59	-8332	3320	14048	103	-61	-162	-14700	4400	-5608	-9	-1	-83	-3000	2716	16536	-33	-149	203	127	127	5
-7824	-2584	13748	-139	179	-233	-16060	-952	-3952	58	-14	65	-3560	-1944	16660	136	-5	79	-8448	3332	14088	111	-90	-161	-14720	4352	-5652	-8	19	-108	-2948	2708	16568	-33	-111	222	127	127	5
-7792	-2584	13668	-122	162	-220	-16032	-976	-4180	52	-10	63	-3636	-1980	16504	125	-6	90	-8452	3352	14052	79	-71	-172	-14732	4380	-5772	-31	-9	-111	-3044	2776	16552	-15	-109	227	127	127	5
-7800	-2612	13612	-150	165	-212	-16132	-1032	-3948	18	-26	61	-3656	-2076	16540	154	-9	90	-8456	3280	14140	65	-76	-182	-14728	4396	-5708	-21	20	-140	-3084	2620	16500	-10	-123	232	127	127	5
-7836	-2624	13664	-122	157	-185	-16072	-1052	-4012	63	1	85	-3580	-2096	16552	174	39	68	-8416	3220	13968	76	-57	-197	-14676	4280	-5768	-5	-46	-95	-3028	2624	16488	-20	-108	238	127	127	5
-7844	-2636	13696	-88	153	-220	-16124	-1024	-3916	65	-34	144	-3660	-2088	16588	151	28	49	-8452	3264	14148	81	-54	-189	-14700	4228	-5880	-15	-42	-95	-3084	2632	16592	-5	-132	228	127	127	5
-7828	-2620	13632	-63	157	-185	-16080	-1092	-4004	71	-25	121	-3672	-2032	16696	141	-1	9	-8436	3280	14120	95	-77	-163	-14704	4252	-5808	42	-19	-98	-3088	2596	16488	-19	-139	223	127	127	5
-7828	-2644	13616	-39	113	-203	-16124	-996	-3912	103	15	151	-3620	-1996	16572	183	-14	30	-8408	3292	14072	127	-14	-161	-14704	4260	-5904	16	-36	-55	-3064	2572	16492	-59	-183	199	127	127	5
-7908	-2636	13600	-59	113	-177	-16132	-980	-3924	94	-26	125	-3624	-1952	16492	180	-10	19	-8416	3300	14208	157	-26	-162	-14668	4284	-5824	38	-26	-61	-3012	2576	16580	28	-147	202	127	127	5
-7844	-2612	13692	-32	127	-189	-16140	-952	-3956	95	12	178	-3540	-1912	16604	156	-17	14	-8488	3328	14096	162	-35	-139	-14700	4280	-5800	6	-53	-6	-3060	2644	16580	13	-158	159	127	127	5
-7780	-2576	13612	-74	114	-215	-16136	-968	-4012	88	-1	159	-3636	-1968	16488	205	-37	58	-8440	3248	14164	167	-43	-140	-14696	4296	-5880	53	-77	-7	-3028	2584	16520	84	-136	156	127	127	5
-7836	-2560	13628	-73	165	-170	-16080	-960	-4024	105	-29	168	-3548	-1916	16648	245	-14	42	-8396	3300	14152	174	-25	-141	-14676	4336	-5848	45	-72	12	-3052	2572	16564	78	-157	174	127	127	5
-7840	-2532	13640	-83	152	-156	-16176	-960	-4072	62	-59	193	-3616	-1908	16476	200	-13	25	-8428	3252	14200	185	-26	-153	-14704	4312	-5668	26	-45	26	-3052	2700	16460	96	-136	227	127	127	5
-7852	-2564	13552	-89	167	-217	-16148	-916	-3960	99	-30	145	-3628	-1928	16624	252	-8	55	-8408	3320	14132	192	-17	-187	-14756	4308	-5764	34	-55	-28	-3036	2728	16488	92	-137	176	127	127	5
-7856	-2576	13692	-40	150	-170	-16164	-1028	-4056	83	-8	161	-3580	-1912	16580	214	-6	76	-8400	3320	14184	185	-75	-115	-14720	4404	-5728	33	-51	-19	-2952	2808	16500	86	-144	180	127	127	5
-7840	-2624	13620	-65	145	-193	-16112	-1012	-3960	101	-18	167	-3564	-2008	16564	221	1	42	-8368	3320	14012	139	6	-175	-14652	4476	-5620	-7	-15	-2	-3060	2868	16612	54	-126	182	127	127	5
-7884	-2660	13688	-54	147	-202	-16068	-968	-3996	96	-27	173	-3600	-1968	16520	208	-20	30	-8460	3332	14052	175	-42	-174	-14752	4404	-5800	1	-62	-25	-2952	2828	16508	16	-118	190	127	127	5
-7868	-2564	13644	-50	147	-187	-16100	-936	-3972	55	5	179	-3600	-1920	16608	198	-9	33	-8448	3368	14120	127	-37	-164	-14696	4452	-5672	34	-5	-49	-3060	2864	16480	22	-149	159	127	127	5
-7788	-2608	13680	-74	155	-158	-16144	-948	-3992	112	-35	163	-3636	-1856	16580	224	-36	-4	-8480	3404	14056	110	-84	-151	-14624	4452	-5832	17	-15	-83	-3092	2832	16548	12	-120	195	127	127	5
-7840	-2608	13600	-58	172	-163	-16080	-912	-4092	74	30	133	-3608	-1836	16608	165	3	45	-8436	3316	14172	70	-38	-195	-14704	4372	-5812	-19	-1	-77	-2984	2784	16568	-39	-104	216	127	127	5
-7872	-2540	13568	-87	145	-207	-16140	-852	-4036	86	-40	135	-3572	-1748	16608	170	-43	69	-8492	3336	14096	67	-30	-196	-14736	4360	-5744	-55	-16	-127	-3000	2728	16560	-50	-115	215	127	127	5
-7800	-2568	13616	-117	127	-225	-16084	-864	-4092	60	-65	100	-3600	-1776	16740	138	3	58	-8480	3360	14232	50	-41	-167	-14684	4324	-5708	-11	-31	-109	-3072	2696	16464	-18	-134	209	127	127	5
-7864	-2576	13688	-134	163	-234	-16128	-848	-3944	48	-22	102	-3584	-1844	16508	150	-14	61	-8448	3344	14100	52	-31	-152	-14628	4316	-5824	-13	-9	-110	-3064	2656	16616	11	-110	221	127	127	5
-7900	-2488	13540	-147	150	-211	-16132	-980	-4052	31	-74	94	-3648	-1828	16512	143	4	64	-8472	3188	14096	70	-86	-189	-14708	4288	-5808	-11	-35	-118	-3104	2656	16520	7	-124	213	127	127	5
-7848	-2616	13608	-162	156	-221	-16132	-940	-3960	48	-38	56	-3588	-1932	16604	93	-22	77	-8388	3252	14020	95	-70	-161	-14676	4344	-5824	-31	-28	-95	-3000	2716	16596	-2	-85	209	127	127	5
-7852	-2596	13712	-168	173	-235	-16072	-952	-3960	54	-60	35	-3612	-1968	16508	101	-27	72	-8404	3264	14136	104	-97	-145	-14700	4288	-5776	-20	-43	-78	-3056	2632	16568	-27	-116	215	127	127	5
-7864	-2608	13668	-155	132	-242	-16144	-1012	-3904	43	-31	69	-3484	-2004	16616	127	-36	83	-8376	3252	14084	110	-46	-168	-14732	4252	-5728	23	-68	-61	-3036	2636	16652	-5	-115	191	127	127	5
-7856	-2676	13680	-147	133	-188	-16124	-1036	-3912	60	-21	64	-3532	-2092	16556	148	20	81	-8444	3316	14188	107	-10	-167	-14672	4316	-5660	18	-36	-63	-2968	2628	16500	-5	-130	193	127	127	5
-7892	-2600	13620	-129	159	-219	-16068	-1016	-3968	90	-27	82	-3588	-2120	16716	151	-31	66	-8448	3340	14096	105	-68	-222	-14712	4276	-5624	9	-39	-55	-2992	2660	16548	6	-131	236	127	127	5
-7860	-2624	13636	-96	146	-198	-16172	-1036	-4044	68	-8	84	-3560	-2144	16460	187	10	79	-8420	3272	14120	128	-3	-176	-14800	4352	-5872	7	-33	-21	-3044	2596	16456	17	-138	181	127	127	5
-7852	-2596	13732	-77	166	-202	-16140	-1040	-3992	76	6	136	-3564	-2036	16560	191	22	60	-8452	3264	14112	129	-36	-166	-14720	4316	-5816	-3	-21	-28	-3076	2672	16460	31	-129	173	127	127	5
-7828	-2632	13584	-55	153	-201	-16140	-1028	-3916	57	23	137	-3644	-2072	16568	214	1	33	-8408	3216	14148	152	-75	-156	-14740	4332	-5692	37	-40	-42	-3064	2656	16608	39	-105	185	127	127	5
-7828	-2652	13684	-20	149	-188	-16056	-1048	-4004	84	-4	185	-3664	-2052	16556	207	-11	36	-8464	3304	14116	165	-61	-161	-14676	4356	-5660	1	-25	-38	-3056	2684	16464	44	-118	198	127	127	5
-7868	-2584	13672	-31	151	-184	-16128	-964	-4048	125	18	148	-3684	-1904	16580	231	-15	49	-8436	3240	14088	145	-26	-176	-14704	4300	-5780	7	-44	-57	-2984	2576	16592	49	-142	226	127	127	5
-7864	-2672	13612	-12	129	-165	-16100	-956	-4068	99	-25	181	-3636	-1888	16516	211	-23	26	-8416	3284	14008	166	-30	-146	-14688	4356	-5820	6	-47	-1	-3028	2632	16496	60	-146	182	127	127	5
-7800	-2508	13664	-41	168	-178	-16104	-928	-3932	99	-26	152	-3548	-1896	16528	197	-33	9	-8412	3296	14092	140	-60	-131	-14752	4356	-5676	23	-49	-30	-3084	2744	16548	65	-152	172	127	127	5
-7768	-2568	13600	-47	136	-161	-16136	-936	-3988	109	-53	190	-3576	-1820	16620	220	-29	18	-8424	3336	14052	141	-29	-150	-14752	4444	-5844	10	-76	-12	-3004	2700	16592	64	-139	200	127	127	5
-7900	-2600	13720	-53	151	-224	-16092	-864	-4012	88	-54	164	-3612	-1840	16592	211	-39	49	-8392	3292	14012	167	-36	-124	-14700	4328	-5660	9	-49	-25	-2972	2712	16584	27	-127	167	127	127	5
-7868	-2596	13632	-62	172	-208	-16092	-912	-4092	50	-28	142	-3592	-1828	16592	166	0	43	-8384	3300	14088	130	-70	-145	-14668	4320	-5752	47	-61	-32	-3064	2732	16612	48	-139	191	127	127	5
-7852	-2584	13684	-62	171	-199	-16076	-944	-4060	72	-3	139	-3532	-1872	16596	158	-7	81	-8360	3404	14104	157	-63	-122	-14664	4408	-5708	16	-34	-20	-3024	2696	16452	47	-104	185	127	127	5
-7860	-2628	13684	-77	170	-196	-16208	-940	-4052	82	-30	115	-3600	-1928	16524	167	-3	54	-8480	3288	14072	139	-4	-130	-14696	4352	-5768	30	-36	-60	-2996	2768	16544	2	-119	208	127	127	5
-7868	-2640	13664	-70	167	-230	-16136	-908	-3928	66	-37	122	-3628	-1872	16588	134	6	70	-8440	3312	14088	126	-34	-152	-14680	4428	-5652	17	-44	-43	-3000	2860	16584	-8	-95	196	127	127	5
-7876	-2560	13632	-129	137	-211	-16128	-960	-4004	60	-27	127	-3572	-1896	16516	168	14	48	-8448	3332	14040	108	-107	-179	-14672	4448	-5636	13	-55	-89	-3008	2768	16564	5	-128	158	127	127	5
-7856	-2592	13552	-127	144	-231	-16100	-940	-4068	34	-18	109	-3584	-1880	16524	157	-31	75	-8432	3304	14120	104	-9	-138	-14720	4424	-5648	-42	-31	-42	-3008	2852	16552	2	-146	185	127	127	5
-7840	-2612	13596	-133	134	-163	-16140	-1036	-4000	75	-2	122	-3552	-2020	16644	138	-18	32	-8416	3332	14044	111	-65	-187	-14684	4368	-5644	-22	22	-60	-2952	2716	16552	14	-112	221	127	127	5
-7876	-2584	13660	-88	138	-172	-16128	-1020	-3984	53	-15	117	-3612	-1928	16564	172	-20	52	-8380	3304	14096	88	-23	-168	-14648	4412	-5752	-2	-33	-79	-3020	2772	16568	9	-127	248	127	127	5
-7876	-2616	13648	-121	142	-218	-16148	-996	-4004	61	-11	107	-3596	-1912	16580	149	-4	68	-8440	3296	14204	68	-44	-189	-14676	4356	-5712	-15	-46	-83	-3120	2688	16576	-36	-133	216	127	127	5
-7828	-2672	13580	-81	150	-220	-16136	-948	-4008	79	-52	80	-3612	-1928	16608	148	-29	64	-8472	3344	14096	73	-40	-185	-14680	4356	-5780	-31	-17	-91	-3020	2680	16576	-19	-121	238	127	127	5
-7868	-2560	13588	-125	174	-183	-16136	-928	-4040	68	-26	120	-3688	-1920	16496	161	4	44	-8420	3268	14076	106	-45	-193	-14688	4344	-5772	14	-27	-113	-3068	2668	16524	-22	-119	197	127	127	5
-7800	-2532	13688	-73	125	-204	-16120	-960	-4056	59	-48	120	-3628	-1940	16608	140	-35	49	-8412	3288	14108	111	-35	-189	-14700	4352	-5752	10	-55	-62	-3036	2632	16588	-1	-121	200	127	127	5
-7888	-2628	13596	-112	176	-205	-16036	-940	-3972	77	-4	121	-3588	-1908	16432	142	-4	72	-8456	3328	14076	163	-89	-157	-14648	4312	-5788	-17	-47	-37	-3056	2636	16664	21	-150	184	127	127	5
-7900	-2584	13736	-129	140	-229	-16120	-992	-4012	69	-33	140	-3592	-1848	16584	130	11	69	-8424	3260	14064	115	-67	-136	-14672	4280	-5724	12	-23	-40	-3032	2696	16556	50	-121	199	127	127	5
-7784	-2628	13600	-114	183	-214	-16128	-936	-4068	84	-29	133	-3612	-1960	16580	154	-40	64	-8408	3280	14108	108	-41	-161	-14688	4316	-5632	10	-49	-63	-2980	2672	16624	28	-137	183	127	127	5
-7880	-2560	13604	-86	161	-212	-16124	-980	-3888	49	-3	115	-3540	-1948	16516	158	-9	50	-8384	3260	14064	138	-76	-152	-14680	4408	-5712	-15	-37	-59	-3020	2732	16540	50	-132	203	127	127	5
-7888	-2608	13632	-111	138	-235	-16132	-1040	-4024	57	-59	122	-3524	-2032	16596	169	-16	62	-8400	3256	14040	143	-1	-173	-14692	4340	-5700	-19	-16	-64	-3008	2748	16516	47	-123	200	127	127	5
-7864	-2620	13664	-103	151	-200	-16112	-988	-4060	58	-54	122	-3564	-2028	16520	168	-5	53	-8480	3296	14204	117	-61	-139	-14672	4380	-5668	0	-30	-33	-2948	2780	16660	5	-90	175	127	127	5
-7828	-2656	13628	-89	154	-206	-16096	-1016	-3912	111	8	149	-3600	-1984	16580	186	-40	68	-8416	3292	14152	150	-57	-143	-14692	4356	-5664	-32	-62	-34	-3012	2676	16412	28	-126	214	127	127	5
-7872	-2652	13572	-59	148	-206	-16092	-972	-3892	97	-25	167	-3576	-1896	16576	189	4	49	-8424	3288	14060	111	-53	-151	-14732	4360	-5696	0	-58	-31	-3056	2736	16580	40	-116	204	127	127	5
-7832	-2628	13636	-57	167	-207	-16128	-980	-4016	103	-4	132	-3584	-1920	16636	207	-12	50	-8452	3284	14080	125	-53	-193	-14680	4400	-5740	35	-50	-56	-3044	2764	16660	27	-126	181	127	127	5
-7872	-2616	13604	-36	147	-208	-16152	-964	-3964	101	37	168	-3576	-1940	16472	212	-37	29	-8440	3308	14120	143	-95	-159	-14708	4336	-5712	-20	-18	-80	-2996	2732	16528	13	-154	193	127	127	5
-7844	-2648	13668	-62	151	-189	-16140	-972	-3968	107	0	164	-3652	-1924	16628	192	-15	65	-8448	3280	14072	124	-50	-180	-14704	4340	-5828	-10	-55	-36	-3056	2736	16640	69	-141	220	127	127	5
-7864	-2564	13608	-82	139	-196	-16100	-940	-3868	62	-21	163	-3628	-1868	16704	194	9	55	-8424	3332	14108	111	-63	-211	-14724	4388	-5748	5	11	-10	-3060	2724	16528	38	-133	192	127	127	5
-7840	-2644	13660	-86	169	-209	-16104	-932	-3976	62	-1	139	-3612	-1868	16532	206	-37	44	-8464	3332	14032	91	-37	-171	-14708	4332	-5736	19	10	-37	-3008	2712	16596	39	-109	206	127	127	5
-7864	-2516	13628	-62	147	-204	-16132	-996	-4028	53	-14	128	-3552	-1892	16568	212	-26	47	-8460	3276	14192	113	-72	-149	-14656	4276	-5744	22	-40	-55	-3052	2712	16552	35	-107	195	127	127	5
-7832	-2584	13692	-101	144	-193	-16108	-968	-4044	95	-42	129	-3656	-1904	16608	210	-9	66	-8432	3288	14052	103	-76	-136	-14724	4352	-5828	21	-70	-61	-3040	2712	16544	12	-111	187	127	127	5
-7812	-2584	13712	-103	135	-164	-16136	-936	-4032	91	-12	129	-3576	-1900	16532	165	-34	64	-8452	3252	14120	116	11	-173	-14712	4296	-5808	-22	3	-72	-3092	2740	16540	5	-109	174	127	127	5
-7824	-2560	13708	-106	154	-199	-16136	-980	-4044	90	-42	88	-3576	-1972	16524	182	0	64	-8404	3268	14024	139	-43	-142	-14668	4324	-5848	-25	-37	-65	-3024	2780	16524	15	-99	182	127	127	5
-7852	-2644	13656	-106	160	-170	-16076	-980	-3924	93	-5	126	-3612	-1924	16616	149	12	45	-8476	3308	14104	136	-38	-134	-14676	4308	-5752	20	-47	-78	-3024	2752	16576	24	-110	189	127	127	5
-7848	-2600	13660	-80	194	-204	-16056	-976	-3920	93	-20	106	-3672	-1952	16544	135	-28	45	-8532	3308	14068	110	-40	-144	-14732	4300	-5808	21	-32	-54	-2972	2696	16484	16	-102	172	127	127	5
-7788	-2628	13628	-64	136	-189	-16076	-968	-4004	105	-25	116	-3628	-1984	16712	126	-9	43	-8452	3336	14056	137	-39	-179	-14792	4376	-5612	32	-37	-53	-3024	2692	16520	42	-157	183	127	127	5
-7824	-2600	13732	-109	95	-179	-16092	-964	-4028	85	4	127	-3620	-1968	16552	186	13	51	-8476	3300	14144	129	-30	-188	-14744	4368	-5676	2	-11	-67	-3052	2712	16500	33	-128	193	127	127	5
-7828	-2540	13560	-117	157	-196	-16132	-980	-3956	50	9	149	-3628	-1908	16716	195	-15	63	-8492	3300	14084	121	-45	-161	-14740	4380	-5668	-4	-35	-54	-3040	2748	16556	23	-116	191	127	127	5
-7800	-2576	13752	-134	136	-204	-16136	-980	-3976	79	9	130	-3576	-1936	16652	160	3	40	-8420	3300	14044	158	-51	-142	-14780	4324	-5804	-10	-9	-67	-2976	2752	16496	43	-129	200	127	127	5
-7856	-2584	13700	-127	129	-212	-16032	-992	-4072	66	10	103	-3540	-1900	16684	148	-24	49	-8416	3356	14056	133	-45	-140	-14700	4396	-5632	-14	-46	-6	-3008	2724	16644	51	-124	223	127	127	5
-7832	-2596	13660	-132	135	-209	-16072	-976	-4028	82	5	120	-3548	-1956	16572	146	-19	48	-8480	3352	14160	141	-43	-168	-14744	4296	-5652	-8	-11	-52	-3032	2720	16580	-2	-112	226	127	127	5
-7892	-2568	13616	-133	152	-216	-16032	-968	-4036	61	-32	96	-3624	-1932	16644	175	-5	57	-8452	3272	14140	133	-49	-157	-14648	4348	-5760	10	15	-76	-3004	2820	16572	39	-119	200	127	127	5
-7860	-2564	13632	-89	140	-198	-16152	-948	-4036	64	-25	112	-3552	-1888	16540	146	-9	52	-8428	3288	14112	119	-41	-191	-14680	4392	-5744	-5	7	-79	-3012	2652	16448	19	-122	202	127	127	5
-7856	-2568	13604	-151	173	-207	-16088	-928	-4096	76	-54	138	-3568	-1928	16560	172	-17	63	-8456	3272	14112	92	-95	-160	-14744	4356	-5652	-8	-5	-105	-3008	2724	16488	2	-116	242	127	127	5
-7804	-2604	13760	-117	148	-182	-16176	-968	-4040	62	-17	112	-3552	-1904	16560	195	-1	73	-8416	3324	14092	98	-53	-182	-14720	4308	-5712	-35	-24	-80	-3008	2728	16584	47	-111	196	127	127	5
-7848	-2636	13732	-105	155	-187	-16188	-944	-3992	46	-5	114	-3604	-1928	16636	165	6	50	-8432	3324	14148	96	-65	-182	-14664	4300	-5768	-23	-24	-88	-3036	2600	16696	41	-114	216	127	127	5
-7784	-2584	13636	-120	156	-168	-16108	-1080	-3916	91	-27	133	-3644	-1936	16600	168	6	47	-8360	3276	14040	101	-95	-165	-14720	4324	-5800	-18	-5	-69	-3052	2660	16608	28	-109	215	127	127	5
-7824	-2672	13608	-108	164	-200	-16064	-988	-4000	95	-34	117	-3576	-2004	16516	195	3	62	-8444	3296	14120	110	-52	-172	-14676	4368	-5860	-12	-44	-58	-3044	2716	16584	35	-127	186	127	127	5
-7860	-2584	13632	-71	142	-230	-16072	-972	-3988	62	-20	121	-3692	-2020	16628	198	-23	46	-8444	3328	14112	113	-94	-182	-14672	4312	-5660	0	-30	-68	-3060	2684	16568	0	-116	193	127	127	5
-7892	-2588	13680	-72	162	-181	-16112	-1040	-4052	59	-28	139	-3616	-2040	16548	159	-9	69	-8444	3280	14104	114	-16	-156	-14692	4272	-5716	29	-33	-61	-3032	2656	16584	11	-138	190	127	127	5
-7784	-2556	13576	-84	144	-200	-16116	-920	-3996	71	19	123	-3568	-2004	16560	173	-6	28	-8328	3292	14096	117	-64	-164	-14764	4276	-5840	0	-42	-44	-3032	2668	16528	15	-105	192	127	127	5
-7852	-2604	13600	-69	134	-214	-16108	-976	-3908	87	14	144	-3632	-1996	16696	191	-41	20	-8436	3244	14168	132	-37	-201	-14708	4336	-5764	10	-28	-50	-3080	2632	16616	30	-96	190	127	127	5
-7884	-2664	13636	-42	144	-187	-16124	-960	-4004	91	13	147	-3580	-1984	16560	158	-19	12	-8360	3264	14108	147	-13	-164	-14740	4352	-5764	2	-43	-21	-2996	2700	16476	35	-128	168	127	127	5
-7816	-2544	13592	-87	163	-205	-16144	-944	-4020	84	-44	124	-3568	-1980	16668	178	22	-2	-8420	3264	14060	151	-20	-188	-14696	4328	-5704	29	-67	-41	-3056	2752	16688	29	-128	174	127	127	5
-7848	-2528	13688	-56	150	-195	-16112	-940	-4020	117	-39	163	-3672	-1984	16520	198	18	63	-8472	3340	14120	159	-41	-140	-14696	4340	-5744	15	-22	-22	-3060	2772	16524	43	-127	192	127	127	5
-7880	-2636	13676	-94	149	-179	-16152	-944	-4032	80	-7	170	-3540	-1912	16476	189	-18	33	-8476	3256	14168	150	-42	-151	-14712	4380	-5704	6	-58	-33	-3064	2712	16576	19	-136	203	127	127	5
-7856	-2576	13660	-84	155	-182	-16200	-912	-3916	86	18	140	-3604	-1904	16608	194	-7	59	-8460	3308	14052	149	-15	-112	-14652	4380	-5760	-22	-40	-49	-3072	2732	16500	54	-149	193	127	127	5
-7824	-2600	13716	-39	123	-212	-16140	-984	-3928	70	-25	124	-3608	-1872	16620	171	4	17	-8408	3320	14076	140	-64	-161	-14656	4376	-5732	6	-69	-36	-3020	2672	16524	37	-134	202	127	127	5
-7820	-2576	13660	-69	116	-173	-16140	-964	-4016	86	-45	119	-3612	-1900	16612	175	-39	74	-8428	3288	14108	143	-33	-161	-14744	4432	-5672	-24	-14	-83	-3064	2732	16500	39	-130	216	127	127	5
-7904	-2572	13584	-88	157	-182	-16132	-932	-4072	72	-38	128	-3608	-1856	16664	206	-21	46	-8444	3308	14172	100	-30	-182	-14632	4376	-5752	-9	-37	-57	-3028	2744	16592	42	-121	197	127	127	5
-7840	-2568	13608	-93	163	-214	-16148	-900	-4024	80	-38	124	-3560	-1884	16608	178	-15	60	-8412	3336	14128	81	-52	-154	-14720	4448	-5740	-2	0	-42	-3028	2752	16480	33	-102	212	127	127	5
-7820	-2580	13572	-72	158	-225	-16068	-872	-4084	60	-76	116	-3556	-1948	16652	165	-21	42	-8504	3328	14144	108	-38	-166	-14724	4332	-5720	21	-51	-65	-3008	2692	16512	-34	-110	232	127	127	5
-7876	-2580	13656	-84	163	-201	-16144	-908	-4100	69	-15	106	-3572	-1944	16516	184	-2	84	-8452	3332	14088	93	-10	-166	-14696	4368	-5732	-23	-30	-71	-3016	2692	16612	38	-126	195	127	127	5
-7860	-2592	13724	-118	151	-184	-16128	-976	-3952	73	1	106	-3608	-1944	16616	160	10	72	-8452	3328	14012	79	-39	-177	-14692	4300	-5812	-2	-23	-114	-3000	2712	16480	3	-133	217	127	127	5
-7904	-2588	13720	-88	134	-245	-16084	-960	-3928	95	-32	101	-3608	-1968	16640	166	-3	63	-8460	3256	14108	85	-49	-166	-14720	4340	-5764	-34	-38	-94	-3040	2728	16532	-5	-126	221	127	127	5
-7864	-2628	13588	-116	161	-162	-16096	-952	-3888	109	8	145	-3648	-1968	16484	150	10	67	-8420	3284	14024	118	-84	-159	-14720	4336	-5676	8	-33	-79	-2996	2696	16524	-4	-119	207	127	127	5
-7904	-2596	13676	-85	138	-191	-16100	-964	-3996	75	-2	88	-3588	-1916	16604	136	-5	53	-8468	3260	14064	100	-18	-177	-14648	4340	-5684	-9	-14	-77	-3060	2748	16580	-4	-119	208	127	127	5
-7792	-2608	13592	-106	122	-179	-16124	-956	-4076	107	-29	68	-3632	-1936	16564	146	-5	63	-8448	3260	14136	73	-15	-177	-14708	4300	-5736	7	-54	-109	-3044	2724	16540	-10	-119	202	127	127	5
-7820	-2540	13608	-93	159	-231	-16128	-964	-4052	48	1	101	-3604	-1976	16652	143	-42	91	-8452	3280	14108	139	-70	-166	-14680	4348	-5772	7	-8	-125	-3052	2696	16596	29	-119	203	127	127	5
-7908	-2596	13628	-95	126	-205	-16176	-892	-4012	71	5	90	-3560	-1972	16528	137	-11	53	-8440	3296	14096	103	-25	-176	-14712	4320	-5624	-27	-26	-67	-3028	2644	16608	1	-93	213	127	127	5
-7844	-2636	13776	-84	149	-212	-16144	-936	-3972	42	-43	99	-3640	-1944	16564	163	-15	65	-8388	3308	14064	115	-52	-188	-14716	4392	-5684	-23	-40	-64	-2984	2652	16548	29	-108	182	127	127	5
-7880	-2624	13572	-108	143	-209	-16144	-920	-4040	64	-29	107	-3640	-2028	16600	172	-10	44	-8420	3228	14032	113	-55	-194	-14708	4276	-5728	-10	0	-46	-3052	2672	16524	26	-120	212	127	127	5
-7860	-2604	13628	-97	143	-214	-16136	-996	-3932	63	-27	118	-3616	-1960	16668	181	12	28	-8412	3236	14092	87	-30	-172	-14772	4324	-5724	23	-23	-50	-3044	2652	16492	11	-104	167	127	127	5
-7820	-2596	13656	-98	157	-203	-16096	-936	-4040	94	-57	122	-3612	-1932	16440	132	5	43	-8380	3264	14156	102	-49	-195	-14648	4356	-5740	-3	-9	-45	-3024	2712	16588	4	-105	194	127	127	5
-7784	-2652	13724	-57	132	-191	-16124	-1008	-3948	44	-22	118	-3588	-2020	16696	167	39	55	-8448	3320	14160	152	-80	-164	-14672	4272	-5796	-11	-25	-45	-2964	2732	16464	30	-114	176	127	127	5
-7852	-2612	13612	-82	152	-219	-16128	-1032	-3980	76	32	117	-3620	-2032	16540	177	-35	49	-8440	3344	14100	158	-44	-179	-14660	4384	-5804	-8	-31	-22	-3016	2692	16576	-14	-97	177	127	127	5
-7848	-2644	13608	-77	142	-190	-16088	-1020	-3972	101	9	144	-3604	-2004	16612	187	-15	54	-8424	3248	14076	164	-38	-159	-14756	4332	-5752	-24	-51	-43	-2976	2720	16508	35	-128	161	127	127	5
-7840	-2568	13704	-52	164	-215	-16152	-992	-3980	100	-17	166	-3616	-1988	16416	174	-16	33	-8432	3328	14064	139	-34	-192	-14660	4376	-5680	-24	-50	-15	-3036	2720	16624	73	-118	192	127	127	5
-7796	-2576	13636	-83	145	-175	-16104	-952	-4128	77	3	129	-3644	-1980	16600	197	31	68	-8480	3284	14092	148	-52	-152	-14696	4332	-5804	-14	-20	-38	-3056	2692	16436	35	-129	193	127	127	5
-7828	-2600	13576	-85	116	-200	-16128	-924	-4092	63	-30	139	-3668	-1924	16588	228	5	54	-8452	3276	14204	140	-1	-196	-14684	4336	-5784	6	-32	-47	-3060	2736	16500	35	-125	173	127	127	5
-7868	-2588	13656	-69	122	-187	-16100	-1004	-4168	73	-65	148	-3680	-1864	16640	184	-6	62	-8384	3292	14100	170	-87	-157	-14672	4344	-5840	-3	-58	-60	-3032	2752	16632	31	-128	208	127	127	5
-7832	-2564	13700	-126	134	-185	-16068	-896	-4128	86	-6	171	-3656	-1860	16584	198	0	55	-8428	3412	14076	141	-31	-121	-14804	4392	-5812	-12	-72	-26	-3096	2764	16624	62	-115	195	127	127	5
-7888	-2600	13720	-61	148	-183	-16144	-912	-4036	85	-52	132	-3584	-1896	16628	161	-24	74	-8488	3332	14120	140	-54	-153	-14688	4388	-5724	6	-57	-61	-3040	2748	16572	38	-113	203	127	127	5
-7876	-2600	13676	-96	138	-210	-16148	-940	-4124	97	-4	141	-3600	-1880	16564	176	-11	56	-8484	3364	14140	115	-19	-152	-14644	4344	-5796	10	-57	-56	-2948	2740	16528	63	-146	207	127	127	5
-7924	-2588	13704	-74	143	-216	-16100	-960	-4048	85	-28	111	-3560	-1924	16568	209	-8	46	-8436	3332	14072	120	-68	-151	-14688	4372	-5808	-4	-53	-23	-2968	2828	16552	29	-144	184	127	127	5
-7876	-2504	13552	-117	134	-205	-16092	-956	-3956	60	-25	140	-3612	-1920	16656	161	16	47	-8444	3340	14020	120	-21	-169	-14672	4424	-5636	1	-31	-101	-3004	2780	16584	51	-112	191	127	127	5
-7772	-2620	13748	-99	144	-214	-16104	-964	-3924	62	-17	86	-3544	-1904	16608	170	-16	84	-8440	3360	14044	125	-27	-174	-14736	4364	-5756	15	-37	-35	-3032	2800	16580	-11	-137	198	127	127	5
-7872	-2604	13648	-122	136	-231	-16112	-932	-4012	70	-28	85	-3508	-1964	16520	155	-22	84	-8380	3328	14072	90	-53	-155	-14712	4356	-5752	-19	-34	-81	-2916	2772	16540	-18	-118	190	127	127	5
-7800	-2596	13684	-120	148	-229	-16180	-912	-4004	94	-16	130	-3520	-1948	16616	148	-18	47	-8376	3312	14096	81	-44	-195	-14652	4408	-5788	-16	-16	-74	-2968	2792	16604	14	-107	219	127	127	5
-7860	-2564	13688	-83	168	-252	-16132	-928	-4016	101	-16	110	-3600	-1992	16580	143	-62	43	-8384	3344	14068	96	-54	-191	-14700	4336	-5772	-39	-37	-87	-3024	2776	16488	-19	-112	228	127	127	5
-7780	-2644	13648	-115	150	-187	-16168	-952	-4036	77	-20	107	-3628	-1920	16612	180	2	63	-8432	3276	14028	90	-22	-215	-14720	4392	-5808	-12	30	-102	-3040	2720	16636	39	-113	203	127	127	5
-7868	-2648	13724	-122	163	-221	-16132	-976	-3832	73	-2	91	-3664	-1936	16568	141	31	78	-8396	3312	14080	71	17	-177	-14688	4376	-5744	24	-11	-133	-2996	2756	16508	-1	-132	215	127	127	5
-7776	-2536	13528	-98	145	-227	-16116	-984	-4016	88	-41	129	-3564	-1896	16644	160	-14	59	-8372	3292	14096	111	-27	-179	-14740	4368	-5744	2	2	-103	-3016	2692	16488	1	-77	213	127	127	5
-7816	-2636	13592	-118	139	-160	-16164	-956	-3992	75	-29	89	-3616	-1912	16656	131	-9	57	-8404	3280	14124	119	-41	-167	-14708	4344	-5732	7	-1	-80	-3012	2724	16552	2	-125	215	127	127	5
-7880	-2648	13680	-110	156	-153	-16120	-992	-4028	114	-3	129	-3588	-1876	16580	171	-28	37	-8472	3300	14020	84	-25	-185	-14724	4340	-5820	-17	-50	-65	-3020	2660	16568	28	-124	196	127	127	5
-7872	-2576	13708	-99	160	-202	-16144	-1044	-4032	100	-16	112	-3604	-2008	16512	164	10	66	-8480	3284	14128	93	-56	-190	-14700	4292	-5784	-27	-37	-71	-3004	2608	16536	24	-139	214	127	127	5
-7852	-2568	13664	-85	162	-177	-16080	-1008	-3952	65	-10	118	-3628	-1960	16648	174	-25	31	-8484	3292	14156	129	-48	-177	-14692	4300	-5676	-10	-70	-41	-3028	2700	16532	32	-117	182	127	127	5
-7832	-2592	13748	-68	165	-227	-16184	-980	-4012	59	-61	124	-3616	-1956	16548	181	-26	33	-8464	3344	14164	109	-51	-172	-14680	4276	-5736	-2	-33	-36	-3052	2656	16636	49	-119	191	127	127	5
-7908	-2624	13748	-82	160	-218	-16064	-972	-4060	81	-31	105	-3624	-1952	16508	172	-5	66	-8432	3232	14088	135	-74	-149	-14712	4240	-5912	14	-43	-9	-3052	2688	16568	21	-148	196	127	127	5
-7864	-2600	13616	-56	130	-196	-16056	-944	-4000	90	-36	166	-3584	-2016	16520	176	19	31	-8408	3336	14116	154	-60	-148	-14696	4344	-5664	11	-40	-37	-3028	2632	16624	21	-148	224	127	127	5
-7864	-2624	13668	-70	145	-175	-16080	-1004	-4032	71	-56	140	-3616	-1956	16552	167	-8	48	-8440	3252	14100	165	-57	-150	-14676	4324	-5744	4	-72	-62	-3008	2664	16524	51	-141	198	127	127	5
-7912	-2668	13624	-53	158	-224	-16108	-964	-3956	93	-10	173	-3552	-1968	16572	222	25	62	-8416	3316	14164	122	-49	-174	-14712	4292	-5684	12	-16	-63	-2916	2648	16556	40	-147	182	127	127	5
-7852	-2668	13608	-58	153	-203	-16160	-984	-3828	75	11	178	-3620	-1976	16556	213	-3	27	-8344	3304	14012	125	-26	-163	-14676	4280	-5636	12	-21	-64	-2996	2748	16540	82	-135	189	127	127	5
-7912	-2576	13712	-70	150	-167	-16148	-956	-3916	66	0	151	-3584	-1928	16572	203	23	71	-8456	3304	14120	131	-21	-142	-14720	4332	-5716	5	-58	3	-2968	2716	16500	56	-121	190	127	127	5
-7820	-2600	13688	-47	140	-186	-16140	-980	-4052	122	-4	145	-3576	-1960	16576	192	-21	58	-8452	3300	14032	129	-34	-178	-14668	4380	-5724	20	17	-37	-3032	2804	16528	62	-140	171	127	127	5
-7864	-2608	13584	-79	156	-206	-16132	-1008	-4056	88	-8	166	-3580	-1912	16552	205	-23	29	-8392	3268	14072	138	-39	-125	-14772	4380	-5772	-2	-17	-35	-3024	2764	16616	26	-125	193	127	127	5
-7860	-2668	13528	-33	126	-185	-16108	-960	-4040	119	-11	120	-3660	-1908	16640	219	-2	26	-8404	3300	14068	121	-29	-138	-14708	4412	-5684	-17	-36	-45	-3008	2724	16516	20	-136	201	127	126	5
-7832	-2556	13668	-12	154	-165	-16088	-916	-4188	81	3	126	-3544	-1912	16636	188	-21	62	-8416	3316	14144	141	-103	-141	-14668	4428	-5768	-12	-45	-67	-2996	2772	16524	38	-127	208	127	127	5
-7820	-2540	13792	-76	162	-149	-16104	-912	-4076	84	-53	143	-3644	-1816	16640	183	-12	56	-8452	3260	14092	94	-55	-188	-14728	4436	-5700	-6	-7	-62	-3024	2796	16580	25	-127	199	127	127	5
-7756	-2548	13656	-88	153	-185	-16084	-948	-4108	76	-48	114	-3600	-1824	16636	162	12	68	-8452	3304	14124	111	-62	-147	-14712	4380	-5720	-15	-37	-52	-3052	2772	16588	-2	-136	198	127	127	5
-7824	-2648	13600	-86	128	-188	-16088	-916	-4024	87	-28	123	-3584	-1828	16552	184	-2	82	-8468	3328	14120	95	-64	-133	-14760	4408	-5768	-20	-46	-88	-3064	2760	16584	7	-129	217	127	127	5
-7844	-2616	13612	-101	133	-206	-16052	-920	-4048	77	-36	110	-3596	-1916	16580	143	-12	79	-8436	3376	14092	78	-26	-185	-14688	4364	-5784	5	6	-78	-3012	2796	16576	-8	-113	203	127	127	5
-7856	-2592	13572	-136	169	-212	-16124	-940	-4000	97	-57	79	-3632	-1836	16604	127	9	53	-8412	3316	14160	107	-44	-179	-14708	4400	-5804	-21	-37	-107	-3036	2720	16472	23	-121	212	127	127	5
-7832	-2576	13592	-95	140	-199	-16144	-936	-4044	34	-36	96	-3620	-1920	16648	145	-4	54	-8452	3340	14212	94	-26	-176	-14668	4368	-5760	3	6	-82	-3076	2788	16580	-28	-123	226	127	127	5
-7856	-2604	13664	-137	167	-230	-16128	-972	-3980	52	-49	116	-3580	-1912	16648	117	21	68	-8416	3292	14088	104	-61	-178	-14668	4304	-5764	-22	-32	-63	-2992	2736	16640	28	-119	225	127	127	5
-7876	-2616	13628	-110	175	-228	-16156	-964	-3980	61	-14	79	-3588	-1976	16644	135	4	77	-8496	3308	14088	83	-33	-151	-14712	4372	-5668	-29	-31	-79	-3032	2704	16648	-8	-107	209	127	127	5
-7848	-2644	13608	-122	124	-190	-16100	-1056	-4044	79	-21	81	-3576	-2052	16692	148	-27	45	-8412	3304	14132	105	-51	-163	-14732	4332	-5748	-8	-11	-67	-2992	2724	16572	3	-136	198	127	127	5
-7856	-2600	13624	-103	155	-215	-16104	-980	-3932	79	-10	87	-3564	-2044	16496	135	-7	42	-8492	3248	14064	121	-56	-173	-14720	4300	-5712	-12	-25	-52	-2956	2660	16564	-6	-107	201	127	127	5
-7868	-2600	13676	-94	147	-209	-16104	-1008	-3872	83	-13	139	-3596	-2056	16500	147	3	56	-8360	3260	14148	115	-79	-183	-14668	4304	-5652	6	-37	-62	-2988	2724	16508	8	-112	216	127	127	5
-7844	-2652	13608	-96	142	-177	-16132	-1024	-3936	75	-28	111	-3612	-2068	16548	165	14	61	-8432	3284	14084	115	-47	-160	-14728	4324	-5772	5	-37	-37	-3004	2728	16468	11	-113	204	127	127	5
-7892	-2520	13620	-89	127	-175	-16108	-1012	-3968	69	-4	138	-3604	-1952	16556	152	26	39	-8432	3308	14068	122	-62	-159	-14736	4348	-5676	-26	-34	-42	-3012	2688	16468	-1	-119	182	127	127	5
-7828	-2588	13636	-105	115	-206	-16088	-968	-3984	58	52	123	-3576	-2004	16636	178	26	44	-8416	3296	14148	142	-34	-181	-14708	4316	-5816	-22	-60	-60	-3028	2684	16584	7	-109	176	127	127	5
-7812	-2596	13716	-72	115	-188	-16084	-952	-3968	73	19	147	-3652	-1960	16596	189	22	75	-8428	3296	14156	170	-107	-138	-14632	4356	-5808	-42	-7	-33	-3012	2740	16560	42	-124	181	127	127	5
-7832	-2584	13660	-107	132	-226	-16100	-1016	-4016	90	-19	124	-3680	-1888	16444	186	8	31	-8452	3340	14128	133	-26	-164	-14704	4360	-5680	-4	-30	-22	-3080	2732	16504	31	-153	210	127	127	5
-7840	-2616	13652	-97	121	-188	-16176	-936	-4104	74	3	131	-3636	-1888	16664	195	9	54	-8456	3376	14024	123	-75	-183	-14656	4388	-5740	-20	-49	-56	-3068	2708	16484	32	-156	221	127	127	5
-7860	-2648	13744	-76	152	-203	-16052	-988	-4008	97	-29	160	-3640	-1912	16636	204	28	52	-8436	3236	14156	121	-72	-175	-14680	4360	-5840	-12	-46	-24	-3068	2724	16632	6	-117	206	127	127	5
-7844	-2572	13592	-103	155	-201	-16104	-916	-3960	54	-52	118	-3568	-1832	16612	172	-51	22	-8416	3304	14020	151	-29	-207	-14656	4340	-5784	12	-27	-81	-3060	2708	16584	27	-128	211	127	127	5
-7832	-2540	13724	-77	144	-196	-16040	-936	-3992	63	-7	120	-3552	-1912	16580	173	-21	73	-8464	3264	14224	148	-48	-143	-14736	4352	-5748	48	-16	-51	-3004	2740	16532	42	-124	212	127	127	5
-7796	-2620	13636	-110	160	-171	-16156	-932	-3836	99	-17	143	-3564	-1856	16648	143	-10	70	-8496	3340	14140	102	-48	-170	-14636	4368	-5692	-4	-19	-58	-2976	2740	16620	39	-127	204	127	127	5
-7904	-2608	13624	-117	153	-211	-16120	-924	-3900	75	-74	172	-3528	-1916	16616	181	26	44	-8404	3268	14104	121	-40	-180	-14720	4320	-5684	-1	-26	-66	-3056	2712	16516	32	-114	217	127	127	5
-7768	-2624	13716	-98	147	-209	-16084	-924	-3952	71	-5	119	-3524	-1908	16664	166	16	64	-8444	3328	14076	126	-23	-173	-14644	4332	-5612	5	-43	-62	-3044	2708	16496	8	-126	205	127	127	5
-7796	-2620	13636	-85	177	-185	-16136	-952	-3964	68	-20	112	-3584	-1940	16696	161	-24	65	-8404	3224	14092	113	-71	-137	-14676	4296	-5644	-1	-7	-69	-3024	2660	16592	28	-134	217	127	127	5
-7828	-2588	13620	-90	137	-205	-16076	-1008	-4012	94	-44	121	-3608	-2020	16632	169	-21	13	-8424	3324	14088	122	-21	-171	-14700	4320	-5688	-2	-42	-68	-2988	2728	16564	13	-113	210	127	127	5
-7820	-2692	13608	-89	139	-183	-16132	-992	-4052	83	-37	132	-3588	-1988	16556	172	-22	59	-8452	3280	14088	102	-72	-170	-14744	4328	-5704	-3	-30	-24	-3012	2672	16536	9	-137	159	127	127	5
-7800	-2572	13668	-113	164	-189	-16152	-984	-3980	31	25	146	-3652	-1936	16548	183	15	17	-8420	3276	14020	101	-7	-165	-14712	4320	-5812	-2	-32	-62	-2996	2672	16660	9	-97	230	127	127	5
-7860	-2520	13588	-74	157	-242	-16124	-1024	-3996	55	-9	121	-3604	-1952	16620	188	18	47	-8432	3288	14256	131	-35	-166	-14624	4348	-5780	-19	-38	-62	-3052	2688	16564	13	-102	184	127	127	5
-7788	-2584	13652	-84	140	-194	-16140	-980	-4036	83	32	134	-3564	-1892	16532	174	-9	45	-8416	3356	14136	110	-2	-173	-14708	4364	-5800	-24	-16	-51	-3012	2680	16528	22	-111	231	127	127	5
-7832	-2656	13660	-62	166	-176	-16128	-932	-3968	62	-4	148	-3588	-1932	16576	152	1	36	-8412	3336	14112	96	-16	-153	-14684	4372	-5708	-10	-60	-68	-3008	2684	16564	-4	-117	207	127	127	5
-7820	-2596	13604	-112	109	-174	-16100	-1032	-3952	105	-7	120	-3608	-1876	16556	217	4	54	-8400	3300	14040	117	-24	-155	-14680	4340	-5660	-10	-58	-58	-3032	2676	16532	37	-118	251	127	126	5
-7840	-2600	13656	-102	134	-201	-16072	-992	-4056	73	-9	101	-3648	-1940	16636	203	-3	72	-8484	3280	14168	133	-25	-174	-14664	4288	-5760	18	-13	-39	-3056	2644	16528	20	-105	188	127	127	5
-7836	-2672	13692	-97	146	-203	-16092	-976	-4052	61	10	123	-3612	-1948	16584	176	-3	44	-8416	3264	14068	132	-80	-136	-14640	4332	-5652	1	-53	-44	-2988	2716	16528	2	-102	156	127	127	5
-7784	-2580	13620	-133	173	-188	-16128	-972	-4052	64	-49	171	-3636	-1880	16504	198	-35	35	-8412	3288	14116	107	13	-172	-14688	4352	-5744	14	-56	-64	-2996	2700	16616	23	-115	180	127	127	5
-7768	-2608	13756	-111	199	-208	-16116	-952	-4016	77	-12	110	-3556	-1928	16548	170	0	72	-8452	3264	14204	116	-43	-173	-14704	4344	-5692	2	-39	-51	-2984	2772	16580	23	-109	211	127	127	5
-7808	-2612	13624	-101	139	-210	-16088	-952	-3960	87	-44	126	-3684	-1992	16684	168	16	10	-8492	3280	14052	167	-43	-201	-14716	4360	-5652	-6	-14	-36	-3028	2780	16540	56	-139	191	127	127	5
-7844	-2580	13684	-91	131	-193	-16148	-988	-3920	99	-9	99	-3580	-1980	16632	163	-37	57	-8416	3272	14148	114	-68	-191	-14708	4396	-5760	-27	-29	-37	-2960	2648	16496	43	-93	199	127	127	5
-7812	-2644	13716	-86	119	-219	-16092	-988	-4052	79	-12	143	-3584	-1972	16624	190	-6	71	-8432	3292	14068	100	-60	-220	-14724	4320	-5736	13	-38	-52	-2964	2736	16592	47	-91	193	127	127	5
-7812	-2604	13724	-66	121	-170	-16136	-988	-3924	64	-25	124	-3644	-1944	16548	184	-22	61	-8440	3332	14148	101	-52	-168	-14676	4304	-5792	7	-44	-22	-2992	2732	16532	41	-113	214	127	127	5
-7776	-2612	13596	-78	122	-197	-16116	-948	-3968	88	-18	138	-3648	-1924	16612	186	-20	75	-8460	3300	14092	111	-78	-168	-14644	4380	-5780	-19	-25	-51	-3068	2764	16572	17	-117	216	127	127	5
-7856	-2648	13656	-55	127	-168	-16108	-956	-3944	65	15	102	-3548	-1932	16484	142	-24	51	-8464	3272	14056	113	-27	-177	-14700	4328	-5688	2	-48	-62	-3020	2716	16504	3	-109	205	127	126	5
-7852	-2576	13644	-87	157	-191	-16128	-980	-4016	71	-35	133	-3620	-1912	16624	177	1	44	-8428	3320	14068	135	-70	-169	-14664	4404	-5844	9	-37	-91	-3100	2716	16544	0	-132	207	127	127	5
-7828	-2592	13708	-103	141	-181	-16168	-1028	-4060	64	1	115	-3588	-1892	16584	193	25	47	-8416	3260	14092	121	-84	-178	-14704	4444	-5676	-28	-34	-57	-3052	2680	16560	15	-116	177	127	127	5
-7844	-2584	13768	-90	136	-202	-16088	-920	-3984	66	-30	109	-3576	-1868	16560	162	-26	29	-8396	3272	14120	104	-25	-181	-14680	4348	-5772	-20	-18	-53	-3040	2712	16528	17	-128	216	127	127	5
-7876	-2624	13704	-129	134	-200	-16176	-916	-4092	95	-51	121	-3588	-1936	16500	170	-38	48	-8380	3320	14032	121	27	-154	-14748	4264	-5800	1	-41	-95	-3084	2740	16516	47	-135	202	127	127	5
-7804	-2588	13616	-76	167	-216	-16068	-948	-3964	66	-29	95	-3632	-1936	16680	171	-18	61	-8464	3240	14084	115	-78	-151	-14772	4316	-5652	20	-59	-78	-2988	2704	16576	18	-128	215	127	127	5
-7844	-2576	13680	-81	144	-215	-16164	-996	-3996	52	-14	108	-3584	-1972	16576	120	-30	44	-8404	3332	14060	111	-63	-150	-14656	4288	-5744	-6	-56	-24	-3016	2756	16568	31	-132	194	127	127	5
-7856	-2564	13692	-116	154	-210	-16168	-964	-3924	68	-37	103	-3500	-1952	16644	135	-20	70	-8372	3296	14228	108	-58	-194	-14712	4280	-5808	26	-61	-63	-2964	2648	16536	-5	-143	181	127	127	5
-7800	-2664	13644	-153	147	-218	-16084	-1020	-3936	53	-55	100	-3528	-1964	16732	183	-13	52	-8404	3292	14020	112	-54	-154	-14740	4328	-5636	-10	-32	-76	-2952	2696	16652	30	-136	196	127	127	5
-7852	-2624	13552	-122	167	-191	-16144	-1024	-3956	75	2	117	-3612	-2012	16520	171	-19	54	-8408	3264	14008	112	-52	-167	-14652	4328	-5692	-2	-54	-41	-3012	2724	16512	24	-90	218	127	127	5
-7820	-2628	13632	-121	129	-180	-16100	-1000	-4020	68	7	136	-3672	-1992	16576	178	3	59	-8420	3316	14036	126	-68	-175	-14680	4348	-5788	-12	-11	-78	-3044	2784	16532	46	-137	201	127	127	5
-7856	-2668	13596	-77	117	-187	-16132	-996	-3980	76	-18	123	-3596	-1968	16620	194	9	62	-8452	3300	14108	114	-31	-152	-14644	4352	-5684	1	-7	-54	-3028	2708	16588	-12	-115	224	127	127	5
-7836	-2616	13728	-99	125	-175	-16076	-1008	-4048	73	28	119	-3604	-1968	16596	195	-5	18	-8436	3288	14192	122	-50	-206	-14724	4320	-5792	2	-21	-51	-3032	2696	16612	25	-96	219	127	127	5
-7904	-2580	13648	-90	112	-190	-16132	-988	-4008	88	11	152	-3596	-1980	16612	192	28	24	-8452	3224	14092	90	-18	-180	-14704	4288	-5724	31	-47	-96	-3088	2628	16504	7	-154	198	127	127	5
-7840	-2568	13676	-64	136	-193	-16044	-948	-4044	113	-20	156	-3620	-1928	16564	204	-5	41	-8416	3292	14140	108	-32	-187	-14652	4332	-5732	11	-32	-64	-2996	2672	16560	36	-122	184	127	127	5
-7840	-2568	13588	-100	118	-176	-16076	-996	-4032	101	-32	159	-3628	-1864	16656	184	0	30	-8416	3292	14116	133	-72	-155	-14756	4292	-5788	-17	-48	-16	-3036	2648	16564	23	-117	169	127	127	5
-7820	-2576	13712	-89	127	-189	-16088	-964	-3948	63	-6	109	-3584	-1832	16600	179	-6	41	-8416	3304	14132	126	-45	-175	-14696	4312	-5784	1	-79	-40	-3028	2680	16592	44	-133	191	127	127	5
-7804	-2560	13596	-97	110	-218	-16100	-876	-4056	81	-5	94	-3620	-1864	16648	152	31	60	-8476	3280	14116	147	-35	-200	-14728	4392	-5728	25	-29	-54	-3028	2588	16664	47	-120	207	127	127	5
-7848	-2544	13720	-138	132	-190	-16136	-984	-3988	66	-34	83	-3596	-1904	16560	146	-18	61	-8460	3304	14084	153	-55	-187	-14684	4328	-5820	-6	-35	-54	-3004	2696	16552	81	-117	200	127	127	5
-7876	-2580	13644	-161	162	-195	-16084	-996	-4040	97	-9	87	-3628	-1964	16588	162	-14	82	-8468	3268	14112	149	-34	-175	-14740	4364	-5800	51	-56	-51	-2984	2716	16512	23	-91	208	127	127	5
-7856	-2604	13712	-148	165	-190	-16124	-1040	-3980	74	-81	111	-3660	-1960	16500	184	-18	61	-8480	3292	14152	159	-55	-169	-14636	4368	-5708	-5	-52	-18	-3076	2684	16508	61	-138	185	127	127	5
-7840	-2588	13612	-123	147	-206	-16072	-948	-4076	61	-76	72	-3620	-1988	16616	170	-2	67	-8432	3296	14128	147	-60	-104	-14684	4308	-5844	8	-30	-53	-3008	2768	16488	33	-115	183	127	127	5
-7844	-2600	13684	-86	156	-191	-16092	-1060	-3944	78	-40	134	-3592	-1952	16584	188	-8	25	-8412	3292	14188	139	-49	-156	-14732	4356	-5800	-5	-26	-23	-2992	2780	16588	25	-141	179	127	127	5
-7804	-2612	13620	-73	171	-190	-16068	-980	-3900	80	-43	128	-3608	-1940	16552	157	-17	24	-8436	3312	14168	134	-41	-164	-14640	4388	-5728	-14	-23	-80	-2992	2768	16516	32	-139	188	127	127	5
-7816	-2636	13580	-41	135	-189	-16096	-1000	-3988	94	-13	157	-3504	-1968	16524	194	-3	54	-8488	3324	14120	91	-30	-153	-14676	4324	-5720	-3	-59	-94	-3004	2764	16580	19	-117	212	127	127	5
-7856	-2600	13656	-85	138	-197	-16100	-984	-4152	110	-19	150	-3556	-1924	16544	191	-20	43	-8412	3312	14088	119	-66	-177	-14732	4300	-5616	14	2	-61	-3000	2692	16544	2	-133	215	127	127	5
-7856	-2636	13708	-23	133	-219	-16104	-912	-3940	101	-35	165	-3572	-1964	16684	196	-9	25	-8404	3308	14092	113	-41	-144	-14664	4296	-5676	47	-53	-64	-2916	2676	16492	30	-118	219	127	127	5
-7760	-2632	13668	-88	165	-197	-16116	-920	-4032	110	-42	153	-3556	-1800	16648	163	-8	35	-8476	3320	14116	138	-50	-160	-14688	4328	-5624	15	-28	-50	-2980	2672	16548	19	-128	197	127	127	5
-7840	-2580	13664	-67	161	-191	-16080	-1000	-4092	59	-1	136	-3564	-1872	16596	166	-14	46	-8372	3316	14048	113	-79	-165	-14720	4344	-5696	-39	-7	-33	-3044	2664	16508	12	-125	181	127	127	5
-7828	-2580	13608	-92	183	-184	-16120	-916	-3984	69	-10	98	-3588	-1908	16616	153	-14	61	-8456	3196	14148	66	-24	-193	-14680	4372	-5672	31	-29	-74	-3012	2740	16500	57	-89	193	127	127	5
-7844	-2592	13700	-100	143	-160	-16076	-960	-3960	70	-27	95	-3668	-1884	16528	159	-38	67	-8416	3316	13964	127	-37	-147	-14700	4348	-5704	-7	-12	-61	-3060	2708	16556	41	-111	199	127	127	5
-7848	-2588	13724	-117	161	-203	-16088	-988	-4104	69	9	87	-3628	-1908	16544	128	24	55	-8436	3256	14144	137	-57	-179	-14728	4344	-5704	13	-37	-46	-3056	2716	16624	23	-112	205	127	127	5
-7844	-2644	13716	-98	175	-222	-16104	-1004	-4036	83	-54	110	-3628	-1956	16560	149	-10	90	-8412	3308	14184	119	-36	-167	-14644	4328	-5848	9	-48	-55	-3048	2708	16488	64	-139	188	127	127	5
-7912	-2584	13676	-88	136	-187	-16148	-972	-4052	79	-1	109	-3580	-1956	16680	196	-5	49	-8416	3296	14096	153	-17	-167	-14704	4312	-5636	-2	-85	-39	-3072	2672	16692	5	-112	179	127	127	5
-7804	-2612	13632	-84	135	-203	-16084	-1000	-4008	78	-38	112	-3576	-1984	16508	201	-34	79	-8420	3288	14084	156	-33	-131	-14732	4344	-5844	38	-19	-55	-3008	2692	16576	26	-129	193	127	126	5
-7828	-2552	13640	-102	155	-183	-16108	-968	-4024	74	-23	142	-3608	-1968	16620	162	-20	79	-8420	3268	14104	116	-56	-157	-14732	4344	-5768	-17	-57	-62	-3076	2760	16632	34	-123	205	127	126	5
-7812	-2576	13716	-73	159	-196	-16148	-1024	-3960	88	-21	162	-3524	-1988	16520	156	-34	42	-8472	3320	14152	125	-53	-162	-14664	4328	-5700	-27	-51	-43	-3064	2728	16452	28	-91	212	127	127	5
-7872	-2576	13636	-84	151	-193	-16096	-1032	-3984	81	-6	101	-3608	-1892	16504	184	5	53	-8392	3260	14072	107	-79	-194	-14716	4316	-5724	-40	-9	-39	-3016	2760	16584	61	-126	203	127	126	5
-7872	-2616	13768	-66	163	-192	-16112	-964	-4056	60	-41	113	-3612	-1984	16556	171	-15	64	-8408	3280	14232	93	-78	-169	-14756	4364	-5684	1	-49	-33	-3052	2772	16524	61	-92	175	127	127	5
-7800	-2656	13612	-88	146	-202	-16132	-960	-3988	77	-27	144	-3580	-1920	16500	196	-8	62	-8424	3308	14072	118	-21	-164	-14660	4352	-5648	-11	-53	-39	-3024	2692	16540	34	-129	225	127	127	5
-7828	-2632	13632	-71	140	-201	-16028	-976	-4088	88	-33	126	-3564	-1948	16540	180	12	27	-8464	3276	14188	145	-48	-167	-14708	4380	-5688	7	-45	-49	-3060	2720	16696	36	-134	188	127	127	5
-7912	-2608	13628	-72	128	-188	-16152	-944	-3972	55	-42	120	-3624	-1876	16512	179	8	69	-8504	3252	14120	148	-1	-151	-14688	4300	-5700	-13	-44	-81	-3064	2732	16500	19	-161	179	127	127	5
-7820	-2660	13584	-78	137	-208	-16152	-940	-3988	91	-41	64	-3544	-1936	16560	154	-28	35	-8428	3296	14120	125	-40	-153	-14640	4320	-5712	3	-69	-66	-3024	2716	16568	-3	-151	196	127	126	5
-7888	-2664	13696	-95	128	-211	-16148	-976	-3864	84	0	116	-3592	-1952	16700	177	27	50	-8500	3256	14076	146	-38	-154	-14696	4376	-5680	14	-50	-44	-2984	2680	16536	16	-121	204	127	127	5
-7824	-2564	13640	-73	131	-209	-16072	-972	-4020	93	-2	115	-3592	-1948	16544	164	-34	62	-8420	3292	14064	158	-34	-160	-14732	4360	-5812	8	-48	-7	-2940	2716	16568	36	-133	206	127	127	5
-7864	-2580	13700	-78	145	-209	-16132	-900	-4100	110	20	96	-3624	-1924	16664	187	2	45	-8444	3276	14136	131	-77	-169	-14700	4380	-5872	29	-11	-28	-3052	2716	16488	39	-130	163	127	127	5
-7860	-2612	13692	-94	176	-197	-16144	-964	-3980	110	-14	80	-3644	-1888	16620	166	-37	58	-8392	3288	14180	144	-45	-165	-14632	4356	-5704	-4	-49	-39	-3032	2780	16508	-11	-144	199	127	127	5
-7804	-2664	13700	-83	173	-209	-16108	-968	-4020	81	-12	106	-3600	-1940	16588	175	-1	36	-8432	3328	13984	115	-6	-139	-14712	4368	-5708	-23	-41	-42	-2984	2700	16572	20	-101	188	127	127	5
-7852	-2584	13612	-110	128	-182	-16124	-980	-4004	67	-17	111	-3564	-1892	16500	178	-12	63	-8424	3340	14076	87	-42	-175	-14692	4320	-5676	-1	-30	-86	-2992	2740	16528	23	-148	174	127	127	5
-7796	-2584	13680	-110	163	-199	-16112	-940	-3888	60	-38	75	-3616	-1940	16676	187	-20	88	-8400	3308	14080	114	-29	-144	-14636	4364	-5656	4	-18	-72	-2992	2720	16540	23	-129	197	127	127	5
-7812	-2628	13664	-120	172	-191	-16100	-924	-4044	73	-40	98	-3540	-1952	16664	127	-28	48	-8440	3260	14056	105	-16	-183	-14700	4400	-5744	-58	-37	-74	-3028	2752	16568	21	-153	197	127	127	5
-7852	-2608	13628	-90	122	-195	-16112	-1020	-3976	50	-17	102	-3568	-1920	16624	167	-12	62	-8476	3204	14160	106	-65	-156	-14692	4284	-5772	8	-25	-76	-3048	2724	16592	20	-115	225	127	127	5
-7804	-2648	13696	-76	183	-173	-16080	-948	-3996	71	-2	108	-3612	-2000	16488	187	1	37	-8444	3316	14192	98	-92	-150	-14724	4340	-5740	24	-39	-76	-3032	2720	16520	37	-140	216	127	126	5
-7832	-2596	13640	-76	160	-185	-16112	-968	-3924	79	24	86	-3564	-1916	16548	164	-27	30	-8416	3244	13988	94	-44	-184	-14792	4328	-5820	-10	-21	-67	-3044	2732	16536	-6	-120	199	127	127	5
-7876	-2616	13660	-108	139	-235	-16100	-1020	-3968	84	-50	103	-3652	-2020	16460	153	-14	51	-8492	3312	14104	126	-58	-148	-14684	4324	-5692	20	-26	-27	-3008	2604	16464	22	-99	169	127	126	5
-7856	-2652	13652	-91	136	-195	-16084	-940	-4032	66	-8	89	-3624	-2024	16472	176	-31	65	-8356	3320	14212	131	-44	-149	-14700	4332	-5736	24	-51	-58	-3048	2708	16632	-21	-132	182	127	127	5
-7832	-2668	13596	-71	150	-194	-16152	-1012	-3972	112	17	104	-3620	-1896	16580	182	-7	53	-8456	3268	14096	116	-45	-145	-14660	4324	-5724	-12	-20	-27	-2988	2680	16456	28	-115	180	127	127	5
-7872	-2572	13680	-113	141	-219	-16144	-952	-3964	51	-12	135	-3592	-1920	16608	174	-11	67	-8436	3264	14040	161	-57	-183	-14664	4248	-5768	-19	-45	-40	-3028	2700	16560	27	-119	185	127	127	5
-7840	-2596	13676	-126	136	-187	-16084	-944	-4000	60	-56	136	-3680	-1956	16532	181	30	68	-8424	3216	14112	130	-42	-179	-14664	4328	-5788	-21	-86	-50	-3064	2688	16600	73	-114	202	127	127	5
-7844	-2604	13676	-107	114	-212	-16100	-944	-4096	86	-32	121	-3704	-1936	16580	191	0	79	-8432	3292	14064	126	-64	-138	-14668	4372	-5692	29	-34	-16	-2996	2664	16580	54	-102	175	127	127	5
-7868	-2568	13692	-112	131	-195	-16052	-1060	-4080	120	-28	105	-3596	-1976	16504	200	-5	37	-8444	3296	14060	142	-28	-152	-14676	4352	-5812	12	-57	-7	-3056	2680	16568	59	-113	201	127	127	5
-7800	-2660	13744	-80	133	-209	-16144	-1028	-3964	61	7	148	-3596	-1956	16560	179	-40	54	-8456	3280	14136	124	-80	-131	-14692	4356	-5824	-1	-42	-21	-3028	2680	16592	51	-158	189	127	127	5
-7780	-2632	13644	-56	120	-170	-16072	-1020	-4016	82	16	147	-3564	-1948	16556	170	1	57	-8416	3356	14084	133	-78	-178	-14728	4268	-5760	22	-53	-30	-2996	2736	16608	23	-129	219	127	127	5
-7852	-2584	13628	-81	151	-193	-16120	-940	-4004	71	-14	135	-3600	-1940	16604	180	3	32	-8456	3288	14036	122	-50	-169	-14640	4436	-5712	6	-51	-42	-3064	2712	16660	35	-147	174	127	127	5
-7788	-2576	13624	-64	149	-203	-16108	-944	-3896	66	-25	140	-3556	-1940	16480	192	1	20	-8360	3324	14152	132	-40	-147	-14764	4384	-5732	20	-20	-63	-3008	2736	16492	55	-128	187	127	127	5
-7824	-2644	13704	-90	180	-204	-16040	-964	-3992	88	-23	108	-3624	-1948	16584	154	23	34	-8420	3292	14080	132	-44	-140	-14672	4312	-5724	-4	-11	-72	-3016	2748	16580	22	-131	215	127	127	5
-7888	-2600	13604	-64	144	-226	-16008	-956	-3936	98	-18	113	-3556	-1920	16572	191	-26	24	-8464	3292	13988	117	-25	-133	-14652	4384	-5736	-35	-63	-73	-2968	2680	16536	2	-119	199	127	127	5
-7820	-2624	13620	-78	188	-208	-16152	-936	-3984	114	-27	120	-3552	-1960	16520	189	-12	34	-8456	3296	13960	104	-18	-149	-14696	4340	-5736	9	-37	-81	-3012	2688	16488	28	-134	189	127	127	5
-7832	-2592	13664	-63	162	-198	-16140	-876	-3960	83	-30	112	-3556	-1896	16672	170	-21	39	-8424	3276	14160	132	-77	-152	-14676	4368	-5656	40	-54	-49	-3032	2720	16596	18	-104	201	127	127	5
-7836	-2620	13688	-69	154	-219	-16144	-892	-4004	80	-11	135	-3536	-1920	16692	181	4	8	-8440	3264	14036	111	-63	-172	-14732	4376	-5664	8	-28	-39	-3008	2716	16636	-18	-140	203	127	126	5
-7780	-2624	13640	-71	132	-219	-16132	-924	-3944	85	3	104	-3600	-1996	16564	175	-35	69	-8460	3348	14048	122	-36	-167	-14632	4364	-5796	-14	-22	-47	-3036	2732	16604	11	-140	208	127	126	5
-7816	-2668	13616	-121	185	-198	-16092	-996	-4112	104	3	102	-3560	-1896	16500	145	-19	45	-8380	3316	14084	80	-25	-183	-14708	4300	-5700	-8	-17	-83	-3000	2660	16508	34	-117	189	127	127	5
-7824	-2600	13592	-80	140	-216	-16172	-1016	-3872	73	13	77	-3608	-1996	16492	140	2	63	-8496	3268	14124	93	-21	-168	-14712	4352	-5684	-41	-31	-53	-3072	2724	16584	32	-107	183	127	127	5
-7828	-2604	13564	-123	120	-231	-16112	-1024	-4008	71	-11	124	-3572	-1944	16524	153	-24	47	-8416	3264	14060	101	-84	-154	-14736	4324	-5728	4	-51	-50	-3016	2764	16548	39	-126	190	127	127	5
-7852	-2644	13616	-84	135	-214	-16180	-964	-3876	74	-28	121	-3672	-1920	16520	157	-30	32	-8456	3244	14056	117	-32	-169	-14784	4356	-5636	5	-16	-50	-3064	2732	16456	-16	-98	198	127	127	5
-7812	-2584	13624	-89	131	-212	-16152	-972	-3916	94	-28	118	-3680	-1932	16440	136	-45	53	-8428	3240	14096	117	5	-142	-14640	4252	-5884	-4	-52	-65	-3020	2684	16584	24	-127	219	127	127	5
-7804	-2632	13696	-91	132	-198	-16076	-988	-4084	51	-61	153	-3648	-1964	16632	171	-44	55	-8436	3272	14080	149	-49	-167	-14720	4312	-5736	-9	-50	-40	-2960	2608	16556	15	-152	208	127	127	5
-7868	-2632	13600	-114	131	-206	-16144	-936	-3992	86	15	94	-3616	-1964	16716	151	-33	39	-8504	3336	14160	85	-61	-146	-14708	4340	-5628	-7	-41	-64	-3036	2672	16468	41	-147	206	127	127	5
-7812	-2592	13608	-110	150	-234	-16140	-964	-4104	64	-11	89	-3608	-1936	16596	160	38	58	-8436	3240	14116	142	-3	-203	-14740	4316	-5772	10	-50	-17	-2948	2616	16564	32	-116	182	127	126	5
-7828	-2604	13664	-72	171	-198	-16068	-936	-4036	77	-5	111	-3676	-1984	16608	190	-7	61	-8472	3264	14172	137	-100	-150	-14716	4296	-5744	-10	-50	-53	-3044	2672	16524	56	-129	225	127	127	5
-7788	-2580	13608	-49	129	-169	-16160	-1004	-4016	107	-16	129	-3536	-1904	16688	207	8	49	-8460	3264	14140	121	-54	-157	-14712	4356	-5692	12	-27	-62	-2972	2720	16568	58	-117	238	127	127	5
-7740	-2644	13688	-101	163	-211	-16068	-1008	-4056	52	16	106	-3576	-2004	16624	189	-17	58	-8424	3204	14064	156	-45	-181	-14664	4420	-5760	-16	-9	-36	-3008	2740	16572	51	-109	225	127	127	5
-7840	-2644	13600	-87	138	-195	-16140	-984	-4024	74	15	155	-3636	-1992	16676	192	-23	59	-8460	3288	13984	101	-11	-153	-14780	4364	-5840	28	-20	-23	-3052	2752	16580	56	-119	228	127	127	5
-7872	-2576	13692	-68	125	-204	-16112	-980	-4004	66	-12	133	-3588	-1932	16636	146	-23	67	-8456	3300	14008	117	-38	-167	-14732	4376	-5792	-28	-34	-53	-3028	2772	16600	31	-124	214	127	127	5
-7860	-2596	13700	-110	148	-193	-16084	-976	-3888	76	-6	141	-3628	-1932	16628	172	-11	46	-8500	3268	14068	139	-57	-177	-14696	4376	-5732	1	-28	-82	-3028	2724	16616	12	-138	193	127	127	5
-7792	-2564	13632	-62	136	-197	-16088	-992	-4060	96	-6	142	-3616	-1908	16596	175	-12	41	-8352	3332	14108	140	-74	-144	-14720	4328	-5692	-39	-19	-37	-3132	2744	16608	32	-141	208	127	127	5
-7844	-2584	13668	-67	140	-203	-16144	-956	-3972	71	24	111	-3636	-1896	16600	179	-19	41	-8432	3300	14100	118	-39	-168	-14680	4364	-5744	-18	-69	-56	-3052	2748	16588	5	-140	178	127	127	5
-7788	-2584	13640	-45	130	-182	-16084	-928	-4008	67	-5	135	-3692	-1936	16580	185	-15	63	-8444	3284	14112	117	-47	-152	-14672	4312	-5748	-31	-69	-12	-3008	2744	16500	52	-128	199	127	127	5
-7876	-2576	13604	-97	157	-214	-16100	-948	-4008	76	-40	109	-3608	-1944	16464	194	-19	61	-8428	3268	14096	110	-59	-176	-14720	4316	-5756	13	-33	-49	-3012	2676	16664	50	-132	206	127	127	5
-7840	-2592	13640	-107	145	-205	-16132	-932	-4116	67	-39	119	-3564	-1856	16620	166	-40	43	-8412	3252	14128	124	-44	-161	-14704	4316	-5700	-18	-61	-62	-2992	2728	16448	51	-129	193	127	127	5
-7828	-2560	13592	-127	137	-216	-16088	-868	-3960	57	-27	121	-3524	-1880	16628	155	4	67	-8372	3324	14152	147	-70	-144	-14716	4392	-5732	-13	-43	-37	-2900	2732	16504	52	-121	205	127	127	5
-7844	-2652	13612	-90	174	-216	-16112	-996	-3988	60	-4	105	-3556	-1984	16540	183	9	89	-8400	3300	14052	136	-80	-177	-14736	4312	-5732	31	-25	-74	-3128	2732	16624	0	-114	180	127	127	5
-7900	-2596	13708	-74	184	-217	-16112	-1032	-4016	69	-6	141	-3564	-2072	16564	154	21	61	-8452	3304	14084	122	-59	-152	-14664	4412	-5796	-52	-8	-32	-3024	2740	16580	29	-120	176	127	127	5
-7804	-2612	13620	-111	146	-198	-16124	-1012	-4004	78	43	137	-3544	-2004	16624	166	-26	74	-8460	3316	14064	134	-13	-143	-14668	4400	-5664	-1	-34	-65	-3092	2800	16564	14	-130	191	127	127	5
-7836	-2596	13612	-86	168	-135	-16132	-1008	-4000	87	10	108	-3540	-2020	16604	203	-12	31	-8352	3288	14124	130	-40	-204	-14696	4368	-5756	25	-27	-42	-3044	2752	16560	6	-141	185	127	127	5
-7884	-2648	13748	-65	138	-222	-16112	-1012	-3996	92	-49	139	-3608	-1960	16612	171	-12	31	-8344	3296	14168	85	-22	-198	-14700	4384	-5740	-16	-29	-41	-3024	2840	16604	-8	-114	182	127	127	5
-7848	-2600	13720	-64	148	-175	-16156	-964	-3980	114	-19	127	-3572	-1912	16748	157	-20	41	-8420	3284	14164	106	-35	-189	-14724	4400	-5684	4	-34	-59	-3024	2708	16536	-7	-109	189	127	127	5
-7884	-2624	13640	-77	143	-197	-16040	-916	-4136	90	30	123	-3584	-1904	16552	164	-31	27	-8452	3312	14204	129	-33	-168	-14752	4336	-5848	-34	-16	-91	-3072	2716	16452	-14	-94	198	127	127	5
-7900	-2612	13624	-120	143	-184	-16088	-908	-4064	73	2	144	-3620	-1780	16588	166	-20	47	-8444	3320	14028	141	-73	-154	-14716	4348	-5752	-7	-22	-48	-3084	2736	16556	0	-110	197	127	126	5
-7836	-2556	13664	-137	110	-202	-16100	-860	-4148	76	-15	107	-3564	-1836	16672	179	-35	77	-8400	3324	14036	118	-70	-152	-14684	4292	-5772	-5	-70	-61	-3036	2640	16648	4	-149	197	127	126	5
-7896	-2564	13632	-143	128	-208	-16120	-968	-4000	79	-70	100	-3620	-1904	16616	125	-1	89	-8444	3312	14092	152	-14	-180	-14680	4344	-5728	-28	-53	-78	-3056	2648	16572	-12	-107	192	127	127	5
-7840	-2604	13652	-158	125	-233	-16116	-976	-3968	101	-57	83	-3632	-1856	16564	116	-16	55	-8464	3324	14068	177	-36	-162	-14640	4368	-5836	2	-80	-67	-3024	2672	16564	53	-115	197	127	127	5
-7880	-2572	13664	-136	127	-225	-16084	-952	-3940	40	-50	93	-3572	-2016	16668	111	-5	57	-8428	3344	14076	121	-61	-158	-14668	4356	-5740	-10	-36	-55	-3068	2700	16640	11	-112	199	127	127	5
-7876	-2576	13660	-175	156	-223	-16128	-1000	-3948	30	-70	122	-3620	-1960	16616	144	-19	76	-8384	3296	14092	92	-16	-203	-14652	4344	-5680	7	-29	-36	-2972	2760	16632	20	-120	202	127	127	5
-7808	-2628	13632	-157	160	-188	-16080	-1016	-4004	64	-54	96	-3528	-2056	16628	139	-20	57	-8480	3260	14120	92	-41	-170	-14668	4376	-5736	20	-28	-103	-3112	2736	16464	-18	-108	198	127	127	5
-7804	-2628	13720	-116	141	-197	-16108	-1096	-3996	56	-30	101	-3676	-2104	16496	169	-11	95	-8416	3328	14036	104	-51	-140	-14656	4380	-5748	-6	-6	-43	-3024	2740	16528	42	-130	201	127	127	5
-7920	-2612	13604	-100	175	-237	-16108	-1064	-3916	85	-5	127	-3616	-2068	16584	171	-8	79	-8420	3304	14176	88	-54	-172	-14672	4364	-5640	-23	-69	-55	-3012	2768	16564	33	-114	209	127	127	5
-7864	-2596	13636	-86	136	-238	-16092	-1012	-3880	84	-24	146	-3508	-2032	16512	190	-28	28	-8500	3300	14092	66	-48	-193	-14636	4304	-5836	0	-38	-79	-2964	2676	16536	-9	-118	204	127	127	5
-7852	-2656	13624	-53	151	-194	-16168	-1020	-4028	101	-8	152	-3572	-2092	16616	217	-43	50	-8488	3276	14060	111	-51	-184	-14664	4308	-5688	-5	13	-62	-3028	2632	16572	12	-144	209	127	127	5
-7796	-2668	13684	-21	191	-188	-16112	-1060	-3980	101	-22	132	-3580	-1984	16540	195	-29	41	-8392	3324	14080	144	-78	-201	-14656	4300	-5704	8	-46	-71	-2980	2608	16500	27	-126	184	127	127	5
-7804	-2556	13592	-31	149	-151	-16144	-992	-4000	80	-21	162	-3548	-1940	16576	207	-4	65	-8444	3264	14080	128	-33	-152	-14708	4276	-5696	-4	-13	-70	-2984	2648	16604	15	-117	193	127	127	5
-7836	-2596	13676	-73	134	-195	-16132	-1008	-3972	87	-25	148	-3604	-1944	16600	215	-26	50	-8448	3232	14116	110	-47	-155	-14708	4284	-5756	-20	-29	-16	-3076	2720	16604	30	-102	210	127	127	5
-7884	-2580	13704	-67	153	-197	-16180	-1028	-3988	101	-25	151	-3588	-1908	16540	209	-17	26	-8388	3256	14160	117	-39	-131	-14684	4296	-5696	7	-27	4	-3076	2604	16536	41	-127	192	127	127	5
-7888	-2600	13668	-44	148	-201	-16096	-944	-4064	89	-6	143	-3616	-1876	16552	218	33	37	-8444	3320	14060	135	-72	-123	-14696	4384	-5792	4	-43	-56	-3016	2760	16464	55	-163	172	127	127	5
-7852	-2528	13696	-54	112	-193	-16132	-920	-4032	121	23	159	-3624	-1860	16668	162	-27	47	-8432	3296	14008	152	-27	-167	-14760	4328	-5736	32	-23	-14	-3120	2740	16640	67	-126	190	127	127	5
-7868	-2616	13652	-46	144	-147	-16112	-984	-4004	76	13	131	-3608	-1900	16588	205	-5	64	-8436	3308	14172	151	-13	-135	-14736	4344	-5748	23	-45	-51	-3068	2788	16548	49	-128	130	127	127	5
-7828	-2560	13560	-88	174	-195	-16104	-900	-3968	55	-85	161	-3536	-1888	16580	185	-31	38	-8452	3304	14084	187	-12	-115	-14700	4368	-5720	22	-68	-53	-2960	2776	16528	39	-126	182	127	127	5
-7840	-2664	13588	-90	157	-236	-16108	-900	-3968	88	-22	123	-3584	-1916	16684	182	-24	23	-8428	3364	14012	138	-85	-107	-14700	4392	-5716	31	-32	-41	-2960	2840	16508	23	-126	175	127	127	5
-7848	-2544	13672	-98	135	-214	-16140	-968	-3924	61	-35	117	-3608	-1844	16476	181	-41	36	-8452	3316	14112	137	-15	-157	-14696	4484	-5736	12	-43	-52	-3020	2840	16512	16	-124	213	127	127	5
-7844	-2616	13676	-117	141	-161	-16092	-956	-4012	99	-33	140	-3596	-1940	16568	165	-5	68	-8488	3312	14124	126	-57	-144	-14664	4444	-5740	-3	-32	-87	-3016	2804	16468	-11	-130	196	127	127	5
-7836	-2592	13568	-122	155	-220	-16072	-952	-4024	90	-18	109	-3600	-1900	16604	174	-7	55	-8456	3292	14052	109	-62	-146	-14728	4436	-5704	-20	-25	-89	-2964	2800	16632	-25	-155	206	127	127	5
-7824	-2580	13688	-86	136	-200	-16112	-956	-3948	87	-27	88	-3584	-1872	16600	139	-14	62	-8436	3304	14192	88	-40	-160	-14748	4408	-5600	-21	49	-115	-3024	2792	16596	11	-101	228	127	127	5
-7860	-2576	13584	-111	165	-210	-16160	-936	-4060	48	-27	129	-3592	-1964	16572	179	11	60	-8440	3324	14104	75	-44	-160	-14672	4376	-5700	-16	-28	-135	-3000	2748	16528	-28	-114	210	127	127	5
-7788	-2616	13744	-123	195	-246	-16112	-940	-4088	72	-84	71	-3648	-1928	16632	149	28	62	-8464	3260	14068	43	-57	-202	-14740	4324	-5668	-33	-8	-97	-3036	2752	16580	-33	-92	224	127	127	5
-7856	-2576	13704	-113	147	-196	-16036	-976	-3940	77	-30	94	-3552	-1976	16484	107	22	73	-8436	3300	14172	93	-57	-187	-14740	4320	-5780	-5	-2	-117	-3084	2688	16636	-4	-120	218	127	127	5
-7884	-2656	13540	-149	164	-195	-16140	-1036	-3916	91	-22	58	-3568	-1928	16628	125	1	58	-8472	3276	14096	98	-43	-175	-14708	4272	-5700	0	-18	-77	-3028	2640	16628	-43	-129	246	127	127	5
-7788	-2584	13696	-133	164	-192	-16136	-1064	-3976	81	-2	112	-3620	-1940	16504	149	1	54	-8424	3296	14016	72	-65	-214	-14676	4344	-5720	-6	-2	-71	-3064	2640	16556	-14	-125	188	127	127	5
-7828	-2656	13660	-73	125	-193	-16172	-908	-4020	105	-69	141	-3708	-1924	16624	147	-4	55	-8484	3248	14088	101	-6	-206	-14712	4332	-5752	-6	-29	-93	-3088	2664	16540	-14	-113	214	127	127	5
-7840	-2640	13692	-79	158	-191	-16080	-1040	-3916	79	-38	73	-3644	-1980	16540	132	-10	54	-8404	3304	14132	131	-85	-145	-14688	4324	-5740	-4	-10	-80	-3028	2636	16460	0	-138	201	127	127	5
-7888	-2584	13620	-66	152	-191	-16144	-1000	-3976	57	-56	138	-3616	-2040	16576	183	-23	74	-8404	3348	14060	124	-38	-148	-14764	4268	-5708	-7	-44	-4	-3000	2564	16468	27	-118	198	127	127	5
-7844	-2612	13708	-104	155	-180	-16120	-1000	-4028	68	-41	132	-3616	-2004	16524	201	5	58	-8416	3296	14092	136	-17	-173	-14696	4320	-5896	26	-21	-34	-3052	2640	16628	44	-136	220	127	127	5
-7812	-2620	13676	-79	156	-197	-16144	-988	-3912	64	-14	166	-3600	-2036	16472	197	3	46	-8436	3372	14124	169	-52	-148	-14640	4284	-5660	16	-13	-13	-3008	2704	16584	47	-126	192	127	126	5
-7908	-2672	13756	-85	151	-189	-16152	-1028	-3992	107	6	128	-3584	-2004	16672	218	-21	28	-8452	3368	14020	158	-3	-141	-14752	4316	-5776	34	-38	-3	-3068	2744	16588	35	-110	177	127	127	5
-7856	-2612	13640	-45	139	-207	-16108	-1044	-4008	99	-30	167	-3584	-2032	16608	223	37	25	-8520	3288	14108	186	-5	-130	-14720	4380	-5752	-28	-31	-19	-3004	2768	16552	37	-146	189	127	127	5
-7848	-2576	13556	-56	135	-185	-16184	-984	-3972	77	-13	169	-3608	-1932	16660	202	-30	20	-8484	3288	14072	155	-38	-142	-14712	4348	-5784	46	-76	-18	-3004	2756	16620	48	-146	156	127	127	5
-7816	-2644	13640	-9	135	-200	-16212	-900	-4008	106	7	193	-3532	-1960	16564	204	7	25	-8400	3300	14100	154	-28	-131	-14668	4312	-5740	35	-57	-51	-3024	2768	16500	19	-144	152	127	127	5
-7836	-2612	13700	-54	122	-195	-16148	-948	-3956	91	-44	188	-3580	-1908	16612	175	24	15	-8396	3304	14140	143	-43	-165	-14740	4300	-5700	28	-31	-61	-2948	2756	16580	31	-135	179	127	127	5
-7804	-2532	13648	-40	142	-202	-16080	-908	-4080	114	-25	144	-3656	-1972	16616	198	11	17	-8416	3344	14124	132	-35	-155	-14696	4432	-5704	55	-4	-51	-3004	2764	16532	12	-132	165	127	127	5
-7860	-2536	13620	-75	145	-174	-16124	-928	-4080	121	11	125	-3620	-1860	16544	181	12	44	-8472	3320	13996	122	-48	-195	-14708	4380	-5676	-15	-4	-56	-3000	2800	16424	22	-116	197	127	127	5
-7860	-2568	13768	-95	142	-172	-16132	-916	-4084	85	-33	124	-3648	-1772	16544	180	4	52	-8476	3264	14132	133	-42	-187	-14688	4312	-5752	-1	-40	-74	-3032	2784	16516	46	-115	226	127	127	5
-7856	-2576	13660	-96	123	-230	-16068	-832	-3948	77	-37	83	-3616	-1876	16624	169	28	82	-8404	3324	14160	118	-93	-170	-14712	4408	-5692	5	-39	-68	-3000	2804	16596	20	-100	232	127	126	5
-7892	-2568	13572	-125	109	-206	-16136	-904	-4112	50	-8	106	-3552	-1844	16620	164	-5	82	-8372	3240	14028	140	-12	-151	-14700	4356	-5752	17	-31	-57	-3068	2760	16516	25	-106	233	127	127	5
-7816	-2552	13616	-151	167	-221	-16112	-960	-4016	41	-56	151	-3620	-1956	16464	142	10	58	-8428	3332	14088	120	-60	-167	-14696	4328	-5696	2	13	-63	-3052	2736	16460	30	-115	236	127	127	5
-7832	-2604	13620	-125	151	-207	-16088	-1000	-4008	62	-6	105	-3620	-1916	16628	150	-2	78	-8360	3320	14024	114	-116	-168	-14632	4368	-5828	16	-23	-53	-2960	2772	16536	39	-118	221	127	127	5
-7848	-2616	13624	-112	140	-187	-16088	-980	-4080	61	-65	106	-3596	-1956	16540	163	-33	82	-8436	3364	14172	82	-59	-185	-14668	4344	-5788	-25	9	-111	-3040	2788	16556	1	-101	203	127	127	5
-7808	-2588	13608	-88	148	-234	-16172	-996	-3996	31	-84	66	-3596	-1892	16584	158	-14	66	-8416	3360	14076	83	-64	-184	-14712	4416	-5728	-10	-27	-99	-2968	2744	16552	9	-107	215	127	127	5
-7844	-2580	13688	-113	145	-203	-16080	-984	-4116	99	-24	71	-3572	-1960	16512	128	-8	59	-8464	3288	14140	77	-77	-197	-14712	4356	-5684	-28	-15	-107	-3060	2704	16488	-9	-112	211	127	127	5
-7828	-2584	13748	-118	134	-187	-16116	-948	-4068	76	-22	86	-3600	-2044	16652	145	-9	42	-8388	3332	14172	66	-41	-190	-14696	4272	-5832	-24	-40	-106	-3072	2636	16444	-9	-124	200	127	127	5
-7880	-2588	13616	-46	130	-175	-16104	-1004	-3976	75	-20	111	-3660	-2020	16544	146	-20	62	-8416	3308	14020	109	-31	-189	-14768	4308	-5716	12	-34	-80	-3004	2692	16552	1	-140	199	127	127	5
-7884	-2648	13696	-88	159	-198	-16192	-1012	-4048	97	-71	116	-3636	-1968	16472	160	18	61	-8436	3304	14208	101	-56	-188	-14712	4256	-5720	-5	-44	-87	-3076	2648	16564	21	-147	212	127	127	5
-7836	-2620	13648	-72	179	-191	-16160	-964	-3968	70	-60	110	-3588	-2000	16636	173	-8	34	-8440	3252	14164	136	-1	-161	-14632	4312	-5716	24	-15	-77	-3080	2592	16524	-4	-130	184	127	127	5
-7860	-2600	13604	-85	167	-173	-16132	-960	-3928	82	-40	138	-3624	-1928	16724	169	-20	37	-8436	3248	13956	125	-48	-199	-14708	4220	-5820	-19	8	-82	-3044	2632	16468	33	-112	193	127	127	5
-7824	-2592	13644	-74	152	-202	-16136	-956	-3984	53	3	90	-3612	-1956	16648	180	-9	44	-8412	3284	14108	148	-66	-165	-14716	4280	-5700	16	-68	-17	-3052	2620	16572	23	-124	208	127	127	5
-7924	-2620	13716	-73	160	-227	-16176	-984	-4080	66	-29	123	-3604	-1896	16688	172	-18	39	-8440	3236	14084	147	1	-168	-14720	4384	-5832	18	-88	-21	-3088	2604	16504	27	-104	155	127	127	5
-7776	-2636	13760	-40	139	-195	-16144	-936	-3952	95	-1	120	-3608	-1932	16464	169	-4	22	-8432	3316	14124	165	-91	-144	-14712	4292	-5780	42	-49	-23	-3032	2732	16548	41	-138	184	127	127	5
-7776	-2624	13684	-72	101	-156	-16172	-976	-4124	103	-56	150	-3620	-2004	16652	201	-41	38	-8424	3296	14052	135	-58	-165	-14704	4344	-5800	21	-28	-45	-2944	2708	16560	48	-131	171	127	127	5
-7832	-2608	13584	-69	146	-217	-16124	-904	-4044	107	4	139	-3608	-1916	16640	182	4	50	-8436	3320	14116	139	-60	-182	-14644	4380	-5708	16	-55	-33	-2956	2760	16544	59	-157	142	127	127	5
-7776	-2628	13700	-64	135	-192	-16124	-924	-4048	97	0	111	-3584	-1956	16624	160	-6	42	-8444	3348	13984	141	-86	-120	-14756	4404	-5656	-12	-52	-48	-2980	2764	16600	58	-119	203	127	127	5
-7820	-2592	13708	-77	165	-190	-16068	-956	-4020	19	6	130	-3556	-1884	16620	182	-6	45	-8436	3364	14036	108	-37	-154	-14692	4392	-5712	-46	-22	-74	-2976	2792	16548	14	-126	228	127	127	5
-7832	-2556	13596	-85	128	-212	-16096	-948	-4072	46	-8	158	-3604	-1900	16536	184	22	92	-8392	3348	14112	86	-34	-192	-14724	4416	-5616	-22	-17	-62	-3012	2772	16532	8	-106	254	127	127	5
-7844	-2548	13600	-108	142	-207	-16164	-936	-4008	79	-45	132	-3608	-1912	16552	180	0	91	-8400	3292	13992	104	-67	-192	-14700	4344	-5652	-42	7	-78	-2976	2732	16520	9	-112	274	127	126	5
-7848	-2608	13620	-115	156	-186	-16168	-972	-4004	67	-25	110	-3584	-1924	16652	207	20	56	-8408	3276	14096	70	-43	-179	-14708	4296	-5736	-49	25	-76	-2980	2756	16544	9	-89	252	127	127	5
-7864	-2624	13508	-133	157	-215	-16144	-912	-4068	84	-59	129	-3584	-1980	16576	222	19	63	-8452	3284	14160	66	-59	-191	-14620	4312	-5720	41	6	-81	-2936	2704	16568	-37	-120	215	127	127	5
-7804	-2640	13644	-92	139	-190	-16108	-960	-3992	87	-7	119	-3628	-1976	16628	143	39	67	-8504	3268	14176	103	-57	-179	-14724	4304	-5816	5	-14	-105	-3092	2668	16556	-28	-80	193	127	127	5
-7872	-2600	13584	-82	169	-200	-16156	-1028	-4024	63	-1	122	-3636	-1928	16584	181	13	49	-8444	3300	14036	98	-59	-175	-14656	4336	-5828	-21	0	-79	-3148	2636	16584	-29	-108	187	127	127	5
-7856	-2616	13616	-95	178	-194	-16104	-1000	-3996	42	41	113	-3708	-1988	16580	143	31	19	-8472	3260	14112	102	-85	-198	-14744	4316	-5872	7	-54	-57	-3116	2632	16540	-13	-122	163	127	127	5
-7848	-2644	13576	-42	156	-218	-16132	-1004	-4088	66	-17	110	-3712	-2020	16528	166	-12	18	-8476	3272	14128	113	-1	-142	-14656	4240	-5820	39	-54	-17	-3104	2564	16532	-36	-121	201	127	127	5
-7872	-2580	13652	-48	143	-168	-16104	-1024	-4056	92	-40	120	-3684	-1956	16564	160	-19	21	-8460	3228	14152	119	-31	-160	-14676	4248	-5852	17	-32	-29	-3144	2596	16524	23	-116	161	127	127	5
-7796	-2500	13676	-77	162	-201	-16124	-928	-4088	61	-60	146	-3676	-1984	16684	187	14	39	-8464	3316	14068	140	-40	-125	-14740	4312	-5800	45	-65	-30	-3068	2576	16600	71	-110	188	127	127	5
-7832	-2616	13700	-80	150	-204	-16076	-936	-4024	99	-45	130	-3644	-1872	16648	216	-17	59	-8392	3300	14124	150	-36	-138	-14632	4280	-5780	33	-86	0	-2980	2556	16564	75	-152	178	127	127	5
-7824	-2648	13636	-96	179	-173	-16136	-924	-3836	104	-27	184	-3572	-1896	16572	201	-45	21	-8444	3240	14104	174	-82	-136	-14712	4308	-5596	32	-85	-16	-3020	2612	16500	71	-147	174	127	127	5
-7788	-2560	13776	-91	150	-191	-16120	-988	-4052	108	-13	169	-3580	-1896	16620	181	7	51	-8408	3304	14080	200	-43	-133	-14688	4256	-5764	3	-75	11	-2964	2672	16536	63	-128	162	127	127	5
-7856	-2572	13676	-92	136	-201	-16168	-936	-3984	57	10	140	-3532	-1972	16460	164	-10	31	-8400	3236	14132	183	-34	-144	-14716	4360	-5704	28	-73	11	-2972	2748	16600	85	-141	153	127	127	5
-7792	-2640	13616	-53	150	-181	-16060	-968	-3980	82	-4	130	-3568	-1968	16688	179	-23	31	-8424	3292	14072	186	-25	-137	-14800	4360	-5604	53	-41	5	-2924	2756	16468	32	-133	137	127	127	5
-7912	-2680	13748	-102	135	-214	-16112	-1004	-3968	98	-9	147	-3528	-1976	16668	148	-33	51	-8452	3352	14220	181	-26	-143	-14704	4384	-5712	43	-34	-16	-2868	2808	16512	59	-135	139	127	127	5
-7832	-2584	13572	-57	159	-181	-16108	-1012	-4096	104	0	132	-3596	-2032	16540	173	1	57	-8388	3320	14056	134	3	-170	-14676	4492	-5692	20	-12	-43	-2984	2864	16488	25	-122	184	127	127	5
-7840	-2588	13644	-69	129	-194	-16052	-924	-4044	61	11	135	-3592	-1964	16592	194	-32	74	-8480	3316	14180	137	-56	-181	-14616	4488	-5764	-36	-23	-36	-3004	2928	16560	4	-103	195	127	127	5
-7848	-2608	13596	-100	84	-228	-16068	-872	-4044	23	2	155	-3660	-1876	16540	171	-47	67	-8492	3364	14132	86	-22	-177	-14708	4480	-5692	-45	25	-36	-2960	2824	16532	24	-96	247	127	127	5
-7836	-2600	13720	-84	138	-178	-16104	-884	-3960	73	-35	116	-3620	-1900	16508	184	-11	92	-8452	3360	14212	69	-43	-154	-14716	4432	-5708	-52	31	-89	-3068	2816	16480	19	-75	261	127	127	5
-7820	-2552	13692	-141	147	-232	-16132	-960	-4028	11	-76	110	-3616	-1896	16652	191	20	109	-8388	3312	14120	47	-52	-196	-14704	4412	-5632	-67	-14	-90	-3012	2760	16492	-22	-86	290	127	127	5
-7880	-2612	13572	-155	124	-219	-16152	-944	-3992	64	-54	116	-3604	-1888	16560	145	22	86	-8408	3264	14024	39	-71	-191	-14728	4396	-5784	-75	6	-147	-3048	2736	16520	3	-125	279	127	127	5
-7888	-2632	13612	-172	141	-240	-16148	-1000	-4060	46	-26	106	-3612	-1852	16472	168	-26	89	-8464	3240	14112	48	-75	-196	-14692	4276	-5824	-47	-23	-115	-3044	2584	16432	-12	-109	233	127	127	5
-7808	-2588	13676	-114	156	-209	-16040	-928	-4064	50	-32	67	-3524	-1892	16552	122	-16	73	-8376	3292	14164	73	-80	-195	-14708	4312	-5740	-3	-24	-98	-3084	2624	16684	2	-111	258	127	127	5
-7788	-2584	13708	-157	141	-237	-16084	-868	-4024	53	-19	57	-3592	-1888	16684	152	3	79	-8352	3256	14192	99	-84	-186	-14636	4300	-5736	-9	-24	-118	-3044	2616	16560	-13	-133	213	127	127	5
-7812	-2604	13572	-188	155	-221	-16164	-932	-3904	12	-13	66	-3584	-2016	16556	142	-15	47	-8464	3224	14060	81	-59	-173	-14664	4264	-5764	-46	14	-91	-3060	2588	16592	2	-127	210	127	127	5
-7876	-2636	13684	-130	162	-232	-16096	-1012	-3996	61	7	84	-3528	-1956	16584	74	-32	61	-8408	3252	14108	68	-19	-160	-14720	4288	-5816	17	-30	-89	-3012	2624	16564	3	-105	145	127	127	5
-7820	-2648	13700	-128	164	-203	-16092	-1064	-3900	66	-58	111	-3588	-2016	16552	110	13	81	-8472	3324	14064	134	-59	-123	-14732	4260	-5812	-8	-20	-76	-3064	2652	16488	3	-126	125	127	126	5
-7884	-2608	13572	-96	151	-238	-16100	-992	-3920	85	-58	103	-3700	-2116	16608	151	-11	27	-8444	3232	14200	135	-30	-183	-14724	4288	-5696	11	-12	-37	-3008	2664	16648	4	-135	182	127	127	5
-7888	-2628	13552	-113	153	-203	-16048	-1036	-3892	70	-15	133	-3652	-2040	16520	180	-19	54	-8420	3276	14132	137	-56	-165	-14596	4328	-5844	28	-52	-40	-3016	2696	16616	45	-146	146	127	127	5
-7836	-2656	13624	-72	164	-203	-16104	-1096	-4084	87	-51	147	-3660	-2060	16584	187	-37	19	-8448	3260	14080	146	-39	-154	-14676	4368	-5716	6	-54	-70	-3116	2688	16520	32	-128	177	127	127	5
-7732	-2588	13660	-54	200	-188	-16100	-1104	-4056	53	-34	146	-3632	-2064	16620	149	0	33	-8448	3296	14132	159	-35	-140	-14640	4460	-5664	10	-51	-38	-3112	2704	16520	35	-144	178	127	127	5
-7792	-2652	13664	-50	162	-158	-16132	-1012	-4068	115	-11	163	-3636	-1988	16588	185	23	-19	-8420	3332	14108	129	10	-152	-14648	4232	-5808	-4	-84	-57	-3064	2668	16480	42	-119	179	127	127	5
-7864	-2560	13748	-55	108	-189	-16060	-964	-4096	135	1	167	-3628	-1956	16600	217	-5	-7	-8404	3288	14108	159	-29	-101	-14668	4308	-5812	-1	-93	-74	-3044	2628	16524	41	-136	188	127	127	5
-7844	-2612	13644	-12	139	-175	-16104	-920	-4040	92	-4	160	-3572	-1900	16528	187	-34	6	-8484	3252	14060	170	-13	-155	-14720	4340	-5668	3	-33	-45	-3024	2684	16580	36	-118	189	127	127	5
-7848	-2604	13700	-32	165	-189	-16132	-920	-3992	115	-16	165	-3588	-1896	16628	190	18	29	-8392	3244	14008	138	-30	-155	-14692	4300	-5604	0	-60	-19	-2988	2580	16656	82	-156	173	127	127	5
-7804	-2600	13680	-41	163	-187	-16088	-940	-4004	87	-19	180	-3544	-1840	16544	221	-20	31	-8416	3320	14108	161	-71	-125	-14712	4260	-5672	3	-55	-34	-2996	2712	16468	47	-133	206	127	127	5
-7832	-2596	13576	-51	112	-199	-16104	-960	-4212	62	-39	133	-3596	-1924	16616	202	-23	54	-8440	3288	14132	151	-69	-139	-14736	4340	-5720	58	-39	-20	-3012	2716	16572	74	-129	168	127	127	5
-7860	-2644	13588	-93	139	-201	-16128	-952	-3992	90	-30	142	-3576	-1856	16520	170	1	92	-8460	3364	14080	134	-39	-151	-14692	4356	-5748	19	-57	4	-3000	2760	16560	53	-93	180	127	127	5
-7784	-2604	13708	-109	159	-184	-16108	-1012	-4036	89	5	111	-3636	-1964	16568	209	-8	81	-8404	3260	14276	113	-27	-175	-14672	4428	-5692	-1	-17	-21	-3004	2784	16660	59	-125	206	127	126	5
-7828	-2596	13652	-93	109	-202	-16112	-880	-4016	71	-34	117	-3592	-1956	16560	190	-25	65	-8412	3292	14104	161	-93	-139	-14692	4412	-5640	-4	4	4	-3016	2844	16476	75	-140	232	127	127	5
-7848	-2572	13652	-77	156	-204	-16116	-916	-4048	75	-19	126	-3508	-1872	16576	210	8	103	-8424	3380	14200	124	-54	-160	-14724	4348	-5616	-21	-31	-84	-2996	2776	16460	37	-133	228	127	127	5
-7840	-2576	13620	-91	158	-197	-16168	-940	-4076	60	-26	158	-3560	-1980	16484	162	14	70	-8520	3336	14148	121	-77	-188	-14680	4352	-5640	-32	-25	-48	-3020	2780	16556	32	-105	257	127	127	5
-7812	-2632	13676	-90	182	-207	-16120	-944	-4112	80	-25	144	-3628	-1972	16656	151	-9	73	-8404	3284	14056	69	-96	-213	-14740	4320	-5768	-38	-15	-41	-3076	2768	16440	5	-109	214	127	127	5
-7816	-2564	13600	-61	163	-204	-16184	-984	-4012	86	-15	122	-3652	-1972	16500	162	-23	40	-8400	3276	14032	83	-78	-185	-14744	4380	-5660	-22	-1	-111	-3064	2728	16560	15	-119	227	127	127	5
-7852	-2612	13600	-115	165	-211	-16128	-964	-3948	75	-14	118	-3588	-1912	16548	196	4	24	-8388	3260	14000	67	-31	-202	-14716	4352	-5764	0	-3	-71	-3016	2724	16620	-4	-117	242	127	127	5
-7876	-2592	13576	-63	143	-195	-16104	-972	-3932	91	-18	141	-3676	-1908	16600	156	-27	64	-8400	3232	14068	77	-51	-146	-14700	4292	-5740	-1	-15	-95	-3012	2728	16600	10	-104	220	127	127	5
-7848	-2616	13680	-97	168	-191	-16068	-964	-4068	85	0	126	-3608	-1880	16584	166	-43	64	-8452	3336	14072	48	-63	-180	-14672	4256	-5744	9	-29	-75	-3088	2636	16572	9	-117	191	127	127	5
-7840	-2588	13660	-90	162	-196	-16044	-916	-4120	90	-49	138	-3636	-1856	16448	171	-25	51	-8440	3268	14116	101	-23	-165	-14732	4392	-5780	-42	-37	-91	-3072	2660	16552	-1	-137	204	127	127	5
-7860	-2580	13688	-107	136	-209	-16116	-1012	-4036	97	-13	125	-3636	-1924	16504	165	-25	49	-8484	3224	14180	130	-73	-153	-14724	4324	-5812	-12	-50	-87	-3116	2684	16480	16	-115	188	127	127	5
-7800	-2580	13692	-109	163	-189	-16144	-1044	-4064	90	-43	125	-3612	-1932	16612	162	-3	45	-8476	3332	14128	135	-74	-160	-14672	4336	-5772	15	-56	-40	-3060	2648	16528	15	-133	166	127	127	5
-7780	-2612	13656	-109	140	-192	-16088	-1000	-4088	83	-28	146	-3624	-2020	16588	130	-54	17	-8480	3280	14036	117	-71	-130	-14792	4312	-5736	3	-50	-66	-3080	2712	16620	9	-121	168	127	127	5
-7860	-2644	13600	-97	145	-213	-16132	-980	-3976	78	-22	98	-3576	-1964	16568	130	9	28	-8440	3320	14052	137	-4	-163	-14692	4316	-5784	23	-33	-15	-3000	2696	16556	17	-126	168	127	127	5
-7812	-2668	13688	-106	154	-219	-16056	-1044	-4116	68	-11	127	-3612	-1892	16612	164	14	29	-8444	3280	14164	175	-45	-162	-14712	4300	-5604	15	-43	-18	-2928	2680	16476	-11	-119	178	127	127	5
-7852	-2544	13564	-112	135	-188	-16056	-1032	-3892	66	-6	144	-3604	-1992	16576	143	-1	42	-8424	3324	14088	113	-23	-169	-14752	4384	-5700	-25	-18	-56	-2984	2756	16616	2	-107	183	127	127	5
-7856	-2584	13608	-146	132	-191	-16076	-952	-4000	66	4	102	-3640	-1964	16592	142	0	75	-8416	3324	14016	146	-34	-159	-14752	4388	-5580	10	-26	-36	-2992	2768	16464	21	-82	180	127	127	5
-7836	-2648	13640	-82	137	-198	-16116	-1004	-4048	56	3	113	-3608	-1972	16588	168	-14	50	-8420	3292	14152	111	-62	-173	-14740	4412	-5760	36	4	-42	-3040	2736	16500	20	-124	191	127	127	5
-7832	-2608	13656	-115	100	-245	-16108	-1020	-4036	52	-4	115	-3572	-1992	16636	148	-1	87	-8392	3324	14092	111	-22	-191	-14732	4348	-5728	13	-17	-60	-3004	2744	16624	1	-98	253	127	127	5
-7884	-2608	13628	-99	120	-186	-16092	-1072	-4144	84	2	132	-3644	-1988	16536	181	-2	67	-8412	3320	14124	117	-117	-173	-14720	4432	-5812	-15	-18	-70	-3128	2752	16488	24	-160	244	127	127	5
-7824	-2596	13604	-74	144	-186	-16080	-980	-3980	87	0	129	-3620	-1844	16632	148	-11	61	-8392	3220	14036	106	-50	-180	-14704	4376	-5768	-40	-19	-73	-3064	2748	16568	7	-128	218	127	127	5
-7860	-2556	13656	-73	145	-210	-16084	-1008	-3964	65	-24	101	-3580	-1940	16468	147	18	36	-8464	3272	14096	88	-29	-164	-14692	4408	-5804	-24	-22	-83	-3060	2688	16448	-7	-122	204	127	127	5
-7824	-2576	13540	-97	160	-176	-16088	-948	-3920	58	-25	123	-3556	-1984	16664	193	-8	45	-8448	3300	13996	92	-53	-187	-14728	4320	-5692	6	-17	-57	-3100	2684	16604	33	-116	232	127	127	5
-7788	-2568	13644	-80	158	-200	-16084	-940	-4004	74	-11	120	-3540	-1824	16820	176	2	53	-8372	3292	14100	62	-72	-149	-14656	4312	-5812	-4	-44	-76	-2992	2668	16476	33	-123	239	127	127	5
-7836	-2544	13640	-100	184	-194	-16104	-956	-3952	73	-38	109	-3572	-1928	16616	122	-7	52	-8492	3288	14076	105	-67	-153	-14744	4276	-5740	8	-32	-76	-3028	2684	16568	43	-132	209	127	127	5
-7852	-2608	13608	-98	144	-216	-16148	-908	-3880	91	-50	129	-3644	-1884	16636	159	-52	76	-8424	3232	14164	114	-54	-154	-14716	4296	-5776	-21	-48	-33	-3004	2648	16616	41	-141	207	127	127	5
-7868	-2608	13632	-74	178	-200	-16108	-976	-3976	104	-95	102	-3568	-1976	16508	209	-34	66	-8416	3364	14072	119	-107	-142	-14684	4336	-5756	4	-43	-32	-3008	2612	16556	46	-109	181	127	127	5
-7896	-2608	13692	-58	156	-178	-16048	-1028	-3916	46	-22	125	-3560	-2032	16624	176	-15	37	-8476	3244	14148	138	-91	-176	-14696	4344	-5776	1	-37	-47	-2992	2708	16644	17	-92	210	127	127	5
-7840	-2624	13568	-108	153	-176	-16088	-980	-3948	46	-22	102	-3656	-2044	16572	202	-20	71	-8424	3300	14056	112	-16	-161	-14712	4360	-5700	-32	2	-25	-3060	2720	16564	46	-108	207	127	126	5
-7852	-2628	13664	-65	160	-186	-16040	-1000	-3992	97	-15	124	-3596	-1984	16608	207	4	43	-8416	3264	14132	140	-40	-170	-14708	4376	-5800	26	-1	-36	-3068	2736	16536	51	-140	208	127	127	5
-7840	-2608	13676	-81	170	-204	-16120	-1024	-3944	114	-40	130	-3624	-2004	16636	226	-7	21	-8472	3300	14068	131	-50	-147	-14692	4284	-5664	-1	-30	-46	-3012	2772	16540	17	-137	176	127	127	5
-7852	-2672	13600	-15	156	-184	-16048	-1016	-4016	132	-10	149	-3596	-1908	16560	216	20	36	-8460	3344	14124	128	-33	-140	-14764	4328	-5692	40	-62	-52	-3076	2744	16568	17	-119	194	127	127	5
-7900	-2616	13696	-45	133	-197	-16164	-920	-3968	106	-59	160	-3640	-1936	16632	198	38	10	-8424	3232	14012	130	-12	-173	-14720	4340	-5724	-18	-18	-42	-3000	2748	16600	37	-114	178	127	127	5
-7904	-2572	13644	-47	158	-179	-16132	-964	-4000	96	-53	149	-3596	-1832	16524	166	-4	52	-8360	3308	14048	143	-72	-145	-14724	4376	-5788	1	-48	-24	-3004	2756	16576	39	-102	173	127	127	5
-7844	-2552	13696	-52	143	-197	-16092	-952	-4044	82	-21	176	-3612	-1844	16652	173	9	62	-8472	3304	14060	142	-69	-158	-14588	4356	-5676	-15	-54	-28	-3004	2716	16596	62	-144	188	127	127	5
-7804	-2664	13652	-74	146	-216	-16152	-848	-4024	66	-23	166	-3620	-1868	16508	161	-1	48	-8428	3316	14108	125	-31	-165	-14740	4328	-5684	-6	-26	-21	-3020	2668	16512	56	-135	202	127	127	5
-7844	-2600	13712	-134	133	-218	-16140	-940	-4064	89	2	132	-3640	-1932	16588	169	-6	47	-8452	3324	14224	117	-56	-176	-14704	4320	-5664	15	-34	-68	-3052	2760	16472	0	-126	210	127	127	5
-7808	-2596	13656	-73	173	-200	-16120	-880	-4020	99	-51	149	-3620	-1948	16556	146	-12	71	-8428	3316	14020	112	-84	-177	-14684	4420	-5700	-9	-48	-64	-3064	2784	16508	43	-106	207	127	127	5
-7820	-2504	13724	-130	124	-213	-16168	-920	-3964	84	-70	97	-3608	-1920	16564	150	-14	48	-8488	3384	13968	134	-70	-191	-14712	4392	-5676	-21	-29	-68	-3008	2756	16576	18	-141	165	127	127	5
-7892	-2608	13640	-99	144	-196	-16156	-932	-4080	69	-15	139	-3604	-1912	16600	160	-13	58	-8408	3344	14060	115	-82	-141	-14628	4364	-5732	11	-45	-77	-3000	2744	16660	35	-133	191	127	127	5
-7872	-2588	13600	-106	146	-186	-16120	-936	-3792	46	-29	105	-3548	-1956	16568	152	-3	85	-8468	3332	14128	123	-22	-195	-14644	4380	-5724	-1	-66	-102	-2976	2760	16476	9	-109	205	127	127	5
-7832	-2592	13704	-112	175	-198	-16072	-980	-3904	45	-8	130	-3556	-2032	16652	182	31	77	-8420	3308	14080	136	-83	-174	-14708	4280	-5688	-23	-12	-85	-3024	2712	16480	16	-87	210	127	127	5
-7868	-2616	13676	-120	134	-203	-16112	-1000	-3988	94	4	121	-3600	-2056	16524	158	9	55	-8416	3340	14120	93	-43	-161	-14688	4364	-5748	-12	5	-62	-3016	2688	16532	-8	-115	209	127	127	5
-7844	-2588	13700	-93	153	-212	-16092	-1004	-3956	98	11	123	-3672	-2036	16516	173	-24	50	-8428	3260	14164	111	-65	-179	-14772	4328	-5712	-6	7	-78	-3008	2736	16604	31	-121	194	127	127	5
-7832	-2608	13608	-81	132	-217	-16136	-980	-3884	85	2	111	-3620	-1948	16620	154	20	33	-8388	3288	14052	123	-112	-182	-14712	4388	-5788	-29	-50	-78	-2996	2672	16520	1	-113	197	127	127	5
-7824	-2616	13560	-111	146	-202	-16160	-1016	-4008	77	29	125	-3676	-1932	16520	196	-21	60	-8440	3296	14072	79	-53	-158	-14728	4388	-5768	0	-3	-65	-3080	2744	16552	16	-97	202	127	127	5
-7880	-2652	13676	-68	140	-165	-16132	-980	-3980	78	16	127	-3644	-1928	16612	174	-14	16	-8424	3324	14072	115	-65	-167	-14704	4328	-5792	-8	-60	-73	-3064	2700	16624	12	-116	203	127	127	5
-7908	-2640	13612	-57	139	-194	-16132	-952	-3996	93	3	152	-3712	-1840	16556	164	20	25	-8396	3300	14092	130	-44	-182	-14676	4372	-5832	14	-11	-40	-3136	2672	16516	7	-134	195	127	126	5
-7820	-2632	13684	-72	155	-207	-16132	-908	-4048	103	-72	143	-3616	-1848	16564	144	-24	14	-8416	3352	14064	106	-64	-163	-14668	4364	-5848	6	-65	-42	-3068	2740	16520	27	-138	142	127	127	5
-7832	-2592	13632	-93	128	-182	-16092	-1008	-3940	86	6	124	-3648	-1784	16584	144	11	15	-8480	3248	14108	119	-46	-204	-14680	4280	-5688	40	-65	-70	-3064	2692	16552	34	-125	201	127	127	5
-7860	-2600	13720	-88	154	-238	-16088	-920	-4000	102	-46	119	-3604	-1904	16624	157	-5	37	-8324	3288	14136	114	-27	-153	-14764	4316	-5492	39	-95	-53	-2952	2632	16520	34	-139	167	127	127	5
-7756	-2604	13744	-110	145	-209	-16112	-908	-4116	104	-24	113	-3532	-1980	16620	146	0	62	-8476	3288	14100	110	-46	-161	-14700	4320	-5708	15	-76	-28	-2940	2688	16504	41	-105	193	127	127	5
-7848	-2576	13652	-88	156	-238	-16096	-916	-3912	66	-33	105	-3564	-1916	16652	134	12	105	-8464	3292	14116	121	-32	-158	-14708	4344	-5644	-14	-2	-13	-2956	2692	16524	53	-102	202	127	127	5
-7816	-2644	13652	-126	98	-185	-16132	-964	-4052	35	-22	75	-3644	-1948	16568	146	4	86	-8408	3348	14048	130	-5	-163	-14732	4388	-5640	-24	-8	-51	-2972	2820	16596	27	-101	229	127	127	5
-7828	-2608	13720	-113	149	-230	-16096	-968	-4068	46	12	126	-3596	-2020	16664	174	-14	106	-8432	3280	14164	128	-59	-146	-14688	4416	-5716	3	21	-89	-2936	2768	16536	50	-135	210	127	127	5
-7840	-2616	13568	-136	156	-214	-16124	-976	-3972	34	-1	132	-3572	-2016	16536	182	1	99	-8392	3356	14048	107	-12	-165	-14716	4420	-5732	-16	-3	-66	-3084	2860	16516	-1	-128	251	127	127	5
-7800	-2576	13604	-125	127	-202	-16112	-1020	-4012	71	-43	123	-3572	-2024	16600	174	1	98	-8432	3320	14128	105	-77	-200	-14696	4348	-5688	-31	20	-61	-3072	2768	16488	22	-122	257	127	126	5
-7868	-2660	13644	-89	114	-198	-16092	-1080	-4004	65	-26	140	-3676	-2040	16580	164	-19	52	-8452	3268	13920	95	-22	-203	-14628	4404	-5772	-23	-31	-93	-3084	2780	16532	35	-119	214	127	127	5
-7812	-2708	13624	-84	139	-170	-16088	-1028	-4084	70	-57	153	-3724	-1968	16472	206	1	38	-8472	3308	13976	73	-43	-196	-14760	4312	-5772	-61	-51	-43	-3072	2764	16496	10	-149	225	127	127	5
-7844	-2592	13660	-10	118	-176	-16172	-1000	-4044	85	-22	162	-3624	-1900	16724	192	-4	31	-8420	3264	14008	119	-62	-153	-14684	4388	-5844	-15	-29	-77	-3092	2644	16484	36	-126	229	127	127	5
-7832	-2532	13644	-62	136	-185	-16176	-952	-3948	80	-61	184	-3580	-1896	16576	220	-9	19	-8468	3296	14192	99	-42	-159	-14772	4256	-5784	18	-24	-60	-3076	2624	16568	43	-111	190	127	127	5
-7876	-2552	13644	-30	159	-206	-16072	-856	-3952	107	-26	142	-3544	-1824	16564	192	8	7	-8392	3196	14192	144	-94	-175	-14716	4244	-5796	5	-44	-23	-3048	2572	16556	67	-167	145	127	127	5
-7876	-2512	13616	-79	158	-201	-16120	-892	-3952	110	-21	150	-3596	-1872	16564	153	-9	29	-8464	3292	14048	154	-4	-143	-14684	4220	-5736	34	-64	-36	-2980	2564	16600	18	-130	178	127	127	5
-7848	-2564	13688	-45	158	-200	-16108	-924	-4088	91	7	120	-3584	-1848	16668	178	6	41	-8448	3260	14100	192	-43	-116	-14680	4264	-5696	43	-73	-17	-3024	2612	16632	45	-105	177	127	127	5
-7840	-2648	13648	-85	196	-213	-16148	-932	-3956	75	-17	140	-3584	-1904	16484	159	-23	60	-8456	3348	14136	177	-20	-163	-14740	4364	-5820	50	-64	3	-2968	2712	16472	59	-167	148	127	127	5
-7844	-2556	13732	-153	172	-216	-16108	-968	-4080	72	-41	96	-3584	-2020	16580	145	-2	79	-8420	3268	14140	149	-28	-148	-14648	4412	-5728	32	-23	-9	-3020	2752	16560	72	-114	166	127	126	5
-7816	-2576	13652	-135	205	-230	-16108	-964	-3948	67	-14	114	-3632	-1964	16424	130	-13	77	-8416	3316	14124	167	-46	-102	-14724	4376	-5660	-3	-16	-16	-2996	2796	16444	44	-118	198	127	127	5
-7832	-2628	13764	-127	173	-209	-16108	-1004	-3860	59	-2	77	-3600	-2028	16612	135	2	95	-8472	3352	14104	130	-46	-206	-14672	4420	-5688	16	-31	-68	-2984	2828	16564	6	-152	198	127	127	5
-7752	-2636	13668	-99	157	-227	-16056	-944	-3900	73	-31	117	-3616	-1968	16564	159	0	81	-8472	3348	14012	77	5	-212	-14680	4412	-5824	-18	-20	-58	-3032	2792	16464	20	-132	216	127	127	5
-7860	-2576	13600	-81	159	-178	-16144	-1016	-3920	80	-30	118	-3632	-2016	16588	189	15	27	-8400	3352	14148	71	-70	-173	-14732	4384	-5804	-15	6	-84	-3048	2800	16428	-4	-103	221	127	127	5
-7872	-2592	13600	-72	131	-218	-16108	-1024	-3980	93	-20	159	-3560	-1984	16608	165	11	42	-8424	3340	14080	79	2	-185	-14708	4344	-5792	2	-28	-75	-3048	2780	16512	-6	-112	238	127	127	5
-7856	-2544	13724	-52	165	-181	-16176	-1036	-3980	93	-27	173	-3544	-1936	16648	185	15	46	-8392	3280	14036	67	-99	-132	-14676	4392	-5796	-4	-42	-99	-2996	2732	16660	13	-141	232	127	127	5
-7872	-2540	13596	-65	125	-177	-16172	-956	-4036	87	11	110	-3576	-1888	16592	186	19	25	-8428	3244	14072	61	-30	-195	-14736	4276	-5820	-29	-13	-95	-2968	2696	16592	-39	-111	190	127	127	5
-7848	-2576	13592	-60	116	-172	-16128	-944	-4108	107	-69	146	-3632	-1900	16656	164	30	40	-8388	3260	14120	85	-13	-184	-14748	4292	-5744	-20	-12	-53	-3016	2600	16532	17	-105	202	127	127	5
-7836	-2536	13656	-74	144	-204	-16172	-964	-4012	79	14	140	-3536	-1864	16428	171	-13	52	-8436	3268	14144	150	-81	-164	-14764	4280	-5924	-18	5	-55	-3080	2616	16512	14	-142	169	127	127	5
-7928	-2560	13660	-79	148	-190	-16088	-912	-4064	88	-24	132	-3616	-1848	16568	161	-14	74	-8424	3248	13988	132	-21	-178	-14660	4240	-5704	17	11	-36	-3020	2584	16584	22	-150	180	127	127	5
-7804	-2620	13704	-123	179	-193	-16104	-868	-4000	56	-57	125	-3556	-1844	16700	185	9	63	-8460	3304	14072	156	-95	-157	-14744	4304	-5816	15	-26	-50	-3056	2676	16472	42	-106	204	127	127	5
-7776	-2564	13616	-129	173	-224	-16132	-988	-3912	57	-20	123	-3688	-1868	16616	146	-13	68	-8444	3356	14084	146	-36	-198	-14684	4392	-5664	3	-62	-46	-3080	2732	16616	25	-114	155	127	127	5
-7832	-2584	13660	-93	164	-195	-16164	-984	-4028	60	-38	98	-3576	-1984	16524	149	-38	56	-8436	3324	14104	156	-87	-133	-14712	4348	-5736	12	-57	-16	-3016	2788	16572	5	-137	207	127	127	5
-7876	-2608	13776	-125	129	-205	-16144	-1028	-3980	52	-31	109	-3608	-1988	16600	117	-29	52	-8428	3312	14060	122	-44	-178	-14672	4512	-5860	30	-45	-55	-3040	2848	16552	17	-115	171	127	127	5
-7900	-2588	13640	-146	131	-238	-16092	-1020	-3980	65	-52	101	-3584	-2044	16528	158	0	43	-8432	3360	13980	129	-31	-168	-14708	4368	-5692	33	-14	-46	-3044	2764	16500	35	-115	189	127	127	5
-7808	-2604	13672	-102	122	-211	-16128	-1024	-3908	94	-13	110	-3672	-2060	16580	183	11	38	-8444	3288	14024	142	-52	-169	-14720	4364	-5688	1	-24	-94	-2956	2772	16596	24	-98	213	127	127	5
-7852	-2616	13580	-47	143	-189	-16152	-1060	-4028	97	-51	135	-3628	-1980	16528	187	3	23	-8420	3300	14100	102	-82	-161	-14704	4396	-5772	-48	-36	-59	-3036	2780	16532	13	-128	198	127	127	5
-7796	-2588	13720	-53	150	-145	-16092	-1024	-4004	35	-5	118	-3608	-1936	16564	214	-19	22	-8452	3232	14156	88	-76	-179	-14772	4392	-5752	-24	-42	-95	-3016	2740	16548	14	-123	208	127	127	5
-7872	-2644	13576	-115	146	-172	-16108	-1016	-4008	81	-13	127	-3584	-1856	16584	192	-16	68	-8484	3300	13952	101	-33	-164	-14732	4352	-5752	13	-25	-100	-3020	2648	16584	-21	-102	231	127	127	5
-7820	-2628	13680	-96	117	-205	-16080	-940	-3920	90	-33	110	-3648	-1908	16668	161	4	46	-8464	3304	14088	84	-71	-184	-14716	4312	-5720	-13	-6	-87	-3036	2680	16532	2	-112	206	127	127	5
-7804	-2564	13624	29	247	-195	-16144	-860	-4088	101	1	150	-3560	-1944	16596	144	-18	46	-8356	3296	14136	97	4	-172	-14724	4348	-5700	-17	-25	-101	-2928	2636	16632	25	-78	235	127	127	5
-7876	-2568	13656	87	339	-217	-16140	-940	-3964	82	-6	106	-3556	-1880	16476	165	1	62	-8512	3280	14088	110	-15	-188	-14704	4332	-5788	-47	-29	-69	-3052	2664	16540	26	-131	221	127	127	5
-7852	-2648	13628	63	292	-198	-16184	-932	-3992	49	16	80	-3608	-1884	16512	194	19	57	-8440	3204	14132	117	-19	-168	-14724	4292	-5784	-46	-15	-51	-3088	2632	16544	19	-120	217	127	127	5
-7920	-2600	13692	11	252	-212	-16080	-980	-3940	53	-10	80	-3644	-1952	16636	186	10	79	-8444	3332	14176	120	-57	-179	-14656	4340	-5680	7	-50	-28	-3132	2680	16620	29	-130	216	127	126	5
-7888	-2536	13636	-47	228	-192	-16068	-1016	-4060	49	-1	102	-3660	-1932	16552	171	-20	83	-8468	3268	14036	123	-32	-167	-14708	4284	-5752	33	-3	-20	-3064	2680	16628	32	-129	196	127	127	5
-7936	-2588	13640	-85	166	-190	-16084	-1020	-4012	80	-47	126	-3604	-1972	16572	207	-22	93	-8484	3288	14104	158	-13	-143	-14784	4332	-5840	3	-37	-40	-3096	2692	16544	25	-110	167	127	127	5
-7928	-2608	13564	-74	166	-182	-16064	-1032	-3984	96	-4	118	-3588	-1952	16536	172	21	44	-8420	3256	14020	136	-29	-172	-14724	4352	-5688	34	-23	-23	-3032	2752	16532	49	-132	187	127	127	5
-7880	-2560	13652	-88	150	-201	-16124	-1008	-3944	84	-29	112	-3620	-1924	16676	164	-16	37	-8516	3244	14124	148	-99	-150	-14680	4352	-5724	20	-44	-20	-3076	2764	16572	30	-134	186	127	127	5
-7856	-2560	13540	-42	152	-176	-16148	-1028	-4056	77	-45	133	-3660	-2000	16556	174	-29	41	-8428	3292	14096	153	-40	-176	-14664	4336	-5760	20	-70	-71	-3072	2748	16628	45	-121	169	127	127	5
-7904	-2588	13640	-110	124	-199	-16156	-1012	-4000	103	-28	169	-3576	-1968	16616	183	-12	-5	-8420	3272	14084	150	-53	-160	-14732	4384	-5712	-3	-70	-62	-3044	2788	16628	8	-135	146	127	127	5
-7876	-2588	13684	-97	113	-152	-16120	-936	-4052	109	-74	147	-3628	-1932	16436	163	-36	-2	-8476	3240	14036	153	-29	-189	-14736	4320	-5768	40	-71	-37	-2936	2676	16544	41	-141	181	127	127	5
-7880	-2552	13640	-128	88	-189	-16088	-936	-3936	114	-25	168	-3560	-1876	16512	154	-16	3	-8480	3272	14116	132	-68	-124	-14736	4348	-5696	20	-93	-69	-3004	2692	16596	49	-100	165	127	127	5
-7868	-2628	13696	-118	66	-168	-16124	-936	-3960	120	0	157	-3576	-1820	16524	168	-11	19	-8468	3272	14028	159	-33	-160	-14748	4416	-5728	51	-60	-33	-3000	2692	16568	34	-125	192	127	127	5
-7908	-2572	13644	-166	98	-198	-16132	-920	-3984	55	20	138	-3624	-1856	16696	193	-38	47	-8440	3356	14152	152	-88	-159	-14728	4384	-5656	-15	-21	-19	-3012	2756	16516	47	-143	183	127	127	5
-7844	-2576	13736	-145	92	-191	-16116	-916	-4068	50	-35	129	-3632	-1860	16584	146	-13	63	-8424	3260	14148	138	-60	-138	-14724	4408	-5708	1	-18	-19	-3012	2712	16524	2	-117	206	127	127	5
-7824	-2552	13596	-129	82	-214	-16172	-856	-3980	49	6	112	-3644	-1876	16704	157	-36	107	-8452	3244	13984	106	-49	-163	-14636	4380	-5696	-3	-2	-51	-2980	2736	16536	42	-107	205	127	127	5
-7844	-2620	13736	-155	132	-223	-16080	-944	-4016	52	10	113	-3596	-1864	16652	192	-19	58	-8436	3308	14120	164	-16	-162	-14688	4316	-5764	0	-20	-26	-2972	2808	16564	20	-112	204	127	127	5
-7936	-2552	13728	-139	123	-227	-16172	-952	-4000	95	-18	104	-3548	-1912	16524	177	-15	90	-8428	3320	14040	112	-58	-183	-14736	4340	-5724	-9	-12	-61	-2988	2756	16652	8	-124	206	127	127	5
-7796	-2612	13628	-179	134	-211	-16128	-916	-3976	54	-29	102	-3572	-1892	16664	154	11	56	-8476	3288	14056	127	-63	-147	-14816	4360	-5624	7	-24	-90	-3012	2804	16576	-16	-120	217	127	127	5
-7868	-2616	13672	-144	103	-231	-16136	-988	-4004	48	-18	95	-3588	-1948	16736	168	-3	52	-8380	3288	14028	100	-57	-183	-14644	4324	-5636	-15	-33	-83	-2952	2800	16472	-10	-121	185	127	127	5
-7944	-2568	13700	-125	92	-214	-16052	-948	-4004	48	-37	109	-3692	-1928	16552	121	-8	40	-8428	3292	14092	90	-55	-193	-14660	4388	-5696	-23	-14	-67	-2984	2780	16556	-53	-100	186	127	127	5
-7816	-2616	13632	-140	169	-210	-16124	-1016	-3980	88	-18	108	-3684	-2004	16612	119	-32	42	-8444	3352	14180	111	-51	-224	-14736	4324	-5740	-16	-8	-75	-2984	2708	16604	-32	-117	215	127	127	5
-7880	-2584	13636	-118	128	-225	-16120	-988	-4036	71	2	108	-3656	-1960	16540	158	2	46	-8416	3320	14028	81	-63	-188	-14776	4316	-5828	-21	-5	-57	-3124	2692	16548	6	-77	220	127	127	5
-7900	-2616	13668	-70	122	-210	-16148	-932	-4084	60	-41	74	-3720	-1980	16648	181	-19	68	-8508	3308	14064	85	-36	-184	-14692	4360	-5828	-36	1	-138	-3144	2696	16588	13	-102	225	127	126	5
-7832	-2580	13680	-137	140	-186	-16112	-1000	-3996	53	-26	111	-3632	-1944	16512	162	-14	72	-8480	3248	14148	94	-70	-177	-14680	4248	-5724	-36	-10	-94	-3016	2576	16484	20	-104	230	127	127	5
-7780	-2612	13696	-139	132	-206	-16104	-988	-4028	75	-27	109	-3596	-1892	16564	187	-16	70	-8444	3276	14208	112	-68	-142	-14628	4276	-5684	1	-34	-65	-3068	2576	16484	10	-134	233	127	127	5
-7856	-2596	13616	-103	152	-235	-16100	-944	-4004	65	-55	111	-3612	-1916	16616	176	-24	61	-8480	3332	14080	120	-16	-155	-14724	4212	-5800	-13	-27	-39	-3068	2564	16428	25	-138	185	127	127	5
-7848	-2644	13640	-130	129	-197	-16100	-992	-3916	65	-28	81	-3560	-1944	16596	150	-35	55	-8468	3276	13964	123	-32	-167	-14696	4280	-5760	37	-47	-52	-3064	2616	16520	50	-115	167	127	127	5
-7872	-2612	13704	-80	186	-214	-16096	-1004	-4072	102	-54	140	-3616	-1968	16512	167	4	65	-8448	3260	14068	170	-28	-141	-14744	4268	-5816	36	-41	-17	-3060	2644	16580	27	-139	143	127	127	5
-7828	-2584	13648	-55	166	-193	-16128	-1008	-3880	108	-33	153	-3576	-1952	16456	164	11	31	-8464	3304	14056	161	-46	-159	-14740	4320	-5704	45	-61	22	-3036	2720	16564	31	-142	149	127	127	5
-7844	-2608	13748	-61	134	-209	-16092	-1024	-3912	75	-40	129	-3500	-2012	16552	194	-2	28	-8420	3336	14144	172	-42	-126	-14724	4340	-5740	-2	-103	-4	-3004	2720	16664	74	-135	160	127	127	5
-7836	-2540	13656	-70	182	-197	-16104	-1000	-3904	103	-38	140	-3604	-1948	16608	222	-54	21	-8412	3280	14160	182	-39	-134	-14744	4316	-5624	24	-45	27	-2964	2756	16524	56	-121	171	127	127	5
-7872	-2628	13744	-42	122	-184	-16104	-944	-3960	84	-17	185	-3612	-1956	16668	191	-20	46	-8440	3308	14052	180	-96	-155	-14732	4364	-5700	55	-43	-29	-2932	2736	16500	52	-112	183	127	127	5
-7888	-2640	13584	-31	145	-204	-16136	-940	-4028	99	14	161	-3572	-1956	16504	202	1	40	-8420	3324	14084	151	11	-181	-14656	4404	-5792	36	-7	-5	-2944	2768	16448	49	-114	176	127	127	5
-7868	-2684	13636	-103	118	-174	-16132	-932	-3992	89	-18	133	-3616	-1912	16528	180	-33	49	-8440	3320	14112	157	-25	-140	-14648	4336	-5720	-16	-59	-33	-2996	2824	16604	25	-115	183	127	127	5
-7824	-2608	13592	-51	112	-182	-16144	-936	-4136	70	-10	88	-3652	-1940	16636	183	7	67	-8504	3316	14100	133	-51	-178	-14740	4436	-5788	6	-11	-35	-3036	2812	16588	49	-108	237	127	127	5
-7804	-2612	13596	-95	124	-163	-16128	-876	-4004	79	-14	145	-3628	-1852	16636	207	-10	47	-8400	3264	14096	164	-34	-167	-14764	4372	-5692	11	-4	-59	-3068	2816	16620	29	-125	188	127	127	5
-7856	-2576	13584	-75	101	-198	-16112	-908	-4080	38	15	107	-3612	-1860	16616	176	-7	55	-8468	3328	14052	106	-23	-167	-14704	4428	-5812	3	-14	-26	-3052	2772	16496	20	-125	201	127	127	5
-7888	-2592	13708	-102	119	-208	-16160	-912	-4028	67	-9	138	-3620	-1924	16632	171	-14	52	-8408	3280	14176	122	-57	-149	-14764	4364	-5760	9	-28	-74	-3076	2776	16560	19	-143	235	127	126	5
-7812	-2620	13684	-133	126	-176	-16112	-992	-3996	62	-18	113	-3576	-1868	16616	134	-25	64	-8420	3276	14088	67	-38	-158	-14652	4336	-5712	-8	-2	-85	-3036	2756	16524	13	-100	237	127	127	5
-7860	-2616	13756	-127	133	-182	-16052	-968	-4076	67	-72	119	-3624	-1948	16616	140	-11	26	-8460	3284	14088	127	-106	-169	-14664	4320	-5824	-4	-22	-60	-3044	2696	16576	14	-95	221	127	127	5
-7912	-2592	13704	-105	171	-186	-16024	-880	-4016	74	-52	110	-3616	-1880	16588	158	-39	58	-8400	3296	14124	129	-75	-180	-14712	4332	-5712	-25	-31	-90	-3048	2724	16664	33	-135	210	127	127	5
-7884	-2540	13632	-129	170	-204	-16032	-928	-3968	53	-52	93	-3580	-1904	16600	157	-1	42	-8360	3276	14044	92	-70	-162	-14684	4388	-5720	2	0	-116	-3068	2684	16560	19	-135	191	127	127	5
-7816	-2584	13584	-111	177	-198	-16136	-932	-3992	67	-68	99	-3544	-1912	16584	145	12	51	-8412	3308	14152	100	-1	-172	-14728	4360	-5888	-9	-19	-72	-3032	2668	16524	-9	-119	190	127	127	5
-7832	-2656	13668	-134	141	-198	-16096	-1020	-3956	76	-21	115	-3560	-1964	16604	134	-24	48	-8500	3280	14136	107	-81	-164	-14728	4332	-5692	-31	-24	-53	-3028	2684	16592	-25	-95	202	127	127	5
-7844	-2668	13644	-74	163	-193	-16140	-916	-4004	82	-35	78	-3608	-2036	16568	132	-34	38	-8448	3272	14148	93	-67	-181	-14696	4272	-5780	-3	-29	-70	-3052	2648	16640	23	-127	185	127	127	5
-7824	-2584	13612	-83	185	-200	-16080	-992	-3976	99	-37	101	-3608	-2028	16576	151	-12	68	-8460	3296	14136	52	-39	-184	-14716	4292	-5596	-4	-33	-81	-2952	2668	16532	17	-156	191	127	127	5
-7876	-2640	13664	-84	173	-200	-16112	-1000	-3992	69	-32	108	-3576	-2012	16504	191	-34	65	-8456	3328	14040	137	-17	-172	-14744	4340	-5716	6	-29	-68	-2972	2728	16632	33	-113	208	127	127	5
-7896	-2604	13588	-68	183	-194	-16176	-936	-3980	84	-1	116	-3548	-2024	16644	167	-1	46	-8428	3212	14132	158	-89	-198	-14696	4332	-5852	19	-49	-45	-3040	2672	16568	34	-110	226	127	126	5
-7840	-2568	13700	-85	164	-200	-16092	-1036	-3972	90	-44	113	-3600	-2032	16524	206	-15	54	-8412	3280	14132	91	-59	-183	-14720	4288	-5752	18	0	-96	-3036	2672	16564	28	-113	226	127	127	5
-7820	-2616	13744	-71	152	-189	-16084	-1000	-4028	93	-35	155	-3632	-1976	16564	165	5	29	-8444	3304	14084	106	-8	-195	-14724	4420	-5828	-5	5	-41	-3016	2696	16596	42	-119	190	127	127	5
-7812	-2592	13660	-70	135	-192	-16136	-988	-3964	98	-9	154	-3596	-2060	16572	203	-19	72	-8420	3312	14100	128	-17	-192	-14696	4344	-5644	-2	-33	-64	-3012	2696	16508	43	-128	221	127	127	5
-7816	-2580	13672	-82	132	-191	-16108	-944	-3968	95	8	114	-3620	-1988	16616	225	-2	33	-8464	3284	14100	143	-61	-157	-14704	4372	-5776	1	-40	-45	-3056	2692	16528	22	-127	210	127	127	5
-7756	-2576	13724	-87	127	-199	-16072	-968	-3964	111	-21	167	-3548	-1872	16552	189	-6	33	-8472	3332	14092	119	-46	-156	-14716	4364	-5780	-14	-10	-50	-3012	2664	16448	84	-127	165	127	127	5
-7872	-2576	13608	-47	138	-209	-16136	-972	-4020	90	-28	130	-3596	-1880	16680	171	6	58	-8416	3296	14092	128	-54	-175	-14700	4360	-5656	-4	-48	-51	-3056	2712	16564	49	-139	175	127	127	5
-7788	-2644	13636	-86	150	-219	-16124	-916	-4084	57	-19	143	-3556	-1852	16624	148	-17	41	-8496	3276	14096	130	-23	-141	-14696	4344	-5768	-3	-15	-53	-2988	2752	16432	44	-129	197	127	127	5
-7880	-2556	13696	-95	171	-181	-16156	-944	-3888	74	-22	121	-3496	-1820	16636	170	16	37	-8500	3296	14120	129	-6	-152	-14684	4328	-5732	-5	-28	-29	-3004	2744	16580	18	-119	199	127	126	5
-7864	-2604	13588	-81	162	-209	-16108	-932	-4080	49	-37	151	-3592	-1876	16552	151	-41	89	-8412	3320	14164	109	-40	-174	-14732	4308	-5628	-25	-31	-26	-2960	2704	16560	29	-115	178	127	127	5
-7828	-2640	13676	-116	130	-218	-16076	-1044	-3956	56	-25	148	-3536	-1992	16580	179	-11	64	-8436	3288	14128	130	-55	-158	-14712	4324	-5792	8	-35	-61	-3052	2768	16548	35	-115	181	127	127	5
-7844	-2648	13696	-95	161	-209	-16144	-992	-4080	78	-39	110	-3656	-1948	16592	164	5	74	-8448	3292	14048	140	-37	-195	-14736	4368	-5776	15	-47	-17	-3068	2748	16564	7	-130	168	127	127	5
-7932	-2604	13564	-99	164	-173	-16132	-956	-4024	85	-10	126	-3588	-1948	16604	187	-9	67	-8460	3284	14156	118	-40	-164	-14744	4316	-5728	-7	-30	-61	-3084	2752	16620	24	-163	190	127	127	5
-7860	-2628	13604	-97	173	-206	-16132	-1048	-4064	60	33	109	-3604	-1968	16676	159	41	56	-8456	3268	14104	122	-14	-167	-14744	4372	-5672	-11	-10	-66	-3000	2764	16464	-2	-129	207	127	127	5
-7808	-2588	13696	-95	155	-185	-16104	-1004	-4072	65	4	103	-3568	-2028	16644	161	-5	60	-8412	3336	14096	118	-13	-202	-14688	4456	-5760	-6	-19	-47	-3088	2696	16600	-2	-124	208	127	127	5
-7808	-2588	13680	-62	143	-180	-16092	-884	-4060	101	-18	169	-3608	-1912	16564	199	-5	11	-8452	3268	14096	112	-19	-149	-14668	4312	-5748	14	-2	-87	-3072	2720	16564	26	-135	192	127	127	5
-7864	-2604	13632	-78	171	-221	-16116	-980	-3972	86	-54	131	-3568	-1940	16564	153	-10	50	-8448	3324	14112	143	-60	-153	-14652	4344	-5772	32	-71	-75	-3088	2664	16496	31	-152	183	127	127	5
-7808	-2644	13600	-112	163	-146	-16132	-964	-4060	119	-16	127	-3620	-1872	16524	175	4	53	-8388	3240	14132	137	-46	-195	-14728	4292	-5660	27	-96	-27	-2968	2668	16536	18	-136	157	127	127	5
-7852	-2552	13652	-75	139	-176	-16092	-956	-4048	79	-12	150	-3504	-1856	16644	167	-11	37	-8416	3272	14040	116	-75	-154	-14756	4316	-5696	25	-39	-43	-2992	2672	16580	-22	-150	182	127	127	5
-7852	-2552	13656	-73	130	-193	-16112	-980	-4036	86	-45	128	-3588	-1928	16496	171	-3	62	-8448	3284	14096	126	15	-153	-14704	4316	-5612	-9	-37	-73	-3036	2700	16556	35	-139	185	127	127	5
-7896	-2576	13636	-120	138	-191	-16104	-944	-4044	47	-5	103	-3596	-1896	16676	168	-4	57	-8440	3244	14052	149	-63	-151	-14700	4320	-5764	-1	-49	-35	-3064	2640	16560	33	-117	176	127	127	5
-7804	-2592	13604	-173	151	-206	-16120	-924	-3992	48	-11	106	-3564	-1948	16600	139	15	76	-8496	3324	14100	175	-106	-138	-14692	4344	-5632	-26	-29	-44	-3016	2752	16512	31	-127	201	127	127	5
-7852	-2676	13604	-116	167	-205	-16148	-980	-4000	67	-46	125	-3616	-1912	16592	155	-8	88	-8536	3292	14104	126	-65	-157	-14752	4384	-5724	-5	-22	-55	-2988	2724	16596	61	-121	180	127	127	5
-7860	-2656	13736	-81	165	-195	-16116	-1012	-3976	92	-24	100	-3600	-1992	16580	173	42	61	-8412	3320	14040	156	-29	-145	-14720	4360	-5784	-23	-33	-24	-3028	2760	16456	43	-117	205	127	127	5
-7780	-2652	13668	-86	147	-199	-16080	-1004	-3948	106	-20	120	-3532	-1960	16652	155	4	34	-8452	3272	14128	131	-22	-155	-14724	4360	-5640	-12	-5	-95	-3016	2712	16600	61	-114	226	127	127	5
-7800	-2628	13668	-140	168	-186	-16128	-960	-3928	72	-59	150	-3508	-1928	16484	204	16	67	-8452	3276	14028	127	-56	-164	-14688	4392	-5728	-17	-38	-46	-3020	2816	16500	41	-129	214	127	127	5
-7868	-2616	13604	-96	113	-216	-16140	-964	-4060	62	-15	129	-3572	-1956	16504	183	-23	50	-8448	3332	14148	110	-21	-155	-14688	4376	-5760	-12	-55	-85	-3024	2780	16500	33	-81	219	127	127	5
-7808	-2576	13652	-81	169	-178	-16080	-980	-3960	96	-4	140	-3492	-1948	16580	186	-8	39	-8428	3408	14096	103	-56	-195	-14736	4400	-5648	2	-42	-85	-2992	2776	16652	26	-124	217	127	126	5
-7800	-2600	13608	-60	125	-198	-16124	-956	-4032	94	-31	173	-3588	-1944	16500	150	-33	47	-8372	3276	14120	97	-47	-201	-14716	4364	-5736	-22	-14	-74	-2988	2688	16492	33	-145	222	127	127	5
-7812	-2588	13648	-72	163	-198	-16144	-952	-3968	113	0	154	-3556	-1876	16616	155	-19	26	-8424	3292	14060	81	-61	-185	-14644	4352	-5604	10	10	-51	-3016	2728	16588	28	-138	198	127	127	5
-7816	-2584	13648	-57	161	-217	-16076	-984	-4112	104	-28	131	-3584	-1884	16596	192	23	46	-8412	3260	14180	125	-47	-175	-14748	4336	-5700	0	-17	-43	-3016	2672	16580	23	-130	212	127	127	5
-7828	-2624	13608	-93	168	-227	-16060	-964	-4020	96	25	107	-3504	-1856	16572	163	-29	44	-8420	3252	14048	99	-57	-177	-14676	4348	-5740	-29	4	-44	-3048	2704	16452	12	-123	163	127	127	5
-7876	-2592	13660	-79	161	-192	-16092	-944	-4024	71	-6	109	-3600	-1940	16616	168	-1	63	-8500	3304	14036	94	-24	-158	-14704	4332	-5804	5	-41	-41	-3052	2756	16516	8	-112	181	127	127	5
