#Activity	standing 
#ActivityID	8 
#Date 09-23-17-01
acc_rf_x	acc_rf_y	acc_rf_z	gyro_rf_x	gyro_rf_y	gyro_rf_z	acc_rs_x	acc_rs_y	acc_rs_z	gyro_rs_x	gyro_rs_y	gyro_rs_z	acc_rt_x	acc_rt_y	acc_rt_z	gyro_rt_x	gyro_rt_y	gyro_rt_z	acc_lf_x	acc_lf_y	acc_lf_z	gyro_lf_x	gyro_lf_y	gyro_lf_z	acc_ls_x	acc_ls_y	acc_ls_z	gyro_ls_x	gyro_ls_y	gyro_ls_z	acc_lt_x	acc_lt_y	acc_lt_z	gyro_lt_x	gyro_lt_y	gyro_lt_z	EMG_r	EMG_l	act
-9952	-4276	11712	-15	12	-23	-16472	1264	-944	16	-6	12	-14856	2752	-5896	24	-13	2	-9568	3992	13248	15	-9	-20	-15832	-3200	120	-7	-12	-13	-15392	-1368	-4776	4	-30	21	125	120	8
-9952	-4284	11624	-16	12	-29	-16696	1224	-856	7	-8	12	-14872	2696	-5448	23	-8	-1	-9512	4000	13264	14	-10	-20	-15816	-3224	64	-1	-10	-12	-15464	-1296	-4912	1	-25	25	125	121	8
-9956	-4276	11632	-20	16	-29	-16624	1272	-920	6	-12	12	-14976	2760	-5536	23	-11	2	-9400	4128	13032	21	-5	-22	-15760	-3272	-200	3	-12	-3	-15288	-1264	-4864	10	-32	19	126	120	8
-9932	-4324	11700	-13	15	-25	-16552	1136	-976	9	-11	9	-14936	2760	-5600	25	-8	3	-9400	4024	13128	17	-6	-20	-15744	-3072	56	13	-9	-7	-15224	-1280	-4920	4	-32	22	126	120	8
-9892	-4256	11636	-14	12	-29	-16624	1288	-1144	10	-12	6	-14880	2888	-5712	24	-10	5	-9536	4184	13136	14	-8	-14	-15856	-3056	-16	16	-13	-9	-15376	-1304	-4960	5	-28	22	126	120	8
-9928	-4308	11700	-11	14	-31	-16632	1216	-608	16	-11	13	-14960	2768	-5632	29	-8	-1	-9488	4024	13240	16	-5	-17	-15784	-3136	96	7	-14	-3	-15216	-1344	-4808	13	-28	23	126	121	8
-9936	-4304	11680	-12	18	-28	-16552	1288	-1032	15	-11	17	-14968	2744	-5816	26	-12	3	-9504	4040	13088	16	-13	-17	-15880	-3152	-40	17	-12	-14	-15424	-1392	-4712	9	-24	25	126	120	8
-9840	-4312	11720	-15	14	-25	-16504	1376	-880	11	-9	11	-14856	2760	-5864	24	-11	5	-9488	3848	13240	14	-7	-23	-15776	-2952	-64	18	-12	-11	-15352	-1272	-4856	7	-30	20	126	119	8
-9924	-4208	11740	-10	16	-28	-16688	1312	-896	7	-10	11	-14904	2728	-5760	25	-9	5	-9424	4024	12984	18	-6	-19	-15744	-3216	-16	11	-10	-6	-15456	-1304	-5008	11	-28	20	126	121	8
-9892	-4320	11664	-17	15	-25	-16592	1272	-984	14	-11	11	-15016	2848	-5488	26	-9	4	-9512	4040	13040	10	-6	-15	-15840	-3344	224	9	-16	-9	-15368	-1280	-4928	1	-27	20	126	121	8
-9944	-4328	11696	-10	15	-24	-16640	1272	-888	14	-10	13	-14912	2640	-5568	24	-1	1	-9488	4032	13072	16	-10	-14	-15768	-3296	-144	7	-16	-7	-15408	-1272	-4912	-1	-25	19	126	122	8
-9916	-4380	11676	-19	13	-31	-16592	1312	-960	12	-14	13	-15032	2720	-5776	24	-7	-1	-9376	4096	13144	15	-9	-15	-15880	-3248	-40	10	-14	-6	-15328	-1272	-4984	0	-22	19	126	119	8
-9916	-4232	11700	-9	15	-30	-16528	1336	-760	10	-14	9	-14920	2840	-5784	24	-9	-2	-9496	4040	13240	16	-12	-17	-15904	-3120	40	10	-14	-9	-15472	-1176	-4872	-10	-17	21	126	121	8
-9932	-4300	11656	-9	15	-31	-16560	1208	-864	8	-15	15	-14832	2696	-5808	21	-4	-1	-9368	4136	13080	18	-12	-18	-15800	-3184	152	8	-15	-9	-15368	-1224	-4776	-8	-21	26	126	121	8
-9944	-4256	11732	-7	18	-29	-16616	1320	-1048	10	-17	17	-14984	2760	-5768	17	-7	0	-9448	4064	13160	10	-7	-22	-15680	-3112	56	14	-16	-10	-15304	-1200	-4704	-1	-20	21	126	119	8
-9880	-4240	11716	-10	19	-26	-16712	1152	-880	10	-8	18	-14888	2736	-5664	23	-7	-1	-9552	4096	13112	10	-9	-24	-15808	-3016	-8	19	-12	-9	-15328	-1344	-4712	1	-16	14	127	120	8
-9932	-4324	11688	-11	13	-27	-16536	1288	-808	8	-19	16	-14888	2736	-5392	22	-4	1	-9392	3952	13056	16	-3	-21	-15752	-3184	-48	15	-7	-5	-15264	-1280	-4904	7	-17	19	126	121	8
-9940	-4328	11780	-13	11	-27	-16512	1224	-824	-1	-10	10	-14944	2760	-5936	20	-6	2	-9328	3952	13248	10	-3	-17	-15768	-3192	96	7	-13	-3	-15376	-1312	-4856	8	-18	21	126	121	8
-9904	-4364	11764	-11	9	-30	-16672	1264	-808	8	-11	10	-15064	2776	-5552	20	-2	5	-9624	4056	13248	14	-9	-23	-15744	-3184	-144	22	-13	-9	-15392	-1272	-4800	3	-15	22	126	122	8
-9916	-4328	11652	-15	13	-27	-16536	1224	-792	11	-11	16	-14984	2704	-5488	20	-1	0	-9440	3904	13224	15	-7	-19	-15808	-3216	304	28	-11	-10	-15528	-1288	-4768	5	-16	21	127	119	8
-9840	-4296	11716	-11	13	-25	-16576	1168	-576	11	-7	13	-15008	2776	-5520	23	1	-2	-9352	3904	13024	13	-10	-16	-15784	-3120	-88	2	-10	-9	-15488	-1184	-4784	9	-20	19	127	121	8
-9896	-4328	11764	-14	12	-24	-16712	1176	-720	12	-7	12	-14904	2816	-5808	15	-4	1	-9576	4032	12960	10	-2	-18	-15920	-3184	-112	2	-5	-11	-15360	-1120	-4888	2	-18	19	126	119	8
-9908	-4360	11736	-11	14	-25	-16704	1168	-816	3	-5	16	-15144	2792	-5768	14	-1	1	-9328	3960	13024	12	-5	-19	-15712	-3248	160	4	-7	-9	-15352	-1248	-5024	7	-14	19	127	119	8
-9856	-4252	11656	-10	16	-24	-16552	1224	-688	-5	-4	14	-15072	2776	-5640	10	-1	4	-9400	3984	13248	15	-6	-20	-15880	-3104	336	-1	-3	0	-15448	-1208	-4960	3	-18	18	127	119	8
-9904	-4280	11728	-10	15	-21	-16672	1168	-816	-3	-10	12	-15048	2736	-5752	15	-2	0	-9392	4088	13224	21	-9	-21	-15680	-3096	-160	-25	-3	-1	-15376	-1344	-4736	-4	-19	19	127	120	8
-9896	-4276	11660	-5	15	-21	-16568	1248	-792	-1	-5	13	-14912	2776	-5320	16	-5	-1	-9416	4064	13144	20	-1	-20	-15936	-3152	120	-24	-4	-3	-15328	-1200	-4936	-6	-15	16	127	119	8
-9916	-4320	11780	-12	13	-26	-16680	1240	-848	11	-9	16	-14816	2824	-5624	13	-1	1	-9480	4072	13136	20	-6	-21	-15776	-3192	-184	-8	-3	-4	-15344	-1288	-4928	-4	-11	16	127	120	8
-9892	-4312	11584	-13	15	-27	-16600	1280	-736	10	-5	19	-14896	2664	-5488	19	-2	7	-9536	4056	13368	14	-3	-18	-15696	-3120	264	3	-8	2	-15328	-1312	-4784	-5	-10	20	127	119	8
-9920	-4272	11672	-10	18	-21	-16512	1152	-536	3	-3	21	-14904	2640	-5488	15	-3	0	-9328	4016	12968	16	-7	-20	-15840	-3216	104	8	-7	-5	-15504	-1392	-4768	-1	-10	20	127	118	8
-9916	-4344	11704	-11	15	-25	-16616	1056	-816	-2	-4	22	-14984	2744	-5704	14	-2	5	-9464	4072	13048	16	-7	-19	-15912	-3304	16	-3	-12	-3	-15560	-1344	-4968	1	-8	24	127	120	8
-9816	-4268	11596	-6	16	-21	-16624	1336	-784	-2	-7	21	-15048	2584	-5624	16	4	4	-9432	4120	13216	13	-1	-18	-15768	-3232	120	6	-2	-5	-15384	-1256	-4784	4	-10	19	127	120	8
-9924	-4288	11672	-7	15	-25	-16440	1216	-760	7	-5	19	-15136	2696	-5712	21	8	7	-9344	4128	13144	19	-6	-18	-15904	-3200	-80	8	-4	-4	-15272	-1160	-4848	6	-7	22	127	120	8
-9908	-4284	11680	-9	14	-22	-16552	1240	-608	9	-2	19	-14896	2880	-5600	24	2	9	-9504	3984	13360	15	-8	-20	-15800	-3272	104	12	1	-3	-15480	-1344	-4808	2	-6	22	127	120	8
-9928	-4284	11688	-9	10	-23	-16752	1104	-920	10	-1	22	-15024	2880	-5544	16	3	9	-9408	4000	13184	13	-4	-22	-15760	-3088	208	2	-3	2	-15384	-1352	-4832	9	-5	22	127	120	8
-9964	-4328	11612	-10	14	-23	-16632	1112	-824	8	-1	24	-15032	2824	-5712	17	0	7	-9328	4144	13112	16	-10	-20	-15912	-3152	208	4	-2	-4	-15480	-1288	-4904	5	-10	20	127	120	8
-9912	-4284	11748	-8	16	-22	-16584	1224	-608	4	-3	17	-15072	2768	-5656	16	1	8	-9424	4088	13208	14	-3	-24	-15696	-3192	-128	14	-5	-5	-15456	-1344	-4856	9	-6	23	127	121	8
-9892	-4228	11696	-11	11	-24	-16576	1272	-720	3	-6	18	-14976	2824	-5640	11	-1	6	-9416	4000	13128	13	-8	-17	-15896	-3016	112	4	-2	-2	-15464	-1256	-4904	3	-5	16	127	120	8
-9884	-4268	11588	-8	15	-17	-16504	1376	-896	5	3	20	-14928	2784	-5632	16	2	3	-9408	4080	13032	16	-5	-18	-15808	-3216	-16	0	-5	-7	-15448	-1232	-4752	-1	-12	14	127	122	8
-9908	-4328	11684	-4	14	-21	-16704	1264	-752	5	-4	17	-15016	2688	-5584	17	6	5	-9304	4184	13112	18	-10	-18	-15848	-3088	96	-7	1	-4	-15488	-1352	-4928	0	-10	21	127	118	8
-9880	-4284	11788	-12	18	-24	-16592	1424	-768	8	-1	16	-14896	2896	-5624	13	2	7	-9528	4120	13272	14	-5	-15	-15936	-3176	32	-7	5	1	-15264	-1328	-4928	2	-8	17	127	119	8
-9876	-4284	11684	-12	15	-24	-16728	1384	-904	-3	1	18	-14904	2856	-5680	13	1	7	-9440	4048	13216	13	-7	-22	-15840	-3240	112	-2	4	0	-15416	-1208	-5024	2	-11	20	126	124	8
-9900	-4316	11700	-6	15	-19	-16616	1128	-792	-1	2	17	-14840	2936	-5840	11	-3	-1	-9464	4088	13128	14	-4	-19	-15776	-3160	-16	-5	2	0	-15264	-1296	-4744	0	-12	18	126	123	8
-9872	-4288	11688	-10	13	-19	-16576	1144	-736	1	-3	17	-14944	2856	-5728	14	6	2	-9376	4176	13528	20	-4	-19	-15840	-3200	80	-13	3	-2	-15288	-1336	-4720	-4	-8	19	127	121	8
-9920	-4232	11716	-5	12	-25	-16608	1296	-784	10	2	20	-14960	2744	-5448	21	-1	4	-9496	3944	13152	14	0	-19	-15832	-3248	-48	-8	2	-5	-15408	-1288	-5040	-1	-4	17	127	118	8
-9896	-4292	11712	-6	16	-21	-16616	1320	-976	10	0	14	-14952	2856	-5584	19	2	3	-9376	4000	13216	15	-8	-21	-15784	-3160	-144	-8	2	-4	-15280	-1224	-4856	-4	-6	19	127	122	8
-9880	-4288	11720	-9	15	-26	-16696	1152	-1048	8	0	19	-14896	2920	-5752	15	2	4	-9512	4096	13272	21	-5	-14	-15880	-3176	-112	-2	1	-3	-15360	-1120	-4904	1	-2	15	126	119	8
-9856	-4292	11700	-9	17	-25	-16560	1328	-832	7	4	21	-15048	2736	-5656	25	6	5	-9304	3976	13024	12	-5	-21	-15776	-3232	-128	1	3	-9	-15272	-1400	-4848	2	2	20	126	120	8
-9868	-4244	11644	-13	11	-25	-16592	1240	-760	6	0	22	-15072	2720	-5664	22	7	10	-9448	4048	13112	16	-9	-19	-15816	-3088	-40	4	1	-5	-15360	-1216	-4920	4	1	18	127	119	8
-9880	-4264	11664	-13	11	-21	-16616	1328	-616	10	5	17	-14968	2736	-5536	30	8	8	-9432	4096	13336	15	-10	-21	-15896	-3144	-56	-2	-1	-10	-15288	-1304	-4824	8	-3	19	127	120	8
-9872	-4296	11788	-13	13	-26	-16640	1392	-712	16	2	20	-14920	2736	-5608	28	9	10	-9336	3984	12952	16	-7	-20	-15928	-3264	184	7	-1	-6	-15472	-1360	-4880	17	2	18	127	120	8
-9796	-4256	11708	-12	14	-25	-16672	1272	-920	11	7	19	-15072	2976	-5632	25	11	8	-9352	4016	13056	14	-6	-22	-15824	-3160	272	16	-3	-8	-15400	-1400	-4792	17	1	20	127	121	8
-9852	-4248	11712	-12	12	-26	-16648	1296	-896	11	5	21	-15032	2752	-5288	24	11	9	-9496	4088	13168	16	-5	-19	-15800	-3120	-80	11	-1	-6	-15432	-1392	-4752	12	2	20	127	120	8
-9876	-4372	11712	-9	18	-25	-16536	1136	-736	9	1	19	-14952	2688	-5472	25	9	10	-9496	4056	13080	20	-4	-24	-15824	-3136	184	3	0	-7	-15272	-1224	-4976	16	-6	21	127	122	8
-9880	-4312	11700	-11	13	-19	-16544	1256	-960	10	10	17	-14984	2840	-5704	29	10	5	-9504	4192	13080	15	-6	-22	-15768	-3104	-304	-4	1	-3	-15256	-1312	-4912	8	-4	20	127	120	8
-9932	-4248	11740	-13	16	-28	-16760	1208	-704	14	13	17	-14976	2768	-5696	24	10	7	-9416	4104	13224	15	-9	-21	-15944	-3184	56	1	0	-6	-15408	-1176	-5072	12	-7	20	127	120	8
-9848	-4328	11712	-6	11	-19	-16672	1216	-1000	16	12	20	-14912	2928	-5888	26	4	6	-9296	3888	13344	15	-7	-21	-15784	-3080	40	4	-1	-7	-15320	-1200	-4904	2	0	20	127	118	8
-9916	-4296	11676	-7	18	-23	-16552	1328	-800	8	10	22	-14944	2840	-5696	28	4	10	-9304	4040	13176	19	-7	-21	-15808	-3136	112	-6	2	-5	-15440	-1208	-4752	4	-5	14	127	119	8
-9912	-4216	11716	-14	16	-23	-16512	1192	-1072	3	9	14	-14840	2688	-5776	28	6	7	-9480	4104	13288	18	-5	-23	-15752	-3160	0	-8	5	-8	-15376	-1440	-4960	1	-8	15	127	118	8
-9912	-4228	11724	-9	17	-23	-16576	1136	-872	12	3	17	-14816	2880	-5744	21	4	6	-9336	3960	13336	13	2	-26	-15920	-3184	-8	-7	4	-9	-15320	-1168	-4864	-1	-8	13	127	116	8
-9880	-4300	11676	-11	14	-25	-16632	1144	-848	18	8	17	-14848	2760	-5800	26	9	6	-9504	4016	13024	17	-1	-23	-15792	-3168	24	-6	3	-7	-15376	-1304	-4808	5	0	16	127	119	8
-9936	-4208	11744	-8	13	-25	-16704	1232	-880	13	6	16	-14880	2880	-5416	25	10	7	-9472	4152	13232	12	-8	-27	-15808	-3096	-16	2	6	-9	-15352	-1480	-4904	3	5	14	127	119	8
-9936	-4312	11808	-13	16	-21	-16608	1376	-736	11	2	15	-14936	2728	-5648	25	7	5	-9408	4040	13112	15	-4	-29	-15944	-3144	-32	-1	4	-9	-15424	-1248	-4920	1	-4	16	127	118	8
-9900	-4252	11696	-13	17	-22	-16560	1296	-904	1	9	16	-15024	2896	-5480	21	3	0	-9376	4144	12992	14	-8	-24	-15720	-3096	112	-13	2	-8	-15280	-1176	-5024	3	-9	16	127	118	8
-9884	-4256	11692	-9	16	-23	-16608	1192	-992	3	5	11	-14968	2768	-5712	15	2	5	-9440	3944	13112	15	-3	-24	-15816	-3016	24	-12	4	-6	-15336	-1336	-4976	6	-11	19	127	121	8
-9920	-4260	11676	-8	14	-24	-16520	1112	-832	8	4	16	-14944	2760	-5680	20	12	3	-9472	3952	13160	15	-8	-22	-15712	-3240	-72	4	4	-9	-15128	-1336	-5216	12	-3	15	127	117	8
-9848	-4252	11588	-8	13	-24	-16608	1168	-1016	13	3	18	-14920	2880	-5816	28	11	7	-9504	4016	13056	16	-6	-22	-15800	-3152	-120	13	-2	-11	-15320	-1296	-4976	13	-7	18	127	119	8
-9936	-4264	11540	-11	14	-22	-16568	1384	-672	7	2	20	-14952	2696	-5976	24	10	7	-9544	4136	12952	18	-9	-21	-15832	-3272	-200	8	1	-12	-15536	-1360	-4904	16	-2	20	127	118	8
-9856	-4216	11628	-10	15	-27	-16552	1216	-1064	3	5	13	-14960	2736	-5760	34	8	11	-9424	4016	13368	15	-9	-23	-15816	-3272	56	17	3	-10	-15264	-1336	-5160	20	-7	20	127	118	8
-9924	-4376	11708	-10	15	-25	-16648	1296	-816	17	6	13	-14984	2752	-5728	32	7	8	-9552	3896	13144	18	-9	-23	-15720	-3176	88	24	-3	-11	-15280	-1488	-5112	19	-8	21	127	118	8
-9916	-4248	11716	-5	14	-27	-16616	1208	-592	17	8	15	-14928	2840	-5496	26	4	10	-9528	3944	13040	16	-9	-20	-15808	-3152	192	15	0	-7	-15424	-1200	-5104	17	-8	19	127	119	8
-9908	-4280	11756	-13	16	-23	-16600	1224	-696	17	7	17	-14984	2904	-5544	32	3	11	-9440	4088	13200	13	2	-22	-15704	-3048	72	0	6	-9	-15408	-1312	-4560	14	-8	18	127	120	8
-9960	-4332	11812	-14	14	-24	-16632	1168	-976	17	9	15	-14808	2792	-5608	31	6	6	-9416	4120	13312	15	-6	-21	-15896	-3272	-72	-1	0	-1	-15288	-1328	-4896	16	-11	25	127	121	8
-9948	-4308	11788	-10	15	-21	-16544	1288	-976	21	7	17	-15024	2824	-5680	38	8	11	-9424	4064	13168	15	-4	-21	-15880	-3216	64	10	3	-5	-15328	-1256	-4976	16	-11	20	127	122	8
-9920	-4296	11568	-10	17	-20	-16760	1272	-1208	22	9	18	-14920	2808	-5808	37	2	12	-9280	4144	13000	16	-6	-25	-15952	-3184	-120	9	0	-7	-15344	-1472	-5040	14	-13	22	127	120	8
-9892	-4292	11656	-12	20	-23	-16584	1216	-1056	17	11	14	-14904	2768	-5552	33	2	12	-9304	3976	13080	15	-1	-26	-15824	-3232	72	9	4	-7	-15384	-1248	-5088	12	-13	29	127	122	8
-9900	-4256	11636	-10	16	-27	-16464	1152	-672	17	9	17	-14928	2808	-5568	33	0	13	-9360	4056	13048	12	-6	-21	-15832	-3232	256	5	-1	-8	-15320	-1304	-4960	16	-11	22	127	119	8
-9876	-4264	11752	-7	16	-26	-16632	1200	-848	18	11	16	-14960	2864	-5704	31	2	10	-9448	3928	13336	21	-5	-19	-15944	-3280	120	11	-2	-7	-15256	-1360	-5312	14	-10	23	127	121	8
-9900	-4372	11640	-9	13	-28	-16592	1232	-832	13	6	19	-14912	2648	-5768	35	8	5	-9368	4064	12928	19	-7	-21	-15896	-3024	80	11	-4	-6	-15464	-1280	-5088	6	-10	26	127	120	8
-9920	-4276	11704	-10	12	-22	-16640	1320	-960	17	4	14	-14832	2856	-5832	31	4	10	-9328	3992	13304	14	-13	-24	-15912	-3080	32	-2	-3	-10	-15368	-1216	-4928	10	-15	21	127	120	8
-9884	-4232	11736	-15	14	-21	-16584	1320	-928	9	4	14	-14888	2984	-5816	29	8	9	-9320	4048	12960	16	-2	-24	-15840	-3168	-168	-8	0	-9	-15336	-1296	-4848	12	-12	21	127	120	8
-9884	-4252	11712	-16	16	-25	-16568	1208	-904	7	3	14	-14976	2744	-5608	26	1	10	-9496	4120	13128	16	-6	-26	-15856	-3224	-144	2	0	-10	-15368	-1272	-4744	14	-7	18	127	119	8
-9836	-4308	11648	-16	15	-28	-16624	1048	-768	21	4	13	-14904	2736	-5664	29	5	8	-9432	4048	12992	18	-9	-19	-15832	-3040	-32	7	2	-7	-15472	-1552	-4912	8	-8	21	127	121	8
-9844	-4276	11712	-15	17	-23	-16688	1208	-872	26	8	17	-15008	2768	-5696	32	6	6	-9328	4104	13112	19	-2	-23	-15952	-2976	216	-6	1	-4	-15352	-1296	-4888	10	-12	16	127	118	8
-9884	-4352	11728	-11	17	-27	-16728	1328	-792	18	11	16	-14896	2720	-5992	39	-1	8	-9368	4104	13208	19	-6	-20	-15760	-2944	16	-38	0	-4	-15544	-1216	-4672	1	-16	23	127	119	8
-9936	-4276	11760	-12	14	-23	-16512	1160	-944	8	8	16	-14976	2840	-5728	37	-2	12	-9504	3912	13072	19	-2	-25	-15928	-3264	152	-31	4	-12	-15464	-1240	-4864	3	-20	20	127	122	8
-9948	-4240	11780	-12	14	-23	-16688	1152	-944	22	6	18	-14896	2720	-5760	33	-2	9	-9448	3984	13008	22	-4	-20	-15712	-3208	8	-8	8	-10	-15384	-1312	-4976	9	-19	15	127	119	8
-9916	-4272	11708	-9	17	-18	-16416	1232	-848	23	12	14	-15024	2728	-5592	40	-8	10	-9448	3920	13144	16	-1	-22	-15712	-3176	0	4	2	-5	-15248	-1296	-5224	7	-12	22	127	119	8
-9944	-4236	11688	-11	18	-20	-16600	1136	-1160	30	13	17	-14840	2912	-5768	38	-4	9	-9448	4016	13056	16	-4	-24	-15816	-3024	32	-6	2	-6	-15240	-1312	-5032	8	-13	21	127	121	8
-9912	-4296	11668	-8	15	-21	-16576	1256	-992	16	8	15	-14808	2824	-5704	31	-2	6	-9488	4016	13312	15	-5	-25	-15784	-3176	-40	5	0	-5	-15296	-1272	-5168	15	-10	23	127	120	8
-9864	-4260	11672	-12	16	-22	-16560	1200	-1128	13	6	19	-14880	2752	-5816	34	0	9	-9536	3968	13144	14	-9	-21	-16024	-3240	-80	22	-2	-3	-15232	-1320	-5264	18	-8	21	127	120	8
-9952	-4288	11700	-9	14	-24	-16712	1240	-1032	18	6	13	-14984	2720	-5664	29	5	6	-9528	4144	13192	18	-8	-25	-15816	-3176	24	18	-4	-8	-15384	-1240	-4688	12	-13	19	127	120	8
-9980	-4204	11688	-5	15	-27	-16624	1272	-1072	17	4	15	-14992	2728	-5888	32	5	5	-9352	4088	13136	14	-11	-20	-15840	-3168	-208	9	-11	-7	-15296	-1408	-5120	6	-15	19	127	121	8
-9884	-4244	11712	-11	13	-22	-16640	1304	-920	13	5	19	-14928	2768	-5880	30	4	9	-9584	4128	13160	15	-11	-18	-15848	-3208	-32	8	-5	-9	-15320	-1440	-5104	10	-11	21	127	121	8
-9920	-4280	11700	-11	15	-25	-16544	1256	-1032	15	0	20	-14856	2792	-5752	32	5	10	-9512	3968	12904	17	-5	-14	-15776	-3200	24	19	-7	-6	-15432	-1424	-4656	6	-6	22	127	120	8
-9908	-4276	11772	-10	16	-23	-16512	1312	-1016	18	0	15	-14832	2816	-5872	34	3	11	-9376	3912	13280	18	-10	-24	-15760	-3192	72	11	-6	0	-15336	-1288	-4792	2	-9	21	127	122	8
-9896	-4304	11704	-14	19	-28	-16568	1208	-1000	6	-3	20	-14848	2768	-5656	20	4	14	-9336	4032	13336	19	-11	-19	-15800	-3216	40	-3	-11	-5	-15224	-1272	-4896	3	-14	24	127	118	8
-9936	-4236	11788	-13	12	-23	-16616	1264	-1080	-8	-2	14	-14856	2792	-5568	22	3	10	-9392	3928	13280	16	-11	-21	-15784	-3224	176	-7	-5	-3	-15464	-1464	-4864	3	-13	22	127	119	8
-9944	-4236	11744	-11	16	-24	-16760	1104	-1048	-2	-1	20	-14984	2744	-5704	16	3	3	-9440	4064	12936	13	1	-19	-15840	-3184	-40	-13	-3	-5	-15440	-1192	-4744	8	-12	22	127	118	8
-9912	-4212	11740	-11	13	-23	-16640	1304	-776	-3	-3	18	-14920	2840	-5576	12	1	2	-9504	4040	12816	18	-3	-23	-15784	-3184	-184	-10	-3	-4	-15480	-1288	-4920	-1	-9	23	127	118	8
-9972	-4232	11756	-10	18	-26	-16584	1200	-1032	5	3	18	-14912	2688	-5576	19	0	3	-9312	4048	12984	19	-3	-20	-15896	-3208	24	-4	2	0	-15528	-1432	-5048	7	-11	20	127	121	8
-9900	-4248	11704	-12	16	-20	-16520	1256	-912	9	8	19	-14968	2656	-5720	24	-6	10	-9240	4024	13072	15	-1	-24	-15808	-3208	-112	-10	5	2	-15424	-1280	-4984	4	-9	30	127	121	8
-9888	-4200	11712	-12	15	-22	-16496	1336	-1032	15	8	19	-14904	2792	-5456	33	2	10	-9456	4224	13080	18	-5	-17	-15912	-3168	-40	-20	6	-2	-15408	-1352	-4920	7	-14	23	127	120	8
-9948	-4272	11744	-11	15	-25	-16592	1088	-1128	30	15	18	-14920	2864	-5680	38	0	14	-9336	4048	13320	13	-7	-23	-15904	-3376	-48	-19	-2	-1	-15440	-1328	-4712	6	-12	26	127	120	8
-9964	-4284	11688	-5	16	-21	-16680	1216	-1032	24	11	20	-14848	2696	-5768	40	3	16	-9440	4072	13248	18	-2	-20	-15936	-3200	-248	-14	-2	-5	-15368	-1312	-4992	-1	-13	25	127	119	8
-9936	-4328	11736	-11	21	-25	-16624	1176	-1280	17	13	19	-14824	2704	-5920	39	0	17	-9496	3968	13088	22	-5	-19	-15824	-3160	120	-19	4	4	-15328	-1312	-5056	4	-19	20	127	120	8
-9960	-4224	11740	-8	15	-21	-16592	1248	-1088	25	7	17	-14848	2760	-5688	39	-1	17	-9504	3872	13272	17	-2	-17	-15776	-3208	32	-19	2	-4	-15272	-1264	-4896	-3	-20	21	127	118	8
-9864	-4180	11632	-8	14	-18	-16544	1248	-888	24	5	17	-14880	2752	-5664	37	-2	10	-9504	4128	13112	22	-7	-24	-15744	-3280	-72	-9	1	1	-15192	-1200	-5008	6	-16	18	126	118	8
-9876	-4268	11664	-10	16	-23	-16688	1352	-1088	16	4	16	-14712	2912	-5664	37	3	9	-9456	3928	13000	21	-2	-20	-15936	-3264	-224	-2	0	3	-15272	-1168	-4992	8	-11	22	127	122	8
-9948	-4280	11720	-15	14	-25	-16536	1304	-1128	16	0	16	-15008	2848	-5784	36	3	12	-9416	4200	13096	21	-4	-20	-15848	-3152	-128	-7	-7	1	-15288	-1120	-4848	4	-13	23	127	119	8
-9888	-4316	11552	-19	15	-24	-16504	1336	-1056	23	5	20	-14896	2976	-5760	36	3	15	-9600	4088	13088	17	-5	-26	-15816	-3008	80	-8	-2	-2	-15296	-1224	-5080	5	-11	22	127	120	8
-9988	-4264	11640	-17	16	-22	-16608	1176	-1080	37	8	19	-14792	2696	-5640	35	4	12	-9472	4200	13304	17	-7	-23	-15728	-3144	-136	-5	-3	-2	-15328	-1248	-4960	7	-10	17	127	121	8
-9868	-4204	11712	-15	20	-26	-16632	1352	-1232	32	7	21	-14880	2768	-5456	35	7	10	-9448	3936	13144	19	-2	-23	-15888	-3272	-40	-11	-3	-2	-15352	-1312	-4848	5	-7	18	126	119	8
-9920	-4232	11636	-12	14	-22	-16584	1200	-1184	20	1	10	-14888	2768	-5576	36	9	10	-9432	4088	13160	20	-7	-24	-15664	-3016	144	-9	-3	-2	-15352	-1312	-4752	4	-7	21	127	119	8
-9868	-4268	11656	-14	17	-22	-16672	1400	-1048	18	4	17	-14936	2776	-5816	30	0	6	-9408	4072	13168	18	3	-22	-15752	-3216	-128	-21	-2	-3	-15224	-1136	-4936	0	-16	24	127	121	8
-9868	-4248	11716	-15	17	-21	-16624	1224	-1184	20	11	17	-14976	2872	-5568	32	-1	11	-9496	3960	13056	15	-1	-22	-15672	-3232	-8	-14	-2	-5	-15480	-1280	-4744	6	-21	25	127	120	8
-9932	-4240	11716	-15	13	-22	-16504	1256	-1144	23	10	16	-14920	2840	-5752	32	5	15	-9440	3992	13168	17	-7	-19	-15776	-3000	-168	-9	-1	2	-15272	-1352	-4832	4	-18	20	127	121	8
-9956	-4240	11728	-12	20	-24	-16600	1208	-1072	33	13	21	-14992	2824	-5752	39	1	11	-9408	4056	13224	18	-2	-17	-15888	-3200	72	-6	1	-4	-15304	-1328	-5016	8	-16	25	127	122	8
-9936	-4316	11660	-6	17	-24	-16608	1208	-968	34	7	14	-14992	2840	-5880	40	5	12	-9608	4072	12928	14	-4	-19	-15904	-3280	80	-5	6	-7	-15296	-1256	-4848	1	-15	24	127	122	8
-9876	-4268	11644	-11	18	-22	-16512	1256	-1040	25	6	20	-14800	2816	-5704	46	-1	13	-9376	3992	13144	19	-4	-22	-15912	-3216	168	-1	-1	-6	-15416	-1168	-4848	8	-14	23	127	119	8
-9908	-4244	11736	-15	15	-25	-16552	1280	-1144	20	3	15	-14904	2864	-5896	40	-3	14	-9504	3984	13040	22	-6	-21	-15664	-3136	-184	-3	2	-5	-15424	-1288	-4568	10	-14	21	127	120	8
-9936	-4248	11660	-9	16	-23	-16520	1192	-808	22	6	14	-14984	2720	-5928	37	-3	16	-9328	4088	13264	20	-5	-24	-15696	-3080	-64	-2	-3	-3	-15296	-1320	-4928	7	-18	21	127	117	8
-9980	-4308	11604	-11	15	-23	-16672	1112	-1072	31	6	14	-14848	2840	-5800	39	3	12	-9504	3936	13144	18	-7	-19	-15648	-3024	-208	-16	1	-7	-15200	-1400	-5024	2	-11	21	127	121	8
-9916	-4232	11640	-8	15	-23	-16600	1240	-1144	31	14	21	-14880	2832	-5872	37	7	12	-9400	3960	13288	16	-9	-23	-15768	-3312	-80	-6	-1	-9	-15216	-1336	-4936	7	-6	26	127	121	8
-9908	-4272	11612	-8	13	-19	-16536	1240	-1032	25	7	18	-14872	2832	-6032	35	8	8	-9416	4080	13048	18	-3	-24	-15824	-3136	-8	14	-2	-5	-15504	-1304	-4912	7	-3	23	127	120	8
-9912	-4304	11800	-12	16	-24	-16744	1216	-1096	16	7	16	-14776	2704	-5712	33	8	10	-9504	4064	12944	19	-4	-18	-15936	-3120	104	-3	-6	-9	-15520	-1176	-4976	9	-10	18	127	117	8
-9936	-4268	11788	-9	18	-23	-16576	1272	-1016	23	3	19	-14848	2760	-6032	38	10	13	-9432	3992	12992	11	-7	-20	-15824	-3192	-16	-6	-1	-9	-15448	-1400	-4792	7	-18	20	127	121	8
-9968	-4268	11672	-11	13	-25	-16536	1264	-1128	33	6	18	-14952	2752	-5856	43	3	11	-9416	4056	13112	15	-3	-20	-15848	-3248	-64	-6	-3	-3	-15392	-1240	-4944	9	-9	22	127	119	8
-10044	-4244	11656	-13	17	-26	-16536	1256	-1144	33	11	19	-14920	2792	-5776	43	3	17	-9480	4048	13080	17	-6	-19	-15928	-3112	-272	0	0	-5	-15360	-1248	-5008	8	-10	26	127	120	8
-9892	-4296	11736	-6	15	-22	-16576	1208	-1160	35	11	18	-14992	2864	-5760	42	-1	17	-9352	4040	12920	16	4	-22	-15816	-3184	-88	-1	4	-3	-15512	-1312	-4832	5	-8	24	127	120	8
-9924	-4308	11716	-13	17	-20	-16632	1112	-1064	32	9	19	-14960	2784	-5632	36	1	10	-9368	4072	13128	19	-9	-27	-15808	-3176	192	-10	6	-5	-15440	-1120	-4912	2	-14	22	127	119	8
-9876	-4292	11840	-13	16	-19	-16656	1232	-1160	12	14	14	-14976	3000	-5600	35	-11	12	-9608	4080	13120	15	-2	-25	-15832	-3200	8	-23	5	-3	-15448	-1288	-5040	-4	-17	17	127	127	8
-9840	-4224	11700	-19	16	-22	-16504	1296	-1008	29	17	15	-14896	3160	-5544	33	-9	10	-9472	4128	13208	18	-3	-22	-15840	-3264	56	-20	5	-4	-15384	-1232	-4816	2	-22	18	127	120	8
-9892	-4192	11688	-14	21	-17	-16576	1256	-960	28	19	15	-15016	2808	-5608	37	-8	13	-9416	3976	13000	21	0	-23	-15808	-3176	-88	-25	14	2	-15368	-1208	-5032	5	-19	19	127	118	8
-9912	-4244	11684	-14	21	-21	-16520	1144	-1008	40	26	13	-15064	2848	-5576	40	-17	15	-9552	4072	13424	23	-3	-23	-15776	-3104	-144	-34	12	-2	-15432	-1216	-5000	-6	-19	16	127	120	8
-9944	-4420	11704	-20	21	-19	-16552	1248	-1168	61	26	18	-15016	2816	-5576	43	-28	14	-9368	4088	13112	19	-4	-25	-15816	-3272	-64	-36	12	-4	-15376	-1384	-4960	-4	-17	24	127	121	8
-9980	-4248	11700	-16	20	-15	-16504	1352	-968	62	33	18	-15008	2784	-5800	51	-23	17	-9528	4072	13152	22	-8	-23	-15856	-3280	-344	-40	7	-4	-15360	-1368	-4768	9	-23	18	127	120	8
-9884	-4272	11652	-13	21	-19	-16624	1192	-1304	64	41	18	-14936	2760	-5800	53	-23	19	-9528	4232	13128	20	-9	-26	-15776	-3216	-88	-23	13	-4	-15288	-1288	-5096	8	-20	28	127	121	8
-9840	-4252	11604	-13	16	-13	-16576	1224	-960	51	43	16	-14856	2688	-5696	55	-20	23	-9576	3960	13176	15	-3	-24	-15776	-3064	-392	-13	14	-8	-15216	-1256	-4792	19	-20	23	127	125	8
-9916	-4204	11672	-13	17	-16	-16536	1032	-1032	44	44	13	-14944	2688	-5512	49	-21	16	-9480	3992	13304	16	-4	-25	-15808	-3176	-136	3	13	0	-15160	-1232	-4984	18	-22	24	127	119	8
-9972	-4228	11704	-9	16	-12	-16584	1128	-984	63	39	13	-14720	2792	-5760	43	-23	17	-9464	4120	13040	15	-8	-26	-15776	-3192	-8	4	7	-8	-15352	-1360	-4976	14	-14	27	127	121	8
-9940	-4252	11756	-8	16	-16	-16552	1280	-1280	75	43	16	-14872	2856	-5952	47	-19	18	-9536	3944	13184	17	-7	-20	-15760	-3048	8	3	11	-5	-15272	-1288	-4768	21	-25	29	127	119	8
-9984	-4120	11636	-9	13	-20	-16720	1080	-1192	50	40	12	-14752	2880	-5952	45	-23	14	-9344	4088	13240	17	0	-21	-15792	-3040	-312	-9	4	-5	-15272	-1304	-5024	13	-21	31	127	118	8
-9976	-4324	11684	-4	12	-18	-16592	1144	-1592	37	33	16	-14648	2872	-5864	35	-23	12	-9592	4040	13208	16	-11	-16	-15712	-3160	-120	4	4	-1	-15248	-1440	-4936	12	-20	25	127	121	8
-9960	-4280	11700	-9	20	-16	-16496	1320	-1416	37	27	17	-14792	2776	-5912	38	-10	11	-9424	3960	13136	16	1	-20	-15784	-3112	-96	-2	-1	-5	-15392	-1224	-5184	10	-10	20	127	119	8
-9968	-4228	11700	-8	18	-20	-16600	1288	-1480	33	17	16	-14728	2840	-6128	33	-4	13	-9472	3976	13096	13	-6	-18	-15856	-3272	-128	-5	-1	-7	-15328	-1088	-5056	11	-13	20	127	120	8
-9940	-4248	11680	-7	16	-20	-16712	1160	-1272	22	13	15	-14696	2792	-5872	33	-3	11	-9480	3976	13232	15	-9	-21	-15880	-3224	-168	6	-1	-5	-15400	-1432	-4928	7	-14	23	127	121	8
-9948	-4220	11528	-9	12	-21	-16536	1096	-1528	14	2	21	-14832	2792	-6040	29	-7	8	-9528	4072	12992	15	-11	-21	-15848	-3136	-8	14	2	-4	-15256	-1384	-5128	2	-11	19	127	121	8
-9932	-4288	11540	-9	17	-24	-16576	1224	-1424	10	-3	14	-14784	2792	-5744	24	-3	6	-9608	3984	13040	14	-10	-19	-15808	-3144	-80	4	0	0	-15248	-1392	-5016	-2	-4	17	127	121	8
-9984	-4232	11688	-13	13	-24	-16608	1208	-1368	4	-4	14	-14840	2872	-5920	24	0	9	-9432	4048	13344	15	-3	-19	-15920	-3168	0	-6	0	-7	-15320	-1352	-4888	-6	-12	20	127	120	8
-9992	-4284	11700	-11	15	-23	-16592	1280	-1224	-2	-7	16	-14896	2840	-5800	14	-5	4	-9544	3984	13224	20	-10	-15	-15744	-3152	-168	-12	-3	1	-15336	-1360	-4760	-8	-12	14	127	120	8
-9968	-4180	11736	-14	12	-27	-16728	1168	-1552	-6	-5	16	-14800	2752	-5840	14	-4	3	-9232	4032	13080	19	-12	-19	-15824	-3184	-48	-8	2	-8	-15304	-1360	-4872	-2	-10	18	127	118	8
-9948	-4232	11688	-7	14	-27	-16504	1216	-1360	-9	-9	18	-14976	3000	-5704	9	-1	4	-9432	3984	13240	18	-12	-15	-15792	-3216	296	7	4	2	-15432	-1288	-5000	-7	-11	21	127	117	8
-9936	-4276	11560	-6	14	-28	-16624	1248	-1360	-4	-10	16	-14992	2872	-5640	6	-7	0	-9424	4024	13232	17	-5	-19	-15744	-2976	-136	-7	-2	-4	-15336	-1240	-4984	-1	-15	21	127	119	8
-9952	-4196	11708	-6	11	-28	-16528	1208	-1280	2	-15	20	-14944	2792	-5552	10	-10	0	-9504	4104	13216	12	-2	-19	-15824	-3216	-344	-11	-4	-7	-15328	-1272	-4808	-6	-11	24	127	121	8
-9904	-4228	11656	-10	19	-23	-16680	1440	-1344	1	-7	19	-14992	2808	-5648	13	-6	2	-9496	3984	13304	16	-7	-18	-15848	-3168	16	-6	-3	-4	-15376	-1336	-5232	-5	-12	19	127	118	8
-9944	-4272	11624	-11	16	-21	-16520	1144	-1256	2	-10	19	-15056	2824	-5624	21	-7	6	-9416	4040	13312	14	-6	-20	-15776	-3136	-112	11	-5	0	-15328	-1184	-4920	2	-19	25	127	121	8
-9952	-4244	11684	-11	17	-22	-16512	1144	-1376	11	-3	20	-14880	2768	-5864	23	-8	7	-9448	4080	12928	17	-8	-19	-15912	-3192	-216	-10	-5	-3	-15272	-1248	-4696	-10	-17	19	127	120	8
-9972	-4236	11752	-16	14	-25	-16576	1248	-1288	13	-7	12	-15016	2944	-5704	23	-8	5	-9480	4152	13216	16	-8	-16	-15808	-3136	56	-11	-9	-3	-15544	-1392	-5072	-7	-25	20	127	121	8
-9996	-4204	11584	-7	15	-24	-16576	1336	-1008	1	-4	14	-14880	2856	-5424	21	-11	4	-9488	4160	13224	16	-6	-19	-15744	-3248	-152	3	-5	-4	-15440	-1312	-4896	-3	-18	15	127	119	8
-9932	-4208	11652	-11	15	-22	-16528	1136	-1088	6	-8	15	-14944	2936	-5696	18	-9	0	-9400	4016	13120	17	-9	-18	-15816	-3104	-344	4	-6	1	-15384	-1136	-4872	-2	-19	18	127	121	8
-9980	-4200	11760	-16	13	-29	-16640	1384	-1432	6	-12	19	-14944	2912	-5808	12	-10	0	-9600	3936	13224	19	-9	-14	-15904	-3064	16	12	-4	-3	-15320	-1128	-5080	2	-19	23	127	119	8
-10012	-4200	11648	-12	13	-26	-16608	1168	-1240	6	-8	18	-14992	2848	-5872	16	-9	4	-9496	4136	13288	13	-8	-19	-15792	-3200	-88	-7	-12	-1	-15320	-1032	-4896	-2	-18	16	127	120	8
-9980	-4152	11696	-13	18	-30	-16448	1248	-1344	10	-10	18	-14928	2752	-5776	14	-10	1	-9512	4080	13008	14	-12	-18	-15856	-3048	-80	-4	-15	-9	-15352	-1224	-5032	0	-25	19	127	121	8
-9968	-4252	11780	-18	15	-30	-16592	1360	-1264	7	-14	15	-14936	2864	-5712	20	-4	6	-9496	4120	13248	20	-9	-18	-15776	-3096	80	13	-12	-2	-15496	-1176	-4816	-1	-17	18	127	120	8
-9904	-4268	11656	-13	14	-24	-16552	1280	-1184	-5	-16	14	-14888	2712	-5808	19	-7	3	-9448	3992	13144	18	-9	-21	-15840	-3184	40	8	-17	-2	-15520	-1336	-4944	2	-15	19	127	118	8
-9960	-4200	11632	-13	13	-28	-16688	1264	-1304	0	-10	8	-14904	2760	-5528	19	-5	5	-9376	3984	13120	16	-11	-18	-15760	-3176	-320	7	-12	-6	-15296	-1328	-5040	-6	-19	19	127	119	8
-9920	-4220	11776	-12	13	-25	-16648	1224	-1192	8	-9	12	-14976	2856	-5800	20	-5	6	-9488	3992	13144	16	-9	-18	-15688	-3248	-96	13	-10	-7	-15352	-1360	-4704	2	-20	23	127	116	8
-9936	-4180	11672	-16	14	-23	-16472	1192	-1200	16	-8	15	-14832	2896	-5680	20	-13	4	-9424	4016	13024	14	-3	-20	-15832	-3216	8	2	-6	-3	-15464	-1424	-5008	-3	-25	19	127	120	8
-9956	-4256	11680	-15	16	-25	-16656	1280	-1328	9	-11	12	-14936	2760	-5592	19	-11	2	-9440	4016	13248	16	-8	-22	-15864	-3304	-8	-5	-4	-3	-15240	-1384	-4808	-8	-25	23	127	120	8
-9928	-4288	11720	-9	12	-21	-16600	1168	-1328	4	-9	12	-14880	2712	-5752	16	-10	1	-9528	3952	13096	15	-1	-17	-15640	-3080	-160	-2	-9	-6	-15320	-1328	-5024	-6	-21	19	127	120	8
-9968	-4228	11712	-11	10	-25	-16544	1328	-1616	-2	-11	12	-14984	2720	-5744	8	-10	1	-9664	4064	13120	17	-9	-14	-15816	-3176	-56	1	-6	-3	-15344	-1296	-4896	-4	-22	24	127	120	8
-9924	-4236	11692	-10	14	-26	-16640	1224	-1240	-2	-10	14	-14936	2704	-5632	7	-8	-1	-9552	4048	13088	15	-8	-18	-15840	-3120	-320	-5	-6	-1	-15248	-1320	-5024	-4	-21	20	127	120	8
-9956	-4220	11612	-13	12	-24	-16584	1280	-1328	-2	-12	12	-14808	2680	-5728	13	-15	2	-9488	4032	13128	13	-14	-22	-15864	-3208	-120	4	-10	-2	-15360	-1304	-4992	-5	-24	22	127	121	8
-9884	-4236	11652	-15	11	-25	-16648	1128	-1176	2	-11	14	-14888	2792	-5768	11	-18	0	-9392	4072	13168	18	-8	-16	-15944	-3304	-88	5	-13	-6	-15384	-1320	-5024	-2	-25	19	127	119	8
-9948	-4204	11748	-6	12	-22	-16608	1200	-1072	0	-16	14	-14936	2808	-5896	13	-13	-1	-9400	4160	13328	13	-7	-18	-15992	-3168	-432	2	-14	1	-15472	-1232	-4968	-6	-26	15	127	120	8
-9940	-4228	11700	-8	16	-24	-16656	1160	-1248	1	-16	12	-14920	2840	-5632	14	-8	4	-9360	4152	13176	16	-8	-15	-15952	-3152	-264	-4	-14	-2	-15216	-1328	-5112	-11	-27	19	127	120	8
-10004	-4248	11668	-9	14	-26	-16656	1240	-1296	4	-13	12	-14880	2656	-5688	14	-7	3	-9472	4040	13152	13	-10	-19	-15888	-3208	-200	-3	-20	-6	-15296	-1192	-5040	-1	-26	17	127	120	8
-10020	-4244	11596	-7	12	-27	-16520	1200	-1128	6	-15	19	-14912	2696	-5552	15	-5	0	-9512	3992	13088	18	-7	-21	-15936	-3176	-336	12	-15	-5	-15344	-1272	-4824	-6	-26	21	127	121	8
-9948	-4232	11776	-7	12	-30	-16656	1264	-1288	-1	-13	14	-14896	2728	-5592	16	-11	1	-9432	4120	13128	16	-11	-19	-15856	-3152	-232	-4	-17	-3	-15256	-1104	-4872	-5	-22	22	127	122	8
-9904	-4180	11708	-16	14	-29	-16488	1264	-1208	-7	-19	15	-14952	2832	-5496	10	-10	0	-9480	4088	13032	16	-5	-20	-15912	-3200	-240	-2	-14	-4	-15416	-1352	-4992	-2	-19	16	127	119	8
-9960	-4244	11784	-13	10	-25	-16520	1048	-1360	-1	-19	16	-14960	2856	-5688	11	-11	4	-9416	3960	13232	14	-8	-17	-15800	-3168	-120	7	-14	-2	-15352	-1472	-5056	4	-25	18	127	120	8
-9908	-4216	11732	-11	18	-30	-16608	1256	-1320	3	-17	15	-15040	2832	-5840	19	-13	4	-9504	3984	13072	16	-7	-17	-15760	-3192	-120	17	-10	-4	-15376	-1272	-4888	4	-23	23	127	120	8
-9924	-4276	11688	-12	10	-26	-16448	1168	-1288	12	-14	17	-15072	2872	-5528	22	-7	2	-9472	4104	13080	19	-6	-19	-15848	-3080	144	1	-8	-2	-15384	-1176	-4680	-4	-29	27	127	120	8
-9928	-4240	11736	-12	14	-25	-16592	1328	-1160	9	-16	16	-14936	2864	-5776	22	-5	5	-9432	3968	13264	10	-2	-20	-15824	-3008	16	1	-13	3	-15368	-1232	-4912	2	-29	28	127	118	8
-9944	-4240	11708	-13	15	-28	-16472	1208	-1296	-4	-13	16	-14872	2864	-5648	14	-10	0	-9312	4072	13224	12	-7	-21	-15840	-3424	-96	7	-15	-3	-15416	-1256	-4928	-1	-22	24	127	120	8
-10008	-4212	11664	-9	12	-21	-16568	1288	-952	2	-13	15	-14928	2776	-5680	10	-12	0	-9392	4152	13120	18	-5	-17	-15936	-3208	8	8	-10	0	-15344	-1296	-5016	1	-19	19	127	119	8
-9932	-4264	11704	-11	14	-25	-16512	1280	-1080	-1	-13	15	-14944	2760	-5608	16	-6	3	-9496	4088	13312	15	-11	-17	-15728	-3144	-168	6	-9	-6	-15328	-1288	-4752	2	-21	17	127	120	8
-9956	-4240	11668	-8	13	-27	-16528	1088	-1144	2	-10	11	-14928	2976	-5552	17	-2	-3	-9464	4144	13040	17	-6	-19	-15920	-3208	-48	7	-14	-7	-15408	-1248	-4672	-5	-19	20	127	118	8
-9964	-4264	11712	-8	13	-26	-16704	1296	-1176	7	-12	19	-14920	2840	-5552	16	-4	-1	-9400	4176	12944	15	-6	-16	-15864	-3104	-32	17	-12	-8	-15368	-1312	-4808	2	-22	22	127	120	8
-9896	-4184	11648	-13	13	-25	-16592	1296	-1056	4	-8	16	-14928	2872	-5696	18	-3	3	-9416	4112	13032	15	-3	-17	-15848	-3160	-88	10	-9	-2	-15456	-1208	-4760	6	-22	20	127	117	8
-9916	-4276	11744	-13	16	-25	-16720	1128	-1256	1	-11	16	-15080	2784	-5664	21	0	7	-9480	4024	13280	14	-8	-16	-15888	-3024	-208	7	-11	-6	-15560	-1376	-4824	4	-17	18	127	120	8
-9904	-4248	11680	-11	11	-26	-16632	1136	-1208	5	-12	19	-14920	2672	-5680	24	0	6	-9336	4048	13064	14	-7	-17	-15848	-3192	32	7	-13	-5	-15400	-1184	-4960	3	-14	21	127	119	8
-9944	-4264	11660	-12	15	-26	-16616	1304	-1040	6	-10	19	-14904	2784	-5648	27	-2	6	-9280	4208	13032	18	-14	-20	-15712	-3224	-80	28	-9	-8	-15344	-1264	-4832	14	-12	20	127	120	8
-9928	-4308	11752	-12	12	-23	-16608	1056	-1040	10	-11	20	-15064	2912	-5584	31	1	7	-9488	3984	13216	13	-10	-25	-15752	-3112	-80	2	-9	-10	-15552	-1184	-4656	6	-18	24	127	120	8
-9928	-4260	11816	-17	13	-25	-16472	1224	-1032	11	-6	19	-14984	2928	-5512	30	3	9	-9408	4064	12976	13	-8	-18	-15936	-3144	-136	-5	-5	-3	-15448	-1360	-5016	2	-15	17	127	120	8
-9884	-4200	11708	-11	11	-22	-16624	1168	-1008	21	-2	15	-14904	3032	-5432	27	1	6	-9352	4096	13216	20	-5	-20	-15768	-3056	-56	-15	-2	-6	-15504	-1296	-4632	0	-11	22	127	121	8
-9920	-4204	11648	-8	16	-24	-16568	1112	-1304	18	1	13	-15016	2768	-5776	25	-1	3	-9368	3936	13184	17	-6	-21	-15928	-3184	136	2	-5	-3	-15424	-1304	-4872	4	-9	24	127	122	8
-9912	-4256	11728	-5	12	-24	-16584	1240	-1152	8	3	19	-14768	2952	-5600	20	-5	3	-9344	4112	13248	20	-8	-19	-15832	-3080	16	6	0	-7	-15504	-1200	-4704	2	-12	25	127	119	8
-9960	-4184	11688	-15	8	-26	-16608	1264	-984	3	0	13	-14952	2880	-5624	15	-7	1	-9448	4144	12928	20	-7	-24	-15712	-3056	8	5	-5	-4	-15480	-1280	-5056	3	-17	23	127	121	8
-9852	-4224	11612	-15	16	-26	-16624	1192	-1032	2	-6	16	-14912	2880	-5512	15	-5	3	-9456	4112	12904	15	-10	-19	-16000	-3208	-136	5	-2	-6	-15304	-1240	-4904	3	-15	18	127	118	8
-9876	-4260	11744	-15	15	-24	-16520	1384	-1328	3	-4	15	-14744	2640	-5456	17	-8	6	-9488	4000	13288	15	-1	-21	-15856	-3200	-112	7	-3	-1	-15328	-1152	-4856	4	-15	19	127	121	8
-9892	-4236	11708	-16	20	-27	-16568	1224	-1288	5	-5	14	-15056	2760	-5696	21	-7	5	-9456	4064	13064	16	-5	-20	-15816	-3136	-192	0	-1	-3	-15448	-1272	-4808	3	-9	17	127	125	8
-9948	-4236	11660	-14	14	-24	-16608	1240	-1080	19	-6	18	-14896	2752	-5712	27	-5	7	-9352	3960	13368	18	-13	-19	-15896	-3208	120	-8	-5	-8	-15464	-1280	-4944	6	-12	23	127	118	8
-9928	-4284	11704	-15	15	-25	-16640	1216	-1360	16	1	17	-14944	2696	-5664	29	2	7	-9304	4064	13088	16	-4	-18	-15896	-3200	-200	-5	-6	-5	-15352	-1400	-4872	6	-8	20	127	119	8
-9924	-4236	11624	-13	18	-24	-16536	1272	-864	16	-6	15	-14952	2824	-5592	30	0	8	-9424	3992	12848	17	-4	-24	-15784	-3248	-72	1	-10	-4	-15336	-1168	-4920	0	-9	24	127	119	8
-9876	-4208	11596	-12	14	-23	-16592	1256	-1160	2	-6	10	-14984	2696	-5768	25	2	4	-9448	3904	13152	19	-9	-16	-15856	-3080	-112	3	-9	-4	-15440	-1120	-4864	-1	-6	20	127	118	8
-9964	-4288	11708	-10	13	-23	-16528	1096	-1072	6	-4	13	-14896	2888	-5592	23	3	6	-9368	4104	13240	15	-5	-20	-15896	-3176	-128	3	-14	-6	-15408	-1368	-5056	5	-9	22	127	119	8
-9904	-4252	11588	-10	13	-26	-16704	1336	-1360	17	-5	18	-15056	2720	-5512	25	7	7	-9496	4064	12880	19	-7	-17	-15776	-3216	-8	14	-8	-7	-15456	-1256	-4688	11	-17	19	127	119	8
-9932	-4156	11744	-12	12	-26	-16544	1352	-1344	18	-8	19	-14848	2936	-5472	25	4	7	-9504	3952	13040	13	0	-23	-15944	-2960	24	16	-11	-5	-15416	-1168	-4856	9	-20	17	127	116	8
-9968	-4264	11688	-12	14	-25	-16808	1112	-1056	9	-7	12	-15112	2920	-5592	20	3	6	-9440	4064	13136	16	-8	-20	-15752	-3080	-40	20	-8	-7	-15376	-1312	-4968	7	-13	23	127	120	8
-9900	-4256	11752	-12	17	-31	-16600	1216	-1288	10	-5	18	-14912	2680	-5520	18	-11	2	-9392	4104	12928	19	-5	-24	-15664	-3152	8	-8	-9	-9	-15432	-1104	-4512	7	-17	20	127	121	8
-9932	-4224	11716	-14	19	-30	-16560	1296	-1256	-2	-8	17	-14976	2832	-5752	17	0	3	-9432	3936	13320	14	-2	-20	-15880	-3160	88	5	-5	-10	-15408	-1168	-4784	1	-13	18	127	120	8
-9932	-4196	11708	-15	19	-29	-16504	1240	-1088	3	-4	17	-14848	2912	-5512	23	0	6	-9472	3976	13168	16	-1	-21	-15936	-3024	16	-3	-3	-6	-15376	-1064	-4816	3	-9	16	127	119	8
-9844	-4196	11760	-15	17	-23	-16584	1272	-1168	7	-3	12	-15048	2808	-5488	21	8	5	-9536	4064	13288	14	-2	-20	-15720	-3032	-80	-9	-2	-3	-15344	-1152	-4632	-9	-5	14	127	117	8
-9916	-4268	11636	-16	15	-24	-16720	1240	-1128	9	-1	15	-15056	2792	-5544	23	8	7	-9312	4000	13304	17	-3	-22	-15912	-2984	-208	-16	1	-5	-15512	-1120	-4856	-7	-2	13	127	121	8
-9932	-4228	11676	-7	12	-24	-16472	1152	-1080	10	2	16	-15048	2792	-5712	17	5	2	-9472	4208	13288	13	-5	-23	-15776	-3120	-160	-15	3	-3	-15416	-1352	-4696	-8	-6	9	127	121	8
-9984	-4248	11800	-10	12	-22	-16480	1336	-1168	6	7	14	-14936	2968	-5600	17	8	2	-9408	4088	13256	13	-6	-24	-15760	-3264	144	6	3	-4	-15344	-1352	-5000	2	-10	16	127	119	8
-9884	-4284	11740	-11	12	-24	-16576	1336	-976	0	8	17	-14880	2728	-5648	13	0	1	-9424	4136	13056	16	-7	-21	-15912	-3224	40	11	8	-5	-15408	-1352	-4624	7	-9	17	127	122	8
-9944	-4288	11652	-10	14	-23	-16632	1192	-1056	-2	7	13	-14896	2736	-5592	6	1	1	-9400	4040	13368	13	-10	-20	-15744	-3120	-184	6	5	-6	-15352	-1360	-4656	10	-12	21	127	119	8
-9912	-4240	11736	-14	10	-22	-16656	1304	-1224	9	7	15	-14872	2808	-5480	16	-1	7	-9472	3992	13152	13	-9	-23	-15848	-3152	-48	7	7	-6	-15568	-1440	-4968	12	-8	22	127	120	8
-9896	-4256	11744	-13	12	-22	-16680	1208	-1384	16	5	16	-15056	2640	-5872	24	4	4	-9440	4032	13184	10	-8	-23	-15816	-3272	-192	6	3	-9	-15424	-1384	-5032	16	-12	23	127	120	8
-9924	-4216	11684	-8	11	-25	-16440	1096	-1064	18	8	23	-14784	2760	-5664	28	2	8	-9424	4056	13240	14	-8	-24	-15824	-3176	-296	15	8	-7	-15408	-1080	-4920	13	-9	27	127	120	8
-9884	-4220	11560	-9	12	-26	-16528	1136	-1232	10	4	20	-14904	2728	-5728	23	1	9	-9432	4080	13128	14	-7	-22	-15832	-3192	-216	20	0	-6	-15256	-1264	-4816	10	-8	24	127	119	8
-9932	-4196	11672	-12	14	-25	-16520	1200	-1168	10	8	18	-14880	2720	-5880	21	5	9	-9368	4152	13096	14	-1	-22	-15784	-3160	-192	6	0	-9	-15392	-1232	-4792	7	-6	18	127	120	8
-9904	-4256	11624	-13	13	-23	-16456	1264	-1168	6	1	16	-14952	2992	-5688	26	0	12	-9392	4096	13176	11	-1	-24	-15856	-3176	-248	8	2	-10	-15240	-1192	-4808	11	-8	18	127	117	8
-9896	-4260	11684	-7	12	-20	-16496	1248	-1168	2	-2	20	-14976	2824	-5456	22	1	11	-9448	4088	13088	8	-9	-18	-15864	-3072	-208	5	2	-9	-15248	-1256	-4928	3	-11	20	127	118	8
-9916	-4208	11736	-5	16	-23	-16392	1152	-1136	5	1	20	-14880	3096	-5688	23	-1	6	-9416	4216	13368	13	-4	-22	-15848	-3232	-128	6	-3	-5	-15384	-1248	-4992	2	-15	23	127	117	8
-9892	-4200	11768	-6	15	-20	-16608	1160	-1392	12	-3	18	-14848	2920	-5816	25	-5	5	-9496	4048	13088	14	-5	-23	-15792	-3144	-144	-4	-2	-2	-15400	-1152	-4912	6	-16	24	127	121	8
-9896	-4252	11768	-15	16	-24	-16640	1408	-1544	14	4	14	-14928	2928	-5752	17	-3	3	-9488	4048	13256	12	-10	-23	-15824	-3176	-304	-4	-2	-6	-15336	-1280	-4720	6	-12	21	127	120	8
-9948	-4224	11680	-14	14	-22	-16640	1248	-1272	9	-2	17	-15032	2840	-5680	12	-6	2	-9320	4176	12984	17	-8	-24	-15912	-3104	72	9	-1	-1	-15368	-1296	-4928	5	-14	21	127	122	8
-9904	-4264	11648	-17	14	-26	-16624	1144	-1288	5	-2	16	-14976	2864	-5584	12	-3	2	-9400	4024	13208	19	-7	-18	-15880	-3168	-232	6	-1	-7	-15304	-1088	-4776	5	-10	17	127	119	8
-9900	-4228	11852	-15	15	-24	-16592	1216	-1280	2	-7	20	-15056	2760	-5824	12	1	3	-9480	4120	13152	15	-6	-21	-15832	-3216	-240	-3	-4	-8	-15320	-1240	-4752	-6	-15	19	127	120	8
-9892	-4176	11672	-9	13	-22	-16584	1136	-1224	-2	-4	13	-14952	2776	-5536	16	-5	4	-9376	4056	13240	11	-6	-16	-15880	-3248	-32	-1	-12	-6	-15320	-1224	-4992	-7	-14	16	127	118	8
-9900	-4160	11684	-14	12	-22	-16688	1296	-1128	3	-1	14	-14920	2816	-5528	16	-6	4	-9472	4088	13120	16	-10	-18	-15696	-3168	-96	-2	-8	-6	-15400	-1312	-4848	-1	-12	14	127	120	8
-9888	-4256	11720	-6	15	-20	-16544	1240	-1480	6	-5	21	-14856	2952	-5752	17	-2	7	-9536	3872	13024	19	-10	-19	-15816	-3000	-224	-2	-9	-5	-15376	-1360	-5008	-6	-8	19	127	123	8
-9896	-4160	11752	-7	16	-24	-16576	1200	-1064	2	-12	12	-14912	2752	-5768	18	-2	3	-9440	4096	13224	19	-10	-19	-15840	-3160	-320	5	-8	-7	-15176	-1200	-5168	-1	-9	18	127	120	8
-9944	-4292	11648	-9	17	-25	-16512	1096	-1248	-3	-9	17	-15056	2968	-5840	13	-1	0	-9512	3944	13040	14	-5	-19	-15880	-3208	96	0	-12	-4	-15264	-1232	-5240	0	-9	19	127	120	8
-9960	-4204	11676	-9	13	-25	-16640	1360	-1200	-1	-18	17	-14824	2784	-5824	14	-5	-1	-9424	3968	13096	17	-7	-16	-16040	-3080	-168	11	-10	-9	-15328	-1280	-5072	2	-10	20	127	119	8
-9964	-4164	11712	-11	10	-28	-16640	1296	-1168	-4	-12	22	-14976	2848	-5704	8	-8	3	-9680	4104	13200	19	-5	-24	-15864	-3280	-264	18	-18	-9	-15264	-1152	-4888	4	-11	17	127	121	8
-9892	-4240	11628	-13	13	-28	-16768	1240	-1248	1	-22	17	-14880	2728	-5448	12	-1	1	-9432	3952	13232	17	-2	-19	-15672	-3104	-272	22	-15	-9	-15272	-1280	-5048	6	-12	16	127	120	8
-9940	-4224	11744	-16	15	-28	-16592	1176	-1144	-1	-21	17	-15088	2872	-5368	12	1	2	-9328	3976	13040	16	-2	-14	-15912	-3224	-64	19	-15	-10	-15416	-1264	-5040	7	-15	20	127	118	8
-9948	-4276	11688	-8	8	-29	-16576	1232	-984	0	-20	17	-14888	2904	-5808	18	4	4	-9320	3960	13320	15	-6	-17	-15936	-3200	-480	19	-24	-7	-15208	-1344	-4912	5	-12	17	127	121	8
-9916	-4252	11776	-15	14	-32	-16544	1200	-1168	-3	-21	13	-14976	2664	-5632	18	-2	5	-9464	4128	13232	17	-9	-15	-15880	-3104	80	19	-14	-8	-15304	-1216	-4808	3	-18	18	127	119	8
-9908	-4284	11832	-10	14	-26	-16632	1344	-1144	-2	-18	17	-14888	2912	-5760	17	-6	4	-9536	4120	13464	11	-13	-20	-15752	-3136	24	15	-17	-8	-15400	-1440	-4920	8	-17	21	127	120	8
-10024	-4260	11796	-10	12	-31	-16440	1160	-984	6	-16	18	-14960	3000	-5816	18	-2	6	-9456	4056	13280	20	-9	-15	-15824	-3224	-64	11	-17	-10	-15368	-1328	-4800	11	-14	21	127	120	8
-9932	-4208	11628	-10	12	-29	-16440	1344	-944	8	-20	15	-14960	2856	-5592	18	3	0	-9552	3912	13152	19	-4	-15	-15880	-3184	144	11	-17	-5	-15256	-1136	-4832	6	-12	26	127	118	8
-9956	-4288	11612	-15	11	-31	-16560	1144	-1176	6	-16	18	-14944	2752	-5544	16	8	0	-9336	4088	13088	13	-9	-17	-15728	-3152	224	29	-19	-8	-15448	-1264	-4800	11	-16	27	127	118	8
-9880	-4264	11692	-11	9	-32	-16592	1144	-1184	-1	-20	11	-15064	2864	-5768	12	5	-1	-9464	4040	13304	15	-7	-16	-15952	-3048	72	15	-17	-6	-15512	-1272	-5032	5	-11	22	127	120	8
-9916	-4204	11728	-15	11	-27	-16680	1208	-856	-15	-18	13	-15104	2600	-5448	8	4	0	-9360	3944	13072	11	-5	-22	-15720	-3184	176	7	-22	-3	-15368	-1304	-4792	3	-13	21	127	118	8
-9952	-4232	11720	-15	11	-26	-16632	1304	-1008	-19	-21	14	-14944	2888	-5336	13	-2	0	-9392	4080	13064	14	-7	-19	-15848	-3168	80	-4	-16	-5	-15280	-1176	-4896	3	-18	17	127	118	8
-9952	-4196	11828	-18	14	-28	-16672	1240	-896	-10	-13	16	-14928	2880	-5808	8	-4	7	-9568	4016	13392	11	-6	-13	-15656	-3192	208	2	-16	-2	-15456	-1336	-4904	11	-19	19	127	119	8
-9824	-4184	11640	-10	16	-22	-16560	1200	-1128	11	-13	13	-14856	2912	-5336	11	-11	0	-9376	4120	13328	13	-9	-19	-15816	-3176	0	22	-16	-5	-15496	-1224	-4896	10	-18	24	127	116	8
-9916	-4228	11620	-10	15	-25	-16672	1240	-1112	8	-10	17	-15104	2904	-5584	15	-9	3	-9408	3992	13160	15	-10	-18	-15672	-3176	88	14	-14	-5	-15496	-1296	-4832	7	-15	28	127	118	8
-9964	-4184	11720	-7	15	-30	-16608	1408	-1064	7	-15	15	-14816	2840	-5576	19	-5	4	-9336	4104	13232	12	-6	-18	-15856	-3168	-88	9	-18	-10	-15368	-1216	-5200	12	-18	29	127	116	8
-9896	-4176	11756	-9	13	-28	-16528	1312	-1224	5	-14	12	-14936	2936	-5584	21	-10	3	-9408	4176	13400	14	-5	-17	-15912	-3184	-224	10	-18	-5	-15448	-1248	-4984	16	-19	31	127	119	8
-9896	-4244	11564	-13	15	-26	-16632	1400	-1112	10	-12	13	-14936	2776	-5888	16	-7	4	-9424	4080	13168	15	-5	-17	-15768	-3064	88	18	-18	-4	-15432	-1240	-4856	14	-25	24	127	116	8
-9912	-4272	11652	-11	13	-25	-16600	1312	-888	11	-18	14	-14776	2832	-5688	20	-9	3	-9536	4128	13040	20	-11	-16	-15728	-3040	40	-14	-15	-3	-15488	-1328	-4888	1	-30	27	127	118	8
-9904	-4244	11688	-9	10	-27	-16552	1192	-1200	7	-15	16	-14792	2912	-5640	22	-7	8	-9464	4040	13016	18	-5	-11	-15944	-3224	72	-5	-18	-6	-15392	-1256	-4816	4	-26	28	127	121	8
-9860	-4168	11740	-8	13	-24	-16720	1248	-1280	1	-18	16	-14944	2904	-5880	19	-7	4	-9496	4040	13384	16	-11	-14	-15656	-3136	-136	9	-19	-2	-15352	-1304	-4816	7	-24	27	127	118	8
-9888	-4264	11800	-15	18	-29	-16576	1200	-1064	1	-17	14	-14960	2936	-5688	20	-9	9	-9448	3904	12880	19	-11	-17	-15808	-3080	-80	20	-20	-2	-15456	-1328	-5080	7	-29	27	127	120	8
-9920	-4236	11784	-6	16	-33	-16640	1320	-1232	6	-19	13	-14936	2768	-5520	20	-14	4	-9368	4136	13200	20	-3	-18	-15752	-3264	176	23	-15	-2	-15512	-1120	-4720	6	-30	24	127	121	8
-9896	-4272	11680	-9	13	-36	-16584	1392	-928	6	-19	17	-14880	2888	-5576	22	-18	3	-9368	4088	13136	15	-10	-19	-15808	-3224	240	7	-22	-5	-15392	-1320	-4784	8	-31	26	127	123	8
-9916	-4192	11676	-7	13	-31	-16528	1392	-1248	13	-23	16	-14904	2792	-5808	23	-16	1	-9328	4160	13024	19	-3	-18	-15808	-3120	264	5	-11	0	-15272	-1456	-4872	12	-33	24	127	122	8
-9892	-4184	11660	-10	10	-22	-16576	1264	-1200	2	-22	14	-15016	2864	-5624	16	-10	3	-9392	4024	13064	13	-4	-16	-15896	-3120	264	5	-13	1	-15320	-1256	-4824	5	-31	30	127	119	8
-9908	-4232	11668	-9	14	-23	-16608	1240	-1168	2	-22	13	-14840	3016	-5824	10	-12	-1	-9328	4032	13016	15	-3	-17	-15832	-2912	40	4	-16	0	-15336	-1152	-4936	-3	-30	26	127	121	8
-9912	-4208	11772	-11	13	-30	-16600	1376	-1016	-6	-22	15	-15144	2952	-5544	5	-8	-4	-9544	4152	13072	16	-6	-17	-15904	-3184	136	-2	-13	-1	-15512	-1168	-4856	-4	-27	22	127	120	8
-9868	-4272	11760	-14	13	-29	-16568	1304	-928	-13	-31	11	-14984	2784	-5448	4	-7	-7	-9368	4048	13136	16	-6	-16	-15744	-3216	-48	4	-14	-3	-15464	-1176	-4888	5	-37	19	127	118	8
-9908	-4244	11612	-15	12	-29	-16696	1216	-1112	-15	-25	14	-14968	2944	-5512	5	-16	-7	-9432	4048	13088	12	-6	-19	-15864	-3104	224	7	-14	-1	-15496	-1288	-4768	2	-36	21	127	116	8
-9888	-4176	11752	-15	14	-25	-16376	1160	-944	-7	-24	12	-14976	2816	-5408	6	-18	-2	-9336	4024	12960	12	-6	-21	-15880	-3192	232	1	-12	-8	-15360	-1176	-4624	-1	-37	23	127	118	8
-9832	-4260	11684	-13	13	-29	-16584	1192	-896	3	-19	11	-15024	2728	-5496	9	-19	2	-9352	4040	13240	15	-7	-19	-15856	-3232	168	-6	-12	1	-15512	-1312	-5016	-2	-29	26	127	120	8
-9900	-4256	11760	-11	17	-23	-16520	1224	-1152	6	-17	14	-15024	2984	-5448	15	-15	1	-9360	4088	13280	11	-3	-20	-15856	-3296	16	-8	-9	-1	-15472	-1272	-4752	-3	-36	23	127	117	8
-9928	-4224	11688	-12	17	-24	-16776	1168	-920	2	-20	9	-14832	2880	-5592	17	-16	0	-9392	3976	12992	19	-10	-20	-15792	-3176	104	0	-3	1	-15416	-1304	-4560	-2	-38	25	127	120	8
-9908	-4240	11720	-13	11	-29	-16640	1208	-1096	2	-18	7	-14976	2840	-5632	12	-18	0	-9432	4176	13360	12	-9	-15	-16048	-3160	-8	-5	-9	-2	-15504	-1248	-4864	-5	-30	28	127	120	8
-9840	-4192	11668	-10	14	-28	-16520	1240	-1112	4	-13	11	-15016	2864	-5528	15	-20	-2	-9320	4208	13120	15	-6	-17	-15808	-3288	0	-10	-18	-3	-15384	-1232	-5016	-2	-27	21	127	120	8
-9948	-4196	11744	-11	16	-24	-16544	1256	-1064	12	-18	10	-14824	2872	-5704	18	-17	-3	-9304	4088	13048	17	-3	-19	-15856	-2976	-200	14	-15	-4	-15328	-1248	-4896	1	-40	25	127	117	8
-9852	-4204	11692	-11	12	-31	-16592	1192	-1232	13	-24	14	-15112	2792	-5640	18	-17	-4	-9424	4096	13264	14	-6	-17	-15840	-3040	96	10	-22	-2	-15328	-1104	-4544	0	-35	23	127	117	8
-9916	-4208	11724	-16	14	-26	-16616	1272	-920	6	-21	13	-15088	2712	-5824	22	-15	0	-9432	4040	13240	13	-8	-22	-15760	-3184	-272	-5	-19	-6	-15384	-1320	-4672	4	-29	23	127	119	8
-9892	-4232	11748	-14	13	-29	-16680	1168	-1152	11	-22	13	-15064	2872	-5544	21	-13	3	-9416	4048	13088	12	-6	-17	-15816	-3280	-160	10	-17	-7	-15424	-1256	-4768	2	-25	26	127	119	8
-9904	-4268	11708	-10	15	-29	-16688	1120	-1088	6	-21	15	-15088	2856	-5296	22	-14	6	-9664	4056	13256	12	-4	-14	-15760	-3072	80	10	-24	-5	-15416	-1344	-4904	7	-29	24	127	121	8
-9860	-4232	11752	-9	11	-26	-16696	1216	-816	6	-26	15	-14848	2920	-5632	23	-12	-1	-9400	4056	13112	12	-7	-17	-15768	-3288	312	16	-21	-10	-15456	-1296	-4824	6	-26	25	127	120	8
-9948	-4252	11696	-11	11	-27	-16600	1280	-968	8	-25	15	-14848	2760	-5632	24	-8	4	-9568	4096	13208	14	-8	-22	-15824	-3248	296	11	-22	1	-15560	-1200	-4568	4	-36	24	127	118	8
-9876	-4256	11740	-17	11	-26	-16720	1280	-784	10	-23	11	-15008	2896	-5400	18	-16	-1	-9344	3968	13216	17	-4	-19	-15784	-3072	288	18	-25	0	-15520	-1328	-4472	12	-27	21	127	121	8
-9932	-4200	11724	-14	15	-27	-16504	1128	-1040	12	-18	11	-14968	3040	-5472	20	-14	-3	-9400	4032	13088	14	-9	-11	-15664	-3064	400	9	-15	-5	-15376	-1184	-4696	8	-30	26	127	119	8
-9892	-4248	11720	-11	12	-29	-16600	1344	-968	17	-17	14	-15008	2832	-5592	13	-16	1	-9304	4016	13016	17	-5	-19	-15848	-3160	136	3	-16	-2	-15392	-1168	-4632	1	-28	29	127	120	8
-9852	-4208	11804	-10	15	-28	-16552	1304	-952	6	-19	11	-15112	2944	-5528	14	-18	-2	-9512	4144	13152	14	-4	-17	-15792	-3152	88	-3	-16	0	-15416	-1216	-4856	-1	-32	27	127	119	8
-9896	-4272	11700	-5	14	-22	-16680	1056	-1048	9	-18	11	-15104	2904	-5640	18	-19	-2	-9392	4136	12992	16	-6	-19	-15848	-3144	0	-2	-20	-4	-15416	-1184	-4568	6	-32	28	127	121	8
-9888	-4264	11704	-12	13	-29	-16720	1176	-1008	10	-18	8	-15032	2760	-5648	15	-20	-2	-9432	4080	13304	18	-6	-17	-15984	-3152	-16	19	-20	-7	-15408	-1160	-4864	10	-26	23	127	120	8
-9876	-4288	11740	-15	18	-23	-16640	1224	-1208	7	-21	10	-14912	2752	-5544	11	-16	-2	-9464	4104	12896	13	-3	-15	-15752	-3072	-64	28	-22	-9	-15392	-1136	-4896	23	-21	24	127	119	8
-9964	-4228	11708	-15	17	-25	-16592	1264	-1064	5	-25	11	-14952	2760	-5432	13	-7	-1	-9448	4088	13312	15	-12	-18	-15880	-3200	-32	26	-18	-5	-15400	-1264	-4920	20	-19	24	127	120	8
-9916	-4264	11700	-13	16	-26	-16680	1192	-832	0	-27	10	-14832	2728	-5464	9	-3	-3	-9568	3880	13472	12	-2	-15	-15824	-3072	88	43	-26	-16	-15352	-1176	-4992	21	-22	25	127	118	8
-9856	-4188	11664	-13	17	-25	-16728	1248	-1008	-2	-31	15	-14808	2784	-5496	8	-3	-5	-9448	4160	13232	9	-5	-15	-15848	-3200	-200	34	-31	-11	-15432	-1272	-4712	21	-15	25	127	119	8
-9852	-4208	11744	-17	11	-26	-16648	1160	-720	-8	-34	11	-14944	2792	-5624	1	-3	-4	-9592	4104	13312	14	-3	-13	-15856	-3392	224	63	-23	-17	-15360	-1184	-4808	28	-17	21	127	118	8
-9916	-4356	11752	-24	9	-33	-16728	1216	-816	30	-49	29	-14912	2840	-5536	-2	1	-1	-9432	4152	13184	14	-4	-12	-15920	-3152	136	91	-27	-9	-15456	-1392	-4712	32	-10	25	127	120	8
-9948	-4300	11640	-31	17	-29	-16512	1192	-816	68	-47	34	-14984	2624	-5720	2	3	-3	-9456	4024	13168	14	-7	-17	-15808	-3296	248	90	-23	-15	-15440	-1120	-4576	25	-12	26	127	121	8
-9928	-4336	11716	-25	19	-32	-16504	1200	-952	94	-48	32	-15072	2544	-5312	10	-5	0	-9512	3920	13416	9	-11	-13	-15832	-3040	496	92	-16	-12	-15320	-1272	-4720	34	-7	28	127	119	8
-9856	-4300	11672	-20	20	-27	-16632	1216	-912	160	-55	27	-14992	2704	-5472	13	-11	4	-9400	4120	13304	7	-7	-13	-15944	-3208	240	102	-18	-17	-15376	-1232	-4560	42	-5	26	127	121	8
-10036	-4272	11832	-19	27	-28	-16456	1176	-664	164	-40	37	-15136	2672	-5264	24	-5	2	-9376	4088	13008	6	-5	-17	-15976	-3072	272	106	-13	-18	-15440	-1144	-4600	29	-1	26	127	120	8
-9936	-4356	11732	-11	32	-25	-16624	1208	-904	133	-24	34	-15136	2728	-5416	23	-6	7	-9392	4040	13232	1	3	-17	-15808	-3088	368	102	-11	-22	-15400	-1008	-4896	-6	0	35	127	118	8
-9888	-4224	11580	-1	33	-33	-16472	1288	-792	132	-9	37	-15096	2728	-5224	18	-3	9	-9432	4112	13240	-2	3	-14	-15624	-3080	248	100	-14	-25	-15504	-1048	-4664	-13	10	38	127	118	8
-9856	-4272	11628	4	27	-22	-16624	1104	-1064	111	-4	44	-14992	2640	-5584	16	-4	6	-9416	4248	12960	5	11	-24	-15760	-3320	376	80	-11	-22	-15560	-1248	-4672	11	-5	27	127	120	8
-9868	-4292	11692	4	27	-20	-16728	1144	-1152	64	-8	41	-14904	2720	-5752	15	-10	5	-9536	4000	13400	3	-9	-25	-15824	-3312	264	83	-9	-16	-15648	-1224	-4736	23	-13	27	127	117	8
-9920	-4188	11864	7	25	-24	-16640	1384	-1136	-12	-17	22	-15008	2600	-5640	20	-21	4	-9288	4072	13056	8	-6	-21	-15896	-3200	320	75	-3	-9	-15512	-1504	-4688	32	-25	30	127	119	8
-9972	-4124	11896	-3	18	-29	-16504	1248	-680	10	-41	11	-14928	2992	-5296	17	4	9	-9264	4080	13376	10	-8	-22	-15992	-3224	472	58	-8	-8	-15512	-1544	-4456	35	-24	37	127	117	8
-9876	-4208	11688	-8	21	-33	-16400	1048	-696	48	-40	16	-15160	3104	-5240	41	5	17	-9544	4040	13248	10	-9	-13	-15896	-3240	368	42	-1	-7	-15544	-1352	-4608	33	-22	40	127	118	8
-9768	-4236	11688	-9	15	-30	-16656	1168	-616	86	-28	24	-15184	3112	-5392	41	-16	11	-9440	4040	13192	14	-14	-17	-15784	-3072	272	29	0	-8	-15440	-1224	-4536	29	-17	37	127	118	8
-9800	-4220	11632	-5	11	-29	-16568	1360	-704	62	-13	21	-15152	2968	-5136	37	-22	10	-9528	4064	12992	13	-9	-16	-15720	-3184	288	24	2	-2	-15496	-1104	-4784	25	-25	29	127	118	8
-9892	-4196	11700	-13	13	-25	-16504	1432	-872	-2	-13	19	-15184	2792	-5128	35	-7	6	-9480	3880	13192	12	-15	-16	-15792	-3000	344	22	-1	-6	-15488	-984	-4552	20	-32	24	127	119	8
-9812	-4204	11636	-17	7	-26	-16608	1248	-928	-42	-7	8	-15136	2664	-5192	16	10	10	-9400	3992	13224	13	-15	-18	-15848	-3048	336	11	7	-9	-15568	-1016	-4264	14	-31	21	127	117	8
-9884	-4260	11720	-12	8	-19	-16656	1096	-512	-61	-2	9	-15152	2864	-5280	-3	3	5	-9312	3976	13232	10	-11	-14	-15800	-3144	168	1	8	-7	-15440	-1240	-4712	14	-28	21	127	120	8
-9944	-4264	11644	-6	11	-17	-16536	1000	-616	-35	-2	12	-15152	3024	-5592	-4	-12	1	-9240	4088	13096	13	-10	-18	-15816	-3232	392	3	16	-4	-15640	-1152	-4488	19	-24	23	127	119	8
-9948	-4248	11756	-11	15	-19	-16528	1352	-728	-12	1	9	-14992	2992	-5568	11	-13	4	-9232	4072	13000	13	-8	-24	-15888	-3152	120	9	21	-4	-15552	-1232	-4536	30	-32	29	127	121	8
-9872	-4176	11712	-10	17	-24	-16568	1224	-776	-1	2	13	-14912	2792	-5296	8	-21	10	-9376	3952	13264	9	-12	-21	-15920	-3056	408	14	27	-11	-15608	-1264	-4632	34	-32	30	127	117	8
-9916	-4232	11768	-8	14	-18	-16600	1328	-856	-6	8	19	-15064	2744	-5520	2	-17	5	-9576	4072	13240	16	-11	-26	-15912	-3304	392	18	29	-1	-15456	-1160	-4752	40	-31	34	127	120	8
-9896	-4248	11604	-11	15	-24	-16688	1312	-792	-19	7	19	-14952	2808	-5680	5	-13	5	-9280	4088	13024	11	-7	-18	-15832	-3144	144	8	24	4	-15368	-1304	-4776	39	-24	35	127	121	8
-9848	-4252	11692	-14	12	-24	-16600	1448	-920	-53	12	12	-14960	2832	-5424	-1	-3	4	-9352	4128	13064	14	-9	-23	-15792	-3024	384	23	23	-1	-15440	-1248	-4896	31	-37	30	127	118	8
-9864	-4228	11524	-17	6	-23	-16592	1168	-912	-66	9	12	-14856	2880	-5472	4	-5	4	-9392	4016	12944	10	-1	-22	-15728	-3232	248	3	23	-3	-15600	-1096	-4808	30	-37	29	127	119	8
-9920	-4116	11672	-13	3	-24	-16640	1128	-720	-70	11	16	-14976	2768	-5656	3	1	6	-9440	4016	13048	14	-9	-19	-15912	-3224	32	-19	24	-5	-15368	-1040	-4848	19	-33	30	127	120	8
-9944	-4240	11732	-5	-2	-19	-16680	1352	-992	-71	13	9	-14960	2760	-5600	3	-3	4	-9320	3984	13168	14	-3	-23	-15848	-3064	-40	-10	18	-4	-15320	-1128	-4688	8	-28	22	127	119	8
-9968	-4220	11704	-10	3	-25	-16552	1304	-856	-72	18	8	-14992	2912	-5488	1	-3	3	-9272	3960	13400	14	-5	-20	-15752	-3248	208	1	19	-4	-15328	-1240	-4712	15	-18	21	127	119	8
-9772	-4240	11644	-4	6	-21	-16608	1272	-888	-91	15	4	-15024	2840	-5336	-4	6	4	-9472	3832	13072	17	-9	-25	-15976	-3152	160	6	16	-3	-15384	-1208	-4648	22	-20	23	127	118	8
-9872	-4240	11772	-8	9	-25	-16592	1280	-816	-82	20	3	-14896	2840	-5464	-2	8	2	-9408	4056	13328	13	-4	-22	-15808	-3216	344	2	10	-5	-15288	-1200	-4808	19	-14	27	127	119	8
-9948	-4272	11704	-1	12	-20	-16656	1256	-920	-39	8	8	-14896	2808	-5240	6	7	2	-9336	4104	13144	18	-9	-22	-15768	-3088	136	7	6	-4	-15432	-1272	-4880	18	-11	26	127	119	8
-9920	-4212	11756	-9	17	-24	-16488	1080	-720	7	4	20	-14920	2816	-5224	8	3	2	-9328	3976	13312	17	-7	-28	-15712	-3232	152	15	1	-3	-15296	-1064	-4976	13	-5	22	127	121	8
-9856	-4216	11704	-12	15	-24	-16640	1272	-984	17	1	21	-15064	2864	-5352	20	-3	0	-9432	3976	13472	16	-6	-17	-15720	-3136	216	19	-11	-4	-15376	-1200	-4984	0	-5	15	127	120	8
-9908	-4196	11732	-6	14	-27	-16864	1312	-824	10	4	21	-15080	2880	-5176	17	5	4	-9376	4176	13000	19	-12	-18	-15912	-3096	-8	9	-6	-4	-15520	-1112	-4664	3	-3	15	127	118	8
-9928	-4232	11692	-7	9	-23	-16656	1168	-824	-3	-2	20	-14952	2832	-5232	13	12	3	-9448	3944	13016	19	-3	-20	-15912	-3320	240	-12	-9	-1	-15464	-1248	-4752	2	-4	13	127	121	8
-9944	-4228	11660	-14	14	-25	-16648	1088	-928	-7	-1	17	-14984	2856	-5376	14	15	3	-9448	4024	13240	18	-6	-17	-15888	-3168	152	2	-9	-6	-15544	-1192	-4800	-5	-6	11	127	120	8
-9940	-4244	11676	-5	14	-24	-16776	1216	-816	-11	3	14	-15016	3000	-5304	15	15	3	-9440	4040	13168	15	-5	-19	-15784	-3200	336	4	-9	-5	-15552	-1224	-4712	-8	-5	18	127	119	8
-9932	-4316	11720	-3	17	-26	-16568	1176	-752	-7	0	19	-15096	3048	-5592	15	7	2	-9368	4088	13064	12	-3	-20	-15832	-3072	328	1	-6	-5	-15528	-1088	-4608	0	-7	20	127	120	8
-9984	-4300	11700	-4	18	-22	-16616	1016	-1000	20	-5	14	-14984	2968	-5400	20	6	5	-9496	3976	13480	18	-12	-21	-15840	-3304	240	-7	0	-3	-15672	-1144	-4488	5	-3	19	127	120	8
-9872	-4224	11740	-18	17	-22	-16552	1192	-960	30	-2	21	-15152	2824	-5400	16	9	6	-9368	4040	13384	14	-4	-20	-15752	-3056	232	-10	-1	-3	-15488	-1352	-4536	-1	-2	20	127	119	8
-9900	-4216	11696	-8	12	-24	-16744	1344	-728	20	-2	18	-15056	2744	-5584	21	3	10	-9576	3968	13184	15	-6	-19	-15720	-3104	112	5	0	-5	-15424	-1232	-4560	-1	2	19	127	119	8
-9872	-4240	11708	-7	15	-23	-16456	1216	-824	5	-7	18	-15096	2832	-5432	22	5	2	-9480	4072	13168	13	-8	-19	-15864	-3080	216	9	2	-4	-15320	-1032	-4832	-1	-4	17	127	121	8
-9860	-4200	11780	-12	9	-25	-16624	1288	-768	-10	-4	17	-15160	2880	-5424	18	8	3	-9416	4080	13344	13	-4	-24	-15808	-2936	-112	9	6	0	-15480	-1088	-4872	-6	-2	15	127	121	8
-9852	-4240	11736	-10	16	-30	-16760	1200	-768	-9	2	13	-14960	2896	-5448	12	10	1	-9320	4016	13216	16	-9	-20	-15896	-3200	208	-9	3	-3	-15400	-1056	-4752	-6	-1	13	127	121	8
-9876	-4292	11820	-9	11	-22	-16424	1336	-816	-8	7	17	-15024	2864	-5480	11	10	3	-9424	4120	13208	15	-9	-24	-15832	-3112	368	-11	-2	-8	-15360	-1288	-4720	-6	4	13	127	120	8
-9868	-4176	11760	-11	9	-29	-16728	1280	-864	-7	8	17	-15104	2976	-5424	9	8	3	-9336	3928	13264	16	-13	-22	-15840	-3088	384	10	0	-4	-15296	-1192	-4864	-7	2	11	127	118	8
-9872	-4216	11756	-7	8	-22	-16760	1400	-864	-20	9	14	-14968	3008	-5456	12	11	-3	-9360	3968	13080	15	-7	-21	-15912	-3080	72	-17	3	3	-15568	-1200	-4792	-13	0	16	127	119	8
-9888	-4236	11744	-7	11	-26	-16592	1392	-888	-24	8	13	-15056	3096	-5296	6	15	-1	-9392	4048	13384	15	-6	-19	-15792	-3320	216	-22	4	-5	-15600	-1248	-4656	-11	0	15	127	120	8
-9920	-4208	11764	-8	15	-22	-16656	1456	-904	-27	13	12	-14928	2984	-5424	10	9	2	-9448	4096	13544	16	-7	-23	-15896	-3184	312	-17	4	1	-15376	-1320	-4792	-5	-3	13	127	120	8
-9868	-4212	11764	-8	18	-21	-16712	1168	-752	-26	17	7	-14976	3000	-5640	13	8	2	-9440	4208	13160	17	-1	-26	-15832	-3264	272	-1	9	2	-15480	-1096	-4608	-6	-2	15	127	121	8
-9892	-4220	11740	-8	13	-23	-16552	1168	-656	-29	12	5	-14968	2808	-5424	18	5	0	-9320	4024	13216	14	2	-24	-15664	-3120	336	-21	4	0	-15464	-1264	-4440	-20	-9	16	127	120	8
-9908	-4244	11708	-11	14	-17	-16400	1168	-1032	-24	19	12	-14936	2904	-5424	20	2	2	-9312	3952	13368	18	-7	-20	-15904	-3104	72	-42	5	-5	-15384	-1272	-4680	-15	-8	11	127	121	8
-9968	-4220	11768	-7	14	-24	-16656	1224	-880	-25	16	14	-15152	2888	-5336	21	7	6	-9312	3968	13232	15	0	-25	-15920	-3280	224	-37	9	1	-15416	-1224	-4792	-13	-9	14	127	118	8
-9860	-4224	11708	-12	14	-22	-16576	1152	-696	-27	13	13	-14952	2872	-5496	22	2	4	-9336	3992	13336	21	-1	-32	-15536	-3112	-32	-61	6	0	-15440	-1192	-4576	-23	-24	8	127	119	8
-9888	-4248	11772	-11	20	-22	-16544	1200	-968	-13	8	8	-15096	2856	-5632	26	0	6	-9448	4112	13256	21	-12	-26	-15800	-3040	344	-94	19	7	-15640	-1208	-4528	-34	-35	11	127	118	8
-9876	-4264	11708	-12	19	-26	-16520	1256	-1000	-8	7	17	-14920	2792	-5368	32	0	8	-9480	4080	13264	14	-4	-25	-15816	-3144	-56	-116	15	2	-15536	-1304	-4720	-23	-24	9	127	120	8
-9888	-4232	11724	-10	22	-21	-16672	1336	-904	-2	9	19	-15056	2904	-5552	37	-8	8	-9376	4040	13048	19	-1	-25	-15776	-3400	-40	-53	12	-1	-15352	-1320	-4872	-13	-2	17	127	119	8
-9928	-4256	11684	-8	19	-23	-16624	1288	-1184	2	14	18	-14944	2896	-5376	31	4	11	-9320	4016	12896	20	-5	-26	-15904	-3120	-72	-12	17	-1	-15400	-1264	-4832	-6	-1	15	127	117	8
-9904	-4268	11692	-10	13	-21	-16520	1344	-1000	6	13	15	-15080	2832	-5448	29	3	6	-9360	3928	13256	19	-9	-27	-15928	-2912	240	-33	15	-1	-15504	-1104	-4712	-11	-14	18	127	118	8
-9820	-4280	11700	-15	14	-25	-16472	1352	-760	5	12	15	-15048	2968	-5304	31	2	9	-9328	4088	13288	16	-5	-32	-15784	-3096	344	-73	18	2	-15560	-1064	-4928	-21	-31	14	127	120	8
-9904	-4220	11692	-10	19	-20	-16624	1296	-912	-4	15	17	-15088	2928	-5304	33	-9	5	-9392	4040	13160	17	1	-23	-16032	-3288	232	-83	16	-2	-15456	-1200	-4624	-18	-36	10	127	121	8
-9948	-4240	11776	-16	17	-20	-16680	1336	-784	4	16	14	-15016	2832	-5168	27	-9	8	-9368	3992	13264	22	-4	-34	-15624	-3112	296	-48	20	5	-15544	-1104	-4744	-19	-32	7	127	121	8
-9988	-4304	11768	-19	14	-21	-16576	1280	-984	10	21	13	-14968	2808	-5304	30	-4	12	-9392	4208	13176	21	-6	-28	-15752	-3016	-32	-65	28	7	-15512	-1168	-4328	-21	-37	9	127	119	8
-9960	-4272	11628	-14	17	-19	-16592	1176	-856	16	23	15	-15072	2920	-5376	33	-10	13	-9440	3992	13272	11	-5	-28	-15904	-2976	368	-82	32	0	-15448	-1320	-4672	-20	-27	17	127	121	8
-9968	-4212	11672	-14	18	-19	-16632	1320	-1040	21	26	15	-15056	2992	-5248	42	-18	15	-9432	3904	13192	15	-1	-28	-16040	-3240	144	-81	28	-5	-15384	-1120	-4800	-17	-27	17	127	122	8
-9936	-4212	11784	-15	19	-18	-16568	1232	-920	30	29	14	-15024	3032	-5544	43	-4	7	-9376	4080	13240	15	-7	-29	-15792	-3104	32	-48	34	-3	-15480	-1144	-4688	-11	-29	22	127	120	8
-9968	-4232	11640	-7	16	-23	-16384	1280	-608	27	29	10	-15064	2856	-5312	38	-11	6	-9456	4056	13088	13	-3	-32	-15768	-3208	-336	-24	34	-1	-15512	-1032	-4768	-10	-25	19	127	120	8
-9952	-4228	11740	-12	14	-20	-16608	1288	-1000	8	34	16	-15088	2752	-5352	27	-15	3	-9472	4136	13160	17	-5	-33	-15888	-3088	-136	-59	36	-7	-15432	-1128	-4720	-8	-30	19	127	120	8
-9860	-4228	11800	-10	14	-18	-16752	1384	-904	12	41	18	-14944	2896	-5336	33	-21	7	-9352	4208	13024	14	-12	-28	-15864	-3224	320	-51	30	-13	-15440	-1336	-4736	-2	-30	17	127	120	8
-9880	-4304	11664	-4	15	-19	-16504	1264	-1064	19	36	11	-15208	2808	-5296	23	-22	6	-9536	4176	13176	15	-2	-25	-15752	-3272	-288	-19	25	-8	-15432	-1280	-4584	13	-25	16	127	121	8
-9876	-4204	11692	-7	13	-19	-16720	1112	-856	23	40	11	-15056	2832	-5592	24	-11	6	-9512	4016	13256	14	-8	-19	-15864	-3184	40	10	28	-9	-15488	-1120	-4904	12	-20	16	127	117	8
-9876	-4220	11704	-7	13	-18	-16680	1360	-1064	18	41	10	-14960	2944	-5408	33	-21	11	-9352	4088	12904	13	-4	-24	-15784	-3072	-232	-23	25	-5	-15488	-1200	-4800	15	-25	19	127	118	8
-9884	-4268	11744	-8	20	-14	-16616	1144	-1008	38	50	7	-14944	2864	-5408	35	-14	12	-9320	4144	13224	15	-5	-30	-15808	-3304	-376	-35	16	-14	-15400	-1312	-4656	18	-27	25	127	121	8
-9928	-4284	11712	-8	14	-20	-16520	1288	-1304	44	53	6	-14944	2928	-5368	44	-11	14	-9360	4032	13160	13	0	-28	-15904	-3184	-296	-12	21	-14	-15480	-1152	-4640	21	-23	21	127	118	8
-9904	-4232	11692	-13	17	-18	-16560	1160	-960	42	47	15	-15160	2736	-5408	54	-16	13	-9552	4064	13160	17	-8	-23	-15912	-3232	-128	12	21	-7	-15408	-1224	-4800	22	-11	19	127	118	8
-9868	-4220	11724	-10	14	-21	-16400	1232	-1136	42	44	11	-14936	2896	-5448	53	-11	11	-9408	4136	13336	20	-7	-24	-15864	-3152	-136	4	21	-7	-15376	-1176	-4664	23	-10	19	127	121	8
-9928	-4176	11724	-7	13	-18	-16696	1248	-1192	49	43	16	-14920	2808	-5432	52	-11	13	-9544	3944	13248	17	-10	-28	-15800	-3224	-232	-33	12	-6	-15496	-1200	-5000	20	-15	17	127	118	8
-9936	-4256	11684	-6	12	-19	-16584	1248	-1160	37	41	10	-14920	2944	-5840	44	-7	10	-9512	3968	13448	16	1	-21	-15960	-3192	-384	-27	8	-11	-15376	-1248	-4888	16	-22	19	127	123	8
-9888	-4200	11736	-3	13	-21	-16528	1280	-1496	36	36	12	-14768	2920	-5896	36	-1	11	-9544	3976	13176	18	3	-22	-15896	-3216	-608	-18	5	-10	-15264	-1352	-4904	22	-14	17	127	127	8
-9884	-4184	11664	-10	17	-20	-16800	1248	-1400	22	26	15	-14792	2888	-5864	25	10	10	-9560	4088	13032	15	-7	-20	-15896	-3248	-208	14	3	-7	-15352	-1280	-4832	22	-4	17	127	122	8
-9900	-4216	11764	-11	15	-21	-16584	1120	-1432	8	10	19	-14776	2832	-5952	25	13	6	-9312	3920	12856	16	-5	-18	-15816	-3080	-424	33	-2	-13	-15416	-1296	-4864	20	-1	13	127	122	8
-9920	-4184	11756	-9	17	-23	-16576	1328	-1392	-16	-2	13	-14840	2712	-6032	23	7	5	-9416	3952	13360	13	-7	-21	-15864	-2984	-184	16	-8	-13	-15352	-1208	-4760	16	-2	18	127	120	8
-9964	-4160	11760	-14	9	-22	-16576	1240	-888	-5	-7	7	-14888	2984	-5408	23	15	-2	-9568	3976	13472	13	-7	-18	-15728	-3216	-296	-22	-12	-13	-15536	-1336	-4752	7	-12	15	127	121	8
-9900	-4212	11772	-6	17	-26	-16672	1160	-1176	18	-7	11	-14960	3096	-5424	27	20	2	-9512	3872	13096	16	-8	-17	-15920	-3336	-88	-7	-8	-12	-15264	-1384	-4664	3	-17	16	127	118	8
-9876	-4192	11688	-6	19	-30	-16656	1160	-1200	19	-12	17	-15040	2888	-5392	25	18	4	-9592	3968	13168	17	-5	-15	-15904	-3304	0	13	-14	-10	-15472	-1216	-4736	7	-10	13	127	120	8
-9904	-4192	11708	-6	24	-23	-16648	1064	-1112	26	-7	17	-15080	2832	-5576	34	7	4	-9440	4096	13176	21	-6	-19	-15792	-2920	-88	5	-8	-7	-15504	-1096	-4592	0	-2	16	127	120	8
-9940	-4180	11736	-16	19	-27	-16528	1352	-1128	19	-8	13	-15184	2880	-5320	47	8	3	-9512	3968	13136	18	-7	-16	-15928	-3096	-224	-11	-10	-15	-15432	-1264	-5160	-5	-4	16	127	120	8
-9896	-4256	11688	-8	17	-21	-16736	1136	-1112	7	-6	8	-15160	2856	-5136	36	11	4	-9456	4032	13112	14	-7	-19	-15840	-3288	-136	-9	-12	-10	-15408	-1392	-4704	7	-6	10	127	119	8
-9936	-4260	11736	-15	12	-26	-16536	1272	-1200	9	-1	8	-15016	2984	-5264	28	2	5	-9392	4088	13120	18	-4	-22	-15768	-3216	-240	22	-9	-10	-15496	-1104	-4664	12	-15	13	127	119	8
-9828	-4200	11640	-9	18	-29	-16544	1408	-1480	10	3	7	-15184	2832	-5432	29	5	4	-9576	4032	13328	20	-11	-20	-15800	-3096	-152	21	-8	-12	-15272	-1344	-4576	11	-23	17	127	121	8
-9892	-4200	11848	-14	16	-23	-16456	1200	-1104	18	11	7	-15064	2872	-5656	41	2	5	-9400	3936	13320	15	-6	-24	-15680	-3232	16	-2	-10	-6	-15408	-1288	-4552	14	-25	17	127	121	8
-9896	-4152	11648	-15	18	-22	-16584	1280	-1080	33	7	12	-14968	2912	-5640	43	-6	6	-9432	4104	13192	14	-4	-23	-15848	-3248	-72	-1	-8	-12	-15552	-1408	-4608	16	-25	23	127	118	8
-9920	-4172	11792	-20	19	-30	-16480	1168	-1240	32	10	12	-14920	2832	-5648	30	2	6	-9432	4032	13256	17	-8	-19	-15680	-3176	-152	26	-3	-9	-15360	-1296	-4872	31	-22	21	127	118	8
-9984	-4196	11724	-19	15	-27	-16584	1176	-1128	23	5	11	-14920	2832	-5584	31	-3	7	-9376	4032	13096	18	-2	-19	-15880	-3000	16	38	-6	-12	-15448	-1088	-4816	25	-20	23	127	120	8
-9900	-4204	11728	-15	17	-24	-16400	1208	-1232	6	11	5	-15016	2736	-5368	30	-5	3	-9432	4032	12992	14	-14	-24	-15864	-2984	72	4	-3	-9	-15416	-1104	-4624	8	-19	24	127	118	8
-9908	-4220	11688	-16	12	-26	-16704	1120	-1232	7	4	8	-14968	2712	-5648	34	-7	3	-9408	4048	13016	10	-5	-21	-15768	-3344	-248	-21	-3	-9	-15416	-1256	-4744	2	-22	22	127	121	8
-9952	-4272	11660	-21	9	-28	-16424	1168	-1304	15	3	8	-15056	2912	-5544	30	-1	11	-9448	3936	13120	15	-7	-22	-15792	-3168	-8	-4	-7	-10	-15472	-1352	-4880	3	-19	17	127	118	8
-9936	-4224	11700	-21	15	-29	-16632	1208	-1208	30	5	14	-15032	2912	-5648	37	0	8	-9480	3896	13280	16	-5	-19	-15936	-3120	-304	18	-6	-5	-15400	-1264	-4592	8	-20	18	127	118	8
-9968	-4224	11732	-15	12	-27	-16728	1256	-1224	13	-3	14	-15040	2792	-5496	31	-4	8	-9424	4032	13376	15	-2	-19	-15904	-3168	-296	6	-11	-8	-15376	-1280	-4704	4	-17	20	127	118	8
-9916	-4208	11716	-7	12	-27	-16584	1160	-1080	13	-1	15	-14968	2728	-5368	33	-1	6	-9536	3976	13200	16	-7	-24	-15768	-3320	-96	5	-17	-9	-15352	-1280	-4504	1	-15	18	127	119	8
-9932	-4172	11708	-11	18	-25	-16464	1112	-1240	16	-4	15	-14832	2896	-5352	33	-2	6	-9368	4088	13160	15	-8	-20	-15840	-3072	-240	19	-18	-9	-15456	-1352	-4800	13	-16	20	127	118	8
-9924	-4244	11804	-11	14	-27	-16600	1168	-1168	21	-6	15	-15040	2784	-5576	28	4	6	-9512	4112	13024	13	-9	-16	-15888	-3120	8	25	-13	-3	-15496	-1264	-4792	13	-13	24	127	119	8
-9924	-4140	11832	-11	10	-23	-16568	1320	-1056	14	-5	18	-15032	2720	-5760	27	-1	10	-9344	4128	13200	18	-10	-16	-15848	-3200	-56	22	-13	-5	-15552	-1272	-4712	8	-8	21	127	120	8
-9944	-4240	11724	-16	8	-26	-16568	1328	-944	3	-10	15	-15008	2872	-5544	27	-3	8	-9440	4040	13328	19	-9	-18	-15760	-3112	104	8	-9	-5	-15440	-1248	-4584	8	-10	24	127	121	8
-9948	-4168	11764	-17	13	-24	-16552	1232	-1224	-2	-3	14	-15096	2784	-5400	18	-1	11	-9488	3920	13280	12	-7	-20	-15800	-3216	96	-5	-11	-4	-15528	-1208	-4288	0	-15	23	127	121	8
-9876	-4148	11696	-13	10	-20	-16600	1032	-1184	1	-7	17	-15168	2976	-5424	17	-2	9	-9496	3928	13144	13	-4	-20	-15880	-3296	-192	-3	-6	-5	-15544	-1256	-4680	4	-12	21	127	119	8
-9920	-4244	11680	-6	13	-19	-16568	1208	-992	17	-1	20	-15064	2832	-5312	23	-1	6	-9328	3976	13016	19	-10	-17	-15952	-3320	16	13	-2	-3	-15296	-1240	-4648	6	-8	25	127	119	8
-9896	-4232	11716	-6	16	-23	-16632	1312	-1192	20	-1	22	-14960	2904	-5776	30	-8	7	-9312	3952	13304	16	-4	-23	-15880	-3272	-96	15	-4	4	-15472	-1256	-4584	8	-13	27	127	120	8
-9932	-4252	11720	-7	18	-23	-16624	1200	-1144	9	0	17	-14984	2912	-5600	24	-9	12	-9424	3992	13024	20	-2	-20	-15840	-3072	320	4	-5	-1	-15344	-1360	-4504	8	-12	27	127	120	8
-9896	-4208	11660	-11	13	-23	-16640	1312	-1152	4	3	23	-15016	2848	-5688	21	-1	8	-9424	4120	13080	17	0	-18	-15848	-3216	-8	-12	-7	1	-15272	-1408	-4880	2	-14	29	127	118	8
-9948	-4232	11588	-12	14	-21	-16568	1264	-1048	2	5	14	-15088	2768	-5344	21	-3	10	-9376	3928	13240	17	-6	-20	-15824	-3272	32	-1	-9	3	-15496	-1272	-4872	7	-19	23	127	121	8
-9876	-4244	11772	-6	16	-21	-16392	1200	-960	10	5	16	-14976	2872	-5632	21	-6	11	-9472	3928	13216	15	-6	-20	-15800	-3224	-120	0	-2	-3	-15464	-1280	-4720	10	-17	25	127	121	8
-9896	-4188	11664	-9	15	-26	-16528	1328	-1200	19	3	22	-14968	2944	-5808	20	-5	11	-9496	3880	13144	18	-7	-19	-15912	-3136	64	12	-4	0	-15368	-1168	-4776	4	-9	27	127	121	8
-9868	-4228	11748	-9	14	-23	-16648	1240	-1144	19	10	21	-15056	2968	-5592	21	-2	12	-9432	4136	13144	18	-6	-18	-15792	-3136	-8	5	-12	-1	-15496	-1320	-4520	6	-8	25	127	119	8
-9928	-4228	11752	-15	12	-22	-16512	1136	-1168	-2	4	19	-15024	2744	-5464	18	-3	11	-9408	4024	13080	15	-12	-24	-15808	-3096	-136	-1	-5	-1	-15432	-1216	-4640	3	-7	26	127	119	8
-9932	-4276	11624	-11	13	-24	-16576	1240	-1232	6	7	20	-15016	2744	-5520	25	-4	10	-9432	3880	13248	13	-10	-19	-15856	-3176	-296	4	-10	2	-15616	-1248	-4592	0	-7	21	127	118	8
-9952	-4240	11712	-5	15	-25	-16576	1320	-1320	9	-2	19	-15096	3000	-5600	24	-3	12	-9560	4048	13032	17	-8	-21	-15840	-3168	-72	20	-9	-1	-15488	-1336	-4640	6	-6	23	127	120	8
-9888	-4128	11584	-5	16	-23	-16368	1232	-1088	6	-7	23	-14904	2968	-5552	15	-4	13	-9376	3920	13216	16	-13	-19	-15760	-3208	8	19	-6	3	-15424	-1248	-4656	7	-5	26	127	117	8
-9884	-4228	11744	-9	14	-26	-16648	1240	-872	-7	4	22	-14984	2944	-5712	13	-6	12	-9496	4040	13240	18	-5	-21	-15800	-3064	-120	-8	-1	-2	-15568	-1224	-4536	1	-2	24	127	120	8
-9956	-4236	11796	-12	17	-22	-16552	1160	-1392	-7	3	23	-15008	2760	-5280	14	-13	7	-9512	4000	13232	19	1	-17	-15880	-3312	-96	-9	-3	-5	-15448	-1256	-4552	3	-7	26	127	121	8
-9972	-4292	11744	-15	15	-23	-16480	1064	-1008	-4	4	22	-15056	2864	-5192	12	-12	11	-9408	4040	13184	16	-6	-13	-15888	-3208	112	-1	-1	3	-15416	-1232	-4696	-1	-4	22	127	119	8
-9876	-4256	11776	-13	19	-23	-16648	1152	-1064	11	10	23	-15216	2792	-5168	13	-7	12	-9344	3984	13216	21	-3	-20	-15776	-3224	176	7	0	5	-15272	-1320	-4632	-3	-3	26	127	121	8
-9948	-4240	11692	-11	13	-21	-16464	1304	-1240	15	9	25	-15080	2824	-5296	18	-16	14	-9536	3968	13032	14	-7	-18	-15840	-3240	-216	-7	-2	6	-15392	-1096	-4608	-7	-4	26	127	120	8
-9964	-4184	11772	-5	19	-17	-16672	1248	-1272	21	15	24	-14984	2928	-5288	26	-22	16	-9376	4088	13192	17	-10	-15	-15752	-3208	40	-10	-1	4	-15400	-1256	-4688	0	-7	27	127	121	8
-9868	-4188	11856	-4	16	-19	-16560	1360	-1152	26	13	24	-14992	2944	-5392	24	-28	15	-9392	3992	13312	16	-8	-17	-15744	-3152	-40	-3	0	5	-15416	-1096	-4592	-1	-14	28	127	119	8
-9876	-4196	11700	-4	14	-20	-16400	1240	-1128	21	26	22	-15072	2832	-5224	23	-25	18	-9408	4056	12984	17	-8	-16	-15840	-3072	-248	-14	-3	5	-15568	-1112	-4944	-3	-12	28	127	117	8
-9956	-4208	11828	-10	15	-23	-16656	1384	-1288	17	21	22	-15088	3008	-5280	27	-24	17	-9504	4064	13080	15	-4	-20	-15832	-3232	80	-19	5	7	-15448	-1192	-4712	-4	-18	27	127	120	8
-9976	-4204	11784	-13	17	-21	-16488	1152	-1136	19	23	19	-15184	2832	-5016	30	-23	18	-9336	4080	13264	18	-7	-20	-15912	-3264	-240	-7	7	8	-15456	-1288	-4640	3	-14	28	127	122	8
-9932	-4224	11676	-9	16	-25	-16504	1256	-1288	38	24	27	-15112	2952	-5536	37	-25	16	-9560	4048	13088	15	-6	-18	-15976	-3144	0	11	5	8	-15280	-1160	-4688	8	-13	28	127	120	8
-9984	-4276	11716	-9	16	-22	-16600	1264	-1200	42	28	25	-14952	2848	-5432	33	-29	19	-9360	4128	13360	17	-8	-20	-15840	-3224	-40	14	5	4	-15464	-1208	-4816	9	-9	30	127	120	8
-9864	-4228	11708	-11	14	-19	-16584	1256	-1552	25	22	21	-14904	2672	-5664	39	-17	20	-9312	3944	13240	13	-8	-23	-15992	-3080	0	22	2	1	-15424	-1216	-4824	10	-9	34	127	117	8
-9896	-4188	11732	-14	17	-19	-16544	1304	-1280	35	16	26	-14920	2928	-5520	42	-15	20	-9464	4024	13096	17	-9	-18	-15848	-3072	232	21	7	3	-15376	-1104	-4720	13	-13	29	127	121	8
-9928	-4212	11704	-9	16	-23	-16584	1272	-1392	43	16	31	-14784	2896	-5552	45	-6	20	-9448	4016	12952	15	-7	-19	-15728	-2968	8	1	8	0	-15496	-1144	-4688	7	-8	30	127	120	8
-9920	-4156	11696	-11	18	-17	-16504	1208	-1272	55	12	26	-14848	3032	-5696	41	-2	18	-9392	4016	13376	15	-10	-19	-15864	-3176	160	6	7	-1	-15464	-1024	-4648	-4	2	25	127	120	8
-9904	-4164	11796	-13	17	-18	-16592	1328	-1352	41	13	28	-14880	3072	-5480	32	-8	12	-9464	3856	13392	17	-7	-18	-15880	-3056	-168	7	1	-1	-15440	-1112	-4848	1	1	25	127	118	8
-10012	-4224	11696	-12	16	-20	-16656	1272	-1632	28	7	20	-14928	2904	-5824	7	-6	6	-9568	4072	13064	10	-8	-17	-15832	-3192	-240	6	3	0	-15384	-1240	-4800	-8	1	18	127	118	8
-9924	-4232	11708	-14	19	-24	-16344	1256	-1400	14	3	20	-14904	3160	-5568	10	-6	0	-9360	4048	13136	14	4	-19	-15888	-3120	-272	10	0	0	-15392	-1008	-4880	-7	-3	18	127	119	8
-9968	-4180	11736	-15	11	-18	-16528	1248	-1392	2	-12	19	-15016	3000	-5568	6	-6	-3	-9352	4064	12872	19	-4	-20	-15848	-3168	-136	1	0	-1	-15392	-1104	-4656	-14	-4	18	127	119	8
-9972	-4136	11752	-12	15	-23	-16672	1216	-1416	-5	-13	20	-14960	3056	-5424	-19	1	-2	-9304	4016	13176	13	-4	-18	-15880	-3176	0	-7	-2	-3	-15504	-1192	-4696	-19	-4	17	127	117	8
-9936	-4184	11716	-14	16	-26	-16568	1304	-1232	-2	-14	25	-15016	3016	-5256	4	-5	4	-9440	4056	13080	13	-4	-14	-15896	-3208	-88	-5	1	-1	-15472	-1304	-4744	-14	3	12	127	119	8
-9944	-4220	11720	-14	14	-27	-16568	1280	-1248	1	-14	20	-15064	2792	-5336	-1	5	0	-9456	4080	13288	15	-2	-12	-15792	-3008	-64	-18	2	-1	-15288	-1088	-4624	-18	1	17	127	118	8
-9964	-4168	11728	-9	17	-22	-16512	1328	-1552	0	-9	25	-15008	2888	-5432	6	8	3	-9368	4048	13272	16	-5	-18	-15832	-3048	-136	-18	4	-8	-15416	-1112	-4800	-19	-3	12	127	120	8
-9944	-4168	11684	-8	16	-26	-16576	1480	-1144	-3	-13	23	-15160	2928	-5304	11	6	2	-9480	3984	13288	11	-5	-17	-15960	-3144	-272	-3	-1	-1	-15424	-1144	-4792	-17	-5	12	127	117	8
-9868	-4212	11756	-4	12	-24	-16576	1216	-1128	-14	-16	19	-15104	2936	-5200	6	4	2	-9448	3968	13152	15	-5	-16	-15768	-2936	24	6	0	2	-15256	-1088	-4744	-6	8	10	127	120	8
-9876	-4244	11732	-9	12	-24	-16600	1200	-1248	-4	-13	20	-14992	3048	-5488	7	9	-2	-9296	4152	13008	14	-11	-18	-15816	-3032	-128	3	-1	-6	-15432	-984	-4696	-9	11	12	127	117	8
-9892	-4196	11760	-9	11	-27	-16536	1288	-1032	0	-8	19	-15096	2912	-5144	9	7	-2	-9400	4000	13168	8	-11	-21	-16048	-3000	-344	4	-2	-6	-15568	-1384	-4960	-13	8	12	127	118	8
-9924	-4172	11688	-16	14	-25	-16600	1392	-1368	-7	-2	20	-15056	3032	-5480	5	9	-3	-9472	3992	13128	9	-12	-19	-15800	-3200	-184	9	2	-7	-15528	-1184	-4744	-4	4	10	127	120	8
-9912	-4212	11796	-14	15	-21	-16496	1336	-1344	1	-4	21	-15088	2976	-5424	3	14	-2	-9464	4024	13096	12	-6	-19	-15792	-3176	184	29	-1	-3	-15432	-1184	-4960	-8	1	8	127	118	8
-9900	-4168	11660	-13	17	-26	-16416	1256	-1248	-1	1	17	-15080	2992	-5584	0	0	-3	-9344	4064	13408	14	-7	-20	-15992	-2808	296	10	2	1	-15536	-1168	-4688	-10	-8	13	127	120	8
-9920	-4204	11820	-14	19	-26	-16632	1296	-1352	4	5	15	-15104	2872	-5216	5	-5	0	-9472	4088	13192	16	-4	-24	-15792	-3216	-8	-52	6	-4	-15456	-1136	-4664	-18	-23	14	127	121	8
-9896	-4180	11740	-9	15	-24	-16616	1424	-1200	13	-1	21	-15152	2736	-5112	20	-5	0	-9312	4152	13232	15	-3	-20	-15952	-3184	256	-32	5	-7	-15472	-1360	-4712	-9	-22	19	127	121	8
-9924	-4216	11780	-9	20	-23	-16448	1176	-1192	14	7	16	-15192	2872	-5344	25	-11	6	-9360	4072	13136	19	-11	-18	-15800	-3008	32	14	8	-1	-15328	-1296	-4904	13	-15	18	127	120	8
-9868	-4228	11776	-13	14	-26	-16440	1264	-1344	20	4	18	-14960	3048	-5392	24	-9	12	-9544	4152	13184	16	-12	-20	-15832	-3096	-8	18	13	4	-15368	-1144	-4776	12	-12	26	127	120	8
-9916	-4180	11708	-10	14	-24	-16608	1448	-1424	17	4	16	-15032	2920	-5624	29	-5	14	-9456	4016	13224	12	-2	-22	-15816	-2968	-48	-4	11	-2	-15456	-1096	-4808	2	-9	29	127	121	8
-9920	-4160	11708	-10	11	-19	-16632	1416	-1496	0	4	12	-14912	2984	-5528	23	-1	12	-9360	3944	13344	14	-6	-20	-15792	-3360	-80	-18	6	-2	-15288	-1376	-4736	-6	-15	19	127	119	8
-9896	-4144	11772	-12	12	-23	-16672	1448	-1552	-6	7	11	-15040	3120	-5688	20	-3	7	-9488	3960	13056	15	-7	-19	-15840	-2896	-152	-29	13	-2	-15496	-1112	-4888	-7	-19	25	127	117	8
-9916	-4168	11812	-15	13	-22	-16536	1296	-1448	9	0	13	-14840	3168	-5456	17	-4	-1	-9416	4064	13152	15	-6	-19	-15848	-3168	-144	-37	6	0	-15432	-944	-4704	-17	-16	18	127	121	8
-9952	-4172	11680	-17	12	-26	-16520	1320	-1520	15	2	13	-14888	3064	-5704	10	8	-5	-9560	4064	13144	14	-5	-23	-15984	-3224	-48	-15	8	-7	-15368	-1168	-4704	-12	-15	11	127	119	8
-9960	-4196	11740	-11	17	-26	-16632	1432	-1320	13	-3	16	-14968	3000	-5768	4	6	-6	-9472	4064	13248	17	-2	-19	-15984	-3072	-72	-19	-2	-2	-15416	-1096	-4744	-21	-17	8	127	118	8
-9928	-4164	11740	-13	12	-24	-16656	1296	-1192	-9	-7	11	-15064	3016	-5744	-3	6	-12	-9408	3976	13200	14	-2	-21	-15776	-3064	96	-24	8	-3	-15464	-824	-4704	-28	-20	9	127	117	8
-9972	-4172	11680	-18	13	-22	-16504	1272	-1448	-19	-11	12	-14824	2904	-5600	-14	3	-17	-9416	4056	13112	14	-1	-22	-15688	-2984	40	-33	7	-7	-15336	-928	-4664	-36	-21	2	127	121	8
-9940	-4196	11828	-22	8	-27	-16544	1520	-1376	-23	-21	9	-15016	2952	-5776	-26	-1	-17	-9432	4016	13032	15	0	-20	-15840	-3040	-64	-46	13	-10	-15448	-1104	-4416	-41	-18	-8	127	117	8
-9908	-4236	11708	-17	14	-27	-16568	1296	-1464	-32	-22	8	-14968	3232	-5592	-37	-5	-22	-9432	4144	13432	9	-6	-24	-15920	-3112	144	-38	14	-9	-15392	-1032	-4568	-39	-10	-11	127	117	8
-9924	-4140	11768	-17	16	-28	-16632	1232	-1248	-42	-28	8	-15008	3152	-5360	-43	-6	-31	-9480	4056	13176	12	-15	-25	-15840	-3008	-120	-32	15	-14	-15504	-1096	-4712	-42	-6	-14	127	117	8
-9928	-4132	11724	-16	18	-30	-16520	1336	-1512	-29	-23	4	-15016	3112	-5408	-39	-6	-39	-9408	4048	13344	7	-7	-22	-15720	-3032	-112	-42	15	-11	-15488	-1264	-4560	-52	-6	-19	127	120	8
-9964	-4168	11612	-17	22	-26	-16544	1304	-1272	-39	-26	5	-15104	3000	-5024	-51	-4	-40	-9504	4104	13208	9	-5	-26	-15720	-3064	-296	-60	20	-12	-15544	-1384	-4848	-50	-8	-18	127	118	8
-9968	-4236	11808	-14	18	-25	-16624	1304	-1296	-41	-19	6	-15056	3008	-5144	-58	-3	-37	-9528	4096	13192	13	-2	-23	-15808	-3208	-168	-59	22	-10	-15584	-1264	-4736	-51	-12	-17	127	117	8
-9936	-4172	11708	-9	21	-20	-16528	1160	-1192	-34	-10	9	-15072	2808	-5184	-68	-12	-40	-9552	3952	13096	13	-6	-25	-15784	-3216	-144	-60	28	-4	-15456	-1240	-4568	-63	-19	-17	127	119	8
-9880	-4168	11692	-7	17	-24	-16472	1152	-1200	-35	-8	10	-15272	2768	-5160	-57	-12	-41	-9280	3904	13056	13	-5	-23	-15784	-3160	-192	-49	31	-5	-15544	-1352	-4592	-59	-16	-8	127	120	8
-9928	-4256	11784	-2	21	-22	-16704	1160	-1280	-50	-6	8	-15272	2784	-5248	-54	-12	-32	-9360	3960	13192	16	-5	-18	-15856	-2960	-456	-59	28	-5	-15504	-1304	-4936	-40	-25	-1	127	118	8
-9880	-4252	11756	-3	20	-21	-16688	1256	-1256	-50	-2	9	-15144	2872	-5376	-54	-13	-22	-9464	3952	13200	9	-5	-23	-15696	-3120	-224	-61	31	-5	-15720	-1280	-4704	-40	-44	4	127	119	8
-9816	-4156	11732	-7	23	-19	-16520	1200	-960	-43	-1	10	-15200	2792	-4928	-44	-17	-17	-9528	4120	13312	7	-1	-24	-15888	-3192	-88	-59	40	-10	-15576	-1400	-4600	-24	-48	12	127	121	8
-9876	-4140	11788	-13	14	-16	-16568	1104	-1152	-20	8	9	-15216	2848	-5432	-33	-28	-14	-9592	4208	13048	10	-7	-23	-15720	-3224	72	-37	53	-4	-15568	-1240	-4480	-16	-53	12	127	121	8
-9992	-4016	11740	-14	19	-24	-16528	1040	-1176	-3	11	7	-15192	2824	-4952	2	-35	-8	-9536	4112	13272	16	-1	-21	-15768	-3192	-360	-44	50	-5	-15568	-1408	-4640	2	-57	19	127	121	8
-9944	-4184	11756	-7	18	-19	-16584	1304	-1456	18	17	18	-15272	2848	-5224	8	-34	-4	-9544	3856	13024	7	-4	-22	-15840	-3160	-480	-39	52	-8	-15480	-1184	-4584	-2	-57	20	127	119	8
-9900	-4144	11716	-9	16	-22	-16592	1160	-1088	1	22	15	-15192	3144	-5136	13	-29	-3	-9336	3992	13224	11	-3	-27	-15864	-3168	-600	-52	57	-1	-15216	-1328	-4712	0	-47	21	127	118	8
-10012	-4204	11672	-9	18	-25	-16456	1208	-1176	-1	33	9	-15152	3016	-4992	7	-31	-2	-9496	3848	13008	9	-4	-23	-15768	-3160	-192	-52	50	-6	-15248	-1248	-5104	4	-44	24	127	119	8
-9988	-4104	11668	-7	16	-26	-16384	1296	-1160	12	40	11	-15168	2992	-5112	-2	-38	0	-9592	4120	13200	14	-2	-22	-15784	-3232	-520	-35	50	-5	-15352	-1208	-4960	-2	-46	17	127	121	8
-9920	-4244	11656	-7	16	-22	-16616	1256	-1144	22	43	14	-15208	2856	-5032	1	-48	-5	-9624	4120	13456	14	2	-23	-16056	-3016	-512	-13	44	-6	-15256	-1024	-4984	-7	-44	14	127	121	8
-9984	-4240	11664	-14	16	-22	-16312	1192	-1208	29	45	18	-15208	2832	-5280	1	-48	-5	-9360	4000	13072	12	-3	-24	-15904	-3064	-600	-21	40	-8	-15264	-1184	-4976	-9	-44	14	127	120	8
-9944	-4312	11656	-12	16	-19	-16568	1360	-1464	26	44	18	-15256	2840	-4928	-5	-35	-3	-9608	4040	12992	11	-6	-25	-15824	-3080	-752	-25	33	-5	-15264	-1352	-4568	4	-29	18	127	121	8
-9972	-4260	11620	-10	9	-18	-16384	1240	-1336	11	50	15	-15056	2920	-5232	-8	-36	2	-9472	3888	12984	18	-3	-22	-15808	-3240	-600	-5	27	-3	-15472	-1296	-4984	12	-25	16	127	120	8
-9996	-4216	11648	-12	14	-21	-16744	1280	-1320	-5	41	9	-15016	2760	-5232	-9	-42	7	-9544	4152	13080	10	-10	-26	-15912	-3104	-832	13	24	-8	-15376	-1440	-4832	18	-16	23	127	120	8
-10012	-4252	11704	-14	17	-22	-16712	1240	-1264	4	46	11	-14968	2680	-5176	-3	-39	7	-9480	4120	13272	15	-6	-28	-15808	-3104	-760	23	16	-6	-15192	-1408	-4624	21	-13	24	127	124	8
-9944	-4268	11768	-16	14	-19	-16448	1168	-1464	28	51	20	-14952	2648	-5120	17	-37	8	-9600	4040	13160	13	-12	-24	-15864	-3168	-848	19	18	-7	-15320	-1288	-4736	27	4	30	127	122	8
-9932	-4312	11856	-14	16	-22	-16656	1360	-1592	47	45	26	-14992	2656	-5296	36	-16	13	-9400	4024	13224	13	-12	-26	-15952	-3104	-616	24	4	-8	-15152	-1336	-4968	41	4	30	127	119	8
-9908	-4324	11732	-11	13	-24	-16568	1168	-1552	57	38	30	-14936	2744	-5408	34	-2	23	-9448	3928	13256	11	-10	-24	-15904	-3104	-768	46	-2	-9	-15176	-1472	-5256	52	-2	29	127	119	8
-9936	-4156	11744	-12	14	-19	-16728	1208	-1568	31	24	31	-14968	2704	-5520	36	-3	27	-9440	4048	13208	12	-7	-24	-15864	-3056	-688	62	-12	-8	-15272	-1296	-4896	45	-2	36	127	120	8
-9956	-4180	11620	-10	14	-21	-16736	1264	-1520	3	17	23	-15040	2792	-5520	44	-1	31	-9480	3992	13200	13	-10	-23	-15696	-3144	-376	57	-18	-10	-15200	-1336	-4912	41	6	34	127	121	8
-10008	-4232	11656	-14	17	-22	-16512	1288	-1576	-5	9	25	-15008	2792	-5312	57	-3	26	-9336	4112	13256	16	-12	-19	-15744	-3176	-592	53	-23	-4	-15440	-1440	-4720	47	7	33	127	119	8
-9940	-4224	11684	-12	18	-22	-16672	1192	-1632	2	3	28	-14904	2896	-5304	50	3	27	-9344	3944	13328	16	-9	-18	-15936	-3272	-688	50	-29	-2	-15256	-1344	-4768	36	9	37	127	118	8
-9936	-4204	11800	-10	14	-26	-16464	1192	-1560	14	1	24	-14816	2920	-5432	45	3	27	-9424	3992	13096	19	-11	-17	-15840	-3288	-448	59	-30	-3	-15328	-1192	-4928	30	4	32	127	119	8
-9996	-4168	11720	-9	9	-25	-16464	1256	-1832	21	-6	25	-14984	3144	-5480	46	7	21	-9488	4048	13328	19	-9	-11	-15968	-3264	-480	76	-25	0	-15224	-1096	-4704	20	21	26	127	121	8
-9936	-4168	11732	-5	12	-28	-16552	1400	-1376	15	-12	19	-14960	2984	-5472	29	12	18	-9256	3832	13160	17	-8	-12	-15976	-3064	-40	63	-29	1	-15488	-1312	-4808	18	26	21	127	119	8
-9988	-4116	11636	-8	13	-25	-16680	1320	-1752	5	-13	22	-14848	3048	-5416	22	11	9	-9560	4104	13280	19	-10	-12	-15648	-3024	-384	19	-31	2	-15552	-1144	-4976	0	18	18	127	121	8
-9884	-4208	11772	-6	5	-30	-16592	1408	-1424	-4	-19	24	-15064	2984	-5376	9	8	7	-9376	3912	13176	18	-6	-18	-15640	-3112	-192	-22	-27	-1	-15448	-1232	-4472	-16	19	20	127	117	8
-9884	-4236	11680	-8	12	-28	-16600	1360	-1376	-18	-18	19	-14984	3088	-5024	-10	22	3	-9256	3992	13232	17	-13	-16	-15840	-3176	-392	-2	-22	-2	-15472	-1248	-4696	-18	7	13	127	121	8
-9856	-4160	11776	-10	15	-26	-16536	1392	-1224	-39	-21	18	-15152	3072	-5184	-8	30	3	-9488	4152	13392	18	-8	-18	-15784	-3160	-144	16	-22	1	-15488	-984	-4680	-15	17	13	127	117	8
-9816	-4152	11648	-12	15	-27	-16728	1288	-1416	-32	-23	15	-15008	2776	-5360	-2	33	-3	-9416	3952	13272	17	-7	-17	-15768	-2816	-504	-1	-18	7	-15536	-984	-4808	-29	23	4	127	118	8
-9952	-4132	11748	-11	14	-26	-16560	1480	-1232	-15	-21	14	-15296	2920	-5400	13	22	-2	-9360	4112	13384	10	-11	-19	-15984	-2912	-416	-30	-16	-1	-15472	-968	-4656	-22	21	3	127	121	8
-9948	-4124	11716	-15	19	-23	-16552	1336	-1384	6	-20	18	-15368	3008	-5456	23	22	0	-9352	4040	13184	19	-10	-31	-15880	-3120	-240	-46	-11	3	-15568	-1296	-4624	-35	16	1	127	121	8
-9948	-4216	11748	-18	13	-28	-16560	1432	-1280	26	-15	28	-15144	3024	-5128	15	25	-3	-9368	3952	13056	13	-9	-23	-15608	-3352	-184	-37	-2	6	-15776	-1240	-4424	-41	4	-3	127	121	8
-9900	-4216	11692	-17	16	-28	-16696	1200	-1320	2	-7	23	-15120	2856	-4968	3	21	-8	-9400	3864	13184	18	-3	-20	-15824	-3120	-272	-36	13	12	-15832	-1360	-4304	-46	-3	2	127	117	8
-9868	-4252	11664	-18	14	-25	-16504	1224	-1256	10	-13	21	-15296	2704	-5120	11	6	-13	-9368	4016	13152	22	-2	-25	-15800	-3160	216	-69	19	13	-15560	-1312	-4240	-57	-5	6	127	118	8
-9872	-4088	11764	-14	15	-21	-16528	1168	-1192	25	4	19	-15136	2672	-5112	11	11	-12	-9416	4056	13368	21	-3	-27	-15752	-3120	-544	-109	27	17	-15576	-1472	-4592	-68	-8	15	127	118	8
-9920	-4148	11680	-17	15	-17	-16576	1528	-1400	49	-2	27	-14960	2664	-5456	19	9	1	-9424	3968	13144	16	-3	-22	-15800	-3272	-512	-106	22	16	-15536	-1408	-4968	-67	-21	25	127	119	8
-9980	-4140	11720	-12	19	-22	-16584	1192	-1744	56	-5	35	-14992	2640	-5888	19	4	16	-9328	4000	13072	17	-1	-17	-16032	-3016	-512	-76	20	18	-15296	-1496	-5016	-41	-27	32	127	117	8
-9956	-4212	11736	-15	18	-21	-16656	1224	-1608	40	-16	38	-14992	2544	-5944	38	8	23	-9472	3992	13328	21	-2	-21	-15832	-3136	-592	-41	12	19	-15320	-1328	-5264	-12	-29	36	127	117	8
-9984	-4176	11740	-18	18	-24	-16424	1296	-1472	33	-32	35	-14920	2512	-5512	63	12	37	-9320	3952	13208	21	-6	-18	-15864	-2696	-520	-35	12	12	-15208	-1384	-5144	7	-30	51	127	120	8
-9916	-4120	11700	-16	14	-24	-16504	1424	-1728	35	-43	32	-14920	2592	-5312	79	35	42	-9608	4056	13016	20	-3	-23	-15920	-2976	-496	-24	5	6	-15256	-1320	-5248	6	-36	52	127	120	8
-9904	-4188	11744	-21	10	-26	-16584	1384	-1648	47	-41	38	-14880	2744	-5368	105	54	51	-9536	3920	13304	19	-13	-20	-15920	-3088	-880	-3	-11	2	-15152	-1384	-5088	40	-28	71	127	121	8
-9892	-4188	11756	-19	12	-28	-16616	1296	-1632	69	-41	38	-14800	2768	-5248	134	77	57	-9808	4128	12824	21	-7	-26	-16128	-3176	-752	16	-10	0	-15424	-1200	-5024	77	-24	69	127	118	8
-9912	-4212	11704	-20	9	-28	-16584	1432	-1376	81	-56	32	-15040	2680	-5408	173	92	63	-9240	4152	13344	26	-7	-24	-15920	-3112	-304	78	-20	0	-15456	-1384	-5000	100	-45	79	127	121	8
-9848	-4148	11744	-17	7	-30	-16520	1352	-1272	105	-47	35	-15056	2944	-5416	196	102	71	-9464	4216	12968	26	-3	-25	-15856	-2832	-208	77	-20	-3	-15512	-1192	-4936	124	-63	96	127	120	8
-9892	-4140	11836	-14	10	-31	-16600	1432	-1192	142	-51	39	-15200	3176	-5136	226	109	82	-9280	3960	13064	27	7	-22	-15856	-3144	-400	69	-25	-10	-15752	-1416	-4768	107	-74	74	127	119	8
-9836	-4244	11756	-16	14	-30	-16632	1488	-888	149	-41	33	-15464	3224	-5032	243	111	88	-9640	4272	13136	34	4	-22	-15832	-2896	-376	59	-15	-21	-15432	-1016	-4536	174	-115	102	127	121	8
-9948	-4140	11732	-18	12	-34	-16488	1520	-1136	150	-21	21	-15512	3616	-5072	255	95	98	-9168	4120	13248	32	6	-25	-15864	-3032	-400	74	-16	-25	-15384	-712	-4624	172	-118	103	127	119	8
-9936	-4168	11588	-22	18	-34	-16616	1632	-768	157	-5	14	-15504	3728	-5112	249	67	94	-9376	3944	13376	33	5	-17	-15760	-2832	-200	92	-18	-28	-15408	-752	-4672	176	-110	93	127	122	8
-9932	-4124	11736	-23	19	-34	-16624	1544	-984	166	10	4	-15152	3824	-5216	233	22	80	-9544	4184	13168	36	14	-32	-16080	-3008	-576	93	-24	-33	-15288	-704	-4736	158	-105	71	127	122	8
-9944	-4256	11792	-29	29	-35	-16624	1488	-1256	138	26	-6	-15080	4048	-5696	153	1	58	-9440	4224	13080	38	15	-25	-15816	-2928	-296	94	-24	-31	-15416	-544	-4608	105	-124	52	127	119	8
-9968	-4280	11796	-28	38	-31	-16632	1536	-1208	78	21	-16	-14912	3704	-5624	98	-5	27	-9496	4104	13072	34	7	-27	-15672	-3056	-160	61	-28	-29	-15224	-440	-4312	50	-104	29	127	118	8
-9964	-4200	11736	-36	38	-30	-16392	1160	-1488	53	19	-15	-14816	3328	-6000	20	-10	-17	-9368	4112	12952	14	-1	-36	-15824	-2920	-216	-21	-30	-23	-15216	-688	-4304	-9	-82	-3	127	121	8
-9964	-4140	11744	-40	37	-34	-16600	1240	-1760	63	17	-2	-14496	3320	-5656	1	-17	-30	-9416	3936	13168	20	3	-28	-15648	-3344	-200	-76	-33	-19	-15280	-912	-3984	-58	-69	-23	127	122	8
-9920	-4244	11628	-34	35	-29	-16816	1224	-1648	41	-2	3	-14632	2832	-6264	-33	0	-46	-9488	4040	13224	20	4	-21	-15768	-3136	-416	-124	-30	-10	-15400	-1184	-4168	-102	-40	-36	126	119	8
-10036	-4228	11660	-31	30	-26	-16600	1128	-2040	-1	-23	8	-14576	2680	-6160	-74	8	-63	-9600	3976	13216	20	-4	-17	-15784	-3232	-280	-124	-28	-10	-15400	-1248	-4328	-103	0	-34	127	120	8
-9920	-4152	11592	-27	21	-27	-16480	1040	-1928	3	-30	7	-14536	2528	-6384	-65	3	-69	-9064	3920	13200	15	-5	-18	-15904	-2968	-8	-126	-21	-12	-15392	-1232	-4072	-162	26	-49	127	123	8
-9984	-4240	11620	-29	24	-30	-16808	1216	-1808	-91	-68	6	-14744	2312	-6032	-94	45	-49	-9512	4088	13208	8	-10	-31	-16144	-3080	-64	-164	-23	6	-15800	-1312	-4104	-163	48	-44	126	121	8
-9924	-4288	11728	-35	29	-26	-16944	1096	-1536	-82	-89	22	-14824	2224	-5872	-106	62	-41	-9440	3968	13192	10	-15	-31	-15624	-3312	-240	-185	-14	11	-15824	-1264	-3952	-181	33	-39	127	120	8
-10044	-4296	11660	-29	31	-19	-16856	1144	-1712	-87	-98	20	-15120	2432	-5608	-59	42	-42	-9488	3824	13144	10	-12	-19	-15816	-3272	-192	-194	2	11	-15584	-1368	-3992	-176	33	-45	127	119	8
-10036	-4216	11632	-20	33	-25	-16304	1328	-1128	-71	-95	31	-15184	2504	-5064	-35	28	-21	-9496	4072	13072	7	-12	-24	-15792	-3120	-216	-204	10	21	-15784	-1400	-4256	-150	39	-42	127	119	8
-9856	-4244	11724	-20	23	-22	-16520	1200	-1080	-56	-83	39	-15152	2664	-5048	-39	26	-14	-9536	3896	13096	2	-8	-23	-15944	-3208	-616	-178	18	21	-15632	-1432	-4512	-144	48	-29	127	119	8
-9976	-4324	11636	-17	22	-23	-16648	1104	-992	-21	-59	41	-15304	2736	-5136	-16	27	-10	-9472	3944	13328	8	-14	-21	-16064	-3320	-584	-142	23	23	-15632	-1520	-4584	-127	60	-22	127	119	8
-10072	-4304	11668	-16	25	-18	-16736	1328	-720	28	-41	45	-15424	3112	-4752	23	27	-3	-9456	4088	13144	13	-2	-26	-15616	-3344	-344	-98	21	25	-15264	-1416	-4568	-102	51	-9	127	121	8
-10000	-4116	11728	-11	24	-21	-16312	1760	-728	6	-18	35	-15376	3608	-4608	21	19	0	-9584	3960	13112	12	-12	-14	-15760	-3032	-544	-86	28	23	-15320	-1224	-4592	-82	39	-10	127	120	8
-9900	-4164	11652	-13	20	-24	-16456	1504	-736	-12	-6	38	-15336	3352	-4592	-7	8	5	-9456	4040	13200	10	-13	-25	-15792	-2872	-480	-87	25	23	-15536	-1200	-4624	-60	45	-5	127	122	8
-9940	-4372	11680	-10	14	-19	-16408	1104	-1064	-15	26	29	-15408	2776	-4824	-19	19	-1	-9400	4144	13312	12	-11	-21	-15944	-3048	-464	-94	26	13	-15624	-1104	-4704	-66	42	0	127	120	8
-10036	-4372	11540	-11	19	-11	-16768	1320	-920	6	45	28	-15416	3168	-5168	-6	11	-3	-9512	4104	12992	16	-7	-23	-16088	-3056	-440	-66	24	18	-15520	-1216	-4760	-64	29	8	127	118	8
-10012	-4200	11644	-9	24	-11	-16752	1680	-1000	-14	47	31	-15296	3152	-5232	-12	10	2	-9472	3912	13160	12	-6	-21	-15952	-3176	-608	-27	20	14	-15256	-1256	-4816	-36	21	10	127	119	8
-9888	-4132	11664	-18	24	-10	-16512	1336	-1240	-45	50	24	-15064	2968	-5304	-54	-5	7	-9296	3904	13232	16	-8	-25	-15912	-2880	-376	-33	21	7	-15424	-1312	-4720	-6	21	20	127	120	8
-10016	-4280	11528	-19	26	-10	-16448	1352	-1248	-17	64	25	-15024	2872	-5464	-53	-23	13	-9512	4080	13240	17	-2	-20	-15952	-2848	-608	-53	21	6	-15488	-1152	-4824	6	17	16	127	118	8
-10112	-4220	11636	-8	23	-18	-16480	1384	-1352	2	72	25	-14968	2904	-5408	-40	-37	22	-9480	3856	12944	17	-6	-28	-15888	-3160	-784	-18	23	-1	-15368	-1328	-4920	17	22	34	127	121	8
-9992	-4224	11620	-2	20	-16	-16656	1176	-1464	-7	80	28	-14888	2888	-5664	-9	-25	28	-9352	4080	13096	13	-9	-31	-15920	-3192	-704	42	18	0	-15320	-1520	-4928	28	22	41	127	119	8
-10020	-4208	11564	-8	17	-12	-16680	1384	-1512	-7	70	38	-14840	2744	-5592	4	-17	31	-9456	3912	13352	16	-13	-23	-15824	-3064	-832	72	13	2	-15208	-1328	-4608	51	33	38	127	120	8
-9988	-4264	11816	-12	12	-13	-16752	1344	-1568	4	61	34	-14992	2872	-5704	14	-12	38	-9464	3904	13200	17	-15	-17	-15896	-3192	-616	63	9	0	-15296	-1152	-5080	49	26	40	127	124	8
-9852	-4272	11576	-15	19	-10	-16720	1384	-1288	-3	61	32	-14944	2608	-5752	31	-3	39	-9576	4000	13352	17	-14	-18	-15920	-2952	-776	-2	-5	4	-15288	-1096	-5080	48	26	39	127	121	8
-10024	-4308	11520	-7	20	-14	-16488	1424	-1392	29	57	30	-14792	2984	-5448	43	-9	49	-9504	3960	12872	17	-2	-18	-15888	-3184	-576	-3	-9	9	-15448	-1032	-4896	13	41	28	127	118	8
-9968	-4280	11568	-8	21	-19	-16376	1624	-1424	40	55	33	-14768	3072	-5776	65	-3	54	-9472	4048	13056	25	-5	-12	-15856	-3088	-752	19	-15	6	-15536	-1032	-4904	-5	52	26	127	120	8
-9932	-4380	11560	-9	23	-17	-16680	1248	-1712	32	59	39	-14856	3152	-5992	47	6	42	-9480	3960	13240	24	-1	-19	-15800	-2720	-576	-13	-9	14	-15496	-840	-4712	-13	50	15	127	120	8
-10004	-4352	11588	-17	24	-13	-16608	1232	-1544	41	51	37	-14920	3040	-5552	38	16	25	-9592	4056	13208	22	-2	-21	-15800	-2920	-424	-38	-3	15	-15584	-1064	-4600	-38	43	10	127	120	8
-10056	-4376	11652	-12	26	-16	-16552	1656	-1336	31	43	38	-14792	3368	-5744	8	18	11	-9456	4016	13040	22	-7	-17	-15832	-3088	-360	-53	6	10	-15744	-1200	-4312	-49	36	8	127	120	8
-9924	-4296	11696	-16	23	-8	-16624	1576	-1576	-13	36	41	-14712	3192	-5632	-30	-3	7	-9280	4136	13448	20	-4	-23	-15888	-3088	-368	-56	20	23	-15720	-1152	-4200	-60	38	3	127	120	8
-9868	-4228	11484	-23	26	-9	-16768	1048	-1848	2	31	38	-14688	2976	-6120	-58	7	-1	-9488	4240	12960	22	-3	-21	-15904	-2888	-200	-97	33	25	-15680	-976	-4248	-81	42	4	127	119	8
-10160	-4368	11608	-24	21	-5	-16472	1304	-2112	13	21	52	-14808	2992	-5752	-55	7	1	-9512	3832	12824	22	4	-20	-15712	-3144	-440	-131	44	31	-15368	-1112	-4648	-92	48	9	127	119	8
-9992	-4168	11584	-11	14	-8	-16392	1728	-1640	6	8	44	-14632	2872	-6168	-27	24	-13	-9264	4056	13312	18	-6	-16	-15832	-3008	-424	-128	48	27	-15432	-1064	-4960	-90	45	7	127	120	8
-10012	-4172	11576	-15	17	-8	-16600	1600	-1456	0	-11	39	-14640	3072	-6104	-31	14	-10	-9440	4056	13016	23	6	-21	-15960	-2784	-248	-130	48	28	-15504	-872	-4680	-81	34	11	127	118	8
-10016	-4240	11704	-22	23	-9	-16688	1360	-1624	18	-23	43	-14920	3072	-5880	-34	17	0	-9464	3936	13048	31	4	-24	-15840	-2680	-528	-137	48	34	-15408	-960	-4968	-87	17	8	127	121	8
-10096	-4276	11652	-28	33	-13	-16472	1256	-1488	77	-23	40	-14952	3008	-5544	2	11	4	-9536	4176	13256	35	2	-26	-15824	-3080	-680	-142	52	19	-15376	-1064	-4880	-81	15	7	127	119	8
-9996	-4176	11636	-28	34	-14	-16600	1480	-1144	109	-23	45	-15144	3104	-5464	59	13	8	-8848	3752	13144	19	9	-28	-16000	-2848	-848	-128	41	15	-15264	-1032	-5240	-69	5	1	127	121	8
-9984	-4348	11540	-29	37	-7	-16648	1488	-1136	143	-16	43	-15232	3040	-5136	80	18	8	-9576	4048	13088	25	12	-28	-15864	-2760	-368	-124	49	13	-15568	-824	-5088	-77	0	2	127	119	8
-10104	-4180	11640	-33	41	-5	-16624	1464	-1040	182	-1	42	-15320	3264	-5288	104	25	17	-9456	4040	13200	35	7	-30	-15728	-2912	-848	-119	51	13	-15360	-1016	-5216	-73	-12	1	127	121	8
-10040	-4260	11636	-19	41	-5	-16440	1752	-904	208	23	32	-15480	3464	-4824	114	15	21	-9440	4096	13048	33	13	-27	-15768	-2832	-968	-132	45	7	-15352	-1224	-5080	-67	-21	7	127	120	8
-10028	-4260	11628	-28	42	0	-16600	1704	-1240	212	41	25	-15296	3576	-5288	97	14	21	-9472	3944	13152	30	7	-30	-16032	-2960	-800	-115	44	-1	-15376	-1264	-5088	-50	-15	10	127	121	8
-10160	-4224	11628	-19	39	9	-16576	1712	-1464	162	55	5	-15216	3480	-5168	75	10	10	-9544	4080	13080	29	7	-36	-15816	-2984	-1104	-67	44	-1	-15280	-984	-4944	-33	-15	12	127	121	8
-10200	-4156	11556	-15	41	-2	-16312	1616	-1368	135	66	9	-14992	3216	-5224	68	-3	-4	-9512	4248	13024	21	5	-30	-15792	-2816	-936	-33	42	-3	-15376	-1048	-4816	-11	-14	12	127	121	8
-10120	-4184	11408	-11	37	-2	-16344	1344	-1336	100	81	7	-15056	3280	-5216	51	-17	-9	-9480	4232	13192	19	0	-27	-15616	-2848	-808	-19	53	-2	-15272	-1144	-5032	5	-24	9	127	121	8
-10036	-4224	11528	-9	26	-4	-16368	1416	-1488	95	85	13	-14904	3056	-5536	14	9	-8	-9360	4216	13096	16	0	-32	-15816	-2792	-1040	-26	50	-12	-15384	-1096	-5104	5	-12	12	127	120	8
-9992	-4168	11628	-11	20	1	-16760	1432	-2048	89	82	13	-14664	2968	-6064	-15	13	-9	-9312	3760	13208	12	-4	-33	-15928	-2840	-832	-19	54	-9	-15400	-1064	-5080	17	-1	17	127	119	8
-10116	-4276	11648	-14	25	6	-16792	1824	-1968	28	66	15	-14808	3008	-6280	-23	22	-14	-9424	3864	13048	11	-5	-30	-15920	-3064	-992	-5	45	-10	-15384	-1312	-4984	23	10	17	127	118	8
-10160	-4144	11616	-23	25	-6	-16616	1456	-2120	-36	42	10	-14456	3064	-6288	-30	23	-12	-9368	3936	13184	19	-6	-29	-15936	-3032	-1176	10	48	-6	-15352	-1160	-4864	16	11	8	127	120	8
-10152	-4212	11584	-18	28	-10	-16440	1328	-1816	-37	30	9	-14776	2792	-6088	-26	10	-12	-9376	3968	13048	13	-1	-23	-15840	-2960	-1008	-2	51	-3	-15280	-1048	-4960	12	4	8	127	121	8
-10188	-4260	11448	-11	21	-6	-16496	1064	-1920	40	26	20	-14784	2944	-5880	-2	-8	-11	-9496	4024	13136	18	0	-27	-15800	-2904	-824	-25	49	-3	-15256	-960	-5128	-13	10	4	127	120	8
-10044	-4252	11560	-9	17	-4	-16440	1528	-2064	91	31	22	-14728	2856	-5832	11	0	-4	-9448	4056	12816	16	-8	-26	-15832	-2856	-1064	-45	41	-6	-15392	-1064	-5168	-19	20	-3	127	121	8
-10088	-4104	11644	-6	21	-4	-16616	1416	-2160	102	17	24	-14840	3112	-6224	14	25	-11	-9456	3872	13424	12	9	-24	-15944	-2944	-1128	-45	31	-6	-15328	-1176	-5128	-37	36	-8	127	119	8
-10176	-4148	11656	-11	26	-9	-16608	1536	-2056	71	11	26	-14840	3024	-5992	16	32	-15	-9552	3952	13048	19	10	-23	-15848	-2880	-1112	-33	34	-5	-15264	-1168	-5088	-37	25	-10	127	120	8
-10112	-4084	11488	-22	26	-19	-16456	1504	-1816	17	-8	31	-14728	3088	-6000	10	43	-19	-9584	4040	12824	19	4	-18	-15728	-2840	-1104	-43	34	-7	-15216	-1232	-5120	-34	14	-5	127	122	8
-10168	-4276	11516	-22	24	-19	-16344	1352	-2008	20	-7	24	-14744	2840	-6016	-4	31	-16	-9416	3984	13344	14	-9	-19	-15792	-3048	-976	-31	31	-8	-15248	-1128	-5072	-26	5	1	127	121	8
-10132	-4132	11548	-8	9	-21	-16368	1472	-1704	12	-1	16	-14832	3040	-5760	-3	21	-17	-9560	4232	13216	13	-10	-22	-15752	-2784	-984	-28	30	-9	-15264	-1176	-5048	-15	9	1	127	119	8
-10084	-4100	11496	-8	10	-16	-16528	1440	-1688	14	-8	19	-14872	3000	-5896	-14	18	-10	-9272	3896	13096	11	-6	-23	-16000	-2952	-1184	-11	33	-5	-15176	-1080	-5208	-10	16	3	127	118	8
-10184	-4240	11516	-11	12	-16	-16800	1488	-1960	-10	-16	16	-14944	3288	-5632	-29	21	-7	-9440	4056	13192	16	1	-27	-15920	-2744	-1280	-18	22	-11	-15280	-1224	-5264	-3	17	4	127	119	8
-10188	-4144	11596	-18	18	-22	-16816	1528	-1808	-40	-23	16	-14968	3256	-5752	-21	37	-21	-9552	3952	13184	18	-4	-25	-15904	-3032	-1232	-38	19	-14	-15272	-1152	-5416	-4	6	6	127	120	8
-10156	-4084	11544	-20	23	-27	-16464	1576	-1704	-30	-26	15	-15016	3104	-5320	-8	32	-23	-9584	4032	13040	17	-9	-21	-15920	-3008	-1008	-6	19	-18	-14976	-1216	-5248	4	-4	-1	127	119	8
-10104	-4104	11600	-15	19	-20	-16296	1304	-1648	-27	-12	7	-15048	2912	-5392	-6	19	-18	-9392	4016	13080	20	-8	-19	-15952	-2792	-1160	4	14	-17	-15176	-1088	-5416	5	-8	-2	127	121	8
-10036	-4208	11600	-10	21	-21	-16488	1504	-1528	7	-5	9	-15120	3136	-5464	-8	19	-5	-9544	4040	13096	12	-4	-26	-15664	-2832	-1336	-14	1	-20	-15136	-1096	-5440	-2	-7	9	127	119	8
-10136	-4120	11624	-17	20	-22	-16472	1472	-1640	29	11	6	-15136	2952	-5464	25	25	5	-9616	4136	13024	8	-15	-24	-15824	-3096	-992	-12	-1	-19	-15224	-1248	-5160	1	-16	8	127	117	8
-10100	-4136	11520	-15	27	-30	-16424	1352	-1520	40	16	8	-14952	2928	-5808	61	28	11	-9288	3888	13136	4	-19	-23	-15840	-3120	-1296	7	-1	-20	-15192	-1392	-5192	25	-18	10	127	119	8
-10184	-4212	11412	-11	26	-31	-16480	1400	-1712	46	12	5	-14936	2928	-5728	72	17	11	-9320	3744	13080	1	-20	-23	-15976	-3000	-1160	44	-2	-19	-15344	-1424	-5024	36	-11	24	127	121	8
-10088	-4168	11448	-8	14	-31	-16480	1360	-1752	22	16	12	-14912	2792	-5744	64	1	16	-9376	3936	13144	8	-13	-19	-16008	-3008	-1056	70	-6	-10	-15280	-1320	-5352	55	3	28	127	121	8
-10076	-4220	11608	-6	9	-31	-16320	1352	-1648	-11	19	11	-14832	2824	-5720	41	-6	14	-9528	3976	12824	10	-15	-19	-16064	-2936	-880	52	-13	-11	-15336	-1328	-5504	56	20	25	127	120	8
-10000	-4096	11544	-11	1	-27	-16536	1496	-1640	-53	25	3	-14784	2720	-5952	11	0	15	-9440	4032	13088	14	-13	-23	-15776	-3152	-1072	33	-17	-10	-15280	-1240	-5016	28	7	23	127	120	8
-10176	-4152	11480	-9	7	-29	-16624	1448	-1912	-72	15	6	-14824	3120	-5888	1	7	10	-9544	3928	12992	16	-10	-18	-15664	-2968	-976	12	-19	-6	-15480	-1224	-5048	1	-7	20	127	120	8
-10232	-4176	11568	-14	4	-29	-16560	1288	-1888	-93	0	14	-14728	2840	-5952	0	4	1	-9448	3960	13120	21	-9	-11	-15696	-3048	-1064	13	-14	3	-15472	-1200	-4760	-11	-16	13	127	119	8
-10076	-4188	11452	-12	3	-23	-16528	1592	-1856	-99	-6	20	-14536	2928	-5928	-8	-4	-6	-9536	4024	13248	18	0	-13	-15848	-2928	-600	0	-8	9	-15344	-1112	-4800	-15	4	12	127	119	8
-10072	-4208	11556	-12	9	-26	-16720	1384	-2032	-71	-15	25	-14768	3064	-5920	-25	0	-2	-9512	4080	13056	19	-2	-16	-15840	-2912	-936	-26	-1	7	-15456	-1144	-4872	-22	-1	13	127	119	8
-10224	-4016	11616	-27	6	-27	-16640	1496	-1920	-53	-21	20	-14808	3104	-6200	-15	-12	4	-9320	4024	13112	20	-10	-16	-15880	-2968	-960	-32	1	6	-15344	-1344	-4824	-23	9	19	127	118	8
-10164	-4216	11560	-15	11	-33	-16400	1440	-1808	-40	-25	30	-14776	2912	-5824	7	-14	11	-9528	3984	13184	16	-9	-14	-15840	-3080	-1080	-15	10	9	-15416	-1272	-5224	-16	-7	26	127	121	8
-10048	-4280	11544	-18	9	-33	-16552	1456	-1848	-30	-22	26	-14880	3048	-5680	11	-19	18	-8952	3992	13480	21	-9	-18	-15808	-2960	-776	7	14	13	-15376	-1088	-5200	-5	-22	26	127	122	8
-10056	-4388	11488	-15	11	-27	-16712	1376	-1568	-30	-31	31	-14928	2824	-5600	14	-7	16	-9352	4040	13024	20	-4	-21	-15864	-2720	-992	-26	13	10	-15392	-1344	-5160	4	-26	33	127	121	8
-10100	-4184	11496	-10	18	-23	-16592	1496	-1496	-31	-32	22	-15136	3000	-5656	22	-12	21	-9552	4000	13112	20	-4	-17	-15816	-2784	-1192	-44	8	8	-15088	-1232	-5248	1	-30	39	127	118	8
-10124	-4240	11520	-8	19	-22	-16480	1680	-1384	-21	-22	20	-15144	3184	-5392	43	-13	25	-9544	3984	12960	18	-2	-20	-15784	-2872	-1448	-27	4	3	-15184	-1408	-5528	17	-30	39	127	120	8
-10084	-4208	11556	-10	25	-31	-16440	1584	-1512	-27	-23	20	-15112	3136	-5312	68	-14	28	-9496	3960	13088	15	-11	-17	-15752	-3024	-1144	24	-1	1	-15064	-1056	-5496	36	-29	45	127	118	8
-10016	-4164	11580	-12	19	-27	-16536	1496	-1616	42	1	28	-14928	3056	-5432	73	-13	34	-9424	4216	13152	16	-17	-20	-16072	-2920	-1376	60	-11	-5	-15120	-1088	-5576	46	-33	38	127	121	8
-10184	-4208	11516	-8	20	-25	-16528	1616	-1512	46	6	21	-14944	3064	-5600	76	2	36	-9496	4120	13144	16	-1	-20	-15976	-2768	-1208	37	-21	1	-15184	-984	-5456	46	-38	39	127	120	8
-10112	-4236	11556	-12	18	-25	-16544	1744	-1528	41	14	16	-14976	3208	-5592	81	-6	36	-9608	3992	13168	21	0	-25	-15856	-2920	-1008	-4	-28	-6	-15328	-1048	-5168	30	-37	44	127	126	8
-10132	-4084	11568	-23	14	-27	-16312	1520	-1472	20	21	11	-14880	3216	-5512	70	-8	32	-9392	4016	13032	14	-7	-22	-15760	-3160	-1080	26	-24	-13	-15144	-1256	-5096	42	-29	40	127	118	8
-10072	-4080	11616	-16	18	-26	-16680	1448	-1720	46	24	22	-15056	3104	-5424	71	8	29	-9456	3904	13280	14	-13	-18	-15992	-2856	-1080	54	-30	-5	-15272	-1056	-5120	54	-11	36	127	120	8
-10172	-4228	11480	-15	14	-22	-16560	1440	-1816	58	27	21	-14880	2752	-5800	70	15	30	-9592	4056	13144	10	-16	-26	-15824	-2792	-888	76	-31	-10	-15360	-1128	-5096	57	-5	45	127	119	8
-10144	-4248	11420	-7	8	-26	-16384	1544	-1816	19	24	21	-14944	2888	-5776	75	9	28	-9560	4048	13184	10	-20	-16	-15808	-3040	-760	71	-24	-10	-15528	-1408	-4744	65	-16	52	127	118	8
-10132	-4348	11588	-4	9	-17	-16520	1320	-1640	11	29	17	-14920	2936	-5520	60	-6	35	-9480	3856	13064	15	-13	-17	-15976	-2936	-616	60	-16	-4	-15648	-1288	-4904	78	-27	53	127	119	8
-10028	-4244	11624	-1	10	-19	-16576	1664	-1584	11	25	15	-15064	3080	-5824	40	-32	39	-9360	3896	13160	13	-10	-27	-16056	-2888	-872	60	-10	-2	-15712	-1008	-4904	78	-26	55	127	122	8
-10100	-4176	11556	-6	10	-19	-16576	1632	-1392	11	35	16	-15080	3288	-5576	60	-44	41	-9440	3992	13040	15	-1	-22	-15752	-2760	-912	24	6	2	-15552	-1088	-4816	62	-31	57	127	121	8
-10104	-4196	11464	-3	15	-21	-16464	1480	-1760	20	42	13	-14992	3440	-5680	66	-36	35	-9376	4080	13024	20	-3	-21	-15840	-2808	-856	17	13	-2	-15448	-1016	-4888	44	-48	52	127	121	8
-10096	-4200	11496	0	18	-24	-16408	1568	-1648	29	44	12	-14816	3376	-5624	73	-46	31	-9744	4016	13032	17	-1	-19	-15944	-2912	-936	1	15	1	-15320	-920	-5016	36	-66	45	127	118	8
-10032	-4160	11564	1	10	-27	-16552	1512	-1832	37	43	14	-14752	3384	-5832	60	-50	17	-9536	4184	13152	20	-3	-20	-15936	-2640	-976	-28	14	2	-15264	-944	-5000	15	-75	42	128	118	8
-10120	-4212	11592	-6	10	-19	-16600	1752	-1896	37	38	11	-14656	3320	-6128	34	-54	11	-9480	3928	13032	18	2	-16	-15792	-3008	-1128	-38	19	-5	-15320	-904	-5208	-2	-86	31	127	118	8
-10156	-4188	11432	-9	18	-24	-16680	1600	-2120	11	30	7	-14584	3208	-6248	25	-47	0	-9304	4088	13096	23	0	-18	-16080	-2904	-1200	-36	14	-4	-15288	-864	-4928	-4	-70	29	127	118	8
-10112	-4116	11572	-14	17	-23	-16624	1672	-1992	-6	14	7	-14664	3064	-6288	9	-23	-6	-9400	4056	13304	18	6	-22	-15952	-2856	-1136	-27	12	-1	-15208	-1040	-4944	0	-56	20	127	121	8
-10120	-4128	11664	-26	15	-28	-16640	1536	-2192	-6	3	13	-14728	2968	-6240	-1	-21	-8	-9648	4096	13128	19	9	-21	-15800	-2832	-1240	-16	7	-8	-15328	-1024	-5160	-13	-48	24	127	120	8
-10072	-4176	11608	-13	17	-26	-16408	1344	-2024	7	-10	12	-14696	2808	-5808	8	-40	-10	-9568	4032	12960	16	-2	-23	-15728	-2944	-1080	-16	7	-6	-15128	-1200	-5000	-13	-47	19	127	119	8
-10144	-4184	11540	-6	8	-27	-16312	1480	-1768	13	-24	11	-14720	2896	-5728	12	-33	-11	-9568	4128	13072	12	-2	-20	-15960	-3080	-1024	4	-2	-2	-15264	-1192	-4968	-9	-42	18	127	118	8
-10068	-4240	11536	-12	9	-29	-16680	1336	-1984	12	-27	15	-14632	2792	-6008	-1	-24	-6	-9432	4216	12968	14	-5	-22	-15936	-2776	-1240	-2	-3	-6	-15496	-1240	-4792	-8	-46	14	127	120	8
-9988	-4208	11556	-9	11	-23	-16736	1432	-1832	4	-42	17	-14960	2840	-5728	9	-18	0	-9408	4152	12840	12	-3	-19	-15936	-2968	-1208	-3	-2	4	-15344	-1400	-5168	-6	-51	22	127	119	8
-10156	-4180	11548	-13	13	-31	-16496	1408	-1912	6	-47	24	-14912	3072	-5896	17	1	2	-9528	4016	13080	16	-6	-15	-15888	-2952	-1240	-1	-6	-2	-15376	-1272	-5120	-4	-45	28	127	117	8
-10100	-4184	11536	-14	11	-27	-16448	1392	-1800	1	-49	19	-14800	2952	-5688	24	8	6	-9408	4000	13096	17	1	-16	-15744	-2920	-1032	9	-10	-1	-15216	-1096	-5112	9	-43	31	127	120	8
-10132	-4200	11560	-10	10	-30	-16416	1512	-1728	3	-48	16	-14984	2864	-5256	37	1	13	-9584	3992	13024	18	-7	-14	-15960	-2808	-1152	15	-9	-2	-15144	-1056	-5216	18	-36	35	127	121	8
-10148	-4272	11444	2	8	-30	-16480	1544	-1520	8	-39	9	-14976	3168	-5248	37	-12	16	-9472	4128	12968	17	-12	-18	-15720	-2848	-1376	14	-17	-11	-15368	-952	-4936	17	-28	32	127	119	8
-10016	-4300	11564	-1	5	-27	-16536	1640	-1672	10	-36	2	-15016	3464	-5128	40	-22	10	-9432	3960	13144	11	-7	-21	-15704	-2904	-1080	26	-20	-3	-15456	-768	-4824	19	-42	28	127	118	8
-10048	-4208	11532	-10	2	-36	-16552	1504	-1672	26	-26	7	-15008	3424	-5256	46	-25	3	-9424	4208	12904	19	-2	-20	-16056	-2768	-848	21	-16	-9	-15432	-880	-5192	19	-43	20	127	121	8
-10084	-4164	11640	-4	4	-32	-16712	1576	-1624	39	-16	10	-15024	3400	-5344	34	-9	-5	-9616	3984	13208	11	-4	-19	-15824	-2752	-1104	19	-22	-14	-15456	-832	-4912	9	-52	17	127	120	8
-10120	-4212	11660	-3	-2	-34	-16504	1560	-1664	40	-23	12	-14960	3288	-5520	18	3	-13	-9392	4056	12872	8	-11	-17	-15776	-2728	-1216	19	-20	-15	-15296	-848	-4672	6	-41	16	127	120	8
-10128	-4208	11508	-5	0	-32	-16472	1600	-1872	-4	-26	5	-14944	3024	-5928	4	3	-17	-9488	4224	13128	8	-18	-15	-16032	-2872	-1072	25	-26	-24	-15288	-1160	-5168	16	-28	12	127	121	8
-10124	-4140	11556	1	-2	-35	-16504	1624	-2064	-49	-25	-9	-14856	3056	-5744	1	-11	-19	-9504	4080	13168	9	-11	-24	-15888	-2888	-1296	30	-28	-18	-15272	-1000	-5000	17	-31	15	127	120	8
-10136	-4216	11576	5	-6	-36	-16344	1408	-1712	-46	-31	-10	-14768	3016	-5712	19	-19	-20	-9488	3968	13120	6	-16	-22	-15624	-2848	-1104	48	-30	-23	-15304	-1096	-5192	19	-40	22	127	120	8
-9996	-4208	11592	5	-11	-36	-16568	1384	-1728	-23	-38	1	-14720	2992	-5544	14	-2	-13	-9432	4000	13144	7	-16	-21	-15968	-2976	-888	63	-32	-19	-15384	-904	-5136	38	-41	19	127	120	8
-10056	-4092	11656	-1	-11	-35	-16584	1592	-1912	-10	-42	0	-14840	2952	-5880	9	6	-3	-9592	4032	13056	6	-18	-23	-15824	-2888	-1256	48	-32	-24	-15256	-960	-4992	49	-46	22	127	119	8
-10164	-4068	11608	3	0	-39	-16656	1632	-1896	-39	-51	0	-14720	2896	-5776	21	9	-8	-9480	4080	12856	5	-14	-20	-15776	-2968	-1216	67	-36	-33	-15224	-1040	-5000	45	-52	20	127	118	8
-10068	-4028	11600	-2	-1	-38	-16472	1400	-1568	-67	-61	-8	-14896	3032	-5488	44	12	-7	-9344	3952	13184	7	-18	-20	-15784	-2960	-1008	92	-39	-29	-15376	-1152	-4944	54	-47	23	128	121	8
-10020	-4168	11584	11	-2	-41	-16488	1432	-1592	-73	-55	-14	-14896	3096	-5248	49	-2	-2	-9536	3984	13096	9	-14	-24	-15792	-2984	-1064	82	-47	-28	-15304	-1160	-4648	53	-37	22	127	119	8
-10120	-4156	11684	21	-17	-45	-16416	1328	-1344	-53	-42	-16	-15184	3120	-5192	48	-33	2	-9680	3984	12920	11	-22	-20	-15776	-2944	-872	76	-45	-30	-15480	-1160	-4896	37	-42	22	127	120	8
-9968	-4124	11748	26	-11	-44	-16424	1392	-1360	-36	-26	-16	-15272	3272	-5016	53	-30	3	-9504	3952	12992	3	-16	-14	-15808	-3064	-928	79	-51	-27	-15384	-1120	-4768	20	-40	19	127	119	8
-9804	-4228	11668	16	-10	-35	-16584	1440	-1112	-1	-13	-21	-15064	3272	-5120	39	-3	-6	-9536	3888	13152	0	-21	-13	-15832	-3008	-696	88	-43	-22	-15496	-1112	-4752	9	-43	16	127	122	8
-10020	-4172	11700	8	-9	-38	-16824	1216	-1552	-3	-5	-15	-15256	3120	-5224	8	13	-20	-9368	3872	13184	8	-17	-11	-15800	-2984	-704	114	-39	-21	-15688	-1280	-4600	10	-53	10	127	121	8
-9960	-4064	11720	5	1	-33	-16544	1448	-1648	-12	-7	-1	-15096	2896	-5568	-11	-1	-27	-9456	4024	13136	2	-21	-17	-15760	-2976	-376	64	-32	-15	-15704	-1192	-4312	8	-71	16	127	119	8
-9996	-4164	11648	1	0	-30	-16536	1416	-1704	-35	-9	-3	-14968	2840	-5664	-15	-9	-29	-9352	3896	13232	0	-14	-19	-15984	-3184	-272	49	-16	-18	-15656	-1256	-4296	19	-54	29	127	120	8
-9988	-4132	11732	4	4	-32	-16400	1416	-1576	-66	-11	-5	-15008	2720	-5656	-20	-15	-19	-9472	3936	12960	5	-8	-18	-15784	-2880	-696	24	-9	-12	-15824	-1160	-4280	30	-45	24	127	121	8
-10060	-4188	11684	13	0	-26	-16464	1208	-1752	-70	-7	-11	-14952	2808	-5744	-28	-34	-12	-9416	4016	13408	5	-6	-26	-15712	-3104	-736	27	-2	-14	-15712	-1080	-4288	22	-41	31	127	118	8
-9944	-4184	11664	19	-2	-31	-16560	1288	-1768	-68	-13	-5	-14832	2856	-5888	-25	-49	-10	-9456	4024	13248	12	-9	-22	-15880	-3072	-576	38	6	-8	-15472	-1080	-4376	17	-48	28	127	120	8
-9844	-4068	11708	10	1	-26	-16688	1504	-1608	-36	-18	-2	-14848	3032	-5768	-4	-31	-4	-9344	4088	13024	14	-10	-25	-15944	-3000	-800	21	3	-9	-15336	-1128	-4880	14	-37	22	127	120	8
-9856	-4068	11736	-1	11	-30	-16912	1480	-1536	-29	-22	1	-15008	3048	-5784	0	-7	0	-9584	4048	13264	20	-3	-18	-15952	-2776	-904	-27	3	-11	-15408	-1168	-4976	9	-46	18	127	118	8
-9968	-4092	11536	-6	12	-32	-16640	1400	-1632	-32	-30	10	-15040	2896	-5544	1	-11	-7	-9440	3976	13152	15	-3	-22	-15720	-3016	-1008	-11	-2	-16	-15288	-1224	-4872	3	-48	21	127	120	8
-9964	-4160	11724	-16	19	-32	-16504	1328	-1272	-30	-23	5	-14904	3024	-5448	16	-17	-5	-9432	3912	13152	19	-3	-21	-15904	-3048	-776	17	-9	-10	-15408	-1208	-4688	18	-43	22	127	119	8
-10020	-4104	11684	-16	21	-31	-16544	1256	-1432	19	-14	6	-15184	3104	-5320	31	-12	2	-9544	4104	13160	22	-7	-23	-15808	-2944	-1136	14	-11	-7	-15360	-1000	-4888	34	-32	21	127	116	8
-9904	-4112	11696	-14	24	-29	-16440	1424	-1528	47	-6	11	-15240	3000	-5256	55	-9	2	-9408	4128	13176	17	-7	-24	-15712	-2944	-704	-9	-14	-20	-15376	-1128	-5032	18	-30	26	127	117	8
-10012	-4104	11692	-17	19	-32	-16504	1352	-1424	49	5	2	-14992	3040	-5352	61	-5	9	-9632	4152	13024	16	-7	-20	-16008	-3032	-784	6	-20	-22	-15384	-1144	-4816	21	-32	23	127	118	8
-10016	-4112	11760	-14	18	-31	-16568	1376	-1800	46	10	7	-14976	3072	-5432	57	-1	8	-9328	3864	13064	16	-8	-19	-15992	-3072	-768	32	-23	-18	-15544	-1016	-4440	20	-40	19	127	118	8
-9960	-4172	11716	-10	15	-25	-16744	1224	-1688	46	11	7	-15048	2928	-5656	35	5	-3	-9376	4048	13240	18	-9	-24	-15832	-2968	-808	19	-17	-7	-15576	-1128	-4312	14	-30	17	127	118	8
-9980	-4228	11724	-12	16	-19	-16496	1304	-1720	31	1	8	-14992	3064	-5720	28	-1	-11	-9536	4104	13136	18	-4	-22	-15800	-2984	-912	-10	-13	-13	-15504	-1184	-4600	8	-30	15	127	117	8
-10028	-4216	11772	-13	16	-26	-16576	1400	-1736	16	1	9	-14976	2792	-5872	20	2	-8	-9560	3992	12960	17	-4	-21	-16024	-3040	-752	-22	-11	-13	-15640	-1216	-4432	9	-30	21	127	118	8
-9980	-4112	11672	-19	9	-24	-16648	1376	-1728	6	-8	18	-14824	2824	-5432	15	-4	-5	-9432	3968	13080	14	-11	-16	-15744	-3288	-680	13	-9	-11	-15496	-1144	-4288	8	-32	16	127	119	8
-9928	-4072	11736	-17	15	-25	-16624	1312	-1688	4	-12	11	-14808	2808	-5856	17	-7	3	-9416	4096	13168	22	-7	-20	-15936	-3056	-720	15	-2	0	-15648	-1080	-4480	10	-20	18	127	120	8
-9960	-4164	11652	-21	17	-26	-16480	1288	-1616	41	-16	15	-14904	2920	-5952	31	-5	0	-9432	3984	13080	19	5	-17	-15904	-2816	-600	-27	2	-4	-15800	-1232	-4392	8	-23	20	127	117	8
-9996	-4212	11652	-22	16	-23	-16544	1440	-1648	53	-20	16	-14976	2936	-5648	35	-6	2	-9360	4040	13224	25	-2	-18	-15744	-3152	-784	-65	2	-8	-15464	-1184	-4192	-4	-33	24	127	118	8
-10036	-4108	11636	-18	19	-31	-16536	1488	-1616	34	-18	16	-15080	2992	-5552	39	-8	6	-9440	3904	13088	21	0	-19	-15856	-3072	-824	-31	12	-7	-15320	-1128	-4408	2	-36	28	127	118	8
-10000	-4180	11644	-20	16	-31	-16480	1288	-1248	13	-18	19	-14968	3000	-5480	29	-3	6	-9496	3888	13064	16	0	-23	-15680	-3240	-704	-4	9	0	-15272	-936	-4488	11	-39	16	127	121	8
-9932	-4192	11708	-8	17	-23	-16592	1296	-1376	3	-12	17	-15096	2936	-5432	33	-5	10	-9544	3944	12752	21	-6	-21	-15856	-2984	-952	16	8	4	-15480	-1080	-4560	6	-33	18	127	119	8
-9924	-4196	11672	-10	16	-19	-16624	1408	-1440	21	-7	15	-15176	2912	-5248	43	2	5	-9552	3928	13128	20	1	-20	-16024	-2832	-880	-34	0	1	-15416	-1192	-4776	0	-27	20	127	119	8
-10012	-4196	11700	-11	21	-24	-16568	1264	-1272	47	-6	20	-15088	2896	-5288	48	-8	8	-9376	4024	13168	23	-7	-20	-15760	-3208	-984	-61	4	-7	-15520	-1208	-4528	-3	-37	22	127	117	8
-10064	-4184	11748	-12	20	-26	-16384	1424	-1632	41	-6	23	-14920	3144	-5496	37	-5	8	-9336	4032	13328	20	-7	-15	-15752	-3072	-832	-22	7	-5	-15464	-1184	-4696	1	-37	23	127	119	8
-10028	-4084	11740	-17	20	-27	-16688	1400	-1392	26	-7	19	-14816	3112	-5696	29	0	6	-9480	4024	13216	18	-3	-20	-15952	-2976	-648	23	2	3	-15392	-968	-4376	17	-37	20	127	121	8
-9972	-4232	11684	-23	16	-21	-16544	1432	-1640	21	-1	17	-14896	3000	-5584	12	-5	5	-9472	4080	13088	19	-6	-24	-15752	-2816	-1040	5	11	6	-15616	-824	-4416	-2	-28	21	127	117	8
-10044	-4108	11720	-14	15	-23	-16600	1264	-1464	17	-12	18	-14912	3008	-5256	13	-7	-1	-9464	3912	12992	8	-7	-18	-15712	-2768	-1072	-24	11	-6	-15560	-984	-4448	-11	-25	15	127	120	8
-10040	-4196	11636	-16	12	-22	-16592	1272	-1584	12	-9	16	-15200	2952	-5512	22	-12	-7	-9424	3920	13040	11	-1	-13	-15952	-3000	-824	-39	7	-10	-15392	-1000	-4640	-13	-29	14	127	119	8
-9996	-4164	11624	-8	14	-20	-16648	1464	-1808	9	-11	13	-14800	3120	-5808	7	-1	0	-9312	3976	13176	9	-7	-18	-15832	-2928	-896	-14	15	0	-15528	-1048	-4584	-6	-39	4	127	119	8
-9884	-4124	11672	-16	21	-23	-16824	1480	-1744	7	-14	23	-14960	3064	-5824	-6	11	2	-9488	4216	13160	16	-12	-27	-15808	-2912	-800	11	15	-2	-15672	-952	-4416	-7	-40	10	127	118	8
-9996	-4132	11688	-21	22	-22	-16712	1344	-1320	16	-13	15	-15152	3024	-5320	8	10	-2	-9360	3976	12952	21	-4	-31	-15864	-2928	-984	13	18	-1	-15648	-1160	-3960	-13	-29	6	127	118	8
-10008	-4172	11712	-28	30	-27	-16456	1280	-1256	39	-10	19	-15224	3032	-5448	28	7	-6	-9376	4080	13200	21	0	-30	-15784	-2912	-872	-55	21	2	-15696	-1080	-4112	-15	-30	12	127	117	8
-10012	-4188	11628	-23	31	-20	-16248	1472	-1264	39	-2	11	-15008	2944	-5200	38	-8	0	-9488	4032	13080	21	-3	-22	-15576	-3024	-928	-82	28	-6	-15640	-872	-4104	-38	-42	9	127	119	8
-10044	-4132	11616	-20	27	-23	-16336	1336	-1472	44	3	14	-15032	3160	-4872	40	-7	0	-9416	3896	13256	18	-8	-23	-15832	-2896	-696	-72	35	-9	-15528	-1136	-4464	-6	-41	8	127	118	8
-10060	-4196	11652	-17	20	-21	-16424	1544	-1552	45	14	11	-14936	2880	-5264	34	-4	3	-9448	4080	12944	15	-8	-28	-15824	-3016	-1056	-52	34	-4	-15632	-1232	-4760	-6	-31	10	127	118	8
-10048	-4204	11640	-15	15	-21	-16640	1272	-1016	28	22	9	-15176	3064	-5120	41	-7	1	-9360	3960	13192	7	-12	-33	-15840	-3088	-872	-21	33	-5	-15632	-1176	-4664	2	-24	18	127	117	8
-10008	-4220	11668	-15	16	-19	-16640	1392	-1208	33	28	13	-15112	3024	-5352	32	-8	-3	-9448	4112	12928	9	-7	-29	-15936	-2960	-912	-9	32	-9	-15552	-1496	-4592	-4	-33	18	127	118	8
-10052	-4120	11548	-13	12	-14	-16504	1344	-1920	33	28	13	-15152	2904	-5488	29	4	0	-9296	3912	13072	10	-6	-28	-15752	-2912	-960	-7	26	-12	-15456	-1232	-4656	14	-38	33	127	119	8
-10072	-4184	11604	-10	12	-14	-16328	1480	-1688	9	34	15	-14968	2864	-5432	15	-9	2	-9552	4040	13080	10	-13	-21	-15752	-3056	-896	9	24	-9	-15520	-1248	-4648	26	-33	34	127	119	8
-10028	-4200	11632	-4	11	-20	-16672	1240	-1640	5	34	9	-14960	2872	-5624	7	-20	3	-9472	4104	13072	14	-9	-26	-15936	-2944	-1056	1	23	-8	-15560	-1128	-4712	37	-18	31	127	119	8
-10056	-4184	11664	-4	10	-18	-16416	1312	-1592	3	36	11	-15096	2912	-5472	16	-31	4	-9624	3960	13088	9	-4	-25	-15976	-3032	-1184	25	16	-12	-15560	-1136	-4800	26	-14	29	127	120	8
-10048	-4232	11676	-4	12	-18	-16488	1320	-1616	10	33	13	-14912	3000	-5720	13	-35	4	-9608	3992	12984	12	-2	-21	-15936	-3152	-1224	38	7	-12	-15584	-1120	-4640	23	-18	29	127	119	8
-10040	-4176	11652	-6	8	-17	-16576	1496	-1712	-3	29	19	-14904	3176	-5680	9	-39	5	-9512	3960	13064	11	-3	-17	-15784	-3000	-1192	39	9	-8	-15296	-1008	-4584	11	-43	25	127	120	8
-9928	-4168	11728	-6	10	-21	-16344	1632	-1488	-12	22	10	-14880	3000	-5472	0	-46	4	-9512	4064	13096	14	-9	-21	-15880	-3040	-1024	14	6	-4	-15328	-1104	-4608	-1	-35	22	127	118	8
-10056	-4296	11720	-9	13	-24	-16648	1352	-1784	-7	28	10	-14880	2928	-5592	1	-23	5	-9464	3992	13136	16	-12	-18	-15856	-2944	-856	-20	6	-9	-15176	-1184	-4808	-4	-24	16	127	117	8
-10084	-4100	11692	-1	5	-26	-16472	1288	-1640	-3	27	11	-15008	2912	-5608	17	-29	7	-9504	4096	13048	11	-15	-18	-15720	-3112	-1056	-24	-7	-9	-15440	-1400	-4688	-6	-14	21	127	120	8
-10036	-4200	11604	-5	9	-28	-16264	1320	-1520	3	9	10	-14976	2904	-5648	23	-36	3	-9616	3896	13232	10	-8	-15	-15848	-3000	-1032	14	-12	-6	-15216	-1256	-4920	3	-10	30	127	121	8
-9944	-4152	11652	-1	7	-29	-16632	1464	-1664	-9	16	11	-14808	2856	-5656	20	-38	10	-9600	3992	13160	10	-13	-19	-15968	-2984	-1232	43	-13	-10	-15488	-1016	-4784	27	-21	27	127	119	8
-10048	-4160	11716	3	4	-27	-16632	1312	-1816	-26	12	6	-15016	2912	-5528	6	-40	11	-9552	4032	13040	18	-8	-18	-15920	-2848	-1000	54	-20	-9	-15624	-1080	-4848	35	-28	31	127	121	8
-10008	-4152	11660	-1	7	-29	-16496	1192	-1680	-31	3	4	-14840	2944	-5448	9	-31	5	-9440	3864	13080	9	-9	-18	-15728	-3032	-928	59	-21	-12	-15416	-1176	-4544	26	-32	33	127	119	8
-10016	-4168	11604	7	9	-26	-16344	1224	-1720	-25	7	4	-15112	2976	-5336	8	-32	6	-9544	3952	13168	10	-12	-15	-15824	-3072	-1080	57	-16	-12	-15472	-1328	-4240	36	-34	25	127	119	8
-9996	-4120	11676	6	8	-29	-16560	1296	-1464	-15	11	11	-15120	2968	-4984	7	-22	5	-9504	4136	13072	8	-8	-15	-15632	-3104	-1080	68	-9	-4	-15464	-1208	-4544	43	-24	28	127	120	8
-9916	-4260	11716	9	1	-25	-16544	1328	-1664	-14	12	16	-15080	2848	-5424	-9	-18	4	-9624	4000	13176	12	-15	-14	-15904	-2984	-984	88	-12	-13	-15568	-1248	-4176	43	-23	36	127	119	8
