#Activity	sitting 
#ActivityID	5 
#Date 10-10-17-33
acc_rf_x	acc_rf_y	acc_rf_z	gyro_rf_x	gyro_rf_y	gyro_rf_z	acc_rs_x	acc_rs_y	acc_rs_z	gyro_rs_x	gyro_rs_y	gyro_rs_z	acc_rt_x	acc_rt_y	acc_rt_z	gyro_rt_x	gyro_rt_y	gyro_rt_z	acc_lf_x	acc_lf_y	acc_lf_z	gyro_lf_x	gyro_lf_y	gyro_lf_z	acc_ls_x	acc_ls_y	acc_ls_z	gyro_ls_x	gyro_ls_y	gyro_ls_z	acc_lt_x	acc_lt_y	acc_lt_z	gyro_lt_x	gyro_lt_y	gyro_lt_z	EMG_r	EMG_l	act
-10484	-3004	11520	-38	129	-172	-15768	-3048	-1716	62	-36	17	-2168	-1964	16436	78	-89	81	-9064	3528	13568	127	-75	-173	-16448	444	-2460	85	-21	139	-1176	2632	16796	235	6	3	127	127	5
-10528	-2944	11548	-56	122	-187	-15744	-3024	-1692	-59	-47	7	-2244	-1900	16264	90	-85	61	-9148	3496	13648	156	-43	-181	-16404	532	-2488	195	-15	174	-1140	2624	16852	200	-13	-15	127	128	5
-10500	-2948	11476	-72	140	-163	-15756	-2972	-1692	-77	-50	-24	-2276	-1844	16320	50	-107	41	-9100	3504	13536	163	-43	-127	-16420	620	-2340	200	-39	116	-1188	2652	16856	236	-18	-24	127	128	5
-10444	-3020	11524	-58	168	-169	-15756	-3036	-1788	-45	-53	-16	-2216	-1772	16444	5	-94	55	-9120	3544	13500	151	-34	-179	-16500	612	-2544	76	-20	138	-1128	2704	16764	236	-10	32	127	127	5
-10516	-2952	11556	-73	153	-147	-15752	-2972	-1760	1	-55	-42	-2180	-1860	16412	-44	-107	69	-9080	3504	13504	146	-19	-191	-16520	616	-2468	3	-31	159	-1128	2736	16824	299	28	49	127	128	5
-10472	-2952	11640	-88	179	-198	-15732	-2964	-1684	-40	-39	-93	-2212	-1804	16420	-13	-130	100	-9080	3624	13592	151	-28	-158	-16476	656	-2544	-55	-17	104	-1200	2684	16968	273	81	98	127	127	5
-10420	-2964	11428	-80	178	-163	-15820	-2912	-1680	20	-82	-95	-2208	-1808	16428	-24	-140	117	-9140	3548	13516	145	-81	-158	-16464	616	-2460	-108	-3	73	-1156	2620	16920	235	143	89	127	128	5
-10388	-2956	11472	-150	285	-215	-15848	-2932	-1628	10	-148	-128	-2184	-1936	16384	-18	-154	136	-9024	3460	13600	138	-53	-175	-16464	616	-2400	-36	39	59	-1196	2868	16592	165	65	126	127	127	5
-10396	-3020	11584	-122	351	-184	-15916	-2932	-1572	134	-70	-181	-2192	-1808	16380	45	-147	155	-9092	3604	13476	137	-58	-156	-16376	528	-2444	34	-5	73	-1160	2808	16712	40	36	176	127	128	5
-10152	-3444	11096	-214	520	-196	-15984	-3260	-1568	565	-99	-131	-2256	-1924	16524	-83	-217	200	-9040	3512	13572	141	-54	-212	-16412	496	-2652	88	18	41	-1164	2688	16876	185	82	247	127	129	5
-10344	-3080	11156	-185	645	-99	-15664	-3340	-1496	928	-215	-38	-2212	-2044	16076	-143	-102	155	-9032	3560	13640	111	-86	-186	-16460	608	-2464	51	19	36	-1236	2744	16568	328	68	205	127	130	5
-10360	-3096	11512	-26	676	-97	-15832	-3496	-1560	1585	-53	-93	-2176	-2172	16436	-200	-161	67	-9104	3548	13560	110	-95	-184	-16432	476	-2528	1	-7	50	-1368	2676	16660	322	45	221	127	128	5
-10536	-3132	11348	-90	685	-178	-15772	-3348	-1928	2486	-24	46	-2308	-2252	16392	-35	-256	109	-9056	3460	13584	106	-52	-185	-16424	332	-2592	8	-24	69	-1300	2812	16912	294	-10	61	127	129	5
-10548	-2884	11520	-108	649	-95	-15804	-2828	-2304	1947	-83	6	-2324	-2148	16368	94	-166	58	-9040	3500	13564	116	-60	-174	-16456	448	-2540	110	-52	68	-1268	2828	16776	42	-1	27	127	126	5
-10504	-2872	11368	-178	665	-139	-15808	-2804	-1808	1190	-239	-9	-2324	-1980	16504	140	-152	48	-9084	3544	13600	152	-30	-200	-16464	484	-2504	88	-92	121	-1412	2668	16712	-14	-92	-11	127	128	5
-10544	-2900	11364	-186	735	-109	-15908	-2808	-2044	661	-360	41	-2356	-1960	16392	83	-184	110	-9080	3572	13584	134	-26	-139	-16392	436	-2508	1	-89	113	-1364	2612	16848	76	-81	-34	127	128	5
-10568	-2736	11512	-197	777	-104	-15860	-3028	-1972	72	-485	33	-2328	-2072	16316	26	-184	141	-9084	3508	13564	185	-130	-139	-16444	380	-2560	22	-84	141	-1184	2556	16736	93	-32	36	127	128	5
-10560	-2956	11380	-274	696	-108	-15736	-3044	-1788	-301	-485	50	-2276	-2064	16200	109	-242	65	-9128	3548	13532	166	-42	-176	-16420	436	-2568	71	-91	186	-1224	2576	16780	195	-8	71	127	128	5
-10692	-2992	11432	-266	760	-84	-15872	-2964	-1832	-337	-576	34	-2236	-2136	16384	87	-249	64	-9064	3488	13584	171	-107	-165	-16384	552	-2436	23	-102	183	-1132	2584	16660	149	1	150	127	127	5
-10792	-2956	11280	-263	730	-66	-15724	-3160	-1592	-601	-519	10	-2180	-2108	16336	147	-216	47	-9068	3592	13508	180	-16	-173	-16432	476	-2372	23	-76	178	-1156	2468	16676	206	-49	104	127	127	5
-10792	-3000	11204	-220	618	-52	-15532	-3284	-1404	-604	-424	49	-1988	-2164	16224	99	-232	28	-9020	3496	13648	171	-71	-123	-16436	392	-2464	82	-87	224	-1192	2436	16680	212	-63	134	127	127	5
-10652	-3000	11352	-144	526	-95	-15736	-3380	-1312	-192	-268	131	-2016	-2240	16324	102	-296	-101	-9072	3496	13604	170	-82	-136	-16456	456	-2420	187	-93	225	-1096	2760	16840	350	0	39	127	127	5
-10812	-3176	11280	-89	542	-126	-15840	-3276	-1324	218	-315	199	-1984	-2228	16644	247	-240	-174	-9036	3520	13512	148	-86	-132	-16420	588	-2400	183	-93	201	-1176	2832	16944	274	3	44	127	127	5
-10684	-3140	11324	-113	527	-34	-15816	-3128	-1304	612	-266	216	-1960	-1928	16516	313	-229	-149	-9052	3556	13540	157	-76	-145	-16400	596	-2376	82	-75	195	-1184	2724	16756	204	-30	24	127	128	5
-10740	-3092	11268	-94	550	-53	-15800	-2964	-1388	575	-170	134	-1988	-1804	16544	250	-266	-40	-9020	3508	13588	182	-22	-152	-16464	568	-2360	-3	-10	161	-1064	2692	16792	173	-28	29	126	127	5
-10772	-3104	11384	-105	648	-11	-16204	-2760	-1512	459	-222	147	-2032	-1900	16680	246	-309	24	-9024	3512	13628	182	-41	-138	-16404	488	-2464	-62	-7	197	-1012	2620	16796	260	-22	9	126	127	5
-10840	-3028	11512	-21	811	73	-16216	-2888	-1368	123	-282	167	-2108	-1844	16752	270	-293	50	-9056	3564	13552	158	-11	-142	-16368	500	-2372	33	26	200	-1164	2688	16824	325	-55	24	127	127	5
-10748	-3028	11528	-174	1059	72	-16180	-2876	-1580	-50	-387	153	-2164	-1836	16668	239	-326	43	-9056	3572	13568	138	-46	-156	-16484	452	-2364	17	4	189	-1096	2840	16844	328	-11	-2	127	128	5
-10768	-3052	11500	-107	1134	55	-16000	-2828	-1652	-229	-404	145	-2104	-1820	16488	233	-357	112	-9136	3568	13464	183	-66	-187	-16416	652	-2528	112	2	165	-1124	2788	16884	309	-3	95	127	128	5
-10876	-2792	11116	-138	1228	-40	-15696	-2852	-1464	-270	-390	146	-2016	-1756	16276	287	-335	181	-9092	3540	13580	170	-51	-138	-16480	600	-2452	92	-45	149	-1004	2784	16804	267	83	100	127	128	5
-11080	-2960	10852	-142	1062	-42	-15328	-2992	-1476	-238	-353	84	-1948	-1752	16036	265	-287	237	-9044	3524	13544	144	-75	-189	-16428	464	-2488	111	-22	140	-1072	2776	16872	247	69	92	127	128	5
-11076	-2868	10736	-102	759	-114	-15064	-2960	-1672	63	-217	33	-1908	-1700	15808	212	-203	226	-9096	3468	13636	167	-21	-141	-16496	688	-2516	19	-22	109	-1204	2784	16928	229	49	67	127	129	5
-11168	-2792	10552	-54	298	-179	-14784	-2852	-1568	101	-31	-27	-1812	-1660	15704	139	-114	237	-9052	3548	13600	167	-38	-141	-16452	668	-2488	-73	-27	71	-696	2640	16604	152	98	64	127	128	5
-11124	-2748	10620	-62	-260	-256	-14896	-2896	-1552	-75	154	-129	-1824	-1796	15732	67	15	245	-9064	3540	13576	130	-32	-155	-16440	512	-2408	-147	-2	89	-1332	2720	16608	379	-114	236	127	127	5
-10860	-2828	10468	-31	-705	-295	-15048	-2964	-1564	-52	192	-107	-1876	-1764	15828	11	85	162	-9140	3480	13512	105	-36	-197	-16324	308	-2496	109	-9	128	-1328	2764	16724	184	-119	83	127	129	5
-11092	-2924	10916	20	-1026	-361	-15304	-3088	-1784	-51	325	-196	-1992	-1868	15980	-4	172	129	-9056	3476	13652	156	-41	-197	-16556	328	-2480	330	-22	134	-1096	2760	17012	129	-47	-29	127	129	5
-11268	-2792	10748	30	-1489	-417	-14768	-2972	-1780	-75	484	-281	-1868	-1716	15548	-13	293	200	-9100	3552	13520	183	-86	-115	-16468	588	-2324	412	18	133	-1004	2804	16884	114	14	-83	127	128	5
-11020	-2300	10656	-147	-2375	-551	-14556	-2712	-2040	-641	824	-464	-1572	-1588	16372	-144	301	228	-9028	3552	13464	172	-45	-161	-16404	724	-2300	127	44	165	-920	2740	16968	116	-2	-130	127	128	5
-10640	-3968	11792	304	-2127	-365	-17748	-2900	-1188	-1658	725	-452	-2564	-2120	17636	-186	79	196	-9020	3476	13568	170	-16	-146	-16468	684	-2368	-140	80	117	-896	2572	16840	194	21	-72	127	128	5
-10140	-2416	12108	251	-1348	-284	-17068	-3152	-1016	-647	383	-288	-2468	-1944	17364	-44	137	109	-9036	3544	13440	128	-41	-160	-16416	684	-2404	-295	56	114	-820	2968	16772	180	186	-71	127	128	5
-10304	-2876	11976	-1	-695	-423	-16868	-2604	-1760	-762	453	-83	-2152	-1816	17036	10	-137	181	-9024	3528	13608	141	-57	-175	-16484	612	-2256	-114	137	58	-980	2808	16500	317	8	131	126	128	5
-10388	-2988	11624	-100	-153	-384	-16040	-2680	-1444	-1114	214	-76	-2112	-1696	16572	-103	-280	340	-9140	3532	13460	119	-33	-144	-16332	520	-2424	35	153	78	-1032	2692	16796	379	-29	119	127	128	5
-10524	-3172	11332	-69	-159	-330	-15540	-3268	-1316	-769	249	-157	-1904	-1780	16196	-145	-54	478	-9004	3572	13560	97	-26	-185	-16516	512	-2604	182	140	27	-1024	2820	16824	503	116	-3	127	128	5
-10440	-3076	11380	-53	-177	-238	-15764	-3172	-1704	-192	259	-193	-2024	-2040	16424	-98	-9	307	-9084	3460	13516	90	-60	-201	-16452	620	-2568	372	73	17	-1144	3072	16752	481	77	3	127	128	5
-10484	-3020	11484	-20	-196	-210	-15944	-3112	-1480	118	159	-143	-2284	-1940	16536	36	134	187	-9056	3512	13620	93	-81	-178	-16464	804	-2644	226	43	-12	-1296	3208	16832	178	78	56	127	128	5
-10396	-2936	11540	-62	36	-208	-16008	-3096	-1676	293	156	-162	-2424	-1904	16432	-87	69	59	-9140	3532	13548	97	-119	-198	-16460	720	-2608	19	59	-76	-1432	3092	16776	11	77	141	127	128	5
-10488	-3016	11596	-116	165	-182	-16016	-2948	-1692	169	11	-165	-2432	-1892	16468	-185	-17	73	-9020	3496	13496	41	-94	-205	-16500	632	-2568	-169	34	-66	-1344	2816	16848	-127	92	187	127	129	5
-10504	-2972	11496	-121	243	-155	-15700	-2848	-1940	-92	-20	-189	-2232	-1828	16248	-176	-6	221	-9104	3580	13556	62	-81	-198	-16460	320	-2468	-174	35	-85	-1272	2620	16752	-57	84	121	127	128	5
-10572	-2980	11492	-65	172	-205	-15688	-2944	-1948	-282	-47	-169	-2232	-1928	16440	-163	28	301	-9056	3504	13472	60	-85	-152	-16456	348	-2544	-171	4	-44	-1392	2440	16816	-97	116	-15	127	129	5
-10512	-2900	11464	-93	138	-236	-15784	-3032	-1788	-389	-48	-156	-2268	-1984	16504	-157	71	242	-9152	3480	13492	89	-18	-192	-16460	156	-2528	338	-8	36	-1460	2264	16880	2	94	-140	127	128	5
-10556	-2904	11412	-103	164	-217	-15744	-3164	-1720	-301	-80	-149	-2256	-1972	16452	-180	73	88	-9028	3504	13612	130	-81	-179	-16436	152	-2472	409	34	155	-1452	2120	17004	32	44	-283	127	128	5
-10576	-3012	11436	-105	96	-222	-15740	-3140	-1804	-68	-46	-206	-2196	-1988	16464	-246	23	7	-9068	3484	13576	172	-68	-183	-16440	124	-2428	347	20	236	-1384	2132	16948	135	9	-371	127	127	5
-10512	-2952	11516	-98	123	-207	-15784	-3060	-1672	137	-32	-224	-2240	-1828	16348	-181	14	98	-9124	3468	13528	196	-35	-178	-16456	428	-2592	233	45	285	-1380	2316	16936	350	48	-353	127	127	5
-10488	-2900	11496	-104	121	-216	-15872	-2932	-1616	90	9	-179	-2272	-2036	16364	-112	-88	250	-9092	3540	13556	219	3	-137	-16452	544	-2620	-54	19	350	-1232	2616	16744	395	44	-298	127	127	5
-10552	-2988	11476	-155	123	-198	-15728	-3136	-1828	-102	-40	-137	-2284	-2004	16408	-70	-118	257	-9068	3556	13652	225	17	-130	-16464	532	-2576	-316	58	348	-1180	2636	16944	388	44	-177	127	127	5
-10652	-2856	11396	-109	70	-236	-15688	-3272	-1808	-25	-43	-134	-2208	-2172	16312	-79	-176	232	-9108	3436	13568	208	-73	-128	-16416	640	-2464	-280	56	386	-1076	2768	16696	439	37	-107	127	127	5
-10612	-3100	11588	-114	23	-175	-15800	-3384	-1800	-80	58	-94	-2196	-2332	16400	-131	-161	172	-9076	3532	13580	245	-27	-110	-16368	520	-2560	-152	67	363	-1020	2864	16832	433	43	-8	127	127	5
-10452	-2988	11472	-46	-16	-170	-15696	-3208	-1592	24	-16	-62	-2060	-2256	16412	51	-126	133	-9088	3520	13572	234	-16	-140	-16480	636	-2556	112	38	285	-1144	2976	16780	574	46	10	127	127	5
-10504	-3000	11484	-18	29	-209	-15876	-3100	-1732	-134	-13	-1	-2124	-2216	16300	149	-98	151	-9148	3520	13588	162	-39	-118	-16448	752	-2624	291	15	208	-1080	3068	16804	558	91	91	127	127	5
-10536	-3004	11476	-46	48	-176	-15728	-3104	-1720	-203	-17	5	-2116	-2100	16328	221	-120	193	-9072	3556	13444	189	-32	-127	-16444	884	-2672	324	-36	124	-1120	3364	16796	551	76	150	127	127	5
-10468	-3004	11464	-27	23	-152	-15796	-3092	-1592	-187	2	31	-2180	-2028	16404	227	-98	202	-9068	3552	13440	127	-49	-153	-16468	936	-2696	138	-23	75	-1100	3336	16664	291	76	251	127	127	5
-10508	-2988	11528	0	45	-185	-15804	-3128	-1716	-122	-8	64	-2112	-2000	16264	181	-124	171	-9084	3564	13588	143	-64	-156	-16416	880	-2568	-4	-11	3	-1140	3256	16740	151	41	245	127	128	5
-10464	-2936	11468	-16	52	-160	-15784	-3048	-1708	-18	-14	54	-2244	-1868	16344	173	-108	125	-8996	3556	13564	126	-99	-151	-16392	796	-2512	-107	-104	-35	-1188	3124	16760	30	45	297	127	128	5
-10464	-2912	11496	21	87	-171	-15760	-2924	-1740	42	-6	31	-2224	-1788	16420	130	-100	93	-9060	3476	13484	96	-83	-137	-16472	768	-2488	-135	-74	-95	-1248	2912	16636	-72	46	269	127	128	5
-10468	-2884	11588	-35	77	-180	-15772	-2860	-1800	-29	-37	7	-2248	-1660	16376	139	-91	73	-9140	3552	13524	69	-103	-187	-16500	488	-2612	-44	-111	-112	-1176	2752	16828	-65	94	253	127	128	5
-10444	-2952	11516	-65	122	-138	-15852	-2868	-1788	-6	-16	-18	-2232	-1632	16424	76	-116	92	-9068	3488	13576	87	-71	-201	-16484	492	-2476	131	-101	-99	-1180	2700	16744	-112	34	173	127	128	5
-10496	-2912	11504	-51	124	-181	-15736	-2872	-1800	10	-70	-97	-2200	-1584	16316	-66	-118	72	-9032	3524	13668	93	-132	-163	-16348	388	-2420	200	-71	-127	-1176	2612	16780	-105	30	108	127	128	5
-10468	-2920	11548	-99	156	-212	-15776	-2776	-1688	-11	-22	-186	-2188	-1580	16348	-183	-90	99	-9064	3532	13624	71	-75	-165	-16424	500	-2432	194	-31	-58	-1176	2600	16812	-149	28	31	127	128	5
-10464	-2956	11552	-113	172	-209	-15796	-2828	-1788	-70	-52	-225	-2212	-1572	16348	-309	-91	119	-9080	3504	13492	90	3	-199	-16456	372	-2464	68	-3	-24	-1140	2500	16824	-77	-27	-42	127	128	5
-10528	-2880	11480	-153	187	-241	-15804	-2852	-1824	-119	-49	-288	-2228	-1684	16428	-306	-83	141	-9084	3516	13588	103	-71	-152	-16416	392	-2552	-32	-31	23	-1192	2456	16732	-12	24	-49	127	128	5
-10472	-2960	11500	-162	221	-221	-15784	-2912	-1640	-157	-55	-267	-2256	-1828	16296	-357	-88	202	-9064	3500	13548	118	-67	-157	-16420	428	-2380	-35	-2	35	-1256	2500	16880	25	-12	-65	127	128	5
-10480	-2896	11580	-179	219	-229	-15752	-3076	-1820	-90	-79	-336	-2192	-1968	16452	-340	-89	211	-9116	3488	13492	103	-72	-162	-16392	352	-2504	-82	6	103	-1300	2480	16756	43	43	-107	127	128	5
-10520	-2944	11552	-138	221	-218	-15724	-3156	-1792	2	-39	-330	-2176	-2116	16432	-370	-62	289	-9052	3464	13540	138	-51	-151	-16316	472	-2668	68	-14	76	-1320	2700	16804	164	21	-44	127	127	5
-10516	-3000	11412	-169	195	-256	-15836	-3200	-1728	-59	-13	-366	-2168	-2204	16396	-321	-77	265	-9148	3608	13540	150	-108	-171	-16448	556	-2508	40	-33	56	-1196	2780	16868	118	36	1	127	127	5
-10508	-2980	11512	-182	181	-247	-15728	-3240	-1720	-22	-33	-214	-2156	-2368	16364	-270	-73	235	-9032	3508	13512	160	-80	-152	-16468	560	-2536	35	-8	84	-1176	2852	16820	107	31	41	127	127	5
-10492	-3040	11460	-143	179	-227	-15684	-3388	-1764	-2	-78	-205	-2160	-2448	16284	-194	-53	201	-9048	3588	13440	130	-76	-186	-16396	580	-2560	-4	-58	28	-1184	2916	16760	103	121	82	127	127	5
-10480	-3004	11416	-73	153	-215	-15700	-3360	-1788	34	-36	-175	-2148	-2460	16408	-173	-98	217	-9060	3520	13448	137	-103	-176	-16532	540	-2412	26	-56	11	-1256	2884	16720	41	84	113	127	127	5
-10548	-2976	11504	-70	148	-195	-15772	-3232	-1728	-66	-43	-80	-2160	-2488	16376	27	-46	103	-9060	3524	13568	104	-37	-175	-16436	560	-2444	40	-5	-48	-1168	2716	16812	58	116	129	127	127	5
-10568	-3028	11496	-23	135	-186	-15696	-3356	-1748	-69	-43	-16	-2156	-2376	16368	104	-58	91	-9064	3528	13636	113	-114	-167	-16444	488	-2452	23	-23	-34	-1300	2636	16824	74	98	173	127	127	5
-10464	-2976	11456	-42	135	-167	-15728	-3300	-1728	-96	-31	18	-2148	-2236	16404	164	-108	47	-9052	3532	13584	105	-74	-216	-16408	396	-2584	74	-90	-15	-1252	2540	16648	102	93	239	127	127	5
-10416	-3016	11484	-29	116	-184	-15684	-3188	-1700	-69	-20	73	-2224	-2136	16388	212	-117	42	-9040	3500	13552	112	-64	-184	-16408	332	-2416	149	-65	31	-1344	2444	16932	139	51	224	127	127	5
-10472	-2904	11520	-18	115	-146	-15764	-3116	-1836	16	-13	46	-2160	-1972	16328	206	-90	39	-9060	3528	13552	119	-109	-215	-16416	244	-2448	155	-33	78	-1304	2324	16856	227	20	172	127	127	5
-10448	-2988	11404	-41	110	-185	-15728	-3040	-1760	-9	-2	31	-2184	-1960	16260	204	-99	82	-9108	3484	13564	114	-56	-177	-16480	300	-2420	171	-24	121	-1288	2344	16772	301	21	90	127	127	5
-10508	-2944	11436	-54	103	-150	-15780	-2960	-1760	-27	-36	28	-2228	-1876	16332	175	-93	118	-9048	3492	13620	159	-45	-171	-16428	332	-2460	83	-17	165	-1252	2448	16848	292	-2	-35	127	127	5
-10528	-2916	11476	-74	152	-165	-15772	-2996	-1788	5	-24	14	-2220	-1892	16344	161	-91	216	-9060	3476	13500	187	-69	-140	-16412	264	-2500	39	-13	231	-1324	2432	16900	301	-38	-48	127	127	5
-10532	-2956	11456	-110	120	-189	-15728	-2940	-1780	74	-60	-8	-2184	-1856	16328	151	-108	195	-9012	3444	13492	205	-25	-168	-16420	424	-2540	38	-5	256	-1316	2544	16800	347	-48	-150	127	127	5
-10488	-2992	11488	-61	128	-193	-15684	-2996	-1760	69	-56	-24	-2236	-1924	16388	106	-95	218	-9148	3592	13636	152	-16	-150	-16364	492	-2552	-32	33	295	-1248	2724	16804	329	-49	-139	127	127	5
-10528	-2880	11524	-64	138	-171	-15752	-3136	-1676	102	-23	3	-2184	-2008	16372	72	-109	167	-9068	3436	13376	211	-11	-135	-16440	424	-2536	21	30	276	-1172	2732	16896	334	-46	-161	127	127	5
-10496	-2976	11436	-45	169	-161	-15732	-3104	-1736	71	-16	-19	-2216	-2000	16388	120	-112	165	-9108	3464	13500	221	-35	-117	-16508	520	-2404	57	-10	287	-1212	2840	16812	320	-64	-98	127	127	5
-10548	-2968	11520	-81	117	-200	-15764	-3140	-1724	30	-26	-24	-2184	-2024	16292	54	-118	135	-9060	3556	13492	151	-3	-167	-16420	584	-2488	72	-3	223	-1164	2884	16752	317	-38	-20	127	127	5
-10476	-2964	11548	-25	147	-196	-15748	-3084	-1764	15	-42	-63	-2232	-2064	16232	67	-116	132	-9084	3556	13520	133	-45	-134	-16376	660	-2656	133	2	172	-1144	2952	16860	271	-42	19	127	127	5
-10500	-2936	11464	-44	135	-184	-15748	-3124	-1864	53	-20	0	-2272	-2108	16360	61	-126	124	-9092	3500	13584	149	-52	-182	-16424	668	-2432	105	-10	140	-1036	2940	16824	234	-19	74	127	127	5
-10492	-2948	11432	-59	136	-182	-15752	-3104	-1820	-31	-44	-4	-2232	-2108	16448	94	-125	104	-9016	3472	13616	149	-48	-160	-16460	628	-2476	113	-6	108	-1036	2904	16868	205	21	106	127	127	5
-10536	-2984	11564	-71	131	-185	-15756	-3132	-1800	-107	-51	-6	-2228	-2000	16324	113	-137	80	-9104	3548	13548	106	-30	-171	-16412	588	-2424	74	-4	55	-1060	2812	16780	223	30	96	127	127	5
-10496	-2956	11460	-39	116	-171	-15712	-3024	-1768	-78	-39	-24	-2252	-1892	16356	77	-154	121	-8996	3460	13392	154	-85	-132	-16376	536	-2436	67	-30	99	-1156	2764	16748	198	5	69	127	127	5
-10516	-2916	11516	-81	123	-162	-15752	-3056	-1732	-41	-63	-37	-2188	-1880	16384	74	-141	102	-9128	3536	13548	125	-160	-147	-16536	524	-2604	79	-12	91	-1208	2832	16744	154	23	51	127	127	5
-10444	-2924	11500	-68	143	-187	-15724	-3064	-1760	37	-23	-55	-2160	-1792	16368	43	-150	87	-9068	3560	13612	139	-34	-154	-16412	460	-2516	75	12	43	-1216	2668	16820	105	-3	10	127	127	5
-10532	-2928	11564	-92	169	-202	-15872	-2844	-1740	28	-36	-72	-2100	-1748	16392	-46	-133	100	-9036	3512	13560	143	-107	-170	-16440	488	-2432	70	-35	88	-1232	2716	16772	20	-16	-75	127	127	5
-10504	-2892	11476	-96	193	-197	-15864	-2928	-1720	22	16	-125	-2176	-1824	16472	-74	-87	148	-9152	3628	13668	124	-99	-148	-16436	484	-2564	67	-12	61	-1188	2672	16924	54	-12	-76	127	127	5
-10520	-2972	11452	-87	182	-203	-15816	-2980	-1760	-50	-3	-140	-2200	-1888	16416	-116	-84	128	-9116	3460	13520	77	-45	-178	-16432	556	-2360	78	-17	88	-1216	2676	16744	102	15	-42	127	127	5
-10508	-2972	11440	-137	194	-221	-15716	-3088	-1792	-33	2	-150	-2152	-2008	16216	-92	-70	102	-9100	3524	13612	144	-73	-182	-16380	440	-2536	20	35	72	-1056	2640	16784	112	42	-60	126	126	5
-10524	-3028	11500	-127	175	-193	-15680	-3156	-1756	25	-13	-143	-2160	-2016	16428	-114	-42	141	-9056	3536	13696	120	-109	-164	-16412	508	-2340	47	41	77	-1096	2704	16748	108	35	-55	127	126	5
-10460	-3012	11508	-137	175	-222	-15768	-3136	-1656	57	8	-173	-2080	-1988	16396	-103	-101	146	-9068	3520	13460	111	-42	-155	-16480	608	-2384	-15	68	62	-1136	2564	16792	150	66	-15	126	126	5
-10456	-2960	11508	-127	169	-187	-15768	-3116	-1764	29	11	-93	-2216	-2112	16328	-110	-114	109	-9008	3452	13588	122	-78	-154	-16480	412	-2484	-1	43	72	-1164	2516	16800	187	3	15	126	127	5
-10480	-3008	11540	-134	153	-187	-15804	-3136	-1788	-21	30	-126	-2188	-2148	16344	-47	-155	155	-9108	3504	13532	135	-41	-158	-16432	404	-2620	86	48	113	-1204	2612	16856	280	29	-10	126	127	5
-10440	-2988	11472	-121	193	-211	-15736	-3152	-1712	-104	25	-102	-2188	-2160	16316	23	-108	197	-9044	3468	13596	145	-78	-155	-16420	436	-2592	220	41	117	-1248	2608	16820	245	8	29	126	127	5
-10380	-2868	11448	-63	172	-191	-15792	-3124	-1768	-54	-5	-73	-2240	-2280	16336	-33	-57	202	-9028	3592	13544	188	-69	-137	-16360	372	-2420	207	76	125	-1204	2508	16896	280	29	3	126	127	5
-10548	-3088	11496	-72	177	-211	-15732	-3208	-1868	-56	-30	-21	-2228	-2236	16296	71	-86	171	-9120	3532	13580	142	-14	-161	-16424	400	-2444	171	74	99	-1228	2568	16820	288	35	17	127	127	5
-10472	-2940	11560	-70	172	-203	-15764	-3272	-1704	22	29	21	-2248	-2232	16300	87	-95	181	-8988	3552	13580	139	-62	-167	-16532	444	-2596	-27	58	137	-1268	2532	16832	342	42	19	127	127	5
-10524	-3052	11528	-51	135	-177	-15728	-3200	-1812	63	46	29	-2268	-2180	16324	150	-81	197	-9056	3540	13400	146	-40	-164	-16480	340	-2588	-18	62	157	-1340	2588	16800	380	60	14	127	126	5
-10536	-2976	11468	-56	128	-157	-15728	-3148	-1816	183	-10	-3	-2268	-2092	16352	256	-114	166	-9052	3456	13548	157	-28	-126	-16456	468	-2644	25	25	187	-1332	2664	16776	354	74	9	127	127	5
-10480	-3012	11464	-50	142	-200	-15724	-3180	-1824	54	-42	57	-2216	-2120	16328	206	-23	125	-9060	3596	13520	180	-53	-162	-16424	384	-2572	81	25	213	-1292	2728	16844	326	89	-14	127	127	5
-10468	-3004	11596	-21	131	-130	-15840	-3140	-1800	16	-24	56	-2168	-2132	16312	215	-7	105	-9000	3556	13432	190	-9	-136	-16452	432	-2444	154	24	183	-1280	2816	16844	298	75	2	127	127	5
-10496	-3000	11476	-23	119	-172	-15772	-3132	-1764	-76	-22	70	-2208	-2048	16284	215	6	86	-9092	3452	13596	184	-7	-147	-16460	584	-2588	92	4	170	-1300	2788	16880	339	72	40	127	127	5
-10464	-2996	11500	23	122	-192	-15788	-3148	-1812	-51	-33	124	-2196	-2104	16340	226	3	13	-9060	3504	13512	176	-55	-152	-16440	620	-2580	65	6	166	-1248	2768	16776	329	70	66	127	127	5
-10436	-2916	11408	13	111	-150	-15768	-3156	-1716	64	-34	135	-2232	-2008	16256	252	-42	18	-9004	3516	13584	175	-67	-153	-16412	588	-2568	-33	12	146	-1220	2776	16748	290	31	60	127	127	5
-10496	-2892	11472	-16	128	-161	-15748	-3076	-1788	77	21	118	-2200	-1960	16316	241	-54	-48	-9096	3524	13568	186	-89	-161	-16488	528	-2516	82	-10	155	-1240	2832	16788	233	4	68	127	127	5
-10492	-2988	11400	-11	78	-149	-15744	-3016	-1712	48	-35	132	-2312	-1792	16388	248	-96	-65	-9068	3480	13660	155	-62	-126	-16412	556	-2604	109	36	129	-1216	2808	16800	268	-2	75	127	127	5
-10404	-2924	11536	-9	84	-167	-15768	-2856	-1852	11	-30	112	-2260	-1636	16376	181	-85	-12	-9080	3552	13584	153	-82	-154	-16448	476	-2588	128	14	100	-1152	2768	16860	292	11	30	127	127	5
-10492	-2976	11456	-77	123	-159	-15812	-2828	-1772	-15	-28	70	-2264	-1648	16488	82	-84	45	-9068	3552	13532	167	-39	-164	-16476	520	-2676	161	-9	108	-1164	2824	16888	266	72	-26	127	127	5
-10492	-2908	11496	-63	136	-152	-15780	-2844	-1800	-22	-25	-37	-2244	-1624	16388	16	-61	140	-9092	3520	13600	150	3	-152	-16404	456	-2576	151	-37	151	-1212	2792	16732	265	75	-30	127	127	5
-10492	-2940	11616	-111	153	-200	-15752	-2792	-1848	-65	-19	-83	-2252	-1592	16332	39	-42	173	-9120	3520	13580	158	-59	-189	-16408	516	-2652	91	-31	109	-1296	2768	16700	183	40	-41	127	127	5
-10500	-2904	11516	-96	191	-192	-15780	-2904	-1800	-29	-44	-61	-2352	-1784	16336	-7	-66	211	-9092	3476	13624	143	-108	-131	-16424	448	-2576	85	-43	128	-1320	2832	16748	126	43	-34	127	127	5
-10456	-2932	11528	-115	160	-187	-15776	-2972	-1824	10	-72	-119	-2380	-1796	16432	-48	-27	190	-9144	3488	13596	169	-76	-145	-16456	536	-2608	12	-66	122	-1268	2872	16740	120	31	-38	127	127	5
-10536	-2952	11460	-125	191	-216	-15768	-3012	-1912	99	-78	-157	-2324	-1864	16432	-57	-55	195	-9076	3528	13600	155	-68	-188	-16448	552	-2576	-20	-30	107	-1216	2844	16800	78	36	-10	127	127	5
-10472	-2972	11652	-108	180	-222	-15736	-3044	-1796	95	-81	-149	-2316	-1920	16344	-86	-61	186	-9000	3564	13564	147	-93	-180	-16408	576	-2548	24	-47	108	-1244	2780	16876	114	5	30	127	127	5
-10512	-2928	11608	-112	172	-207	-15756	-3012	-1712	44	-69	-167	-2272	-1936	16352	-109	-111	149	-9080	3488	13524	125	-97	-154	-16416	504	-2460	67	-33	72	-1232	2824	16840	101	0	15	127	127	5
-10540	-2960	11504	-97	160	-230	-15776	-3016	-1728	8	-55	-169	-2276	-2060	16456	-155	-144	169	-9088	3564	13536	89	-65	-183	-16488	556	-2580	146	-81	83	-1244	2784	16868	116	32	38	127	127	5
-10444	-2952	11540	-88	178	-221	-15700	-3084	-1760	-66	-90	-148	-2292	-2048	16324	-128	-156	152	-9052	3516	13524	109	-75	-180	-16416	524	-2532	134	-61	43	-1268	2836	16760	67	22	44	127	127	5
-10480	-2984	11568	-118	189	-170	-15772	-3160	-1764	-130	-76	-132	-2224	-2096	16304	-126	-174	137	-9076	3516	13556	118	-25	-187	-16504	484	-2564	96	-39	31	-1256	2784	16788	96	-51	77	127	127	5
-10496	-3004	11612	-97	178	-169	-15740	-3080	-1812	-148	-54	-108	-2248	-2016	16392	-90	-220	94	-9048	3528	13456	150	-81	-139	-16408	480	-2556	13	-75	30	-1284	2676	16800	100	7	81	127	127	5
-10496	-2936	11444	-82	172	-208	-15740	-3096	-1556	-23	-52	-101	-2260	-2020	16352	-47	-194	87	-9072	3428	13560	125	-47	-182	-16368	472	-2632	-3	-6	48	-1284	2652	16876	141	-10	46	127	127	5
-10468	-2964	11572	-91	180	-180	-15752	-3088	-1768	21	-67	-102	-2272	-2072	16276	-78	-181	103	-9108	3520	13576	123	-25	-190	-16384	364	-2532	68	-60	58	-1248	2544	16760	86	-1	14	127	127	5
-10516	-2900	11552	-117	186	-201	-15756	-3072	-1844	36	-79	-97	-2256	-2020	16364	-44	-179	132	-9064	3512	13516	155	-76	-141	-16424	380	-2512	75	-66	62	-1328	2624	16860	90	-25	4	127	127	5
-10524	-2968	11524	-80	191	-221	-15712	-3064	-1720	-3	-95	-108	-2228	-1988	16328	-14	-177	164	-9088	3496	13704	129	-95	-175	-16416	496	-2616	97	-47	110	-1308	2616	16748	135	-3	41	127	127	5
-10452	-2952	11552	-88	181	-209	-15704	-3184	-1720	22	-56	-85	-2228	-1976	16348	2	-157	156	-9016	3500	13600	129	-97	-176	-16464	392	-2584	3	-50	116	-1248	2568	16804	145	-45	28	127	127	5
-10476	-2984	11484	-79	144	-197	-15724	-3156	-1776	29	-110	-72	-2244	-2044	16348	-17	-146	142	-9056	3468	13564	143	-46	-158	-16432	412	-2516	66	-51	145	-1248	2628	16836	201	-14	38	127	127	5
-10460	-2992	11496	-85	168	-173	-15716	-3048	-1740	6	-98	-95	-2220	-2064	16472	-17	-146	123	-9084	3516	13552	148	-70	-204	-16432	404	-2516	63	-69	147	-1192	2712	16888	155	-23	22	127	127	5
-10500	-3004	11520	-64	172	-170	-15724	-3184	-1848	2	-79	-62	-2224	-2112	16320	72	-141	123	-9072	3500	13516	180	-59	-161	-16428	444	-2536	72	-55	134	-1244	2676	16864	166	-39	26	127	127	5
-10456	-2988	11644	-108	172	-195	-15776	-3088	-1748	-59	-72	-57	-2144	-2012	16384	36	-138	142	-9120	3584	13548	127	-98	-134	-16376	516	-2568	93	-40	130	-1252	2652	16944	213	-45	43	127	127	5
-10468	-2892	11500	-97	168	-180	-15720	-3116	-1728	-31	-62	-44	-2216	-2036	16396	25	-120	103	-9040	3512	13564	159	-66	-152	-16480	424	-2440	67	-52	159	-1224	2644	16716	261	-11	40	126	127	5
-10500	-2908	11556	-84	160	-207	-15756	-3072	-1824	-14	-79	-46	-2184	-1988	16264	62	-94	138	-9044	3480	13520	144	-59	-165	-16408	452	-2496	114	-35	163	-1160	2612	16924	235	-28	36	127	127	5
-10504	-2984	11552	-68	130	-208	-15764	-3048	-1772	7	-61	-33	-2184	-2056	16396	100	-82	164	-9008	3456	13560	144	-67	-142	-16388	484	-2456	140	-53	187	-1188	2664	16828	267	-20	1	127	127	5
-10556	-2968	11488	-66	163	-193	-15688	-3064	-1672	23	-39	-60	-2208	-2028	16348	97	-128	130	-9040	3476	13496	178	-42	-148	-16408	472	-2516	87	-35	196	-1124	2724	16912	244	7	1	126	128	5
-10492	-2952	11572	-82	151	-200	-15768	-3064	-1720	56	-37	-13	-2224	-2020	16328	134	-127	148	-9060	3588	13536	166	-6	-136	-16476	528	-2468	48	-17	196	-1128	2768	16756	206	3	-34	126	127	5
-10500	-2984	11524	-89	140	-166	-15808	-3032	-1656	18	-18	-23	-2164	-1952	16464	114	-160	128	-9092	3512	13552	149	-95	-147	-16456	640	-2372	6	19	161	-1052	2764	16688	243	29	-27	127	127	5
-10504	-2948	11380	-82	149	-195	-15820	-3088	-1776	-10	-35	-53	-2168	-1972	16404	86	-124	126	-9112	3532	13500	155	-39	-158	-16484	588	-2548	-15	6	157	-1204	2796	16804	225	-13	-18	127	127	5
-10488	-2972	11612	-92	146	-156	-15784	-3032	-1772	-4	-35	-46	-2140	-1960	16328	42	-97	137	-9000	3532	13572	154	-54	-202	-16468	500	-2500	38	9	167	-1120	2796	16760	221	38	33	127	127	5
-10540	-2984	11516	-108	180	-168	-15776	-3004	-1800	-24	1	-46	-2184	-1944	16352	19	-103	155	-9080	3504	13496	125	-47	-209	-16416	532	-2552	100	6	142	-1208	2788	16764	234	25	21	127	127	5
-10516	-2968	11536	-100	170	-199	-15796	-2976	-1772	-44	-35	-45	-2248	-1884	16388	74	-78	170	-9072	3496	13516	160	-27	-175	-16476	536	-2648	88	-26	144	-1244	2696	16796	202	31	-8	127	127	5
-10508	-2972	11476	-101	160	-181	-15680	-2996	-1812	-39	-42	-90	-2220	-1880	16464	40	-75	198	-9144	3492	13628	137	-47	-153	-16440	480	-2540	149	39	103	-1288	2796	16920	250	32	-30	127	127	5
-10480	-2948	11560	-83	183	-171	-15804	-3100	-1704	-14	-10	-62	-2248	-1940	16336	-11	-54	184	-9048	3564	13580	132	-8	-146	-16468	520	-2596	127	37	102	-1260	2788	16760	217	34	-16	127	127	5
-10460	-3020	11484	-90	174	-190	-15816	-3076	-1692	27	-15	-56	-2280	-1948	16396	-3	-77	201	-9132	3484	13608	144	-7	-161	-16440	552	-2452	42	4	71	-1284	2784	16736	190	6	-23	127	127	5
-10444	-2948	11464	-69	177	-182	-15764	-2988	-1696	80	-42	-103	-2244	-1940	16452	2	-55	173	-9096	3596	13600	114	-25	-191	-16468	516	-2608	5	-54	89	-1340	2836	16824	124	9	43	127	127	5
-10532	-2944	11548	-78	143	-194	-15764	-3052	-1732	-12	-38	-65	-2284	-1924	16304	-39	-81	157	-9120	3548	13524	139	-105	-145	-16472	600	-2588	-10	-83	90	-1288	2800	16832	138	47	71	127	127	5
-10496	-2960	11544	-81	157	-208	-15776	-3072	-1808	36	-63	-76	-2300	-2004	16384	-40	-123	157	-9036	3584	13476	120	-49	-164	-16420	476	-2572	46	-53	73	-1176	2728	16900	97	0	77	127	127	5
-10512	-2960	11468	-44	193	-214	-15780	-3120	-1864	24	-56	-98	-2224	-1992	16344	-33	-116	100	-9112	3488	13624	158	-69	-173	-16436	520	-2544	119	-16	74	-1220	2700	16796	136	5	53	127	127	5
-10524	-2980	11552	-108	150	-166	-15712	-3072	-1856	-5	-54	-83	-2224	-2036	16272	-44	-116	115	-9100	3556	13640	132	-39	-189	-16424	544	-2400	104	-34	59	-1208	2676	16840	112	25	48	127	127	5
-10504	-2968	11488	-92	161	-194	-15752	-3116	-1820	-30	-82	-67	-2236	-1980	16340	-92	-111	99	-9064	3560	13616	144	-44	-185	-16476	520	-2456	171	-29	93	-1208	2732	16908	133	19	44	127	127	5
-10524	-2956	11468	-80	139	-170	-15804	-3080	-1788	-33	-43	-87	-2224	-1988	16364	-29	-117	126	-9120	3540	13616	126	-54	-153	-16356	488	-2460	90	-37	79	-1240	2696	16796	140	13	42	127	127	5
-10500	-2972	11604	-77	154	-189	-15720	-3064	-1740	-54	-99	-92	-2164	-1920	16396	-1	-116	127	-9072	3528	13640	108	-50	-172	-16468	484	-2516	78	-4	52	-1288	2708	16768	136	2	60	127	127	5
-10456	-2880	11592	-106	185	-186	-15760	-3028	-1776	-59	-49	-45	-2184	-1996	16348	-10	-153	154	-9088	3568	13588	94	-70	-170	-16420	532	-2484	18	-63	77	-1216	2680	16792	111	14	99	127	127	5
-10484	-2988	11460	-120	154	-183	-15736	-3160	-1792	26	-19	-75	-2156	-1984	16388	-37	-125	159	-9064	3504	13512	108	-71	-190	-16424	456	-2572	-21	-20	68	-1204	2620	16844	145	21	55	127	127	5
-10484	-3012	11496	-106	148	-171	-15696	-3144	-1680	87	-46	-56	-2196	-2052	16364	-10	-134	138	-9164	3612	13540	96	-76	-213	-16504	336	-2632	52	0	102	-1232	2672	16788	176	17	30	127	127	5
-10512	-3008	11488	-80	142	-198	-15728	-3100	-1888	73	-10	-49	-2232	-2060	16320	-13	-109	130	-9068	3408	13608	105	-77	-188	-16420	400	-2460	86	-12	101	-1264	2600	16712	218	39	36	127	127	5
-10500	-2960	11484	-73	170	-187	-15752	-3048	-1800	-11	-24	-32	-2236	-2024	16376	25	-114	125	-9028	3544	13588	93	-78	-220	-16508	448	-2592	180	1	115	-1288	2580	16776	184	-5	-13	127	127	5
-10472	-2948	11436	-58	158	-215	-15728	-3116	-1744	3	-34	-44	-2276	-1928	16364	14	-100	129	-9004	3516	13576	129	-45	-197	-16444	480	-2428	124	-8	136	-1268	2580	16812	227	5	-16	127	127	5
-10488	-2936	11456	-92	139	-179	-15732	-3020	-1824	-57	-39	-63	-2216	-2016	16344	-9	-90	140	-9104	3544	13560	150	-15	-143	-16452	436	-2580	131	-41	115	-1188	2732	16700	143	-27	-18	127	127	5
-10504	-2936	11408	-75	176	-157	-15768	-3032	-1820	-97	-61	-33	-2224	-2052	16244	21	-88	151	-9088	3484	13616	137	-33	-126	-16400	448	-2572	66	24	140	-1312	2672	16768	182	9	-4	127	127	5
-10476	-2956	11484	-110	153	-196	-15744	-3076	-1800	-63	-30	-41	-2220	-2104	16324	43	-101	145	-9088	3512	13624	159	-48	-180	-16456	432	-2492	-51	-22	159	-1300	2608	16712	213	-7	23	127	127	5
-10508	-2956	11476	-59	135	-202	-15760	-3108	-1784	11	-49	-26	-2256	-2004	16332	52	-114	113	-9044	3496	13520	141	-20	-147	-16396	428	-2660	8	20	150	-1244	2608	16796	230	-4	5	127	127	5
-10544	-2972	11472	-82	141	-181	-15708	-3148	-1752	98	-52	-36	-2248	-2000	16288	56	-126	166	-9040	3516	13512	154	-72	-115	-16436	480	-2568	52	29	177	-1184	2700	16808	277	-25	32	127	127	5
-10452	-2920	11372	-77	149	-182	-15712	-3164	-1752	36	-35	-31	-2260	-2052	16324	67	-116	143	-9076	3440	13556	152	-46	-163	-16476	436	-2572	125	-7	157	-1260	2672	16812	291	6	4	127	127	5
-10504	-2932	11456	-67	140	-178	-15736	-3060	-1780	9	-72	-51	-2224	-1956	16224	55	-97	131	-9096	3516	13596	179	-66	-179	-16420	472	-2460	133	-1	163	-1252	2684	16704	254	-28	18	127	128	5
-10448	-2964	11516	-89	142	-210	-15728	-3012	-1832	-16	-60	-47	-2224	-1936	16488	63	-140	138	-9104	3560	13536	161	-37	-136	-16464	496	-2496	150	1	175	-1192	2732	16812	268	-29	19	127	127	5
-10576	-2948	11548	-90	149	-186	-15740	-3036	-1820	-53	-55	-59	-2200	-1960	16452	33	-94	170	-9028	3456	13640	153	-56	-135	-16492	540	-2464	78	-20	160	-1192	2780	16680	229	-36	13	127	128	5
-10480	-2964	11480	-113	143	-171	-15780	-3068	-1776	-48	-57	-55	-2204	-2024	16372	55	-121	151	-9064	3492	13584	161	-42	-151	-16460	576	-2452	29	-31	138	-1192	2784	16708	229	-22	4	127	127	5
-10484	-2960	11516	-108	166	-156	-15768	-3144	-1784	7	-43	-71	-2232	-2024	16336	49	-122	145	-9124	3516	13520	141	-77	-185	-16452	560	-2488	-16	-17	137	-1164	2808	16812	192	-41	34	127	127	5
-10500	-2992	11560	-61	137	-203	-15700	-3084	-1720	100	-37	-15	-2288	-2020	16436	25	-97	97	-9064	3552	13496	161	-48	-163	-16352	492	-2624	42	-53	118	-1232	2820	16816	186	9	37	127	128	5
-10540	-2916	11560	-61	159	-224	-15792	-3132	-1708	85	-75	-39	-2228	-2012	16400	72	-143	85	-9140	3536	13656	109	1	-191	-16428	480	-2556	63	-12	122	-1216	2768	16736	197	-4	51	127	127	5
-10560	-2988	11560	-83	134	-162	-15772	-2984	-1616	39	-30	-44	-2272	-1968	16412	84	-132	126	-9056	3496	13592	105	-53	-175	-16420	516	-2548	135	4	86	-1196	2800	16876	172	-10	43	127	128	5
-10520	-3040	11476	-72	130	-213	-15796	-3032	-1840	-32	-58	-49	-2184	-1916	16364	54	-122	114	-9020	3536	13596	129	-113	-150	-16448	452	-2548	132	-49	90	-1196	2728	16804	171	-23	43	127	127	5
-10448	-3000	11504	-105	143	-193	-15716	-3036	-1800	-96	-71	-84	-2280	-1924	16368	46	-120	125	-9004	3508	13568	157	-53	-121	-16476	380	-2596	165	1	129	-1184	2680	16792	193	8	-1	127	127	5
-10548	-2952	11464	-117	133	-198	-15788	-2992	-1840	-75	-51	-68	-2132	-1832	16376	3	-98	142	-9072	3464	13592	125	-41	-154	-16412	524	-2568	91	-22	111	-1188	2688	16840	189	18	12	127	128	5
-10504	-2968	11608	-88	169	-176	-15816	-3116	-1692	-62	-58	-33	-2204	-2008	16348	-9	-80	154	-9116	3528	13588	144	-53	-145	-16472	564	-2560	42	18	132	-1248	2804	16804	212	25	-14	127	127	5
-10520	-2976	11588	-89	180	-174	-15776	-3068	-1700	45	-61	-94	-2248	-2032	16384	16	-65	132	-9076	3496	13524	145	-33	-198	-16416	448	-2480	-56	7	121	-1204	2772	16704	184	21	-27	127	127	5
-10448	-2988	11536	-109	168	-184	-15732	-3116	-1712	153	-29	-79	-2156	-1944	16444	16	-108	122	-9132	3500	13468	175	-39	-162	-16404	476	-2432	-42	-22	113	-1236	2688	16776	154	21	-17	127	127	5
-10540	-2984	11492	-98	175	-191	-15772	-3060	-1748	100	-42	-102	-2264	-1952	16268	4	-89	134	-9044	3480	13620	120	-28	-172	-16440	480	-2508	42	45	131	-1160	2644	16740	158	-8	-29	127	127	5
-10484	-2888	11540	-110	176	-193	-15700	-2980	-1792	-7	-16	-72	-2164	-1960	16400	-19	-147	121	-9112	3480	13500	109	2	-161	-16460	448	-2472	125	11	124	-1192	2672	16856	186	7	-32	127	127	5
-10544	-2972	11540	-130	164	-172	-15668	-3064	-1756	-79	-47	-95	-2212	-2004	16352	-16	-134	118	-9104	3508	13492	139	-61	-152	-16476	412	-2516	97	24	115	-1200	2632	16744	203	13	-24	127	127	5
-10464	-2996	11512	-117	193	-175	-15776	-3072	-1744	-16	-39	-77	-2240	-2024	16304	-35	-147	118	-9076	3516	13600	115	-110	-177	-16444	404	-2560	117	21	137	-1224	2712	16760	216	1	-35	127	127	5
-10492	-2988	11504	-106	177	-218	-15772	-3048	-1704	-43	-19	-90	-2232	-2136	16384	79	-161	209	-9112	3576	13604	141	-33	-185	-16544	416	-2496	99	30	159	-1284	2628	16872	254	69	-59	127	127	5
-10504	-2968	11552	-62	188	-177	-15800	-3140	-1728	-50	-35	-23	-2140	-2020	16448	100	-122	189	-9028	3548	13532	180	-99	-175	-16480	440	-2580	111	33	108	-1284	2676	16776	273	-1	-80	127	127	5
-10488	-2972	11452	-81	190	-168	-15676	-3156	-1736	-31	-17	-60	-2212	-2028	16404	65	-76	192	-9072	3488	13460	155	15	-167	-16392	544	-2560	36	5	137	-1264	2720	16832	276	19	-20	127	127	5
-10540	-2988	11404	-34	133	-182	-15732	-3236	-1852	98	-6	-32	-2256	-2056	16244	127	-142	159	-9068	3476	13564	187	-53	-188	-16432	452	-2576	-24	0	168	-1344	2704	16788	309	24	-2	127	127	5
-10476	-2932	11572	-33	141	-205	-15792	-3140	-1800	120	-25	-36	-2420	-1976	16428	138	-139	169	-9060	3548	13548	166	-62	-145	-16444	432	-2636	48	-34	179	-1072	2628	16672	320	65	71	127	127	5
-10524	-2964	11636	-57	121	-177	-15752	-3048	-1900	122	-44	-31	-2520	-2212	16484	226	-208	223	-9052	3516	13496	170	-56	-152	-16476	436	-2696	114	-50	137	-1244	2640	16812	428	99	51	127	127	5
-10496	-3016	11468	-69	144	-195	-15732	-3132	-1732	-116	-98	10	-2300	-2072	16284	371	-223	330	-9036	3500	13544	186	-47	-149	-16432	440	-2620	163	-54	191	-1196	2752	16692	502	102	-46	127	128	5
-10436	-2896	11520	-56	111	-192	-15760	-3140	-1756	-146	-139	41	-2368	-2052	16376	400	-252	307	-9088	3440	13524	167	-42	-138	-16420	572	-2636	169	-13	174	-1152	2728	16772	422	82	25	127	127	5
-10456	-2996	11420	-48	116	-179	-15756	-3100	-1764	-46	-84	25	-2224	-1996	16364	481	-306	369	-9088	3500	13520	182	2	-154	-16400	560	-2552	57	-25	182	-1260	2712	16884	568	12	202	127	128	5
-10444	-3048	11464	-67	115	-180	-15748	-3080	-1652	15	-56	34	-1880	-1864	16388	327	-181	336	-9048	3488	13660	149	-32	-173	-16476	404	-2728	9	-16	167	-1372	3008	16840	877	175	3	127	128	5
-10500	-3020	11392	-71	104	-186	-15740	-3144	-1664	114	-77	20	-1728	-1732	16492	151	-49	101	-9068	3576	13592	146	-20	-104	-16472	456	-2504	83	-51	186	-1252	3136	16908	737	229	-156	127	128	5
-10500	-2956	11536	-46	119	-191	-15832	-3076	-1668	185	-79	44	-1732	-1572	16464	-186	244	-173	-9040	3584	13544	184	-55	-166	-16364	648	-2612	152	-51	135	-1228	2992	16908	769	332	-246	127	128	5
-10460	-2928	11628	-53	148	-170	-15764	-2956	-1728	144	-92	51	-2148	-1516	16196	-477	355	-414	-9040	3600	13608	146	-50	-150	-16380	748	-2480	14	-34	138	-916	2776	16836	1033	545	-29	127	128	5
-10492	-2960	11508	-64	113	-146	-15736	-2848	-1700	18	-102	4	-3076	-1160	16296	-831	192	-696	-9068	3540	13560	135	-5	-148	-16416	656	-2508	-94	-12	76	-1180	2736	16740	1238	551	173	126	129	5
-10484	-2944	11512	-65	164	-177	-15856	-2576	-1748	-209	-83	-107	-2460	-1404	16384	-687	157	-389	-9072	3524	13612	143	-78	-206	-16448	552	-2412	8	-37	67	-1264	2932	16716	1325	531	251	126	131	5
-10452	-2912	11616	-147	151	-191	-15872	-2500	-1748	-399	-98	-238	-2416	-1384	16380	-747	95	-185	-9032	3524	13428	124	-53	-142	-16440	476	-2476	103	-16	50	-1240	3128	16780	1170	502	195	125	133	5
-10492	-2876	11572	-149	249	-236	-15852	-2644	-1908	-399	-91	-333	-2352	-1468	16332	-805	34	5	-9084	3552	13540	173	-62	-141	-16464	504	-2576	260	34	47	-1316	3188	16700	1005	387	137	125	134	5
-10428	-2920	11392	-233	275	-266	-15764	-2900	-1836	-290	-115	-404	-2408	-1776	16332	-792	51	177	-9104	3504	13576	165	-50	-152	-16452	568	-2528	257	-42	26	-1252	3232	16668	848	342	-7	125	134	5
-10472	-3000	11528	-209	275	-244	-15748	-3028	-1796	-51	-101	-509	-2388	-1996	16456	-684	4	264	-9080	3532	13596	132	-39	-158	-16416	640	-2464	96	31	-29	-1332	3452	16608	541	423	-128	125	133	5
-10544	-3036	11604	-237	317	-249	-15812	-3100	-1780	140	-93	-472	-2640	-2220	16332	-463	-146	488	-9124	3492	13456	112	-96	-199	-16384	584	-2492	-103	-21	-1	-1784	3380	16552	-24	296	-151	125	133	5
-10396	-2924	11428	-245	314	-259	-15760	-3196	-1780	209	-68	-525	-2740	-2528	16356	-276	-309	716	-9124	3496	13504	112	-90	-196	-16500	496	-2684	-125	-28	-24	-1456	3288	16644	-110	261	-313	125	132	5
-10500	-3000	11500	-214	287	-240	-15732	-3316	-1640	9	-94	-446	-2496	-2672	16312	-19	-513	802	-9168	3528	13536	99	-58	-227	-16380	640	-2608	-98	-74	-37	-1772	3112	16648	-400	-63	69	126	132	5
-10556	-3116	11436	-183	265	-266	-15692	-3616	-1756	-1	-96	-327	-2148	-2808	16384	190	-576	734	-9084	3516	13484	117	-100	-190	-16440	504	-2624	-29	-81	-35	-1308	2640	17692	423	1280	902	127	131	5
-10556	-3056	11496	-137	234	-230	-15700	-3668	-1656	-65	-104	-245	-2012	-2876	16324	289	-536	550	-9080	3508	13556	84	-121	-177	-16404	308	-2528	62	-96	-39	-1008	2824	16832	167	17	281	127	130	5
-10536	-3076	11488	-86	155	-189	-15596	-3624	-1624	-64	-79	-94	-1964	-2784	16220	408	-529	374	-9068	3520	13572	84	-74	-144	-16448	192	-2548	286	-79	-13	-1388	2788	16664	381	76	167	128	130	5
-10512	-3088	11492	-47	118	-174	-15716	-3580	-1688	-73	-69	-17	-1904	-2576	16240	444	-472	238	-9080	3572	13480	145	-54	-193	-16484	360	-2300	359	-47	24	-1320	3016	16768	345	50	98	128	130	5
-10472	-3004	11588	-32	106	-145	-15652	-3436	-1660	-39	-44	82	-1924	-2476	16364	425	-357	114	-9100	3496	13664	126	-29	-155	-16444	344	-2452	197	-35	57	-1360	2964	16764	77	50	-42	128	129	5
-10556	-3024	11528	4	92	-131	-15676	-3348	-1760	-52	-30	184	-1916	-2220	16440	405	-261	-25	-9068	3456	13508	156	-15	-169	-16440	376	-2380	120	-2	135	-1312	2808	16828	47	51	-55	128	129	5
-10452	-3040	11520	9	87	-129	-15684	-3164	-1612	-58	-11	164	-1912	-1916	16316	364	-168	-22	-9108	3500	13508	161	-95	-138	-16404	404	-2412	-72	78	114	-1300	2712	16784	141	26	-116	128	129	5
-10400	-2996	11528	2	131	-138	-15776	-3040	-1656	10	-2	144	-1960	-1736	16380	223	-98	-64	-9044	3544	13536	137	-28	-177	-16476	192	-2408	-234	84	254	-1216	2652	16760	245	32	-165	128	129	5
-10484	-3028	11496	2	126	-137	-15784	-2888	-1576	19	41	88	-2020	-1664	16568	166	-82	27	-9036	3520	13620	159	-27	-172	-16532	272	-2516	-70	116	227	-1260	2872	16732	344	54	-157	128	129	5
-10504	-2932	11524	-55	105	-135	-15828	-2872	-1680	33	43	103	-2120	-1728	16392	78	-64	140	-9092	3580	13512	156	13	-191	-16468	264	-2476	-26	134	242	-1240	2932	16800	364	57	-145	127	129	5
-10452	-3012	11532	-62	200	-140	-15792	-2884	-1748	39	56	-1	-2268	-1692	16272	-10	-48	263	-8972	3580	13480	205	29	-160	-16476	448	-2580	109	183	182	-1372	3092	16680	486	71	-123	127	128	5
-10472	-2908	11544	-79	171	-162	-15748	-2944	-1880	28	67	-81	-2268	-1792	16352	-85	-33	330	-9000	3560	13484	193	15	-162	-16444	532	-2808	97	134	218	-1440	3140	16764	633	93	-14	127	128	5
-10480	-3016	11508	-140	218	-184	-15748	-2996	-1876	-1	17	-126	-2336	-1992	16340	-62	-7	356	-9092	3532	13584	169	-92	-160	-16404	660	-2676	138	105	157	-1516	3376	16644	556	94	97	127	128	5
-10564	-3000	11444	-104	200	-193	-15744	-3128	-1908	-20	-13	-130	-2352	-2076	16352	-52	20	331	-9028	3508	13520	163	-52	-139	-16452	644	-2736	33	37	116	-1600	3444	16696	397	56	126	127	129	5
-10512	-3040	11444	-115	199	-193	-15780	-3240	-1876	-38	-23	-109	-2376	-2096	16348	39	11	327	-9140	3604	13552	139	-83	-146	-16504	640	-2704	-25	71	67	-1652	3516	16684	222	8	170	127	129	5
-10568	-2944	11540	-106	186	-180	-15736	-3208	-1836	55	-44	-118	-2328	-2092	16412	9	3	271	-9108	3588	13544	157	-58	-186	-16436	484	-2824	-84	8	85	-1624	3356	16608	111	24	119	127	129	5
-10504	-3008	11456	-87	164	-187	-15768	-3220	-1940	90	-55	-83	-2384	-2140	16280	77	-36	233	-9080	3556	13596	139	-37	-167	-16500	460	-2712	12	-20	61	-1660	3272	16740	23	27	63	127	129	5
-10496	-2936	11476	-113	199	-208	-15800	-3108	-1892	-18	-111	-68	-2412	-2008	16296	88	-13	148	-9108	3560	13524	132	-31	-205	-16396	316	-2700	72	-115	107	-1656	3184	16704	54	6	-24	127	129	5
-10484	-2992	11488	-78	156	-206	-15744	-3084	-1772	-123	-92	-31	-2276	-1892	16248	-16	-47	63	-9112	3544	13504	135	-70	-166	-16388	372	-2632	174	-87	76	-1632	3080	16744	35	-46	-22	127	129	5
-10468	-3052	11456	-118	140	-213	-15748	-3124	-1776	-75	-128	-64	-2300	-1868	16424	-107	-92	-24	-9072	3484	13568	110	-40	-167	-16400	344	-2396	167	-150	128	-1520	2948	16852	40	-106	-38	127	128	5
-10444	-3004	11564	-114	192	-162	-15748	-3056	-1808	60	-117	-99	-2264	-1828	16372	-168	-124	-55	-9044	3492	13596	137	-82	-142	-16396	348	-2444	118	-124	134	-1340	2920	16720	82	-85	-26	127	128	5
-10532	-2972	11480	-124	157	-215	-15724	-3040	-1680	68	-104	-120	-2244	-1832	16440	-177	-152	33	-9060	3560	13580	161	-22	-161	-16456	400	-2324	109	-80	147	-1224	2884	16832	138	-54	-85	127	128	5
-10508	-2908	11524	-115	190	-210	-15784	-2948	-1752	-24	-51	-178	-2244	-1916	16372	-205	-154	108	-9032	3476	13584	140	-73	-123	-16404	484	-2384	70	-50	209	-1136	2864	16784	197	-63	-91	127	128	5
-10484	-2988	11516	-162	206	-241	-15732	-3112	-1716	-60	-128	-151	-2172	-1932	16328	-243	-158	141	-9092	3472	13508	178	-19	-181	-16376	464	-2372	36	-36	143	-1260	2908	16780	258	-16	-39	127	128	5
-10528	-2964	11544	-131	212	-223	-15736	-3148	-1764	-19	-86	-196	-2160	-2068	16300	-256	-151	150	-9096	3540	13600	193	-52	-148	-16412	540	-2496	-5	12	168	-1296	3008	16708	306	22	7	127	128	5
-10520	-3004	11444	-157	204	-239	-15784	-3200	-1768	25	-92	-194	-2048	-2176	16288	-212	-158	183	-9068	3484	13540	159	-44	-175	-16456	492	-2540	29	46	153	-1304	3048	16756	365	45	37	127	128	5
-10512	-3100	11488	-94	173	-180	-15660	-3100	-1636	2	-81	-272	-2040	-2100	16392	-184	-113	214	-9100	3540	13524	155	-24	-195	-16404	468	-2512	81	26	170	-1392	3108	16708	371	50	37	127	128	5
-10488	-3000	11616	-136	197	-178	-15776	-3276	-1724	-14	-25	-169	-2100	-2284	16388	-168	-104	232	-9088	3512	13524	153	-40	-134	-16424	468	-2484	76	16	162	-1384	3148	16716	323	-11	47	127	128	5
-10488	-3008	11532	-106	194	-218	-15712	-3344	-1764	-81	-52	-175	-2116	-2392	16224	-80	-62	252	-9092	3528	13656	163	-48	-156	-16472	488	-2632	115	42	139	-1480	3200	16864	303	17	-8	126	128	5
-10616	-3008	11412	-97	180	-195	-15676	-3412	-1900	-103	-40	-130	-2152	-2480	16360	-36	-47	235	-9208	3516	13576	152	-26	-133	-16456	524	-2512	139	-16	138	-1456	3344	16656	283	22	4	127	128	5
-10496	-3032	11520	-39	173	-167	-15676	-3480	-1696	-98	-58	-42	-2184	-2572	16344	47	-58	163	-9048	3528	13468	126	-22	-144	-16420	680	-2584	55	-26	88	-1380	3300	16712	185	5	31	126	128	5
-10496	-3092	11328	-59	107	-165	-15732	-3464	-1700	38	-45	23	-2252	-2404	16372	133	-66	119	-9068	3524	13592	127	-31	-142	-16420	624	-2696	-81	-50	64	-1480	3260	16736	68	18	85	127	128	5
-10512	-3036	11492	-52	108	-156	-15688	-3316	-1736	112	-8	4	-2168	-2204	16392	204	-61	84	-9168	3448	13544	119	-70	-187	-16412	368	-2600	-96	-49	78	-1540	3152	16676	78	48	138	127	128	5
-10480	-2968	11472	-26	109	-153	-15776	-3196	-1904	77	-17	98	-2172	-2180	16396	186	-24	143	-9152	3444	13528	130	-76	-155	-16480	236	-2560	76	-47	61	-1464	3024	16636	56	59	102	127	128	5
-10524	-2960	11504	-49	113	-157	-15720	-3136	-1908	-40	-41	70	-2192	-2168	16504	274	0	166	-9032	3460	13640	116	-59	-169	-16420	332	-2520	225	-97	117	-1348	2848	16828	50	33	90	127	128	5
-10500	-2992	11388	-39	94	-155	-15736	-3112	-1636	-137	-50	66	-2248	-2076	16444	288	18	208	-9032	3600	13464	153	-2	-195	-16372	400	-2380	266	-63	108	-1296	2792	16780	174	15	13	127	127	5
-10488	-3020	11548	-21	127	-177	-15776	-3120	-1604	-71	-15	114	-2284	-2116	16356	347	34	250	-9032	3516	13548	145	-51	-144	-16400	424	-2504	192	12	126	-1264	2820	16760	270	36	14	127	128	5
-10524	-3016	11456	-64	142	-184	-15704	-3128	-1776	13	-42	67	-2220	-2016	16360	373	3	261	-9012	3536	13524	166	-13	-136	-16388	452	-2388	54	64	179	-1296	2848	16796	395	54	-37	128	128	5
-10504	-2944	11488	-59	134	-200	-15780	-3172	-1684	155	6	93	-2324	-1924	16288	369	3	227	-9084	3484	13580	181	-62	-169	-16460	384	-2452	9	76	217	-1300	2996	16764	473	89	-103	128	128	5
-10504	-2920	11468	-56	173	-206	-15768	-3124	-1804	167	18	67	-2260	-1916	16324	387	-39	224	-9072	3548	13504	181	-53	-120	-16468	484	-2440	0	114	246	-1500	3208	16732	438	48	-145	128	128	5
-10492	-3000	11544	-10	130	-168	-15748	-3088	-1716	58	63	91	-2288	-1876	16316	366	-88	166	-9100	3496	13592	155	-18	-177	-16500	596	-2560	-66	125	213	-1408	3312	16688	288	40	-101	128	128	5
-10484	-3000	11524	-39	132	-197	-15756	-3088	-1684	49	30	13	-2312	-1804	16316	254	-164	63	-9104	3508	13456	191	-30	-163	-16432	560	-2564	-54	84	202	-1432	3300	16592	265	29	-139	128	128	5
-10588	-2956	11548	-64	176	-181	-15732	-3068	-1712	81	46	33	-2352	-1792	16404	136	-174	9	-9092	3608	13496	164	7	-166	-16432	532	-2664	-14	80	191	-1436	3228	16672	278	22	-105	127	128	5
-10488	-2940	11520	-54	129	-166	-15752	-2976	-1952	41	-19	10	-2356	-1668	16292	19	-201	-36	-9092	3620	13460	161	-12	-184	-16496	548	-2732	119	30	129	-1548	3392	16660	302	20	-116	128	128	5
-10484	-2860	11540	-65	179	-179	-15752	-2832	-2016	-76	-23	-60	-2392	-1600	16288	-88	-186	-29	-9040	3572	13492	116	-48	-170	-16408	616	-2708	257	-6	104	-1564	3420	16644	247	-65	-47	127	128	5
-10536	-2920	11404	-76	158	-174	-15780	-2828	-1948	-254	-83	-123	-2448	-1604	16380	-198	-184	-4	-9128	3568	13488	112	-33	-156	-16452	684	-2776	199	-93	89	-1628	3408	16624	142	-49	40	127	127	5
-10468	-2968	11516	-135	158	-231	-15728	-2900	-1904	-218	-85	-190	-2428	-1600	16332	-282	-155	95	-9124	3488	13536	117	-47	-193	-16424	560	-2620	80	-72	50	-1688	3272	16708	52	-19	153	127	127	5
-10556	-2920	11436	-135	211	-241	-15792	-3020	-1820	-18	-102	-194	-2416	-1844	16328	-314	-86	150	-9176	3568	13516	89	-45	-156	-16456	332	-2680	-18	-114	68	-1632	3100	16656	37	15	104	127	128	5
-10528	-2884	11548	-146	217	-236	-15800	-3048	-1852	77	-158	-286	-2396	-2032	16348	-302	-33	272	-9084	3488	13560	140	-90	-164	-16408	264	-2700	80	-184	90	-1464	2952	16664	53	12	51	127	127	5
-10540	-2936	11456	-165	212	-259	-15756	-3064	-1920	103	-160	-271	-2368	-2224	16432	-147	16	320	-9128	3540	13536	131	-128	-166	-16428	400	-2416	195	-206	141	-1468	2960	16756	118	10	-13	127	127	5
-10476	-3000	11496	-181	201	-266	-15732	-3252	-1572	63	-181	-288	-2272	-2200	16392	-158	-6	344	-9108	3564	13608	114	-62	-163	-16392	568	-2344	138	-115	139	-1284	2956	16760	175	7	27	127	127	5
-10512	-3036	11400	-170	172	-262	-15792	-3336	-1512	51	-158	-217	-2068	-2300	16308	-84	-67	285	-9064	3584	13628	157	-112	-155	-16420	548	-2408	-36	-22	113	-1176	2932	16896	237	-31	46	127	127	5
-10516	-3032	11436	-118	192	-192	-15652	-3348	-1600	168	-69	-176	-2064	-2428	16420	-117	-122	201	-9116	3568	13540	144	-41	-156	-16392	408	-2456	-115	-28	147	-1116	2996	16700	255	-33	66	127	127	5
-10532	-3008	11396	-122	167	-184	-15632	-3308	-1656	15	-58	-126	-2156	-2368	16388	-63	-171	133	-9056	3460	13520	195	-79	-198	-16452	468	-2452	13	-11	155	-1148	3024	16604	294	55	1	127	127	5
-10544	-2992	11424	-96	132	-160	-15680	-3248	-1724	-204	-72	-77	-2164	-2320	16208	39	-213	85	-9092	3508	13592	149	0	-176	-16440	452	-2456	148	60	154	-1364	3080	16692	282	50	-65	127	127	5
-10464	-3036	11488	-83	157	-194	-15748	-3276	-1652	-299	-32	-24	-2148	-2324	16360	7	-215	93	-9104	3536	13560	192	-71	-152	-16444	552	-2492	147	41	165	-1420	3140	16720	319	41	-47	127	127	5
-10468	-2980	11496	-72	121	-104	-15680	-3320	-1592	-163	4	8	-2076	-2184	16460	-2	-278	-46	-9060	3504	13556	175	-37	-156	-16456	556	-2548	113	48	121	-1448	3076	16764	292	2	17	127	127	5
-10508	-2952	11568	26	176	-156	-15724	-3280	-1640	41	69	-4	-2136	-2256	16496	39	-228	11	-9072	3492	13604	167	-15	-184	-16436	460	-2596	76	38	140	-1396	3176	16812	304	17	-24	126	127	5
-10576	-2952	11540	-63	178	-172	-15760	-3180	-1792	97	53	55	-2168	-2228	16308	164	-154	112	-9104	3508	13544	162	-24	-159	-16416	540	-2536	92	65	127	-1416	3180	16752	302	87	-29	127	127	5
-10504	-2980	11552	-41	165	-157	-15768	-3116	-1768	74	55	59	-2172	-2148	16356	292	-83	149	-9120	3480	13524	178	-41	-214	-16480	500	-2452	39	56	128	-1468	3216	16664	263	7	-83	126	127	5
-10508	-2992	11480	-83	183	-172	-15728	-3168	-1892	73	28	21	-2280	-2040	16320	311	-36	192	-9160	3516	13688	133	-72	-168	-16404	592	-2576	29	28	167	-1480	3312	16612	266	45	-36	127	127	5
-10576	-2980	11396	-47	146	-191	-15752	-3200	-1920	119	19	50	-2388	-2012	16392	282	-31	212	-9116	3576	13604	147	-44	-142	-16460	596	-2708	-36	3	132	-1468	3224	16736	216	46	-25	126	128	5
-10532	-3008	11528	-48	131	-172	-15780	-3096	-1764	87	-18	26	-2368	-1988	16380	266	-9	208	-9080	3560	13492	149	-31	-143	-16368	500	-2672	36	-28	123	-1444	3288	16680	198	35	27	127	128	5
-10524	-3020	11508	-59	153	-199	-15712	-2972	-1828	-23	-34	7	-2348	-1924	16384	253	-53	214	-8972	3464	13456	160	-35	-137	-16436	472	-2712	101	-12	122	-1528	3284	16688	157	55	39	127	128	5
-10536	-2960	11428	-76	163	-197	-15736	-2984	-1772	-109	-31	-26	-2332	-1820	16360	223	-119	213	-9172	3528	13552	134	-52	-150	-16464	536	-2508	115	-42	144	-1464	3160	16584	174	27	24	127	128	5
-10528	-3004	11380	-41	156	-175	-15788	-3060	-1752	-146	-57	-25	-2344	-1772	16468	140	-204	169	-9052	3484	13600	145	-75	-141	-16480	576	-2512	95	-14	108	-1484	3164	16816	219	47	41	127	127	5
-10484	-2960	11456	-66	164	-199	-15768	-3084	-1676	-22	-58	-49	-2308	-1820	16396	97	-237	123	-9068	3508	13520	127	-85	-176	-16416	492	-2648	56	-28	125	-1456	3192	16656	202	-3	39	127	127	5
-10444	-2996	11468	-84	165	-190	-15720	-3084	-1832	117	-31	-77	-2264	-1772	16288	-3	-270	80	-9144	3548	13460	122	-46	-158	-16400	424	-2572	68	-24	95	-1440	3180	16800	196	-25	26	127	128	5
-10520	-2944	11568	-85	157	-206	-15744	-3048	-1864	140	2	-84	-2200	-1736	16388	-75	-186	14	-9116	3488	13536	114	-44	-176	-16452	516	-2560	87	-49	108	-1524	3228	16808	119	-8	21	127	127	5
-10588	-2984	11424	-91	150	-195	-15784	-2968	-1792	78	-39	-118	-2156	-1832	16392	-171	-145	22	-9036	3544	13560	108	-18	-190	-16412	392	-2624	85	-25	121	-1436	3084	16680	23	-18	-17	127	128	5
-10448	-2944	11524	-122	197	-215	-15756	-2968	-1840	-72	-41	-166	-2232	-1776	16468	-210	-65	48	-9116	3524	13584	134	10	-195	-16388	496	-2452	141	-32	98	-1364	3088	16736	91	15	-16	127	127	5
-10456	-2952	11460	-111	203	-218	-15708	-3048	-1796	-150	-94	-178	-2280	-1924	16336	-301	-52	124	-9040	3544	13568	128	-44	-172	-16452	464	-2384	106	-51	116	-1308	2992	16844	94	32	-6	127	127	5
-10516	-3004	11456	-161	214	-225	-15800	-3108	-1772	-166	-122	-200	-2296	-2084	16392	-264	-24	163	-9148	3508	13572	117	-59	-127	-16388	448	-2464	55	-24	136	-1388	2960	16736	226	7	60	127	127	5
-10464	-3016	11448	-184	190	-243	-15736	-3252	-1708	-70	-103	-217	-2244	-2248	16328	-258	-37	219	-9088	3580	13500	142	-29	-173	-16420	480	-2692	17	-31	128	-1508	3036	16740	310	31	75	127	127	5
-10560	-3028	11540	-131	215	-236	-15756	-3352	-1732	6	-106	-206	-2244	-2364	16452	-139	-59	244	-9136	3528	13612	129	-70	-163	-16388	404	-2572	-6	-27	157	-1536	3124	16716	326	-19	105	127	127	5
-10496	-3048	11428	-133	188	-199	-15648	-3460	-1740	117	-63	-128	-2272	-2484	16300	-23	-87	164	-9140	3512	13548	154	-31	-158	-16412	444	-2684	-20	-18	148	-1580	3000	16692	282	-38	37	127	127	5
-10528	-3060	11408	-86	149	-199	-15756	-3436	-1796	213	-65	-51	-2256	-2428	16288	67	-120	104	-9144	3528	13556	161	0	-181	-16428	328	-2616	140	-24	174	-1520	3036	16672	254	-50	-6	127	127	5
-10528	-3000	11484	-28	147	-180	-15748	-3312	-1788	180	-46	3	-2292	-2436	16444	194	-134	72	-9116	3452	13640	161	-36	-141	-16436	376	-2520	214	-70	218	-1496	3040	16696	263	-49	-112	127	127	5
-10540	-3004	11436	-27	106	-177	-15720	-3232	-1796	-4	-105	48	-2244	-2296	16284	246	-143	105	-9080	3488	13528	202	-39	-148	-16412	504	-2572	177	-74	279	-1388	3028	16812	256	-44	-111	127	127	5
-10532	-2928	11464	-31	67	-187	-15732	-3224	-1808	-163	-78	108	-2212	-2344	16352	262	-167	84	-9088	3512	13520	174	-21	-134	-16388	528	-2416	91	-45	226	-1276	3140	16704	347	-17	-65	127	127	5
-10568	-3000	11476	-54	135	-120	-15752	-3288	-1808	-154	-107	103	-2248	-2192	16420	354	-177	127	-9096	3544	13612	201	-30	-176	-16416	640	-2472	-9	-17	260	-1224	3140	16780	277	-10	4	127	127	5
-10484	-2940	11384	-4	99	-177	-15676	-3224	-1668	-34	-64	129	-2204	-2180	16392	429	-143	130	-9108	3496	13484	159	-45	-135	-16408	548	-2460	5	11	267	-1156	3128	16788	342	12	-18	127	128	5
-10528	-2976	11524	-20	89	-122	-15804	-3184	-1668	101	-82	135	-2220	-1952	16380	438	-190	102	-9052	3588	13520	179	-7	-144	-16472	540	-2428	44	55	211	-1160	3180	16732	428	11	-16	127	128	5
-10536	-2952	11532	-40	102	-141	-15776	-3004	-1684	156	-37	76	-2192	-1820	16536	398	-221	82	-9056	3568	13564	168	-45	-163	-16412	616	-2440	88	72	243	-1232	3272	16740	413	48	-12	127	127	5
-10556	-2952	11568	-13	96	-170	-15756	-2928	-1648	38	-2	79	-2048	-1580	16380	292	-275	99	-9108	3576	13504	172	-11	-154	-16448	708	-2520	122	104	159	-1308	3484	16560	408	41	-54	127	128	5
-10472	-2964	11516	-56	146	-133	-15756	-2880	-1612	44	14	15	-2056	-1468	16400	125	-298	123	-9164	3492	13572	146	-56	-151	-16416	664	-2588	111	91	119	-1388	3620	16620	246	35	-62	127	128	5
-10472	-2928	11572	-74	157	-166	-15808	-2864	-1736	-39	35	-69	-2076	-1532	16344	3	-222	172	-9012	3532	13512	134	-56	-175	-16416	724	-2524	71	74	101	-1424	3532	16660	131	0	-21	127	128	5
-10416	-2892	11572	-102	215	-199	-15780	-2896	-1860	-131	7	-102	-2080	-1600	16412	-159	-125	128	-9116	3560	13528	100	-76	-188	-16428	760	-2692	37	-18	64	-1484	3516	16672	63	42	29	127	128	5
-10484	-2944	11488	-72	202	-202	-15760	-2996	-1860	-166	5	-116	-2160	-1748	16264	-260	-52	109	-9072	3548	13516	118	-73	-157	-16408	684	-2632	-33	-4	2	-1492	3460	16508	50	30	50	127	127	5
-10524	-2940	11456	-115	188	-228	-15780	-3060	-1840	-56	-33	-177	-2212	-1844	16364	-259	-7	163	-9092	3528	13452	98	-94	-181	-16436	540	-2644	-7	-40	30	-1516	3308	16588	17	29	118	127	128	5
-10484	-2968	11504	-86	199	-220	-15724	-3108	-1896	53	-54	-204	-2236	-1992	16356	-260	110	147	-9128	3520	13548	95	-99	-156	-16476	424	-2668	82	-83	-40	-1564	3196	16724	26	52	168	127	128	5
-10520	-3024	11496	-140	181	-216	-15808	-3108	-1768	88	-71	-185	-2228	-2052	16424	-209	122	142	-9120	3504	13536	87	-56	-171	-16456	448	-2620	160	-103	-28	-1460	3084	16704	8	56	154	127	128	5
-10532	-3044	11452	-118	190	-247	-15732	-3200	-1816	85	-63	-172	-2348	-2240	16356	-219	153	184	-9060	3616	13548	107	-96	-170	-16448	412	-2468	198	-74	-19	-1440	3016	16808	31	42	119	127	128	5
-10576	-3016	11472	-145	169	-220	-15732	-3260	-1816	28	-82	-171	-2336	-2268	16324	-146	114	150	-9088	3460	13620	126	-132	-178	-16400	332	-2444	118	-107	49	-1476	2960	16768	35	53	111	127	128	5
-10516	-3036	11400	-88	193	-232	-15716	-3304	-1628	-6	-110	-176	-2384	-2180	16428	-77	11	190	-9080	3500	13616	100	-82	-127	-16424	360	-2428	62	-41	47	-1352	2924	16776	80	26	42	127	128	5
-10444	-2960	11528	-97	159	-200	-15696	-3296	-1780	-115	-69	-149	-2352	-2336	16324	-24	-97	203	-9040	3548	13532	135	-57	-123	-16392	360	-2468	-15	-54	98	-1304	2864	16796	100	35	22	127	128	5
-10564	-2956	11456	-108	176	-201	-15744	-3296	-1652	-139	-43	-100	-2324	-2268	16464	103	-178	231	-9064	3568	13464	128	-28	-183	-16444	424	-2448	-55	-15	154	-1328	2932	16764	214	4	4	127	127	5
-10496	-2964	11448	-95	156	-161	-15700	-3348	-1756	-59	-36	-75	-2304	-2272	16308	117	-214	225	-9044	3512	13544	168	-8	-180	-16428	420	-2396	-58	-5	172	-1348	3008	16688	262	10	-57	127	128	5
-10564	-3044	11548	-68	173	-172	-15760	-3352	-1684	-36	-15	-8	-2248	-2240	16236	193	-268	127	-9076	3580	13576	164	-49	-155	-16448	492	-2576	14	-8	168	-1468	3036	16808	282	36	-30	127	128	5
-10532	-2916	11428	-60	145	-149	-15748	-3260	-1656	106	-44	29	-2288	-2088	16252	214	-284	100	-9088	3536	13652	192	-44	-168	-16384	428	-2700	92	53	191	-1396	3112	16680	330	-8	-57	127	128	5
-10472	-2992	11592	-26	126	-171	-15716	-3140	-1788	82	-30	37	-2228	-2012	16308	200	-300	69	-9052	3492	13580	148	-13	-189	-16420	548	-2572	159	-10	199	-1460	3236	16708	332	-10	-73	127	128	5
-10468	-2988	11480	-35	160	-178	-15764	-3060	-1848	57	-35	16	-2248	-1932	16408	161	-254	81	-9064	3560	13552	151	-49	-178	-16404	616	-2540	120	18	168	-1500	3344	16680	310	-10	-29	127	128	5
-10524	-2992	11476	-80	140	-149	-15748	-3000	-1784	-46	-78	2	-2272	-1916	16320	115	-206	50	-9112	3572	13504	173	-61	-167	-16408	596	-2700	42	-53	160	-1448	3276	16700	254	3	11	126	128	5
-10596	-3004	11552	-78	136	-199	-15692	-2992	-1796	-81	-83	-27	-2320	-1824	16312	57	-192	76	-9128	3556	13624	149	-27	-173	-16468	660	-2704	20	-1	146	-1444	3312	16732	202	10	41	127	126	5
-10424	-2956	11548	-70	138	-189	-15744	-2980	-1832	-94	-112	-70	-2352	-1788	16244	22	-199	115	-9124	3532	13436	126	-41	-150	-16420	548	-2696	26	-89	128	-1448	3288	16696	213	-8	48	126	126	5
-10536	-2988	11476	-98	152	-193	-15740	-3084	-1828	-98	-113	-83	-2260	-1828	16300	3	-180	108	-9020	3560	13440	155	-71	-158	-16432	580	-2600	52	-102	127	-1420	3348	16692	153	-3	69	126	126	5
-10552	-2964	11588	-74	182	-206	-15776	-3008	-1752	-27	-143	-124	-2152	-1756	16348	-70	-195	90	-9020	3520	13552	110	-72	-149	-16432	636	-2584	153	-91	99	-1284	3340	16700	184	26	64	126	126	5
-10568	-2960	11428	-128	182	-228	-15784	-3044	-1640	76	-98	-186	-2144	-1736	16376	-122	-211	94	-9092	3552	13388	128	-61	-141	-16396	632	-2508	98	-96	76	-1360	3252	16704	136	12	51	126	126	5
-10496	-3008	11576	-122	183	-237	-15736	-3040	-1684	113	-81	-226	-2108	-1872	16408	-211	-231	110	-9060	3536	13552	61	-33	-191	-16404	616	-2492	45	-66	32	-1332	3212	16684	91	-1	66	126	126	5
-10484	-2976	11456	-133	199	-204	-15720	-3052	-1728	82	-48	-222	-2072	-1996	16404	-212	-234	111	-9052	3480	13572	73	-64	-143	-16420	528	-2540	82	-65	25	-1300	3208	16796	62	8	92	126	126	5
-10512	-2988	11420	-116	205	-209	-15748	-3044	-1740	-26	-85	-253	-2084	-1976	16492	-204	-186	110	-9100	3548	13504	108	-49	-181	-16440	596	-2504	71	-41	13	-1280	3212	16736	65	-5	121	126	127	5
-10520	-3032	11508	-160	223	-207	-15772	-3176	-1712	-112	-48	-219	-2060	-2024	16488	-248	-192	103	-9068	3580	13572	113	-45	-207	-16448	652	-2584	33	-7	-26	-1236	3156	16676	75	61	115	126	127	5
-10496	-2992	11536	-127	233	-230	-15712	-3296	-1696	-151	-42	-177	-2100	-2288	16352	-197	-170	171	-9108	3556	13640	126	-63	-171	-16384	516	-2472	14	-6	-11	-1408	3072	16724	87	60	116	126	127	5
-10572	-3052	11396	-141	198	-202	-15688	-3268	-1712	-38	-35	-175	-2084	-2204	16416	-137	-175	163	-9104	3488	13568	92	-113	-221	-16444	376	-2564	66	-6	-23	-1456	3112	16760	90	76	113	126	127	5
-10508	-3004	11372	-117	200	-185	-15700	-3284	-1840	44	-10	-188	-2196	-2216	16352	-72	-165	164	-9028	3500	13508	111	-74	-192	-16396	360	-2640	118	-27	27	-1536	3072	16792	82	31	75	126	127	5
-10512	-3076	11472	-91	198	-205	-15760	-3240	-1828	15	-42	-138	-2132	-2200	16408	-24	-145	83	-9112	3496	13472	138	-63	-184	-16424	492	-2576	120	-19	17	-1516	3140	16628	99	58	44	126	127	5
-10476	-2996	11484	-86	186	-209	-15728	-3264	-1716	-27	-46	-100	-2244	-2192	16344	-17	-116	76	-9052	3520	13624	103	-84	-181	-16432	504	-2648	8	-17	44	-1508	3052	16740	158	52	76	126	127	5
-10296	-3092	11368	-118	187	-213	-15716	-3336	-1784	-9	-29	-85	-2172	-2204	16312	-32	-140	53	-9108	3572	13588	142	-81	-173	-16416	472	-2536	-14	-57	50	-1572	3168	16748	84	77	61	126	127	5
-10576	-3064	11468	-80	184	-196	-15680	-3252	-1960	55	-31	-94	-2220	-2184	16272	69	-114	99	-9072	3468	13532	141	-89	-133	-16392	452	-2504	-6	-39	71	-1464	3184	16704	34	120	55	126	127	5
-10352	-3032	11500	-90	166	-188	-15676	-2912	-1936	274	-106	-152	-2204	-2172	16368	13	-107	229	-9100	3560	13652	129	-66	-160	-16432	372	-2576	20	-64	49	-1400	3000	16728	58	58	76	126	127	5
-10496	-3100	11440	-132	256	-241	-15780	-3180	-1884	-59	-42	-61	-2320	-2168	16236	93	-133	193	-9124	3516	13544	114	-51	-164	-16440	648	-2584	123	-82	68	-1792	3064	16588	173	-153	200	126	127	5
-10460	-3044	11468	-95	185	-201	-15780	-3248	-1888	-203	-58	-80	-2168	-2092	16364	159	-130	274	-9000	3612	13556	95	-99	-192	-16268	576	-2680	22	-53	60	-1676	2560	15524	-293	-724	774	126	129	5
-10492	-3048	11380	-87	164	-188	-15636	-3336	-1744	-60	-52	-87	-2452	-2252	16304	285	-262	280	-9068	3484	13376	71	-158	-156	-16016	548	-2532	-12	-5	37	-2696	2280	16416	-1255	-2245	1765	126	134	5
-10524	-3064	11372	-68	102	-152	-15640	-3220	-1688	63	-100	-116	-2140	-2332	16376	582	-432	357	-9084	3576	13528	40	-162	-176	-16460	-152	-2448	-23	15	175	-1848	2256	18108	-1696	347	1789	127	135	5
-10512	-2960	11556	-68	115	-166	-15844	-3212	-1688	43	-40	-89	-2080	-2028	16696	484	-216	249	-9112	3556	13620	134	-151	-179	-16524	-1176	-2056	478	203	533	2328	888	22176	-1309	-291	1237	127	135	5
-10516	-2988	11452	-85	152	-213	-15844	-3316	-1532	-20	-11	8	-1696	-2036	16400	198	-65	201	-9000	3204	13948	364	204	-93	-17208	-1652	-2588	1588	58	774	-1852	856	16072	3160	1037	-1873	126	133	5
-10524	-3028	11452	-42	209	-166	-15588	-3356	-1544	90	41	-14	-1944	-2332	16252	247	-244	299	-9136	3456	13372	483	214	-38	-16052	1056	-2312	1750	143	840	-960	3288	16324	2335	645	-2309	127	130	5
-10516	-3012	11424	-13	155	-162	-15676	-3556	-1660	176	85	46	-1892	-2496	16476	192	-340	291	-9108	3772	13516	371	98	-82	-16388	2676	-2436	-353	239	821	-1964	5192	16900	1543	155	-1680	126	130	5
-10548	-2996	11464	9	132	-161	-15792	-3448	-1776	289	56	150	-2020	-2608	16396	406	-147	217	-9144	3704	13468	382	144	-75	-16228	1916	-2676	-2623	147	734	-1888	4972	16284	-104	117	-1226	127	128	5
-10588	-2972	11448	3	120	-111	-15716	-3472	-1884	121	30	263	-2024	-2548	16392	458	16	151	-9056	3600	13620	244	-27	-120	-16508	180	-2720	-1870	70	446	-1848	3520	16524	-1074	-327	-714	127	127	5
-10508	-3064	11556	40	109	-152	-15636	-3520	-1760	68	64	400	-2420	-2520	16076	601	11	-50	-9132	3672	13520	227	-24	-138	-16344	436	-3060	-31	-59	255	-1532	2764	16832	-521	-231	-286	126	124	5
-10564	-3036	11508	95	69	-120	-15604	-3528	-1996	198	-19	390	-2476	-2280	16080	731	-140	-377	-9132	3652	13428	123	-66	-172	-16352	948	-2696	812	15	209	-1200	2876	16268	400	-177	-120	126	123	5
-10528	-3048	11472	99	-22	-114	-15828	-3144	-1820	292	-55	468	-2252	-1832	16484	695	-53	-460	-9084	3640	13504	46	-137	-197	-16392	892	-2772	1234	-14	122	-1032	3228	16348	963	-519	279	126	121	5
-10516	-2932	11588	63	0	-145	-15776	-2732	-1860	-15	-92	442	-2264	-1492	16448	648	-3	-397	-9120	3564	13628	59	-141	-204	-16472	888	-2624	1357	-111	-90	-820	3760	16680	636	-466	618	126	120	5
-10676	-2984	11488	77	-22	-154	-15816	-2672	-1752	-158	-107	364	-2256	-1184	16484	603	-162	-201	-9108	3496	13556	20	-79	-203	-16512	912	-2380	962	-129	-183	-1552	3760	16944	-119	-303	510	126	120	5
-10428	-2880	11560	-13	79	-144	-15872	-2772	-1716	-97	-80	225	-2324	-1056	16480	398	-122	-28	-9140	3580	13456	70	-99	-210	-16424	1040	-2456	-74	-62	-94	-1508	3040	16988	-203	-178	284	126	122	5
-10468	-2892	11556	7	159	-152	-15800	-2732	-1672	214	-77	84	-2316	-1160	16412	312	-81	229	-9124	3504	13608	81	-73	-201	-16408	536	-2440	-866	14	-9	-840	2576	16916	-12	-50	132	126	123	5
-10356	-2924	11580	-96	182	-190	-15780	-2596	-1716	243	-6	-14	-2456	-1064	16316	242	-195	407	-9084	3484	13716	101	-74	-149	-16472	-4	-2644	-879	-5	43	-356	2516	16904	115	152	-5	126	124	5
-10608	-2984	11576	-132	217	-202	-15748	-2672	-1788	137	-56	-151	-2536	-1328	16472	193	-81	621	-9012	3520	13568	167	21	-157	-16460	36	-2628	-282	-17	49	-768	2532	16816	348	358	-32	126	126	5
-10512	-2992	11484	-137	207	-215	-15784	-2836	-1800	121	-43	-259	-2388	-1312	16248	165	-245	641	-9112	3516	13568	158	-11	-137	-16452	520	-2464	180	-1	60	-1460	2692	16712	508	282	-42	125	126	5
-10532	-2948	11480	-166	234	-223	-15756	-2996	-1848	29	-113	-322	-2296	-1412	16516	-94	-245	605	-9068	3624	13596	167	-63	-176	-16420	644	-2664	315	11	95	-1636	2736	16544	676	149	80	125	127	5
-10432	-2936	11460	-157	242	-211	-15768	-3068	-1808	30	-121	-345	-2024	-1676	16288	-198	-178	576	-9072	3560	13540	105	-39	-189	-16360	536	-2680	264	-10	97	-1540	2740	16640	826	78	339	125	127	5
-10448	-2972	11500	-171	239	-249	-15720	-3144	-1800	-135	-102	-325	-2116	-2004	16300	-360	-101	484	-9112	3532	13600	122	-55	-164	-16376	412	-2760	345	-54	127	-1424	2800	16616	795	-63	495	125	128	5
-10532	-2996	11428	-160	216	-269	-15736	-3472	-1688	-159	-138	-233	-2156	-2368	16404	-306	-64	383	-9020	3440	13564	142	-81	-148	-16452	456	-2600	371	-93	167	-1300	2944	16792	692	-124	460	125	129	5
-10512	-2980	11392	-109	203	-189	-15664	-3556	-1744	-44	-135	-156	-2156	-2512	16440	-160	-119	234	-9016	3460	13464	189	-30	-129	-16372	412	-2448	117	-38	253	-1356	2996	16740	554	-177	328	125	130	5
-10496	-2984	11560	-49	136	-212	-15644	-3512	-1740	156	-128	-47	-2092	-2380	16396	53	-149	50	-9044	3472	13604	176	-20	-160	-16508	392	-2520	-34	-28	331	-1292	2856	16856	404	-254	183	125	130	5
-10516	-2980	11360	-23	115	-184	-15696	-3372	-1728	152	-99	16	-2100	-2204	16432	118	-174	-51	-9080	3512	13508	241	-9	-137	-16484	232	-2348	-20	3	445	-1100	2672	16864	468	-211	-42	126	131	5
-10552	-2944	11492	-38	135	-163	-15668	-3164	-1640	73	-71	87	-2044	-1972	16396	124	-147	-130	-9040	3584	13644	246	20	-86	-16428	340	-2444	99	57	437	-1140	2792	16760	683	-72	-140	125	131	5
-10480	-2992	11572	-23	104	-175	-15748	-3060	-1636	-112	-71	80	-2092	-1732	16412	33	-144	-117	-9076	3564	13600	278	12	-64	-16356	600	-2524	193	71	499	-1096	3016	16812	802	-19	-290	126	132	5
-10548	-2944	11440	-47	103	-131	-15780	-3068	-1812	-230	-20	91	-2028	-1836	16352	29	-147	-55	-8996	3588	13672	270	20	-136	-16480	736	-2596	128	96	538	-964	3256	16912	825	4	-292	126	132	5
-10548	-2956	11452	-23	147	-138	-15740	-3172	-1596	-168	-34	117	-1820	-2296	16516	305	-64	283	-9012	3592	13432	255	32	-137	-16412	808	-2548	69	62	497	-1000	3560	16612	742	56	-245	126	132	5
-10452	-2940	11536	-30	135	-151	-15712	-3180	-1484	-35	-9	131	-2256	-1620	16432	138	-155	64	-9116	3596	13564	225	11	-115	-16460	924	-2488	55	139	436	-936	3580	16644	717	48	-233	126	132	5
-10544	-3008	11568	-50	131	-166	-15760	-3192	-1632	183	71	103	-2244	-1720	16336	199	-201	6	-9104	3576	13504	226	32	-167	-16380	1012	-2660	-6	140	332	-1056	3644	16676	569	136	-148	126	131	5
-10524	-2928	11528	-18	134	-166	-15868	-3048	-1796	270	106	103	-2168	-1656	16320	225	-153	0	-9116	3596	13548	217	3	-150	-16464	1000	-2644	35	142	266	-1336	3652	16764	615	352	-180	126	132	5
-10532	-2972	11508	-46	136	-152	-15764	-2952	-1872	167	81	36	-2268	-1632	16300	210	-112	38	-9088	3640	13468	161	-38	-158	-16500	936	-2840	-17	99	160	-1192	3556	16608	489	113	37	126	133	5
-10584	-2936	11548	-29	158	-168	-15696	-2960	-1972	37	-7	57	-2412	-1612	16384	183	-144	0	-9124	3548	13556	135	-67	-171	-16408	800	-2868	95	45	122	-1308	3668	16632	456	33	144	126	133	5
-10508	-2960	11508	-79	163	-160	-15804	-2916	-1736	-66	-24	-4	-2172	-1464	16388	173	-176	3	-9112	3560	13516	131	-70	-188	-16464	872	-2780	162	23	74	-1536	3820	16564	428	170	174	126	134	5
-10508	-2980	11504	-69	153	-185	-15784	-2868	-1844	-162	-46	-52	-2304	-1448	16484	22	-231	-46	-9144	3572	13560	111	-81	-159	-16444	760	-2876	214	-22	17	-1428	3740	16592	257	-71	217	126	135	5
-10464	-2916	11424	-101	175	-159	-15740	-2900	-1812	-96	-59	-111	-2344	-1320	16264	-109	-193	-33	-9088	3536	13536	106	-113	-150	-16420	712	-2812	122	-85	-29	-1428	3652	16624	74	-72	209	126	135	5
-10476	-2940	11524	-113	204	-196	-15772	-2756	-1924	-26	-71	-168	-2500	-1336	16364	-122	-201	100	-9124	3588	13552	99	-99	-173	-16472	708	-2800	135	-168	-32	-1512	3520	16700	-24	-119	242	126	134	5
-10484	-2904	11596	-116	187	-238	-15792	-2756	-1988	-106	-137	-260	-2372	-1340	16356	-133	-240	151	-9084	3584	13472	98	-113	-172	-16380	704	-2564	105	-199	-36	-1348	3244	16828	-130	-89	181	126	134	5
-10476	-2960	11612	-177	248	-250	-15844	-2808	-1832	-34	-171	-337	-2284	-1444	16484	-164	-311	262	-9068	3568	13548	99	-60	-194	-16532	660	-2316	43	-180	-34	-1140	3240	16844	-89	-42	132	126	134	5
-10500	-2980	11560	-213	251	-276	-15832	-2908	-1744	43	-194	-382	-2148	-1616	16468	-238	-297	391	-9080	3592	13552	95	-99	-170	-16440	584	-2508	-17	-154	-6	-1120	3116	16680	-82	-17	48	126	133	5
-10520	-2940	11440	-220	306	-243	-15780	-2964	-1828	125	-128	-425	-2060	-1672	16432	-274	-290	477	-9116	3560	13540	131	-77	-177	-16428	504	-2500	20	-96	-34	-1072	3088	16824	-59	64	18	126	132	5
-10528	-2960	11436	-197	271	-271	-15716	-3092	-1772	-36	-199	-418	-2020	-1924	16384	-287	-229	484	-9076	3568	13588	128	-85	-154	-16472	600	-2612	19	-95	32	-1272	3208	16760	-57	91	-8	126	131	5
-10548	-3036	11420	-200	239	-252	-15756	-3300	-1604	-146	-194	-414	-1936	-2172	16468	-239	-200	449	-9132	3572	13512	95	-83	-152	-16508	568	-2648	-14	-95	43	-1304	3120	16692	-129	90	37	126	130	5
-10560	-2984	11536	-200	274	-262	-15772	-3544	-1608	-109	-149	-293	-1832	-2304	16428	-273	-143	303	-9080	3564	13640	159	-68	-163	-16384	604	-2416	5	-83	27	-1216	3116	16608	-73	52	52	126	130	5
-10500	-3076	11472	-161	220	-233	-15672	-3600	-1460	-24	-82	-229	-1792	-2396	16416	-281	-134	155	-9072	3512	13536	123	-71	-175	-16428	696	-2396	1	-22	81	-1120	3160	16764	-120	51	9	126	129	5
-10444	-3044	11360	-140	212	-238	-15652	-3484	-1552	-3	-43	-139	-1848	-2396	16364	-198	-48	39	-9124	3576	13592	126	-43	-168	-16416	612	-2488	-45	39	115	-952	3084	16752	-71	77	-68	126	129	5
-10456	-2964	11472	-77	154	-185	-15712	-3420	-1600	-33	-33	-43	-1788	-2340	16432	-91	-46	-12	-9184	3556	13600	119	-22	-191	-16464	652	-2472	21	8	69	-860	3072	16748	10	86	-100	126	128	5
-10524	-2968	11480	-46	128	-139	-15668	-3356	-1668	-62	15	6	-2096	-2064	16408	26	-42	177	-9104	3588	13556	136	-35	-170	-16464	648	-2416	61	57	77	-1064	3132	16792	75	165	-127	126	128	5
-10456	-3036	11404	-21	127	-145	-15712	-3308	-1700	-55	72	66	-1844	-2132	16420	19	-105	-48	-9116	3520	13616	129	-70	-177	-16460	760	-2568	21	102	77	-948	3160	16664	51	84	-138	126	128	5
-10552	-3040	11468	-25	135	-165	-15720	-3216	-1660	23	99	83	-1952	-2016	16464	31	-91	-19	-9084	3564	13636	129	-57	-200	-16344	668	-2552	-13	134	48	-1152	3204	16724	62	82	-142	126	127	5
-10452	-2972	11492	-16	147	-158	-15692	-3168	-1828	42	111	56	-2504	-1532	16536	-22	-63	29	-9064	3556	13468	98	-88	-172	-16404	644	-2600	5	90	55	-1196	3204	16756	27	83	-124	126	127	5
-10460	-2948	11556	-41	144	-136	-15700	-3020	-1792	51	100	93	-2148	-1872	16396	116	-59	82	-9104	3544	13540	79	-61	-156	-16404	648	-2708	85	116	44	-1348	3208	16620	52	89	-72	126	127	5
-10544	-2940	11352	-13	133	-166	-15792	-3008	-1928	-45	53	84	-2196	-1808	16404	128	-46	47	-9100	3520	13564	101	-63	-191	-16448	624	-2724	125	45	12	-1392	3180	16616	110	96	-28	126	126	5
-10608	-2908	11520	-5	168	-174	-15768	-3108	-1836	-96	21	44	-2376	-1700	16392	170	-48	147	-9104	3508	13600	113	-31	-158	-16444	720	-2856	135	17	22	-1512	3240	16696	141	87	25	126	126	5
-10516	-2960	11480	-24	166	-178	-15784	-3028	-1944	-14	-35	26	-2360	-1752	16288	141	-100	196	-9184	3548	13592	128	-97	-166	-16440	700	-2752	-5	-22	34	-1508	3192	16660	81	38	72	126	126	5
-10524	-2980	11476	-86	124	-194	-15780	-2976	-2000	58	-75	-20	-2320	-1752	16400	149	-64	191	-9068	3536	13492	113	-99	-187	-16432	492	-2736	-11	-39	20	-1400	3152	16660	77	21	102	127	126	5
-10460	-2932	11500	-81	151	-219	-15772	-3008	-2020	79	-96	-56	-2228	-1732	16356	139	-62	227	-9112	3568	13556	126	-71	-142	-16484	536	-2640	63	-128	60	-1396	3096	16812	70	15	90	127	126	5
-10524	-2992	11540	-73	130	-209	-15732	-3032	-1832	9	-90	-74	-2168	-1708	16484	158	-103	219	-9060	3576	13524	138	-42	-171	-16400	576	-2656	70	-121	116	-1380	3028	16640	111	3	137	127	126	5
-10540	-2936	11444	-85	181	-212	-15776	-3088	-1708	-4	-119	-112	-2168	-1728	16376	64	-139	246	-9128	3520	13456	107	-74	-172	-16420	540	-2588	51	-84	109	-1296	2988	16784	196	-16	131	127	126	5
-10448	-2988	11620	-93	168	-215	-15768	-3048	-1676	7	-94	-72	-2072	-1800	16364	12	-121	218	-9044	3580	13568	136	-65	-171	-16376	520	-2512	101	-109	109	-1228	3004	16704	259	4	81	127	126	5
-10532	-2940	11412	-81	161	-203	-15800	-3112	-1756	-9	-91	-124	-2120	-1796	16532	-32	-161	204	-9104	3544	13508	159	-72	-143	-16432	544	-2512	144	-74	125	-1216	3008	16780	259	-50	54	127	127	5
-10456	-2992	11532	-120	175	-224	-15752	-3168	-1828	-18	-102	-134	-2028	-1876	16456	-62	-160	170	-9096	3516	13560	149	-37	-180	-16356	660	-2488	71	-35	158	-1084	2988	16688	324	1	66	127	127	5
-10508	-2972	11512	-81	183	-184	-15680	-3132	-1704	-31	-53	-141	-2032	-1940	16492	-12	-176	166	-9084	3552	13580	161	-76	-156	-16376	624	-2484	41	10	171	-1200	3040	16724	340	-19	89	127	127	5
-10520	-3020	11556	-119	153	-181	-15740	-3184	-1676	0	-31	-96	-1948	-1956	16476	-9	-201	140	-9028	3556	13576	166	-50	-138	-16368	592	-2592	-23	9	167	-1144	3096	16612	382	-15	25	127	127	5
-10500	-3024	11468	-87	191	-184	-15764	-3252	-1580	-5	-30	-70	-1948	-2016	16420	16	-155	136	-9092	3548	13480	140	-1	-188	-16436	584	-2436	14	53	174	-1244	3108	16764	363	24	8	127	127	5
-10524	-2936	11560	-106	179	-154	-15752	-3232	-1660	38	27	-11	-1940	-2004	16412	18	-146	101	-9048	3512	13488	142	-31	-199	-16408	592	-2672	73	41	162	-1320	3244	16736	347	18	19	127	127	5
-10536	-2972	11504	-86	162	-150	-15808	-3220	-1652	5	-1	-48	-1960	-1912	16328	-12	-69	76	-9068	3600	13488	189	-35	-156	-16396	560	-2644	53	35	199	-1328	3180	16628	295	23	-31	127	127	5
-10540	-3020	11568	-85	122	-202	-15716	-3116	-1768	14	39	-33	-2116	-1932	16388	-2	-74	58	-9136	3548	13488	185	-46	-158	-16432	588	-2624	88	41	174	-1348	3240	16704	296	34	-53	127	127	5
-10516	-3044	11476	-45	135	-160	-15764	-3120	-1748	-51	-30	-10	-2228	-1828	16504	18	-4	64	-9116	3544	13512	173	-24	-146	-16388	620	-2564	142	6	212	-1316	3232	16592	297	19	-73	127	127	5
-10492	-2960	11480	-22	130	-147	-15772	-3148	-1892	-53	-20	12	-2256	-1868	16328	63	-44	60	-9076	3548	13552	191	-88	-162	-16416	692	-2640	95	-3	210	-1356	3324	16608	211	16	-81	127	127	5
-10516	-3020	11480	-66	158	-164	-15724	-3088	-1668	-52	-15	0	-2236	-1876	16400	73	-58	135	-9120	3588	13484	165	-63	-146	-16444	760	-2636	64	-18	174	-1328	3356	16720	129	-13	-50	127	127	5
-10480	-2940	11516	-85	126	-202	-15800	-3008	-1716	-26	-61	-18	-2160	-1784	16284	118	-109	169	-9076	3536	13576	141	-57	-148	-16404	712	-2656	-62	-56	144	-1380	3288	16728	66	-12	-35	127	127	5
-10520	-2948	11572	-76	135	-194	-15724	-3040	-1844	71	-80	-34	-2212	-1768	16308	103	-108	206	-9092	3520	13524	157	-57	-174	-16376	628	-2676	29	-110	149	-1292	3180	16756	108	-49	-28	127	127	5
-10508	-2912	11500	-81	142	-208	-15768	-3036	-1952	17	-127	-68	-2276	-1744	16436	74	-148	216	-9088	3576	13496	151	-83	-148	-16388	596	-2548	75	-61	149	-1244	3136	16864	120	9	-50	127	127	5
-10504	-2984	11556	-104	159	-176	-15716	-3092	-1788	21	-100	-88	-2144	-1716	16368	62	-152	229	-9140	3524	13568	167	-68	-168	-16428	596	-2656	164	-61	149	-1160	3104	16768	202	-44	-4	127	127	5
-10472	-2948	11560	-80	163	-211	-15724	-3148	-1824	44	-96	-104	-2136	-1832	16484	49	-179	216	-9120	3532	13608	155	-68	-151	-16424	708	-2568	148	-26	106	-1180	3172	16748	209	-71	-17	127	127	5
-10520	-2888	11588	-101	156	-197	-15752	-3144	-1764	16	-88	-61	-2160	-1816	16396	-1	-173	205	-9136	3584	13472	135	-6	-191	-16480	692	-2620	66	-25	142	-1200	3240	16688	205	-63	31	127	127	5
-10460	-2896	11496	-98	154	-199	-15772	-3108	-1880	2	-95	-52	-2076	-1864	16404	51	-167	157	-9144	3620	13628	143	-59	-170	-16368	664	-2572	15	-30	139	-1216	3116	16764	243	-50	83	127	127	5
-10488	-3008	11516	-106	152	-226	-15716	-3108	-1684	-28	-76	-90	-1996	-1868	16372	52	-136	122	-9108	3540	13500	137	-51	-147	-16364	608	-2568	27	-59	134	-1168	3136	16744	258	-17	86	127	127	5
-10568	-3008	11576	-78	134	-205	-15692	-3176	-1624	-14	-56	-25	-2040	-1996	16488	26	-100	81	-9128	3596	13480	144	-59	-164	-16408	608	-2572	23	-22	130	-1184	3088	16800	286	-3	89	127	127	5
-10508	-2960	11512	-106	165	-195	-15720	-3196	-1624	38	-43	-63	-2016	-1856	16428	15	-123	46	-9036	3596	13624	165	-72	-156	-16440	640	-2496	43	19	125	-1212	3084	16708	350	23	72	127	127	5
-10476	-2968	11372	-66	158	-173	-15668	-3196	-1640	96	-52	-54	-2008	-1848	16424	2	-139	55	-9092	3544	13612	150	11	-183	-16368	564	-2628	43	21	150	-1212	3192	16736	328	19	44	126	127	5
-10528	-3020	11540	-96	160	-198	-15796	-3116	-1684	12	-9	-26	-2040	-1788	16420	4	-107	80	-9096	3556	13508	174	-33	-189	-16460	656	-2560	77	-4	134	-1228	3164	16636	343	33	47	126	127	5
-10476	-2960	11528	-130	129	-170	-15728	-3128	-1724	-26	-30	-62	-2124	-1776	16336	-49	-115	65	-9096	3592	13524	174	6	-155	-16380	616	-2680	78	37	140	-1276	3296	16708	263	2	11	127	128	5
-10476	-2940	11368	-113	195	-155	-15788	-3064	-1832	-74	-17	-64	-2128	-1760	16548	-62	-92	102	-9052	3564	13496	189	-86	-198	-16404	712	-2704	44	-16	84	-1292	3332	16624	253	-1	9	127	127	5
-10500	-2884	11540	-119	158	-169	-15764	-3044	-1876	-70	-48	-59	-2168	-1764	16412	-99	-123	89	-9128	3528	13472	151	-67	-152	-16440	716	-2720	11	-15	141	-1312	3296	16852	191	45	18	127	128	5
-10532	-2944	11536	-101	150	-200	-15716	-3032	-1804	-104	-37	-99	-2164	-1804	16480	-59	-91	140	-9100	3580	13396	140	-48	-144	-16420	692	-2532	-25	-38	80	-1276	3268	16756	148	39	38	127	127	5
-10524	-3048	11544	-98	175	-168	-15748	-3084	-1740	-10	-74	-82	-2080	-1844	16400	-62	-84	173	-9112	3532	13564	120	-59	-157	-16428	748	-2640	31	-75	49	-1244	3368	16772	139	71	78	127	128	5
-10520	-2984	11516	-110	176	-162	-15796	-3060	-1732	8	-78	-125	-2100	-1884	16424	9	-101	268	-9068	3560	13552	156	-51	-184	-16440	696	-2636	37	26	41	-1312	3280	16728	42	47	74	127	127	5
-10516	-3004	11504	-65	173	-205	-15704	-3180	-1808	76	-47	-108	-2120	-1880	16412	40	-109	276	-9128	3588	13556	150	-108	-192	-16412	656	-2620	65	-55	11	-1264	3260	16772	63	43	57	127	127	5
-10532	-2924	11544	-72	157	-203	-15728	-3164	-1668	47	-67	-114	-2112	-1900	16364	31	-98	232	-9068	3552	13568	101	-38	-177	-16432	576	-2596	132	-35	32	-1300	3208	16688	20	19	34	127	127	5
-10536	-3028	11564	-108	166	-181	-15784	-3176	-1764	-14	-77	-89	-2068	-1856	16380	0	-119	235	-9084	3576	13580	121	-45	-163	-16480	636	-2684	133	-13	31	-1252	3112	16616	49	30	37	127	127	5
-10464	-3000	11412	-100	146	-167	-15740	-3192	-1784	-49	-40	-119	-2120	-1916	16452	45	-99	197	-9096	3528	13508	126	-60	-192	-16416	572	-2592	85	-59	43	-1388	3100	16844	77	17	22	127	127	5
-10488	-2996	11540	-55	150	-166	-15760	-3188	-1600	-95	-67	-57	-2108	-1904	16472	41	-116	146	-9108	3540	13480	134	-20	-206	-16440	592	-2612	43	-59	80	-1304	3096	16740	99	-14	-6	127	127	5
-10460	-2960	11592	-116	168	-197	-15756	-3152	-1744	-38	-66	-51	-2088	-1824	16432	26	-136	92	-9124	3512	13536	149	-77	-158	-16404	520	-2668	29	-32	86	-1308	3052	16832	104	-5	-21	127	127	5
-10488	-2984	11432	-35	149	-196	-15708	-3116	-1692	-23	-36	-48	-2072	-1864	16348	29	-114	79	-9084	3576	13636	152	-59	-139	-16420	552	-2472	50	-34	87	-1172	3032	16700	130	-54	-28	127	127	5
-10536	-2988	11432	-77	121	-177	-15736	-3156	-1676	0	-36	-87	-2036	-1820	16508	20	-132	70	-9076	3540	13524	142	-56	-172	-16392	540	-2540	89	-15	142	-1184	2992	16616	164	-30	-29	127	127	5
-10472	-2960	11508	-88	146	-187	-15756	-3196	-1772	-3	-76	-40	-2144	-1792	16396	-19	-112	118	-9080	3556	13604	144	-77	-157	-16432	600	-2604	71	-29	148	-1176	3080	16800	221	16	-3	127	127	5
-10536	-2976	11452	-118	153	-188	-15744	-3156	-1632	1	-65	-88	-2124	-1856	16420	-50	-111	74	-9116	3544	13508	151	-25	-172	-16484	672	-2512	59	-46	142	-1208	3132	16644	283	26	16	127	127	5
-10500	-2956	11468	-124	121	-193	-15692	-3160	-1720	30	-44	-43	-2136	-1812	16404	-54	-126	70	-9096	3552	13604	171	-73	-167	-16424	592	-2620	30	-50	103	-1172	3184	16748	259	16	38	127	127	5
-10500	-3028	11488	-75	132	-169	-15756	-3088	-1700	-15	-46	-63	-2072	-1860	16428	-61	-96	105	-9096	3508	13588	181	-66	-162	-16420	668	-2568	66	-28	94	-1180	3184	16744	218	14	63	127	127	5
-10504	-2964	11504	-75	137	-213	-15720	-3076	-1684	-2	-45	-80	-2168	-1804	16396	-26	-157	166	-9116	3528	13484	130	-50	-166	-16496	696	-2636	95	4	126	-1240	3140	16712	218	8	40	127	128	5
-10524	-2932	11476	-76	160	-187	-15744	-3124	-1820	-53	-74	-104	-2124	-1888	16504	30	-137	154	-9072	3580	13456	157	-55	-144	-16400	512	-2600	95	24	151	-1220	3120	16632	257	5	63	127	127	5
-10472	-2960	11452	-99	173	-193	-15708	-3164	-1772	-16	-73	-104	-2108	-1888	16408	-15	-97	211	-9104	3480	13576	150	-61	-178	-16356	624	-2636	82	-1	137	-1240	3212	16628	245	1	58	127	128	5
-10500	-2968	11504	-63	173	-204	-15764	-3172	-1748	-4	-72	-76	-2072	-1932	16412	-26	-95	176	-9120	3504	13508	121	-45	-155	-16440	644	-2592	90	0	114	-1280	3252	16692	225	28	49	127	127	5
-10516	-3008	11444	-91	160	-170	-15772	-3164	-1732	15	-72	-39	-2120	-2024	16364	-41	-93	182	-9100	3588	13524	149	-65	-163	-16460	664	-2624	38	1	143	-1212	3252	16672	202	43	63	127	128	5
-10484	-2920	11536	-58	178	-189	-15716	-3228	-1784	48	-56	-77	-2068	-1960	16380	16	-90	139	-9116	3572	13456	117	-44	-162	-16384	620	-2636	33	-25	73	-1184	3264	16756	182	43	77	127	128	5
-10496	-2980	11468	-99	149	-171	-15740	-3148	-1788	64	-48	-80	-2136	-1928	16396	54	-108	167	-9092	3516	13640	135	-103	-179	-16380	628	-2564	17	-4	107	-1240	3196	16860	134	5	56	127	127	5
-10448	-2984	11408	-45	120	-164	-15732	-3160	-1804	21	-37	-42	-2164	-1948	16408	81	-85	149	-9100	3508	13548	124	-32	-202	-16448	596	-2648	97	-24	134	-1272	3176	16680	127	16	36	127	128	5
-10504	-3048	11436	-87	158	-157	-15752	-3220	-1704	-50	-43	-31	-2144	-1924	16336	79	-91	121	-9120	3536	13448	108	-18	-158	-16412	504	-2584	85	-33	124	-1352	3176	16712	110	35	37	127	127	5
-10540	-2996	11520	-102	165	-185	-15740	-3192	-1804	-55	-51	-33	-2084	-1908	16440	115	-125	106	-9084	3568	13528	134	-90	-173	-16460	580	-2640	118	-63	119	-1348	3148	16692	177	17	10	127	127	5
-10464	-3040	11540	-57	147	-175	-15764	-3104	-1868	-55	-18	-7	-2084	-1776	16444	38	-91	144	-9060	3568	13552	154	-48	-216	-16412	612	-2680	98	-1	117	-1336	3136	16780	180	9	8	127	127	5
-10504	-3028	11484	-80	156	-194	-15744	-3184	-1824	-56	-47	-27	-2148	-1840	16424	33	-66	134	-9088	3556	13504	151	-69	-166	-16404	628	-2524	38	15	120	-1284	3128	16736	160	-9	47	127	127	5
-10468	-3024	11496	-76	143	-170	-15780	-3176	-1820	-14	-69	-27	-2128	-1864	16480	107	-131	140	-9112	3528	13560	170	-81	-170	-16424	612	-2480	52	-51	134	-1240	3104	16808	168	34	7	127	127	5
-10536	-2960	11540	-81	153	-208	-15740	-3076	-1860	81	-53	-63	-2164	-1952	16376	78	-87	113	-9124	3564	13536	180	-31	-137	-16396	604	-2608	31	-21	118	-1212	3124	16708	124	14	-26	127	127	5
-10500	-2960	11456	-80	123	-186	-15760	-3044	-1720	101	-54	-46	-2136	-1820	16460	112	-109	138	-9112	3604	13524	144	-30	-158	-16416	608	-2572	18	-10	173	-1220	3128	16784	188	-12	-23	127	127	5
-10504	-2916	11556	-91	155	-197	-15768	-3016	-1796	13	-36	-66	-2112	-1740	16424	116	-100	99	-9072	3564	13548	173	-67	-158	-16420	568	-2544	33	-14	130	-1176	3176	16800	186	20	-43	127	127	5
-10428	-2960	11488	-111	143	-189	-15720	-3056	-1732	-42	-48	-73	-2072	-1764	16424	76	-110	140	-9056	3576	13548	166	-44	-152	-16400	680	-2596	54	27	117	-1236	3184	16716	161	34	-5	127	127	5
-10476	-2948	11508	-95	174	-217	-15740	-3136	-1640	-64	-56	-55	-2056	-1752	16400	34	-110	141	-9140	3540	13512	165	-61	-191	-16416	688	-2588	86	11	131	-1288	3196	16716	196	31	10	127	127	5
-10524	-3008	11472	-85	164	-191	-15712	-3200	-1680	-73	-22	-47	-2088	-1808	16468	16	-123	133	-9060	3548	13480	172	-69	-150	-16388	712	-2608	58	-25	138	-1208	3320	16720	206	21	25	127	127	5
-10528	-3036	11508	-94	173	-173	-15728	-3116	-1900	4	-11	-47	-2120	-1884	16452	24	-112	150	-9148	3572	13508	153	-80	-165	-16412	636	-2640	7	-10	65	-1284	3212	16704	149	17	16	127	127	5
-10524	-2916	11440	-74	162	-194	-15748	-3092	-1672	58	-67	-54	-2160	-1904	16392	38	-128	109	-9116	3604	13524	138	-70	-144	-16432	560	-2664	57	-28	154	-1208	3192	16804	177	27	10	127	127	5
-10540	-2996	11488	-97	161	-181	-15760	-3168	-1848	37	-22	-69	-2136	-1848	16416	47	-134	117	-9032	3524	13552	152	-53	-177	-16364	588	-2684	99	-42	95	-1220	3220	16716	173	16	26	127	127	5
-10488	-2976	11516	-114	138	-179	-15672	-3028	-1776	-10	-63	-76	-2104	-1772	16300	20	-109	133	-9096	3572	13508	114	-23	-157	-16440	620	-2552	136	-39	78	-1248	3188	16760	186	30	20	127	127	5
-10480	-2956	11516	-90	159	-219	-15760	-3124	-1736	-18	-57	-84	-2084	-1824	16352	-9	-65	130	-9072	3528	13592	151	-68	-194	-16340	580	-2548	125	-21	101	-1228	3180	16648	163	36	26	127	127	5
-10524	-2976	11528	-87	192	-178	-15752	-3128	-1808	-62	-100	-128	-2080	-1840	16444	-17	-74	166	-9112	3548	13532	155	-50	-145	-16436	616	-2688	97	-20	96	-1184	3200	16772	197	31	21	127	127	5
-10476	-2960	11460	-60	194	-200	-15784	-3132	-1724	-54	-27	-68	-2120	-1864	16288	7	-70	168	-9128	3516	13564	142	-42	-203	-16424	604	-2596	65	-48	83	-1268	3132	16632	167	33	27	127	127	5
-10544	-2980	11536	-86	163	-179	-15684	-3224	-1760	-46	-51	-93	-2080	-1924	16460	30	-76	143	-9084	3556	13568	164	-109	-179	-16404	552	-2648	25	-19	100	-1288	3208	16800	162	15	62	127	127	5
-10424	-2952	11440	-61	170	-182	-15788	-3240	-1704	38	-80	-74	-2016	-1940	16484	47	-68	133	-9128	3544	13404	146	0	-203	-16380	628	-2604	6	-10	119	-1284	3164	16764	156	-7	17	127	127	5
-10500	-3028	11428	-85	138	-237	-15732	-3192	-1732	78	-38	-66	-2060	-1948	16360	73	-99	146	-9144	3520	13472	110	-71	-160	-16436	572	-2516	58	-20	108	-1240	3108	16700	160	41	32	127	127	5
-10512	-2984	11428	-45	146	-190	-15796	-3176	-1744	28	-30	-33	-2076	-1904	16528	38	-91	122	-9072	3560	13472	143	-107	-177	-16444	560	-2532	114	-20	107	-1176	3076	16728	171	19	11	127	127	5
-10488	-2996	11448	-80	167	-150	-15716	-3148	-1784	-42	-43	-31	-2056	-1960	16368	51	-66	136	-9060	3552	13472	143	-102	-152	-16432	584	-2592	135	-33	100	-1260	3184	16868	215	72	28	127	127	5
-10564	-2968	11544	-55	129	-176	-15708	-3180	-1728	-47	-1	-23	-2108	-1908	16424	44	-44	141	-9104	3632	13528	136	-79	-171	-16412	576	-2524	100	-1	105	-1220	3132	16736	229	29	50	127	127	5
-10496	-2980	11508	-89	138	-149	-15764	-3160	-1732	-61	-5	-4	-2020	-1884	16400	88	-53	107	-9108	3528	13504	159	-12	-174	-16468	588	-2576	63	44	137	-1244	3148	16696	212	36	14	127	127	5
-10488	-3020	11452	-78	130	-188	-15788	-3088	-1888	-51	-23	-23	-2172	-1888	16376	84	-77	122	-9084	3560	13476	172	-22	-138	-16436	544	-2684	31	-16	128	-1244	3128	16712	228	17	7	127	127	5
-10516	-3040	11552	-63	106	-199	-15776	-3104	-1636	4	-21	-21	-2136	-1872	16336	103	-61	109	-9100	3560	13544	157	-64	-181	-16448	552	-2564	27	-2	110	-1320	3140	16744	193	3	4	127	127	5
-10484	-3000	11440	-106	116	-202	-15740	-3068	-1828	35	-17	-2	-2180	-1780	16460	130	-81	134	-9112	3580	13440	154	-43	-152	-16376	600	-2596	60	-38	139	-1316	3160	16680	219	9	-26	127	127	5
-10452	-2936	11476	-73	177	-199	-15748	-3048	-1748	-22	-31	-42	-2196	-1792	16432	76	-117	105	-9128	3576	13508	154	-23	-159	-16468	556	-2688	76	-24	143	-1316	3080	16712	232	9	-24	127	127	5
-10488	-2988	11472	-92	153	-181	-15696	-3152	-1896	69	-48	-16	-2164	-1828	16464	79	-78	120	-9156	3580	13536	148	-39	-149	-16432	580	-2692	63	-16	197	-1288	3148	16712	234	12	-22	127	127	5
-10528	-2936	11456	-91	162	-208	-15772	-3100	-1772	14	-24	-35	-2184	-1764	16432	99	-83	98	-9036	3500	13584	138	-67	-160	-16464	620	-2632	101	-30	164	-1236	3232	16644	257	-5	-1	127	127	5
-10464	-3056	11552	-85	182	-151	-15768	-3104	-1732	-6	-32	-21	-2192	-1840	16488	88	-96	140	-9072	3604	13568	134	-59	-132	-16412	680	-2548	39	-30	166	-1220	3212	16784	205	24	-4	127	127	5
-10496	-2948	11408	-50	133	-194	-15780	-3092	-1716	6	-57	-32	-2152	-1848	16400	102	-75	167	-9072	3596	13552	156	-30	-165	-16456	676	-2476	30	-26	128	-1204	3216	16756	174	1	-30	127	126	5
-10452	-2924	11500	-70	134	-170	-15772	-3104	-1740	43	-62	-28	-2144	-1844	16340	80	-92	140	-9076	3568	13544	150	-19	-198	-16468	676	-2500	19	-29	154	-1284	3220	16732	173	25	18	127	126	5
-10596	-3008	11588	-81	151	-172	-15696	-3116	-1848	26	-28	-58	-2136	-1800	16448	45	-50	129	-9124	3592	13540	158	-60	-175	-16436	600	-2560	45	-62	107	-1272	3232	16664	179	45	17	127	127	5
-10464	-2984	11448	-73	165	-162	-15744	-3080	-1796	11	-33	-39	-2200	-1828	16316	57	-84	113	-9016	3528	13620	129	-48	-171	-16412	628	-2656	100	10	116	-1256	3176	16648	164	13	19	127	127	5
-10488	-3020	11508	-98	151	-195	-15700	-3008	-1804	5	-74	-41	-2232	-1748	16404	38	-98	89	-9072	3504	13568	124	-66	-162	-16396	640	-2592	107	-7	87	-1272	3160	16636	168	-5	51	127	127	5
-10596	-2976	11432	-75	141	-204	-15748	-3088	-1764	-31	-65	-82	-2224	-1728	16408	-5	-104	96	-9088	3540	13584	138	6	-172	-16436	564	-2620	93	-20	142	-1272	3112	16796	171	28	47	127	127	5
-10516	-2976	11420	-92	133	-187	-15756	-2996	-1724	-85	-74	-33	-2124	-1764	16432	-7	-90	157	-9088	3592	13556	128	-73	-169	-16388	556	-2572	103	-19	94	-1340	3144	16676	209	22	32	127	127	5
-10488	-2916	11448	-91	150	-178	-15752	-3124	-1696	-75	-78	-90	-2080	-1788	16396	-21	-119	151	-9084	3584	13564	156	-54	-150	-16372	556	-2548	79	-6	111	-1208	3164	16836	150	31	4	127	127	5
-10448	-3012	11460	-103	176	-183	-15784	-3160	-1684	-1	-10	-96	-2084	-1828	16384	23	-119	144	-9088	3576	13520	145	-88	-152	-16368	616	-2604	61	-27	119	-1124	3116	16688	154	24	-6	127	127	5
-10520	-2948	11596	-101	154	-186	-15736	-3060	-1728	45	-42	-140	-2060	-1816	16488	-7	-107	121	-9080	3552	13636	146	-28	-169	-16432	572	-2588	58	-5	144	-1212	3076	16700	165	19	-65	127	127	5
-10504	-2904	11484	-78	129	-187	-15768	-3164	-1832	32	-38	-95	-2140	-1840	16444	-84	-103	112	-9068	3556	13560	178	-22	-152	-16408	600	-2396	20	-11	132	-1188	3136	16640	216	41	-82	127	127	5
-10528	-3012	11516	-133	164	-179	-15716	-3156	-1828	59	4	-103	-2084	-1800	16440	-62	-114	114	-9140	3592	13536	147	-24	-131	-16400	568	-2584	53	46	181	-1192	3200	16680	213	72	-103	127	127	5
-10512	-2996	11512	-120	191	-209	-15708	-3096	-1788	12	-52	-92	-2120	-1856	16440	-41	-117	98	-9188	3564	13476	183	-81	-162	-16412	584	-2616	4	67	115	-1220	3192	16788	221	14	-41	127	127	5
-10480	-2948	11444	-103	155	-176	-15776	-3116	-1696	-43	-74	-109	-2200	-1928	16464	-78	-105	114	-9048	3552	13512	164	-19	-183	-16464	696	-2692	8	53	140	-1268	3168	16536	217	-25	43	127	126	5
-10500	-2992	11476	-89	154	-224	-15764	-3156	-1712	-58	-19	-72	-2144	-1944	16332	-67	-123	86	-9068	3588	13588	166	-73	-155	-16476	728	-2640	41	39	116	-1340	3268	16584	203	6	32	127	126	5
-10468	-3044	11472	-66	151	-180	-15708	-3196	-1788	-64	-28	-56	-2148	-1924	16288	-63	-114	106	-9068	3664	13548	120	-48	-183	-16424	624	-2680	53	13	74	-1308	3280	16648	208	9	54	127	126	5
-10552	-3008	11464	-97	147	-157	-15760	-3112	-1856	-22	-46	15	-2200	-1872	16364	-41	-111	59	-9124	3588	13520	128	-48	-163	-16412	672	-2720	77	-26	68	-1284	3236	16716	177	14	55	127	126	5
-10540	-2996	11532	-82	151	-199	-15748	-3148	-1800	26	-49	-96	-2248	-1848	16520	-10	-113	89	-9128	3568	13544	150	-70	-165	-16440	636	-2700	79	-42	72	-1372	3276	16708	175	39	62	127	126	5
-10488	-2936	11540	-51	151	-227	-15720	-3140	-1692	9	-84	-102	-2152	-1812	16344	19	-131	141	-9100	3556	13516	171	-93	-177	-16396	628	-2764	77	-29	48	-1340	3196	16788	120	13	100	127	126	5
-10556	-2944	11432	-78	145	-172	-15780	-3052	-1884	-13	-76	-55	-2212	-1840	16364	22	-127	169	-9112	3564	13528	107	-74	-161	-16356	596	-2552	57	-83	90	-1288	3236	16768	99	-17	110	127	126	5
-10476	-2992	11532	-64	158	-196	-15764	-3052	-1796	-4	-79	-46	-2168	-1788	16424	31	-142	182	-9108	3552	13584	113	-66	-151	-16412	556	-2632	52	-80	41	-1388	3088	16728	131	-29	110	127	126	5
-10456	-3040	11500	-80	156	-191	-15768	-3180	-1836	12	-66	-136	-2232	-1856	16424	73	-146	174	-9072	3512	13596	137	-106	-176	-16384	540	-2624	32	-98	66	-1288	3040	16720	94	9	114	127	127	5
-10472	-2936	11500	-86	191	-166	-15720	-3084	-1792	-27	-38	-73	-2088	-1880	16312	50	-140	159	-9136	3556	13596	120	-65	-152	-16380	596	-2552	74	-44	68	-1208	3024	16808	164	-28	83	127	127	5
-10524	-2976	11500	-63	171	-215	-15756	-3156	-1676	3	-72	-110	-2136	-1856	16432	36	-146	169	-9044	3556	13536	151	-93	-175	-16484	580	-2576	76	-56	80	-1216	3052	16704	179	11	39	127	127	5
-10480	-2976	11432	-87	151	-190	-15776	-3108	-1704	36	-78	-76	-2064	-1876	16388	57	-154	118	-9084	3552	13544	156	-59	-156	-16344	512	-2580	78	-70	101	-1224	2968	16688	160	6	29	127	127	5
-10468	-2952	11504	-92	152	-212	-15772	-3148	-1700	16	-42	-67	-2052	-1832	16500	57	-158	132	-9036	3532	13444	125	-48	-159	-16456	640	-2552	65	-7	123	-1172	3024	16716	201	-35	18	127	127	5
-10488	-2972	11560	-92	147	-178	-15696	-3172	-1616	-57	-39	-85	-2044	-1860	16448	10	-117	151	-9076	3548	13528	138	-71	-174	-16460	560	-2580	51	-45	135	-1220	3044	16716	186	14	42	127	127	5
-10560	-3024	11424	-76	126	-199	-15744	-3140	-1784	-24	-34	-58	-2012	-1932	16372	-18	-128	125	-9020	3556	13572	150	-9	-192	-16396	560	-2644	35	-35	155	-1200	3032	16636	252	9	-22	127	127	5
-10504	-2984	11492	-90	158	-171	-15756	-3204	-1744	-26	-31	-46	-2108	-1920	16564	-9	-131	125	-9112	3532	13612	186	-36	-179	-16436	592	-2624	69	-19	165	-1248	3140	16764	217	16	-14	127	127	5
-10436	-3040	11484	-74	156	-197	-15684	-3164	-1720	-6	-67	-32	-2140	-1888	16384	24	-88	107	-9076	3564	13584	155	-75	-161	-16456	616	-2636	49	3	183	-1232	3120	16696	272	8	-7	127	127	5
-10528	-2912	11444	-62	140	-206	-15780	-3100	-1860	13	-29	-9	-2156	-1824	16264	23	-98	85	-9140	3560	13584	164	-33	-151	-16424	620	-2660	79	-22	168	-1260	3152	16732	282	49	-17	127	127	5
-10524	-3000	11548	-69	117	-163	-15780	-3172	-1772	21	-47	-22	-2160	-1828	16320	0	-123	121	-9060	3548	13568	152	-35	-137	-16396	688	-2600	78	-11	150	-1288	3184	16688	201	33	23	127	127	5
-10532	-2956	11572	-66	127	-165	-15796	-3044	-1800	25	-53	-29	-2148	-1900	16400	24	-98	140	-9192	3548	13572	159	-72	-166	-16444	616	-2564	67	-25	149	-1280	3164	16792	208	10	51	127	127	5
-10468	-2976	11380	-47	164	-194	-15708	-3076	-1700	-2	-50	-60	-2120	-1808	16452	11	-101	135	-9128	3560	13508	139	-45	-180	-16484	620	-2548	82	-16	111	-1200	3104	16772	217	-18	29	127	127	5
-10512	-2968	11484	-115	189	-188	-15684	-3068	-1812	-43	-75	-70	-2180	-1760	16320	65	-125	155	-9112	3552	13440	84	-69	-173	-16464	616	-2620	94	-66	136	-1272	3128	16708	246	1	48	127	127	5
-10484	-2968	11424	-59	151	-212	-15748	-3032	-1752	-1	-63	-90	-2188	-1780	16492	45	-103	172	-9048	3560	13424	155	-78	-177	-16428	612	-2664	90	-13	162	-1264	3136	16752	248	32	46	127	127	5
-10496	-2948	11400	-92	134	-190	-15792	-3096	-1632	-34	-67	-112	-2120	-1796	16424	46	-131	165	-9068	3532	13504	174	-47	-195	-16360	664	-2500	86	-6	139	-1272	3224	16700	250	8	-5	127	127	5
-10484	-2928	11456	-95	171	-188	-15720	-3176	-1800	-16	-84	-98	-2068	-1856	16356	68	-155	204	-9104	3588	13540	167	-50	-165	-16388	644	-2456	62	22	124	-1332	3272	16668	183	40	26	127	127	5
-10496	-2940	11424	-94	147	-207	-15792	-3196	-1688	1	-43	-51	-2088	-1844	16428	7	-141	191	-9112	3560	13484	140	-23	-169	-16424	676	-2584	28	-11	126	-1264	3260	16772	167	-7	23	127	127	5
-10464	-2992	11540	-82	158	-195	-15732	-3160	-1780	56	-68	-57	-2192	-1924	16464	54	-89	220	-9080	3552	13488	139	-82	-166	-16408	620	-2588	15	4	118	-1280	3232	16696	187	11	31	127	127	5
-10528	-2972	11324	-95	147	-195	-15704	-3188	-1740	36	-50	-59	-2064	-1868	16484	69	-98	141	-9088	3508	13564	149	-58	-133	-16404	620	-2696	43	-43	110	-1296	3252	16844	169	21	22	127	127	5
-10536	-2936	11504	-98	150	-188	-15708	-3160	-1744	12	-65	-23	-2112	-1904	16384	41	-89	134	-9084	3580	13552	132	-47	-182	-16428	576	-2588	92	-10	131	-1260	3172	16768	172	6	29	127	127	5
-10528	-3040	11476	-71	147	-194	-15736	-3124	-1672	-42	-38	-37	-2128	-1828	16288	62	-106	108	-9108	3568	13564	148	-68	-152	-16384	612	-2564	173	-90	130	-1272	3136	16728	122	23	41	127	128	5
-10476	-3044	11412	-91	140	-182	-15708	-3132	-1692	-56	-54	-43	-2192	-1748	16372	9	-89	71	-9056	3536	13588	140	-69	-171	-16392	584	-2556	89	-29	90	-1256	3108	16676	171	10	26	127	127	5
-10532	-3000	11620	-117	132	-154	-15748	-3092	-1740	-41	-53	-52	-2124	-1812	16300	9	-94	108	-9144	3548	13552	118	-38	-176	-16372	600	-2576	74	10	115	-1204	3164	16716	148	2	28	127	127	5
-10556	-2984	11576	-117	181	-181	-15700	-3036	-1716	-78	-35	-37	-2112	-1804	16392	23	-101	100	-9096	3572	13584	99	-33	-152	-16456	680	-2600	27	42	95	-1232	3180	16588	154	-4	4	127	128	5
-10508	-3008	11444	-104	161	-233	-15796	-3128	-1744	-4	-46	-42	-2204	-1808	16296	51	-127	140	-9080	3524	13548	131	-99	-174	-16372	568	-2548	-30	13	116	-1208	3076	16824	221	-1	15	127	127	5
-10500	-3048	11532	-109	193	-190	-15684	-3092	-1796	27	-22	-48	-2132	-1832	16364	2	-134	142	-9088	3620	13528	171	-71	-170	-16428	632	-2548	10	-10	120	-1252	3104	16696	203	29	17	127	127	5
-10524	-3040	11476	-132	182	-185	-15716	-3092	-1796	54	-50	-71	-2132	-1892	16484	54	-130	138	-9104	3556	13524	184	-84	-138	-16428	600	-2600	38	-9	118	-1316	3132	16664	184	47	29	127	128	5
-10564	-2972	11384	-70	154	-201	-15756	-3092	-1712	-6	-32	-64	-2156	-1852	16380	22	-96	184	-9064	3528	13488	168	-29	-129	-16420	584	-2672	101	-17	88	-1276	3200	16784	251	40	38	127	127	5
-10516	-2984	11492	-104	219	-193	-15772	-3112	-1776	-35	-45	-72	-2184	-1864	16392	17	-124	134	-9184	3568	13568	154	-94	-152	-16472	600	-2640	120	-10	154	-1308	3132	16620	202	-31	32	127	128	5
-10504	-3052	11472	-85	172	-187	-15716	-3076	-1916	-36	-52	-73	-2172	-1900	16452	23	-97	144	-9056	3508	13480	137	-75	-160	-16372	564	-2616	108	-16	148	-1316	3124	16628	236	11	32	127	128	5
-10504	-2960	11396	-93	151	-187	-15740	-3196	-1652	-9	-84	-97	-2176	-1912	16472	42	-107	154	-9100	3528	13596	136	-43	-182	-16352	668	-2508	91	-39	133	-1292	3152	16776	217	-12	62	127	128	5
-10520	-2920	11460	-103	177	-175	-15736	-3048	-1772	-45	-100	-80	-2172	-1892	16440	18	-125	126	-9068	3568	13500	184	-50	-142	-16396	556	-2524	71	-74	141	-1256	3168	16604	230	-6	43	127	128	5
-10520	-2976	11388	-49	160	-217	-15724	-3100	-1832	-38	-53	-69	-2188	-1772	16260	28	-122	127	-9124	3552	13556	120	-52	-156	-16456	512	-2600	14	-83	136	-1324	3192	16712	217	-26	19	127	128	5
-10512	-2984	11436	-66	156	-216	-15744	-3120	-1716	-24	-67	-52	-2148	-1836	16384	36	-137	120	-9080	3612	13608	174	-46	-174	-16444	628	-2600	33	-43	180	-1244	3116	16644	203	10	40	127	128	5
-10440	-2944	11464	-84	151	-191	-15740	-3088	-1780	3	-74	-55	-2140	-1788	16444	58	-132	137	-9096	3536	13528	118	-36	-145	-16408	584	-2588	61	-90	185	-1244	3152	16796	206	-15	16	127	128	5
-10500	-2948	11524	-71	136	-248	-15796	-3116	-1636	46	-55	-85	-2024	-1828	16464	19	-130	130	-9076	3536	13412	138	-50	-153	-16440	572	-2572	84	-20	135	-1232	3128	16716	190	31	14	127	128	5
-10496	-2932	11432	-68	156	-178	-15712	-3168	-1732	-12	-27	-83	-2096	-1844	16416	-5	-127	153	-9084	3576	13596	125	-79	-152	-16520	612	-2592	35	-14	152	-1236	3184	16792	188	13	18	127	127	5
-10512	-3000	11516	-73	167	-166	-15800	-3180	-1760	-9	-50	-60	-2092	-1900	16360	24	-124	141	-9108	3512	13592	131	-26	-173	-16464	676	-2752	85	27	99	-1236	3216	16788	142	32	-9	127	128	5
-10504	-2972	11528	-98	173	-193	-15736	-3152	-1856	25	-32	-77	-2096	-1824	16464	5	-114	137	-9152	3512	13588	156	-32	-140	-16424	660	-2628	37	-17	105	-1272	3192	16656	161	43	20	127	127	5
-10480	-2956	11540	-90	173	-194	-15792	-3148	-1676	-10	-28	-73	-2092	-1880	16396	-9	-141	115	-9068	3560	13512	144	-17	-166	-16428	704	-2600	66	-22	110	-1220	3204	16840	131	32	15	127	127	5
-10464	-3024	11500	-49	163	-168	-15776	-3088	-1684	-34	-37	-63	-2148	-1848	16444	-35	-148	114	-9116	3560	13440	141	-102	-167	-16432	600	-2600	36	-10	125	-1272	3212	16608	159	-8	2	127	127	5
-10528	-2972	11504	-71	165	-206	-15692	-3120	-1744	-39	-95	-72	-2108	-1820	16456	-2	-106	99	-9168	3544	13596	129	-83	-150	-16396	596	-2640	109	-19	126	-1220	3096	16736	169	19	-2	127	127	5
-10496	-2948	11504	-95	166	-179	-15788	-3108	-1796	-38	-17	-73	-2188	-1856	16292	-32	-101	109	-9088	3524	13448	111	-70	-170	-16380	556	-2676	108	1	129	-1204	3148	16796	190	-9	23	127	127	5
-10516	-3016	11476	-93	151	-183	-15728	-3160	-1776	-38	-24	-54	-2192	-1880	16396	15	-81	129	-9096	3572	13556	159	-82	-127	-16452	600	-2596	118	-41	113	-1336	3152	16652	186	15	-1	127	127	5
-10496	-3052	11456	-76	137	-202	-15712	-3156	-1772	-1	-59	-90	-2188	-1896	16416	6	-120	110	-9148	3480	13552	133	-28	-177	-16436	600	-2728	92	-39	101	-1260	3192	16768	162	9	-6	127	127	5
-10532	-3024	11528	-79	166	-200	-15752	-3116	-1724	22	-44	-113	-2152	-1832	16364	17	-103	122	-9088	3560	13552	131	-56	-149	-16416	588	-2568	63	-5	134	-1316	3140	16760	207	16	7	127	127	5
-10536	-2940	11560	-117	179	-181	-15788	-3160	-1860	28	-57	-56	-2176	-1912	16456	18	-99	155	-9056	3548	13492	125	-19	-174	-16356	668	-2708	30	-22	117	-1276	3240	16804	185	9	8	127	127	5
-10576	-2992	11544	-89	150	-222	-15816	-3152	-1788	46	-42	-92	-2120	-1892	16428	-15	-115	164	-9072	3552	13540	153	-48	-169	-16492	616	-2692	42	-15	129	-1344	3176	16728	144	16	20	127	127	5
-10504	-2952	11436	-70	184	-210	-15760	-3108	-1732	-16	-80	-89	-2092	-1828	16504	-18	-90	133	-9048	3560	13584	177	-90	-138	-16444	580	-2676	76	-35	121	-1260	3112	16860	156	0	27	127	127	5
-10476	-2976	11448	-45	186	-193	-15716	-3216	-1732	-32	-39	-70	-2108	-1924	16376	16	-108	120	-9008	3508	13456	130	-44	-161	-16440	528	-2604	99	-34	126	-1264	3104	16692	178	-47	34	127	127	5
-10516	-2976	11364	-118	115	-191	-15784	-3120	-1696	-53	-85	-91	-2152	-1884	16440	4	-106	156	-9036	3552	13500	166	-44	-170	-16440	684	-2588	111	-16	103	-1288	3152	16720	207	5	13	127	127	5
-10532	-2964	11472	-57	139	-189	-15672	-3196	-1648	-61	-70	-77	-2116	-1888	16408	27	-117	163	-9072	3532	13564	164	-40	-172	-16372	600	-2608	116	6	137	-1256	3164	16608	229	12	61	127	127	5
-10508	-2956	11444	-69	134	-177	-15780	-3172	-1772	-51	-48	-62	-2068	-1868	16464	22	-126	139	-9156	3576	13520	141	-43	-154	-16420	620	-2584	95	-42	142	-1236	3172	16700	184	-10	12	127	127	5
-10540	-2988	11464	-65	169	-200	-15720	-3184	-1828	26	2	-68	-2148	-1884	16488	9	-130	161	-9072	3524	13560	176	-55	-157	-16456	656	-2592	64	-6	116	-1228	3112	16736	194	-3	-18	127	127	5
-10440	-3004	11428	-44	178	-153	-15780	-3072	-1748	-8	-49	-62	-2164	-1840	16444	25	-113	166	-9052	3560	13644	165	-66	-171	-16432	608	-2688	26	-31	157	-1272	3124	16684	229	-2	-6	127	127	5
-10460	-2908	11392	-108	166	-173	-15688	-3140	-1712	-42	-76	-57	-2200	-1816	16448	10	-107	149	-9140	3528	13532	148	-61	-181	-16476	580	-2600	8	-28	118	-1236	3140	16696	217	13	-10	127	127	5
-10524	-3016	11420	-68	154	-174	-15760	-3088	-1820	-18	-47	-36	-2140	-1896	16392	33	-103	118	-9044	3604	13472	158	-54	-144	-16412	632	-2520	101	-46	146	-1264	3140	16752	240	2	-9	127	127	5
-10500	-2984	11468	-123	142	-172	-15708	-3220	-1608	21	-24	-75	-2140	-1904	16536	36	-128	142	-9068	3564	13524	131	-42	-165	-16476	556	-2576	87	11	137	-1232	3204	16704	237	-6	-2	127	127	5
-10548	-3044	11476	-58	173	-174	-15720	-3204	-1664	12	-41	-57	-2148	-1880	16368	55	-105	156	-9084	3532	13536	158	-23	-152	-16420	600	-2636	87	-5	161	-1228	3136	16676	210	14	-19	127	127	5
-10504	-3000	11584	-87	153	-196	-15712	-3132	-1812	-40	-10	-13	-2088	-1916	16396	12	-130	92	-9148	3552	13596	138	-57	-165	-16384	696	-2568	41	22	130	-1240	3184	16764	208	8	6	127	128	5
-10548	-3028	11564	-86	153	-210	-15780	-3172	-1748	-32	-29	-63	-2144	-1800	16392	40	-108	111	-9108	3528	13628	132	-71	-181	-16360	620	-2644	28	25	127	-1136	3224	16776	209	35	-19	127	127	5
-10484	-2968	11548	-61	169	-184	-15732	-3132	-1568	12	-3	-42	-2116	-1764	16544	20	-118	98	-9048	3552	13500	177	-36	-143	-16480	652	-2672	51	-12	135	-1324	3132	16712	180	13	6	127	128	5
-10440	-3032	11544	-103	151	-178	-15760	-3092	-1700	57	-23	-84	-2124	-1864	16416	-9	-129	123	-9068	3524	13556	137	-53	-157	-16392	616	-2616	64	1	129	-1288	3200	16648	216	9	11	127	127	5
-10532	-3008	11472	-78	152	-206	-15704	-3120	-1796	-27	-15	-59	-2100	-1764	16452	23	-126	127	-9068	3540	13492	185	-83	-163	-16404	644	-2608	83	2	156	-1236	3192	16800	198	4	14	127	127	5
-10488	-2988	11496	-109	175	-190	-15760	-3120	-1772	-34	-29	-35	-2160	-1896	16404	2	-85	138	-9100	3520	13440	154	-71	-174	-16496	624	-2640	110	-1	119	-1272	3216	16612	218	0	-5	127	127	5
-10540	-2980	11508	-74	146	-183	-15768	-3156	-1684	-22	-34	-87	-2160	-1844	16404	16	-85	159	-9088	3568	13528	166	-62	-158	-16392	632	-2636	119	2	157	-1300	3168	16772	253	14	-1	127	128	5
-10468	-3008	11552	-58	157	-190	-15740	-3152	-1744	-9	-51	-73	-2164	-1804	16380	0	-104	176	-9056	3548	13444	180	28	-189	-16376	592	-2688	115	-47	153	-1324	3264	16760	267	-24	-1	127	128	5
-10564	-3028	11508	-70	182	-187	-15744	-3156	-1760	31	-32	-82	-2236	-1864	16340	19	-123	165	-9096	3548	13588	137	-45	-145	-16376	624	-2604	85	-21	174	-1316	3248	16644	183	-26	-7	127	128	5
-10428	-2976	11416	-76	140	-208	-15788	-3160	-1716	3	-12	-73	-2188	-1812	16372	13	-118	128	-9136	3596	13504	156	-49	-166	-16400	600	-2512	72	-54	150	-1292	3188	16680	200	-11	12	127	127	5
-10544	-3032	11548	-86	143	-204	-15740	-3084	-1840	16	-38	-87	-2184	-1868	16372	12	-126	124	-9128	3564	13424	151	-50	-128	-16400	652	-2556	79	-40	164	-1248	3184	16796	218	-38	-11	127	128	5
-10504	-2940	11460	-88	162	-194	-15764	-3168	-1792	-18	-79	-106	-2112	-1820	16448	36	-125	107	-9064	3528	13492	149	-22	-158	-16416	644	-2628	61	0	153	-1164	3148	16796	231	-44	4	127	127	5
-10496	-3004	11532	-88	188	-199	-15748	-3120	-1900	33	-40	-65	-2208	-1932	16320	4	-121	105	-9140	3596	13524	136	-48	-127	-16368	632	-2504	89	-22	132	-1168	3212	16780	194	14	9	127	128	5
-10536	-3012	11420	-81	195	-183	-15704	-3108	-1736	7	-55	-53	-2140	-1876	16420	-24	-132	97	-9136	3564	13588	149	-51	-169	-16396	664	-2608	81	-46	149	-1168	3156	16692	193	-12	-22	127	128	5
-10540	-2952	11504	-81	148	-200	-15728	-3152	-1768	23	-81	-74	-2152	-1808	16420	-9	-108	133	-9088	3548	13528	127	-82	-169	-16472	708	-2620	136	-16	125	-1204	3224	16680	192	-9	30	127	127	5
-10472	-3008	11484	-94	152	-208	-15684	-3164	-1660	-64	-73	-93	-2096	-1852	16368	-16	-122	148	-9100	3552	13444	144	-51	-185	-16400	720	-2668	85	-31	156	-1156	3300	16728	199	15	51	127	127	5
-10516	-2972	11432	-119	169	-203	-15780	-3132	-1800	-31	-80	-72	-2012	-1836	16372	4	-116	146	-9124	3572	13460	138	-33	-163	-16456	636	-2548	-21	2	109	-1212	3304	16600	192	12	38	127	127	5
-10472	-2960	11520	-103	159	-182	-15780	-3172	-1656	-46	-63	-82	-2080	-1876	16492	-24	-107	145	-9092	3532	13660	152	-89	-182	-16416	684	-2724	-19	5	51	-1188	3376	16664	167	37	62	127	127	5
-10496	-2988	11484	-86	161	-162	-15772	-3052	-1844	-39	-47	-86	-2120	-1832	16356	-71	-105	163	-9092	3608	13472	125	-34	-192	-16496	732	-2604	-20	-25	55	-1284	3272	16756	102	77	66	127	127	5
-10552	-2988	11472	-89	175	-212	-15740	-3216	-1584	-6	-62	-104	-2096	-1928	16384	-41	-134	160	-9068	3560	13624	134	-10	-192	-16384	668	-2596	15	-26	27	-1276	3188	16752	106	40	87	127	127	5
-10484	-2968	11516	-86	174	-231	-15644	-3136	-1736	-13	-18	-90	-2148	-1800	16320	-42	-162	179	-9028	3544	13524	127	-69	-155	-16408	572	-2604	53	29	25	-1352	3232	16804	75	34	93	127	127	5
-10528	-3004	11552	-108	146	-202	-15752	-3124	-1720	-45	-41	-102	-2156	-1764	16340	-4	-129	153	-9096	3484	13584	135	-84	-165	-16376	528	-2608	124	-32	59	-1284	3164	16740	88	69	67	127	127	5
-10524	-2960	11516	-128	150	-174	-15764	-3092	-1732	-80	-55	-105	-2100	-1828	16460	-57	-146	191	-9052	3532	13468	135	-58	-168	-16456	516	-2816	194	-18	22	-1300	3064	16648	82	41	39	127	127	5
-10532	-2996	11460	-98	155	-206	-15708	-3160	-1648	-86	-45	-90	-2108	-1892	16380	-120	-102	164	-9072	3572	13636	124	-61	-157	-16432	548	-2592	124	-63	111	-1340	3072	16748	76	-38	-12	127	127	5
-10528	-3020	11536	-100	155	-200	-15696	-3284	-1736	-40	-15	-113	-2052	-1988	16404	-95	-93	149	-9140	3552	13516	133	-82	-168	-16412	588	-2648	89	-50	98	-1212	3112	16664	85	13	-42	127	127	5
-10564	-2964	11428	-99	190	-182	-15704	-3344	-1728	87	-26	-90	-2028	-2028	16400	-91	-90	106	-9084	3536	13528	156	-27	-135	-16440	612	-2668	27	-70	141	-1160	3012	16776	85	-41	-72	127	127	5
-10512	-2904	11452	-63	139	-173	-15752	-3284	-1656	182	-14	-15	-2052	-2064	16480	-21	-79	75	-9084	3540	13444	139	-76	-159	-16448	520	-2532	41	-39	119	-1236	3080	16688	120	-40	-97	127	127	5
-10600	-3036	11468	-23	171	-167	-15712	-3360	-1696	113	11	-14	-2088	-2144	16340	55	-53	10	-9048	3508	13468	163	-78	-152	-16408	504	-2536	79	-13	147	-1324	3028	16708	175	-38	-120	127	127	5
-10536	-3012	11404	-80	133	-174	-15716	-3268	-1740	87	36	8	-2096	-2088	16404	138	-35	21	-9084	3532	13560	143	-64	-139	-16484	556	-2604	108	-4	204	-1308	3044	16608	187	-47	-70	127	127	5
-10504	-3012	11540	-36	133	-161	-15712	-3196	-1760	33	11	85	-2172	-2096	16336	151	-62	32	-9120	3544	13416	159	-8	-161	-16432	596	-2572	147	3	184	-1296	3056	16676	181	-25	-82	127	127	5
-10528	-3020	11396	-26	108	-189	-15704	-3300	-1736	-40	-30	93	-2228	-2016	16388	191	-13	5	-9052	3560	13568	156	-30	-177	-16460	640	-2536	131	-2	192	-1240	3148	16688	300	-62	36	127	127	5
-10480	-2992	11476	-8	94	-167	-15676	-3188	-1672	-17	-28	81	-2152	-1960	16372	205	-10	34	-9100	3500	13500	134	-22	-174	-16408	652	-2612	130	3	158	-1200	3152	16776	300	-23	56	127	127	5
-10536	-3016	11488	-34	108	-182	-15704	-3156	-1832	-5	-61	121	-2260	-1916	16456	256	-13	53	-9068	3556	13596	179	-41	-155	-16508	616	-2608	72	24	152	-1256	3092	16744	355	-32	88	127	127	5
-10592	-3116	11380	1	104	-166	-15676	-3128	-1572	39	-38	85	-2236	-1572	16428	375	-49	153	-9148	3616	13512	177	-4	-167	-16464	540	-2564	38	35	170	-1176	3032	16664	337	-21	155	127	127	5
-10424	-2756	11584	-52	113	-170	-15824	-2956	-1740	-34	-4	73	-2224	-1808	16316	261	-80	202	-9116	3536	13576	180	-34	-150	-16436	468	-2620	117	3	210	-1284	2968	16724	419	21	165	127	128	5
-10504	-2980	11512	-103	143	-174	-15744	-3008	-1708	-137	-79	46	-2208	-1800	16420	365	-114	246	-9012	3592	13524	185	-73	-152	-16368	556	-2532	123	-5	203	-1204	3016	16688	445	-28	154	127	128	5
-10540	-2948	11416	-25	130	-210	-15732	-3208	-1660	-43	-107	-22	-2196	-1728	16376	354	-158	272	-9124	3572	13600	165	-53	-158	-16432	516	-2640	109	34	212	-1304	3140	16656	524	-14	155	127	128	5
-10524	-3008	11448	-25	110	-167	-15796	-3152	-1648	114	-82	15	-2152	-1752	16380	224	-166	279	-9060	3524	13536	169	-23	-145	-16396	584	-2708	85	36	257	-1344	3180	16732	502	-36	89	127	129	5
-10548	-2984	11428	-42	139	-188	-15768	-3164	-1544	115	-107	8	-2060	-1796	16412	227	-138	188	-9124	3564	13664	178	9	-149	-16436	676	-2568	65	-41	262	-1340	3272	16752	449	-48	61	127	128	5
-10476	-2948	11524	-59	136	-158	-15768	-3136	-1580	10	-85	23	-2084	-1788	16536	174	-129	133	-9132	3496	13492	169	-59	-146	-16448	700	-2588	52	-41	268	-1316	3384	16740	374	-63	36	127	129	5
-10492	-2980	11532	-63	170	-193	-15768	-3144	-1608	87	-73	-8	-2080	-1796	16416	181	-106	106	-9080	3588	13520	192	-47	-167	-16460	652	-2636	66	8	271	-1184	3268	16648	339	-64	-20	127	129	5
-10504	-2972	11536	-63	126	-204	-15808	-3160	-1784	54	-66	55	-2116	-1788	16500	189	-118	77	-9128	3560	13456	226	-30	-149	-16424	664	-2600	55	-58	239	-1228	3408	16620	319	-60	-31	127	129	5
-10528	-3020	11552	-88	147	-177	-15760	-3128	-1752	26	-49	28	-2156	-1804	16436	122	-102	65	-9108	3584	13524	164	-27	-165	-16476	780	-2592	119	2	253	-1188	3400	16660	321	-19	-67	127	129	5
-10528	-2988	11396	-87	129	-179	-15752	-3108	-1716	-14	-30	21	-2132	-1704	16484	88	-108	-31	-9124	3528	13560	157	-11	-155	-16460	744	-2644	122	12	190	-1180	3524	16688	249	-24	-73	127	129	5
-10508	-2928	11508	-61	154	-177	-15736	-3080	-1632	-14	-57	35	-2092	-1744	16460	71	-89	-15	-9104	3548	13564	133	-72	-155	-16384	804	-2608	72	8	180	-1212	3464	16708	183	-26	-86	127	128	5
-10492	-2960	11528	-74	152	-171	-15796	-3060	-1780	-4	-57	23	-2116	-1672	16544	69	-113	18	-9048	3608	13600	157	-75	-148	-16480	848	-2608	22	-36	150	-1136	3408	16768	116	13	-24	127	128	5
-10464	-2996	11524	-76	122	-227	-15760	-3072	-1808	-12	-61	-34	-2112	-1632	16320	32	-114	48	-9108	3608	13492	158	-46	-156	-16432	800	-2644	-42	-12	105	-1208	3400	16592	90	-5	5	127	128	5
-10484	-3008	11460	-63	122	-146	-15736	-3020	-1668	-11	-38	-15	-2224	-1612	16496	37	-134	60	-9056	3576	13536	89	-28	-210	-16360	768	-2756	6	-42	69	-1164	3364	16804	102	4	88	127	128	5
-10508	-2988	11488	-71	173	-207	-15776	-2964	-1860	-21	-70	-44	-2192	-1620	16348	44	-142	139	-9120	3556	13552	121	-58	-167	-16384	708	-2568	70	-29	23	-1128	3332	16668	65	55	94	127	128	5
-10484	-2924	11500	-97	173	-169	-15756	-2916	-1816	-6	-45	-88	-2248	-1644	16252	41	-169	149	-9112	3520	13484	107	-16	-200	-16424	652	-2788	63	-32	18	-1236	3272	16748	74	41	162	126	128	5
-10476	-2988	11440	-74	170	-188	-15764	-2976	-1828	-32	-63	-112	-2144	-1556	16480	-14	-176	177	-9160	3564	13580	164	-93	-163	-16408	740	-2524	134	-61	-28	-1288	3332	16652	71	79	227	127	128	5
-10516	-3000	11500	-78	167	-199	-15740	-2988	-1740	-11	-78	-165	-2220	-1628	16456	-54	-180	193	-9136	3512	13620	95	-43	-170	-16428	716	-2580	57	-68	-9	-1296	3256	16784	53	42	196	127	128	5
-10484	-2996	11560	-109	208	-211	-15780	-3016	-1676	-23	-52	-180	-2148	-1652	16380	-91	-182	205	-9112	3524	13456	116	-91	-167	-16468	636	-2628	17	-85	20	-1228	3180	16676	60	27	190	127	128	5
-10496	-2924	11492	-132	164	-200	-15828	-3000	-1560	-38	-76	-224	-2152	-1692	16416	-159	-156	185	-9080	3548	13476	106	-65	-175	-16452	608	-2504	53	-103	-19	-1180	3128	16688	47	48	118	127	129	5
-10512	-2984	11492	-101	181	-194	-15808	-3040	-1636	-23	-56	-179	-2044	-1688	16436	-183	-147	143	-8988	3564	13504	101	-45	-185	-16420	616	-2504	2	-78	12	-1204	3116	16808	10	52	90	127	128	5
-10492	-2956	11428	-123	206	-243	-15772	-2964	-1724	-15	-57	-211	-2080	-1732	16452	-211	-122	198	-9136	3584	13396	97	-73	-165	-16448	652	-2564	69	-50	2	-1188	3144	16744	49	41	40	127	128	5
-10484	-2940	11428	-131	216	-253	-15784	-3124	-1736	-56	-42	-186	-2096	-1828	16440	-223	-146	145	-9140	3476	13492	102	-41	-170	-16396	644	-2568	44	-38	59	-1176	3092	16748	31	17	13	127	129	5
-10520	-2960	11580	-110	206	-211	-15700	-3156	-1748	-43	-74	-201	-2080	-1912	16464	-210	-139	161	-9104	3484	13504	146	-88	-162	-16424	612	-2604	22	-39	43	-1260	3092	16676	78	49	-39	127	128	5
-10464	-3000	11460	-157	209	-232	-15764	-3176	-1776	-38	-63	-175	-2008	-1964	16384	-207	-127	147	-9088	3572	13432	123	-61	-158	-16360	588	-2580	55	-52	48	-1200	3156	16780	63	40	-1	127	128	5
-10472	-2976	11464	-118	176	-202	-15704	-3160	-1732	-23	-3	-169	-2080	-1964	16440	-180	-104	142	-9076	3524	13524	117	-43	-166	-16408	620	-2536	17	-2	42	-1316	3124	16768	44	52	-54	127	128	5
-10472	-3040	11380	-130	216	-206	-15760	-3232	-1804	23	-47	-162	-2124	-1904	16320	-113	-123	104	-9072	3488	13492	131	-75	-179	-16388	628	-2524	48	-12	67	-1220	3116	16580	34	43	-14	127	128	5
-10480	-3048	11444	-109	187	-208	-15720	-3168	-1812	-21	-27	-115	-2036	-1912	16444	-106	-115	161	-9064	3528	13616	131	-66	-164	-16388	676	-2612	98	-19	77	-1216	3164	16744	62	26	-32	127	128	5
-10484	-3024	11468	-117	170	-200	-15680	-3232	-1676	-63	-39	-142	-2144	-1936	16500	-116	-121	80	-9096	3584	13520	127	-60	-151	-16476	580	-2544	57	-24	64	-1188	3164	16724	83	56	-16	127	127	5
-10472	-2988	11508	-117	173	-163	-15780	-3288	-1632	-62	-30	-135	-2100	-1936	16396	-98	-149	125	-9148	3564	13600	122	-100	-178	-16468	568	-2560	37	-20	69	-1228	3148	16680	80	36	-4	127	127	5
-10436	-2960	11472	-111	157	-185	-15740	-3200	-1796	-26	-29	-84	-2152	-2000	16376	-68	-150	130	-9104	3592	13556	108	-58	-164	-16380	660	-2576	79	-58	59	-1272	3128	16716	99	52	21	127	127	5
-10516	-3024	11504	-100	172	-162	-15744	-3208	-1664	-13	-18	-62	-2132	-1908	16468	-22	-102	150	-9112	3556	13488	94	-74	-205	-16452	628	-2528	40	-7	82	-1260	3096	16732	104	18	47	127	127	5
-10516	-2960	11548	-86	190	-160	-15724	-3196	-1792	11	-82	-66	-2116	-1976	16312	16	-146	138	-9124	3524	13628	119	-37	-132	-16428	552	-2596	71	-21	91	-1256	3072	16744	128	0	45	127	127	5
-10552	-2984	11416	-105	162	-204	-15740	-3156	-1720	14	-76	-30	-2148	-1864	16320	30	-95	146	-9112	3568	13580	140	-93	-168	-16484	548	-2600	60	-39	98	-1236	3104	16792	156	-14	60	127	127	5
-10536	-3012	11536	-70	168	-203	-15676	-3056	-1760	2	-65	-61	-2160	-1868	16340	37	-85	147	-9096	3532	13552	143	-74	-163	-16416	604	-2476	75	-13	123	-1264	3120	16756	176	14	32	127	127	5
-10484	-2964	11484	-79	168	-232	-15744	-3144	-1872	-47	-108	-39	-2160	-1872	16424	49	-112	145	-9100	3464	13484	154	-108	-123	-16408	536	-2668	93	-25	95	-1304	3068	16704	195	-27	-9	127	127	5
-10544	-2976	11540	-104	150	-188	-15732	-3156	-1704	-49	-62	-79	-2032	-1884	16404	41	-150	168	-9112	3536	13624	130	-57	-150	-16472	572	-2608	98	-16	107	-1228	3132	16800	201	-25	-15	127	127	5
-10536	-3060	11456	-85	142	-177	-15736	-3164	-1724	11	-87	-52	-2072	-1856	16520	68	-90	167	-9044	3560	13556	140	5	-152	-16444	656	-2464	80	-48	124	-1164	3160	16868	195	12	-21	127	127	5
-10444	-2944	11488	-98	155	-163	-15736	-3136	-1688	30	-31	-111	-2060	-1980	16484	55	-75	242	-9072	3512	13524	153	-76	-172	-16468	600	-2440	-21	3	113	-1112	3128	16864	240	56	7	127	127	5
-10492	-3024	11524	-96	159	-180	-15768	-3156	-1644	18	-35	-55	-1996	-1988	16352	89	-63	252	-9036	3548	13552	138	-1	-163	-16424	628	-2544	-55	73	110	-1096	3144	16828	244	130	82	127	127	5
-10524	-3036	11552	-79	120	-208	-15704	-3268	-1720	44	21	-52	-2000	-2020	16284	148	-35	321	-9092	3560	13652	163	-44	-130	-16436	608	-2540	-24	34	79	-1124	3184	16824	274	95	144	127	127	5
-10464	-3008	11480	-89	163	-187	-15760	-3324	-1736	52	-15	-51	-2024	-1992	16444	172	-14	313	-9084	3520	13572	113	-72	-176	-16484	604	-2564	-17	36	95	-1208	3124	16664	270	158	192	127	127	5
-10480	-3052	11512	-44	139	-187	-15744	-3300	-1756	18	16	11	-2048	-2068	16340	213	-23	275	-9100	3552	13512	132	-23	-178	-16456	620	-2572	83	60	59	-1396	3096	16808	283	115	200	127	127	5
