#Activity	standing 
#ActivityID	8 
#Date 09-07-15-53
acc_rf_x	acc_rf_y	acc_rf_z	gyro_rf_x	gyro_rf_y	gyro_rf_z	acc_rs_x	acc_rs_y	acc_rs_z	gyro_rs_x	gyro_rs_y	gyro_rs_z	acc_rt_x	acc_rt_y	acc_rt_z	gyro_rt_x	gyro_rt_y	gyro_rt_z	acc_lf_x	acc_lf_y	acc_lf_z	gyro_lf_x	gyro_lf_y	gyro_lf_z	acc_ls_x	acc_ls_y	acc_ls_z	gyro_ls_x	gyro_ls_y	gyro_ls_z	acc_lt_x	acc_lt_y	acc_lt_z	gyro_lt_x	gyro_lt_y	gyro_lt_z	EMG_r	EMG_l	act
-8436	-2312	13452	-13	25	-12	-15904	-4488	912	-17	-16	23	-16128	136	-3600	-100	23	19	-9512	3536	13584	22	-9	-7	-16176	2216	96	22	-37	5	-16120	-328	-896	25	34	10	120	128	8
-8512	-2192	13476	-15	32	-13	-16144	-4208	744	1	-13	22	-15776	280	-3888	-95	45	22	-9536	3504	13192	18	-8	-11	-16040	2456	-88	18	-26	7	-16168	-360	-1112	21	48	8	121	127	8
-8532	-2120	13488	-11	41	-10	-16360	-3896	72	-21	-27	24	-15440	352	-4064	-143	84	34	-9208	3432	13792	14	-11	-16	-16168	2456	112	1	-17	6	-16232	-216	-1032	14	54	10	121	127	8
-8540	-2132	13468	-15	45	-13	-16088	-3984	96	-48	-58	16	-15080	240	-4168	-192	150	48	-9376	3520	13376	15	-16	-16	-16032	2520	-16	-7	-10	12	-16192	-248	-992	-9	58	15	121	127	8
-8600	-2144	13452	-21	39	-24	-16080	-4224	392	-67	-91	16	-14792	344	-3512	-259	240	57	-9280	3536	13376	16	-7	-17	-16088	2448	-128	-5	-6	14	-16288	-216	-1056	-20	73	11	122	127	8
-8640	-2212	13404	-17	30	-24	-16216	-3928	512	-63	-101	14	-14776	416	-2784	-340	344	81	-9376	3352	13576	19	-2	-15	-16144	2488	24	-15	3	15	-16336	-256	-1232	-38	73	8	123	127	8
-8608	-2268	13432	-27	31	-25	-16112	-4192	536	-83	-125	15	-14928	584	-3120	-399	397	111	-9440	3496	13432	22	2	-16	-16040	2440	96	-37	4	18	-16096	-248	-1584	-30	87	4	125	128	8
-8608	-2124	13324	-24	26	-32	-15904	-4472	672	-71	-132	15	-15672	456	-4104	-346	367	129	-9616	3440	13488	22	10	-17	-16256	2416	-280	-30	-10	16	-16208	-264	-1744	-20	108	-1	125	128	8
-8432	-2284	13332	-18	29	-20	-15912	-4432	728	-64	-123	18	-16168	120	-5264	-159	172	116	-9560	3504	13592	18	3	-18	-16168	2248	-456	9	-34	20	-15992	32	-1752	6	124	9	125	128	8
-8616	-2208	13304	-13	31	-9	-16024	-4480	632	-40	-92	28	-16600	160	-5976	21	14	108	-9464	3544	13752	15	-3	-12	-15952	2408	-288	41	-50	11	-16016	-64	-1696	6	119	20	124	128	8
-8524	-2260	13456	-12	29	-15	-16080	-4536	928	-36	-86	36	-16480	-88	-5232	236	-18	53	-9592	3360	13440	6	-4	-16	-15976	2752	80	26	-44	15	-16160	8	-1264	-4	111	17	123	129	8
-8536	-2164	13388	-10	29	-10	-16088	-4240	904	-42	-84	41	-16184	40	-4488	238	-52	32	-9552	3488	13528	13	-11	-14	-16168	2576	-8	-9	-34	19	-16280	-168	-1432	-14	122	15	123	129	8
-8596	-2160	13432	-18	40	-11	-15832	-4344	824	-49	-68	41	-16120	-8	-4232	122	-57	35	-9464	3368	13664	13	-4	-17	-16120	2232	64	-26	-33	23	-16416	-232	-1480	-46	134	16	122	129	8
-8644	-2160	13384	-9	31	-17	-15872	-4328	1040	-38	-60	48	-15872	56	-3608	15	-54	42	-9352	3528	13448	24	-1	-16	-16024	2448	72	-19	-23	26	-16432	-232	-1176	-69	137	25	124	129	8
-8508	-2256	13448	-12	27	-18	-15792	-4624	1192	-12	-30	47	-15800	80	-3728	-23	-35	41	-9480	3384	13464	18	-12	-10	-15896	2520	256	-12	-17	23	-16208	-80	-1000	-58	119	21	122	129	8
-8580	-2328	13312	-4	23	-11	-16024	-4232	1120	1	-9	53	-15880	232	-4040	-37	-32	42	-9512	3488	13592	8	-9	-14	-15840	2648	296	-3	1	17	-16376	-104	-824	-63	93	18	122	130	8
-8504	-2276	13488	-3	28	-2	-16272	-4240	728	-15	-11	57	-15824	592	-4144	-38	-24	31	-9264	3568	13664	8	-16	-15	-15856	2616	520	-12	24	16	-16264	-232	-1048	-56	89	9	121	130	8
-8556	-2060	13452	-6	26	-5	-16096	-4080	696	-46	-23	62	-15872	760	-4408	-79	-23	24	-9528	3448	13528	5	-16	-18	-16216	2592	176	-29	43	12	-16384	-224	-1400	-47	94	9	121	130	8
-8620	-2172	13416	-8	30	-5	-16024	-4120	760	-57	-25	60	-15664	576	-4800	-101	-35	15	-9456	3360	13576	4	-11	-22	-16256	2312	-8	-24	47	5	-16400	-176	-1656	-33	96	14	121	130	8
-8628	-2184	13480	-5	28	-4	-16016	-4176	568	-57	-26	57	-15488	640	-4424	-113	-40	10	-9504	3608	13400	10	-6	-15	-16176	2552	-8	5	41	8	-16136	-56	-1688	-17	102	17	121	130	8
-8576	-2084	13400	-7	25	-10	-16184	-3920	1056	-54	-23	58	-15576	624	-4256	-112	-53	6	-9272	3816	13616	13	-12	-15	-16008	2432	216	8	52	7	-16048	120	-1776	-9	93	18	121	130	8
-8548	-2180	13436	-7	23	-10	-16136	-3984	944	-51	-24	51	-15776	712	-4400	-103	-55	1	-9560	3456	13472	7	-10	-17	-16032	2680	144	-3	55	2	-16120	72	-1912	-19	78	14	121	130	8
-8568	-2188	13448	-7	25	-8	-16144	-3968	800	-47	-25	48	-15608	600	-4312	-100	-45	-3	-9432	3472	13336	9	-12	-18	-16080	2520	176	-24	66	1	-16088	-48	-2088	-37	85	5	120	130	8
-8596	-2068	13408	-10	29	-13	-16248	-3896	848	-53	-32	46	-15568	696	-4424	-101	-38	-4	-9432	3312	13552	11	-7	-22	-16248	2464	-248	-30	60	1	-16288	208	-2168	-49	82	4	120	129	8
-8632	-2164	13468	-18	22	-17	-16112	-4080	416	-52	-33	46	-15584	616	-4104	-107	-35	-10	-9360	3632	13336	9	-3	-21	-16128	2472	-352	-22	55	3	-16032	96	-2328	-57	86	1	120	129	8
-8704	-2220	13344	-16	21	-21	-15864	-4200	888	-47	-30	45	-15576	400	-4400	-97	-34	-9	-9584	3624	13520	10	-8	-18	-15968	2472	-184	-9	50	0	-16072	56	-2032	-58	89	1	121	130	8
-8640	-2192	13452	-9	18	-17	-16104	-4064	896	-27	-29	38	-15792	536	-4296	-107	-35	-13	-9392	3568	13232	11	-7	-17	-16136	2720	-8	-20	55	-4	-16232	216	-2008	-72	87	-7	120	130	8
-8712	-2140	13356	-10	22	-15	-16168	-4120	1080	-51	-42	40	-15832	456	-4360	-111	-39	-13	-9440	3496	13544	9	-8	-18	-15968	2504	-120	-30	51	-6	-16144	80	-1944	-75	77	-7	120	130	8
-8640	-2096	13392	-13	21	-16	-16048	-4096	856	-56	-38	33	-15712	552	-4040	-108	-32	-16	-9528	3464	13512	12	-8	-17	-16024	2664	-224	-25	48	-2	-16128	-168	-2056	-74	66	-7	120	130	8
-8592	-2132	13304	-15	18	-16	-16112	-3952	904	-47	-34	40	-15584	448	-4432	-101	-34	-16	-9392	3272	13312	13	-3	-19	-16072	2544	-312	-21	51	-12	-16208	-120	-2032	-55	65	-10	120	130	8
-8640	-2064	13420	-17	14	-20	-15936	-4080	824	-35	-30	32	-15864	608	-4336	-104	-36	-18	-9352	3384	13512	12	-6	-11	-16064	2728	-264	-12	56	-6	-16112	264	-1920	-48	55	-8	120	130	8
-8660	-2172	13376	-16	13	-21	-16032	-4088	848	-34	-25	29	-15696	440	-3952	-98	-46	-23	-9376	3496	13392	10	-14	-14	-16048	2800	-368	-26	64	-8	-16264	88	-1880	-52	61	-13	120	130	8
-8600	-2176	13424	-13	18	-21	-16144	-4024	760	-38	-21	31	-15784	600	-4400	-116	-47	-30	-9432	3336	13784	6	-10	-13	-16032	2568	-600	-24	63	-13	-16192	112	-2088	-61	53	-9	121	130	8
-8660	-2136	13412	-14	17	-24	-16072	-3984	824	-40	-22	29	-15800	688	-4232	-120	-48	-35	-9296	3488	13656	7	-4	-15	-16240	2640	-192	-20	69	-17	-16104	152	-2104	-60	50	-17	121	130	8
-8632	-2196	13412	-15	14	-26	-16152	-3872	832	-48	-26	25	-15592	640	-4344	-125	-47	-36	-9448	3496	13624	7	-12	-15	-16080	2608	-96	-22	66	-22	-16072	232	-2208	-55	48	-17	120	130	8
-8616	-2148	13400	-15	12	-28	-16024	-4016	912	-55	-30	23	-15632	480	-4248	-122	-46	-41	-9424	3264	13392	8	-9	-20	-16112	2432	-448	-27	63	-19	-16080	-64	-2424	-54	46	-20	121	130	8
-8600	-2152	13308	-15	13	-27	-16080	-4160	760	-40	-25	18	-15496	512	-4200	-127	-46	-42	-9512	3528	13392	14	2	-18	-16168	2440	-568	-15	58	-22	-16032	-40	-2232	-50	45	-21	120	130	8
-8624	-2112	13404	-19	12	-23	-16152	-4080	760	-33	-27	21	-15656	400	-4304	-110	-41	-40	-9408	3400	13408	11	-8	-18	-16048	2408	-216	13	46	-21	-16248	96	-2264	-29	31	-21	121	130	8
-8636	-2200	13332	-18	15	-25	-16024	-4096	880	-36	-32	22	-15640	160	-4192	-102	-36	-38	-9272	3480	13600	7	2	-26	-16120	2632	-208	2	50	-17	-16136	56	-2520	-19	22	-18	122	130	8
-8568	-2256	13356	-15	7	-25	-16128	-4024	760	-32	-26	23	-15664	120	-4120	-85	-30	-32	-9488	3528	13504	9	-4	-21	-16208	2616	-304	-5	45	-24	-16104	64	-2192	-3	30	-22	121	130	8
-8612	-2204	13416	-13	10	-25	-16008	-4176	752	-21	-25	19	-15712	144	-4016	-66	-21	-24	-9456	3288	13440	7	1	-24	-16088	2456	-400	-13	50	-15	-16216	-24	-2304	-8	26	-20	121	130	8
-8612	-2152	13368	-13	13	-25	-15968	-3920	728	-21	-22	21	-15832	120	-4368	-62	-13	-19	-9392	3120	13464	14	-3	-21	-16000	2624	-464	-8	48	-24	-16080	88	-2168	-12	21	-14	121	130	8
-8632	-2192	13492	-14	9	-27	-16016	-4080	944	-17	-19	17	-15752	456	-4168	-77	-20	-9	-9200	3336	13640	9	-1	-26	-16080	2584	-360	-11	51	-21	-16168	-72	-2160	-16	17	-11	122	130	8
-8636	-2136	13380	-13	6	-31	-15952	-4016	792	-19	-12	23	-15704	296	-4024	-77	-30	-9	-9312	3728	13552	5	-4	-23	-16064	2456	-240	1	50	-26	-15952	-24	-2688	-22	28	-14	121	130	8
-8616	-2136	13400	-10	6	-25	-16288	-4048	864	-21	-4	20	-15824	464	-3904	-71	-35	-9	-9464	3464	13520	11	1	-22	-16080	2424	-136	-23	52	-22	-16008	152	-2576	-36	29	-19	121	130	8
-8612	-2092	13416	-15	7	-27	-16056	-4064	984	-26	-17	19	-15744	704	-4248	-81	-32	-19	-9552	3272	13352	5	1	-19	-16192	2312	-344	-36	47	-27	-16000	8	-2288	-56	27	-27	121	130	8
-8632	-2068	13464	-14	12	-25	-16080	-3912	552	-43	-19	19	-15840	752	-4072	-91	-34	-26	-9480	3312	13336	11	-4	-24	-16176	2448	-600	-51	56	-19	-16096	48	-2360	-71	21	-28	120	130	8
-8600	-2224	13408	-17	12	-35	-16072	-3984	800	-65	-31	10	-15672	632	-4144	-120	-36	-35	-9464	3544	13392	3	2	-27	-16040	2512	-720	-57	53	-14	-16152	-144	-2576	-73	21	-23	121	130	8
-8584	-2280	13360	-17	14	-31	-16048	-4056	616	-64	-31	16	-15520	464	-4120	-125	-49	-36	-9424	3400	13488	13	3	-25	-16128	2496	-688	-43	41	-19	-16112	-96	-2504	-61	21	-27	121	131	8
-8552	-2128	13520	-18	17	-29	-16184	-3896	888	-45	-28	13	-15712	424	-4360	-110	-42	-45	-9568	3376	13552	12	3	-21	-15968	2504	-528	-25	29	-21	-15960	-80	-2584	-42	20	-26	120	130	8
-8624	-2064	13344	-18	16	-32	-16024	-3960	944	-51	-30	12	-15448	344	-4088	-86	-33	-37	-9392	3376	13520	12	6	-21	-16048	2344	-624	-19	25	-20	-15960	-160	-2576	-29	12	-27	121	130	8
-8596	-2108	13356	-21	15	-27	-15952	-4080	1040	-43	-26	6	-15584	304	-4208	-87	-35	-32	-9504	3296	13416	8	-4	-17	-16168	2472	-840	-13	17	-25	-15968	-312	-2712	-14	7	-26	121	131	8
-8636	-2144	13408	-18	18	-26	-16104	-4176	1088	-29	-23	2	-15608	136	-4320	-84	-30	-20	-9448	3408	13624	10	-8	-20	-16216	2360	-800	-3	7	-20	-16096	-328	-2392	3	0	-16	121	130	8
-8536	-2200	13432	-17	17	-31	-16144	-4128	864	-15	-15	4	-15544	32	-4240	-52	-28	-12	-9544	3360	13424	8	-8	-21	-16104	2424	-872	6	2	-18	-16144	-136	-2472	19	-3	-18	121	130	8
-8620	-2240	13460	-18	17	-30	-16176	-4176	1000	14	-8	-3	-15808	-152	-4080	-17	-18	1	-9304	3584	13456	11	-7	-19	-16088	2536	-264	6	4	-22	-16088	-240	-2296	31	-11	-14	121	130	8
-8632	-2240	13448	-12	14	-30	-16008	-4144	1120	34	-5	-3	-15704	-16	-3832	20	-9	6	-9416	3392	13552	6	0	-19	-16208	2296	-448	4	-1	-17	-16120	-296	-2528	44	-16	-9	121	130	8
-8616	-2176	13424	-13	14	-28	-16072	-4056	808	33	0	1	-15824	-24	-3960	29	-6	19	-9528	3312	13528	13	-14	-16	-16008	2336	-936	15	-6	-12	-16040	-192	-2424	54	-18	-1	121	130	8
-8544	-2180	13392	-15	9	-33	-16088	-4120	976	23	3	3	-15840	-72	-4432	31	-11	30	-9432	3520	13760	10	-7	-16	-16104	2432	-504	34	-6	-14	-16128	-128	-2464	52	-27	2	121	130	8
-8544	-2172	13392	-13	9	-31	-15952	-4088	920	32	14	4	-15736	-8	-3976	39	-17	35	-9288	3480	13544	16	-8	-9	-16072	2320	-720	31	-9	-14	-16128	-88	-2176	63	-30	0	121	130	8
-8588	-2232	13408	-10	5	-29	-15920	-4008	1136	53	22	3	-15664	208	-3696	50	-25	41	-9416	3416	13504	15	-1	-13	-16096	2616	-296	25	-5	-10	-16272	-328	-2344	66	-33	-3	120	130	8
-8584	-2168	13472	-9	9	-32	-16168	-4176	856	54	28	8	-15848	264	-4240	46	-20	38	-9424	3160	13680	13	-5	-18	-16112	2352	-856	8	0	-11	-16016	-288	-2424	69	-30	-4	120	130	8
-8548	-2172	13360	-9	15	-26	-16304	-4112	768	48	22	8	-15880	432	-4072	40	-16	37	-9432	3096	13536	18	11	-14	-16048	2376	-664	13	-8	-11	-15904	-264	-2688	73	-36	7	120	130	8
-8600	-2244	13376	-11	18	-26	-15992	-4136	768	21	10	12	-15744	264	-4128	45	-4	34	-9360	3440	13616	20	-1	-13	-15944	2496	-856	32	-23	-8	-16000	-136	-2512	84	-43	15	120	130	8
-8624	-2176	13456	-8	6	-28	-16064	-4064	864	14	3	18	-15696	128	-4288	22	-15	34	-9488	3288	13576	13	-3	-13	-16224	2560	-600	26	-24	-5	-15912	88	-2568	99	-34	9	119	130	8
-8576	-2240	13376	-11	13	-23	-16048	-4072	720	34	16	11	-15608	320	-4264	17	-24	35	-9528	3328	13400	15	-9	-12	-16128	2504	-992	43	-29	-4	-16048	-160	-2192	90	-23	14	119	129	8
-8544	-2064	13384	-12	15	-22	-16096	-4056	744	35	8	18	-15856	368	-3976	39	-21	32	-9344	3456	13512	14	7	-8	-16056	2632	-584	48	-32	-1	-16096	-128	-2112	79	-19	11	119	129	8
-8592	-2192	13408	-11	13	-28	-16136	-3936	856	32	5	13	-15776	320	-4248	54	-14	32	-9360	3360	13600	19	3	-15	-16040	2416	-400	24	-19	-9	-16008	-80	-2232	71	-17	8	119	129	8
-8572	-2136	13472	-9	19	-23	-16088	-4120	504	26	4	13	-15784	208	-4104	38	-14	28	-9512	3424	13584	16	0	-18	-16072	2544	-720	9	-23	-8	-16088	104	-2056	54	-18	5	119	129	8
-8608	-2140	13444	-12	14	-22	-16080	-3920	768	22	-5	11	-15864	416	-3904	27	-13	29	-9280	3376	13480	15	-3	-14	-16096	2368	-440	6	-15	-3	-16232	-104	-2152	39	-16	5	119	129	8
-8700	-2196	13436	-12	13	-26	-16216	-4000	1056	21	-3	13	-15712	528	-4040	21	-17	27	-9392	3376	13544	16	-5	-18	-16080	2464	-240	6	-16	-3	-16104	-152	-1856	31	-15	3	119	129	8
-8552	-2164	13388	-14	16	-27	-15984	-4104	1144	19	-1	14	-15880	360	-4040	32	-20	22	-9296	3472	13400	14	-7	-16	-15992	2384	-680	8	-12	-2	-16232	-232	-1992	26	-23	0	119	130	8
-8596	-2232	13404	-15	17	-24	-16088	-4048	856	21	-2	11	-15680	384	-4040	23	-26	19	-9240	3416	13392	15	-5	-20	-16208	2600	-584	-7	-3	-4	-16072	-152	-2304	35	-17	-2	118	130	8
-8568	-2200	13424	-14	17	-25	-16232	-3984	880	14	-6	10	-15808	192	-3984	10	-28	17	-9392	3376	13792	14	0	-20	-16120	2344	-648	1	-8	0	-16088	-288	-2168	41	-19	1	119	130	8
-8580	-2132	13368	-10	18	-27	-16072	-4120	776	12	-6	10	-15704	272	-4104	-3	-23	15	-9432	3320	13608	10	-5	-15	-16056	2304	-552	3	-7	-3	-15984	-216	-2320	38	-12	0	119	130	8
-8568	-2204	13412	-12	15	-27	-16048	-4056	664	8	-10	14	-15640	296	-4264	-5	-20	21	-9464	3584	13752	11	-4	-20	-16144	2584	-480	8	-5	-4	-16104	-24	-2336	44	-15	0	119	129	8
-8536	-2128	13392	-10	15	-29	-16080	-4072	936	10	-3	9	-15744	256	-4024	6	-25	16	-9408	3280	13552	12	-4	-17	-16112	2256	-824	-5	-9	-2	-16024	-88	-2272	24	-18	-1	119	130	8
-8624	-2164	13504	-11	14	-28	-16056	-4144	864	17	-2	12	-15592	232	-3888	11	-27	21	-9368	3376	13736	12	-1	-16	-16168	2328	-336	3	-10	1	-15896	-120	-2120	21	-24	4	119	129	8
-8576	-2196	13440	-11	16	-29	-16216	-4128	600	20	-2	15	-15760	240	-4152	30	-20	21	-9392	3552	13504	12	-5	-13	-16224	2536	-624	-1	-17	1	-16232	-80	-2232	32	-16	8	119	129	8
-8540	-2168	13456	-16	20	-23	-16216	-4080	768	19	-10	14	-15664	192	-4088	14	-16	28	-9272	3488	13488	20	0	-16	-16160	2480	-336	-5	-13	-3	-16008	-8	-2168	29	-15	4	119	129	8
-8640	-2176	13440	-17	22	-21	-16288	-3936	824	13	-16	11	-15720	184	-4208	17	-10	33	-9400	3360	13584	16	5	-18	-16224	2440	-344	-2	-13	0	-16152	-56	-2280	26	-13	4	119	129	8
-8500	-2200	13388	-15	20	-29	-16112	-4136	704	14	-12	12	-15664	304	-4200	15	-12	27	-9488	3384	13392	16	5	-17	-16168	2440	-520	-7	-15	2	-16192	-136	-1984	19	-6	7	119	129	8
-8532	-2152	13372	-16	22	-23	-16008	-4008	1088	18	-7	13	-15704	304	-4024	14	-16	26	-9504	3480	13704	11	3	-19	-16064	2488	-584	1	-21	1	-15912	-80	-2144	26	-2	12	120	129	8
-8540	-2176	13384	-15	24	-22	-15944	-4136	984	20	-11	13	-15792	552	-3976	0	-16	28	-9336	3376	13704	15	-7	-16	-15992	2576	-360	1	-16	-5	-16064	-56	-2152	20	-3	5	119	128	8
-8576	-2228	13500	-12	16	-27	-16000	-4184	880	14	-11	18	-15656	432	-4096	10	-15	20	-9480	3480	13616	15	-6	-16	-16056	2376	-448	-3	-11	-5	-16160	-136	-2232	19	-2	-1	119	128	8
-8516	-2188	13328	-13	21	-22	-16072	-4024	1168	5	-11	14	-15808	304	-4232	10	-14	17	-9392	3456	13656	13	-9	-15	-15968	2440	-616	2	-7	-7	-16368	-160	-1872	20	-5	-4	119	128	8
-8584	-2180	13340	-12	16	-27	-15968	-4112	1072	1	-8	16	-15744	144	-3752	2	-24	16	-9352	3360	13592	15	-13	-11	-16136	2592	-352	1	-2	-2	-16304	-152	-1592	21	-7	-2	119	128	8
-8548	-2212	13320	-10	12	-22	-15976	-4048	816	10	2	11	-15680	176	-4256	-18	-22	22	-9376	3400	13360	13	-5	-15	-16240	2472	-568	-2	5	-6	-16104	-144	-2120	23	-1	-1	119	127	8
-8556	-2228	13364	-9	21	-25	-16144	-4176	880	13	-2	13	-15744	408	-3928	-13	-16	19	-9376	3328	13488	14	-7	-20	-15976	2312	-456	-3	5	-8	-15976	-200	-1880	25	0	0	119	128	8
-8636	-2192	13316	-13	15	-26	-16160	-3936	992	11	5	18	-15712	232	-4128	-14	-16	19	-9328	3304	13528	11	0	-18	-15984	2712	-624	-4	0	-2	-16088	-128	-1976	30	-3	2	119	128	8
-8640	-2148	13304	-13	15	-26	-16072	-4008	936	3	-5	19	-15584	240	-4096	1	-19	15	-9496	3336	13600	7	-5	-16	-16064	2416	-592	9	-1	-6	-16096	-24	-2064	28	-6	-3	119	127	8
-8584	-2136	13496	-14	13	-24	-15992	-4200	984	2	-2	18	-15568	360	-4232	-8	-35	16	-9360	3424	13456	12	-9	-12	-16024	2520	-376	5	2	-7	-16112	-144	-2048	22	-17	-1	120	127	8
-8556	-2204	13364	-8	13	-23	-16168	-4184	824	4	1	20	-15744	328	-4224	-5	-28	14	-9360	3488	13448	10	-7	-14	-16120	2496	-504	3	6	-4	-16112	-168	-2176	24	-20	0	120	127	8
-8544	-2196	13428	-15	16	-26	-16280	-4104	936	13	-2	14	-15864	248	-4104	-1	-25	21	-9328	3432	13640	15	-6	-16	-16136	2464	-744	-11	8	-7	-16152	-112	-2248	23	-14	0	120	127	8
-8544	-2204	13592	-14	19	-25	-16296	-4072	896	14	-4	11	-15656	344	-4144	6	-18	26	-9464	3376	13760	15	7	-20	-16232	2376	-632	-4	-5	-3	-16072	-224	-2400	22	-4	1	120	127	8
-8544	-2112	13472	-15	23	-26	-16088	-4152	752	16	-2	14	-15632	256	-4016	1	-15	21	-9392	3384	13480	14	-3	-16	-16120	2416	-512	-1	3	-4	-15992	-40	-2328	20	-9	5	120	127	8
-8624	-2192	13424	-14	17	-28	-16032	-4120	936	13	-6	14	-15632	336	-4256	0	-25	20	-9440	3496	13448	17	-5	-14	-16080	2616	-536	0	-7	2	-16024	32	-2120	22	-16	1	120	127	8
-8604	-2220	13556	-12	12	-25	-16008	-4080	824	8	-3	14	-15664	424	-4024	2	-35	17	-9456	3480	13648	15	-4	-16	-16072	2416	-352	-6	-5	4	-16200	-80	-2000	15	-19	1	120	127	8
-8584	-2176	13388	-10	9	-27	-16208	-4104	1016	10	-4	10	-15616	384	-4312	-2	-36	14	-9488	3496	13656	15	-4	-17	-16184	2440	-480	-16	-2	6	-16096	-40	-2248	9	-12	-1	120	127	8
-8564	-2228	13504	-12	10	-28	-16160	-4232	928	11	-12	13	-15688	496	-3992	-10	-30	11	-9472	3472	13640	12	-3	-15	-16232	2480	-432	-8	-9	-3	-16008	-64	-2032	1	-8	0	120	126	8
-8564	-2200	13456	-20	13	-29	-16272	-4200	864	8	-17	10	-15824	224	-4224	-2	-25	11	-9488	3456	13264	17	-3	-16	-16168	2560	-472	-9	-5	-1	-16240	-80	-2088	10	-9	2	120	126	8
-8608	-2244	13376	-15	14	-29	-16120	-4056	1032	-1	-20	8	-15768	264	-3856	-18	-26	10	-9368	3544	13632	15	-4	-17	-16160	2488	-456	-2	-9	-4	-16232	-96	-2040	-3	-15	-9	120	126	8
-8576	-2116	13440	-11	14	-28	-15936	-4056	1080	-3	-17	7	-15544	360	-4320	-25	-35	6	-9336	3424	13704	16	4	-16	-16096	2632	-376	-14	-1	-6	-16192	-96	-2056	-1	-13	-7	121	126	8
-8604	-2252	13416	-10	11	-29	-15992	-4088	768	4	-14	5	-15784	272	-3992	-22	-37	5	-9336	3392	13752	13	5	-19	-16216	2448	-576	-11	1	-5	-16344	-56	-2160	-3	-9	-5	121	126	8
-8584	-2220	13492	-13	19	-30	-16168	-4208	880	5	-15	2	-15768	432	-4208	-14	-40	0	-9488	3392	13608	15	8	-17	-16136	2488	-584	-19	-2	-4	-15944	-56	-2112	2	-5	-5	121	126	8
-8568	-2224	13324	-13	14	-30	-16136	-4016	712	2	-16	0	-15792	104	-4216	-17	-37	1	-9448	3608	13648	16	-1	-18	-16080	2552	-576	-12	0	-1	-16032	64	-2248	0	-7	-6	121	126	8
-8580	-2168	13296	-13	15	-29	-16016	-4176	984	8	-20	2	-15848	296	-4072	-19	-31	-4	-9480	3304	13488	13	-4	-15	-16104	2392	-576	-13	-6	-2	-16008	-200	-1856	0	-13	-7	121	126	8
-8544	-2236	13376	-18	13	-30	-16048	-4120	1072	8	-20	4	-15800	344	-3968	-23	-33	-1	-9424	3256	13584	14	-8	-17	-16144	2496	-592	-11	3	-2	-16136	-240	-1960	-6	-25	-7	121	126	8
-8556	-2184	13404	-21	12	-28	-16024	-4160	1128	6	-16	1	-15696	280	-4000	-18	-42	0	-9296	3520	13536	16	-4	-14	-16200	2456	-544	-19	4	3	-16160	-72	-2088	-7	-34	-6	121	126	8
-8540	-2160	13424	-14	14	-29	-16064	-4048	952	11	-11	2	-15672	200	-4184	-12	-51	-3	-9392	3552	13448	14	-2	-18	-16048	2424	-600	-21	4	0	-16064	-168	-2000	-13	-29	-4	122	126	8
-8596	-2200	13368	-19	17	-29	-16016	-4088	936	17	-12	0	-15752	128	-4112	-16	-49	-1	-9288	3552	13528	21	-4	-8	-15976	2480	-616	-15	-4	-2	-16128	-272	-1944	-2	-26	-5	122	125	8
-8556	-2236	13512	-16	19	-29	-16128	-4248	544	16	-18	5	-15712	176	-3952	2	-42	-5	-9472	3408	13352	14	1	-11	-16064	2320	-608	-11	-6	-7	-16024	-144	-2440	11	-24	2	122	125	8
-8580	-2300	13296	-18	18	-29	-16160	-4184	768	11	-18	4	-15736	264	-4488	-6	-42	-4	-9352	3328	13640	12	1	-19	-16168	2600	-536	-3	-15	0	-16128	-200	-2392	16	-20	1	123	125	8
-8592	-2192	13392	-19	15	-25	-16112	-4048	736	2	-21	6	-15816	264	-4072	-7	-39	1	-9400	3456	13584	16	1	-20	-16064	2440	-576	-7	-16	-1	-16248	8	-2400	21	-23	0	123	125	8
-8600	-2192	13368	-18	18	-28	-16168	-4192	768	10	-24	3	-15536	144	-4024	-2	-38	5	-9360	3368	13840	16	-3	-16	-15976	2432	-576	-4	-14	1	-16104	-40	-2160	14	-21	-2	123	125	8
-8568	-2212	13352	-18	17	-29	-15984	-4176	1048	13	-23	1	-15856	136	-3856	1	-40	6	-9424	3456	13472	18	2	-13	-16072	2480	-480	-6	-14	4	-15960	-80	-2120	15	-23	0	123	125	8
-8528	-2140	13348	-9	18	-30	-15944	-4176	1024	11	-10	4	-15832	144	-3768	1	-38	0	-9272	3448	13360	18	-4	-13	-16056	2520	-216	-8	-20	8	-16008	-88	-1784	7	-31	4	123	125	8
-8612	-2220	13380	-18	16	-26	-16216	-4248	776	26	-17	0	-15736	208	-3896	-3	-35	-2	-9504	3496	13576	16	-3	-19	-16120	2448	-568	-8	-17	-1	-16144	-88	-2216	15	-29	3	124	125	8
-8552	-2244	13432	-16	20	-25	-16136	-4120	856	20	-27	4	-15760	184	-4072	-2	-28	7	-9424	3384	13592	18	-12	-15	-16128	2640	-360	-4	-24	4	-15992	-112	-2216	31	-21	4	123	125	8
-8576	-2236	13412	-15	22	-31	-15976	-4088	1040	12	-23	2	-15784	320	-4208	11	-19	7	-9472	3288	13584	16	2	-14	-16000	2544	-336	3	-23	-2	-16248	-120	-2208	29	-26	6	123	125	8
-8656	-2128	13364	-18	20	-29	-15952	-4192	888	10	-24	5	-15776	56	-3728	6	-25	11	-9152	3472	13528	13	-6	-15	-16000	2632	-320	0	-22	0	-16128	-64	-1992	31	-21	5	123	125	8
-8648	-2160	13396	-20	18	-31	-15976	-4120	1128	11	-25	5	-15760	160	-3896	0	-32	6	-9432	3384	13760	17	-5	-14	-16088	2504	-232	-8	-21	1	-16152	-72	-2048	23	-22	2	123	125	8
-8588	-2232	13336	-9	15	-31	-16072	-4224	1040	18	-20	4	-15640	104	-4032	1	-36	11	-9352	3528	13576	14	-6	-13	-16120	2560	-752	-10	-21	-1	-16200	-32	-2304	26	-12	0	123	125	8
-8532	-2240	13504	-14	18	-29	-16144	-4208	1008	20	-18	1	-15856	272	-3744	18	-30	7	-9368	3448	13416	16	-4	-12	-16072	2584	-360	-3	-20	-2	-16152	-80	-2144	27	-12	1	123	125	8
-8544	-2276	13516	-20	22	-21	-15936	-4224	792	18	-18	3	-15736	192	-4056	19	-29	8	-9400	3296	13616	15	-12	-10	-15968	2408	-632	6	-26	-2	-16120	32	-2448	27	-15	2	123	125	8
-8548	-2252	13384	-10	19	-28	-16144	-4416	1168	6	-17	6	-15808	112	-3864	7	-28	10	-9400	3592	13528	10	-8	-13	-16024	2552	-352	2	-28	5	-16168	-56	-1816	33	-30	7	123	125	8
-8632	-2196	13428	-16	28	-29	-15992	-4264	1120	13	-15	4	-15712	56	-3488	17	-28	11	-9472	3472	13424	15	-8	-15	-16136	2496	-344	3	-29	2	-16120	-176	-2104	28	-29	9	124	126	8
-8668	-2268	13228	-17	20	-29	-15984	-4304	904	22	-10	2	-15656	120	-3848	13	-33	16	-9440	3448	13408	15	-6	-12	-16040	2592	-368	7	-26	1	-16208	-80	-2176	32	-34	3	123	125	8
-8560	-2256	13424	-16	19	-31	-16032	-4168	944	19	-11	8	-15664	64	-3840	13	-39	16	-9264	3456	13552	14	-9	-16	-16176	2568	-568	4	-24	0	-16344	-8	-1664	33	-34	1	123	125	8
-8596	-2236	13396	-14	19	-33	-16008	-4208	1128	24	-5	11	-15672	-40	-3904	18	-36	14	-9360	3408	13464	14	-2	-17	-16120	2592	-184	-3	-17	1	-16192	-136	-1872	18	-12	-3	123	125	8
-8572	-2224	13300	-12	22	-31	-15976	-4360	1152	24	-6	7	-15864	216	-3672	34	-36	9	-9280	3352	13368	16	-2	-20	-16040	2488	-592	-11	-9	-3	-16240	-32	-2104	11	-5	-1	123	126	8
-8580	-2244	13372	-8	16	-25	-16120	-4128	1008	24	-8	7	-15816	88	-3848	12	-32	13	-9392	3488	13584	19	-6	-15	-16080	2616	-448	-5	-8	0	-16112	-192	-2048	4	-13	2	123	126	8
-8600	-2224	13368	-12	17	-24	-16112	-4288	1032	23	-6	11	-15712	16	-3816	-16	-32	15	-9416	3248	13616	18	-5	-13	-16128	2488	-296	-11	-9	3	-16208	-200	-1872	6	-19	4	123	126	8
-8568	-2228	13380	-11	16	-29	-15984	-4184	1008	14	-15	6	-15848	208	-4216	-16	-30	20	-9552	3296	13568	16	-5	-14	-16096	2512	-232	-9	-3	0	-16072	-112	-1912	7	-24	10	123	126	8
-8556	-2188	13356	-16	21	-28	-16080	-4176	976	16	-16	6	-15672	304	-4080	2	-33	13	-9424	3424	13752	15	-10	-12	-15968	2576	-696	-6	-5	-1	-16112	-160	-2032	8	-28	11	123	126	8
-8588	-2212	13424	-15	15	-26	-15992	-4384	1368	12	-17	11	-15704	112	-4040	16	-38	11	-9312	3408	13480	17	-9	-12	-16104	2504	-296	1	-11	8	-16000	-264	-2120	12	-27	9	123	126	8
-8508	-2252	13392	-13	8	-27	-15952	-4224	1032	3	-19	9	-15800	80	-3672	22	-49	8	-9304	3496	13488	19	-6	-10	-16008	2504	-456	-3	-5	3	-16016	-264	-1920	15	-25	8	123	126	8
-8536	-2192	13376	-12	15	-30	-16040	-4360	1032	16	-13	11	-15928	128	-3696	16	-50	14	-9360	3584	13432	18	-5	-12	-16088	2600	-424	-4	-10	2	-16256	0	-1936	16	-27	5	123	126	8
-8580	-2216	13440	-8	12	-27	-16040	-4184	1040	25	-11	4	-15864	-8	-3752	6	-47	9	-9336	3416	13600	20	-5	-11	-16200	2568	-672	-12	-8	-3	-16168	-136	-2072	10	-27	8	123	126	8
-8628	-2276	13440	-14	11	-23	-16072	-4128	888	25	-9	9	-15784	64	-4192	1	-44	10	-9376	3664	13824	14	-9	-12	-16032	2600	-288	-2	-2	4	-16008	0	-1808	2	-36	4	123	126	8
-8648	-2248	13452	-16	11	-27	-15800	-4160	1008	27	-8	8	-15744	136	-4016	11	-47	11	-9376	3472	13528	15	-9	-13	-16024	2688	-216	-13	-2	3	-16048	-56	-1776	-2	-36	0	123	126	8
-8596	-2324	13376	-15	11	-27	-16136	-4272	1200	21	-13	5	-15760	320	-4032	15	-52	10	-9480	3536	13512	18	-4	-18	-16064	2616	-576	-34	7	5	-16256	-32	-1952	-5	-34	6	123	126	8
-8600	-2260	13424	-14	11	-29	-16168	-4200	752	27	-10	3	-15880	216	-3656	11	-51	9	-9376	3408	13456	11	-2	-14	-16192	2312	-816	-13	0	2	-16152	-72	-1920	6	-21	9	123	126	8
-8580	-2252	13360	-12	18	-29	-15944	-4088	1048	22	-18	6	-15768	328	-3896	-2	-48	-1	-9320	3424	13632	22	-7	-12	-15992	2616	-384	-7	-10	3	-16016	88	-2064	17	-14	10	123	126	8
-8520	-2232	13468	-17	17	-29	-16120	-4112	1040	13	-20	2	-15784	200	-3832	1	-43	0	-9360	3448	13600	13	-9	-14	-16144	2640	-496	-8	-11	2	-16048	160	-2104	20	-14	1	123	126	8
-8608	-2276	13484	-14	14	-32	-16032	-4304	1176	4	-28	5	-15648	144	-3792	-8	-46	-3	-9336	3464	13536	11	-11	-11	-16088	2576	-760	-17	-14	4	-16112	-56	-2064	3	-23	3	123	126	8
-8512	-2240	13356	-16	15	-29	-16104	-4096	1144	5	-27	5	-15960	136	-3856	-20	-52	-5	-9528	3536	13576	23	1	-10	-15984	2440	-608	-18	-20	2	-16120	-88	-1928	-6	-25	3	123	126	8
-8608	-2204	13416	-18	17	-29	-16184	-4184	840	9	-21	0	-15832	272	-3512	-15	-55	-2	-9344	3464	13768	26	-7	-4	-16064	2416	-472	-14	-22	2	-16208	-24	-1800	-8	-23	0	123	126	8
-8560	-2228	13440	-15	21	-33	-16096	-4072	1144	17	-21	5	-15848	40	-3848	6	-50	-6	-9376	3456	13544	20	-3	-6	-15936	2736	-400	-10	-21	5	-16120	-272	-1728	-4	-28	5	123	126	8
-8632	-2288	13440	-19	22	-32	-16056	-4288	1216	16	-30	9	-15800	56	-4032	4	-36	-7	-9416	3616	13560	18	-5	-9	-16024	2680	-264	-11	-15	4	-16104	-96	-1696	-9	-30	2	123	126	8
-8588	-2268	13400	-15	19	-34	-15992	-4344	1112	6	-20	6	-15760	-192	-3760	20	-37	-7	-9280	3448	13744	20	-6	-12	-16088	2696	-368	-21	-16	1	-16224	-112	-1408	-13	-26	2	123	126	8
-8604	-2300	13456	-10	21	-29	-15912	-4256	1120	9	-19	9	-15792	-80	-3552	8	-37	5	-9456	3584	13600	16	-14	-8	-16080	2536	-288	-18	-10	-4	-16080	-72	-1584	-6	-27	1	124	126	8
-8540	-2320	13384	-16	18	-29	-15992	-4224	1200	11	-21	9	-15808	-96	-3832	-8	-40	0	-9392	3536	13488	16	-12	-9	-16024	2608	-240	-11	-8	3	-16256	-280	-1456	-4	-22	4	123	126	8
-8604	-2284	13436	-15	22	-23	-16008	-4152	904	25	-20	3	-15944	-40	-3584	-25	-34	7	-9480	3576	13728	15	-18	-8	-16112	2560	-192	3	-8	-4	-16288	-296	-1608	-7	-22	2	124	127	8
-8588	-2364	13424	-20	28	-28	-16160	-4312	1056	18	-25	7	-15824	24	-3752	-13	-28	5	-9264	3536	13472	15	-17	-3	-15952	2496	-80	3	0	-5	-16256	-120	-1896	12	-20	0	124	126	8
-8520	-2264	13400	-20	29	-28	-16008	-4184	1024	16	-32	4	-15880	136	-3648	-16	-25	3	-9496	3408	13568	15	-12	-14	-16080	2600	-536	-11	3	3	-16288	32	-1864	26	-6	5	123	126	8
-8608	-2220	13452	-24	23	-33	-15944	-4128	1080	-9	-38	12	-15832	-80	-3424	-9	-26	3	-9280	3408	13672	13	-10	-15	-16208	2624	-512	4	-7	-3	-16176	-224	-1944	31	2	9	123	126	8
-8612	-2232	13460	-19	25	-28	-16048	-4264	1304	-20	-45	15	-15904	-176	-3736	-4	-21	-3	-9408	3600	13424	12	-9	-10	-16008	2552	-752	32	-12	4	-16032	96	-2048	48	7	9	123	127	8
-8608	-2372	13340	-13	23	-21	-15920	-4224	1440	-15	-37	19	-15880	-160	-3504	-31	-19	3	-9408	3576	13640	14	-16	-16	-15968	2696	-392	27	-10	-4	-15960	256	-1808	49	5	6	123	127	8
-8560	-2308	13384	-23	24	-23	-16264	-4416	1080	2	-25	15	-15848	40	-3448	-42	-22	3	-9408	3536	13528	8	-7	-18	-15976	2688	-432	8	-7	-1	-16152	264	-1752	30	1	7	123	127	8
-8600	-2332	13300	-12	27	-24	-16024	-4240	1152	7	-27	19	-15736	-48	-3408	-20	-6	6	-9240	3480	13848	13	-12	-13	-16256	2496	-168	-9	0	-6	-16208	72	-1872	4	1	4	123	127	8
-8716	-2340	13260	-11	26	-18	-16024	-4240	1168	-4	-25	14	-15760	-88	-3568	-15	0	9	-9328	3552	13488	11	-4	-13	-16056	2600	-280	-18	-2	-8	-16288	-24	-1832	-2	8	-8	123	127	8
-8656	-2328	13336	-18	26	-24	-15952	-4304	1200	-1	-23	21	-15888	-184	-3176	-9	-1	11	-9296	3584	13504	6	-7	-15	-16080	2728	-136	-17	7	-7	-16128	136	-2040	-12	14	-5	123	127	8
-8624	-2300	13284	-13	22	-25	-15864	-4320	1432	-7	-17	25	-15832	-208	-3576	-27	-7	10	-9360	3336	13864	10	-9	-15	-16064	2672	-480	-26	12	-9	-16312	48	-1624	-18	19	-4	122	128	8
-8576	-2252	13404	-12	16	-22	-15920	-4352	1240	-10	-13	24	-15760	-64	-3680	-29	-16	18	-9368	3608	13568	9	1	-20	-16160	2640	-304	-14	10	-11	-16224	-208	-1608	-15	26	-6	123	128	8
-8600	-2276	13292	-13	17	-18	-15992	-4312	1392	2	-7	24	-15920	-56	-3584	-29	-11	18	-9304	3536	13736	13	-3	-19	-16120	2488	-48	-10	14	-14	-16192	-152	-1488	-11	29	-4	122	128	8
-8580	-2312	13380	-9	18	-17	-16000	-4344	1248	2	0	25	-15872	0	-3560	-33	-8	22	-9312	3504	13448	14	1	-14	-16032	2848	-240	-9	22	-9	-16240	-256	-1536	-2	33	-2	122	128	8
-8540	-2284	13404	-15	20	-18	-16064	-4160	1328	-6	-4	28	-15760	-120	-3784	-36	4	17	-9216	3584	13416	11	-5	-21	-16120	2568	-184	-9	28	-10	-16264	-104	-1760	5	38	0	122	129	8
-8648	-2228	13408	-11	18	-15	-16032	-4360	1080	-12	-9	34	-15760	-224	-3768	-51	1	21	-9376	3520	13704	11	1	-24	-16200	2688	-272	-12	33	-15	-16280	-168	-1744	10	48	1	122	129	8
-8604	-2288	13348	-8	20	-17	-15920	-4288	1200	-15	-6	31	-15904	-24	-3688	-54	3	21	-9320	3440	13520	10	6	-24	-16040	2464	-376	-9	30	-14	-16120	64	-1752	15	49	1	121	129	8
-8584	-2244	13280	-6	10	-18	-16056	-4344	1296	-21	-6	30	-15824	0	-3600	-50	-3	23	-9224	3552	13392	12	4	-26	-15984	2488	-464	-11	34	-17	-16296	80	-1744	15	52	-4	122	129	8
-8572	-2288	13320	-5	10	-22	-16088	-4312	1136	-7	7	30	-15856	40	-3424	-50	-2	26	-9224	3360	13608	10	4	-23	-16080	2712	-592	-5	31	-18	-16192	80	-1976	23	44	-5	121	130	8
-8588	-2196	13388	-10	16	-16	-16024	-4200	1120	7	17	29	-15872	120	-3632	-33	3	26	-9400	3376	13656	8	5	-22	-16160	2728	-568	1	29	-21	-15968	96	-1872	35	43	-7	121	129	8
-8612	-2232	13436	-7	18	-17	-16056	-4160	1152	1	13	28	-15888	48	-3832	-18	20	30	-9472	3504	13592	9	3	-21	-16048	2512	-760	14	19	-23	-16088	112	-2192	50	41	-7	121	130	8
-8544	-2276	13296	-4	17	-17	-15856	-4224	1304	1	15	31	-15776	-112	-3656	-8	20	28	-9296	3608	13528	9	2	-25	-15840	2704	-472	26	15	-17	-16136	216	-2216	47	40	-3	120	130	8
-8644	-2304	13284	-11	18	-17	-16032	-4232	1344	0	14	29	-15872	-136	-3672	-11	20	33	-9296	3504	13416	10	-5	-27	-16128	2560	-624	14	16	-23	-15984	176	-2064	36	35	-2	121	130	8
-8636	-2312	13440	-7	18	-13	-16104	-4160	1096	7	13	28	-15920	32	-3896	-18	23	34	-9264	3360	13408	9	-2	-22	-16272	2672	-632	8	12	-23	-16000	-104	-2184	41	42	-7	121	130	8
-8596	-2240	13456	-6	23	-15	-16024	-4040	1096	2	12	24	-15808	96	-3728	-13	36	36	-9344	3392	13648	12	-4	-25	-16208	2536	-784	-1	5	-25	-16080	112	-2096	44	49	-6	120	130	8
-8608	-2208	13292	-13	25	-18	-16136	-4112	928	1	8	27	-15768	224	-4032	-1	45	39	-9328	3472	13600	14	5	-19	-15976	2608	-760	6	0	-25	-16104	-8	-1984	32	43	-5	120	130	8
-8556	-2260	13316	-16	22	-12	-16104	-4152	1224	3	3	23	-15808	16	-3984	12	51	47	-9312	3368	13440	12	-3	-22	-16040	2584	-520	17	-1	-26	-16224	80	-2072	32	40	-7	121	129	8
-8560	-2160	13476	-14	26	-18	-16176	-4224	1192	11	10	25	-15720	72	-3792	16	47	45	-9304	3472	13712	10	1	-28	-16072	2704	-416	5	4	-24	-16232	64	-1944	25	41	-9	120	130	8
-8636	-2252	13404	-13	24	-24	-15952	-4240	1248	12	13	25	-15832	56	-3864	26	45	38	-9312	3592	13552	13	2	-27	-16144	2536	-744	-13	4	-24	-16336	192	-1944	8	52	-10	120	130	8
-8664	-2176	13308	-9	26	-22	-15880	-4264	1144	-1	8	28	-15712	72	-3768	16	43	40	-9424	3480	13616	9	6	-27	-16112	2480	-608	-11	6	-27	-16216	104	-2160	-5	57	-11	120	130	8
-8608	-2232	13368	-11	19	-20	-16040	-4432	1216	0	9	31	-15768	-72	-3656	16	44	41	-9408	3680	13768	11	4	-18	-16040	2536	-384	-12	11	-31	-16160	128	-2144	-7	62	-10	120	130	8
-8560	-2248	13324	-9	19	-15	-15968	-4296	1296	-2	23	26	-15712	40	-3544	3	49	45	-9352	3352	13632	12	5	-26	-15944	2496	-632	-12	16	-33	-16096	-8	-1944	-5	52	-14	120	130	8
-8596	-2264	13320	-10	18	-14	-16088	-4168	1336	1	18	30	-15776	208	-3712	-1	50	49	-9256	3408	13608	9	6	-29	-16136	2488	-480	-19	21	-30	-16280	-96	-2152	-8	54	-17	120	131	8
-8692	-2244	13460	-13	16	-16	-16168	-4328	1168	1	24	30	-16000	112	-3728	2	52	47	-9296	3464	13584	4	8	-30	-16112	2584	-848	-21	17	-27	-16072	-312	-1896	-2	52	-11	120	131	8
-8620	-2116	13356	-12	12	-23	-15888	-4104	1008	-5	21	30	-15888	144	-3672	0	43	48	-9328	3600	13696	9	4	-29	-16072	2552	-496	-1	25	-32	-16240	-48	-1840	15	49	-11	119	131	8
-8572	-2212	13420	-11	5	-19	-15912	-4136	1312	-22	26	35	-15824	-8	-3648	1	33	45	-9304	3432	13520	6	13	-28	-16056	2440	-360	-6	26	-32	-16256	-88	-2216	25	49	-11	119	131	8
-8652	-2204	13376	-6	7	-19	-15984	-4248	1216	-34	23	32	-15864	120	-3728	-18	25	45	-9456	3400	13560	11	12	-30	-16240	2440	-472	-3	26	-27	-16104	-72	-2208	34	44	-15	120	131	8
-8600	-2292	13304	-10	14	-16	-16056	-4144	1168	-36	30	31	-16064	0	-4000	-18	29	52	-9544	3368	13656	13	11	-32	-16200	2480	-776	6	22	-27	-16256	-320	-2464	34	32	-10	119	131	8
-8608	-2152	13380	-20	23	-17	-16048	-3952	960	-54	26	34	-16296	248	-3984	-37	20	64	-9440	3448	13488	17	13	-22	-15992	2176	-368	30	14	-32	-16160	-240	-2360	56	27	-8	118	131	8
-8636	-2252	13412	-22	25	-16	-16032	-4232	1000	-96	8	34	-15824	144	-3952	-65	22	62	-9344	3416	13512	9	5	-24	-15976	2392	-784	51	10	-29	-15912	-312	-2016	84	14	-3	117	131	8
-8572	-2356	13328	-13	10	-15	-15760	-4192	1368	-103	13	42	-15616	8	-4032	-62	6	49	-9256	3560	13488	5	-8	-19	-15952	2768	-728	43	13	-26	-15752	32	-2280	94	9	5	117	131	8
-8572	-2244	13456	-12	5	-7	-15920	-4152	1192	-60	35	36	-15680	160	-4216	-27	-10	29	-9480	3504	13488	-2	-17	-22	-16168	2392	-664	42	7	-27	-16120	160	-2672	101	5	4	117	130	8
-8584	-2224	13420	-4	11	-6	-16392	-4040	1184	-27	57	31	-15776	416	-4096	7	-31	24	-9200	3424	13600	3	-9	-25	-16424	2536	-552	49	-2	-26	-16336	176	-2608	95	16	-9	117	130	8
-8560	-2232	13424	-10	22	-15	-16040	-4288	824	1	71	31	-15776	288	-3816	43	-28	20	-9304	3464	13640	11	7	-26	-16232	2328	-648	40	-4	-24	-16328	-192	-2472	81	23	-16	117	130	8
-8696	-2240	13324	-9	26	-13	-16096	-4200	928	14	77	38	-15672	-368	-3896	57	-12	27	-9168	3488	13576	8	17	-29	-15976	2384	-440	38	-2	-25	-16296	-448	-2288	72	8	-10	118	131	8
-8636	-2240	13280	-6	27	-7	-16184	-4248	928	18	73	35	-15648	-416	-4560	42	-6	37	-9296	3640	13416	17	23	-22	-16216	2136	-424	33	-1	-22	-16240	-592	-2048	74	-28	-5	118	130	8
-8644	-2192	13436	-6	27	-5	-15984	-4016	712	29	86	39	-15632	-264	-4600	22	-15	49	-9552	3664	13328	21	30	-21	-16176	2128	-696	48	2	-20	-16192	-616	-2360	98	-51	7	118	130	8
-8672	-2260	13324	-1	21	-13	-16136	-4048	680	37	67	38	-15384	-160	-4440	40	-17	54	-9552	3368	13320	27	17	-20	-15936	2384	-752	46	-2	-11	-15992	-536	-2392	122	-57	22	118	130	8
-8632	-2092	13296	2	14	-14	-15904	-4136	568	52	73	33	-15240	264	-4400	92	-7	69	-9392	3520	13552	19	9	-17	-16032	2424	-920	59	-6	-12	-15952	32	-2344	140	-53	25	118	129	8
-8680	-2072	13352	5	-5	-12	-15944	-3968	536	71	68	33	-15184	168	-4456	163	33	84	-9424	3392	13248	16	-4	-25	-15944	2568	-896	32	-8	-7	-15912	224	-2728	134	-41	34	118	129	8
-8656	-2188	13304	12	-14	-18	-16272	-4200	1072	74	54	27	-15784	-368	-4528	208	59	113	-9240	3416	13608	16	5	-26	-16352	2216	-920	31	-28	-2	-16432	-128	-2552	127	-36	26	119	129	8
-8656	-2200	13492	4	2	-15	-16344	-4128	1008	98	55	32	-16136	-448	-4336	218	75	138	-9360	3440	13312	24	17	-25	-16352	2352	-520	66	-43	-2	-16368	-296	-2392	148	-24	22	118	129	8
-8560	-2152	13440	3	12	-13	-16000	-4016	888	99	60	33	-16304	-416	-3712	220	88	152	-9568	3432	13376	24	27	-24	-15992	2448	-496	68	-44	-1	-16232	-104	-1704	144	-38	29	117	130	8
-8664	-2196	13368	6	12	-16	-15840	-4200	1176	83	62	26	-16016	24	-3600	242	80	150	-9376	3584	13456	18	9	-22	-15640	2672	-776	50	-29	-3	-15840	-24	-1840	123	-56	38	114	130	8
-8556	-2252	13520	3	9	-19	-16128	-4144	1216	90	88	36	-15504	704	-3544	254	61	132	-9392	3536	13568	12	1	-24	-16240	2640	-496	39	-25	-11	-16224	-224	-2152	152	-83	28	113	129	8
-8592	-2192	13520	3	35	-6	-16328	-4224	1200	97	96	35	-15792	1128	-3664	236	23	110	-9192	3368	13536	17	18	-30	-16256	2328	-440	65	-28	-9	-16280	-608	-1976	182	-95	19	112	130	8
-8624	-1976	13412	-4	26	-11	-15688	-3520	832	78	108	39	-15424	1056	-3544	175	-11	85	-9352	3232	13624	16	14	-24	-16000	2064	-520	87	-35	-4	-15928	-288	-2120	196	-105	27	113	130	8
-8704	-2204	13312	-3	15	-19	-15872	-4104	752	56	102	39	-15272	1296	-3816	106	-37	69	-9448	3432	13464	18	10	-18	-16064	2520	-616	73	-30	0	-16040	0	-2152	205	-108	26	114	129	8
-8644	-2156	13380	-6	13	-21	-16008	-4048	544	53	98	38	-15400	1304	-4416	80	-51	63	-9392	3456	13752	21	-2	-23	-16032	2392	-520	42	-28	-7	-16040	48	-2040	174	-121	35	114	129	8
-8672	-2152	13508	-1	7	-20	-16168	-3968	752	34	85	33	-15664	912	-4816	83	-54	45	-9472	3312	13704	12	4	-16	-16064	2392	-592	47	-30	-9	-16032	24	-2000	151	-105	27	116	128	8
-8620	-2012	13436	-2	12	-15	-16392	-3736	368	23	65	23	-15536	600	-5208	63	-58	34	-9400	3568	13480	20	5	-15	-16224	2552	-432	44	-36	-7	-16240	280	-2168	127	-87	20	117	128	8
-8604	-2036	13332	-8	15	-26	-16128	-3960	264	29	46	15	-15328	600	-5032	48	-46	27	-9424	3400	13512	21	0	-18	-16040	2760	-632	23	-30	-10	-16096	416	-2176	89	-77	14	118	128	8
-8652	-2056	13372	-9	10	-30	-16224	-4104	216	34	29	9	-15272	728	-4880	51	-31	9	-9552	3728	13344	11	7	-19	-15992	2552	-1000	-4	-31	-4	-15976	504	-2128	46	-57	0	120	128	8
-8644	-2092	13348	-10	4	-35	-16096	-3960	360	44	16	7	-15280	792	-4864	76	-28	5	-9376	3440	13424	10	-13	-16	-16008	2544	-800	-27	-28	-11	-15856	152	-2088	16	-51	-6	121	128	8
-8624	-2100	13420	-9	0	-31	-16296	-3904	416	34	0	-3	-15720	760	-4360	75	-39	-5	-9456	3336	13824	14	-13	-14	-16008	2552	-672	-27	-35	-11	-15936	216	-2040	-4	-55	-9	122	129	8
-8616	-2076	13332	-16	2	-41	-16168	-3648	640	19	-16	-12	-16032	928	-3960	58	-50	-7	-9560	3384	13336	2	-16	-13	-15984	2616	-504	-23	-37	-16	-16120	64	-1760	-16	-57	-11	122	129	8
-8484	-2108	13496	-22	13	-39	-16360	-3752	744	7	-18	-29	-16424	864	-4120	20	-57	-1	-9320	3384	13680	0	-18	-12	-16168	2496	-776	-47	-37	-19	-16152	136	-1800	-29	-56	-13	122	129	8
-8552	-2172	13436	-31	25	-38	-16344	-4208	488	12	-23	-32	-16264	664	-4104	44	-44	-21	-9256	3408	13488	1	-22	-16	-16208	2648	-456	-52	-43	-20	-16376	-72	-1656	-35	-31	-21	123	129	8
-8588	-2040	13432	-31	37	-41	-16024	-3872	648	18	-19	-30	-15776	376	-4312	30	-34	-35	-9352	3392	13608	4	-6	-18	-16328	2320	-352	-41	-38	-23	-16608	-288	-1656	-27	-16	-34	123	129	8
-8564	-2144	13372	-28	31	-45	-15904	-4160	632	-3	-30	-32	-15272	104	-3968	-23	-31	-39	-9464	3352	13544	9	3	-11	-16168	2168	-472	-23	-40	-13	-16208	-632	-1880	-5	-31	-43	123	129	8
-8636	-2188	13500	-19	16	-43	-15944	-4096	640	-5	-37	-33	-15320	-136	-3960	-70	-30	-32	-9336	3392	13560	18	6	-14	-15976	2336	-208	-20	-34	-12	-16240	-752	-1856	15	-55	-35	123	130	8
-8676	-2136	13408	-25	11	-42	-16048	-4368	560	-7	-38	-26	-15296	-80	-4480	-36	-24	-24	-9448	3440	13576	25	6	-12	-16104	2408	-832	-11	-38	-13	-16144	-704	-1952	49	-78	-15	123	130	8
-8544	-2192	13404	-19	11	-43	-15904	-4240	960	11	-32	-25	-15720	-184	-3968	41	-24	-3	-9344	3480	13464	19	7	-17	-16136	2504	-648	16	-56	-10	-16272	-544	-1992	95	-94	2	123	129	8
-8612	-2276	13340	-21	17	-42	-16088	-4368	920	41	-9	-25	-15888	-624	-4056	84	-20	17	-9432	3664	13432	20	13	-18	-16136	2160	-616	52	-64	-5	-16392	-416	-1952	134	-101	13	122	129	8
-8588	-2232	13360	-14	11	-39	-16080	-4328	616	75	-2	-16	-15808	-776	-4136	122	-6	34	-9560	3464	13728	13	-3	-14	-15992	2496	-568	69	-75	-4	-16216	-304	-1632	163	-108	16	122	129	8
-8608	-2280	13392	-24	19	-35	-16264	-4352	616	83	-1	-14	-15568	-464	-4216	146	16	54	-9408	3384	13528	18	-7	-10	-16192	2392	-616	69	-77	-6	-16152	-464	-2000	165	-125	15	122	129	8
-8660	-2188	13372	-14	18	-29	-16032	-4264	648	87	-6	-15	-15824	-448	-4264	147	15	81	-9312	3320	13488	19	6	-15	-16112	2328	-344	54	-76	6	-16088	-520	-1768	163	-131	23	121	129	8
-8700	-2288	13332	-14	20	-31	-16048	-4288	648	92	-7	-13	-15656	0	-4072	158	20	96	-9424	3584	13752	24	3	-10	-16072	2392	-472	50	-87	3	-15992	-280	-1808	172	-120	27	121	129	8
-8544	-2140	13436	-10	22	-31	-16016	-4128	856	97	2	-10	-15816	16	-4032	198	22	103	-9328	3592	13560	23	0	-11	-16136	2424	-80	56	-90	6	-16024	-168	-1568	183	-101	35	120	128	8
-8536	-2232	13484	-13	20	-31	-15976	-4272	864	113	10	-6	-15888	24	-3744	225	20	99	-9376	3296	13664	25	-3	-9	-15968	2392	-496	64	-96	3	-16208	-256	-1568	185	-98	33	121	128	8
-8552	-2288	13296	-5	21	-27	-16008	-4352	976	125	27	-7	-15848	136	-3640	216	11	90	-9464	3416	13520	16	-2	-7	-16224	2504	64	80	-105	-2	-16136	-32	-1448	175	-99	27	120	128	8
-8540	-2228	13404	-1	22	-26	-16000	-4296	1016	131	47	-6	-15848	184	-3760	199	-5	75	-9288	3616	13280	20	4	-6	-16232	2440	32	65	-94	1	-16200	-40	-1256	161	-116	22	121	128	8
-8604	-2076	13308	-7	18	-23	-16048	-4104	1000	132	45	-6	-15720	352	-3984	174	-8	70	-9328	3592	13432	20	6	-14	-16048	2392	-16	37	-78	7	-16456	8	-1288	128	-108	21	119	128	8
-8660	-2188	13436	-7	18	-22	-16208	-4296	704	132	49	-3	-15808	536	-4024	185	-1	74	-9400	3376	13696	20	-4	-12	-16144	2432	-48	19	-76	9	-16176	-80	-1280	105	-100	23	120	128	8
-8604	-2136	13504	-7	29	-21	-16208	-4184	776	128	41	1	-15640	168	-4136	186	8	68	-9464	3640	13592	21	2	-14	-15992	2488	80	20	-77	7	-16232	96	-1256	84	-83	26	121	127	8
-8656	-2152	13400	-9	25	-24	-16008	-4064	456	103	32	1	-15496	184	-4320	160	-1	60	-9400	3328	13344	18	2	-16	-16072	2456	56	3	-60	6	-16360	216	-1160	66	-67	16	120	128	8
-8656	-2248	13416	-11	21	-31	-15920	-4304	680	70	20	9	-15560	240	-4456	136	0	44	-9472	3520	13128	17	1	-21	-15968	2368	-152	-11	-59	2	-16240	-152	-1128	44	-52	8	119	128	8
-8576	-2164	13404	-7	13	-26	-16224	-4224	504	53	12	10	-15656	216	-4256	98	-18	35	-9400	3376	13384	18	0	-18	-16072	2176	-128	-12	-54	7	-16376	-320	-952	35	-43	4	119	129	8
-8556	-2220	13348	-7	9	-31	-15984	-4256	696	42	4	15	-15752	184	-4112	82	-33	35	-9456	3256	13424	19	-3	-11	-16112	2464	-120	1	-50	4	-16264	-432	-960	36	-35	4	119	129	8
-8552	-2200	13396	-5	10	-29	-16024	-4168	760	46	2	18	-15576	40	-4008	67	-24	47	-9512	3296	13472	20	-8	-9	-16008	2344	-112	-7	-32	6	-16360	-456	-800	35	-46	9	120	129	8
-8620	-2196	13384	-10	13	-25	-16072	-4352	512	49	3	20	-15544	-120	-3840	85	-5	64	-9528	3408	13696	18	-6	-16	-16160	2288	-16	-17	-23	9	-16552	-568	-912	25	-53	17	120	130	8
-8628	-2168	13460	-12	9	-32	-16000	-4344	680	54	5	19	-15584	-24	-4040	89	4	63	-9464	3448	13240	24	-2	-9	-15992	2408	-80	10	-27	7	-16328	-472	-992	46	-52	24	120	130	8
-8576	-2168	13372	-10	4	-28	-15896	-4424	560	56	10	27	-15528	8	-4184	97	-6	67	-9368	3528	13312	22	-4	-12	-16112	2512	-192	16	-25	11	-16144	-192	-1080	71	-39	39	119	130	8
-8588	-2256	13400	-10	4	-29	-16032	-4288	832	54	12	23	-15840	24	-4280	96	-10	71	-9448	3520	13480	25	-10	-7	-16024	2432	-248	6	-23	13	-16336	-104	-1184	73	-40	35	119	130	8
-8652	-2204	13364	-8	5	-30	-15800	-4160	720	57	11	28	-15752	-56	-4032	97	-15	70	-9304	3480	13656	18	-8	-12	-16064	2352	-40	12	-24	12	-16216	-288	-1240	76	-31	32	119	130	8
-8640	-2220	13332	-7	10	-27	-16112	-4224	584	46	3	33	-15776	112	-4192	79	-10	78	-9456	3424	13432	20	-5	-10	-16032	2360	-216	22	-28	12	-16144	-336	-1176	79	-27	30	119	130	8
-8572	-2176	13364	-5	5	-20	-16000	-4280	752	36	-4	34	-15608	192	-4032	68	2	79	-9352	3384	13536	21	-1	-12	-16104	2520	-272	16	-30	16	-16296	-216	-1032	76	-31	28	120	130	8
-8580	-2216	13460	-5	11	-21	-15968	-4264	864	34	0	40	-15672	272	-4032	61	-8	80	-9584	3392	13488	20	-3	-9	-15984	2376	96	27	-31	15	-16072	-48	-1280	74	-27	34	119	130	8
-8600	-2156	13444	-8	6	-29	-15816	-4296	728	37	3	37	-15768	152	-3992	58	-12	68	-9464	3648	13704	21	-7	-12	-16160	2664	256	21	-28	16	-16304	32	-1120	68	-22	36	119	130	8
-8572	-2108	13400	-2	7	-23	-16016	-4160	728	43	7	42	-15640	368	-3984	63	-16	63	-9336	3432	13416	19	-2	-11	-16040	2560	64	3	-21	14	-16192	80	-1048	53	-21	34	119	130	8
-8552	-2164	13432	-7	9	-26	-16040	-4064	672	35	13	42	-15808	432	-3816	65	-21	61	-9368	3488	13432	18	-4	-12	-16008	2568	-160	-5	-16	15	-16304	8	-1120	35	-20	29	118	130	8
-8536	-2200	13396	-8	10	-29	-16096	-4240	904	36	16	37	-15800	376	-3888	64	-22	53	-9368	3376	13456	17	-7	-10	-16128	2504	-96	4	-17	14	-16368	-176	-912	34	-11	22	119	130	8
-8556	-2152	13396	-8	13	-22	-16280	-4304	792	23	8	40	-15768	264	-4512	48	-26	49	-9472	3536	13384	20	-6	-12	-16080	2560	-144	6	-13	10	-16144	-224	-824	42	-10	18	119	131	8
-8636	-2264	13548	-7	8	-20	-16000	-4136	848	21	7	40	-15816	232	-4104	22	-26	46	-9336	3640	13552	19	1	-10	-16064	2560	-248	15	-11	11	-16264	-160	-896	49	-3	22	118	130	8
-8580	-2180	13324	-6	10	-20	-16040	-4152	816	12	7	40	-15752	168	-4056	20	-32	47	-9376	3536	13560	19	1	-17	-16080	2560	264	20	-8	13	-16064	-64	-976	57	-2	24	119	130	8
-8544	-2120	13460	-7	13	-21	-16144	-4128	664	18	9	39	-15800	496	-4192	21	-30	44	-9328	3504	13544	15	-1	-20	-16000	2576	144	19	-4	6	-16128	32	-1008	58	-4	21	118	130	8
-8648	-2248	13448	-6	12	-24	-15888	-4168	768	11	14	43	-15696	536	-3904	34	-31	44	-9504	3424	13400	14	-1	-11	-16088	2808	136	2	1	7	-16208	104	-1144	48	-12	22	120	131	8
-8716	-2264	13248	-8	10	-21	-16080	-4104	536	22	10	35	-15776	448	-3872	40	-30	47	-9568	3456	13488	14	-6	-17	-16128	2696	-120	-8	6	4	-16232	104	-1312	32	-9	23	118	130	8
-8536	-2120	13400	-7	12	-26	-16000	-4200	760	13	7	41	-15696	240	-3992	47	-39	39	-9352	3448	13440	14	-1	-15	-16240	2424	96	-15	6	6	-16232	16	-1048	22	-4	22	119	130	8
-8628	-2152	13452	-12	10	-22	-16048	-4088	552	5	18	40	-15768	384	-4312	17	-46	37	-9416	3560	13512	12	-5	-19	-16136	2480	-136	5	0	6	-16256	-24	-1160	31	3	18	118	131	8
-8584	-2136	13272	-6	13	-21	-16072	-4176	640	-4	17	40	-15872	472	-4128	8	-49	33	-9432	3608	13528	11	-7	-17	-16040	2560	-48	4	-3	3	-16176	176	-1024	27	11	17	119	131	8
-8660	-2080	13476	-11	14	-19	-16016	-4144	760	-6	8	39	-15664	568	-4072	-9	-49	33	-9280	3440	13528	15	-8	-13	-16104	2440	-168	3	3	4	-16296	120	-1216	14	-4	17	119	131	8
-8528	-2164	13520	-10	14	-27	-15944	-4144	864	-7	9	44	-15720	376	-3880	-7	-52	30	-9464	3560	13384	10	-11	-15	-16120	2672	-8	2	11	2	-16248	-96	-960	13	0	13	119	131	8
-8520	-2072	13352	-7	15	-22	-16120	-4136	376	-5	10	35	-15560	520	-4096	-19	-47	28	-9360	3544	13624	16	-4	-11	-16240	2640	-72	-16	11	3	-16264	160	-1256	8	-5	13	118	130	8
-8504	-2196	13404	-9	10	-26	-16136	-4104	512	-13	6	40	-15624	416	-4152	-21	-45	23	-9224	3592	13632	14	-8	-18	-16104	2664	192	-25	8	2	-16288	128	-1120	8	3	10	119	130	8
-8508	-2128	13456	-9	15	-23	-16312	-4008	536	-12	1	32	-15608	448	-4352	-30	-39	23	-9416	3432	13512	18	-3	-19	-16064	2608	40	-15	7	0	-16192	176	-1224	9	13	7	118	130	8
-8600	-2140	13360	-11	17	-23	-16040	-4016	328	-18	-5	34	-15704	712	-4576	-28	-38	18	-9408	3624	13568	14	-2	-20	-16128	2520	-88	-14	4	0	-16096	24	-1264	11	24	8	118	130	8
-8528	-2028	13336	-9	13	-23	-16024	-4040	360	-14	-5	29	-15688	496	-4344	-33	-25	13	-9368	3568	13592	14	4	-17	-16056	2488	-264	-11	0	-4	-16272	88	-1128	8	16	2	119	131	8
-8532	-2052	13292	-12	15	-22	-16088	-4072	480	-23	-11	25	-15632	464	-4112	-27	-29	10	-9328	3408	13360	15	-1	-17	-16024	2632	-128	-6	7	-4	-16240	8	-856	3	15	4	118	130	8
-8552	-2176	13452	-11	16	-22	-16168	-4000	752	-2	-15	18	-15592	576	-4008	-27	-20	14	-9360	3488	13608	14	-5	-15	-16272	2536	8	-13	10	-6	-16192	8	-1248	0	-2	2	119	130	8
-8572	-2180	13516	-12	16	-27	-16096	-4080	632	1	-19	18	-15712	472	-4192	-17	-20	18	-9424	3488	13744	15	-8	-18	-16056	2608	-96	-18	12	1	-16256	40	-1336	-5	-2	7	120	130	8
-8624	-2152	13416	-17	16	-30	-16248	-4096	624	-4	-25	19	-15680	440	-4192	-15	-14	16	-9376	3472	13368	14	-5	-17	-16080	2680	-88	-17	13	-2	-16280	-32	-1592	0	4	4	120	130	8
-8600	-2120	13400	-16	17	-27	-16000	-4056	616	-5	-26	14	-15768	536	-4200	-17	-17	11	-9368	3568	13480	11	-2	-15	-16112	2448	-232	-20	10	-7	-16336	72	-1224	0	12	2	119	130	8
-8608	-2128	13496	-18	20	-25	-16016	-4176	736	-5	-21	13	-15616	512	-3976	-17	-19	10	-9392	3520	13448	13	-4	-16	-16216	2472	-344	-1	0	-3	-16104	8	-1352	3	10	2	119	130	8
-8516	-2176	13396	-21	15	-31	-16048	-4160	768	-1	-25	15	-15792	336	-4040	-18	-19	12	-9456	3544	13424	12	0	-13	-16120	2616	-72	-4	-3	-8	-16224	32	-1288	9	10	-2	119	130	8
-8536	-2116	13484	-13	18	-25	-16136	-4136	696	5	-15	10	-15824	376	-4312	-24	-15	14	-9400	3472	13416	17	-3	-16	-16112	2600	-112	2	-4	-8	-16264	0	-1072	5	-2	-3	119	130	8
-8592	-2120	13380	-19	17	-29	-16048	-4000	432	2	-18	12	-15736	344	-4064	-25	-10	10	-9448	3576	13424	10	-4	-14	-15984	2552	96	-1	-2	-12	-16376	32	-1288	3	-8	-5	119	130	8
-8600	-2080	13484	-13	21	-27	-15992	-4080	752	-2	-20	10	-15720	512	-4208	-33	-11	14	-9376	3536	13520	17	1	-19	-16080	2720	8	-13	-1	-8	-16304	88	-976	6	-6	-3	119	130	8
-8664	-2172	13408	-14	14	-28	-16032	-3968	928	-17	-20	15	-15736	288	-3960	-27	-14	14	-9272	3480	13584	12	4	-16	-16256	2600	-112	-16	1	-4	-16240	136	-1064	1	-3	-4	119	130	8
-8632	-2172	13376	-16	12	-29	-16088	-4272	776	-8	-23	11	-15744	288	-4056	-21	-17	10	-9288	3464	13400	13	-5	-17	-16176	2560	-64	-4	-2	-6	-16384	88	-1072	3	0	-3	119	130	8
-8532	-2096	13488	-17	13	-28	-16160	-4056	744	5	-11	12	-15744	328	-3888	-13	-20	11	-9360	3472	13640	16	-2	-19	-16048	2608	-144	-2	-4	-9	-16288	40	-1264	16	4	-5	119	130	8
-8600	-2164	13452	-16	18	-28	-16048	-4128	704	1	-7	8	-15752	416	-4144	-9	-21	16	-9344	3576	13536	18	0	-15	-16160	2624	-64	0	-6	-14	-16288	16	-1120	14	1	-6	119	130	8
-8564	-2112	13436	-13	15	-26	-16104	-4008	672	1	-8	12	-15712	408	-4056	-21	-14	10	-9376	3600	13512	18	-14	-13	-16048	2648	-32	1	-1	-15	-16264	0	-1008	13	-1	-5	119	130	8
-8476	-2116	13472	-13	16	-25	-16080	-4176	888	3	-10	14	-15600	368	-4072	-20	-9	8	-9304	3608	13448	14	-11	-15	-16136	2712	8	5	-1	-15	-16272	-24	-1200	18	-8	-6	119	130	8
-8504	-2148	13496	-14	17	-32	-16144	-4120	792	-2	-18	10	-15504	272	-4080	-22	-5	13	-9376	3472	13304	10	-1	-25	-15992	2504	-208	-9	-2	-8	-16480	8	-960	21	-2	-3	119	130	8
-8648	-2200	13272	-11	11	-29	-15992	-4184	736	0	-15	10	-15552	104	-4080	-25	-11	14	-9456	3416	13480	12	2	-23	-16080	2504	-88	1	-5	-7	-16088	24	-1256	23	3	-3	119	130	8
-8564	-2176	13448	-11	12	-24	-16200	-4104	656	4	-8	10	-15632	344	-4264	-11	-12	17	-9400	3568	13512	16	-4	-15	-15992	2632	24	6	-8	-3	-16216	8	-1128	28	6	-9	119	129	8
-8564	-2172	13396	-10	12	-26	-15984	-4080	816	0	-9	15	-15720	352	-4136	6	-20	15	-9480	3416	13560	14	-2	-14	-16000	2560	40	4	-3	-5	-16240	120	-1128	26	6	-3	119	130	8
-8572	-2192	13420	-10	11	-27	-15920	-4144	760	1	-4	14	-15712	448	-3840	7	-16	18	-9440	3528	13520	16	-2	-12	-16112	2592	-88	-5	-4	-10	-16344	-48	-976	13	3	-4	119	130	8
-8576	-2136	13448	-9	15	-27	-16112	-3976	696	14	-3	14	-15864	312	-3872	6	-17	20	-9408	3440	13472	15	4	-19	-16024	2480	-80	6	-2	-8	-16192	-112	-1104	16	0	-2	119	130	8
-8564	-2180	13380	-13	15	-24	-16016	-4128	656	10	0	15	-15848	320	-3800	5	-13	20	-9304	3608	13576	14	-3	-19	-16096	2592	144	3	-1	-3	-16352	-96	-1232	22	-6	0	119	130	8
-8552	-2184	13396	-12	15	-25	-16064	-4176	760	16	1	13	-15712	240	-4024	-5	-9	27	-9336	3656	13400	15	-3	-22	-15992	2600	-72	-3	-2	-7	-16344	-24	-1160	23	-1	5	119	130	8
-8616	-2212	13380	-9	15	-25	-16000	-4056	904	15	0	16	-15576	328	-4104	-5	-6	26	-9496	3424	13520	16	3	-21	-16264	2480	56	2	-3	-10	-16232	48	-1416	27	-1	4	119	130	8
-8552	-2200	13404	-11	11	-23	-16136	-4072	536	11	-2	13	-15704	264	-4216	-2	-6	21	-9352	3536	13464	13	3	-18	-16112	2584	-320	15	-13	-10	-16120	-48	-1112	40	4	-2	119	130	8
-8580	-2128	13472	-12	16	-24	-15976	-4120	464	4	-3	18	-15688	320	-4136	-2	-8	20	-9272	3496	13800	15	3	-14	-16168	2456	-8	16	-15	-9	-16264	-48	-1104	43	6	-3	118	129	8
-8540	-2120	13432	-12	16	-28	-16120	-4128	880	5	-6	15	-15704	256	-4136	6	-9	24	-9496	3480	13504	13	-1	-15	-16024	2648	-232	20	-6	-5	-16208	-136	-1104	41	2	-1	119	129	8
-8568	-2172	13588	-12	18	-27	-16064	-4224	632	15	-2	14	-15560	304	-4144	7	-6	20	-9336	3600	13632	16	5	-16	-16144	2640	64	14	-6	-6	-16312	-80	-1000	34	2	-2	119	129	8
-8524	-2180	13408	-12	18	-25	-16048	-4144	680	18	-5	19	-15744	424	-4224	0	2	26	-9352	3544	13664	15	1	-15	-16208	2440	16	6	-6	-6	-16248	80	-1192	28	4	1	118	129	8
-8608	-2212	13348	-16	19	-18	-16152	-4104	608	13	-6	12	-15472	504	-4288	-14	6	26	-9416	3448	13544	14	7	-20	-16112	2512	-32	8	-11	-9	-16168	56	-960	38	7	0	120	129	8
-8572	-2104	13424	-12	26	-20	-16064	-4088	576	6	-18	11	-15512	384	-4368	-26	13	31	-9448	3528	13552	15	0	-16	-16144	2560	-96	20	-14	-8	-16088	40	-1136	48	10	-2	119	129	8
-8616	-2184	13548	-15	24	-18	-16176	-4096	800	3	-20	13	-15488	472	-4136	-16	12	26	-9408	3480	13328	13	-4	-16	-16000	2560	-200	22	-14	-10	-16208	56	-1144	50	15	-3	119	129	8
-8624	-2060	13368	-16	21	-21	-16088	-4160	640	8	-23	9	-15784	424	-4304	-3	15	24	-9440	3544	13600	11	3	-18	-16112	2576	80	20	-7	-15	-16192	-80	-1056	46	11	-6	119	129	8
-8592	-2120	13368	-12	19	-23	-16168	-4000	792	10	-26	11	-15712	496	-4192	2	6	21	-9240	3600	13856	14	3	-20	-16104	2632	-136	11	-5	-11	-16216	-48	-888	29	16	-6	119	129	8
-8480	-2148	13536	-12	21	-26	-16128	-4088	952	10	-29	5	-15776	464	-4120	-8	18	17	-9344	3424	13384	11	1	-19	-16088	2592	-128	5	3	-7	-16296	104	-1048	18	19	-7	118	128	8
-8548	-2112	13340	-16	19	-25	-16056	-4096	856	10	-29	4	-15704	336	-3976	-11	18	15	-9344	3552	13312	13	0	-15	-16064	2680	-32	2	0	-7	-16176	-8	-1288	17	18	-5	119	129	8
-8556	-2140	13412	-12	21	-26	-16056	-4024	576	23	-23	2	-15744	320	-4200	-16	19	17	-9360	3560	13416	14	1	-20	-16056	2568	-136	-5	5	-12	-16216	120	-976	8	25	-5	119	129	8
-8596	-2188	13416	-17	20	-30	-15920	-4200	712	7	-32	9	-15608	496	-4024	-9	13	11	-9328	3456	13368	14	-6	-19	-15992	2544	-80	-5	5	-14	-16200	80	-1304	0	26	-6	119	129	8
-8596	-2124	13392	-15	16	-27	-16072	-4080	984	8	-32	5	-15752	352	-4072	-24	14	9	-9320	3624	13680	14	-9	-17	-16160	2728	-112	-12	15	-12	-16120	96	-1176	-14	20	-10	119	129	8
-8544	-2132	13328	-15	18	-23	-15944	-4080	824	1	-26	9	-15720	336	-3912	-31	0	8	-9424	3576	13152	10	0	-20	-16272	2512	-248	-22	13	-14	-16128	-88	-1192	-17	17	-13	118	129	8
-8540	-2192	13396	-12	24	-27	-16072	-4232	952	-4	-30	11	-15872	336	-3720	-41	-7	2	-9440	3568	13560	14	-2	-19	-16232	2560	-336	-14	15	-14	-16104	-256	-1072	5	30	-10	119	128	8
-8516	-2228	13488	-13	21	-23	-16144	-4272	896	-2	-25	15	-15784	128	-3600	-32	-5	2	-9368	3440	13624	15	-3	-17	-16112	2472	-120	-5	10	-14	-16232	-72	-1192	13	32	-9	119	129	8
-8564	-2156	13412	-11	19	-22	-16064	-4184	728	-5	-16	16	-15800	184	-4080	-42	-10	4	-9360	3520	13768	13	-6	-18	-16168	2496	-208	9	6	-15	-16304	-128	-1056	16	32	-5	119	128	8
-8564	-2228	13480	-16	23	-22	-15992	-4152	976	-7	-12	17	-15936	136	-4040	-35	-12	3	-9288	3504	13720	14	2	-19	-16136	2648	136	9	8	-9	-16200	-112	-1200	20	30	-8	119	128	8
-8588	-2168	13384	-11	23	-18	-15984	-4064	792	-10	-13	20	-15864	296	-4072	-45	-16	4	-9368	3536	13752	14	-3	-18	-15912	2536	0	3	15	-14	-16392	-48	-1296	15	29	-5	119	128	8
-8612	-2200	13480	-10	18	-20	-15888	-4224	912	-8	-4	18	-15696	320	-4184	-46	-17	-2	-9488	3568	13432	16	-7	-17	-16072	2488	8	-8	17	-15	-16176	-88	-1008	-2	37	-8	119	128	8
-8708	-2156	13500	-12	18	-22	-16008	-4024	840	-11	0	23	-15760	168	-4024	-55	-17	1	-9288	3488	13480	14	-7	-18	-16344	2552	-168	-4	18	-9	-16232	-72	-1064	5	53	-4	119	128	8
-8600	-2192	13368	-11	19	-26	-15912	-4136	912	-13	-3	22	-15680	408	-4336	-55	-20	0	-9512	3392	13416	19	2	-16	-16064	2320	-96	4	15	-11	-16272	-96	-1472	3	56	-5	119	128	8
-8584	-2160	13504	-14	18	-25	-16024	-4184	1024	-17	-7	29	-15488	320	-4136	-59	-15	1	-9312	3576	13568	13	-5	-19	-16200	2688	-16	11	12	-6	-16096	96	-1200	6	62	-5	119	128	8
-8612	-2196	13492	-10	15	-18	-16056	-4200	720	-20	-3	26	-15776	296	-4232	-69	-13	2	-9336	3592	13584	13	-3	-16	-16096	2496	-64	2	21	-9	-16304	80	-1256	-3	65	-7	119	128	8
-8624	-2148	13452	-13	13	-19	-16176	-4048	760	-25	-12	26	-15512	472	-4368	-72	-6	-2	-9416	3640	13776	12	-1	-21	-16104	2600	304	-4	23	-12	-16304	-120	-1064	-16	73	-8	119	128	8
-8664	-2120	13384	-8	14	-17	-15984	-4176	632	-23	-10	30	-15664	400	-4184	-88	-6	-2	-9368	3352	13592	13	2	-19	-16120	2512	-88	-7	26	-15	-16248	112	-1120	-19	72	-16	119	128	8
-8576	-2136	13444	-6	12	-24	-16064	-4128	680	-22	-20	25	-15576	360	-4224	-80	0	-1	-9488	3232	13624	16	9	-22	-15920	2488	-40	0	29	-14	-16264	16	-1024	-17	64	-14	119	128	8
-8644	-2112	13360	-10	12	-21	-16056	-4184	632	-23	-16	26	-15712	112	-3920	-50	10	0	-9344	3552	13536	15	3	-17	-16072	2720	-32	13	31	-18	-16288	8	-992	-2	62	-13	119	128	8
-8576	-2184	13328	-6	9	-23	-16064	-4128	824	-18	-10	29	-15832	-144	-4088	-40	12	8	-9344	3736	13360	12	6	-21	-16048	2688	-136	8	40	-14	-16392	-240	-1256	5	61	-11	119	128	8
-8576	-2196	13380	-7	7	-22	-16072	-4208	1040	-8	-5	30	-15912	-272	-4024	-31	14	14	-9360	3400	13632	13	7	-22	-16072	2344	-64	3	45	-18	-16264	-120	-1200	4	55	-9	119	128	8
-8648	-2084	13420	-7	10	-19	-15992	-4016	768	-5	15	27	-15816	88	-3896	-42	3	18	-9336	3432	13392	14	4	-28	-15912	2640	-384	-1	49	-18	-16136	-112	-1336	10	58	-3	119	128	8
-8540	-2156	13488	-2	9	-18	-15952	-4152	1000	-10	17	37	-15776	432	-3792	-48	-4	26	-9224	3520	13360	12	-4	-19	-16032	2496	-128	-8	52	-17	-16096	-128	-1416	8	52	-6	119	129	8
-8572	-2080	13516	-3	5	-23	-16080	-4064	584	-16	22	38	-15680	648	-4056	-60	-8	22	-9424	3496	13288	7	1	-19	-16184	2552	-312	-11	52	-14	-16072	-40	-1776	15	45	2	119	129	8
-8560	-2148	13316	-5	10	-21	-16064	-4016	800	-22	19	36	-15488	664	-4352	-53	-5	23	-9312	3384	13528	13	4	-20	-16200	2472	-512	5	37	-19	-16024	-168	-1896	25	36	0	119	129	8
-8628	-2132	13396	-7	10	-20	-16008	-3952	880	-22	12	38	-15568	600	-4408	-47	-8	21	-9392	3416	13344	13	-2	-23	-16056	2480	-320	14	22	-12	-15952	72	-2032	32	33	2	120	129	8
-8552	-2076	13416	-8	11	-18	-16176	-3960	488	-17	16	33	-15632	584	-4400	-57	-7	24	-9264	3640	13424	11	-6	-16	-16032	2728	-352	11	13	-15	-16040	152	-1832	27	28	-1	119	128	8
-8572	-2108	13480	-11	13	-23	-16200	-3992	632	-25	10	30	-15736	688	-4528	-51	0	14	-9448	3456	13656	11	-2	-19	-16008	2600	-432	-7	17	-17	-16136	96	-1592	-5	30	-6	119	128	8
-8516	-2048	13476	-12	13	-28	-16144	-3960	912	-20	-4	25	-15480	664	-4600	-63	1	8	-9320	3560	13624	7	-7	-20	-16088	2568	-352	-9	18	-23	-15976	160	-1424	-24	42	-13	119	128	8
-8640	-2068	13408	-10	16	-26	-16064	-3944	664	-25	-10	21	-15448	680	-4528	-60	1	-3	-9488	3496	13376	9	0	-18	-16048	2600	-264	-34	17	-19	-16080	304	-1520	-33	51	-14	120	128	8
-8560	-2160	13440	-16	10	-32	-16048	-4024	912	-16	-12	11	-15688	672	-4504	-63	3	0	-9488	3552	13456	7	-7	-23	-16064	2464	-280	-34	17	-22	-16176	128	-1728	-47	76	-22	119	128	8
-8560	-2128	13528	-15	14	-24	-16472	-4120	568	-9	-12	11	-15680	720	-4568	-76	5	-4	-9536	3224	13824	12	0	-21	-16216	2504	-376	-26	14	-27	-16312	0	-1456	-52	80	-25	119	128	8
-8528	-2048	13472	-15	22	-26	-16120	-4008	320	-7	-20	7	-15744	680	-4208	-85	12	-17	-9312	3440	13736	9	7	-20	-15968	2560	-120	-19	11	-26	-16208	56	-1528	-63	70	-23	119	128	8
-8556	-2064	13424	-20	27	-29	-16272	-4136	616	-10	-20	10	-15632	504	-4248	-95	10	-21	-9280	3536	13696	12	3	-21	-16008	2624	-352	-31	18	-22	-16176	-104	-1488	-66	79	-25	120	128	8
-8580	-2240	13380	-20	23	-29	-16016	-4048	704	-38	-37	8	-15536	544	-4168	-117	9	-30	-9232	3384	13664	14	0	-21	-15928	2688	-464	-39	25	-24	-16080	24	-1488	-68	86	-29	119	128	8
-8564	-2232	13416	-22	22	-28	-15992	-4120	984	-58	-47	7	-15568	576	-4296	-130	3	-36	-9392	3480	13648	9	1	-18	-16032	2576	-200	-42	29	-27	-16208	-128	-1432	-81	102	-31	120	128	8
-8584	-2028	13360	-20	21	-28	-16080	-3928	848	-52	-45	0	-15744	584	-4200	-136	0	-52	-9328	3552	13432	4	-6	-20	-15912	2648	-248	-45	34	-34	-16144	-120	-1640	-84	106	-36	120	128	8
-8488	-2144	13468	-18	21	-26	-16024	-3984	744	-42	-39	-3	-15776	504	-4296	-152	8	-48	-9440	3328	13336	7	-7	-23	-16056	2600	-40	-36	40	-43	-16336	-56	-1400	-94	112	-42	120	128	8
-8592	-2132	13432	-21	24	-26	-16128	-4224	640	-41	-40	-1	-15776	296	-4232	-163	17	-53	-9456	3648	13480	1	-11	-25	-16112	2584	-432	-41	56	-39	-16200	-96	-1488	-97	112	-47	121	128	8
-8600	-2104	13456	-19	26	-32	-16176	-4120	992	-50	-49	0	-15664	312	-4328	-164	22	-50	-9416	3496	13480	-1	-11	-30	-15984	2520	-416	-52	59	-41	-16120	-208	-1688	-95	124	-46	121	128	8
-8644	-2100	13332	-19	28	-27	-16048	-4176	1008	-49	-54	-7	-15792	280	-4352	-159	18	-52	-9240	3360	13648	-1	-5	-28	-16000	2424	-304	-54	64	-45	-16152	-208	-1720	-105	124	-45	121	128	8
-8612	-2264	13336	-23	32	-28	-15976	-4096	904	-60	-52	2	-15600	224	-4176	-151	8	-60	-9312	3488	13584	2	-3	-25	-16168	2360	-272	-50	65	-43	-16208	-168	-1928	-99	131	-44	121	128	8
-8540	-2248	13416	-22	31	-26	-15928	-4296	760	-72	-48	0	-15712	64	-4248	-157	-7	-63	-9576	3640	13376	8	-8	-25	-16184	2368	-416	-36	67	-43	-16264	-32	-2040	-96	124	-48	121	128	8
-8624	-2100	13364	-21	28	-24	-16048	-4248	736	-55	-45	7	-15744	0	-3920	-163	-10	-60	-9536	3240	13544	6	1	-27	-15912	2472	-448	-34	70	-43	-16224	-72	-1496	-101	126	-43	122	128	8
-8540	-2212	13396	-18	23	-23	-16088	-4248	952	-56	-34	10	-15992	48	-4128	-145	-3	-53	-9544	3208	13568	0	-7	-24	-16080	2368	-344	-29	71	-44	-16136	-296	-1640	-87	125	-46	122	128	8
-8552	-2188	13536	-21	27	-22	-16096	-4208	984	-58	-33	14	-15840	88	-3872	-159	0	-55	-9408	3536	13552	-3	-5	-26	-16168	2488	-344	-50	93	-48	-16280	-264	-1776	-93	121	-44	122	128	8
-8584	-2164	13384	-16	23	-19	-15976	-4320	880	-56	-22	22	-15832	-96	-4176	-161	0	-57	-9304	3376	13392	-3	-4	-28	-16088	2336	-672	-50	99	-47	-16304	-176	-1912	-88	122	-40	122	128	8
-8620	-2208	13388	-12	22	-19	-16008	-4192	992	-55	-16	17	-15808	-72	-4080	-172	-13	-50	-9224	3432	13440	-5	-1	-28	-16032	2336	-592	-34	99	-44	-16256	-328	-1832	-87	127	-43	122	129	8
-8596	-2168	13384	-14	24	-18	-15968	-4192	896	-58	-7	30	-15680	40	-4064	-166	-12	-48	-9408	3416	13680	-3	-1	-26	-15984	2264	-432	-27	97	-47	-16144	-240	-2120	-74	128	-41	122	129	8
-8544	-2200	13448	-12	22	-14	-15936	-4200	864	-58	0	30	-15752	160	-4064	-155	-11	-41	-9320	3232	13576	1	-5	-26	-16120	2360	-648	-12	100	-49	-16064	-336	-2120	-64	122	-39	122	129	8
-8616	-2208	13468	-12	23	-15	-16096	-4120	832	-66	-1	38	-15640	256	-4136	-149	-16	-42	-9344	3584	13680	-2	-7	-24	-16088	2344	-696	-15	96	-47	-16128	-320	-2352	-68	113	-35	122	129	8
-8600	-2216	13440	-8	20	-20	-16056	-4128	912	-64	2	40	-15792	32	-4144	-141	-23	-39	-9376	3504	13592	3	-4	-31	-16176	2344	-680	-29	106	-43	-16128	-256	-2168	-61	107	-34	122	129	8
-8588	-2188	13436	-6	15	-15	-16088	-4136	752	-57	16	39	-15800	48	-4064	-143	-18	-39	-9312	3688	13720	0	-4	-31	-15920	2240	-872	-23	112	-44	-16136	-240	-2344	-63	106	-37	122	129	8
-8616	-2160	13376	-10	16	-16	-16112	-3976	624	-42	17	39	-15608	88	-4264	-140	-21	-34	-9344	3384	13320	2	-1	-30	-16200	2184	-728	-23	111	-41	-16088	-376	-2240	-64	107	-34	122	129	8
-8636	-2196	13444	-10	16	-17	-16064	-4136	672	-40	23	44	-15624	208	-4184	-133	-12	-31	-9376	3288	13752	7	-2	-27	-16144	2120	-976	-24	107	-40	-16008	-264	-2568	-66	98	-30	122	129	8
-8672	-2208	13360	-7	16	-14	-16000	-4088	912	-47	22	39	-15744	144	-4464	-128	-18	-30	-9552	3336	13528	0	-4	-27	-15928	2336	-760	-19	106	-40	-15888	-216	-2512	-60	96	-30	122	129	8
-8608	-2172	13480	-6	12	-14	-16144	-4008	656	-49	23	44	-15448	96	-4336	-125	-21	-30	-9400	3608	13728	-2	-15	-24	-16184	2360	-528	-1	100	-43	-16120	-312	-2416	-50	92	-28	121	129	8
-8592	-2172	13404	-11	13	-16	-16096	-4136	816	-42	24	42	-15496	184	-4360	-134	-26	-21	-9424	3520	13616	-2	1	-24	-16192	2096	-584	-13	97	-47	-16112	-200	-2944	-50	81	-34	121	129	8
-8580	-2164	13360	-6	15	-17	-16272	-4080	552	-40	21	46	-15696	304	-4480	-132	-29	-16	-9376	3360	13648	3	-1	-27	-16176	2392	-800	-28	105	-37	-16040	-432	-2704	-51	72	-31	121	129	8
-8620	-2224	13344	-5	16	-15	-16024	-4112	560	-37	20	41	-15720	256	-4464	-127	-22	-19	-9472	3240	13448	3	2	-28	-16056	2304	-928	-34	106	-34	-15984	-152	-2824	-53	70	-32	122	129	8
-8584	-2096	13404	-11	10	-16	-16064	-4112	736	-43	17	40	-15504	288	-4368	-120	-26	-19	-9304	3288	13584	8	9	-25	-16088	2088	-880	-26	97	-39	-15912	-296	-2800	-55	68	-22	121	129	8
-8580	-2192	13376	-5	17	-19	-16184	-4024	752	-29	15	35	-15488	288	-4664	-98	-23	-15	-9328	3552	13504	6	7	-20	-16032	2192	-1032	-21	88	-33	-15808	-272	-2648	-54	55	-23	121	129	8
-8624	-2136	13348	-10	16	-16	-16216	-4024	608	-29	7	36	-15560	352	-4472	-106	-22	-21	-9320	3312	13432	1	2	-27	-16080	2072	-1232	-16	91	-28	-16016	-368	-2824	-32	59	-24	121	129	8
-8628	-2204	13380	-9	21	-19	-16232	-4072	464	-23	2	32	-15624	152	-4568	-89	-15	-8	-9376	3256	13736	3	-2	-27	-16096	2160	-1560	-24	86	-29	-15896	-296	-2696	-28	54	-21	121	129	8
-8636	-2084	13396	-11	17	-19	-16040	-4096	600	-25	-8	35	-15544	-8	-4640	-83	-12	-1	-9408	3304	13416	8	1	-27	-16096	2128	-1328	-21	74	-21	-16008	-224	-3248	-24	52	-18	121	128	8
-8624	-2144	13420	-11	17	-19	-16144	-3976	552	-19	-9	28	-15536	24	-4456	-68	-11	-1	-9360	3456	13832	2	-1	-30	-16104	2168	-1200	-6	63	-25	-15976	-256	-3088	-29	44	-15	121	128	8
-8640	-2144	13376	-9	19	-20	-16096	-3912	760	-11	-7	26	-15696	136	-4224	-58	-9	2	-9392	3360	13680	4	2	-27	-16232	2080	-920	-15	60	-18	-16096	-288	-2792	-35	31	-12	121	128	8
-8576	-2104	13448	-10	21	-22	-16072	-4040	568	-3	-3	27	-15680	304	-4144	-36	-5	7	-9264	3336	13400	9	-1	-26	-16176	2192	-1232	-32	59	-17	-15992	-384	-2944	-50	22	-13	121	129	8
-8640	-2144	13392	-8	20	-24	-15992	-4000	576	-4	2	31	-15624	168	-4208	-35	-11	9	-9392	3560	13448	8	3	-24	-16056	2240	-1336	-38	61	-16	-15936	-480	-2792	-41	25	-10	121	128	8
-8624	-2124	13516	-6	18	-22	-16048	-4024	912	-5	2	31	-15552	80	-4248	-40	-12	8	-9488	3400	13432	10	11	-23	-16200	2248	-1176	-31	59	-13	-15992	-296	-2552	-31	27	-7	121	128	8
-8676	-2256	13384	-11	16	-17	-16216	-4080	432	-6	-4	32	-15584	240	-4176	-51	-14	17	-9320	3280	13616	11	4	-28	-16176	2152	-1048	-8	43	-15	-15936	-280	-2960	-21	30	0	121	128	8
-8656	-2144	13364	-8	15	-18	-16200	-3984	512	-10	-2	32	-15648	216	-4360	-48	-14	19	-9456	3336	13400	10	8	-23	-16032	2048	-1456	-4	35	-13	-16024	-288	-2904	5	27	0	121	128	8
-8628	-2180	13376	-13	21	-18	-16184	-4016	472	-9	-9	31	-15704	280	-4584	-39	-10	20	-9576	3408	13560	12	7	-27	-15992	2336	-1128	1	31	-9	-15760	-328	-2680	10	17	-3	121	128	8
-8600	-2128	13480	-10	15	-15	-16040	-3848	840	-7	-12	30	-15472	192	-4312	-29	-17	18	-9568	3424	13552	11	9	-22	-16040	2128	-1360	3	33	-13	-15816	-272	-2904	16	21	3	120	128	8
-8656	-2128	13440	-11	15	-23	-16064	-3888	952	-6	-3	26	-15504	272	-4408	-26	-18	20	-9504	3360	13616	7	5	-23	-16080	2296	-1088	-13	25	-6	-15824	-176	-3056	4	10	8	121	128	8
-8624	-2152	13380	-9	14	-21	-16088	-4080	616	6	-5	23	-15568	320	-4280	-11	-13	23	-9368	3352	13608	12	1	-24	-16040	2096	-1296	-12	24	-6	-16072	-280	-3080	-2	19	2	120	128	8
-8596	-2068	13372	-4	13	-25	-16184	-3976	472	9	-4	26	-15776	224	-4336	-7	-7	27	-9304	3264	13848	12	1	-21	-16064	2000	-1344	-10	19	-7	-16040	-168	-3088	8	13	3	121	128	8
-8660	-2124	13408	-10	16	-20	-16240	-4088	624	16	-4	23	-15696	296	-4392	3	-10	30	-9504	3312	13400	15	2	-17	-16184	2208	-1432	-8	13	-9	-15904	-264	-2984	13	7	2	121	128	8
-8672	-2148	13344	-9	16	-23	-16112	-3888	736	17	-5	26	-15760	112	-4296	8	-7	29	-9456	3360	13552	15	-3	-16	-15976	2200	-1296	-1	3	-5	-15960	-216	-3000	9	0	7	121	128	8
-8664	-2104	13320	-11	18	-25	-16024	-3984	736	16	1	19	-15544	208	-4184	15	-8	33	-9376	3376	13560	13	-5	-13	-16032	2200	-1440	-2	0	-7	-15968	-304	-2808	25	-4	2	121	128	8
-8660	-2184	13420	-10	17	-20	-16216	-3992	672	17	-3	15	-15672	104	-4352	16	-7	34	-9360	3304	13608	9	-3	-20	-16104	2200	-1256	4	0	-5	-16072	-520	-3024	32	-5	9	121	128	8
-8588	-2176	13372	-10	17	-26	-16080	-3952	728	19	3	18	-15640	312	-4040	21	1	39	-9504	3384	13584	14	1	-15	-16136	2304	-1496	3	-6	-2	-15800	-464	-3040	37	-1	6	120	128	8
-8648	-2160	13376	-15	21	-24	-16032	-3992	552	22	2	23	-15592	104	-4104	23	-4	38	-9456	3360	13488	17	-4	-19	-16248	2168	-1152	8	-12	-6	-15896	-128	-2808	52	3	7	120	128	8
-8588	-2120	13492	-9	17	-24	-16056	-4128	576	25	9	22	-15584	232	-3904	29	-3	43	-9448	3376	13512	14	-1	-15	-15968	2208	-1296	14	-12	-6	-15936	-264	-2768	58	-5	12	120	128	8
-8604	-2156	13344	-8	12	-24	-16088	-4080	776	27	12	22	-15608	184	-4112	27	-2	43	-9296	3376	13552	14	2	-12	-16080	2408	-1112	18	-20	-2	-15912	-312	-2864	56	-13	14	120	128	8
-8636	-2152	13532	-8	15	-24	-16184	-4104	360	28	10	22	-15688	48	-4248	40	4	45	-9480	3288	13328	12	-3	-13	-16088	2208	-960	13	-11	-4	-15976	-264	-2704	61	-7	10	121	128	8
-8652	-2100	13372	-11	16	-25	-16088	-3960	696	29	8	19	-15640	304	-4080	53	11	49	-9368	3352	13656	14	-4	-14	-16176	2208	-1416	7	-16	-2	-15848	-240	-2768	55	-7	12	120	128	8
-8656	-2120	13372	-12	14	-26	-16080	-3944	704	33	9	17	-15584	280	-4352	50	3	51	-9472	3328	13600	14	-5	-18	-16240	2112	-1328	6	-15	-2	-16024	-264	-3080	53	-2	8	120	128	8
-8640	-2144	13380	-12	17	-25	-16088	-3920	624	35	12	21	-15656	336	-4112	40	5	52	-9432	3104	13600	17	1	-18	-16112	2120	-1256	3	-21	-2	-16064	-320	-2920	53	1	15	120	129	8
-8608	-2136	13384	-10	13	-24	-16024	-3848	704	29	15	17	-15624	312	-4248	43	1	50	-9416	3280	13424	13	-1	-14	-15936	2328	-1224	23	-30	-5	-15928	-264	-2856	62	2	14	120	128	8
-8572	-2144	13404	-11	17	-21	-16216	-4168	680	27	13	18	-15712	216	-4144	46	2	50	-9568	3400	13184	15	-3	-9	-15984	2120	-1360	17	-17	-9	-16048	-88	-2656	60	-13	11	120	128	8
-8624	-2132	13388	-13	19	-29	-16120	-3992	744	28	12	19	-15600	328	-4408	48	6	47	-9416	3248	13712	16	-3	-15	-15992	2336	-936	19	-17	-5	-16072	-192	-2816	60	-10	10	120	128	8
-8600	-2104	13404	-11	12	-22	-16120	-3928	552	26	15	19	-15592	224	-4280	37	2	47	-9456	3320	13584	14	-7	-16	-16304	2240	-1192	12	-20	-3	-16176	-408	-2584	58	-8	7	120	128	8
-8624	-2160	13380	-11	13	-28	-16208	-3856	680	26	18	16	-15736	320	-4232	37	3	51	-9424	3328	13696	13	-1	-12	-16024	2152	-1240	18	-22	0	-15808	-280	-2816	57	4	6	120	128	8
-8616	-2112	13532	-9	17	-26	-16064	-3872	696	26	15	17	-15600	280	-4368	38	6	52	-9336	3256	13416	13	-7	-15	-16128	2224	-1576	9	-19	-9	-16080	-200	-2688	54	-4	10	120	128	8
-8568	-2164	13444	-14	16	-26	-16056	-4008	432	25	18	15	-15568	184	-4248	35	1	50	-9392	3496	13696	16	-1	-17	-15976	2240	-1120	16	-20	-6	-16032	-96	-2864	56	0	9	120	128	8
-8636	-2072	13384	-8	13	-26	-16248	-4088	720	23	19	14	-15632	240	-4304	39	0	47	-9480	3352	13632	12	-3	-19	-16168	2096	-1480	7	-16	-11	-16104	-456	-2704	55	2	7	120	128	8
-8628	-2116	13352	-14	11	-25	-16064	-3944	768	15	19	14	-15528	328	-4448	34	-5	46	-9376	3352	13448	12	0	-13	-16160	2080	-1072	10	-13	-5	-15992	-216	-2800	45	1	5	120	128	8
-8572	-2100	13400	-8	11	-28	-16144	-4000	656	16	13	17	-15792	296	-4328	16	-8	49	-9568	3248	13760	19	-3	-16	-16000	2232	-1184	10	-12	-9	-16152	-112	-2680	49	3	1	120	128	8
-8576	-2140	13368	-13	13	-25	-16144	-4008	552	19	16	15	-15656	496	-4472	20	-7	42	-9432	3416	13568	15	2	-14	-16088	2120	-1296	3	-9	-9	-15976	-280	-2480	47	5	7	120	129	8
-8628	-2072	13452	-15	14	-29	-16096	-3992	608	17	13	9	-15672	480	-4536	12	-10	40	-9440	3328	13592	16	-4	-12	-16280	2080	-1424	7	-9	-13	-16024	-168	-2576	44	1	3	120	128	8
-8668	-2192	13428	-14	15	-28	-16144	-3992	648	20	16	19	-15640	368	-4688	9	-13	32	-9304	3424	13600	12	1	-11	-15992	2328	-1152	9	-13	-8	-16200	-128	-2872	40	7	3	120	128	8
-8640	-2112	13492	-9	17	-28	-16296	-3952	944	14	8	14	-15696	464	-4536	25	-5	28	-9304	3360	13560	9	-5	-18	-16120	2216	-872	7	-9	-15	-16144	-32	-2712	40	10	-2	120	128	8
-8632	-2160	13372	-11	17	-26	-16144	-4048	448	9	2	15	-15648	360	-4432	12	-4	23	-9424	3424	13440	12	-5	-19	-16080	2240	-992	4	-8	-13	-16048	-96	-2576	29	7	-3	120	128	8
-8568	-2164	13288	-12	15	-28	-16008	-4000	656	3	2	19	-15672	336	-4544	0	-13	17	-9464	3296	13616	13	-5	-16	-15968	2160	-1136	-2	-5	-9	-16040	-232	-2864	27	9	-5	120	128	8
-8580	-2088	13384	-10	12	-28	-16136	-3928	576	5	1	13	-15544	328	-4656	-12	-14	17	-9344	3392	13544	14	-2	-20	-16112	2200	-1352	-1	-6	-14	-16032	-392	-2992	22	4	-4	120	129	8
-8648	-2104	13480	-14	17	-19	-16288	-4048	488	6	10	14	-15608	408	-4512	-6	-15	18	-9304	3328	13376	13	6	-15	-15976	2216	-1088	-4	-2	-12	-16008	-232	-2752	17	-3	-4	120	129	8
-8584	-2112	13412	-13	19	-25	-16064	-4048	672	9	-1	11	-15672	464	-4480	-7	-9	16	-9528	3408	13720	10	-1	-23	-16000	2256	-1352	-7	0	-13	-16080	-384	-2656	15	-5	-5	120	129	8
-8628	-2124	13412	-13	21	-21	-16208	-3984	424	7	3	14	-15624	368	-4528	6	-9	15	-9392	3392	13416	12	0	-20	-16064	2160	-1264	-9	-1	-12	-16136	-312	-2704	14	-7	-6	120	128	8
-8628	-2140	13384	-12	19	-28	-16056	-4168	616	4	-7	13	-15512	200	-4416	5	-16	11	-9408	3464	13448	8	-4	-22	-16080	2320	-1152	-3	4	-10	-15912	-280	-2688	8	-7	-8	120	128	8
-8552	-2140	13460	-17	16	-20	-16104	-4112	712	1	-5	14	-15632	336	-4248	3	-21	10	-9528	3248	13488	7	-1	-18	-16136	2104	-1200	-3	1	-10	-16096	-280	-2856	10	-7	-10	120	129	8
-8612	-2108	13352	-10	20	-22	-16024	-3872	464	5	-10	13	-15664	296	-4664	-14	-20	11	-9440	3328	13568	16	-2	-20	-16048	2120	-1120	-8	0	-14	-15856	-264	-2800	2	-4	-12	120	129	8
-8596	-2116	13400	-14	16	-25	-16144	-4016	552	5	-3	15	-15712	280	-4632	-8	-22	11	-9400	3272	13480	12	-1	-23	-16128	2152	-1280	-14	-1	-13	-16040	-344	-2912	7	4	-5	120	129	8
-8596	-2176	13432	-16	17	-26	-16176	-3984	600	5	-6	11	-15680	312	-4280	-2	-19	10	-9440	3400	13432	15	5	-18	-16144	2064	-1264	-15	2	-9	-15976	-232	-2736	9	-4	-4	121	129	8
-8632	-2160	13368	-14	19	-25	-16184	-3920	536	10	-7	11	-15616	520	-4352	-6	-18	9	-9336	3304	13608	17	0	-19	-15976	2152	-1304	-4	-6	-12	-16008	-160	-2744	4	-7	-2	120	128	8
-8656	-2100	13368	-16	20	-25	-16160	-4040	584	8	-1	9	-15664	432	-4376	-14	-22	11	-9352	3360	13416	8	-3	-20	-16008	2080	-1160	-1	-8	-9	-15992	-128	-2976	9	-10	-3	121	129	8
-8648	-2136	13320	-12	16	-30	-16136	-4024	560	1	-7	8	-15616	224	-4328	-6	-23	11	-9392	3288	13704	11	-3	-16	-16072	2192	-1304	-8	-3	-8	-15856	-272	-2816	8	-13	-8	120	129	8
-8604	-2140	13388	-11	15	-22	-16136	-4088	480	2	-15	10	-15552	336	-4288	-12	-22	5	-9392	3464	13368	11	-3	-15	-16080	2088	-1328	-13	-5	-9	-16008	-320	-2912	4	-9	-9	120	129	8
-8600	-2108	13504	-12	16	-22	-16160	-4080	376	-2	-17	12	-15672	168	-4368	-10	-24	7	-9432	3392	13768	10	5	-16	-15976	2128	-1200	-15	-5	-8	-16016	-408	-2696	5	-9	-10	121	128	8
-8596	-2108	13500	-17	14	-28	-16112	-4128	752	0	-14	7	-15656	208	-4432	-13	-31	8	-9392	3256	13504	15	-2	-18	-16136	2152	-1128	-3	-6	-9	-16000	-160	-2584	11	-6	-1	121	129	8
-8608	-2112	13440	-12	21	-24	-16120	-4024	704	6	-12	9	-15608	48	-4352	-13	-31	8	-9472	3360	13536	14	-5	-17	-16192	2176	-1192	-3	-3	-8	-16128	-432	-2608	11	-5	-4	121	129	8
-8648	-2088	13328	-13	19	-26	-16272	-4152	488	6	-3	10	-15640	144	-4576	-11	-25	6	-9408	3416	13624	16	-6	-19	-16120	2152	-1304	-10	-1	-12	-16112	-328	-2632	11	-5	-2	120	128	8
-8652	-2148	13456	-14	18	-24	-16304	-3936	464	12	-10	11	-15632	312	-4504	-14	-27	11	-9528	3296	13704	15	6	-18	-16160	2176	-1296	-13	-3	-4	-16032	-240	-2576	14	-4	-5	120	128	8
-8636	-2100	13236	-17	19	-25	-16144	-3896	520	4	-15	10	-15600	224	-4448	-3	-22	12	-9368	3208	13384	13	3	-13	-16120	2184	-1120	0	-11	-6	-15976	-304	-2704	20	-9	-3	120	128	8
-8640	-2212	13480	-8	22	-28	-16120	-3920	632	3	-15	8	-15464	328	-4672	-13	-22	16	-9336	3376	13592	13	2	-17	-15952	2264	-1200	-8	-4	-5	-16024	-200	-2904	12	-13	-1	120	128	8
-8624	-2100	13344	-14	19	-26	-16096	-4024	736	8	-14	12	-15760	296	-4376	-12	-30	12	-9360	3336	13488	9	0	-19	-15928	2264	-1240	1	-3	-10	-16040	-288	-2744	16	-14	-1	121	128	8
-8604	-2068	13312	-11	16	-27	-16112	-3984	608	11	-17	8	-15520	248	-4440	3	-26	11	-9328	3264	13616	16	-8	-15	-16176	2096	-1040	1	-10	-3	-16064	-72	-2536	19	-18	-2	120	128	8
-8596	-2176	13384	-14	16	-26	-16032	-3960	440	8	-11	9	-15720	248	-4680	7	-27	9	-9224	3208	13640	16	-3	-15	-15984	2216	-1280	-2	-8	-7	-16232	-384	-2752	22	-16	-5	120	128	8
-8616	-2168	13456	-13	15	-24	-16272	-4104	616	11	-9	11	-15720	120	-4344	8	-32	12	-9288	3368	13512	13	2	-14	-16240	2112	-984	-3	-12	-3	-16040	-376	-2656	22	-10	-5	121	128	8
-8592	-2168	13396	-11	19	-29	-16056	-4008	440	9	-1	8	-15744	120	-4504	-7	-35	6	-9352	3320	13712	13	-6	-10	-16080	2216	-1256	1	-9	-7	-16048	-368	-2680	23	-10	1	120	128	8
-8636	-2124	13468	-15	20	-22	-16152	-3936	408	10	-8	10	-15784	288	-4320	-12	-31	14	-9440	3296	13680	14	-5	-17	-16048	2088	-1480	-3	-7	-2	-15912	-272	-2704	21	-17	3	120	128	8
-8552	-2124	13476	-13	21	-26	-16128	-3960	680	9	-11	12	-15520	288	-4520	-14	-27	17	-9504	3448	13640	16	0	-23	-16112	2232	-1104	1	-5	-1	-16048	-272	-2784	28	-18	-1	120	128	8
-8528	-2152	13392	-13	19	-24	-16040	-3952	656	7	-14	13	-15664	152	-4248	3	-28	12	-9600	3288	13456	11	-4	-20	-16112	2296	-1144	3	-9	-3	-16088	-360	-2512	26	-26	0	120	128	8
-8616	-2088	13388	-14	16	-27	-16136	-4192	664	10	-13	12	-15648	136	-4376	16	-32	12	-9408	3376	13448	16	-2	-16	-16088	2336	-1392	-4	-1	-1	-16032	-368	-2728	22	-24	3	121	128	8
-8636	-2120	13412	-17	14	-28	-16120	-3928	656	11	-8	11	-15640	88	-4304	11	-34	12	-9424	3320	13664	15	-4	-18	-16168	2160	-1304	6	-13	0	-16008	-264	-2888	40	-18	5	120	128	8
-8644	-2160	13416	-11	13	-31	-16000	-4016	664	16	2	11	-15744	176	-4376	13	-34	13	-9456	3352	13712	14	1	-17	-16104	2112	-1160	9	-18	0	-15904	-264	-2848	38	-14	3	120	128	8
-8592	-2148	13412	-7	14	-25	-16208	-4112	624	15	-7	12	-15744	192	-4472	2	-31	19	-9400	3320	13576	17	-4	-15	-16160	2184	-1336	14	-18	-2	-16072	-144	-2584	37	-17	7	120	128	8
-8576	-2140	13388	-11	15	-29	-16128	-4072	480	13	1	11	-15696	96	-4512	10	-33	23	-9320	3280	13520	12	1	-18	-16032	2248	-1160	7	-18	1	-16072	-232	-2632	43	-27	9	120	128	8
-8612	-2100	13392	-13	16	-30	-15904	-4096	368	18	-2	17	-15520	152	-4320	13	-25	19	-9264	3328	13608	17	-2	-20	-16064	2296	-1152	7	-16	3	-16136	-256	-2656	31	-37	5	120	128	8
-8492	-2140	13304	-8	11	-27	-16152	-3984	632	22	-6	15	-15544	192	-4400	17	-20	35	-9368	3248	13400	15	-1	-17	-16176	2104	-904	-5	-9	-4	-16264	-168	-2392	34	-37	10	120	128	8
-8572	-2132	13448	-11	14	-23	-16160	-4072	576	27	-12	14	-15416	264	-4432	31	-16	37	-9376	3416	13680	13	13	-26	-16160	2160	-960	3	-12	-1	-16296	-432	-2352	33	-43	11	120	128	8
-8600	-2096	13440	-8	14	-23	-16168	-4048	360	34	-14	11	-15664	168	-4504	33	-16	40	-9240	3168	13464	18	1	-23	-15904	2224	-1064	10	2	2	-16128	-832	-2272	42	-56	19	120	129	8
-8656	-2108	13428	-9	14	-29	-15992	-4064	528	34	-14	11	-15488	240	-4536	49	-19	45	-9480	3080	13536	16	7	-23	-15912	2072	-1192	23	3	0	-15864	-616	-2416	57	-72	18	120	129	8
-8568	-2132	13436	-16	16	-25	-16160	-4096	544	33	-15	13	-15528	368	-4208	57	-27	37	-9400	3240	13464	17	6	-25	-16088	2040	-1368	16	2	3	-15856	-384	-2592	63	-67	20	119	128	8
-8656	-2100	13416	-12	15	-28	-16080	-3976	704	31	-20	14	-15632	440	-4280	38	-34	31	-9440	3120	13480	19	2	-14	-16136	2128	-1136	16	1	5	-15784	-112	-2688	73	-48	17	120	128	8
-8620	-2140	13360	-11	13	-25	-16040	-4120	624	23	-21	11	-15544	512	-4224	31	-36	30	-9448	3328	13704	23	-1	-13	-16184	2088	-1144	2	-1	11	-15936	-112	-2936	68	-32	21	119	128	8
-8528	-2092	13396	-10	11	-30	-16296	-4016	552	21	-24	10	-15600	304	-4216	22	-36	20	-9528	3216	13488	18	-4	-10	-16192	2128	-1208	3	-17	12	-15912	-80	-2928	48	-30	21	119	128	8
-8596	-2212	13368	-12	13	-27	-16136	-4144	560	17	-32	11	-15712	288	-4600	-4	-38	18	-9344	3264	13536	21	4	-13	-16048	2192	-1352	9	-24	13	-15976	-88	-2840	19	-25	12	120	128	8
-8628	-2072	13428	-13	17	-27	-16128	-3984	752	7	-37	13	-15656	192	-4200	-15	-42	16	-9464	3480	13456	19	2	-6	-16064	2280	-1384	-1	-27	16	-15784	-40	-2864	24	-22	9	120	128	8
-8568	-2080	13508	-14	17	-26	-16104	-4064	576	1	-34	13	-15680	112	-4448	-22	-46	13	-9440	3232	13728	20	1	-12	-16080	2168	-1200	-8	-31	19	-15976	-256	-2704	17	-22	3	120	128	8
-8644	-2184	13400	-16	19	-23	-16064	-3976	824	11	-29	14	-15624	112	-4168	-1	-43	15	-9312	3368	13528	17	-3	-14	-16088	2264	-1256	-10	-34	19	-16000	-368	-2512	0	-17	9	119	128	8
-8580	-2120	13364	-16	17	-31	-16160	-3984	640	17	-27	15	-15664	200	-4416	18	-39	10	-9320	3328	13200	23	5	-7	-16136	2152	-984	-14	-32	24	-16064	-296	-2592	-1	-11	14	120	128	8
-8616	-2176	13356	-9	22	-25	-16048	-3984	656	21	-30	14	-15680	208	-4528	-7	-42	11	-9496	3328	13584	22	-2	-8	-16184	2224	-968	-19	-28	22	-16136	-160	-2296	-6	-15	14	120	128	8
-8628	-2164	13400	-15	16	-24	-16056	-4080	704	12	-36	17	-15608	200	-4432	-5	-46	8	-9512	3312	13376	24	5	-13	-16160	2304	-1080	-7	-35	21	-16176	-320	-2232	6	-5	17	120	128	8
-8608	-2156	13488	-14	14	-24	-16144	-4088	576	9	-32	22	-15552	112	-4088	4	-47	17	-9464	3552	13368	25	4	-13	-15992	2288	-1224	-13	-26	20	-16040	-336	-2048	14	-10	12	120	128	8
-8544	-2148	13376	-11	13	-26	-16072	-4096	824	8	-32	18	-15704	56	-4112	6	-39	23	-9312	3360	13480	21	1	-17	-15912	2288	-912	-10	-20	21	-16016	-192	-2344	21	-11	13	120	128	8
-8600	-2108	13476	-7	10	-26	-15952	-4000	904	11	-31	16	-15720	216	-3952	7	-42	23	-9432	3368	13464	18	-6	-12	-16144	2320	-1088	-10	-20	14	-16088	-240	-2504	34	-23	12	120	128	8
-8636	-2116	13364	-15	15	-25	-16152	-4000	888	16	-22	18	-15696	152	-4296	-11	-43	19	-9480	3384	13472	23	-2	-14	-16000	2264	-1208	2	-16	15	-16120	-80	-2520	28	-23	13	120	128	8
-8604	-2124	13372	-14	11	-27	-15976	-3920	640	9	-27	20	-15680	216	-4016	-5	-46	18	-9208	3384	13632	21	0	-12	-16040	2264	-1024	-1	-13	13	-15984	-208	-2400	34	-21	14	120	129	8
-8616	-2080	13424	-9	8	-28	-16160	-4064	736	7	-21	19	-15600	192	-4072	9	-44	21	-9328	3432	13552	23	4	-15	-16176	2120	-1504	-1	-18	17	-15992	-176	-2552	24	-21	13	120	128	8
-8592	-2160	13356	-7	8	-32	-16048	-3960	896	13	-15	20	-15744	168	-4144	3	-45	21	-9416	3240	13576	22	2	-11	-16160	2376	-1080	-11	-17	14	-16080	-152	-2376	23	-18	8	120	128	8
-8544	-2216	13424	-13	13	-31	-16088	-4048	512	12	-12	16	-15672	368	-4232	-15	-39	22	-9312	3280	13344	24	7	-15	-16048	2304	-1256	-1	-16	14	-16040	-112	-2272	24	-24	10	120	128	8
-8636	-2096	13456	-9	12	-28	-16080	-4024	648	14	-18	15	-15752	304	-4504	-9	-38	23	-9416	3312	13480	21	-2	-12	-16056	2264	-1080	0	-17	8	-15960	-168	-2504	31	-25	10	120	128	8
-8612	-2132	13368	-14	15	-30	-16144	-3824	680	5	-19	14	-15568	336	-4216	0	-34	19	-9304	3368	13432	18	0	-12	-15976	2256	-1184	2	-17	4	-16128	8	-2192	29	-22	9	120	128	8
-8632	-2164	13324	-9	13	-26	-16072	-4056	840	6	-23	19	-15688	392	-4232	1	-33	13	-9448	3464	13672	20	0	-11	-16032	2384	-1288	1	-16	3	-16016	-40	-2472	27	-15	5	120	128	8
-8620	-2196	13456	-16	12	-29	-16144	-4056	552	2	-24	9	-15752	448	-4480	-15	-34	16	-9376	3296	13376	17	-3	-15	-16056	2456	-1232	-1	-12	3	-16032	32	-2352	22	-10	4	120	128	8
-8560	-2140	13432	-17	15	-26	-16088	-3992	824	11	-20	9	-15696	456	-4240	2	-35	12	-9496	3416	13480	18	-4	-15	-15984	2368	-1144	-9	-12	5	-15984	-144	-2400	14	-9	0	120	128	8
-8592	-2128	13544	-15	14	-27	-16112	-3928	912	13	-22	5	-15744	264	-4248	4	-29	14	-9328	3200	13312	13	-5	-15	-16208	2344	-1232	-14	-13	-2	-16008	-144	-2480	16	-11	-2	121	128	8
-8640	-2144	13472	-18	18	-26	-16008	-4064	656	11	-24	6	-15720	200	-3952	5	-25	8	-9400	3296	13608	12	8	-18	-16064	2200	-1104	-6	-10	5	-16200	-192	-2336	13	-8	0	120	128	8
-8596	-2160	13412	-12	14	-29	-16024	-4048	832	11	-21	7	-15640	168	-4184	-16	-29	5	-9344	3248	13560	16	3	-17	-16088	2312	-1088	-10	-17	1	-16224	-88	-2592	5	-8	-4	120	128	8
-8524	-2188	13504	-12	13	-27	-16032	-4160	704	-1	-24	11	-15640	144	-3896	-23	-31	1	-9456	3288	13584	16	2	-15	-16072	2304	-976	-6	-11	-1	-16072	-144	-2232	6	-9	1	120	129	8
-8596	-2144	13424	-14	11	-25	-16088	-3832	896	-3	-22	13	-15640	200	-4088	-31	-41	0	-9416	3392	13560	22	0	-14	-16032	2360	-1072	-19	-13	-3	-15984	-88	-2632	2	-7	-5	121	128	8
-8596	-2144	13388	-12	13	-30	-16248	-4232	840	5	-16	11	-15648	256	-4336	-28	-33	2	-9528	3408	13584	15	6	-23	-16008	2376	-1232	-20	-11	-3	-15912	-152	-2648	5	-1	-3	120	128	8
-8596	-2092	13404	-15	15	-29	-16112	-4064	744	7	-19	7	-15776	200	-4304	-4	-25	1	-9416	3400	13464	14	4	-15	-16088	2320	-976	2	-12	-3	-16168	-224	-2304	5	10	3	120	128	8
-8620	-2184	13412	-11	16	-28	-16128	-3960	776	5	-23	9	-15672	96	-4064	2	-19	3	-9392	3232	13712	15	1	-11	-16112	2232	-960	2	-14	-4	-16080	-328	-2072	5	8	-2	121	128	8
-8604	-2216	13308	-16	15	-27	-16024	-3984	680	5	-18	10	-15784	-104	-4208	-25	-23	6	-9416	3448	13376	15	-4	-16	-16120	2496	-928	-11	-5	-1	-16064	-128	-2176	5	-8	-5	121	128	8
-8596	-2156	13348	-17	15	-27	-16088	-3968	816	-1	-17	12	-15784	-8	-3912	-20	-25	9	-9360	3368	13584	14	-5	-14	-16080	2360	-976	-10	0	-2	-16264	-112	-2272	4	-15	-6	121	128	8
-8596	-2140	13536	-14	12	-27	-16168	-3896	984	8	-14	6	-15688	184	-3952	-14	-24	12	-9408	3408	13448	15	10	-19	-16056	2256	-1288	-15	-2	-5	-16048	-128	-2400	7	-2	-3	121	128	8
-8588	-2160	13428	-13	16	-25	-16144	-4040	744	10	-16	10	-15720	88	-4208	-1	-20	12	-9632	3432	13672	19	10	-17	-16040	2352	-1272	-1	-13	-7	-16160	-232	-2552	24	0	-3	121	129	8
-8612	-2148	13424	-13	11	-26	-16168	-4024	792	12	-8	10	-15584	72	-4136	-3	-18	15	-9464	3488	13464	18	3	-17	-15944	2384	-1056	4	-15	-6	-15928	-152	-2280	20	-1	-3	121	128	8
-8584	-2148	13336	-14	12	-25	-15896	-3976	736	6	-9	11	-15656	280	-4112	1	-21	13	-9400	3352	13728	13	-1	-15	-16120	2384	-1120	-4	-9	-9	-16112	24	-2272	24	-1	-1	120	128	8
-8576	-2100	13404	-14	12	-31	-16112	-4112	760	8	-5	10	-15760	24	-3792	-2	-23	4	-9360	3360	13480	15	2	-17	-16008	2328	-1224	-11	-13	-11	-16112	-104	-2552	20	-8	-5	120	128	8
-8592	-2144	13408	-13	10	-22	-16200	-4008	752	11	-6	9	-15744	160	-4136	2	-18	9	-9360	3432	13592	16	-3	-16	-16120	2288	-1128	-7	-15	-9	-15984	-104	-2496	20	-4	-7	121	129	8
-8588	-2068	13368	-9	10	-26	-15984	-3936	848	10	-2	5	-15704	208	-4264	0	-18	12	-9336	3336	13328	16	0	-15	-16120	2288	-704	-2	-20	-13	-16160	-176	-2288	20	-3	-7	120	129	8
-8544	-2120	13536	-10	9	-29	-16200	-4016	880	16	-4	5	-15736	328	-4000	-1	-19	17	-9424	3336	13336	16	4	-16	-16144	2336	-1104	-3	-13	-11	-16120	-136	-2048	27	3	-6	120	128	8
-8556	-2264	13332	-12	11	-28	-16112	-4024	856	18	-2	1	-15704	232	-4184	6	-19	15	-9464	3320	13440	15	3	-17	-16048	2376	-1360	-3	-16	-18	-16088	-200	-2304	31	1	-2	121	129	8
-8616	-2164	13420	-12	14	-27	-16176	-4120	1008	14	-1	1	-15760	288	-3952	7	-17	16	-9488	3392	13560	20	2	-12	-16056	2328	-1032	2	-20	-9	-15968	-136	-2512	31	7	-3	121	129	8
-8560	-2140	13440	-11	10	-33	-16024	-4048	984	16	-3	-1	-15744	168	-4232	8	-23	19	-9456	3392	13400	18	3	-12	-16136	2480	-1000	-3	-21	-13	-16072	-112	-2584	38	8	-6	121	129	8
-8488	-2136	13452	-14	14	-29	-16248	-4192	728	22	5	-3	-15800	304	-4064	5	-23	13	-9368	3312	13264	14	3	-13	-16072	2368	-1304	7	-28	-15	-15912	-96	-2712	29	4	-5	120	129	8
-8560	-2144	13464	-15	14	-33	-16256	-4000	776	24	-1	2	-15752	320	-4032	15	-16	18	-9432	3376	13616	14	-8	-13	-16080	2280	-1112	9	-28	-17	-15912	-216	-2520	38	0	-5	121	128	8
-8556	-2172	13412	-20	22	-32	-16048	-4096	768	17	-8	0	-15720	24	-4240	19	-4	10	-9464	3400	13392	14	-6	-13	-16192	2216	-1136	-1	-32	-9	-16000	-208	-2464	32	7	-1	121	129	8
-8568	-2224	13484	-13	16	-24	-16120	-4000	632	7	-14	5	-15752	32	-4512	3	-3	11	-9496	3400	13400	16	-2	-15	-16176	2320	-952	8	-35	-8	-16152	-232	-2240	33	16	-4	121	129	8
-8596	-2176	13440	-16	20	-29	-16048	-4096	856	3	-13	1	-15504	-8	-3984	14	-3	15	-9352	3608	13360	10	-2	-13	-16240	2232	-1032	3	-39	-9	-16008	-264	-2624	24	14	-3	121	129	8
-8560	-2112	13448	-17	19	-28	-16088	-4016	1024	15	-8	0	-15760	-96	-4056	12	-7	18	-9544	3472	13368	8	4	-20	-16216	2080	-1232	-4	-38	-8	-16152	-176	-2224	24	19	4	121	129	8
-8568	-2208	13400	-13	22	-26	-15904	-4152	888	26	-3	7	-15776	112	-4040	12	0	22	-9568	3816	13352	13	-4	-15	-16008	2472	-992	13	-42	-7	-15912	-376	-2552	16	15	4	121	129	8
-8560	-2296	13384	-17	23	-22	-16016	-4168	1096	23	-3	9	-15584	24	-4040	37	4	22	-9512	3304	13512	11	-2	-18	-16032	2432	-1040	0	-33	-2	-16000	-288	-2096	23	6	0	121	129	8
-8516	-2204	13464	-11	25	-25	-16096	-4232	792	16	-9	13	-15648	0	-4256	33	5	28	-9232	3400	13656	12	-4	-16	-15976	2376	-872	-2	-27	-7	-16072	-360	-1928	18	-5	2	121	129	8
-8536	-2120	13492	-13	25	-22	-16152	-4088	640	14	-13	15	-15624	64	-4072	11	4	31	-9560	3720	13464	12	-1	-19	-16224	2408	-744	1	-22	-6	-16232	-328	-1992	10	-5	4	121	129	8
-8568	-2204	13384	-9	26	-21	-16152	-3968	840	23	-10	13	-15632	24	-4368	-6	5	33	-9416	3592	13360	14	-1	-21	-16080	2344	-768	-8	-15	-7	-16088	-200	-2096	13	-1	7	121	128	8
-8664	-2168	13360	-11	25	-23	-16120	-3920	912	16	-18	14	-15592	32	-4144	1	10	32	-9264	3480	13400	12	-3	-18	-16088	2280	-896	-10	-13	-7	-15992	-304	-2184	15	26	3	121	128	8
-8584	-2196	13408	-10	23	-22	-16008	-4272	816	1	-22	21	-15712	136	-4064	11	7	33	-9536	3424	13448	9	-1	-20	-16128	2352	-576	2	-2	-4	-16240	-160	-1992	5	29	4	121	129	8
-8624	-2184	13404	-10	23	-21	-16064	-4152	1136	1	-19	21	-15856	40	-3872	7	2	34	-9432	3408	13448	10	0	-17	-16064	2296	-832	-9	13	-17	-16328	-232	-2000	-1	18	3	121	129	8
-8496	-2224	13416	-11	19	-21	-15936	-3960	824	-2	-14	20	-15864	200	-3872	-15	-2	32	-9456	3416	13520	12	-3	-24	-16032	2256	-680	-22	23	-14	-16120	-328	-1888	3	17	0	121	129	8
-8640	-2236	13372	-16	18	-22	-16048	-4240	1056	0	-8	21	-15768	152	-4064	-23	-9	28	-9440	3384	13488	8	2	-29	-16008	2256	-872	-16	26	-11	-16064	-480	-2408	15	12	-3	121	129	8
-8616	-2164	13456	-9	21	-25	-16104	-4256	856	14	3	29	-15856	-88	-4032	9	-9	31	-9448	3360	13544	11	0	-21	-16208	2280	-1296	-11	20	-4	-15856	-280	-2640	24	12	8	120	129	8
-8604	-2232	13448	-7	20	-15	-16136	-4176	952	12	10	28	-15656	88	-3992	27	1	35	-9544	3376	13600	12	3	-20	-16136	2296	-1008	6	13	-7	-16032	-304	-2864	27	11	10	121	129	8
-8584	-2244	13436	-7	20	-26	-15976	-4120	1080	9	11	33	-15720	-136	-3776	13	-1	39	-9528	3520	13448	9	-2	-16	-16096	2200	-1048	9	6	-9	-15840	-192	-2504	29	10	15	120	129	8
-8572	-2176	13364	-7	19	-20	-16112	-4288	1024	5	17	31	-15560	-160	-4400	-2	3	44	-9296	3312	13648	14	-5	-15	-16064	2232	-896	1	9	-6	-16000	-144	-2392	32	6	11	121	129	8
-8592	-2196	13388	-4	18	-17	-16072	-4072	864	11	27	37	-15576	32	-4056	3	1	49	-9400	3392	13448	7	-3	-22	-15992	2496	-1056	-6	8	-4	-16088	-248	-2536	41	2	6	120	129	8
-8552	-2172	13456	-6	14	-17	-16248	-4016	760	19	24	37	-15752	224	-4208	6	0	54	-9432	3376	13528	7	-9	-23	-16160	2432	-1192	0	10	-2	-16072	-64	-2416	37	0	10	120	129	8
-8604	-2136	13392	-13	17	-20	-16256	-4184	1048	18	22	34	-15600	224	-4056	24	5	52	-9424	3392	13328	7	-5	-23	-16176	2392	-1000	7	12	-9	-16112	-128	-2472	38	1	14	120	129	8
-8616	-2172	13352	-6	19	-19	-16216	-3952	864	18	20	35	-15608	224	-4224	29	10	50	-9304	3384	13512	8	2	-23	-16000	2216	-936	16	9	-6	-16088	-240	-2264	41	5	14	120	129	8
-8528	-2148	13460	-12	18	-21	-16128	-4144	848	13	22	34	-15656	248	-4344	31	7	49	-9416	3280	13504	10	-2	-17	-16096	2376	-920	11	15	-7	-16136	-208	-2232	42	3	12	120	129	8
-8600	-2180	13348	-5	13	-23	-16032	-4080	944	12	20	39	-15624	336	-4432	20	-2	47	-9408	3376	13728	8	-1	-19	-16200	2336	-1048	3	16	-7	-15992	-272	-2416	33	7	5	120	129	8
-8628	-2188	13408	-10	14	-16	-16072	-3992	752	7	18	36	-15664	352	-4280	11	-10	47	-9560	3368	13800	15	2	-20	-16008	2248	-960	-4	20	-6	-16168	-208	-2696	31	9	10	120	129	8
-8632	-2160	13500	-6	13	-22	-16072	-4072	696	6	14	37	-15824	216	-4216	15	-8	44	-9360	3464	13456	11	3	-24	-16024	2312	-1104	5	18	-2	-15840	-104	-2560	29	8	10	120	129	8
-8620	-2156	13452	-8	18	-21	-16128	-4064	992	10	21	31	-15648	280	-4032	11	-3	42	-9552	3392	13312	11	3	-20	-16112	2264	-1336	11	14	-6	-15976	24	-2528	35	4	7	119	129	8
-8572	-2160	13384	-7	22	-18	-16176	-3904	672	13	20	29	-15856	432	-4208	11	6	47	-9440	3424	13632	10	5	-19	-16040	2352	-1136	9	7	-10	-15856	-80	-2816	37	9	8	120	129	8
-8540	-2152	13344	-13	20	-20	-15952	-3936	776	8	10	27	-15784	504	-4368	7	6	46	-9472	3472	13504	9	-7	-20	-16072	2504	-1328	6	5	-7	-16024	152	-2728	39	7	4	119	129	8
-8596	-2108	13384	-8	18	-20	-16128	-4040	656	8	11	23	-15584	248	-4256	-7	-1	38	-9376	3232	13592	11	-9	-19	-16040	2360	-856	0	4	-15	-16032	-8	-2448	27	3	2	119	129	8
-8692	-2160	13356	-12	17	-19	-16072	-3976	768	13	13	25	-15816	200	-4416	13	-8	36	-9512	3408	13232	5	-7	-20	-16128	2424	-1216	-4	7	-11	-16072	40	-2632	15	6	-4	119	129	8
-8560	-2148	13384	-12	16	-27	-16304	-4000	1008	10	11	20	-15576	424	-4216	19	-6	33	-9280	3288	13600	6	-3	-19	-16088	2464	-1200	-1	5	-12	-16080	-96	-2464	18	13	-1	119	129	8
-8592	-2196	13376	-18	17	-27	-15952	-4136	776	8	8	20	-15616	312	-4328	26	1	29	-9472	3336	13592	10	-3	-15	-16080	2408	-1080	-8	4	-19	-16144	-168	-2336	18	13	-3	119	129	8
-8644	-2152	13484	-13	15	-22	-16160	-4080	896	6	13	15	-15712	248	-4432	21	1	30	-9376	3240	13488	9	-6	-19	-16072	2376	-1040	-2	6	-12	-16104	-168	-2464	17	18	-4	120	129	8
-8592	-2092	13540	-18	13	-23	-16152	-4024	776	14	16	19	-15736	240	-4168	16	0	31	-9352	3296	13640	14	-8	-18	-16080	2248	-1152	-4	-1	-16	-16064	-320	-2696	26	20	-4	120	129	8
-8548	-2132	13548	-12	18	-24	-15976	-4104	736	22	20	18	-15752	256	-4168	12	4	38	-9296	3208	13464	12	-6	-20	-16072	2296	-976	3	3	-16	-15904	-360	-2464	26	11	-4	119	129	8
-8532	-2176	13308	-14	16	-26	-15904	-4152	752	13	22	19	-15784	216	-4440	7	4	32	-9448	3336	13368	16	-1	-15	-15928	2352	-808	3	2	-11	-16072	-312	-2448	33	9	2	120	129	8
-8612	-2220	13428	-14	18	-23	-16040	-4104	952	9	17	28	-15744	-56	-4208	5	-4	35	-9280	3504	13432	11	-4	-17	-16096	2408	-696	1	8	-15	-16136	-312	-2496	35	4	1	120	129	8
-8556	-2124	13368	-5	13	-21	-16000	-3960	728	2	14	28	-15584	120	-4456	5	-6	36	-9400	3496	13472	14	-9	-17	-16048	2344	-1160	1	7	-8	-16072	-368	-2768	39	10	6	120	129	8
-8588	-2144	13540	-6	15	-21	-16072	-4104	480	12	18	29	-15584	32	-4264	0	-1	44	-9472	3376	13408	10	1	-21	-16272	2040	-1032	11	3	-11	-16072	-392	-2768	47	10	10	120	129	8
-8588	-2184	13396	-11	16	-25	-16048	-3960	848	11	17	28	-15704	240	-4256	18	3	48	-9512	3400	13464	11	2	-22	-16008	2240	-1280	22	-5	-5	-16168	-256	-2640	62	13	14	120	129	8
-8648	-2184	13388	-4	18	-20	-16128	-3968	776	15	9	25	-15656	296	-4544	35	6	54	-9424	3408	13312	14	0	-18	-16040	2208	-784	17	-7	-3	-16064	-128	-2472	63	8	10	119	129	8
-8556	-2228	13388	-9	14	-22	-16112	-4088	768	20	11	27	-15528	264	-4432	32	8	54	-9392	3280	13560	14	2	-16	-16096	2312	-1104	15	-6	-7	-16024	-192	-2552	61	-3	12	119	129	8
-8588	-2144	13444	-4	12	-21	-16176	-4104	376	15	11	27	-15608	272	-4536	33	10	55	-9480	3296	13752	16	0	-16	-16088	2112	-920	13	-6	-5	-15912	-88	-2504	49	-5	13	119	129	8
-8560	-2088	13432	-10	13	-22	-16264	-3992	712	18	13	23	-15712	472	-4152	42	10	55	-9352	3288	13560	13	-4	-16	-16000	2376	-1208	8	-4	-6	-15976	-128	-2752	55	3	10	119	129	8
-8536	-2088	13500	-8	11	-22	-16040	-3960	880	19	15	25	-15792	256	-4224	50	17	57	-9344	3144	13704	17	-5	-16	-16112	2440	-1024	6	-4	-3	-16160	-144	-2248	58	2	5	119	129	8
-8600	-2172	13396	-10	11	-27	-16104	-4016	800	27	26	23	-15864	336	-4256	47	14	53	-9432	3256	13432	14	5	-18	-16160	2296	-1128	23	-11	-13	-15968	-64	-2576	64	2	13	119	129	8
-8572	-2228	13416	-3	15	-25	-16096	-3864	896	27	25	23	-15608	448	-4256	41	11	55	-9344	3272	13640	12	0	-15	-16056	2336	-1216	13	-15	-6	-16120	8	-2464	64	5	13	119	129	8
-8572	-2132	13444	-7	17	-26	-16096	-3984	904	17	22	26	-15696	392	-4280	32	19	49	-9376	3184	13504	10	2	-23	-16160	2448	-832	26	-12	-12	-16072	32	-2168	68	4	9	119	129	8
-8576	-2100	13436	-10	16	-21	-16032	-4008	736	15	17	24	-15680	288	-4512	20	15	44	-9488	3288	13480	12	0	-21	-15912	2304	-904	20	-8	-14	-16240	-112	-2280	57	2	4	119	129	8
-8608	-2100	13372	-8	13	-24	-16112	-3896	888	4	16	23	-15584	336	-4440	16	11	44	-9392	3296	13536	6	6	-21	-16088	2280	-968	19	-10	-14	-16088	-96	-2552	45	4	3	119	129	8
-8516	-2220	13392	-7	14	-21	-16136	-3968	640	5	23	22	-15736	544	-4408	18	10	38	-9400	3320	13464	14	-1	-22	-16032	2240	-1128	11	3	-16	-16112	-144	-2240	38	7	0	119	129	8
-8548	-2100	13412	-11	15	-23	-16160	-3880	832	6	24	20	-15792	544	-4504	17	11	36	-9424	3336	13800	14	-2	-22	-16008	2392	-968	10	2	-14	-16032	-128	-2528	37	7	1	118	129	8
-8660	-2108	13428	-8	20	-23	-16240	-3928	752	10	18	20	-15584	392	-4592	22	18	37	-9424	3200	13456	14	0	-26	-15928	2376	-1152	11	3	-21	-16040	-216	-2440	46	16	-2	118	129	8
-8596	-2136	13412	-10	20	-23	-15928	-3928	888	3	22	18	-15704	328	-4408	15	8	28	-9472	3360	13472	8	-4	-25	-15992	2360	-992	13	4	-20	-16040	-272	-2304	36	14	-10	119	129	8
-8628	-2068	13444	-8	20	-17	-16152	-3912	672	1	19	21	-15664	280	-4328	5	3	24	-9432	3296	13272	7	-3	-21	-16136	2408	-992	12	7	-22	-16024	-136	-2520	28	19	-5	119	129	8
-8548	-2080	13460	-10	16	-22	-16128	-3920	664	4	22	22	-15624	392	-4440	-9	-2	27	-9472	3248	13368	11	5	-24	-16192	2280	-1000	-1	14	-24	-16208	-320	-2616	21	12	-13	118	129	8
-8632	-2068	13380	-9	15	-20	-16200	-3912	320	5	23	18	-15608	560	-4520	-10	-4	25	-9456	3304	13520	13	3	-27	-16136	2264	-1160	-4	19	-19	-16096	-368	-2728	11	15	-11	119	129	8
-8648	-2076	13456	-8	18	-21	-16016	-3928	664	-4	23	21	-15672	528	-4248	-15	-5	24	-9368	3360	13352	14	6	-23	-16072	2240	-984	-1	17	-17	-15992	-216	-2456	19	10	-9	119	129	8
-8632	-2140	13420	-8	20	-19	-16040	-3976	360	-5	16	19	-15440	520	-4584	-18	-13	17	-9432	3272	13376	16	7	-19	-15968	2248	-1144	-1	20	-20	-16032	-272	-2344	18	0	-2	119	129	8
-8616	-2100	13436	-9	16	-23	-16064	-4048	632	-10	1	23	-15472	352	-4672	-30	-11	18	-9504	3296	13424	13	5	-24	-16104	2192	-984	3	20	-19	-16112	-296	-2712	25	-3	-2	119	129	8
-8556	-2172	13396	-13	13	-21	-16200	-3888	744	-10	-2	19	-15448	304	-4896	-16	-9	13	-9544	3320	13384	15	-1	-21	-16240	2120	-1152	-2	16	-13	-16096	-128	-2888	25	-6	-5	119	129	8
-8576	-2084	13420	-9	13	-22	-16168	-3968	624	-1	-4	23	-15488	320	-4688	7	-4	19	-9432	3360	13768	12	5	-22	-16120	2176	-1280	8	4	-17	-16024	-112	-3032	26	-7	-2	119	129	8
-8596	-2076	13288	-13	14	-23	-16048	-3928	672	9	2	16	-15648	264	-4544	12	-7	21	-9536	3360	13432	15	3	-23	-16120	2136	-1296	7	4	-10	-15880	-112	-2568	24	-2	-7	119	129	8
-8560	-2132	13412	-11	7	-21	-16000	-3912	840	16	2	17	-15768	400	-4392	14	-8	28	-9392	3232	13368	16	1	-14	-16120	2360	-1224	3	-3	-11	-15904	-256	-2608	24	-7	-5	119	129	8
-8568	-2152	13396	-17	12	-27	-16016	-4048	720	21	3	12	-15616	384	-4352	19	-6	29	-9504	3400	13480	13	-1	-18	-15992	2120	-1080	3	1	-12	-16016	-328	-2784	29	-11	-5	119	129	8
-8620	-2124	13420	-13	13	-29	-16088	-3920	656	25	15	6	-15584	392	-4448	16	-8	29	-9432	3560	13552	15	-2	-16	-16128	2240	-1080	9	-5	-9	-16048	-144	-2480	30	-15	-1	119	129	8
-8596	-2080	13500	-9	9	-28	-16136	-3896	888	20	14	12	-15664	464	-4352	26	-9	25	-9456	3360	13304	17	-7	-14	-16008	2376	-1392	2	-8	-11	-15976	-8	-2624	32	-18	2	119	129	8
-8576	-2108	13464	-10	14	-24	-16056	-3848	888	11	9	13	-15584	376	-4392	31	-11	22	-9504	3408	13568	17	-4	-16	-16136	2264	-1192	5	-13	-10	-16112	-96	-2568	32	-19	-3	119	128	8
-8500	-2140	13384	-13	12	-28	-16104	-3984	672	12	7	9	-15616	360	-4672	16	-20	23	-9296	3240	13640	12	-3	-20	-16240	2280	-976	-2	-14	-7	-16000	-176	-2536	36	-14	-5	119	129	8
-8544	-2156	13412	-10	8	-32	-16216	-3992	528	14	2	6	-15472	424	-4624	-3	-18	24	-9360	3264	13520	17	-7	-14	-16088	2200	-1280	4	-13	-8	-15936	-304	-2392	37	-6	-6	119	129	8
-8568	-2132	13420	-15	15	-26	-16288	-3824	576	11	7	6	-15704	416	-4440	2	-18	16	-9496	3304	13480	11	7	-18	-16072	2248	-1200	4	-17	-8	-16032	-208	-2656	30	-11	-5	119	128	8
-8588	-2160	13480	-18	12	-27	-16144	-3912	656	10	-1	5	-15576	424	-4624	11	-15	19	-9408	3336	13640	14	-2	-17	-16192	2296	-1200	3	-19	-14	-15992	-128	-2456	21	-19	1	119	128	8
-8608	-2104	13396	-18	21	-33	-16184	-4064	424	16	-1	2	-15448	240	-4352	11	-17	15	-9464	3264	13440	11	-5	-16	-15992	2240	-1072	-2	-16	-8	-15896	-80	-2560	14	-28	-1	119	128	8
-8604	-2124	13352	-13	18	-30	-16064	-3864	448	20	-2	2	-15528	424	-4424	16	-23	16	-9456	3360	13376	14	-9	-13	-16112	2240	-1128	-9	-13	-12	-16080	-168	-2624	7	-13	-5	119	128	8
-8572	-2160	13436	-16	15	-30	-16008	-3880	536	20	-2	-2	-15568	336	-4472	16	-23	20	-9440	3320	13464	17	-6	-10	-16112	2368	-1008	-10	-17	-3	-15992	-168	-2608	11	3	-7	119	128	8
-8584	-2084	13396	-16	13	-35	-16224	-3968	432	19	-4	0	-15640	368	-4592	7	-26	14	-9432	3448	13512	17	-9	-8	-16224	2184	-1040	-7	-21	-8	-15896	-120	-2480	6	9	-3	119	128	8
-8616	-2156	13384	-15	14	-27	-16136	-4016	504	14	-8	1	-15640	440	-4544	-3	-23	14	-9424	3392	13424	16	-12	-11	-16128	2136	-1112	-2	-27	-5	-15968	-208	-2680	25	6	-2	119	128	8
-8596	-2132	13388	-17	11	-30	-15992	-4064	440	2	-19	3	-15656	360	-4440	12	-18	15	-9464	3216	13592	20	-7	-10	-15992	2184	-1080	6	-28	-4	-16032	-376	-2920	37	-7	0	119	128	8
-8596	-2180	13452	-15	9	-32	-16032	-4136	856	14	-11	1	-15608	264	-4456	2	-29	15	-9432	3416	13664	15	-7	-12	-16144	2152	-1104	3	-30	-6	-16144	-408	-2576	34	-14	-6	119	128	8
-8604	-2136	13384	-11	11	-32	-16144	-4168	632	20	-4	9	-15472	384	-4296	22	-35	12	-9584	3432	13360	16	-10	-14	-16288	2080	-1368	-3	-22	0	-16088	-448	-2712	30	-16	7	119	128	8
-8512	-2068	13476	-13	7	-30	-16168	-3920	712	25	-5	5	-15528	152	-4352	27	-28	24	-9336	3288	13512	21	-6	-9	-16240	2192	-1128	3	-32	9	-16048	-440	-2752	36	-5	10	119	128	8
-8560	-2176	13384	-19	18	-30	-16008	-3952	440	25	-3	2	-15792	136	-4576	14	-24	28	-9416	3400	13760	19	-4	-8	-16136	2184	-992	2	-35	3	-16112	-256	-2728	45	-6	10	120	128	8
-8560	-2120	13448	-14	21	-27	-16104	-4112	816	25	-3	10	-15464	32	-4520	23	-19	27	-9376	3352	13680	21	-12	-7	-16144	2240	-1176	3	-33	6	-16128	-224	-2560	51	-8	8	120	128	8
-8620	-2220	13444	-12	17	-26	-16016	-4104	528	23	-10	12	-15552	232	-4560	27	-22	27	-9440	3360	13504	17	-5	-9	-16104	2264	-704	10	-38	6	-15968	-272	-2680	47	-15	12	119	128	8
-8552	-2180	13380	-13	9	-33	-15992	-4064	712	25	-5	15	-15440	104	-4280	34	-29	25	-9352	3232	13360	13	-8	-9	-16096	2248	-920	14	-37	2	-16096	-144	-2760	46	-14	9	120	127	8
-8524	-2140	13400	-12	8	-31	-16232	-3864	720	21	-7	15	-15576	272	-4296	34	-25	27	-9424	3296	13600	14	-6	-10	-16128	2216	-1136	15	-40	9	-16136	-376	-2360	48	-11	8	120	128	8
-8584	-2188	13516	-11	15	-25	-16160	-3920	856	31	-5	12	-15664	344	-4072	33	-20	30	-9352	3392	13544	17	-1	-14	-16048	2120	-744	20	-30	3	-16160	-384	-2264	43	-20	10	120	127	8
-8612	-2108	13452	-10	17	-27	-16152	-3992	600	31	3	12	-15632	216	-4064	23	-12	32	-9408	3376	13400	18	-4	-15	-16072	2392	-808	-5	-20	8	-16336	-344	-1912	33	-19	15	120	127	8
-8540	-2100	13408	-8	16	-26	-15944	-4080	712	27	-2	19	-15592	232	-4184	24	-17	29	-9440	3528	13416	11	-6	-12	-15888	2392	-736	-5	-9	4	-16080	-208	-2088	26	-17	12	120	127	8
-8532	-2272	13416	-10	11	-23	-15968	-4128	664	20	0	23	-15688	264	-4392	19	-29	26	-9408	3232	13672	16	3	-19	-16112	2184	-952	0	-11	1	-16264	-88	-2552	25	-15	14	119	127	8
-8568	-2148	13400	-12	13	-23	-16136	-3976	832	9	-8	21	-15640	224	-4200	12	-33	26	-9472	3288	13488	19	-1	-14	-16072	2304	-984	-2	-4	-1	-16248	-240	-2240	25	-6	7	119	127	8
-8568	-2084	13488	-12	20	-26	-16280	-4072	464	7	-3	23	-15712	456	-4232	15	-32	22	-9464	3264	13360	16	-1	-14	-16136	2248	-1032	-2	-1	0	-16000	-112	-2400	32	-2	9	120	127	8
-8648	-2148	13472	-10	18	-22	-16240	-4008	632	4	-3	20	-15680	560	-4536	-5	-39	19	-9400	3232	13632	17	-2	-14	-16184	2392	-1200	-4	-2	-2	-15960	-160	-2576	25	-2	6	120	127	8
-8572	-2056	13420	-10	17	-23	-16096	-3872	488	4	-6	24	-15736	496	-4416	-10	-31	17	-9552	3328	13488	17	-2	-15	-16040	2152	-1080	-5	4	1	-15992	-160	-2480	20	0	4	119	127	8
-8540	-2088	13400	-8	14	-23	-16200	-3824	712	7	-6	21	-15560	400	-4224	-6	-37	11	-9392	3424	13424	12	-2	-15	-16040	2344	-784	-5	1	0	-16080	-152	-2328	11	-2	4	119	127	8
-8644	-2164	13436	-13	15	-19	-15824	-4016	832	-5	-8	22	-15616	392	-4400	-9	-38	15	-9328	3304	13544	18	-5	-13	-16112	2320	-1064	-8	-1	-3	-16064	-136	-2608	1	-5	5	119	127	8
-8536	-2168	13492	-13	14	-24	-16256	-3912	440	3	-4	20	-15696	448	-4432	-25	-35	10	-9496	3552	13704	10	-5	-13	-16080	2248	-920	-13	3	-2	-16096	-160	-2560	-5	-1	1	119	127	8
-8552	-2092	13560	-14	18	-22	-16360	-3976	416	2	-10	19	-15608	400	-4424	-25	-30	13	-9440	3312	13472	12	-3	-21	-16088	2104	-1144	-19	2	-4	-16136	-200	-2512	-4	4	-1	119	127	8
-8608	-2152	13540	-15	18	-26	-16216	-4120	368	10	-15	14	-15776	360	-4536	-26	-25	17	-9344	3384	13544	13	-6	-17	-16072	2328	-952	-14	-1	-6	-15984	-400	-2448	-1	11	0	119	127	8
-8588	-2124	13416	-12	20	-26	-16072	-3872	368	5	-13	11	-15584	328	-4440	-10	-22	11	-9552	3368	13528	13	0	-15	-16120	2320	-1224	-15	3	-6	-16240	-200	-2552	9	12	4	119	127	8
-8556	-2140	13404	-11	12	-24	-15928	-3952	520	-2	-18	15	-15608	280	-4368	-5	-27	12	-9496	3392	13800	12	-1	-16	-16088	2336	-1080	-8	4	-5	-16008	-288	-2240	6	2	0	119	127	8
-8648	-2124	13300	-15	16	-25	-16024	-3984	744	-8	-19	18	-15704	312	-4232	-10	-35	7	-9408	3416	13240	12	-11	-15	-16176	2256	-960	-6	2	-8	-15976	-48	-2416	8	-3	-1	120	127	8
-8524	-2088	13404	-10	14	-26	-16080	-4056	712	-6	-11	15	-15808	304	-4208	-23	-33	11	-9432	3352	13472	11	4	-17	-16024	2256	-920	-16	6	-7	-16048	-224	-2264	2	3	-2	120	128	8
-8588	-2116	13524	-16	15	-25	-16064	-4024	856	4	-4	20	-15744	272	-4248	-22	-28	14	-9424	3400	13512	14	-3	-19	-16112	2216	-1256	-15	9	-5	-16272	-144	-2296	-1	12	-3	120	127	8
-8624	-2076	13444	-19	18	-26	-16072	-3920	816	12	-3	18	-15640	328	-3968	-16	-22	15	-9504	3376	13312	14	-2	-19	-15968	2176	-1224	-10	1	-3	-16176	-136	-2360	5	11	3	119	127	8
-8500	-2164	13556	-14	18	-27	-16168	-3888	632	15	1	15	-15664	408	-4432	-10	-29	12	-9328	3440	13312	15	0	-17	-16096	2392	-1032	-10	-5	0	-16024	-168	-2408	13	9	2	119	127	8
-8560	-2188	13452	-14	16	-27	-16032	-3936	792	7	-2	15	-15616	288	-4280	-8	-34	12	-9496	3272	13592	16	-6	-14	-16000	2264	-1176	-1	-3	-6	-15952	-128	-2632	13	-3	4	119	127	8
-8508	-2112	13248	-14	18	-27	-16104	-3936	792	2	-6	17	-15464	288	-4344	-6	-41	10	-9344	3488	13400	12	-7	-19	-16008	2248	-1088	-6	-1	-1	-16040	-64	-2456	13	-2	3	119	127	8
-8560	-2156	13356	-9	15	-22	-16168	-4024	568	1	-4	19	-15552	256	-4512	-19	-36	14	-9472	3408	13344	13	-7	-16	-16224	2296	-1256	-4	-7	-2	-16168	-152	-2448	15	-10	2	120	127	8
-8528	-2092	13412	-10	17	-26	-16136	-4048	672	2	-8	14	-15736	288	-4240	-13	-33	13	-9448	3432	13520	15	-5	-17	-16064	2304	-960	-3	-4	-7	-16104	-288	-2376	21	1	2	120	127	8
-8564	-2096	13412	-13	20	-25	-16136	-3896	576	1	-9	19	-15632	424	-4296	-1	-19	18	-9376	3264	13664	13	-4	-18	-16040	2288	-920	-3	-10	-3	-16080	-320	-2680	17	-2	3	120	127	8
-8520	-2184	13504	-15	19	-27	-16032	-4096	616	5	-8	13	-15696	168	-4408	-5	-21	22	-9272	3376	13464	11	-9	-15	-16088	2320	-960	0	-7	-2	-16064	-224	-2352	22	0	0	120	127	8
-8576	-2180	13420	-10	20	-25	-16104	-4088	504	9	-4	12	-15560	288	-4136	0	-29	15	-9328	3376	13664	14	-6	-16	-16112	2264	-1120	-4	-4	-8	-16040	-272	-2392	22	-2	6	120	127	8
-8576	-2096	13324	-10	16	-25	-16144	-3944	776	4	-9	17	-15576	440	-4296	-2	-26	16	-9352	3256	13416	15	-4	-14	-16096	2384	-984	-2	-2	-8	-16224	-232	-2336	19	-4	3	120	127	8
-8524	-2172	13416	-15	19	-24	-16144	-4096	512	6	-3	15	-15760	328	-4264	3	-34	13	-9376	3320	13392	12	-5	-14	-16088	2232	-1184	-9	0	-3	-16048	-152	-2560	18	-9	6	120	127	8
-8576	-2164	13512	-8	20	-25	-16176	-4152	728	8	-3	16	-15792	328	-4240	-4	-27	15	-9528	3424	13568	13	-2	-16	-16160	2128	-1008	2	-2	-1	-16008	-128	-2504	18	-4	1	120	127	8
-8588	-2168	13492	-9	18	-25	-16312	-4064	536	9	-5	16	-15664	184	-4096	-1	-20	17	-9400	3360	13592	16	-3	-12	-16120	2304	-776	6	-7	-3	-16072	-128	-2528	25	-5	6	120	127	8
-8588	-2164	13368	-17	21	-25	-16080	-3952	768	10	-6	16	-15664	192	-4256	-3	-24	14	-9304	3408	13456	14	-5	-17	-16144	2352	-872	6	-6	-4	-16080	-144	-2376	26	-9	2	120	127	8
-8700	-2172	13328	-11	18	-26	-16128	-4112	416	8	-6	16	-15736	296	-4264	-15	-26	17	-9464	3320	13680	14	-5	-14	-16136	2320	-1368	0	0	1	-16256	-216	-2352	26	-11	-2	120	127	8
-8640	-2132	13436	-13	17	-23	-16128	-4024	568	3	-6	16	-15616	272	-4352	2	-30	10	-9400	3352	13704	14	-5	-19	-16064	2424	-1072	0	-2	-3	-16104	-88	-2416	22	-10	-1	120	127	8
-8616	-2160	13488	-14	15	-24	-16160	-4152	616	7	-6	18	-15768	288	-4304	7	-34	16	-9424	3288	13392	15	-7	-14	-16088	2344	-968	-7	-4	-3	-16072	-72	-2528	18	-5	1	121	127	8
-8708	-2192	13436	-13	15	-26	-16208	-3976	656	8	-2	19	-15688	392	-4296	7	-32	13	-9360	3376	13632	11	-3	-22	-16160	2280	-1128	-8	-2	-4	-16016	-176	-2496	19	-2	2	120	127	8
-8596	-2096	13544	-14	16	-29	-16120	-4024	648	14	3	14	-15848	504	-4200	3	-26	14	-9408	3368	13648	14	3	-15	-16088	2192	-936	-5	-8	-10	-16032	-416	-2528	25	-3	3	121	127	8
-8564	-2156	13428	-15	17	-25	-16056	-3912	648	12	-2	12	-15696	392	-4336	-5	-18	15	-9360	3384	13440	17	-6	-15	-15912	2256	-872	8	-9	-1	-16024	-248	-2376	32	-3	2	121	127	8
-8572	-2104	13436	-14	16	-24	-16104	-4040	776	5	-6	10	-15648	216	-4240	-2	-25	18	-9432	3264	13592	17	-4	-10	-16088	2456	-776	4	-8	-11	-16024	-64	-2408	26	-11	6	121	127	8
-8632	-2120	13364	-16	12	-26	-16016	-4144	768	2	-3	15	-15520	88	-4392	-3	-26	16	-9360	3328	13384	13	0	-23	-16096	2320	-1080	-6	-7	-7	-16096	-104	-2424	31	-13	0	121	127	8
-8496	-2176	13356	-12	13	-22	-16128	-3992	712	10	-5	13	-15632	288	-4336	4	-29	21	-9464	3456	13552	13	0	-17	-16288	2360	-816	-5	-7	-4	-16048	-328	-2552	23	-9	0	121	127	8
-8608	-2152	13468	-13	10	-31	-16312	-3936	720	14	0	11	-15600	216	-4392	4	-30	20	-9320	3360	13520	12	1	-15	-16168	2176	-1088	3	-7	-10	-16000	-224	-2496	27	-3	-1	121	127	8
-8600	-2188	13448	-15	18	-29	-16088	-4056	744	15	1	11	-15648	408	-4544	12	-23	18	-9336	3256	13400	12	0	-13	-16040	2200	-1040	5	-16	-4	-15992	-200	-2536	30	-4	4	121	127	8
-8592	-2168	13412	-9	22	-24	-16096	-4208	864	13	-5	11	-15816	360	-4512	-3	-23	15	-9416	3368	13536	14	-4	-12	-16064	2296	-840	9	-12	-5	-16096	-176	-2496	29	-10	1	121	127	8
-8560	-2156	13404	-10	20	-22	-16168	-3944	528	12	-10	8	-15640	216	-4408	-3	-28	15	-9424	3416	13376	10	3	-16	-16136	2304	-1080	4	-14	-3	-16192	-144	-2264	32	-18	0	121	127	8
-8588	-2104	13412	-13	17	-26	-16096	-3928	848	5	-8	12	-15640	344	-4464	-2	-29	11	-9328	3368	13392	14	-8	-12	-16120	2312	-744	7	-12	-8	-16152	-176	-2304	30	-18	-2	121	127	8
-8624	-2160	13468	-15	17	-25	-16160	-4024	608	7	-8	11	-15584	408	-4448	0	-27	15	-9368	3416	13608	14	-1	-16	-16240	2352	-856	-5	-11	-3	-16240	-136	-2328	27	-18	0	122	127	8
-8580	-2088	13312	-17	15	-27	-16152	-4080	656	15	-7	13	-15632	336	-4248	5	-29	20	-9336	3296	13720	16	-5	-20	-16288	2128	-1200	-3	-5	2	-15928	-232	-2800	22	-12	0	121	127	8
-8544	-2212	13472	-14	15	-28	-16120	-4080	504	17	-4	6	-15696	296	-4248	23	-30	17	-9408	3376	13584	13	-3	-20	-16080	2120	-1032	-1	-11	-3	-16032	-216	-2616	23	-8	-2	122	127	8
-8556	-2160	13432	-14	18	-23	-16064	-4064	736	12	-4	15	-15648	328	-4472	5	-30	17	-9464	3416	13576	14	-5	-14	-16104	2264	-1072	-1	-13	-2	-16120	-232	-2280	25	-15	0	122	127	8
-8600	-2220	13336	-14	15	-27	-16176	-4072	720	11	-4	10	-15648	256	-4280	7	-34	15	-9472	3496	13384	15	-2	-14	-16040	2424	-824	0	-16	-5	-16040	-232	-2464	24	-24	-1	122	127	8
-8576	-2204	13408	-11	20	-26	-16032	-4136	752	10	-4	9	-15664	336	-4320	-11	-28	14	-9360	3328	13512	16	-3	-14	-15992	2376	-984	-3	-14	-6	-16008	-192	-2336	24	-33	4	122	127	8
-8520	-2048	13404	-15	18	-26	-15968	-3800	480	15	-9	8	-15680	408	-4352	5	-27	21	-9576	3496	13456	16	-7	-17	-16088	2208	-1120	-3	-13	-3	-16128	-168	-2568	23	-24	-1	121	127	8
-8580	-2168	13452	-14	19	-29	-16144	-4016	608	19	-14	3	-15592	352	-4456	8	-26	19	-9360	3368	13576	14	-2	-16	-16120	2224	-968	-1	-12	-3	-16264	-80	-2616	26	-19	4	122	127	8
-8616	-2140	13452	-16	15	-31	-16136	-4088	584	11	-19	7	-15576	200	-4304	23	-22	20	-9472	3288	13520	11	-4	-17	-16288	2264	-984	2	-17	-1	-15904	-232	-2512	30	-16	-1	122	127	8
-8620	-2172	13468	-19	14	-28	-16104	-3936	728	9	-16	7	-15704	160	-4216	20	-26	19	-9448	3400	13168	14	-2	-11	-15992	2168	-1048	3	-17	-2	-16072	-192	-2336	23	-14	-1	122	127	8
-8612	-2172	13448	-12	16	-25	-16016	-4040	568	13	-12	10	-15664	168	-4000	13	-28	13	-9256	3400	13648	15	-1	-13	-16184	2416	-888	0	-15	-5	-15976	-248	-2344	19	-18	4	122	127	8
-8568	-2204	13380	-14	15	-27	-16176	-3888	848	15	-12	6	-15776	200	-3904	2	-26	13	-9336	3304	13432	17	0	-13	-15968	2280	-952	-11	-13	-3	-16016	-160	-2240	13	-22	-5	122	127	8
-8672	-2264	13296	-13	16	-31	-16168	-4072	616	28	-5	6	-15880	336	-4288	12	-27	16	-9360	3328	13488	16	-3	-16	-16184	2288	-1032	-8	-17	-8	-16064	-80	-2184	10	-14	1	122	127	8
-8540	-2224	13396	-14	22	-28	-16056	-4000	680	18	-9	8	-15784	312	-4136	6	-20	13	-9368	3432	13760	17	-3	-18	-15960	2392	-672	-9	-13	-6	-16120	-224	-2168	15	-13	2	122	127	8
-8588	-2184	13484	-15	15	-26	-16160	-4144	568	13	-12	6	-15608	280	-4096	0	-28	16	-9496	3392	13472	18	7	-19	-16184	2288	-1072	-9	-17	2	-16144	-120	-2352	15	-4	-3	122	127	8
-8576	-2232	13448	-14	16	-27	-16056	-3928	696	9	-14	8	-15736	200	-4232	0	-31	12	-9416	3392	13560	15	0	-13	-16088	2376	-1112	-5	-13	-1	-16144	-328	-2112	9	-5	0	122	127	8
-8580	-2120	13444	-12	18	-29	-16112	-4080	384	5	-15	8	-15632	240	-4152	-14	-32	8	-9440	3400	13608	16	3	-16	-16128	2408	-672	-6	-16	-3	-16000	-32	-2168	6	-9	3	122	127	8
-8576	-2212	13496	-13	18	-26	-16120	-4192	576	5	-15	7	-15832	224	-3984	-7	-27	11	-9304	3368	13424	16	-1	-12	-16136	2352	-1176	-10	-7	-8	-16240	-168	-2184	7	-10	-5	122	127	8
-8520	-2192	13412	-11	14	-28	-16128	-4168	712	3	-14	9	-15624	344	-4168	-8	-30	7	-9392	3360	13432	17	2	-13	-16048	2352	-832	-7	-4	-5	-16016	-248	-2280	9	-7	-4	122	127	8
-8604	-2136	13336	-14	16	-28	-16208	-3976	792	6	-14	6	-15744	168	-4280	-11	-28	10	-9376	3416	13456	17	0	-15	-16208	2280	-888	-8	-3	-8	-16032	-200	-2272	15	-3	-3	122	127	8
-8576	-2220	13396	-16	18	-26	-16160	-3968	544	5	-4	9	-15704	192	-4296	-12	-26	10	-9488	3152	13528	17	-1	-13	-16072	2320	-1112	-6	0	-10	-15984	-136	-2376	17	4	-2	122	127	8
-8576	-2152	13440	-13	16	-25	-16112	-4072	568	11	-7	10	-15680	264	-4088	-24	-24	14	-9440	3336	13440	11	-8	-13	-16056	2384	-824	-9	-9	-9	-16064	-168	-2248	16	0	-6	122	127	8
-8524	-2164	13440	-15	17	-28	-16136	-3984	680	9	-9	9	-15648	264	-4152	-13	-22	10	-9368	3320	13776	13	-4	-17	-16112	2264	-824	-11	1	-11	-16024	-112	-2472	14	-2	-1	122	127	8
-8560	-2176	13440	-12	16	-28	-16080	-4072	584	6	-11	8	-15680	296	-4232	-10	-20	10	-9328	3304	13392	14	-8	-17	-15968	2248	-1032	-3	-6	-5	-15992	-104	-2424	9	0	0	122	127	8
-8568	-2108	13412	-17	15	-29	-15984	-4080	600	3	-11	8	-15520	176	-4088	-1	-28	7	-9424	3520	13696	11	-7	-15	-16136	2384	-800	-7	-11	-15	-16152	-56	-2376	16	-1	-7	122	127	8
-8532	-2200	13384	-10	17	-25	-16152	-4064	816	3	-14	7	-15656	112	-4056	-15	-25	7	-9456	3288	13304	9	-7	-15	-16048	2368	-912	-11	-7	-8	-16120	16	-2352	12	3	-3	122	127	8
-8580	-2216	13456	-11	17	-26	-16072	-4072	544	6	-12	12	-15792	120	-3960	-2	-22	10	-9352	3408	13760	12	-6	-18	-16032	2456	-888	-15	-2	-8	-16168	-248	-2272	7	4	-6	122	127	8
-8516	-2128	13448	-10	17	-27	-16056	-4072	744	10	-5	8	-15760	224	-4240	-4	-18	10	-9304	3384	13760	11	-3	-16	-16112	2352	-968	-11	1	-8	-16032	-416	-2192	5	7	-4	122	128	8
-8548	-2212	13500	-9	21	-25	-16032	-4192	576	8	-11	10	-15864	144	-4112	-8	-12	13	-9472	3432	13544	13	-1	-13	-16184	2176	-760	-7	-3	-3	-15952	-232	-2400	12	6	-2	122	127	8
-8560	-2176	13324	-18	24	-25	-16152	-3984	712	9	-4	7	-15768	144	-4080	-4	-11	16	-9448	3376	13752	11	5	-18	-15960	2224	-896	-3	-1	-8	-16016	-336	-2360	14	3	0	122	128	8
-8564	-2140	13492	-15	27	-25	-16000	-4056	848	8	-5	13	-15704	80	-3976	-2	-15	16	-9464	3376	13672	16	-5	-16	-16008	2136	-936	-7	-2	-9	-16064	-304	-2248	22	0	0	122	128	8
-8572	-2140	13492	-13	17	-25	-16112	-4016	832	1	-5	12	-15720	104	-4352	1	-19	18	-9456	3400	13360	16	-3	-15	-16144	2200	-736	5	-4	-6	-16136	-256	-2288	26	-6	0	122	128	8
-8560	-2200	13356	-13	21	-22	-16056	-4192	680	0	-2	17	-15648	80	-4120	-4	-23	16	-9304	3376	13488	14	-11	-16	-15976	2312	-1104	9	-4	-3	-16112	-176	-2288	31	-4	-5	122	128	8
-8556	-2224	13340	-11	22	-21	-16064	-3920	744	3	-8	22	-15672	176	-4256	-10	-19	21	-9296	3336	13448	16	-9	-14	-16184	2432	-584	3	-4	-10	-16064	-104	-2616	28	-4	0	122	128	8
-8588	-2156	13428	-13	17	-22	-16176	-3976	840	11	2	15	-15824	80	-4200	-7	-11	23	-9352	3424	13624	11	-6	-23	-16088	2280	-848	-10	0	-7	-16216	-64	-2384	25	3	-2	122	128	8
-8512	-2144	13416	-15	20	-21	-16056	-3960	368	10	-1	13	-15784	312	-4264	-6	-8	21	-9368	3368	13472	15	-4	-19	-16160	2384	-848	-5	-2	-4	-16048	-112	-2496	23	10	-1	122	128	8
-8616	-2140	13496	-14	19	-21	-15992	-4000	792	13	-1	15	-15536	168	-4416	-4	-5	20	-9480	3304	13376	12	-7	-16	-15976	2176	-952	-8	-4	-8	-16112	-320	-2416	18	12	2	122	128	8
-8656	-2176	13412	-11	15	-19	-16072	-4072	792	3	-10	13	-15512	216	-4344	11	-7	19	-9376	3432	13448	12	0	-16	-16032	2336	-1008	-1	-8	-7	-15944	-232	-2400	20	6	-2	122	128	8
-8564	-2160	13400	-6	19	-23	-16088	-4080	680	9	-9	17	-15640	248	-4216	4	-10	22	-9592	3448	13584	14	-6	-17	-16128	2208	-1072	3	-4	-7	-16080	-288	-2328	17	-3	2	121	128	8
-8628	-2200	13380	-11	22	-27	-16144	-4072	856	9	-7	18	-15624	256	-4080	7	-18	20	-9336	3384	13720	12	-8	-13	-16088	2328	-920	2	-1	-9	-16168	-296	-2352	21	-6	-1	122	128	8
-8584	-2192	13388	-13	18	-28	-16024	-4024	1032	9	-5	18	-15632	216	-4112	2	-20	20	-9376	3440	13552	14	1	-24	-16128	2496	-952	-11	3	-6	-16152	-224	-2280	16	-1	0	121	128	8
-8496	-2172	13560	-16	14	-23	-16088	-4176	632	12	-2	15	-15568	160	-4208	-5	-13	24	-9288	3280	13368	12	2	-19	-16184	2232	-1056	-8	-3	-3	-16208	-248	-2456	17	10	4	122	128	8
-8548	-2168	13420	-12	20	-22	-16168	-3992	608	13	-2	15	-15784	184	-4320	-7	-11	27	-9448	3336	13776	16	10	-21	-16256	2392	-1128	-5	-4	-4	-16200	-328	-2448	21	20	1	121	128	8
-8548	-2176	13440	-10	22	-24	-16136	-4224	680	12	-15	19	-15552	320	-4472	-21	-4	28	-9416	3288	13424	19	2	-21	-16048	2192	-1104	3	-7	-1	-16048	-360	-2384	26	10	3	121	128	8
-8560	-2040	13372	-14	17	-24	-16144	-4176	640	9	-11	16	-15560	176	-4152	-21	-1	27	-9400	3432	13904	18	-1	-19	-16064	2256	-1032	6	-7	-9	-16048	-232	-2360	25	1	1	121	128	8
-8680	-2152	13368	-11	15	-25	-15936	-4048	520	10	-16	13	-15528	72	-4232	7	-4	24	-9408	3336	13360	11	0	-12	-16088	2320	-1008	5	2	-7	-15928	-232	-2096	27	-6	4	121	128	8
-8548	-2184	13396	-6	10	-26	-16040	-4128	712	4	-12	18	-15720	112	-4168	22	-6	26	-9432	3368	13624	15	-3	-21	-16144	2312	-1000	4	2	-1	-16136	-80	-2416	25	-3	1	121	128	8
-8608	-2192	13456	-8	11	-28	-16056	-4080	792	12	-5	20	-15856	32	-4056	23	-7	28	-9424	3384	13632	15	2	-21	-16088	2344	-1088	3	-2	-4	-15992	-128	-2408	24	1	6	121	128	8
-8656	-2184	13500	-11	16	-25	-16176	-4256	1216	19	3	21	-15808	112	-3976	14	-2	34	-9504	3480	13504	15	3	-20	-16248	2392	-976	4	-3	-9	-16032	-104	-2416	32	7	6	122	128	8
-8564	-2188	13400	-12	17	-25	-16256	-4080	632	15	3	17	-15736	224	-3872	-4	-8	34	-9376	3288	13552	15	4	-21	-16088	2192	-856	3	-6	-4	-16272	-232	-2528	34	10	0	121	128	8
-8632	-2124	13468	-13	19	-20	-16120	-4168	736	15	4	16	-15760	328	-4312	-11	0	32	-9368	3288	13528	18	4	-21	-16184	2208	-952	4	-7	-11	-16048	-360	-2696	32	10	3	121	129	8
-8616	-2192	13432	-13	19	-23	-16136	-4136	816	16	-1	19	-15736	312	-3968	1	-10	28	-9368	3360	13352	16	4	-19	-16080	2368	-936	11	-4	-4	-16144	-168	-2456	32	-1	3	121	129	8
-8572	-2180	13396	-14	15	-25	-16080	-4080	608	9	5	21	-15720	304	-4008	15	-11	21	-9416	3352	13560	17	1	-13	-16096	2312	-848	4	1	-12	-16192	-232	-2424	22	-11	1	121	128	8
-8576	-2132	13292	-4	9	-26	-16064	-4056	576	2	6	21	-15632	400	-4192	11	-15	21	-9464	3320	13472	15	3	-15	-15936	2472	-960	-5	2	-7	-16088	-8	-2232	22	-9	-1	121	128	8
-8624	-2084	13404	-13	8	-26	-16104	-3920	544	7	9	19	-15752	336	-4344	11	-15	23	-9320	3248	13536	12	1	-22	-16160	2416	-1216	-5	5	-9	-16152	24	-2424	26	1	-2	121	128	8
-8616	-2180	13440	-11	19	-25	-16008	-4128	768	15	8	16	-15600	264	-4416	-1	-9	18	-9528	3408	13528	11	-3	-18	-16040	2472	-1064	3	-1	-10	-16064	-128	-2320	22	8	-5	121	128	8
-8564	-2148	13336	-12	17	-24	-16216	-4040	472	16	5	17	-15640	184	-4320	1	-1	26	-9528	3352	13384	13	0	-17	-16160	2256	-800	3	1	-12	-15984	-88	-2320	20	6	-3	121	129	8
-8524	-2140	13400	-15	16	-28	-16096	-3952	552	11	-1	13	-15624	384	-4344	-4	-7	23	-9368	3384	13456	13	3	-23	-16000	2240	-1152	-2	-4	-13	-16144	-216	-2416	11	-3	-3	120	128	8
-8648	-2140	13336	-9	15	-24	-16072	-4208	720	10	-1	14	-15592	440	-4184	6	-13	19	-9368	3432	13472	9	6	-21	-16064	2360	-696	-3	3	-13	-15872	-304	-2568	18	-7	-6	121	129	8
-8504	-2144	13472	-11	18	-27	-16208	-4024	712	9	3	12	-15576	256	-4136	14	-14	17	-9528	3440	13504	16	6	-25	-16128	2336	-976	-2	-2	-9	-16024	-216	-2240	18	-10	-5	121	129	8
-8596	-2172	13452	-14	10	-28	-16104	-3992	792	7	6	14	-15752	200	-4424	19	-10	16	-9360	3368	13632	14	3	-17	-16256	2232	-1024	4	4	-10	-16072	-96	-2632	23	-6	-3	121	129	8
-8536	-2200	13452	-12	16	-27	-16032	-4104	544	13	0	10	-15664	192	-4304	2	-7	19	-9352	3384	13832	16	3	-23	-16032	2336	-1152	-1	0	-13	-16128	-144	-2608	21	-4	-2	120	128	8
-8620	-2128	13456	-16	17	-25	-16072	-3896	920	12	5	9	-15552	192	-4176	-1	-3	19	-9496	3328	13528	12	-1	-17	-16040	2392	-776	-6	-5	-11	-16048	-128	-2304	22	3	-4	120	128	8
-8544	-2136	13424	-14	15	-25	-16048	-4112	848	8	2	11	-15536	232	-4328	-10	-7	22	-9448	3360	13528	15	-1	-20	-15928	2280	-1152	-9	-1	-13	-16104	-176	-2520	22	5	-2	121	129	8
-8460	-2204	13456	-12	7	-24	-16056	-4008	856	11	-5	8	-15608	152	-4104	-5	-8	14	-9496	3408	13392	15	-1	-15	-16088	2496	-984	-6	-6	-15	-16200	-112	-2320	19	1	-1	121	129	8
-8620	-2208	13380	-13	14	-27	-16040	-4056	824	9	-5	10	-15656	280	-4472	3	-9	18	-9424	3256	13480	12	-1	-14	-16272	2320	-696	-1	-7	-14	-16144	-104	-2400	17	-1	-3	121	128	8
-8568	-2144	13372	-13	13	-29	-16000	-4144	576	7	-6	13	-15600	272	-4240	1	-12	19	-9408	3272	13520	8	1	-15	-16056	2312	-824	-6	-5	-12	-16216	-224	-2536	19	-5	-3	120	129	8
-8540	-2164	13456	-10	11	-26	-16032	-4192	504	7	1	9	-15720	112	-4200	-1	-11	17	-9416	3328	13512	9	-5	-19	-16080	2184	-984	-3	1	-13	-15992	-152	-2336	15	2	-6	120	128	8
-8624	-2180	13444	-17	12	-26	-16336	-4104	608	16	-4	9	-15760	240	-4088	2	-8	17	-9440	3408	13544	13	3	-18	-16184	2456	-1000	-6	0	-13	-16192	-368	-2304	16	3	-4	120	129	8
