#Activity	sitting 
#ActivityID	5 
#Date 10-21-15-23
acc_rf_x	acc_rf_y	acc_rf_z	gyro_rf_x	gyro_rf_y	gyro_rf_z	acc_rs_x	acc_rs_y	acc_rs_z	gyro_rs_x	gyro_rs_y	gyro_rs_z	acc_rt_x	acc_rt_y	acc_rt_z	gyro_rt_x	gyro_rt_y	gyro_rt_z	acc_lf_x	acc_lf_y	acc_lf_z	gyro_lf_x	gyro_lf_y	gyro_lf_z	acc_ls_x	acc_ls_y	acc_ls_z	gyro_ls_x	gyro_ls_y	gyro_ls_z	acc_lt_x	acc_lt_y	acc_lt_z	gyro_lt_x	gyro_lt_y	gyro_lt_z	EMG_r	EMG_l	act
-5804	-5016	14716	153	-35	-146	-15556	396	-4748	-64	-74	1	-2384	-144	16952	37	-5	15	-7872	4104	13220	-63	184	-174	-15932	2528	-4508	29	-24	198	-2628	-1476	16524	102	-136	289	126	121	5
-5752	-5052	14816	148	-22	-107	-15660	448	-4740	-24	-111	9	-2328	-56	17144	43	-1	14	-7912	4156	13220	-40	175	-148	-15924	2508	-4628	31	-62	230	-2676	-1344	16476	130	-108	297	126	122	5
-5772	-5024	14804	135	-52	-123	-15612	476	-4644	-64	-108	-10	-2288	-104	17008	51	0	11	-7844	4168	13324	-32	156	-174	-15868	2536	-4636	51	-29	218	-2652	-1376	16640	109	-139	255	126	122	5
-5792	-4972	14764	143	-56	-125	-15660	468	-4452	-18	-91	37	-2288	-32	17072	51	-6	6	-7860	4128	13368	-30	205	-166	-15868	2556	-4440	69	-61	237	-2648	-1356	16572	122	-137	186	126	122	5
-5780	-5008	14812	121	4	-105	-15688	556	-4564	-31	-78	37	-2176	176	17096	42	-4	0	-7844	4156	13288	-9	209	-172	-15912	2540	-4532	130	-74	234	-2680	-1300	16728	77	-135	194	126	122	5
-5708	-5048	14792	162	-39	-102	-15576	512	-4620	30	-66	53	-2296	248	17032	36	-2	-5	-7876	4044	13256	-40	208	-147	-15968	2604	-4392	154	-63	225	-2632	-1152	16580	25	-116	138	126	123	5
-5696	-4980	14832	153	-60	-74	-15596	592	-4660	69	-55	68	-2288	328	16680	27	0	-7	-7864	4124	13240	-61	180	-186	-15912	2652	-4500	135	-84	198	-2664	-1176	16620	23	-150	134	126	123	5
-5740	-5056	14796	128	-58	-117	-15608	708	-4648	26	-62	12	-2368	240	17088	23	-2	-9	-7868	4100	13192	-62	125	-181	-15944	2676	-4496	110	-55	169	-2584	-1116	16680	46	-126	141	126	123	5
-5728	-4924	14816	139	-69	-133	-15640	720	-4688	-4	-40	-24	-2216	368	16744	26	0	-7	-7864	4168	13188	-130	147	-160	-15980	2732	-4316	57	-33	105	-2632	-1152	16740	56	-87	206	126	123	5
-5756	-4956	14764	86	29	-127	-15592	788	-4616	4	-31	-103	-2328	360	16920	15	-4	2	-7888	4168	13252	-122	137	-162	-15968	2636	-4332	49	-29	55	-2600	-1180	16768	40	-118	210	126	123	5
-5756	-4968	14820	85	-24	-156	-15588	680	-4640	10	-20	-102	-2392	272	16952	14	-3	2	-7820	4112	13192	-173	145	-210	-15940	2604	-4420	76	3	67	-2612	-1268	16592	-35	-101	227	127	123	5
-5760	-5020	14836	69	2	-169	-15616	540	-4596	1	-64	-174	-2192	192	16904	12	2	3	-7896	4124	13320	-113	113	-193	-15884	2520	-4424	97	-26	25	-2592	-1336	16496	-73	-135	242	126	123	5
-5760	-5032	14764	56	-48	-147	-15544	592	-4660	32	-15	-192	-2376	48	16920	12	-5	0	-7856	4084	13352	-129	119	-201	-15928	2520	-4480	95	-5	37	-2652	-1428	16552	-81	-98	208	126	123	5
-5772	-5000	14684	97	-13	-134	-15640	500	-4616	-6	-9	-160	-2264	32	16888	13	-5	6	-7856	4196	13276	-114	121	-171	-15964	2472	-4392	73	-7	42	-2684	-1436	16560	-63	-111	213	127	124	5
-5740	-5000	14728	72	-13	-148	-15564	428	-4628	-37	-44	-141	-2336	-24	16880	13	-2	1	-7840	4112	13132	-146	144	-174	-15928	2488	-4432	62	14	76	-2656	-1500	16564	-62	-62	205	127	124	5
-5756	-4972	14808	100	-57	-117	-15628	456	-4636	-9	-29	-109	-2336	-112	16960	18	-2	0	-7904	4136	13192	-122	151	-179	-15976	2516	-4456	94	-15	79	-2672	-1548	16620	-55	-136	177	127	124	5
-5780	-5020	14848	100	-64	-125	-15640	400	-4700	-8	-42	-80	-2424	-128	16840	16	-3	2	-7856	4120	13308	-69	154	-161	-15916	2540	-4504	87	14	96	-2692	-1520	16572	-45	-139	182	126	124	5
-5856	-5040	14852	99	-30	-123	-15648	492	-4720	24	-27	-104	-2344	-96	16992	22	-10	-1	-7868	4132	13288	-122	154	-162	-15956	2504	-4536	129	-48	147	-2688	-1488	16500	-12	-135	209	126	124	5
-5800	-4976	14824	130	-62	-117	-15636	436	-4676	-1	-77	-60	-2392	80	17128	25	-4	2	-7852	4120	13184	-74	176	-174	-15872	2580	-4356	74	26	133	-2660	-1448	16592	17	-155	241	126	124	5
-5756	-5048	14724	105	-35	-144	-15604	576	-4740	-24	-88	-79	-2280	-32	16832	30	-2	4	-7824	4084	13280	-77	126	-191	-15960	2524	-4472	31	-41	137	-2768	-1372	16520	45	-180	196	126	124	5
-5768	-4972	14820	163	-75	-96	-15612	496	-4596	-27	-109	-61	-2392	0	16920	31	-3	6	-7872	4120	13320	-93	156	-185	-15920	2528	-4524	103	-43	136	-2728	-1452	16568	105	-157	244	127	124	5
-5752	-5072	14732	112	-28	-131	-15576	528	-4696	-45	-106	-20	-2376	48	17200	30	-2	7	-7864	4132	13312	-73	166	-168	-15956	2512	-4432	77	-8	161	-2672	-1420	16528	100	-142	224	126	124	5
-5784	-4972	14804	107	-66	-153	-15604	588	-4604	-63	-139	-53	-2264	184	17096	30	-3	7	-7900	4088	13260	-99	172	-205	-15912	2532	-4456	72	-62	168	-2600	-1352	16568	61	-135	211	127	124	5
-5772	-4952	14744	140	-20	-125	-15596	520	-4752	-58	-103	-59	-2280	16	17032	33	-3	9	-7840	4168	13204	-69	144	-168	-15924	2576	-4408	95	-41	175	-2580	-1336	16600	90	-133	245	126	124	5
-5760	-5032	14664	125	-91	-147	-15548	544	-4668	-24	-109	-47	-2240	-56	17008	30	0	12	-7948	4172	13252	-85	151	-173	-15924	2540	-4484	38	-29	152	-2604	-1392	16616	91	-125	222	126	124	5
-5768	-5020	14692	96	-27	-136	-15708	592	-4736	-69	-79	-45	-2288	80	17168	31	-2	8	-7896	4108	13340	-97	146	-170	-15948	2604	-4456	59	-8	166	-2604	-1300	16612	97	-147	243	127	124	5
-5780	-5036	14848	107	-78	-139	-15636	560	-4676	-74	-93	-76	-2200	-48	16960	28	-1	8	-7860	4132	13324	-96	168	-178	-15892	2604	-4392	42	-8	154	-2632	-1228	16612	98	-158	257	126	124	5
-5764	-5008	14788	119	-63	-151	-15600	460	-4716	-49	-38	-73	-2168	64	16960	31	-3	7	-7840	4160	13308	-131	147	-131	-15964	2612	-4476	44	-4	107	-2640	-1224	16568	87	-147	270	127	124	5
-5720	-4980	14840	148	-44	-116	-15584	484	-4684	-16	-61	-42	-2176	40	16944	31	0	4	-7876	4088	13252	-117	168	-157	-15972	2576	-4464	75	1	71	-2644	-1256	16592	53	-105	237	127	124	5
-5784	-5004	14840	118	-95	-116	-15520	488	-4672	19	-45	-58	-2152	0	16960	28	0	0	-7872	4092	13248	-115	154	-153	-15976	2588	-4460	66	-13	59	-2616	-1304	16676	-10	-145	241	126	124	5
-5800	-4952	14732	131	-37	-136	-15604	536	-4584	4	-49	-40	-2280	96	16896	28	-3	2	-7872	4088	13192	-116	190	-184	-15952	2536	-4400	72	-32	129	-2632	-1380	16520	3	-177	209	126	124	5
-5772	-4964	14856	128	-94	-90	-15612	576	-4680	27	-45	-40	-2304	56	16896	27	-3	2	-7828	4076	13232	-95	167	-199	-15920	2496	-4476	100	1	101	-2596	-1408	16532	8	-151	164	126	124	5
-5708	-5008	14716	155	-48	-122	-15612	580	-4668	17	-55	-55	-2424	160	17072	27	-1	-2	-7832	4112	13208	-113	161	-191	-15952	2492	-4428	110	19	117	-2660	-1496	16580	27	-133	188	127	125	5
-5780	-5000	14756	150	-75	-94	-15612	632	-4632	19	-13	-11	-2328	240	16880	29	-2	-1	-7884	4060	13372	-84	147	-169	-15960	2524	-4440	92	-54	137	-2616	-1464	16564	28	-117	140	127	124	5
-5700	-4964	14824	114	-55	-151	-15592	568	-4688	7	-37	-52	-2216	120	16992	25	-2	-2	-7872	4076	13276	-43	148	-188	-15924	2524	-4376	106	8	147	-2648	-1380	16584	49	-134	211	126	125	5
-5784	-4928	14740	168	-65	-115	-15592	592	-4644	30	-37	-43	-2384	80	17048	22	-1	-1	-7812	4080	13228	-87	142	-163	-15868	2596	-4452	116	-63	153	-2620	-1336	16512	27	-131	168	126	125	5
-5744	-4976	14844	127	-33	-142	-15608	592	-4700	27	-56	-64	-2384	80	16976	23	1	1	-7836	4176	13284	-99	169	-167	-15896	2532	-4424	130	-25	178	-2632	-1364	16580	16	-112	146	127	125	5
-5752	-4968	14792	115	-18	-126	-15552	620	-4668	-23	-47	-36	-2344	192	17000	21	0	3	-7844	4140	13100	-71	123	-162	-15952	2648	-4456	100	-40	165	-2700	-1252	16624	59	-111	169	126	125	5
-5716	-4988	14708	71	-5	-154	-15648	540	-4672	-48	-38	-100	-2376	72	17064	24	-9	1	-7892	4140	13188	-65	159	-146	-15928	2600	-4504	75	-25	169	-2740	-1244	16484	27	-128	208	126	125	5
-5740	-4936	14844	118	-53	-112	-15592	540	-4760	-40	-42	-62	-2304	96	16864	22	-5	8	-7856	4052	13272	-121	139	-150	-15940	2608	-4436	73	-35	134	-2648	-1304	16620	15	-155	215	126	125	5
-5736	-4952	14764	104	-37	-113	-15544	560	-4680	-47	-65	-85	-2360	-8	16960	27	-5	4	-7904	4100	13140	-89	162	-169	-15872	2588	-4412	58	-3	114	-2680	-1320	16592	44	-192	230	126	125	5
-5780	-5012	14828	103	-49	-126	-15576	516	-4600	15	-78	-34	-2352	80	16936	25	-1	5	-7904	4140	13280	-109	152	-171	-16020	2488	-4432	78	-29	91	-2636	-1336	16660	54	-139	232	126	125	5
-5720	-4936	14776	101	-33	-145	-15612	504	-4756	-15	-61	-95	-2416	-80	17112	26	-2	1	-7880	4068	13352	-87	159	-179	-15908	2508	-4524	32	-24	103	-2712	-1332	16528	31	-130	266	126	125	5
-5696	-5024	14816	108	-12	-139	-15576	520	-4576	-37	-40	-47	-2168	40	17136	28	-3	7	-7892	4080	13264	-152	160	-159	-15952	2508	-4456	74	11	78	-2628	-1384	16612	65	-134	236	126	125	5
-5768	-5000	14872	127	-46	-142	-15648	492	-4592	7	-71	-53	-2288	-64	17008	28	-2	6	-7900	4088	13192	-124	135	-199	-15896	2448	-4360	87	-16	123	-2688	-1468	16560	71	-139	201	126	125	5
-5740	-5044	14768	95	-94	-126	-15628	492	-4696	-2	-65	-54	-2320	48	16920	26	-3	0	-7824	4128	13288	-100	143	-149	-15968	2512	-4444	37	-46	146	-2676	-1452	16676	62	-135	208	126	125	5
-5800	-4912	14780	112	-35	-137	-15564	540	-4756	10	-35	-12	-2328	-8	16864	25	-2	-1	-7896	4092	13332	-83	147	-161	-15924	2444	-4476	74	-31	183	-2664	-1400	16624	54	-112	218	127	125	5
-5768	-5040	14808	113	-33	-107	-15628	544	-4648	16	-62	-6	-2264	32	17000	24	0	4	-7904	4096	13272	-82	149	-155	-15928	2492	-4432	68	-63	195	-2668	-1440	16600	75	-99	210	127	125	5
-5736	-4916	14868	114	12	-127	-15588	552	-4600	2	-49	-29	-2440	136	16912	28	1	1	-7884	4176	13296	-61	155	-164	-15936	2536	-4424	98	-41	157	-2604	-1396	16604	88	-149	203	126	125	5
-5744	-5048	14772	109	-19	-113	-15596	552	-4644	15	-44	-18	-2320	104	16792	26	4	5	-7804	4088	13232	-55	204	-126	-15916	2524	-4440	85	16	176	-2672	-1300	16648	95	-134	187	126	125	5
-5768	-4960	14804	131	-8	-121	-15512	588	-4628	-6	-46	-14	-2376	176	16816	29	-2	3	-7848	4152	13256	-44	179	-169	-15984	2584	-4348	95	-24	161	-2612	-1292	16612	29	-157	207	127	125	5
-5764	-4956	14776	74	-28	-87	-15616	604	-4692	2	-54	-5	-2400	224	16912	31	-4	5	-7872	4100	13216	-74	180	-201	-15920	2588	-4348	51	-14	113	-2608	-1216	16508	21	-139	199	126	125	5
-5728	-5064	14824	132	-79	-108	-15552	636	-4664	-20	-66	-74	-2488	272	17056	27	-3	4	-7836	4184	13296	-100	164	-167	-15964	2592	-4320	41	6	120	-2664	-1240	16536	-61	-145	220	126	125	5
-5768	-4968	14796	102	-67	-118	-15592	676	-4692	-37	-119	-83	-2400	216	17000	24	-5	5	-7856	4132	13212	-136	133	-191	-15948	2584	-4528	49	-20	89	-2704	-1224	16628	-16	-131	231	126	125	5
-5756	-5008	14904	137	-47	-123	-15560	544	-4752	-36	-79	-115	-2472	240	17024	16	-3	6	-7880	4196	13192	-98	136	-187	-15892	2584	-4420	37	-22	48	-2680	-1256	16560	18	-148	193	126	125	5
-5812	-4920	14744	81	16	-161	-15616	632	-4640	-30	-75	-123	-2192	328	17128	15	-7	6	-7868	4152	13216	-119	137	-187	-15932	2532	-4312	76	-33	80	-2616	-1276	16684	-4	-120	184	126	125	5
-5800	-5032	14676	94	-86	-117	-15664	636	-4660	-25	-78	-166	-2344	160	16936	8	-1	3	-7840	4140	13276	-147	139	-201	-15932	2528	-4468	80	-20	64	-2724	-1288	16692	-53	-129	196	127	125	5
-5748	-5000	14820	96	-56	-135	-15592	652	-4680	-26	-77	-155	-2360	48	16976	6	-3	3	-7868	4148	13176	-132	147	-173	-15936	2572	-4420	64	-3	37	-2656	-1328	16560	-40	-132	186	126	125	5
-5676	-5028	14716	61	-62	-156	-15656	612	-4772	-60	-60	-158	-2192	-32	16976	6	-2	4	-7856	4092	13276	-137	140	-206	-15964	2540	-4364	64	-11	67	-2612	-1368	16684	-36	-120	194	126	126	5
-5740	-5012	14932	50	-35	-161	-15556	412	-4588	-19	-33	-192	-2272	16	16776	6	-1	5	-7864	4080	13288	-137	121	-203	-15960	2536	-4444	93	9	39	-2616	-1432	16624	26	-137	193	126	126	5
-5732	-4932	14692	64	-17	-147	-15588	460	-4604	23	-32	-141	-2328	-192	17136	8	-1	6	-7840	4124	13212	-122	152	-169	-15948	2444	-4380	86	-19	57	-2632	-1492	16592	-17	-118	237	126	126	5
-5740	-4972	14792	109	-28	-148	-15660	428	-4616	-24	-45	-114	-2280	-208	16888	20	-2	4	-7848	4116	13316	-119	159	-210	-15956	2424	-4336	95	10	101	-2572	-1536	16608	-26	-102	225	126	125	5
-5820	-4976	14836	85	-21	-138	-15572	432	-4668	-10	-17	-96	-2264	-144	16968	27	1	5	-7884	4164	13252	-101	153	-192	-15936	2424	-4484	99	13	107	-2584	-1564	16608	-34	-118	230	126	125	5
-5744	-5056	14732	131	-25	-110	-15604	432	-4652	-25	-31	-47	-2272	-240	17080	35	0	1	-7892	4060	13308	-80	155	-141	-15956	2436	-4416	83	-7	175	-2640	-1548	16636	3	-98	226	126	125	5
-5760	-5004	14844	136	-28	-103	-15588	380	-4652	-19	-43	-18	-2280	-144	17120	35	-1	3	-7860	4128	13296	-98	168	-223	-15976	2432	-4460	55	40	209	-2720	-1616	16580	47	-111	187	126	125	5
-5720	-5016	14780	147	-96	-97	-15592	428	-4628	40	-41	-12	-2344	-96	17120	32	-3	5	-7904	4124	13288	-23	175	-169	-15904	2460	-4552	95	-9	222	-2780	-1524	16592	90	-100	185	126	125	5
-5768	-4960	14824	144	-42	-126	-15628	500	-4752	5	-73	34	-2336	-104	17224	43	-2	1	-7868	4088	13212	-57	182	-135	-15932	2480	-4436	98	-46	248	-2736	-1432	16516	75	-122	196	126	125	5
-5792	-5048	14752	147	-44	-121	-15644	456	-4660	-14	-79	88	-2496	32	16728	44	-6	0	-7932	4088	13240	-20	162	-170	-15888	2476	-4520	118	-48	253	-2772	-1404	16640	71	-140	209	126	125	5
-5816	-5020	14776	163	-78	-93	-15604	572	-4656	-4	-86	82	-2376	-56	17024	42	-1	0	-7792	4164	13348	-55	175	-159	-15964	2628	-4472	118	-53	263	-2668	-1352	16536	77	-121	178	126	125	5
-5736	-4996	14844	141	-108	-135	-15580	540	-4640	17	-96	64	-2336	112	17240	41	-2	3	-7860	4104	13228	-39	156	-135	-15904	2580	-4392	87	-93	264	-2648	-1264	16728	96	-144	180	126	125	5
-5788	-5036	14792	154	-35	-76	-15620	608	-4724	-15	-103	74	-2408	408	16736	34	-1	1	-7888	4100	13216	-63	162	-174	-15916	2636	-4376	103	-52	216	-2676	-1244	16588	107	-138	179	126	126	5
-5756	-4996	14840	141	-72	-101	-15568	636	-4796	19	-118	15	-2256	304	16936	30	-5	2	-7884	4108	13228	-98	181	-152	-15908	2652	-4472	85	-95	179	-2644	-1264	16604	73	-121	209	126	125	5
-5804	-4980	14820	144	-3	-133	-15572	664	-4612	11	-68	-3	-2320	352	17184	30	-1	2	-7820	4072	13204	-71	168	-152	-15988	2604	-4332	106	-12	166	-2668	-1260	16572	45	-149	219	126	125	5
-5756	-4960	14684	143	-27	-163	-15604	648	-4620	-1	-72	-88	-2296	224	17088	26	-2	1	-7836	4136	13220	-137	148	-159	-15948	2644	-4504	125	-37	158	-2556	-1200	16580	26	-121	199	126	125	5
-5808	-4964	14752	107	-18	-109	-15604	712	-4724	-47	-94	-123	-2304	240	17016	23	-7	6	-7840	4184	13292	-103	125	-178	-15884	2624	-4380	67	-14	123	-2576	-1276	16616	13	-131	244	126	125	5
-5744	-4984	14780	56	-66	-119	-15572	624	-4604	-27	-69	-103	-2288	352	16736	25	-3	8	-7884	4208	13236	-114	109	-149	-16004	2584	-4448	66	-21	91	-2644	-1256	16568	-38	-143	231	126	125	5
-5804	-4944	14752	70	-31	-117	-15600	620	-4508	-28	-29	-119	-2408	64	17024	22	-5	9	-7816	4028	13236	-104	138	-205	-15948	2580	-4384	70	23	76	-2596	-1352	16608	4	-118	242	126	126	5
-5716	-5020	14768	93	-10	-95	-15580	464	-4576	-58	-45	-142	-2176	160	17088	18	-8	8	-7832	4116	13308	-115	126	-186	-15988	2568	-4392	25	22	65	-2564	-1328	16592	-23	-115	250	126	125	5
-5740	-4956	14860	49	-11	-135	-15588	576	-4600	-32	-34	-167	-2176	0	16784	20	-3	4	-7864	4100	13252	-152	156	-217	-15948	2500	-4400	54	16	57	-2616	-1424	16544	3	-99	214	126	125	5
-5756	-5016	14880	78	-46	-127	-15620	468	-4700	5	-21	-135	-2288	-168	17128	19	-2	3	-7824	4116	13156	-156	150	-159	-15956	2512	-4492	48	37	97	-2648	-1392	16696	-33	-92	246	127	125	5
-5772	-5008	14844	53	-23	-119	-15584	428	-4648	-33	-24	-114	-2424	-72	16832	19	-2	1	-7788	4104	13260	-126	136	-213	-15904	2464	-4372	64	-8	75	-2656	-1428	16584	-40	-120	211	127	125	5
-5708	-5020	14768	102	-23	-115	-15620	452	-4704	-20	-7	-141	-2232	-72	16936	17	1	1	-7940	4204	13324	-121	164	-165	-15944	2464	-4392	82	7	97	-2680	-1432	16688	-74	-106	213	126	126	5
-5740	-5016	14656	104	-43	-114	-15628	512	-4736	12	-22	-57	-2352	40	17168	19	1	-2	-7920	4100	13216	-126	164	-166	-15908	2528	-4504	73	41	130	-2684	-1448	16572	-28	-116	190	127	125	5
-5704	-5084	14760	107	-90	-142	-15592	496	-4588	9	-44	-68	-2528	8	17032	21	0	-4	-7856	4124	13252	-139	136	-172	-15948	2524	-4500	97	-28	134	-2728	-1428	16512	-4	-120	203	127	125	5
-5716	-5048	14804	110	7	-143	-15568	492	-4684	16	-49	-27	-2264	-8	16880	24	3	-4	-7880	4156	13144	-81	199	-185	-15944	2476	-4604	91	-20	151	-2740	-1444	16508	-6	-131	187	126	125	5
-5776	-5008	14840	104	-52	-125	-15576	464	-4644	51	-54	-29	-2408	176	16856	27	-1	-2	-7804	4120	13272	-84	166	-196	-16012	2456	-4452	124	-70	176	-2744	-1400	16412	13	-128	198	127	125	5
-5796	-4988	14824	113	-60	-108	-15636	556	-4684	-18	-25	-15	-2328	176	17072	28	-3	-1	-7844	4116	13228	-81	177	-188	-15976	2492	-4352	102	-68	150	-2724	-1452	16608	58	-133	193	127	125	5
-5792	-4964	14820	124	-66	-109	-15580	568	-4640	-36	-57	-38	-2344	80	16760	26	-2	1	-7900	4188	13108	-63	163	-156	-15948	2516	-4608	119	-73	147	-2632	-1384	16580	60	-150	182	127	125	5
-5784	-5024	14900	130	-80	-133	-15592	528	-4688	-29	-85	-39	-2432	216	17000	29	0	-1	-7812	4160	13196	-77	179	-156	-15944	2548	-4356	86	-85	140	-2636	-1424	16572	59	-140	180	126	126	5
-5732	-5000	14844	137	-60	-137	-15524	548	-4792	-80	-81	-51	-2320	88	16840	26	-6	3	-7916	4124	13324	-120	172	-173	-15868	2544	-4420	78	-46	172	-2600	-1416	16544	107	-170	193	127	126	5
-5752	-4960	14704	108	-19	-142	-15576	584	-4752	-23	-64	-45	-2216	64	16848	23	-5	8	-7876	4144	13240	-93	152	-138	-15940	2560	-4448	109	-29	181	-2632	-1304	16596	74	-152	191	126	126	5
-5724	-4996	14796	110	-20	-117	-15560	548	-4632	-50	-106	-78	-2224	184	17024	29	-1	5	-7868	4156	13288	-54	167	-163	-15916	2536	-4436	98	-78	157	-2668	-1332	16664	36	-121	225	126	126	5
-5760	-4944	14804	123	-46	-125	-15604	616	-4612	-35	-74	-66	-2240	40	16960	31	-4	3	-7800	4112	13228	-104	137	-149	-15976	2576	-4428	69	-20	132	-2616	-1296	16700	4	-121	227	126	126	5
-5776	-5000	14840	105	-74	-144	-15588	568	-4460	-41	-61	-40	-2248	-136	17048	28	4	5	-7892	4108	13276	-100	139	-164	-15952	2516	-4420	105	-3	151	-2592	-1364	16596	74	-150	205	126	126	5
-5768	-4968	14840	109	-34	-117	-15648	540	-4680	8	-41	-38	-2288	-56	16976	27	2	7	-7848	4092	13312	-102	158	-173	-15920	2544	-4348	85	22	166	-2560	-1284	16576	21	-100	217	126	126	5
-5808	-5036	14860	97	-21	-126	-15656	484	-4604	15	-60	-46	-2376	8	16648	31	4	2	-7864	4144	13168	-60	147	-178	-15920	2636	-4332	58	0	131	-2552	-1264	16584	18	-76	256	126	126	5
-5736	-5056	14800	113	-48	-142	-15644	560	-4636	28	-18	-36	-2328	136	17048	28	7	-2	-7924	4184	13280	-89	176	-208	-15976	2532	-4492	52	44	151	-2648	-1252	16656	14	-84	250	126	126	5
-5800	-5004	14776	86	-53	-105	-15536	544	-4712	36	-25	-32	-2432	232	16920	31	5	-4	-7900	4108	13332	-93	162	-182	-15960	2584	-4548	18	47	119	-2692	-1320	16544	-1	-119	225	126	126	5
-5776	-4992	14732	100	-44	-139	-15624	568	-4716	7	2	-12	-2336	80	16976	25	1	-4	-7844	4076	13196	-71	148	-166	-15948	2600	-4440	36	54	90	-2700	-1264	16644	-26	-135	225	127	126	5
-5744	-4992	14844	101	-80	-103	-15592	556	-4688	33	-57	-17	-2336	200	16976	22	0	-1	-7880	4084	13240	-73	176	-183	-15900	2556	-4580	31	1	84	-2696	-1384	16644	-54	-157	250	127	125	5
-5736	-4964	14712	82	-47	-111	-15608	624	-4600	-47	-30	-109	-2496	192	16912	22	2	3	-7884	4136	13276	-99	182	-196	-15980	2544	-4412	76	4	63	-2692	-1428	16704	-76	-145	237	127	126	5
-5736	-5024	14804	91	-45	-139	-15592	600	-4712	-1	-50	-103	-2432	8	17112	22	-4	4	-7852	4076	13184	-117	148	-213	-15956	2544	-4536	-5	11	63	-2732	-1432	16648	-19	-124	247	126	125	5
-5760	-4988	14824	105	-41	-147	-15592	580	-4720	-42	-70	-129	-2384	104	16784	26	-5	7	-7852	4076	13320	-111	166	-198	-15932	2588	-4544	-7	-1	74	-2764	-1460	16492	44	-144	256	126	126	5
-5736	-4972	14800	83	-69	-148	-15580	484	-4652	-45	-76	-121	-2496	88	17008	22	-6	8	-7788	4120	13168	-91	158	-205	-15968	2544	-4516	67	-23	79	-2736	-1452	16588	104	-173	248	126	126	5
-5796	-4992	14784	70	-58	-121	-15568	476	-4724	-50	-117	-138	-2328	-32	16976	21	-7	8	-7836	4076	13296	-121	134	-192	-15940	2460	-4400	70	-34	110	-2800	-1500	16504	73	-147	218	126	126	5
-5776	-5024	14668	85	-53	-151	-15560	472	-4580	-55	-122	-100	-2256	-72	16920	21	-9	10	-7912	4088	13364	-110	151	-173	-15956	2488	-4480	113	-64	102	-2736	-1500	16692	42	-154	188	126	126	5
-5796	-5036	14784	112	-71	-118	-15616	436	-4712	-40	-115	-86	-2200	-64	16776	24	-3	6	-7900	4112	13324	-105	153	-158	-15916	2468	-4496	123	-101	205	-2684	-1568	16436	48	-156	147	126	126	5
-5756	-5012	14720	98	-62	-132	-15628	448	-4628	-36	-83	-65	-2264	-48	17056	30	-8	0	-7932	4108	13236	-94	148	-165	-15876	2364	-4556	126	-104	223	-2628	-1452	16592	48	-143	162	126	126	5
-5760	-4952	14804	129	-55	-135	-15656	424	-4596	1	-31	-28	-2248	-64	16704	32	-4	-3	-7776	4080	13272	-57	157	-151	-15964	2500	-4368	133	-99	204	-2544	-1420	16616	49	-147	131	126	126	5
-5760	-5028	14808	156	-106	-106	-15644	396	-4652	38	-31	-14	-2192	-48	17152	30	-2	-6	-7860	4148	13204	-100	157	-167	-15912	2500	-4380	168	-68	203	-2556	-1412	16572	19	-120	108	126	126	5
-5764	-4992	14836	126	-14	-119	-15584	500	-4608	60	-55	39	-2152	-8	16952	29	0	-7	-7880	4116	13260	-60	176	-137	-15896	2572	-4480	199	-135	221	-2576	-1308	16504	-13	-117	102	127	126	5
-5772	-5036	14804	176	-48	-118	-15548	544	-4652	62	-61	1	-2296	40	16952	33	5	-11	-7876	4180	13212	-78	144	-176	-15944	2636	-4460	159	-51	212	-2624	-1180	16532	-12	-94	155	127	126	5
-5768	-5032	14888	144	-42	-98	-15604	596	-4620	8	-46	35	-2328	264	16768	29	9	-12	-7856	4152	13268	-85	137	-177	-15872	2604	-4372	97	-22	174	-2660	-1232	16596	27	-92	217	127	126	5
-5788	-4956	14760	159	-53	-135	-15664	624	-4744	-4	-49	25	-2400	192	16992	29	8	-6	-7784	4148	13208	-102	145	-180	-15936	2648	-4440	101	-23	161	-2620	-1300	16656	16	-123	180	126	126	5
-5700	-4992	14868	131	-28	-144	-15540	684	-4628	7	-43	-15	-2416	152	17016	27	4	-4	-7860	4112	13340	-82	143	-153	-15968	2580	-4456	83	43	116	-2632	-1224	16528	1	-130	233	126	126	5
-5848	-4996	14772	109	-70	-145	-15604	600	-4700	-12	-67	-45	-2432	216	17024	25	3	1	-7892	4068	13280	-106	159	-186	-15928	2464	-4460	52	2	111	-2628	-1308	16588	-18	-138	259	126	126	5
-5708	-4992	14772	126	-63	-125	-15572	656	-4788	-15	-67	-50	-2384	160	16856	31	1	2	-7808	4064	13200	-131	132	-167	-15960	2472	-4512	69	14	105	-2676	-1324	16588	33	-144	279	126	126	5
-5820	-4964	14892	98	-39	-143	-15644	644	-4692	-36	-99	-58	-2384	120	17232	27	3	5	-7840	4132	13312	-76	160	-172	-15968	2548	-4512	50	25	107	-2756	-1464	16588	31	-130	266	126	126	5
-5776	-5032	14764	98	-38	-139	-15536	556	-4740	-46	-59	-87	-2440	104	16840	28	-1	8	-7924	4120	13308	-121	135	-159	-15900	2516	-4352	36	-17	89	-2744	-1436	16620	70	-167	260	126	126	5
-5768	-4992	14800	70	-23	-152	-15676	560	-4612	-31	-107	-100	-2344	88	16784	25	-2	11	-7860	4128	13156	-143	166	-160	-15920	2496	-4404	26	-17	151	-2652	-1440	16600	66	-153	266	126	126	5
-5760	-5012	14780	50	-35	-133	-15588	496	-4632	-29	-106	-115	-2376	120	17080	28	-9	5	-7848	4064	13276	-73	137	-200	-15968	2548	-4492	86	16	134	-2668	-1432	16528	73	-153	236	126	126	5
-5720	-4992	14812	87	-44	-137	-15628	508	-4664	-38	-57	-85	-2192	32	16960	24	-5	7	-7856	4108	13260	-96	128	-163	-15956	2544	-4528	56	-23	146	-2668	-1380	16564	57	-150	236	126	126	5
-5724	-5068	14664	91	-16	-140	-15592	464	-4768	-44	-77	-80	-2368	80	16792	28	-3	5	-7864	4168	13236	-55	146	-176	-15968	2544	-4404	44	-16	187	-2696	-1476	16604	58	-167	225	127	126	5
-5800	-5036	14768	101	-48	-89	-15600	536	-4672	0	-73	-66	-2248	104	16912	25	-3	3	-7880	4068	13308	-58	150	-168	-15892	2472	-4324	44	-21	175	-2648	-1352	16624	96	-169	198	126	126	5
-5792	-5040	14720	110	-35	-131	-15648	596	-4600	-42	-57	-17	-2336	16	16936	28	-2	2	-7868	4132	13276	-107	176	-151	-15936	2552	-4480	86	-37	173	-2656	-1348	16636	65	-166	225	126	126	5
-5712	-5004	14852	88	-76	-114	-15592	584	-4756	-30	-67	-25	-2416	64	17024	22	-1	1	-7860	4076	13264	-69	178	-148	-15912	2476	-4276	66	12	196	-2644	-1328	16624	34	-102	219	127	125	5
-5708	-4928	14808	119	-50	-101	-15664	480	-4580	-66	-29	5	-2344	88	16936	25	-2	3	-7848	4136	13168	-64	170	-150	-15936	2536	-4420	68	29	185	-2636	-1356	16668	67	-144	212	126	125	5
-5712	-5008	14800	113	-49	-115	-15600	556	-4660	-2	-90	-7	-2208	232	16656	25	2	2	-7868	4120	13240	-35	144	-149	-15908	2612	-4372	107	9	157	-2628	-1372	16560	32	-123	208	126	126	5
-5776	-5004	14788	122	-72	-105	-15584	548	-4624	-6	-43	-51	-2424	24	16936	28	0	1	-7868	4144	13272	-126	171	-166	-15892	2548	-4400	72	-45	120	-2604	-1324	16616	69	-126	188	126	126	5
-5724	-4956	14780	102	-55	-105	-15612	532	-4708	-12	-83	-40	-2344	192	17032	24	-1	0	-7824	4132	13240	-86	163	-173	-15968	2544	-4420	94	-36	135	-2692	-1296	16676	56	-148	232	126	126	5
-5724	-4940	14772	111	-113	-123	-15552	612	-4608	-30	-22	-42	-2288	128	16968	30	0	3	-7888	4104	13248	-93	118	-168	-15900	2524	-4304	86	-38	126	-2604	-1356	16608	25	-130	233	127	125	5
-5760	-4984	14808	117	-54	-109	-15648	540	-4676	-14	-54	-14	-2168	112	16680	29	-2	1	-7860	4144	13260	-106	153	-190	-15920	2480	-4484	95	11	191	-2672	-1348	16680	31	-152	192	126	125	5
-5760	-4960	14768	120	-37	-126	-15620	580	-4680	32	-11	-39	-2368	112	16784	27	-3	1	-7864	4216	13296	-98	175	-189	-15984	2484	-4484	124	-7	136	-2648	-1388	16752	3	-130	161	126	126	5
-5768	-5004	14748	100	-57	-127	-15628	540	-4680	-2	-36	-42	-2264	192	17032	26	1	2	-7868	4112	13216	-99	158	-177	-15924	2540	-4428	82	-3	166	-2644	-1344	16568	39	-118	211	126	126	5
-5788	-5024	14788	110	19	-148	-15568	584	-4764	-33	-34	-62	-2424	184	16888	23	-1	1	-7848	4052	13180	-106	141	-185	-15900	2540	-4564	65	-10	148	-2692	-1320	16544	27	-142	183	126	126	5
-5732	-5036	14856	131	-31	-114	-15592	580	-4672	-16	-46	-58	-2424	200	17120	18	0	1	-7892	4088	13276	-95	133	-142	-15952	2560	-4460	108	-40	179	-2696	-1352	16464	55	-128	212	126	126	5
-5788	-5044	14800	107	-17	-117	-15608	612	-4460	1	-47	-45	-2304	8	16888	23	-5	-3	-7864	4044	13356	-71	138	-191	-15976	2572	-4424	86	-34	126	-2692	-1384	16484	15	-142	215	126	126	5
-5800	-5036	14860	109	-74	-120	-15576	588	-4748	32	-56	-59	-2232	64	17136	23	-2	6	-7864	4152	13252	-80	160	-176	-15952	2572	-4488	85	9	155	-2644	-1348	16712	41	-170	200	126	126	5
-5676	-4952	14796	80	-24	-93	-15596	548	-4696	-46	-63	-50	-2264	72	17072	23	-4	4	-7944	4112	13344	-91	162	-154	-15960	2548	-4508	58	-59	143	-2648	-1328	16648	37	-155	177	126	126	5
-5704	-5032	14780	124	-73	-100	-15616	568	-4600	-5	-52	-73	-2432	96	17056	21	1	5	-7872	4096	13240	-93	160	-174	-15948	2496	-4596	70	-18	112	-2692	-1308	16612	8	-165	225	126	126	5
-5728	-5056	14896	69	-64	-151	-15648	528	-4576	-11	-54	-92	-2432	96	16952	24	-5	5	-7876	4064	13296	-85	149	-202	-15860	2584	-4404	77	-17	145	-2636	-1376	16628	21	-89	222	126	126	5
-5788	-5056	14780	104	-69	-148	-15620	556	-4676	-25	-78	-46	-2328	160	16888	23	-3	1	-7788	4140	13288	-133	147	-167	-15896	2564	-4388	89	-38	133	-2616	-1364	16532	34	-97	215	126	125	5
-5712	-4956	14732	84	-33	-115	-15612	536	-4704	6	-49	-72	-2416	56	16824	23	2	3	-7812	4048	13256	-94	156	-159	-15920	2564	-4392	52	-7	131	-2656	-1416	16692	44	-93	232	126	126	5
-5820	-5048	14856	122	-54	-98	-15540	584	-4644	6	-102	-55	-2304	0	16832	20	2	3	-7796	4088	13384	-129	184	-176	-15912	2512	-4372	63	-30	127	-2652	-1376	16548	34	-100	215	126	126	5
-5700	-5016	14768	75	-29	-118	-15588	620	-4680	-15	-52	-105	-2256	136	16888	23	3	7	-7880	4072	13240	-73	179	-163	-15912	2552	-4496	46	-11	129	-2684	-1332	16516	11	-111	228	126	126	5
-5788	-5052	14756	87	-26	-133	-15656	560	-4656	-20	-95	-89	-2416	0	17168	24	-2	8	-7808	4152	13308	-37	190	-185	-15916	2564	-4300	83	-38	134	-2688	-1388	16592	33	-151	242	126	125	5
-5752	-4952	14824	100	-10	-147	-15644	592	-4704	23	-58	-58	-2352	176	17112	25	-1	5	-7860	4148	13268	-54	175	-171	-15948	2536	-4484	126	-57	194	-2676	-1372	16572	42	-153	199	126	126	5
-5728	-5040	14852	102	-43	-135	-15540	488	-4732	0	-61	-83	-2432	96	17368	28	-5	4	-7864	4108	13172	-54	168	-197	-15972	2580	-4424	56	-41	120	-2744	-1332	16480	47	-146	227	126	126	5
-5768	-4980	14776	119	-49	-138	-15564	536	-4500	-30	-55	-74	-2384	128	16880	23	-3	5	-7860	4108	13244	-78	164	-183	-15956	2576	-4404	67	-53	127	-2664	-1360	16608	36	-140	202	126	126	5
-5776	-4944	14684	90	-80	-116	-15596	580	-4652	6	-46	-46	-2360	24	17320	23	-8	8	-7852	4152	13268	-75	159	-184	-15968	2520	-4372	71	-41	156	-2652	-1316	16472	49	-169	220	126	126	5
-5768	-5016	14880	122	-58	-123	-15576	536	-4652	6	-68	-82	-2352	96	17128	21	-11	6	-7864	4092	13204	-89	162	-146	-15992	2492	-4456	87	-58	167	-2624	-1344	16632	39	-161	209	126	126	5
-5764	-4948	14824	122	-64	-137	-15588	564	-4624	-19	-74	-82	-2280	32	16848	19	-6	5	-7864	4076	13188	-75	146	-166	-15972	2560	-4424	72	-73	124	-2656	-1356	16540	28	-162	198	126	125	5
-5684	-4960	14744	103	-57	-110	-15588	484	-4692	34	-54	-56	-2384	56	16800	21	-1	6	-7752	4160	13336	-108	160	-164	-15908	2556	-4392	86	-93	153	-2644	-1428	16572	67	-121	192	126	125	5
-5820	-5032	14756	140	-66	-151	-15588	504	-4628	-36	-75	-79	-2232	168	16888	22	2	5	-7840	4156	13292	-99	129	-175	-15908	2580	-4468	101	-50	167	-2664	-1296	16552	60	-134	176	126	126	5
-5796	-4976	14708	108	-52	-133	-15604	560	-4636	-14	-50	-49	-2416	192	17072	17	-4	4	-7908	4100	13236	-121	137	-172	-15908	2588	-4444	88	-60	131	-2588	-1272	16540	27	-96	174	126	126	5
-5760	-4976	14792	100	-42	-126	-15588	508	-4644	-22	-72	-72	-2144	16	16904	22	-2	0	-7904	4160	13296	-90	125	-183	-15928	2596	-4392	99	-56	121	-2636	-1356	16596	55	-130	196	126	126	5
-5756	-5036	14808	121	-49	-117	-15556	472	-4616	2	-54	-41	-2464	-136	16992	20	-3	6	-7852	4160	13136	-125	152	-136	-15992	2568	-4512	96	-17	124	-2584	-1296	16576	51	-110	223	126	125	5
-5740	-5032	14788	149	-54	-124	-15580	496	-4772	-20	-31	-41	-2400	-72	17064	24	-2	3	-7844	4132	13308	-114	142	-177	-15972	2560	-4468	71	-10	123	-2616	-1316	16656	55	-118	232	126	126	5
-5780	-4972	14772	112	-12	-165	-15588	556	-4612	-37	-49	-95	-2416	152	17008	22	-1	3	-7888	4112	13228	-81	127	-179	-15872	2600	-4428	89	-33	165	-2600	-1372	16568	14	-150	217	126	126	5
-5744	-5004	14892	77	-47	-133	-15604	520	-4696	-66	-4	-73	-2304	-112	16976	26	1	3	-7836	4164	13264	-75	167	-181	-15928	2552	-4388	77	-31	141	-2604	-1372	16604	12	-109	218	126	126	5
-5832	-5068	14804	119	-89	-128	-15692	556	-4588	-6	-19	-72	-2320	-72	16944	28	-4	4	-7880	4156	13236	-70	168	-181	-16024	2500	-4424	56	17	112	-2632	-1412	16532	-10	-137	207	127	126	5
-5780	-5024	14844	98	-11	-137	-15624	556	-4724	24	-40	-56	-2376	80	17128	25	-3	3	-7868	4056	13260	-100	140	-146	-15888	2576	-4456	64	-9	161	-2652	-1380	16636	-19	-121	222	127	126	5
-5716	-5036	14768	131	-65	-114	-15624	532	-4700	30	-44	-42	-2328	-88	16632	30	-4	-1	-7888	4104	13100	-104	171	-178	-15924	2492	-4508	94	-20	138	-2676	-1360	16600	11	-147	187	126	126	5
-5740	-4948	14768	102	-77	-125	-15592	560	-4652	-9	-63	-28	-2464	-24	17056	28	-3	1	-7848	4120	13268	-97	134	-183	-15944	2568	-4528	94	-33	134	-2692	-1396	16644	0	-117	190	126	126	5
-5720	-4992	14600	125	-40	-170	-15604	508	-4624	-21	-62	-31	-2496	56	16952	25	0	0	-7888	4100	13228	-74	148	-194	-15912	2576	-4400	85	-35	130	-2712	-1372	16620	27	-108	184	126	126	5
-5760	-4996	14684	102	-60	-141	-15596	572	-4700	-13	-68	-36	-2216	56	16960	20	-1	3	-7836	4112	13284	-92	170	-141	-15920	2564	-4540	102	-82	163	-2668	-1348	16488	33	-134	175	126	126	5
-5768	-5040	14764	101	-75	-120	-15592	528	-4664	11	-69	-35	-2408	56	17032	25	-3	3	-7844	4096	13248	-81	150	-161	-15924	2484	-4360	85	-62	152	-2644	-1372	16640	-3	-128	179	126	126	5
-5736	-4988	14796	62	-8	-152	-15592	488	-4672	0	-70	-41	-2368	24	16880	26	-9	5	-7840	4104	13092	-58	175	-179	-15924	2572	-4412	97	-40	166	-2592	-1360	16496	23	-128	217	126	126	5
-5772	-4968	14820	117	-55	-105	-15604	552	-4632	-11	-54	-100	-2272	64	16968	30	-3	3	-7908	4100	13236	-114	173	-180	-15956	2604	-4432	97	-20	142	-2600	-1364	16600	61	-154	227	126	126	5
-5760	-4976	14768	122	-59	-124	-15580	540	-4632	-25	-80	-44	-2392	16	17088	28	-3	6	-7868	4112	13356	-90	171	-165	-15984	2612	-4472	94	-29	189	-2576	-1364	16576	109	-144	187	126	126	5
-5820	-4992	14716	95	-59	-127	-15572	500	-4580	-24	-53	-58	-2208	-32	16792	29	-3	4	-7856	4140	13196	-103	163	-159	-15948	2584	-4328	85	-12	158	-2608	-1296	16512	52	-156	221	126	126	5
-5692	-5032	14748	104	-4	-102	-15624	504	-4688	1	-64	-20	-2320	-8	16976	32	1	2	-7928	4120	13284	-78	153	-176	-15960	2568	-4320	103	-8	175	-2544	-1272	16640	12	-123	210	126	126	5
-5788	-5000	14684	114	-14	-124	-15568	492	-4696	8	-35	-38	-2264	-40	17056	25	7	2	-7920	4164	13276	-91	166	-162	-15968	2596	-4436	107	-8	128	-2636	-1308	16516	-4	-117	229	126	126	5
-5744	-5024	14888	131	-20	-103	-15640	576	-4600	-1	-24	-4	-2352	224	17024	27	4	2	-7844	4124	13248	-101	166	-172	-15952	2512	-4344	79	20	110	-2636	-1328	16516	4	-118	188	126	126	5
-5840	-5056	14772	102	-19	-118	-15572	512	-4552	-5	-52	-49	-2328	232	17072	24	6	0	-7868	4156	13156	-95	140	-171	-15856	2580	-4424	45	13	123	-2636	-1276	16520	25	-117	229	126	126	5
-5788	-4976	14704	151	-47	-107	-15584	656	-4768	4	-59	-44	-2360	152	16800	25	-6	-1	-7872	4080	13284	-110	157	-189	-15916	2580	-4440	82	-4	118	-2656	-1384	16552	10	-150	214	126	126	5
-5780	-4972	14748	129	-2	-88	-15628	612	-4780	-1	-73	-80	-2368	224	16840	29	-3	-1	-7856	4144	13316	-116	168	-179	-15892	2520	-4556	93	12	127	-2668	-1340	16592	12	-149	231	126	126	5
-5760	-4972	14848	107	-48	-92	-15568	636	-4740	-23	-69	-33	-2400	72	16920	21	-1	4	-7852	4152	13308	-105	159	-178	-15860	2592	-4392	75	-2	118	-2692	-1344	16692	13	-135	192	126	126	5
-5776	-4956	14784	109	-49	-111	-15612	612	-4664	-24	-58	-77	-2480	112	17072	23	3	6	-7916	4100	13212	-104	142	-160	-15832	2524	-4448	29	3	128	-2732	-1392	16496	41	-120	216	126	126	5
-5808	-5004	14792	96	0	-128	-15564	540	-4620	6	-54	-90	-2328	104	16880	22	-4	5	-7808	4116	13208	-97	142	-151	-15872	2484	-4392	56	3	115	-2640	-1404	16656	20	-154	237	126	126	5
-5816	-5032	14776	115	-28	-115	-15584	556	-4684	-15	-18	-88	-2200	-8	16888	24	0	6	-7880	4080	13292	-122	179	-145	-15976	2528	-4464	100	-56	143	-2688	-1400	16492	21	-137	233	126	126	5
-5740	-4984	14844	111	-41	-140	-15640	460	-4712	-26	-58	-104	-2264	-32	17048	22	-1	5	-7876	4104	13188	-109	165	-163	-15912	2512	-4436	68	-22	152	-2700	-1392	16544	57	-142	219	126	126	5
-5724	-4960	14800	123	-1	-138	-15616	528	-4680	-50	-49	-37	-2192	-96	16864	26	-7	5	-7860	4076	13396	-91	176	-160	-15964	2592	-4392	76	-25	131	-2616	-1336	16576	36	-150	192	126	126	5
-5748	-5048	14788	92	-33	-100	-15612	536	-4708	-20	-68	-49	-2360	128	16824	22	-5	6	-7860	4096	13276	-110	169	-166	-15964	2504	-4448	94	-8	147	-2672	-1320	16564	43	-142	157	126	126	5
-5828	-5036	14828	124	-14	-135	-15588	484	-4588	22	-60	-24	-2400	-48	16760	24	-2	2	-7836	4104	13340	-60	142	-126	-15940	2504	-4340	123	3	145	-2660	-1372	16624	48	-158	144	126	126	5
-5812	-5052	14768	128	-43	-96	-15592	468	-4724	21	-36	-64	-2264	64	17128	24	-7	4	-7864	4064	13180	-89	165	-182	-15976	2540	-4360	107	-12	149	-2656	-1368	16532	38	-152	193	126	126	5
-5752	-5012	14800	112	-5	-153	-15584	504	-4764	-12	-44	-69	-2400	104	16736	27	2	3	-7876	4040	13224	-86	155	-190	-15932	2500	-4476	124	-53	138	-2676	-1352	16576	7	-103	156	126	126	5
-5788	-4948	14736	97	-80	-98	-15572	608	-4684	2	-89	-52	-2224	224	16904	29	1	0	-7828	4068	13244	-87	159	-168	-15932	2528	-4416	118	-72	164	-2644	-1324	16644	34	-120	172	127	126	5
-5736	-4956	14756	91	-45	-122	-15568	544	-4676	19	-68	-19	-2256	104	17064	20	1	2	-7880	4188	13276	-76	152	-171	-15928	2548	-4376	99	-83	158	-2628	-1392	16632	68	-155	192	126	126	5
-5696	-4968	14840	129	-72	-116	-15588	560	-4664	11	-82	-34	-2400	152	16848	21	-1	4	-7840	4108	13332	-105	169	-184	-15876	2480	-4460	60	-60	145	-2596	-1392	16564	27	-107	207	126	126	5
-5800	-4968	14920	120	-27	-143	-15592	556	-4584	17	-56	-66	-2248	80	17000	26	2	3	-7872	4084	13208	-102	151	-201	-15948	2460	-4500	77	-45	125	-2560	-1304	16484	45	-61	212	126	126	5
-5780	-4976	14752	108	-51	-121	-15568	576	-4548	-5	-31	-43	-2240	0	17032	28	-2	4	-7872	4136	13248	-60	165	-172	-15960	2584	-4412	92	-9	149	-2584	-1268	16636	35	-88	197	126	126	5
-5764	-5000	14924	105	-28	-145	-15680	500	-4512	0	-46	-95	-2280	200	16888	26	-4	5	-7820	4160	13312	-58	174	-181	-15948	2596	-4404	54	-5	143	-2580	-1296	16532	-3	-113	223	126	126	5
-5792	-4940	14772	114	-31	-110	-15652	576	-4584	5	-5	-62	-2224	24	16792	27	2	5	-7864	4140	13240	-86	181	-197	-15912	2592	-4384	38	7	149	-2664	-1312	16500	21	-112	215	126	126	5
-5784	-5020	14864	100	-40	-128	-15592	544	-4696	29	-36	-82	-2400	112	16792	25	-1	4	-7860	4084	13232	-87	185	-187	-15936	2576	-4468	73	4	91	-2640	-1256	16508	-7	-123	256	126	126	5
-5764	-4948	14740	130	-56	-123	-15592	476	-4640	14	-20	-67	-2400	64	16968	27	-2	3	-7832	4052	13236	-76	168	-186	-15916	2636	-4448	56	5	98	-2632	-1396	16604	1	-142	242	126	126	5
-5736	-4984	14884	131	-89	-105	-15568	536	-4684	-4	-47	-81	-2416	24	17024	21	-3	2	-7848	4140	13268	-92	146	-200	-15912	2612	-4424	49	-2	85	-2712	-1368	16524	33	-157	220	126	126	5
-5772	-5012	14832	121	-60	-146	-15640	496	-4760	-41	-80	-72	-2344	120	16944	23	-3	3	-7884	4088	13224	-142	150	-200	-15820	2508	-4404	90	-4	152	-2804	-1464	16544	33	-140	211	126	126	5
-5760	-4996	14776	114	-47	-136	-15536	544	-4576	-23	-88	-89	-2480	32	16968	20	-1	1	-7872	4156	13324	-126	152	-179	-15920	2524	-4456	109	-23	125	-2696	-1448	16620	35	-159	178	126	126	5
-5744	-5068	14704	111	-110	-126	-15584	540	-4700	-18	-62	-55	-2336	72	16672	19	-2	4	-7864	4124	13228	-115	111	-180	-15932	2568	-4440	55	-61	160	-2640	-1420	16568	-3	-122	179	126	126	5
-5764	-4988	14816	114	-48	-146	-15596	516	-4620	-19	-72	-46	-2360	96	16976	22	2	3	-7920	4156	13300	-69	123	-184	-15896	2480	-4564	80	-51	142	-2640	-1380	16676	40	-102	179	126	126	5
-5768	-4948	14792	106	-79	-136	-15632	576	-4624	-9	-54	-65	-2408	24	16784	25	1	6	-7860	4136	13204	-83	136	-146	-15956	2568	-4484	86	-27	135	-2624	-1396	16504	76	-128	203	126	126	5
-5772	-5076	14716	100	-53	-135	-15644	536	-4560	-56	-62	-82	-2360	-96	16992	27	-1	5	-7824	4064	13244	-105	142	-170	-15948	2580	-4392	51	-43	166	-2572	-1392	16552	96	-149	197	126	126	5
-5732	-5036	14856	108	-53	-120	-15616	488	-4704	-44	-45	-50	-2232	-8	17056	26	-4	4	-7840	4152	13296	-124	169	-155	-15932	2544	-4416	75	-4	167	-2580	-1428	16700	103	-127	244	126	126	5
-5836	-5108	14752	122	-84	-123	-15576	512	-4728	-7	-72	-42	-2368	-128	16960	25	0	5	-7900	4116	13240	-99	161	-188	-15920	2608	-4464	56	26	150	-2684	-1372	16672	108	-141	231	126	126	5
-5684	-4992	14776	138	-73	-123	-15608	544	-4580	-33	-63	11	-2176	40	16912	29	-4	5	-7900	4104	13260	-129	120	-174	-15924	2580	-4380	58	8	177	-2644	-1324	16564	47	-130	244	126	126	5
-5732	-5008	14712	104	-22	-126	-15644	524	-4676	-14	-39	-14	-2232	128	17096	34	0	3	-7852	4096	13300	-80	182	-147	-15944	2448	-4400	78	-9	145	-2620	-1404	16640	80	-166	196	126	126	5
-5744	-5000	14836	110	-16	-129	-15656	524	-4720	-24	-56	-13	-2328	-64	16784	36	-5	4	-7876	4064	13180	-74	174	-188	-15936	2600	-4416	93	40	170	-2712	-1352	16536	92	-140	204	126	126	5
-5728	-5012	14724	148	-54	-134	-15604	580	-4604	15	-56	-3	-2400	120	17192	38	-4	2	-7884	4096	13248	-70	177	-208	-15992	2564	-4404	60	-50	195	-2676	-1324	16672	124	-148	225	126	126	5
-5732	-4992	14800	130	-41	-121	-15572	532	-4628	34	-64	-7	-2376	168	17112	29	-3	4	-7860	4076	13300	-71	160	-168	-15868	2564	-4440	84	-63	167	-2700	-1272	16576	97	-164	220	126	126	5
-5764	-4984	14792	130	-58	-139	-15600	612	-4812	-18	-94	-18	-2416	264	16944	27	-3	1	-7880	4112	13388	-71	156	-157	-15884	2624	-4484	87	-42	116	-2648	-1236	16584	65	-149	203	126	126	5
-5768	-5016	14780	141	-73	-105	-15648	612	-4680	-7	-74	-55	-2368	224	16672	24	-5	5	-7884	4080	13284	-78	162	-178	-15924	2624	-4540	70	-65	152	-2656	-1224	16704	54	-141	215	126	125	5
-5792	-4968	14796	86	-68	-105	-15580	632	-4744	-30	-86	-38	-2272	96	17136	22	-7	4	-7832	4152	13164	-83	180	-172	-15968	2624	-4460	103	-88	156	-2660	-1280	16568	45	-125	191	126	126	5
-5752	-5016	14624	94	-66	-126	-15652	596	-4564	-12	-68	-62	-2376	224	17008	19	-5	0	-7820	4224	13200	-72	151	-219	-15936	2564	-4356	95	-14	140	-2556	-1292	16724	81	-129	174	126	126	5
-5756	-4900	14692	83	-20	-146	-15628	608	-4604	-12	-89	-111	-2344	224	16800	16	-9	2	-7876	4096	13332	-108	153	-187	-15896	2636	-4432	97	-13	128	-2648	-1252	16624	17	-120	185	126	126	5
-5792	-5060	14752	120	8	-151	-15620	620	-4656	3	-68	-128	-2400	272	16976	12	-8	0	-7820	4128	13404	-105	165	-168	-15960	2608	-4356	99	-60	84	-2604	-1284	16648	8	-125	176	126	126	5
-5792	-5000	14712	98	-34	-104	-15536	560	-4684	-3	-36	-155	-2176	32	17064	18	0	5	-7876	4140	13328	-109	135	-200	-15912	2628	-4380	61	-7	95	-2576	-1308	16612	-43	-112	187	127	126	5
-5772	-5048	14824	80	-68	-123	-15556	532	-4660	-20	-64	-125	-2304	64	17120	12	-2	5	-7788	4140	13212	-117	150	-152	-15924	2552	-4196	93	-45	70	-2552	-1320	16576	-19	-173	183	126	126	5
-5784	-5040	14684	74	-53	-93	-15636	520	-4524	15	-91	-94	-2280	112	16680	16	-3	6	-7872	4176	13284	-118	128	-170	-15972	2560	-4356	100	30	88	-2604	-1404	16588	-67	-113	199	126	126	5
-5760	-5036	14768	81	-6	-135	-15600	544	-4632	11	-56	-106	-2360	24	17016	16	-1	7	-7832	4064	13280	-134	166	-157	-15936	2504	-4468	56	15	116	-2616	-1408	16572	-51	-136	221	126	126	5
-5756	-4992	14868	95	-38	-115	-15656	468	-4552	21	16	-109	-2336	-64	17000	22	-2	4	-7820	4124	13204	-100	147	-200	-15960	2564	-4364	57	17	100	-2648	-1376	16512	-19	-100	213	126	126	5
-5792	-4996	14804	85	-37	-110	-15572	416	-4668	6	-15	-105	-2304	-208	17152	22	-2	2	-7900	4056	13192	-132	169	-145	-15960	2504	-4380	21	15	117	-2720	-1388	16616	0	-136	250	126	126	5
-5764	-5024	14736	107	-45	-132	-15592	468	-4740	1	-38	-62	-2416	-32	17152	19	-2	5	-7824	4124	13236	-106	128	-207	-15904	2496	-4396	69	40	128	-2688	-1472	16520	45	-121	216	127	126	5
-5780	-5012	14756	118	-70	-120	-15608	412	-4784	-17	-48	-44	-2344	-216	16888	27	-3	4	-7836	4092	13256	-70	106	-167	-15956	2520	-4456	60	10	114	-2632	-1460	16604	-4	-133	232	126	126	5
-5752	-4964	14856	123	-50	-130	-15636	496	-4744	-28	-58	-60	-2392	-40	16824	31	-3	3	-7912	4060	13368	-88	141	-182	-15940	2520	-4408	87	-21	128	-2616	-1348	16604	27	-115	233	126	126	5
-5736	-5040	14740	126	-28	-119	-15624	512	-4612	29	-45	-20	-2344	-48	17016	33	-4	5	-7832	4160	13172	-71	162	-180	-16016	2552	-4336	104	2	153	-2656	-1460	16640	8	-123	189	126	126	5
-5732	-4988	14796	107	0	-106	-15624	516	-4632	29	-37	-22	-2200	56	16960	37	-3	6	-7828	4068	13228	-104	153	-170	-15900	2564	-4404	98	26	124	-2600	-1288	16556	47	-106	227	126	126	5
-5752	-5000	14760	109	-75	-157	-15628	492	-4600	9	-14	-2	-2288	248	16856	33	-8	-1	-7904	4128	13316	-109	159	-185	-15936	2612	-4424	82	-56	182	-2656	-1332	16584	17	-120	221	126	126	5
-5772	-5016	14776	96	-44	-138	-15648	548	-4712	37	-24	-37	-2232	24	16824	29	-5	-1	-7856	4100	13272	-89	162	-160	-15940	2496	-4500	75	-12	155	-2608	-1388	16576	22	-107	212	126	126	5
-5800	-5000	14784	144	-69	-136	-15584	516	-4696	6	-49	-27	-2240	128	16832	26	0	3	-7864	4088	13256	-83	153	-180	-15884	2524	-4548	67	-13	163	-2608	-1276	16600	32	-137	214	127	126	5
-5744	-4980	14764	105	-7	-137	-15616	528	-4700	-12	-27	-6	-2392	192	16648	26	1	2	-7876	4072	13404	-70	163	-183	-15964	2560	-4344	108	-32	129	-2632	-1308	16484	-6	-114	236	127	126	5
-5796	-5068	14776	95	-31	-126	-15548	564	-4644	29	-44	-77	-2368	32	17048	32	0	1	-7804	4116	13308	-93	159	-199	-15984	2552	-4324	63	-10	147	-2656	-1272	16604	0	-87	191	127	126	5
-5796	-5008	14752	85	-37	-112	-15596	576	-4556	-36	-58	-45	-2304	72	17096	24	2	-1	-7896	4124	13216	-89	196	-200	-15916	2564	-4436	87	-1	101	-2672	-1344	16592	2	-112	202	126	126	5
-5736	-4996	14780	128	-58	-108	-15588	620	-4596	-25	-44	-65	-2352	48	16968	23	1	2	-7840	4128	13340	-66	156	-181	-15944	2544	-4364	100	-26	135	-2688	-1360	16608	38	-124	220	126	126	5
-5768	-4948	14860	101	11	-121	-15592	556	-4592	26	-31	-74	-2368	64	17016	20	1	3	-7824	4120	13296	-78	183	-144	-15912	2612	-4464	106	24	140	-2652	-1312	16552	8	-80	216	126	126	5
-5764	-4964	14796	82	-53	-153	-15624	588	-4656	-12	-36	-67	-2216	8	16856	24	1	3	-7936	4136	13224	-99	171	-151	-15844	2532	-4520	95	-6	122	-2668	-1368	16656	-11	-118	202	126	126	5
-5716	-5048	14792	103	-60	-124	-15584	528	-4624	0	-48	-55	-2232	48	16880	29	1	2	-7928	4112	13356	-120	157	-187	-15892	2564	-4468	107	-25	126	-2684	-1304	16576	-45	-108	187	127	126	5
-5768	-4996	14752	92	-25	-115	-15632	532	-4676	-1	-16	-80	-2432	56	17000	25	1	2	-7880	4116	13304	-97	154	-154	-15896	2608	-4436	43	-7	136	-2784	-1348	16600	5	-126	265	127	126	5
-5756	-4944	14692	87	-9	-161	-15568	556	-4716	-22	-94	-52	-2464	136	17096	24	-4	1	-7864	4116	13232	-114	177	-159	-15904	2500	-4584	60	-2	148	-2756	-1312	16608	55	-177	201	127	126	5
-5788	-4980	14836	152	-27	-134	-15572	524	-4660	-17	-72	-59	-2400	0	16856	24	-5	0	-7832	4148	13196	-97	148	-148	-15900	2448	-4512	62	-6	129	-2788	-1464	16572	76	-133	224	127	126	5
-5788	-4988	14844	100	-52	-115	-15608	556	-4688	-16	-93	-25	-2352	-144	17144	24	2	1	-7856	4196	13300	-106	131	-180	-15900	2524	-4452	109	-59	133	-2668	-1416	16576	34	-154	204	127	126	5
-5748	-5020	14756	100	-52	-93	-15612	524	-4684	-21	-107	-77	-2384	32	16896	29	-1	2	-7852	4112	13300	-105	164	-152	-15984	2528	-4416	88	-51	144	-2736	-1464	16608	10	-157	208	126	126	5
-5844	-4980	14788	103	-78	-130	-15592	528	-4736	-33	-98	-56	-2272	80	17000	29	3	3	-7904	4136	13284	-73	156	-126	-15888	2564	-4500	88	-54	150	-2644	-1448	16628	85	-122	196	126	126	5
-5724	-4984	14792	82	-49	-129	-15624	456	-4676	-43	-109	-50	-2336	112	17000	24	-2	6	-7788	4120	13320	-95	146	-159	-15916	2440	-4428	79	-81	169	-2584	-1436	16604	123	-114	186	126	126	5
-5764	-4992	14860	93	-15	-121	-15628	484	-4600	-14	-89	-74	-2336	-208	16744	21	-1	1	-7832	4100	13288	-81	148	-163	-16028	2516	-4432	51	-74	171	-2580	-1428	16652	115	-138	214	126	126	5
-5732	-4968	14848	97	-54	-141	-15624	484	-4648	-11	-81	-90	-2232	80	16904	24	-5	6	-7840	4096	13248	-73	183	-171	-15944	2528	-4372	79	-40	215	-2672	-1336	16448	105	-162	209	126	126	5
-5724	-4956	14844	95	-63	-135	-15640	532	-4604	-23	-79	-63	-2296	104	16912	29	-3	6	-7864	4112	13316	-28	179	-158	-15948	2548	-4424	106	-64	181	-2644	-1312	16632	97	-141	178	127	126	5
-5764	-4976	14832	88	-29	-141	-15608	480	-4680	-9	-84	-69	-2280	152	16992	19	2	3	-7916	4136	13264	-75	166	-196	-15956	2484	-4416	73	-55	162	-2684	-1288	16476	146	-164	198	127	126	5
-5700	-5024	14716	137	-51	-107	-15588	528	-4564	16	-83	-46	-2376	88	16824	19	-2	2	-7840	4068	13200	-57	158	-170	-15972	2560	-4376	128	-23	204	-2548	-1288	16708	145	-185	183	127	126	5
-5772	-4992	14704	112	-60	-122	-15624	556	-4584	19	-40	-47	-2168	104	17152	24	-2	-2	-7888	4132	13240	-94	179	-177	-15984	2548	-4292	143	-66	181	-2600	-1220	16608	79	-205	167	127	126	5
-5780	-4956	14812	138	-32	-95	-15556	548	-4572	23	-33	-35	-2128	112	16760	28	-3	-6	-7812	4140	13284	-148	189	-197	-16008	2572	-4380	103	-32	191	-2580	-1260	16576	50	-170	189	127	126	5
-5716	-5020	14732	92	26	-119	-15624	656	-4620	-5	-41	-11	-2352	96	17096	27	-1	0	-7908	4148	13308	-114	172	-182	-15876	2560	-4428	76	-11	198	-2512	-1360	16592	71	-139	227	127	126	5
-5768	-4992	14864	116	-5	-126	-15524	532	-4676	3	-48	-29	-2320	56	17008	28	3	3	-7880	4148	13128	-92	176	-150	-15920	2552	-4492	70	47	152	-2480	-1344	16648	107	-123	278	127	126	5
-5768	-4984	14724	136	-46	-124	-15588	516	-4692	-38	-32	-17	-2304	-48	16816	33	6	3	-7864	4084	13256	-141	165	-165	-15960	2584	-4380	40	44	172	-2608	-1280	16660	65	-102	296	127	126	5
-5692	-4928	14788	118	-64	-142	-15608	532	-4628	-28	-17	8	-2208	24	16832	37	3	2	-7864	4120	13256	-101	188	-162	-15892	2640	-4404	19	41	121	-2620	-1280	16508	62	-58	343	126	126	5
-5816	-4996	14728	125	-70	-98	-15604	516	-4612	-56	-46	-37	-2352	72	16816	32	1	4	-7916	4064	13200	-134	141	-147	-15940	2604	-4504	15	83	123	-2592	-1312	16540	104	-87	352	127	126	5
-5776	-5048	14780	127	-64	-117	-15656	508	-4712	-50	-21	-9	-2400	24	17192	39	3	5	-7908	4152	13232	-135	161	-162	-15948	2532	-4396	22	67	94	-2752	-1264	16608	103	-82	335	127	126	5
-5700	-5072	14728	96	-70	-121	-15608	500	-4680	-53	-73	-14	-2360	192	16976	38	1	4	-7816	4212	13236	-132	161	-193	-15884	2612	-4520	41	39	97	-2812	-1268	16564	84	-93	315	126	126	5
-5804	-5056	14784	134	-65	-99	-15580	588	-4636	-17	-48	-29	-2472	200	16968	29	-6	1	-7912	4136	13328	-76	168	-198	-15960	2524	-4568	66	27	97	-2784	-1248	16512	51	-110	274	126	126	5
-5724	-4948	14728	118	-75	-142	-15600	588	-4592	-14	-91	-41	-2472	184	16880	29	-6	1	-7880	4108	13132	-125	171	-148	-15892	2576	-4420	72	-62	123	-2728	-1284	16592	26	-123	230	127	126	5
-5776	-4952	14696	129	-70	-123	-15624	628	-4728	33	-51	-49	-2560	200	16992	22	-8	-3	-7852	4136	13256	-66	159	-188	-15944	2536	-4536	125	-85	90	-2748	-1356	16508	14	-169	186	126	125	5
-5792	-4948	14868	163	-75	-132	-15596	704	-4640	30	-89	-40	-2344	240	16832	19	-12	-1	-7852	4088	13332	-118	134	-176	-15896	2476	-4488	122	-69	130	-2640	-1324	16572	-10	-162	166	126	126	5
-5736	-5008	14896	73	-82	-125	-15580	632	-4672	-21	-99	-117	-2336	264	16912	17	-19	1	-7848	4060	13268	-119	133	-174	-15976	2536	-4444	132	-70	134	-2656	-1320	16444	16	-171	166	127	126	5
-5776	-4944	14856	96	-27	-126	-15596	668	-4776	-31	-73	-140	-2416	120	16816	16	-13	6	-7868	4172	13304	-88	134	-166	-15960	2580	-4472	139	-45	93	-2660	-1248	16660	-7	-160	171	126	126	5
-5716	-4980	14800	68	-37	-184	-15612	588	-4588	-25	-78	-172	-2264	128	16896	14	-11	6	-7820	4204	13152	-112	166	-138	-15972	2528	-4444	80	-86	102	-2588	-1344	16664	25	-183	176	127	126	5
-5768	-4968	14724	57	-44	-126	-15588	600	-4588	-9	-70	-179	-2224	128	16936	13	-8	9	-7900	4140	13296	-96	157	-145	-15968	2564	-4276	109	-50	143	-2612	-1308	16564	15	-111	186	127	125	5
-5784	-5076	14816	53	-72	-126	-15600	520	-4588	-23	-90	-148	-2160	-96	17072	16	-6	10	-7876	4124	13184	-59	146	-182	-15908	2552	-4404	72	-28	128	-2520	-1268	16572	1	-119	167	126	125	5
-5740	-4964	14844	60	-6	-126	-15608	488	-4528	-9	-65	-195	-2224	0	16936	14	-4	5	-7888	4144	13224	-113	168	-179	-15908	2556	-4340	93	-22	76	-2516	-1288	16584	-39	-106	227	127	126	5
-5736	-4992	14744	99	-35	-129	-15688	320	-4600	11	-56	-113	-2128	-176	16960	19	-4	1	-7880	4108	13220	-101	137	-197	-15964	2612	-4384	91	35	92	-2576	-1356	16576	-66	-63	232	126	126	5
-5684	-5028	14752	95	-54	-121	-15644	416	-4584	-13	-14	-97	-2176	-256	16888	23	-4	-4	-7852	4132	13212	-103	165	-148	-15928	2568	-4444	56	52	90	-2612	-1276	16504	-11	-61	236	126	126	5
-5792	-4980	14672	119	-22	-135	-15664	428	-4744	8	0	-53	-2160	-200	16816	23	3	-2	-7888	4128	13196	-135	142	-174	-15948	2560	-4468	25	40	77	-2692	-1368	16604	-1	-47	220	127	126	5
-5800	-4972	14816	109	-64	-120	-15612	452	-4652	-4	15	-1	-2176	-56	16920	30	5	-7	-7872	4048	13228	-96	147	-208	-15912	2548	-4448	57	33	83	-2664	-1352	16568	-17	-80	261	126	126	5
-5764	-5060	14720	129	-38	-133	-15608	436	-4632	28	-4	14	-2224	0	17000	30	8	-7	-7852	4096	13320	-90	150	-158	-15952	2488	-4440	94	-23	73	-2688	-1364	16496	-96	-82	240	127	126	5
-5796	-5012	14752	150	-38	-120	-15544	508	-4672	63	-16	60	-2360	-32	16800	28	3	-6	-7920	4128	13292	-97	145	-178	-15904	2508	-4460	95	21	115	-2724	-1352	16544	-48	-89	249	126	126	5
-5740	-5016	14816	159	-87	-101	-15604	528	-4640	23	-48	88	-2352	-24	16992	33	4	-4	-7896	4068	13324	-101	134	-180	-15960	2492	-4504	74	26	112	-2760	-1372	16592	-45	-104	219	126	126	5
-5760	-4936	14796	153	-112	-83	-15588	568	-4672	16	-14	12	-2472	112	16896	32	1	-6	-7892	4152	13256	-116	145	-198	-15968	2496	-4464	84	18	80	-2728	-1416	16500	-29	-103	225	127	126	5
-5756	-4988	14748	136	-57	-97	-15628	548	-4652	-2	-51	-10	-2344	88	16800	34	-2	-2	-7884	4100	13304	-149	164	-219	-15948	2544	-4448	109	-48	146	-2752	-1368	16544	13	-133	241	126	126	5
-5844	-5012	14868	93	-30	-144	-15604	576	-4708	-21	-92	-54	-2320	40	16896	33	1	3	-7844	4112	13288	-169	162	-188	-15864	2536	-4508	95	-36	139	-2736	-1364	16604	-5	-121	229	126	126	5
-5732	-5000	14728	121	-16	-112	-15600	588	-4736	-31	-42	-58	-2352	96	16912	29	0	6	-7828	4060	13272	-118	188	-188	-15916	2568	-4480	63	-38	146	-2748	-1336	16576	38	-120	203	126	126	5
-5696	-4988	14772	118	-49	-130	-15592	604	-4692	-28	-60	-67	-2488	256	16912	26	-4	8	-7836	4176	13208	-128	159	-171	-15928	2532	-4568	79	-28	159	-2632	-1340	16544	42	-132	189	126	126	5
-5724	-5028	14800	111	-65	-154	-15560	564	-4644	-39	-66	-85	-2352	-72	16840	24	-3	6	-7868	4112	13204	-111	158	-176	-15916	2544	-4412	67	-5	164	-2720	-1364	16572	51	-154	234	127	126	5
-5764	-4968	14740	129	-61	-112	-15556	528	-4664	-42	-81	-84	-2488	152	16952	29	-8	4	-7816	4040	13248	-85	143	-193	-15996	2504	-4412	71	-54	100	-2652	-1272	16620	37	-118	207	127	126	5
-5740	-4980	14792	108	-26	-132	-15660	476	-4608	-37	-74	-78	-2296	-128	17064	26	0	5	-7848	4096	13272	-67	140	-150	-15892	2592	-4452	69	-42	119	-2676	-1300	16560	18	-89	223	127	126	5
-5788	-5000	14764	119	-27	-126	-15640	544	-4712	-57	-80	-66	-2216	-72	16896	23	-2	8	-7868	4100	13152	-66	155	-169	-15960	2600	-4484	69	-11	162	-2712	-1396	16572	21	-124	216	126	126	5
-5772	-4988	14708	118	-100	-114	-15588	520	-4740	1	-97	-69	-2240	-40	16744	21	-6	5	-7884	4064	13240	-86	136	-179	-15964	2508	-4448	69	-16	150	-2700	-1324	16636	34	-162	221	126	126	5
-5712	-4976	14848	118	-57	-117	-15568	480	-4756	-24	-83	-72	-2264	0	17096	25	-4	3	-7856	4104	13116	-88	152	-154	-15920	2620	-4364	79	-35	137	-2636	-1296	16560	35	-150	188	127	126	5
-5732	-5024	14800	154	-71	-123	-15580	492	-4584	1	6	-87	-2240	-80	17048	23	-1	0	-7864	4100	13268	-64	145	-172	-15928	2464	-4416	88	22	127	-2620	-1348	16656	28	-140	186	127	126	5
-5748	-5000	14828	170	-45	-103	-15616	532	-4588	-7	-23	-66	-2216	16	17024	27	-3	1	-7788	4112	13240	-97	139	-203	-15912	2572	-4372	114	7	104	-2648	-1364	16528	5	-136	204	127	126	5
-5688	-5020	14656	116	-13	-123	-15584	480	-4624	-12	-85	-15	-2432	16	17032	28	-7	5	-7880	4148	13296	-79	124	-168	-15896	2592	-4476	88	-12	148	-2692	-1356	16588	50	-152	206	127	126	5
-5792	-5012	14768	106	-71	-99	-15612	548	-4608	5	-56	-82	-2296	112	17032	26	0	0	-7836	4100	13156	-100	175	-172	-15912	2536	-4376	76	0	87	-2616	-1308	16580	46	-127	201	127	126	5
-5828	-4964	14768	111	-30	-158	-15608	624	-4596	5	-26	-59	-2464	-56	17144	26	1	1	-7888	4124	13208	-57	123	-179	-15968	2540	-4308	79	-34	140	-2664	-1328	16608	9	-126	207	127	126	5
-5688	-4972	14864	132	-20	-136	-15652	568	-4728	-1	-19	-24	-2256	80	16976	22	-4	1	-7824	4148	13268	-92	165	-176	-15960	2512	-4428	102	-33	139	-2628	-1344	16580	37	-119	212	127	126	5
-5688	-5000	14768	124	-29	-141	-15612	560	-4728	-9	-14	-55	-2168	-48	16992	25	-1	4	-7876	4084	13316	-85	164	-137	-15912	2544	-4464	110	9	126	-2608	-1440	16616	46	-138	183	127	126	5
-5796	-4964	14816	126	-16	-101	-15608	516	-4668	-8	-36	-34	-2264	-8	16784	26	-3	2	-7924	4156	13304	-109	126	-231	-15936	2540	-4540	36	-14	131	-2632	-1332	16632	34	-121	214	127	126	5
-5796	-4948	14772	111	-24	-125	-15632	516	-4588	-15	-59	-24	-2416	24	16904	24	3	3	-7828	4080	13264	-133	174	-167	-15928	2516	-4420	77	9	125	-2644	-1372	16548	26	-98	197	127	126	5
-5740	-5040	14808	117	-72	-151	-15636	568	-4740	-48	-34	-35	-2376	-24	17120	26	1	3	-7840	4084	13276	-73	147	-185	-15928	2512	-4396	60	-18	144	-2676	-1388	16524	40	-130	211	127	126	5
-5688	-4956	14804	141	-78	-137	-15584	568	-4636	-29	-83	-37	-2264	-96	16912	28	2	4	-7876	4080	13404	-46	160	-188	-15972	2476	-4376	89	16	122	-2644	-1396	16612	22	-115	184	127	126	5
-5672	-5048	14856	95	6	-111	-15644	516	-4552	1	-49	-59	-2400	80	16936	29	5	6	-7748	4112	13280	-59	150	-166	-15932	2500	-4432	63	15	144	-2704	-1476	16628	46	-88	239	127	126	5
-5716	-4996	14708	152	-39	-132	-15580	504	-4672	14	-46	-57	-2192	96	17120	26	8	1	-7864	4128	13212	-68	173	-194	-15960	2480	-4420	55	22	194	-2732	-1372	16588	10	-110	207	127	126	5
-5792	-4924	14740	127	-30	-100	-15644	480	-4800	22	-27	-44	-2456	64	16960	29	-1	3	-7936	4136	13236	-64	174	-154	-15956	2544	-4496	106	-3	134	-2720	-1324	16544	63	-125	234	127	126	5
-5756	-5008	14764	119	-85	-107	-15632	540	-4692	-10	-50	-27	-2496	-96	16832	32	-1	1	-7852	4096	13260	-53	200	-184	-15952	2564	-4432	55	15	154	-2728	-1376	16520	61	-173	221	127	126	5
-5812	-5016	14752	120	-20	-113	-15588	548	-4692	9	-55	-18	-2424	48	17136	32	-2	2	-7880	4096	13176	-74	159	-138	-15920	2492	-4376	91	-69	161	-2740	-1364	16492	87	-156	248	126	126	5
-5752	-4980	14724	108	-10	-118	-15608	652	-4668	6	-49	-25	-2440	32	16912	29	-4	2	-7912	4096	13344	-59	176	-176	-15960	2560	-4468	81	-45	154	-2732	-1332	16668	92	-180	228	127	126	5
-5764	-4972	14704	136	-37	-104	-15632	572	-4612	0	-74	-36	-2456	104	17072	27	-6	6	-7812	4128	13204	-73	181	-165	-15900	2536	-4556	88	-35	135	-2736	-1356	16616	86	-210	223	127	126	5
-5784	-4988	14816	126	-37	-124	-15624	612	-4648	-15	-53	-26	-2320	216	17072	23	-2	7	-7916	4144	13256	-63	150	-118	-15920	2568	-4432	74	-49	153	-2624	-1348	16588	97	-190	195	127	126	5
-5748	-5004	14784	70	-37	-100	-15676	584	-4592	-38	-93	-112	-2272	120	17064	20	-3	8	-7844	4208	13164	-82	168	-158	-15960	2612	-4428	62	-69	150	-2680	-1296	16568	171	-153	219	127	126	5
-5744	-5052	14704	97	-16	-144	-15620	608	-4612	-22	-106	-123	-2376	200	16840	17	-3	10	-7880	4108	13284	-80	149	-187	-15952	2584	-4356	73	-95	130	-2680	-1316	16576	103	-158	170	127	126	5
-5800	-4976	14808	99	-43	-92	-15600	524	-4640	-13	-81	-71	-2320	0	16976	17	-4	8	-7860	4116	13212	-107	128	-165	-15932	2568	-4468	76	-55	151	-2672	-1316	16592	111	-159	209	127	126	5
-5760	-4996	14812	40	-31	-155	-15604	544	-4608	-31	-78	-73	-2376	-24	16800	17	-7	8	-7852	4096	13252	-141	126	-187	-15976	2540	-4528	104	-36	150	-2624	-1264	16516	55	-134	219	126	126	5
-5744	-5028	14768	113	-75	-122	-15688	560	-4652	-29	-78	-135	-2352	32	16848	19	-5	6	-7860	4152	13224	-117	152	-161	-15936	2612	-4456	94	-2	133	-2624	-1256	16604	24	-153	183	126	126	5
-5720	-5000	14824	141	-55	-116	-15564	416	-4692	-6	-97	-81	-2264	-240	16888	23	0	9	-7908	4096	13308	-120	126	-191	-15960	2540	-4348	85	-59	126	-2648	-1276	16600	32	-122	205	126	126	5
-5752	-4956	14700	145	-40	-124	-15592	524	-4660	-23	-54	-57	-2176	16	16952	20	-4	4	-7812	4176	13264	-119	165	-179	-15928	2564	-4368	69	-11	106	-2580	-1280	16532	50	-108	182	127	126	5
-5804	-4980	14728	77	-54	-113	-15652	496	-4620	-1	-37	-86	-2240	-152	16744	23	1	0	-7860	4128	13244	-115	144	-173	-15964	2612	-4400	104	-50	129	-2620	-1280	16532	1	-104	194	127	126	5
-5768	-5056	14824	126	-71	-128	-15584	424	-4724	4	-30	-40	-2240	88	16896	28	-7	1	-7860	4204	13284	-148	145	-160	-15924	2560	-4324	62	12	139	-2600	-1332	16596	-38	-128	210	127	126	5
-5728	-5056	14756	121	-18	-113	-15560	520	-4720	28	-28	-6	-2224	64	17008	27	-3	-1	-7820	4064	13328	-111	144	-161	-15908	2548	-4444	79	32	98	-2676	-1368	16568	-38	-121	195	127	126	5
-5756	-5004	14844	96	-86	-109	-15628	504	-4596	35	-6	-30	-2280	-24	16920	27	-1	-2	-7828	4104	13300	-86	168	-150	-15912	2496	-4404	108	-18	129	-2628	-1392	16636	7	-157	189	126	126	5
-5764	-4980	14696	111	-38	-145	-15624	548	-4740	1	-21	-65	-2512	-104	16824	28	0	0	-7828	4072	13240	-95	175	-156	-15920	2560	-4512	95	-21	127	-2768	-1360	16616	-10	-129	186	126	126	5
-5812	-5020	14628	126	-37	-123	-15576	568	-4680	16	-42	-4	-2352	224	16864	24	-1	-3	-7844	4044	13264	-62	145	-198	-15892	2528	-4452	105	-41	179	-2736	-1348	16572	52	-125	175	126	126	5
-5764	-5004	14708	73	-29	-143	-15612	576	-4772	-4	-64	-27	-2384	56	17056	25	-5	2	-7880	4080	13276	-57	160	-173	-15916	2476	-4468	99	-28	182	-2696	-1396	16520	69	-148	153	127	126	5
-5816	-4992	14872	118	-37	-141	-15552	552	-4616	13	-73	-39	-2352	152	16880	26	-1	0	-7916	4136	13292	-71	118	-162	-15976	2512	-4472	97	-56	173	-2604	-1388	16436	79	-158	174	127	126	5
-5800	-4952	14880	153	-97	-142	-15664	556	-4700	16	-100	-58	-2440	240	16960	26	0	4	-7888	4148	13356	-116	155	-168	-15980	2536	-4408	82	-31	167	-2632	-1360	16520	54	-141	230	127	126	5
-5768	-4992	14776	125	-99	-145	-15624	504	-4620	-15	-106	-46	-2424	40	17056	28	-2	6	-7872	4128	13268	-108	173	-154	-15952	2572	-4400	99	-34	157	-2580	-1320	16604	73	-130	205	127	126	5
-5780	-4988	14856	110	-65	-130	-15612	572	-4592	-46	-64	-78	-2288	-112	16976	29	0	9	-7860	4096	13296	-113	122	-169	-15984	2584	-4408	65	-3	137	-2600	-1364	16660	80	-164	192	127	126	5
-5772	-5028	14620	106	-48	-99	-15644	528	-4756	-26	-80	-61	-2264	-56	16832	30	-3	6	-7896	4132	13280	-93	132	-164	-15880	2580	-4368	66	-11	177	-2588	-1308	16600	65	-128	235	127	126	5
-5788	-5048	14772	116	-73	-124	-15568	532	-4708	-46	-62	-66	-2424	8	17064	34	-1	9	-7796	4096	13260	-66	161	-179	-15944	2536	-4252	64	-20	146	-2628	-1288	16560	85	-120	259	127	126	5
-5696	-5064	14828	143	-62	-106	-15588	492	-4696	-30	-47	-82	-2352	64	16792	30	-7	5	-7824	4140	13340	-102	165	-211	-15904	2548	-4352	88	10	117	-2624	-1280	16508	86	-120	249	127	126	5
-5724	-4984	14840	107	-42	-159	-15600	544	-4584	-37	-62	-27	-2328	-8	17072	25	-3	4	-7852	4064	13348	-85	173	-189	-15968	2568	-4500	66	11	136	-2652	-1256	16652	82	-131	240	127	126	5
-5764	-5024	14740	127	-13	-129	-15636	548	-4760	-6	-65	26	-2416	200	17024	29	1	3	-7876	4100	13300	-109	174	-185	-15944	2524	-4356	57	27	145	-2704	-1260	16648	48	-142	234	127	126	5
-5732	-5032	14824	130	-77	-119	-15608	504	-4820	24	-56	-28	-2328	176	17016	25	-5	0	-7892	4080	13348	-125	163	-200	-15960	2588	-4452	56	-1	129	-2684	-1256	16684	81	-181	203	127	126	5
-5764	-4948	14748	114	-34	-129	-15572	564	-4652	17	-53	-36	-2360	80	17056	20	1	-1	-7840	4132	13308	-99	183	-183	-15888	2564	-4432	104	-23	140	-2708	-1264	16568	-5	-147	195	126	126	5
-5760	-4996	14832	133	13	-129	-15588	600	-4744	-12	-61	-39	-2360	216	17024	24	-8	1	-7876	4092	13252	-89	145	-172	-15928	2636	-4396	94	-37	121	-2672	-1288	16616	13	-140	231	126	126	5
-5720	-5012	14692	126	-3	-154	-15596	552	-4620	-5	-72	-54	-2208	176	16784	21	-6	4	-7828	4084	13288	-74	147	-148	-15972	2624	-4436	95	-35	114	-2728	-1276	16580	25	-121	158	127	126	5
-5764	-5068	14764	83	-43	-131	-15592	588	-4680	-3	-59	-56	-2336	112	17056	20	-3	0	-7812	4144	13196	-93	161	-180	-15956	2528	-4488	83	-41	117	-2728	-1260	16712	58	-129	185	126	126	5
-5764	-5060	14696	72	-61	-147	-15584	572	-4556	-15	-98	-85	-2528	72	16856	22	-5	3	-7920	4136	13244	-89	146	-173	-15972	2628	-4492	69	-55	157	-2704	-1304	16636	23	-139	179	126	126	5
-5732	-5000	14856	111	-18	-144	-15584	496	-4648	-8	-58	-103	-2280	128	17192	18	-5	7	-7852	4056	13256	-112	170	-146	-15972	2576	-4404	116	-69	108	-2680	-1256	16556	33	-145	168	126	126	5
-5704	-5100	14804	91	-94	-143	-15568	608	-4580	-10	-92	-127	-2296	-8	17032	17	-4	2	-7844	4124	13332	-106	134	-154	-15964	2508	-4492	102	-84	108	-2576	-1296	16668	42	-108	176	126	126	5
-5720	-4952	14784	107	-47	-103	-15604	560	-4644	-19	-52	-116	-2288	-96	16800	21	-6	3	-7892	4156	13320	-83	121	-150	-15988	2536	-4356	95	-46	139	-2608	-1368	16544	65	-141	181	126	126	5
-5772	-5044	14848	96	-41	-133	-15652	488	-4540	32	-42	-85	-2136	-88	16776	22	-7	2	-7796	4128	13260	-113	157	-170	-15972	2544	-4328	73	-1	144	-2536	-1328	16552	63	-145	175	127	126	5
-5724	-5044	14828	117	-52	-128	-15644	504	-4528	0	-27	-58	-2200	-40	17032	23	-2	3	-7904	4140	13228	-115	155	-205	-15912	2504	-4212	101	-10	123	-2556	-1380	16560	30	-120	214	126	126	5
-5740	-5028	14772	123	-28	-114	-15672	472	-4736	-48	-16	-82	-2264	-40	16968	25	3	2	-7884	4124	13332	-110	150	-145	-15888	2628	-4292	63	9	175	-2636	-1352	16540	12	-118	235	126	126	5
-5800	-4988	14792	155	-54	-110	-15644	480	-4796	1	-37	-18	-2288	-192	16880	29	-1	1	-7912	4076	13232	-127	162	-159	-15976	2572	-4412	76	16	180	-2644	-1392	16624	37	-135	217	126	125	5
-5820	-4960	14760	134	-48	-165	-15620	480	-4712	-38	-12	-21	-2336	-48	16904	29	0	1	-7840	4132	13188	-101	165	-177	-15960	2568	-4436	78	57	141	-2624	-1380	16612	57	-105	263	126	126	5
-5804	-4988	14736	105	-74	-132	-15572	532	-4740	1	-24	-6	-2408	72	17072	33	1	2	-7888	4116	13224	-97	172	-169	-15964	2592	-4392	49	5	109	-2708	-1268	16612	56	-100	256	126	126	5
-5816	-5028	14832	129	-3	-137	-15628	488	-4584	-38	-50	-16	-2344	136	17064	29	1	1	-7896	4084	13256	-109	151	-163	-15968	2564	-4484	55	-7	132	-2708	-1340	16536	84	-126	249	127	126	5
-5772	-5012	14868	143	-50	-117	-15580	528	-4692	-10	-36	15	-2440	56	16768	28	-1	-2	-7852	4148	13264	-105	162	-194	-15952	2580	-4544	76	-1	122	-2704	-1352	16608	73	-161	222	127	126	5
-5796	-5036	14792	141	-87	-117	-15556	592	-4716	1	-75	-3	-2288	112	16856	32	-4	3	-7888	4080	13204	-114	175	-182	-15904	2496	-4472	104	-48	150	-2720	-1296	16512	60	-162	238	126	126	5
-5780	-4992	14772	117	-13	-133	-15640	620	-4708	-39	-91	-32	-2352	208	17232	27	-2	3	-7884	4144	13264	-107	164	-160	-15904	2564	-4428	90	-36	156	-2736	-1344	16540	57	-146	177	126	126	5
-5756	-4996	14752	132	-17	-109	-15620	624	-4624	-34	-89	-57	-2480	160	16712	26	-3	6	-7864	4132	13328	-89	177	-183	-15908	2568	-4568	90	-77	138	-2660	-1232	16684	56	-154	176	126	126	5
-5752	-4976	14720	127	-48	-124	-15600	596	-4688	2	-78	-99	-2304	208	16920	23	-6	7	-7844	4128	13220	-114	147	-169	-15980	2564	-4352	110	-49	182	-2652	-1268	16520	85	-148	172	126	126	5
-5772	-5020	14712	113	-55	-124	-15584	596	-4704	-6	-94	-64	-2384	160	16880	17	-3	5	-7856	4160	13252	-99	171	-143	-15948	2552	-4488	96	-55	160	-2596	-1232	16536	30	-126	197	126	126	5
-5752	-4988	14780	90	-59	-124	-15548	572	-4580	1	-84	-74	-2288	160	16824	16	-8	7	-7836	4112	13344	-83	165	-179	-15960	2548	-4480	76	-99	137	-2624	-1296	16672	29	-115	167	126	126	5
-5772	-4992	14772	78	16	-140	-15612	544	-4604	7	-63	-114	-2224	-24	17184	23	-5	5	-7860	4116	13200	-87	167	-161	-16032	2552	-4388	71	-28	122	-2564	-1264	16608	36	-133	217	126	126	5
-5728	-5020	14736	73	-60	-135	-15552	536	-4532	-12	-45	-128	-2352	-80	16968	19	-1	6	-7888	4116	13236	-49	187	-192	-15912	2584	-4356	51	-32	124	-2600	-1260	16700	12	-157	176	126	126	5
-5660	-5012	14632	121	-27	-85	-15656	476	-4692	-12	-66	-84	-2160	-72	16920	18	2	5	-7904	4116	13236	-82	140	-200	-15948	2652	-4360	58	7	103	-2668	-1300	16680	26	-120	194	126	126	5
-5808	-5032	14744	110	-12	-121	-15596	500	-4696	-1	-25	-66	-2280	-112	17024	22	-2	6	-7824	4164	13248	-93	150	-196	-15936	2560	-4376	34	13	92	-2676	-1292	16572	-9	-120	249	126	126	5
-5720	-5036	14720	112	-68	-109	-15560	504	-4604	8	-60	-59	-2304	-8	16888	19	-6	-1	-7872	4056	13220	-91	181	-193	-15968	2528	-4424	72	24	109	-2664	-1296	16612	-16	-129	226	126	126	5
-5812	-5048	14788	122	-42	-76	-15676	572	-4616	15	-69	-60	-2344	48	16888	25	-3	0	-7848	4196	13148	-87	146	-186	-15932	2512	-4452	66	-4	105	-2688	-1392	16608	-6	-121	220	126	126	5
-5800	-4988	14812	133	-24	-123	-15576	548	-4676	11	-4	-33	-2280	40	17144	27	-3	0	-7844	4092	13252	-76	158	-182	-15924	2452	-4476	68	-33	97	-2672	-1332	16588	23	-135	218	126	126	5
-5724	-5012	14836	86	-36	-107	-15636	548	-4684	-17	-20	-16	-2328	16	16840	25	4	4	-7888	4092	13188	-93	147	-185	-15944	2448	-4512	53	-16	124	-2612	-1380	16524	-1	-120	211	126	126	5
-5784	-4972	14772	131	-17	-122	-15592	524	-4660	-27	-46	-37	-2264	112	17032	25	-3	0	-7864	4140	13300	-77	150	-197	-15932	2508	-4476	54	-20	139	-2660	-1344	16516	11	-116	186	126	126	5
-5792	-5004	14768	123	-18	-113	-15600	496	-4624	18	-32	-39	-2320	-72	16880	26	-2	0	-7836	4112	13300	-112	160	-145	-15900	2568	-4432	132	-39	146	-2652	-1380	16600	56	-140	187	126	126	5
-5744	-4996	14728	133	-70	-136	-15540	576	-4680	18	-49	-29	-2320	-48	16744	26	-3	2	-7864	4144	13216	-83	122	-174	-15884	2556	-4440	131	-74	166	-2668	-1328	16540	77	-137	193	126	126	5
-5732	-5020	14772	130	-71	-136	-15532	648	-4560	-33	-66	-34	-2296	0	16912	29	2	3	-7872	4108	13248	-97	145	-160	-15988	2560	-4448	82	-53	160	-2636	-1252	16612	46	-137	178	126	126	5
-5764	-4988	14748	120	-34	-130	-15612	556	-4708	-16	-93	-62	-2400	48	16960	28	-1	3	-7864	4116	13276	-74	131	-186	-15944	2620	-4408	110	-28	160	-2572	-1296	16616	8	-127	188	126	126	5
-5768	-5012	14800	96	-32	-131	-15616	584	-4572	-23	-60	-44	-2320	-72	17264	26	-2	3	-7820	4096	13304	-117	150	-177	-15948	2600	-4336	106	-26	153	-2556	-1252	16652	48	-132	233	126	126	5
-5800	-4932	14888	108	-31	-137	-15600	472	-4632	-4	-69	-39	-2328	136	16960	28	-1	1	-7888	4140	13252	-128	138	-188	-15904	2572	-4324	49	-17	132	-2640	-1260	16592	16	-116	190	126	126	5
-5632	-4980	14860	117	-49	-106	-15612	496	-4692	-11	-62	-57	-2296	-8	17000	29	-1	6	-7928	4132	13252	-79	135	-213	-15928	2536	-4384	76	-21	124	-2596	-1304	16648	-5	-136	230	126	126	5
-5764	-5008	14832	106	-57	-122	-15584	476	-4756	-7	-49	-34	-2280	-8	16992	29	-4	0	-7844	4072	13244	-86	183	-171	-15980	2588	-4372	36	9	140	-2608	-1292	16548	22	-157	219	126	126	5
-5712	-5008	14792	138	-23	-141	-15624	512	-4652	-21	-36	-71	-2352	112	16880	26	-4	0	-7852	4084	13216	-122	173	-185	-15940	2516	-4484	70	-20	120	-2608	-1368	16580	15	-156	237	126	126	5
-5740	-4960	14740	122	-56	-134	-15588	516	-4672	-18	-46	-65	-2376	-24	17016	25	0	1	-7848	4148	13260	-52	140	-185	-15940	2600	-4432	94	2	147	-2692	-1308	16428	26	-150	202	126	126	5
-5788	-5016	14812	109	-98	-131	-15596	532	-4744	-15	-22	-56	-2368	40	17112	22	-2	4	-7772	4124	13256	-67	167	-156	-15928	2548	-4472	69	-52	136	-2664	-1364	16740	30	-140	169	126	126	5
-5800	-4980	14780	119	-94	-149	-15560	608	-4616	-2	-103	-70	-2560	16	16848	29	-3	2	-7896	4176	13288	-96	159	-181	-15944	2548	-4368	72	-28	152	-2636	-1320	16608	43	-136	200	126	126	5
-5760	-5016	14768	115	-30	-134	-15580	560	-4716	6	-74	-62	-2232	0	16936	24	0	4	-7856	4080	13220	-97	154	-162	-15948	2484	-4432	96	-35	144	-2612	-1280	16428	10	-174	200	126	126	5
-5724	-5020	14724	117	-68	-134	-15624	516	-4696	-45	-62	-81	-2216	8	17136	22	-4	5	-7872	4060	13248	-140	182	-167	-15968	2512	-4412	94	-36	138	-2624	-1272	16616	19	-144	180	126	126	5
-5656	-5032	14712	112	-62	-112	-15608	552	-4684	-24	-77	-103	-2288	-24	17032	21	-5	5	-7836	4168	13228	-65	138	-158	-15984	2560	-4476	128	-17	139	-2612	-1360	16640	45	-114	209	126	126	5
-5720	-4984	14748	100	-55	-111	-15652	488	-4624	-31	-11	-107	-2280	16	16888	31	-2	1	-7900	4124	13196	-110	163	-155	-16008	2544	-4348	72	-30	133	-2620	-1224	16672	52	-135	228	126	126	5
-5800	-4976	14768	92	-76	-124	-15576	500	-4552	-34	-49	-76	-2336	184	16760	24	-2	2	-7860	4160	13344	-106	157	-191	-15944	2480	-4364	52	-10	131	-2648	-1348	16628	34	-133	188	126	126	5
-5796	-5040	14680	118	-43	-114	-15588	552	-4700	-24	-50	-86	-2344	-48	17112	27	-6	8	-7884	4096	13288	-149	180	-176	-15988	2580	-4340	43	-3	132	-2648	-1352	16628	21	-137	224	126	126	5
-5812	-5028	14724	86	-12	-105	-15568	536	-4608	-16	-87	-42	-2304	24	17136	22	-2	1	-7892	4136	13360	-95	164	-182	-15952	2588	-4424	108	-6	140	-2616	-1332	16488	25	-158	213	127	126	5
-5744	-4996	14780	131	-45	-177	-15548	512	-4696	22	-47	-59	-2216	-8	17008	22	0	5	-7900	4056	13324	-90	187	-185	-16036	2572	-4536	77	-14	161	-2640	-1284	16556	-5	-131	270	127	126	5
-5772	-4932	14876	87	-33	-171	-15604	556	-4688	-2	-48	-38	-2080	-48	16816	27	2	2	-7836	4108	13368	-151	133	-168	-15904	2572	-4392	108	-4	126	-2604	-1300	16612	37	-98	206	126	126	5
-5736	-5016	14820	115	-44	-92	-15588	516	-4668	-13	-63	-70	-2360	160	16904	26	-2	2	-7836	4164	13240	-116	174	-160	-15892	2552	-4416	107	-7	116	-2688	-1324	16568	31	-131	188	126	126	5
-5740	-5020	14724	118	-41	-140	-15604	484	-4608	6	-46	-26	-2200	-112	16888	23	-4	1	-7860	4132	13172	-98	150	-178	-15944	2516	-4396	78	-21	128	-2664	-1356	16676	19	-137	194	126	126	5
-5708	-4968	14820	116	-42	-106	-15568	548	-4624	-14	-54	-82	-2392	32	16912	28	-5	0	-7916	4144	13204	-98	155	-186	-15992	2564	-4400	68	-7	148	-2648	-1316	16576	23	-121	225	126	126	5
-5712	-5032	14780	104	-53	-106	-15648	484	-4648	48	-32	-62	-2352	0	16824	27	-5	1	-7808	4184	13196	-60	127	-164	-15944	2552	-4424	93	-40	136	-2656	-1312	16536	41	-122	176	126	126	5
-5756	-5028	14812	153	-59	-139	-15572	504	-4644	13	-50	-71	-2416	16	17032	28	-1	1	-7868	4072	13256	-105	148	-168	-15900	2560	-4444	85	-70	148	-2676	-1336	16704	40	-152	209	126	126	5
-5788	-4960	14804	128	-67	-141	-15616	660	-4744	12	-64	-78	-2360	24	17120	27	-3	3	-7968	4144	13252	-96	140	-190	-15976	2572	-4524	53	-29	149	-2652	-1348	16520	52	-150	185	126	126	5
-5808	-5028	14792	110	-65	-106	-15648	568	-4692	-20	-64	-44	-2408	112	16968	26	1	5	-7816	4084	13328	-111	163	-153	-15920	2516	-4452	63	-44	148	-2640	-1352	16612	27	-170	225	126	126	5
-5716	-5008	14772	105	-84	-121	-15632	520	-4632	38	-66	-96	-2216	136	17128	26	0	4	-7856	4144	13288	-78	143	-152	-15972	2592	-4376	82	-60	119	-2660	-1328	16568	67	-111	197	126	126	5
-5756	-5016	14828	98	-8	-121	-15548	520	-4664	-31	-53	-52	-2424	128	16944	24	-4	6	-7856	4124	13168	-88	136	-156	-15936	2576	-4488	56	-36	153	-2664	-1268	16636	41	-151	179	126	126	5
-5724	-4980	14776	106	-53	-135	-15620	500	-4592	-46	-46	-86	-2392	0	16904	27	-2	2	-7896	4076	13252	-102	160	-145	-15932	2492	-4392	100	-30	141	-2696	-1288	16648	12	-148	161	127	126	5
-5804	-5024	14748	98	-21	-113	-15620	624	-4676	-36	-100	-66	-2256	32	17096	26	-4	2	-7896	4132	13192	-95	136	-159	-15952	2544	-4352	128	-40	149	-2588	-1264	16520	29	-161	200	127	126	5
-5776	-4940	14756	112	-80	-129	-15588	552	-4628	-32	-70	-74	-2368	128	16824	25	-3	5	-7808	4144	13176	-118	158	-182	-16000	2548	-4496	76	-66	157	-2620	-1304	16520	32	-122	173	126	126	5
-5808	-5000	14852	142	-72	-116	-15588	544	-4604	-20	-53	-41	-2424	32	16904	27	-6	4	-7876	4072	13216	-87	165	-172	-15872	2604	-4364	74	-8	134	-2636	-1332	16656	36	-137	186	126	126	5
-5796	-4936	14776	126	-77	-107	-15560	508	-4648	-7	-61	-43	-2392	16	16976	28	-3	4	-7856	4084	13300	-128	146	-143	-15944	2560	-4452	106	5	98	-2672	-1268	16560	28	-146	207	126	126	5
-5736	-5016	14740	121	-23	-150	-15632	512	-4676	15	-40	-60	-2336	16	16976	25	-4	3	-7856	4120	13320	-132	170	-151	-15956	2564	-4476	81	-46	129	-2664	-1292	16672	33	-134	222	126	126	5
-5756	-5020	14772	102	-68	-134	-15628	532	-4684	12	-68	-29	-2512	112	16856	27	-1	4	-7888	4140	13212	-125	177	-189	-15924	2560	-4420	101	-16	140	-2680	-1260	16612	0	-128	220	126	126	5
-5796	-4992	14788	92	-54	-123	-15624	576	-4692	-28	-32	-47	-2336	88	16864	26	-2	4	-7876	4120	13228	-107	123	-182	-15908	2552	-4500	83	2	112	-2644	-1304	16688	39	-139	226	126	126	5
-5764	-5032	14784	113	-46	-121	-15592	568	-4744	-10	-52	-88	-2288	56	16816	21	0	5	-7876	4104	13180	-101	106	-144	-15968	2604	-4436	89	-3	126	-2588	-1312	16584	10	-133	202	126	126	5
-5728	-5020	14844	118	-63	-107	-15596	528	-4612	-37	-25	-37	-2280	136	16784	24	-1	1	-7888	4128	13296	-80	141	-190	-15956	2552	-4500	83	-7	104	-2664	-1324	16636	37	-158	204	126	126	5
-5744	-5032	14828	111	-57	-127	-15620	564	-4748	-16	-80	-33	-2344	120	16960	30	3	-1	-7824	4104	13300	-98	156	-180	-15896	2564	-4400	84	3	126	-2664	-1276	16576	10	-129	212	126	126	5
-5696	-5048	14812	78	-59	-122	-15628	556	-4692	-6	-52	-52	-2280	232	17280	25	-1	2	-7856	4044	13264	-89	167	-214	-15900	2492	-4404	117	-15	119	-2636	-1352	16568	62	-110	214	126	126	5
-5772	-5016	14820	114	-33	-135	-15604	528	-4604	25	-56	-65	-2336	24	16976	21	-2	2	-7876	4116	13308	-57	166	-193	-15948	2576	-4416	56	-52	186	-2700	-1332	16576	39	-111	209	127	126	5
-5780	-5024	14828	141	-41	-125	-15576	544	-4628	-13	-39	-47	-2240	96	17144	26	-2	5	-7872	4112	13224	-90	155	-189	-15964	2584	-4472	58	1	158	-2624	-1340	16484	30	-119	218	126	126	5
-5740	-4968	14792	99	-48	-123	-15612	532	-4632	18	-44	-56	-2304	-64	17120	28	1	4	-7876	4160	13176	-46	170	-179	-15968	2520	-4432	61	-32	162	-2600	-1340	16492	-12	-107	218	126	126	5
-5748	-5008	14828	108	-32	-116	-15608	524	-4584	9	-42	-29	-2328	-80	16856	27	4	3	-7888	4064	13292	-64	196	-157	-15912	2544	-4424	100	3	115	-2660	-1264	16576	-13	-98	249	126	126	5
-5692	-5020	14796	103	-56	-132	-15648	512	-4620	39	-21	-59	-2336	104	16864	31	-2	2	-7828	4068	13272	-63	166	-153	-15920	2556	-4368	78	59	128	-2616	-1260	16552	4	-151	217	126	126	5
-5828	-5020	14828	128	-57	-121	-15660	600	-4756	22	-11	-73	-2376	-56	16936	30	0	-1	-7892	4084	13172	-73	183	-190	-15940	2572	-4376	12	6	168	-2616	-1352	16588	30	-119	218	126	126	5
-5788	-4968	14772	127	-69	-108	-15616	560	-4656	0	-44	-36	-2344	152	17048	26	-2	2	-7808	4152	13304	-77	166	-198	-15988	2516	-4396	72	46	126	-2620	-1304	16556	-17	-115	222	126	126	5
-5676	-4992	14752	111	-46	-98	-15636	544	-4584	5	-47	-57	-2464	96	16824	28	1	1	-7912	4124	13236	-73	153	-191	-15928	2564	-4440	74	-4	157	-2696	-1348	16704	4	-141	220	126	126	5
-5704	-4972	14788	148	-54	-99	-15596	564	-4728	-4	-39	-28	-2248	176	16800	28	-1	0	-7952	4132	13236	-74	178	-174	-15888	2584	-4516	72	-8	127	-2684	-1340	16628	41	-130	215	126	126	5
-5792	-4916	14768	82	-12	-131	-15564	588	-4724	-19	-58	-40	-2376	64	16968	23	-1	4	-7868	4084	13300	-71	167	-171	-15936	2572	-4520	62	-15	125	-2736	-1296	16584	80	-120	168	126	126	5
-5760	-4992	14744	129	-38	-118	-15616	556	-4736	-29	-66	-42	-2408	200	17032	27	-2	2	-7928	4088	13196	-81	149	-191	-15968	2520	-4436	89	-40	142	-2696	-1396	16668	51	-161	190	126	126	5
-5832	-5036	14712	86	-37	-140	-15596	544	-4624	-4	-87	-46	-2208	-24	16832	24	-3	5	-7820	4096	13268	-109	149	-185	-15896	2528	-4468	89	-29	149	-2680	-1364	16524	48	-128	219	126	126	5
-5708	-5044	14780	118	-28	-126	-15616	552	-4628	11	-72	-67	-2424	24	17064	22	-3	5	-7888	4096	13288	-96	145	-182	-15904	2536	-4300	72	-25	133	-2652	-1400	16572	28	-155	205	126	126	5
-5760	-4984	14852	82	-75	-137	-15588	556	-4776	-17	-7	-118	-2336	176	17000	24	-5	7	-7844	4072	13228	-93	153	-167	-15868	2560	-4440	123	-51	132	-2652	-1400	16660	26	-122	186	126	126	5
-5820	-5032	14796	113	-41	-121	-15576	552	-4656	-19	-76	-77	-2384	0	16792	20	-2	6	-7900	4040	13276	-81	139	-159	-15916	2592	-4404	60	-25	125	-2616	-1288	16532	20	-124	206	126	126	5
-5800	-5016	14816	78	-32	-138	-15616	548	-4628	-47	-79	-46	-2320	136	17008	21	1	2	-7840	4160	13264	-125	116	-167	-15968	2520	-4424	96	-41	140	-2568	-1308	16680	38	-130	193	126	126	5
-5788	-4996	14768	119	-82	-132	-15588	520	-4736	3	-54	-42	-2344	80	16832	24	-2	2	-7904	4080	13268	-80	146	-191	-15932	2552	-4480	54	-42	181	-2596	-1320	16620	22	-136	200	126	126	5
-5724	-5032	14836	137	-68	-97	-15640	580	-4656	1	-34	-53	-2336	56	16936	28	1	-2	-7928	4052	13312	-129	137	-161	-15916	2540	-4356	82	-37	137	-2644	-1340	16564	10	-102	209	126	126	5
-5796	-5000	14740	118	-57	-93	-15660	552	-4676	-5	-88	-28	-2168	-88	16920	26	0	1	-7864	4096	13276	-80	149	-162	-15924	2552	-4352	78	-2	132	-2688	-1292	16636	68	-120	215	126	126	5
-5728	-5028	14720	115	-54	-122	-15624	540	-4768	-18	-54	-30	-2280	-8	17056	27	0	3	-7844	4136	13324	-88	143	-177	-15908	2508	-4384	72	-4	148	-2680	-1304	16576	53	-112	242	126	126	5
-5772	-5020	14772	104	-34	-108	-15584	560	-4528	-42	-67	-50	-2248	24	16992	31	-1	4	-7852	4148	13208	-124	131	-217	-15960	2500	-4420	93	-11	156	-2616	-1364	16576	50	-146	244	126	126	5
-5700	-4964	14848	92	-56	-131	-15584	500	-4704	-3	-73	-40	-2256	-64	16976	25	-3	2	-7872	4128	13172	-98	143	-181	-15944	2548	-4408	108	-4	155	-2660	-1276	16600	25	-124	224	126	126	5
-5704	-5076	14800	138	-48	-128	-15592	524	-4652	-12	-42	-117	-2256	-80	17024	29	0	3	-7816	4128	13132	-104	134	-202	-15912	2560	-4388	72	-4	145	-2628	-1320	16712	44	-134	235	126	126	5
-5796	-5076	14748	146	-46	-133	-15568	564	-4540	-28	-54	-45	-2368	152	17000	28	-3	4	-7844	4092	13308	-37	156	-170	-15900	2572	-4424	65	-12	165	-2684	-1328	16548	22	-135	212	126	126	5
-5756	-4984	14824	102	-44	-138	-15636	504	-4648	-1	-79	-66	-2360	88	16832	30	-1	3	-7856	4112	13256	-106	163	-176	-15976	2520	-4400	56	-20	171	-2704	-1336	16668	29	-117	201	126	126	5
-5756	-5040	14784	102	-65	-112	-15652	552	-4620	38	-49	-35	-2360	-48	17048	29	-5	1	-7848	4148	13224	-75	134	-163	-15976	2536	-4284	95	-15	122	-2676	-1288	16552	29	-133	217	126	126	5
-5740	-4988	14792	112	-68	-124	-15576	604	-4744	6	-53	-28	-2368	112	16920	26	-1	1	-7880	4148	13308	-90	138	-162	-15972	2580	-4504	57	-16	114	-2696	-1336	16608	37	-122	216	126	126	5
-5768	-5024	14752	130	-33	-136	-15604	592	-4556	-5	-54	-54	-2392	0	16960	28	1	3	-7856	4128	13316	-83	159	-142	-15964	2552	-4456	82	-29	150	-2684	-1268	16624	48	-95	211	126	126	5
-5768	-5040	14788	65	-35	-141	-15644	540	-4700	-40	-37	-55	-2376	192	16992	23	-4	-1	-7864	4124	13200	-108	187	-190	-15932	2568	-4476	128	-46	99	-2712	-1376	16504	52	-125	234	126	126	5
-5804	-5052	14864	94	-52	-126	-15608	596	-4636	4	-53	-43	-2264	168	16848	22	-7	6	-7872	4080	13204	-59	173	-179	-15928	2600	-4404	75	-8	122	-2600	-1340	16628	36	-142	211	126	126	5
-5796	-5000	14836	124	-86	-63	-15620	504	-4696	-19	-67	-81	-2368	88	17048	26	-1	3	-7796	4128	13280	-92	143	-165	-15972	2516	-4424	46	-20	133	-2676	-1304	16604	14	-116	210	126	126	5
-5716	-5060	14904	106	-45	-132	-15616	472	-4616	-53	-36	-71	-2528	56	16944	24	-3	3	-7892	4088	13192	-81	144	-169	-15980	2520	-4476	77	-32	115	-2668	-1332	16624	17	-120	220	126	126	5
-5756	-4996	14768	79	-77	-119	-15544	568	-4592	-4	-73	-68	-2376	232	16912	22	-2	5	-7844	4120	13168	-94	161	-194	-15932	2520	-4564	120	-13	118	-2668	-1292	16484	48	-129	234	126	126	5
-5740	-4944	14848	127	-32	-154	-15636	564	-4644	7	-48	-63	-2272	72	16880	25	-5	0	-7828	4088	13304	-106	159	-161	-15972	2540	-4428	69	-21	126	-2632	-1296	16552	20	-144	184	126	126	5
-5724	-4996	14756	132	-42	-117	-15592	548	-4692	-30	-45	-55	-2360	136	17120	24	-1	2	-7864	4132	13324	-123	139	-164	-15932	2544	-4460	46	-38	134	-2676	-1316	16564	16	-139	226	126	126	5
-5780	-4976	14784	115	-34	-122	-15568	568	-4616	21	-41	-54	-2376	-88	16960	22	-5	2	-7888	4144	13224	-69	156	-164	-15968	2576	-4400	48	-17	143	-2604	-1300	16600	16	-124	228	126	126	5
-5740	-4992	14812	118	-70	-109	-15564	516	-4552	-2	-46	-79	-2360	-96	16936	25	-4	-1	-7836	4068	13088	-94	160	-185	-15932	2516	-4396	83	28	136	-2636	-1280	16592	46	-125	230	126	126	5
-5764	-5032	14644	93	-54	-102	-15600	536	-4680	-36	-69	-74	-2328	120	17096	29	-5	1	-7944	4120	13300	-70	147	-149	-15972	2564	-4512	68	-27	153	-2644	-1276	16640	10	-120	249	126	126	5
-5752	-5052	14840	88	-82	-126	-15540	564	-4684	9	-55	-69	-2304	128	16960	28	0	3	-7904	4128	13320	-88	156	-148	-15900	2640	-4308	60	40	151	-2628	-1332	16592	1	-114	191	126	126	5
-5816	-5000	14760	121	-60	-115	-15604	564	-4632	-40	-8	-80	-2256	-64	16960	30	-1	1	-7828	4084	13204	-107	130	-190	-15964	2544	-4568	99	-53	133	-2656	-1404	16572	23	-111	247	126	126	5
-5700	-5008	14868	110	-24	-134	-15596	560	-4672	-35	-42	-13	-2360	152	16888	28	0	-1	-7872	4088	13272	-81	163	-168	-15948	2576	-4504	66	3	145	-2672	-1384	16596	25	-120	226	126	126	5
-5692	-5032	14820	121	-64	-130	-15580	504	-4596	-16	-58	-15	-2336	0	16816	30	1	0	-7836	4104	13268	-101	187	-171	-15920	2560	-4524	113	-15	129	-2660	-1364	16536	37	-122	207	126	126	5
-5716	-5100	14856	113	3	-111	-15568	528	-4636	-21	-79	-67	-2368	-24	16840	26	1	1	-7916	4156	13272	-81	143	-157	-15944	2524	-4408	92	-8	160	-2660	-1348	16616	45	-138	223	126	126	5
-5696	-5004	14740	109	-43	-125	-15600	516	-4692	-2	-56	-37	-2208	24	17096	24	-4	-1	-7828	4096	13300	-78	168	-164	-15940	2564	-4448	96	-48	152	-2684	-1300	16672	34	-123	235	126	126	5
-5836	-5032	14868	129	-108	-108	-15616	560	-4652	-9	-61	-17	-2384	-24	17136	27	-1	3	-7840	4124	13200	-99	137	-171	-15960	2496	-4400	126	-10	147	-2632	-1260	16576	25	-123	217	127	126	5
-5840	-5048	14796	118	-16	-120	-15508	600	-4696	-22	-17	-71	-2224	200	16960	27	1	4	-7900	4104	13256	-120	159	-191	-16008	2608	-4364	118	-39	156	-2676	-1228	16536	42	-91	217	126	126	5
-5776	-5040	14756	120	-76	-120	-15636	572	-4700	23	-70	-53	-2248	16	16976	28	-4	1	-7876	4056	13220	-57	137	-164	-15976	2608	-4352	97	9	125	-2648	-1316	16520	48	-118	241	126	126	5
-5792	-5024	14760	133	-58	-141	-15688	592	-4684	-22	-69	-52	-2368	152	16912	28	-4	1	-7804	4052	13256	-139	163	-182	-15908	2540	-4464	87	-22	96	-2648	-1272	16648	37	-112	228	126	126	5
-5780	-5060	14760	92	-22	-115	-15592	568	-4632	-39	-48	-23	-2328	16	16896	29	-2	4	-7876	4144	13252	-82	168	-184	-15992	2580	-4292	97	-64	139	-2620	-1352	16532	27	-131	234	126	126	5
-5732	-5068	14760	117	-107	-150	-15608	524	-4672	-18	-77	-54	-2384	64	17208	31	-6	5	-7872	4064	13268	-52	157	-186	-15944	2580	-4468	67	-23	119	-2692	-1380	16568	48	-141	235	126	126	5
-5736	-5044	14852	112	-69	-113	-15620	612	-4692	-26	-33	-39	-2352	88	16992	27	-9	6	-7864	4068	13164	-129	173	-153	-15952	2560	-4432	65	-6	123	-2628	-1336	16600	-21	-145	206	126	126	5
-5744	-4956	14744	137	-67	-131	-15500	612	-4628	-1	-78	-73	-2408	160	17080	30	-6	3	-7836	4112	13180	-90	168	-161	-15920	2536	-4484	51	-26	125	-2652	-1368	16600	68	-140	226	126	126	5
-5796	-5052	14800	120	-119	-106	-15624	584	-4700	-35	-83	-83	-2328	0	16968	31	-3	10	-7828	4092	13284	-110	154	-194	-15960	2572	-4408	58	5	116	-2644	-1320	16564	79	-94	217	126	126	5
-5744	-5032	14848	97	-66	-132	-15644	564	-4632	-7	-51	-45	-2336	80	16968	34	-10	6	-7908	4064	13232	-66	177	-149	-15964	2560	-4364	115	2	150	-2612	-1300	16588	35	-134	218	126	126	5
-5712	-5008	14876	108	-30	-115	-15556	552	-4716	48	-65	-78	-2376	0	17064	36	-6	6	-7884	4156	13272	-97	164	-187	-15996	2560	-4392	88	-22	150	-2608	-1292	16488	63	-109	230	126	126	5
-5780	-5052	14832	128	-46	-130	-15592	504	-4664	6	-50	-25	-2288	224	16896	34	1	3	-7856	4128	13288	-108	167	-165	-15868	2588	-4372	145	-38	126	-2560	-1288	16624	114	-89	208	127	126	5
-5728	-5004	14796	103	5	-145	-15560	416	-4652	19	-22	-66	-2240	96	16904	26	0	0	-7820	4208	13184	-120	174	-182	-15976	2456	-4492	94	-3	126	-2640	-1280	16532	25	-75	229	126	126	5
-5764	-5084	14648	139	-35	-117	-15568	488	-4620	32	-18	-30	-2000	120	17048	23	4	-3	-7840	4176	13244	-86	175	-183	-15988	2560	-4472	55	19	143	-2660	-1280	16632	-58	-95	201	126	126	5
-5780	-5052	14776	100	-45	-112	-15592	592	-4728	36	-24	-40	-2368	8	17200	24	5	-5	-7860	4096	13280	-113	154	-170	-16020	2576	-4344	78	11	94	-2632	-1272	16540	-71	-149	196	126	126	5
-5800	-5016	14776	87	-11	-116	-15664	620	-4660	-8	17	-49	-2480	240	16824	29	-1	-2	-7880	4116	13244	-79	184	-191	-15896	2584	-4492	95	38	147	-2644	-1320	16704	-86	-113	214	126	126	5
-5824	-5008	14900	129	-25	-113	-15600	504	-4680	-15	7	25	-2280	216	16816	28	0	-1	-7884	4104	13376	-71	176	-205	-15980	2640	-4540	103	32	107	-2672	-1264	16544	10	-85	249	126	126	5
-5768	-5036	14728	80	13	-84	-15604	572	-4668	31	-30	-78	-2416	232	17192	18	1	3	-7892	4120	13220	-65	182	-185	-16000	2632	-4396	26	25	124	-2752	-1324	16616	83	-128	241	126	126	5
-5748	-5020	14780	110	-30	-141	-15580	604	-4732	30	-57	-62	-2608	0	16912	10	3	4	-7804	4176	13192	-133	179	-185	-15920	2528	-4464	-7	14	128	-2792	-1292	16680	71	-191	243	126	126	5
-5780	-4956	14708	111	-48	-113	-15588	612	-4636	-51	-37	-61	-2408	168	16912	17	-4	6	-7848	4076	13212	-75	146	-182	-15936	2500	-4408	5	20	154	-2704	-1432	16512	-29	-202	252	126	126	5
-5776	-4976	14836	93	-38	-139	-15688	544	-4704	-75	-70	-106	-2512	-128	16904	25	-7	10	-7868	4112	13324	-86	137	-175	-15864	2440	-4504	83	-4	139	-2672	-1396	16612	-39	-187	194	126	126	5
-5744	-5012	14744	129	-67	-140	-15624	448	-4844	-69	-98	-111	-2488	-40	16992	37	-12	13	-7836	4100	13240	-76	121	-158	-15852	2508	-4504	86	-64	138	-2696	-1476	16644	30	-172	198	126	126	5
-5740	-5004	14856	98	-31	-105	-15564	412	-4656	-47	-111	-100	-2416	-24	17136	43	-2	13	-7904	4020	13312	-110	138	-141	-15900	2552	-4436	67	-54	200	-2724	-1472	16592	162	-147	186	126	126	5
-5760	-5044	14864	157	-79	-114	-15608	432	-4660	-49	-136	-69	-2056	0	17080	40	-4	13	-7856	4160	13316	-68	148	-135	-15928	2596	-4452	47	-68	198	-2732	-1336	16588	209	-141	179	126	126	5
-5740	-5100	14752	112	-85	-167	-15584	480	-4600	-23	-130	3	-2144	136	16896	21	-3	7	-7856	4116	13288	-105	133	-165	-15964	2524	-4460	82	-121	234	-2564	-1300	16596	145	-113	228	126	126	5
-5776	-4984	14772	133	-40	-110	-15576	480	-4576	-24	-68	-28	-2264	16	17184	20	-1	3	-7876	4140	13324	-83	135	-169	-15900	2516	-4452	131	-79	223	-2560	-1264	16480	109	-125	113	126	126	5
-5656	-4972	14772	150	-118	-79	-15644	584	-4608	-53	-92	13	-2152	104	16856	18	0	2	-7908	4108	13312	-71	141	-107	-15940	2568	-4372	171	-86	214	-2492	-1280	16500	50	-116	154	126	126	5
-5716	-4968	14744	134	-56	-125	-15660	564	-4496	29	-14	1	-2352	272	16832	30	1	0	-7920	4120	13340	-95	131	-142	-15912	2592	-4304	175	-97	188	-2500	-1204	16660	15	-104	144	126	126	5
-5764	-5000	14740	144	-97	-96	-15612	564	-4752	71	-22	-21	-2216	264	17096	32	-3	-6	-7840	4104	13308	-128	146	-209	-15896	2620	-4392	125	-78	183	-2548	-1120	16672	0	-93	153	126	126	5
-5736	-4960	14700	142	-35	-110	-15556	648	-4704	42	6	-27	-2288	280	16912	31	-2	-8	-7824	4140	13228	-92	167	-195	-15944	2712	-4444	82	0	145	-2632	-1140	16656	-3	-72	179	126	126	5
-5696	-4972	14768	125	-11	-123	-15604	636	-4616	44	10	-44	-2328	176	17208	17	5	-5	-7792	4180	13236	-103	169	-162	-15912	2680	-4288	117	64	123	-2612	-1140	16652	-34	-99	168	126	126	5
-5748	-5052	14708	135	-57	-112	-15620	572	-4692	51	-5	-67	-2496	112	17080	16	4	-1	-7872	4120	13284	-141	111	-216	-15916	2632	-4440	92	11	72	-2692	-1156	16540	-72	-112	210	126	126	5
-5764	-4944	14784	89	-8	-115	-15612	664	-4740	25	-43	-105	-2544	40	17024	18	-3	-5	-7832	4148	13220	-105	156	-216	-15920	2632	-4412	65	-7	51	-2708	-1184	16564	-32	-124	246	126	126	5
-5732	-4972	14748	73	-11	-173	-15564	612	-4760	3	-40	-143	-2512	16	16952	18	-2	3	-7856	4084	13336	-120	123	-199	-15936	2604	-4412	59	68	30	-2732	-1292	16604	33	-118	229	126	126	5
-5784	-5004	14712	73	-52	-124	-15604	644	-4728	-33	-67	-102	-2352	192	16864	24	-1	10	-7864	4132	13192	-133	139	-181	-15956	2592	-4428	59	-3	45	-2760	-1332	16568	-5	-169	216	126	126	5
-5792	-4980	14692	50	-79	-133	-15596	556	-4688	-83	-56	-170	-2304	168	17032	26	-10	12	-7828	4096	13268	-114	168	-167	-15952	2580	-4328	19	1	53	-2748	-1432	16572	-31	-159	238	126	126	5
-5804	-5036	14756	57	-45	-152	-15568	516	-4664	-51	-49	-145	-2120	96	16960	18	-6	15	-7856	4120	13284	-142	151	-195	-15968	2488	-4396	20	25	90	-2656	-1536	16632	17	-166	228	126	126	5
-5744	-5008	14836	73	-57	-155	-15580	444	-4628	-3	-78	-89	-2344	-40	17008	13	-5	14	-7896	4124	13136	-128	160	-159	-15928	2404	-4320	68	-11	78	-2640	-1600	16584	28	-175	256	126	126	5
-5788	-4972	14784	71	-40	-134	-15676	480	-4696	-49	-99	-97	-2288	-168	16800	14	-4	11	-7836	4124	13236	-108	148	-151	-15936	2460	-4392	71	39	137	-2664	-1536	16672	124	-156	253	126	126	5
-5788	-5040	14656	102	-58	-129	-15596	484	-4692	-36	-65	-61	-2256	-32	16736	17	2	8	-7852	4088	13236	-96	154	-150	-15960	2376	-4496	62	-27	174	-2700	-1428	16456	165	-138	239	126	126	5
-5844	-5100	14660	121	-60	-104	-15636	412	-4680	-55	-55	-39	-2296	-96	17056	24	-4	6	-7844	4052	13252	-60	166	-150	-15944	2464	-4432	59	8	226	-2688	-1452	16524	94	-166	197	126	126	5
-5772	-5004	14872	119	-35	-100	-15564	404	-4768	-31	-48	-32	-2280	-152	16824	29	1	0	-7864	4132	13188	-71	183	-166	-15976	2516	-4432	100	-51	195	-2760	-1272	16552	61	-166	213	126	126	5
-5788	-4956	14780	155	-45	-97	-15680	480	-4760	-13	-38	60	-2320	-24	16888	29	-1	0	-7832	4104	13288	-56	159	-116	-15960	2640	-4508	133	-45	220	-2776	-1228	16632	73	-168	156	127	126	5
-5772	-4984	14776	139	-48	-148	-15600	508	-4700	-41	-47	35	-2296	64	16800	30	-2	3	-7892	4156	13316	-74	163	-165	-15892	2576	-4412	87	-16	212	-2720	-1252	16604	92	-159	172	126	126	5
-5856	-5036	14732	132	-25	-122	-15532	556	-4708	27	-104	17	-2256	72	16744	34	-2	0	-7844	4108	13240	-79	147	-183	-15888	2620	-4560	93	-61	188	-2652	-1208	16624	86	-147	214	126	126	5
-5728	-4984	14672	167	-13	-119	-15568	620	-4588	35	-90	71	-2416	232	16912	32	-2	-4	-7912	4152	13300	-53	158	-154	-15916	2600	-4404	116	-59	203	-2656	-1192	16536	66	-130	207	126	126	5
-5792	-5040	14804	121	-64	-125	-15592	692	-4612	-9	-80	-8	-2360	224	17080	26	-5	4	-7872	4128	13236	-171	114	-181	-15856	2596	-4344	107	-61	156	-2628	-1236	16552	3	-206	150	126	126	5
-5724	-4980	14788	111	-52	-125	-15624	632	-4500	-32	-68	-76	-2272	176	16920	23	-8	8	-7820	4128	13288	-129	133	-182	-15920	2604	-4308	107	-69	159	-2552	-1268	16656	-9	-130	161	126	126	5
-5756	-5040	14752	88	-1	-152	-15596	600	-4712	-12	-71	-124	-2248	112	16792	25	-10	5	-7844	4148	13240	-142	181	-161	-15912	2588	-4380	101	-76	166	-2576	-1216	16592	18	-119	157	126	126	5
-5760	-4976	14748	83	-37	-143	-15588	564	-4604	-2	-23	-92	-2096	208	16768	37	-11	5	-7872	4164	13372	-153	150	-202	-15960	2600	-4320	104	-22	115	-2532	-1236	16752	109	-100	187	126	126	5
-5804	-5036	14832	73	-61	-109	-15572	600	-4716	-1	-38	-77	-2144	136	16952	37	-5	2	-7872	4100	13148	-116	158	-187	-15976	2660	-4448	93	41	81	-2636	-1196	16640	54	-82	195	126	126	5
-5764	-5040	14764	96	-52	-110	-15592	428	-4648	-10	-11	-104	-2152	-56	17016	28	5	2	-7856	4136	13300	-139	151	-179	-16036	2624	-4368	8	28	65	-2648	-1228	16644	6	-81	239	126	126	5
-5716	-4992	14796	91	-39	-115	-15612	412	-4532	4	-32	-66	-2256	-80	16880	15	-2	7	-7868	4136	13308	-139	160	-206	-16008	2568	-4248	21	68	53	-2712	-1260	16440	-21	-167	205	126	126	5
-5788	-4984	14796	80	-27	-100	-15636	392	-4600	-4	-4	-41	-2280	-240	17048	13	-2	10	-7808	4068	13260	-162	163	-220	-15948	2412	-4328	40	78	83	-2584	-1452	16372	-174	-201	215	126	126	5
-5732	-5048	14824	119	-15	-139	-15552	392	-4768	5	-14	-21	-2376	-96	16904	27	-3	3	-7896	4104	13328	-110	136	-190	-15820	2500	-4492	65	46	81	-2560	-1576	16616	-226	-192	306	126	126	5
-5740	-5080	14720	125	-29	-123	-15592	504	-4760	8	-27	17	-2376	8	16992	30	6	-5	-7836	4092	13192	-70	135	-174	-15948	2388	-4456	44	41	115	-2628	-1544	16572	-71	-48	250	126	126	5
-5804	-5064	14788	153	-43	-114	-15680	476	-4656	19	-62	73	-2464	72	16824	11	15	-3	-7884	4088	13216	-93	182	-171	-15964	2360	-4452	140	-12	135	-2672	-1632	16580	107	-27	241	126	126	5
-5768	-4980	14776	153	2	-117	-15684	616	-4624	7	-17	56	-2416	48	16936	9	11	0	-7812	3988	13300	-37	185	-172	-15972	2516	-4420	144	-42	189	-2828	-1452	16560	167	-48	153	126	126	5
-5796	-5008	14824	164	-42	-147	-15608	596	-4680	-11	-15	31	-2424	256	17048	25	-8	3	-7840	4092	13204	-46	186	-181	-15988	2512	-4496	70	-50	204	-2804	-1296	16460	57	-87	180	126	126	5
-5748	-5036	14720	143	-99	-110	-15588	628	-4752	36	-56	34	-2416	256	16992	43	-5	-7	-7940	4072	13288	-35	167	-134	-15896	2552	-4560	131	-96	226	-2628	-1180	16540	51	-122	182	126	126	5
-5780	-5032	14788	111	-33	-123	-15520	752	-4724	50	-47	-32	-2552	416	17064	44	-5	-5	-7880	4136	13308	5	166	-121	-15888	2664	-4432	172	-75	191	-2632	-1184	16692	94	-122	182	126	126	5
-5772	-4996	14792	108	-39	-132	-15628	712	-4608	9	-56	-71	-2416	304	16784	30	-7	0	-7856	4168	13292	-44	190	-169	-16000	2764	-4528	109	-56	140	-2752	-1120	16624	150	-115	147	126	126	5
-5748	-5032	14748	94	-25	-131	-15564	608	-4752	-22	-55	-117	-2496	160	16616	12	-2	7	-7868	4164	13268	-43	183	-189	-15924	2628	-4412	59	-33	103	-2736	-1100	16660	152	-148	201	126	126	5
-5836	-5016	14808	57	-11	-139	-15592	644	-4732	5	-88	-167	-2568	168	17008	18	-10	12	-7856	4136	13236	-70	163	-154	-15896	2572	-4404	45	-21	58	-2652	-1132	16584	40	-198	211	126	126	5
-5768	-5004	14744	56	-36	-125	-15588	652	-4688	-47	-78	-144	-2304	80	16992	28	-13	14	-7876	4060	13212	-124	139	-156	-15972	2532	-4436	57	-23	76	-2584	-1220	16608	-52	-174	263	126	126	5
-5768	-4988	14844	86	2	-157	-15556	524	-4592	-83	-99	-208	-2256	32	16920	44	-11	16	-7848	4104	13244	-99	124	-184	-15956	2532	-4360	41	-21	35	-2596	-1368	16624	-64	-161	237	126	126	5
-5784	-5020	14868	64	-11	-149	-15540	488	-4628	-83	-49	-182	-2080	80	17008	39	-5	10	-7836	4120	13252	-98	154	-157	-15924	2536	-4440	54	20	40	-2592	-1376	16656	14	-132	228	126	126	5
-5764	-5028	14792	77	-66	-139	-15584	388	-4676	-28	-47	-186	-2144	-32	17016	22	-5	11	-7908	4148	13192	-103	140	-202	-15956	2560	-4348	32	-38	87	-2580	-1496	16608	45	-147	243	126	126	5
-5756	-5044	14828	68	13	-102	-15536	376	-4640	39	-75	-94	-2152	-104	17224	6	1	10	-7880	4128	13216	-119	138	-200	-15932	2476	-4520	36	33	129	-2548	-1488	16532	43	-130	238	126	126	5
-5708	-5020	14792	118	10	-134	-15620	468	-4640	-16	-23	-66	-2240	-48	16960	7	3	2	-7888	4100	13188	-131	140	-209	-15960	2496	-4396	86	-17	107	-2612	-1444	16652	94	-84	232	126	126	5
-5836	-5072	14780	110	-43	-106	-15748	460	-4652	-46	-59	-25	-2264	-320	17032	24	5	2	-7860	4100	13236	-92	164	-159	-15908	2440	-4380	105	6	156	-2640	-1412	16572	91	-38	227	126	126	5
-5772	-5084	14800	151	-75	-156	-15624	460	-4740	13	-58	-13	-2408	-128	16856	38	-4	-8	-7884	4144	13280	-111	152	-145	-15992	2568	-4464	107	-16	190	-2792	-1284	16420	74	-48	254	126	126	5
-5740	-5088	14808	128	-43	-95	-15612	460	-4716	32	-63	39	-2568	-120	16936	35	8	-9	-7848	4104	13268	-87	174	-166	-15928	2616	-4524	81	-53	190	-2708	-1352	16544	83	-104	186	126	126	5
-5808	-5048	14636	153	-12	-142	-15600	540	-4676	29	-62	35	-2280	0	16856	26	2	2	-7876	4124	13232	-100	167	-188	-15936	2556	-4452	96	-75	185	-2736	-1244	16600	67	-118	175	126	126	5
-5836	-5020	14756	163	-84	-86	-15592	560	-4684	3	-69	70	-2432	176	16776	22	-1	-1	-7772	4092	13256	-48	151	-132	-16000	2556	-4428	135	-58	169	-2772	-1208	16512	-69	-143	169	126	126	5
-5800	-5056	14804	130	-28	-119	-15608	632	-4612	2	-52	4	-2272	248	16776	29	-1	-1	-7808	4156	13236	-87	135	-164	-15944	2604	-4364	142	-101	128	-2656	-1328	16564	-47	-207	171	126	126	5
-5816	-5012	14800	131	-61	-140	-15540	676	-4668	47	-123	9	-2400	328	16840	36	-2	-2	-7872	4152	13232	-83	176	-175	-15952	2656	-4376	97	-90	181	-2612	-1324	16564	19	-200	176	126	126	5
-5820	-5020	14756	111	-90	-106	-15520	744	-4644	-51	-91	-82	-2304	264	16936	31	0	2	-7832	4192	13312	-80	145	-165	-15932	2568	-4364	95	-43	170	-2592	-1300	16612	53	-149	220	126	126	5
-5796	-5004	14808	68	-42	-130	-15552	664	-4636	-99	-96	-111	-2352	184	16944	18	-4	9	-7900	4124	13236	-71	132	-190	-15952	2584	-4332	103	-47	168	-2612	-1184	16664	150	-116	208	126	126	5
-5760	-4980	14764	68	-28	-165	-15640	552	-4628	-64	-83	-147	-2256	248	16776	19	-3	10	-7836	4068	13200	-110	170	-161	-15964	2640	-4404	93	-28	145	-2536	-1164	16540	119	-157	179	126	126	5
-5712	-5016	14720	73	-16	-146	-15652	616	-4572	-14	-37	-162	-2392	104	16936	24	-9	8	-7920	4112	13056	-81	157	-181	-15920	2672	-4328	54	-5	126	-2688	-1088	16568	-17	-143	181	126	126	5
-5724	-5052	14768	59	-61	-136	-15548	500	-4672	-52	-41	-130	-2128	16	17056	20	-9	10	-7832	4128	13272	-101	148	-178	-15932	2684	-4396	55	20	89	-2640	-1188	16640	-101	-177	257	126	126	5
-5732	-4996	14808	64	-112	-118	-15628	464	-4676	-8	-43	-122	-2264	-24	16960	14	3	5	-7800	4124	13260	-105	150	-178	-15924	2604	-4424	73	32	62	-2672	-1312	16592	-53	-114	284	126	126	5
-5780	-5044	14816	114	-45	-118	-15616	468	-4676	-22	-42	-124	-2208	32	16936	15	-2	4	-7868	4092	13260	-127	162	-201	-15896	2496	-4508	67	-34	62	-2552	-1332	16568	50	-96	237	126	126	5
-5768	-5068	14792	98	-5	-115	-15620	424	-4620	4	-71	-39	-2328	-120	16960	12	0	1	-7908	4108	13416	-133	134	-224	-15952	2552	-4372	46	-22	85	-2640	-1392	16484	9	-120	223	126	126	5
-5804	-5024	14676	98	-3	-144	-15596	488	-4728	12	-25	-76	-2288	-136	17064	22	0	-2	-7864	4156	13224	-128	159	-199	-16012	2508	-4472	94	0	52	-2636	-1392	16476	-91	-120	196	126	126	5
-5736	-5028	14696	122	-72	-127	-15576	512	-4600	20	-70	-52	-2200	24	16880	26	-1	0	-7852	4124	13220	-66	158	-195	-15916	2548	-4412	68	24	112	-2636	-1420	16676	-114	-116	183	126	126	5
-5744	-5052	14780	110	-44	-109	-15656	528	-4560	-36	-43	-46	-2296	0	17200	22	0	1	-7844	4096	13216	-118	145	-168	-15904	2532	-4412	82	-6	104	-2672	-1432	16508	-77	-118	236	126	126	5
-5780	-4992	14756	104	-32	-107	-15588	564	-4600	-17	-31	-37	-2296	-24	17024	25	2	3	-7832	4088	13204	-109	191	-171	-15896	2576	-4416	60	25	131	-2644	-1384	16748	38	-115	205	126	126	5
-5752	-4996	14820	115	-74	-131	-15596	492	-4696	6	-35	-70	-2336	-8	16824	25	-2	2	-7868	4132	13228	-104	172	-188	-15924	2552	-4436	99	4	173	-2676	-1356	16540	66	-135	217	126	126	5
-5780	-5044	14780	100	-50	-129	-15588	520	-4772	23	-22	-65	-2328	-8	17136	30	-1	1	-7860	4088	13228	-104	164	-164	-15928	2540	-4380	81	-2	145	-2720	-1264	16472	-3	-150	167	126	126	5
-5740	-4960	14720	120	3	-141	-15592	560	-4772	-19	-42	-23	-2232	32	16840	30	1	0	-7868	4108	13280	-69	151	-156	-15888	2564	-4536	84	-5	154	-2668	-1332	16672	-80	-120	207	126	127	5
-5740	-5012	14908	128	-46	-100	-15644	516	-4660	-49	-35	-24	-2280	-152	17136	22	4	3	-7852	4172	13176	-87	195	-163	-15860	2576	-4424	67	2	151	-2716	-1292	16572	-53	-140	215	126	126	5
-5728	-5052	14760	139	-8	-137	-15576	600	-4724	21	-21	-32	-2352	128	17192	22	-5	0	-7836	4136	13260	-113	157	-189	-15964	2572	-4428	99	-37	159	-2704	-1420	16528	40	-123	223	126	126	5
-5820	-5024	14856	133	-54	-163	-15556	528	-4688	20	-23	-3	-2336	40	16992	18	-2	0	-7860	4112	13340	-93	120	-196	-15968	2572	-4420	113	-25	171	-2716	-1392	16640	33	-136	203	126	126	5
-5800	-4956	14808	111	-55	-138	-15592	468	-4624	21	-78	-49	-2320	80	17000	21	-5	1	-7836	4100	13304	-98	156	-150	-15984	2524	-4532	75	-72	136	-2628	-1288	16556	19	-127	175	126	126	5
-5756	-5076	14836	96	-11	-115	-15644	556	-4680	5	-43	11	-2320	-56	16936	23	0	-1	-7916	4112	13160	-94	160	-152	-15944	2500	-4304	122	-19	150	-2716	-1216	16632	-13	-98	154	126	126	5
-5776	-5008	14764	116	-38	-116	-15604	552	-4716	59	-107	-21	-2504	48	16936	28	-1	1	-7872	4108	13232	-116	155	-153	-15984	2632	-4448	93	-22	145	-2684	-1304	16584	-105	-124	180	126	126	5
-5740	-5000	14804	100	-47	-113	-15592	572	-4688	8	-40	-27	-2552	200	16792	25	1	-2	-7844	4084	13192	-91	175	-188	-15860	2564	-4428	60	-18	144	-2636	-1252	16636	-91	-105	191	126	126	5
-5816	-5052	14848	88	-41	-140	-15636	556	-4700	-20	-59	-66	-2328	160	16968	16	-8	4	-7888	4132	13196	-83	166	-144	-15860	2548	-4384	111	-27	151	-2696	-1312	16648	-22	-113	202	126	126	5
-5756	-5028	14768	112	-41	-153	-15612	632	-4772	-47	-86	-66	-2408	-56	16992	13	-5	11	-7864	4152	13364	-128	184	-163	-15972	2584	-4380	91	-26	120	-2856	-1316	16540	-20	-122	220	126	126	5
-5788	-4952	14920	129	-8	-127	-15580	600	-4624	-5	-101	-109	-2392	-24	16976	18	-2	8	-7868	4096	13356	-117	184	-149	-16004	2616	-4452	7	-34	104	-2760	-1380	16612	37	-153	283	126	126	5
-5752	-5004	14848	105	-70	-110	-15528	616	-4724	-22	-116	-89	-2400	72	16936	13	-6	10	-7900	4124	13352	-89	125	-215	-15948	2508	-4400	47	-24	120	-2692	-1324	16536	87	-157	257	126	126	5
-5756	-5012	14792	112	-42	-156	-15548	544	-4696	-44	-91	-74	-2440	-48	16840	15	-9	5	-7900	4136	13260	-81	127	-174	-15984	2472	-4404	102	-83	89	-2744	-1340	16452	72	-168	239	126	126	5
-5784	-5088	14776	102	-69	-173	-15628	524	-4712	-19	-136	-81	-2480	152	16744	26	-11	8	-7864	4116	13308	-87	164	-178	-15892	2552	-4540	71	-31	120	-2752	-1380	16608	51	-185	180	126	126	5
-5752	-5020	14684	122	-58	-128	-15584	576	-4560	-60	-120	-127	-2360	48	17128	21	-9	4	-7828	4104	13288	-82	147	-184	-15880	2544	-4540	114	-83	177	-2660	-1408	16524	37	-217	93	126	126	5
-5832	-4940	14808	107	-129	-135	-15636	524	-4608	-44	-120	-104	-2200	160	16856	15	-10	2	-7908	4132	13252	-72	137	-159	-15908	2508	-4500	170	-119	165	-2608	-1376	16608	64	-187	77	126	126	5
-5764	-5032	14888	103	-72	-127	-15656	500	-4460	-1	-99	-93	-2224	112	17032	14	-7	-1	-7800	4164	13220	-72	131	-152	-15952	2544	-4436	170	-120	160	-2480	-1256	16684	57	-171	105	126	127	5
-5800	-5092	14832	74	-27	-162	-15616	588	-4680	47	-78	-110	-2152	-56	17024	9	-5	2	-7804	4104	13296	-63	172	-140	-15960	2536	-4340	148	-76	184	-2436	-1284	16560	-18	-120	105	126	126	5
-5684	-5028	14756	92	-3	-167	-15584	596	-4636	16	19	-106	-2232	136	16968	13	-4	1	-7924	4148	13352	-18	210	-177	-16028	2536	-4324	153	-66	168	-2412	-1324	16612	11	-96	149	126	126	5
-5740	-5016	14744	66	-48	-116	-15612	504	-4612	36	15	-105	-2120	-72	17008	19	6	2	-7920	4040	13304	-48	201	-177	-15844	2656	-4232	89	-4	97	-2320	-1244	16628	-12	-31	228	126	126	5
-5748	-4948	14772	98	-15	-108	-15556	536	-4616	36	27	-119	-2280	16	16784	28	-1	2	-7864	4120	13288	-57	189	-176	-15904	2680	-4260	50	95	134	-2536	-1224	16636	-16	2	217	126	126	5
-5740	-4948	14672	100	10	-97	-15588	480	-4612	-8	12	-58	-2264	-208	16784	32	7	5	-7900	4180	13268	-77	154	-196	-15976	2644	-4400	-14	131	112	-2628	-1256	16564	-22	-34	312	126	126	5
-5768	-5032	14568	89	-42	-85	-15568	440	-4668	-7	31	-38	-2272	-120	17128	32	11	5	-7872	4116	13268	-113	150	-180	-15964	2588	-4464	-5	156	40	-2636	-1300	16580	-118	-32	333	126	126	5
-5764	-4980	14788	111	-53	-123	-15580	432	-4796	-20	-6	-41	-2360	-232	16968	40	8	3	-7852	4140	13204	-116	208	-193	-15900	2572	-4444	-1	134	57	-2732	-1364	16556	-50	-65	354	126	126	5
-5740	-5044	14764	98	-36	-107	-15628	432	-4696	-31	18	-3	-2376	-168	17016	40	7	1	-7860	4116	13292	-112	168	-209	-15936	2572	-4500	10	144	93	-2764	-1452	16532	16	-77	352	126	126	5
-5800	-5012	14888	138	-1	-150	-15576	540	-4768	-2	-58	41	-2456	-56	17208	45	-2	3	-7876	4028	13264	-120	162	-220	-15976	2508	-4584	-29	49	74	-2860	-1444	16472	61	-122	310	126	126	5
-5788	-5016	14776	119	-65	-111	-15604	564	-4720	-9	-10	24	-2424	88	16672	42	-8	-2	-7896	4064	13220	-131	159	-184	-15932	2452	-4580	38	53	119	-2892	-1424	16392	1	-146	248	126	126	5
-5764	-5084	14772	153	-57	-130	-15564	564	-4792	-4	-28	15	-2536	264	17000	33	-3	0	-7872	4004	13232	-105	134	-175	-15876	2544	-4704	80	-30	134	-2928	-1336	16484	35	-159	223	126	126	5
-5784	-4944	14816	126	-63	-112	-15580	592	-4692	-4	-96	-15	-2592	176	16728	25	-4	-2	-7896	4108	13328	-103	129	-142	-15852	2496	-4640	119	-103	170	-2908	-1396	16604	26	-187	170	126	126	5
-5776	-5012	14752	160	-44	-121	-15532	724	-4716	1	-103	-59	-2400	264	17024	19	-8	3	-7832	4072	13232	-84	129	-153	-15928	2564	-4612	166	-168	160	-2760	-1400	16588	63	-160	116	126	126	5
-5736	-4988	14808	152	-18	-133	-15604	684	-4736	3	-115	-95	-2384	296	16840	16	-10	2	-7900	4136	13332	-86	153	-175	-15884	2584	-4428	150	-133	175	-2788	-1376	16568	99	-211	95	126	126	5
-5788	-5004	14840	80	-61	-148	-15572	684	-4676	4	-122	-77	-2344	168	17032	16	-7	1	-7912	4128	13376	-94	116	-158	-15964	2568	-4372	145	-167	146	-2692	-1264	16516	110	-177	97	126	126	5
-5756	-5068	14736	58	-42	-157	-15640	672	-4680	-27	-114	-162	-2272	32	16896	13	-9	3	-7864	4064	13260	-85	130	-177	-15912	2572	-4372	163	-150	162	-2564	-1252	16512	124	-194	68	126	126	5
-5744	-4948	14848	83	-11	-143	-15584	552	-4604	-54	-108	-147	-2224	112	17088	6	-10	9	-7868	4132	13352	-93	98	-157	-15968	2592	-4328	114	-112	138	-2484	-1260	16680	72	-200	139	126	126	5
-5776	-5020	14656	56	-57	-94	-15596	496	-4536	-17	-82	-200	-2288	-64	16848	6	-9	10	-7804	4172	13220	-108	139	-189	-15900	2616	-4232	102	-78	135	-2520	-1324	16588	71	-163	144	126	126	5
-5744	-5004	14728	68	-7	-138	-15548	540	-4644	-26	-68	-179	-2240	-72	16912	7	-2	10	-7808	4096	13244	-91	149	-180	-15896	2608	-4300	79	-46	137	-2428	-1268	16600	18	-125	159	126	126	5
-5820	-4996	14812	78	-55	-148	-15648	424	-4532	-20	-55	-147	-2040	-128	16920	11	-1	5	-7876	4104	13188	-88	178	-189	-15968	2588	-4272	75	6	61	-2472	-1248	16564	-3	-128	215	126	126	5
-5796	-5028	14792	81	-59	-142	-15656	408	-4564	-27	-28	-124	-2168	-160	17080	17	1	5	-7868	4092	13388	-85	169	-185	-16004	2592	-4348	46	70	95	-2588	-1340	16716	-34	-107	233	126	126	5
-5716	-5048	14816	78	11	-134	-15692	364	-4592	-40	-17	-85	-2128	-272	17096	27	3	5	-7892	4160	13192	-122	146	-202	-16004	2536	-4364	4	47	108	-2568	-1420	16584	-16	-60	273	126	126	5
-5756	-4968	14724	93	-42	-97	-15620	404	-4668	-20	9	-54	-2160	-168	16920	30	7	3	-7824	4076	13364	-128	170	-189	-15872	2548	-4416	50	84	96	-2672	-1356	16572	-17	-89	273	126	126	5
-5772	-5048	14744	120	-63	-118	-15596	444	-4584	38	-10	20	-2280	-200	17016	35	10	-6	-7868	4068	13260	-118	176	-210	-15912	2544	-4508	45	42	73	-2680	-1404	16608	9	-65	300	126	126	5
-5716	-5016	14744	115	-44	-135	-15596	448	-4676	36	-12	30	-2384	-24	17016	32	8	-6	-7876	4088	13236	-81	165	-197	-15948	2536	-4384	33	64	125	-2812	-1464	16580	-36	-97	263	126	126	5
-5804	-5036	14704	116	-71	-120	-15572	504	-4684	18	-27	57	-2464	-96	17112	33	4	-6	-7864	4136	13248	-105	142	-194	-15924	2488	-4544	59	53	128	-2868	-1352	16488	-2	-112	238	126	126	5
-5776	-5008	14840	130	-60	-93	-15532	592	-4704	22	-22	55	-2464	56	16936	33	3	-4	-7928	4108	13284	-124	151	-179	-15904	2464	-4404	51	17	155	-2904	-1416	16564	-15	-104	211	126	126	5
-5828	-5020	14852	126	-88	-89	-15572	644	-4796	-9	-57	66	-2456	152	17152	33	1	-1	-7900	4048	13304	-84	153	-163	-15872	2492	-4496	91	-38	122	-2848	-1360	16556	19	-172	202	126	126	5
-5776	-4996	14840	120	-27	-107	-15596	676	-4772	-14	-75	-31	-2568	208	16840	28	-7	3	-7820	4112	13252	-85	136	-149	-15916	2532	-4448	102	-67	173	-2808	-1352	16496	24	-149	170	126	126	5
-5772	-5052	14760	133	-92	-126	-15620	684	-4760	-23	-105	-32	-2368	208	16856	22	-4	5	-7880	4128	13332	-58	150	-177	-15872	2516	-4532	102	-103	179	-2772	-1336	16488	61	-173	167	126	126	5
-5740	-4972	14852	91	-47	-135	-15596	704	-4700	-4	-98	-109	-2336	104	16848	17	-6	2	-7856	4160	13176	-56	140	-173	-15928	2516	-4452	121	-118	180	-2720	-1348	16636	78	-191	156	126	126	5
-5780	-5020	14728	107	-95	-122	-15616	604	-4680	-43	-88	-125	-2368	232	16792	16	-11	8	-7852	4116	13192	-94	145	-124	-15924	2664	-4452	100	-107	157	-2644	-1284	16584	188	-183	173	126	126	5
-5792	-4996	14832	91	-46	-142	-15596	528	-4484	-83	-97	-131	-2248	40	16784	14	-7	11	-7920	4076	13144	-89	130	-167	-15932	2560	-4364	73	-61	177	-2632	-1228	16692	106	-135	197	126	126	5
-5764	-5028	14732	57	-68	-129	-15656	496	-4736	-76	-115	-127	-2232	-96	16936	19	-8	13	-7880	4128	13384	-105	168	-176	-15960	2592	-4360	98	-89	127	-2568	-1256	16600	91	-176	168	126	126	5
-5744	-4988	14720	92	-51	-126	-15620	464	-4732	-41	-82	-129	-2112	-56	17136	18	-9	12	-7856	4112	13276	-93	142	-197	-15884	2600	-4336	83	-40	110	-2512	-1180	16592	42	-139	217	126	126	5
-5760	-5044	14752	99	-74	-149	-15584	468	-4516	-15	-78	-119	-2400	-96	16816	17	-5	8	-7808	4104	13276	-130	125	-221	-15952	2588	-4388	49	-47	124	-2568	-1284	16648	28	-144	212	126	126	5
-5704	-5060	14816	118	-67	-146	-15568	416	-4620	-44	-59	-96	-2200	-112	17008	25	-1	0	-7832	4088	13152	-127	139	-178	-15912	2592	-4304	65	35	78	-2520	-1356	16660	-2	-115	247	126	126	5
-5740	-5012	14768	120	-63	-120	-15600	452	-4564	-27	-57	-52	-2168	-216	16888	27	0	0	-7928	4108	13228	-125	158	-164	-15940	2460	-4384	71	96	119	-2560	-1384	16592	66	-143	234	126	126	5
-5780	-5040	14740	120	20	-144	-15636	420	-4628	3	1	-28	-2272	-112	17096	33	-2	-2	-7812	4108	13252	-102	158	-194	-15952	2500	-4412	74	20	139	-2548	-1352	16616	21	-103	254	126	126	5
-5736	-4984	14768	120	-39	-109	-15632	488	-4572	20	-26	-18	-2424	16	16744	30	5	-3	-7852	4092	13300	-141	177	-195	-16012	2508	-4464	58	73	120	-2580	-1372	16604	4	-77	240	126	126	5
-5680	-5048	14744	121	-34	-93	-15612	452	-4560	27	19	-13	-2456	-136	17000	28	4	-3	-7844	4116	13224	-83	184	-187	-15932	2520	-4452	73	74	123	-2648	-1336	16620	-1	-100	235	126	126	5
-5776	-4984	14772	129	-36	-123	-15592	524	-4612	44	25	4	-2208	-24	16968	34	4	-2	-7856	4096	13232	-126	164	-181	-15916	2508	-4536	55	79	140	-2740	-1336	16564	-36	-86	211	126	126	5
-5792	-5020	14788	123	-19	-136	-15620	576	-4616	27	17	-11	-2360	24	17080	36	5	-3	-7840	4124	13288	-117	189	-184	-15992	2580	-4452	28	78	133	-2696	-1384	16580	-86	-59	260	126	126	5
-5772	-5028	14736	94	-6	-108	-15668	564	-4876	-29	-25	-13	-2440	96	17128	33	3	0	-7848	4072	13224	-130	149	-171	-15948	2600	-4432	96	11	160	-2756	-1336	16572	-37	-66	240	126	126	5
-5776	-5072	14724	151	-38	-120	-15572	552	-4760	-22	-36	7	-2416	192	16816	36	5	1	-7872	4076	13248	-88	154	-157	-15928	2552	-4480	94	22	123	-2768	-1372	16724	-31	-97	232	126	126	5
-5712	-5004	14792	102	-34	-123	-15572	620	-4704	-12	-40	-33	-2384	88	16864	33	2	-1	-7900	4112	13200	-92	183	-150	-15928	2552	-4556	76	32	149	-2740	-1440	16556	32	-126	207	126	126	5
-5776	-4992	14732	154	4	-123	-15612	604	-4724	12	-61	-28	-2504	0	16840	27	0	2	-7864	4080	13280	-102	116	-202	-15928	2476	-4508	130	-41	118	-2780	-1368	16568	55	-156	190	126	126	5
-5796	-5036	14940	118	-20	-122	-15556	576	-4812	5	-72	-51	-2360	128	16912	22	-3	7	-7832	4108	13324	-105	143	-154	-15908	2532	-4316	137	-23	129	-2788	-1204	16536	6	-138	187	126	126	5
-5732	-5028	14784	125	-66	-106	-15520	608	-4716	-48	-53	-47	-2688	-48	16776	24	1	1	-7848	4152	13208	-91	148	-181	-15844	2620	-4528	117	-81	159	-2608	-1488	16652	169	-177	221	126	126	5
-5688	-4984	14720	111	-91	-137	-15676	608	-4652	0	-78	-122	-2440	56	16952	40	-12	12	-7852	4152	13164	-79	127	-183	-15976	2580	-4400	58	-60	103	-2708	-1088	16572	242	-73	177	126	125	5
-5796	-4972	14744	109	7	-106	-15540	464	-4712	-70	-83	-89	-2360	128	16800	58	-16	1	-7884	4116	13236	-96	150	-182	-15944	2596	-4376	23	-57	144	-2656	-1352	16568	42	-115	211	126	126	5
-5752	-5032	14820	87	-20	-150	-15520	472	-4608	17	-69	-79	-2120	192	16784	34	-5	-4	-7908	4104	13212	-113	184	-168	-15812	2500	-4240	28	-36	142	-2504	-1364	16496	-108	-248	246	126	126	5
-5752	-5036	14808	95	-64	-125	-15596	508	-4740	-1	-102	-76	-2208	-128	17072	14	8	9	-7848	4072	13196	-80	138	-195	-15908	2464	-4464	96	-31	139	-2544	-1348	16612	-155	-142	220	126	126	5
-5724	-5060	14748	61	-2	-125	-15724	508	-4680	-25	-52	-16	-2344	64	17024	0	0	9	-7880	4108	13268	-49	180	-135	-16032	2552	-4536	152	-47	164	-2660	-1468	16712	-46	-78	244	126	126	5
-5800	-5008	14764	97	-82	-126	-15544	464	-4728	5	-69	-70	-2336	-8	17144	16	-1	2	-7856	4152	13252	-68	214	-135	-15996	2544	-4536	152	-28	184	-2668	-1376	16596	150	-121	199	126	126	5
-5736	-4952	14780	104	-36	-101	-15584	556	-4616	88	-46	-40	-2376	-160	16936	44	-6	-6	-7884	4112	13364	-64	183	-210	-15920	2532	-4448	24	-13	178	-2680	-1312	16556	131	-174	170	126	126	5
-5792	-4988	14728	116	-73	-118	-15604	616	-4704	3	-79	-24	-2304	56	17000	44	-3	-5	-7872	4108	13188	-69	174	-175	-15896	2548	-4436	83	-54	167	-2716	-1196	16556	74	-93	185	126	126	5
-5760	-4984	14876	98	-60	-79	-15596	552	-4808	-49	-94	-73	-2232	80	16952	34	0	2	-7912	4148	13292	-96	185	-175	-15912	2596	-4520	91	-37	123	-2756	-1196	16612	-21	-113	221	126	126	5
-5832	-5012	14740	129	-10	-135	-15564	520	-4796	35	-80	-25	-2344	72	16976	16	2	6	-7864	4164	13220	-102	123	-190	-15920	2644	-4452	65	-42	92	-2736	-1276	16588	-9	-179	200	126	126	5
-5700	-5052	14760	111	-85	-107	-15652	576	-4700	23	-85	-66	-2264	48	17056	14	1	4	-7872	4132	13288	-118	142	-190	-15916	2596	-4548	27	-59	107	-2732	-1428	16520	-9	-223	218	126	126	5
-5764	-5012	14768	102	-40	-121	-15640	608	-4724	-5	-73	-62	-2352	8	16976	24	0	4	-7836	4112	13224	-120	178	-184	-15936	2460	-4404	92	-48	126	-2644	-1424	16696	15	-232	165	126	126	5
-5816	-5012	14720	106	-53	-107	-15560	568	-4660	-84	-117	-48	-2352	96	17152	28	-3	4	-7804	4096	13228	-104	185	-168	-15892	2452	-4464	69	-28	139	-2596	-1404	16580	11	-142	230	126	126	5
-5796	-5044	14780	121	-71	-137	-15572	540	-4504	-50	-118	-44	-2296	24	16976	28	-3	4	-7788	4104	13144	-95	143	-154	-15916	2520	-4416	57	-40	162	-2592	-1360	16608	76	-132	178	126	126	5
-5728	-4964	14712	65	-29	-117	-15664	532	-4648	-53	-77	-64	-2512	-32	16768	29	-4	9	-7872	4080	13256	-81	148	-209	-16000	2612	-4448	109	-40	183	-2716	-1396	16476	141	-118	187	126	126	5
-5748	-5008	14732	144	-66	-108	-15692	556	-4556	-39	-30	-51	-2352	-96	16840	34	-6	9	-7900	4100	13232	-142	132	-176	-15952	2548	-4380	49	-33	156	-2780	-1312	16572	136	-170	182	126	126	5
-5780	-5044	14808	115	-47	-90	-15592	492	-4712	-37	-72	-75	-2336	-48	17016	38	-9	8	-7892	4144	13148	-95	152	-177	-15948	2556	-4448	54	-8	158	-2688	-1248	16620	100	-177	226	126	126	5
-5712	-5032	14716	124	-43	-126	-15508	476	-4596	-25	-62	-48	-2368	64	17152	42	-4	3	-7864	4132	13276	-102	123	-188	-15892	2580	-4424	66	-46	123	-2528	-1260	16596	56	-149	232	126	126	5
-5744	-5020	14660	122	-9	-74	-15568	444	-4724	18	-85	-22	-2280	-8	17024	42	-2	5	-7884	4184	13220	-113	127	-178	-15792	2644	-4368	103	-26	133	-2576	-1396	16572	135	-100	269	126	126	5
-5796	-5044	14744	199	-71	-112	-15512	488	-4660	-6	-66	5	-2368	168	17048	20	-1	-3	-7856	4092	13232	-112	164	-145	-15900	2568	-4392	54	0	113	-2632	-1360	16624	251	-58	301	126	126	5
-5840	-5032	14632	140	-30	-154	-15624	620	-4696	-56	-52	-17	-2280	328	17008	5	6	0	-7840	4088	13268	-117	140	-180	-15984	2500	-4412	65	-15	114	-2692	-1336	16568	211	-113	261	127	126	5
-5740	-4988	14740	123	-23	-89	-15668	648	-4608	-31	-46	-43	-2208	168	16768	9	2	5	-7852	4044	13228	-72	173	-192	-15992	2420	-4384	68	27	133	-2676	-1436	16592	109	-144	254	126	126	5
-5772	-5012	14796	98	-43	-142	-15604	580	-4636	-38	-7	-104	-2224	56	16792	17	3	4	-7800	4068	13300	-90	157	-157	-15952	2456	-4420	89	-42	146	-2648	-1340	16612	80	-114	289	126	126	5
-5788	-5024	14796	75	-44	-113	-15576	568	-4664	15	-33	-34	-2216	88	17176	32	-5	1	-7824	4072	13320	-39	159	-162	-15940	2460	-4448	159	-25	210	-2604	-1296	16528	103	-92	218	126	126	5
-5768	-4992	14748	84	-16	-145	-15604	520	-4668	27	-7	-62	-2152	128	16824	33	-1	4	-7916	4108	13232	-48	166	-168	-15924	2580	-4408	73	18	153	-2672	-1200	16552	175	-92	194	126	126	5
-5700	-4988	14764	142	-73	-122	-15704	520	-4740	-5	-4	-54	-2408	64	17184	23	1	-2	-7880	4140	13136	-83	172	-183	-15912	2620	-4436	124	-14	145	-2684	-1108	16516	107	-95	190	126	126	5
-5788	-4984	14808	113	-9	-109	-15600	532	-4708	14	-18	-52	-2240	0	16896	23	-2	0	-7876	4132	13252	-70	141	-177	-15992	2624	-4504	83	-50	134	-2712	-1088	16632	28	-119	186	127	126	5
-5812	-4968	14836	125	-35	-136	-15568	444	-4656	11	0	-21	-2296	-32	16848	23	0	-7	-7836	4092	13296	-109	134	-167	-15984	2576	-4408	127	-21	118	-2660	-1172	16528	-53	-189	113	126	126	5
-5796	-5068	14840	127	-37	-117	-15572	544	-4608	26	-15	-22	-2280	40	17080	25	5	-6	-7824	4084	13128	-65	147	-180	-15972	2616	-4408	123	-13	109	-2668	-1352	16556	-105	-144	163	126	126	5
-5728	-5032	14740	117	-27	-111	-15588	592	-4724	34	-15	-50	-2360	112	16840	27	-1	-8	-7844	4008	13292	-127	165	-206	-15896	2568	-4356	106	-4	99	-2592	-1332	16652	-112	-167	198	126	126	5
-5792	-4992	14816	106	-20	-112	-15632	640	-4652	2	-15	-57	-2288	88	16944	21	8	-3	-7856	4100	13356	-126	139	-170	-15952	2544	-4436	94	7	100	-2592	-1408	16536	15	-124	197	126	126	5
-5744	-4948	14748	105	32	-150	-15616	584	-4668	-19	-18	-51	-2360	-8	17256	24	2	1	-7900	4116	13272	-146	151	-162	-16004	2568	-4436	54	17	102	-2612	-1372	16648	90	-110	210	126	126	5
-5760	-4984	14680	101	-45	-117	-15656	580	-4668	-30	-54	-119	-2336	128	17048	37	-7	7	-7848	4028	13284	-91	141	-202	-15920	2564	-4424	3	46	115	-2616	-1436	16580	63	-75	246	126	126	5
-5748	-4996	14784	75	-22	-134	-15612	524	-4604	-16	-49	-82	-2368	96	17048	45	1	8	-7812	4152	13264	-127	173	-152	-15908	2536	-4400	7	41	92	-2688	-1356	16564	36	-129	300	126	126	5
-5776	-5016	14808	93	-42	-149	-15564	560	-4620	-56	-77	-102	-2344	56	16952	46	-3	9	-7872	4104	13180	-116	146	-192	-15940	2504	-4448	39	24	101	-2704	-1352	16588	21	-114	290	126	126	5
-5756	-5036	14724	101	-123	-141	-15536	460	-4660	-16	-62	-103	-2208	-40	17120	32	4	11	-7852	4148	13260	-83	126	-155	-16012	2580	-4528	104	-3	121	-2772	-1304	16508	55	-155	249	126	126	5
-5780	-4980	14856	113	-8	-135	-15624	504	-4796	-29	-44	-77	-2376	24	16976	23	-3	11	-7904	4136	13344	-100	158	-161	-15940	2628	-4524	13	-11	103	-2792	-1268	16528	124	-203	239	126	126	5
-5728	-5044	14788	110	-46	-101	-15620	476	-4684	-19	-113	-11	-2384	16	16888	14	-3	9	-7912	4140	13228	-92	167	-158	-15944	2496	-4616	32	-19	101	-2764	-1368	16612	150	-192	221	126	126	5
-5796	-5012	14836	119	-50	-140	-15564	544	-4752	-32	-80	-47	-2376	-72	17088	17	-10	6	-7872	4100	13168	-133	153	-168	-15920	2500	-4576	64	-26	97	-2712	-1440	16580	38	-210	248	126	126	5
-5792	-5024	14788	101	-61	-137	-15624	596	-4688	-31	-127	-37	-2440	-80	17088	22	-10	8	-7848	4116	13360	-42	141	-164	-15904	2468	-4572	111	-103	138	-2732	-1424	16524	106	-209	243	126	126	5
-5828	-5028	14832	117	-63	-150	-15580	548	-4716	-19	-141	-51	-2352	56	16944	21	-7	4	-7872	4084	13304	-57	180	-165	-15896	2476	-4600	127	-131	176	-2728	-1356	16552	221	-164	182	126	126	5
-5748	-5004	14828	118	-79	-114	-15584	592	-4704	-3	-115	-79	-2384	80	16920	16	-3	4	-7896	4124	13288	-61	130	-122	-15932	2476	-4528	151	-169	194	-2624	-1436	16624	279	-119	148	126	126	5
-5824	-4996	14868	114	-74	-121	-15600	564	-4548	-41	-156	-124	-2240	200	16888	7	-8	1	-7868	4096	13320	-52	129	-158	-15964	2544	-4380	99	-154	212	-2652	-1288	16552	204	-162	129	126	126	5
-5740	-5024	14708	117	-17	-148	-15592	592	-4576	-24	-73	-57	-2144	-24	17112	11	-6	4	-7800	4088	13252	-30	116	-137	-15936	2516	-4452	115	-148	217	-2536	-1272	16516	79	-194	107	126	126	5
-5852	-5016	14832	126	-38	-115	-15644	500	-4592	-26	-53	-119	-2304	-104	17056	17	-5	3	-7852	4168	13164	-77	180	-163	-16000	2512	-4292	182	-169	232	-2468	-1204	16656	-2	-154	105	126	126	5
-5720	-5040	14788	89	-36	-115	-15628	472	-4732	-11	-20	-88	-2264	-48	16968	31	-5	1	-7872	4140	13296	-72	160	-154	-15940	2568	-4292	167	-49	263	-2420	-1260	16676	75	-108	141	126	126	5
-5736	-5072	14836	121	-45	-147	-15604	476	-4660	12	-1	-71	-2136	-88	16952	36	-2	5	-7832	4200	13240	-94	201	-173	-15968	2672	-4312	92	4	229	-2460	-1120	16688	94	-93	189	126	126	5
-5744	-5020	14724	131	-63	-100	-15640	456	-4644	1	0	-51	-2160	-56	16888	37	2	3	-7876	4196	13156	-68	162	-177	-15928	2684	-4404	65	17	181	-2540	-1044	16656	30	-69	219	126	126	5
-5752	-5008	14852	123	-21	-132	-15596	472	-4648	18	-3	20	-2264	-144	17360	40	8	-1	-7808	4208	13296	-59	186	-192	-15916	2636	-4292	54	52	146	-2548	-1164	16648	4	-57	279	127	126	5
-5812	-4996	14760	136	-117	-113	-15584	500	-4728	39	4	33	-2240	88	16888	36	8	-4	-7844	4132	13264	-117	157	-167	-15920	2632	-4364	56	60	146	-2632	-1208	16492	-91	-60	299	127	126	5
-5696	-5052	14832	131	28	-85	-15648	552	-4728	4	24	5	-2328	72	16848	36	11	-3	-7848	4080	13308	-144	161	-220	-15908	2568	-4324	59	75	96	-2684	-1280	16644	-70	-53	321	127	126	5
-5780	-4992	14816	150	-52	-126	-15580	612	-4632	-13	16	40	-2464	40	16744	29	14	-6	-7896	4148	13236	-109	176	-194	-15920	2584	-4468	23	89	82	-2724	-1228	16612	44	-59	316	127	126	5
-5740	-4992	14752	116	-5	-118	-15660	624	-4656	0	-22	-16	-2384	280	16760	29	7	-3	-7872	4104	13244	-87	170	-199	-15928	2552	-4480	-10	63	124	-2816	-1356	16588	109	-61	242	126	126	5
-5764	-4988	14736	124	-93	-119	-15588	664	-4732	-17	-44	-32	-2584	112	17024	32	1	2	-7864	4120	13332	-74	209	-172	-15956	2544	-4516	20	54	94	-2840	-1308	16552	74	-121	236	126	126	5
-5784	-4988	14804	106	-25	-134	-15560	696	-4708	-8	-14	-73	-2520	304	16784	31	-1	2	-7888	4080	13220	-106	166	-207	-15956	2568	-4548	47	55	103	-2880	-1256	16560	0	-170	211	126	126	5
