#Activity	sitting 
#ActivityID	5 
#Date 10-21-15-24
acc_rf_x	acc_rf_y	acc_rf_z	gyro_rf_x	gyro_rf_y	gyro_rf_z	acc_rs_x	acc_rs_y	acc_rs_z	gyro_rs_x	gyro_rs_y	gyro_rs_z	acc_rt_x	acc_rt_y	acc_rt_z	gyro_rt_x	gyro_rt_y	gyro_rt_z	acc_lf_x	acc_lf_y	acc_lf_z	gyro_lf_x	gyro_lf_y	gyro_lf_z	acc_ls_x	acc_ls_y	acc_ls_z	gyro_ls_x	gyro_ls_y	gyro_ls_z	acc_lt_x	acc_lt_y	acc_lt_z	gyro_lt_x	gyro_lt_y	gyro_lt_z	EMG_r	EMG_l	act
-5752	-5000	14708	100	-62	-145	-15588	568	-4676	4	-43	-31	-2240	-64	16880	21	-5	2	-7872	4088	13300	-79	134	-155	-15888	2580	-4512	106	-36	177	-2604	-1132	16624	40	-126	197	127	121	5
-5796	-5016	14728	120	-51	-114	-15672	564	-4612	-19	-77	-69	-2408	-72	16968	24	-4	7	-7900	4128	13260	-50	162	-188	-15968	2524	-4312	98	-30	136	-2560	-1140	16668	43	-104	211	127	121	5
-5684	-5020	14848	114	-46	-132	-15632	580	-4580	-30	-104	-67	-2416	-120	16824	29	-2	4	-7832	4084	13320	-78	161	-161	-15900	2564	-4308	78	-9	135	-2584	-1124	16584	41	-126	230	127	121	5
-5756	-5004	14748	125	-34	-87	-15616	528	-4628	-49	-46	-62	-2280	-72	16840	27	-1	7	-7892	4128	13300	-69	142	-200	-15900	2544	-4452	103	-2	166	-2588	-1128	16544	33	-149	208	127	121	5
-5720	-4984	14816	120	-34	-94	-15604	532	-4640	-36	-65	-66	-2496	-40	16992	28	-6	3	-7892	4108	13296	-117	115	-171	-15916	2608	-4356	96	8	135	-2596	-1104	16704	63	-128	200	126	121	5
-5780	-5032	14876	106	-97	-101	-15576	540	-4604	2	-84	-42	-2416	-48	16912	28	-1	5	-7888	4096	13300	-76	165	-175	-15964	2680	-4340	76	17	130	-2592	-1120	16604	49	-152	186	126	121	5
-5768	-5032	14868	109	-54	-131	-15652	572	-4732	-26	-52	-40	-2400	-40	17000	25	-4	2	-7876	4112	13208	-97	155	-152	-15988	2520	-4428	88	-15	121	-2568	-1124	16604	24	-136	245	127	121	5
-5728	-5036	14820	121	-96	-103	-15588	592	-4652	-20	-48	-53	-2328	0	16936	24	-3	4	-7856	4148	13268	-93	163	-164	-15916	2620	-4452	92	-18	94	-2632	-1104	16660	31	-124	220	126	121	5
-5804	-5012	14748	90	-26	-134	-15636	512	-4664	-9	-63	-63	-2344	-120	17144	21	-1	0	-7892	4112	13304	-85	134	-211	-15916	2572	-4444	73	-12	134	-2656	-1152	16592	18	-109	218	126	121	5
-5704	-5008	14760	119	-42	-128	-15580	568	-4564	4	-55	-67	-2296	-8	17064	19	-4	0	-7920	4128	13424	-130	152	-187	-15888	2576	-4476	72	-38	99	-2612	-1188	16660	13	-112	177	126	121	5
-5780	-4980	14780	88	-49	-170	-15624	524	-4640	-42	-88	-91	-2544	112	16952	21	-1	2	-7868	4092	13176	-104	136	-186	-15936	2592	-4492	68	4	138	-2592	-1144	16684	41	-129	243	126	121	5
-5756	-4964	14828	88	-70	-128	-15616	548	-4760	-8	-60	-52	-2408	-96	16936	25	-6	0	-7888	4100	13208	-99	132	-167	-15936	2548	-4428	62	27	146	-2636	-1152	16776	14	-126	215	127	121	5
-5796	-4964	14788	103	-37	-134	-15600	588	-4640	12	-58	-103	-2376	-208	16952	26	-2	2	-7812	4100	13216	-101	143	-171	-15896	2528	-4320	96	-15	128	-2584	-1156	16636	7	-113	204	126	121	5
-5732	-4968	14816	106	-70	-121	-15596	512	-4592	-4	-52	-68	-2544	-48	16952	24	1	7	-7876	4152	13232	-104	137	-172	-15944	2556	-4400	63	0	120	-2592	-1176	16648	38	-145	170	126	121	5
-5664	-5000	14800	139	-91	-98	-15612	560	-4520	-8	-57	-98	-2384	-128	16960	25	1	2	-7916	4096	13308	-87	147	-175	-15880	2564	-4476	116	-40	135	-2592	-1124	16524	13	-137	193	126	121	5
-5720	-5004	14800	155	-65	-100	-15612	540	-4528	6	-39	-74	-2344	-176	16624	24	-6	3	-7844	4112	13268	-103	165	-173	-15972	2560	-4480	82	-50	126	-2616	-1176	16544	3	-127	202	126	121	5
-5684	-5020	14820	129	-36	-109	-15672	484	-4652	9	-66	-29	-2264	-112	17096	28	2	3	-7868	4148	13256	-100	169	-156	-15920	2536	-4368	61	17	137	-2592	-1128	16512	47	-119	197	126	121	5
-5764	-5000	14848	134	-39	-105	-15616	512	-4684	-15	-28	-43	-2352	-128	17032	24	-1	4	-7868	4068	13344	-100	149	-180	-15936	2600	-4492	82	14	154	-2620	-1132	16604	19	-116	207	126	121	5
-5788	-5012	14792	93	-30	-119	-15704	512	-4648	-28	-84	-69	-2352	-64	17152	28	-1	-2	-7876	4116	13268	-77	132	-128	-15920	2576	-4404	108	-41	146	-2612	-1148	16588	29	-148	195	126	121	5
-5708	-4988	14740	121	1	-118	-15616	532	-4616	3	-38	-37	-2304	-72	17128	27	1	-2	-7852	4104	13284	-64	150	-164	-15912	2612	-4420	124	-28	121	-2572	-1140	16540	53	-134	211	126	121	5
-5740	-5000	14912	109	-12	-131	-15532	524	-4640	-39	-66	-30	-2376	72	16776	27	-2	3	-7876	4092	13276	-114	202	-178	-15856	2568	-4408	63	-42	115	-2632	-1176	16584	17	-109	223	126	121	5
-5804	-4980	14804	115	-57	-109	-15596	540	-4636	-13	-72	-42	-2360	8	16584	26	3	3	-7860	4088	13204	-97	129	-187	-15932	2524	-4500	77	-8	135	-2616	-1184	16632	56	-143	219	126	121	5
-5696	-5020	14700	167	-52	-145	-15620	556	-4628	-7	-58	-37	-2424	120	16864	29	0	1	-7888	4080	13216	-102	146	-212	-15888	2676	-4412	71	12	150	-2560	-1220	16624	48	-117	214	126	121	5
-5756	-5000	14872	115	-93	-110	-15636	540	-4600	-16	-46	-61	-2360	128	16920	28	-1	3	-7836	4108	13272	-107	155	-157	-15912	2576	-4408	103	-23	150	-2616	-1216	16532	36	-111	263	127	121	5
-5744	-5036	14780	118	-74	-113	-15628	548	-4640	-21	-44	-36	-2440	40	17088	26	1	3	-7852	4144	13448	-69	164	-205	-15884	2544	-4440	89	36	142	-2620	-1128	16628	46	-135	233	126	121	5
-5756	-4992	14752	87	-74	-110	-15680	484	-4708	-16	-51	-63	-2504	-64	17088	29	-6	2	-7856	4080	13232	-63	124	-179	-15956	2564	-4492	61	16	153	-2616	-1148	16504	43	-123	187	127	121	5
-5720	-5028	14780	124	-57	-151	-15624	544	-4640	15	-63	-35	-2464	-8	17184	22	-5	0	-7880	4088	13368	-71	175	-182	-15900	2616	-4404	86	-12	100	-2580	-1140	16704	39	-137	215	126	121	5
-5756	-5036	14856	133	-54	-140	-15668	588	-4584	32	-30	-55	-2504	-104	17152	26	-1	0	-7916	4100	13372	-102	145	-175	-15912	2600	-4352	64	14	89	-2672	-1148	16468	41	-136	225	126	121	5
-5756	-5036	14824	85	-39	-118	-15684	604	-4680	-1	-51	-56	-2432	-40	16912	28	-3	4	-7896	4156	13300	-123	180	-198	-15948	2556	-4372	101	-8	111	-2640	-1212	16596	20	-127	227	126	121	5
-5736	-4964	14780	94	-48	-106	-15620	572	-4720	-13	-68	-15	-2432	-72	17072	25	-1	1	-7864	4136	13292	-145	168	-167	-15900	2596	-4436	67	-22	134	-2636	-1100	16596	47	-170	224	126	121	5
-5780	-4972	14636	89	-49	-102	-15584	620	-4708	-20	-54	-56	-2408	32	16888	21	-2	4	-7912	4096	13248	-98	140	-198	-15960	2564	-4480	78	-38	117	-2588	-1160	16600	103	-125	210	126	121	5
-5764	-5020	14784	140	-29	-131	-15600	592	-4608	-39	-36	-79	-2432	-40	16944	21	1	2	-7876	4012	13268	-118	132	-187	-15968	2604	-4344	68	-22	108	-2624	-1152	16600	59	-147	224	126	121	5
-5784	-4968	14704	122	-43	-133	-15624	556	-4628	-18	-32	-62	-2432	136	16784	28	5	1	-7908	4152	13256	-80	120	-189	-15904	2552	-4412	70	-15	113	-2632	-1204	16516	30	-115	225	127	121	5
-5720	-4984	14804	117	-93	-95	-15580	540	-4516	-15	-79	-49	-2256	64	16952	23	-2	2	-7904	4096	13376	-86	180	-164	-15940	2476	-4320	104	-4	144	-2544	-1204	16580	42	-118	208	126	121	5
-5684	-5076	14852	122	-30	-112	-15600	572	-4592	-36	-45	-60	-2112	-48	16920	23	0	1	-7848	4080	13256	-96	164	-158	-15984	2508	-4324	81	-11	165	-2624	-1140	16552	14	-121	192	126	121	5
-5684	-5008	14780	84	-50	-131	-15620	488	-4608	-10	-45	-92	-2224	-144	16912	32	-3	0	-7884	4052	13328	-56	166	-159	-15956	2572	-4304	101	6	160	-2532	-1172	16568	-44	-102	217	126	121	5
-5768	-4984	14868	90	-10	-143	-15608	508	-4700	22	-19	-51	-2456	-48	16968	31	2	0	-7912	4144	13364	-21	185	-164	-15924	2608	-4376	107	-2	142	-2568	-1092	16560	-30	-83	211	126	121	5
-5736	-5028	14752	120	-32	-116	-15580	480	-4632	3	30	-41	-2368	-136	17000	32	2	1	-7892	4148	13256	-76	180	-196	-15932	2644	-4376	66	28	124	-2600	-1096	16652	-19	-124	236	126	121	5
-5720	-4996	14764	143	-37	-154	-15592	440	-4684	-6	-24	-57	-2352	-56	16856	31	2	1	-7880	4136	13304	-39	168	-172	-15944	2608	-4572	47	54	148	-2660	-1112	16540	16	-130	224	126	121	5
-5788	-4992	14764	106	31	-92	-15572	556	-4632	55	-17	-23	-2472	0	17248	29	1	-3	-7884	4120	13312	-68	172	-205	-15936	2644	-4400	104	-10	127	-2576	-1112	16676	-35	-155	240	126	121	5
-5672	-4992	14664	133	-44	-81	-15556	532	-4764	38	-7	-27	-2560	-120	16896	22	-4	-2	-7908	4160	13300	-111	188	-191	-15964	2600	-4492	68	28	109	-2676	-1216	16608	-38	-140	277	126	121	5
-5756	-4976	14784	105	-13	-122	-15604	620	-4664	6	-21	-55	-2488	24	16952	27	0	-1	-7920	4072	13296	-131	160	-160	-15940	2512	-4520	85	-38	94	-2668	-1216	16592	-8	-130	245	126	121	5
-5720	-5008	14940	116	-34	-100	-15620	640	-4688	-22	-74	-56	-2360	80	17224	29	0	2	-7904	4116	13264	-115	140	-172	-15932	2552	-4520	95	2	131	-2660	-1240	16560	16	-103	215	126	121	5
-5672	-4976	14764	94	-29	-147	-15560	600	-4736	-29	-44	-72	-2464	96	16824	24	0	1	-7832	4144	13192	-82	145	-151	-15908	2548	-4472	105	-40	150	-2700	-1232	16588	72	-148	180	126	121	5
-5788	-4928	14816	108	-96	-131	-15540	608	-4700	10	-49	-55	-2464	128	17016	27	-2	6	-7864	4152	13332	-103	145	-170	-15900	2540	-4352	99	-35	158	-2664	-1232	16528	73	-134	199	126	121	5
-5700	-4968	14792	93	-52	-107	-15536	644	-4652	-17	-63	-85	-2400	48	17048	24	-4	5	-7824	4124	13304	-64	175	-166	-15968	2560	-4376	95	-63	150	-2628	-1176	16524	19	-126	188	126	121	5
-5820	-5028	14792	109	-78	-145	-15680	520	-4640	10	-98	-102	-2288	40	17144	24	2	5	-7844	4072	13252	-105	121	-174	-15972	2540	-4536	67	-74	142	-2604	-1132	16648	50	-121	211	126	121	5
-5780	-4992	14848	107	-24	-140	-15640	604	-4700	-67	-101	-92	-2336	-72	16944	24	-6	9	-7908	4104	13316	-53	174	-158	-15912	2588	-4308	92	-52	133	-2612	-1104	16668	56	-146	215	126	121	5
-5732	-5040	14884	109	-134	-147	-15604	536	-4676	-29	-60	-52	-2240	16	16880	22	-2	2	-7896	4084	13296	-68	130	-180	-15936	2560	-4420	72	-76	120	-2592	-1152	16524	78	-130	219	127	121	5
-5732	-5024	14820	112	-60	-140	-15636	492	-4544	-46	-93	-97	-2320	-104	17088	20	-4	4	-7840	4152	13224	-111	103	-159	-15928	2600	-4408	77	-48	158	-2568	-1120	16568	60	-164	237	126	121	5
-5688	-5020	14776	113	-52	-151	-15620	516	-4668	17	-68	-47	-2336	0	17080	24	-5	2	-7900	4100	13296	-59	125	-179	-16004	2524	-4368	91	-60	122	-2508	-1200	16604	33	-127	251	126	121	5
-5788	-5016	14716	97	-59	-130	-15576	544	-4652	-2	-46	-49	-2352	64	17168	27	-1	-1	-7836	4080	13240	-93	121	-174	-15896	2580	-4380	78	10	104	-2612	-1192	16652	17	-121	230	127	121	5
-5796	-5060	14848	111	-34	-129	-15676	568	-4548	-6	-74	-60	-2216	-24	17112	25	0	0	-7856	4080	13300	-103	166	-207	-15956	2544	-4304	74	27	125	-2616	-1136	16616	12	-109	215	126	121	5
-5796	-4964	14808	109	-33	-146	-15588	608	-4612	-18	-3	-78	-2488	16	16960	22	0	-1	-7868	4084	13240	-96	165	-203	-15896	2568	-4376	58	-11	114	-2572	-1188	16528	1	-123	215	126	121	5
-5748	-4972	14832	127	-32	-145	-15652	592	-4588	-8	-29	-62	-2408	32	16856	25	-6	1	-7844	4060	13372	-77	178	-153	-16000	2544	-4424	96	-17	121	-2616	-1244	16604	19	-140	202	126	121	5
-5740	-5028	14796	106	-38	-138	-15588	620	-4620	-25	-81	-50	-2400	-24	17016	27	3	-2	-7896	4116	13280	-63	143	-203	-15880	2576	-4428	94	-22	129	-2656	-1212	16640	8	-140	236	126	121	5
-5796	-4960	14924	111	-33	-130	-15628	576	-4708	-8	-68	-59	-2368	-136	16784	27	0	5	-7892	4152	13296	-52	177	-184	-15868	2572	-4468	80	-2	99	-2680	-1156	16600	13	-148	232	126	121	5
-5756	-4980	14756	107	-30	-115	-15544	584	-4660	0	-65	-65	-2456	-8	17128	27	-1	1	-7872	4100	13272	-99	154	-172	-15924	2556	-4436	60	-64	134	-2620	-1156	16556	28	-115	212	126	121	5
-5712	-4996	14764	104	-2	-120	-15612	492	-4604	-3	-26	-61	-2384	-64	16952	21	3	3	-7908	4044	13252	-89	148	-171	-15964	2608	-4516	77	-30	159	-2660	-1204	16740	15	-135	219	126	121	5
-5772	-4992	14784	101	-12	-94	-15576	544	-4708	-15	-43	-89	-2464	104	17344	26	-1	0	-7908	4080	13196	-104	159	-157	-15956	2588	-4428	61	-54	153	-2652	-1144	16532	54	-148	219	126	121	5
-5752	-5008	14792	117	-54	-113	-15560	548	-4764	-17	-54	-72	-2336	-112	17072	25	3	2	-7864	4144	13328	-119	159	-160	-15936	2588	-4416	72	-18	121	-2564	-1176	16560	14	-107	224	126	121	5
-5772	-5000	14908	88	-26	-154	-15644	544	-4596	19	-42	-68	-2280	-64	16960	25	2	2	-7804	4116	13120	-78	169	-160	-15932	2576	-4512	81	-35	117	-2640	-1164	16544	22	-102	254	126	120	5
-5732	-5008	14888	127	-70	-126	-15588	552	-4684	-5	-72	-83	-2368	32	16768	25	-6	3	-7912	4120	13312	-102	147	-158	-15916	2496	-4508	81	-38	151	-2636	-1204	16572	26	-147	189	126	121	5
-5756	-5032	14844	93	-25	-95	-15620	504	-4736	-8	-60	-49	-2336	64	17096	31	1	2	-7864	4116	13288	-93	156	-197	-15944	2552	-4540	74	-32	192	-2688	-1252	16544	19	-121	213	126	121	5
-5744	-5020	14824	122	-65	-123	-15628	568	-4756	21	-71	-73	-2400	-120	16744	27	0	-1	-7956	4080	13248	-90	160	-191	-15904	2580	-4352	104	-11	142	-2656	-1184	16572	13	-135	192	126	121	5
-5784	-4988	14712	120	-47	-113	-15616	576	-4748	-35	-73	-49	-2336	24	17032	22	-1	2	-7840	4076	13256	-89	161	-170	-15860	2536	-4492	105	-3	154	-2596	-1192	16540	13	-146	223	126	120	5
-5760	-4996	14860	113	-64	-132	-15652	564	-4652	-13	-79	-52	-2424	16	16920	30	-3	4	-7916	4180	13236	-114	134	-165	-15952	2568	-4468	86	-22	109	-2632	-1100	16600	14	-110	213	126	120	5
-5692	-4868	14724	117	-51	-111	-15600	564	-4628	-4	-24	-96	-2384	0	16848	22	-3	1	-7896	4112	13220	-107	127	-211	-15920	2544	-4420	88	-43	144	-2688	-1164	16628	57	-130	207	126	120	5
-5736	-5032	14844	90	-35	-158	-15560	588	-4652	1	-61	-67	-2392	-144	16896	22	-2	5	-7872	4144	13320	-53	130	-177	-15952	2584	-4364	84	-61	136	-2684	-1192	16588	60	-144	212	126	121	5
-5768	-4940	14756	154	-28	-123	-15624	576	-4704	-40	-74	-73	-2392	-48	17096	23	-7	9	-7896	4200	13312	-117	137	-181	-15916	2564	-4384	79	-67	131	-2636	-1216	16544	51	-146	199	126	121	5
-5772	-4976	14752	114	-59	-101	-15552	580	-4708	-52	-84	-92	-2432	-152	17120	21	-2	7	-7880	4088	13276	-93	147	-202	-16000	2536	-4464	97	-50	137	-2628	-1180	16596	29	-139	209	126	120	5
-5748	-5020	14716	106	-76	-154	-15612	536	-4696	-45	-117	-58	-2280	-200	17136	27	1	5	-7868	4104	13336	-94	141	-196	-16004	2616	-4480	101	2	126	-2600	-1188	16596	39	-129	188	126	121	5
-5768	-4932	14792	138	-50	-134	-15600	556	-4652	-14	-78	-100	-2416	-168	16744	26	-2	2	-7844	4168	13256	-73	156	-198	-15980	2584	-4472	53	-20	129	-2608	-1216	16572	56	-117	226	126	120	5
-5724	-5004	14676	118	-91	-133	-15588	564	-4584	-43	-69	-79	-2464	40	16816	25	-3	7	-7868	4060	13228	-63	166	-148	-15932	2652	-4432	55	-20	160	-2592	-1136	16476	55	-161	194	126	120	5
-5760	-4972	14712	97	-77	-134	-15612	596	-4616	-1	-75	-60	-2400	-24	17288	26	0	4	-7832	4100	13232	-67	158	-170	-15952	2532	-4432	98	-25	120	-2640	-1192	16572	53	-126	216	126	120	5
-5760	-4996	14820	129	-34	-148	-15600	540	-4712	-21	-41	-98	-2320	-80	17024	19	-6	5	-7904	4112	13244	-117	137	-154	-15952	2588	-4464	74	-40	153	-2652	-1144	16608	72	-96	229	126	121	5
-5740	-5032	14796	125	-15	-146	-15516	524	-4680	1	-77	-45	-2488	-160	16840	22	-4	2	-7880	4140	13196	-92	163	-163	-15904	2572	-4356	90	-49	172	-2584	-1128	16648	55	-165	210	126	120	5
-5748	-5040	14744	137	-71	-96	-15680	524	-4628	11	-63	-40	-2440	-112	16944	25	-3	5	-7880	4112	13260	-64	181	-194	-15892	2580	-4432	73	-33	136	-2604	-1140	16512	58	-161	218	126	120	5
-5732	-4992	14692	111	-48	-122	-15608	520	-4708	-33	-71	-81	-2344	-80	16904	27	-6	2	-7860	4152	13348	-110	159	-204	-15864	2624	-4400	83	0	141	-2616	-1172	16632	37	-105	220	126	121	5
-5720	-4996	14796	127	0	-108	-15628	548	-4632	-19	-61	-65	-2392	-56	17080	26	0	-1	-7836	4108	13368	-77	174	-180	-15896	2540	-4532	97	-43	109	-2652	-1140	16640	2	-113	218	126	121	5
-5748	-5028	14888	99	-33	-114	-15564	520	-4640	-8	-42	-56	-2352	8	16944	27	-1	4	-7900	4104	13228	-91	163	-155	-15936	2580	-4436	72	-19	103	-2672	-1200	16536	41	-142	229	126	121	5
-5748	-5036	14704	128	-30	-114	-15592	572	-4696	17	-48	-43	-2392	-88	16976	24	-1	3	-7872	4096	13268	-120	153	-169	-15856	2576	-4368	65	1	128	-2624	-1100	16628	34	-132	206	126	121	5
-5728	-5008	14848	110	-65	-126	-15624	592	-4608	-20	-61	-38	-2320	24	17072	22	0	1	-7884	4076	13268	-65	157	-159	-15952	2584	-4448	91	-7	137	-2696	-1116	16548	94	-130	207	126	121	5
-5764	-5036	14888	106	-37	-110	-15632	548	-4656	-17	-83	-40	-2296	-192	16992	20	-4	1	-7844	4112	13300	-81	144	-173	-15940	2616	-4476	89	-5	99	-2644	-1168	16608	60	-141	190	126	121	5
-5776	-5004	14768	84	8	-100	-15620	524	-4676	25	-28	-77	-2392	-88	17136	23	-7	5	-7880	4092	13192	-98	148	-189	-15900	2544	-4512	92	-13	125	-2620	-1196	16596	83	-171	187	126	121	5
-5720	-5032	14768	131	-4	-126	-15580	536	-4632	9	-29	-46	-2336	-8	16920	24	-5	2	-7912	4120	13256	-71	131	-160	-15884	2536	-4552	92	-60	156	-2616	-1112	16688	40	-165	221	126	121	5
-5764	-4984	14816	105	-72	-127	-15564	600	-4652	10	-82	-54	-2368	-48	17056	19	0	-5	-7916	4108	13264	-91	148	-152	-15924	2576	-4468	60	-37	131	-2580	-1180	16588	59	-126	204	126	121	5
-5732	-4988	14744	87	-55	-165	-15624	572	-4600	-17	-28	-68	-2264	40	16896	27	-3	2	-7916	4096	13288	-106	143	-173	-15888	2600	-4472	77	-28	117	-2660	-1136	16528	18	-158	222	126	121	5
-5752	-5016	14828	106	-20	-129	-15620	540	-4700	-15	-78	-77	-2400	-136	16816	27	1	0	-7892	4128	13296	-65	181	-179	-15964	2528	-4428	75	-40	144	-2564	-1348	16564	31	-111	195	126	121	5
-5792	-4996	14760	124	-49	-111	-15612	568	-4680	4	-59	-73	-2280	-96	17072	25	-5	0	-7792	4056	13244	-96	147	-180	-15956	2508	-4364	119	-6	142	-2540	-1152	16472	58	-123	186	126	121	5
-5764	-5032	14816	119	-56	-123	-15664	476	-4716	-13	-70	-18	-2328	48	17024	20	0	0	-7900	4048	13248	-73	148	-165	-15972	2624	-4400	94	-52	149	-2576	-1124	16656	63	-113	242	126	121	5
-5760	-5000	14716	129	-55	-144	-15588	512	-4688	25	-69	-2	-2272	-48	16856	18	0	-5	-7864	4120	13336	-91	151	-151	-15816	2652	-4456	20	-27	115	-2640	-1112	16524	31	-108	250	126	121	5
-5760	-4980	14928	123	-51	-125	-15600	528	-4612	43	-34	22	-2376	-96	17120	19	-2	-1	-7888	4088	13272	-76	170	-176	-15980	2500	-4512	52	5	114	-2616	-1104	16624	79	-153	235	126	120	5
-5784	-4960	14744	101	-70	-88	-15628	580	-4640	35	-81	14	-2376	-112	16816	21	-1	-3	-7820	4168	13252	-67	180	-196	-16056	2608	-4576	97	0	103	-2704	-1176	16596	46	-185	235	126	121	5
-5724	-5032	14772	116	-62	-132	-15664	604	-4644	-30	-96	-20	-2512	-96	16768	16	-3	-4	-7892	4136	13284	-119	175	-173	-15884	2628	-4436	99	-49	132	-2724	-1128	16620	77	-173	275	126	121	5
-5744	-5024	14712	169	-81	-127	-15512	528	-4680	41	-135	51	-2512	-64	16968	18	-7	-1	-7816	4076	13216	-83	162	-163	-15840	2580	-4512	20	-78	91	-2636	-1208	16576	127	-163	261	126	120	5
-5732	-4964	14776	172	-98	-131	-15548	628	-4756	23	-165	5	-2440	64	16744	23	-3	-4	-7924	4124	13148	-114	152	-176	-15976	2520	-4428	61	-114	129	-2604	-1288	16544	113	-146	227	126	120	5
-5792	-4972	14808	132	-47	-136	-15672	624	-4576	-39	-171	3	-2544	72	16896	14	-2	-1	-7900	4076	13280	-79	149	-172	-15932	2488	-4360	112	-43	119	-2548	-1184	16576	177	-143	231	126	120	5
-5788	-5020	14884	136	-88	-119	-15636	656	-4624	-48	-112	-24	-2240	104	17056	24	-1	-5	-7820	4096	13328	-77	139	-169	-15928	2468	-4396	98	-77	150	-2552	-1228	16588	109	-139	197	126	120	5
-5696	-5028	14784	88	-45	-125	-15588	600	-4528	-31	-121	-6	-2232	64	17080	23	-7	1	-7908	4060	13272	-102	152	-167	-15972	2500	-4396	129	-100	195	-2504	-1256	16636	79	-137	181	126	120	5
-5756	-4992	14820	112	-28	-106	-15604	568	-4612	1	-70	-15	-2264	72	16944	28	1	0	-7880	4092	13124	-67	159	-176	-15976	2564	-4356	98	-37	193	-2520	-1068	16536	88	-139	197	126	120	5
-5768	-4984	14852	136	-91	-96	-15616	544	-4592	0	-52	-13	-2352	-120	17168	27	-4	1	-7832	4148	13196	-111	131	-163	-15892	2652	-4300	65	-21	139	-2512	-1092	16564	91	-112	176	126	120	5
-5736	-5032	14668	148	-20	-150	-15556	588	-4584	-3	-5	-59	-2304	-24	17136	28	-2	0	-7892	4132	13276	-138	180	-177	-15900	2624	-4476	40	4	101	-2604	-996	16600	66	-134	235	126	120	5
-5748	-5052	14732	136	-83	-111	-15620	572	-4648	9	-35	-43	-2304	32	17136	24	-6	3	-7824	4136	13284	-108	136	-139	-15940	2604	-4324	138	19	159	-2628	-924	16640	7	-183	236	126	120	5
-5732	-4968	14772	102	-14	-92	-15696	544	-4748	-91	-98	-21	-2424	-80	17048	20	-4	-3	-7888	4104	13180	-113	135	-150	-15932	2744	-4424	80	-10	90	-2672	-948	16644	33	-163	302	126	120	5
-5676	-4964	14728	127	-89	-118	-15564	484	-4660	21	-101	11	-2496	-64	16800	22	0	-6	-7868	4120	13212	-128	129	-178	-15852	2624	-4448	-4	-9	76	-2700	-1016	16644	47	-153	289	126	120	5
-5780	-5064	14832	130	-52	-80	-15636	604	-4612	56	-73	1	-2512	-128	16896	22	4	-7	-7948	4168	13224	-156	130	-218	-15940	2568	-4524	38	-9	27	-2716	-1196	16632	105	-159	289	126	119	5
-5740	-4992	14828	126	-79	-102	-15660	640	-4604	-16	-104	-23	-2480	176	16888	18	4	-6	-7824	4024	13344	-127	135	-151	-15940	2464	-4412	70	-50	99	-2748	-1168	16600	50	-165	246	126	119	5
-5788	-5004	14800	148	-96	-123	-15640	616	-4556	-33	-95	37	-2400	-96	17032	22	4	-5	-7876	4140	13352	-73	127	-194	-15928	2496	-4452	82	-45	95	-2608	-1200	16588	-4	-129	257	126	119	5
-5728	-4964	14896	133	-73	-162	-15552	636	-4556	-17	-113	-4	-2344	-32	17008	26	-4	-6	-7816	4148	13236	-101	129	-189	-15952	2464	-4456	70	-87	111	-2548	-1320	16672	19	-97	233	126	120	5
-5768	-5068	14748	124	-60	-139	-15620	604	-4512	-48	-102	-42	-2336	56	16656	26	4	-4	-7908	4108	13264	-73	137	-174	-15936	2448	-4436	127	-69	144	-2560	-1300	16500	23	-111	183	126	120	5
-5744	-4984	14736	109	-16	-129	-15696	652	-4508	-10	-70	-68	-2320	176	17096	30	1	3	-7824	4072	13320	-73	111	-159	-16008	2500	-4424	144	-68	213	-2532	-1264	16696	25	-86	163	126	120	5
-5800	-5008	14748	112	-70	-140	-15628	692	-4476	23	4	-86	-2224	24	16912	27	-5	9	-7872	4036	13228	-40	168	-148	-15968	2400	-4356	133	-37	211	-2524	-1244	16548	-9	-90	142	126	120	5
-5748	-4936	14820	101	-75	-108	-15644	752	-4504	0	-14	-108	-2288	120	17008	32	0	10	-7800	4176	13296	-76	177	-160	-15984	2544	-4304	112	1	220	-2516	-1092	16676	-14	-74	139	126	120	5
-5720	-4964	14780	82	-17	-132	-15556	584	-4468	5	-6	-108	-2352	80	16864	32	-4	9	-7916	4108	13456	-74	168	-145	-15996	2600	-4288	150	13	237	-2568	-1104	16600	26	-87	155	126	120	5
-5664	-5032	14844	92	-3	-105	-15552	612	-4624	-17	32	-109	-2488	-40	17000	28	1	12	-7896	4120	13356	-77	209	-162	-15940	2652	-4304	104	41	212	-2588	-1056	16652	13	-110	184	126	120	5
-5800	-4968	14740	87	-33	-93	-15564	600	-4620	-25	67	-162	-2456	-8	17000	28	-2	9	-7884	4152	13272	-135	154	-198	-15964	2620	-4472	108	17	243	-2616	-1016	16528	31	-109	207	126	120	5
-5744	-5060	14828	81	-12	-116	-15624	544	-4740	-16	30	-115	-2592	-128	17120	21	1	6	-7828	4096	13276	-104	150	-173	-15936	2684	-4540	67	24	168	-2692	-980	16540	15	-107	250	126	120	5
-5780	-5040	14716	104	-102	-119	-15656	536	-4736	-22	-10	-122	-2344	-64	16952	20	-6	3	-7872	4168	13316	-132	159	-210	-15936	2724	-4472	45	-1	113	-2672	-984	16740	21	-152	232	126	120	5
-5740	-4996	14768	112	-92	-149	-15596	560	-4796	-4	-53	-97	-2504	-104	17096	19	0	4	-7832	4144	13180	-128	141	-158	-15900	2580	-4476	80	-21	92	-2716	-1168	16608	19	-126	251	126	120	5
-5764	-5004	14776	100	-47	-119	-15612	620	-4804	-25	-89	-60	-2632	-56	16936	24	2	9	-7848	4040	13300	-131	145	-171	-15936	2572	-4440	59	-30	44	-2764	-1132	16608	22	-198	237	126	120	5
-5752	-4992	14860	91	-48	-99	-15616	616	-4684	-78	-122	-95	-2400	-136	16880	22	-7	7	-7904	4060	13272	-106	113	-187	-15928	2568	-4532	74	-101	75	-2792	-1164	16580	43	-168	238	126	120	5
-5684	-5044	14864	109	-109	-129	-15648	540	-4656	-55	-140	-127	-2352	72	17120	22	-8	11	-7916	4056	13224	-128	135	-181	-15904	2468	-4524	72	-67	73	-2588	-1268	16548	51	-153	224	126	120	5
-5728	-5024	14768	112	-42	-114	-15588	640	-4564	-54	-127	-95	-2336	24	16816	18	-7	12	-7916	4064	13364	-109	153	-202	-15980	2556	-4452	55	-108	155	-2664	-1252	16540	77	-165	193	126	119	5
-5752	-5020	14836	67	-81	-131	-15608	576	-4576	-23	-124	-86	-2256	-40	16920	13	-10	11	-7876	4124	13348	-121	143	-169	-15900	2508	-4288	111	-69	147	-2580	-1236	16636	85	-146	216	126	119	5
-5748	-4940	14824	112	-47	-157	-15600	628	-4576	-31	-113	-115	-2376	-32	17096	17	-6	10	-7892	4120	13304	-103	152	-135	-15880	2568	-4316	136	-87	146	-2564	-1164	16560	87	-153	153	126	119	5
-5736	-5032	14884	89	-32	-159	-15608	588	-4592	-61	-30	-123	-2120	-136	17112	13	-10	11	-7840	4124	13248	-103	162	-183	-15984	2544	-4296	104	-68	151	-2544	-1120	16632	113	-123	195	126	120	5
-5724	-5004	14856	114	-42	-156	-15684	480	-4532	-37	-49	-94	-2264	-24	16776	18	-5	8	-7868	4156	13292	-92	147	-184	-15972	2612	-4308	60	-57	150	-2588	-1104	16628	124	-171	193	126	119	5
-5708	-5052	14848	84	-61	-128	-15628	508	-4500	-23	-56	-84	-2320	-136	16960	20	-6	5	-7876	4132	13304	-98	152	-166	-15988	2600	-4408	83	-39	169	-2568	-1080	16736	84	-152	192	126	120	5
-5712	-5012	14824	99	-30	-124	-15652	532	-4672	-4	-67	-86	-2352	-200	17288	20	-6	5	-7824	4080	13376	-105	133	-170	-15876	2544	-4412	96	-57	188	-2548	-1052	16668	53	-133	189	126	120	5
-5828	-5036	14772	107	-60	-131	-15592	504	-4584	-29	-47	-62	-2328	-80	17032	20	-1	2	-7888	4132	13300	-107	144	-160	-15992	2608	-4464	135	-16	160	-2616	-1004	16704	7	-145	188	126	119	5
-5792	-5092	14760	100	-47	-150	-15596	492	-4580	0	-50	-80	-2376	-88	16888	22	-3	2	-7844	4140	13260	-108	163	-165	-15912	2688	-4396	95	-36	127	-2596	-1092	16608	69	-112	153	126	119	5
-5728	-5004	14768	65	-64	-140	-15560	520	-4564	-9	-37	-87	-2168	-232	16784	24	-5	1	-7900	4096	13232	-89	180	-150	-15912	2548	-4368	65	-10	121	-2640	-1128	16576	39	-105	200	126	119	5
-5768	-5040	14716	111	-57	-131	-15584	620	-4648	2	-38	-60	-2304	-136	16864	23	-5	2	-7840	4084	13328	-95	131	-170	-15936	2572	-4396	105	-7	134	-2640	-1032	16620	20	-120	199	126	119	5
-5752	-5008	14844	112	-38	-157	-15648	544	-4608	-6	-77	-74	-2328	-32	17064	24	-4	1	-7844	4108	13196	-136	160	-203	-15956	2600	-4408	112	9	121	-2568	-1068	16576	-22	-111	176	126	119	5
-5748	-5028	14800	105	-83	-125	-15604	616	-4620	21	-62	-68	-2496	16	16896	22	-4	0	-7864	4120	13252	-89	163	-188	-15932	2556	-4480	96	6	114	-2540	-1124	16640	-20	-95	202	126	119	5
-5740	-5088	14884	125	-95	-103	-15628	616	-4508	-15	-53	-58	-2384	-8	16664	20	2	2	-7864	4084	13228	-85	156	-221	-15924	2600	-4292	87	-18	110	-2552	-1136	16644	8	-117	212	126	119	5
-5728	-5012	14808	85	-56	-130	-15616	608	-4460	-65	-15	-112	-2440	72	17168	29	3	3	-7828	4124	13328	-128	176	-178	-15936	2592	-4324	38	28	101	-2596	-1100	16556	3	-114	246	126	119	5
-5796	-5024	14800	102	-37	-119	-15668	536	-4576	31	-15	-56	-2304	-88	16992	21	-1	6	-7892	4100	13304	-104	127	-187	-15924	2500	-4352	68	5	129	-2616	-1180	16476	-2	-126	231	126	119	5
-5740	-5036	14804	131	-70	-102	-15596	552	-4588	18	-17	-36	-2432	-192	17000	22	-2	4	-7868	4132	13260	-110	172	-167	-15924	2508	-4316	88	10	108	-2668	-1148	16572	30	-111	218	126	119	5
-5732	-5012	14764	136	-33	-141	-15636	512	-4672	-4	-25	-11	-2280	0	17120	23	2	2	-7888	4096	13272	-97	162	-180	-15928	2516	-4436	90	5	137	-2632	-1112	16528	6	-115	223	126	119	5
-5684	-5004	14788	126	-34	-138	-15684	532	-4524	-32	-72	-48	-2224	-192	17136	25	1	3	-7904	4108	13204	-119	165	-193	-15944	2532	-4384	70	-17	140	-2672	-1212	16624	12	-123	216	126	119	5
-5680	-5044	14872	113	-56	-130	-15568	544	-4528	-13	-42	-31	-2408	-80	16704	29	-4	4	-7824	4140	13212	-75	148	-173	-15904	2496	-4400	37	-9	93	-2684	-1156	16596	63	-138	201	126	119	5
-5736	-5028	14936	102	-90	-144	-15668	536	-4564	-24	-44	-37	-2376	-104	16968	27	0	3	-7836	4124	13252	-93	134	-186	-15968	2492	-4376	78	-35	158	-2604	-1200	16576	28	-157	204	126	119	5
-5788	-4992	14788	131	-74	-128	-15576	540	-4560	1	-65	-32	-2232	-104	17024	31	-4	5	-7860	4072	13244	-30	153	-173	-15952	2512	-4400	113	-19	178	-2648	-1172	16652	16	-152	192	126	119	5
-5732	-5072	14772	101	-53	-93	-15584	584	-4608	-19	-33	-16	-2344	-80	16976	32	-2	7	-7856	4100	13296	-34	167	-153	-15900	2596	-4516	78	-30	165	-2616	-1120	16600	-3	-121	199	126	120	5
-5804	-4996	14832	141	-29	-129	-15616	496	-4520	-25	-38	-26	-2336	120	17032	38	-1	9	-7876	4052	13340	-26	181	-192	-15972	2604	-4324	61	-32	144	-2584	-1120	16560	-14	-128	191	126	120	5
-5704	-4964	14752	126	-24	-145	-15656	636	-4692	18	-60	-70	-2320	-40	16944	31	-1	7	-7912	4208	13324	-43	180	-181	-15968	2596	-4312	98	-26	196	-2588	-1060	16660	52	-138	209	126	119	5
-5744	-5024	14752	96	-36	-134	-15564	556	-4608	21	-68	-64	-2360	-32	16960	25	1	5	-7840	4148	13320	-46	184	-204	-15956	2632	-4420	65	-20	156	-2648	-1040	16544	14	-130	207	126	119	5
-5796	-5052	14784	102	-53	-98	-15596	584	-4668	-42	-35	-65	-2256	-88	16824	27	-1	6	-7804	4136	13268	-56	154	-176	-15976	2608	-4336	48	-4	154	-2604	-1068	16616	34	-125	220	126	120	5
-5760	-5004	14852	105	-30	-92	-15612	524	-4556	-31	-59	-87	-2360	-144	16736	25	-3	3	-7912	4144	13280	-122	133	-171	-15896	2660	-4432	104	7	171	-2620	-1032	16552	39	-127	216	126	120	5
-5804	-4972	14812	105	-8	-93	-15640	548	-4600	10	-45	-84	-2424	0	16864	26	-3	5	-7960	4128	13328	-98	158	-181	-15896	2624	-4512	88	-2	129	-2592	-1092	16640	0	-135	229	126	119	5
-5752	-4992	14792	122	-22	-131	-15676	628	-4624	-14	-44	-104	-2440	-32	16960	22	-2	5	-7912	4112	13324	-121	136	-182	-15964	2604	-4468	55	23	130	-2664	-1076	16628	-7	-138	220	126	119	5
-5712	-5008	14756	102	-34	-131	-15652	572	-4584	-27	-58	-81	-2424	-96	16848	27	0	3	-7860	4136	13264	-101	128	-188	-15940	2568	-4400	71	-36	139	-2716	-1136	16508	-6	-154	175	126	119	5
-5800	-5000	14872	109	-93	-134	-15584	576	-4588	-9	-21	-62	-2464	-24	16800	22	-5	2	-7876	4104	13276	-120	123	-182	-15904	2588	-4432	86	-34	139	-2644	-1116	16684	5	-130	187	126	119	5
-5732	-5032	14812	104	2	-133	-15628	588	-4676	-21	-66	-65	-2472	-32	16912	24	-2	1	-7860	4108	13324	-115	136	-173	-15956	2592	-4396	81	-18	147	-2660	-1216	16556	11	-119	157	126	119	5
-5748	-5024	14820	127	-70	-129	-15628	580	-4624	-26	-48	-71	-2440	-32	16952	24	-2	3	-7916	4092	13344	-97	156	-173	-15984	2516	-4380	98	-35	150	-2616	-1200	16568	3	-126	187	126	120	5
-5668	-4952	14740	124	-43	-145	-15608	576	-4656	-2	-34	-89	-2264	24	16864	18	-1	5	-7848	4152	13356	-99	107	-162	-15952	2584	-4448	109	-74	136	-2616	-1156	16692	23	-153	163	126	120	5
-5724	-4996	14764	125	-7	-169	-15628	552	-4648	-27	-67	-64	-2248	-24	17016	20	-4	5	-7852	4084	13124	-111	158	-160	-15992	2556	-4312	75	-40	127	-2508	-1204	16616	55	-114	222	126	120	5
-5696	-5068	14716	93	-85	-140	-15676	520	-4500	-18	-59	-131	-2136	-128	17056	23	-8	8	-7820	4160	13272	-75	133	-171	-15888	2572	-4340	112	-85	148	-2560	-1200	16692	38	-117	206	126	120	5
-5796	-5056	14768	74	-17	-115	-15632	524	-4612	-20	-35	-86	-2296	-192	16904	23	-1	7	-7836	4092	13372	-58	133	-157	-15976	2544	-4372	102	-36	136	-2552	-1144	16660	25	-134	201	126	120	5
-5720	-5036	14824	88	-62	-133	-15624	496	-4584	-46	-9	-85	-2488	-168	17144	28	-6	6	-7872	4128	13288	-98	174	-195	-15960	2588	-4324	77	-3	167	-2612	-1100	16608	42	-135	186	126	120	5
-5712	-4992	14880	114	3	-110	-15624	492	-4548	4	-13	-40	-2384	-120	16912	25	4	3	-7860	4172	13308	-84	148	-178	-15928	2524	-4436	82	13	139	-2612	-1036	16460	7	-100	237	126	120	5
-5748	-4980	14808	99	-41	-115	-15652	580	-4560	11	-1	-69	-2488	-152	17056	28	-2	0	-7868	4116	13324	-96	141	-171	-15936	2592	-4412	73	27	112	-2588	-1056	16488	27	-131	225	126	119	5
-5804	-5056	14824	111	-40	-100	-15656	460	-4712	37	-39	-21	-2416	-144	16888	28	3	0	-7848	4088	13264	-109	129	-179	-15948	2624	-4436	92	-27	122	-2612	-1104	16736	22	-114	238	126	120	5
-5680	-5008	14836	151	-17	-114	-15596	568	-4516	9	-57	-19	-2416	-128	16816	26	2	0	-7924	4084	13184	-77	174	-195	-15916	2576	-4404	70	-19	131	-2628	-1212	16732	47	-108	244	126	120	5
-5792	-5012	14780	153	-43	-139	-15644	544	-4712	16	-52	-19	-2544	-56	17000	30	0	1	-7904	4100	13252	-100	140	-178	-15972	2480	-4448	85	-38	149	-2696	-1224	16644	11	-118	208	126	120	5
-5760	-4980	14812	104	-28	-156	-15592	640	-4656	-10	-52	-52	-2416	-96	17048	28	-1	1	-7912	4100	13268	-61	145	-146	-15952	2492	-4424	131	-71	165	-2648	-1224	16684	42	-105	174	126	120	5
-5748	-4988	14804	126	-2	-144	-15640	572	-4588	-28	-58	-34	-2480	-56	16976	29	-5	2	-7932	4088	13280	-100	145	-174	-15908	2556	-4456	111	-43	157	-2656	-1132	16512	8	-117	192	126	120	5
-5788	-4992	14780	111	-46	-145	-15648	568	-4708	-7	-35	-110	-2456	32	16824	27	-1	1	-7840	4132	13232	-58	155	-170	-15920	2580	-4360	96	-37	193	-2584	-1144	16548	2	-132	193	126	120	5
-5776	-5032	14756	106	-36	-130	-15576	632	-4576	4	-76	-76	-2240	-56	16944	26	-2	1	-7832	4120	13332	-77	151	-175	-15952	2612	-4540	110	-68	158	-2648	-1168	16620	34	-139	202	126	119	5
-5780	-4980	14732	82	-12	-135	-15592	560	-4664	-14	-88	-89	-2488	-152	16776	25	-2	7	-7840	4172	13360	-115	185	-177	-15924	2608	-4456	114	-62	155	-2612	-1052	16548	29	-138	208	126	119	5
-5784	-4996	14776	108	-30	-137	-15616	552	-4656	12	-54	-90	-2464	-8	17088	25	1	3	-7876	4156	13252	-95	152	-175	-15880	2632	-4464	90	-31	149	-2588	-1136	16716	36	-161	203	126	120	5
-5796	-5008	14728	123	-78	-106	-15656	524	-4580	3	-74	-77	-2288	16	17056	27	-6	4	-7848	4108	13292	-138	160	-192	-16032	2624	-4412	91	-35	149	-2584	-1044	16564	36	-139	233	126	120	5
-5744	-5016	14748	106	-35	-159	-15608	540	-4564	10	-88	-91	-2376	-152	17016	25	0	4	-7900	4096	13268	-105	173	-189	-15956	2564	-4332	62	-3	146	-2644	-1132	16556	37	-153	231	126	120	5
-5696	-4972	14772	98	-75	-94	-15588	552	-4588	-30	-66	-87	-2280	-160	16784	25	-1	6	-7800	4120	13228	-66	122	-161	-15928	2584	-4264	54	-15	112	-2656	-1180	16536	36	-152	203	126	120	5
-5760	-5020	14764	105	-61	-144	-15596	572	-4680	-34	-52	-64	-2200	-168	16768	25	-3	2	-7848	4144	13232	-104	128	-156	-15940	2568	-4384	98	-43	94	-2584	-1200	16572	17	-131	216	126	120	5
-5792	-4980	14804	106	-15	-123	-15600	560	-4488	-18	-79	-43	-2360	-72	16832	28	-5	3	-7916	4144	13328	-79	165	-176	-15948	2544	-4448	84	-18	153	-2624	-1192	16484	19	-138	221	126	119	5
-5720	-5004	14808	135	-81	-119	-15632	544	-4660	3	-44	-65	-2368	-32	17080	23	-5	3	-7836	4120	13212	-79	147	-184	-15980	2544	-4444	68	-24	107	-2624	-1176	16552	39	-150	165	126	120	5
-5776	-4996	14692	85	-29	-139	-15584	508	-4564	-29	-40	-77	-2408	-120	16784	26	0	3	-7832	4092	13080	-63	111	-184	-15916	2548	-4364	143	-38	139	-2576	-1120	16592	15	-145	168	126	119	5
-5720	-5004	14772	127	-8	-123	-15552	548	-4668	-7	-49	-48	-2360	-88	16728	24	-1	1	-7844	4072	13364	-103	134	-157	-15972	2564	-4388	82	2	139	-2560	-1148	16572	33	-129	174	126	119	5
-5748	-5108	14800	115	-82	-109	-15648	508	-4608	-20	-35	-63	-2336	-80	16912	23	0	3	-7868	4104	13224	-84	172	-163	-15928	2492	-4356	110	-37	150	-2632	-1192	16532	76	-143	214	126	119	5
-5744	-5028	14732	93	-27	-127	-15628	596	-4672	-1	-31	-48	-2328	-96	16840	22	-4	1	-7904	4184	13288	-81	152	-170	-15996	2552	-4328	77	-1	140	-2580	-1128	16652	30	-112	217	126	119	5
-5744	-5048	14820	83	-56	-113	-15684	600	-4620	9	-53	-45	-2400	-48	16896	30	0	3	-7828	4064	13316	-95	146	-180	-15916	2612	-4428	93	-32	115	-2652	-1128	16636	44	-143	243	126	119	5
-5756	-5032	14812	134	-15	-122	-15556	532	-4620	-14	-69	-40	-2344	-64	16688	25	1	2	-7940	4080	13388	-59	131	-173	-16008	2664	-4340	95	-16	139	-2576	-1152	16524	48	-105	217	126	119	5
-5700	-5040	14852	136	-101	-119	-15636	520	-4616	-9	-18	-55	-2424	-96	17088	26	-4	4	-7888	4076	13340	-106	152	-200	-15916	2592	-4380	95	18	135	-2596	-1092	16648	31	-125	214	126	119	5
-5760	-5024	14708	96	10	-143	-15652	508	-4564	-20	-63	-66	-2352	16	17312	23	1	-1	-7816	4064	13300	-82	129	-195	-15940	2644	-4388	69	-37	136	-2620	-1136	16612	19	-157	218	126	119	5
-5760	-4940	14760	100	-62	-145	-15676	624	-4568	7	-51	-47	-2344	-56	16936	25	-2	1	-7904	4204	13288	-65	141	-163	-15944	2588	-4532	96	-8	146	-2652	-1176	16580	0	-152	234	126	119	5
-5744	-5028	14708	109	20	-150	-15660	588	-4724	6	-35	-45	-2248	-56	16792	27	-4	5	-7876	4112	13232	-141	154	-173	-15936	2600	-4436	90	-22	134	-2648	-1184	16592	2	-109	204	126	119	5
-5756	-5048	14832	117	-53	-110	-15616	536	-4664	14	-41	-29	-2328	-264	17152	24	-1	2	-7844	4088	13352	-82	144	-196	-15916	2544	-4464	66	-25	143	-2632	-1152	16636	7	-97	201	126	119	5
-5752	-5116	14680	103	-61	-125	-15616	576	-4644	-1	-54	-63	-2328	16	16880	26	-2	1	-7844	4104	13228	-65	146	-137	-15940	2504	-4464	84	0	111	-2668	-1168	16544	13	-121	224	126	119	5
-5764	-5028	14900	110	-64	-88	-15592	560	-4588	0	-60	-61	-2328	16	17048	32	-6	4	-7896	4144	13300	-90	181	-170	-15916	2548	-4492	64	-36	144	-2732	-1172	16648	29	-117	211	126	119	5
-5772	-5020	14868	92	-101	-112	-15616	592	-4664	-32	-70	-69	-2360	-48	16904	28	-7	1	-7880	4128	13288	-127	135	-169	-15928	2568	-4296	86	-13	124	-2532	-1144	16668	25	-146	189	126	119	5
-5772	-4968	14732	114	-50	-94	-15572	564	-4748	-9	-48	-70	-2288	-8	16648	27	-3	3	-7840	4160	13180	-131	110	-159	-15984	2580	-4476	104	-22	147	-2648	-1156	16712	44	-166	212	126	119	5
-5728	-4988	14876	116	-39	-122	-15644	584	-4724	-19	-57	-48	-2384	-240	16944	25	0	8	-7892	4164	13292	-93	181	-204	-15968	2576	-4364	105	-56	154	-2624	-1136	16692	58	-149	208	126	119	5
-5732	-5016	14812	112	-61	-117	-15600	552	-4640	-49	-56	-68	-2240	-48	16944	26	0	6	-7880	4160	13292	-120	161	-174	-15936	2544	-4508	63	-39	148	-2620	-1156	16612	61	-143	213	126	119	5
-5728	-5024	14756	115	-70	-116	-15624	584	-4544	-15	-42	-71	-2360	-24	16824	22	-4	2	-7892	4132	13304	-114	144	-151	-15920	2520	-4468	85	-35	184	-2576	-1200	16560	40	-113	170	126	119	5
-5740	-5028	14832	102	-28	-125	-15700	436	-4520	-4	-41	-76	-2264	-72	16960	23	-2	5	-7848	4152	13316	-110	170	-152	-15980	2488	-4348	76	-68	182	-2556	-1204	16572	21	-104	192	126	119	5
-5720	-4972	14788	75	-19	-107	-15604	544	-4600	6	-39	-34	-2376	-224	16840	28	-3	1	-7876	4096	13308	-79	175	-195	-15884	2536	-4408	107	-34	194	-2560	-1104	16540	13	-103	202	126	119	5
-5776	-4992	14760	119	-19	-102	-15584	616	-4604	10	-44	-22	-2192	-8	16904	30	2	2	-7956	4160	13312	-67	175	-185	-15924	2572	-4436	78	22	143	-2576	-1120	16612	12	-86	210	126	119	5
-5736	-5056	14836	131	-77	-83	-15596	524	-4752	0	-39	-49	-2416	-120	17256	31	-2	-2	-7916	4140	13304	-52	205	-169	-15936	2696	-4384	47	6	114	-2596	-1152	16720	26	-123	205	126	119	5
-5804	-5024	14844	126	2	-154	-15640	496	-4792	35	-46	-35	-2360	8	16768	28	-4	3	-7852	4112	13276	-59	195	-169	-16008	2580	-4392	80	-20	152	-2588	-1124	16616	2	-121	216	127	119	5
-5792	-5008	14796	125	7	-74	-15612	604	-4776	12	-45	-20	-2320	-24	16896	24	1	3	-7848	4108	13312	-11	144	-197	-15864	2628	-4444	66	0	131	-2692	-1112	16632	-18	-142	248	126	119	5
-5776	-5000	14856	90	19	-131	-15616	596	-4692	0	-49	-67	-2368	24	16960	24	-4	5	-7880	4096	13292	-70	184	-152	-15928	2536	-4436	41	-5	92	-2644	-1132	16568	-10	-133	215	126	119	5
-5720	-5020	14852	109	-28	-73	-15552	584	-4704	-10	-42	-63	-2408	-24	17048	27	-2	3	-7872	4088	13204	-81	193	-167	-15916	2564	-4360	68	-23	126	-2696	-1116	16552	2	-159	216	126	119	5
-5796	-5016	14888	92	-15	-112	-15652	648	-4624	-32	-99	-47	-2304	80	16944	24	-2	2	-7916	4176	13288	-99	152	-177	-15960	2576	-4552	95	-32	129	-2708	-1156	16676	43	-133	190	126	119	5
-5716	-5000	14716	106	-38	-138	-15592	620	-4704	-62	-78	-94	-2256	-40	16936	24	0	5	-7920	4116	13216	-76	132	-158	-15936	2512	-4616	55	-75	120	-2668	-1168	16648	61	-128	200	126	119	5
-5724	-5028	14728	113	-39	-157	-15596	520	-4684	-37	-62	-114	-2320	-80	16848	19	1	2	-7884	4080	13300	-38	157	-241	-15980	2540	-4356	74	-64	105	-2648	-1136	16660	46	-114	233	126	119	5
-5772	-5068	14812	94	-51	-102	-15584	512	-4596	-14	-52	-105	-2272	152	17016	20	-3	7	-7872	4148	13312	-77	132	-163	-15924	2520	-4376	55	-66	116	-2628	-1128	16612	56	-146	178	126	120	5
-5708	-4980	14792	101	-86	-135	-15628	520	-4632	-25	-85	-102	-2368	-40	17056	21	-6	7	-7820	4124	13180	-115	155	-200	-15908	2588	-4396	83	-63	155	-2588	-1108	16700	66	-132	188	126	119	5
-5724	-5116	14744	79	-44	-143	-15572	492	-4592	-29	-103	-79	-2344	-176	16856	23	-5	6	-7920	4192	13288	-106	129	-196	-16020	2584	-4368	86	-63	167	-2592	-1172	16564	61	-131	191	126	119	5
-5724	-4972	14752	85	-60	-139	-15604	492	-4600	-21	-102	-65	-2248	-48	16864	23	-3	4	-7888	4100	13336	-125	137	-169	-15956	2588	-4352	96	-28	155	-2592	-1176	16560	56	-157	237	126	119	5
-5772	-5084	14744	109	-65	-142	-15540	536	-4672	-14	-32	-55	-2352	-56	17184	23	-3	1	-7932	4080	13236	-124	134	-158	-15992	2568	-4304	104	4	157	-2524	-1116	16572	41	-146	201	126	120	5
-5724	-4992	14768	130	-53	-115	-15616	508	-4612	-27	-68	-2	-2376	-144	16952	26	1	3	-7884	4140	13392	-126	125	-171	-15988	2584	-4448	73	14	146	-2540	-1096	16568	26	-133	199	126	119	5
-5776	-4992	14756	133	-46	-124	-15600	492	-4608	14	-55	-30	-2256	-64	16864	23	-6	2	-7852	4100	13216	-88	131	-166	-15980	2608	-4292	50	-18	154	-2580	-1168	16628	25	-145	236	126	119	5
-5764	-5016	14796	87	-38	-109	-15588	548	-4616	-16	-22	20	-2536	-32	16976	27	-1	2	-7880	4132	13248	-93	124	-178	-15924	2556	-4424	97	3	132	-2584	-1148	16616	37	-124	211	126	119	5
-5796	-4952	14804	93	-23	-129	-15636	544	-4624	-23	-62	-49	-2288	-64	16840	30	-2	1	-7780	4080	13204	-109	160	-204	-15972	2620	-4296	90	15	169	-2544	-1112	16536	13	-135	185	126	119	5
-5780	-4980	14696	110	-26	-108	-15624	576	-4612	-20	-39	-42	-2328	-96	16848	27	1	0	-7868	4088	13288	-102	149	-187	-15960	2528	-4428	62	20	112	-2688	-1132	16756	-2	-127	247	126	119	5
-5784	-5080	14832	125	-18	-142	-15604	552	-4760	-28	-18	-65	-2472	-96	17016	25	-1	4	-7864	4072	13284	-76	190	-190	-15948	2548	-4416	72	7	117	-2636	-1168	16644	-22	-133	233	126	119	5
-5728	-5000	14752	118	-16	-128	-15644	564	-4664	5	-72	-32	-2360	-104	16624	27	1	4	-7828	4140	13144	-110	146	-195	-15908	2592	-4488	100	13	138	-2608	-1120	16672	2	-101	185	126	119	5
-5760	-4980	14936	102	-45	-105	-15624	524	-4532	-6	-44	-96	-2304	24	17032	24	-2	2	-7876	4164	13204	-68	167	-169	-15936	2580	-4408	69	9	173	-2584	-1124	16636	5	-113	213	126	119	5
-5700	-5028	14804	104	-114	-155	-15616	540	-4728	-2	-78	-60	-2360	-32	17184	27	-2	0	-7912	4168	13232	-74	150	-181	-15908	2556	-4452	61	6	108	-2584	-1152	16656	18	-110	253	126	120	5
-5692	-5032	14820	127	-31	-104	-15572	540	-4724	21	-32	-76	-2320	-176	16848	25	-2	2	-7844	4136	13212	-103	157	-202	-15940	2512	-4436	92	-1	127	-2616	-1136	16548	-18	-133	180	126	119	5
-5752	-4944	14816	108	-65	-105	-15608	536	-4600	-32	-20	-56	-2280	-96	17056	25	-1	1	-7868	4144	13204	-119	163	-159	-15884	2512	-4368	115	-31	164	-2672	-1104	16680	-1	-132	216	126	119	5
-5760	-4996	14724	112	-92	-122	-15620	536	-4640	3	-55	-67	-2504	56	16704	23	-1	4	-7912	4132	13204	-109	125	-175	-15940	2580	-4384	99	-31	85	-2672	-1084	16680	48	-111	183	126	119	5
-5720	-5040	14888	108	3	-133	-15616	520	-4512	31	-38	-70	-2416	-216	16952	22	-4	6	-7832	4060	13324	-91	132	-192	-15932	2528	-4380	78	-61	137	-2656	-1148	16688	62	-136	194	126	119	5
-5736	-5032	14832	127	-46	-115	-15604	556	-4656	-13	-51	-49	-2272	-232	16936	24	4	4	-7896	4172	13304	-95	139	-175	-15976	2584	-4444	100	-24	114	-2612	-1136	16608	46	-137	195	126	119	5
-5684	-5028	14812	106	-3	-131	-15584	564	-4704	35	-52	-60	-2328	-8	16864	27	-3	1	-7916	4072	13252	-90	152	-173	-15924	2556	-4444	94	-48	142	-2584	-1124	16580	26	-145	200	126	119	5
-5732	-5036	14716	126	-25	-97	-15668	572	-4492	13	-69	-43	-2224	-136	16720	29	2	2	-7916	4108	13176	-104	138	-143	-15948	2544	-4424	84	-25	138	-2600	-1144	16596	54	-150	218	126	120	5
-5740	-4992	14756	119	-100	-54	-15584	532	-4548	2	-65	-60	-2520	-120	16888	26	-4	3	-7852	4088	13284	-108	153	-170	-15888	2572	-4436	94	-15	127	-2584	-1140	16656	23	-126	223	126	120	5
-5728	-4964	14824	121	-66	-138	-15612	568	-4604	3	-77	-70	-2328	-120	17128	26	-5	0	-7872	4088	13256	-105	130	-193	-15936	2608	-4420	77	-60	131	-2608	-1180	16676	37	-118	220	126	119	5
-5744	-5008	14836	121	-72	-113	-15648	556	-4660	-17	-55	-41	-2272	-88	16848	24	-4	2	-7860	4120	13304	-97	172	-174	-15904	2504	-4372	96	-45	132	-2656	-1140	16600	23	-118	198	126	119	5
-5824	-5024	14800	136	-39	-117	-15636	564	-4644	4	-75	-32	-2384	-96	17016	27	2	3	-7908	4116	13240	-88	154	-154	-15944	2580	-4368	110	-22	125	-2664	-1208	16604	6	-124	208	126	120	5
-5724	-5028	14804	139	-83	-119	-15576	564	-4612	-44	-68	-63	-2304	-72	16832	29	2	2	-7816	4120	13300	-114	138	-163	-15896	2580	-4436	96	-40	163	-2576	-1088	16548	34	-155	216	126	119	5
-5764	-5040	14796	110	-58	-118	-15708	580	-4636	-53	-76	-30	-2408	0	17016	28	-2	4	-7860	4148	13320	-115	135	-144	-15904	2552	-4528	83	-29	110	-2592	-1184	16648	52	-155	163	126	119	5
-5736	-5064	14852	130	-84	-124	-15604	584	-4676	-39	-58	-57	-2304	-56	16784	25	-3	4	-7916	4080	13296	-83	178	-162	-15900	2584	-4284	67	-50	155	-2612	-1124	16664	28	-126	191	126	119	5
-5776	-5052	14824	114	-44	-126	-15640	596	-4644	-43	-84	-65	-2304	-208	16712	26	1	2	-7900	4044	13328	-126	148	-163	-15932	2540	-4496	91	-16	134	-2668	-1092	16588	7	-165	224	126	120	5
-5696	-5032	14784	85	-21	-149	-15636	596	-4684	-12	-67	-87	-2360	0	16952	30	0	1	-7816	4104	13288	-77	122	-174	-15936	2568	-4432	97	-26	145	-2612	-1084	16544	61	-108	244	126	119	5
-5680	-5008	14724	119	-47	-125	-15624	512	-4656	16	-94	-44	-2264	-136	17096	31	-4	1	-7864	4120	13320	-101	146	-178	-15908	2524	-4456	79	-27	131	-2648	-1156	16552	31	-134	196	126	120	5
-5764	-5064	14840	92	-31	-117	-15624	632	-4596	12	-68	-29	-2528	136	17232	30	-6	2	-7884	4092	13272	-89	128	-165	-15944	2548	-4352	81	-56	124	-2620	-1124	16640	40	-128	197	126	120	5
-5740	-4976	14680	133	7	-141	-15540	572	-4520	-22	-40	-59	-2400	-32	16992	29	-5	0	-7884	4092	13308	-98	149	-163	-15940	2560	-4408	67	-16	125	-2616	-1156	16648	33	-163	226	126	119	5
-5748	-5000	14852	147	-67	-102	-15632	528	-4604	7	-79	-19	-2440	-72	17120	26	4	4	-7812	4116	13276	-99	159	-170	-15956	2568	-4432	60	-33	146	-2596	-1156	16636	71	-117	241	126	119	5
-5744	-5068	14860	129	-66	-112	-15616	588	-4580	-18	-69	-49	-2272	8	16912	25	-4	3	-7868	4132	13288	-95	149	-163	-15988	2600	-4404	83	-5	138	-2692	-1132	16628	22	-142	194	126	120	5
-5728	-4996	14768	88	-32	-125	-15600	568	-4512	-4	-49	-85	-2432	-88	16904	22	-3	6	-7816	4060	13244	-81	146	-165	-15940	2604	-4340	101	-8	116	-2580	-1152	16580	10	-128	182	127	120	5
-5724	-5028	14816	118	-35	-122	-15680	592	-4524	-18	-57	-131	-2392	-64	16912	27	-2	3	-7848	4128	13280	-95	161	-161	-15892	2532	-4428	104	-31	147	-2536	-1160	16504	15	-150	228	126	119	5
-5768	-5036	14836	88	-14	-110	-15628	592	-4516	-17	-23	-70	-2256	-136	17176	26	-8	1	-7896	4124	13216	-87	122	-183	-15904	2564	-4328	63	4	159	-2652	-1084	16524	54	-132	198	126	119	5
-5764	-5016	14788	101	-28	-120	-15668	512	-4728	0	-35	-54	-2320	-112	16912	25	-2	1	-7828	4136	13264	-108	139	-177	-15944	2540	-4360	101	-5	136	-2596	-1096	16668	60	-134	186	126	119	5
-5736	-4928	14832	129	-34	-118	-15652	540	-4588	-15	-46	-64	-2408	-88	17064	28	-3	0	-7884	4112	13328	-101	141	-177	-15868	2640	-4524	108	-15	94	-2592	-1128	16556	4	-116	221	126	119	5
-5752	-5048	14800	84	-23	-140	-15556	568	-4692	-30	-76	-61	-2272	-80	16976	27	3	2	-7824	4100	13224	-85	158	-181	-15924	2548	-4392	96	-18	152	-2584	-1176	16560	15	-130	218	126	119	5
-5764	-5016	14828	124	-36	-117	-15692	560	-4640	-3	-57	-56	-2456	-80	16952	28	6	4	-7840	4144	13256	-98	155	-188	-15920	2588	-4456	104	-44	126	-2596	-1140	16580	49	-143	210	126	119	5
-5756	-5008	14796	115	-19	-108	-15644	556	-4700	-15	-44	-59	-2304	-56	16952	26	2	2	-7884	4048	13260	-86	172	-138	-15976	2592	-4308	89	-33	119	-2624	-1164	16580	18	-116	206	126	120	5
-5744	-5080	14912	122	-57	-115	-15588	528	-4592	-10	-41	-20	-2320	-128	16920	27	1	4	-7872	4112	13248	-116	153	-164	-15872	2564	-4336	89	-12	151	-2628	-1200	16540	40	-126	195	126	120	5
-5736	-4980	14768	105	-50	-132	-15600	576	-4656	12	-73	-58	-2296	-64	16744	28	0	2	-7796	4132	13136	-73	168	-194	-15892	2588	-4404	53	-6	154	-2644	-1172	16648	23	-137	224	126	120	5
-5712	-4980	14792	115	-45	-133	-15644	604	-4704	-24	-62	-93	-2440	16	16936	30	-4	1	-7880	4172	13352	-92	154	-157	-15892	2516	-4496	98	-38	140	-2640	-1132	16628	12	-117	229	126	119	5
-5692	-4952	14860	99	-56	-143	-15640	572	-4504	-14	-51	-73	-2168	-88	17072	25	1	1	-7868	4128	13336	-92	156	-168	-15924	2584	-4476	81	-22	167	-2564	-1188	16592	-12	-101	210	126	119	5
-5744	-5080	14788	107	-56	-122	-15648	516	-4580	-46	-43	-56	-2152	-40	16936	27	0	2	-7908	4144	13192	-105	145	-192	-15932	2608	-4368	129	5	160	-2536	-1168	16604	6	-89	205	126	119	5
-5700	-5064	14832	87	-11	-155	-15668	572	-4712	26	-41	-47	-2344	48	16776	26	0	3	-7852	4072	13300	-88	146	-179	-15964	2536	-4420	74	-25	180	-2596	-1068	16612	3	-91	203	126	119	5
-5740	-5028	14772	100	-15	-163	-15568	580	-4604	3	-29	-62	-2232	-24	17128	27	-4	-1	-7836	4056	13248	-59	165	-182	-15888	2568	-4212	45	40	159	-2572	-1144	16608	-13	-115	228	126	119	5
-5716	-4956	14820	137	-48	-75	-15580	552	-4520	-7	-41	-81	-2368	-72	17072	30	1	3	-7852	4132	13176	-91	215	-192	-16000	2608	-4484	57	17	151	-2692	-1096	16568	18	-124	196	126	119	5
-5760	-5064	14900	112	-66	-108	-15688	536	-4640	17	-8	-54	-2352	48	16824	29	-1	0	-7876	4072	13240	-46	206	-166	-15928	2596	-4452	59	-13	149	-2676	-1096	16632	-14	-127	212	126	119	5
-5772	-5076	14772	108	-44	-88	-15576	492	-4596	-5	-1	-56	-2536	48	16880	27	-2	-1	-7852	4064	13260	-71	175	-179	-15900	2624	-4368	60	7	81	-2712	-1092	16488	17	-129	261	126	119	5
-5724	-4976	14784	141	-23	-101	-15608	552	-4740	25	-48	-20	-2416	-48	16912	27	-7	-1	-7876	4120	13280	-46	191	-179	-15844	2568	-4432	83	-52	98	-2688	-1096	16652	8	-151	236	126	119	5
-5768	-5020	14784	87	-19	-134	-15588	604	-4628	11	-80	-49	-2264	120	16920	21	-4	2	-7836	4156	13192	-95	181	-175	-15896	2608	-4448	47	-21	90	-2732	-1176	16516	14	-145	206	126	119	5
-5752	-5016	14740	86	-22	-117	-15640	636	-4564	-63	-57	-79	-2512	64	16800	25	-8	4	-7856	4112	13240	-106	145	-164	-15864	2592	-4516	79	-57	110	-2720	-1204	16516	46	-172	205	126	119	5
-5860	-4872	14924	111	-34	-121	-15556	580	-4632	-69	-81	-83	-2408	216	16784	23	-6	2	-7832	4128	13168	-88	146	-167	-15920	2524	-4428	70	-70	129	-2596	-1188	16520	73	-166	176	126	119	5
-5708	-5024	14744	58	-81	-114	-15604	612	-4620	-29	-112	-104	-2248	24	16848	21	-6	6	-7856	4084	13120	-86	147	-168	-15952	2508	-4332	106	-122	122	-2680	-1176	16628	49	-160	175	126	120	5
-5720	-5060	14804	92	-69	-128	-15620	588	-4732	-2	-101	-130	-2280	-40	17192	17	-7	6	-7832	4124	13252	-108	146	-150	-15888	2584	-4360	106	-69	121	-2456	-1096	16588	39	-137	185	126	119	5
-5740	-5060	14784	61	-6	-164	-15608	492	-4604	-6	-39	-115	-2192	-144	16896	18	-4	8	-7848	4152	13192	-94	115	-179	-15952	2584	-4456	77	-28	133	-2528	-1180	16620	73	-137	164	127	119	5
-5712	-5076	14732	51	-56	-121	-15556	476	-4592	-75	-117	-82	-2200	-176	17120	21	2	4	-7856	4084	13204	-89	123	-178	-15996	2528	-4280	67	-51	138	-2436	-1088	16684	48	-132	200	127	120	5
-5724	-5008	14848	85	-87	-108	-15692	456	-4508	-13	-50	-80	-2264	-200	16824	22	0	5	-7848	4124	13228	-138	144	-168	-15944	2588	-4424	103	-53	152	-2524	-1136	16568	20	-99	229	126	120	5
-5724	-5052	14748	114	-33	-129	-15652	452	-4512	-24	-62	-104	-2168	-112	16960	24	3	1	-7884	4116	13304	-111	121	-187	-15936	2592	-4212	77	34	128	-2536	-1144	16700	-15	-70	228	126	119	5
-5776	-5004	14752	129	-110	-94	-15600	408	-4544	-2	-49	-39	-2200	-224	16760	23	1	-2	-7860	4120	13276	-94	128	-207	-15944	2544	-4292	93	15	127	-2540	-1148	16616	22	-80	241	126	119	5
-5732	-5068	14780	136	-64	-157	-15560	480	-4600	27	-42	-22	-2336	-200	16744	29	5	-5	-7820	4112	13288	-96	151	-191	-15908	2588	-4328	103	38	118	-2632	-1152	16656	-2	-107	249	126	120	5
-5768	-5020	14896	138	-63	-116	-15616	536	-4560	2	-42	-12	-2392	-232	16952	30	6	-3	-7880	4128	13316	-95	143	-176	-15892	2556	-4364	51	37	134	-2660	-1164	16492	18	-91	264	126	119	5
-5696	-5004	14788	105	-17	-128	-15680	564	-4548	12	-19	-26	-2504	-80	16888	36	3	-2	-7836	4156	13292	-128	159	-182	-15944	2564	-4348	68	44	135	-2704	-1148	16612	-18	-120	259	127	119	5
-5752	-4948	14848	158	-38	-132	-15612	516	-4580	50	-2	-32	-2336	-112	17112	34	5	1	-7900	4144	13200	-74	168	-194	-15916	2524	-4392	79	52	120	-2672	-1184	16656	-25	-120	232	126	119	5
-5752	-5032	14852	111	-61	-114	-15628	644	-4596	20	-31	-14	-2408	32	16896	30	1	0	-7856	3988	13204	-91	175	-184	-15948	2500	-4384	91	29	117	-2732	-1220	16508	-51	-138	216	127	120	5
-5760	-5028	14852	140	-24	-126	-15604	576	-4732	14	-5	-52	-2472	-8	16904	29	0	0	-7884	4092	13308	-105	160	-177	-15832	2624	-4444	112	-20	128	-2704	-1164	16612	-21	-117	225	126	119	5
-5744	-5044	14756	100	8	-155	-15628	592	-4704	-10	-44	-21	-2296	0	17224	26	0	-1	-7904	4156	13148	-60	150	-185	-15888	2612	-4396	71	-43	159	-2688	-1144	16676	24	-123	200	126	119	5
-5736	-4960	14860	116	6	-131	-15608	648	-4652	-10	-51	-47	-2384	64	17064	23	-1	1	-7880	4124	13312	-86	162	-163	-15936	2620	-4528	67	-76	143	-2660	-1204	16632	16	-127	206	126	120	5
-5728	-4984	14732	90	-46	-101	-15584	636	-4672	-48	-49	-77	-2544	56	16888	23	-4	6	-7856	4148	13208	-96	171	-150	-15912	2556	-4376	58	-42	117	-2636	-1168	16604	63	-114	208	126	120	5
-5780	-5012	14844	84	-85	-115	-15596	552	-4720	-39	-79	-105	-2416	-72	16792	18	-3	5	-7916	4140	13276	-95	160	-132	-15900	2608	-4496	68	-55	133	-2624	-1132	16596	64	-115	236	126	120	5
-5748	-5012	14848	88	-72	-128	-15592	556	-4672	-15	-101	-66	-2368	8	17008	23	-4	8	-7880	4180	13300	-92	128	-153	-15960	2596	-4476	102	-50	155	-2708	-1124	16572	25	-128	205	126	120	5
-5736	-4992	14788	103	-37	-161	-15612	492	-4576	-40	-81	-100	-2400	-144	16848	28	-4	5	-7800	4188	13292	-94	143	-154	-15996	2572	-4328	59	-54	149	-2596	-1152	16652	88	-136	226	126	119	5
-5764	-5004	14832	112	-24	-105	-15612	540	-4532	-41	-114	-76	-2224	-56	17184	27	-6	8	-7860	4088	13252	-89	136	-179	-15948	2596	-4404	69	-11	162	-2596	-1232	16568	-1	-153	238	126	119	5
-5708	-5016	14716	115	-32	-109	-15680	452	-4664	-20	-63	-49	-2288	-104	16888	27	-3	6	-7924	4116	13216	-95	162	-164	-15920	2548	-4348	62	-4	171	-2600	-1192	16488	25	-151	190	126	119	5
-5684	-5016	14788	128	-76	-115	-15648	512	-4600	-27	-107	-16	-2432	-152	17128	24	-2	4	-7864	4108	13220	-92	163	-166	-15864	2560	-4412	85	-48	187	-2636	-1168	16608	38	-143	194	126	119	5
-5816	-5056	14900	115	-27	-116	-15640	572	-4588	28	-52	-117	-2360	-8	16912	25	-2	4	-7844	4100	13224	-110	143	-157	-15916	2536	-4464	99	-61	156	-2604	-1124	16624	31	-159	188	126	119	5
-5748	-4964	14700	115	-41	-152	-15600	572	-4608	-17	-54	-28	-2472	-160	16888	26	-3	4	-7812	4148	13248	-103	164	-181	-15936	2628	-4372	89	-18	148	-2656	-1160	16680	43	-146	183	126	119	5
-5756	-4960	14836	147	-21	-140	-15620	540	-4692	-42	-80	-15	-2328	-24	16888	26	-3	3	-7876	4040	13216	-61	177	-151	-15912	2536	-4388	104	-21	127	-2624	-1140	16588	66	-133	218	126	119	5
-5780	-5020	14644	141	-80	-127	-15616	592	-4652	12	-44	-42	-2488	-144	17024	23	-3	2	-7884	4112	13144	-80	155	-177	-15964	2572	-4404	111	-13	138	-2552	-1108	16596	39	-122	176	126	119	5
-5756	-5020	14928	118	-3	-95	-15608	588	-4664	19	-35	-107	-2288	-48	17072	23	1	1	-7884	4188	13276	-90	153	-180	-15988	2604	-4388	59	-9	161	-2640	-1136	16592	22	-117	188	126	119	5
-5796	-5028	14808	93	-4	-99	-15616	608	-4640	-37	-56	-30	-2432	-144	17080	22	4	0	-7896	4136	13284	-64	157	-170	-15940	2536	-4444	98	-60	151	-2572	-1128	16524	9	-128	229	126	119	5
-5736	-4980	14788	129	-82	-126	-15600	556	-4548	-34	-59	-86	-2488	-144	16864	22	-3	2	-7832	4180	13144	-99	146	-184	-15864	2632	-4500	108	4	128	-2632	-1124	16492	9	-112	201	126	119	5
-5768	-4992	14808	101	-89	-135	-15636	640	-4576	-31	-72	-82	-2208	-56	16784	20	-4	5	-7908	4116	13224	-130	140	-184	-15900	2624	-4404	24	-7	153	-2652	-1180	16648	45	-133	238	126	119	5
-5748	-4988	14852	103	-42	-144	-15628	548	-4640	-27	-74	-71	-2504	-72	16936	24	-1	5	-7896	4092	13148	-113	129	-157	-15888	2548	-4452	81	-66	138	-2572	-1232	16576	9	-147	250	126	119	5
-5756	-5064	14772	119	-33	-102	-15560	548	-4600	-6	-23	-71	-2248	-88	16704	23	-6	4	-7796	4084	13216	-120	147	-164	-15960	2572	-4352	116	-6	143	-2628	-1172	16508	54	-125	226	126	119	5
-5776	-4960	14800	132	-58	-112	-15624	492	-4620	-22	-36	-99	-2384	-8	16712	28	-4	1	-7812	4084	13300	-113	166	-190	-15908	2536	-4272	68	-20	122	-2668	-1136	16724	14	-107	212	126	120	5
-5740	-5044	14796	83	-46	-102	-15596	524	-4628	26	-33	-61	-2400	-112	16944	27	2	2	-7876	4144	13360	-83	147	-172	-15892	2568	-4472	66	4	123	-2660	-1212	16516	29	-133	212	126	119	5
-5740	-4984	14760	119	-44	-147	-15640	548	-4632	-3	-34	-76	-2360	-72	16992	27	-5	1	-7856	4140	13356	-140	152	-188	-15988	2560	-4456	76	6	83	-2676	-1172	16600	43	-142	216	126	119	5
-5748	-5020	14796	128	-25	-122	-15624	456	-4568	-11	-30	-57	-2488	-128	17000	26	1	4	-7820	4108	13196	-105	150	-203	-15944	2536	-4464	102	-44	128	-2672	-1208	16576	16	-145	208	126	119	5
-5764	-5044	14856	128	-105	-146	-15608	548	-4780	24	-41	-47	-2304	-112	16920	26	-6	4	-7896	4108	13340	-123	141	-181	-15932	2580	-4364	69	-18	149	-2676	-1140	16676	30	-162	201	126	119	5
-5724	-4988	14844	106	-61	-107	-15612	536	-4636	-7	-62	-13	-2440	40	17072	29	-3	-1	-7864	4128	13204	-113	131	-176	-15880	2548	-4448	78	-45	134	-2704	-1116	16632	44	-154	204	126	119	5
-5684	-4996	14880	127	-50	-146	-15568	536	-4768	-53	-94	-52	-2392	-192	16960	26	0	2	-7892	4124	13344	-53	131	-151	-15940	2524	-4256	106	-75	154	-2652	-1188	16640	40	-115	202	126	119	5
-5708	-4972	14768	102	-20	-157	-15636	604	-4612	-47	-100	-58	-2360	-88	17096	31	-1	5	-7844	4148	13132	-113	142	-180	-15916	2604	-4400	109	-54	153	-2668	-1204	16584	53	-120	193	126	119	5
-5732	-5000	14908	105	-22	-133	-15600	544	-4496	-24	-96	-25	-2408	-80	16864	26	-1	6	-7848	4076	13324	-97	163	-145	-16000	2532	-4416	93	-50	141	-2636	-1148	16560	64	-130	182	126	119	5
-5820	-5032	14784	129	-40	-91	-15648	552	-4632	4	-54	-65	-2376	-64	16768	25	-1	2	-7884	4116	13264	-74	142	-158	-15940	2632	-4372	78	-28	152	-2584	-1088	16576	31	-140	194	126	119	5
-5708	-4964	14916	98	-20	-117	-15600	528	-4656	1	-76	-41	-2200	48	16968	23	-1	4	-7836	4112	13320	-83	183	-142	-15948	2592	-4332	94	-3	153	-2548	-1096	16640	14	-102	209	126	120	5
-5656	-5036	14832	113	-16	-132	-15600	500	-4736	-10	-53	-58	-2288	-168	17000	29	-4	7	-7852	4084	13256	-73	145	-206	-15888	2624	-4356	69	1	138	-2616	-1072	16524	19	-135	234	126	119	5
-5724	-5028	14868	101	-11	-126	-15604	532	-4620	-10	-4	-45	-2328	24	17032	33	-1	-1	-7840	4140	13208	-66	186	-183	-15984	2620	-4500	32	50	120	-2620	-1080	16692	37	-143	225	126	120	5
-5724	-5056	14744	83	-58	-90	-15620	540	-4556	14	-46	-55	-2384	-32	16864	24	-3	3	-7856	4088	13204	-72	154	-203	-16000	2580	-4412	63	2	106	-2620	-1092	16708	14	-119	221	126	119	5
-5760	-5064	14772	115	-36	-123	-15584	620	-4652	15	-60	-57	-2392	-48	16720	26	2	5	-7904	4120	13240	-54	194	-168	-15900	2556	-4484	100	20	113	-2652	-1080	16692	22	-149	218	126	120	5
-5776	-5004	14764	123	-42	-95	-15572	552	-4592	-23	-45	-58	-2288	-88	16880	21	-6	2	-7864	4100	13292	-88	174	-165	-16000	2584	-4388	50	11	97	-2656	-1216	16608	48	-150	218	126	119	5
-5716	-5004	14772	134	-57	-97	-15624	636	-4528	-31	-79	-81	-2344	-40	16864	23	-6	6	-7852	4180	13356	-145	143	-203	-15924	2576	-4424	71	-4	125	-2644	-1244	16564	58	-159	215	126	120	5
-5808	-4984	14800	122	-46	-164	-15620	608	-4572	11	-83	-57	-2320	-64	16864	28	-2	6	-7836	4064	13252	-112	172	-173	-15972	2568	-4372	93	-39	92	-2624	-1272	16576	50	-105	200	126	120	5
-5704	-4988	14804	87	-43	-79	-15616	596	-4592	-71	-85	-85	-2392	-64	17176	25	-6	6	-7864	4124	13268	-98	138	-148	-15964	2572	-4388	61	-31	109	-2620	-1168	16624	25	-122	225	126	119	5
-5744	-5016	14736	115	-26	-132	-15596	532	-4628	-11	-59	-80	-2224	-96	17024	26	-5	5	-7860	4092	13168	-104	141	-149	-15968	2508	-4488	74	-27	154	-2612	-1208	16596	35	-95	171	126	119	5
-5748	-4984	14724	93	-63	-137	-15592	532	-4588	-3	-26	-92	-2280	-88	17024	19	-3	6	-7848	4052	13236	-110	161	-147	-15892	2500	-4464	120	-14	134	-2660	-1140	16588	35	-142	216	126	120	5
-5752	-5036	14852	111	-55	-147	-15572	424	-4608	-40	-66	-95	-2256	-128	16688	23	1	3	-7888	4100	13316	-52	117	-177	-15944	2632	-4476	94	-39	134	-2596	-1132	16620	30	-136	181	126	119	5
-5756	-5020	14872	101	-74	-118	-15604	528	-4620	-38	-89	-50	-2408	-128	16992	28	1	3	-7796	4060	13332	-76	117	-164	-15968	2604	-4444	80	-48	152	-2604	-1136	16588	43	-109	184	126	119	5
-5772	-5008	14824	115	-22	-136	-15588	468	-4672	-30	-55	-31	-2304	-224	17232	23	-2	-1	-7860	4100	13352	-78	125	-179	-15956	2552	-4440	89	-32	146	-2564	-1160	16636	37	-127	203	126	119	5
-5744	-5000	14812	95	-49	-132	-15588	560	-4572	17	-46	-46	-2256	-80	16968	23	3	3	-7880	4104	13200	-79	154	-195	-15944	2616	-4404	64	-40	145	-2616	-1116	16592	74	-127	227	126	119	5
-5736	-4992	14776	131	-64	-107	-15644	568	-4668	25	-42	-16	-2320	-208	16880	27	-3	-2	-7880	4080	13384	-116	131	-171	-15988	2584	-4432	76	-13	113	-2588	-1060	16608	35	-119	238	126	119	5
-5716	-5016	14844	128	-53	-124	-15600	572	-4608	5	-91	-37	-2368	-120	16992	29	-4	1	-7868	4112	13188	-163	138	-168	-15948	2576	-4492	66	-35	130	-2544	-1256	16584	26	-159	226	126	119	5
-5732	-4984	14880	118	-64	-126	-15608	584	-4576	-30	-69	-31	-2376	-32	16968	27	-4	3	-7852	4180	13316	-111	163	-148	-15912	2540	-4368	103	-5	125	-2656	-1192	16536	30	-150	229	126	119	5
-5744	-4972	14824	95	-24	-97	-15628	572	-4636	-10	-28	-35	-2368	-8	16888	30	-5	6	-7912	4104	13240	-92	149	-180	-15864	2616	-4428	83	-4	148	-2640	-1168	16600	30	-150	198	126	119	5
-5776	-5048	14724	121	-28	-108	-15596	676	-4600	-2	-64	-59	-2360	-104	17112	23	-4	6	-7860	4124	13316	-104	175	-177	-15932	2564	-4408	77	-19	122	-2616	-1132	16564	23	-143	199	126	119	5
-5804	-4952	14732	109	-44	-87	-15608	616	-4640	-26	-50	-52	-2408	72	16976	33	-3	4	-7876	4132	13236	-95	132	-136	-15944	2544	-4440	73	-35	130	-2608	-1112	16640	20	-132	199	126	119	5
-5736	-5008	14784	105	-91	-89	-15608	592	-4608	-10	-78	-112	-2440	16	16856	25	-1	4	-7880	4144	13252	-90	155	-167	-15924	2580	-4448	123	-38	107	-2588	-1080	16660	53	-120	174	126	120	5
-5692	-4928	14792	105	-47	-136	-15636	552	-4648	-21	-64	-51	-2232	-128	16944	23	1	2	-7920	4124	13248	-72	160	-177	-15968	2584	-4516	101	-94	156	-2628	-1124	16604	32	-129	166	126	119	5
-5764	-4992	14792	122	-58	-150	-15604	492	-4628	-30	-71	-78	-2440	-168	16864	21	-2	2	-7820	4120	13168	-109	150	-162	-16008	2588	-4444	72	-36	130	-2564	-1132	16624	50	-147	201	126	119	5
-5792	-4972	14876	101	-72	-142	-15620	516	-4564	-21	-57	-120	-2360	-64	16904	19	-1	4	-7828	4084	13312	-81	137	-148	-15952	2608	-4396	111	-45	133	-2592	-1044	16612	28	-181	178	126	120	5
-5740	-5044	14780	77	-38	-143	-15596	512	-4612	-25	-43	-49	-2392	-32	17088	21	-2	1	-7852	4180	13252	-133	136	-180	-15952	2592	-4364	54	-10	145	-2524	-1124	16632	-1	-110	199	126	119	5
-5760	-4988	14836	134	-50	-115	-15620	544	-4620	-27	-88	-55	-2384	-176	17032	26	3	1	-7836	4168	13252	-72	172	-145	-15928	2556	-4480	76	11	108	-2584	-1128	16668	-6	-150	207	126	119	5
-5744	-5008	14928	138	-53	-141	-15628	512	-4612	-11	-49	-37	-2200	-240	17200	28	2	-2	-7844	4108	13168	-74	139	-162	-15928	2632	-4516	86	-5	111	-2572	-1092	16704	15	-116	247	126	120	5
-5760	-4972	14880	90	-35	-106	-15700	572	-4748	23	-21	-67	-2400	-168	17120	26	3	4	-7880	4144	13160	-120	148	-177	-15940	2592	-4384	75	23	117	-2596	-1220	16612	34	-126	222	126	120	5
-5764	-5000	14756	116	-65	-149	-15628	560	-4540	-22	-24	-80	-2384	-112	17008	28	-1	0	-7888	4116	13308	-85	175	-167	-15940	2628	-4360	44	17	127	-2580	-1096	16628	16	-106	220	126	120	5
-5760	-5044	14852	115	-65	-134	-15628	560	-4564	-10	-27	-43	-2296	-176	17048	24	-1	5	-7856	4092	13308	-80	165	-196	-16008	2556	-4356	59	22	97	-2672	-1184	16516	35	-143	252	126	120	5
-5816	-5000	14864	114	-66	-113	-15632	576	-4580	-12	-36	-44	-2392	-176	17056	27	0	5	-7876	4104	13332	-86	152	-175	-16000	2588	-4456	72	13	119	-2708	-1204	16604	33	-129	254	126	120	5
-5724	-5064	14796	142	-57	-117	-15656	476	-4684	-32	-56	-26	-2384	-96	17008	28	2	4	-7880	4140	13276	-94	158	-163	-15972	2580	-4572	61	-12	166	-2620	-1200	16560	61	-150	240	126	119	5
-5820	-5028	14772	129	-60	-136	-15580	544	-4628	-22	-57	-48	-2384	-88	16952	26	-3	5	-7852	4140	13264	-81	199	-180	-15952	2576	-4540	87	-9	148	-2688	-1156	16604	61	-128	213	126	120	5
-5772	-4984	14776	115	-13	-114	-15684	560	-4568	-21	-76	-23	-2296	-32	16784	29	0	2	-7832	4088	13320	-81	176	-130	-15916	2548	-4448	80	3	142	-2648	-1180	16644	38	-168	228	126	120	5
-5764	-4988	14812	120	-83	-114	-15600	564	-4612	5	-68	-25	-2280	-48	17056	27	-6	0	-7856	4096	13268	-122	155	-159	-15896	2572	-4504	100	-45	139	-2716	-1176	16544	36	-164	189	126	119	5
-5780	-4952	14820	99	-57	-103	-15616	556	-4752	-37	-55	-49	-2264	-96	17008	26	-5	2	-7884	4156	13340	-101	133	-146	-15896	2520	-4448	97	-56	182	-2660	-1264	16664	31	-140	228	126	120	5
-5764	-5020	14772	126	-72	-103	-15676	652	-4644	-16	-13	-50	-2552	-8	17008	28	-3	5	-7876	4136	13300	-109	155	-176	-15900	2612	-4420	97	-30	160	-2652	-1148	16660	59	-157	171	126	120	5
-5748	-5016	14756	112	-66	-127	-15624	648	-4684	-26	-78	-52	-2328	-88	16920	25	-5	3	-7868	4120	13316	-94	158	-173	-15904	2636	-4460	91	-24	123	-2604	-1108	16632	79	-153	179	126	120	5
-5776	-4996	14752	117	-10	-148	-15680	528	-4556	9	-102	8	-2408	-112	16528	22	-4	5	-7888	4096	13372	-79	125	-167	-15952	2664	-4344	81	-32	123	-2588	-1100	16720	63	-127	181	126	120	5
-5704	-4984	14852	87	-1	-120	-15552	576	-4732	-8	-73	-70	-2320	24	16936	21	-3	5	-7864	4064	13320	-78	122	-136	-15960	2620	-4364	80	-42	131	-2616	-1044	16632	11	-150	196	126	120	5
-5708	-4996	14872	121	-92	-114	-15632	560	-4592	-75	-86	-69	-2296	-112	17016	24	-6	3	-7884	4112	13304	-106	169	-180	-15936	2660	-4420	91	-57	147	-2500	-1096	16524	13	-164	178	126	120	5
-5756	-5060	14816	114	-28	-154	-15584	584	-4632	-35	-54	-76	-2232	24	16896	19	-2	6	-7864	4092	13184	-116	142	-182	-15924	2588	-4448	82	-10	116	-2528	-1084	16584	12	-115	226	126	120	5
-5792	-4976	14768	111	-60	-122	-15628	568	-4584	-45	-94	-107	-2320	-64	16952	23	-4	1	-7860	4132	13196	-112	191	-169	-15928	2624	-4508	71	10	92	-2584	-1140	16560	-29	-136	228	126	120	5
-5704	-4996	14776	114	-38	-137	-15608	548	-4604	-6	-56	-57	-2272	24	17000	21	-1	4	-7852	4136	13220	-126	153	-223	-15912	2580	-4320	59	-34	127	-2620	-1164	16540	8	-147	198	126	119	5
-5704	-4932	14748	135	-50	-138	-15600	472	-4552	15	-30	-72	-2328	24	17064	21	-2	3	-7892	4136	13284	-126	158	-205	-15908	2572	-4436	41	-24	138	-2580	-1140	16720	19	-136	221	126	120	5
-5732	-5004	14752	109	-53	-134	-15596	576	-4716	13	-29	-75	-2224	-104	16800	20	-1	-1	-7896	4124	13312	-104	145	-182	-15968	2552	-4288	83	-25	112	-2672	-1132	16692	0	-117	218	126	120	5
-5716	-4960	14884	89	-54	-173	-15636	620	-4704	-49	-32	-104	-2296	-24	16736	26	-1	6	-7876	4168	13292	-108	175	-209	-15924	2588	-4340	102	-14	108	-2648	-1144	16528	2	-124	217	126	120	5
-5764	-5040	14784	74	-37	-107	-15644	484	-4660	-18	-36	-68	-2384	-48	16992	22	-1	2	-7972	4180	13296	-119	132	-151	-15908	2568	-4480	87	1	122	-2600	-1232	16656	29	-109	188	126	120	5
-5724	-5036	14772	141	-62	-99	-15672	540	-4532	29	-41	-45	-2240	0	16936	20	1	3	-7852	4104	13264	-118	161	-154	-15956	2524	-4420	57	37	132	-2604	-1200	16608	2	-94	217	126	120	5
-5728	-4964	14796	78	-31	-126	-15644	472	-4624	38	-54	-49	-2496	-104	17136	22	1	1	-7900	4152	13240	-79	155	-189	-15984	2516	-4372	100	-7	145	-2564	-1212	16624	-29	-101	208	127	119	5
-5812	-5028	14748	115	-43	-101	-15644	500	-4620	28	-38	-33	-2416	-88	17016	27	3	1	-7920	4112	13240	-83	138	-175	-15960	2556	-4344	68	-27	152	-2596	-1116	16468	18	-104	191	126	120	5
-5716	-4988	14848	114	20	-141	-15616	580	-4664	-12	-21	-66	-2384	-88	17064	34	-1	4	-7860	4040	13236	-41	202	-165	-15952	2620	-4372	42	1	139	-2596	-1204	16592	17	-107	202	126	120	5
-5704	-5024	14832	123	-55	-120	-15612	476	-4628	-10	-13	-19	-2376	-120	16824	28	0	3	-7924	4156	13256	-77	198	-143	-15960	2576	-4352	60	-7	134	-2724	-1184	16648	32	-134	229	126	120	5
-5724	-4992	14744	124	-58	-115	-15644	504	-4604	22	-38	-24	-2464	-88	16848	30	1	6	-7904	4100	13312	-75	191	-185	-15968	2512	-4396	103	24	156	-2644	-1160	16568	28	-130	217	126	120	5
-5692	-4956	14760	128	-39	-116	-15608	532	-4576	-8	-68	-72	-2376	-144	16776	27	1	6	-7880	4160	13328	-115	155	-176	-15936	2548	-4360	75	14	126	-2624	-1116	16584	0	-146	202	126	120	5
-5768	-5036	14752	119	-37	-102	-15592	560	-4560	-13	-49	-36	-2336	-152	16768	27	-4	5	-7876	4104	13248	-91	167	-167	-15924	2620	-4436	75	-36	127	-2640	-1148	16672	25	-168	218	126	120	5
-5692	-5012	14880	114	-70	-127	-15560	572	-4644	-39	-51	-32	-2320	128	16896	28	-4	5	-7860	4124	13124	-59	173	-185	-15928	2556	-4512	87	-13	168	-2676	-1132	16636	41	-141	215	126	120	5
-5708	-5028	14788	111	-57	-121	-15628	564	-4692	-26	-69	-62	-2488	8	17112	27	-2	4	-7856	4140	13244	-83	159	-183	-15944	2552	-4432	51	-16	132	-2676	-1208	16672	64	-119	232	126	120	5
-5768	-4988	14808	112	-68	-132	-15672	512	-4616	5	-60	-67	-2464	-112	16768	26	-2	5	-7852	4116	13324	-108	121	-188	-15940	2572	-4428	82	-59	112	-2624	-1140	16544	54	-114	198	126	120	5
-5728	-5044	14848	89	-36	-151	-15664	524	-4728	28	-53	-90	-2424	-48	16848	25	-6	6	-7860	4108	13288	-125	149	-162	-15912	2508	-4460	92	-45	139	-2640	-1112	16624	14	-143	191	126	120	5
-5732	-4972	14828	104	-25	-125	-15612	568	-4684	-41	-84	-103	-2232	-112	17048	25	-3	5	-7848	4128	13308	-114	156	-158	-15924	2640	-4300	106	-5	109	-2632	-1172	16572	64	-144	189	126	120	5
-5744	-5068	14872	103	-42	-152	-15636	568	-4756	-30	-70	-55	-2400	-24	16688	26	-1	4	-7908	4076	13220	-139	139	-213	-15944	2604	-4492	64	-31	104	-2636	-1100	16580	17	-148	202	126	120	5
-5768	-5024	14816	118	-34	-127	-15608	548	-4536	-39	-54	-61	-2368	-88	17096	22	-5	1	-7836	4152	13232	-121	142	-216	-15920	2600	-4452	87	-14	116	-2644	-1176	16520	50	-120	206	126	121	5
-5692	-5004	14776	126	-38	-119	-15604	520	-4608	-15	-35	-90	-2232	-72	16936	25	-4	4	-7840	4128	13248	-111	130	-178	-15968	2596	-4348	134	-49	140	-2580	-1152	16640	-8	-132	173	126	120	5
-5784	-5012	14800	105	-8	-132	-15648	552	-4556	16	-34	-65	-2304	-136	17136	21	-1	2	-7840	4116	13288	-113	126	-171	-15924	2584	-4476	89	-28	139	-2548	-1152	16648	-7	-110	209	126	121	5
-5800	-5068	14848	139	-75	-139	-15596	560	-4624	47	-18	-86	-2280	-192	17208	25	-1	0	-7884	4116	13276	-109	146	-185	-15884	2584	-4380	86	3	135	-2560	-1168	16700	-21	-153	207	126	121	5
-5740	-5000	14796	121	17	-120	-15644	448	-4696	17	-19	-63	-2456	-88	17024	21	-3	0	-7832	4184	13136	-78	157	-152	-15984	2560	-4364	76	-25	126	-2568	-1164	16596	-13	-102	199	126	121	5
-5712	-5028	14720	96	-53	-131	-15640	528	-4572	-15	-33	-47	-2328	-8	16936	25	-2	1	-7892	4116	13284	-101	194	-196	-15944	2604	-4428	73	-10	142	-2576	-1160	16616	-6	-158	168	126	121	5
-5760	-5004	14760	131	-56	-138	-15548	548	-4584	-8	-53	-36	-2464	-48	17064	23	2	-1	-7844	4124	13352	-109	139	-211	-15968	2496	-4412	89	-23	148	-2604	-1208	16536	-2	-137	205	126	121	5
-5736	-4996	14800	119	-32	-107	-15636	524	-4636	23	-61	-58	-2408	8	16800	23	-4	-1	-7812	4116	13272	-77	161	-203	-15964	2608	-4432	103	25	159	-2584	-1128	16664	-10	-120	222	126	121	5
-5724	-4992	14732	120	-50	-120	-15600	580	-4744	-6	-30	-53	-2392	-208	16920	25	-3	3	-7884	4120	13288	-111	144	-188	-15964	2576	-4396	89	-68	93	-2732	-1092	16608	33	-104	210	126	121	5
-5780	-5032	14780	113	-8	-122	-15608	524	-4556	-31	-47	-73	-2432	-32	16768	23	-3	3	-7856	4144	13204	-110	149	-173	-15936	2572	-4472	43	-27	108	-2704	-1212	16604	47	-108	222	126	121	5
-5752	-5016	14976	92	8	-108	-15612	560	-4644	16	-74	-59	-2344	-64	16896	27	-7	6	-7900	4120	13272	-106	133	-155	-15936	2572	-4556	47	-15	160	-2680	-1160	16572	47	-132	242	126	120	5
-5724	-5064	14772	103	-37	-135	-15640	564	-4656	-7	-91	-54	-2488	-128	16776	28	-2	5	-7820	4136	13236	-77	168	-153	-15908	2488	-4496	76	-58	158	-2596	-1168	16516	17	-137	211	126	121	5
-5724	-5016	14784	93	-57	-130	-15600	572	-4792	-37	-72	-52	-2376	-96	16952	29	-5	3	-7912	4092	13292	-95	130	-144	-15960	2600	-4448	125	-30	148	-2652	-1240	16536	37	-152	177	126	120	5
-5784	-5000	14828	106	-40	-118	-15704	452	-4576	-32	-75	-66	-2384	-280	16888	30	-7	4	-7844	4096	13292	-73	153	-149	-15944	2556	-4352	82	-52	158	-2548	-1184	16620	83	-138	227	126	121	5
-5772	-5000	14704	141	-86	-125	-15576	548	-4632	-3	-68	-2	-2264	-144	16720	28	-4	1	-7880	4084	13188	-91	165	-163	-15936	2564	-4436	81	-25	169	-2632	-1184	16528	72	-133	215	126	121	5
-5724	-4948	14740	108	-61	-130	-15576	520	-4668	-31	-81	-15	-2232	0	17008	23	1	6	-7900	4136	13244	-77	136	-157	-15924	2544	-4364	96	-15	170	-2620	-1188	16608	74	-109	202	126	120	5
-5744	-5016	14724	130	-20	-149	-15628	516	-4580	-31	-40	-57	-2376	-104	16904	21	-2	9	-7896	4156	13296	-99	152	-143	-15948	2588	-4400	134	-25	137	-2576	-1172	16644	39	-121	220	126	121	5
-5720	-4992	14700	106	-86	-87	-15632	528	-4648	-20	-56	-30	-2392	-88	16968	26	-3	7	-7880	4112	13336	-87	141	-151	-15884	2568	-4408	114	-2	187	-2600	-1144	16636	24	-156	202	126	121	5
-5760	-5052	14824	131	-51	-124	-15600	516	-4684	-12	-44	-62	-2376	16	16880	38	-8	4	-7876	4112	13216	-104	160	-170	-15880	2624	-4416	74	-43	124	-2620	-1076	16512	69	-136	213	126	121	5
-5720	-4940	14796	117	-9	-139	-15636	556	-4560	-5	-52	-54	-2272	-8	16824	30	-1	1	-7832	4152	13220	-98	147	-176	-15916	2644	-4468	80	-24	121	-2584	-1120	16596	76	-120	204	126	121	5
-5756	-5056	14772	101	-58	-115	-15696	572	-4652	-9	-61	-45	-2360	40	17088	26	2	4	-7904	4116	13196	-79	137	-171	-15932	2584	-4456	45	-10	129	-2668	-1108	16576	47	-132	220	126	121	5
-5744	-5008	14828	100	-32	-114	-15612	552	-4672	-17	-95	-38	-2336	-112	17056	25	-6	6	-7820	4104	13336	-113	173	-146	-15936	2608	-4328	87	-25	112	-2552	-1144	16592	67	-114	218	126	121	5
-5704	-5008	14868	87	-49	-139	-15560	516	-4664	-29	-47	-91	-2376	56	16944	27	-3	-4	-7840	4100	13224	-66	140	-185	-15948	2580	-4328	91	-25	114	-2580	-1140	16544	15	-117	203	127	121	5
-5824	-5028	14676	107	-45	-108	-15596	620	-4700	18	-70	-61	-2320	-40	16968	29	0	-4	-7900	4120	13192	-119	167	-187	-15932	2564	-4400	84	-21	119	-2656	-1180	16476	14	-115	185	126	120	5
-5756	-5016	14880	80	-15	-104	-15620	596	-4672	-33	-55	-125	-2456	32	17112	18	6	2	-7868	4048	13312	-135	139	-164	-15924	2568	-4380	41	-43	120	-2672	-1180	16476	-1	-126	211	126	120	5
-5712	-5020	14844	101	-56	-124	-15688	564	-4584	-47	-55	-69	-2360	-168	16888	14	1	2	-7876	4108	13216	-112	177	-174	-15988	2552	-4336	66	-42	137	-2592	-1224	16540	-8	-170	208	126	120	5
-5752	-5020	14780	111	-38	-170	-15572	548	-4528	32	-60	-87	-2360	-200	17024	24	-2	4	-7952	4128	13244	-71	154	-152	-15896	2500	-4464	119	-17	149	-2684	-1220	16688	-2	-152	178	126	120	5
-5768	-5060	14824	118	-47	-135	-15612	492	-4592	-2	-58	-116	-2280	-120	17008	29	-1	6	-7860	4140	13264	-105	160	-171	-15944	2552	-4464	124	-6	196	-2584	-1144	16668	-22	-140	205	126	121	5
-5792	-4988	14856	85	-19	-118	-15624	492	-4588	-69	-29	-90	-2392	-160	17144	21	6	4	-7816	4108	13364	-45	149	-152	-15940	2580	-4424	83	-8	119	-2608	-1192	16644	58	-178	183	126	120	5
-5728	-5076	14760	114	-85	-154	-15668	420	-4664	-33	-29	-57	-2344	-288	16992	15	5	-1	-7856	4096	13236	-87	145	-222	-15908	2532	-4364	52	-28	139	-2568	-1172	16540	75	-107	186	127	120	5
-5744	-5044	14740	123	-53	-132	-15604	452	-4708	-1	-33	-3	-2480	-88	17128	13	11	-2	-7832	4068	13244	-88	195	-140	-15964	2504	-4568	89	1	164	-2688	-1112	16516	96	-141	203	126	121	5
-5736	-4988	14860	141	-102	-107	-15636	492	-4616	19	-7	19	-2536	8	16920	27	6	-1	-7868	4160	13292	-95	155	-161	-16024	2572	-4520	116	-34	159	-2640	-1124	16624	52	-143	185	126	121	5
-5780	-4988	14760	124	-69	-136	-15656	624	-4740	-31	-18	-2	-2272	24	16776	38	-7	-8	-7836	4124	13256	-98	132	-157	-15884	2588	-4384	118	-50	163	-2588	-1200	16616	-59	-171	209	126	121	5
-5800	-5020	14744	117	-37	-95	-15572	592	-4728	-36	-45	-42	-2232	48	17064	30	-1	-9	-7832	4116	13296	-75	129	-112	-15884	2552	-4516	89	-59	155	-2584	-1076	16664	62	-105	215	126	121	5
-5712	-5008	14800	128	-61	-114	-15656	544	-4480	-11	-83	-70	-2528	-24	17232	15	5	6	-7876	4124	13272	-63	135	-173	-15976	2588	-4340	108	-34	148	-2604	-1128	16652	105	-122	139	126	120	5
-5704	-4948	14808	73	6	-155	-15744	572	-4500	33	-83	-19	-2528	-64	17056	4	2	9	-7816	4144	13284	-93	133	-168	-15972	2660	-4352	68	-57	154	-2444	-1268	16572	197	-112	195	126	121	5
-5776	-5020	14772	84	-24	-122	-15560	540	-4696	70	-84	-69	-2352	-120	17112	24	-4	2	-7872	4132	13228	-86	143	-185	-15980	2624	-4320	60	-22	102	-2500	-1052	16628	80	-86	287	126	120	5
-5748	-5000	14864	117	-50	-116	-15544	648	-4680	66	-89	-86	-2320	-96	16968	39	-7	2	-7876	4152	13352	-104	140	-168	-15908	2596	-4284	54	-36	128	-2624	-944	16680	27	-120	224	126	121	5
-5744	-5028	14752	96	-72	-102	-15680	680	-4600	-116	-41	-76	-2512	-64	17056	36	0	0	-7868	4148	13276	-66	114	-177	-15988	2608	-4412	81	24	104	-2692	-1036	16652	-20	-196	187	126	121	5
-5792	-5036	14772	76	-61	-132	-15660	556	-4576	-117	-31	-114	-2264	-72	16728	23	7	7	-7860	4108	13196	-114	158	-202	-15920	2636	-4388	59	22	96	-2668	-1120	16652	-88	-214	223	126	121	5
-5728	-5024	14820	90	-20	-132	-15632	380	-4644	35	-63	-93	-2368	-208	17144	10	6	-4	-7864	4116	13248	-93	154	-168	-15988	2520	-4488	45	-16	91	-2632	-1204	16524	-109	-159	220	126	121	5
-5788	-5052	14832	123	-35	-131	-15564	472	-4644	113	-49	-74	-2264	-96	16832	7	4	-14	-7900	4116	13232	-116	166	-207	-15948	2520	-4424	70	19	125	-2560	-1244	16564	-69	-107	183	126	121	5
-5720	-5040	14808	116	-47	-119	-15640	616	-4640	27	-74	-48	-2392	-136	17112	18	6	-4	-7908	4152	13360	-131	191	-177	-15864	2532	-4468	108	20	136	-2532	-1308	16592	25	-87	167	126	120	5
-5764	-5008	14800	79	-31	-143	-15556	624	-4620	-86	-42	-84	-2440	-88	17232	21	12	-5	-7848	4116	13248	-51	169	-158	-15892	2512	-4440	65	-13	118	-2552	-1276	16584	121	-61	254	126	121	5
-5760	-5024	14824	72	-46	-110	-15628	504	-4552	-60	-25	-80	-2424	-448	17016	19	10	-3	-7880	4172	13268	-46	211	-178	-16004	2528	-4512	29	43	117	-2700	-1260	16564	151	-67	263	126	121	5
-5708	-5084	14792	90	-38	-127	-15572	424	-4580	77	-44	-85	-2472	-216	16952	13	8	-2	-7832	4180	13316	-71	224	-184	-15956	2576	-4436	32	4	155	-2564	-1196	16564	122	-94	273	126	121	5
-5672	-4984	14776	110	-21	-130	-15616	596	-4616	23	-63	-95	-2416	-216	17072	18	-1	0	-7960	4112	13288	-14	197	-202	-15900	2496	-4432	96	12	169	-2700	-1136	16628	72	-133	262	126	121	5
-5748	-5016	14824	109	-59	-115	-15616	564	-4580	-40	-49	-60	-2288	-248	16840	24	0	2	-7872	4108	13152	-64	182	-153	-15916	2560	-4476	112	-39	190	-2732	-1008	16576	86	-106	204	126	121	5
-5760	-5088	14772	109	-31	-102	-15544	432	-4648	-11	-45	-94	-2624	-384	17144	24	2	-1	-7844	4136	13248	-45	179	-168	-15956	2612	-4376	72	-83	154	-2748	-1068	16612	36	-118	202	126	121	5
-5712	-5084	14876	134	-35	-111	-15608	492	-4676	19	-64	-66	-2512	24	16992	28	-4	-4	-7908	4088	13316	-71	171	-170	-15888	2572	-4448	67	-44	121	-2728	-1096	16528	18	-155	200	127	120	5
-5732	-5008	14908	124	-72	-114	-15540	560	-4536	-40	-89	-29	-2520	16	17024	36	-9	-5	-7836	4040	13308	-107	170	-181	-15900	2612	-4416	77	-54	140	-2604	-1116	16584	34	-180	191	126	121	5
-5816	-4972	14776	109	-17	-98	-15596	588	-4564	-22	-100	-44	-2408	16	16920	29	-3	-9	-7876	4192	13328	-98	156	-192	-15908	2568	-4440	133	-55	148	-2668	-1172	16636	-16	-164	188	127	121	5
-5788	-4968	14844	125	-50	-121	-15528	604	-4556	-22	-75	-70	-2336	-128	17192	21	-6	3	-7856	4148	13356	-91	138	-178	-16000	2616	-4368	85	-100	113	-2640	-1220	16648	-32	-160	198	126	121	5
-5752	-5096	14832	102	-53	-137	-15620	608	-4676	-3	-122	-104	-2416	-144	17000	14	-4	11	-7908	4104	13240	-80	123	-176	-15860	2560	-4368	98	-49	139	-2604	-1224	16516	43	-153	238	127	121	5
-5676	-5016	14760	86	-54	-147	-15644	568	-4600	-28	-81	-104	-2368	-192	16944	31	-9	16	-7892	4096	13368	-59	113	-156	-15984	2500	-4396	66	-63	151	-2548	-1268	16632	77	-143	213	127	121	5
-5712	-5024	14932	104	-34	-147	-15600	480	-4620	-64	-75	-108	-2456	-208	16880	46	-12	14	-7872	4152	13280	-106	120	-175	-15884	2516	-4324	81	-15	120	-2528	-1228	16632	106	-96	248	127	121	5
-5764	-5060	14828	90	-57	-126	-15592	484	-4616	-53	-82	-94	-2280	8	16968	39	-10	9	-7876	4160	13220	-73	142	-134	-15964	2572	-4328	87	-20	148	-2544	-1088	16644	108	-88	234	126	121	5
-5764	-5028	14796	43	-56	-135	-15632	504	-4480	-61	-106	-85	-2216	-80	16896	26	-1	2	-7860	4168	13252	-109	172	-164	-15988	2620	-4316	93	1	173	-2564	-1040	16644	95	-115	242	127	121	5
-5744	-5032	14852	139	-45	-148	-15664	464	-4536	-25	-69	-67	-2224	-160	16840	13	8	4	-7840	4144	13268	-112	132	-179	-15960	2652	-4340	64	12	137	-2604	-1124	16556	70	-89	231	126	120	5
-5732	-5000	14804	145	-60	-113	-15628	448	-4480	4	-36	-80	-2424	-160	16856	19	6	1	-7828	4120	13264	-123	169	-170	-15972	2596	-4332	80	18	142	-2572	-1140	16572	41	-136	213	126	120	5
-5656	-4968	14704	155	-94	-118	-15644	516	-4688	20	-41	-57	-2472	-152	16936	35	-8	1	-7852	4144	13352	-115	176	-201	-15900	2512	-4420	95	20	173	-2592	-1148	16652	-6	-133	191	126	121	5
-5684	-4984	14740	83	-59	-117	-15632	580	-4592	-18	-36	-53	-2392	-152	17192	45	-12	-4	-7900	4084	13272	-73	138	-180	-15940	2584	-4312	141	51	143	-2700	-1144	16588	-15	-151	223	126	121	5
-5828	-5008	14800	113	-62	-112	-15568	556	-4676	-55	-49	-53	-2504	-272	16904	35	-2	3	-7868	4140	13316	-88	155	-189	-15904	2652	-4352	93	-12	143	-2696	-1112	16584	-8	-110	213	126	120	5
-5788	-5016	14824	106	-32	-167	-15588	476	-4588	-16	-49	-70	-2472	-144	16816	28	-5	6	-7880	4116	13324	-77	116	-186	-15864	2544	-4560	30	-4	161	-2644	-1108	16656	17	-113	197	126	121	5
-5724	-5012	14744	107	-6	-119	-15648	456	-4620	38	-71	-75	-2304	-96	16960	20	-5	5	-7892	4092	13332	-87	184	-175	-15984	2564	-4412	86	-26	144	-2652	-1148	16652	-6	-142	183	126	120	5
-5780	-5076	14764	79	-59	-121	-15612	520	-4524	42	-59	-62	-2456	-8	16864	24	-2	-4	-7816	4136	13236	-70	161	-159	-15884	2552	-4476	155	4	152	-2612	-1156	16668	-15	-104	166	126	121	5
-5764	-5016	14880	122	-118	-134	-15644	608	-4700	-32	-78	-54	-2392	-32	16944	32	-2	-8	-7836	4120	13328	-68	139	-160	-15904	2596	-4428	122	-58	122	-2632	-1112	16684	-15	-99	213	126	121	5
-5776	-5064	14864	122	-56	-121	-15600	560	-4688	-72	-42	-70	-2256	0	16848	20	-4	-2	-7820	4100	13268	-87	168	-173	-15892	2660	-4356	71	-4	143	-2664	-1132	16648	5	-114	204	126	121	5
-5760	-5008	14968	95	13	-117	-15632	560	-4644	-1	-45	-57	-2336	-8	17072	18	3	6	-7884	4100	13288	-94	133	-149	-15952	2556	-4248	85	-24	124	-2584	-1156	16544	16	-167	210	126	121	5
-5756	-5020	14740	118	-37	-124	-15640	516	-4632	52	-41	-58	-2240	0	17000	24	-4	6	-7892	4068	13316	-105	154	-186	-15952	2612	-4356	113	9	104	-2584	-1224	16636	16	-122	201	126	121	5
-5708	-5020	14836	98	-59	-131	-15632	560	-4612	20	-64	-64	-2288	-208	16848	27	0	4	-7828	4120	13200	-101	161	-188	-15900	2572	-4412	95	-39	128	-2556	-1128	16540	13	-116	228	126	121	5
-5748	-4996	14936	106	-62	-141	-15564	600	-4560	-31	-39	-54	-2376	-96	17128	36	3	0	-7872	4112	13284	-133	166	-197	-15916	2612	-4244	80	-6	191	-2580	-1184	16592	61	-128	250	126	121	5
-5712	-5040	14760	143	-72	-119	-15596	456	-4672	-60	-37	-62	-2432	-152	16920	32	3	2	-7860	4148	13264	-92	169	-182	-15916	2612	-4400	79	29	127	-2628	-1156	16624	16	-114	238	126	121	5
-5744	-4984	14848	125	-3	-157	-15656	480	-4688	-39	-64	-11	-2472	-160	17112	31	1	1	-7856	4168	13196	-96	175	-159	-15948	2588	-4424	64	-28	138	-2680	-1064	16592	58	-122	234	126	121	5
-5744	-5024	14776	109	-54	-117	-15528	404	-4608	-26	-34	-20	-2440	-104	17208	27	0	-4	-7868	4140	13292	-77	146	-163	-15916	2564	-4444	70	-2	159	-2640	-1124	16496	46	-153	248	126	121	5
-5704	-5008	14804	125	-58	-117	-15624	568	-4592	29	-48	-31	-2400	-160	16912	31	-3	-4	-7848	4156	13284	-120	177	-202	-15968	2576	-4580	94	-20	146	-2636	-1160	16544	34	-141	257	126	121	5
-5768	-4940	14820	137	-67	-105	-15576	604	-4632	40	-15	-15	-2400	-80	16992	31	0	0	-7852	4080	13288	-99	139	-164	-15908	2608	-4492	117	-32	119	-2668	-1148	16676	25	-140	237	126	121	5
-5736	-5012	14788	149	-59	-136	-15636	592	-4612	-9	-56	-23	-2344	-32	17072	30	2	-1	-7872	4112	13228	-90	127	-160	-15960	2556	-4488	114	-25	135	-2684	-1168	16616	33	-132	229	126	121	5
-5728	-4984	14948	87	-29	-102	-15528	564	-4656	10	-41	-24	-2520	0	16824	27	-2	2	-7896	4092	13252	-93	144	-198	-15908	2568	-4456	61	-40	128	-2672	-1152	16600	54	-130	193	126	121	5
-5752	-5024	14800	91	-8	-132	-15576	640	-4696	3	-68	-69	-2416	-48	16952	31	-5	3	-7948	4116	13372	-93	154	-176	-15900	2556	-4380	89	-39	143	-2604	-1120	16556	30	-145	231	126	121	5
-5724	-5048	14860	87	-19	-127	-15728	604	-4576	-10	-81	-80	-2416	24	16944	25	-2	2	-7812	4084	13232	-62	141	-146	-15940	2620	-4464	91	-37	125	-2624	-1224	16528	26	-152	210	126	121	5
-5728	-5016	14724	95	-51	-165	-15548	528	-4608	-27	-76	-102	-2464	-80	16944	30	1	7	-7884	4136	13212	-73	127	-166	-15940	2556	-4380	75	-56	150	-2636	-1220	16724	44	-169	236	126	121	5
-5780	-5012	14760	128	-54	-102	-15640	508	-4584	-55	-78	-60	-2416	-208	16672	30	-1	4	-7900	4108	13240	-81	167	-142	-15904	2572	-4416	71	-50	165	-2596	-1108	16592	76	-123	218	126	121	5
-5760	-5012	14808	77	-43	-125	-15628	508	-4560	-16	-100	-80	-2240	-120	16944	29	-7	4	-7840	4116	13364	-94	136	-145	-15948	2592	-4348	128	-66	178	-2604	-1100	16516	36	-128	232	127	121	5
-5776	-5056	14904	112	-53	-153	-15604	516	-4524	-29	-60	-61	-2352	-200	16968	29	-5	3	-7868	4152	13248	-79	134	-183	-15920	2564	-4432	54	-19	150	-2572	-1056	16656	23	-139	214	127	120	5
-5716	-5020	14896	104	-26	-101	-15676	468	-4648	-14	-69	-40	-2376	-40	16952	22	-1	1	-8000	4100	13256	-101	134	-141	-15904	2628	-4392	102	-27	129	-2600	-1120	16612	46	-172	182	127	120	5
-5724	-5024	14784	122	-53	-135	-15596	540	-4616	14	-55	-17	-2384	-32	16736	25	-5	-3	-7844	4060	13280	-93	166	-164	-15968	2564	-4364	75	-11	155	-2628	-1132	16596	14	-139	233	127	120	5
-5748	-5000	14748	116	-14	-119	-15596	436	-4728	15	-57	-42	-2288	-192	16912	24	-6	1	-7844	4136	13432	-92	129	-151	-15940	2620	-4388	81	-10	144	-2620	-1104	16608	27	-157	212	126	121	5
-5756	-5024	14788	133	-63	-62	-15572	532	-4640	-26	-74	-44	-2488	-144	16880	23	-1	0	-7860	4068	13344	-85	144	-174	-15912	2536	-4388	77	26	126	-2608	-1108	16572	21	-108	192	126	121	5
-5744	-5036	14852	121	-26	-97	-15636	552	-4616	39	-43	-27	-2520	-176	16792	27	-4	1	-7844	4108	13196	-88	150	-185	-15932	2584	-4456	60	12	175	-2592	-1116	16676	-7	-111	162	126	121	5
-5728	-4980	14768	126	-61	-129	-15652	588	-4668	24	-54	-39	-2432	-24	17080	32	3	-7	-7816	4116	13336	-144	145	-177	-15888	2668	-4440	103	-26	149	-2588	-1128	16580	-2	-129	177	126	120	5
-5708	-5052	14864	138	-18	-104	-15576	596	-4700	-22	-52	-48	-2376	-48	17048	34	-6	-1	-7868	4096	13296	-101	160	-176	-15920	2572	-4404	74	-33	119	-2564	-1116	16636	20	-84	243	126	120	5
-5728	-4944	14872	97	-54	-121	-15612	620	-4732	-18	-55	-60	-2400	40	16992	26	-3	4	-7852	4148	13208	-83	171	-152	-15912	2604	-4484	66	18	131	-2632	-1148	16548	-10	-93	249	126	121	5
-5740	-4984	14792	129	-81	-110	-15660	508	-4604	-12	-56	-93	-2408	-176	16936	25	5	5	-7872	4092	13268	-127	147	-167	-15948	2560	-4420	63	10	111	-2604	-1148	16564	55	-120	245	126	121	5
-5728	-5032	14792	86	-19	-138	-15568	524	-4628	13	-52	-54	-2416	-136	16976	25	-7	3	-7860	4124	13324	-120	136	-162	-15964	2552	-4456	65	6	94	-2608	-1176	16620	58	-134	248	126	121	5
-5752	-4996	14860	113	-26	-132	-15608	548	-4740	25	-46	-57	-2504	-152	16896	29	-1	5	-7840	4128	13204	-112	153	-201	-15928	2560	-4500	46	-24	132	-2596	-1144	16564	47	-127	252	126	121	5
-5716	-5048	14744	114	-62	-150	-15608	516	-4504	-51	-59	-74	-2392	-152	16904	34	-4	6	-7828	4056	13372	-87	163	-174	-15940	2540	-4524	75	-12	141	-2672	-1212	16556	20	-138	228	126	121	5
-5732	-5000	14856	125	-36	-96	-15560	432	-4552	-54	-69	-37	-2328	-224	16896	30	-5	6	-7904	4120	13296	-76	184	-166	-15944	2568	-4540	86	-61	144	-2696	-1200	16592	48	-117	252	126	121	5
-5784	-5008	14868	131	-45	-156	-15620	444	-4632	7	-52	-47	-2256	-192	17032	25	-6	5	-7840	4136	13240	-115	143	-154	-15940	2500	-4384	92	5	150	-2656	-1212	16704	48	-113	178	126	121	5
-5740	-5016	14784	124	-62	-123	-15652	480	-4600	12	-83	-31	-2360	-104	16936	26	-5	5	-7888	4112	13224	-89	117	-176	-15936	2552	-4428	98	-30	167	-2652	-1164	16524	-2	-115	185	126	121	5
-5724	-5044	14836	131	-66	-112	-15600	588	-4688	45	-64	-37	-2368	-40	16992	30	-8	2	-7868	4112	13296	-90	189	-192	-15860	2576	-4512	62	-29	166	-2648	-1172	16648	13	-131	218	126	121	5
-5720	-5056	14856	126	-49	-144	-15648	568	-4688	11	-45	-93	-2368	-152	16648	31	-6	5	-7828	4140	13212	-56	177	-164	-15936	2524	-4404	103	-44	117	-2656	-1156	16636	51	-142	170	126	121	5
-5740	-5032	14744	103	-20	-137	-15676	576	-4732	-13	-59	-86	-2352	16	16816	27	-9	4	-7888	4140	13276	-35	150	-195	-15912	2620	-4476	80	-5	171	-2652	-1076	16596	25	-125	195	126	121	5
-5660	-5040	14800	108	-58	-115	-15600	604	-4684	17	-54	-16	-2264	48	17120	26	-9	1	-7812	4124	13372	-68	163	-171	-15928	2604	-4328	77	-53	148	-2624	-1132	16636	24	-145	204	126	121	5
-5760	-4984	14792	105	-67	-129	-15576	528	-4628	-24	-78	-84	-2144	-8	16968	22	-5	1	-7824	4068	13244	-99	164	-153	-15936	2508	-4452	90	-53	125	-2616	-1120	16580	26	-154	232	126	121	5
-5668	-5024	14828	130	-77	-137	-15644	564	-4556	-39	-44	-80	-2336	32	16936	26	-6	3	-7892	4124	13340	-74	170	-168	-15968	2552	-4380	71	-59	150	-2588	-1132	16788	19	-157	221	126	121	5
-5792	-4984	14760	96	16	-142	-15620	572	-4664	-64	-38	-90	-2264	-40	16960	27	-6	3	-7860	4144	13308	-66	153	-174	-15924	2616	-4308	74	-12	147	-2540	-1180	16536	17	-156	210	126	121	5
-5720	-5044	14820	100	-40	-150	-15628	504	-4632	-17	-62	-79	-2152	-80	16728	27	-4	7	-7876	4152	13252	-124	143	-159	-15884	2552	-4472	108	6	132	-2576	-1164	16536	33	-122	232	126	121	5
-5780	-5084	14740	116	-82	-74	-15628	484	-4532	-6	-13	-62	-2440	-104	16824	26	-2	6	-7872	4160	13236	-113	165	-196	-15988	2592	-4364	83	7	109	-2572	-1184	16544	7	-113	238	126	121	5
-5772	-5064	14892	84	-16	-161	-15584	372	-4488	12	-33	-49	-2336	-112	17176	28	1	5	-7840	4104	13264	-112	150	-199	-15932	2600	-4240	65	47	144	-2544	-1124	16624	98	-95	261	126	120	5
-5792	-5008	14740	129	-59	-147	-15572	480	-4652	0	-42	-37	-2248	-240	17208	31	5	2	-7884	4112	13188	-101	140	-201	-15924	2560	-4388	90	23	125	-2620	-1160	16508	84	-73	247	126	121	5
-5732	-5000	14888	147	-32	-143	-15616	432	-4568	-42	-25	-19	-2368	-120	17008	35	1	3	-7920	4108	13256	-117	165	-181	-15956	2564	-4368	59	12	133	-2636	-1092	16608	35	-106	254	126	121	5
-5728	-4972	14760	153	-59	-125	-15584	524	-4560	-29	-30	-20	-2384	-56	16864	36	-1	5	-7864	4096	13208	-128	162	-175	-15912	2576	-4352	81	28	131	-2672	-1080	16556	37	-114	225	126	121	5
-5760	-5036	14836	126	-32	-129	-15648	576	-4632	-37	-26	-12	-2416	-64	17048	30	-7	3	-7872	4088	13308	-72	153	-156	-15896	2592	-4428	105	10	130	-2680	-1060	16656	13	-112	207	126	120	5
-5740	-5000	14820	127	-13	-141	-15620	492	-4632	36	-14	-16	-2432	56	17024	32	-3	3	-7824	4084	13264	-125	150	-186	-15924	2552	-4508	83	-21	158	-2616	-1156	16624	20	-127	212	126	121	5
-5768	-4984	14860	138	-42	-137	-15600	588	-4616	28	-10	16	-2328	-128	16888	28	-4	3	-7868	4112	13180	-117	152	-174	-15916	2656	-4468	64	-7	170	-2660	-1164	16612	11	-126	204	126	120	5
-5840	-4992	14828	129	-66	-142	-15640	660	-4668	-32	-85	-33	-2632	-120	17120	32	-4	4	-7908	4104	13168	-148	115	-181	-15960	2572	-4392	99	-34	135	-2712	-1108	16632	12	-131	167	126	121	5
-5776	-4988	14712	118	-31	-125	-15628	560	-4716	-49	-57	-50	-2456	-104	16792	29	-4	6	-7884	4144	13244	-97	180	-205	-15936	2588	-4496	108	-42	107	-2612	-1188	16640	78	-124	223	126	121	5
-5760	-5000	14888	103	-39	-148	-15600	620	-4668	-32	-65	-85	-2376	-56	16920	28	-6	4	-7840	4060	13328	-112	171	-187	-15872	2636	-4404	78	-55	116	-2648	-1132	16556	42	-123	196	126	121	5
-5780	-4968	14744	111	-2	-128	-15644	568	-4648	-36	-79	-82	-2416	-24	17032	24	-7	8	-7892	4136	13280	-95	143	-169	-15972	2580	-4592	76	-37	128	-2672	-1192	16588	36	-106	199	126	120	5
-5744	-5012	14872	77	-53	-119	-15584	652	-4632	-3	-41	-80	-2304	-72	16912	26	-8	11	-7884	4128	13216	-149	137	-177	-15928	2600	-4504	85	-22	178	-2584	-1172	16484	51	-136	191	126	121	5
-5736	-4980	14760	102	-29	-113	-15560	540	-4720	-8	-52	-88	-2304	0	17112	21	-7	9	-7880	4160	13264	-82	148	-176	-15956	2632	-4440	58	-48	134	-2592	-1144	16596	51	-116	188	126	120	5
-5764	-4980	14856	94	8	-112	-15580	452	-4548	-4	-46	-91	-2320	-80	16736	18	-1	9	-7868	4120	13372	-67	156	-167	-15920	2540	-4444	73	-32	130	-2528	-1196	16680	47	-144	207	126	120	5
-5740	-5060	14840	79	-21	-119	-15588	512	-4592	-19	-37	-65	-2296	-224	16856	17	-5	5	-7900	4104	13244	-94	166	-152	-15956	2580	-4372	59	-16	132	-2636	-1188	16516	23	-116	210	126	120	5
-5716	-4996	14720	97	-24	-114	-15624	456	-4664	37	-33	-52	-2176	-152	16744	21	-5	3	-7880	4088	13296	-83	155	-148	-15960	2540	-4468	-21	-2	149	-2624	-1080	16672	14	-111	171	126	120	5
-5668	-5056	14888	100	-19	-134	-15624	496	-4788	11	-62	-53	-2272	-112	16976	27	-7	0	-7868	4108	13188	-100	142	-209	-15952	2584	-4328	45	69	155	-2588	-1056	16584	87	-160	172	126	121	5
-5704	-5060	14692	101	-31	-103	-15592	588	-4624	7	-34	6	-2360	-64	17080	26	1	2	-7888	4096	13284	-114	168	-176	-15948	2568	-4424	41	16	129	-2552	-1032	16576	-42	-141	213	126	121	5
-5696	-5000	14908	133	-91	-110	-15624	608	-4648	-7	-8	-66	-2416	-40	16944	18	2	-2	-7808	4100	13260	-94	137	-157	-15892	2620	-4400	131	-10	166	-2616	-1256	16664	68	-113	208	126	121	5
-5704	-5048	14780	123	-37	-135	-15612	552	-4660	49	-27	-16	-2320	8	16832	20	2	-3	-7888	4164	13316	-105	149	-196	-15940	2644	-4572	167	-52	161	-2592	-1056	16624	33	-112	178	126	121	5
-5764	-5000	14836	133	-63	-114	-15668	624	-4660	10	-34	-63	-2304	-208	16736	27	-3	-1	-7848	4108	13208	-113	173	-163	-15912	2640	-4400	102	0	140	-2612	-1052	16652	47	-101	236	126	121	5
-5836	-4972	14700	129	-36	-132	-15612	684	-4612	-18	-71	-69	-2336	24	16968	36	-8	3	-7892	4108	13072	-129	154	-138	-15972	2616	-4424	73	15	115	-2648	-1088	16636	-2	-132	223	126	120	5
-5712	-5004	14732	100	-35	-136	-15608	600	-4636	-20	-47	-84	-2272	24	16824	38	-5	4	-7880	4116	13280	-137	156	-175	-15988	2576	-4468	63	12	127	-2624	-1116	16572	-29	-151	231	126	120	5
-5792	-4992	14804	68	-10	-149	-15592	528	-4588	-20	-14	-67	-2432	-72	16816	31	-2	8	-7912	4124	13340	-142	160	-196	-15952	2572	-4516	104	-2	111	-2636	-1152	16536	-46	-121	241	126	120	5
-5784	-5068	14752	105	-12	-107	-15524	488	-4620	-5	-59	-95	-2456	-24	16936	20	-3	5	-7888	4128	13220	-129	159	-191	-15940	2596	-4432	125	37	91	-2604	-1168	16588	40	-120	238	126	120	5
-5776	-5064	14884	106	-42	-143	-15584	492	-4504	-5	-5	-35	-2336	-128	16824	21	-1	6	-7860	4176	13244	-123	147	-162	-15912	2572	-4348	63	24	108	-2716	-1236	16608	54	-138	214	126	121	5
-5740	-5040	14712	116	-60	-93	-15632	500	-4628	-40	-24	-124	-2392	-80	16800	23	-3	3	-7860	4132	13268	-97	171	-153	-15876	2576	-4460	19	-29	144	-2664	-1204	16564	76	-156	242	126	120	5
-5716	-4960	14864	144	-84	-131	-15656	488	-4624	-83	-56	-78	-2392	-208	16856	27	0	0	-7848	4104	13248	-120	159	-189	-15956	2556	-4492	99	-6	170	-2628	-1216	16572	15	-108	198	126	120	5
-5732	-4988	14796	118	-50	-137	-15668	456	-4696	-6	-34	-31	-2488	-168	16816	31	-3	1	-7916	4084	13256	-132	133	-164	-15944	2520	-4452	147	-37	136	-2644	-1176	16604	-1	-123	232	126	121	5
-5760	-5032	14728	121	-37	-105	-15580	472	-4640	45	-38	-33	-2360	-24	17008	30	-7	0	-7884	4104	13288	-53	150	-176	-15932	2632	-4492	131	-70	182	-2616	-1104	16552	48	-138	172	127	121	5
-5736	-5028	14724	149	-26	-113	-15576	484	-4676	14	-68	-50	-2392	-48	17288	24	-6	1	-7900	4088	13292	-80	161	-151	-15924	2580	-4568	138	-36	158	-2712	-1088	16556	65	-135	120	126	121	5
-5756	-5004	14780	132	-34	-111	-15616	584	-4620	-16	-57	-30	-2416	88	17184	24	-1	-1	-7816	4068	13332	-118	153	-162	-15984	2644	-4408	111	-15	168	-2636	-1140	16560	69	-170	160	126	121	5
-5800	-4988	14912	153	-60	-120	-15572	576	-4596	-17	-51	-46	-2224	152	16904	31	-4	-2	-7872	4052	13216	-64	160	-147	-15912	2616	-4476	93	-24	174	-2612	-1144	16600	34	-163	170	126	120	5
-5764	-5032	14820	110	-68	-118	-15620	612	-4616	-3	-59	-44	-2384	-56	17056	29	2	-2	-7880	4080	13244	-93	129	-176	-15936	2624	-4460	156	-56	130	-2576	-1104	16676	31	-143	180	126	120	5
-5728	-5088	14684	79	-94	-107	-15584	648	-4692	-52	-81	-99	-2424	72	16848	25	-1	4	-7872	4124	13284	-59	161	-161	-15940	2588	-4340	126	-13	170	-2628	-1040	16564	35	-167	220	126	121	5
-5724	-4980	14836	84	-51	-120	-15672	620	-4544	-33	-64	-94	-2256	72	16960	24	-2	7	-7828	4144	13212	-61	178	-171	-15900	2608	-4428	53	23	97	-2592	-1024	16552	57	-136	227	126	121	5
-5716	-5024	14796	93	-54	-120	-15556	500	-4612	-18	-98	-94	-2280	72	17024	24	0	8	-7808	4080	13296	-121	126	-179	-15944	2576	-4364	53	0	153	-2576	-1060	16720	40	-126	206	126	121	5
-5756	-5012	14788	113	-40	-143	-15620	504	-4572	28	-60	-102	-2272	-288	17112	20	-1	5	-7864	4088	13184	-99	153	-179	-15964	2568	-4352	48	-11	139	-2588	-1132	16524	54	-149	198	126	121	5
-5756	-5004	14760	107	-80	-112	-15648	536	-4632	11	-75	-109	-2552	-120	17080	16	2	0	-7880	4128	13224	-70	160	-202	-15976	2596	-4376	93	11	112	-2572	-1144	16512	-3	-107	209	126	120	5
-5724	-5092	14724	85	-7	-111	-15548	512	-4696	32	-55	-75	-2360	-200	17072	21	-2	0	-7880	4120	13168	-98	188	-190	-15924	2584	-4476	89	12	127	-2656	-1096	16688	-14	-142	230	126	120	5
-5704	-5024	14828	96	-36	-136	-15532	524	-4600	-7	-10	-54	-2408	-72	16920	19	-2	-3	-7908	4172	13252	-66	155	-207	-15988	2588	-4476	68	14	136	-2644	-1132	16552	-23	-147	239	126	120	5
-5760	-4992	14808	116	-16	-110	-15576	556	-4688	23	-71	-58	-2320	-56	17384	22	-2	-8	-7880	4096	13340	-115	202	-224	-15908	2588	-4520	57	-7	97	-2708	-1188	16532	2	-189	216	127	120	5
-5740	-4948	14776	111	-14	-150	-15596	520	-4696	32	-20	-48	-2416	-64	16944	11	-2	-9	-7912	4100	13260	-87	195	-143	-15928	2528	-4440	62	-17	151	-2656	-1212	16620	12	-156	206	126	121	5
-5712	-4992	14832	132	-9	-120	-15616	572	-4780	-24	-56	-31	-2512	-32	16920	5	4	-8	-7868	4176	13260	-60	180	-188	-15948	2412	-4452	91	-4	138	-2640	-1256	16512	34	-165	227	126	121	5
-5784	-5024	14816	129	-42	-119	-15576	628	-4580	-49	-42	-58	-2360	-152	16888	4	5	-10	-7924	4108	13248	-116	176	-161	-15900	2492	-4540	70	-23	156	-2612	-1152	16612	85	-141	195	126	121	5
-5780	-4936	14800	109	-96	-128	-15608	628	-4676	-31	-82	-116	-2504	16	17064	11	0	-5	-7848	4124	13204	-94	170	-149	-15868	2580	-4412	101	-31	176	-2628	-1124	16604	21	-145	227	126	121	5
-5688	-5012	14784	69	-11	-112	-15620	580	-4624	-40	-78	-118	-2440	32	16816	11	-1	-3	-7848	4128	13320	-79	166	-147	-15924	2648	-4528	91	-49	155	-2588	-1096	16568	79	-130	180	126	121	5
-5784	-4964	14736	76	-30	-107	-15660	460	-4592	-56	-92	-106	-2368	-96	16768	12	-6	2	-7904	4128	13292	-62	126	-156	-15920	2620	-4412	78	-31	128	-2608	-1036	16660	65	-147	207	126	121	5
-5736	-5044	14844	102	-35	-116	-15560	508	-4536	-12	-76	-83	-2440	-96	16760	10	-4	-1	-7920	4184	13220	-115	132	-137	-15888	2712	-4360	104	-57	101	-2644	-1020	16724	59	-136	205	126	122	5
-5804	-4960	14920	104	-62	-126	-15668	624	-4596	-3	-88	-102	-2336	-32	16968	10	-2	-1	-7916	4160	13268	-98	130	-183	-16020	2600	-4372	100	-24	121	-2540	-1036	16568	47	-136	234	126	121	5
-5776	-5004	14788	93	-35	-130	-15616	500	-4708	-26	-47	-149	-2336	-88	17128	12	-4	1	-7880	4124	13244	-135	132	-180	-15956	2604	-4320	130	-82	106	-2628	-1032	16680	-1	-148	208	126	121	5
-5708	-4972	14772	77	-78	-152	-15624	440	-4732	-57	-65	-138	-2488	-160	16920	13	-4	0	-7828	4108	13440	-127	146	-164	-15924	2584	-4456	54	-51	62	-2568	-1144	16424	-35	-137	203	126	121	5
-5704	-5112	14804	100	-74	-114	-15660	504	-4640	-7	-59	-93	-2488	-200	16968	19	-5	3	-7916	4132	13288	-118	127	-164	-15904	2532	-4340	55	-31	158	-2612	-1172	16616	-25	-146	192	127	121	5
-5696	-5044	14752	81	-28	-142	-15548	476	-4612	-9	-89	-81	-2352	-392	17024	24	-7	0	-7920	4152	13196	-131	129	-139	-15884	2516	-4352	81	-36	114	-2524	-1192	16600	-44	-119	198	126	122	5
-5748	-4980	14704	109	-53	-71	-15620	448	-4760	-32	-71	-57	-2304	-200	16960	31	-6	0	-7896	4104	13260	-122	133	-154	-15888	2628	-4424	90	-29	136	-2588	-1244	16652	15	-116	214	126	122	5
-5812	-5044	14772	116	-47	-133	-15612	556	-4604	-24	-98	-78	-2344	-96	16848	31	-6	4	-7804	4148	13220	-116	185	-184	-15936	2508	-4488	82	-67	151	-2660	-1256	16608	69	-133	200	127	122	5
-5760	-4996	14832	113	-55	-136	-15608	528	-4688	-21	-56	-42	-2288	8	16936	32	-5	3	-7880	4080	13340	-123	157	-181	-15864	2636	-4448	98	-56	137	-2616	-1236	16664	68	-133	214	126	122	5
-5756	-5044	14808	100	-62	-84	-15640	548	-4688	-22	-54	-50	-2296	-152	16856	26	-4	6	-7864	4060	13304	-86	173	-186	-15860	2592	-4404	102	-55	122	-2624	-1164	16668	18	-112	208	126	121	5
-5728	-5008	14748	107	-61	-137	-15612	504	-4644	-2	-52	-49	-2368	-224	17016	22	2	5	-7908	4124	13256	-88	154	-156	-15916	2608	-4496	112	-20	161	-2588	-1160	16676	44	-126	228	126	121	5
-5736	-5008	14800	101	-36	-129	-15660	500	-4668	-34	-45	-36	-2368	-8	17168	27	-1	6	-7896	4084	13256	-102	166	-164	-15976	2660	-4528	99	-41	150	-2568	-1084	16556	50	-90	207	126	122	5
-5740	-5024	14784	117	-43	-114	-15616	540	-4604	11	-48	-91	-2208	-176	16832	30	-1	3	-7916	4112	13232	-113	160	-181	-15980	2628	-4408	29	-31	157	-2580	-1088	16608	46	-109	220	126	122	5
-5784	-4948	14796	122	-30	-104	-15604	584	-4744	-11	-42	-53	-2352	-160	16864	30	0	3	-7900	4076	13220	-82	162	-161	-15928	2596	-4596	106	16	150	-2616	-1044	16592	18	-162	213	126	121	5
-5776	-5008	14828	124	-54	-105	-15572	544	-4692	2	-23	-81	-2176	-128	16800	32	-3	6	-7952	4076	13272	-93	178	-194	-15964	2620	-4520	73	-39	137	-2700	-1104	16576	4	-126	201	126	122	5
-5760	-4976	14812	127	-92	-114	-15564	552	-4660	16	-45	-62	-2272	-168	16904	28	-9	4	-7904	4144	13368	-128	126	-192	-15960	2592	-4312	86	-8	107	-2632	-1096	16604	-41	-116	223	126	122	5
-5736	-5076	14808	97	-29	-104	-15556	488	-4772	35	-63	-63	-2496	-112	16976	27	-8	4	-7880	4092	13268	-81	174	-153	-15920	2504	-4368	96	-34	125	-2676	-1164	16544	-61	-155	200	126	122	5
-5796	-4956	14740	140	-76	-110	-15588	576	-4672	20	-36	-32	-2392	-88	17208	26	-3	4	-7860	4084	13268	-94	157	-156	-15884	2528	-4320	75	-41	133	-2592	-1164	16616	15	-150	230	126	122	5
-5748	-5032	14804	114	-48	-149	-15552	532	-4724	7	-95	-80	-2440	-56	17032	26	-2	3	-7860	4096	13284	-63	138	-172	-15964	2528	-4500	90	-18	105	-2612	-1144	16572	49	-108	206	126	122	5
-5728	-5044	14724	107	-53	-101	-15592	556	-4696	-77	-76	-67	-2328	-80	17008	23	-1	6	-7884	4124	13224	-125	167	-150	-15972	2624	-4340	70	-50	129	-2612	-1232	16644	61	-130	232	126	121	5
-5720	-5036	14756	126	-51	-158	-15632	540	-4596	-15	-70	-81	-2384	-64	16960	19	0	6	-7880	4124	13280	-98	145	-167	-15920	2556	-4392	84	-40	137	-2576	-1140	16656	41	-130	215	126	122	5
-5712	-5036	14768	108	-30	-111	-15620	476	-4568	-43	-73	-98	-2392	-48	16904	22	-4	8	-7904	4136	13240	-70	150	-141	-15932	2580	-4444	93	-33	128	-2572	-1124	16700	2	-136	216	126	121	5
-5736	-5036	14756	99	-52	-112	-15660	548	-4540	-11	-48	-77	-2304	-152	17056	25	-5	2	-7904	4180	13236	-134	135	-157	-15852	2612	-4312	105	-7	124	-2616	-1104	16544	-9	-121	187	126	122	5
-5728	-5040	14792	96	-38	-131	-15632	528	-4644	34	-76	-83	-2456	-168	17000	29	-2	4	-7852	4092	13152	-115	131	-185	-15960	2628	-4372	109	-3	120	-2604	-1088	16548	17	-109	210	126	122	5
-5720	-5008	14760	96	-19	-138	-15644	452	-4656	3	-58	-61	-2336	-64	16736	27	-4	7	-7844	4184	13280	-120	133	-176	-15844	2620	-4440	87	-40	146	-2620	-1116	16584	67	-145	216	126	122	5
-5760	-4996	14856	127	-28	-133	-15632	520	-4748	-11	-57	-27	-2320	-224	16840	25	-1	5	-7816	4112	13296	-104	138	-167	-15948	2624	-4316	101	-66	139	-2684	-1104	16660	20	-121	191	126	122	5
-5748	-5004	14784	106	-13	-140	-15620	512	-4592	-15	-61	-60	-2440	-160	16824	30	-2	2	-7860	4088	13300	-128	145	-155	-15916	2568	-4384	58	-20	130	-2612	-1128	16620	19	-144	240	126	122	5
-5728	-5044	14728	111	-22	-124	-15660	500	-4656	-15	-70	-68	-2360	-248	17224	34	-5	2	-7900	4128	13200	-69	157	-179	-15956	2572	-4544	77	-54	189	-2620	-1176	16584	45	-133	219	126	122	5
-5784	-4988	14760	145	-9	-120	-15656	532	-4572	-19	-68	-38	-2264	136	16960	30	-3	2	-7888	4100	13304	-72	176	-208	-15912	2572	-4440	62	-19	148	-2612	-1188	16564	5	-185	213	126	122	5
-5712	-5028	14840	123	-95	-136	-15612	480	-4592	-14	-78	-74	-2272	16	16904	26	-5	4	-7840	4136	13264	-94	127	-175	-15952	2568	-4460	75	-21	127	-2580	-1224	16656	-1	-158	169	127	122	5
-5724	-4980	14840	120	-63	-138	-15536	520	-4708	10	-25	-66	-2352	104	17024	22	-3	5	-7796	4120	13300	-76	130	-162	-15904	2568	-4428	82	-2	175	-2576	-1240	16656	73	-109	205	127	122	5
-5748	-5040	14736	80	-52	-125	-15592	516	-4620	-25	-72	-82	-2296	-192	17128	19	-1	6	-7884	4112	13224	-112	122	-131	-15952	2592	-4380	103	-74	157	-2568	-1152	16580	70	-148	171	127	122	5
-5740	-4988	14756	110	-31	-141	-15636	544	-4624	15	-50	-60	-2464	-120	16920	28	-6	3	-7868	4056	13200	-90	151	-151	-15988	2552	-4488	83	-32	155	-2584	-1112	16684	43	-129	217	127	122	5
-5748	-5056	14776	140	-67	-93	-15628	540	-4588	-28	-30	-64	-2272	-208	16952	32	0	2	-7868	4100	13300	-110	159	-164	-15904	2620	-4400	92	-20	170	-2576	-1108	16580	44	-91	211	126	122	5
-5736	-4980	14872	126	-49	-110	-15600	536	-4556	-17	-22	-84	-2360	-160	16976	27	-2	7	-7848	4152	13280	-105	147	-185	-15940	2620	-4448	85	-24	186	-2652	-1156	16600	27	-112	230	126	122	5
-5724	-5052	14808	113	-12	-122	-15632	476	-4756	-19	-26	-2	-2264	-328	16936	28	-1	4	-7832	4168	13332	-84	175	-172	-15948	2648	-4384	56	-7	149	-2572	-1084	16620	29	-119	214	126	122	5
-5712	-5024	14832	117	26	-138	-15620	468	-4632	-12	-57	-34	-2384	-32	17088	23	1	3	-7956	4168	13316	-76	156	-162	-15904	2584	-4364	84	11	128	-2628	-1116	16616	15	-131	206	126	121	5
-5776	-5032	14748	130	-64	-108	-15648	532	-4732	-34	-85	-48	-2360	-88	17008	35	0	5	-7812	4120	13268	-91	147	-192	-15932	2608	-4464	72	8	125	-2660	-1184	16692	4	-133	210	126	122	5
-5752	-5016	14700	72	-20	-136	-15548	544	-4572	0	-45	-41	-2480	-96	16832	33	-4	2	-7880	4124	13284	-106	160	-168	-15844	2600	-4484	94	-14	96	-2640	-1140	16644	58	-164	221	126	122	5
-5700	-4956	14816	133	-55	-114	-15620	612	-4624	-1	-24	-32	-2352	-24	17080	30	0	2	-7912	4100	13252	-93	180	-211	-15972	2668	-4452	68	-8	167	-2656	-1172	16752	43	-139	218	126	122	5
-5708	-5032	14848	98	-60	-136	-15616	524	-4644	0	-45	-28	-2544	0	17064	25	-2	3	-7880	4072	13184	-106	144	-189	-16004	2620	-4444	107	-43	127	-2572	-1168	16568	82	-158	235	126	122	5
-5776	-4968	14852	121	-31	-143	-15604	572	-4544	-10	-41	-59	-2360	-48	16896	27	-3	3	-7908	4144	13192	-74	143	-160	-15896	2588	-4412	74	-46	148	-2732	-1176	16600	60	-131	226	126	122	5
-5764	-4972	14808	114	-70	-126	-15640	528	-4624	-7	-68	-94	-2304	-128	16784	26	-3	6	-7900	4140	13220	-63	199	-178	-15916	2548	-4468	87	-37	162	-2672	-1116	16560	64	-154	194	126	121	5
-5728	-5044	14748	102	-93	-126	-15544	516	-4720	-31	-67	-81	-2592	-224	17112	23	-4	4	-7900	4156	13300	-89	192	-174	-15956	2544	-4360	70	-62	132	-2700	-1140	16596	20	-155	179	126	122	5
-5696	-5048	14932	101	-50	-115	-15588	468	-4704	15	-73	-69	-2376	-136	17056	26	-5	5	-7860	4104	13260	-105	190	-154	-15872	2532	-4408	83	-99	175	-2680	-1144	16644	35	-105	224	126	122	5
-5704	-5008	14816	128	-51	-122	-15544	508	-4672	6	-119	-75	-2416	-96	17032	22	-1	5	-7916	4096	13204	-114	160	-185	-15960	2596	-4380	56	-62	162	-2600	-1100	16596	67	-148	155	126	122	5
-5760	-5028	14736	90	-4	-149	-15616	528	-4724	-34	-112	-93	-2472	-88	16936	23	-2	6	-7864	4052	13200	-37	177	-144	-15972	2640	-4372	74	-82	142	-2568	-1104	16564	68	-145	181	126	122	5
-5720	-5080	14704	114	-40	-127	-15600	512	-4592	23	-74	-77	-2416	16	17232	21	-3	5	-7828	4144	13260	-1	171	-205	-15944	2540	-4332	63	-25	131	-2528	-1068	16620	58	-161	215	126	122	5
-5776	-5004	14756	111	-11	-139	-15636	604	-4524	26	-33	-34	-2352	-224	16848	24	-7	1	-7896	4080	13276	-55	144	-184	-15936	2556	-4288	102	-41	158	-2536	-1204	16732	42	-158	193	126	121	5
-5792	-5036	14944	76	-42	-142	-15664	544	-4576	-29	-36	-93	-2352	-216	16912	25	-5	3	-7856	4120	13288	-99	173	-195	-15908	2540	-4396	104	-42	153	-2556	-1148	16652	24	-143	213	126	122	5
-5752	-5020	14768	96	-34	-142	-15596	492	-4560	-58	-46	-77	-2280	-136	17152	25	-1	7	-7860	4116	13256	-77	178	-220	-15864	2584	-4364	68	-13	131	-2500	-1128	16616	41	-145	209	126	122	5
-5832	-5024	14748	99	-72	-108	-15652	460	-4552	-21	-43	-80	-2224	-256	16920	27	0	5	-7896	4132	13260	-86	177	-159	-15948	2612	-4312	57	20	125	-2544	-1216	16624	-8	-108	260	126	122	5
-5700	-5072	14784	103	12	-58	-15620	480	-4700	32	-41	-64	-2592	-232	16768	24	3	4	-7864	4140	13292	-115	152	-179	-15968	2564	-4396	76	6	144	-2556	-1140	16528	26	-102	252	126	122	5
-5780	-5056	14776	142	-86	-137	-15564	480	-4632	5	-56	-31	-2432	-144	17128	30	2	4	-7852	4112	13196	-139	146	-201	-15944	2604	-4476	87	15	141	-2680	-1120	16620	36	-97	239	126	122	5
-5768	-4996	14732	91	-34	-129	-15644	508	-4664	-48	-9	-14	-2392	-176	16896	35	-3	-1	-7928	4084	13324	-103	150	-179	-15884	2560	-4448	79	36	143	-2704	-1120	16544	63	-125	254	126	122	5
-5748	-4988	14756	123	-24	-144	-15584	420	-4760	-10	-60	-17	-2320	-128	16920	29	1	-3	-7844	4136	13184	-117	137	-185	-15976	2572	-4496	65	-26	160	-2664	-1224	16588	76	-149	244	126	122	5
-5748	-5036	14800	142	-64	-131	-15664	512	-4716	-26	-86	-1	-2320	-128	16968	28	2	0	-7852	4140	13308	-86	123	-181	-15940	2568	-4464	73	-13	167	-2624	-1132	16516	55	-118	206	126	122	5
-5724	-5020	14780	123	-62	-95	-15600	536	-4612	-3	-95	-56	-2440	16	16864	24	1	-1	-7852	4084	13352	-79	142	-157	-15948	2540	-4560	78	-37	158	-2672	-1204	16616	18	-124	213	126	122	5
-5684	-5012	14812	139	-85	-137	-15592	624	-4624	-2	-67	-34	-2384	-56	16672	27	-3	6	-7772	4092	13144	-85	136	-155	-15916	2592	-4552	88	-76	181	-2624	-1096	16584	50	-142	186	126	122	5
-5716	-4992	14796	101	-42	-129	-15596	584	-4588	-32	-67	-61	-2344	-56	16816	27	-3	5	-7908	4068	13224	-94	175	-156	-15924	2592	-4520	149	-59	194	-2556	-1136	16588	29	-152	178	126	122	5
-5760	-5012	14852	100	-40	-122	-15580	580	-4604	1	-66	-16	-2480	-48	16896	29	-7	7	-7864	4056	13288	-93	116	-176	-15880	2592	-4328	111	-25	162	-2576	-1056	16596	47	-139	180	126	122	5
-5700	-5068	14712	136	-59	-103	-15596	472	-4656	18	-67	-77	-2368	-168	16992	23	-5	4	-7824	4168	13336	-122	131	-143	-15936	2592	-4416	98	-18	184	-2628	-1096	16696	71	-138	191	126	122	5
-5756	-5040	14836	100	-9	-150	-15604	520	-4560	16	-78	-60	-2272	-192	16840	22	-1	3	-7852	4092	13308	-106	153	-193	-15940	2628	-4460	93	39	137	-2572	-1076	16644	3	-161	199	126	122	5
-5780	-4972	14740	125	-14	-155	-15660	544	-4560	-2	-29	-72	-2360	-120	17000	22	-5	3	-7868	4108	13184	-96	150	-163	-15920	2692	-4484	75	9	136	-2596	-1076	16524	24	-169	208	127	122	5
-5672	-5044	14924	125	-28	-125	-15580	544	-4632	5	-39	-47	-2288	-40	17048	25	-7	5	-7876	4120	13276	-122	132	-232	-15864	2584	-4436	96	-1	120	-2600	-1108	16660	7	-136	211	126	122	5
-5748	-5000	14816	111	-14	-137	-15588	416	-4668	1	-49	-66	-2296	-192	17128	28	-2	3	-7916	4068	13216	-155	136	-187	-15948	2600	-4396	88	19	149	-2540	-1100	16692	-3	-102	231	126	122	5
-5716	-4988	14844	93	-61	-124	-15568	472	-4644	5	-27	-61	-2344	-96	16880	26	0	2	-7840	4180	13252	-89	162	-166	-15936	2640	-4356	64	-2	117	-2612	-1192	16576	-17	-151	245	126	122	5
-5756	-4964	14716	93	-89	-116	-15564	520	-4676	-28	-31	-45	-2504	-280	16888	25	3	5	-7880	4076	13300	-100	180	-195	-15920	2560	-4460	64	-11	136	-2660	-1184	16664	-10	-130	224	126	122	5
-5756	-4988	14752	100	-49	-120	-15656	572	-4596	4	-35	-46	-2304	-64	16664	25	3	2	-7916	4100	13256	-105	175	-186	-15964	2504	-4400	86	-6	127	-2644	-1200	16656	19	-143	188	126	122	5
-5772	-4980	14740	118	-65	-132	-15608	504	-4684	-22	-52	-44	-2360	-104	17056	30	3	1	-7844	4192	13268	-76	171	-172	-15944	2536	-4416	88	-24	161	-2608	-1252	16532	10	-108	195	127	122	5
-5764	-5048	14808	94	-36	-128	-15660	596	-4568	-7	-73	-33	-2328	-120	17112	30	-2	1	-7888	4056	13312	-81	156	-189	-15956	2604	-4376	115	-27	144	-2632	-1216	16580	31	-132	211	126	122	5
-5808	-5012	14740	127	-51	-112	-15604	500	-4712	-23	-66	-92	-2304	-136	16888	29	-4	4	-7904	4152	13268	-97	135	-170	-15940	2556	-4376	97	-43	154	-2596	-1168	16520	59	-124	216	127	122	5
-5724	-4956	14848	117	-70	-127	-15636	496	-4528	-46	-59	-44	-2384	-24	16968	29	0	2	-7808	4080	13308	-115	166	-185	-16004	2528	-4396	87	-20	133	-2580	-1156	16712	67	-129	202	126	122	5
-5712	-5060	14900	125	-14	-109	-15576	512	-4596	-13	-44	-95	-2400	-144	17024	27	-1	0	-7920	4124	13228	-90	162	-176	-15924	2580	-4392	107	17	164	-2588	-1128	16528	64	-90	223	126	122	5
-5764	-5016	14796	105	-32	-168	-15552	516	-4516	-4	-41	-25	-2248	-176	16976	27	0	0	-7864	4212	13252	-112	147	-209	-15992	2612	-4432	114	36	139	-2624	-1096	16604	39	-130	230	126	122	5
-5740	-4988	14808	116	-53	-88	-15628	576	-4604	-47	-72	-13	-2352	-224	16792	25	-4	1	-7868	4068	13228	-101	178	-159	-15944	2560	-4480	68	-26	149	-2644	-1076	16692	-27	-123	225	126	122	5
-5688	-5028	14812	99	-77	-123	-15580	528	-4560	-17	-32	-47	-2432	-128	16896	26	-2	-1	-7872	4132	13280	-128	158	-186	-15984	2684	-4512	86	-25	157	-2616	-1108	16692	43	-138	214	126	122	5
-5724	-5036	14764	143	-36	-88	-15612	484	-4592	18	-57	-32	-2432	-24	16936	27	0	1	-7852	4160	13284	-100	155	-159	-15872	2608	-4340	77	-43	145	-2636	-1100	16552	16	-129	214	126	122	5
-5764	-5020	14764	113	-58	-123	-15620	576	-4608	5	-58	-28	-2520	-48	16864	30	-2	4	-7840	4152	13248	-97	138	-138	-15956	2560	-4472	84	-28	111	-2572	-1144	16624	40	-139	208	126	122	5
-5768	-5068	14756	137	-47	-94	-15624	504	-4568	-1	-79	-16	-2440	-40	16936	18	-4	3	-7820	4132	13348	-90	137	-166	-15944	2624	-4412	77	-12	114	-2612	-1120	16500	28	-158	219	126	122	5
-5716	-5060	14792	104	-31	-132	-15608	560	-4644	-32	-69	-31	-2288	-136	17048	18	0	0	-7872	4092	13300	-145	168	-204	-15928	2592	-4416	77	-29	141	-2576	-1148	16512	23	-144	220	126	122	5
-5788	-5056	14776	74	-39	-142	-15616	532	-4556	2	-53	-58	-2328	-120	16672	24	-6	5	-7876	4140	13264	-103	165	-184	-15968	2536	-4464	86	-35	146	-2616	-1196	16740	14	-155	211	126	121	5
-5756	-4984	14880	109	-66	-114	-15600	608	-4660	-2	-52	-79	-2256	-64	16888	24	-2	3	-7868	4128	13244	-80	152	-172	-15936	2560	-4444	118	-25	115	-2640	-1132	16580	60	-116	189	126	122	5
-5724	-5020	14808	107	-57	-144	-15620	564	-4708	-24	-43	-91	-2272	-80	16888	26	-2	2	-7856	4068	13264	-82	152	-155	-15944	2624	-4400	96	0	140	-2564	-1140	16596	43	-113	205	126	122	5
-5732	-5080	14844	88	-79	-96	-15636	536	-4588	-24	-74	-74	-2392	-64	16856	23	-8	6	-7860	4092	13244	-130	134	-166	-15864	2608	-4416	101	-21	146	-2632	-1136	16544	15	-112	228	126	122	5
-5768	-5016	14824	125	-71	-137	-15592	504	-4684	26	-41	-86	-2280	-200	17024	22	-3	3	-7896	4132	13332	-91	153	-181	-15904	2644	-4360	113	-34	124	-2652	-1092	16596	15	-131	209	126	122	5
-5752	-5032	14764	118	-60	-148	-15660	476	-4640	-10	-51	-53	-2480	-64	16976	24	-5	0	-7900	4160	13192	-67	168	-204	-15916	2636	-4432	95	-22	125	-2608	-1124	16592	-14	-118	219	126	121	5
-5732	-4992	14708	149	-63	-87	-15604	544	-4708	-7	-63	-49	-2400	-64	17008	29	-4	1	-7856	4160	13284	-91	151	-172	-15940	2572	-4448	77	-54	115	-2676	-1156	16552	25	-120	238	126	122	5
-5700	-5016	14820	166	-62	-98	-15600	512	-4696	0	-47	-63	-2336	-56	17080	29	-2	0	-7820	4108	13284	-95	172	-171	-15924	2580	-4412	60	5	114	-2580	-1112	16676	22	-137	213	126	122	5
-5768	-4972	14844	115	-46	-119	-15560	528	-4680	-19	-82	-75	-2280	-128	16664	26	-1	1	-7876	4132	13264	-79	118	-168	-15936	2576	-4440	71	-19	147	-2616	-1228	16564	31	-134	212	126	122	5
-5736	-4976	14816	137	-54	-114	-15644	492	-4656	8	-45	-55	-2304	-80	17096	26	-8	-1	-7824	4084	13288	-147	183	-188	-15876	2516	-4396	99	-42	98	-2584	-1240	16556	26	-125	216	126	122	5
-5736	-4976	14772	118	-45	-109	-15600	592	-4608	-18	-39	-30	-2424	-136	17056	29	0	1	-7868	4140	13292	-120	190	-171	-16000	2528	-4460	128	-18	171	-2648	-1236	16624	19	-103	186	126	122	5
-5716	-4992	14724	116	-18	-126	-15612	564	-4712	-13	-67	-49	-2304	-88	17248	29	0	1	-7852	4140	13352	-81	166	-188	-15944	2560	-4412	85	-20	128	-2620	-1196	16620	76	-145	193	126	122	5
-5724	-4940	14748	115	-41	-112	-15568	596	-4612	-30	-29	-78	-2280	-128	17064	30	-4	2	-7868	4104	13332	-73	156	-206	-15940	2600	-4436	57	-49	170	-2560	-1100	16616	74	-128	226	126	123	5
-5680	-5080	14828	128	-92	-103	-15644	496	-4668	-15	-61	-50	-2216	-112	16768	24	-3	4	-7856	4116	13300	-96	136	-154	-15984	2572	-4436	38	4	167	-2612	-1120	16620	52	-138	227	126	122	5
-5728	-5000	14796	126	-37	-133	-15580	512	-4560	11	-98	-82	-2384	-48	16904	25	-3	7	-7840	4128	13280	-110	128	-189	-15884	2664	-4420	110	-27	147	-2560	-1156	16600	40	-137	223	126	122	5
-5756	-5016	14860	109	-38	-104	-15580	560	-4688	-11	-70	-68	-2296	-152	16936	31	2	3	-7872	4048	13292	-120	167	-174	-15932	2648	-4308	43	-23	142	-2632	-1076	16532	21	-117	229	126	122	5
-5724	-4956	14680	93	-20	-158	-15652	580	-4608	-17	-46	-65	-2176	-40	16864	33	0	5	-7840	4108	13200	-101	183	-154	-15940	2616	-4524	107	-24	132	-2660	-1104	16568	25	-150	215	126	122	5
-5708	-4968	14840	121	-14	-112	-15576	516	-4636	-1	-60	-48	-2432	-152	16952	28	-5	3	-7860	4136	13284	-83	160	-195	-15928	2584	-4340	74	13	128	-2632	-1112	16640	24	-146	212	126	122	5
-5756	-5044	14868	99	-8	-140	-15580	516	-4716	-47	-54	-39	-2224	-72	16992	25	-2	1	-7852	4116	13240	-141	173	-155	-15944	2524	-4392	92	-60	115	-2652	-1156	16600	36	-127	199	126	122	5
-5748	-5000	14828	155	-58	-123	-15592	556	-4588	-23	-68	-55	-2400	-88	17056	25	3	4	-7888	4152	13248	-109	155	-149	-15916	2624	-4340	89	2	148	-2648	-1128	16568	-14	-134	255	126	122	5
-5728	-5044	14812	75	-43	-128	-15604	572	-4632	8	-66	-81	-2272	16	16736	23	-1	5	-7812	4140	13168	-98	125	-189	-15908	2596	-4376	82	-40	128	-2584	-1220	16648	2	-104	169	126	122	5
-5724	-5012	14780	66	-82	-113	-15552	496	-4584	-1	-59	-71	-2352	8	16976	22	0	3	-7820	4092	13272	-114	172	-166	-16012	2496	-4436	79	-6	129	-2632	-1156	16644	46	-102	210	126	122	5
-5800	-4972	14808	106	-26	-110	-15676	620	-4660	3	-69	-42	-2304	-168	17080	23	-1	3	-7868	4144	13300	-69	177	-177	-15960	2608	-4352	68	4	162	-2600	-1152	16580	24	-118	242	127	122	5
-5808	-4976	14788	114	-38	-132	-15576	532	-4700	-45	-43	-63	-2256	-104	16800	24	5	3	-7872	4072	13420	-119	176	-129	-15884	2592	-4480	81	-14	124	-2520	-1144	16632	-17	-95	230	126	122	5
-5788	-4960	14784	76	-7	-178	-15612	520	-4680	-23	-26	-39	-2384	-176	16768	27	-1	3	-7844	4132	13300	-62	181	-146	-15944	2608	-4480	66	-3	153	-2580	-1084	16584	7	-116	223	127	122	5
-5728	-5044	14840	99	35	-102	-15624	524	-4604	5	-56	-73	-2584	-8	17112	30	0	0	-7876	4144	13276	-44	179	-165	-15960	2640	-4404	28	2	157	-2636	-1048	16700	32	-120	208	126	122	5
-5808	-5016	14860	114	-16	-122	-15608	484	-4620	-17	-28	-79	-2304	-152	16880	28	-2	5	-7888	4148	13256	-66	200	-182	-15864	2588	-4368	37	-13	115	-2596	-1112	16692	5	-131	232	126	122	5
-5760	-5032	14780	92	-21	-152	-15524	488	-4636	1	-52	-39	-2440	-176	17096	26	-3	1	-7908	4152	13272	-58	194	-187	-15944	2624	-4352	58	2	139	-2648	-1112	16572	26	-144	222	126	122	5
-5812	-4984	14856	127	-103	-108	-15668	468	-4616	-16	-25	-26	-2376	-168	16960	31	-7	1	-7924	4116	13208	-58	162	-187	-15916	2552	-4480	61	4	119	-2756	-1180	16600	48	-170	226	126	122	5
-5780	-5008	14736	146	-11	-126	-15592	540	-4716	-30	-59	-18	-2368	-112	16912	28	-3	1	-7832	4104	13284	-84	166	-170	-15964	2572	-4552	56	-11	116	-2716	-1188	16548	35	-157	216	126	121	5
-5744	-5048	14712	137	-55	-97	-15616	580	-4680	-43	-68	-76	-2408	-200	16976	26	1	-1	-7880	4176	13348	-63	128	-137	-15884	2540	-4436	103	-34	146	-2760	-1192	16556	63	-158	205	126	122	5
-5780	-5008	14852	120	-74	-121	-15548	568	-4792	-24	-122	-6	-2424	-120	17120	27	-3	-2	-7888	4144	13168	-89	147	-161	-15944	2588	-4452	100	-119	135	-2688	-1232	16656	65	-122	167	126	122	5
-5720	-5056	14848	122	-73	-118	-15532	628	-4676	-5	-103	-10	-2552	40	17192	24	-3	-4	-7924	4136	13332	-85	143	-165	-15940	2496	-4392	94	-76	166	-2676	-1196	16480	84	-127	176	126	122	5
-5752	-4968	14848	93	-90	-150	-15612	620	-4620	-11	-101	-10	-2392	-64	16904	17	-4	3	-7864	4156	13276	-59	108	-152	-15952	2556	-4328	114	-95	199	-2636	-1108	16612	83	-153	162	126	121	5
-5720	-4980	14776	101	-47	-128	-15564	592	-4676	-36	-114	-70	-2416	-8	16864	17	-2	2	-7848	4060	13224	-75	142	-159	-15936	2652	-4352	119	-111	188	-2572	-1092	16592	85	-135	151	126	122	5
-5776	-5024	14776	90	-47	-144	-15616	560	-4532	-16	-106	-108	-2264	-48	16912	23	-2	5	-7836	4180	13208	-111	121	-148	-15904	2628	-4432	111	-32	151	-2576	-1056	16780	30	-117	155	126	122	5
-5784	-5024	14824	116	-51	-106	-15700	464	-4740	-27	-111	-78	-2328	-24	17064	23	-3	7	-7836	4136	13272	-103	120	-176	-15964	2644	-4352	88	-90	171	-2484	-1064	16744	17	-106	171	126	122	5
-5716	-4980	14824	105	-104	-138	-15632	484	-4512	-9	-54	-130	-2248	-224	17032	24	-3	8	-7888	4180	13284	-110	139	-149	-15940	2628	-4364	94	-51	168	-2524	-1096	16676	37	-142	220	126	122	5
-5776	-5012	14700	71	-27	-123	-15632	496	-4584	-48	-49	-81	-2128	-80	16768	27	0	7	-7880	4136	13244	-109	151	-167	-15904	2704	-4368	45	11	153	-2500	-1008	16596	44	-145	228	126	122	5
-5752	-4996	14840	84	-32	-118	-15668	524	-4600	-27	-69	-58	-2432	-200	16976	28	-4	4	-7812	4128	13240	-116	139	-181	-15920	2576	-4380	38	23	99	-2560	-1104	16580	-10	-145	230	126	122	5
-5776	-5052	14828	127	-24	-145	-15616	472	-4684	-28	-38	-82	-2288	-144	16888	26	1	4	-7812	4164	13320	-128	170	-192	-16000	2604	-4284	26	-2	126	-2536	-1024	16548	37	-166	288	126	122	5
-5720	-5016	14932	138	-36	-105	-15680	480	-4528	-17	-38	-35	-2408	-240	16848	35	-1	5	-7912	4140	13188	-121	154	-198	-15928	2572	-4412	58	30	76	-2660	-1152	16508	29	-151	306	126	122	5
-5736	-4992	14804	106	-70	-124	-15656	460	-4596	11	-56	-21	-2416	-80	16992	36	-1	1	-7884	4144	13216	-101	173	-172	-15912	2496	-4484	31	70	115	-2604	-1168	16676	-15	-139	251	126	122	5
-5732	-5008	14840	122	-41	-86	-15624	560	-4656	-6	6	-40	-2368	-136	17144	37	-2	5	-7848	4164	13308	-127	171	-185	-15916	2508	-4468	77	26	133	-2656	-1188	16548	16	-135	276	126	122	5
-5756	-5036	14696	142	-8	-147	-15572	520	-4564	-9	3	-13	-2496	-104	17096	36	-5	-1	-7884	4140	13272	-53	138	-187	-15948	2540	-4416	44	4	123	-2700	-1180	16580	-32	-114	238	126	122	5
-5784	-5040	14860	137	-38	-132	-15532	588	-4620	-31	-55	-49	-2368	0	16800	33	-3	2	-7884	4152	13324	-102	153	-163	-15888	2536	-4396	64	-42	154	-2680	-1224	16588	49	-82	182	126	122	5
-5692	-4960	14792	138	-54	-146	-15596	540	-4692	6	-44	-62	-2376	0	17056	24	-2	4	-7888	4124	13256	-68	139	-180	-15856	2516	-4472	90	-35	140	-2728	-1096	16612	22	-128	231	126	122	5
-5712	-4992	14824	150	-25	-106	-15596	648	-4644	-7	-65	-43	-2296	-128	16760	26	-2	1	-7844	4080	13164	-31	168	-167	-15996	2532	-4360	114	-82	116	-2652	-1084	16648	40	-90	203	126	122	5
