#Activity	sitting 
#ActivityID	5 
#Date 08-18-09-53
acc_rf_x	acc_rf_y	acc_rf_z	gyro_rf_x	gyro_rf_y	gyro_rf_z	acc_rs_x	acc_rs_y	acc_rs_z	gyro_rs_x	gyro_rs_y	gyro_rs_z	acc_rt_x	acc_rt_y	acc_rt_z	gyro_rt_x	gyro_rt_y	gyro_rt_z	acc_lf_x	acc_lf_y	acc_lf_z	gyro_lf_x	gyro_lf_y	gyro_lf_z	acc_ls_x	acc_ls_y	acc_ls_z	gyro_ls_x	gyro_ls_y	gyro_ls_z	acc_lt_x	acc_lt_y	acc_lt_z	gyro_lt_x	gyro_lt_y	gyro_lt_z	EMG_r	EMG_l	act
-7552	-4988	13044	-12	19	-25	-16000	2752	-3016	9	-6	13	560	6696	16104	25	-1	4	-10208	5680	11920	17	0	-20	-15656	3720	-2760	1	-6	-2	-176	-4280	16168	3	-13	26	125	129	5
-7544	-5012	13168	-10	19	-24	-16080	2800	-3080	7	0	15	400	6864	16088	23	-1	6	-10280	5792	11928	16	-2	-16	-15688	3472	-2872	0	-5	-3	-336	-4224	16344	1	-14	22	125	129	5
-7516	-5044	13168	-10	23	-24	-16016	2744	-2976	9	-4	17	472	6784	15776	25	1	6	-10216	5896	12016	16	-2	-17	-15680	3712	-2728	-4	-4	-6	-240	-4120	16440	1	-9	24	125	129	5
-7556	-5044	13120	-18	15	-25	-15952	2736	-3264	10	-1	16	288	6752	15528	28	1	5	-10216	5792	11808	16	2	-16	-15816	3752	-2952	2	-4	-6	-264	-4208	16232	3	-11	25	125	129	5
-7588	-5056	13136	-12	19	-27	-16040	2696	-3168	10	-5	17	392	6632	16088	20	0	3	-10272	5816	12048	14	-4	-20	-15664	3640	-2736	-1	-6	-1	-152	-4264	16472	3	-12	24	125	129	5
-7500	-5020	13144	-7	19	-22	-16088	2704	-3136	11	-5	13	336	6616	15952	17	0	-1	-10224	5856	11880	13	1	-19	-15632	3632	-2840	-3	-10	-2	-192	-4200	16600	3	-12	26	125	129	5
-7532	-5092	13136	-13	19	-23	-16144	2792	-3128	12	-4	20	528	6640	15832	20	-3	1	-10192	5856	11960	13	0	-21	-15608	3704	-2720	1	-3	-4	48	-4256	16248	-4	-13	22	125	129	5
-7508	-4980	13084	-12	20	-27	-16128	2904	-3184	10	-4	22	424	6736	15792	20	2	1	-10216	5808	11840	17	-4	-21	-15672	3848	-2904	-7	-5	-1	-224	-4160	16344	-5	-15	24	125	129	5
-7496	-5028	13108	-14	18	-26	-16160	2904	-3104	6	-4	22	456	6624	15976	23	-5	-2	-10176	5784	12112	16	-10	-18	-15720	3680	-2896	1	-4	-1	-144	-4280	16472	-2	-16	21	125	129	5
-7500	-5092	13028	-14	20	-25	-16136	3000	-3176	7	-4	21	416	6672	15968	21	-1	6	-10160	5736	11832	16	-4	-17	-15712	3632	-2768	-3	-5	-8	-168	-4272	16248	-3	-16	24	125	129	5
-7588	-4996	13080	-13	18	-26	-16208	2920	-2920	7	1	17	472	6632	15840	28	1	4	-10184	5688	12016	16	-1	-20	-15656	3656	-2592	2	-3	-2	-240	-4184	16392	2	-12	29	125	129	5
-7576	-5028	13076	-13	20	-23	-16112	2864	-3184	3	-4	12	360	6648	15976	26	5	10	-10168	5808	11872	15	3	-22	-15688	3712	-2736	4	-4	1	-8	-4368	16384	1	-11	25	125	129	5
-7536	-5008	13108	-15	21	-24	-16104	2752	-3144	8	-2	21	392	6728	15856	22	1	5	-10328	5752	11920	19	-3	-18	-15496	3680	-2824	-1	-2	-1	-192	-4320	16416	4	-12	22	125	128	5
-7564	-5024	13164	-8	17	-25	-16056	2736	-3048	8	-3	18	448	6640	15816	27	2	0	-10216	5632	11816	18	-2	-20	-15672	3656	-2704	-1	-5	-5	-336	-4264	16392	4	-15	23	125	129	5
-7548	-5040	13160	-14	22	-22	-16224	2968	-3128	11	-1	18	504	6672	15840	25	6	2	-10192	5832	11904	16	-6	-17	-15712	3672	-2632	-2	-7	-9	-136	-4216	16336	6	-16	24	125	129	5
-7524	-5060	13072	-9	16	-24	-16176	2728	-2904	8	-3	20	272	6688	16024	26	-1	3	-10272	5848	11856	15	-6	-17	-15712	3752	-2720	-5	-3	-3	-288	-4248	16320	-3	-10	24	125	129	5
-7500	-5052	13136	-12	20	-28	-16120	2800	-3240	11	-2	18	416	6552	15888	30	4	4	-10216	5816	11776	13	-5	-18	-15680	3656	-2656	-3	-1	-3	-136	-4304	16440	1	-14	23	125	129	5
-7576	-5000	13084	-13	12	-25	-16120	2696	-3112	5	-1	17	496	6640	15720	32	-2	4	-10192	5792	11960	12	-3	-18	-15624	3552	-2832	1	-4	-6	-112	-4184	16384	-2	-15	20	125	129	5
-7540	-5032	13076	-12	16	-26	-15992	2840	-3184	2	-4	17	440	6672	15584	33	2	4	-10264	5688	12008	16	-6	-18	-15624	3720	-2920	-1	-11	-3	-160	-4232	16352	-8	-15	20	125	129	5
-7512	-5000	13132	-14	15	-26	-16120	2696	-3152	3	-3	14	400	6704	15752	24	-3	5	-10152	5728	11928	14	-2	-13	-15720	3728	-3040	-1	-7	-2	-128	-4240	16232	-1	-16	23	125	129	5
-7512	-4976	13008	-11	17	-26	-16112	2824	-2968	7	-10	18	536	6784	15744	22	-5	0	-10208	5760	11952	16	-6	-19	-15696	3648	-2936	0	-7	-1	-56	-4312	16624	0	-15	22	125	129	5
-7528	-5052	13168	-12	18	-23	-16160	2880	-3104	6	-6	21	440	6688	16096	20	-3	1	-10208	5816	11680	16	-4	-15	-15672	3544	-2872	-1	-7	-3	-248	-4320	16576	2	-15	22	125	129	5
-7536	-5040	13108	-10	16	-24	-16080	2848	-2992	9	-3	14	384	6704	15912	22	-7	-1	-10224	5728	11672	14	-5	-17	-15744	3632	-2872	-3	-10	-5	-312	-4248	16104	3	-14	21	125	129	5
-7512	-5032	13156	-13	17	-28	-16144	2808	-3264	7	-4	19	448	6568	15672	19	-4	2	-10216	5880	11952	13	-2	-14	-15584	3640	-2480	-6	-5	-1	-104	-4288	16472	5	-14	23	125	129	5
-7536	-5004	13176	-12	20	-27	-16144	2896	-3048	3	-4	13	600	6736	16008	19	-4	1	-10208	5872	11784	11	2	-20	-15608	3640	-2640	-2	-6	-4	-216	-4280	16448	4	-16	21	125	129	5
-7580	-5016	13028	-9	18	-26	-16208	2760	-3064	8	-2	14	432	6672	16048	24	-1	3	-10216	5648	12032	15	4	-17	-15504	3720	-2680	-3	-6	-1	-40	-4280	16688	6	-14	24	125	129	5
-7560	-5068	13068	-7	19	-24	-16120	2768	-3056	7	-4	14	528	6576	15856	19	1	2	-10192	5728	12056	15	-2	-18	-15624	3792	-2656	-3	-3	-5	-112	-4264	16264	0	-11	25	125	129	5
-7544	-5012	13168	-11	18	-22	-16200	2840	-3184	18	-4	15	312	6728	15760	24	6	6	-10272	5728	11840	13	-4	-18	-15728	3808	-2912	-3	-3	-10	-208	-4280	16496	7	-9	20	125	129	5
-7428	-5032	13216	-10	18	-25	-16080	2824	-2856	11	-5	15	408	6608	15928	22	-1	6	-10216	5760	11840	15	3	-20	-15928	3760	-2744	-5	-4	-3	-104	-4184	16336	3	-13	21	125	129	5
-7572	-5076	13172	-9	21	-27	-16072	2912	-3184	8	0	17	480	6608	15832	31	-1	3	-10208	5816	11920	12	-2	-21	-15744	3728	-2840	-5	-3	-3	-248	-4208	16232	0	-13	29	125	129	5
-7528	-5012	13156	-13	18	-21	-16176	2896	-3232	9	-4	18	432	6712	15832	30	4	2	-10280	5720	11800	17	-9	-16	-15696	3616	-3024	-1	-3	-7	-184	-4176	16256	-2	-17	26	125	129	5
-7508	-5012	13148	-9	20	-23	-16160	2752	-3136	7	-2	14	384	6728	15856	29	-2	1	-10144	5744	11824	13	1	-20	-15640	3664	-2712	-2	-3	-7	-208	-4256	16384	-6	-11	27	125	129	5
-7564	-5060	13140	-12	19	-25	-16056	2760	-3008	4	-3	19	352	6712	15704	29	-4	-2	-10272	5752	11824	15	-6	-20	-15776	3752	-2864	2	-3	-4	-144	-4296	16512	-3	-12	25	125	129	5
-7508	-5036	13040	-10	19	-27	-16152	3000	-2952	5	-2	18	304	6824	16096	20	5	-1	-10128	5808	11760	16	-6	-19	-15616	3576	-2936	2	-5	-7	-104	-4240	16384	-5	-17	22	125	129	5
-7480	-5000	13132	-14	16	-25	-16104	2720	-3088	7	-4	20	392	6776	15728	23	1	0	-10224	5752	11840	12	-1	-18	-15656	3624	-2808	-5	-6	-5	-240	-4160	16168	-4	-14	24	125	129	5
-7536	-5028	13168	-12	20	-20	-16280	2776	-3096	8	-3	18	320	6656	15848	26	0	4	-10144	5784	11904	13	-9	-19	-15576	3656	-2832	0	-3	-4	-120	-4328	16328	-2	-11	25	125	129	5
-7608	-5040	12988	-14	19	-25	-16168	2816	-3200	9	-2	14	448	6696	15968	27	-2	5	-10328	5760	11952	17	4	-21	-15544	3608	-2784	-1	-9	-3	-136	-4336	16336	-2	-13	20	125	129	5
-7500	-5016	13080	-9	18	-29	-16160	2808	-2992	8	-4	20	448	6704	16032	26	-2	4	-10056	5800	11968	11	0	-21	-15640	3632	-2712	0	-6	-3	-184	-4296	16304	3	-12	18	125	129	5
-7552	-5052	13164	-12	16	-26	-16088	2808	-3208	8	-4	17	432	6504	16016	25	-3	2	-10072	5784	11992	15	-8	-15	-15648	3672	-3072	-5	-7	-1	-264	-4320	16472	0	-14	21	125	128	5
-7484	-5008	13140	-10	21	-27	-16072	2888	-3168	11	-2	13	456	6608	15616	21	0	2	-10280	5816	11888	13	0	-18	-15552	3600	-2656	-4	-6	-5	-176	-4288	16472	1	-10	24	126	129	5
-7600	-5084	13044	-11	22	-26	-16096	2896	-3272	11	-5	16	400	6664	15736	21	4	3	-10160	5856	11960	16	-4	-16	-15584	3592	-2968	-1	-4	-4	-88	-4344	16232	2	-15	24	125	129	5
-7492	-5096	13080	-14	18	-29	-16216	2688	-3152	12	-4	19	432	6616	15912	22	3	3	-10216	5720	11832	14	-4	-20	-15496	3760	-2880	0	-1	-4	-152	-4232	16400	3	-14	24	125	129	5
-7596	-5028	13088	-13	16	-27	-16160	2816	-3248	9	-3	19	264	6712	15888	22	2	5	-10256	5712	12000	13	2	-17	-15632	3824	-2792	-3	-7	-4	-328	-4080	16440	5	-11	23	125	129	5
-7496	-5068	13084	-12	19	-27	-16136	2784	-3232	7	-4	17	376	6664	15896	27	-4	6	-10168	5712	12008	13	-7	-17	-15616	3752	-2920	-3	-7	-7	-248	-4256	16352	3	-13	22	125	129	5
-7552	-4984	13064	-12	17	-28	-15992	2976	-2752	8	-5	19	392	6568	15728	27	2	2	-10168	5784	11784	10	-4	-17	-15688	3664	-2880	-5	-2	-3	-168	-4240	16336	4	-13	24	125	129	5
-7504	-5016	13100	-8	16	-26	-16128	2792	-3152	7	-6	14	560	6488	15872	27	-4	3	-10232	5760	11904	11	-6	-17	-15672	3536	-2872	0	-5	-9	-136	-4264	16344	2	-17	21	125	129	5
-7556	-5072	13140	-10	18	-28	-16112	2720	-3080	7	-2	17	472	6752	16104	29	2	0	-10272	5848	11920	15	3	-18	-15704	3728	-2808	-1	-6	-3	-176	-4184	16280	-1	-13	23	125	129	5
-7524	-5068	13236	-10	19	-22	-16256	2832	-3104	7	-5	19	392	6832	16040	24	1	-1	-10224	5880	11976	15	-7	-20	-15568	3544	-3096	3	-2	-5	-264	-4176	16496	-4	-14	22	125	129	5
-7576	-4992	13104	-11	22	-25	-16112	2920	-3032	5	-3	18	456	6752	15816	28	-3	4	-10208	5784	11880	15	-2	-17	-15552	3664	-2792	-3	-4	-5	-208	-4304	16248	-2	-12	20	125	129	5
-7532	-5048	13172	-10	22	-25	-16024	2752	-3088	7	-3	16	560	6800	15848	24	3	5	-10312	5760	12032	16	-2	-17	-15664	3528	-2704	-3	-2	-4	-216	-4376	16232	2	-12	19	125	129	5
-7476	-5036	13136	-10	20	-28	-16096	2784	-3040	9	-1	19	288	6584	15840	23	-2	4	-10112	5840	11872	12	-2	-18	-15696	3768	-2688	-2	-7	-3	-88	-4400	16112	-1	-13	26	125	129	5
-7488	-5052	13136	-13	20	-25	-16168	2880	-3328	8	-5	17	456	6792	15920	26	-2	4	-10248	5840	11840	13	-3	-21	-15720	3720	-2664	-1	-3	0	-136	-4280	16472	6	-14	20	125	129	5
-7636	-5012	13200	-8	17	-26	-16208	2928	-3048	8	-4	16	552	6648	15864	24	-3	2	-10216	5760	11960	15	-2	-17	-15640	3592	-2640	-2	-5	4	-288	-4296	16456	7	-12	23	125	129	5
-7504	-5004	13148	-13	18	-24	-16264	2848	-3224	10	-4	17	344	6576	15744	26	1	6	-10176	5872	11768	16	-2	-17	-15608	3568	-2872	3	-7	0	-216	-4384	16432	2	-14	22	125	129	5
-7628	-5012	13052	-8	22	-25	-16112	2752	-3360	6	-4	19	552	6560	15680	19	-3	1	-10136	5872	11664	17	-2	-21	-15520	3648	-2752	-2	-4	-4	-352	-4256	16432	2	-11	20	125	129	5
-7552	-5044	13060	-12	17	-25	-16064	2824	-3168	12	-7	19	440	6616	15792	27	-3	2	-10096	5808	11896	14	-1	-22	-15728	3824	-2768	-4	-7	-3	-120	-4360	16424	1	-14	23	125	128	5
-7492	-4980	13172	-9	20	-25	-16288	2800	-3344	10	-2	18	344	6568	15624	21	2	2	-10208	5808	11712	13	-3	-21	-15640	3760	-2904	-2	-5	-4	-200	-4288	16448	4	-9	22	125	128	5
-7484	-4996	13096	-11	19	-29	-16024	2920	-3016	10	-5	17	472	6808	15920	21	-1	-2	-10232	5784	11952	11	2	-18	-15656	3720	-2360	-3	-8	-2	-200	-4224	16544	3	-15	23	125	128	5
-7612	-5024	13156	-13	21	-29	-16104	2864	-3168	7	-6	18	376	6680	15968	23	-3	3	-10152	5744	12160	16	-1	-16	-15792	3712	-2752	-1	-10	-5	-240	-4200	16248	1	-14	25	125	128	5
-7492	-5044	13144	-15	21	-24	-16048	2872	-3112	8	-1	21	456	6672	15720	28	-4	-2	-10280	5784	12096	14	1	-18	-15664	3608	-2688	-4	-5	-7	-304	-4160	16544	0	-14	25	125	128	5
-7516	-5028	13096	-8	17	-26	-16080	2864	-3152	11	0	20	480	6760	15728	25	-4	6	-10288	5880	11984	14	2	-18	-15696	3720	-2800	-4	-4	-7	-56	-4256	16376	1	-14	24	125	129	5
-7580	-4940	13184	-12	20	-26	-16184	2992	-3128	7	-4	23	360	6656	16008	19	0	3	-10232	5800	11968	13	-6	-16	-15720	3640	-2728	-4	0	-6	-200	-4312	16512	-1	-13	23	125	129	5
-7500	-4988	13152	-12	18	-24	-16224	2896	-3208	8	-4	15	408	6632	15992	23	6	3	-10224	5848	12112	14	-2	-18	-15712	3616	-2976	-1	-6	-1	-96	-4432	16392	-1	-11	22	125	128	5
-7596	-4948	13160	-9	24	-24	-16096	2808	-3096	5	-1	21	384	6648	15872	20	-1	6	-10104	5784	11920	12	-8	-18	-15624	3632	-2752	3	-5	-2	-344	-4272	16328	-2	-12	23	125	128	5
-7496	-5004	13072	-17	20	-24	-16208	2832	-2944	6	-5	17	424	6776	15704	23	-3	4	-10120	5776	11960	12	-6	-18	-15664	3616	-2856	0	-2	-2	-136	-4184	16568	0	-12	21	125	128	5
-7488	-5028	13124	-14	17	-27	-16240	2816	-3136	5	-5	16	432	6776	15952	21	0	3	-10248	5792	11864	15	0	-16	-15640	3672	-2824	1	-4	-1	-88	-4240	16680	2	-15	23	125	128	5
-7544	-5080	13100	-10	19	-27	-16112	2776	-3184	7	1	17	616	6776	15680	17	-1	2	-10152	5608	11864	13	-1	-21	-15576	3592	-2944	-7	-3	-1	-112	-4128	16336	-4	-13	17	125	128	5
-7536	-4984	13136	-16	17	-24	-16256	2736	-3088	9	-4	13	424	6544	15856	16	1	3	-10224	5736	11896	13	-6	-24	-15672	3696	-2656	-9	-1	-3	-96	-4088	16504	2	-15	22	125	128	5
-7580	-5012	13148	-9	21	-27	-16072	2936	-3336	10	-5	15	344	6744	15784	14	0	3	-10264	5792	12016	19	-6	-21	-15728	3712	-2648	-5	-4	0	-216	-4264	16480	1	-15	27	125	128	5
-7528	-5016	13132	-13	16	-22	-16224	2800	-3328	9	-2	19	416	6616	15992	17	1	7	-10264	5880	12024	19	-1	-17	-15728	3624	-2688	-8	-3	2	-192	-4296	16384	2	-11	24	125	128	5
-7504	-5000	13080	-16	21	-26	-16152	2824	-3392	10	-2	21	544	6544	15784	23	0	2	-10368	5784	12160	16	-3	-17	-15608	3704	-2528	-4	-6	-2	-240	-4328	16264	6	-13	26	125	128	5
-7508	-5028	13032	-14	17	-25	-16024	2904	-3264	9	-2	16	296	6592	16064	20	-2	1	-10216	5816	12056	15	1	-19	-15688	3728	-2600	-5	-3	-2	-152	-4128	16336	7	-13	25	125	128	5
-7580	-4944	13044	-11	18	-27	-16040	2864	-2840	11	-4	23	376	6800	16024	24	-1	5	-10344	5760	11760	16	3	-19	-15576	3736	-2864	-2	-1	-8	-168	-4312	16512	3	-15	25	125	128	5
-7508	-5080	13116	-13	18	-24	-16024	2776	-3160	9	-4	19	392	6760	16048	26	-1	2	-10176	5800	11880	17	-3	-19	-15720	3504	-2752	1	-4	-2	-272	-4360	16576	0	-14	20	125	128	5
-7480	-5036	13144	-13	22	-25	-16280	2840	-3080	8	-1	18	424	6624	15744	22	1	1	-10208	5800	11800	14	2	-18	-15448	3576	-2688	2	-1	-4	-176	-4168	16440	-3	-15	24	125	129	5
-7496	-5012	13120	-14	21	-21	-16080	2848	-2992	8	-6	20	416	6792	16024	26	1	3	-10104	5760	11968	15	2	-18	-15776	3600	-2576	1	-9	-6	-176	-4184	16304	-6	-12	22	125	129	5
-7544	-5032	13116	-11	18	-25	-16104	2880	-3096	4	-3	16	376	6624	15600	23	-7	0	-10304	5808	11952	14	1	-22	-15680	3728	-2952	0	-7	-3	-112	-4280	16256	-4	-12	21	125	128	5
-7532	-5028	13088	-11	18	-24	-16168	2872	-3144	6	-5	17	424	6608	15840	22	-9	1	-10248	5856	11896	14	-2	-19	-15816	3720	-2888	3	-1	-4	-216	-4184	16336	-1	-14	27	125	128	5
-7524	-5024	13088	-13	18	-22	-16216	2824	-2984	6	-1	15	408	6792	15816	23	-2	5	-10272	5848	12000	13	-1	-22	-15616	3656	-2736	-9	-4	-5	-208	-4296	16256	-2	-13	25	125	128	5
-7580	-5036	13224	-8	17	-23	-16120	2648	-3152	8	-1	17	392	6696	15760	19	-5	4	-10296	5848	12024	14	-4	-15	-15616	3664	-2832	-4	-7	0	-80	-4304	16456	3	-13	26	125	128	5
-7528	-5032	13136	-11	18	-23	-16112	2624	-3392	12	-1	18	512	6744	15872	18	-5	2	-10016	5880	11952	16	5	-17	-15544	3528	-2744	1	-5	-3	-72	-4320	16120	0	-11	22	125	128	5
-7556	-5000	13096	-17	19	-28	-16040	2848	-3112	11	-3	13	424	6760	15808	20	1	-2	-10136	5800	12016	12	-6	-22	-15656	3696	-2808	4	-4	-3	-112	-4272	16280	3	-12	23	125	128	5
-7536	-5028	13108	-14	21	-24	-16112	2776	-3040	12	-2	18	432	6552	15960	26	1	2	-10248	5816	11968	13	-6	-14	-15752	3520	-2624	-2	-2	-4	-184	-4184	16328	4	-11	22	125	128	5
-7608	-5052	13000	-9	21	-25	-16168	2880	-3232	12	-5	14	384	6696	15920	24	-2	3	-10176	5840	12032	15	0	-19	-15608	3648	-2840	1	-6	1	-152	-4280	16400	5	-11	17	125	128	5
-7556	-5016	13148	-13	20	-24	-16168	2832	-3336	12	-4	17	520	6560	15888	27	-4	3	-10144	5816	11696	14	-1	-16	-15760	3576	-2832	-5	-1	-2	-128	-4224	16360	7	-16	22	125	128	5
-7560	-4972	13076	-10	22	-25	-15976	2784	-3088	12	-4	17	424	6712	15728	30	1	3	-10232	5872	12032	14	-3	-19	-15688	3616	-2952	-4	-5	-1	-96	-4344	16456	3	-14	24	125	128	5
-7568	-5016	13104	-10	15	-25	-16128	2920	-3136	12	-6	19	440	6752	15624	29	-1	7	-10144	5832	11824	16	2	-21	-15568	3544	-2568	-3	-7	-4	-128	-4088	16368	0	-17	20	125	128	5
-7556	-5096	13116	-12	20	-26	-16216	2656	-3048	3	1	13	360	6664	16008	27	-3	3	-10232	5680	11760	17	2	-22	-15664	3552	-2808	-8	-1	-2	-88	-4104	16384	-8	-18	29	125	128	5
-7560	-5004	13124	-9	15	-25	-16080	2944	-3280	4	-1	16	376	6704	15696	21	-1	4	-10264	5696	12016	14	0	-24	-15752	3680	-2760	-4	-6	-5	-264	-4064	16384	0	-19	24	125	128	5
-7568	-5032	13048	-12	16	-24	-16120	2656	-3136	9	-1	17	352	6784	15800	19	-8	0	-10208	5736	11960	11	-3	-17	-15608	3592	-2832	-3	-5	-3	-184	-4256	16376	-4	-16	25	125	129	5
-7532	-5056	13076	-20	20	-24	-16064	2816	-3232	8	-8	19	368	6736	15912	16	-5	2	-10304	5776	11768	13	2	-17	-15648	3568	-2824	0	-5	-5	-184	-4288	16200	2	-12	22	125	129	5
-7540	-5036	13176	-9	20	-23	-16200	2808	-3248	13	-8	19	232	6760	15848	19	1	1	-10272	5704	12176	15	-7	-18	-15520	3664	-2896	-3	-5	-8	-144	-4216	16232	6	-13	27	125	129	5
-7528	-5040	13112	-11	17	-25	-16056	2736	-3232	11	-3	17	528	6592	15656	20	-4	4	-10296	5760	11840	16	1	-18	-15608	3656	-2704	-3	-7	-7	-136	-4184	16496	1	-13	23	125	129	5
-7580	-5016	13060	-14	18	-25	-16152	2784	-3128	5	-5	16	296	6688	15872	24	-1	5	-10248	5752	11976	18	-2	-19	-15728	3640	-2888	-1	-4	-7	-232	-4264	16464	2	-12	25	125	129	5
-7548	-5012	13116	-19	19	-26	-16136	2696	-2768	4	-2	21	448	6640	15976	25	0	-3	-10248	5800	11896	16	0	-17	-15552	3696	-2720	-2	-4	-8	-264	-4208	16352	-1	-16	21	125	129	5
-7556	-4960	13144	-12	20	-27	-16240	2848	-3008	9	-6	20	432	6640	15872	26	-4	3	-10304	5832	12048	12	4	-18	-15800	3536	-2808	0	-2	-2	-152	-4248	16120	-1	-14	21	125	128	5
-7500	-4996	13036	-16	22	-24	-16144	2928	-3208	6	-1	15	552	6720	15904	25	-2	5	-10104	5768	11680	12	2	-16	-15696	3720	-2792	-8	-4	-6	-232	-4288	16360	0	-12	26	125	128	5
-7504	-5072	13172	-11	16	-25	-16104	2816	-3168	11	-9	19	400	6648	15720	20	1	5	-10352	5840	11656	14	-2	-16	-15480	3640	-2896	-1	-4	-1	-216	-4240	16280	6	-16	24	125	128	5
-7476	-5028	13092	-14	25	-26	-16056	2848	-3208	13	-3	21	512	6688	15912	21	-2	6	-10160	5808	11608	11	-3	-19	-15632	3648	-2944	1	-3	-2	-112	-4408	16200	4	-16	22	125	128	5
-7596	-4968	13184	-15	20	-23	-16040	2776	-2904	11	-5	12	488	6648	16008	24	-1	4	-10176	5896	11960	13	-5	-21	-15672	3736	-2992	1	-3	-3	-184	-4352	16432	4	-14	23	125	128	5
-7456	-5008	13124	-14	18	-26	-16184	2800	-3264	8	-8	15	496	6680	15896	22	2	-3	-10296	5864	12048	16	5	-21	-15504	3664	-2856	1	-2	-2	-120	-4184	16328	3	-14	21	125	128	5
-7560	-4984	13192	-12	16	-25	-16272	2944	-3400	7	-5	17	312	6608	15720	25	-2	3	-10168	5792	11872	14	-7	-20	-15720	3680	-2800	3	-10	-1	-168	-4264	16816	4	-14	21	125	128	5
-7548	-5000	13160	-10	18	-25	-16152	2960	-2936	8	-1	17	256	6688	15976	21	-1	3	-10168	5912	11728	13	0	-22	-15696	3792	-2760	1	-4	-5	-352	-4304	16376	-2	-13	20	125	128	5
-7572	-5088	13132	-13	18	-24	-16064	2760	-3208	5	-3	15	408	6640	15728	23	-4	4	-10208	5712	11776	17	0	-13	-15656	3752	-2936	-4	-1	0	-120	-4224	16544	-1	-14	23	125	128	5
-7500	-5016	13124	-15	21	-26	-16112	2776	-3056	8	-1	14	360	6648	16008	25	-3	7	-10256	5728	11840	14	-1	-18	-15664	3512	-2592	0	-3	-4	-120	-4224	16384	-4	-16	25	125	128	5
-7556	-5012	13080	-13	20	-28	-16184	2816	-2984	3	-1	17	344	6544	15864	24	-1	5	-10240	5752	11808	16	-3	-19	-15664	3736	-2768	-3	-8	-4	-176	-4224	16488	-6	-13	20	125	128	5
-7528	-4992	13020	-9	21	-24	-16112	2768	-2720	8	-6	17	296	6704	15784	27	1	3	-10216	5632	11888	16	-6	-15	-15560	3544	-2904	-2	-7	-2	-296	-4104	16248	-5	-15	23	125	128	5
-7528	-5028	13096	-14	16	-23	-16144	2824	-3144	14	-5	18	472	6736	15856	25	0	0	-10296	5888	12072	16	-8	-24	-15600	3728	-2760	-3	-2	-6	-248	-4264	16496	0	-12	23	125	129	5
-7572	-4944	13120	-7	18	-26	-16048	2816	-3064	14	-5	21	288	6752	15904	23	1	-1	-10080	5728	11840	13	-5	-16	-15624	3632	-3032	-3	-5	-5	-216	-4392	16344	0	-14	26	125	128	5
-7520	-5000	13096	-13	21	-23	-16144	2576	-3168	14	-5	21	480	6792	15856	24	-2	0	-10208	5704	11784	12	2	-14	-15680	3648	-2688	-2	-5	-2	-176	-4216	16328	5	-11	24	125	128	5
-7552	-5032	13136	-11	21	-28	-16144	2944	-3064	9	-7	18	304	6584	15936	22	-4	2	-10136	5888	12016	14	-5	-13	-15760	3640	-2840	-5	-3	-7	-264	-4224	16272	6	-14	21	125	128	5
-7536	-5092	13252	-10	20	-27	-16024	2760	-3112	5	-5	16	496	6784	15856	21	-5	1	-10144	5880	12064	13	-3	-17	-15528	3768	-2840	-4	-7	-7	-144	-4272	16368	3	-13	22	125	128	5
-7588	-4988	13180	-11	19	-23	-16152	2944	-3416	-1	-2	24	392	6584	15864	18	-6	1	-10248	5848	11936	12	-2	-18	-15720	3600	-2728	-3	-6	-4	-112	-4088	16480	3	-14	21	125	129	5
-7572	-5048	13088	-11	20	-27	-16128	2832	-2840	0	-5	16	576	6656	15888	22	-2	5	-10096	5832	12088	15	1	-21	-15720	3760	-2936	-1	-6	-2	-136	-4176	16392	0	-16	25	125	128	5
-7556	-5028	13092	-15	16	-26	-16136	2824	-2824	1	-7	13	608	6736	16096	26	3	3	-10384	5728	12056	17	-5	-18	-15720	3648	-2952	-7	-6	-5	-200	-4208	16584	-2	-17	24	125	128	5
-7540	-5052	13080	-13	21	-22	-16160	2848	-3072	3	0	17	384	6736	15952	22	-1	5	-10312	5744	11872	11	-6	-17	-15616	3696	-2624	-2	-7	-5	-136	-4384	16544	-4	-14	25	125	128	5
-7600	-5032	13096	-10	23	-24	-16224	2728	-3032	13	-9	16	304	6704	15816	22	0	4	-10136	5864	12024	15	-2	-20	-15560	3680	-2832	-2	-5	-3	-168	-4056	16376	-5	-14	27	125	128	5
-7516	-5000	13104	-15	19	-28	-16184	2728	-3288	13	-5	13	376	6704	15872	25	0	11	-10280	5808	11816	14	4	-20	-15568	3600	-2744	-7	-4	-7	-144	-4288	16216	0	-16	23	125	128	5
-7572	-5036	13056	-14	18	-28	-16128	2752	-3224	8	-9	14	536	6696	15864	26	0	10	-10168	5840	11984	12	-7	-18	-15688	3552	-2720	1	-5	-8	-352	-4224	16552	0	-14	22	125	128	5
-7512	-5040	13060	-13	16	-28	-16152	2728	-3200	5	-6	17	368	6656	15976	25	0	11	-10112	5800	11936	17	-2	-16	-15680	3848	-2680	-2	-7	-8	-208	-4216	16504	1	-15	23	125	128	5
-7568	-5000	13128	-16	19	-25	-16112	2904	-3088	5	-8	16	560	6800	15912	20	1	6	-10168	5752	11792	10	-1	-22	-15544	3568	-2784	0	-8	-4	-24	-4216	16160	-1	-12	29	125	128	5
-7532	-4980	13088	-12	21	-28	-16328	2832	-3264	7	-4	19	536	6616	16040	19	-4	5	-10144	5808	12144	16	-4	-20	-15696	3752	-3104	-2	-3	-8	-8	-4264	16568	1	-18	24	125	128	5
-7536	-4996	13120	-11	16	-24	-16216	2832	-3176	9	-9	16	576	6608	15976	19	-3	3	-10248	5872	11800	19	0	-13	-15616	3648	-2608	-3	-1	-4	-192	-4280	16288	0	-12	25	125	128	5
-7544	-5064	13092	-13	20	-28	-16096	2800	-3128	9	-6	19	432	6552	15624	18	-6	5	-10280	5832	11832	16	3	-21	-15752	3544	-2736	-9	-5	-5	-200	-4288	16376	0	-14	27	125	128	5
-7488	-5044	13060	-12	20	-23	-16248	2736	-3136	4	-2	21	424	6536	15960	21	0	4	-10216	5744	11976	18	3	-23	-15704	3656	-2872	-5	1	-1	-168	-4288	16704	6	-12	26	125	129	5
-7528	-5068	13104	-11	19	-23	-16152	2800	-3064	10	-7	18	528	6656	15976	23	-3	1	-10096	5752	11704	15	-5	-20	-15696	3680	-2888	-3	-1	2	-176	-4272	16440	-4	-13	24	125	129	5
-7540	-5044	13232	-10	19	-22	-16056	2896	-3232	8	4	16	504	6592	15864	26	-3	-1	-10288	5936	11848	14	0	-22	-15672	3592	-2880	-2	-2	1	-144	-4352	16200	-3	-15	21	125	129	5
-7548	-5060	13192	-8	18	-23	-16152	2848	-3072	7	-2	19	584	6656	15696	27	2	-1	-10304	5624	11656	16	-1	-20	-15536	3768	-2760	0	-2	-3	-144	-4208	16200	-5	-18	23	125	128	5
-7568	-5024	13164	-8	15	-20	-16160	2760	-3224	11	-3	18	416	6712	15896	28	-1	6	-10240	5776	11888	18	-2	-18	-15696	3584	-3064	4	-1	-5	-152	-4160	16208	-5	-12	23	125	128	5
-7544	-5020	13132	-8	24	-18	-16160	2920	-3344	9	4	14	504	6624	15840	23	1	2	-10144	5744	11896	14	0	-21	-15848	3544	-2680	-4	-2	-2	-152	-4312	16552	-2	-14	25	125	129	5
-7520	-5028	13132	-11	17	-25	-16080	2720	-2976	15	1	18	448	6608	16072	25	0	5	-10160	5656	11888	14	-5	-19	-15696	3704	-2872	-8	-4	0	-216	-4384	16568	4	-8	24	125	129	5
-7528	-4968	13112	-12	21	-25	-16168	2768	-3200	9	3	18	424	6632	15992	19	1	1	-10224	5816	11856	11	-2	-22	-15752	3672	-3096	-1	-3	-1	-64	-4360	16632	8	-13	20	125	129	5
-7568	-5072	13076	-5	21	-22	-16168	2736	-3208	6	0	20	536	6552	15872	26	-2	-1	-10216	5936	11984	20	-4	-20	-15664	3744	-2912	2	-1	2	-264	-4184	16448	4	-12	23	125	128	5
-7520	-5000	13180	-9	19	-19	-16216	2776	-3160	5	3	19	288	6736	15688	27	-1	3	-10152	5752	12008	16	-5	-16	-15728	3752	-2768	-3	-1	-5	-168	-4200	16280	2	-19	23	125	128	5
-7536	-5028	13104	-10	21	-19	-16136	2832	-3432	7	-2	18	272	6688	15784	27	-2	1	-10192	5776	11800	13	-1	-19	-15512	3792	-2864	0	-3	1	-104	-4224	16496	5	-20	22	125	128	5
-7540	-5048	13184	-9	17	-26	-16264	2848	-3176	5	-1	16	376	6776	16216	28	0	-4	-10288	5784	12016	14	-4	-17	-15560	3680	-2976	7	-8	0	-112	-4232	16536	1	-15	23	125	129	5
-7584	-4980	13252	-13	18	-24	-16128	2744	-2872	7	-2	16	248	6640	15960	25	-1	0	-10304	5736	11968	15	5	-25	-15544	3592	-2688	0	-3	-1	-176	-4248	16384	-3	-12	17	125	128	5
-7560	-5024	13164	-10	20	-27	-16024	2728	-3192	5	3	16	424	6640	15808	21	-2	2	-10104	5848	11904	17	2	-18	-15616	3720	-2840	-4	-5	-2	-224	-4216	16176	2	-12	19	125	129	5
-7504	-5032	13116	-10	19	-28	-15992	2960	-3256	12	-3	19	288	6632	15760	21	1	1	-10192	5912	11968	14	1	-22	-15680	3752	-2880	-7	-5	-3	-208	-4128	16400	3	-11	23	125	128	5
-7544	-5012	13116	-11	21	-26	-16184	2896	-3224	7	-3	17	416	6672	15752	24	1	0	-10304	5584	11888	10	-2	-19	-15720	3768	-2728	-6	-6	-7	-240	-4320	16384	5	-12	18	125	128	5
-7524	-5020	13184	-10	19	-24	-16112	2912	-3456	9	-8	18	368	6712	16096	27	-3	0	-10208	5744	12232	15	5	-18	-15576	3656	-2880	-1	-7	-8	-192	-4224	16064	6	-13	20	125	128	5
-7616	-4988	13064	-8	16	-24	-16032	2712	-3064	7	-5	17	576	6760	16016	24	0	2	-10096	5872	11968	18	-5	-21	-15640	3712	-2736	-3	-12	-7	-144	-4232	16400	4	-9	25	125	128	5
-7544	-5012	13108	-10	24	-26	-16056	2848	-3088	11	-3	15	392	6672	15864	28	4	2	-10144	5752	12032	14	1	-17	-15720	3672	-2664	-4	-2	-7	-312	-4224	16496	5	-10	23	125	129	5
-7488	-5012	13136	-9	21	-23	-16000	2912	-3072	8	1	14	256	6728	15904	28	4	4	-10128	5800	12088	13	-4	-19	-15656	3664	-2704	-3	-2	-6	-64	-4272	16544	6	-13	22	125	129	5
-7536	-4988	13056	-16	20	-25	-16144	2792	-3096	9	-9	13	416	6544	15792	31	0	2	-10272	5832	12000	10	2	-18	-15696	3680	-2904	0	-5	-4	-208	-4280	16504	2	-16	20	125	129	5
-7552	-5020	13144	-15	20	-24	-16216	2848	-3192	14	-7	14	432	6760	15952	26	1	5	-10216	5776	12056	16	-5	-16	-15760	3680	-2608	0	-2	-3	-16	-4168	16600	-3	-17	22	125	129	5
-7604	-5004	13144	-12	19	-25	-16096	2864	-3256	9	-4	15	576	6696	15936	23	-1	3	-10176	5840	12048	17	-4	-18	-15688	3584	-2568	0	1	-1	-88	-4248	16376	-10	-19	22	125	129	5
-7496	-5036	13208	-11	19	-28	-16184	2872	-2960	9	1	15	456	6640	16080	18	-5	7	-10224	5904	11736	10	-2	-19	-15568	3736	-2704	3	-2	-5	-72	-4240	16264	-10	-16	21	125	129	5
-7512	-5064	13120	-15	23	-26	-16176	2912	-3104	6	-1	15	432	6560	15720	13	-2	4	-10272	5768	12048	14	-5	-21	-15752	3720	-2664	0	-3	-5	-168	-4320	16496	-10	-17	19	125	129	5
-7540	-5028	13104	-16	20	-24	-16160	2880	-2952	6	1	12	480	6568	15896	8	3	2	-10248	5800	11928	15	-3	-20	-15656	3704	-2856	-3	-1	-5	-40	-4296	16240	-10	-16	24	125	129	5
-7508	-5032	13112	-12	18	-20	-16120	2784	-3320	10	-2	13	344	6752	16048	13	1	5	-10160	5736	11824	10	1	-17	-15528	3768	-2824	-5	-1	-4	-144	-4344	16416	-3	-15	22	125	129	5
-7524	-5028	13168	-11	12	-24	-16248	2888	-2936	9	-2	17	400	6680	15792	15	-1	4	-10216	5744	12024	12	-2	-20	-15664	3672	-2720	-2	0	-3	-240	-4512	16208	-2	-19	26	125	129	5
-7552	-4964	13172	-12	18	-22	-16008	2808	-3304	3	0	12	304	6664	15952	21	-1	5	-10240	5832	11888	9	2	-21	-15672	3592	-2584	-5	-4	-2	-248	-4384	16208	2	-14	28	125	129	5
-7528	-5004	13072	-13	20	-26	-16168	2872	-3232	7	-3	14	320	6648	15952	25	2	5	-10136	5856	11872	12	0	-19	-15752	3616	-2944	2	-3	-5	-192	-4320	16344	3	-15	27	125	129	5
-7588	-5040	13068	-16	18	-26	-16088	2912	-3624	5	-1	19	320	6416	15968	31	0	5	-10160	5760	11984	11	0	-19	-15608	3600	-2512	-3	-3	-3	-344	-4264	16352	1	-13	25	125	128	5
-7544	-5084	13116	-12	21	-23	-16200	2760	-3128	11	-7	21	144	6552	16032	35	0	4	-10224	5792	11968	15	-5	-23	-15664	3616	-3016	-3	-7	-2	-264	-4272	16424	5	-13	24	125	129	5
-7496	-5020	13100	-11	18	-32	-16152	2880	-3008	13	-8	18	312	6568	16160	41	0	1	-10176	5752	11992	16	1	-19	-15760	3736	-2960	-5	-9	-1	-272	-4376	16272	9	-14	25	125	129	5
-7576	-5028	13136	-11	16	-24	-16128	2824	-3072	15	-9	22	480	6592	15864	40	-1	0	-10176	5728	12040	16	-2	-17	-15624	3576	-2712	-5	-9	1	-152	-4296	16376	3	-14	20	125	129	5
-7536	-5012	13124	-7	20	-25	-15992	2968	-2736	9	-10	22	624	6736	15776	36	-3	2	-10208	5688	11896	15	-2	-17	-15728	3512	-2744	-4	-5	-2	-144	-4064	16352	3	-12	22	125	129	5
-7568	-5072	13160	-10	17	-25	-16080	2776	-3128	11	-5	22	480	6704	15792	24	-6	1	-10240	5776	12024	13	-1	-18	-15624	3640	-2912	-3	-8	3	24	-4216	16320	1	-14	19	125	128	5
-7544	-5032	13004	-13	16	-22	-16320	2848	-3048	12	-5	17	416	6832	15664	23	-3	0	-10240	5848	12096	14	-4	-18	-15672	3616	-2816	-2	-7	2	-8	-4376	16200	-2	-14	16	125	128	5
-7540	-5008	13124	-10	18	-23	-16112	2960	-3160	8	-1	20	432	6816	15656	13	-5	-1	-10256	5832	12016	10	-1	-16	-15784	3536	-2752	0	-5	2	-144	-4232	16472	4	-12	20	125	128	5
-7524	-4972	13084	-13	15	-24	-16136	2768	-3048	6	-5	19	536	6720	16008	12	-6	0	-10152	5952	11968	20	1	-16	-15712	3664	-2728	-2	-3	-1	-136	-4136	16384	7	-13	20	125	129	5
-7524	-4964	13140	-13	16	-29	-16088	2840	-3152	4	-1	18	504	6728	16144	9	-1	2	-10272	5856	12008	11	0	-18	-15576	3672	-2736	-4	-4	5	-104	-4224	16152	4	-14	20	125	129	5
-7552	-5072	13140	-14	20	-23	-16104	2864	-3208	4	-3	19	448	6624	16024	16	-2	3	-10224	5880	11856	15	-2	-17	-15704	3760	-2936	-2	-5	0	-160	-4304	16680	3	-12	26	125	129	5
-7540	-5056	13208	-13	21	-22	-16200	2744	-3080	7	1	15	416	6672	15872	17	-1	3	-10312	5904	11784	14	-1	-17	-15640	3656	-2712	-4	-6	-2	-248	-4248	16496	4	-10	24	125	128	5
-7588	-5036	13092	-8	18	-29	-16120	2664	-3048	11	2	17	352	6672	15728	25	0	6	-10312	5776	11656	12	4	-23	-15752	3712	-2720	-3	2	-3	-168	-4032	16496	0	-10	25	125	128	5
-7552	-5016	13116	-10	22	-25	-16128	2808	-2936	14	1	18	384	6584	15696	31	-2	2	-10272	5856	11760	13	-5	-20	-15704	3744	-2816	-3	-3	-5	-176	-4160	16312	-2	-13	24	125	128	5
-7548	-4996	13108	-13	20	-25	-16160	2792	-3360	14	1	15	448	6696	15792	36	-2	4	-10240	5792	11712	15	-1	-17	-15648	3680	-2592	-1	-4	-6	-248	-4096	16304	-4	-17	22	125	129	5
-7584	-4992	13116	-14	21	-25	-16144	2880	-3080	10	-2	18	472	6888	16080	38	-3	6	-10208	5768	11832	17	-2	-19	-15640	3680	-2880	-2	1	-8	-168	-4280	16248	-9	-13	25	125	128	5
-7564	-4972	13116	-10	17	-19	-16160	2832	-3128	7	3	19	408	6752	15752	30	-4	5	-10312	5848	12088	14	-1	-17	-15656	3632	-2920	0	1	-9	-296	-4328	16384	-10	-15	24	125	129	5
-7548	-5008	13172	-11	22	-26	-16104	2824	-3056	6	-3	17	336	6552	15872	24	-1	4	-10184	5872	11920	12	-1	-19	-15728	3696	-2800	-3	-3	-5	-232	-4240	16416	-11	-14	25	125	128	5
-7584	-5060	12972	-13	17	-25	-16040	2904	-3208	3	-5	16	504	6624	16072	14	-4	2	-10256	5816	12032	17	-8	-16	-15608	3608	-2808	0	-6	-7	-168	-4136	16344	-6	-15	21	125	128	5
-7572	-4984	13056	-14	19	-25	-16160	2904	-3224	5	-2	16	240	6632	15800	13	-2	5	-10208	5928	11888	17	-3	-21	-15568	3600	-2880	-3	0	-8	-168	-4344	16456	-7	-15	23	125	128	5
-7508	-4988	13140	-13	22	-27	-16176	2824	-3304	4	-4	16	448	6728	16128	16	-1	4	-10480	5744	11824	13	0	-21	-15720	3656	-2976	-1	-5	-8	-160	-4272	16120	-1	-14	24	125	128	5
-7596	-5036	13164	-13	22	-21	-16080	2888	-3328	4	-9	10	408	6608	15792	19	-1	7	-10208	5848	11992	13	-6	-18	-15720	3632	-2952	-3	-6	-3	-264	-4272	16280	2	-14	24	125	128	5
-7588	-5040	13116	-12	17	-23	-16168	2744	-3296	7	-4	14	448	6680	16152	22	2	5	-10216	5784	11896	13	-3	-19	-15624	3544	-2768	3	-7	2	-152	-4424	16160	5	-12	20	125	129	5
-7572	-5076	13080	-17	20	-24	-16224	2896	-3264	10	-7	15	432	6488	15984	22	2	5	-10184	5704	12080	12	1	-16	-15632	3640	-2728	-3	-3	1	-184	-4256	16256	8	-9	20	125	128	5
-7512	-4992	13052	-13	19	-28	-16088	2800	-3192	11	-3	16	512	6592	15672	24	4	3	-10264	5800	12152	17	0	-16	-15600	3664	-2520	-6	-4	-8	-240	-4288	16328	9	-11	21	125	129	5
-7544	-5096	13200	-13	20	-27	-16112	2936	-3184	13	-4	16	408	6624	15872	21	2	0	-10240	5864	12128	15	-2	-16	-15648	3768	-2880	-3	-8	1	-120	-4160	16328	2	-5	23	125	128	5
-7552	-5016	13100	-10	19	-23	-16240	2824	-3160	12	-4	16	488	6592	15952	18	-2	4	-10296	5784	12080	18	2	-23	-15656	3536	-3016	-2	-3	-2	-256	-4208	16384	3	-12	27	125	128	5
-7564	-5024	13140	-15	19	-23	-16128	2848	-3232	13	-6	20	408	6656	15800	14	-4	6	-10264	5760	12056	14	-1	-16	-15624	3752	-2896	-5	-4	-8	-192	-4296	16496	-4	-13	26	125	128	5
-7532	-5072	13088	-13	18	-21	-16072	2968	-3160	11	0	16	320	6608	15968	17	-7	5	-10192	5968	12016	15	-7	-16	-15720	3784	-2832	-6	-3	-5	-184	-4112	16648	-5	-17	23	125	128	5
-7512	-5060	13076	-9	19	-25	-16168	2768	-3064	6	2	19	408	6648	15904	25	-1	4	-10240	5800	11968	17	-3	-19	-15808	3704	-2968	-7	-6	-2	-112	-4184	16664	-6	-15	25	125	128	5
-7520	-4992	13124	-10	21	-25	-16056	2792	-3288	8	2	18	536	6584	15784	24	-4	-1	-10040	5736	12040	17	1	-14	-15632	3536	-2872	2	-2	-2	-168	-4256	16312	1	-14	24	125	128	5
-7552	-5020	13100	-7	17	-21	-16144	2800	-3056	8	4	22	376	6680	15808	21	2	-2	-10304	5656	11840	14	1	-18	-15616	3568	-2600	3	-3	-2	-192	-4064	16336	1	-11	23	125	129	5
-7580	-5048	13032	-11	19	-22	-16184	2880	-3208	6	0	20	536	6624	15936	25	1	-1	-10144	5680	11832	16	5	-18	-15616	3712	-2784	3	-4	-2	-216	-4280	16352	0	-8	24	125	128	5
-7524	-5044	13152	-13	20	-24	-16200	2912	-3240	8	2	22	400	6664	16080	21	2	3	-10232	5840	11952	20	-1	-18	-15712	3832	-2728	2	-6	-3	-144	-4368	16432	4	-6	19	125	128	5
-7544	-5000	13184	-13	13	-25	-16136	2784	-3056	8	0	23	384	6576	15920	24	-1	3	-10208	5776	11728	14	-1	-24	-15608	3728	-2864	1	0	1	-168	-4208	16248	6	-16	21	125	129	5
-7548	-5068	13028	-14	15	-27	-16096	2784	-3368	10	-4	20	360	6728	15800	27	4	5	-10272	5800	12056	15	0	-18	-15504	3736	-2728	-5	-5	-3	-200	-4304	16544	8	-12	23	125	128	5
-7508	-5060	13100	-11	20	-25	-16072	2800	-3008	9	-6	21	496	6752	15800	37	-2	1	-10152	5784	11880	16	-7	-19	-15624	3744	-2984	-7	-2	-4	-224	-4312	16248	1	-17	21	125	128	5
-7540	-5000	13128	-12	18	-20	-16096	2808	-3336	10	-3	19	368	6592	15840	31	3	4	-10184	5832	11808	12	-4	-15	-15752	3728	-2792	-2	-6	-2	-256	-4264	16440	-2	-14	25	125	128	5
-7536	-4984	13052	-12	17	-23	-16096	2848	-3392	10	-6	17	224	6680	15744	31	-1	9	-10272	5832	11984	16	0	-22	-15552	3648	-2608	0	-7	1	-216	-4272	16240	-2	-15	20	124	128	5
-7576	-5104	13108	-9	17	-24	-16184	2768	-3096	7	-1	18	424	6616	15616	25	-3	4	-10296	5808	12080	14	-4	-17	-15648	3680	-2768	0	-4	-2	-408	-4224	16488	-4	-11	16	125	128	5
-7544	-5040	13152	-9	19	-26	-16016	2696	-2880	7	-4	17	456	6656	15776	21	-4	4	-10232	5744	11712	18	-6	-17	-15752	3624	-2944	0	-3	-3	-80	-4288	16488	-5	-11	18	125	129	5
-7568	-5076	13224	-11	20	-24	-16072	2784	-2888	6	-5	23	408	6896	15784	16	3	4	-10208	5840	11920	16	-2	-18	-15648	3584	-2952	-3	-6	-2	-128	-4232	16480	-1	-16	25	124	129	5
-7556	-5064	13032	-12	18	-28	-15976	2824	-3208	7	-5	13	512	6536	15928	11	-1	2	-10328	5904	11792	15	-4	-17	-15584	3616	-2720	1	-8	1	-304	-4208	16448	2	-13	23	125	128	5
-7532	-5020	13132	-14	17	-26	-16224	2808	-3048	3	-2	15	456	6608	15792	14	2	-2	-10056	5704	11768	15	-6	-17	-15560	3672	-3040	2	-6	-4	-200	-4080	16432	3	-14	24	125	129	5
-7548	-5040	13168	-10	16	-23	-16064	2936	-3096	5	-1	17	488	6608	15704	20	-4	3	-10256	5672	11840	12	-3	-19	-15616	3680	-2856	-5	-5	-7	-160	-4208	16200	6	-9	22	125	129	5
-7560	-5020	13120	-7	17	-25	-16200	2800	-3224	4	-2	19	480	6664	15872	20	-2	4	-10080	5816	11808	16	0	-20	-15704	3744	-2792	-3	-1	-5	-256	-4200	16272	-2	-13	23	125	129	5
-7504	-5052	13080	-13	22	-29	-16168	2816	-3080	4	-1	19	416	6520	15704	22	-3	6	-10272	5920	11840	15	-4	-18	-15664	3736	-2832	-1	-4	-4	-192	-4160	16376	1	-13	26	125	129	5
-7544	-5052	13040	-15	19	-26	-16112	2768	-3128	6	-6	17	288	6640	15856	34	5	3	-10256	5840	12040	19	-3	-15	-15560	3736	-2648	0	-3	-8	-88	-4144	16536	-4	-14	27	125	129	5
-7500	-5028	13144	-8	17	-25	-16104	2872	-3096	8	-5	17	448	6752	15736	39	3	2	-10152	5728	11888	16	-2	-20	-15584	3760	-2976	-1	-3	2	-336	-4328	16248	-7	-18	27	125	128	5
-7536	-5100	13104	-14	20	-22	-16200	2896	-2960	8	-2	18	376	6752	15856	35	0	5	-10120	5808	11936	12	-4	-18	-15520	3696	-2648	-1	-5	-4	-136	-4272	16576	-5	-15	24	125	128	5
-7484	-5040	13092	-8	22	-22	-16224	2808	-2992	9	0	19	456	6664	15848	32	-1	2	-10264	5736	11952	15	-7	-15	-15672	3608	-2760	2	-3	-5	-184	-4288	16344	-5	-16	23	125	129	5
-7564	-4988	13136	-15	19	-26	-16216	2848	-3304	11	-4	16	384	6632	15800	22	-1	-1	-10096	5736	12032	16	-4	-16	-15760	3576	-2744	0	0	-6	-168	-4440	16280	-9	-13	23	125	128	5
-7548	-5000	13152	-10	18	-24	-16064	2776	-3200	9	-3	22	424	6688	15760	23	-1	0	-10168	5752	11896	12	-4	-16	-15800	3720	-2856	1	-1	0	-208	-4384	16272	-1	-10	21	125	128	5
-7548	-5056	13092	-12	17	-23	-16248	2768	-3136	11	1	14	496	6664	15856	15	3	1	-10120	5816	11968	13	1	-17	-15616	3720	-2800	-4	-4	-3	-248	-4200	16416	-1	-14	23	125	128	5
-7564	-5036	13140	-13	20	-23	-16184	2888	-3008	8	1	16	344	6632	16024	14	2	3	-10264	5800	11912	17	0	-19	-15616	3744	-2688	-2	-4	-4	-176	-4216	16288	8	-13	22	125	128	5
-7524	-5052	13120	-12	15	-25	-16376	2952	-3464	5	-5	17	288	6624	15776	15	3	4	-10296	5640	12016	21	-8	-18	-15640	3552	-3032	-1	-8	-3	-288	-4144	16400	0	-11	20	125	128	5
-7484	-5040	13068	-11	20	-21	-16224	2920	-2904	5	-3	18	392	6544	15984	26	2	4	-10328	5720	11952	16	-4	-14	-15672	3640	-2896	-2	-5	-4	-72	-4200	16272	6	-14	19	125	128	5
-7552	-5064	13036	-12	20	-27	-16088	2744	-3248	11	-5	16	296	6616	16048	28	2	3	-10176	5648	11728	22	-10	-18	-15560	3592	-3016	-1	-9	-6	-168	-4272	16312	0	-15	21	125	128	5
-7596	-4984	13096	-14	15	-29	-16184	2880	-3072	6	-4	21	280	6640	15952	32	1	2	-10352	5712	11848	16	-3	-16	-15648	3624	-2832	0	-7	-3	-144	-4272	16400	1	-19	19	125	129	5
-7564	-5068	13132	-16	17	-25	-16032	2960	-3328	12	-4	19	312	6656	15920	29	-1	-2	-10168	5864	11888	12	-6	-17	-15808	3632	-2704	-1	-7	-5	-152	-4208	16352	-7	-18	22	125	128	5
-7612	-5048	13184	-10	18	-25	-16248	2920	-2872	12	-3	15	552	6728	15752	28	-6	2	-10272	5736	12120	14	2	-23	-15680	3568	-2648	-4	-4	-3	-144	-4336	16232	0	-13	19	125	128	5
-7568	-5040	13128	-16	19	-26	-16000	2912	-2992	12	-7	18	496	6672	16128	23	-2	2	-10120	5808	12000	15	1	-17	-15608	3744	-2840	-3	-3	-5	-112	-4336	16496	0	-13	22	125	128	5
-7632	-5048	13088	-13	22	-23	-16104	2832	-3032	8	-3	14	448	6680	15632	22	1	3	-10152	5856	12008	17	-7	-17	-15560	3712	-2632	-3	-1	3	-72	-4312	16312	4	-12	22	125	128	5
-7552	-5032	13096	-11	19	-30	-16216	2752	-3264	5	-3	21	528	6712	15936	14	-1	2	-10144	5872	11936	15	0	-20	-15688	3848	-2768	-4	-5	1	-176	-4032	16608	5	-11	26	125	128	5
-7608	-5052	13104	-12	22	-23	-16080	2896	-3064	11	3	14	472	6760	16240	15	-3	3	-10296	5880	11896	15	-4	-17	-15544	3704	-2880	-1	-4	-2	-288	-4288	16240	0	-15	23	125	129	5
-7588	-5004	13100	-13	23	-20	-16120	2888	-3168	7	-1	16	320	6712	15896	16	2	2	-10088	5872	11936	13	-1	-18	-15632	3768	-2912	-1	0	-5	-208	-4344	16288	3	-14	26	125	129	5
-7540	-5056	13148	-13	21	-22	-16272	2936	-3232	6	-4	14	296	6544	15760	20	-2	3	-10120	5808	12056	20	-3	-17	-15720	3784	-2768	-2	-6	-1	-88	-4232	16544	-7	-13	23	125	129	5
-7588	-5052	13084	-13	22	-24	-16072	2872	-3200	6	-3	17	440	6648	15928	28	4	4	-10168	5808	12144	14	-1	-14	-15608	3648	-2752	5	-3	-3	-232	-4312	16256	-3	-19	27	125	129	5
-7536	-5048	13080	-12	19	-22	-16144	2880	-3256	8	-9	22	384	6688	15896	28	-5	1	-10096	5896	12016	17	-4	-21	-15600	3824	-2800	5	-2	-3	-288	-4304	16224	1	-16	24	125	129	5
-7552	-4984	13184	-9	18	-23	-16064	2752	-3400	8	-5	18	368	6664	15704	38	-4	2	-10184	5816	12152	14	-6	-15	-15608	3672	-2744	-2	-4	-8	-200	-4392	16360	-2	-15	24	125	129	5
-7528	-5016	13044	-10	17	-26	-16112	2752	-3208	9	-9	18	408	6584	15936	34	0	5	-10176	5768	11680	14	1	-16	-15744	3672	-3008	-3	-4	-6	-168	-4256	16400	-2	-14	24	125	129	5
-7540	-5040	13196	-11	20	-23	-16064	2696	-2808	11	-10	17	368	6744	15808	36	1	0	-10248	5848	11960	16	-7	-18	-15664	3496	-2832	0	-6	-5	-192	-4320	16440	0	-15	21	125	129	5
-7580	-5012	13108	-14	21	-27	-16152	2904	-3184	12	-6	20	416	6856	15760	33	-2	8	-10352	5880	12144	17	1	-15	-15768	3720	-2752	0	-12	0	-208	-4320	16248	-3	-14	23	125	128	5
-7536	-5052	13076	-16	20	-26	-16120	2800	-2880	12	-13	21	512	6824	15856	23	1	4	-10208	5776	12056	12	3	-15	-15552	3608	-2672	-4	-7	0	-32	-4232	16488	3	-12	17	125	128	5
-7536	-5100	13068	-14	19	-24	-16096	2832	-3072	7	0	20	432	6712	15744	13	-2	4	-10328	5704	12008	15	-1	-18	-15688	3616	-2728	-1	-12	-2	-96	-4312	16112	3	-14	20	125	128	5
-7568	-5092	13192	-12	20	-27	-16128	2840	-3176	11	-6	20	512	6592	16152	12	-2	4	-10160	5816	12072	15	-2	-16	-15696	3592	-2768	-4	-5	2	-56	-4344	16168	-1	-12	16	125	129	5
-7560	-5012	13036	-12	20	-24	-16016	2744	-3080	9	-8	12	448	6736	15984	14	-1	0	-10120	5872	11688	14	2	-20	-15520	3664	-2920	-1	-2	5	-112	-4376	16352	4	-12	21	125	128	5
-7556	-5048	13076	-9	17	-26	-16120	2824	-3192	9	-2	16	448	6624	15720	16	-2	2	-10136	5704	11840	19	-6	-14	-15680	3752	-2656	-4	-8	3	-152	-4120	16432	-2	-11	23	125	129	5
-7580	-5016	13128	-6	22	-24	-16160	2720	-2912	6	-2	17	408	6568	15848	18	2	1	-10328	5720	11800	14	3	-17	-15600	3744	-2840	-2	-5	0	-264	-4200	16592	5	-16	22	125	128	5
-7532	-5016	13184	-11	19	-26	-16128	2776	-3288	8	1	15	288	6536	15760	25	-4	1	-10248	5816	12120	11	-4	-18	-15528	3808	-3016	0	-2	-3	-192	-4256	16536	7	-12	17	125	128	5
-7560	-5044	13116	-12	23	-23	-16088	2744	-3048	7	-1	16	408	6616	15896	32	2	3	-10192	5720	11896	16	-6	-17	-15584	3784	-2720	-1	-7	0	-304	-4328	16280	3	-15	22	125	128	5
-7576	-5016	13160	-13	19	-25	-16048	2824	-3344	7	-4	19	376	6680	15856	38	-2	2	-10368	5800	12080	12	-1	-22	-15624	3672	-2688	0	-5	-5	-288	-4064	16368	2	-16	23	125	128	5
-7584	-5052	13116	-14	22	-22	-16064	2880	-3152	11	-6	18	296	6816	15616	37	-2	7	-10296	5744	12016	13	-6	-16	-15840	3640	-2904	-2	-2	-5	-240	-4312	16456	0	-12	29	125	129	5
-7456	-5004	13024	-8	18	-23	-16160	2808	-3304	6	-6	20	392	6848	15792	37	4	4	-10208	5808	12104	12	-7	-20	-15520	3616	-2800	-2	1	-2	-64	-4224	16336	0	-13	22	124	129	5
-7528	-5016	13028	-12	17	-21	-16048	2880	-3144	6	-2	19	408	6728	15784	39	0	0	-10288	5896	12008	14	-4	-17	-15552	3640	-2720	1	-6	-6	-200	-4264	16424	1	-16	21	125	129	5
-7532	-5044	13136	-9	15	-29	-16152	2936	-3112	5	-4	22	440	6816	15584	30	-1	9	-10176	5960	12112	14	0	-18	-15688	3600	-2784	4	-8	3	-88	-4280	16168	1	-17	22	125	129	5
-7552	-4968	13172	-11	18	-26	-16120	3016	-2992	8	-5	19	504	6760	15856	24	-2	5	-10232	5920	11888	17	-8	-13	-15792	3640	-2816	3	-7	-3	-56	-4048	16424	1	-17	21	125	129	5
-7580	-4996	13092	-10	18	-25	-16176	2896	-3184	6	-7	14	320	6808	15896	21	1	7	-10224	5808	12000	16	-3	-20	-15728	3720	-2600	-4	-11	0	-104	-4208	16392	1	-14	22	125	128	5
-7540	-5108	13036	-14	24	-27	-16152	2928	-3128	4	-4	15	496	6728	16120	14	3	3	-10144	5736	11808	19	-6	-17	-15696	3696	-2864	-7	-5	-5	-184	-4296	16304	3	-11	24	125	128	5
-7540	-5016	13164	-13	22	-27	-16112	2752	-3336	9	-1	11	424	6704	15888	14	4	1	-10216	5624	11720	18	-1	-15	-15712	3760	-2784	-5	-11	-2	-152	-4176	16376	8	-12	20	125	129	5
-7568	-5020	13140	-15	22	-24	-16096	2920	-3112	10	-5	14	352	6648	15992	13	2	1	-10264	5856	11920	11	4	-17	-15552	3720	-2680	-4	-4	0	-128	-4312	16456	5	-7	19	125	128	5
-7556	-5020	13124	-13	19	-26	-16200	2728	-3272	14	-3	16	392	6736	16040	25	-1	-1	-10224	5776	11888	17	1	-21	-15728	3776	-2912	-6	1	0	-112	-4176	16352	7	-13	20	125	128	5
-7568	-5060	13036	-6	20	-24	-16112	2944	-3232	12	-8	18	496	6568	15864	24	0	1	-10216	5896	11712	16	-2	-18	-15640	3720	-2816	-4	-6	-1	-304	-4168	16368	3	-17	17	125	128	5
-7564	-5028	13176	-15	18	-22	-16144	2760	-3096	9	-8	17	336	6664	15848	31	-2	6	-10192	5856	11872	17	-3	-16	-15800	3696	-2840	-6	-3	-1	-224	-4144	16504	-1	-18	26	125	129	5
-7568	-4984	13100	-7	20	-28	-16152	2952	-3112	6	-4	26	336	6536	15704	29	-5	5	-10208	5832	12144	18	-1	-17	-15672	3912	-2656	-4	2	-1	-224	-4216	16360	0	-14	22	125	129	5
-7608	-5024	13124	-14	18	-25	-16088	2840	-3200	5	-7	20	424	6592	15848	28	-4	1	-10208	5776	12024	19	-3	-19	-15632	3760	-2752	-4	-2	-6	-168	-4296	16264	-3	-11	29	125	129	5
-7600	-5056	13068	-12	18	-21	-16120	2776	-3064	6	-4	16	440	6720	15952	23	1	0	-10136	5928	12096	18	-5	-17	-15712	3768	-2640	0	-4	-6	-40	-4304	16160	-2	-16	23	125	129	5
-7524	-4976	13100	-9	21	-24	-16048	2800	-3040	9	2	19	488	6744	15744	22	2	1	-10168	5752	12072	19	2	-22	-15624	3760	-2760	-3	-7	-6	-40	-4152	16200	-2	-17	25	125	128	5
-7520	-4996	13112	-15	20	-28	-16080	2896	-3032	5	-2	15	424	6624	15840	19	1	1	-10232	5792	12104	16	-6	-17	-15664	3672	-2792	-5	2	-6	-8	-4312	16264	0	-10	23	125	129	5
-7556	-4956	13168	-11	18	-23	-16064	2800	-2960	8	2	18	368	6584	16248	21	0	3	-10288	5800	11928	14	-1	-20	-15680	3616	-2824	-6	-3	-4	-104	-4216	16512	-4	-13	28	125	129	5
-7548	-5048	13176	-16	22	-24	-16072	2664	-3072	10	-5	21	472	6680	15872	24	1	5	-10128	5936	11776	13	-2	-18	-15648	3808	-2856	-7	1	-6	-112	-4416	16264	-3	-15	26	125	129	5
-7568	-5060	13180	-7	19	-23	-16112	2912	-3136	8	0	17	456	6736	15840	28	3	5	-10168	5744	12208	16	-3	-19	-15552	3616	-2824	-5	-1	-4	-72	-4256	16240	1	-14	23	125	129	5
-7572	-4956	13068	-12	18	-23	-16152	2960	-3336	7	-5	21	344	6648	16096	30	-2	0	-10208	5832	12064	17	-5	-17	-15680	3640	-2744	3	-5	-7	-200	-4232	16344	3	-14	28	125	128	5
-7584	-5040	13020	-10	17	-23	-16144	2896	-3224	8	-3	13	432	6792	15848	30	1	0	-10216	5776	11920	10	-1	-18	-15712	3720	-3016	0	-3	-4	-248	-4264	16624	3	-15	24	125	129	5
-7528	-5128	13152	-14	19	-22	-16120	2872	-3264	8	-7	20	416	6712	15960	26	2	2	-10272	5728	12072	13	-3	-17	-15720	3696	-2976	-2	-3	-1	-240	-4136	16344	7	-10	24	125	128	5
-7584	-5000	13088	-14	19	-24	-16104	2728	-3328	7	-4	21	424	6816	15856	23	2	5	-10320	5600	11760	15	-5	-16	-15688	3752	-2496	2	-6	-3	-192	-4344	16392	7	-7	22	125	129	5
-7552	-5044	13224	-11	18	-26	-16208	2712	-3160	5	-3	17	360	6656	15840	23	0	2	-10280	5856	11904	18	-8	-20	-15664	3496	-2864	-4	-7	-2	-112	-4336	16648	3	-13	22	125	129	5
-7612	-5072	13008	-12	19	-27	-16160	2888	-3072	9	-8	21	384	6624	15776	19	1	-1	-10192	5720	11880	13	-1	-17	-15704	3640	-2792	-4	-8	-1	-312	-4224	16304	0	-12	19	125	129	5
-7544	-4988	13132	-12	16	-20	-16168	2688	-3152	6	-5	18	376	6592	15696	19	-6	-4	-10208	5712	12032	15	-2	-18	-15704	3656	-2800	-2	-8	-3	-128	-4280	16440	-1	-17	21	125	129	5
-7592	-5036	13104	-12	20	-28	-16168	2832	-3304	8	-4	19	368	6744	15800	21	-2	2	-10104	5848	11816	16	1	-18	-15688	3776	-2632	-4	-3	-3	-88	-4176	16448	-3	-16	17	125	129	5
-7552	-5080	13148	-12	19	-27	-16112	2728	-3048	9	-9	17	392	6520	15816	21	-1	2	-10280	5728	11864	18	0	-18	-15624	3728	-2736	-2	-3	0	-48	-4304	16240	0	-17	20	125	129	5
-7596	-5020	13116	-11	17	-25	-16152	2784	-3048	13	-6	19	616	6696	15792	13	-4	3	-10176	5840	12112	16	-1	-21	-15568	3632	-2832	0	-4	-5	-240	-4216	16544	7	-11	23	125	129	5
-7528	-5044	13016	-8	20	-28	-16136	2832	-3160	14	-4	19	456	6712	15904	17	1	2	-10240	5840	11904	18	-2	-18	-15640	3736	-2880	0	-6	0	-56	-4248	16376	4	-11	27	125	129	5
-7528	-5024	13084	-15	16	-25	-16128	2808	-3320	9	-5	20	456	6576	15920	24	2	3	-10176	5792	11888	17	-6	-16	-15792	3704	-2832	-1	-4	-3	-72	-4176	16256	2	-13	27	125	129	5
-7500	-5028	13112	-12	19	-24	-16128	2808	-3040	10	0	14	344	6608	15664	22	-2	2	-10104	5768	11968	17	0	-19	-15640	3784	-2664	1	0	-7	-160	-4184	16312	4	-13	23	125	129	5
-7520	-5020	13196	-10	18	-29	-16216	2880	-3320	13	-1	17	360	6680	15968	27	4	5	-10184	5704	12080	15	-5	-21	-15576	3736	-2840	0	0	-4	-224	-4320	16320	-1	-13	23	125	128	5
-7532	-5072	13064	-17	16	-27	-16200	2792	-3040	6	-2	20	432	6536	16088	30	-1	3	-10192	5736	11952	16	2	-20	-15648	3736	-2704	2	-1	0	-320	-4080	16352	-6	-13	25	125	128	5
-7640	-5064	13156	-9	18	-25	-16232	2848	-3048	6	0	21	352	6520	16016	31	-1	3	-10112	5744	11976	18	-4	-20	-15680	3768	-2832	1	-7	-3	-128	-4248	16312	-1	-17	24	125	128	5
-7584	-5092	13100	-11	15	-23	-16184	2880	-3192	6	0	18	192	6744	15848	29	-5	1	-10224	5648	12032	15	0	-18	-15656	3672	-2624	-5	-4	-2	-312	-4312	16472	-5	-13	24	125	128	5
-7560	-5032	13100	-13	18	-26	-16208	2696	-2968	6	-4	17	224	6656	15992	31	-2	3	-10184	5856	11960	12	-5	-20	-15696	3776	-2944	-9	-3	-5	-168	-4304	16456	-4	-14	25	125	128	5
-7560	-5044	13128	-11	16	-24	-16104	2744	-3344	5	-8	20	432	6584	15840	26	-3	-1	-10320	5728	12008	15	1	-20	-15512	3640	-2728	-7	-4	-6	-168	-4216	16376	-1	-13	20	125	128	5
-7552	-5000	13144	-10	16	-25	-16160	2896	-2960	8	-6	17	384	6800	15968	27	-1	2	-10256	5712	11968	16	-2	-19	-15632	3632	-2568	-5	-5	-4	-168	-4152	16576	-2	-16	20	125	128	5
-7512	-5016	13116	-16	19	-24	-16112	2840	-3240	8	-9	20	512	6536	15848	25	1	3	-10176	5856	12096	14	-2	-14	-15656	3776	-2976	-1	-4	-6	-240	-4424	16432	-4	-16	24	125	128	5
-7556	-5004	13188	-14	18	-24	-16176	2824	-3296	9	-6	19	448	6736	16352	15	1	1	-10104	5712	11984	11	-1	-18	-15632	3736	-2744	0	-2	0	-104	-4304	16368	2	-12	20	125	128	5
-7512	-4928	13068	-10	18	-29	-16136	2776	-2960	11	-4	14	480	6640	15848	13	0	1	-10288	5816	11880	17	1	-20	-15632	3720	-2816	-3	-5	-7	-192	-4248	16432	4	-8	24	125	129	5
-7496	-5048	13136	-14	21	-20	-16168	2920	-3248	14	-6	16	376	6616	16008	18	-1	1	-10232	5960	11816	18	-1	-23	-15680	3712	-2640	-4	-3	0	-136	-4336	16328	7	-10	23	125	129	5
-7560	-4972	13072	-13	18	-23	-16088	2808	-3248	9	-4	13	360	6640	15840	19	3	2	-10216	5848	11856	18	1	-16	-15640	3568	-2840	-5	-4	0	-248	-4272	16216	12	-11	24	125	128	5
-7552	-5048	13120	-7	23	-23	-16032	2800	-3256	7	-8	17	488	6800	15584	25	0	4	-10248	5832	11936	13	1	-15	-15712	3632	-2592	-9	-3	-1	-160	-4208	16464	4	-19	24	125	128	5
-7448	-5052	13132	-9	15	-18	-16048	2840	-3352	6	-8	20	552	6536	15776	30	3	4	-10048	5768	12008	17	-2	-20	-15624	3696	-2640	-4	-4	-1	-128	-4232	16448	-1	-12	20	125	128	5
-7512	-5080	13212	-12	14	-25	-16112	2960	-3152	3	-4	16	272	6608	15848	30	-4	5	-10328	5720	12008	14	-3	-17	-15672	3744	-2960	-3	1	-4	-224	-4144	16416	-6	-18	24	125	129	5
-7544	-4988	13096	-15	19	-24	-16200	2800	-3176	7	-5	16	496	6712	15808	30	-5	3	-10360	5776	11872	17	0	-19	-15696	3792	-2752	-4	-3	-4	-176	-4136	16456	-5	-13	26	125	128	5
-7536	-4964	13120	-9	18	-25	-16168	2904	-3272	7	-8	17	312	6720	15928	27	2	4	-10152	5920	11896	15	0	-17	-15696	3680	-2656	-4	-5	-1	-328	-4232	16392	-4	-18	24	125	128	5
-7556	-5044	13100	-14	19	-28	-16136	2840	-3520	5	1	18	368	6808	15992	25	-2	-3	-10232	5768	11872	13	-4	-19	-15520	3656	-2792	-2	-4	-2	-104	-4168	16168	0	-14	19	125	128	5
-7476	-5072	13132	-14	15	-24	-16112	2768	-3032	9	-6	14	344	6784	15656	21	1	1	-10288	5800	11912	13	-7	-18	-15672	3728	-2528	1	-4	-2	-216	-4296	16128	-1	-9	22	125	128	5
-7544	-5040	13084	-10	21	-23	-16152	2952	-2944	10	-4	18	408	6704	16064	23	-6	-1	-10272	5792	11800	12	0	-17	-15696	3704	-2976	-4	-7	-5	-88	-4232	16384	-2	-15	22	125	128	5
-7520	-5004	13148	-11	19	-26	-16136	2808	-3296	8	-3	16	400	6680	15704	22	-1	1	-10192	5856	11792	13	-5	-15	-15584	3728	-2872	-3	-2	-2	-304	-4352	16216	-2	-14	23	125	128	5
-7544	-5016	13096	-14	17	-24	-16128	2888	-3224	9	-6	15	528	6656	15848	24	3	7	-10280	5784	12008	13	-3	-19	-15728	3888	-2872	1	-9	-5	-184	-4400	16472	0	-14	23	125	128	5
-7548	-4996	13168	-11	20	-22	-16200	2816	-3144	8	-6	16	296	6696	15912	24	0	5	-10088	5680	12048	13	-2	-17	-15712	3592	-2984	-2	-9	1	-232	-4336	16448	-2	-14	25	125	128	5
-7520	-5036	13208	-11	21	-28	-16080	2872	-3160	7	-7	18	352	6616	15984	26	-1	-1	-10272	5784	11936	15	-6	-18	-15640	3680	-2824	-5	-5	-1	-224	-4136	16304	-2	-16	23	125	128	5
-7624	-5008	13152	-13	19	-26	-16152	2864	-3048	3	-8	16	408	6648	15792	20	-1	2	-10256	5960	11952	13	0	-18	-15696	3616	-2784	1	-5	-7	-128	-4176	16592	-2	-13	17	125	128	5
-7568	-5052	13148	-15	16	-25	-16200	2864	-3232	9	-7	20	376	6800	15912	20	-4	2	-10296	5872	11920	16	-4	-18	-15632	3680	-2832	-1	-9	0	-64	-4264	16424	2	-14	24	125	129	5
-7496	-5028	13160	-9	20	-30	-16144	2824	-3136	9	-4	15	336	6696	15672	22	-1	3	-10224	5848	11936	17	-3	-20	-15680	3656	-2912	-3	-8	-4	-216	-4392	16568	4	-15	22	125	128	5
-7528	-4972	13152	-14	15	-18	-16144	2736	-3200	5	-9	16	296	6664	15776	24	-8	4	-10288	5776	11920	14	-5	-17	-15616	3712	-2992	-1	-8	-1	-176	-4264	16456	2	-11	22	125	128	5
-7576	-5112	13052	-12	16	-26	-16152	2864	-3192	4	-1	17	480	6792	16040	23	-6	7	-10184	5856	11864	16	-11	-19	-15560	3792	-2712	-4	-2	-8	-32	-4184	16376	5	-13	22	125	128	5
-7536	-5064	13252	-10	18	-29	-16152	2864	-2992	10	-11	16	512	6648	15840	20	-2	0	-10144	5784	12032	12	-5	-17	-15680	3712	-2688	-1	-1	-3	-216	-4224	16352	2	-13	26	125	128	5
-7600	-5044	13080	-16	18	-24	-16096	2920	-3048	5	-7	15	408	6696	15832	22	0	2	-10272	5792	11904	14	-8	-15	-15704	3536	-2760	-5	-4	-4	-160	-4136	16384	-5	-12	27	125	129	5
-7548	-5044	13112	-13	19	-28	-16280	2800	-3184	4	-3	19	456	6704	15960	21	4	2	-10232	5888	12000	12	3	-17	-15744	3704	-2736	-2	-7	-7	-168	-4248	16456	2	-13	24	125	128	5
-7632	-5028	13084	-11	19	-25	-16200	2848	-3112	3	-5	17	576	6680	16040	18	1	0	-10176	5832	11680	15	-6	-18	-15576	3632	-2600	0	1	-5	-32	-4216	16552	0	-16	26	125	128	5
-7552	-5048	13120	-18	19	-25	-16072	2800	-3176	8	-5	19	496	6632	15584	16	-3	-1	-10208	5872	11832	14	0	-23	-15568	3616	-2656	0	-5	-3	-128	-4224	16512	-2	-14	22	125	129	5
-7536	-4984	13144	-13	21	-23	-16024	2832	-3272	11	-5	20	320	6656	15856	18	-4	0	-10144	5920	11992	13	-1	-20	-15600	3536	-2976	-2	-2	-4	-80	-4320	16336	-7	-17	21	125	129	5
-7528	-5048	13040	-12	20	-25	-16136	2784	-3104	10	6	21	416	6744	15920	29	-6	-1	-10320	5736	12032	13	-4	-23	-15624	3680	-2920	-8	-1	-5	-104	-4280	16312	-1	-14	22	125	129	5
-7540	-5068	13172	-14	23	-28	-16136	2944	-3048	8	-4	14	400	6560	15776	28	1	1	-10160	5752	11840	13	-5	-16	-15600	3600	-3032	-7	1	-7	-216	-4152	16200	2	-14	23	125	129	5
-7568	-5024	13124	-9	18	-24	-16104	2832	-3136	8	-4	15	384	6728	15904	23	1	6	-10248	5808	12040	16	-7	-16	-15600	3632	-2632	-2	-4	-1	-264	-4288	16496	2	-12	24	125	128	5
-7544	-4952	13088	-15	21	-24	-16104	2816	-3280	9	3	18	408	6568	16048	26	-1	5	-10312	5880	11960	17	-3	-16	-15632	3680	-2984	0	-3	-2	-256	-4296	16400	3	-11	22	125	128	5
-7568	-4992	13172	-13	19	-24	-16120	2864	-3272	9	-3	13	488	6704	16088	22	1	4	-10232	5872	11880	15	1	-16	-15584	3760	-2840	1	-5	-2	-216	-4288	16528	4	-16	22	125	129	5
-7496	-4992	13140	-13	18	-24	-16168	2824	-3104	8	-1	17	512	6784	15872	20	2	0	-10304	5728	11896	14	-2	-21	-15640	3656	-3008	2	-2	-1	-232	-4272	16336	0	-13	22	125	129	5
-7552	-5032	13144	-9	17	-28	-16056	2760	-3304	8	-3	18	320	6656	15976	19	1	2	-10256	5680	11888	19	-3	-16	-15520	3648	-2904	-2	-4	-2	-152	-4280	16488	3	-15	24	125	129	5
-7500	-5064	13072	-17	22	-29	-16144	2792	-3192	7	2	21	352	6616	15960	19	-1	1	-10096	5768	11992	13	0	-16	-15688	3616	-2704	-3	-5	-2	-144	-4232	16328	-1	-17	22	125	129	5
-7528	-4972	13120	-9	14	-23	-16112	2824	-3296	8	-3	18	448	6704	15936	24	0	-3	-10288	5736	11976	9	-2	-16	-15520	3696	-2912	-4	-3	1	-144	-4360	16448	1	-12	26	125	129	5
-7536	-5068	13132	-11	21	-22	-16160	2824	-3000	9	-3	17	416	6584	15808	28	-6	1	-10176	5856	11920	11	-3	-19	-15656	3528	-2896	2	-3	-3	-160	-4320	16384	0	-13	26	125	128	5
-7484	-4984	13092	-12	24	-27	-16216	2696	-3160	5	-7	16	544	6800	15832	28	-1	2	-10208	5880	11968	13	0	-17	-15744	3744	-2720	-1	-9	3	-160	-4224	16008	-2	-15	23	125	129	5
-7540	-5008	13084	-11	17	-28	-16200	2912	-3240	3	0	19	448	6696	15864	25	-2	2	-10232	5848	12072	10	-2	-16	-15544	3720	-2840	-2	-3	0	-160	-4264	16480	3	-16	26	125	128	5
-7540	-5044	13032	-12	19	-22	-16120	2752	-3112	3	0	17	488	6640	15888	30	-1	-1	-10184	5752	11928	10	-1	-15	-15632	3656	-2792	-1	-9	-3	-176	-4288	16400	3	-15	26	125	129	5
-7572	-5072	13104	-12	14	-29	-16112	2752	-3232	6	-7	17	384	6672	16088	27	2	-1	-10048	5864	11904	13	3	-22	-15584	3648	-2808	1	-7	0	-168	-4224	16480	2	-14	19	125	128	5
-7576	-5076	13120	-7	22	-23	-16224	2784	-3184	16	-3	15	560	6800	15904	27	-2	0	-10256	5656	11832	14	0	-21	-15648	3680	-2728	-2	-4	0	-104	-4104	16128	3	-10	20	125	128	5
-7580	-4996	13116	-7	20	-28	-16032	2816	-3264	11	-1	20	416	6704	15872	27	-5	1	-10104	5880	11808	12	-2	-17	-15752	3736	-2496	0	-2	-3	-128	-4224	16512	2	-8	22	125	129	5
-7580	-5108	13148	-8	18	-23	-16160	2688	-3048	10	-1	19	496	6632	15920	23	-3	1	-10160	5768	11776	14	1	-18	-15536	3728	-2720	-2	-3	0	-88	-4320	16248	1	-16	20	125	129	5
-7576	-5104	13184	-12	19	-24	-16072	2744	-3080	7	-2	17	488	6584	15744	21	1	6	-10192	5784	11784	12	-2	-16	-15528	3576	-2944	3	-3	-3	-320	-4168	16280	-1	-15	22	125	129	5
-7516	-4964	13064	-12	18	-22	-16128	2936	-3104	2	0	15	480	6632	16128	26	1	3	-10288	5880	11920	16	-4	-21	-15744	3632	-2896	3	-5	0	-152	-4320	16472	0	-10	22	125	129	5
-7584	-5024	13084	-13	14	-21	-16168	2792	-3208	7	-5	16	528	6648	15840	24	0	4	-10176	5904	12008	16	0	-17	-15648	3728	-2912	0	-7	-4	-88	-4208	16344	0	-13	24	125	129	5
-7536	-5092	13116	-15	20	-27	-16096	2848	-3192	9	0	15	320	6584	16040	24	-1	5	-10120	5720	12032	14	-6	-17	-15784	3712	-2768	1	-3	-4	-248	-4144	16400	-2	-15	25	125	129	5
-7528	-5012	13152	-15	20	-23	-16168	2792	-3104	11	0	16	456	6672	15544	22	-1	2	-10192	5792	11728	17	-4	-19	-15664	3656	-2720	1	-3	-1	-192	-4232	16464	4	-12	22	125	129	5
-7552	-4972	13036	-15	16	-21	-16184	2736	-3128	12	-3	19	432	6624	15928	25	-1	2	-10240	5832	11808	13	-2	-19	-15656	3696	-2816	0	-1	-4	-416	-4232	16536	2	-15	23	125	129	5
-7600	-5036	13036	-15	18	-24	-16040	2928	-3208	14	-4	16	408	6664	16136	30	-7	2	-10128	5760	11864	19	-7	-14	-15624	3592	-2832	-4	1	-2	-336	-4232	16376	2	-12	30	125	128	5
-7580	-5012	13120	-13	17	-26	-16032	2816	-3112	14	-3	21	480	6664	15736	24	-1	-2	-10224	5864	11960	12	1	-17	-15696	3608	-2872	0	-5	-9	-48	-4240	16456	-3	-16	24	125	129	5
-7616	-5032	13072	-9	16	-29	-16160	2904	-3248	9	-6	16	288	6720	15968	23	-4	4	-10280	5672	11920	16	-1	-25	-15712	3848	-3112	6	-8	-5	-168	-4248	16264	-2	-14	22	125	129	5
-7580	-5040	13228	-14	19	-23	-16200	2824	-3088	6	-1	15	240	6744	15920	23	-2	3	-10088	5704	11992	12	3	-22	-15728	3576	-2960	0	-4	-2	-136	-4272	16400	-6	-13	22	125	128	5
-7532	-5032	13096	-14	16	-27	-16080	2800	-3080	2	-6	15	536	6616	15776	21	2	4	-10176	5944	11872	15	-3	-15	-15488	3784	-2736	-1	-6	-9	-88	-4200	16568	1	-13	20	125	128	5
-7584	-5112	13128	-14	19	-24	-16056	2768	-3424	5	-1	13	440	6664	16016	23	1	5	-10160	5792	11904	15	-7	-13	-15584	3696	-2864	-2	-3	2	-176	-4232	16392	-5	-13	25	125	129	5
-7532	-4996	13116	-13	19	-30	-16104	2880	-3136	6	-1	16	408	6704	15744	23	-2	2	-10168	5832	12040	15	-1	-15	-15576	3672	-2728	-4	-8	-8	-144	-4264	16536	-3	-17	22	125	129	5
-7576	-5004	13076	-14	17	-26	-16080	2864	-3128	7	-2	15	424	6664	15736	23	3	4	-10296	5696	12064	15	-6	-17	-15664	3632	-2752	-4	-4	-2	-136	-4296	16384	-2	-14	23	125	129	5
-7544	-5072	13184	-13	17	-27	-16160	2792	-3048	10	2	14	432	6688	15992	27	-2	4	-10144	5936	12152	15	1	-16	-15832	3656	-2944	-5	2	-3	-144	-4272	16536	-2	-17	20	125	128	5
-7532	-4960	13184	-10	16	-27	-16208	2872	-3072	14	-6	18	608	6808	16128	26	-3	2	-10216	5768	11728	14	-4	-18	-15752	3496	-2760	1	-3	4	-48	-4352	16344	1	-17	19	125	128	5
-7572	-4980	13152	-9	19	-24	-16304	2712	-3232	7	-4	18	400	6584	15656	26	-2	8	-10176	5808	11832	16	-2	-18	-15744	3736	-2880	2	-5	-2	-168	-4216	16392	2	-9	20	125	128	5
-7528	-5016	13084	-11	16	-25	-16144	2784	-3144	5	1	13	368	6712	15856	25	-2	9	-10232	5856	11856	13	-1	-16	-15584	3736	-2560	0	-2	0	-152	-4352	16432	4	-14	24	125	128	5
-7548	-5044	13064	-11	15	-23	-16080	2824	-3184	5	-1	15	456	6576	15872	16	-1	6	-10192	5760	11920	13	2	-18	-15792	3672	-2640	0	-2	-3	-376	-4272	16336	4	-13	21	125	128	5
-7572	-5056	13140	-11	20	-22	-16104	2904	-2952	6	-3	19	504	6688	15632	18	-2	3	-10248	5960	12192	16	-2	-16	-15752	3712	-2872	0	-3	-2	-336	-4296	16384	8	-11	22	125	128	5
-7596	-5096	13140	-14	19	-25	-16120	2800	-3232	7	-1	14	448	6696	15888	20	-3	2	-10104	5768	12048	17	-3	-19	-15712	3552	-2984	-3	-6	0	-320	-4336	16360	3	-14	24	125	128	5
-7524	-5056	13120	-11	18	-25	-16176	2888	-3136	6	-1	16	472	6544	16040	19	0	0	-10344	5704	11928	15	-3	-20	-15552	3608	-2704	-2	-6	-5	-248	-4112	16504	-2	-13	24	125	128	5
-7484	-5020	13076	-9	18	-22	-16272	2824	-3032	4	-8	20	400	6632	15904	20	0	3	-10168	5744	12144	16	0	-18	-15480	3728	-2656	-2	-1	-2	-336	-4168	16456	-1	-15	18	125	128	5
-7588	-5008	13164	-8	21	-26	-16224	2736	-3088	5	-5	16	424	6528	15856	25	-3	8	-10264	5792	11784	14	1	-17	-15584	3832	-2664	-4	0	-8	-240	-4312	16440	-5	-18	21	125	129	5
-7488	-5016	13072	-11	22	-25	-16008	2808	-3016	12	1	17	456	6528	15736	33	-2	4	-10232	5848	12056	16	-2	-16	-15608	3576	-2880	-2	-7	-2	-64	-4320	16584	-6	-15	22	125	129	5
-7536	-5056	13128	-8	15	-26	-16088	2824	-2816	9	0	17	416	6608	15912	30	-7	0	-10360	5712	11920	15	-2	-17	-15608	3704	-2736	-1	-5	0	-208	-4344	16544	-5	-15	23	125	129	5
-7600	-5056	13084	-11	21	-26	-16120	2928	-3296	13	-2	19	288	6544	15776	28	-1	3	-10248	5856	11976	16	2	-20	-15552	3592	-2920	-5	-2	-3	-120	-4136	16424	0	-15	25	125	129	5
-7532	-5020	12996	-7	14	-21	-16088	2824	-3368	8	-2	21	312	6784	15896	25	-1	4	-10232	5728	11920	11	-4	-16	-15728	3656	-2864	-4	-5	-2	-112	-4240	16256	-1	-16	24	125	129	5
-7604	-5036	13240	-14	17	-22	-15936	2752	-3320	5	-4	15	400	6824	15920	25	0	1	-10240	5848	12080	11	-2	-20	-15568	3664	-2816	-2	-7	1	-264	-4304	16240	2	-13	25	125	129	5
-7560	-4960	13208	-10	22	-25	-16112	2512	-3008	4	-5	17	488	6680	15992	16	0	4	-10240	5872	11728	12	1	-16	-15608	3776	-2960	1	-7	-1	-152	-4200	16528	4	-9	22	125	129	5
-7604	-5028	13032	-16	16	-23	-16120	2768	-3208	5	-7	16	448	6816	15872	19	0	3	-10160	5760	12008	11	-1	-19	-15576	3624	-2920	-2	-9	-2	-128	-4264	16688	8	-13	21	125	128	5
-7520	-4984	13160	-12	17	-27	-16248	2832	-3088	10	-4	18	320	6704	15800	20	1	4	-10360	5904	11840	15	-2	-17	-15712	3680	-2496	-1	-5	-1	-312	-4144	16504	7	-15	18	125	128	5
-7536	-5024	13260	-13	19	-26	-16120	2800	-3056	5	-10	13	376	6536	15848	21	1	7	-10224	5736	11840	10	0	-19	-15712	3728	-2960	-2	-3	-1	-296	-4256	16440	2	-13	21	125	129	5
-7544	-5020	13192	-10	24	-24	-16136	2720	-3256	6	-3	12	304	6632	15856	25	4	6	-10256	5696	11720	16	-3	-19	-15720	3696	-2832	-2	-2	3	-112	-4248	16456	-1	-16	25	125	129	5
-7604	-5044	13152	-16	17	-25	-16120	2768	-3072	6	-1	15	392	6640	16072	27	-2	3	-10264	5752	12048	18	-2	-19	-15512	3672	-3032	-4	-2	-3	-272	-4176	16648	-4	-17	21	125	129	5
-7564	-5080	13092	-13	20	-26	-15984	2904	-3104	7	1	18	480	6480	15912	28	0	2	-10296	5792	11792	16	0	-16	-15688	3696	-2992	2	-4	-6	-88	-4072	16464	-1	-11	19	125	129	5
-7560	-5000	13088	-9	20	-27	-16160	2880	-3168	10	4	13	496	6728	16192	21	-4	1	-10104	5816	11760	12	-7	-20	-15664	3592	-2648	2	-2	-6	-128	-4208	16504	-6	-13	22	125	128	5
-7536	-5028	13116	-15	20	-25	-16168	2928	-3240	14	1	17	376	6696	15888	17	1	-1	-10176	5776	11904	13	0	-23	-15528	3664	-2840	-5	2	-2	-288	-4328	16560	-2	-13	26	125	128	5
-7588	-5024	13084	-15	19	-22	-16048	2976	-3224	12	3	19	616	6688	15792	12	-1	-2	-10088	5912	11912	14	3	-20	-15616	3536	-2752	-3	2	-7	-224	-4224	16256	-7	-17	26	125	128	5
-7580	-4976	13088	-11	17	-27	-16040	2992	-3320	8	3	18	600	6608	16048	11	-1	6	-10152	5912	12000	19	-6	-19	-15600	3568	-2912	0	-7	-2	-128	-4176	16536	-4	-18	23	125	129	5
-7564	-4984	13144	-11	21	-30	-16152	2800	-3128	3	-4	12	440	6536	15800	14	-2	3	-10000	5856	11848	10	-1	-22	-15840	3608	-2736	1	-5	-2	-312	-4344	16432	-2	-16	26	125	129	5
-7572	-5044	13088	-13	22	-29	-16112	2688	-3168	5	-1	15	360	6616	15952	20	2	7	-10264	5808	11888	17	-2	-20	-15624	3528	-2808	2	-1	-2	-264	-4288	16336	0	-16	27	125	129	5
-7540	-5064	13036	-12	19	-24	-16152	2848	-3016	2	0	19	368	6608	15888	31	3	6	-10136	5744	11880	15	-3	-23	-15712	3720	-2872	2	-1	-3	-160	-4288	16440	1	-13	27	125	128	5
-7560	-5016	13096	-11	19	-23	-16144	2784	-3208	7	-3	16	344	6624	15976	28	1	7	-10128	5744	12008	12	1	-19	-15704	3664	-2968	-5	-2	-7	-360	-4352	16448	4	-14	25	125	128	5
-7532	-5020	13204	-13	17	-25	-16160	2920	-3304	6	-5	18	384	6656	15840	27	2	5	-10128	5696	12024	17	-3	-19	-15816	3480	-2840	-4	-7	-3	-176	-4280	16544	2	-13	26	125	129	5
-7564	-5044	13148	-10	22	-26	-16184	2872	-3088	6	-7	16	424	6664	15928	26	-2	6	-10328	5896	11864	15	-7	-18	-15624	3768	-2968	-1	-4	-4	-144	-4168	16392	1	-12	22	125	129	5
-7540	-5076	13168	-11	17	-27	-16112	2760	-2952	7	-5	18	336	6776	15864	25	-4	4	-10264	5800	11976	16	1	-20	-15624	3608	-2800	-5	-8	-3	-64	-4304	16504	3	-11	23	125	129	5
-7504	-5000	13148	-12	20	-20	-16200	2792	-3040	12	-12	17	384	6632	15984	25	3	3	-10128	5800	11768	12	2	-18	-15696	3712	-2624	-5	-5	-4	-224	-4384	16480	0	-15	22	125	128	5
-7572	-5020	13056	-11	17	-26	-16176	2904	-2952	13	-8	17	432	6744	15744	26	-1	3	-10056	5672	11920	12	-3	-17	-15504	3448	-2672	-3	-4	-3	-112	-4240	16256	7	-11	25	125	128	5
-7612	-5076	13040	-12	16	-23	-16168	2928	-3064	8	-2	17	376	6560	15856	23	-3	2	-10168	5704	12008	13	-6	-22	-15608	3600	-3056	2	-7	-6	-104	-4232	16424	5	-13	24	125	128	5
-7552	-5048	13092	-12	18	-27	-16224	2992	-3104	1	-3	21	440	6728	15736	17	-3	1	-10224	5816	11792	14	-6	-16	-15568	3784	-3112	-2	-7	0	-168	-4160	16472	1	-13	22	125	128	5
-7556	-5032	13132	-11	19	-25	-16072	2904	-3184	2	-4	17	384	6664	15472	17	-3	-2	-10320	5720	11904	16	2	-20	-15664	3680	-2800	-1	-1	-8	-96	-4256	16656	2	-13	20	125	128	5
-7588	-4992	13116	-9	22	-22	-16168	2912	-3016	6	-9	17	344	6680	16040	22	-2	1	-10176	5896	11688	15	-4	-22	-15784	3664	-2720	1	-6	-4	-64	-4168	16120	-1	-14	23	125	128	5
-7532	-5032	13124	-9	17	-26	-16160	2896	-3272	5	-6	20	440	6640	15888	21	-6	1	-10344	5728	12016	11	0	-19	-15744	3704	-2824	-3	-3	-5	-200	-4208	16600	2	-14	24	125	128	5
-7544	-4988	13128	-9	17	-23	-16272	2768	-2976	1	-4	22	408	6552	15736	25	-6	2	-10224	5808	12080	16	-4	-18	-15752	3728	-2816	-5	-3	-3	-184	-4312	16480	1	-15	24	125	128	5
-7540	-5024	13252	-12	17	-22	-16040	2816	-3128	10	-4	16	488	6584	15920	24	0	2	-10120	5848	11904	14	-5	-20	-15608	3728	-2768	-12	1	-3	-184	-4208	16248	4	-12	25	125	128	5
-7556	-5044	13160	-11	20	-27	-16224	2848	-3128	9	-3	18	488	6584	15736	31	1	2	-10208	5752	11960	14	-1	-14	-15688	3744	-2576	-8	-5	-5	-120	-4320	16264	-1	-15	21	125	129	5
-7568	-5008	13128	-9	18	-28	-16152	2800	-3048	9	-2	15	472	6528	15976	31	-1	6	-10136	5800	12080	12	-4	-15	-15600	3728	-2952	-7	-4	-5	-88	-4312	16272	0	-17	22	125	128	5
-7604	-4988	13120	-11	19	-26	-16000	2816	-3192	10	-5	15	400	6576	15808	31	1	7	-10032	5672	12008	13	-6	-16	-15760	3696	-2712	1	-4	-3	-152	-4360	16352	1	-16	22	125	128	5
-7568	-5048	13088	-11	16	-28	-16080	2840	-3152	9	-3	14	472	6664	15848	24	-2	6	-10248	5776	11760	15	-5	-18	-15672	3608	-2784	-3	-1	-4	-128	-4288	16384	0	-15	20	125	128	5
-7536	-5048	13092	-11	20	-23	-16144	2912	-3232	10	-4	14	488	6528	15736	20	-1	4	-10176	5880	12024	15	-3	-19	-15704	3656	-2608	-2	-4	-2	-136	-4272	16248	-1	-13	22	125	128	5
-7584	-5032	13088	-12	20	-24	-16184	2864	-3064	7	-2	19	440	6680	15896	20	-2	5	-10184	5776	11920	17	-2	-19	-15632	3640	-2600	2	1	-2	-136	-4320	16576	-1	-13	24	125	128	5
-7632	-5012	13096	-11	17	-25	-16112	2848	-3376	7	-3	19	272	6624	15720	19	-1	0	-10216	5776	12048	13	-3	-16	-15640	3712	-2752	-5	-3	-5	-256	-4240	16400	-1	-17	23	125	128	5
-7524	-5044	13104	-15	21	-25	-15912	2872	-2976	7	-5	14	512	6528	15624	16	-5	2	-10272	5696	11640	16	1	-24	-15656	3760	-2784	-1	-5	-6	-208	-4296	16200	2	-14	23	125	129	5
-7564	-5016	13100	-17	18	-27	-16080	2760	-3176	5	-6	16	536	6560	15936	21	-6	5	-10168	5840	11952	17	-4	-15	-15688	3600	-2712	0	-5	-4	-56	-4144	16416	-3	-14	22	125	129	5
-7576	-5052	13176	-11	18	-26	-16096	2776	-2952	3	-1	16	384	6648	16096	21	1	4	-10192	5760	12064	15	0	-21	-15792	3736	-2688	-4	-2	-4	-192	-4240	16168	-5	-14	23	125	129	5
-7516	-5028	13036	-11	17	-23	-16176	2784	-2880	2	2	17	288	6624	15936	27	-3	7	-10080	5856	11832	14	-3	-19	-15704	3720	-2888	-4	-1	-6	-88	-4232	16400	-1	-15	25	125	129	5
-7564	-5028	13156	-11	19	-29	-16208	2904	-3008	7	2	17	296	6712	15872	31	-2	4	-10152	5800	11608	13	2	-15	-15656	3656	-2560	3	0	-4	-232	-4200	16088	3	-12	22	125	129	5
-7572	-5004	13236	-11	15	-22	-16152	2872	-3288	9	-3	16	568	6792	15808	26	2	3	-10224	5776	11896	17	-4	-21	-15640	3656	-2936	1	-1	-1	-168	-4240	16464	3	-12	23	125	129	5
-7524	-5028	13068	-13	19	-22	-16288	2904	-3136	13	-7	22	352	6712	15552	19	4	5	-10104	5752	11776	16	-4	-20	-15672	3648	-2784	0	-7	-4	-216	-4128	16424	6	-12	24	125	128	5
-7544	-5004	13120	-9	18	-24	-16152	2832	-3064	13	-1	20	472	6680	16024	18	1	2	-10312	5728	12032	18	2	-17	-15632	3696	-2576	1	-4	-3	-184	-4272	16400	3	-10	28	125	129	5
-7528	-5036	13180	-11	19	-25	-16088	2760	-3200	10	-5	16	448	6744	16032	18	-2	3	-10312	5808	12048	13	-2	-17	-15784	3728	-2792	-3	0	-3	-264	-4384	16368	0	-15	24	125	129	5
-7560	-5016	13068	-13	17	-25	-16128	2760	-3192	4	0	20	504	6648	16016	15	1	8	-10176	5752	11856	11	-7	-19	-15648	3648	-2808	-5	-1	-4	-48	-4328	16336	3	-16	28	125	129	5
-7556	-5028	13160	-15	21	-26	-16112	2776	-3152	3	-1	16	384	6688	15800	24	-1	7	-10168	5728	11904	14	-3	-20	-15816	3592	-2792	-4	-5	-3	-96	-4032	16320	-4	-14	21	125	129	5
-7552	-5044	13132	-7	19	-24	-16008	2912	-3176	6	-2	16	400	6608	15840	30	-4	7	-10096	5632	11776	14	-4	-16	-15560	3648	-2680	-2	-3	2	-296	-4184	16424	-1	-15	23	125	129	5
-7528	-5036	13180	-15	21	-24	-16152	2760	-3072	5	-1	19	472	6656	15840	31	-6	3	-10136	5712	11760	13	-1	-19	-15696	3656	-2920	-2	-4	-5	-72	-4256	16528	2	-12	21	125	129	5
-7552	-4964	13104	-13	20	-22	-16168	2752	-2984	7	1	17	376	6752	15808	28	-7	0	-10248	5872	11976	14	-3	-20	-15560	3712	-2760	-4	-5	-2	-200	-4152	16432	0	-17	22	125	128	5
-7548	-5056	13112	-12	18	-27	-16176	2816	-3496	9	-6	17	432	6688	15888	25	-3	3	-10280	5792	11800	13	-3	-20	-15624	3704	-2584	1	-7	-3	-160	-4216	16400	2	-13	23	125	129	5
-7528	-5016	13056	-13	17	-23	-16144	2712	-3184	6	-6	16	520	6688	15872	22	1	5	-10184	5736	11832	13	-3	-19	-15728	3672	-2712	-2	-6	-2	-200	-4216	16544	2	-16	24	125	129	5
-7500	-5056	13092	-10	19	-24	-16160	2832	-3160	6	-7	14	296	6568	15848	20	-1	5	-10272	5648	11888	15	1	-19	-15584	3648	-2536	-2	-3	-4	-120	-4240	16368	1	-11	20	125	129	5
-7604	-4968	13120	-10	22	-26	-16184	2736	-3040	8	3	15	384	6672	15584	24	0	3	-10168	5800	11928	15	-6	-17	-15824	3600	-2984	-3	-5	-3	-232	-4248	16592	2	-14	21	125	129	5
-7500	-5000	13032	-9	15	-26	-16176	2760	-3160	14	-7	16	376	6592	15792	25	1	3	-10208	5728	11864	18	-3	-19	-15752	3656	-2920	-2	-3	-4	-232	-4232	16400	6	-15	20	125	129	5
-7548	-4980	13176	-8	19	-23	-16064	2784	-3240	10	-5	18	472	6648	15888	28	2	-1	-10120	5816	12112	9	0	-18	-15552	3656	-2744	1	-7	-5	-296	-4360	16344	1	-12	24	125	129	5
-7536	-4996	13092	-15	17	-29	-16160	2840	-3040	9	-3	16	352	6592	15928	24	-2	2	-10128	5728	11904	16	0	-18	-15840	3720	-2824	-5	-3	-8	-128	-4280	16536	-1	-15	21	125	129	5
-7528	-4996	13124	-8	17	-26	-16104	2912	-3048	3	-8	18	368	6608	15984	23	1	1	-10264	5696	12088	16	-6	-19	-15576	3680	-2640	-3	-9	-6	-152	-4320	16464	-5	-14	18	125	128	5
-7612	-4992	13116	-12	22	-24	-16296	2904	-3088	8	-6	20	352	6792	16088	24	0	3	-10112	5728	11856	11	-5	-16	-15680	3704	-2768	-3	-5	-4	-264	-4312	16624	-1	-16	21	125	128	5
-7484	-5028	13080	-13	18	-25	-16096	2904	-3096	2	-3	17	432	6528	16024	26	2	-2	-10184	5816	11824	15	0	-20	-15640	3600	-2608	-5	-3	0	-144	-4248	16368	4	-11	28	125	128	5
-7528	-5012	13096	-10	19	-27	-16048	2824	-3352	2	-4	15	376	6696	15800	22	-1	4	-10224	5840	12088	13	-4	-19	-15712	3800	-2808	-7	-5	-7	-160	-4304	16216	2	-12	30	125	129	5
-7524	-4980	13196	-13	19	-24	-16176	2872	-3136	0	-3	16	504	6640	15912	24	1	4	-10192	5880	11872	12	-2	-17	-15752	3584	-2792	1	-3	-4	-64	-4384	16304	-2	-17	28	125	128	5
-7548	-5024	13092	-11	20	-26	-16080	2680	-3016	7	-6	19	504	6584	15720	19	0	5	-10136	5776	12048	13	-5	-16	-15728	3600	-2744	-1	-3	-1	-200	-4200	16352	2	-18	24	125	128	5
-7520	-5080	13036	-12	21	-25	-16080	2864	-3160	9	-7	14	432	6696	15792	21	3	5	-10176	5936	11880	12	-6	-21	-15584	3728	-2752	1	0	0	-88	-4216	16480	1	-13	26	125	128	5
-7512	-5064	13148	-12	19	-24	-16120	2800	-3088	12	-10	13	392	6760	16032	25	1	5	-10176	5712	12064	14	-9	-19	-15560	3696	-2728	-1	-2	2	-120	-4168	16352	0	-11	21	125	128	5
-7468	-5060	13236	-13	16	-24	-16008	2872	-2936	7	-5	14	456	6752	15936	15	0	8	-10216	5800	11968	13	-1	-16	-15656	3600	-2768	-1	-1	-6	-144	-4360	16544	-3	-14	24	125	128	5
-7548	-4976	13192	-11	19	-27	-16152	2816	-2968	7	-4	17	432	6704	15856	15	1	7	-10304	5776	11856	12	-4	-22	-15688	3680	-2872	-3	-5	-4	-176	-4360	16432	-4	-14	26	125	128	5
-7564	-5020	13116	-13	16	-27	-16040	2888	-3128	14	-3	15	392	6664	15984	14	-2	3	-10216	5784	12024	13	-1	-15	-15720	3624	-2752	-2	-8	0	-144	-4352	16200	-7	-12	25	125	128	5
-7556	-5024	13064	-15	20	-26	-16256	2824	-3208	12	-7	9	440	6584	16136	14	-4	2	-10248	5888	11680	14	-4	-17	-15608	3664	-2784	-6	-1	-6	-80	-4320	16328	-8	-13	24	125	128	5
-7588	-5000	13208	-13	21	-28	-16184	2824	-3328	12	-7	14	392	6592	15808	18	1	4	-10160	5848	11800	16	-5	-23	-15712	3576	-2888	-4	2	-6	-176	-4336	16216	-5	-14	26	125	128	5
-7600	-4960	13196	-14	19	-26	-16080	2992	-3280	8	1	10	376	6672	15872	13	2	8	-10160	5672	11640	15	-4	-20	-15672	3776	-2744	0	2	-8	-232	-4168	16472	-7	-17	29	125	129	5
-7540	-5064	13164	-14	21	-28	-16128	2816	-3032	9	-3	12	456	6680	15784	13	1	5	-10240	5744	12000	14	-1	-21	-15688	3728	-2608	-2	1	-5	-216	-4168	16264	-2	-13	27	125	128	5
-7536	-5052	13144	-13	20	-27	-16088	2784	-3088	9	0	16	456	6648	16016	19	1	0	-10264	5872	11896	19	-3	-18	-15680	3776	-2832	0	-2	-2	-248	-4256	16344	-5	-15	25	125	128	5
-7620	-4960	13164	-11	17	-24	-16056	2920	-3056	8	-2	12	336	6520	15888	15	1	3	-10192	5736	11768	15	-1	-21	-15776	3624	-2952	3	-2	-4	-352	-4344	16224	-1	-11	23	125	129	5
-7540	-5024	13100	-7	20	-25	-16088	2768	-3152	11	0	18	320	6512	16104	21	-2	5	-10232	5704	11800	12	-5	-14	-15728	3696	-3048	3	-3	2	-264	-4400	16320	3	-13	27	125	129	5
-7544	-5072	13148	-15	14	-24	-16200	2800	-3160	8	0	12	368	6496	15896	28	3	5	-10168	5776	11680	20	-5	-20	-15600	3584	-2656	-3	-3	-2	-160	-4272	16440	1	-15	28	125	129	5
-7540	-4964	13120	-9	18	-23	-16248	2752	-3280	6	-5	22	376	6592	15960	32	-1	4	-10240	5624	11752	17	-1	-13	-15624	3648	-2968	0	-7	-3	-192	-4360	16344	-2	-16	21	125	128	5
-7528	-5004	13048	-15	17	-25	-16216	2776	-2992	7	-7	20	296	6616	15904	30	0	4	-10288	5832	11960	11	1	-22	-15688	3648	-2984	-1	-9	-1	-224	-4368	16320	0	-18	27	125	128	5
-7532	-5040	13084	-12	17	-25	-16160	2872	-3176	4	-9	22	280	6608	15808	33	-3	3	-10152	5864	11776	13	0	-18	-15752	3696	-2536	-8	-6	-5	-272	-4408	16528	-1	-14	19	125	128	5
-7592	-5004	13100	-10	20	-27	-16064	2888	-3056	3	-7	20	240	6680	15976	31	-3	-1	-10256	5832	11856	18	-6	-17	-15744	3672	-2912	-3	-8	-3	-128	-4280	16592	5	-16	17	125	128	5
-7608	-5036	13076	-12	20	-23	-16088	2808	-3080	3	-6	26	456	6568	15848	27	2	3	-10208	5832	11896	20	-6	-21	-15696	3720	-2736	-2	-8	0	-216	-4312	16448	14	-12	24	125	128	5
-7528	-5024	13092	-15	18	-21	-16000	2848	-2944	4	-11	20	424	6688	15544	21	-4	0	-10184	5696	11992	16	-5	-19	-15664	3440	-3064	-4	-8	3	-192	-4376	16280	11	-11	20	125	128	5
-7520	-4964	13088	-8	17	-26	-16016	2712	-2952	3	-7	22	448	6792	15840	23	-4	-1	-10168	5728	11872	13	-2	-14	-15664	3736	-2824	1	-10	2	-40	-4200	16544	15	-14	24	125	129	5
-7596	-5072	13112	-12	15	-25	-16200	2888	-3160	9	-11	26	512	6688	15840	22	-1	-1	-10256	5896	11984	14	-7	-18	-15504	3696	-2648	-4	-7	3	24	-4176	16488	12	-7	16	125	128	5
-7556	-5000	13072	-11	16	-27	-16160	2888	-2968	10	-4	18	400	6776	15968	26	-3	-1	-10104	5856	11784	14	-6	-16	-15664	3680	-2816	-7	-3	2	-112	-4160	16360	12	-14	24	125	128	5
-7564	-4980	13100	-13	19	-28	-16232	2848	-2904	6	1	16	784	6552	15960	26	-1	0	-10160	5856	11848	12	0	-18	-15600	3648	-2792	-11	-3	-3	-32	-4304	16432	7	-20	24	125	128	5
-7548	-4972	13176	-13	15	-25	-16112	2848	-3088	2	-1	15	560	6576	15704	20	2	6	-10304	5840	11904	13	-6	-14	-15640	3704	-2560	-3	-6	-2	-152	-4128	16312	4	-16	27	125	128	5
-7576	-5048	13040	-8	17	-21	-16136	2848	-2960	2	-3	16	504	6736	15816	22	2	7	-10264	5752	12000	11	0	-17	-15624	3720	-2760	-5	-7	-1	-96	-4208	16280	-1	-14	24	125	128	5
-7588	-5016	13096	-11	14	-21	-16200	2832	-3248	4	-5	16	544	6616	15752	21	4	10	-10288	5864	11768	11	0	-18	-15776	3696	-2744	0	-4	-5	-168	-4216	16232	-3	-13	24	125	128	5
-7572	-4992	13076	-14	21	-25	-16064	2832	-3088	4	-7	15	392	6728	15936	26	-2	11	-10096	5808	12160	13	-2	-21	-15544	3728	-2648	4	-3	-1	-96	-4232	16424	3	-13	25	125	129	5
-7528	-5068	13144	-17	19	-24	-16080	2832	-3032	4	-8	13	360	6608	15912	28	-1	11	-10152	5808	11800	15	-2	-21	-15656	3664	-2864	4	-1	-3	-200	-4144	16368	0	-10	25	125	128	5
-7556	-5116	13156	-14	17	-32	-16032	2872	-3096	5	-9	11	496	6776	15952	35	1	12	-10088	5752	12184	12	-2	-22	-15688	3648	-2832	-3	-4	-9	-200	-4320	16568	-1	-17	22	125	129	5
-7592	-4980	13108	-14	19	-31	-16080	2752	-3232	-2	-6	12	312	6680	15720	38	7	11	-10256	5920	11712	16	-5	-20	-15704	3648	-2728	0	-2	-7	-192	-4272	16472	-2	-14	22	126	129	5
-7532	-4960	13056	-13	18	-25	-16048	2896	-2984	-1	-7	6	512	6648	15904	32	4	12	-10168	5752	11816	14	-1	-18	-15672	3720	-2936	-1	-6	-13	-272	-4208	16496	1	-20	28	125	129	5
-7552	-5052	13176	-15	19	-28	-16120	2784	-3224	6	-13	11	344	6528	15984	29	1	17	-10208	5696	11712	10	0	-17	-15608	3784	-2640	-5	-8	-9	-168	-4248	16248	-9	-16	27	125	129	5
-7544	-5064	13148	-12	18	-31	-16200	2832	-3248	6	-10	12	384	6672	15696	14	6	13	-10240	5768	11864	12	2	-22	-15648	3680	-2656	-4	-4	-7	-184	-4360	16576	-3	-16	19	125	129	5
-7560	-5004	13016	-15	19	-29	-15968	2872	-3192	5	-14	13	392	6680	15992	12	-2	10	-10304	5768	12152	12	-7	-18	-15536	3728	-2864	0	-9	-7	-232	-4312	16208	-3	-13	20	125	129	5
-7524	-5044	13120	-15	19	-29	-16152	2744	-3144	8	-10	8	416	6544	16016	11	-3	9	-10056	5848	11912	14	-3	-16	-15704	3600	-2648	1	-10	-1	-144	-4296	16232	-6	-14	23	125	128	5
-7584	-5052	13232	-16	15	-29	-16048	2704	-3288	3	-13	12	296	6632	16072	7	1	8	-10376	5752	11768	17	-7	-16	-15552	3648	-2664	3	-11	-3	-224	-4384	16432	-8	-15	22	125	128	5
-7592	-5096	13092	-11	15	-27	-16152	2704	-2896	-1	-14	12	512	6624	15856	5	6	6	-10144	5736	11888	12	-4	-18	-15720	3584	-2784	-4	-9	-9	-168	-4280	16544	-2	-17	25	126	128	5
-7544	-5096	13148	-11	22	-28	-16208	2824	-3256	-1	-14	11	616	6480	15752	8	6	2	-10232	5872	11688	13	-2	-21	-15688	3600	-2752	-8	-8	-6	-224	-4328	16344	2	-17	26	126	129	5
-7588	-5064	13036	-15	18	-24	-16160	2704	-3320	-2	-16	12	312	6528	15848	9	1	1	-10048	5776	12000	16	-3	-19	-15648	3704	-2832	-1	-6	-5	-272	-4272	16240	1	-15	22	126	129	5
-7556	-5032	13172	-17	18	-24	-16304	2712	-3136	-1	-8	15	392	6496	15856	11	1	-1	-10136	5888	11896	13	-4	-17	-15640	3520	-2712	-7	-9	-4	-192	-4328	16456	5	-12	23	126	129	5
-7540	-5064	13184	-13	19	-25	-16112	2776	-3208	-3	-15	17	504	6536	16024	12	0	4	-10152	5872	11784	12	-3	-17	-15656	3704	-2648	-3	-8	-2	-144	-4288	16488	8	-14	24	126	129	5
-7508	-5036	13112	-14	17	-26	-16136	2736	-3240	-2	-6	16	280	6520	16048	13	-4	2	-10240	5800	12160	12	-9	-14	-15544	3648	-2712	-4	-7	-1	-176	-4256	16128	5	-9	19	125	129	5
-7572	-5032	13140	-16	19	-29	-16184	2640	-3096	4	-10	14	568	6664	16024	12	0	1	-10088	5832	11832	17	-2	-14	-15656	3768	-2632	0	-8	0	-128	-4216	16496	7	-15	23	126	129	5
-7524	-4984	13144	-9	15	-26	-16184	2760	-3168	10	-4	20	576	6632	15848	12	-1	1	-10048	5744	11880	16	-5	-14	-15568	3880	-2680	-3	-7	-7	-24	-4240	16240	3	-14	18	126	129	5
-7516	-5144	13172	-10	19	-24	-16112	2840	-2992	14	-4	16	544	6784	15960	15	-2	0	-10160	5848	12008	14	2	-22	-15584	3616	-2568	-4	-2	1	48	-4016	16320	-1	-12	21	126	129	5
-7524	-5068	13100	-10	18	-25	-16112	2760	-2784	10	1	15	760	6464	15984	16	-3	-5	-10016	5760	12072	17	-4	-16	-15664	3704	-2552	-5	-2	0	72	-4296	16456	-1	-9	17	126	128	5
-7572	-5076	13164	-10	17	-20	-16096	2768	-2936	2	0	13	560	6632	15936	14	0	-1	-10192	5728	11872	13	-5	-23	-15688	3632	-2720	-2	4	0	-8	-4232	16568	-2	-7	23	126	129	5
-7528	-5088	13152	-13	20	-26	-16056	2920	-2904	5	14	13	688	6496	15864	17	1	2	-10192	5816	11936	14	-4	-19	-15752	3680	-2912	5	6	2	40	-4280	16240	-1	-7	19	126	128	5
-7592	-5064	13044	-11	18	-19	-16216	2760	-2912	5	18	12	504	6608	16128	26	1	7	-10152	5856	11920	10	1	-24	-15784	3552	-2720	2	10	7	-16	-4176	16456	-4	-10	20	126	128	5
-7536	-5044	13080	-12	21	-20	-16048	2840	-3016	5	16	12	424	6448	16024	33	6	6	-10168	5760	11696	14	2	-24	-15688	3792	-2720	2	14	6	-120	-4160	16384	3	-11	19	126	128	5
-7508	-5052	13160	-6	19	-20	-16232	2704	-3328	6	22	16	504	6680	15912	40	15	9	-10240	5728	11896	12	0	-21	-15608	3584	-2672	3	9	4	-200	-4120	16288	-2	-14	19	126	128	5
-7512	-5032	13156	-7	18	-20	-16080	2808	-3176	9	17	14	256	6504	15928	42	9	10	-10128	5944	11816	15	3	-24	-15624	3584	-2672	3	16	2	-264	-4360	16376	-2	-14	23	126	128	5
-7536	-5048	13256	-6	16	-21	-16128	2792	-3208	5	16	14	400	6392	16104	50	6	8	-10168	5736	11960	15	-2	-18	-15616	3664	-2912	4	13	4	-176	-4240	16240	-3	-16	34	126	128	5
-7580	-5080	13168	-9	20	-23	-16120	2768	-3144	14	13	13	304	6560	15856	51	10	10	-10272	5672	11720	16	-3	-27	-15624	3784	-2920	2	14	3	-176	-4208	16720	6	-17	27	126	128	5
-7556	-5096	13092	-9	18	-19	-16264	2784	-3232	14	9	18	272	6680	15976	52	6	11	-10240	5800	11928	14	-3	-21	-15632	3704	-3032	1	13	-4	-344	-4328	16248	3	-14	28	126	128	5
-7544	-4972	13176	-4	16	-17	-16224	2784	-3192	11	6	20	320	6640	15904	53	0	10	-10176	5880	12120	16	1	-21	-15584	3704	-3048	-2	3	-7	-272	-4256	16336	3	-17	26	126	128	5
-7560	-5080	13116	-9	17	-22	-16272	2872	-3336	6	5	20	240	6624	15872	57	4	10	-10344	5760	11928	16	-4	-23	-15600	3768	-3120	0	0	1	-392	-4336	16400	3	-16	25	125	128	5
-7548	-5040	13068	-10	16	-23	-16080	2800	-3112	1	1	22	312	6656	15848	52	4	7	-10104	5832	11928	16	-5	-18	-15656	3824	-2872	-3	-4	-3	-368	-4416	16544	-1	-14	22	126	128	5
-7588	-5052	13012	-13	16	-25	-16240	2696	-3184	-3	0	20	296	6664	15864	46	8	8	-10256	5744	12016	15	3	-18	-15640	3696	-2736	-3	-8	-1	-440	-4400	16360	7	-14	22	126	129	5
-7504	-5080	13116	-3	16	-23	-16248	2880	-2944	1	-2	21	264	6672	15936	35	6	4	-10248	5840	11752	15	-8	-18	-15608	3704	-2800	1	-6	0	-232	-4272	16504	6	-12	22	125	129	5
-7504	-5020	13124	-10	12	-23	-16160	2736	-3208	6	-6	26	264	6776	15848	29	0	0	-10184	5720	11880	15	0	-15	-15656	3656	-2808	-4	-11	3	-264	-4376	16624	8	-18	18	125	128	5
-7568	-5008	13160	-9	18	-22	-16200	2840	-3256	7	-4	23	352	6856	16064	22	-5	0	-10176	5792	11968	17	-1	-18	-15584	3680	-2840	-9	-10	-1	-96	-4320	16480	9	-13	15	126	128	5
-7532	-5092	13096	-12	14	-22	-16056	2848	-3168	12	-8	19	336	6824	15864	21	-4	1	-10320	5792	11936	18	-3	-12	-15776	3648	-2744	-6	-14	1	-224	-4272	16360	13	-15	13	126	129	5
-7468	-5052	12988	-10	14	-26	-16064	2840	-2944	13	-5	19	456	6720	15728	18	-9	2	-10224	5720	11688	23	5	-16	-15752	3792	-2752	-10	-9	1	-120	-4168	16400	19	-11	18	125	129	5
-7520	-5060	13032	-12	13	-28	-16096	2808	-2984	7	-6	19	432	6648	15816	17	-5	2	-10240	5672	12112	18	0	-10	-15656	3720	-2784	-6	-10	5	-104	-4288	16552	17	-11	19	126	129	5
-7532	-5072	13160	-14	19	-27	-16016	2872	-3144	8	0	18	416	6648	15688	8	2	-1	-10408	5728	12040	18	0	-14	-15624	3744	-2608	-2	-6	3	-192	-4328	16448	14	-10	13	126	129	5
-7520	-5036	13068	-14	19	-27	-16224	2760	-2960	5	1	16	320	6776	15960	7	3	0	-10224	5888	11904	20	-7	-13	-15704	3552	-2944	-1	-6	3	-168	-4160	16336	13	-10	20	126	129	5
-7560	-5100	13088	-14	19	-26	-16256	2864	-3136	4	-2	17	456	6784	15872	5	-1	3	-10248	5712	12072	17	-3	-19	-15576	3760	-2856	2	-4	2	-184	-3976	16472	9	-10	20	126	129	5
-7520	-5044	13168	-10	19	-26	-16008	2696	-2976	3	-2	11	432	6592	15792	7	-1	8	-10152	5832	11824	16	2	-20	-15776	3760	-2576	-2	-3	0	-216	-4120	16584	5	-11	22	126	129	5
-7508	-5052	13116	-15	18	-25	-16232	2824	-2960	2	-1	16	416	6608	15832	16	-1	6	-10256	5736	12072	17	-5	-19	-15696	3712	-2896	-3	-5	-6	-152	-4024	16360	2	-11	29	126	129	5
-7564	-5044	13016	-11	18	-24	-16120	2824	-3040	5	-2	15	472	6616	16024	28	2	11	-10264	5904	11672	10	-5	-23	-15440	3664	-2760	-3	-2	-5	-216	-4168	16352	-6	-13	26	126	129	5
-7520	-5032	13056	-13	20	-22	-16168	2776	-3488	10	-6	14	232	6560	15624	34	0	7	-10096	5688	12064	14	5	-22	-15688	3696	-2872	-2	2	-11	-272	-4184	16224	-11	-15	23	126	128	5
-7524	-5084	13088	-14	17	-23	-16128	2720	-3064	9	-5	17	408	6552	15976	41	7	7	-10184	5904	11800	12	-5	-23	-15608	3704	-3064	1	0	-12	-400	-4152	16256	-16	-11	25	126	128	5
-7520	-4912	13096	-17	16	-27	-16224	2728	-3072	10	-9	16	360	6632	15848	37	3	5	-10248	5832	11880	13	-5	-22	-15664	3800	-2664	2	-4	-14	-264	-4368	16376	-14	-15	28	126	128	5
-7508	-5028	13052	-13	16	-24	-16064	2784	-3240	9	-7	22	416	6744	15888	20	-5	-3	-10216	5840	11888	14	-12	-18	-15664	3800	-2760	-2	-7	-13	-264	-4328	16288	-14	-17	31	126	128	5
-7576	-5000	13120	-9	14	-27	-16096	2872	-3104	4	-9	19	368	6744	16072	28	4	6	-10296	5776	12040	8	-7	-19	-15688	3600	-2976	5	-6	-9	-264	-4312	16400	-13	-14	31	126	128	5
-7572	-5044	13084	-12	13	-26	-16184	2816	-3064	1	-5	15	368	6672	15760	25	2	6	-10272	5848	11880	14	-3	-16	-15648	3536	-2728	-5	-1	-12	-272	-4360	16536	-7	-12	28	126	128	5
-7552	-4992	13092	-11	18	-23	-16112	2944	-3432	0	-8	16	280	6592	15752	20	-5	4	-10184	5904	12080	9	-1	-15	-15608	3672	-2736	3	-5	-9	-160	-4408	16264	-6	-18	23	126	128	5
-7540	-5016	13124	-14	14	-25	-16112	2840	-3192	0	-7	17	416	6784	15928	10	-13	-1	-10160	5616	11984	13	-3	-18	-15672	3712	-2888	-1	-6	-8	-120	-4288	16280	-6	-16	23	126	129	5
-7444	-5052	13100	-14	13	-24	-16184	2976	-3240	1	-3	12	424	6512	16184	18	2	2	-10360	5856	11848	12	-4	-17	-15760	3640	-2808	-5	-5	-5	-64	-4256	16312	-1	-13	26	126	128	5
-7552	-5008	13188	-12	16	-25	-16128	2936	-3048	4	-6	17	520	6584	16184	12	2	5	-10192	5640	12072	14	-4	-17	-15624	3416	-2824	-9	-3	-3	-136	-4368	16352	5	-14	24	126	128	5
-7500	-5028	12972	-17	15	-27	-16216	2784	-3032	7	-4	12	456	6624	15872	7	-4	4	-10248	5768	11848	15	-3	-17	-15616	3664	-2824	-7	-7	-4	-120	-4384	16352	0	-14	25	126	128	5
-7564	-5020	13096	-14	18	-23	-16304	2568	-3176	7	-6	13	288	6712	15800	11	-1	9	-10176	5840	11904	14	-4	-20	-15640	3632	-2888	0	-6	2	-112	-4312	16336	4	-16	22	126	128	5
-7520	-4992	13060	-13	17	-29	-16104	2752	-3000	11	-7	17	392	6560	15936	18	0	8	-10208	5808	12176	15	-1	-15	-15624	3728	-2872	-4	-5	-3	-176	-4232	16240	4	-12	23	126	129	5
-7540	-5048	13064	-10	17	-23	-16200	2712	-3112	11	-4	15	472	6576	15808	24	-1	11	-10216	5760	12248	17	-5	-19	-15632	3640	-2984	-1	-8	-4	-104	-4184	16552	3	-11	20	126	128	5
-7500	-4996	13120	-11	17	-26	-16176	2776	-3288	4	-5	14	360	6472	15952	28	-1	10	-10296	5840	11864	19	1	-19	-15552	3752	-2832	-3	-1	-5	-200	-4296	16264	-1	-15	21	126	128	5
-7540	-5028	13084	-14	18	-23	-16016	2752	-3064	6	-5	14	560	6608	15848	29	0	2	-10104	5872	11816	16	-5	-17	-15624	3840	-2896	-1	-2	-5	-208	-4200	16456	5	-19	24	126	128	5
-7604	-5016	13116	-5	16	-25	-16104	2800	-3264	6	-6	21	416	6584	15888	25	-2	-1	-10080	5800	12072	16	-4	-19	-15640	3704	-2944	0	-5	-1	-176	-4032	16160	5	-15	24	126	129	5
-7500	-5036	13148	-12	20	-23	-16152	2744	-3200	9	-1	20	296	6616	15936	27	0	0	-10152	5672	11808	16	3	-20	-15632	3776	-2784	-3	-6	-5	-176	-4160	16240	1	-12	22	126	128	5
-7520	-5064	13208	-13	18	-23	-16080	2808	-3208	5	0	25	456	6544	15928	28	1	1	-10272	5856	11888	11	-3	-17	-15584	3744	-2936	-4	-4	-2	-224	-4200	16080	1	-15	25	126	129	5
-7508	-5060	13176	-11	19	-22	-16056	2848	-2808	3	-6	21	488	6840	16072	32	2	0	-10144	5736	11808	14	2	-18	-15648	3672	-2824	-3	-5	-5	-208	-4208	16432	-3	-13	24	126	129	5
-7508	-5004	13104	-13	20	-22	-16120	2760	-3280	3	-1	19	536	6720	15680	33	-1	-2	-10160	5792	12000	18	-8	-17	-15616	3640	-2720	0	-5	-5	-304	-4336	16144	-8	-16	25	126	128	5
-7564	-5064	13100	-9	18	-26	-16328	2848	-3232	8	-7	25	368	6624	15856	37	-3	2	-10168	5728	11896	17	-3	-17	-15696	3568	-2872	-4	-8	-3	-168	-4336	16560	0	-19	23	126	128	5
-7552	-5048	13184	-14	19	-21	-16128	2792	-3144	7	-3	19	448	6744	16016	34	-2	3	-10376	5712	11840	16	-1	-15	-15528	3664	-2832	-3	-5	-1	-144	-4256	16424	5	-13	22	126	129	5
-7504	-4980	13148	-6	21	-22	-16176	2848	-2960	9	-7	18	408	6784	15976	28	3	2	-10288	5736	11800	18	-6	-19	-15688	3704	-2536	3	-4	-4	-192	-4320	16280	9	-11	19	126	128	5
-7528	-4992	13128	-11	19	-24	-16160	2744	-3000	12	-6	18	480	6760	15568	24	2	4	-10176	5816	11848	15	6	-16	-15728	3488	-2800	0	-3	-4	-160	-4312	16464	9	-12	24	126	128	5
-7496	-5012	13104	-10	19	-23	-16080	2752	-3152	13	-8	17	472	6616	15984	20	3	3	-10296	5752	11928	13	-3	-16	-15800	3760	-2608	-3	-8	-5	-200	-4248	16304	9	-12	24	126	129	5
-7552	-5036	13104	-13	17	-23	-16112	2896	-3176	9	0	16	384	6592	15920	28	0	6	-10288	5792	11856	12	-2	-20	-15640	3744	-2592	-2	0	1	-200	-4232	16240	9	-14	20	126	129	5
-7520	-5012	13144	-8	16	-24	-16104	2808	-2944	10	-5	15	384	6680	15544	20	2	4	-10264	5848	11768	19	-2	-14	-15576	3624	-2792	-1	-4	-2	-112	-4184	16384	7	-13	21	126	129	5
-7516	-5052	13156	-8	13	-27	-16088	2888	-3176	5	-3	16	384	6720	15800	24	-1	-1	-10272	5728	11896	14	-3	-18	-15832	3784	-2864	0	-5	1	-304	-4080	16288	2	-14	20	126	129	5
-7592	-5076	13152	-12	18	-26	-16248	2864	-3168	10	-3	18	392	6632	15760	28	-3	3	-10240	5928	12056	14	3	-20	-15656	3632	-2520	-4	-6	-2	-184	-4136	16288	-2	-13	19	125	128	5
-7560	-4976	13056	-10	19	-24	-16136	2848	-3000	7	-1	19	264	6712	15896	26	-5	1	-10280	5864	11768	17	-7	-16	-15672	3592	-3112	0	-4	-3	-112	-4128	16488	-2	-13	19	126	129	5
-7516	-5036	13124	-14	18	-23	-16112	2824	-3072	7	2	19	496	6640	15936	20	1	2	-10272	5776	11736	14	-2	-21	-15760	3488	-2968	-3	-5	-4	-200	-4160	16224	-2	-18	23	126	128	5
-7516	-5032	13108	-13	20	-25	-16048	2800	-3128	4	-1	13	496	6640	15960	20	-1	4	-10208	5808	11952	13	-3	-19	-15576	3632	-2760	1	-6	-2	-200	-4248	16440	1	-14	25	126	129	5
-7548	-5016	13128	-13	18	-28	-16120	2784	-2952	9	-3	16	312	6776	15872	24	2	4	-10240	5696	11864	13	-5	-19	-15680	3664	-2656	-1	-5	-3	-168	-4264	16344	-1	-12	27	126	129	5
-7576	-5040	13088	-9	21	-24	-16184	2920	-3144	9	-5	12	352	6904	15840	26	2	6	-10112	5792	12088	15	-2	-22	-15608	3712	-2968	-1	-3	-2	-80	-4200	16320	3	-13	30	126	129	5
-7544	-5072	13180	-11	18	-26	-16152	2736	-3360	6	-2	16	408	6696	15848	23	-2	5	-10248	5832	11840	14	-3	-16	-15664	3648	-2872	-1	-2	-7	-176	-4112	16328	0	-13	27	125	128	5
-7468	-4992	13172	-15	17	-25	-16120	2936	-3000	5	-3	20	240	6528	15544	23	2	4	-10304	5768	11968	14	-5	-21	-15720	3728	-2656	0	-6	-5	-344	-4168	16560	0	-18	24	126	129	5
-7532	-5072	13168	-9	15	-25	-16136	2920	-3064	8	-3	18	296	6696	15744	30	2	2	-10192	5736	11936	10	-3	-21	-15624	3736	-2712	-1	-1	-6	-176	-4168	16424	-2	-13	21	125	129	5
-7484	-5068	13100	-12	17	-25	-16248	2728	-3056	4	-4	14	408	6848	15928	31	2	7	-10192	5728	11888	16	-6	-20	-15752	3752	-2792	3	-3	-2	-120	-4240	16288	-4	-16	29	126	129	5
-7508	-5008	13204	-7	16	-23	-16112	2808	-2960	12	-6	17	440	6672	15872	14	-14	-5	-10160	5816	12128	18	-2	-20	-15648	3656	-2792	-6	-5	-5	-264	-4384	16400	-2	-10	26	126	129	5
-7500	-5012	13060	-13	15	-28	-16168	2792	-2920	10	-9	17	408	6552	15808	25	2	1	-10344	5832	11824	14	-3	-18	-15584	3632	-2824	-4	-5	-7	-120	-4408	16440	-1	-12	25	126	129	5
-7564	-5056	13128	-14	18	-29	-16072	2760	-3056	13	-4	17	512	6704	16008	24	2	6	-10152	5864	11984	13	-3	-22	-15632	3800	-3016	-2	-2	1	-208	-4184	16336	-3	-15	23	126	129	5
-7460	-5000	13144	-11	16	-27	-16048	2736	-3104	9	0	13	392	6616	15776	16	-5	3	-10192	5848	11856	14	-2	-20	-15640	3640	-2656	-6	-4	-4	-360	-4312	16456	3	-15	22	126	128	5
-7548	-4992	13028	-14	18	-26	-16112	2696	-3136	9	-1	17	440	6640	15936	22	0	2	-10176	5944	11936	19	-2	-18	-15600	3592	-2904	-5	-8	-5	-216	-4344	16432	1	-13	19	125	128	5
-7612	-5016	13084	-14	19	-25	-16088	2696	-3072	10	-2	17	400	6744	15776	24	0	2	-10264	5656	12008	14	-2	-20	-15680	3656	-2896	-1	1	-4	-224	-4264	16464	0	-16	19	126	128	5
-7496	-5044	13164	-15	21	-24	-16152	2656	-3008	12	4	18	496	6648	15736	23	0	-1	-10168	5840	11800	21	-4	-21	-15576	3592	-2728	2	-6	-3	-128	-4256	16400	3	-11	21	126	128	5
-7504	-5008	13100	-13	17	-27	-16208	2824	-3200	9	-3	19	368	6664	16032	22	-5	2	-10168	5760	11920	20	7	-16	-15584	3648	-2592	1	-2	-1	-80	-4104	16472	4	-11	25	126	128	5
-7560	-5100	13216	-9	19	-22	-16184	2728	-3016	7	-2	18	344	6584	15680	21	0	0	-10232	5936	11912	19	-1	-16	-15656	3664	-2952	1	-3	-2	-168	-4304	16224	7	-11	23	126	128	5
-7520	-5064	13072	-10	18	-22	-16072	2696	-3128	6	-1	19	400	6520	15816	24	3	0	-10128	5832	12080	19	-3	-21	-15760	3680	-2856	-2	-5	-2	-240	-4152	16560	2	-10	18	125	128	5
-7548	-4956	13120	-9	18	-22	-16232	2816	-3032	9	-1	19	416	6744	15912	27	1	2	-10296	5816	11800	15	1	-19	-15672	3744	-2728	-1	-8	3	-192	-4128	16328	0	-11	20	125	128	5
-7492	-5024	13000	-11	22	-21	-16136	2784	-3280	10	0	21	424	6608	15920	33	-4	5	-10248	5776	12016	13	2	-17	-15712	3760	-2984	-3	-2	4	-304	-4312	16448	-1	-16	22	125	128	5
-7516	-5044	13072	-11	18	-25	-16120	2752	-3320	8	-1	23	376	6744	15984	36	2	3	-10368	5856	11952	17	0	-16	-15600	3712	-2784	-6	-4	1	-192	-4160	16256	-4	-11	18	126	128	5
-7480	-5036	13112	-14	17	-24	-16128	2728	-3248	9	1	21	488	6784	15936	36	-1	-2	-10248	5728	12096	15	-4	-22	-15792	3736	-2912	0	-8	0	-216	-4280	16448	0	-16	17	126	128	5
-7528	-4988	13108	-10	19	-23	-16104	2600	-3376	10	-1	24	408	6672	15976	36	3	6	-10272	5888	11816	13	0	-18	-15720	3664	-2896	2	-6	0	-232	-4264	16312	1	-16	18	125	128	5
-7516	-5052	13200	-8	21	-25	-16224	2744	-3168	11	0	23	480	6704	15608	30	-2	2	-10216	5840	11984	17	0	-18	-15632	3520	-2944	-1	-6	-2	-232	-4168	16360	6	-9	18	126	128	5
-7552	-5044	13152	-9	21	-23	-16136	2784	-3136	17	1	21	384	6728	15792	31	-2	-5	-10312	5752	11968	17	-4	-17	-15816	3696	-2904	3	-8	2	-152	-4160	16496	4	-11	18	126	128	5
-7528	-5004	13136	-10	13	-22	-16152	2808	-3056	15	-2	23	232	6744	15728	28	-3	-8	-10184	5752	11968	19	1	-17	-15616	3768	-2800	-3	-11	-1	-296	-4280	16400	12	-7	20	126	128	5
-7508	-4976	13144	-9	17	-25	-16096	2912	-3184	7	-5	21	320	6664	15904	23	-3	-6	-10232	5840	11912	12	-2	-20	-15728	3800	-2768	0	-10	-1	-288	-4168	16304	5	-13	19	126	128	5
-7560	-5028	13072	-13	15	-20	-16112	2776	-3032	6	0	23	128	6712	15832	29	0	1	-10296	5936	11832	16	1	-14	-15688	3680	-2600	-3	-8	-2	-312	-4224	16264	8	-16	25	126	128	5
-7588	-5112	13216	-8	17	-25	-16024	2872	-3224	2	-2	17	216	6784	15496	37	-3	6	-10272	5808	11952	14	5	-14	-15576	3752	-2936	-12	-9	3	-64	-4136	16352	7	-13	22	126	128	5
-7608	-4996	13192	-7	16	-27	-16112	2680	-3112	1	-6	22	72	6672	15816	42	5	7	-10136	5784	12112	14	-3	-18	-15656	3552	-2904	-11	-9	-3	-328	-4200	16320	8	-14	26	126	129	5
-7508	-4984	13152	-10	17	-19	-16264	2848	-3168	2	-6	18	416	6712	15872	45	-8	10	-10240	5696	11736	13	0	-17	-15744	3848	-2752	-5	-7	-4	-264	-4296	16504	4	-16	22	126	129	5
-7552	-5040	13136	-9	16	-29	-16168	2776	-3384	7	-7	18	392	6640	15840	43	-2	11	-10176	5952	12008	16	2	-20	-15544	3832	-2792	-2	-8	-10	-96	-4144	16496	6	-19	26	126	129	5
-7516	-4984	13240	-9	15	-29	-16200	2808	-3000	12	-13	17	392	6728	15784	38	5	12	-10272	5720	11976	11	-2	-16	-15504	3768	-2792	-1	-6	-9	-152	-4088	16368	-5	-18	30	126	129	5
-7528	-4944	13148	-14	15	-23	-16128	2832	-3248	13	-11	19	264	6720	15720	25	-6	3	-10224	5760	11840	13	-3	-18	-15704	3776	-2744	-3	-6	-6	-176	-4048	16544	1	-16	27	126	129	5
-7508	-5000	13184	-11	18	-26	-16040	2824	-3208	11	-13	23	432	6968	16128	14	-10	-7	-10216	5728	11808	15	-4	-19	-15544	3720	-2872	-7	-6	-6	-232	-4112	16432	-3	-12	24	126	129	5
-7520	-5004	13076	-12	17	-25	-16208	2896	-2976	12	-16	15	416	6736	15912	1	-10	-5	-10264	5776	11920	10	-4	-21	-15640	3824	-2512	-2	-6	-11	-112	-4112	16488	-7	-18	32	126	129	5
-7476	-5012	13140	-16	20	-24	-16088	2928	-3184	9	-11	12	432	6688	15888	-9	-16	-1	-10280	5920	12176	11	-6	-18	-15560	3728	-2864	1	-8	-7	-48	-4200	16432	-7	-16	24	126	129	5
-7460	-4984	13164	-15	18	-28	-16168	2872	-3104	1	-12	9	392	6904	15632	-15	-11	-1	-10328	5768	11720	11	-6	-20	-15776	3696	-3032	-5	-4	-8	-16	-4200	16344	-8	-15	25	126	129	5
-7520	-5044	13208	-14	18	-26	-16072	2888	-3224	-2	-7	11	360	6712	15928	-11	-4	3	-10296	5848	11640	10	-9	-17	-15696	3616	-2752	-3	-7	-10	-152	-4136	16288	-12	-16	25	126	129	5
-7476	-5024	13068	-16	17	-31	-16232	2688	-3040	-4	-8	7	560	6688	15864	-11	-10	2	-10232	5840	12072	13	-2	-20	-15760	3704	-2808	-3	0	-6	-144	-4216	16536	-17	-14	25	125	128	5
-7492	-5024	13084	-13	19	-29	-16208	2784	-3048	0	-7	7	608	6688	15848	-3	1	7	-10208	5792	11776	12	-6	-19	-15688	3632	-2688	-3	2	-9	-40	-4152	16336	-21	-12	23	125	128	5
-7536	-5056	13112	-17	19	-30	-16056	2752	-3112	8	-4	5	480	6648	15864	-2	0	8	-10232	5784	11872	12	-1	-16	-15632	3664	-2800	-2	-3	-8	-144	-4232	16368	-18	-15	23	126	129	5
-7536	-5016	13064	-18	21	-27	-16088	2736	-3208	16	-7	8	504	6432	15736	8	1	6	-10224	5760	12032	11	-5	-17	-15696	3632	-2672	-5	0	-4	-48	-4232	16368	-9	-11	23	126	129	5
-7552	-5028	13128	-16	24	-26	-16040	2712	-3008	19	-6	12	448	6664	15800	18	5	9	-10192	5808	11848	14	-4	-20	-15744	3648	-2840	0	2	-8	-192	-4200	16352	-4	-11	24	125	129	5
-7572	-5048	13200	-13	20	-26	-16224	2728	-3168	17	-6	9	384	6512	15920	23	4	10	-10272	5848	11856	13	-5	-23	-15808	3616	-2760	0	2	-9	-200	-4232	16480	-4	-15	26	125	128	5
-7516	-4988	13104	-11	21	-28	-16152	2760	-3072	16	-2	10	360	6616	16080	24	5	10	-10304	5712	11928	13	-2	-17	-15792	3568	-2824	-3	-4	-6	-168	-4392	16248	-9	-13	25	125	129	5
-7532	-5036	13124	-16	19	-29	-16208	2696	-3112	4	0	11	320	6608	16064	27	3	11	-10296	5672	11848	14	-3	-18	-15568	3624	-2800	4	-2	-8	-184	-4304	16256	-12	-15	23	125	129	5
-7520	-5080	13108	-13	19	-29	-16096	2816	-3144	7	1	13	400	6688	16128	24	-1	5	-10192	5840	11936	10	-1	-17	-15672	3696	-3024	0	-4	-3	-120	-4312	16392	-11	-17	23	125	129	5
-7484	-5056	13112	-10	17	-30	-16112	2680	-3088	6	-4	14	232	6640	15784	25	0	2	-10264	5752	12048	15	-5	-22	-15656	3696	-2792	-1	-1	-4	-136	-4176	16360	-7	-12	19	125	128	5
-7516	-5016	13124	-14	22	-25	-16128	2656	-3032	5	-5	19	320	6520	16032	23	4	5	-10112	5704	11832	16	0	-17	-15512	3632	-2744	-1	-2	-2	-136	-4240	16456	-9	-15	24	125	129	5
-7516	-5060	13140	-12	21	-23	-16088	2728	-3176	7	-6	19	408	6512	15976	20	0	0	-10104	5736	11936	13	-2	-18	-15560	3696	-3016	-7	-2	-4	-272	-4288	16240	-2	-13	27	125	129	5
-7560	-5052	13104	-11	18	-22	-16224	2904	-3288	8	1	22	312	6616	15920	25	-2	-5	-10216	5808	12120	16	-3	-20	-15696	3720	-3104	-2	-4	-2	-256	-4464	16320	4	-12	23	125	129	5
-7532	-5012	13068	-10	17	-21	-16160	2808	-3384	6	-3	22	256	6720	15680	27	-2	-2	-10176	5848	11928	15	1	-19	-15664	3488	-2736	-6	-7	1	-176	-4408	16416	4	-15	26	125	128	5
-7536	-5100	13060	-11	18	-27	-16232	2792	-3128	2	0	20	448	6656	16040	23	-7	-1	-10176	5792	12032	17	2	-16	-15752	3664	-2680	1	-7	1	-232	-4360	16592	6	-16	22	125	128	5
-7492	-5064	13168	-10	16	-24	-16200	2776	-3472	2	-3	23	368	6640	15864	20	-9	-2	-10176	5752	11912	19	0	-16	-15600	3448	-2864	5	-8	2	-272	-4304	16400	12	-19	20	125	128	5
-7520	-4956	13244	-8	16	-25	-16176	2800	-3288	7	-2	21	432	6560	15984	28	-7	-1	-10192	5808	11864	13	1	-16	-15688	3520	-2920	2	-6	6	-80	-4272	16392	10	-11	18	125	129	5
-7484	-5016	13100	-13	14	-21	-16128	2712	-3320	12	-4	24	376	6800	15968	22	-4	-6	-10304	5928	12080	15	1	-17	-15560	3704	-2624	-3	-8	1	-128	-4304	16256	10	-14	18	125	129	5
-7524	-4996	13172	-11	18	-25	-16176	2872	-2952	12	-4	22	288	6664	15896	21	-6	-4	-10112	5872	12008	20	-4	-17	-15760	3640	-2888	-7	-6	4	-48	-4208	16624	14	-13	17	125	129	5
-7488	-5076	13148	-8	17	-24	-16120	2720	-3256	11	-1	21	352	6528	15896	15	-2	-2	-10256	5752	12112	16	5	-19	-15608	3712	-2728	-4	-5	0	-160	-4200	16424	10	-12	18	125	129	5
-7568	-5084	13152	-14	20	-21	-16032	2720	-3136	7	-4	23	440	6752	15928	17	1	3	-10320	5728	11864	18	-2	-20	-15608	3664	-2744	-5	-2	5	-216	-4136	16448	11	-14	25	126	129	5
-7520	-5024	13124	-11	16	-21	-16144	2752	-3160	2	3	18	384	6616	15888	19	-2	1	-10048	5728	12344	17	2	-17	-15768	3624	-2712	-1	-4	2	-192	-4128	16336	9	-15	19	125	129	5
-7512	-5048	13144	-14	21	-23	-16064	2680	-3104	1	3	17	552	6512	15816	25	1	4	-10280	5704	11968	18	3	-13	-15536	3664	-2920	-2	-5	2	-184	-4152	16496	7	-17	20	125	129	5
-7484	-5112	13164	-11	21	-24	-16072	2976	-3256	4	0	17	336	6704	15832	30	1	4	-10224	5744	12016	16	4	-16	-15576	3768	-2816	1	-3	1	-272	-4320	16720	2	-11	22	125	128	5
-7540	-4992	13092	-9	20	-23	-16048	2808	-3064	9	-9	15	416	6656	15792	32	4	4	-10168	5832	11984	16	0	-19	-15640	3808	-2808	-1	-3	1	-208	-4160	16328	1	-8	23	126	129	5
-7484	-5072	13096	-11	20	-24	-16216	2784	-3200	12	-7	20	456	6592	15984	33	1	5	-10360	5728	11920	15	4	-20	-15576	3856	-2832	-3	-2	-5	-296	-4248	16496	0	-12	24	125	129	5
-7484	-5076	13036	-13	19	-28	-16008	2744	-3072	7	-5	16	408	6656	15920	30	-1	3	-10272	5672	12000	14	-4	-19	-15752	3624	-2976	-1	1	-5	-184	-4144	16288	2	-12	27	125	129	5
-7576	-5044	13044	-10	21	-26	-16216	2880	-3296	11	-8	19	512	6704	16048	37	7	4	-10216	5744	11784	17	-8	-23	-15624	3744	-2568	-1	-6	-3	-224	-4120	16368	-1	-16	23	125	128	5
-7508	-4988	13152	-16	23	-28	-16232	2832	-3176	9	-5	19	368	6648	15848	32	-1	5	-10152	5816	12032	13	1	-22	-15792	3720	-2592	-2	-3	-8	-104	-4176	16368	-4	-15	24	125	128	5
-7488	-5004	13084	-9	15	-27	-16160	2712	-3208	6	-2	13	440	6712	15656	33	2	7	-10192	5744	11960	17	-3	-19	-15672	3696	-2824	-6	-4	-4	-176	-4088	16416	0	-15	20	125	129	5
-7500	-5052	13120	-12	22	-26	-16144	2728	-3352	5	-12	17	480	6728	15696	24	-4	4	-10208	5696	11720	15	-1	-18	-15520	3640	-2856	0	-7	-5	-272	-4216	16344	-2	-17	25	126	129	5
-7600	-4992	13164	-10	18	-24	-16056	2920	-3192	6	-9	20	344	6848	15504	15	-7	0	-10280	5728	11832	12	-9	-13	-15600	3448	-2536	1	-7	-6	-96	-4288	16360	-4	-18	22	126	129	5
-7492	-4996	13144	-9	17	-26	-16120	2752	-3256	6	0	14	392	6680	16024	9	-8	2	-10112	5744	11808	12	-1	-16	-15624	3640	-2800	1	-6	-2	-144	-4288	16336	-3	-13	25	126	129	5
-7536	-5028	13112	-15	18	-24	-15984	2800	-2992	8	-6	16	512	6680	15656	8	-7	-2	-10056	5848	11880	14	-2	-18	-15760	3704	-2872	-4	-7	0	-136	-4296	16528	2	-13	23	125	129	5
-7580	-5056	13252	-15	14	-20	-16040	2904	-2976	5	-6	17	304	6664	15848	0	-8	3	-10256	5720	11976	16	-6	-20	-15656	3776	-2672	3	-4	-5	-144	-4344	16208	2	-14	23	126	129	5
-7520	-5020	13072	-13	16	-20	-16064	2904	-3008	1	-1	14	488	6552	15872	9	-4	5	-10272	5736	12168	16	-7	-19	-15544	3608	-2944	0	-3	-3	-200	-4280	16264	0	-16	21	126	129	5
-7484	-5092	13192	-14	16	-25	-16208	2872	-3296	6	-2	13	488	6616	15808	14	-8	4	-10312	5784	11792	18	-2	-19	-15680	3632	-2816	-3	-3	-5	-64	-4320	16416	0	-16	23	125	129	5
-7536	-5032	13152	-11	19	-24	-16152	2864	-3248	6	1	15	440	6520	15872	18	-2	7	-10240	6000	11856	13	-3	-17	-15688	3672	-2904	-2	-3	-5	-224	-4296	16568	-4	-16	21	125	128	5
-7552	-4984	13168	-16	18	-25	-16120	2816	-3080	9	-4	14	320	6568	15928	27	-2	8	-10320	5704	11864	12	-3	-17	-15800	3680	-2656	-6	1	-4	-184	-4240	16504	-2	-14	24	125	129	5
-7548	-5064	13112	-9	22	-26	-16200	2696	-3016	11	-3	10	480	6512	15896	30	2	9	-10152	5896	12024	14	-3	-19	-15576	3832	-2760	-5	-5	-3	-96	-4216	16592	-8	-14	23	125	128	5
-7580	-5004	13060	-14	16	-26	-16120	2872	-2992	11	0	12	448	6552	16016	33	1	12	-10248	5800	12088	13	-2	-23	-15744	3568	-2664	0	-8	-2	-208	-4304	16552	0	-13	25	125	128	5
-7536	-5008	13152	-13	16	-23	-16096	2840	-3056	10	-5	15	560	6584	15800	37	2	6	-10000	5792	11672	14	-3	-18	-15576	3672	-2608	-2	-1	-6	-168	-4168	16376	1	-14	21	125	128	5
-7584	-5040	13200	-10	16	-23	-16112	2824	-3176	12	-6	15	408	6584	16048	30	0	6	-10320	5752	12040	15	0	-16	-15608	3712	-2816	1	-4	-9	-176	-4264	16232	-1	-16	24	125	129	5
-7512	-5008	13096	-13	22	-25	-16216	2840	-2976	10	-2	15	256	6640	15968	27	-1	4	-10184	5752	11992	16	-5	-17	-15536	3632	-2856	-2	-2	1	-296	-4200	16272	1	-9	21	125	128	5
-7564	-4968	13112	-9	21	-25	-16136	2824	-3192	5	-4	18	384	6616	16032	20	-2	4	-10208	5760	11728	14	-6	-18	-15552	3712	-2968	1	-2	-2	-32	-4344	16304	3	-14	27	125	129	5
-7512	-4992	13132	-9	22	-26	-16048	2640	-3200	8	-5	17	360	6648	16024	18	-1	2	-10296	5744	11864	13	-8	-19	-15560	3632	-2536	-1	-6	-6	-112	-4320	16560	1	-11	26	125	129	5
-7520	-5032	13088	-10	23	-22	-16168	2816	-3168	4	1	19	520	6616	15952	16	2	1	-10160	5720	11840	14	-3	-20	-15528	3632	-2816	-4	1	-7	-200	-4200	16504	6	-11	27	125	128	5
-7540	-5036	13016	-12	20	-25	-16144	2792	-2992	5	-4	17	296	6592	16024	17	-1	-2	-10184	5752	11928	16	-5	-16	-15720	3696	-2720	-2	1	-3	-160	-4288	16472	1	-13	21	125	129	5
-7512	-4972	13092	-8	18	-22	-16216	2688	-3336	8	0	20	424	6680	15960	22	-7	-1	-10328	5752	11960	14	-4	-18	-15624	3584	-2888	2	-4	-3	-40	-4272	16416	1	-14	19	125	129	5
-7476	-5036	13092	-13	18	-27	-16240	2912	-3080	6	-5	18	384	6672	15832	23	-5	3	-10264	5760	11928	15	0	-15	-15632	3608	-2816	1	-5	-2	-208	-4304	16336	2	-12	19	125	129	5
-7480	-5068	13192	-11	19	-22	-16104	2784	-2872	3	1	21	440	6656	15720	26	-1	2	-10352	5864	12056	18	-7	-20	-15544	3640	-2656	4	-8	0	-256	-4200	16480	2	-13	22	125	128	5
-7572	-5028	13088	-5	19	-26	-16216	2848	-3104	6	-1	17	520	6720	16040	27	0	4	-10248	5688	11904	14	4	-13	-15720	3528	-2808	1	-5	-2	-208	-4216	16464	0	-15	24	125	129	5
-7572	-5012	13164	-15	21	-29	-16176	2776	-2952	12	-2	15	360	6544	16040	23	-1	2	-10176	5696	11848	12	-3	-19	-15576	3696	-3016	-3	-5	-2	-184	-4272	16392	1	-11	21	125	129	5
-7544	-5024	13164	-11	17	-25	-16200	2736	-3328	11	-5	18	368	6792	15912	22	-2	1	-10264	5776	11888	13	3	-19	-15680	3680	-2640	-1	-6	-2	-176	-4352	16328	7	-15	22	125	129	5
-7540	-5056	13144	-12	19	-26	-16120	2896	-3016	15	-2	16	576	6624	15936	24	2	6	-10296	5688	11984	19	0	-15	-15584	3752	-2888	-4	-1	1	-56	-4168	16456	6	-13	22	125	129	5
-7540	-4972	13080	-12	17	-27	-15992	2824	-3040	10	-5	14	456	6584	15984	25	1	3	-10280	5744	11912	17	2	-16	-15544	3840	-2720	1	-5	1	-120	-4328	16256	6	-16	21	125	129	5
-7580	-5044	13116	-11	17	-25	-16056	2816	-3272	8	-2	15	400	6528	16096	25	-2	3	-10312	5776	11968	19	-4	-17	-15688	3752	-2760	2	-10	-6	-264	-4264	16392	1	-14	17	125	129	5
-7528	-5060	13172	-9	19	-21	-16136	2728	-2976	8	-4	16	496	6624	15840	23	2	3	-10232	5864	12016	16	-4	-20	-15584	3776	-2480	0	-6	-1	-224	-4080	16616	-2	-15	20	125	129	5
-7492	-5016	13104	-11	19	-24	-16160	2792	-3104	5	-8	19	496	6424	15904	26	1	5	-10080	5744	11952	11	-2	-18	-15720	3608	-2944	-4	0	-3	-296	-4256	16536	2	-13	27	125	129	5
-7596	-5064	13080	-10	15	-27	-16160	2776	-3056	3	-3	18	264	6648	15640	22	-1	3	-10184	6024	12120	13	-1	-22	-15744	3672	-2712	-2	-6	-3	-248	-4232	16488	1	-17	24	125	128	5
-7536	-5040	13008	-20	22	-21	-16120	2792	-3264	2	-7	17	520	6496	15624	26	3	6	-10248	5696	12000	9	1	-19	-15664	3608	-2688	-5	0	-6	-88	-4152	16336	1	-10	28	125	128	5
-7512	-5036	13160	-10	18	-26	-16168	2664	-3160	7	-4	17	440	6552	15792	29	-1	3	-10120	5696	11768	16	-10	-24	-15712	3664	-2656	-5	-2	-8	-208	-4336	16544	-1	-14	28	125	128	5
-7516	-5056	13056	-10	19	-27	-16144	2848	-3184	7	-5	18	392	6416	15616	29	3	4	-10376	5856	11928	14	-7	-15	-15728	3720	-3032	0	-9	-5	-24	-4264	16176	-1	-16	25	125	129	5
-7528	-4984	13064	-12	15	-22	-16184	2920	-3016	9	-9	16	392	6672	16120	29	-2	6	-10256	5656	11784	15	2	-22	-15656	3592	-2816	-1	-4	-6	-112	-4248	16312	-4	-18	26	125	128	5
-7540	-4988	13104	-13	20	-26	-16120	2904	-3232	5	-5	15	296	6656	15832	28	-1	10	-10264	5752	12088	12	1	-19	-15696	3704	-2976	4	3	-4	-176	-4272	16328	-2	-13	21	125	128	5
-7556	-5072	13208	-11	22	-27	-16136	2880	-3112	8	-2	13	496	6672	15872	28	-4	8	-10088	5736	11728	14	-3	-19	-15672	3616	-3032	-3	-4	-4	-256	-4168	16272	-4	-13	24	125	128	5
-7540	-5080	13096	-14	14	-25	-16216	2872	-3056	10	-9	14	664	6592	15896	21	0	6	-10272	5768	11992	15	-3	-17	-15560	3624	-2624	-1	-9	-5	-264	-4312	16344	-3	-13	22	125	128	5
-7456	-5008	13224	-11	20	-22	-16160	2888	-3008	10	-6	15	376	6640	15792	10	-1	2	-10344	5792	11952	16	-7	-19	-15752	3600	-2864	-8	-1	-2	-136	-4256	16304	1	-14	19	125	128	5
-7492	-5064	13012	-7	21	-26	-16024	2760	-2976	10	-1	16	576	6672	15632	12	-4	2	-10128	5784	11888	15	1	-17	-15568	3720	-2728	-6	-1	-3	-160	-4280	16496	-1	-14	19	125	128	5
-7512	-5028	13140	-13	17	-26	-16208	2824	-3032	12	-2	14	408	6624	15976	10	0	2	-10160	5688	12016	18	-5	-16	-15656	3696	-2896	-4	0	-3	-248	-4200	16248	1	-17	18	125	128	5
-7528	-5024	13176	-15	21	-24	-16056	2832	-2952	9	-2	15	448	6464	15776	21	-1	7	-10176	5816	12048	18	-1	-20	-15688	3656	-2760	-1	1	-1	-264	-4224	16248	-3	-16	20	125	128	5
-7580	-5072	13200	-13	17	-28	-16104	2792	-3088	6	-1	14	416	6552	15984	25	-3	4	-10392	5712	11896	16	-3	-18	-15696	3632	-2944	0	-5	-2	-328	-4296	16592	-3	-13	22	125	129	5
-7504	-5064	13144	-14	19	-26	-16136	2824	-2968	5	-1	16	392	6544	15984	27	-4	4	-10216	5888	11768	17	-6	-20	-15608	3752	-2880	-1	0	2	-160	-4216	16240	1	-13	22	125	129	5
-7528	-4944	13104	-13	20	-26	-16176	2776	-3344	7	-3	15	488	6528	15864	27	2	1	-10120	5736	11792	15	0	-19	-15576	3696	-2792	-2	-1	0	-184	-4128	16432	5	-13	24	125	128	5
-7440	-5024	13108	-15	20	-23	-16136	2816	-2944	13	-6	16	352	6760	15936	27	1	1	-10304	5888	11896	14	-2	-16	-15616	3480	-2896	-2	-3	-5	-184	-4208	16400	6	-15	23	125	129	5
-7512	-5040	13124	-13	21	-28	-16112	2744	-3304	10	-2	16	344	6584	15856	28	8	0	-10280	5768	11784	12	-8	-13	-15656	3600	-2744	-5	-4	-2	-208	-4032	16304	1	-10	25	125	129	5
-7548	-5024	13088	-10	18	-23	-16256	2832	-3176	11	-6	18	312	6656	15952	28	2	2	-10224	5792	11872	13	-2	-16	-15656	3608	-2680	-2	-3	-1	-216	-4016	16240	0	-11	23	125	129	5
-7496	-5060	13144	-11	17	-24	-16136	3032	-3152	12	-4	23	432	6720	15856	30	-3	-1	-10176	5696	11920	9	-1	-19	-15624	3728	-2680	0	-4	-3	-208	-4344	16384	0	-11	21	125	129	5
-7528	-5036	13052	-13	17	-21	-16168	2736	-3248	7	-5	21	416	6544	15920	34	-5	1	-10256	5872	11904	17	-7	-16	-15608	3680	-2808	-1	-5	-4	-224	-4128	16336	-2	-14	23	124	128	5
-7532	-4968	13100	-15	18	-28	-16080	2872	-2896	3	-4	21	512	6728	15816	33	-4	0	-10192	5784	12024	16	-3	-14	-15760	3712	-2920	1	-5	-5	-248	-4296	16424	-5	-19	21	125	129	5
-7536	-4996	13164	-15	18	-24	-16144	2696	-2992	0	-4	21	376	6664	15720	28	-1	2	-10192	5872	11968	14	4	-17	-15632	3640	-2856	2	-9	-1	-352	-4264	16440	-5	-16	22	124	128	5
-7564	-5040	13200	-11	19	-25	-16024	2792	-3072	5	-5	18	384	6592	15888	26	-3	3	-10288	5728	11688	15	2	-24	-15672	3648	-2920	-3	-5	-1	-176	-4280	16432	6	-11	20	124	128	5
-7488	-5012	13128	-12	19	-22	-16128	2824	-3304	8	-7	19	360	6544	15920	22	-5	2	-10208	5744	11904	18	1	-19	-15616	3632	-2760	-1	-6	1	-216	-4256	16304	2	-10	22	124	129	5
-7580	-5044	13076	-10	18	-24	-16208	2776	-3088	10	-5	17	480	6648	15728	23	-4	2	-10168	5856	11928	14	-4	-16	-15688	3592	-2888	1	-5	0	-152	-4128	16464	4	-11	27	124	129	5
-7476	-5056	13164	-11	22	-23	-16224	2808	-3048	8	-6	18	296	6744	15656	22	-4	2	-10400	5704	11872	10	0	-18	-15680	3656	-2816	-3	-7	3	-240	-4144	16512	4	-12	19	124	129	5
-7484	-5024	13132	-12	18	-25	-16264	2832	-3088	15	-4	20	288	6736	15760	24	0	5	-10152	5848	11928	12	0	-19	-15576	3648	-2744	0	-4	2	-232	-4256	16552	1	-11	21	125	129	5
-7552	-4936	13056	-12	19	-25	-16232	2920	-3176	14	-6	19	416	6560	15864	24	0	-2	-10216	5752	11896	15	0	-19	-15616	3600	-2864	-7	-7	-1	-128	-4256	16128	0	-18	21	124	129	5
-7484	-5084	13108	-12	20	-27	-16056	2768	-3152	14	-7	16	424	6728	15848	25	3	7	-10272	5760	11984	15	-9	-16	-15768	3696	-2816	-4	-5	-3	-56	-4136	16528	1	-15	20	125	128	5
-7532	-4976	13056	-17	20	-25	-16144	2752	-3136	12	-5	15	400	6744	15920	20	-1	5	-10152	5712	11888	15	-3	-15	-15752	3744	-2808	-2	-3	-4	-8	-4232	16616	1	-15	23	124	128	5
-7536	-5008	13160	-15	21	-27	-16168	2936	-3144	7	-1	16	424	6672	15760	22	3	5	-10160	5888	11880	16	-5	-20	-15776	3712	-2816	-4	-6	0	-240	-4136	16512	3	-13	23	124	128	5
-7544	-5064	13164	-13	20	-27	-16256	2704	-3080	9	-1	15	408	6528	15848	18	-1	7	-10288	5768	11904	18	-6	-21	-15616	3656	-2888	-2	-1	-4	-192	-4112	16472	-2	-12	25	124	129	5
-7556	-4948	13076	-11	18	-26	-16280	2824	-3160	14	1	14	408	6752	15904	27	0	1	-10168	5720	11984	12	-3	-20	-15632	3920	-2752	-2	-1	-2	-208	-4184	16240	2	-14	22	125	128	5
-7504	-5100	13216	-13	20	-26	-16112	2696	-3104	10	-1	18	320	6704	15800	27	-1	3	-10160	5936	11864	17	-7	-17	-15696	3696	-3016	-2	-3	-6	-64	-4216	16432	3	-15	25	125	128	5
-7536	-5080	13104	-12	20	-26	-16152	2872	-3072	9	-2	17	376	6680	15856	25	-2	-2	-10136	5864	11976	14	-2	-21	-15664	3600	-2800	-1	-4	-9	-208	-4256	16552	-3	-14	23	125	128	5
-7612	-5004	13080	-14	21	-23	-16264	2808	-2960	9	-2	22	480	6712	15680	25	-6	0	-10168	5880	11680	17	-3	-22	-15648	3696	-2736	3	-1	-9	-248	-4152	16240	-7	-17	22	125	128	5
-7548	-5048	13124	-10	21	-28	-16112	2736	-3048	10	-2	19	504	6592	15904	24	1	-4	-10128	5800	11992	12	-3	-16	-15688	3720	-2936	-1	-1	-4	-208	-4352	16376	-8	-14	23	125	128	5
-7516	-5076	13140	-11	21	-24	-16200	2824	-2952	5	1	23	392	6680	15904	25	-4	1	-10128	5728	12048	15	1	-20	-15624	3600	-3024	1	0	-2	-128	-4336	16576	-8	-16	23	125	129	5
-7536	-5044	13184	-11	17	-22	-16136	2848	-3184	7	-3	16	408	6528	15992	23	-2	2	-10224	5736	11928	16	-5	-17	-15720	3664	-2784	4	-7	-7	-216	-4280	16320	-6	-14	25	124	129	5
-7508	-5048	13160	-13	19	-26	-16096	2816	-3192	7	-7	15	312	6720	15744	28	-4	6	-10232	5760	11816	17	0	-18	-15704	3736	-3056	-1	-6	-2	-112	-4288	16456	3	-13	24	125	129	5
-7488	-4992	13116	-11	18	-25	-16208	2808	-3200	6	-2	14	360	6608	16032	27	-1	4	-10248	5864	11896	15	-1	-17	-15664	3648	-2888	-1	-6	-6	-136	-4368	16280	4	-13	18	124	129	5
-7484	-5104	13132	-10	18	-25	-16096	2944	-3264	10	1	10	400	6632	15784	25	0	6	-10224	5832	12120	18	0	-16	-15680	3656	-2736	0	-5	0	-232	-4312	16336	1	-13	21	124	128	5
-7548	-5072	13072	-10	15	-25	-16080	2712	-3328	13	-8	18	336	6744	16024	19	2	2	-10128	5800	11960	12	-4	-15	-15824	3648	-2840	-1	-4	0	-224	-4272	16352	3	-17	18	124	129	5
-7584	-5016	13024	-12	15	-26	-16112	2872	-3376	14	-6	13	432	6656	15848	17	-3	2	-10240	5800	11576	17	3	-17	-15704	3704	-3048	-2	-8	-2	-96	-4224	16472	4	-17	22	124	129	5
-7528	-4988	13132	-14	19	-23	-16248	2720	-3184	11	-2	17	240	6592	15920	18	1	6	-10184	5848	11808	17	-2	-13	-15560	3752	-2864	-4	-7	2	-120	-4328	16360	1	-15	16	124	129	5
-7508	-5040	13184	-12	16	-29	-16032	2824	-3128	9	0	15	408	6616	15776	17	-1	0	-10216	5768	12016	16	-5	-14	-15552	3664	-2728	-1	-7	-4	-72	-4152	16504	0	-12	20	124	129	5
-7528	-5036	13068	-14	20	-21	-16112	2752	-3240	10	1	19	408	6592	16008	21	1	3	-10168	5832	11984	19	-2	-15	-15704	3680	-2856	-6	-7	1	-112	-4096	16416	2	-12	18	124	128	5
-7592	-5064	13096	-12	16	-23	-16048	2848	-2896	8	1	18	400	6576	15680	24	-5	1	-10232	5712	12024	13	-2	-17	-15608	3704	-2880	0	-5	0	-312	-4224	16352	7	-11	23	124	128	5
-7536	-5056	13100	-14	19	-22	-16152	2736	-3168	7	-6	17	304	6648	15776	22	-1	1	-10368	5832	11768	21	-13	-14	-15688	3624	-2944	-2	-7	1	16	-4160	16256	4	-11	19	125	128	5
-7480	-5064	12992	-14	20	-26	-16224	2792	-3320	11	-1	19	264	6568	16184	24	-2	-2	-10256	5760	11872	13	-1	-18	-15632	3848	-2528	-5	-4	-1	-128	-4080	16456	7	-11	23	124	128	5
-7516	-5020	13164	-8	17	-26	-16200	2784	-3088	8	-5	23	408	6488	15848	22	-4	-2	-10176	5944	11816	9	-4	-19	-15624	3696	-2896	-3	-4	-4	-328	-4272	16416	6	-11	26	125	129	5
-7524	-4996	13056	-11	19	-23	-16112	2688	-3080	8	-5	18	488	6672	15848	25	0	-3	-10224	5768	12224	17	-7	-19	-15744	3728	-2752	-3	-1	-5	-168	-4232	16440	4	-16	27	124	128	5
-7556	-5024	13092	-9	18	-25	-16040	2744	-3032	5	-1	23	352	6664	16008	25	2	1	-10120	5864	11872	16	-2	-15	-15712	3640	-2824	-5	-4	-6	-88	-4144	16216	-1	-15	24	125	128	5
-7612	-5044	13164	-12	19	-21	-16168	2904	-2808	5	-2	24	312	6696	15928	30	-2	4	-10192	5912	12208	13	-1	-18	-15688	3832	-2824	0	1	-7	-240	-4408	16560	-5	-14	22	125	129	5
-7528	-5036	13032	-11	20	-23	-16200	2768	-3304	3	-3	20	416	6632	15960	34	-4	2	-10280	5976	12056	15	-6	-19	-15640	3736	-2736	0	-3	0	-128	-4240	16400	-7	-15	25	125	129	5
-7536	-5044	13064	-9	19	-26	-16120	2752	-2840	7	-2	17	616	6664	15832	35	-1	3	-10208	5816	11992	13	-2	-20	-15656	3752	-2704	-2	0	-5	-104	-4328	16320	1	-12	25	124	128	5
-7492	-5008	13124	-15	21	-25	-16176	2848	-3224	5	0	18	432	6728	15720	31	-1	3	-10088	5760	11728	16	1	-23	-15640	3616	-2784	0	-6	-2	-96	-4176	16576	0	-15	27	125	128	5
-7552	-5012	13172	-9	16	-27	-16088	2928	-3168	9	-1	14	632	6640	15848	25	2	6	-10288	5888	12072	12	-2	-18	-15728	3600	-3040	0	-2	-3	-128	-4288	16192	3	-17	26	125	128	5
-7556	-5036	13088	-16	19	-26	-16120	2728	-3224	8	-2	13	416	6672	15664	19	1	2	-10168	5784	11936	19	-5	-18	-15448	3624	-2504	-1	-1	-2	-192	-4280	16424	-1	-14	19	124	128	5
-7528	-5040	13128	-13	20	-31	-16144	2888	-3064	11	-3	14	384	6712	15992	16	-2	1	-10264	5736	11984	18	-6	-18	-15640	3592	-2856	-3	-4	0	-88	-4320	16440	-2	-11	20	124	128	5
-7568	-5000	13072	-13	19	-27	-16048	2896	-3264	14	-1	17	424	6688	15848	16	0	5	-10280	5776	11912	15	-3	-17	-15728	3648	-2872	-2	-5	-2	-288	-4168	16368	5	-14	22	125	129	5
-7512	-5056	13200	-16	23	-24	-16128	2768	-2976	14	-8	19	456	6560	15864	15	-3	7	-10264	5848	11880	19	1	-15	-15672	3632	-2800	0	-6	-1	-256	-4136	16352	1	-10	25	124	129	5
-7500	-5040	13044	-12	17	-23	-16072	2888	-3048	10	-5	14	432	6608	15832	18	1	5	-10232	5800	11928	16	-5	-18	-15640	3712	-2568	0	-4	-1	-240	-4248	16464	1	-14	21	125	129	5
-7560	-5032	13132	-12	21	-29	-16232	2808	-3192	5	-3	15	376	6704	15664	15	-1	0	-10280	5816	11976	14	-6	-17	-15664	3840	-2720	-5	-7	-4	-256	-4144	16448	3	-14	24	125	129	5
-7572	-5012	13124	-18	21	-23	-16144	2832	-3040	7	-8	14	240	6584	15976	26	-2	2	-10224	5776	12128	13	0	-19	-15624	3704	-2640	-1	-5	-6	-144	-4168	16480	-2	-17	24	125	129	5
-7544	-5020	13228	-13	17	-23	-16216	2720	-3000	8	-5	18	304	6616	15848	24	-2	5	-10168	5920	12016	14	-4	-18	-15704	3784	-2728	-3	-3	-5	-160	-4248	16328	2	-13	24	125	128	5
-7564	-5072	13168	-13	20	-24	-15992	2784	-3400	3	-9	19	280	6688	16184	31	-2	2	-10304	5784	11872	10	0	-19	-15680	3712	-2936	-3	-9	-5	-184	-4368	16264	0	-15	21	125	128	5
-7544	-5004	13124	-15	16	-19	-16176	2800	-3104	3	-4	15	416	6632	15616	30	-5	6	-10192	5792	12032	20	-4	-18	-15760	3680	-2680	-2	-5	-4	-192	-4280	16352	-1	-14	23	125	129	5
-7568	-5024	13060	-8	18	-24	-16160	2808	-2992	8	-6	16	472	6728	15816	31	-2	3	-10104	5800	12168	15	-4	-17	-15776	3664	-2912	-4	-7	-4	-8	-4264	16488	-2	-14	25	125	128	5
-7592	-4992	13044	-9	17	-24	-16136	2760	-2944	8	-4	19	560	6696	15984	29	-4	-1	-10256	5904	11976	17	-3	-22	-15656	3488	-2816	-2	-5	-5	-168	-4352	16504	-3	-17	25	125	128	5
-7540	-4984	13088	-15	16	-28	-16184	2832	-3232	5	-1	18	384	6640	15760	25	3	6	-10152	5688	12176	12	-2	-16	-15536	3584	-2728	-4	-6	-8	-312	-4328	16320	0	-14	29	125	128	5
-7500	-5032	13200	-14	17	-22	-16184	2808	-3128	10	-9	21	440	6664	15848	17	0	2	-10144	5800	11784	21	-2	-17	-15704	3568	-2624	-4	-4	-6	-184	-4352	16336	5	-6	24	125	129	5
-7524	-5004	13208	-11	16	-25	-16200	2752	-3112	12	-3	17	312	6672	16216	17	3	4	-10240	5784	11832	16	-5	-16	-15560	3744	-2792	2	-4	-5	-152	-4320	16328	5	-12	24	125	128	5
-7516	-5052	13160	-10	17	-27	-16200	2888	-3072	13	-7	15	496	6552	15976	14	-1	1	-10216	5768	11880	16	0	-18	-15744	3584	-2824	2	-3	3	-184	-4152	16360	3	-13	20	125	128	5
-7516	-5036	13136	-10	20	-28	-16088	2912	-3208	11	-2	19	368	6504	16024	18	-4	3	-10160	5712	11952	13	-2	-18	-15752	3536	-2736	-3	-2	-2	-104	-4400	16320	3	-17	17	125	128	5
-7524	-5016	13140	-11	23	-22	-16160	2840	-3064	6	3	14	344	6528	15912	20	-1	6	-10272	5784	11856	16	-1	-18	-15712	3592	-2896	-5	-3	-3	-176	-4232	16424	2	-17	21	125	128	5
-7552	-4992	13148	-9	23	-25	-16112	2696	-3072	6	-1	14	336	6696	15912	24	-3	2	-10176	5680	12112	17	2	-16	-15688	3648	-2936	-8	-2	-2	-320	-4288	16336	1	-13	22	125	128	5
-7540	-5068	13160	-17	19	-21	-16152	2648	-3112	9	-1	17	352	6656	16024	27	6	5	-10032	5896	11880	15	-6	-20	-15712	3720	-2680	-6	-3	-1	-72	-4216	16456	0	-12	26	124	129	5
-7524	-4988	13124	-13	20	-25	-16136	2768	-3056	12	-3	20	408	6616	15672	29	0	-1	-10256	5952	11792	17	-5	-20	-15744	3592	-2920	-4	-3	-5	-184	-4128	16384	6	-8	25	124	129	5
-7508	-4988	13052	-11	21	-22	-16096	2760	-3208	12	-1	18	352	6616	15960	31	4	1	-10288	5704	12008	17	-5	-21	-15672	3704	-3104	0	-2	2	-232	-4256	16400	3	-13	25	125	128	5
-7524	-5036	13040	-7	19	-26	-16160	2800	-3208	13	0	22	448	6560	15776	31	-1	1	-10176	5696	11856	17	-3	-17	-15664	3752	-2624	-4	-8	-1	-232	-4224	16272	5	-13	21	125	128	5
-7600	-5028	13116	-13	17	-23	-16088	2784	-3096	9	1	19	408	6480	15736	32	2	4	-10112	5848	12000	19	2	-21	-15688	3728	-3008	0	-2	-10	-256	-4320	16488	0	-16	22	125	129	5
-7528	-5044	13148	-7	19	-23	-16112	2848	-3200	3	-4	18	440	6712	15752	31	0	2	-10168	5776	11896	16	3	-17	-15584	3696	-2744	3	-4	0	-240	-4280	16328	0	-16	23	125	129	5
-7540	-4980	13124	-10	18	-27	-16272	2840	-3256	6	-2	18	336	6568	15888	30	-3	2	-10192	5728	12056	17	-2	-17	-15616	3536	-2736	-3	-7	-7	-136	-4208	16448	-1	-11	20	125	128	5
-7544	-5024	13176	-16	15	-26	-16088	2896	-3128	5	-2	18	352	6688	15968	35	-1	2	-10096	5728	11728	14	0	-17	-15568	3760	-2688	0	-4	-3	-304	-4288	16432	-1	-12	18	125	128	5
-7548	-5020	13100	-12	19	-21	-16168	2864	-3032	6	-1	19	360	6688	15984	28	-4	6	-10248	5872	11928	15	-3	-15	-15712	3584	-2720	0	-7	-2	-96	-4288	16552	3	-10	20	125	128	5
-7564	-4976	13080	-12	18	-22	-16112	2960	-3376	6	-3	21	344	6816	15784	26	1	4	-10304	5752	11936	18	3	-20	-15760	3768	-3120	-8	-3	2	-208	-4328	16416	6	-13	18	125	128	5
-7572	-5052	13064	-6	21	-26	-16112	2720	-3128	5	-4	16	408	6664	15760	23	1	5	-10288	5728	11920	16	-4	-20	-15648	3720	-2856	-3	-10	-4	-120	-4208	16312	6	-15	22	125	128	5
-7552	-4976	13076	-10	17	-26	-16104	2744	-3112	10	-2	16	504	6680	15792	24	1	3	-10224	5736	11720	14	-3	-15	-15672	3648	-2560	-4	-6	-2	-184	-4232	16344	4	-15	21	125	128	5
-7528	-5052	13088	-13	21	-21	-16008	2728	-2920	20	-4	18	424	6672	15800	17	4	-2	-10160	5784	12048	12	-5	-14	-15672	3656	-2784	-6	-8	-3	-112	-4168	16400	3	-13	24	125	128	5
-7508	-5048	13004	-4	16	-27	-16096	2888	-3240	11	-3	17	392	6736	15656	27	-1	3	-10160	5776	11872	18	-7	-22	-15520	3672	-2504	-3	-4	-5	-96	-4312	16136	8	-13	19	125	129	5
-7504	-4992	13116	-12	20	-26	-16160	2840	-3080	12	-2	19	416	6648	15792	26	1	-1	-10088	5680	12144	16	-5	-17	-15696	3728	-2520	-4	-2	-8	-336	-4152	16376	3	-12	24	125	129	5
-7528	-5012	13064	-8	20	-25	-16152	2752	-3240	8	-6	14	400	6608	16008	27	1	1	-10232	5712	11864	14	-8	-16	-15792	3680	-2720	-6	-3	1	-272	-4168	16192	4	-12	18	125	129	5
-7512	-5052	13068	-11	20	-24	-16160	2864	-3112	6	-8	16	488	6584	15848	28	-2	3	-10128	5744	12032	11	-4	-18	-15632	3744	-2976	-1	-8	-5	-184	-4256	16160	0	-16	26	125	129	5
-7536	-5088	13012	-12	24	-27	-16056	2784	-3344	2	-2	19	392	6760	15704	27	0	4	-10344	5880	11912	16	-1	-21	-15624	3720	-2872	-1	-4	-1	-120	-4120	16256	-6	-17	24	125	129	5
-7552	-4960	13052	-15	16	-23	-15968	2888	-3264	2	-4	17	384	6472	15896	27	-3	3	-10152	5704	11984	18	-5	-19	-15616	3752	-2856	0	-1	1	-96	-4240	16280	-3	-17	20	125	129	5
-7520	-5048	13044	-7	20	-22	-16056	2816	-3160	1	2	19	520	6744	15800	25	4	3	-10144	5776	11896	16	-1	-22	-15656	3704	-2744	-1	-4	-3	-128	-4304	16424	-3	-16	23	125	128	5
-7588	-5016	13148	-14	17	-24	-16056	2872	-3064	8	-3	15	360	6712	15808	30	-2	2	-10128	5688	11840	9	1	-18	-15680	3704	-2704	-5	0	-7	-344	-4168	16400	-2	-15	21	125	129	5
-7576	-5012	13092	-9	21	-21	-16024	2736	-2960	12	-5	16	400	6584	15904	28	2	3	-10176	5872	12112	13	-3	-23	-15664	3792	-2864	-2	-4	-3	-160	-4280	16592	-1	-12	24	125	129	5
-7436	-5036	12980	-15	20	-24	-16088	2952	-3304	12	-4	16	424	6568	15896	26	2	5	-10272	5704	11752	12	-4	-17	-15688	3752	-3112	-7	-2	-8	-136	-4256	16216	1	-16	26	125	128	5
